EXPLAIN
TAG	EISPOT
TITLE	LABEL	Potentiostatic EIS	Test Identifier
DATE	LABEL	9/12/2020	Date
TIME	LABEL	18:33:51	Time
NOTES	NOTES	1	Notes...
	
PSTAT	PSTAT	REF3000-16137	Potentiostat
VDC	POTEN	0.00000E+000	T	DC Voltage (V)
FREQINIT	QUANT	3.00000E+005	Initial Freq. (Hz)
FREQFINAL	QUANT	1.00000E+000	Final Freq. (Hz)
PTSPERDEC	QUANT	1.00000E+001	Points/decade
VAC	QUANT	5.00000E+001	AC Voltage (mV rms)
AREA	QUANT	1.00000E+000	Sample Area (cm^2)
SPEED	SELECTOR	2	Optimize for:
ZGUESS	QUANT	1.00000E+003	Estimated Z (ohms)
EOC	QUANT	0	Open Circuit (V)
SEQUENCER	TOGGLE	TRUE	Run as Sequence
PSTATMODEL	IQUANT	5	Pstat Model
PSTATSECTION	LABEL	REF3000-16137	Pstat Section
PSTATSERIALNO	LABEL	16137	Pstat Serial Number
CTRLMODE	IQUANT	1	Control Mode
IESTAB	IQUANT	0	I/E Stability
CASPEED	IQUANT	1	Control Amp Speed
CONVENTION	IQUANT	1	Current Convention
ICHRANGE	IQUANT	2	Ich Range
ICHRANGEMODE	TOGGLE	F	Ich Auto Range
ICHOFFSETENABLE	TOGGLE	T	Ich Offset Enable
ICHOFFSET	QUANT	0	Ich Offset (V)
ICHFILTER	IQUANT	3	Ich Filter
VCHRANGE	IQUANT	2	Vch Range
VCHRANGEMODE	TOGGLE	F	Vch Auto Range
VCHOFFSETENABLE	TOGGLE	T	Vch Offset Enable
VCHOFFSET	QUANT	0	Vch Offset (V)
VCHFILTER	IQUANT	3	Vch Filter
ACHRANGE	IQUANT	2	Ach Range
ACHOFFSETENABLE	TOGGLE	F	Ach Offset Enable
ACHOFFSET	QUANT	0	Ach Offset (V)
ACHFILTER	IQUANT	3	Ach Filter
IERANGELOWERLIMIT	IQUANT	2	I/E Range Lower Limit
IERANGEMODE	TOGGLE	F	I/E AutoRange
IERANGE	IQUANT	11	I/E Range
POSFEEDENABLE	TOGGLE	F	Positive Feedback IR Comp
POSFEEDRESISTANCE	QUANT	0	Positive Feedback Resistance (ohm)
ACHSELECT	IQUANT	0	Ach Select
CABLEID	IQUANT	13	Cable ID
DCCALDATE	LABEL	7/31/2020	DC Calibration Date
ACCALDATE	LABEL	7/31/2020	AC Calibration Date
THERMOSELECT	IQUANT	1	Thermo Select
FRAMEWORKVERSION	QUANT	6.33	Framework Version
INSTRUMENTVERSION	LABEL	3.50	Instrument Version
COMPLIANCEVOLTAGE	IQUANT	0	Compliance Voltage
ZCURVE	TABLE
	Pt	Time	Freq	Zreal	Zimag	Zsig	Zmod	Zphz	Idc	Vdc	IERange
	#	s	Hz	ohm	ohm	V	ohm	°	A	V	#
	0	25	300046.9	140.6679	-4467.449	1	4469.663	-88.19651	2.660218E-005	0.0009792	9
	1	46	238359.4	167.357	-5205.288	1	5207.977	-88.1585	-0.0001082	0.0037207	9
	2	67	189328.1	509.373	-6541.148	1	6560.952	-85.54724	-1.40838E-005	0.0017961	9
	3	76	150421.9	430.9287	-8349.886	1	8360.998	-87.04565	-2.227347E-005	0.0015605	9
	4	88	119484.4	817.6212	-10114.88	1	10147.87	-85.37863	-0.0001069	0.0037971	9
	5	101	94921.88	1259.479	-13174.17	1	13234.24	-84.539	-1.119027E-006	-0.0051243	8
	6	109	75421.88	1411.589	-16425.37	1	16485.91	-85.0881	1.733931E-005	0.0003086	8
	7	118	59859.37	2177.236	-21068.03	1	21180.23	-84.09982	-2.035285E-005	0.00279	8
	8	126	47578.12	2857.616	-26114.26	1	26270.14	-83.75512	2.733049E-005	-0.0074585	8
	9	135	37828.12	3529.096	-31869.65	1	32064.45	-83.68108	1.746574E-005	0.0002957	8
	10	144	30046.88	4067.611	-39798.51	1	40005.84	-84.16434	-1.973296E-005	0.0113014	8
	11	154	23859.38	5815.31	-52125.68	1	52449.06	-83.63422	1.621356E-005	-0.0092339	8
	12	161	18984.38	11722.71	-62210.97	1	63305.82	-79.32862	6.573157E-006	-0.0103581	7
	13	166	15046.87	14934.43	-78295.19	1	79706.8	-79.20083	-7.20123E-006	0.023223	7
	14	171	11953.13	18578.54	-96764.9	1	98532.3	-79.13166	3.370808E-006	-0.0236178	7
	15	178	9515.62	25307.91	-118962.1	1	121624.3	-77.98998	3.443664E-006	-0.0242791	7
	16	183	7546.875	40085	-151727.3	1	156933.1	-75.20109	7.357906E-006	-0.0181431	7
	17	189	5928.309	46234.75	-179443.2	1	185303.8	-75.55161	7.554521E-006	-0.0242163	7
	18	196	4733.456	88643.93	-216132.2	1	233604.1	-67.69962	4.895506E-006	-0.0008927	7
	19	202	3796.875	104838.9	-263003.9	1	283129.4	-68.26673	-3.717703E-006	0.0251382	7
	20	208	2987.132	46737.63	-421204.1	1	423789.2	-83.66825	-1.196946E-005	0.010231	8
	21	215	2390.625	118664.4	-367521.6	1	386203.8	-72.10591	6.717801E-006	-0.0265839	7
	22	222	1884.191	247750.8	-457370.2	1	520161.5	-61.55623	6.569584E-006	-0.0101994	7
	23	228	1516.544	386912.1	-581434.3	1	698403	-56.35845	3.407332E-006	-0.0242963	7
	24	235	1193.986	358963.3	-610516.6	1	708226.8	-59.54589	-6.449039E-006	0.0255317	7
	25	241	946.5144	648650.6	-337053.4	1	730994.3	-27.4574	-3.793721E-006	0.0254157	7
	26	246	751.7689	135833.9	-1111528	1	1119797	-83.03274	-6.541558E-006	0.0257244	7
	27	251	597.4265	523322.4	-638075.4	1	825231.2	-50.64285	7.506755E-006	-0.024215	7
	28	258	477.4305	1022281	-656543.3	1	1214952	-32.70994	-9.642082E-008	0.0006535	7
	29	265	376.6741	1277354	-501429.1	1	1372248	-21.43264	-1.0727E-009	0.0006064	5
	30	268	298.2954	1368501	-448986.2	1	1440272	-18.16395	-1.053601E-009	0.0005967	5
	31	271	237.7717	1443828	-403357.8	1	1499112	-15.60861	-1.126398E-009	0.0006023	5
	32	274	189.0121	1519371	-348493.2	1	1558825	-12.9183	-1.145024E-009	0.0006666	5
	33	276	150.2404	1578182	-305337.3	1	1607448	-10.94996	-1.137768E-009	0.0006048	5
	34	279	119.1737	1558266	-238462.5	1	1576407	-8.700512	-1.162363E-009	0.0006582	5
	35	282	95.0169	1693336	-220091.5	1	1707580	-7.405509	-1.151445E-009	0.0006205	5
	36	285	75.60484	1739895	-176288.3	1	1748803	-5.785533	-1.071261E-009	0.0006035	5
	37	288	54.50582	1765828	-133863.3	1	1770895	-4.335166	-1.188215E-009	0.0006644	5
	38	291	45.95588	1827888	-122105.2	1	1831962	-3.82175	-1.042115E-009	0.00061	5
	39	293	37.20238	1868718	-106064.1	1	1871726	-3.24849	-1.231875E-009	0.0006762	5
	40	296	30.04808	1895450	-95170.1	1	1897837	-2.874393	-1.048654E-009	0.0005812	5
	41	299	23.91582	1926987	-70704.38	1	1928283	-2.101336	-1.251507E-009	0.0006704	5
	42	302	18.60119	1982487	-93844.77	1	1984707	-2.710181	-1.361045E-009	0.0006636	5
	43	304	15.02404	2000898	-56626.21	1	2001699	-1.621061	-1.028298E-009	0.0006437	5
	44	306	12.01923	2036565	-46112.81	1	2037087	-1.297095	-1.079993E-009	0.0006785	5
	45	309	9.450605	2077273	-38945.16	1	2077638	-1.074068	-9.949804E-010	0.0005866	5
	46	312	7.512019	2119783	-34678.88	1	2120066	-0.9372548	-1.095074E-009	0.0006922	5
	47	315	5.978954	2172368	-28650.91	1	2172557	-0.7556185	-1.112844E-009	0.0006522	5
	48	319	4.734848	2232692	-26052.55	1	2232844	-0.6685353	-1.074393E-009	0.000702	5
	49	323	3.75601	2306172	-23669.21	1	2306293	-0.5880302	-9.463216E-010	0.0006005	5
	50	328	3.004808	2399961	-20985.27	1	2400052	-0.5009819	-9.646568E-010	0.0005675	5
	51	335	2.372217	2488533	-19679.86	1	2488611	-0.4530981	-1.074697E-009	0.0005685	5
	52	339	1.878005	2566400	-20075.22	1	2566479	-0.4481772	-1.010142E-009	0.0006262	5
	53	344	1.512097	2658804	-20882.91	1	2658886	-0.450006	-9.870457E-010	0.0006402	5
	54	349	1.201923	2768293	-20520.31	1	2768369	-0.4247043	-1.00799E-009	0.0006538	5
	55	355	0.956633	2895219	-24227.77	1	2895320	-0.4794515	-1.308024E-009	-1.133997E-005	5
