EXPLAIN
TAG	EISPOT
TITLE	LABEL	Potentiostatic EIS	Test Identifier
DATE	LABEL	9/12/2020	Date
TIME	LABEL	17:57:24	Time
NOTES	NOTES	1	Notes...
	
PSTAT	PSTAT	REF3000-16137	Potentiostat
VDC	POTEN	0.00000E+000	T	DC Voltage (V)
FREQINIT	QUANT	3.00000E+005	Initial Freq. (Hz)
FREQFINAL	QUANT	1.00000E+000	Final Freq. (Hz)
PTSPERDEC	QUANT	1.00000E+001	Points/decade
VAC	QUANT	5.00000E+001	AC Voltage (mV rms)
AREA	QUANT	1.00000E+000	Sample Area (cm^2)
SPEED	SELECTOR	2	Optimize for:
ZGUESS	QUANT	1.00000E+003	Estimated Z (ohms)
EOC	QUANT	0	Open Circuit (V)
SEQUENCER	TOGGLE	TRUE	Run as Sequence
PSTATMODEL	IQUANT	5	Pstat Model
PSTATSECTION	LABEL	REF3000-16137	Pstat Section
PSTATSERIALNO	LABEL	16137	Pstat Serial Number
CTRLMODE	IQUANT	1	Control Mode
IESTAB	IQUANT	0	I/E Stability
CASPEED	IQUANT	1	Control Amp Speed
CONVENTION	IQUANT	1	Current Convention
ICHRANGE	IQUANT	2	Ich Range
ICHRANGEMODE	TOGGLE	F	Ich Auto Range
ICHOFFSETENABLE	TOGGLE	T	Ich Offset Enable
ICHOFFSET	QUANT	0	Ich Offset (V)
ICHFILTER	IQUANT	3	Ich Filter
VCHRANGE	IQUANT	2	Vch Range
VCHRANGEMODE	TOGGLE	F	Vch Auto Range
VCHOFFSETENABLE	TOGGLE	T	Vch Offset Enable
VCHOFFSET	QUANT	0	Vch Offset (V)
VCHFILTER	IQUANT	3	Vch Filter
ACHRANGE	IQUANT	2	Ach Range
ACHOFFSETENABLE	TOGGLE	F	Ach Offset Enable
ACHOFFSET	QUANT	0	Ach Offset (V)
ACHFILTER	IQUANT	3	Ach Filter
IERANGELOWERLIMIT	IQUANT	2	I/E Range Lower Limit
IERANGEMODE	TOGGLE	F	I/E AutoRange
IERANGE	IQUANT	11	I/E Range
POSFEEDENABLE	TOGGLE	F	Positive Feedback IR Comp
POSFEEDRESISTANCE	QUANT	0	Positive Feedback Resistance (ohm)
ACHSELECT	IQUANT	0	Ach Select
CABLEID	IQUANT	13	Cable ID
DCCALDATE	LABEL	7/31/2020	DC Calibration Date
ACCALDATE	LABEL	7/31/2020	AC Calibration Date
THERMOSELECT	IQUANT	1	Thermo Select
FRAMEWORKVERSION	QUANT	6.33	Framework Version
INSTRUMENTVERSION	LABEL	3.50	Instrument Version
COMPLIANCEVOLTAGE	IQUANT	0	Compliance Voltage
ZCURVE	TABLE
	Pt	Time	Freq	Zreal	Zimag	Zsig	Zmod	Zphz	Idc	Vdc	IERange
	#	s	Hz	ohm	ohm	V	ohm	°	A	V	#
	0	7	300046.9	152.5583	-2.691529	1	152.5821	-1.010743	-8.48741E-005	0.001882	9
	1	10	238359.4	153.7228	-2.486163	1	153.7429	-0.9265652	2.1592E-005	-0.0015127	9
	2	13	189328.1	154.8118	-2.168989	1	154.827	-0.8026895	7.013423E-005	-0.0017318	9
	3	15	150421.9	155.8313	-1.657735	1	155.8401	-0.60949	4.400823E-006	0.0010432	9
	4	18	119484.4	156.7897	-1.71995	1	156.7992	-0.6284973	8.887066E-006	-0.0014896	9
	5	21	94921.88	157.6432	-1.233847	1	157.6481	-0.4484352	1.916227E-005	-7.084862E-005	9
	6	23	75421.88	158.5077	-1.12964	1	158.5117	-0.4083242	1.123686E-005	0.0001598	9
	7	26	59859.37	159.5974	-1.070984	1	159.601	-0.3844795	-1.470533E-005	0.0009588	9
	8	28	47578.12	160.2645	-0.930278	1	160.2672	-0.3325777	2.080128E-005	-0.0007671	9
	9	31	37828.12	161.045	-0.8982381	1	161.0475	-0.3195673	1.139747E-005	-0.0007492	9
	10	33	30046.88	162.0495	-0.8592826	1	162.0518	-0.3038133	3.10256E-006	-0.0005134	9
	11	36	23859.38	162.9999	-0.9282894	1	163.0026	-0.3262976	2.25866E-005	-0.0002349	9
	12	38	18984.38	163.6972	-0.8936808	1	163.6997	-0.3127947	-1.545351E-005	0.0001319	9
	13	41	15046.87	164.5441	-0.9070994	1	164.5466	-0.3158572	1.125291E-005	0.0003063	9
	14	43	11953.13	165.5656	-1.009426	1	165.5687	-0.3493185	-1.528048E-005	0.0009551	9
	15	45	9515.62	166.1992	-1.202067	1	166.2036	-0.4143951	-1.710744E-005	0.0003122	9
	16	47	7546.875	167.1484	-1.602617	1	167.1561	-0.5493344	2.470135E-005	-0.0004755	9
	17	50	5928.309	167.7172	-1.755506	1	167.7264	-0.5996962	1.167866E-005	0.00022	9
	18	52	4733.456	168.605	-2.027707	1	168.6172	-0.6890273	2.312812E-005	-0.0002504	9
	19	54	3796.875	169.7834	-2.610127	1	169.8035	-0.8807542	-9.146756E-006	-0.0000953	9
	20	57	2987.132	170.5816	-2.925845	1	170.6067	-0.982651	9.693741E-007	0.000579	9
	21	59	2390.625	171.2608	-3.682452	1	171.3004	-1.231784	2.393993E-005	-0.0005943	9
	22	61	1884.191	171.8941	-4.326799	1	171.9485	-1.441905	1.11116E-006	0.000572	9
	23	64	1516.544	173.2814	-5.51061	1	173.369	-1.821478	-1.495019E-005	0.0009004	9
	24	66	1193.986	174.2228	-6.733074	1	174.3528	-2.213171	6.704734E-006	-0.0006009	9
	25	68	946.5144	175.3782	-8.719117	1	175.5948	-2.846179	-1.774153E-005	0.0003546	9
	26	71	751.7689	176.1438	-10.62416	1	176.4639	-3.451629	6.580306E-006	-0.0006034	9
	27	73	597.4265	177.3135	-13.05266	1	177.7933	-4.210144	-1.54571E-005	0.0009198	9
	28	75	477.4305	178.6052	-16.121	1	179.3313	-5.157571	1.232176E-006	5.76553E-005	9
	29	78	376.6741	179.9033	-20.12624	1	181.0256	-6.383283	7.871591E-007	0.0001102	9
	30	80	298.2954	181.2539	-25.04628	1	182.9762	-7.867505	1.133918E-006	5.54071E-005	9
	31	82	237.7717	182.7875	-30.99256	1	185.3963	-9.62327	1.257754E-006	5.702279E-005	9
	32	85	189.0121	184.4971	-38.44925	1	188.4609	-11.77196	1.214413E-006	5.568948E-005	9
	33	87	150.2404	186.429	-47.69756	1	192.434	-14.35118	1.177664E-006	5.749924E-005	9
	34	90	119.1737	188.6558	-59.26934	1	197.747	-17.44097	1.175354E-006	5.614806E-005	9
	35	92	95.0169	191.2613	-73.28333	1	204.8202	-20.96474	1.181702E-006	5.133114E-005	9
	36	95	75.60484	194.4016	-90.72537	1	214.5298	-25.01802	1.119831E-006	5.515036E-005	9
	37	97	54.50582	199.6118	-122.9891	1	234.4593	-31.63894	1.138053E-006	4.73595E-005	9
	38	100	45.95588	203.4593	-144.0725	1	249.3042	-35.30287	1.234666E-006	5.357229E-005	9
	39	102	37.20238	208.7991	-175.1439	1	272.5297	-39.99044	1.117281E-006	6.130426E-005	9
	40	104	30.04808	215.3392	-213.1689	1	303.0049	-44.70982	1.141534E-006	4.869098E-005	9
	41	107	23.91582	223.7954	-262.7532	1	345.1429	-49.57788	1.16124E-006	5.107193E-005	9
	42	109	18.60119	235.1546	-330.4162	1	405.5522	-54.56084	1.174239E-006	5.93219E-005	9
	43	111	15.02404	246.3995	-399.6507	1	469.5033	-58.34463	1.033862E-007	0.0006472	8
	44	114	12.01923	261.7842	-489.4858	1	555.0922	-61.86147	-2.590059E-008	0.0006254	8
	45	116	9.450605	282.1458	-608.8806	1	671.0751	-65.13773	3.774058E-008	0.0006345	8
	46	119	7.512019	306.8492	-749.9156	1	810.2653	-67.74669	5.152397E-009	0.0006417	8
	47	121	5.978954	337.204	-922.1362	1	981.856	-69.9137	3.690436E-008	0.0006243	8
	48	124	4.734848	376.7948	-1140.5	1	1201.13	-71.71764	7.259005E-008	0.0006416	8
	49	128	3.75601	426.6669	-1406.266	1	1469.567	-73.12198	9.167129E-009	0.0006176	8
	50	131	3.004808	488.9695	-1719.463	1	1787.636	-74.12566	7.477695E-008	0.0006289	8
	51	135	2.372217	577.5503	-2125.554	1	2202.622	-74.79874	6.014833E-008	0.000671	8
	52	139	1.878005	688.6205	-2626.862	1	2715.622	-75.31069	1.271155E-008	0.0006202	8
	53	144	1.512097	818.0588	-3181.8	1	3285.281	-75.58123	5.93738E-008	0.0005759	8
	54	149	1.201923	1007.27	-3904.973	1	4032.791	-75.53611	3.567786E-008	0.0006125	8
	55	155	0.956633	1248.245	-4775.907	1	4936.335	-75.35267	-3.364624E-008	-3.453762E-005	7
