EXPLAIN
TAG	EISPOT
TITLE	LABEL	Potentiostatic EIS	Test Identifier
DATE	LABEL	9/12/2020	Date
TIME	LABEL	17:35:15	Time
NOTES	NOTES	1	Notes...
	
PSTAT	PSTAT	REF3000-16137	Potentiostat
VDC	POTEN	0.00000E+000	T	DC Voltage (V)
FREQINIT	QUANT	3.00000E+005	Initial Freq. (Hz)
FREQFINAL	QUANT	1.00000E+000	Final Freq. (Hz)
PTSPERDEC	QUANT	1.00000E+001	Points/decade
VAC	QUANT	5.00000E+001	AC Voltage (mV rms)
AREA	QUANT	1.00000E+000	Sample Area (cm^2)
SPEED	SELECTOR	2	Optimize for:
ZGUESS	QUANT	1.00000E+003	Estimated Z (ohms)
EOC	QUANT	0	Open Circuit (V)
SEQUENCER	TOGGLE	TRUE	Run as Sequence
PSTATMODEL	IQUANT	5	Pstat Model
PSTATSECTION	LABEL	REF3000-16137	Pstat Section
PSTATSERIALNO	LABEL	16137	Pstat Serial Number
CTRLMODE	IQUANT	1	Control Mode
IESTAB	IQUANT	0	I/E Stability
CASPEED	IQUANT	1	Control Amp Speed
CONVENTION	IQUANT	1	Current Convention
ICHRANGE	IQUANT	2	Ich Range
ICHRANGEMODE	TOGGLE	F	Ich Auto Range
ICHOFFSETENABLE	TOGGLE	T	Ich Offset Enable
ICHOFFSET	QUANT	0	Ich Offset (V)
ICHFILTER	IQUANT	3	Ich Filter
VCHRANGE	IQUANT	2	Vch Range
VCHRANGEMODE	TOGGLE	F	Vch Auto Range
VCHOFFSETENABLE	TOGGLE	T	Vch Offset Enable
VCHOFFSET	QUANT	0	Vch Offset (V)
VCHFILTER	IQUANT	3	Vch Filter
ACHRANGE	IQUANT	2	Ach Range
ACHOFFSETENABLE	TOGGLE	F	Ach Offset Enable
ACHOFFSET	QUANT	0	Ach Offset (V)
ACHFILTER	IQUANT	3	Ach Filter
IERANGELOWERLIMIT	IQUANT	2	I/E Range Lower Limit
IERANGEMODE	TOGGLE	F	I/E AutoRange
IERANGE	IQUANT	11	I/E Range
POSFEEDENABLE	TOGGLE	F	Positive Feedback IR Comp
POSFEEDRESISTANCE	QUANT	0	Positive Feedback Resistance (ohm)
ACHSELECT	IQUANT	0	Ach Select
CABLEID	IQUANT	13	Cable ID
DCCALDATE	LABEL	7/31/2020	DC Calibration Date
ACCALDATE	LABEL	7/31/2020	AC Calibration Date
THERMOSELECT	IQUANT	1	Thermo Select
FRAMEWORKVERSION	QUANT	6.33	Framework Version
INSTRUMENTVERSION	LABEL	3.50	Instrument Version
COMPLIANCEVOLTAGE	IQUANT	0	Compliance Voltage
ZCURVE	TABLE
	Pt	Time	Freq	Zreal	Zimag	Zsig	Zmod	Zphz	Idc	Vdc	IERange
	#	s	Hz	ohm	ohm	V	ohm	°	A	V	#
	0	8	300046.9	20.03303	1.973428	1	20.13	5.62598	2.566414E-005	0.0002701	10
	1	11	238359.4	20.06454	1.583589	1	20.12693	4.512702	-0.0000989	0.0003539	10
	2	14	189328.1	20.12072	1.251572	1	20.15961	3.559392	1.309381E-005	0.0004118	10
	3	17	150421.9	20.18284	0.983729	1	20.2068	2.790438	4.146577E-006	0.0007319	10
	4	19	119484.4	20.23283	0.7574663	1	20.24701	2.144009	-0.0001071	0.0005562	10
	5	22	94921.88	20.2829	0.5795781	1	20.29118	1.636766	-2.647428E-005	0.0006677	10
	6	24	75421.88	20.3423	0.4148603	1	20.34653	1.168326	1.375252E-005	0.0005409	10
	7	27	59859.37	20.40603	0.2751759	1	20.40789	0.7725883	1.959815E-005	0.0005885	10
	8	29	47578.12	20.47071	0.1561699	1	20.47131	0.4370977	-2.58911E-005	0.0006445	10
	9	32	37828.12	20.53289	0.0469852	1	20.53294	0.131109	-2.287144E-005	0.0006479	10
	10	34	30046.88	20.59942	-0.0618993	1	20.59951	-0.1721678	2.238818E-005	0.0005839	10
	11	37	23859.38	20.66554	-0.1692296	1	20.66623	-0.4691834	-3.347408E-005	0.0006602	10
	12	39	18984.38	20.7283	-0.2823974	1	20.73023	-0.7805355	3.637748E-006	0.0006255	10
	13	42	15046.87	20.7951	-0.4094816	1	20.79913	-1.12808	-1.247109E-005	0.0007214	10
	14	44	11953.13	20.85863	-0.5556864	1	20.86603	-1.526033	-2.51896E-005	0.0007382	10
	15	46	9515.62	20.93095	-0.724941	1	20.9435	-1.983639	1.800534E-005	0.0006042	10
	16	49	7546.875	21.00818	-0.9287964	1	21.02871	-2.531465	-1.046656E-005	0.0006397	10
	17	51	5928.309	21.08799	-1.186582	1	21.12135	-3.22053	2.260106E-005	0.0006074	10
	18	53	4733.456	21.17119	-1.48074	1	21.22291	-4.000825	1.329479E-005	0.000585	10
	19	55	3796.875	21.26064	-1.836322	1	21.33979	-4.936496	2.407048E-005	0.0006264	10
	20	58	2987.132	21.36311	-2.316841	1	21.48837	-6.189569	2.41322E-005	0.0006041	10
	21	60	2390.625	21.47004	-2.864545	1	21.66029	-7.599555	7.685116E-006	0.0005864	10
	22	62	1884.191	21.60379	-3.588169	1	21.89975	-9.430159	2.462358E-005	0.0006413	10
	23	65	1516.544	21.74916	-4.409285	1	22.19161	-11.46045	-2.567077E-005	0.000722	10
	24	67	1193.986	21.92557	-5.526295	1	22.61129	-14.14663	-3.320755E-006	0.000608	10
	25	70	946.5144	22.13486	-6.872165	1	23.17711	-17.2479	-1.036889E-005	0.0006378	10
	26	72	751.7689	22.38376	-8.542015	1	23.95827	-20.88769	2.389491E-005	0.000637	10
	27	74	597.4265	22.68613	-10.59378	1	25.03774	-25.03124	2.468032E-005	0.0006277	10
	28	76	477.4305	23.04853	-13.06001	1	26.49148	-29.53724	-2.491634E-006	0.0006552	10
	29	79	376.6741	23.52524	-16.28136	1	28.60979	-34.68636	-2.729034E-006	0.0006525	10
	30	81	298.2954	24.11185	-20.20963	1	31.46126	-39.96845	-2.231681E-006	0.0007043	10
	31	83	237.7717	24.82801	-24.9153	1	35.17389	-45.10054	-2.222705E-006	0.0006499	10
	32	86	189.0121	25.6964	-30.73529	1	40.06199	-50.10252	1.166272E-006	5.405844E-005	9
	33	88	150.2404	26.81289	-37.9382	1	46.45684	-54.74918	1.233971E-006	4.996048E-005	9
	34	91	119.1737	28.21376	-46.8994	1	54.7318	-58.96971	1.239018E-006	5.536709E-005	9
	35	93	95.0169	29.92242	-57.68676	1	64.98549	-62.584	1.23527E-006	5.023179E-005	9
	36	96	75.60484	32.07973	-71.07855	1	77.9825	-65.70901	7.552547E-007	0.000108	9
	37	98	54.50582	36.16641	-95.8158	1	102.4143	-69.3206	1.175353E-006	4.625593E-005	9
	38	101	45.95588	38.97552	-111.9717	1	118.5612	-70.80783	1.271148E-006	5.418161E-005	9
	39	103	37.20238	43.26307	-135.7364	1	142.4643	-72.32143	1.236774E-006	5.696851E-005	9
	40	105	30.04808	48.81195	-164.8371	1	171.9124	-73.5048	1.140102E-006	5.781132E-005	9
	41	108	23.91582	56.51054	-202.5523	1	210.2876	-74.41131	1.346453E-006	4.427523E-005	9
	42	110	18.60119	67.85068	-253.8816	1	262.7919	-75.03721	1.073507E-006	5.96345E-005	9
	43	112	15.02404	80.56053	-307.1391	1	317.5287	-75.30278	1.527127E-006	6.631401E-005	9
	44	115	12.01923	97.7172	-373.6553	1	386.2214	-75.34441	1.344068E-006	5.664002E-005	9
	45	117	9.450605	121.6157	-458.3802	1	474.2392	-75.14085	2.465322E-007	0.0006386	8
	46	120	7.512019	151.0476	-557.3676	1	577.472	-74.83694	4.091496E-007	0.0006157	8
	47	122	5.978954	188.6034	-674.5038	1	700.376	-74.37805	4.69542E-007	0.0006331	8
	48	125	4.734848	236.3485	-817.3927	1	850.8769	-73.87281	4.311816E-007	0.0006308	8
	49	129	3.75601	293.1906	-984.509	1	1027.238	-73.41626	5.355958E-007	0.0006459	8
	50	132	3.004808	358.6218	-1174.655	1	1228.179	-73.02259	4.619543E-007	0.000655	8
	51	136	2.372217	439.207	-1412.409	1	1479.122	-72.72623	4.629374E-007	0.0006287	8
	52	140	1.878005	531.3857	-1699.982	1	1781.098	-72.64163	5.068471E-007	0.000612	8
	53	145	1.512097	623.8943	-2018.081	1	2112.32	-72.82088	4.512029E-007	0.0007715	8
	54	150	1.201923	736.445	-2427.003	1	2536.275	-73.12021	5.007747E-007	0.0006213	8
	55	156	0.956633	858.8051	-2925.037	1	3048.506	-73.6375	4.569383E-007	-9.861369E-006	8
