EXPLAIN
TAG	EISPOT
TITLE	LABEL	Potentiostatic EIS	Test Identifier
DATE	LABEL	9/12/2020	Date
TIME	LABEL	16:56:19	Time
NOTES	NOTES	1	Notes...
	
PSTAT	PSTAT	REF3000-16137	Potentiostat
VDC	POTEN	0.00000E+000	T	DC Voltage (V)
FREQINIT	QUANT	3.00000E+005	Initial Freq. (Hz)
FREQFINAL	QUANT	1.00000E+000	Final Freq. (Hz)
PTSPERDEC	QUANT	1.00000E+001	Points/decade
VAC	QUANT	5.00000E+001	AC Voltage (mV rms)
AREA	QUANT	1.00000E+000	Sample Area (cm^2)
SPEED	SELECTOR	2	Optimize for:
ZGUESS	QUANT	1.00000E+003	Estimated Z (ohms)
EOC	QUANT	0	Open Circuit (V)
SEQUENCER	TOGGLE	TRUE	Run as Sequence
PSTATMODEL	IQUANT	5	Pstat Model
PSTATSECTION	LABEL	REF3000-16137	Pstat Section
PSTATSERIALNO	LABEL	16137	Pstat Serial Number
CTRLMODE	IQUANT	1	Control Mode
IESTAB	IQUANT	0	I/E Stability
CASPEED	IQUANT	1	Control Amp Speed
CONVENTION	IQUANT	1	Current Convention
ICHRANGE	IQUANT	2	Ich Range
ICHRANGEMODE	TOGGLE	F	Ich Auto Range
ICHOFFSETENABLE	TOGGLE	T	Ich Offset Enable
ICHOFFSET	QUANT	0	Ich Offset (V)
ICHFILTER	IQUANT	3	Ich Filter
VCHRANGE	IQUANT	2	Vch Range
VCHRANGEMODE	TOGGLE	F	Vch Auto Range
VCHOFFSETENABLE	TOGGLE	T	Vch Offset Enable
VCHOFFSET	QUANT	0	Vch Offset (V)
VCHFILTER	IQUANT	3	Vch Filter
ACHRANGE	IQUANT	2	Ach Range
ACHOFFSETENABLE	TOGGLE	F	Ach Offset Enable
ACHOFFSET	QUANT	0	Ach Offset (V)
ACHFILTER	IQUANT	3	Ach Filter
IERANGELOWERLIMIT	IQUANT	2	I/E Range Lower Limit
IERANGEMODE	TOGGLE	F	I/E AutoRange
IERANGE	IQUANT	11	I/E Range
POSFEEDENABLE	TOGGLE	F	Positive Feedback IR Comp
POSFEEDRESISTANCE	QUANT	0	Positive Feedback Resistance (ohm)
ACHSELECT	IQUANT	0	Ach Select
CABLEID	IQUANT	13	Cable ID
DCCALDATE	LABEL	7/31/2020	DC Calibration Date
ACCALDATE	LABEL	7/31/2020	AC Calibration Date
THERMOSELECT	IQUANT	1	Thermo Select
FRAMEWORKVERSION	QUANT	6.33	Framework Version
INSTRUMENTVERSION	LABEL	3.50	Instrument Version
COMPLIANCEVOLTAGE	IQUANT	0	Compliance Voltage
ZCURVE	TABLE
	Pt	Time	Freq	Zreal	Zimag	Zsig	Zmod	Zphz	Idc	Vdc	IERange
	#	s	Hz	ohm	ohm	V	ohm	°	A	V	#
	0	10	300046.9	4.024086	2.265712	1	4.618086	29.38115	2.044614E-005	-3.629061E-005	10
	1	13	238359.4	3.985071	1.800866	1	4.373089	24.31836	-1.144858E-005	-0.0004116	10
	2	16	189328.1	3.956099	1.423423	1	4.204385	19.78897	-4.569714E-007	3.016448E-007	10
	3	19	150421.9	3.949292	1.12619	1	4.106728	15.91616	2.576362E-005	0.0003023	10
	4	22	119484.4	3.944851	0.8703296	1	4.039718	12.44153	2.905674E-005	0.0003266	10
	5	24	94921.88	3.943215	0.6831113	1	4.001947	9.82821	-5.361002E-006	0.0004152	10
	6	27	75421.88	3.943535	0.5102586	1	3.976409	7.372607	3.00198E-005	0.0004444	10
	7	29	59859.37	3.945769	0.3643395	1	3.962554	5.275547	1.182945E-005	0.0004962	10
	8	32	47578.12	3.948988	0.2397447	1	3.956259	3.474187	-7.716991E-006	0.000551	10
	9	34	37828.12	3.955121	0.1289243	1	3.957222	1.866998	-2.12925E-005	0.0005778	10
	10	37	30046.88	3.96231	0.024812	1	3.962388	0.3587812	7.701269E-006	0.0005688	10
	11	39	23859.38	3.971396	-0.0759997	1	3.972123	-1.096322	-1.917349E-005	0.0006542	10
	12	42	18984.38	3.980886	-0.1782198	1	3.984873	-2.563356	-1.924771E-005	0.0006803	10
	13	44	15046.87	3.9915	-0.2897498	1	4.002003	-4.151916	2.676177E-006	0.000598	10
	14	46	11953.13	4.004517	-0.4127529	1	4.025733	-5.8848	1.9303E-005	0.000645	10
	15	48	9515.62	4.020548	-0.5531467	1	4.058421	-7.833571	-2.0857E-005	0.0007246	10
	16	51	7546.875	4.039108	-0.7221578	1	4.103158	-10.13689	2.535704E-006	0.0006121	10
	17	53	5928.309	4.063696	-0.9342681	1	4.16971	-12.94765	-2.30334E-005	0.0006802	10
	18	55	4733.456	4.092065	-1.174667	1	4.257328	-16.01664	2.885655E-006	0.0006514	10
	19	58	3796.875	4.128411	-1.459997	1	4.378969	-19.47594	-8.713395E-006	0.0006553	10
	20	60	2987.132	4.175402	-1.842607	1	4.5639	-23.8119	-7.587787E-006	0.0006616	10
	21	62	2390.625	4.232145	-2.278414	1	4.806477	-28.29621	-2.957348E-005	0.0006561	10
	22	65	1884.191	4.309572	-2.850711	1	5.167104	-33.48398	8.975744E-006	0.0006188	10
	23	67	1516.544	4.39878	-3.492437	1	5.616617	-38.44802	-1.969851E-005	0.0006565	10
	24	69	1193.986	4.520828	-4.360543	1	6.2811	-43.96607	2.021037E-005	0.0006414	10
	25	72	946.5144	4.675864	-5.402267	1	7.144802	-49.12259	3.108221E-006	0.0006318	10
	26	74	751.7689	4.864265	-6.685495	1	8.267824	-53.96093	-2.877614E-005	0.000674	10
	27	76	597.4265	5.104424	-8.258103	1	9.70832	-58.27934	2.169122E-006	0.0006556	10
	28	79	477.4305	5.402725	-10.13971	1	11.48926	-61.95005	-3.940804E-006	0.0006586	10
	29	81	376.6741	5.808337	-12.59793	1	13.87244	-65.24771	-4.343558E-006	0.000661	10
	30	83	298.2954	6.328649	-15.59276	1	16.82813	-67.90919	-4.937296E-006	0.0006595	10
	31	86	237.7717	6.991626	-19.17001	1	20.4052	-69.96223	-4.183733E-006	0.0006611	10
	32	88	189.0121	7.87567	-23.60916	1	24.88812	-71.55206	-3.971738E-006	0.0006627	10
	33	91	150.2404	9.045212	-29.03426	1	30.41059	-72.69632	-3.890655E-006	0.0006576	10
	34	93	119.1737	10.60997	-35.70709	1	37.25007	-73.45126	-4.01152E-006	0.000656	10
	35	95	95.0169	12.60924	-43.54991	1	45.33858	-73.8524	-5.060001E-007	5.596247E-005	9
	36	98	75.60484	15.2582	-53.12251	1	55.27037	-73.97453	-5.262793E-007	5.192362E-005	9
	37	100	54.50582	20.4445	-70.17773	1	73.09509	-73.75786	-5.533143E-007	5.661725E-005	9
	38	103	45.95588	23.94956	-80.92445	1	84.394	-73.5139	-4.409024E-007	6.325165E-005	9
	39	105	37.20238	29.14707	-96.2104	1	100.5286	-73.14575	-8.781893E-007	0.0001172	9
	40	108	30.04808	35.50227	-114.2965	1	119.6834	-72.7444	-5.104138E-007	6.122946E-005	9
	41	110	23.91582	43.5599	-136.964	1	143.7241	-72.35731	-6.386977E-007	5.555632E-005	9
	42	112	18.60119	54.01297	-166.7229	1	175.2539	-72.04931	-3.830135E-007	5.213435E-005	9
	43	115	15.02404	64.2719	-196.9503	1	207.1722	-71.92665	-7.535573E-007	0.0001228	9
	44	117	12.01923	76.39793	-234.718	1	246.8384	-71.97055	-4.651699E-007	6.167868E-005	9
	45	119	9.450605	91.56159	-284.4204	1	298.7951	-72.15542	-4.301807E-007	5.297458E-005	9
	46	122	7.512019	108.3552	-342.6849	1	359.4075	-72.45331	-3.669839E-007	5.292917E-005	9
	47	125	5.978954	128.2158	-412.1848	1	431.666	-72.72096	-9.716853E-007	0.0006395	8
	48	128	4.734848	154.5745	-502.37	1	525.6129	-72.89736	-1.053706E-006	0.0006359	8
	49	131	3.75601	189.0013	-612.1964	1	640.7074	-72.84315	-9.360108E-007	0.0006496	8
	50	134	3.004808	234.1379	-741.4284	1	777.5195	-72.47424	-1.004698E-006	0.0006726	8
	51	138	2.372217	300.7819	-907.7278	1	956.263	-71.66703	-1.002755E-006	0.0007045	8
	52	142	1.878005	394.3391	-1103.844	1	1172.166	-70.34114	-1.007493E-006	0.0006157	8
	53	147	1.512097	515.1223	-1315.367	1	1412.636	-68.61375	-9.649342E-007	0.0007214	8
	54	152	1.201923	689.5261	-1573.284	1	1717.751	-66.33352	-9.53069E-007	0.0006059	8
	55	159	0.956633	924.6747	-1852.496	1	2070.45	-63.47389	-1.122219E-006	7.816061E-007	8
