EXPLAIN
TAG	EISPOT
TITLE	LABEL	Potentiostatic EIS	Test Identifier
DATE	LABEL	9/12/2020	Date
TIME	LABEL	18:06:14	Time
NOTES	NOTES	1	Notes...
	
PSTAT	PSTAT	REF3000-16137	Potentiostat
VDC	POTEN	0.00000E+000	T	DC Voltage (V)
FREQINIT	QUANT	3.00000E+005	Initial Freq. (Hz)
FREQFINAL	QUANT	1.00000E+000	Final Freq. (Hz)
PTSPERDEC	QUANT	1.00000E+001	Points/decade
VAC	QUANT	5.00000E+001	AC Voltage (mV rms)
AREA	QUANT	1.00000E+000	Sample Area (cm^2)
SPEED	SELECTOR	2	Optimize for:
ZGUESS	QUANT	1.00000E+003	Estimated Z (ohms)
EOC	QUANT	0	Open Circuit (V)
SEQUENCER	TOGGLE	TRUE	Run as Sequence
PSTATMODEL	IQUANT	5	Pstat Model
PSTATSECTION	LABEL	REF3000-16137	Pstat Section
PSTATSERIALNO	LABEL	16137	Pstat Serial Number
CTRLMODE	IQUANT	1	Control Mode
IESTAB	IQUANT	0	I/E Stability
CASPEED	IQUANT	1	Control Amp Speed
CONVENTION	IQUANT	1	Current Convention
ICHRANGE	IQUANT	2	Ich Range
ICHRANGEMODE	TOGGLE	F	Ich Auto Range
ICHOFFSETENABLE	TOGGLE	T	Ich Offset Enable
ICHOFFSET	QUANT	0	Ich Offset (V)
ICHFILTER	IQUANT	3	Ich Filter
VCHRANGE	IQUANT	2	Vch Range
VCHRANGEMODE	TOGGLE	F	Vch Auto Range
VCHOFFSETENABLE	TOGGLE	T	Vch Offset Enable
VCHOFFSET	QUANT	0	Vch Offset (V)
VCHFILTER	IQUANT	3	Vch Filter
ACHRANGE	IQUANT	2	Ach Range
ACHOFFSETENABLE	TOGGLE	F	Ach Offset Enable
ACHOFFSET	QUANT	0	Ach Offset (V)
ACHFILTER	IQUANT	3	Ach Filter
IERANGELOWERLIMIT	IQUANT	2	I/E Range Lower Limit
IERANGEMODE	TOGGLE	F	I/E AutoRange
IERANGE	IQUANT	11	I/E Range
POSFEEDENABLE	TOGGLE	F	Positive Feedback IR Comp
POSFEEDRESISTANCE	QUANT	0	Positive Feedback Resistance (ohm)
ACHSELECT	IQUANT	0	Ach Select
CABLEID	IQUANT	13	Cable ID
DCCALDATE	LABEL	7/31/2020	DC Calibration Date
ACCALDATE	LABEL	7/31/2020	AC Calibration Date
THERMOSELECT	IQUANT	1	Thermo Select
FRAMEWORKVERSION	QUANT	6.33	Framework Version
INSTRUMENTVERSION	LABEL	3.50	Instrument Version
COMPLIANCEVOLTAGE	IQUANT	0	Compliance Voltage
ZCURVE	TABLE
	Pt	Time	Freq	Zreal	Zimag	Zsig	Zmod	Zphz	Idc	Vdc	IERange
	#	s	Hz	ohm	ohm	V	ohm	°	A	V	#
	0	26	300046.9	530.9296	-75.63966	1	536.2906	-8.108164	2.183329E-005	-0.0021903	9
	1	40	238359.4	551.8521	-67.48061	1	555.9625	-6.971533	-0.0001034	0.0035585	9
	2	49	189328.1	567.6129	-56.91351	1	570.4591	-5.725806	1.810784E-005	-0.0009261	9
	3	58	150421.9	581.2103	-48.00482	1	583.1895	-4.721603	7.455074E-005	-0.0016053	9
	4	65	119484.4	593.8508	-22.38232	1	594.2725	-2.158464	3.334103E-005	-0.0025561	8
	5	69	94921.88	599.8461	-17.08043	1	600.0892	-1.631039	1.574852E-005	-0.0057713	8
	6	71	75421.88	603.4922	-13.04604	1	603.6332	-1.238403	6.851447E-006	0.002402	8
	7	74	59859.37	607.6971	-11.93089	1	607.8142	-1.124741	-7.894378E-006	-0.000445	8
	8	76	47578.12	612.558	-10.75872	1	612.6525	-1.006217	-1.571511E-005	0.0040202	8
	9	79	37828.12	616.2619	-9.020117	1	616.3279	-0.8385683	1.400444E-005	-0.0061634	8
	10	81	30046.88	620.1333	-7.38722	1	620.1773	-0.6824929	-2.330409E-006	-0.0025145	8
	11	84	23859.38	625.225	-6.931147	1	625.2634	-0.6351461	7.322765E-006	0.0021739	8
	12	86	18984.38	629.8337	-5.90623	1	629.8614	-0.5372722	-1.765462E-005	0.0054854	8
	13	89	15046.87	632.0469	-3.7339	1	632.0579	-0.3384784	6.168224E-006	0.0025388	8
	14	91	11953.13	637.6719	-5.506061	1	637.6956	-0.4947155	-1.210533E-005	0.0014961	8
	15	93	9515.62	641.3295	-3.504234	1	641.3391	-0.3130619	-1.479367E-005	0.0028483	8
	16	96	7546.875	646.3932	-3.82404	1	646.4045	-0.3389559	-1.461799E-005	0.0072789	8
	17	98	5928.309	651.1672	-3.298055	1	651.1756	-0.2901912	1.772614E-005	-0.0038229	8
	18	101	4733.456	653.6495	-4.814522	1	653.6672	-0.4220103	1.779535E-005	-0.0049543	8
	19	103	3796.875	659.0891	-4.157251	1	659.1022	-0.3613924	-1.451958E-005	0.0071463	8
	20	105	2987.132	663.4641	-5.86865	1	663.49	-0.5067948	3.80941E-006	-0.004433	8
	21	108	2390.625	667.3179	-4.524161	1	667.3333	-0.3884376	-7.863257E-006	-0.0005404	8
	22	110	1884.191	672.4971	-7.899536	1	672.5435	-0.6729981	3.814582E-006	-0.0044391	8
	23	113	1516.544	676.5761	-6.077893	1	676.6034	-0.5146919	-1.660316E-005	0.0044118	8
	24	115	1193.986	680.0549	-7.658338	1	680.098	-0.6452006	3.668851E-006	-0.00441	8
	25	118	946.5144	685.5284	-10.7878	1	685.6133	-0.9015588	-1.168268E-005	0.0074921	8
	26	120	751.7689	691.6551	-12.06855	1	691.7604	-0.999641	7.43416E-006	0.0022535	8
	27	123	597.4265	697.192	-15.61554	1	697.3668	-1.283083	-1.64935E-005	0.0042949	8
	28	125	477.4305	701.5084	-18.69106	1	701.7574	-1.526233	-1.677247E-007	0.0006401	8
	29	128	376.6741	706.5049	-23.13408	1	706.8835	-1.875446	-1.75007E-007	0.000632	8
	30	130	298.2954	711.562	-28.65294	1	712.1386	-2.305922	-1.881135E-007	0.0006385	8
	31	132	237.7717	716.9178	-35.32922	1	717.7878	-2.821214	-1.717011E-007	0.0006211	8
	32	135	189.0121	722.4817	-43.70695	1	723.8026	-3.461922	-1.628485E-007	0.000631	8
	33	137	150.2404	728.2924	-54.14757	1	730.3026	-4.252041	-1.535722E-007	0.0006163	8
	34	140	119.1737	734.3397	-67.19917	1	737.408	-5.228555	-1.697818E-007	0.0006302	8
	35	142	95.0169	740.7985	-83.07784	1	745.4423	-6.398777	-1.717681E-007	0.0006375	8
	36	145	75.60484	747.9332	-102.9063	1	754.9793	-7.833996	-1.767106E-007	0.000624	8
	37	147	54.50582	757.0641	-139.8298	1	769.8691	-10.4646	-1.827882E-007	0.0006341	8
	38	150	45.95588	764.6443	-164.0049	1	782.0349	-12.10569	-1.339172E-007	0.0006255	8
	39	152	37.20238	773.3752	-200.0124	1	798.8205	-14.50028	-2.413092E-007	0.0006357	8
	40	154	30.04808	783.6992	-244.2697	1	820.885	-17.31163	-2.058267E-007	0.0006821	8
	41	157	23.91582	795.7461	-302.2693	1	851.2218	-20.7996	-1.836239E-007	0.0006128	8
	42	159	18.60119	811.1672	-382.4623	1	896.8108	-25.24371	-3.489853E-007	0.0006393	8
	43	161	15.02404	827.1045	-466.0689	1	949.3798	-29.40102	-8.909726E-008	0.0006563	8
	44	164	12.01923	847.0197	-572.9002	1	1022.574	-34.07331	-1.735955E-007	0.0006784	8
	45	166	9.450605	872.8201	-714.5739	1	1128.021	-39.30703	-2.302632E-007	0.0006214	8
	46	169	7.512019	903.9465	-882.2188	1	1263.103	-44.30307	-2.367017E-007	0.0006394	8
	47	171	5.978954	941.8356	-1087.373	1	1438.553	-49.10231	-2.26991E-007	0.0006457	8
	48	175	4.734848	990.9	-1344.984	1	1670.588	-53.61956	-1.590303E-007	0.0006064	8
	49	178	3.75601	1049.277	-1660.597	1	1964.323	-57.71255	-2.1762E-007	0.0006202	8
	50	181	3.004808	1118.079	-2031.054	1	2318.465	-61.16756	-1.55329E-007	0.0006153	8
	51	185	2.372217	1212.729	-2512.758	1	2790.101	-64.23672	-1.727481E-007	0.0006916	8
	52	189	1.878005	1321.373	-3110.769	1	3379.78	-66.9855	-2.083828E-007	0.0006088	8
	53	194	1.512097	1444.25	-3778.798	1	4045.389	-69.08322	-1.780692E-007	0.000598	8
	54	199	1.201923	1621.217	-4676.039	1	4949.109	-70.8782	-5.407868E-008	0.0005732	7
	55	206	0.956633	1833.375	-5751.39	1	6036.535	-72.31924	-5.653605E-008	-3.992166E-005	7
