EXPLAIN
TAG	EISPOT
TITLE	LABEL	Potentiostatic EIS	Test Identifier
DATE	LABEL	9/12/2020	Date
TIME	LABEL	17:15:55	Time
NOTES	NOTES	1	Notes...
	
PSTAT	PSTAT	REF3000-16137	Potentiostat
VDC	POTEN	0.00000E+000	T	DC Voltage (V)
FREQINIT	QUANT	3.00000E+005	Initial Freq. (Hz)
FREQFINAL	QUANT	1.00000E+000	Final Freq. (Hz)
PTSPERDEC	QUANT	1.00000E+001	Points/decade
VAC	QUANT	5.00000E+001	AC Voltage (mV rms)
AREA	QUANT	1.00000E+000	Sample Area (cm^2)
SPEED	SELECTOR	2	Optimize for:
ZGUESS	QUANT	1.00000E+003	Estimated Z (ohms)
EOC	QUANT	0	Open Circuit (V)
SEQUENCER	TOGGLE	TRUE	Run as Sequence
PSTATMODEL	IQUANT	5	Pstat Model
PSTATSECTION	LABEL	REF3000-16137	Pstat Section
PSTATSERIALNO	LABEL	16137	Pstat Serial Number
CTRLMODE	IQUANT	1	Control Mode
IESTAB	IQUANT	0	I/E Stability
CASPEED	IQUANT	1	Control Amp Speed
CONVENTION	IQUANT	1	Current Convention
ICHRANGE	IQUANT	2	Ich Range
ICHRANGEMODE	TOGGLE	F	Ich Auto Range
ICHOFFSETENABLE	TOGGLE	T	Ich Offset Enable
ICHOFFSET	QUANT	0	Ich Offset (V)
ICHFILTER	IQUANT	3	Ich Filter
VCHRANGE	IQUANT	2	Vch Range
VCHRANGEMODE	TOGGLE	F	Vch Auto Range
VCHOFFSETENABLE	TOGGLE	T	Vch Offset Enable
VCHOFFSET	QUANT	0	Vch Offset (V)
VCHFILTER	IQUANT	3	Vch Filter
ACHRANGE	IQUANT	2	Ach Range
ACHOFFSETENABLE	TOGGLE	F	Ach Offset Enable
ACHOFFSET	QUANT	0	Ach Offset (V)
ACHFILTER	IQUANT	3	Ach Filter
IERANGELOWERLIMIT	IQUANT	2	I/E Range Lower Limit
IERANGEMODE	TOGGLE	F	I/E AutoRange
IERANGE	IQUANT	11	I/E Range
POSFEEDENABLE	TOGGLE	F	Positive Feedback IR Comp
POSFEEDRESISTANCE	QUANT	0	Positive Feedback Resistance (ohm)
ACHSELECT	IQUANT	0	Ach Select
CABLEID	IQUANT	13	Cable ID
DCCALDATE	LABEL	7/31/2020	DC Calibration Date
ACCALDATE	LABEL	7/31/2020	AC Calibration Date
THERMOSELECT	IQUANT	1	Thermo Select
FRAMEWORKVERSION	QUANT	6.33	Framework Version
INSTRUMENTVERSION	LABEL	3.50	Instrument Version
COMPLIANCEVOLTAGE	IQUANT	0	Compliance Voltage
ZCURVE	TABLE
	Pt	Time	Freq	Zreal	Zimag	Zsig	Zmod	Zphz	Idc	Vdc	IERange
	#	s	Hz	ohm	ohm	V	ohm	°	A	V	#
	0	8	300046.9	7.269876	2.206821	1	7.597444	16.88603	5.922756E-005	-6.356945E-005	10
	1	11	238359.4	7.255512	1.769209	1	7.468102	13.70377	-4.96526E-006	8.960988E-005	10
	2	14	189328.1	7.248119	1.395589	1	7.381253	10.89864	5.046956E-005	0.000218	10
	3	17	150421.9	7.238343	1.096913	1	7.320985	8.617153	-0.0000997	0.0005041	10
	4	19	119484.4	7.249091	0.8487908	1	7.298614	6.678312	5.689696E-005	0.0002559	10
	5	22	94921.88	7.259097	0.6732659	1	7.290252	5.298903	3.872572E-006	0.0005273	10
	6	24	75421.88	7.267262	0.4972565	1	7.284254	3.914316	2.43776E-005	0.0005491	10
	7	27	59859.37	7.277004	0.3463155	1	7.28524	2.724673	-8.470547E-006	0.0005786	10
	8	29	47578.12	7.292722	0.2175141	1	7.295965	1.708408	-1.054028E-005	0.0006059	10
	9	32	37828.12	7.307548	0.1027768	1	7.308271	0.8057816	1.78746E-005	0.0005955	10
	10	34	30046.88	7.325253	-0.0034188	1	7.325254	-0.0267405	1.09392E-005	0.0005811	10
	11	37	23859.38	7.342798	-0.1078207	1	7.34359	-0.841263	-2.790489E-005	0.0006306	10
	12	39	18984.38	7.359516	-0.2157632	1	7.362678	-1.679293	2.0524E-005	0.0006191	10
	13	42	15046.87	7.38024	-0.3340437	1	7.387796	-2.591547	-6.154363E-006	0.0006104	10
	14	44	11953.13	7.402908	-0.4664077	1	7.417586	-3.605059	-2.092657E-005	0.0006868	10
	15	46	9515.62	7.425926	-0.6189989	1	7.45168	-4.764958	1.589152E-005	0.0006036	10
	16	49	7546.875	7.454844	-0.8036896	1	7.498041	-6.153161	1.770467E-005	0.0006091	10
	17	51	5928.309	7.488111	-1.035674	1	7.559393	-7.874568	-1.201789E-005	0.0006419	10
	18	53	4733.456	7.524337	-1.30095	1	7.635975	-9.8094	1.90444E-005	0.0006438	10
	19	55	3796.875	7.568951	-1.616058	1	7.739552	-12.05234	7.685176E-006	0.00068	10
	20	58	2987.132	7.624566	-2.039703	1	7.89268	-14.97691	-2.13922E-005	0.0006891	10
	21	60	2390.625	7.688104	-2.524594	1	8.092003	-18.17898	-1.864785E-005	0.0006541	10
	22	62	1884.191	7.774463	-3.163746	1	8.393543	-22.14341	1.657188E-005	0.0006168	10
	23	65	1516.544	7.871072	-3.88158	1	8.776129	-26.24998	-2.525672E-005	0.0006764	10
	24	67	1193.986	8.003882	-4.857549	1	9.36258	-31.25352	-1.590524E-005	0.0006877	10
	25	70	946.5144	8.166074	-6.033931	1	10.15348	-36.46078	-2.468028E-005	0.0006661	10
	26	72	751.7689	8.372354	-7.466041	1	11.21776	-41.72496	-1.771382E-005	0.0006618	10
	27	74	597.4265	8.622299	-9.234334	1	12.63396	-46.96304	-2.108375E-005	0.0006847	10
	28	76	477.4305	8.937613	-11.35225	1	14.44834	-51.78668	-2.410551E-006	0.0006625	10
	29	79	376.6741	9.350907	-14.11537	1	16.93172	-56.47701	-2.544248E-006	0.0006569	10
	30	81	298.2954	9.86551	-17.4842	1	20.07549	-60.56601	-2.95832E-006	0.0006631	10
	31	83	237.7717	10.49889	-21.52338	1	23.9475	-63.99734	-3.061649E-006	0.0006611	10
	32	86	189.0121	11.31549	-26.5628	1	28.87252	-66.92647	-2.783389E-006	0.000663	10
	33	88	150.2404	12.36563	-32.76819	1	35.02375	-69.32515	-2.740372E-006	0.0006595	10
	34	91	119.1737	13.72814	-40.4391	1	42.70577	-71.24883	7.716738E-007	5.753484E-005	9
	35	93	95.0169	15.49694	-49.69092	1	52.05134	-72.67905	7.178436E-007	5.812195E-005	9
	36	96	75.60484	17.84672	-61.106	1	63.65885	-73.71894	7.586106E-007	5.522831E-005	9
	37	98	54.50582	22.57905	-81.91798	1	84.97276	-74.5902	5.69543E-007	5.582604E-005	9
	38	101	45.95588	25.90434	-95.2869	1	98.7453	-74.79134	8.756332E-007	6.09002E-005	9
	39	103	37.20238	31.07201	-114.6445	1	118.7806	-74.83547	7.130862E-007	6.526909E-005	9
	40	105	30.04808	37.71179	-137.8071	1	142.874	-74.69534	3.968041E-007	0.0001074	9
	41	108	23.91582	46.80062	-167.3094	1	173.7318	-74.37237	6.844771E-007	5.605647E-005	9
	42	110	18.60119	59.40086	-206.0482	1	214.4396	-73.91846	1.126237E-006	6.115829E-005	9
	43	112	15.02404	72.74358	-245.157	1	255.7217	-73.4732	6.961947E-007	5.278542E-005	9
	44	115	12.01923	89.57674	-292.9843	1	306.3719	-72.99956	1.031061E-006	5.874896E-005	9
	45	117	9.450605	110.7735	-354.1237	1	371.045	-72.62978	9.536514E-007	5.05918E-005	9
	46	120	7.512019	133.6938	-421.9006	1	442.5767	-72.4174	1.843562E-007	0.0006478	8
	47	122	5.978954	159.7033	-504.4723	1	529.1478	-72.43352	1.26592E-007	0.0006396	8
	48	125	4.734848	189.4967	-606.8052	1	635.7055	-72.65716	2.146315E-007	0.0006647	8
	49	129	3.75601	223.5813	-731.1686	1	764.5889	-72.99709	1.314935E-007	0.0006263	8
	50	132	3.004808	260.9726	-878.0547	1	916.0168	-73.44717	1.530717E-007	0.0006684	8
	51	136	2.372217	309.0978	-1070.805	1	1114.525	-73.89873	1.6846E-007	0.0007051	8
	52	140	1.878005	365.7629	-1309.866	1	1359.974	-74.3983	1.013037E-007	0.0006196	8
	53	145	1.512097	433.0074	-1578.152	1	1636.477	-74.65697	1.749724E-007	0.0006429	8
	54	150	1.201923	530.8214	-1937.147	1	2008.559	-74.67584	1.28295E-007	0.0006049	8
	55	156	0.956633	663.9049	-2370.457	1	2461.674	-74.35379	8.906973E-008	-8.118923E-007	8
