EXPLAIN
TAG	EISPOT
TITLE	LABEL	Potentiostatic EIS	Test Identifier
DATE	LABEL	9/12/2020	Date
TIME	LABEL	16:47:54	Time
NOTES	NOTES	1	Notes...
	
PSTAT	PSTAT	REF3000-16137	Potentiostat
VDC	POTEN	0.00000E+000	T	DC Voltage (V)
FREQINIT	QUANT	3.00000E+005	Initial Freq. (Hz)
FREQFINAL	QUANT	1.00000E+000	Final Freq. (Hz)
PTSPERDEC	QUANT	1.00000E+001	Points/decade
VAC	QUANT	5.00000E+001	AC Voltage (mV rms)
AREA	QUANT	1.00000E+000	Sample Area (cm^2)
SPEED	SELECTOR	2	Optimize for:
ZGUESS	QUANT	1.00000E+003	Estimated Z (ohms)
EOC	QUANT	0	Open Circuit (V)
SEQUENCER	TOGGLE	TRUE	Run as Sequence
PSTATMODEL	IQUANT	5	Pstat Model
PSTATSECTION	LABEL	REF3000-16137	Pstat Section
PSTATSERIALNO	LABEL	16137	Pstat Serial Number
CTRLMODE	IQUANT	1	Control Mode
IESTAB	IQUANT	0	I/E Stability
CASPEED	IQUANT	1	Control Amp Speed
CONVENTION	IQUANT	1	Current Convention
ICHRANGE	IQUANT	2	Ich Range
ICHRANGEMODE	TOGGLE	F	Ich Auto Range
ICHOFFSETENABLE	TOGGLE	T	Ich Offset Enable
ICHOFFSET	QUANT	0	Ich Offset (V)
ICHFILTER	IQUANT	3	Ich Filter
VCHRANGE	IQUANT	2	Vch Range
VCHRANGEMODE	TOGGLE	F	Vch Auto Range
VCHOFFSETENABLE	TOGGLE	T	Vch Offset Enable
VCHOFFSET	QUANT	0	Vch Offset (V)
VCHFILTER	IQUANT	3	Vch Filter
ACHRANGE	IQUANT	2	Ach Range
ACHOFFSETENABLE	TOGGLE	F	Ach Offset Enable
ACHOFFSET	QUANT	0	Ach Offset (V)
ACHFILTER	IQUANT	3	Ach Filter
IERANGELOWERLIMIT	IQUANT	2	I/E Range Lower Limit
IERANGEMODE	TOGGLE	F	I/E AutoRange
IERANGE	IQUANT	11	I/E Range
POSFEEDENABLE	TOGGLE	F	Positive Feedback IR Comp
POSFEEDRESISTANCE	QUANT	0	Positive Feedback Resistance (ohm)
ACHSELECT	IQUANT	0	Ach Select
CABLEID	IQUANT	13	Cable ID
DCCALDATE	LABEL	7/31/2020	DC Calibration Date
ACCALDATE	LABEL	7/31/2020	AC Calibration Date
THERMOSELECT	IQUANT	1	Thermo Select
FRAMEWORKVERSION	QUANT	6.33	Framework Version
INSTRUMENTVERSION	LABEL	3.50	Instrument Version
COMPLIANCEVOLTAGE	IQUANT	0	Compliance Voltage
ZCURVE	TABLE
	Pt	Time	Freq	Zreal	Zimag	Zsig	Zmod	Zphz	Idc	Vdc	IERange
	#	s	Hz	ohm	ohm	V	ohm	°	A	V	#
	0	10	300046.9	3.391315	2.285133	1	4.089358	33.97284	-0.000097	-1.578432E-005	10
	1	13	238359.4	3.363778	1.808185	1	3.81897	28.26007	-0.0000963	-0.000436	10
	2	16	189328.1	3.343541	1.426256	1	3.635035	23.10167	5.755084E-005	-0.0001424	10
	3	19	150421.9	3.336952	1.119671	1	3.519789	18.54851	1.258501E-005	9.30689E-005	10
	4	21	119484.4	3.322445	0.8754478	1	3.435848	14.76163	5.886217E-005	0.0002504	10
	5	24	94921.88	3.333061	0.5421864	1	3.376872	9.23933	-6.242427E-005	0.0003572	12
	6	28	75421.88	3.317922	0.4921238	1	3.35422	8.436766	1.000067E-005	0.0006142	11
	7	30	59859.37	3.318642	0.351785	1	3.337235	6.050912	-9.582573E-006	0.0006092	11
	8	33	47578.12	3.321025	0.2327472	1	3.329171	4.008901	-2.666282E-005	0.0006121	11
	9	35	37828.12	3.324886	0.1260777	1	3.327276	2.171581	-2.633734E-005	0.0006267	11
	10	38	30046.88	3.329882	0.0263843	1	3.329987	0.4539734	-7.332576E-007	0.0006561	11
	11	40	23859.38	3.336814	-0.0704035	1	3.337557	-1.208706	8.428835E-006	0.000703	11
	12	43	18984.38	3.343817	-0.1688353	1	3.348076	-2.890512	-5.806026E-005	0.0006249	11
	13	45	15046.87	3.353436	-0.2761909	1	3.36479	-4.708286	-4.281627E-005	0.0006498	11
	14	47	11953.13	3.364407	-0.3946241	1	3.387471	-6.689872	1.334245E-005	0.000682	11
	15	50	9515.62	3.378423	-0.5307119	1	3.419854	-8.927559	-5.592058E-005	0.0006342	11
	16	52	7546.875	3.396517	-0.6935016	1	3.466594	-11.54004	9.341215E-006	0.0007113	11
	17	54	5928.309	3.419272	-0.8973252	1	3.535055	-14.70464	-3.044612E-005	0.0006646	11
	18	56	4733.456	3.449788	-1.128793	1	3.629768	-18.11844	1.05688E-006	0.0006181	10
	19	59	3796.875	3.483602	-1.40287	1	3.755466	-21.93497	1.867575E-005	0.0006222	10
	20	61	2987.132	3.530768	-1.769901	1	3.949541	-26.62366	-2.702368E-005	0.0006717	10
	21	63	2390.625	3.586266	-2.187599	1	4.20082	-31.38292	-5.034822E-006	0.0006759	10
	22	66	1884.191	3.661411	-2.735052	1	4.570168	-36.75951	1.696881E-005	0.0006365	10
	23	68	1516.544	3.748735	-3.348023	1	5.026159	-41.76828	1.240594E-005	0.0006219	10
	24	70	1193.986	3.868792	-4.178966	1	5.694849	-47.20718	-2.400645E-005	0.0006707	10
	25	73	946.5144	4.020982	-5.17327	1	6.552176	-52.14347	1.801796E-005	0.0006302	10
	26	75	751.7689	4.206769	-6.396583	1	7.655924	-56.66872	8.617547E-006	0.0006129	10
	27	78	597.4265	4.447659	-7.896656	1	9.063047	-60.61034	6.432858E-006	0.0006143	10
	28	80	477.4305	4.748016	-9.69772	1	10.79766	-63.91356	-4.416464E-006	0.000656	10
	29	82	376.6741	5.161845	-12.04093	1	13.10071	-66.7956	-4.818334E-006	0.0006503	10
	30	84	298.2954	5.699045	-14.88882	1	15.94227	-69.05447	-4.479008E-006	0.0006547	10
	31	87	237.7717	6.387065	-18.27932	1	19.36306	-70.73983	-8.510384E-006	0.0007073	10
	32	89	189.0121	7.308819	-22.46684	1	23.62579	-71.97948	-4.579115E-006	0.0006536	10
	33	92	150.2404	8.521932	-27.55979	1	28.84728	-72.81755	-4.606932E-006	0.0006532	10
	34	94	119.1737	10.1367	-33.78913	1	35.27688	-73.30082	-4.452787E-006	0.0006599	10
	35	96	95.0169	12.17658	-41.06283	1	42.83018	-73.48306	-1.481977E-006	5.623605E-005	9
	36	99	75.60484	14.84697	-49.89286	1	52.05506	-73.42821	-1.595879E-006	5.1619E-005	9
	37	101	54.50582	19.95152	-65.50829	1	68.47918	-73.06111	-1.729291E-006	5.232998E-005	9
	38	104	45.95588	23.33085	-75.30698	1	78.83826	-72.7865	-1.375433E-006	5.972823E-005	9
	39	106	37.20238	28.24673	-89.2223	1	93.58684	-72.43283	-1.407443E-006	5.210521E-005	9
	40	109	30.04808	34.10934	-105.6282	1	110.9989	-72.10375	-1.571527E-006	5.20044E-005	9
	41	111	23.91582	41.4273	-126.3763	1	132.9932	-71.85038	-1.576435E-006	5.318139E-005	9
	42	114	18.60119	50.8532	-153.8701	1	162.0557	-71.71157	-1.279036E-006	5.693904E-005	9
	43	116	15.02404	60.14748	-182.0937	1	191.7702	-71.72106	-1.436054E-006	5.699104E-005	9
	44	118	12.01923	71.33836	-217.6646	1	229.0568	-71.85373	-1.414702E-006	5.928294E-005	9
	45	121	9.450605	85.90973	-264.6772	1	278.2706	-72.01745	-1.350125E-006	4.630465E-005	9
	46	123	7.512019	103.1547	-320.2076	1	336.4131	-72.14368	-1.250245E-006	5.253137E-005	9
	47	126	5.978954	125.3381	-387.7703	1	407.5235	-72.08773	-1.181297E-006	5.27426E-005	9
	48	129	4.734848	155.5208	-470.8172	1	495.8383	-71.72052	-1.992939E-006	0.0006404	8
	49	132	3.75601	197.1775	-572.4014	1	605.4108	-70.99249	-1.884617E-006	0.0006443	8
	50	135	3.004808	252.852	-688.8395	1	733.7806	-69.84335	-1.992027E-006	0.000666	8
	51	139	2.372217	335.7616	-833.4809	1	898.569	-68.05833	-1.953923E-006	0.0007095	8
	52	143	1.878005	450.1686	-995.201	1	1092.281	-65.66089	-1.965101E-006	0.0006107	8
	53	148	1.512097	591.3181	-1157.248	1	1299.569	-62.93437	-1.92357E-006	0.0006894	8
	54	153	1.201923	789.3411	-1339.573	1	1554.836	-59.49136	-1.915093E-006	0.0006046	8
	55	160	0.956633	1037.085	-1510.889	1	1832.575	-55.53402	-2.119967E-006	-2.009848E-006	8
