EXPLAIN
TAG	EISPOT
TITLE	LABEL	Potentiostatic EIS	Test Identifier
DATE	LABEL	9/12/2020	Date
TIME	LABEL	17:24:11	Time
NOTES	NOTES	1	Notes...
	
PSTAT	PSTAT	REF3000-16137	Potentiostat
VDC	POTEN	0.00000E+000	T	DC Voltage (V)
FREQINIT	QUANT	3.00000E+005	Initial Freq. (Hz)
FREQFINAL	QUANT	1.00000E+000	Final Freq. (Hz)
PTSPERDEC	QUANT	1.00000E+001	Points/decade
VAC	QUANT	5.00000E+001	AC Voltage (mV rms)
AREA	QUANT	1.00000E+000	Sample Area (cm^2)
SPEED	SELECTOR	2	Optimize for:
ZGUESS	QUANT	1.00000E+003	Estimated Z (ohms)
EOC	QUANT	0	Open Circuit (V)
SEQUENCER	TOGGLE	TRUE	Run as Sequence
PSTATMODEL	IQUANT	5	Pstat Model
PSTATSECTION	LABEL	REF3000-16137	Pstat Section
PSTATSERIALNO	LABEL	16137	Pstat Serial Number
CTRLMODE	IQUANT	1	Control Mode
IESTAB	IQUANT	0	I/E Stability
CASPEED	IQUANT	1	Control Amp Speed
CONVENTION	IQUANT	1	Current Convention
ICHRANGE	IQUANT	2	Ich Range
ICHRANGEMODE	TOGGLE	F	Ich Auto Range
ICHOFFSETENABLE	TOGGLE	T	Ich Offset Enable
ICHOFFSET	QUANT	0	Ich Offset (V)
ICHFILTER	IQUANT	3	Ich Filter
VCHRANGE	IQUANT	2	Vch Range
VCHRANGEMODE	TOGGLE	F	Vch Auto Range
VCHOFFSETENABLE	TOGGLE	T	Vch Offset Enable
VCHOFFSET	QUANT	0	Vch Offset (V)
VCHFILTER	IQUANT	3	Vch Filter
ACHRANGE	IQUANT	2	Ach Range
ACHOFFSETENABLE	TOGGLE	F	Ach Offset Enable
ACHOFFSET	QUANT	0	Ach Offset (V)
ACHFILTER	IQUANT	3	Ach Filter
IERANGELOWERLIMIT	IQUANT	2	I/E Range Lower Limit
IERANGEMODE	TOGGLE	F	I/E AutoRange
IERANGE	IQUANT	11	I/E Range
POSFEEDENABLE	TOGGLE	F	Positive Feedback IR Comp
POSFEEDRESISTANCE	QUANT	0	Positive Feedback Resistance (ohm)
ACHSELECT	IQUANT	0	Ach Select
CABLEID	IQUANT	13	Cable ID
DCCALDATE	LABEL	7/31/2020	DC Calibration Date
ACCALDATE	LABEL	7/31/2020	AC Calibration Date
THERMOSELECT	IQUANT	1	Thermo Select
FRAMEWORKVERSION	QUANT	6.33	Framework Version
INSTRUMENTVERSION	LABEL	3.50	Instrument Version
COMPLIANCEVOLTAGE	IQUANT	0	Compliance Voltage
ZCURVE	TABLE
	Pt	Time	Freq	Zreal	Zimag	Zsig	Zmod	Zphz	Idc	Vdc	IERange
	#	s	Hz	ohm	ohm	V	ohm	°	A	V	#
	0	8	300046.9	10.50344	2.193017	1	10.72993	11.79339	-0.0000991	0.0001565	10
	1	11	238359.4	10.51023	1.729819	1	10.65162	9.346203	-2.357884E-005	0.0001078	10
	2	15	189328.1	10.5141	1.367058	1	10.6026	7.408117	-1.086183E-005	0.0002437	10
	3	17	150421.9	10.53072	1.060808	1	10.58402	5.752264	1.335999E-005	0.0004107	10
	4	20	119484.4	10.54101	0.8306808	1	10.57369	4.505865	-2.959234E-005	0.000503	10
	5	22	94921.88	10.55518	0.6548625	1	10.57547	3.550184	4.246688E-006	0.0005582	10
	6	25	75421.88	10.57585	0.4779915	1	10.58665	2.587807	-1.671967E-006	0.0006438	10
	7	27	59859.37	10.59873	0.3269756	1	10.60378	1.767039	-1.564699E-005	0.0006217	10
	8	30	47578.12	10.62623	0.1996498	1	10.6281	1.076369	-1.017833E-005	0.0006918	10
	9	32	37828.12	10.65324	0.08627	1	10.65359	0.4639716	-2.368543E-005	0.0006815	10
	10	35	30046.88	10.67977	-0.0201522	1	10.67979	-0.1081143	-2.944279E-005	0.0006463	10
	11	37	23859.38	10.70809	-0.1271996	1	10.70885	-0.680575	1.048871E-005	0.0005974	10
	12	40	18984.38	10.73527	-0.2369834	1	10.73789	-1.264611	2.245805E-005	0.0006053	10
	13	42	15046.87	10.76588	-0.3599038	1	10.77189	-1.914688	-8.094949E-006	0.0006413	10
	14	44	11953.13	10.7972	-0.4979264	1	10.80868	-2.640395	2.026287E-005	0.0006217	10
	15	47	9515.62	10.83295	-0.6561062	1	10.8528	-3.46593	3.17986E-006	0.0006059	10
	16	49	7546.875	10.8718	-0.8485097	1	10.90486	-4.46271	-2.430851E-005	0.0007123	10
	17	51	5928.309	10.91533	-1.091238	1	10.96974	-5.709062	-1.837617E-005	0.0006564	10
	18	54	4733.456	10.96319	-1.368546	1	11.04828	-7.115483	3.757182E-006	0.0006076	10
	19	56	3796.875	11.01612	-1.698462	1	11.14628	-8.76483	1.029804E-005	0.0006319	10
	20	58	2987.132	11.08391	-2.143355	1	11.28925	-10.9445	4.832867E-006	0.0006052	10
	21	61	2390.625	11.15918	-2.655242	1	11.47073	-13.38421	-2.251411E-005	0.0006402	10
	22	63	1884.191	11.25369	-3.326831	1	11.73514	-16.4688	1.152218E-005	0.0005933	10
	23	65	1516.544	11.35827	-4.084415	1	12.07033	-19.7785	-2.142123E-005	0.0006902	10
	24	68	1193.986	11.50138	-5.114906	1	12.58745	-23.97573	-2.483781E-005	0.0006678	10
	25	70	946.5144	11.67437	-6.362126	1	13.2954	-28.58884	-3.048611E-005	0.0006613	10
	26	72	751.7689	11.89128	-7.878894	1	14.26462	-33.52756	-2.539544E-005	0.0007197	10
	27	75	597.4265	12.1589	-9.75599	1	15.58904	-38.74266	2.177372E-005	0.000641	10
	28	77	477.4305	12.48573	-12.00344	1	17.31982	-43.87177	-2.666657E-006	0.0006591	10
	29	79	376.6741	12.9192	-14.9346	1	19.74711	-49.1385	-2.449676E-006	0.0006584	10
	30	82	298.2954	13.45449	-18.50684	1	22.8807	-53.98282	-2.473162E-006	0.0006586	10
	31	84	237.7717	14.10556	-22.78653	1	26.79912	-58.24123	-2.899845E-006	0.0006515	10
	32	86	189.0121	14.93532	-28.1238	1	31.84355	-62.02918	-2.627843E-006	0.0006571	10
	33	89	150.2404	15.9766	-34.70068	1	38.20195	-65.27811	-2.605622E-006	0.0006523	10
	34	91	119.1737	17.29502	-42.84344	1	46.20257	-68.01708	1.112564E-006	5.928305E-005	9
	35	94	95.0169	18.97579	-52.69587	1	56.00835	-70.19604	1.018042E-006	5.232433E-005	9
	36	96	75.60484	21.17459	-64.91127	1	68.27764	-71.93324	1.00359E-006	5.400928E-005	9
	37	99	54.50582	25.55639	-87.35764	1	91.01915	-73.69321	9.795692E-007	4.313129E-005	9
	38	101	45.95588	28.63556	-101.9086	1	105.8553	-74.30502	1.17967E-006	5.644688E-005	9
	39	103	37.20238	33.43576	-123.1547	1	127.6128	-74.81068	9.365049E-007	6.701707E-005	9
	40	106	30.04808	39.73602	-148.8796	1	154.0912	-75.05608	1.049745E-006	5.701086E-005	9
	41	108	23.91582	48.45428	-181.8804	1	188.224	-75.08245	9.714854E-007	5.324389E-005	9
	42	111	18.60119	60.98873	-225.7813	1	233.8735	-74.88386	8.071216E-007	6.111908E-005	9
	43	113	15.02404	74.81198	-270.6264	1	280.7766	-74.54707	8.132428E-007	5.171825E-005	9
	44	115	12.01923	92.86777	-325.6964	1	338.6776	-74.08524	1.319291E-006	5.188736E-005	9
	45	118	9.450605	116.8418	-396.0822	1	412.9565	-73.56427	1.004447E-006	4.988875E-005	9
	46	120	7.512019	143.6408	-474.0723	1	495.3557	-73.14353	3.338104E-007	0.0006273	8
	47	123	5.978954	175.8846	-567.3774	1	594.0139	-72.77679	3.395267E-007	0.000638	8
	48	126	4.734848	213.5522	-681.0721	1	713.7673	-72.59103	3.139726E-007	0.0006097	8
	49	129	3.75601	255.9097	-816.757	1	855.9099	-72.60297	4.051919E-007	0.0006515	8
	50	133	3.004808	301.7116	-973.864	1	1019.53	-72.78656	3.531149E-007	0.0006318	8
	51	136	2.372217	357.8336	-1177.957	1	1231.109	-73.10255	3.274374E-007	0.0005698	8
	52	141	1.878005	417.6179	-1429.095	1	1488.865	-73.7103	3.864736E-007	0.0006384	8
	53	145	1.512097	482.6452	-1710.599	1	1777.385	-74.2436	3.324812E-007	0.0006195	8
	54	151	1.201923	568.8867	-2090.426	1	2166.452	-74.77625	3.468332E-007	0.0007047	8
	55	157	0.956633	677.4426	-2552.164	1	2640.543	-75.1343	3.332105E-007	-7.892128E-006	8
