EXPLAIN
TAG	EISPOT
TITLE	LABEL	Potentiostatic EIS	Test Identifier
DATE	LABEL	9/12/2020	Date
TIME	LABEL	17:04:43	Time
NOTES	NOTES	1	Notes...
	
PSTAT	PSTAT	REF3000-16137	Potentiostat
VDC	POTEN	0.00000E+000	T	DC Voltage (V)
FREQINIT	QUANT	3.00000E+005	Initial Freq. (Hz)
FREQFINAL	QUANT	1.00000E+000	Final Freq. (Hz)
PTSPERDEC	QUANT	1.00000E+001	Points/decade
VAC	QUANT	5.00000E+001	AC Voltage (mV rms)
AREA	QUANT	1.00000E+000	Sample Area (cm^2)
SPEED	SELECTOR	2	Optimize for:
ZGUESS	QUANT	1.00000E+003	Estimated Z (ohms)
EOC	QUANT	0	Open Circuit (V)
SEQUENCER	TOGGLE	TRUE	Run as Sequence
PSTATMODEL	IQUANT	5	Pstat Model
PSTATSECTION	LABEL	REF3000-16137	Pstat Section
PSTATSERIALNO	LABEL	16137	Pstat Serial Number
CTRLMODE	IQUANT	1	Control Mode
IESTAB	IQUANT	0	I/E Stability
CASPEED	IQUANT	1	Control Amp Speed
CONVENTION	IQUANT	1	Current Convention
ICHRANGE	IQUANT	2	Ich Range
ICHRANGEMODE	TOGGLE	F	Ich Auto Range
ICHOFFSETENABLE	TOGGLE	T	Ich Offset Enable
ICHOFFSET	QUANT	0	Ich Offset (V)
ICHFILTER	IQUANT	3	Ich Filter
VCHRANGE	IQUANT	2	Vch Range
VCHRANGEMODE	TOGGLE	F	Vch Auto Range
VCHOFFSETENABLE	TOGGLE	T	Vch Offset Enable
VCHOFFSET	QUANT	0	Vch Offset (V)
VCHFILTER	IQUANT	3	Vch Filter
ACHRANGE	IQUANT	2	Ach Range
ACHOFFSETENABLE	TOGGLE	F	Ach Offset Enable
ACHOFFSET	QUANT	0	Ach Offset (V)
ACHFILTER	IQUANT	3	Ach Filter
IERANGELOWERLIMIT	IQUANT	2	I/E Range Lower Limit
IERANGEMODE	TOGGLE	F	I/E AutoRange
IERANGE	IQUANT	11	I/E Range
POSFEEDENABLE	TOGGLE	F	Positive Feedback IR Comp
POSFEEDRESISTANCE	QUANT	0	Positive Feedback Resistance (ohm)
ACHSELECT	IQUANT	0	Ach Select
CABLEID	IQUANT	13	Cable ID
DCCALDATE	LABEL	7/31/2020	DC Calibration Date
ACCALDATE	LABEL	7/31/2020	AC Calibration Date
THERMOSELECT	IQUANT	1	Thermo Select
FRAMEWORKVERSION	QUANT	6.33	Framework Version
INSTRUMENTVERSION	LABEL	3.50	Instrument Version
COMPLIANCEVOLTAGE	IQUANT	0	Compliance Voltage
ZCURVE	TABLE
	Pt	Time	Freq	Zreal	Zimag	Zsig	Zmod	Zphz	Idc	Vdc	IERange
	#	s	Hz	ohm	ohm	V	ohm	°	A	V	#
	0	10	300046.9	4.97259	2.236806	1	5.452518	24.2195	5.178115E-005	2.484677E-005	10
	1	13	238359.4	4.947406	1.792895	1	5.262252	19.92005	-1.735825E-005	-0.0001968	10
	2	17	189328.1	4.934066	1.411589	1	5.132016	15.96531	1.162676E-005	6.448034E-005	10
	3	19	150421.9	4.937157	1.111436	1	5.060712	12.68674	-1.894732E-006	0.0002251	10
	4	22	119484.4	4.923071	0.8647056	1	4.998434	9.96202	-2.240765E-005	0.000388	10
	5	24	94921.88	4.927847	0.6808046	1	4.974653	7.86588	-3.799419E-006	0.000528	10
	6	27	75421.88	4.928895	0.5070339	1	4.954905	5.873341	2.083449E-005	0.0004803	10
	7	29	59859.37	4.932915	0.3601795	1	4.946047	4.176071	1.634779E-005	0.0005211	10
	8	32	47578.12	4.939418	0.2331457	1	4.944918	2.702415	2.211646E-005	0.0005831	10
	9	34	37828.12	4.947621	0.1198597	1	4.949073	1.38776	-2.987148E-005	0.0006093	10
	10	37	30046.88	4.957496	0.0140156	1	4.957516	0.1619831	2.09525E-005	0.0006018	10
	11	39	23859.38	4.968336	-0.0885299	1	4.969124	-1.020835	1.756721E-005	0.0006111	10
	12	42	18984.38	4.981467	-0.1924858	1	4.985185	-2.21283	-1.931971E-006	0.0006741	10
	13	44	15046.87	4.994576	-0.3066434	1	5.00398	-3.513281	1.789067E-005	0.0006555	10
	14	46	11953.13	5.009545	-0.4335872	1	5.028274	-4.946748	1.346992E-005	0.0006325	10
	15	49	9515.62	5.027729	-0.5793372	1	5.060997	-6.573113	9.529775E-007	0.0006102	10
	16	51	7546.875	5.049267	-0.7543652	1	5.105307	-8.497194	-3.238342E-005	0.0006529	10
	17	53	5928.309	5.076797	-0.974208	1	5.169425	-10.86267	-1.276001E-005	0.000641	10
	18	56	4733.456	5.107557	-1.224609	1	5.252314	-13.48295	-1.351693E-005	0.0006424	10
	19	58	3796.875	5.144424	-1.523319	1	5.365222	-16.49458	-1.410519E-005	0.0006298	10
	20	60	2987.132	5.194407	-1.921278	1	5.538336	-20.29814	-6.57769E-006	0.0006652	10
	21	62	2390.625	5.253137	-2.377258	1	5.766005	-24.34869	5.139007E-007	0.0006118	10
	22	65	1884.191	5.333151	-2.976686	1	6.107632	-29.16797	-1.294358E-005	0.000639	10
	23	67	1516.544	5.424376	-3.648262	1	6.537099	-33.92352	-1.362949E-005	0.0006404	10
	24	69	1193.986	5.549604	-4.558844	1	7.182003	-39.40214	2.970931E-006	0.0006177	10
	25	72	946.5144	5.704347	-5.657669	1	8.034225	-44.76461	1.628291E-005	0.0006632	10
	26	74	751.7689	5.899437	-6.996507	1	9.151747	-49.8625	-2.468622E-005	0.0006666	10
	27	76	597.4265	6.142437	-8.64162	1	10.60222	-54.5949	2.030666E-005	0.0006328	10
	28	79	477.4305	6.443652	-10.62072	1	12.42257	-58.75457	-3.211695E-006	0.0006587	10
	29	81	376.6741	6.846329	-13.20023	1	14.87005	-62.58638	-3.6813E-006	0.0006572	10
	30	83	298.2954	7.355084	-16.34631	1	17.92482	-65.77446	-2.360268E-006	0.0006541	10
	31	86	237.7717	7.995439	-20.11473	1	21.64554	-68.32259	-3.079529E-006	0.000656	10
	32	88	189.0121	8.838924	-24.80493	1	26.3327	-70.38712	-3.910225E-006	0.0006531	10
	33	90	150.2404	9.95135	-30.56595	1	32.14509	-71.96632	-3.313421E-006	0.0006584	10
	34	93	119.1737	11.43786	-37.68856	1	39.38594	-73.11782	-3.524555E-006	0.0006576	10
	35	95	95.0169	13.34402	-46.11737	1	48.00911	-73.86225	1.894829E-007	5.77038E-005	9
	36	98	75.60484	15.90204	-56.48228	1	58.67812	-74.27595	1.017842E-007	5.250208E-005	9
	37	100	54.50582	20.99895	-75.11734	1	77.99725	-74.38174	7.085771E-008	5.358956E-005	9
	38	103	45.95588	24.52356	-86.9577	1	90.34957	-74.25064	3.080993E-007	6.200965E-005	9
	39	105	37.20238	29.84882	-103.8739	1	108.0775	-73.96766	2.708374E-007	5.701716E-005	9
	40	108	30.04808	36.5581	-123.9759	1	129.2537	-73.57024	1.542467E-007	5.659417E-005	9
	41	110	23.91582	45.27837	-149.183	1	155.9028	-73.11649	2.206061E-007	5.458774E-005	9
	42	112	18.60119	56.89065	-182.1318	1	190.8102	-72.6533	4.376223E-007	5.91658E-005	9
	43	115	15.02404	68.51662	-215.3715	1	226.0075	-72.35246	2.597713E-007	5.656172E-005	9
	44	117	12.01923	82.52267	-256.2734	1	269.2323	-72.15091	3.914009E-007	5.869721E-005	9
	45	119	9.450605	99.6908	-309.5702	1	325.226	-72.1499	2.026773E-007	6.094278E-005	9
	46	122	7.512019	118.1647	-371.3035	1	389.6526	-72.34669	3.908645E-007	5.636619E-005	9
	47	125	5.978954	138.4504	-444.2939	1	465.3661	-72.69198	-3.66382E-007	0.0006387	8
	48	128	4.734848	163.5834	-538.6206	1	562.9136	-73.10605	-4.290732E-007	0.0006132	8
	49	131	3.75601	194.1644	-654.549	1	682.7402	-73.47762	-3.214141E-007	0.0006549	8
	50	134	3.004808	231.7211	-791.8176	1	825.0272	-73.68817	-3.830666E-007	0.0006385	8
	51	138	2.372217	285.7974	-970.886	1	1012.077	-73.59728	-4.220104E-007	0.0006039	8
	52	142	1.878005	358.4359	-1192.448	1	1245.154	-73.26984	-3.359912E-007	0.0006289	8
	53	147	1.512097	448.4226	-1436.537	1	1504.899	-72.66397	-4.031943E-007	0.0006682	8
	54	152	1.201923	588.7564	-1752.101	1	1848.376	-71.42617	-3.650402E-007	0.0007029	8
	55	159	0.956633	781.2233	-2116.468	1	2256.047	-69.74007	-4.613787E-007	-3.141727E-006	8
