EXPLAIN
TAG	EISPOT
TITLE	LABEL	Potentiostatic EIS	Test Identifier
DATE	LABEL	9/12/2020	Date
TIME	LABEL	17:01:55	Time
NOTES	NOTES	1	Notes...
	
PSTAT	PSTAT	REF3000-16137	Potentiostat
VDC	POTEN	0.00000E+000	T	DC Voltage (V)
FREQINIT	QUANT	3.00000E+005	Initial Freq. (Hz)
FREQFINAL	QUANT	1.00000E+000	Final Freq. (Hz)
PTSPERDEC	QUANT	1.00000E+001	Points/decade
VAC	QUANT	5.00000E+001	AC Voltage (mV rms)
AREA	QUANT	1.00000E+000	Sample Area (cm^2)
SPEED	SELECTOR	2	Optimize for:
ZGUESS	QUANT	1.00000E+003	Estimated Z (ohms)
EOC	QUANT	0	Open Circuit (V)
SEQUENCER	TOGGLE	TRUE	Run as Sequence
PSTATMODEL	IQUANT	5	Pstat Model
PSTATSECTION	LABEL	REF3000-16137	Pstat Section
PSTATSERIALNO	LABEL	16137	Pstat Serial Number
CTRLMODE	IQUANT	1	Control Mode
IESTAB	IQUANT	0	I/E Stability
CASPEED	IQUANT	1	Control Amp Speed
CONVENTION	IQUANT	1	Current Convention
ICHRANGE	IQUANT	2	Ich Range
ICHRANGEMODE	TOGGLE	F	Ich Auto Range
ICHOFFSETENABLE	TOGGLE	T	Ich Offset Enable
ICHOFFSET	QUANT	0	Ich Offset (V)
ICHFILTER	IQUANT	3	Ich Filter
VCHRANGE	IQUANT	2	Vch Range
VCHRANGEMODE	TOGGLE	F	Vch Auto Range
VCHOFFSETENABLE	TOGGLE	T	Vch Offset Enable
VCHOFFSET	QUANT	0	Vch Offset (V)
VCHFILTER	IQUANT	3	Vch Filter
ACHRANGE	IQUANT	2	Ach Range
ACHOFFSETENABLE	TOGGLE	F	Ach Offset Enable
ACHOFFSET	QUANT	0	Ach Offset (V)
ACHFILTER	IQUANT	3	Ach Filter
IERANGELOWERLIMIT	IQUANT	2	I/E Range Lower Limit
IERANGEMODE	TOGGLE	F	I/E AutoRange
IERANGE	IQUANT	11	I/E Range
POSFEEDENABLE	TOGGLE	F	Positive Feedback IR Comp
POSFEEDRESISTANCE	QUANT	0	Positive Feedback Resistance (ohm)
ACHSELECT	IQUANT	0	Ach Select
CABLEID	IQUANT	13	Cable ID
DCCALDATE	LABEL	7/31/2020	DC Calibration Date
ACCALDATE	LABEL	7/31/2020	AC Calibration Date
THERMOSELECT	IQUANT	1	Thermo Select
FRAMEWORKVERSION	QUANT	6.33	Framework Version
INSTRUMENTVERSION	LABEL	3.50	Instrument Version
COMPLIANCEVOLTAGE	IQUANT	0	Compliance Voltage
ZCURVE	TABLE
	Pt	Time	Freq	Zreal	Zimag	Zsig	Zmod	Zphz	Idc	Vdc	IERange
	#	s	Hz	ohm	ohm	V	ohm	°	A	V	#
	0	10	300046.9	4.618661	2.253412	1	5.139056	26.00742	1.698815E-005	2.553496E-005	10
	1	13	238359.4	4.573513	1.792604	1	4.912275	21.40287	2.746301E-005	-0.0001191	10
	2	16	189328.1	4.55557	1.418301	1	4.771246	17.2931	-1.097361E-005	8.347088E-005	10
	3	19	150421.9	4.54565	1.106015	1	4.678269	13.67507	5.229862E-006	0.0002869	10
	4	21	119484.4	4.544361	0.8648622	1	4.625927	10.77541	6.921422E-005	0.0001505	10
	5	24	94921.88	4.54806	0.6806626	1	4.598712	8.511712	-2.046831E-007	0.0004711	10
	6	27	75421.88	4.548769	0.5086345	1	4.577118	6.380199	-1.342203E-005	0.0005443	10
	7	29	59859.37	4.551323	0.362011	1	4.565698	4.547717	-2.729274E-005	0.0006025	10
	8	32	47578.12	4.557551	0.2363335	1	4.563674	2.968435	-1.283702E-005	0.0006258	10
	9	34	37828.12	4.563693	0.1227584	1	4.565344	1.540822	9.482716E-006	0.0005837	10
	10	37	30046.88	4.573305	0.0181181	1	4.57334	0.2269876	-2.138109E-005	0.0006149	10
	11	39	23859.38	4.583416	-0.0842805	1	4.584191	-1.053445	2.041389E-005	0.0006235	10
	12	42	18984.38	4.594879	-0.1874756	1	4.598702	-2.336428	-2.315446E-005	0.0006809	10
	13	44	15046.87	4.606278	-0.300896	1	4.616095	-3.737424	-3.119753E-005	0.0006507	10
	14	46	11953.13	4.620989	-0.4261931	1	4.640602	-5.269473	1.490341E-005	0.0006146	10
	15	48	9515.62	4.638857	-0.5698599	1	4.673728	-7.003405	-2.084293E-005	0.0006819	10
	16	51	7546.875	4.659539	-0.7428222	1	4.718378	-9.057853	-1.91743E-005	0.0006991	10
	17	53	5928.309	4.684774	-0.960276	1	4.782179	-11.58392	8.894513E-006	0.0006102	10
	18	55	4733.456	4.715113	-1.207337	1	4.867233	-14.36239	-2.526444E-005	0.0006633	10
	19	58	3796.875	4.750927	-1.500625	1	4.982287	-17.52921	1.814065E-005	0.0006187	10
	20	60	2987.132	4.800528	-1.893466	1	5.160453	-21.5257	1.994594E-005	0.0006337	10
	21	62	2390.625	4.858936	-2.343568	1	5.394587	-25.749	5.029738E-007	0.0006142	10
	22	65	1884.191	4.936685	-2.933608	1	5.742553	-30.72075	1.232467E-005	0.000657	10
	23	67	1516.544	5.027536	-3.594985	1	6.180618	-35.567	-1.327564E-005	0.0006433	10
	24	69	1193.986	5.151884	-4.490569	1	6.83426	-41.07658	1.951514E-005	0.0006367	10
	25	72	946.5144	5.304309	-5.572808	1	7.693626	-46.41404	-9.244734E-006	0.0006222	10
	26	74	751.7689	5.49897	-6.886477	1	8.812617	-51.39203	1.450505E-005	0.0006178	10
	27	76	597.4265	5.738665	-8.509871	1	10.26402	-56.00608	-2.867995E-005	0.0006688	10
	28	79	477.4305	6.039749	-10.45492	1	12.0741	-59.98521	-3.044186E-006	0.0006518	10
	29	81	376.6741	6.442125	-12.99323	1	14.50258	-63.62749	-3.359277E-006	0.0006512	10
	30	83	298.2954	6.953358	-16.08916	1	17.52742	-66.62714	-3.626642E-006	0.000655	10
	31	86	237.7717	7.600052	-19.7937	1	21.20262	-68.99505	-3.544852E-006	0.000655	10
	32	88	189.0121	8.455516	-24.40135	1	25.82483	-70.88786	-3.288195E-006	0.0006526	10
	33	91	150.2404	9.58674	-30.05091	1	31.54303	-72.30645	-2.910467E-006	0.0006572	10
	34	93	119.1737	11.09951	-37.02742	1	38.65525	-73.31313	-3.217932E-006	0.0006542	10
	35	95	95.0169	13.04127	-45.26464	1	47.10587	-73.9277	8.792921E-008	4.720766E-005	9
	36	98	75.60484	15.63921	-55.36692	1	57.5333	-74.22688	-9.27316E-008	5.264244E-005	9
	37	100	54.50582	20.79354	-73.47811	1	76.36363	-74.19904	-1.744362E-007	4.762322E-005	9
	38	103	45.95588	24.3176	-84.94148	1	88.35384	-74.02429	-3.241165E-007	0.0001118	9
	39	105	37.20238	29.64375	-101.3089	1	105.5569	-73.69012	-7.386006E-008	5.39996E-005	9
	40	108	30.04808	36.25665	-120.6707	1	125.9998	-73.27661	-9.970726E-008	5.626201E-005	9
	41	110	23.91582	44.80989	-144.9814	1	151.7483	-72.82501	5.780803E-008	5.149411E-005	9
	42	112	18.60119	56.02404	-176.7591	1	185.4251	-72.41392	-6.780655E-008	5.787671E-005	9
	43	115	15.02404	67.24787	-208.8295	1	219.3901	-72.15025	3.413881E-008	5.109297E-005	9
	44	117	12.01923	80.51014	-248.534	1	261.249	-72.05078	1.14471E-007	5.87882E-005	9
	45	119	9.450605	96.698	-300.3831	1	315.5638	-72.15582	1.318622E-007	4.904866E-005	9
	46	122	7.512019	114.4443	-360.9423	1	378.6513	-72.40769	1.810508E-007	7.61443E-005	9
	47	125	5.978954	134.39	-432.6951	1	453.0847	-72.74582	-6.153355E-007	0.0006425	8
	48	128	4.734848	159.6598	-525.7597	1	549.4675	-73.1078	-4.95256E-007	0.0006404	8
	49	131	3.75601	190.8972	-639.7278	1	667.6027	-73.3847	-6.209224E-007	0.000619	8
	50	134	3.004808	230.1968	-774.9199	1	808.3882	-73.45548	-5.223796E-007	0.0006041	8
	51	138	2.372217	286.999	-949.985	1	992.391	-73.18996	-5.318851E-007	0.0006256	8
	52	142	1.878005	367.2951	-1164.673	1	1221.216	-72.49664	-6.062866E-007	0.0006309	8
	53	147	1.512097	466.8763	-1401.785	1	1477.489	-71.57922	-5.470476E-007	0.0005443	8
	54	152	1.201923	619.2463	-1698.97	1	1808.305	-69.97404	-5.782127E-007	0.0006244	8
	55	159	0.956633	827.3826	-2037.741	1	2199.307	-67.90141	-6.431222E-007	-6.052735E-006	8
