EXPLAIN
TAG	EISPOT
TITLE	LABEL	Potentiostatic EIS	Test Identifier
DATE	LABEL	9/12/2020	Date
TIME	LABEL	18:13:44	Time
NOTES	NOTES	1	Notes...
	
PSTAT	PSTAT	REF3000-16137	Potentiostat
VDC	POTEN	0.00000E+000	T	DC Voltage (V)
FREQINIT	QUANT	3.00000E+005	Initial Freq. (Hz)
FREQFINAL	QUANT	1.00000E+000	Final Freq. (Hz)
PTSPERDEC	QUANT	1.00000E+001	Points/decade
VAC	QUANT	5.00000E+001	AC Voltage (mV rms)
AREA	QUANT	1.00000E+000	Sample Area (cm^2)
SPEED	SELECTOR	2	Optimize for:
ZGUESS	QUANT	1.00000E+003	Estimated Z (ohms)
EOC	QUANT	0	Open Circuit (V)
SEQUENCER	TOGGLE	TRUE	Run as Sequence
PSTATMODEL	IQUANT	5	Pstat Model
PSTATSECTION	LABEL	REF3000-16137	Pstat Section
PSTATSERIALNO	LABEL	16137	Pstat Serial Number
CTRLMODE	IQUANT	1	Control Mode
IESTAB	IQUANT	0	I/E Stability
CASPEED	IQUANT	1	Control Amp Speed
CONVENTION	IQUANT	1	Current Convention
ICHRANGE	IQUANT	2	Ich Range
ICHRANGEMODE	TOGGLE	F	Ich Auto Range
ICHOFFSETENABLE	TOGGLE	T	Ich Offset Enable
ICHOFFSET	QUANT	0	Ich Offset (V)
ICHFILTER	IQUANT	3	Ich Filter
VCHRANGE	IQUANT	2	Vch Range
VCHRANGEMODE	TOGGLE	F	Vch Auto Range
VCHOFFSETENABLE	TOGGLE	T	Vch Offset Enable
VCHOFFSET	QUANT	0	Vch Offset (V)
VCHFILTER	IQUANT	3	Vch Filter
ACHRANGE	IQUANT	2	Ach Range
ACHOFFSETENABLE	TOGGLE	F	Ach Offset Enable
ACHOFFSET	QUANT	0	Ach Offset (V)
ACHFILTER	IQUANT	3	Ach Filter
IERANGELOWERLIMIT	IQUANT	2	I/E Range Lower Limit
IERANGEMODE	TOGGLE	F	I/E AutoRange
IERANGE	IQUANT	11	I/E Range
POSFEEDENABLE	TOGGLE	F	Positive Feedback IR Comp
POSFEEDRESISTANCE	QUANT	0	Positive Feedback Resistance (ohm)
ACHSELECT	IQUANT	0	Ach Select
CABLEID	IQUANT	13	Cable ID
DCCALDATE	LABEL	7/31/2020	DC Calibration Date
ACCALDATE	LABEL	7/31/2020	AC Calibration Date
THERMOSELECT	IQUANT	1	Thermo Select
FRAMEWORKVERSION	QUANT	6.33	Framework Version
INSTRUMENTVERSION	LABEL	3.50	Instrument Version
COMPLIANCEVOLTAGE	IQUANT	0	Compliance Voltage
ZCURVE	TABLE
	Pt	Time	Freq	Zreal	Zimag	Zsig	Zmod	Zphz	Idc	Vdc	IERange
	#	s	Hz	ohm	ohm	V	ohm	°	A	V	#
	0	33	300046.9	1525.427	-811.9402	1	1728.055	-28.02507	-2.944462E-005	-0.0011864	9
	1	46	238359.4	1712.164	-769.6081	1	1877.179	-24.20365	-1.969923E-005	0.0011801	9
	2	62	189328.1	1867.224	-709.4785	1	1997.47	-20.805	-1.391627E-005	0.0016823	9
	3	69	150421.9	1991.947	-635.7681	1	2090.945	-17.70148	-2.05127E-005	0.0016406	9
	4	75	119484.4	2145.961	-492.1264	1	2201.667	-12.91612	-5.329012E-005	0.0070468	8
	5	81	94921.88	2228.2	-423.733	1	2268.133	-10.76727	-2.298392E-006	-0.0040551	8
	6	88	75421.88	2297.827	-364.554	1	2326.566	-9.014935	1.640324E-005	-0.0002807	8
	7	91	59859.37	2353.335	-305.3378	1	2373.061	-7.392647	2.352953E-005	-0.0049093	8
	8	95	47578.12	2417.686	-256.6502	1	2431.27	-6.059557	8.248104E-006	0.0032033	8
	9	102	37828.12	2471.921	-220.3892	1	2481.726	-5.094851	5.809611E-006	-0.0063984	8
	10	106	30046.88	2525.831	-178.3397	1	2532.119	-4.038744	-9.499388E-006	-0.001391	8
	11	111	23859.38	2591.39	-161.3769	1	2596.41	-3.56345	-1.196953E-005	0.0009697	9
	12	117	18984.38	2639.247	-146.329	1	2643.3	-3.173428	2.059644E-005	-6.281163E-005	9
	13	122	15046.87	2676.8	-114.6631	1	2679.254	-2.452816	2.14467E-005	-0.0029808	8
	14	127	11953.13	2736.107	-85.93217	1	2737.456	-1.798882	8.620931E-006	0.003263	8
	15	133	9515.62	2796.062	-85.09511	1	2797.356	-1.743197	-1.523502E-005	2.304137E-005	9
	16	138	7546.875	2839.276	-71.03397	1	2840.165	-1.433146	-9.441404E-006	-0.0016254	8
	17	143	5928.309	2900.529	-53.56212	1	2901.023	-1.057922	2.161375E-005	-0.002939	8
	18	149	4733.456	2946.656	-44.12168	1	2946.987	-0.8578527	-2.297757E-005	0.0004409	9
	19	154	3796.875	3011.673	-50.39966	1	3012.095	-0.958742	-1.932047E-005	0.0010425	9
	20	159	2987.132	3053.183	-32.61838	1	3053.357	-0.6120906	-9.766581E-006	0.0090207	8
	21	165	2390.625	3066.952	-44.65315	1	3067.277	-0.8341365	2.139648E-005	-0.0029616	8
	22	170	1884.191	3188.062	-26.43865	1	3188.172	-0.4751439	1.954264E-005	-0.0086541	8
	23	175	1516.544	3272.815	-41.36838	1	3273.077	-0.72418	2.812346E-005	-0.0004723	9
	24	181	1193.986	3304.307	-5.612944	1	3304.312	-0.0973268	1.95769E-005	-0.0086802	8
	25	186	946.5144	3355.58	-20.55418	1	3355.643	-0.3509537	6.497503E-006	-0.0067981	8
	26	190	751.7689	3344.035	-34.19863	1	3344.21	-0.5859294	1.401881E-005	-0.0082343	8
	27	194	597.4265	3415.698	-43.67484	1	3415.978	-0.7325727	-2.388699E-005	0.0089435	8
	28	198	477.4305	3474	-29.57898	1	3474.126	-0.4878266	-3.237874E-007	0.0006133	8
	29	201	376.6741	3504.383	-33.2909	1	3504.541	-0.5442815	-3.482457E-007	0.0006782	8
	30	203	298.2954	3532.755	-38.81906	1	3532.969	-0.6295592	-3.334969E-007	0.0006265	8
	31	206	237.7717	3563.472	-45.79197	1	3563.766	-0.736232	-3.235502E-007	0.0006065	8
	32	208	189.0121	3606.216	-52.87711	1	3606.604	-0.8400545	-6.208712E-008	0.000609	7
	33	210	150.2404	3638.813	-64.97765	1	3639.393	-1.023012	-6.831365E-008	0.000564	7
	34	213	119.1737	3670.363	-81.04325	1	3671.258	-1.264911	-5.346867E-008	0.0006413	7
	35	215	95.0169	3703.731	-98.6667	1	3705.045	-1.525988	-7.200126E-008	0.0005848	7
	36	218	75.60484	3738.527	-121.5516	1	3740.503	-1.862214	-8.646449E-008	0.0006317	7
	37	220	54.50582	3776.982	-164.5223	1	3780.564	-2.494182	-7.564431E-008	0.0006013	7
	38	223	45.95588	3812.048	-190.9713	1	3816.829	-2.867935	-1.789671E-007	0.0006473	7
	39	225	37.20238	3847.605	-234.8924	1	3854.768	-3.493514	-2.852245E-008	0.0005671	7
	40	228	30.04808	3886.742	-284.0366	1	3897.107	-4.179649	-1.39998E-007	0.0005892	7
	41	230	23.91582	3923.82	-356.0744	1	3939.943	-5.18521	6.448018E-008	0.0006009	7
	42	232	18.60119	3978.114	-454.2538	1	4003.965	-6.514289	2.110059E-007	0.0006393	7
	43	235	15.02404	4009.72	-542.6978	1	4046.28	-7.70789	-1.251199E-007	0.0006045	7
	44	237	12.01923	4056.537	-658.1607	1	4109.583	-9.215759	1.423094E-007	0.0005604	7
	45	239	9.450605	4108.432	-843.2997	1	4194.087	-11.59946	-1.524676E-007	0.0005828	7
	46	242	7.512019	4170.36	-1050.155	1	4300.55	-14.13402	-1.85393E-007	0.0006159	7
	47	245	5.978954	4247.265	-1292.42	1	4439.551	-16.92472	-1.096221E-007	0.0005811	7
	48	248	4.734848	4331.473	-1609.429	1	4620.814	-20.38336	-1.300604E-007	0.0005534	7
	49	251	3.75601	4430.735	-1989.396	1	4856.862	-24.18004	-3.982236E-008	0.0006387	7
	50	254	3.004808	4550.993	-2446.455	1	5166.883	-28.26093	-5.205206E-008	0.0005995	7
	51	258	2.372217	4701.757	-3032.938	1	5595.108	-32.82463	-8.136094E-008	0.0005258	7
	52	262	1.878005	4878.347	-3772.454	1	6166.821	-37.71499	-5.966817E-008	0.0006027	7
	53	267	1.512097	5081.153	-4595.073	1	6850.752	-42.1242	-7.432247E-008	0.0005657	7
	54	272	1.201923	5352.775	-5686.649	1	7809.622	-46.73232	-6.643251E-008	0.000624	7
	55	279	0.956633	5676.051	-7004.918	1	9015.899	-50.98232	-8.716647E-008	-4.213989E-005	7
