EXPLAIN
TAG	EISPOT
TITLE	LABEL	Potentiostatic EIS	Test Identifier
DATE	LABEL	9/12/2020	Date
TIME	LABEL	17:21:26	Time
NOTES	NOTES	1	Notes...
	
PSTAT	PSTAT	REF3000-16137	Potentiostat
VDC	POTEN	0.00000E+000	T	DC Voltage (V)
FREQINIT	QUANT	3.00000E+005	Initial Freq. (Hz)
FREQFINAL	QUANT	1.00000E+000	Final Freq. (Hz)
PTSPERDEC	QUANT	1.00000E+001	Points/decade
VAC	QUANT	5.00000E+001	AC Voltage (mV rms)
AREA	QUANT	1.00000E+000	Sample Area (cm^2)
SPEED	SELECTOR	2	Optimize for:
ZGUESS	QUANT	1.00000E+003	Estimated Z (ohms)
EOC	QUANT	0	Open Circuit (V)
SEQUENCER	TOGGLE	TRUE	Run as Sequence
PSTATMODEL	IQUANT	5	Pstat Model
PSTATSECTION	LABEL	REF3000-16137	Pstat Section
PSTATSERIALNO	LABEL	16137	Pstat Serial Number
CTRLMODE	IQUANT	1	Control Mode
IESTAB	IQUANT	0	I/E Stability
CASPEED	IQUANT	1	Control Amp Speed
CONVENTION	IQUANT	1	Current Convention
ICHRANGE	IQUANT	2	Ich Range
ICHRANGEMODE	TOGGLE	F	Ich Auto Range
ICHOFFSETENABLE	TOGGLE	T	Ich Offset Enable
ICHOFFSET	QUANT	0	Ich Offset (V)
ICHFILTER	IQUANT	3	Ich Filter
VCHRANGE	IQUANT	2	Vch Range
VCHRANGEMODE	TOGGLE	F	Vch Auto Range
VCHOFFSETENABLE	TOGGLE	T	Vch Offset Enable
VCHOFFSET	QUANT	0	Vch Offset (V)
VCHFILTER	IQUANT	3	Vch Filter
ACHRANGE	IQUANT	2	Ach Range
ACHOFFSETENABLE	TOGGLE	F	Ach Offset Enable
ACHOFFSET	QUANT	0	Ach Offset (V)
ACHFILTER	IQUANT	3	Ach Filter
IERANGELOWERLIMIT	IQUANT	2	I/E Range Lower Limit
IERANGEMODE	TOGGLE	F	I/E AutoRange
IERANGE	IQUANT	11	I/E Range
POSFEEDENABLE	TOGGLE	F	Positive Feedback IR Comp
POSFEEDRESISTANCE	QUANT	0	Positive Feedback Resistance (ohm)
ACHSELECT	IQUANT	0	Ach Select
CABLEID	IQUANT	13	Cable ID
DCCALDATE	LABEL	7/31/2020	DC Calibration Date
ACCALDATE	LABEL	7/31/2020	AC Calibration Date
THERMOSELECT	IQUANT	1	Thermo Select
FRAMEWORKVERSION	QUANT	6.33	Framework Version
INSTRUMENTVERSION	LABEL	3.50	Instrument Version
COMPLIANCEVOLTAGE	IQUANT	0	Compliance Voltage
ZCURVE	TABLE
	Pt	Time	Freq	Zreal	Zimag	Zsig	Zmod	Zphz	Idc	Vdc	IERange
	#	s	Hz	ohm	ohm	V	ohm	°	A	V	#
	0	7	300046.9	9.219565	2.189421	1	9.475966	13.35889	1.620852E-005	3.678721E-005	10
	1	11	238359.4	9.196343	1.748673	1	9.361121	10.76619	-2.788543E-005	0.0001021	10
	2	14	189328.1	9.1997	1.379202	1	9.302509	8.526178	-1.43792E-005	0.0003663	10
	3	16	150421.9	9.203436	1.090603	1	9.267829	6.758012	6.118236E-005	0.0004197	10
	4	19	119484.4	9.211662	0.8376062	1	9.249665	5.195554	7.348328E-006	0.0005123	10
	5	21	94921.88	9.227186	0.6629915	1	9.250974	4.109752	4.874827E-006	0.0005304	10
	6	24	75421.88	9.23913	0.4856434	1	9.251884	3.008913	1.26457E-005	0.0005613	10
	7	26	59859.37	9.259071	0.334269	1	9.265103	2.067582	-9.317733E-006	0.0006115	10
	8	29	47578.12	9.280231	0.2064165	1	9.282526	1.274197	6.179357E-006	0.0005755	10
	9	32	37828.12	9.302599	0.0927735	1	9.303061	0.5713835	-5.948166E-006	0.0005883	10
	10	34	30046.88	9.326881	-0.0136517	1	9.326891	-0.0838637	-2.221244E-005	0.0006773	10
	11	37	23859.38	9.349319	-0.1199465	1	9.350089	-0.7350322	2.230344E-005	0.0006147	10
	12	39	18984.38	9.372153	-0.2292669	1	9.374957	-1.401322	2.181207E-005	0.0006219	10
	13	41	15046.87	9.398705	-0.3497776	1	9.40521	-2.131308	-9.693948E-006	0.0006479	10
	14	44	11953.13	9.427151	-0.485995	1	9.43967	-2.951139	2.409862E-005	0.0006405	10
	15	46	9515.62	9.457435	-0.6432012	1	9.479281	-3.890701	-3.375372E-005	0.0006652	10
	16	48	7546.875	9.491734	-0.8321354	1	9.52814	-5.010282	-2.15891E-005	0.0006856	10
	17	50	5928.309	9.53135	-1.071615	1	9.5914	-6.414859	-2.580594E-005	0.0007241	10
	18	53	4733.456	9.57463	-1.343955	1	9.66849	-7.990193	-1.770347E-005	0.0006509	10
	19	55	3796.875	9.62439	-1.670512	1	9.76829	-9.84677	-2.934943E-005	0.0006488	10
	20	57	2987.132	9.68581	-2.106096	1	9.91214	-12.26751	-1.177428E-005	0.0006355	10
	21	60	2390.625	9.75683	-2.606017	1	10.09886	-14.95442	-2.342254E-005	0.0006863	10
	22	62	1884.191	9.84577	-3.268494	1	10.37412	-18.36458	-4.254594E-006	0.0006143	10
	23	64	1516.544	9.94835	-4.012488	1	10.72706	-21.96579	-2.534042E-005	0.000717	10
	24	67	1193.986	10.08641	-5.025095	1	11.26886	-26.48269	1.544366E-005	0.0006489	10
	25	69	946.5144	10.25668	-6.247691	1	12.00971	-31.347	-2.699887E-005	0.000703	10
	26	71	751.7689	10.46726	-7.737071	1	13.01637	-36.47065	-2.123349E-005	0.0006914	10
	27	74	597.4265	10.72863	-9.57144	1	14.37762	-41.73743	2.193932E-005	0.0006386	10
	28	76	477.4305	11.05196	-11.77333	1	16.14798	-46.81018	-2.951339E-006	0.0006572	10
	29	78	376.6741	11.47799	-14.6441	1	18.60629	-51.91077	-2.502613E-006	0.0006508	10
	30	81	298.2954	12.00371	-18.14531	1	21.75641	-56.51409	-2.441922E-006	0.0006626	10
	31	83	237.7717	12.64732	-22.33899	1	25.6707	-60.48344	-2.315633E-006	0.0006619	10
	32	86	189.0121	13.46834	-27.56959	1	30.68352	-63.9635	-2.122613E-006	0.0006585	10
	33	88	150.2404	14.50735	-34.01558	1	36.98003	-66.90217	-2.752218E-006	0.0006531	10
	34	90	119.1737	15.83364	-41.99589	1	44.88161	-69.34214	1.122044E-006	5.300366E-005	9
	35	93	95.0169	17.5379	-51.64153	1	54.5383	-71.24207	9.877435E-007	5.570056E-005	9
	36	95	75.60484	19.78278	-63.58667	1	66.59296	-72.71828	4.817543E-007	0.0001088	9
	37	98	54.50582	24.28151	-85.48254	1	88.86426	-74.14268	8.653229E-007	5.913628E-005	9
	38	100	45.95588	27.45359	-99.648	1	103.3607	-74.59682	1.036245E-006	6.105645E-005	9
	39	103	37.20238	32.38205	-120.2434	1	124.5274	-74.92759	9.501763E-007	5.703692E-005	9
	40	105	30.04808	38.82334	-145.1334	1	150.2363	-75.02396	1.000402E-006	5.075425E-005	9
	41	107	23.91582	47.65623	-176.8119	1	183.1217	-74.91549	9.194576E-007	5.404071E-005	9
	42	110	18.60119	60.4384	-219.0269	1	227.2127	-74.57366	7.950148E-007	0.0001026	9
	43	112	15.02404	74.20018	-261.7572	1	272.0708	-74.17358	1.142252E-006	6.522027E-005	9
	44	114	12.01923	91.86713	-314.3587	1	327.5072	-73.7097	1.096589E-006	5.766825E-005	9
	45	117	9.450605	115.0421	-381.2485	1	398.2275	-73.20876	1.039347E-006	5.15196E-005	9
	46	119	7.512019	140.6111	-455.4058	1	476.6192	-72.84141	2.259221E-007	0.0006649	8
	47	122	5.978954	170.8488	-544.3878	1	570.5676	-72.57623	3.441669E-007	0.0006356	8
	48	125	4.734848	206.0806	-653.9324	1	685.636	-72.50825	2.809845E-007	0.0006471	8
	49	128	3.75601	244.9781	-784.8627	1	822.2066	-72.66537	3.274818E-007	0.0006326	8
	50	132	3.004808	286.9482	-938.2819	1	981.179	-72.99516	2.921548E-007	0.0006726	8
	51	135	2.372217	336.6709	-1137.816	1	1186.581	-73.51693	2.837312E-007	0.0006853	8
	52	140	1.878005	396.5415	-1383.375	1	1439.087	-74.00516	3.068436E-007	0.0006067	8
	53	144	1.512097	462.768	-1664.959	1	1728.075	-74.46696	3.163509E-007	0.0007329	8
	54	150	1.201923	549.3994	-2033.957	1	2106.851	-74.88436	3.186138E-007	0.0006135	8
	55	156	0.956633	661.7971	-2487.806	1	2574.326	-75.10338	2.621251E-007	-2.207459E-006	8
