EXPLAIN
TAG	EISPOT
TITLE	LABEL	Potentiostatic EIS	Test Identifier
DATE	LABEL	9/12/2020	Date
TIME	LABEL	17:10:19	Time
NOTES	NOTES	1	Notes...
	
PSTAT	PSTAT	REF3000-16137	Potentiostat
VDC	POTEN	0.00000E+000	T	DC Voltage (V)
FREQINIT	QUANT	3.00000E+005	Initial Freq. (Hz)
FREQFINAL	QUANT	1.00000E+000	Final Freq. (Hz)
PTSPERDEC	QUANT	1.00000E+001	Points/decade
VAC	QUANT	5.00000E+001	AC Voltage (mV rms)
AREA	QUANT	1.00000E+000	Sample Area (cm^2)
SPEED	SELECTOR	2	Optimize for:
ZGUESS	QUANT	1.00000E+003	Estimated Z (ohms)
EOC	QUANT	0	Open Circuit (V)
SEQUENCER	TOGGLE	TRUE	Run as Sequence
PSTATMODEL	IQUANT	5	Pstat Model
PSTATSECTION	LABEL	REF3000-16137	Pstat Section
PSTATSERIALNO	LABEL	16137	Pstat Serial Number
CTRLMODE	IQUANT	1	Control Mode
IESTAB	IQUANT	0	I/E Stability
CASPEED	IQUANT	1	Control Amp Speed
CONVENTION	IQUANT	1	Current Convention
ICHRANGE	IQUANT	2	Ich Range
ICHRANGEMODE	TOGGLE	F	Ich Auto Range
ICHOFFSETENABLE	TOGGLE	T	Ich Offset Enable
ICHOFFSET	QUANT	0	Ich Offset (V)
ICHFILTER	IQUANT	3	Ich Filter
VCHRANGE	IQUANT	2	Vch Range
VCHRANGEMODE	TOGGLE	F	Vch Auto Range
VCHOFFSETENABLE	TOGGLE	T	Vch Offset Enable
VCHOFFSET	QUANT	0	Vch Offset (V)
VCHFILTER	IQUANT	3	Vch Filter
ACHRANGE	IQUANT	2	Ach Range
ACHOFFSETENABLE	TOGGLE	F	Ach Offset Enable
ACHOFFSET	QUANT	0	Ach Offset (V)
ACHFILTER	IQUANT	3	Ach Filter
IERANGELOWERLIMIT	IQUANT	2	I/E Range Lower Limit
IERANGEMODE	TOGGLE	F	I/E AutoRange
IERANGE	IQUANT	11	I/E Range
POSFEEDENABLE	TOGGLE	F	Positive Feedback IR Comp
POSFEEDRESISTANCE	QUANT	0	Positive Feedback Resistance (ohm)
ACHSELECT	IQUANT	0	Ach Select
CABLEID	IQUANT	13	Cable ID
DCCALDATE	LABEL	7/31/2020	DC Calibration Date
ACCALDATE	LABEL	7/31/2020	AC Calibration Date
THERMOSELECT	IQUANT	1	Thermo Select
FRAMEWORKVERSION	QUANT	6.33	Framework Version
INSTRUMENTVERSION	LABEL	3.50	Instrument Version
COMPLIANCEVOLTAGE	IQUANT	0	Compliance Voltage
ZCURVE	TABLE
	Pt	Time	Freq	Zreal	Zimag	Zsig	Zmod	Zphz	Idc	Vdc	IERange
	#	s	Hz	ohm	ohm	V	ohm	°	A	V	#
	0	10	300046.9	5.939279	2.254199	1	6.352672	20.7838	-1.298044E-005	0.0000984	10
	1	13	238359.4	5.906393	1.783927	1	6.169916	16.80606	-1.559578E-005	-7.964294E-005	10
	2	16	189328.1	5.899767	1.408143	1	6.065485	13.42408	-8.925539E-005	0.0001768	10
	3	19	150421.9	5.900806	1.107461	1	6.00383	10.6296	-3.299299E-005	0.0004259	10
	4	22	119484.4	5.891804	0.8584154	1	5.95401	8.28947	7.028101E-005	0.0002328	10
	5	24	94921.88	5.89735	0.6777127	1	5.936163	6.55557	2.366361E-005	0.0004872	10
	6	27	75421.88	5.901706	0.503902	1	5.923179	4.880217	-8.506066E-006	0.0005413	10
	7	29	59859.37	5.90684	0.3544589	1	5.917466	3.434099	-1.818458E-005	0.0005791	10
	8	32	47578.12	5.917859	0.2265381	1	5.922194	2.192236	-2.081131E-005	0.0006479	10
	9	34	37828.12	5.928721	0.1118108	1	5.929776	1.080423	5.758793E-006	0.0005772	10
	10	37	30046.88	5.942242	0.006245	1	5.942245	0.0602151	-2.101206E-005	0.0007051	10
	11	39	23859.38	5.955088	-0.0976359	1	5.955888	-0.9393016	1.033266E-005	0.0005971	10
	12	42	18984.38	5.969868	-0.2035787	1	5.973338	-1.953089	1.840339E-006	0.0005966	10
	13	44	15046.87	5.986248	-0.319562	1	5.994771	-3.055703	-1.197658E-006	0.0006717	10
	14	46	11953.13	6.002935	-0.4490661	1	6.019708	-4.278201	1.64423E-005	0.0006166	10
	15	49	9515.62	6.024683	-0.5979083	1	6.054279	-5.667653	-2.01258E-005	0.0006816	10
	16	51	7546.875	6.048939	-0.7776037	1	6.098716	-7.325316	-2.165853E-005	0.0007027	10
	17	53	5928.309	6.077682	-1.003741	1	6.16001	-9.377859	-5.220799E-006	0.0006553	10
	18	55	4733.456	6.111269	-1.26114	1	6.240038	-11.66006	-2.648079E-005	0.0006776	10
	19	58	3796.875	6.150422	-1.566641	1	6.346815	-14.29053	2.130357E-005	0.0006218	10
	20	60	2987.132	6.202806	-1.977707	1	6.510463	-17.6844	1.80117E-005	0.0006328	10
	21	62	2390.625	6.263513	-2.446479	1	6.724348	-21.33522	1.527754E-005	0.0006178	10
	22	65	1884.191	6.345869	-3.067293	1	7.048286	-25.79693	-2.784085E-005	0.0006726	10
	23	67	1516.544	6.438605	-3.759863	1	7.456018	-30.28305	1.97631E-005	0.0006214	10
	24	69	1193.986	6.567904	-4.703311	1	8.078274	-35.60666	1.415395E-005	0.0006438	10
	25	72	946.5144	6.729641	-5.832637	1	8.905489	-40.91575	-2.139768E-005	0.0006842	10
	26	74	751.7689	6.924154	-7.221866	1	10.00496	-46.20565	-2.779452E-005	0.0006675	10
	27	76	597.4265	7.175616	-8.923301	1	11.45054	-51.19572	3.424412E-006	0.000608	10
	28	79	477.4305	7.478243	-10.97077	1	13.27712	-55.71963	-2.70741E-006	0.0006574	10
	29	81	376.6741	7.884675	-13.63744	1	15.75271	-59.96505	-2.604141E-006	0.000653	10
	30	83	298.2954	8.393324	-16.89036	1	18.86086	-63.57584	-3.250813E-006	0.0006609	10
	31	86	237.7717	9.026135	-20.79024	1	22.66506	-66.5318	-2.018216E-006	0.0006559	10
	32	88	189.0121	9.85051	-25.6462	1	27.4729	-68.98859	-2.935697E-006	0.0006558	10
	33	91	150.2404	10.92789	-31.62965	1	33.46421	-70.94022	-2.665694E-006	0.0006544	10
	34	93	119.1737	12.35882	-39.04761	1	40.95676	-72.43709	-3.106427E-006	0.0006558	10
	35	95	95.0169	14.18772	-47.86459	1	49.92304	-73.48946	5.988344E-007	5.645345E-005	9
	36	98	75.60484	16.64766	-58.75213	1	61.06519	-74.1797	5.253503E-007	5.428285E-005	9
	37	100	54.50582	21.5873	-78.46668	1	81.38201	-74.61767	4.140877E-007	4.969286E-005	9
	38	103	45.95588	25.03323	-91.06357	1	94.4417	-74.62916	5.383163E-007	5.978283E-005	9
	39	105	37.20238	30.33274	-109.1773	1	113.3127	-74.47311	5.862437E-007	5.96538E-005	9
	40	108	30.04808	37.07127	-130.7667	1	135.9199	-74.17242	4.708883E-007	5.487554E-005	9
	41	110	23.91582	46.07146	-157.9732	1	164.5543	-73.74115	5.668306E-007	5.510337E-005	9
	42	112	18.60119	58.31529	-193.6173	1	202.2086	-73.2383	8.340729E-007	5.100201E-005	9
	43	115	15.02404	70.97467	-229.559	1	240.2806	-72.81953	7.599903E-007	6.395702E-005	9
	44	117	12.01923	86.34241	-273.5337	1	286.8374	-72.48141	4.698822E-007	5.446519E-005	9
	45	119	9.450605	105.3795	-330.0958	1	346.5084	-72.29488	5.718072E-007	5.715412E-005	9
	46	122	7.512019	125.9682	-395.0406	1	414.6385	-72.31387	6.576382E-007	4.441355E-005	9
	47	125	5.978954	148.4161	-471.4631	1	494.272	-72.52605	-1.234414E-007	0.0006367	8
	48	128	4.734848	175.4118	-569.2676	1	595.6802	-72.87405	-4.745463E-008	0.000634	8
	49	131	3.75601	206.1965	-689.0978	1	719.2863	-73.34141	-1.173138E-007	0.0006409	8
	50	134	3.004808	242.0637	-831.131	1	865.6636	-73.762	-5.685443E-008	0.0006053	8
	51	138	2.372217	290.7672	-1018.593	1	1059.281	-74.06809	-1.008421E-007	0.0005632	8
	52	142	1.878005	353.1266	-1247.991	1	1296.989	-74.20081	-1.027157E-007	0.0007035	8
	53	147	1.512097	432.2537	-1505.784	1	1566.598	-73.98322	-1.130205E-007	0.0005739	8
	54	152	1.201923	546.5367	-1846.744	1	1925.92	-73.51408	-6.424604E-008	0.000657	8
	55	159	0.956633	706.0938	-2252.124	1	2360.219	-72.59257	-1.629556E-007	4.122457E-005	8
