May 10, 2026   15:57:28
A.C. Impedance
File: e:\chi_data\Data Source:  Experiment
Instrument Model:  CHI660E
Header: 
Note: 

Init E (V) = 0
High Frequency (Hz) = 1e+6
Low Frequency (Hz) = 0.1
Imp SF
Amplitude (V) = 0.005
Quiet Time (sec) = 2
Cycles (.1-1Hz) = 1

Freq/Hz, Z'/ohm, Z"/ohm, Z/ohm, Phase/deg

8.252e+5, 3.548e+0, 1.177e+1, 1.229e+1, 73.2
6.816e+5, 3.084e+0, 9.591e+0, 1.008e+1, 72.2
5.625e+5, 2.588e+0, 7.911e+0, 8.324e+0, 71.9
4.639e+5, 2.367e+0, 6.426e+0, 6.848e+0, 69.8
3.828e+5, 2.198e+0, 5.281e+0, 5.720e+0, 67.4
3.164e+5, 2.117e+0, 4.291e+0, 4.784e+0, 63.7
2.607e+5, 2.043e+0, 3.473e+0, 4.029e+0, 59.5
2.158e+5, 1.994e+0, 2.756e+0, 3.402e+0, 54.1
1.777e+5, 1.961e+0, 2.133e+0, 2.897e+0, 47.4
1.465e+5, 1.947e+0, 1.582e+0, 2.509e+0, 39.1
1.211e+5, 1.930e+0, 9.684e-1, 2.160e+0, 26.6
9.961e+4, 1.924e+0, 3.451e-1, 1.955e+0, 10.2
8.252e+4, 1.937e+0, -1.250e-1, 1.941e+0, -3.7
6.812e+4, 1.968e+0, -4.859e-1, 2.027e+0, -13.9
5.625e+4, 2.013e+0, -7.830e-1, 2.160e+0, -21.3
4.644e+4, 2.067e+0, -1.086e+0, 2.335e+0, -27.7
3.833e+4, 2.145e+0, -1.382e+0, 2.552e+0, -32.8
3.164e+4, 2.245e+0, -1.704e+0, 2.819e+0, -37.2
2.612e+4, 2.355e+0, -2.109e+0, 3.161e+0, -41.8
2.153e+4, 2.471e+0, -2.601e+0, 3.588e+0, -46.5
1.777e+4, 2.594e+0, -3.177e+0, 4.101e+0, -50.8
1.470e+4, 2.736e+0, -3.837e+0, 4.713e+0, -54.5
1.211e+4, 2.908e+0, -4.598e+0, 5.440e+0, -57.7
1.001e+4, 3.113e+0, -5.479e+0, 6.301e+0, -60.4
8.252e+3, 3.354e+0, -6.509e+0, 7.323e+0, -62.7
6.812e+3, 3.643e+0, -7.719e+0, 8.535e+0, -64.7
5.625e+3, 3.991e+0, -9.137e+0, 9.970e+0, -66.4
4.643e+3, 4.407e+0, -1.080e+1, 1.166e+1, -67.8
3.833e+3, 4.908e+0, -1.275e+1, 1.366e+1, -68.9
3.164e+3, 5.521e+0, -1.503e+1, 1.601e+1, -69.8
2.612e+3, 6.264e+0, -1.770e+1, 1.878e+1, -70.5
2.153e+3, 7.162e+0, -2.082e+1, 2.202e+1, -71.0
1.777e+3, 8.270e+0, -2.446e+1, 2.582e+1, -71.3
1.470e+3, 9.629e+0, -2.872e+1, 3.029e+1, -71.5
1.211e+3, 1.127e+1, -3.368e+1, 3.551e+1, -71.5
1.001e+3, 1.327e+1, -3.942e+1, 4.160e+1, -71.4
8.252e+2, 1.566e+1, -4.603e+1, 4.862e+1, -71.2
6.836e+2, 1.851e+1, -5.370e+1, 5.680e+1, -71.0
5.615e+2, 2.189e+1, -6.259e+1, 6.631e+1, -70.7
4.639e+2, 2.590e+1, -7.292e+1, 7.739e+1, -70.4
3.809e+2, 3.056e+1, -8.471e+1, 9.006e+1, -70.2
3.174e+2, 3.604e+1, -9.834e+1, 1.047e+2, -69.9
2.588e+2, 4.245e+1, -1.141e+2, 1.217e+2, -69.6
2.148e+2, 4.992e+1, -1.322e+2, 1.413e+2, -69.3
1.758e+2, 5.845e+1, -1.529e+2, 1.637e+2, -69.1
1.465e+2, 6.800e+1, -1.758e+2, 1.885e+2, -68.9
1.221e+2, 7.984e+1, -2.037e+2, 2.188e+2, -68.6
9.766e+1, 9.422e+1, -2.357e+2, 2.538e+2, -68.2
8.254e+1, 1.104e+2, -2.713e+2, 2.929e+2, -67.9
6.813e+1, 1.286e+2, -3.130e+2, 3.383e+2, -67.7
5.623e+1, 1.489e+2, -3.611e+2, 3.907e+2, -67.6
4.642e+1, 1.725e+2, -4.171e+2, 4.513e+2, -67.5
3.831e+1, 1.996e+2, -4.817e+2, 5.214e+2, -67.5
3.162e+1, 2.307e+2, -5.562e+2, 6.021e+2, -67.5
2.610e+1, 2.665e+2, -6.420e+2, 6.951e+2, -67.5
2.154e+1, 3.074e+2, -7.411e+2, 8.023e+2, -67.5
1.778e+1, 3.541e+2, -8.559e+2, 9.262e+2, -67.5
1.468e+1, 4.071e+2, -9.883e+2, 1.069e+3, -67.6
1.212e+1, 4.674e+2, -1.141e+3, 1.233e+3, -67.7
1.000e+1, 5.371e+2, -1.321e+3, 1.426e+3, -67.9
8.254e+0, 6.170e+2, -1.531e+3, 1.651e+3, -68.1
6.813e+0, 7.078e+2, -1.778e+3, 1.914e+3, -68.3
5.623e+0, 8.126e+2, -2.065e+3, 2.219e+3, -68.5
4.642e+0, 9.331e+2, -2.401e+3, 2.576e+3, -68.8
3.831e+0, 1.072e+3, -2.790e+3, 2.989e+3, -69.0
3.162e+0, 1.231e+3, -3.249e+3, 3.474e+3, -69.2
2.610e+0, 1.414e+3, -3.783e+3, 4.038e+3, -69.5
2.154e+0, 1.609e+3, -4.436e+3, 4.718e+3, -70.1
1.778e+0, 1.821e+3, -5.212e+3, 5.522e+3, -70.7
1.468e+0, 2.070e+3, -6.085e+3, 6.427e+3, -71.2
1.212e+0, 2.359e+3, -7.070e+3, 7.453e+3, -71.5
1.000e+0, 2.690e+3, -8.189e+3, 8.620e+3, -71.8
8.254e-1, 3.062e+3, -9.464e+3, 9.947e+3, -72.1
6.813e-1, 3.471e+3, -1.095e+4, 1.149e+4, -72.4
5.623e-1, 3.932e+3, -1.271e+4, 1.331e+4, -72.8
4.642e-1, 4.465e+3, -1.480e+4, 1.546e+4, -73.2
3.831e-1, 5.096e+3, -1.730e+4, 1.804e+4, -73.6
3.162e-1, 5.856e+3, -2.029e+4, 2.112e+4, -73.9
2.610e-1, 6.806e+3, -2.378e+4, 2.474e+4, -74.0
2.154e-1, 8.006e+3, -2.785e+4, 2.898e+4, -74.0
1.778e-1, 9.491e+3, -3.265e+4, 3.401e+4, -73.8
1.468e-1, 1.133e+4, -3.826e+4, 3.990e+4, -73.5
1.212e-1, 1.367e+4, -4.482e+4, 4.686e+4, -73.0
1.000e-1, 1.657e+4, -5.241e+4, 5.496e+4, -72.5
