EXPLAIN
TAG	EISPOT
TITLE	LABEL	Potentiostatic EIS	Test Identifier
DATE	LABEL	8/24/2020	Date
TIME	LABEL	18:27:36	Time
NOTES	NOTES	1	Notes...
	
PSTAT	PSTAT	REF3000-16137	Potentiostat
VDC	POTEN	0.00000E+000	T	DC Voltage (V)
FREQINIT	QUANT	3.00000E+005	Initial Freq. (Hz)
FREQFINAL	QUANT	1.00000E+000	Final Freq. (Hz)
PTSPERDEC	QUANT	1.00000E+001	Points/decade
VAC	QUANT	5.00000E+001	AC Voltage (mV rms)
AREA	QUANT	1.00000E+000	Sample Area (cm^2)
SPEED	SELECTOR	2	Optimize for:
ZGUESS	QUANT	1.00000E+003	Estimated Z (ohms)
EOC	QUANT	0	Open Circuit (V)
SEQUENCER	TOGGLE	TRUE	Run as Sequence
PSTATMODEL	IQUANT	5	Pstat Model
PSTATSECTION	LABEL	REF3000-16137	Pstat Section
PSTATSERIALNO	LABEL	16137	Pstat Serial Number
CTRLMODE	IQUANT	1	Control Mode
IESTAB	IQUANT	0	I/E Stability
CASPEED	IQUANT	1	Control Amp Speed
CONVENTION	IQUANT	1	Current Convention
ICHRANGE	IQUANT	2	Ich Range
ICHRANGEMODE	TOGGLE	F	Ich Auto Range
ICHOFFSETENABLE	TOGGLE	T	Ich Offset Enable
ICHOFFSET	QUANT	0	Ich Offset (V)
ICHFILTER	IQUANT	3	Ich Filter
VCHRANGE	IQUANT	2	Vch Range
VCHRANGEMODE	TOGGLE	F	Vch Auto Range
VCHOFFSETENABLE	TOGGLE	T	Vch Offset Enable
VCHOFFSET	QUANT	0	Vch Offset (V)
VCHFILTER	IQUANT	3	Vch Filter
ACHRANGE	IQUANT	2	Ach Range
ACHOFFSETENABLE	TOGGLE	F	Ach Offset Enable
ACHOFFSET	QUANT	0	Ach Offset (V)
ACHFILTER	IQUANT	3	Ach Filter
IERANGELOWERLIMIT	IQUANT	2	I/E Range Lower Limit
IERANGEMODE	TOGGLE	F	I/E AutoRange
IERANGE	IQUANT	11	I/E Range
POSFEEDENABLE	TOGGLE	F	Positive Feedback IR Comp
POSFEEDRESISTANCE	QUANT	0	Positive Feedback Resistance (ohm)
ACHSELECT	IQUANT	0	Ach Select
CABLEID	IQUANT	13	Cable ID
DCCALDATE	LABEL	7/31/2020	DC Calibration Date
ACCALDATE	LABEL	7/31/2020	AC Calibration Date
THERMOSELECT	IQUANT	1	Thermo Select
FRAMEWORKVERSION	QUANT	6.33	Framework Version
INSTRUMENTVERSION	LABEL	3.50	Instrument Version
COMPLIANCEVOLTAGE	IQUANT	0	Compliance Voltage
ZCURVE	TABLE
	Pt	Time	Freq	Zreal	Zimag	Zsig	Zmod	Zphz	Idc	Vdc	IERange
	#	s	Hz	ohm	ohm	V	ohm	°	A	V	#
	0	7	300046.9	88.03987	-4.901842	1	88.17622	-3.186797	6.243504E-005	-0.00198	9
	1	10	238359.4	88.82315	-6.182054	1	89.03802	-3.981342	2.41522E-006	-0.0015657	9
	2	13	189328.1	89.33751	-7.581244	1	89.65861	-4.850539	1.915651E-005	-0.0016666	9
	3	16	150421.9	90.55141	-9.050448	1	91.00257	-5.707654	-8.928483E-007	0.0010273	9
	4	18	119484.4	91.56756	-10.62711	1	92.18217	-6.619995	-3.296065E-005	-0.0001461	9
	5	21	94921.88	92.7844	-12.19474	1	93.58235	-7.487521	5.372101E-006	-0.0004982	9
	6	24	75421.88	94.12618	-14.26116	1	95.2004	-8.615418	-1.662228E-005	0.0007524	9
	7	26	59859.37	95.5621	-16.51394	1	96.9785	-9.80436	-2.026757E-005	0.0008634	9
	8	29	47578.12	97.1891	-19.07765	1	99.0438	-11.10562	4.019436E-006	0.0004511	9
	9	31	37828.12	98.9606	-21.99555	1	101.3756	-12.53118	1.18456E-005	0.0000952	9
	10	34	30046.88	100.716	-25.28792	1	103.8421	-14.09455	-1.15091E-005	0.0008277	9
	11	36	23859.38	102.5031	-29.23419	1	106.5905	-15.91831	-1.128041E-005	0.000828	9
	12	39	18984.38	104.2175	-34.1347	1	109.6653	-18.13534	1.437735E-005	-3.517338E-005	9
	13	41	15046.87	105.7514	-40.22298	1	113.1426	-20.82452	-1.496206E-005	0.0001923	9
	14	43	11953.13	107.2998	-47.97521	1	117.5367	-24.09006	4.178254E-006	0.0004626	9
	15	46	9515.62	108.7028	-57.68104	1	123.0585	-27.95179	2.372831E-005	-0.0005798	9
	16	48	7546.875	110.1916	-70.29685	1	130.7052	-32.53587	-1.009606E-005	5.420077E-006	9
	17	50	5928.309	112.0129	-86.92831	1	141.7865	-37.81349	1.256406E-005	0.0001332	9
	18	52	4733.456	113.8003	-106.5795	1	155.9157	-43.12337	4.897728E-006	-0.0004665	9
	19	55	3796.875	116.1884	-130.552	1	174.7672	-48.3316	3.409098E-006	0.0004739	9
	20	57	2987.132	119.5565	-163.0536	1	202.1886	-53.74983	-3.250674E-006	-0.0002261	9
	21	59	2390.625	122.964	-200.9246	1	235.565	-58.53375	2.440411E-005	-0.0005821	9
	22	62	1884.191	127.6801	-250.9015	1	281.5204	-63.02913	-1.703658E-005	0.0008385	9
	23	64	1516.544	134.4543	-308.287	1	336.3314	-66.43637	1.91442E-005	-0.0001318	9
	24	66	1193.986	144.4126	-384.7816	1	410.989	-69.42835	-1.704487E-005	0.0004109	9
	25	69	946.5144	154.9703	-476.3227	1	500.8983	-71.97784	-1.00719E-006	0.0022217	8
	26	71	751.7689	170.5989	-591.0797	1	615.2066	-73.90067	-1.015195E-006	-8.135294E-005	8
	27	74	597.4265	192.1936	-732.9257	1	757.7061	-75.30628	-2.953042E-006	0.0006295	8
	28	76	477.4305	217.6201	-901.5141	1	927.4083	-76.42877	2.100497E-007	0.0006378	8
	29	78	376.6741	254.2625	-1121.966	1	1150.416	-77.23117	2.151112E-007	0.0006419	8
	30	81	298.2954	302.2331	-1390.067	1	1422.543	-77.73347	2.01961E-007	0.0006559	8
	31	83	237.7717	364.0891	-1709.859	1	1748.193	-77.97925	1.649362E-007	0.0006972	8
	32	85	189.0121	447.1982	-2106.182	1	2153.135	-78.01261	2.226291E-007	0.0006468	8
	33	88	150.2404	558.2637	-2590.757	1	2650.222	-77.83968	2.048179E-007	0.0006514	8
	34	90	119.1737	709.8866	-3189.335	1	3267.384	-77.45158	2.245708E-007	0.0006466	8
	35	93	95.0169	909.4981	-3897.501	1	4002.212	-76.86485	2.073357E-007	0.0007049	8
	36	95	75.60484	1185.469	-4771.034	1	4916.106	-76.04618	-6.166312E-009	0.0006162	7
	37	98	54.50582	1755.492	-6316.246	1	6555.663	-74.46764	-7.273959E-009	0.0006124	7
	38	100	45.95588	2162.833	-7283.101	1	7597.46	-73.46037	4.977726E-009	0.0006203	7
	39	103	37.20238	2816.695	-8655.411	1	9102.192	-71.97377	2.923778E-009	0.000614	7
	40	105	30.04808	3683.991	-10239.41	1	10881.97	-70.21201	-4.58025E-009	0.0006194	7
	41	107	23.91582	4890.021	-12136.82	1	13084.9	-68.05511	-1.207136E-010	0.0006187	7
	42	110	18.60119	6677.008	-14488.59	1	15953.11	-65.25758	-9.572826E-011	0.0006719	7
	43	112	15.02404	8605.584	-16631.61	1	18726.09	-62.6419	5.145354E-009	0.0006771	7
	44	114	12.01923	11113.38	-18910.27	1	21934.12	-59.55766	-1.690835E-009	0.0006247	7
	45	117	9.450605	14396.07	-21312.99	1	25719.46	-55.96254	-4.109559E-009	0.0006111	7
	46	119	7.512019	18104.4	-23400.6	1	29586.44	-52.27187	-2.194704E-009	0.0006124	7
	47	122	5.978954	22265.43	-25002.39	1	33479.38	-48.3139	-5.459406E-009	0.0006289	7
	48	125	4.734848	26829.99	-26081.98	1	37418.15	-44.19008	-7.164676E-009	0.0006003	7
	49	128	3.75601	31478.29	-26464.3	1	41124.71	-40.05431	-1.927236E-008	0.0006841	6
	50	132	3.004808	35778.97	-25918.92	1	44180.6	-35.92024	-2.50997E-008	0.0006986	6
	51	138	2.372217	40102.29	-25134.15	1	47327.78	-32.07747	-2.946449E-008	0.0005887	6
	52	142	1.878005	43411.16	-22982.72	1	49119.59	-27.89762	-2.88022E-008	0.000664	6
	53	151	1.512097	45906.7	-21228.78	1	50577.53	-24.81739	-3.266562E-008	0.0006638	6
	54	162	1.201923	48259.7	-19376.86	1	52004.44	-21.87606	-3.633964E-008	0.0006899	6
	55	175	0.956633	50401.04	-17654.97	1	53403.77	-19.30484	-5.885569E-008	2.730095E-005	6
