EXPLAIN
TAG	EISPOT
TITLE	LABEL	Potentiostatic EIS	Test Identifier
DATE	LABEL	8/24/2020	Date
TIME	LABEL	16:47:08	Time
NOTES	NOTES	1	Notes...
	
PSTAT	PSTAT	REF3000-16137	Potentiostat
VDC	POTEN	0.00000E+000	T	DC Voltage (V)
FREQINIT	QUANT	3.00000E+005	Initial Freq. (Hz)
FREQFINAL	QUANT	1.00000E+000	Final Freq. (Hz)
PTSPERDEC	QUANT	1.00000E+001	Points/decade
VAC	QUANT	5.00000E+001	AC Voltage (mV rms)
AREA	QUANT	1.00000E+000	Sample Area (cm^2)
SPEED	SELECTOR	2	Optimize for:
ZGUESS	QUANT	1.00000E+003	Estimated Z (ohms)
EOC	QUANT	0	Open Circuit (V)
SEQUENCER	TOGGLE	TRUE	Run as Sequence
PSTATMODEL	IQUANT	5	Pstat Model
PSTATSECTION	LABEL	REF3000-16137	Pstat Section
PSTATSERIALNO	LABEL	16137	Pstat Serial Number
CTRLMODE	IQUANT	1	Control Mode
IESTAB	IQUANT	0	I/E Stability
CASPEED	IQUANT	1	Control Amp Speed
CONVENTION	IQUANT	1	Current Convention
ICHRANGE	IQUANT	2	Ich Range
ICHRANGEMODE	TOGGLE	F	Ich Auto Range
ICHOFFSETENABLE	TOGGLE	T	Ich Offset Enable
ICHOFFSET	QUANT	0	Ich Offset (V)
ICHFILTER	IQUANT	3	Ich Filter
VCHRANGE	IQUANT	2	Vch Range
VCHRANGEMODE	TOGGLE	F	Vch Auto Range
VCHOFFSETENABLE	TOGGLE	T	Vch Offset Enable
VCHOFFSET	QUANT	0	Vch Offset (V)
VCHFILTER	IQUANT	3	Vch Filter
ACHRANGE	IQUANT	2	Ach Range
ACHOFFSETENABLE	TOGGLE	F	Ach Offset Enable
ACHOFFSET	QUANT	0	Ach Offset (V)
ACHFILTER	IQUANT	3	Ach Filter
IERANGELOWERLIMIT	IQUANT	2	I/E Range Lower Limit
IERANGEMODE	TOGGLE	F	I/E AutoRange
IERANGE	IQUANT	11	I/E Range
POSFEEDENABLE	TOGGLE	F	Positive Feedback IR Comp
POSFEEDRESISTANCE	QUANT	0	Positive Feedback Resistance (ohm)
ACHSELECT	IQUANT	0	Ach Select
CABLEID	IQUANT	13	Cable ID
DCCALDATE	LABEL	7/31/2020	DC Calibration Date
ACCALDATE	LABEL	7/31/2020	AC Calibration Date
THERMOSELECT	IQUANT	1	Thermo Select
FRAMEWORKVERSION	QUANT	6.33	Framework Version
INSTRUMENTVERSION	LABEL	3.50	Instrument Version
COMPLIANCEVOLTAGE	IQUANT	0	Compliance Voltage
ZCURVE	TABLE
	Pt	Time	Freq	Zreal	Zimag	Zsig	Zmod	Zphz	Idc	Vdc	IERange
	#	s	Hz	ohm	ohm	V	ohm	°	A	V	#
	0	17	300046.9	-98.0265	-4825.684	1	4826.68	-91.16372	2.552175E-005	-0.0017315	9
	1	32	238359.4	-87.67759	-5964.289	1	5964.934	-90.84221	5.144073E-005	3.018045E-005	9
	2	47	189328.1	168.2824	-7268.165	1	7270.113	-88.67365	8.92353E-005	-0.0026311	9
	3	55	150421.9	-149.7133	-9213.483	1	9214.699	-90.93094	2.450663E-005	0.0010598	9
	4	63	119484.4	607.2216	-11484.87	1	11500.91	-86.97351	-6.136035E-005	0.0069402	8
	5	71	94921.88	548.7487	-14521.89	1	14532.25	-87.83595	-1.980968E-005	0.0114934	8
	6	79	75421.88	780.1808	-17997.08	1	18013.98	-87.51776	1.736965E-005	0.0004432	8
	7	88	59859.37	641.9687	-22243.66	1	22252.93	-88.34686	-2.025673E-005	0.0116388	8
	8	97	47578.12	4111.049	-29778.65	1	30061.09	-82.13979	-1.824911E-006	0.0224418	7
	9	104	37828.12	243.2915	-34829.22	1	34830.07	-89.59978	5.016119E-007	-0.0005246	9
	10	113	30046.88	4835.237	-45938.87	1	46192.63	-83.99153	-7.308141E-006	0.0241637	7
	11	121	23859.38	4578.21	-57788.96	1	57970.03	-85.47032	2.846766E-006	0.0085855	7
	12	126	18984.38	5088.23	-72435.31	1	72613.8	-85.98185	5.047647E-006	-0.0006261	7
	13	131	15046.87	2007.084	-90332.37	1	90354.66	-88.72716	-2.439907E-005	0.0053295	8
	14	139	11953.13	-916.6976	-100805.2	1	100809.4	-90.52102	-2.092931E-005	0.0029343	8
	15	146	9515.62	-5684.592	-140063.1	1	140178.4	-92.32413	2.633413E-005	-0.008978	8
	16	155	7546.875	32728.09	-187686.6	1	190518.7	-80.10843	-1.628396E-006	-0.0049286	8
	17	164	5928.309	10991.74	-222102.1	1	222374	-87.16676	-6.618927E-006	0.0262408	7
	18	170	4733.456	9221.741	-273817.7	1	273972.9	-88.0711	1.269083E-006	-0.0201547	7
	19	175	3796.875	45211.88	-367083.7	1	369857.4	-82.97852	1.784558E-007	-0.0210662	6
	20	181	2987.132	26738.58	-461203.8	1	461978.3	-86.68195	5.010731E-006	-0.000715	7
	21	187	2390.625	490409.8	-552134.4	1	738480.9	-48.38828	-3.905704E-006	-0.0042018	7
	22	194	1884.191	148410.1	-223594.8	1	268365.8	-56.42596	2.628711E-005	-0.005213	8
	23	202	1516.544	-65471.39	-644062.8	1	647381.9	-95.8044	1.635991E-005	-0.009347	8
	24	211	1193.986	175553.9	-444494	1	477906	-68.44835	8.205537E-006	-0.0078241	8
	25	221	946.5144	334070.2	2379004	1	2402345	82.00655	-5.370246E-006	0.0034542	7
	26	227	751.7689	555772.9	-2016048	1	2091251	-74.58783	-7.436153E-006	0.018905	7
	27	234	597.4265	-161640.4	-1426034	1	1435166	-96.4669	6.83257E-006	-0.0271636	7
	28	240	477.4305	172614.6	-2761996	1	2767384	-86.42387	-8.85964E-008	0.0005694	7
	29	246	376.6741	675993.7	-3600246	1	3663160	-79.36578	-1.025276E-009	0.0006814	5
	30	250	298.2954	812522.8	-4472346	1	4545555	-79.70298	-9.871189E-010	0.0006135	5
	31	252	237.7717	1059461	-5633165	1	5731929	-79.34849	-9.804995E-010	0.000614	5
	32	255	189.0121	1259287	-6872312	1	6986736	-79.61628	-1.031649E-009	0.0006454	5
	33	258	150.2404	1769998	-8859955	1	9035026	-78.70246	-9.569022E-010	0.0006313	5
	34	261	119.1737	-950120	-9.605402E+006	1	9.652278E+006	-95.649	-9.86828E-010	0.0006329	5
	35	264	95.0169	3562583	-1.318176E+007	1	1.36547E+007	-74.87621	-1.024559E-009	0.000648	5
	36	266	75.60484	5200063	-1.532828E+007	1	1.618632E+007	-71.26068	-1.006956E-009	0.0006032	5
	37	269	54.50582	7672023	-2.14461E+007	1	2.277708E+007	-70.31609	-9.946262E-010	0.0005949	5
	38	272	45.95588	1.399719E+007	-2.274171E+007	1	2.670406E+007	-58.38832	-1.453845E-010	0.0006929	4
	39	275	37.20238	1.226356E+007	-2.735689E+007	1	2.99799E+007	-65.85425	-1.005725E-009	0.0006828	5
	40	279	30.04808	1.840686E+007	-3.254869E+007	1	3.739291E+007	-60.51107	-1.02492E-009	0.0006881	5
	41	283	23.91582	2.441117E+007	-3.459642E+007	1	4.234167E+007	-54.79327	-4.680274E-011	0.0006087	4
	42	287	18.60119	5.728148E+007	-5.385281E+007	1	7.862119E+007	-43.23289	9.854295E-011	0.0005988	4
	43	290	15.02404	4.511053E+007	-3.814192E+007	1	5.907424E+007	-40.21523	-9.147621E-011	0.0006314	4
	44	294	12.01923	5.325428E+007	-3.92073E+007	1	6.613041E+007	-36.36155	-1.028586E-010	0.0006108	4
	45	298	9.450605	6.317194E+007	-4.036483E+007	1	7.496675E+007	-32.57726	-1.009412E-010	0.0006855	4
	46	302	7.512019	7.066917E+007	-3.383573E+007	1	7.83517E+007	-25.58466	-1.225952E-010	0.0007141	4
	47	306	5.978954	7.797291E+007	-3.419026E+007	1	8.513958E+007	-23.67692	-1.119108E-010	0.0006866	4
	48	312	4.734848	9.43151E+007	-2.156212E+007	1	9.674846E+007	-12.87753	-1.98917E-011	0.000788	3
	49	316	3.75601	9.825486E+007	-1.889126E+007	1	1.000545E+008	-10.88333	-1.745468E-011	0.0007933	3
	50	322	3.004808	1.023729E+008	-1.744825E+007	1	1.038492E+008	-9.67244	-1.856442E-011	0.0006717	3
	51	328	2.372217	1.065495E+008	-1.521444E+007	1	1.076303E+008	-8.126455	-1.94507E-011	0.0006589	3
	52	333	1.878005	1.100636E+008	-1.380993E+007	1	1.109266E+008	-7.15166	-1.674441E-011	0.0007369	3
	53	337	1.512097	1.140707E+008	-1.294105E+007	1	1.148024E+008	-6.4724	-1.486444E-011	0.0007006	3
	54	343	1.201923	1.187553E+008	-1.226476E+007	1	1.19387E+008	-5.896462	-1.753058E-011	0.0007537	3
	55	349	0.956633	1.240413E+008	-1.205402E+007	1	1.246256E+008	-5.550429	-2.602376E-011	9.374708E-005	3
