EXPLAIN
TAG	EISPOT
TITLE	LABEL	Potentiostatic EIS	Test Identifier
DATE	LABEL	8/24/2020	Date
TIME	LABEL	15:59:22	Time
NOTES	NOTES	1	Notes...
	
PSTAT	PSTAT	REF3000-16137	Potentiostat
VDC	POTEN	0.00000E+000	T	DC Voltage (V)
FREQINIT	QUANT	3.00000E+005	Initial Freq. (Hz)
FREQFINAL	QUANT	1.00000E+000	Final Freq. (Hz)
PTSPERDEC	QUANT	1.00000E+001	Points/decade
VAC	QUANT	5.00000E+001	AC Voltage (mV rms)
AREA	QUANT	1.00000E+000	Sample Area (cm^2)
SPEED	SELECTOR	2	Optimize for:
ZGUESS	QUANT	1.00000E+003	Estimated Z (ohms)
EOC	QUANT	0	Open Circuit (V)
SEQUENCER	TOGGLE	TRUE	Run as Sequence
PSTATMODEL	IQUANT	5	Pstat Model
PSTATSECTION	LABEL	REF3000-16137	Pstat Section
PSTATSERIALNO	LABEL	16137	Pstat Serial Number
CTRLMODE	IQUANT	1	Control Mode
IESTAB	IQUANT	0	I/E Stability
CASPEED	IQUANT	1	Control Amp Speed
CONVENTION	IQUANT	1	Current Convention
ICHRANGE	IQUANT	2	Ich Range
ICHRANGEMODE	TOGGLE	F	Ich Auto Range
ICHOFFSETENABLE	TOGGLE	T	Ich Offset Enable
ICHOFFSET	QUANT	0	Ich Offset (V)
ICHFILTER	IQUANT	3	Ich Filter
VCHRANGE	IQUANT	2	Vch Range
VCHRANGEMODE	TOGGLE	F	Vch Auto Range
VCHOFFSETENABLE	TOGGLE	T	Vch Offset Enable
VCHOFFSET	QUANT	0	Vch Offset (V)
VCHFILTER	IQUANT	3	Vch Filter
ACHRANGE	IQUANT	2	Ach Range
ACHOFFSETENABLE	TOGGLE	F	Ach Offset Enable
ACHOFFSET	QUANT	0	Ach Offset (V)
ACHFILTER	IQUANT	3	Ach Filter
IERANGELOWERLIMIT	IQUANT	2	I/E Range Lower Limit
IERANGEMODE	TOGGLE	F	I/E AutoRange
IERANGE	IQUANT	11	I/E Range
POSFEEDENABLE	TOGGLE	F	Positive Feedback IR Comp
POSFEEDRESISTANCE	QUANT	0	Positive Feedback Resistance (ohm)
ACHSELECT	IQUANT	0	Ach Select
CABLEID	IQUANT	13	Cable ID
DCCALDATE	LABEL	7/31/2020	DC Calibration Date
ACCALDATE	LABEL	7/31/2020	AC Calibration Date
THERMOSELECT	IQUANT	1	Thermo Select
FRAMEWORKVERSION	QUANT	6.33	Framework Version
INSTRUMENTVERSION	LABEL	3.50	Instrument Version
COMPLIANCEVOLTAGE	IQUANT	0	Compliance Voltage
ZCURVE	TABLE
	Pt	Time	Freq	Zreal	Zimag	Zsig	Zmod	Zphz	Idc	Vdc	IERange
	#	s	Hz	ohm	ohm	V	ohm	°	A	V	#
	0	14	300046.9	2277.245	-1686.958	1	2834.021	-36.53063	3.207068E-005	0.0008721	9
	1	29	238359.4	2627.292	-1649.16	1	3101.998	-32.11663	5.250976E-005	8.644629E-005	9
	2	62	189328.1	2894.161	-1489.451	1	3254.94	-27.23216	1.885562E-005	-0.0003971	9
	3	71	150421.9	3204.956	-1349.386	1	3477.44	-22.83261	-1.455728E-005	0.0018611	9
	4	79	119484.4	3446.213	-1071.87	1	3609.056	-17.27717	2.525716E-005	0.0072445	8
	5	86	94921.88	3613.414	-927.803	1	3730.627	-14.40054	-9.428139E-006	-0.0018104	8
	6	94	75421.88	3719.356	-815.6591	1	3807.743	-12.36922	2.446735E-005	-0.0050303	8
	7	100	59859.37	3831.276	-686.3246	1	3892.263	-10.15609	-1.745169E-006	-0.0045334	8
	8	107	47578.12	4174.159	-192.3642	1	4178.589	-2.638583	-5.888432E-006	0.0210967	7
	9	111	37828.12	3996.544	-525.8272	1	4030.988	-7.49538	-1.951297E-005	0.0029311	8
	10	119	30046.88	4069.087	-468.1732	1	4095.931	-6.563367	-2.280995E-005	0.00523	8
	11	127	23859.38	4157.821	-433.7007	1	4180.379	-5.954965	-1.559318E-005	0.0009187	8
	12	132	18984.38	4209.823	-408.5721	1	4229.603	-5.543314	-1.699335E-006	-0.0045304	8
	13	137	15046.87	4264.814	-415.3899	1	4284.996	-5.563022	-1.665378E-006	-0.0045672	8
	14	143	11953.13	4395.116	-251.7539	1	4402.321	-3.278341	-2.406146E-006	-0.0075298	7
	15	146	9515.62	4420.492	-296.8853	1	4430.45	-3.84228	5.135851E-006	-0.0232433	7
	16	149	7546.875	4457.6	-425.2781	1	4477.841	-5.449819	-2.346248E-005	0.0053533	8
	17	154	5928.309	4519.662	-454.9326	1	4542.5	-5.747823	1.682868E-005	8.542179E-005	8
	18	160	4733.456	4627.882	-483.3	1	4653.049	-5.961915	-1.057365E-005	0.0094728	8
	19	165	3796.875	4671.389	-546.1812	1	4703.21	-6.668774	-1.192508E-006	0.0072751	8
	20	171	2987.132	4812.576	-568.4727	1	4846.035	-6.736694	-7.116196E-008	-0.0140351	7
	21	175	2390.625	4894.515	-642.3757	1	4936.489	-7.476993	-2.229944E-006	-0.007577	7
	22	178	1884.191	4968.06	-751.6272	1	5024.595	-8.603144	-5.111813E-006	0.023073	7
	23	182	1516.544	5121.602	-841.3533	1	5190.249	-9.328964	8.425526E-006	0.0037363	8
	24	188	1193.986	5237.297	-956.874	1	5323.992	-10.35395	1.468426E-005	-0.0086007	8
	25	194	946.5144	5350.185	-1128.268	1	5467.857	-11.90828	-2.441945E-005	0.0072825	8
	26	197	751.7689	5504.574	-1308.587	1	5657.979	-13.37254	2.056961E-005	-0.0090483	8
	27	201	597.4265	5636.814	-1564.685	1	5849.95	-15.51376	-2.489917E-005	0.0092591	8
	28	205	477.4305	5799.25	-1699.162	1	6043.05	-16.33042	-4.041626E-007	0.0006502	8
	29	208	376.6741	5953.569	-1966.854	1	6270.048	-18.28178	-8.691082E-008	0.0006424	7
	30	211	298.2954	6076.767	-2301.308	1	6497.931	-20.74198	-7.599723E-008	0.0005961	7
	31	213	237.7717	6188.809	-2713.073	1	6757.375	-23.67186	-8.205435E-008	0.0006032	7
	32	216	189.0121	6297.44	-3246.569	1	7085.052	-27.27282	-8.573095E-008	0.0006653	7
	33	218	150.2404	6400.276	-3926.753	1	7508.856	-31.53031	-8.400659E-008	0.0006307	7
	34	220	119.1737	6509.344	-4799.465	1	8087.424	-36.40207	-8.68384E-008	0.0006417	7
	35	223	95.0169	6630.469	-5886.722	1	8866.602	-41.59959	-8.653884E-008	0.0006637	7
	36	225	75.60484	6768.255	-7260.771	1	9926.13	-47.01065	-7.786591E-008	0.0006181	7
	37	228	54.50582	7005.278	-9856.57	1	12092.39	-54.59776	-7.857519E-008	0.000567	7
	38	230	45.95588	7178.171	-11582.16	1	13626.17	-58.21097	-8.380039E-008	0.0006222	7
	39	233	37.20238	7425.118	-14146.54	1	15976.76	-62.30629	-8.277752E-008	0.0006714	7
	40	235	30.04808	7746.66	-17331.28	1	18983.78	-65.91652	-8.370886E-008	0.0006671	7
	41	238	23.91582	8183.538	-21524.38	1	23027.58	-69.18327	-8.461451E-008	0.0006667	7
	42	240	18.60119	8823.559	-27313.54	1	28703.39	-72.09711	-7.778615E-008	0.0005793	7
	43	242	15.02404	9529.51	-33478.09	1	34807.96	-74.11105	-8.106412E-008	0.0006344	7
	44	244	12.01923	10495.61	-41336.03	1	42647.69	-75.75313	-8.44633E-008	0.0006634	7
	45	247	9.450605	11980.54	-51934.09	1	53298.06	-77.00983	-8.465922E-009	0.0006164	6
	46	249	7.512019	13795.39	-64454.71	1	65914.51	-77.91913	-9.42642E-009	0.0006013	6
	47	252	5.978954	16224.09	-79760.85	1	81394.2	-78.50237	-8.819029E-009	0.0006215	6
	48	255	4.734848	19668.33	-99114.3	1	101046.9	-78.77599	-9.186395E-009	0.0006849	6
	49	258	3.75601	24246.61	-122806.2	1	125177	-78.83128	-8.673767E-009	0.0006248	6
	50	262	3.004808	30153.5	-150555	1	153544.9	-78.67451	-8.962072E-009	0.0006631	6
	51	267	2.372217	38577.23	-186458.7	1	190407.6	-78.31076	-9.072868E-009	0.0005993	6
	52	271	1.878005	50101.73	-229695.8	1	235096.5	-77.69525	-9.002739E-009	0.000666	6
	53	276	1.512097	64147.44	-277703.8	1	285016.3	-76.99325	-8.942203E-009	0.0005581	6
	54	282	1.201923	83028.52	-339216.8	1	349230.2	-76.24638	-9.107E-009	0.0006827	6
	55	288	0.956633	107124.2	-412039.7	1	425737.3	-75.42658	-9.386475E-009	2.258847E-005	6
