EXPLAIN
TAG	EISPOT
TITLE	LABEL	Potentiostatic EIS	Test Identifier
DATE	LABEL	8/24/2020	Date
TIME	LABEL	17:47:14	Time
NOTES	NOTES	1	Notes...
	
PSTAT	PSTAT	REF3000-16137	Potentiostat
VDC	POTEN	0.00000E+000	T	DC Voltage (V)
FREQINIT	QUANT	3.00000E+005	Initial Freq. (Hz)
FREQFINAL	QUANT	1.00000E+000	Final Freq. (Hz)
PTSPERDEC	QUANT	1.00000E+001	Points/decade
VAC	QUANT	5.00000E+001	AC Voltage (mV rms)
AREA	QUANT	1.00000E+000	Sample Area (cm^2)
SPEED	SELECTOR	2	Optimize for:
ZGUESS	QUANT	1.00000E+003	Estimated Z (ohms)
EOC	QUANT	0	Open Circuit (V)
SEQUENCER	TOGGLE	TRUE	Run as Sequence
PSTATMODEL	IQUANT	5	Pstat Model
PSTATSECTION	LABEL	REF3000-16137	Pstat Section
PSTATSERIALNO	LABEL	16137	Pstat Serial Number
CTRLMODE	IQUANT	1	Control Mode
IESTAB	IQUANT	0	I/E Stability
CASPEED	IQUANT	1	Control Amp Speed
CONVENTION	IQUANT	1	Current Convention
ICHRANGE	IQUANT	2	Ich Range
ICHRANGEMODE	TOGGLE	F	Ich Auto Range
ICHOFFSETENABLE	TOGGLE	T	Ich Offset Enable
ICHOFFSET	QUANT	0	Ich Offset (V)
ICHFILTER	IQUANT	3	Ich Filter
VCHRANGE	IQUANT	2	Vch Range
VCHRANGEMODE	TOGGLE	F	Vch Auto Range
VCHOFFSETENABLE	TOGGLE	T	Vch Offset Enable
VCHOFFSET	QUANT	0	Vch Offset (V)
VCHFILTER	IQUANT	3	Vch Filter
ACHRANGE	IQUANT	2	Ach Range
ACHOFFSETENABLE	TOGGLE	F	Ach Offset Enable
ACHOFFSET	QUANT	0	Ach Offset (V)
ACHFILTER	IQUANT	3	Ach Filter
IERANGELOWERLIMIT	IQUANT	2	I/E Range Lower Limit
IERANGEMODE	TOGGLE	F	I/E AutoRange
IERANGE	IQUANT	11	I/E Range
POSFEEDENABLE	TOGGLE	F	Positive Feedback IR Comp
POSFEEDRESISTANCE	QUANT	0	Positive Feedback Resistance (ohm)
ACHSELECT	IQUANT	0	Ach Select
CABLEID	IQUANT	13	Cable ID
DCCALDATE	LABEL	7/31/2020	DC Calibration Date
ACCALDATE	LABEL	7/31/2020	AC Calibration Date
THERMOSELECT	IQUANT	1	Thermo Select
FRAMEWORKVERSION	QUANT	6.33	Framework Version
INSTRUMENTVERSION	LABEL	3.50	Instrument Version
COMPLIANCEVOLTAGE	IQUANT	0	Compliance Voltage
ZCURVE	TABLE
	Pt	Time	Freq	Zreal	Zimag	Zsig	Zmod	Zphz	Idc	Vdc	IERange
	#	s	Hz	ohm	ohm	V	ohm	°	A	V	#
	0	7	300046.9	92.74303	-5.128311	1	92.8847	-3.165	-7.314451E-006	0.0005723	9
	1	10	238359.4	93.51675	-6.595082	1	93.74902	-4.033991	1.920954E-006	0.0006152	9
	2	13	189328.1	94.03533	-8.097513	1	94.38333	-4.921678	1.448691E-005	-0.0012547	9
	3	16	150421.9	94.90139	-9.54033	1	95.3797	-5.740592	-3.378462E-005	-0.0002026	9
	4	18	119484.4	95.9701	-11.04541	1	96.6036	-6.565408	1.846513E-005	-0.0012238	9
	5	21	94921.88	97.1092	-12.68234	1	97.9339	-7.440645	-1.684543E-005	0.0005623	9
	6	24	75421.88	98.3993	-14.78688	1	99.5042	-8.546131	1.882566E-005	-0.0007575	9
	7	26	59859.37	99.8303	-17.16925	1	101.2959	-9.75852	-1.687957E-005	0.0008604	9
	8	29	47578.12	101.4546	-19.72788	1	103.3549	-11.00386	-1.681324E-005	0.0003886	9
	9	31	37828.12	103.1448	-22.70452	1	105.6141	-12.41413	2.464163E-005	-0.0005907	9
	10	34	30046.88	105.0018	-26.10274	1	108.1976	-13.96036	-5.595285E-006	0.0006531	9
	11	36	23859.38	106.7216	-30.11067	1	110.888	-15.756	3.510652E-006	0.0005109	9
	12	39	18984.38	108.4397	-34.97954	1	113.9418	-17.87822	2.425639E-005	-0.0006231	9
	13	41	15046.87	109.9395	-41.32335	1	117.4492	-20.59991	-1.756287E-005	0.0004042	9
	14	43	11953.13	111.4548	-48.82853	1	121.6815	-23.65831	-1.479536E-005	0.0002171	9
	15	46	9515.62	112.941	-58.84575	1	127.3518	-27.52091	-2.160793E-005	0.0008252	9
	16	48	7546.875	114.5061	-71.32377	1	134.9027	-31.91802	-6.058336E-006	-0.0001346	9
	17	50	5928.309	116.2568	-88.05232	1	145.8385	-37.1401	1.264968E-005	-0.0006328	9
	18	53	4733.456	118.3573	-107.7761	1	160.0754	-42.32097	3.51823E-006	0.0004537	9
	19	55	3796.875	120.5514	-131.9745	1	178.7454	-47.59003	-1.680692E-005	0.0003659	9
	20	57	2987.132	123.7992	-164.6813	1	206.0247	-53.06599	-1.176209E-005	0.0008066	9
	21	60	2390.625	127.5126	-202.8573	1	239.6049	-57.84724	5.266134E-006	-0.0004694	9
	22	62	1884.191	133.8642	-253.7755	1	286.9174	-62.18877	2.423959E-005	-0.0004621	9
	23	64	1516.544	139.9093	-310.2193	1	340.3096	-65.72457	-1.200469E-005	0.0008159	9
	24	67	1193.986	149.8222	-387.4576	1	415.4156	-68.8595	-1.706122E-005	0.0004092	9
	25	69	946.5144	160.8254	-479.3408	1	505.601	-71.4527	-5.637115E-006	0.0017678	8
	26	71	751.7689	177.3316	-594.7579	1	620.6315	-73.39765	-5.539234E-006	0.0024005	8
	27	74	597.4265	198.8106	-735.6619	1	762.0526	-74.87722	-2.976478E-006	0.0025983	8
	28	76	477.4305	225.2706	-904.4322	1	932.0646	-76.0137	1.597326E-007	0.0006476	8
	29	78	376.6741	263.3621	-1124.773	1	1155.194	-76.82178	1.580931E-007	0.0006455	8
	30	81	298.2954	313.5265	-1392.434	1	1427.295	-77.31065	1.619642E-007	0.0006396	8
	31	83	237.7717	378.6903	-1711.442	1	1752.838	-77.52321	1.55573E-007	0.0006453	8
	32	86	189.0121	466.9226	-2106.122	1	2157.259	-77.49983	1.636004E-007	0.0006418	8
	33	88	150.2404	586.0022	-2587.32	1	2652.852	-77.23839	1.543792E-007	0.0006444	8
	34	90	119.1737	748.6454	-3179.459	1	3266.409	-76.75031	1.524868E-007	0.0006493	8
	35	93	95.0169	965.443	-3877.471	1	3995.855	-76.01835	1.739851E-007	0.0006487	8
	36	95	75.60484	1265.469	-4732.956	1	4899.212	-75.03076	-6.171134E-008	0.0006239	7
	37	98	54.50582	1885.577	-6231.325	1	6510.362	-73.16438	-6.519696E-008	0.0006144	7
	38	100	45.95588	2329.266	-7163.357	1	7532.541	-71.98734	-5.586598E-008	0.0006267	7
	39	103	37.20238	3039.002	-8460.641	1	8989.882	-70.24207	-5.90463E-008	0.0006277	7
	40	105	30.04808	3972.077	-9931.33	1	10696.2	-68.20086	-6.602724E-008	0.0006225	7
	41	108	23.91582	5270.119	-11672.49	1	12807.07	-65.70086	-6.570599E-008	0.0006175	7
	42	110	18.60119	7135.048	-13762.25	1	15501.89	-62.59549	-7.652827E-008	0.0006302	7
	43	112	15.02404	9156.737	-15573.88	1	18066.31	-59.5464	-7.18406E-008	0.0006204	7
	44	114	12.01923	11712.01	-17382.17	1	20959.74	-56.02813	-7.124293E-008	0.0006205	7
	45	117	9.450605	14941.77	-19101.2	1	24251.03	-51.96597	-7.888383E-008	0.0006378	7
	46	119	7.512019	18407.82	-20357.15	1	27445.61	-47.87875	-7.836397E-008	0.0006189	7
	47	122	5.978954	22100.47	-21030.17	1	30507.36	-43.57848	-8.185966E-008	0.0006289	7
	48	125	4.734848	25903.44	-21132.45	1	33430.05	-39.20813	-7.99842E-008	0.0005942	7
	49	128	3.75601	29401.73	-20345.71	1	35754.86	-34.68286	-7.739536E-008	0.0006371	7
	50	134	3.004808	32448.77	-19379.24	1	37795.21	-30.84674	-8.075714E-008	0.0005985	7
	51	140	2.372217	35580.98	-18488.49	1	40097.76	-27.45716	-1.109209E-007	0.0006112	6
	52	145	1.878005	37269.65	-16187.28	1	40633.18	-23.47668	-1.146979E-007	0.0006882	6
	53	154	1.512097	38677	-14649.3	1	41358.34	-20.74469	-1.183654E-007	0.0005781	6
	54	164	1.201923	40050.69	-13261.95	1	42189.3	-18.32121	-1.22642E-007	0.0007055	6
	55	177	0.956633	40952.25	-11763.79	1	42608.38	-16.02704	-1.45691E-007	3.731886E-005	6
