EXPLAIN
TAG	EISPOT
TITLE	LABEL	Potentiostatic EIS	Test Identifier
DATE	LABEL	8/24/2020	Date
TIME	LABEL	18:18:21	Time
NOTES	NOTES	1	Notes...
	
PSTAT	PSTAT	REF3000-16137	Potentiostat
VDC	POTEN	0.00000E+000	T	DC Voltage (V)
FREQINIT	QUANT	3.00000E+005	Initial Freq. (Hz)
FREQFINAL	QUANT	1.00000E+000	Final Freq. (Hz)
PTSPERDEC	QUANT	1.00000E+001	Points/decade
VAC	QUANT	5.00000E+001	AC Voltage (mV rms)
AREA	QUANT	1.00000E+000	Sample Area (cm^2)
SPEED	SELECTOR	2	Optimize for:
ZGUESS	QUANT	1.00000E+003	Estimated Z (ohms)
EOC	QUANT	0	Open Circuit (V)
SEQUENCER	TOGGLE	TRUE	Run as Sequence
PSTATMODEL	IQUANT	5	Pstat Model
PSTATSECTION	LABEL	REF3000-16137	Pstat Section
PSTATSERIALNO	LABEL	16137	Pstat Serial Number
CTRLMODE	IQUANT	1	Control Mode
IESTAB	IQUANT	0	I/E Stability
CASPEED	IQUANT	1	Control Amp Speed
CONVENTION	IQUANT	1	Current Convention
ICHRANGE	IQUANT	2	Ich Range
ICHRANGEMODE	TOGGLE	F	Ich Auto Range
ICHOFFSETENABLE	TOGGLE	T	Ich Offset Enable
ICHOFFSET	QUANT	0	Ich Offset (V)
ICHFILTER	IQUANT	3	Ich Filter
VCHRANGE	IQUANT	2	Vch Range
VCHRANGEMODE	TOGGLE	F	Vch Auto Range
VCHOFFSETENABLE	TOGGLE	T	Vch Offset Enable
VCHOFFSET	QUANT	0	Vch Offset (V)
VCHFILTER	IQUANT	3	Vch Filter
ACHRANGE	IQUANT	2	Ach Range
ACHOFFSETENABLE	TOGGLE	F	Ach Offset Enable
ACHOFFSET	QUANT	0	Ach Offset (V)
ACHFILTER	IQUANT	3	Ach Filter
IERANGELOWERLIMIT	IQUANT	2	I/E Range Lower Limit
IERANGEMODE	TOGGLE	F	I/E AutoRange
IERANGE	IQUANT	11	I/E Range
POSFEEDENABLE	TOGGLE	F	Positive Feedback IR Comp
POSFEEDRESISTANCE	QUANT	0	Positive Feedback Resistance (ohm)
ACHSELECT	IQUANT	0	Ach Select
CABLEID	IQUANT	13	Cable ID
DCCALDATE	LABEL	7/31/2020	DC Calibration Date
ACCALDATE	LABEL	7/31/2020	AC Calibration Date
THERMOSELECT	IQUANT	1	Thermo Select
FRAMEWORKVERSION	QUANT	6.33	Framework Version
INSTRUMENTVERSION	LABEL	3.50	Instrument Version
COMPLIANCEVOLTAGE	IQUANT	0	Compliance Voltage
ZCURVE	TABLE
	Pt	Time	Freq	Zreal	Zimag	Zsig	Zmod	Zphz	Idc	Vdc	IERange
	#	s	Hz	ohm	ohm	V	ohm	°	A	V	#
	0	7	300046.9	87.93762	-4.697417	1	88.063	-3.057697	-6.759322E-005	0.002534	9
	1	10	238359.4	88.74714	-6.164021	1	88.96095	-3.973155	-9.429597E-006	-0.0012441	9
	2	13	189328.1	89.51318	-7.368989	1	89.81599	-4.706146	1.647974E-005	-0.0013253	9
	3	16	150421.9	90.51776	-9.048625	1	90.96891	-5.708618	4.816937E-005	-0.0004788	9
	4	18	119484.4	91.47041	-10.63685	1	92.0868	-6.63298	6.426082E-005	-0.001503	9
	5	21	94921.88	92.76788	-12.16985	1	93.56274	-7.473728	-7.513215E-006	-6.22084E-005	9
	6	23	75421.88	94.00643	-14.25542	1	95.0812	-8.622809	2.463187E-005	-0.0006226	9
	7	26	59859.37	95.4618	-16.55886	1	96.8873	-9.84064	2.168757E-005	-0.0006301	9
	8	28	47578.12	97.1307	-19.11637	1	98.994	-11.13413	1.876105E-005	-0.0007147	9
	9	31	37828.12	98.8577	-21.94002	1	101.2631	-12.51314	1.944061E-005	-0.0001179	9
	10	33	30046.88	100.686	-25.32401	1	103.8219	-14.11789	-1.90797E-005	0.0004575	9
	11	36	23859.38	102.4053	-29.27202	1	106.5068	-15.9523	-1.052196E-005	2.659137E-005	9
	12	38	18984.38	104.1231	-34.03188	1	109.5435	-18.09961	1.234408E-005	-0.0006226	9
	13	41	15046.87	105.7306	-40.25288	1	113.1338	-20.84241	-1.97555E-005	0.0007437	9
	14	43	11953.13	107.2247	-47.93671	1	117.4524	-24.08788	1.965168E-005	-0.0001121	9
	15	45	9515.62	108.6538	-57.56485	1	122.9608	-27.91467	2.131155E-005	-0.0007841	9
	16	48	7546.875	110.2158	-70.07949	1	130.6088	-32.44979	3.515572E-006	0.0004944	9
	17	50	5928.309	111.987	-86.71828	1	141.6374	-37.75278	2.345348E-005	-0.0005692	9
	18	52	4733.456	113.8711	-106.3058	1	155.7804	-43.03208	-1.482161E-005	0.0002107	9
	19	55	3796.875	115.8732	-130.1831	1	174.2821	-48.32841	-1.745272E-005	0.0007982	9
	20	57	2987.132	119.611	-162.4947	1	201.7704	-53.64351	-2.022656E-005	0.0006505	9
	21	59	2390.625	123.2835	-200.6421	1	235.4911	-58.43157	-1.755568E-005	0.0007213	9
	22	62	1884.191	129.0582	-250.3334	1	281.6431	-62.72684	-1.119761E-005	0.0007963	9
	23	64	1516.544	135.3635	-307.2437	1	335.7409	-66.22297	-1.717206E-005	0.0004098	9
	24	66	1193.986	143.3996	-384.5301	1	410.3984	-69.54842	-4.851801E-006	0.0006741	9
	25	69	946.5144	155.2232	-475.9506	1	500.6229	-71.93714	6.17678E-006	-0.0012828	8
	26	71	751.7689	170.7499	-588.5573	1	612.8256	-73.8217	-4.163598E-006	0.0026868	8
	27	73	597.4265	191.6214	-729.7378	1	754.4773	-75.2869	-5.242062E-006	0.0016788	8
	28	76	477.4305	217.8833	-898.2531	1	924.3007	-76.36548	2.069942E-007	0.0006351	8
	29	78	376.6741	254.5816	-1117.786	1	1146.411	-77.16946	2.154669E-007	0.0006331	8
	30	80	298.2954	302.5763	-1384.757	1	1417.429	-77.67432	1.993656E-007	0.0006475	8
	31	83	237.7717	364.4434	-1703.255	1	1741.808	-77.9226	2.176941E-007	0.0006426	8
	32	85	189.0121	447.6951	-2097.945	1	2145.182	-77.95393	2.126884E-007	0.0006531	8
	33	87	150.2404	559.0184	-2580.474	1	2640.331	-77.77666	2.280062E-007	0.0006417	8
	34	90	119.1737	710.3959	-3175.723	1	3254.209	-77.39076	2.260678E-007	0.0006411	8
	35	92	95.0169	911.0212	-3880.449	1	3985.956	-76.78782	2.163183E-007	0.0006466	8
	36	95	75.60484	1187.771	-4748.803	1	4895.092	-75.95728	-1.244074E-008	0.0006205	7
	37	97	54.50582	1757.642	-6285.23	1	6526.364	-74.37654	-9.594354E-009	0.0006112	7
	38	100	45.95588	2168.215	-7245.445	1	7562.911	-73.34007	2.551053E-009	0.0006197	7
	39	102	37.20238	2822.341	-8605.444	1	9056.45	-71.84198	-7.35201E-009	0.000678	7
	40	105	30.04808	3691.231	-10170.08	1	10819.23	-70.05163	-5.582257E-009	0.0006172	7
	41	107	23.91582	4918.486	-12071.26	1	13034.83	-67.83134	-1.370249E-008	0.0006182	7
	42	110	18.60119	6676.127	-14382.92	1	15856.83	-65.10065	-1.594007E-008	0.0006263	7
	43	112	15.02404	8613.141	-16485.11	1	18599.6	-62.41383	4.047658E-009	0.0006314	7
	44	114	12.01923	11135.55	-18720.13	1	21781.73	-59.25396	7.389353E-010	0.0006423	7
	45	117	9.450605	14409.08	-21035.15	1	25497.04	-55.58886	-1.244483E-008	0.000636	7
	46	119	7.512019	18093.47	-23055.47	1	29307.48	-51.87589	-1.206095E-008	0.0006207	7
	47	122	5.978954	22199.02	-24567.3	1	33111.16	-47.89902	-1.156724E-008	0.0006243	7
	48	125	4.734848	26708.71	-25526.58	1	36945.39	-43.70356	-1.312229E-008	0.000605	7
	49	128	3.75601	31303.61	-25865.5	1	40607.14	-39.56619	-3.257335E-008	0.0006704	6
	50	132	3.004808	35408.29	-25143.74	1	43427.58	-35.37891	-3.056195E-008	0.0006376	6
	51	138	2.372217	39704.81	-24490.55	1	46650.39	-31.66693	-4.236399E-008	0.0006248	6
	52	142	1.878005	42790.89	-22267.02	1	48237.75	-27.49104	-4.053421E-008	0.0006776	6
	53	151	1.512097	45148.56	-20418.58	1	49551.09	-24.33502	-4.203349E-008	0.0005672	6
	54	162	1.201923	47457.41	-18674.36	1	50999.38	-21.4795	-4.840847E-008	0.0006827	6
	55	175	0.956633	49181.21	-16824.56	1	51979.39	-18.88547	-6.407074E-008	3.926216E-005	6
