EXPLAIN
TAG	EISPOT
TITLE	LABEL	Potentiostatic EIS	Test Identifier
DATE	LABEL	8/24/2020	Date
TIME	LABEL	16:08:54	Time
NOTES	NOTES	1	Notes...
	
PSTAT	PSTAT	REF3000-16137	Potentiostat
VDC	POTEN	0.00000E+000	T	DC Voltage (V)
FREQINIT	QUANT	3.00000E+005	Initial Freq. (Hz)
FREQFINAL	QUANT	1.00000E+000	Final Freq. (Hz)
PTSPERDEC	QUANT	1.00000E+001	Points/decade
VAC	QUANT	5.00000E+001	AC Voltage (mV rms)
AREA	QUANT	1.00000E+000	Sample Area (cm^2)
SPEED	SELECTOR	2	Optimize for:
ZGUESS	QUANT	1.00000E+003	Estimated Z (ohms)
EOC	QUANT	0	Open Circuit (V)
SEQUENCER	TOGGLE	TRUE	Run as Sequence
PSTATMODEL	IQUANT	5	Pstat Model
PSTATSECTION	LABEL	REF3000-16137	Pstat Section
PSTATSERIALNO	LABEL	16137	Pstat Serial Number
CTRLMODE	IQUANT	1	Control Mode
IESTAB	IQUANT	0	I/E Stability
CASPEED	IQUANT	1	Control Amp Speed
CONVENTION	IQUANT	1	Current Convention
ICHRANGE	IQUANT	2	Ich Range
ICHRANGEMODE	TOGGLE	F	Ich Auto Range
ICHOFFSETENABLE	TOGGLE	T	Ich Offset Enable
ICHOFFSET	QUANT	0	Ich Offset (V)
ICHFILTER	IQUANT	3	Ich Filter
VCHRANGE	IQUANT	2	Vch Range
VCHRANGEMODE	TOGGLE	F	Vch Auto Range
VCHOFFSETENABLE	TOGGLE	T	Vch Offset Enable
VCHOFFSET	QUANT	0	Vch Offset (V)
VCHFILTER	IQUANT	3	Vch Filter
ACHRANGE	IQUANT	2	Ach Range
ACHOFFSETENABLE	TOGGLE	F	Ach Offset Enable
ACHOFFSET	QUANT	0	Ach Offset (V)
ACHFILTER	IQUANT	3	Ach Filter
IERANGELOWERLIMIT	IQUANT	2	I/E Range Lower Limit
IERANGEMODE	TOGGLE	F	I/E AutoRange
IERANGE	IQUANT	11	I/E Range
POSFEEDENABLE	TOGGLE	F	Positive Feedback IR Comp
POSFEEDRESISTANCE	QUANT	0	Positive Feedback Resistance (ohm)
ACHSELECT	IQUANT	0	Ach Select
CABLEID	IQUANT	13	Cable ID
DCCALDATE	LABEL	7/31/2020	DC Calibration Date
ACCALDATE	LABEL	7/31/2020	AC Calibration Date
THERMOSELECT	IQUANT	1	Thermo Select
FRAMEWORKVERSION	QUANT	6.33	Framework Version
INSTRUMENTVERSION	LABEL	3.50	Instrument Version
COMPLIANCEVOLTAGE	IQUANT	0	Compliance Voltage
ZCURVE	TABLE
	Pt	Time	Freq	Zreal	Zimag	Zsig	Zmod	Zphz	Idc	Vdc	IERange
	#	s	Hz	ohm	ohm	V	ohm	°	A	V	#
	0	14	300046.9	1889.554	-3787.137	1	4232.354	-63.48356	8.177832E-005	-0.0017497	9
	1	31	238359.4	2667.978	-4344.743	1	5098.52	-58.44715	1.736465E-005	-0.0022231	9
	2	55	189328.1	3448.222	-4667.318	1	5802.938	-53.54295	2.939253E-005	-0.0014923	9
	3	66	150421.9	4462.921	-5005.383	1	6706.082	-48.27903	-2.795773E-005	-0.0010453	9
	4	75	119484.4	5850.837	-4987.074	1	7687.861	-40.44325	3.984461E-005	-0.0182976	8
	5	86	94921.88	6899.377	-4834.847	1	8424.793	-35.02145	-1.917567E-005	0.011026	8
	6	94	75421.88	7954.787	-4636.565	1	9207.408	-30.2364	1.73401E-005	0.0001981	8
	7	103	59859.37	8791.747	-4198.039	1	9742.6	-25.52437	2.297182E-005	-0.0029114	8
	8	110	47578.12	9637.62	-3753.165	1	10342.63	-21.27736	-2.360419E-005	0.005224	8
	9	119	37828.12	10289.6	-3400.533	1	10836.95	-18.28781	2.557391E-005	-0.0088936	8
	10	126	30046.88	10819.14	-2913.307	1	11204.52	-15.07077	-1.550939E-006	0.0075367	8
	11	135	23859.38	11539.5	-1866.465	1	11689.47	-9.187778	-6.92913E-006	0.0169447	7
	12	139	18984.38	11752.77	-1605.632	1	11861.94	-7.779436	-2.881077E-006	-0.0064204	7
	13	143	15046.87	11949.08	-1412.363	1	12032.26	-6.740995	-6.988041E-006	0.0217831	7
	14	147	11953.13	12102.69	-1260.555	1	12168.16	-5.946199	7.218235E-006	-0.0169112	7
	15	152	9515.62	12305.98	-1150.005	1	12359.6	-5.338834	1.579425E-006	-0.0198604	7
	16	156	7546.875	12445.83	-1082.707	1	12492.84	-4.971847	-6.246094E-006	0.0103417	7
	17	160	5928.309	12636.02	-998.849	1	12675.44	-4.519701	5.381246E-006	-0.0257355	7
	18	164	4733.456	12787.5	-1033.095	1	12829.16	-4.618863	6.142291E-006	-0.0084857	7
	19	169	3796.875	13025.61	-1068.293	1	13069.35	-4.688607	-9.538485E-007	-0.0139489	7
	20	173	2987.132	13176.97	-1182.845	1	13229.95	-5.129468	-6.412699E-006	0.0245072	7
	21	177	2390.625	13339.09	-1164.293	1	13389.81	-4.988379	7.45692E-006	-0.0230747	7
	22	181	1884.191	13574.51	-1293.188	1	13635.97	-5.441912	-6.326732E-006	0.0104603	7
	23	186	1516.544	13822.47	-1487.282	1	13902.26	-6.141331	8.609366E-008	0.0167074	7
	24	190	1193.986	14142.13	-1639.415	1	14236.83	-6.612453	7.257033E-006	-0.0168664	7
	25	195	946.5144	14310	-2145.186	1	14469.9	-8.525622	-1.992036E-006	0.021497	7
	26	197	751.7689	14455.41	-2002.411	1	14593.44	-7.88661	7.33231E-006	-0.0171063	7
	27	200	597.4265	14978.97	-2198.241	1	15139.42	-8.348853	6.650191E-006	-0.0255184	7
	28	202	477.4305	15310.82	-2748.04	1	15555.48	-10.17531	-8.794447E-008	0.0005794	7
	29	205	376.6741	15669.56	-3141.743	1	15981.42	-11.33746	-8.641143E-008	0.0006186	7
	30	207	298.2954	16048.71	-3582.042	1	16443.6	-12.58209	-8.740194E-008	0.0005959	7
	31	209	237.7717	16444.16	-4082.463	1	16943.34	-13.9425	-9.406743E-008	0.0006246	7
	32	212	189.0121	16859.21	-4666.977	1	17493.25	-15.47318	-8.735388E-008	0.0005809	7
	33	214	150.2404	17253.99	-5362.117	1	18067.99	-17.26397	-9.30152E-008	0.0006699	7
	34	217	119.1737	17655.93	-6234.073	1	18724.2	-19.44744	-8.615265E-008	0.0006209	7
	35	219	95.0169	17988.08	-7312.076	1	19417.46	-22.12152	-9.222639E-008	0.0006204	7
	36	222	75.60484	18317.04	-8692.152	1	20274.8	-25.38617	-8.395509E-008	0.0005736	7
	37	224	54.50582	18751.49	-11365.51	1	21927	-31.22058	-9.239311E-008	0.0006597	7
	38	227	45.95588	18999.2	-13167.94	1	23116.31	-34.725	-9.080299E-008	0.0006665	7
	39	229	37.20238	19310.36	-15895.27	1	25010.99	-39.45941	-9.215678E-008	0.0006681	7
	40	231	30.04808	19677.65	-19327.52	1	27581.93	-44.4857	-9.015544E-008	0.0006726	7
	41	234	23.91582	20105.63	-23883.04	1	31219.16	-49.90809	-8.798965E-008	0.0006655	7
	42	236	18.60119	20654.67	-30252.79	1	36631.23	-55.67725	-9.20364E-008	0.0006722	7
	43	239	15.02404	21337.33	-37139.18	1	42832.24	-60.12162	-9.917589E-009	0.0006216	6
	44	241	12.01923	22116.7	-45877.69	1	50930.45	-64.26223	-9.928257E-009	0.0006967	6
	45	243	9.450605	23191.46	-57685.28	1	62172.62	-68.09818	-1.086865E-008	0.0007476	6
	46	246	7.512019	24585.83	-71896.24	1	75983.77	-71.12122	-9.79102E-009	0.0007037	6
	47	249	5.978954	26320.73	-89309.27	1	93107.07	-73.57899	-9.165068E-009	0.0006264	6
	48	252	4.734848	28678.98	-111617.1	1	115242.7	-75.5901	-8.66727E-009	0.0006259	6
	49	255	3.75601	31804.23	-139145	1	142733.5	-77.12513	-9.064545E-009	0.0006229	6
	50	259	3.004808	35691.51	-171955.4	1	175620.5	-78.27404	-9.04739E-009	0.0005845	6
	51	265	2.372217	41109.66	-215176.1	1	219067.9	-79.18391	-9.630243E-009	0.0005966	6
	52	270	1.878005	48651.61	-268454.5	1	272827.4	-79.72786	-9.724673E-009	0.0006671	6
	53	274	1.512097	57798.43	-329411.2	1	334443.4	-80.04819	-9.656139E-009	0.0005555	6
	54	280	1.201923	70636.55	-408949.7	1	415005.2	-80.20018	-9.8289E-009	0.0006857	6
	55	286	0.956633	87793	-506840.8	1	514388.1	-80.17296	-1.226543E-009	8.033325E-006	5
