EXPLAIN
TAG	EISPOT
TITLE	LABEL	Potentiostatic EIS	Test Identifier
DATE	LABEL	8/24/2020	Date
TIME	LABEL	15:32:04	Time
NOTES	NOTES	1	Notes...
	
PSTAT	PSTAT	REF3000-16137	Potentiostat
VDC	POTEN	0.00000E+000	T	DC Voltage (V)
FREQINIT	QUANT	3.00000E+005	Initial Freq. (Hz)
FREQFINAL	QUANT	1.00000E+000	Final Freq. (Hz)
PTSPERDEC	QUANT	1.00000E+001	Points/decade
VAC	QUANT	5.00000E+001	AC Voltage (mV rms)
AREA	QUANT	1.00000E+000	Sample Area (cm^2)
SPEED	SELECTOR	2	Optimize for:
ZGUESS	QUANT	1.00000E+003	Estimated Z (ohms)
EOC	QUANT	0	Open Circuit (V)
SEQUENCER	TOGGLE	TRUE	Run as Sequence
PSTATMODEL	IQUANT	5	Pstat Model
PSTATSECTION	LABEL	REF3000-16137	Pstat Section
PSTATSERIALNO	LABEL	16137	Pstat Serial Number
CTRLMODE	IQUANT	1	Control Mode
IESTAB	IQUANT	0	I/E Stability
CASPEED	IQUANT	1	Control Amp Speed
CONVENTION	IQUANT	1	Current Convention
ICHRANGE	IQUANT	2	Ich Range
ICHRANGEMODE	TOGGLE	F	Ich Auto Range
ICHOFFSETENABLE	TOGGLE	T	Ich Offset Enable
ICHOFFSET	QUANT	0	Ich Offset (V)
ICHFILTER	IQUANT	3	Ich Filter
VCHRANGE	IQUANT	2	Vch Range
VCHRANGEMODE	TOGGLE	F	Vch Auto Range
VCHOFFSETENABLE	TOGGLE	T	Vch Offset Enable
VCHOFFSET	QUANT	0	Vch Offset (V)
VCHFILTER	IQUANT	3	Vch Filter
ACHRANGE	IQUANT	2	Ach Range
ACHOFFSETENABLE	TOGGLE	F	Ach Offset Enable
ACHOFFSET	QUANT	0	Ach Offset (V)
ACHFILTER	IQUANT	3	Ach Filter
IERANGELOWERLIMIT	IQUANT	2	I/E Range Lower Limit
IERANGEMODE	TOGGLE	F	I/E AutoRange
IERANGE	IQUANT	11	I/E Range
POSFEEDENABLE	TOGGLE	F	Positive Feedback IR Comp
POSFEEDRESISTANCE	QUANT	0	Positive Feedback Resistance (ohm)
ACHSELECT	IQUANT	0	Ach Select
CABLEID	IQUANT	13	Cable ID
DCCALDATE	LABEL	7/31/2020	DC Calibration Date
ACCALDATE	LABEL	7/31/2020	AC Calibration Date
THERMOSELECT	IQUANT	1	Thermo Select
FRAMEWORKVERSION	QUANT	6.33	Framework Version
INSTRUMENTVERSION	LABEL	3.50	Instrument Version
COMPLIANCEVOLTAGE	IQUANT	0	Compliance Voltage
ZCURVE	TABLE
	Pt	Time	Freq	Zreal	Zimag	Zsig	Zmod	Zphz	Idc	Vdc	IERange
	#	s	Hz	ohm	ohm	V	ohm	°	A	V	#
	0	8	300046.9	181.8126	-11.47602	1	182.1744	-3.611721	6.868745E-006	0.0010431	9
	1	13	238359.4	183.5737	-12.57376	1	184.0038	-3.918316	-1.511682E-005	0.0009014	9
	2	16	189328.1	185.098	-14.19569	1	185.6416	-4.38559	-3.348391E-005	-0.0005724	9
	3	18	150421.9	186.7895	-16.12636	1	187.4844	-4.934361	1.922842E-005	-0.0012842	9
	4	21	119484.4	188.3236	-18.02636	1	189.1844	-5.467699	-9.06054E-005	0.0033832	9
	5	24	94921.88	190.6364	-20.44701	1	191.7298	-6.121945	2.000935E-005	-0.0001325	9
	6	26	75421.88	192.9775	-23.20251	1	194.3673	-6.856007	-9.542857E-006	-8.386394E-005	9
	7	29	59859.37	195.6661	-26.45596	1	197.4465	-7.70025	1.539133E-006	0.0005449	9
	8	31	47578.12	198.7202	-30.2299	1	201.0064	-8.649688	-2.45771E-005	0.0007794	9
	9	34	37828.12	201.7699	-34.37478	1	204.6771	-9.66844	-1.136224E-005	0.0008699	9
	10	37	30046.88	205.8148	-39.15717	1	209.5066	-10.77203	1.189333E-005	0.0002798	9
	11	39	23859.38	208.5851	-44.20485	1	213.2178	-11.96549	1.681894E-006	0.0005578	9
	12	41	18984.38	196.6992	-49.44927	1	202.8197	-14.11146	2.667518E-005	-0.0004675	9
	13	44	15046.87	193.2025	-54.85282	1	200.8383	-15.84997	1.65385E-006	0.0005501	9
	14	46	11953.13	199.8444	-63.72569	1	209.7588	-17.68626	2.574197E-005	-0.0004275	9
	15	48	9515.62	204.7954	-74.44184	1	217.9053	-19.97589	2.165183E-005	-0.0007658	9
	16	51	7546.875	210.0202	-87.81697	1	227.6407	-22.69155	2.459003E-005	-0.0006801	9
	17	53	5928.309	215.3042	-105.9333	1	239.9536	-26.19795	-2.302946E-005	0.0008783	9
	18	55	4733.456	221.5286	-127.9584	1	255.8286	-30.01141	1.484871E-005	-0.0007466	9
	19	59	3796.875	226.1084	-154.4128	1	273.8034	-34.32975	6.863264E-006	-0.0005811	9
	20	61	2987.132	232.2334	-190.915	1	300.6341	-39.42302	1.981106E-005	-7.090709E-005	9
	21	63	2390.625	238.5279	-232.8563	1	333.3431	-44.31066	1.472271E-005	-0.000742	9
	22	66	1884.191	245.6986	-291.1137	1	380.9396	-49.83579	-1.56403E-005	0.0009835	9
	23	68	1516.544	251.4419	-354.0954	1	434.2886	-54.62158	9.801318E-006	-0.0018347	8
	24	70	1193.986	261.0518	-443.1049	1	514.2859	-59.49586	6.708286E-006	-0.0027743	8
	25	73	946.5144	271.7209	-551.9684	1	615.2246	-63.79007	-2.512383E-006	0.0035198	8
	26	75	751.7689	285.857	-683.8126	1	741.1571	-67.31341	6.291254E-007	0.0026577	8
	27	78	597.4265	304.0079	-854.7452	1	907.199	-70.42101	-2.297407E-006	0.0034548	8
	28	80	477.4305	324.9185	-1056.133	1	1104.984	-72.89953	4.223407E-008	0.0006484	8
	29	82	376.6741	353.6789	-1322.289	1	1368.772	-75.02537	5.79535E-008	0.0006416	8
	30	85	298.2954	390.0864	-1648.948	1	1694.461	-76.69041	6.509669E-008	0.0006474	8
	31	87	237.7717	435.8965	-2042.652	1	2088.644	-77.95392	4.539184E-008	0.0006568	8
	32	89	189.0121	495.5835	-2535.681	1	2583.656	-78.94128	4.147163E-008	0.0006502	8
	33	92	150.2404	573.8129	-3145.536	1	3197.445	-79.66171	6.116695E-008	0.0006478	8
	34	94	119.1737	677.0493	-3908.952	1	3967.153	-80.17358	3.191147E-008	0.0006716	8
	35	96	95.0169	811.1991	-4840.744	1	4908.243	-80.48692	-8.795319E-009	0.0006317	7
	36	99	75.60484	988.161	-5989.641	1	6070.606	-80.63183	-7.601697E-009	0.0006283	7
	37	101	54.50582	1349.047	-8112.533	1	8223.936	-80.55858	-1.010407E-008	0.0006482	7
	38	104	45.95588	1608.883	-9491.699	1	9627.09	-80.37956	-5.636674E-009	0.0006254	7
	39	106	37.20238	2018.132	-11519.54	1	11694.98	-80.06307	-4.599782E-009	0.0006247	7
	40	109	30.04808	2567.222	-13984.65	1	14218.34	-79.59779	-1.160201E-008	0.00065	7
	41	111	23.91582	3353.247	-17186.54	1	17510.61	-78.95978	-7.052245E-009	0.0006139	7
	42	113	18.60119	4521.713	-21446.33	1	21917.83	-78.09422	-1.013906E-008	0.0006247	7
	43	116	15.02404	5866.612	-25851.59	1	26508.9	-77.21418	-1.11274E-008	0.0006185	7
	44	118	12.01923	7703.003	-31311.1	1	32244.71	-76.17884	-4.204755E-009	0.0006134	7
	45	121	9.450605	10322.78	-38300.52	1	39667.24	-74.91603	-1.32775E-008	0.0006535	7
	46	123	7.512019	13572.99	-46146.72	1	48101.41	-73.60997	-5.35967E-009	0.0006532	6
	47	126	5.978954	17748.61	-55294.5	1	58073.18	-72.20424	-2.401709E-009	0.0006649	6
	48	129	4.734848	23094.12	-66181.5	1	70095.14	-70.7635	-5.224043E-009	0.0006464	6
	49	132	3.75601	29776.06	-78533.14	1	83988.5	-69.23563	-2.04896E-009	0.0006766	6
	50	136	3.004808	37674.61	-92191.82	1	99592.7	-67.7724	-3.178413E-009	0.0006683	6
	51	139	2.372217	47991.84	-108618.4	1	118748.4	-66.1623	-4.330564E-009	0.0006093	6
	52	143	1.878005	60112.71	-127338.9	1	140814.5	-64.72946	-3.66814E-009	0.0006791	6
	53	148	1.512097	73250.69	-146501.9	1	163794	-63.43504	-4.23808E-009	0.0006565	6
	54	154	1.201923	90070	-169896.7	1	192295.3	-62.06989	-4.551147E-009	0.0006923	6
	55	160	0.956633	109280.2	-196049.1	1	224449.1	-60.86417	-6.241894E-009	2.812839E-005	6
