EXPLAIN
TAG	EISPOT
TITLE	LABEL	Potentiostatic EIS	Test Identifier
DATE	LABEL	8/24/2020	Date
TIME	LABEL	15:26:30	Time
NOTES	NOTES	1	Notes...
	
PSTAT	PSTAT	REF3000-16137	Potentiostat
VDC	POTEN	0.00000E+000	T	DC Voltage (V)
FREQINIT	QUANT	3.00000E+005	Initial Freq. (Hz)
FREQFINAL	QUANT	1.00000E+000	Final Freq. (Hz)
PTSPERDEC	QUANT	1.00000E+001	Points/decade
VAC	QUANT	5.00000E+001	AC Voltage (mV rms)
AREA	QUANT	1.00000E+000	Sample Area (cm^2)
SPEED	SELECTOR	2	Optimize for:
ZGUESS	QUANT	1.00000E+003	Estimated Z (ohms)
EOC	QUANT	0	Open Circuit (V)
SEQUENCER	TOGGLE	TRUE	Run as Sequence
PSTATMODEL	IQUANT	5	Pstat Model
PSTATSECTION	LABEL	REF3000-16137	Pstat Section
PSTATSERIALNO	LABEL	16137	Pstat Serial Number
CTRLMODE	IQUANT	1	Control Mode
IESTAB	IQUANT	0	I/E Stability
CASPEED	IQUANT	1	Control Amp Speed
CONVENTION	IQUANT	1	Current Convention
ICHRANGE	IQUANT	2	Ich Range
ICHRANGEMODE	TOGGLE	F	Ich Auto Range
ICHOFFSETENABLE	TOGGLE	T	Ich Offset Enable
ICHOFFSET	QUANT	0	Ich Offset (V)
ICHFILTER	IQUANT	3	Ich Filter
VCHRANGE	IQUANT	2	Vch Range
VCHRANGEMODE	TOGGLE	F	Vch Auto Range
VCHOFFSETENABLE	TOGGLE	T	Vch Offset Enable
VCHOFFSET	QUANT	0	Vch Offset (V)
VCHFILTER	IQUANT	3	Vch Filter
ACHRANGE	IQUANT	2	Ach Range
ACHOFFSETENABLE	TOGGLE	F	Ach Offset Enable
ACHOFFSET	QUANT	0	Ach Offset (V)
ACHFILTER	IQUANT	3	Ach Filter
IERANGELOWERLIMIT	IQUANT	2	I/E Range Lower Limit
IERANGEMODE	TOGGLE	F	I/E AutoRange
IERANGE	IQUANT	11	I/E Range
POSFEEDENABLE	TOGGLE	F	Positive Feedback IR Comp
POSFEEDRESISTANCE	QUANT	0	Positive Feedback Resistance (ohm)
ACHSELECT	IQUANT	0	Ach Select
CABLEID	IQUANT	13	Cable ID
DCCALDATE	LABEL	7/31/2020	DC Calibration Date
ACCALDATE	LABEL	7/31/2020	AC Calibration Date
THERMOSELECT	IQUANT	1	Thermo Select
FRAMEWORKVERSION	QUANT	6.33	Framework Version
INSTRUMENTVERSION	LABEL	3.50	Instrument Version
COMPLIANCEVOLTAGE	IQUANT	0	Compliance Voltage
ZCURVE	TABLE
	Pt	Time	Freq	Zreal	Zimag	Zsig	Zmod	Zphz	Idc	Vdc	IERange
	#	s	Hz	ohm	ohm	V	ohm	°	A	V	#
	0	7	300046.9	155.5959	-9.322491	1	155.8749	-3.428765	-9.423682E-005	0.0032337	9
	1	10	238359.4	156.5322	-10.4063	1	156.8777	-3.803442	2.338194E-005	-0.0014992	9
	2	13	189328.1	158.2491	-12.72825	1	158.7601	-4.598502	1.588683E-005	-0.0012044	9
	3	16	150421.9	159.5648	-14.28593	1	160.203	-5.116084	-1.522177E-005	0.001018	9
	4	18	119484.4	161.4118	-16.41846	1	162.2447	-5.808028	-1.478848E-005	0.001429	9
	5	21	94921.88	163.2929	-18.42927	1	164.3295	-6.439168	-2.150642E-005	0.0004752	9
	6	24	75421.88	165.5026	-21.1701	1	166.8511	-7.289347	2.55025E-005	-0.0005142	9
	7	26	59859.37	167.9022	-24.25276	1	169.6448	-8.219283	2.368597E-006	0.0005932	9
	8	29	47578.12	170.7468	-27.72066	1	172.9824	-9.221486	-7.619029E-006	0.000783	9
	9	31	37828.12	173.5211	-31.62557	1	176.3796	-10.32922	2.354746E-005	-0.0001968	9
	10	34	30046.88	176.9497	-36.12139	1	180.5989	-11.53748	-1.524384E-005	0.0001545	9
	11	36	23859.38	180.3342	-41.29106	1	185.001	-12.89668	2.050388E-005	-7.469623E-005	9
	12	39	18984.38	183.8194	-47.37233	1	189.8255	-14.45132	1.463772E-005	-0.0007145	9
	13	41	15046.87	187.0284	-54.47174	1	194.7993	-16.23813	-1.453116E-005	0.0001872	9
	14	43	11953.13	190.4661	-63.49449	1	200.7707	-18.43652	1.444867E-005	-0.0007328	9
	15	46	9515.62	193.3099	-74.68933	1	207.2371	-21.12509	-7.297375E-006	0.0007742	9
	16	48	7546.875	196.0513	-88.81809	1	215.2319	-24.37218	-1.125064E-006	0.0005642	9
	17	50	5928.309	198.4682	-108.0485	1	225.9737	-28.5644	-1.551218E-005	0.0001676	9
	18	53	4733.456	200.7622	-131.6627	1	240.0844	-33.25744	2.72738E-005	-0.0006472	9
	19	55	3796.875	203.5425	-160.0011	1	258.9014	-38.17024	1.243157E-005	0.0002654	9
	20	58	2987.132	206.3866	-198.9676	1	286.6766	-43.95146	-1.410454E-006	-0.0003515	9
	21	61	2390.625	210.1433	-245.4107	1	323.0892	-49.42681	-1.840464E-005	0.0003671	9
	22	63	1884.191	215.9336	-307.5811	1	375.8103	-54.92969	2.46806E-005	-0.0002867	9
	23	65	1516.544	220.1666	-377.3596	1	436.8908	-59.73901	-9.511843E-006	-6.782908E-005	9
	24	68	1193.986	227.3077	-472.1319	1	524.0013	-64.29153	1.257834E-006	-0.0015163	8
	25	70	946.5144	237.4893	-588.2518	1	634.3827	-68.01506	4.059464E-006	-0.0022451	8
	26	73	751.7689	247.2422	-733.7865	1	774.3199	-71.37926	-7.906457E-006	0.0036459	8
	27	75	597.4265	263.6844	-913.3385	1	950.64	-73.89636	6.174272E-006	-0.0024156	8
	28	77	477.4305	286.8431	-1131.973	1	1167.751	-75.7805	8.332479E-008	0.0006527	8
	29	79	376.6741	316.4612	-1418.288	1	1453.165	-77.42169	1.096158E-007	0.0006446	8
	30	82	298.2954	355.1899	-1769.745	1	1805.037	-78.65144	8.369754E-008	0.0006563	8
	31	84	237.7717	405.0094	-2193.079	1	2230.163	-79.53673	1.03177E-007	0.0006425	8
	32	87	189.0121	471.6332	-2723.338	1	2763.876	-80.17485	9.835185E-008	0.0006471	8
	33	89	150.2404	560.6682	-3380.226	1	3426.409	-80.58226	8.976036E-008	0.000654	8
	34	91	119.1737	680.7704	-4198.65	1	4253.482	-80.79019	8.931994E-008	0.0006565	8
	35	94	95.0169	841.8539	-5198.091	1	5265.821	-80.80057	-4.357061E-010	0.0006197	7
	36	96	75.60484	1056.725	-6425.661	1	6511.972	-80.66107	-1.816345E-009	0.000627	7
	37	99	54.50582	1503.667	-8682.546	1	8811.788	-80.17481	-8.384282E-009	0.0006777	7
	38	101	45.95588	1820.895	-10140.35	1	10302.55	-79.81994	3.956203E-010	0.0006304	7
	39	104	37.20238	2331.772	-12275.33	1	12494.84	-79.24448	-1.06452E-010	0.0006294	7
	40	106	30.04808	3015.381	-14855.69	1	15158.63	-78.52609	-5.247776E-010	0.0006208	7
	41	109	23.91582	3973.632	-18140.21	1	18570.33	-77.64445	2.402319E-010	0.0006223	7
	42	111	18.60119	5418.347	-22557.68	1	23199.29	-76.49345	5.396665E-009	0.0006176	7
	43	113	15.02404	7049.632	-27014.98	1	27919.64	-75.37466	-1.046296E-009	0.0006305	7
	44	115	12.01923	9259.874	-32484.45	1	33778.47	-74.0895	3.369627E-009	0.0006194	7
	45	118	9.450605	12380.86	-39368.25	1	41269.18	-72.54224	-2.921164E-009	0.0006162	7
	46	120	7.512019	16212.26	-47002.81	1	49720.23	-70.9696	-7.77346E-009	0.0006786	6
	47	123	5.978954	20942.67	-55762	1	59565.06	-69.41521	-6.466951E-009	0.0006689	6
	48	126	4.734848	27062.44	-65991.52	1	71325	-67.70197	-5.156345E-009	0.0006452	6
	49	129	3.75601	34487.84	-77523.79	1	84848.98	-66.01726	-4.27185E-009	0.0006856	6
	50	133	3.004808	43100.76	-89943.92	1	99737.6	-64.39645	-3.09509E-009	0.0006426	6
	51	137	2.372217	54150.45	-104744.7	1	117914.1	-62.66215	-5.493018E-009	0.0006	6
	52	141	1.878005	67060.42	-120786.7	1	138154	-60.9611	-4.511447E-009	0.0006871	6
	53	146	1.512097	80901.47	-137125.5	1	159212	-59.46019	-4.439473E-009	0.0005936	6
	54	151	1.201923	97940.3	-156840.8	1	184909	-58.01702	-5.007002E-009	0.0006932	6
	55	157	0.956633	117361.9	-178422.1	1	213560.9	-56.66401	-6.467552E-009	2.91526E-005	6
