EXPLAIN
TAG	EISPOT
TITLE	LABEL	Potentiostatic EIS	Test Identifier
DATE	LABEL	8/24/2020	Date
TIME	LABEL	15:41:42	Time
NOTES	NOTES	1	Notes...
	
PSTAT	PSTAT	REF3000-16137	Potentiostat
VDC	POTEN	0.00000E+000	T	DC Voltage (V)
FREQINIT	QUANT	3.00000E+005	Initial Freq. (Hz)
FREQFINAL	QUANT	1.00000E+000	Final Freq. (Hz)
PTSPERDEC	QUANT	1.00000E+001	Points/decade
VAC	QUANT	5.00000E+001	AC Voltage (mV rms)
AREA	QUANT	1.00000E+000	Sample Area (cm^2)
SPEED	SELECTOR	2	Optimize for:
ZGUESS	QUANT	1.00000E+003	Estimated Z (ohms)
EOC	QUANT	0	Open Circuit (V)
SEQUENCER	TOGGLE	TRUE	Run as Sequence
PSTATMODEL	IQUANT	5	Pstat Model
PSTATSECTION	LABEL	REF3000-16137	Pstat Section
PSTATSERIALNO	LABEL	16137	Pstat Serial Number
CTRLMODE	IQUANT	1	Control Mode
IESTAB	IQUANT	0	I/E Stability
CASPEED	IQUANT	1	Control Amp Speed
CONVENTION	IQUANT	1	Current Convention
ICHRANGE	IQUANT	2	Ich Range
ICHRANGEMODE	TOGGLE	F	Ich Auto Range
ICHOFFSETENABLE	TOGGLE	T	Ich Offset Enable
ICHOFFSET	QUANT	0	Ich Offset (V)
ICHFILTER	IQUANT	3	Ich Filter
VCHRANGE	IQUANT	2	Vch Range
VCHRANGEMODE	TOGGLE	F	Vch Auto Range
VCHOFFSETENABLE	TOGGLE	T	Vch Offset Enable
VCHOFFSET	QUANT	0	Vch Offset (V)
VCHFILTER	IQUANT	3	Vch Filter
ACHRANGE	IQUANT	2	Ach Range
ACHOFFSETENABLE	TOGGLE	F	Ach Offset Enable
ACHOFFSET	QUANT	0	Ach Offset (V)
ACHFILTER	IQUANT	3	Ach Filter
IERANGELOWERLIMIT	IQUANT	2	I/E Range Lower Limit
IERANGEMODE	TOGGLE	F	I/E AutoRange
IERANGE	IQUANT	11	I/E Range
POSFEEDENABLE	TOGGLE	F	Positive Feedback IR Comp
POSFEEDRESISTANCE	QUANT	0	Positive Feedback Resistance (ohm)
ACHSELECT	IQUANT	0	Ach Select
CABLEID	IQUANT	13	Cable ID
DCCALDATE	LABEL	7/31/2020	DC Calibration Date
ACCALDATE	LABEL	7/31/2020	AC Calibration Date
THERMOSELECT	IQUANT	1	Thermo Select
FRAMEWORKVERSION	QUANT	6.33	Framework Version
INSTRUMENTVERSION	LABEL	3.50	Instrument Version
COMPLIANCEVOLTAGE	IQUANT	0	Compliance Voltage
ZCURVE	TABLE
	Pt	Time	Freq	Zreal	Zimag	Zsig	Zmod	Zphz	Idc	Vdc	IERange
	#	s	Hz	ohm	ohm	V	ohm	°	A	V	#
	0	14	300046.9	816.6295	-150.3851	1	830.361	-10.43431	-3.253775E-005	-0.0011435	9
	1	35	238359.4	841.9592	-128.514	1	851.7107	-8.678464	-2.100981E-005	0.0014472	9
	2	51	189328.1	865.3199	-122.8237	1	873.9932	-8.078608	-2.13007E-005	0.0015106	9
	3	65	150421.9	877.4056	-108.1492	1	884.0457	-7.026849	-1.890686E-005	0.0011398	9
	4	72	119484.4	899.2281	-66.06743	1	901.6519	-4.202043	-6.808823E-006	0.0110987	8
	5	77	94921.88	903.9308	-61.32341	1	906.0085	-3.881046	1.432427E-005	-0.0005171	8
	6	80	75421.88	912.0367	-61.59725	1	914.1144	-3.863782	-1.902663E-005	0.0074042	8
	7	83	59859.37	919.3721	-64.88475	1	921.6589	-4.03696	-1.322789E-005	0.0083412	8
	8	85	47578.12	925.786	-69.4327	1	928.386	-4.289076	8.136554E-006	0.0024453	8
	9	88	37828.12	934.9726	-76.52179	1	938.0988	-4.678881	1.115057E-005	-0.0066802	8
	10	90	30046.88	944.4854	-81.37563	1	947.9846	-4.924369	-1.325068E-005	0.0082895	8
	11	93	23859.38	956.576	-90.08846	1	960.809	-5.380136	-7.069355E-006	0.0072162	8
	12	96	18984.38	967.25	-101.2919	1	972.539	-5.978309	-7.303091E-006	0.0072097	8
	13	98	15046.87	983.004	-115.9657	1	989.821	-6.728127	1.960082E-005	-0.0067177	8
	14	102	11953.13	999.023	-130.0353	1	1007.451	-7.416062	-9.04231E-006	-0.0006668	8
	15	104	9515.62	1014.717	-147.9213	1	1025.442	-8.293922	-8.904778E-006	-0.000671	8
	16	107	7546.875	1033.141	-168.9855	1	1046.869	-9.289317	-1.315713E-005	0.0081095	8
	17	110	5928.309	1052.528	-194.1106	1	1070.277	-10.44926	-1.695483E-005	0.0082296	8
	18	113	4733.456	1080.515	-223.0298	1	1103.293	-11.66267	1.089155E-005	-0.0064707	8
	19	116	3796.875	1102.479	-250.3622	1	1130.549	-12.79433	1.996235E-005	-0.0040788	8
	20	120	2987.132	1132.922	-287.6429	1	1168.867	-14.24608	-1.357355E-005	0.0013918	8
	21	123	2390.625	1157.399	-328.1474	1	1203.018	-15.82917	1.995977E-005	-0.0041561	8
	22	126	1884.191	1180.952	-382.6838	1	1241.409	-17.95475	1.890612E-005	-0.0066653	8
	23	130	1516.544	1208.998	-441.0002	1	1286.918	-20.0402	1.068773E-005	-0.0064546	8
	24	133	1193.986	1233.932	-520.7241	1	1339.307	-22.87993	1.847354E-005	-0.0025606	8
	25	137	946.5144	1253.041	-623.2545	1	1399.485	-26.44545	1.847671E-005	-0.0027219	8
	26	140	751.7689	1276.94	-747.1586	1	1479.467	-30.33261	-2.374759E-007	0.0056024	8
	27	143	597.4265	1295.7	-915.9363	1	1586.751	-35.25666	1.071142E-005	-0.0064436	8
	28	145	477.4305	1320.254	-1117.045	1	1729.411	-40.234	-2.608755E-007	0.0006374	8
	29	148	376.6741	1347.066	-1386.85	1	1933.375	-45.83371	-2.226147E-007	0.0006277	8
	30	150	298.2954	1379.253	-1722.288	1	2206.494	-51.31134	-2.293943E-007	0.0006314	8
	31	152	237.7717	1418.442	-2130.652	1	2559.62	-56.34704	-2.696836E-007	0.0006451	8
	32	155	189.0121	1468.646	-2646.439	1	3026.642	-60.97183	-2.310859E-007	0.0006324	8
	33	157	150.2404	1533.358	-3288.877	1	3628.76	-65.00387	-2.658601E-007	0.0006657	8
	34	160	119.1737	1623.367	-4104.715	1	4414.069	-68.42178	-4.772534E-008	0.0006072	7
	35	162	95.0169	1730.9	-5086.734	1	5373.163	-71.20773	-5.345731E-008	0.0006168	7
	36	164	75.60484	1874.461	-6315.772	1	6588.064	-73.46961	-5.492768E-008	0.0006243	7
	37	167	54.50582	2163.677	-8601.969	1	8869.913	-75.88113	-4.89766E-008	0.0006012	7
	38	169	45.95588	2369.522	-10100.31	1	10374.53	-76.79723	-5.741901E-008	0.000666	7
	39	172	37.20238	2696.405	-12316.43	1	12608.14	-77.65121	-5.194922E-008	0.0006344	7
	40	174	30.04808	3131.359	-15037.25	1	15359.83	-78.23683	-4.901941E-008	0.000604	7
	41	177	23.91582	3759.107	-18596.42	1	18972.55	-78.57214	-5.51134E-008	0.0006355	7
	42	179	18.60119	4703.245	-23432.86	1	23900.2	-78.65087	-5.441026E-008	0.0006221	7
	43	181	15.02404	5794.345	-28496.07	1	29079.21	-78.50627	-5.617751E-008	0.0006099	7
	44	184	12.01923	7347.487	-34852.67	1	35618.73	-78.09547	-5.344278E-008	0.0006572	7
	45	186	9.450605	9559.92	-43176.05	1	44221.75	-77.51515	-5.29363E-008	0.0006691	7
	46	189	7.512019	12453.08	-52771.36	1	54220.8	-76.72215	-4.579916E-009	0.0006547	6
	47	191	5.978954	16184.4	-64164.07	1	66173.73	-75.84332	-5.18034E-009	0.0006904	6
	48	194	4.734848	21261.27	-78073.2	1	80916.41	-74.76634	-6.276327E-009	0.0006591	6
	49	198	3.75601	27637.94	-94336.06	1	98301.3	-73.67083	-8.242778E-009	0.0006702	6
	50	202	3.004808	35501.56	-112662.4	1	118123.6	-72.50961	-6.667578E-009	0.0006843	6
	51	206	2.372217	46018.87	-135116.2	1	142737.9	-71.1918	-7.243603E-009	0.0006917	6
	52	210	1.878005	58979.46	-161564.9	1	171993.6	-69.94534	-7.907827E-009	0.0006596	6
	53	215	1.512097	73131.03	-189488.8	1	203111.2	-68.89648	-7.199988E-009	0.0005872	6
	54	220	1.201923	91856.85	-223810.1	1	241926.9	-67.68562	-7.609704E-009	0.0006465	6
	55	226	0.956633	113843.2	-262968.3	1	286553	-66.59144	-7.765648E-009	2.514551E-005	6
