EXPLAIN
TAG	EISPOT
TITLE	LABEL	Potentiostatic EIS	Test Identifier
DATE	LABEL	8/24/2020	Date
TIME	LABEL	18:30:41	Time
NOTES	NOTES	1	Notes...
	
PSTAT	PSTAT	REF3000-16137	Potentiostat
VDC	POTEN	0.00000E+000	T	DC Voltage (V)
FREQINIT	QUANT	3.00000E+005	Initial Freq. (Hz)
FREQFINAL	QUANT	1.00000E+000	Final Freq. (Hz)
PTSPERDEC	QUANT	1.00000E+001	Points/decade
VAC	QUANT	5.00000E+001	AC Voltage (mV rms)
AREA	QUANT	1.00000E+000	Sample Area (cm^2)
SPEED	SELECTOR	2	Optimize for:
ZGUESS	QUANT	1.00000E+003	Estimated Z (ohms)
EOC	QUANT	0	Open Circuit (V)
SEQUENCER	TOGGLE	TRUE	Run as Sequence
PSTATMODEL	IQUANT	5	Pstat Model
PSTATSECTION	LABEL	REF3000-16137	Pstat Section
PSTATSERIALNO	LABEL	16137	Pstat Serial Number
CTRLMODE	IQUANT	1	Control Mode
IESTAB	IQUANT	0	I/E Stability
CASPEED	IQUANT	1	Control Amp Speed
CONVENTION	IQUANT	1	Current Convention
ICHRANGE	IQUANT	2	Ich Range
ICHRANGEMODE	TOGGLE	F	Ich Auto Range
ICHOFFSETENABLE	TOGGLE	T	Ich Offset Enable
ICHOFFSET	QUANT	0	Ich Offset (V)
ICHFILTER	IQUANT	3	Ich Filter
VCHRANGE	IQUANT	2	Vch Range
VCHRANGEMODE	TOGGLE	F	Vch Auto Range
VCHOFFSETENABLE	TOGGLE	T	Vch Offset Enable
VCHOFFSET	QUANT	0	Vch Offset (V)
VCHFILTER	IQUANT	3	Vch Filter
ACHRANGE	IQUANT	2	Ach Range
ACHOFFSETENABLE	TOGGLE	F	Ach Offset Enable
ACHOFFSET	QUANT	0	Ach Offset (V)
ACHFILTER	IQUANT	3	Ach Filter
IERANGELOWERLIMIT	IQUANT	2	I/E Range Lower Limit
IERANGEMODE	TOGGLE	F	I/E AutoRange
IERANGE	IQUANT	11	I/E Range
POSFEEDENABLE	TOGGLE	F	Positive Feedback IR Comp
POSFEEDRESISTANCE	QUANT	0	Positive Feedback Resistance (ohm)
ACHSELECT	IQUANT	0	Ach Select
CABLEID	IQUANT	13	Cable ID
DCCALDATE	LABEL	7/31/2020	DC Calibration Date
ACCALDATE	LABEL	7/31/2020	AC Calibration Date
THERMOSELECT	IQUANT	1	Thermo Select
FRAMEWORKVERSION	QUANT	6.33	Framework Version
INSTRUMENTVERSION	LABEL	3.50	Instrument Version
COMPLIANCEVOLTAGE	IQUANT	0	Compliance Voltage
ZCURVE	TABLE
	Pt	Time	Freq	Zreal	Zimag	Zsig	Zmod	Zphz	Idc	Vdc	IERange
	#	s	Hz	ohm	ohm	V	ohm	°	A	V	#
	0	7	300046.9	88.30602	-4.774357	1	88.43499	-3.094743	-5.598283E-005	0.0007119	9
	1	10	238359.4	88.84189	-6.220268	1	89.05938	-4.00503	-6.542871E-005	0.0025741	9
	2	14	189328.1	89.73895	-7.363005	1	90.0405	-4.690564	6.871913E-005	-0.0025864	9
	3	16	150421.9	90.32343	-9.116261	1	90.78232	-5.763294	-6.998653E-005	0.001881	9
	4	19	119484.4	91.6591	-10.70072	1	92.28162	-6.658839	-9.48532E-006	0.0010343	9
	5	21	94921.88	92.87808	-12.19261	1	93.67496	-7.478763	1.189368E-005	8.343047E-005	9
	6	24	75421.88	94.15048	-14.26171	1	95.2245	-8.613561	2.26048E-005	-0.0003643	9
	7	26	59859.37	95.6259	-16.57968	1	97.0526	-9.83619	-1.264366E-005	0.0007484	9
	8	29	47578.12	97.256	-19.13309	1	99.1201	-11.12963	-1.062922E-005	1.357615E-005	9
	9	31	37828.12	99.0075	-22.01056	1	101.4246	-12.53371	-1.197504E-005	0.0007578	9
	10	34	30046.88	100.7939	-25.34905	1	103.9326	-14.11678	-2.057571E-005	0.0007645	9
	11	36	23859.38	102.5386	-29.33521	1	106.6523	-15.96526	-1.478388E-005	0.0001733	9
	12	39	18984.38	104.1888	-34.13108	1	109.6368	-18.13822	-2.011211E-005	0.0006125	9
	13	41	15046.87	105.841	-40.21478	1	113.2234	-20.80452	-4.05967E-006	0.0006885	9
	14	43	11953.13	107.2789	-47.96651	1	117.514	-24.09036	2.305469E-005	-0.0002761	9
	15	46	9515.62	108.7727	-57.67564	1	123.1177	-27.93433	-2.008501E-005	0.0006284	9
	16	48	7546.875	110.0252	-70.2524	1	130.541	-32.55871	2.329537E-005	-0.000681	9
	17	50	5928.309	111.9871	-86.8937	1	141.7449	-37.80882	-1.475146E-005	0.000197	9
	18	52	4733.456	113.8845	-106.624	1	156.0076	-43.11415	2.444403E-005	-0.0004743	9
	19	55	3796.875	116.2244	-130.5147	1	174.7632	-48.31469	6.719767E-006	-0.0004767	9
	20	57	2987.132	119.4477	-163.1259	1	202.1826	-53.78683	2.427154E-005	-0.000477	9
	21	59	2390.625	123.8063	-200.0517	1	235.263	-58.24781	-5.082245E-006	-0.0001971	9
	22	62	1884.191	128.686	-251.7061	1	282.6942	-62.92139	-1.98901E-005	0.0007817	9
	23	64	1516.544	135.5972	-308.0662	1	336.5879	-66.24301	-1.429317E-005	0.0001955	9
	24	66	1193.986	144.8068	-385.1046	1	411.4299	-69.39277	-1.497158E-005	0.0002019	9
	25	69	946.5144	154.8709	-477.8177	1	502.2895	-72.04139	2.94211E-006	-0.0011663	8
	26	71	751.7689	170.3023	-591.7381	1	615.7571	-73.94417	-5.299583E-006	0.0020928	8
	27	74	597.4265	191.1651	-732.7145	1	757.2415	-75.3775	5.474273E-006	-0.0014308	8
	28	76	477.4305	217.5736	-901.9753	1	927.8458	-76.43824	1.672232E-007	0.0006963	8
	29	78	376.6741	254.1943	-1122.477	1	1150.899	-77.2401	2.169686E-007	0.0006484	8
	30	81	298.2954	302.1888	-1390.679	1	1423.132	-77.74045	2.091739E-007	0.0006451	8
	31	83	237.7717	363.9101	-1710.66	1	1748.94	-77.99045	2.186931E-007	0.000641	8
	32	85	189.0121	446.9171	-2107.308	1	2154.177	-78.02615	2.237616E-007	0.0006392	8
	33	88	150.2404	558.1555	-2592.242	1	2651.652	-77.84872	2.025004E-007	0.0006531	8
	34	90	119.1737	709.1822	-3189.674	1	3267.562	-77.46494	2.072021E-007	0.0006544	8
	35	93	95.0169	908.7616	-3899.801	1	4004.285	-76.88258	2.147018E-007	0.000643	8
	36	95	75.60484	1184.399	-4773.563	1	4918.303	-76.06538	-6.501506E-009	0.0006153	7
	37	98	54.50582	1752.793	-6318.558	1	6557.168	-74.49577	-2.685892E-009	0.000602	7
	38	100	45.95588	2162.417	-7292.029	1	7605.902	-73.48252	2.422147E-009	0.000614	7
	39	103	37.20238	2815.688	-8665.476	1	9111.452	-71.99938	-1.046076E-009	0.0006202	7
	40	105	30.04808	3674.285	-10242.47	1	10881.57	-70.26554	-5.50934E-009	0.0006216	7
	41	107	23.91582	4896.227	-12168.67	1	13116.77	-68.08195	-1.007578E-008	0.000616	7
	42	110	18.60119	6661.357	-14515.98	1	15971.46	-65.3497	4.377104E-009	0.0006113	7
	43	112	15.02404	8600.051	-16660.45	1	18749.17	-62.69742	9.14942E-009	0.000624	7
	44	114	12.01923	11108.41	-18946.68	1	21963	-59.61696	1.736375E-009	0.0006214	7
	45	117	9.450605	14407.34	-21344.92	1	25752.22	-55.98154	5.62322E-009	0.000607	7
	46	119	7.512019	18105.57	-23444.22	1	29621.67	-52.3217	5.812485E-009	0.0006104	7
	47	122	5.978954	22273.68	-25004.4	1	33486.37	-48.30566	5.290634E-009	0.0006255	7
	48	125	4.734848	26856.88	-26123.73	1	37466.54	-44.20718	2.913529E-009	0.0006505	7
	49	128	3.75601	31548.93	-26682.38	1	41319.3	-40.22273	-1.970453E-008	0.0007297	6
	50	132	3.004808	35859.68	-26127	1	44368.2	-36.0767	-2.624468E-008	0.000677	6
	51	138	2.372217	40185.36	-25308.15	1	47490.68	-32.20212	-2.580818E-008	0.000605	6
	52	142	1.878005	43589.92	-23206.37	1	49382.35	-28.02991	-2.717005E-008	0.0006559	6
	53	151	1.512097	46174.47	-21509.33	1	50938.53	-24.97739	-3.095158E-008	0.0007108	6
	54	162	1.201923	48509.7	-19570.59	1	52308.69	-21.97095	-3.381351E-008	0.0006731	6
	55	175	0.956633	50737.46	-17879.78	1	53795.7	-19.41236	-5.83453E-008	2.700716E-005	6
