EXPLAIN
TAG	EISPOT
TITLE	LABEL	Potentiostatic EIS	Test Identifier
DATE	LABEL	8/24/2020	Date
TIME	LABEL	15:04:28	Time
NOTES	NOTES	1	Notes...
	
PSTAT	PSTAT	REF3000-16137	Potentiostat
VDC	POTEN	0.00000E+000	T	DC Voltage (V)
FREQINIT	QUANT	3.00000E+005	Initial Freq. (Hz)
FREQFINAL	QUANT	1.00000E+000	Final Freq. (Hz)
PTSPERDEC	QUANT	1.00000E+001	Points/decade
VAC	QUANT	5.00000E+001	AC Voltage (mV rms)
AREA	QUANT	1.00000E+000	Sample Area (cm^2)
SPEED	SELECTOR	2	Optimize for:
ZGUESS	QUANT	1.00000E+003	Estimated Z (ohms)
EOC	QUANT	0	Open Circuit (V)
SEQUENCER	TOGGLE	TRUE	Run as Sequence
PSTATMODEL	IQUANT	5	Pstat Model
PSTATSECTION	LABEL	REF3000-16137	Pstat Section
PSTATSERIALNO	LABEL	16137	Pstat Serial Number
CTRLMODE	IQUANT	1	Control Mode
IESTAB	IQUANT	0	I/E Stability
CASPEED	IQUANT	1	Control Amp Speed
CONVENTION	IQUANT	1	Current Convention
ICHRANGE	IQUANT	2	Ich Range
ICHRANGEMODE	TOGGLE	F	Ich Auto Range
ICHOFFSETENABLE	TOGGLE	T	Ich Offset Enable
ICHOFFSET	QUANT	0	Ich Offset (V)
ICHFILTER	IQUANT	3	Ich Filter
VCHRANGE	IQUANT	2	Vch Range
VCHRANGEMODE	TOGGLE	F	Vch Auto Range
VCHOFFSETENABLE	TOGGLE	T	Vch Offset Enable
VCHOFFSET	QUANT	0	Vch Offset (V)
VCHFILTER	IQUANT	3	Vch Filter
ACHRANGE	IQUANT	2	Ach Range
ACHOFFSETENABLE	TOGGLE	F	Ach Offset Enable
ACHOFFSET	QUANT	0	Ach Offset (V)
ACHFILTER	IQUANT	3	Ach Filter
IERANGELOWERLIMIT	IQUANT	2	I/E Range Lower Limit
IERANGEMODE	TOGGLE	F	I/E AutoRange
IERANGE	IQUANT	11	I/E Range
POSFEEDENABLE	TOGGLE	F	Positive Feedback IR Comp
POSFEEDRESISTANCE	QUANT	0	Positive Feedback Resistance (ohm)
ACHSELECT	IQUANT	0	Ach Select
CABLEID	IQUANT	13	Cable ID
DCCALDATE	LABEL	7/31/2020	DC Calibration Date
ACCALDATE	LABEL	7/31/2020	AC Calibration Date
THERMOSELECT	IQUANT	1	Thermo Select
FRAMEWORKVERSION	QUANT	6.33	Framework Version
INSTRUMENTVERSION	LABEL	3.50	Instrument Version
COMPLIANCEVOLTAGE	IQUANT	0	Compliance Voltage
ZCURVE	TABLE
	Pt	Time	Freq	Zreal	Zimag	Zsig	Zmod	Zphz	Idc	Vdc	IERange
	#	s	Hz	ohm	ohm	V	ohm	°	A	V	#
	0	7	300046.9	102.879	-6.108574	1	103.0602	-3.398021	1.254591E-005	-0.0011485	9
	1	10	238359.4	103.5973	-7.471282	1	103.8664	-4.124943	1.157864E-005	0.0005525	9
	2	13	189328.1	104.5104	-8.819671	1	104.8819	-4.823783	7.167672E-005	-0.0023903	9
	3	16	150421.9	105.8754	-10.41885	1	106.3868	-5.620195	-8.162432E-005	0.0029808	9
	4	18	119484.4	107.0805	-12.26478	1	107.7806	-6.534066	1.566622E-005	-0.0011284	9
	5	21	94921.88	108.4902	-13.94861	1	109.3832	-7.326342	-1.474294E-005	0.0001656	9
	6	24	75421.88	110.0013	-16.27705	1	111.199	-8.417062	2.282217E-005	-0.0006994	9
	7	26	59859.37	111.8502	-18.78353	1	113.4165	-9.533	1.287556E-005	-0.0006857	9
	8	29	47578.12	113.7404	-21.64657	1	115.7819	-10.77542	2.521357E-005	-0.0004743	9
	9	31	37828.12	115.9139	-24.82274	1	118.542	-12.08722	3.514363E-006	0.000492	9
	10	34	30046.88	118.0956	-28.51346	1	121.4891	-13.57393	1.961153E-005	-0.0001171	9
	11	36	23859.38	120.3061	-32.80263	1	124.6979	-15.25151	-8.605783E-006	0.0007397	9
	12	38	18984.38	122.4667	-37.97179	1	128.2184	-17.22647	2.007063E-005	-0.0008224	9
	13	41	15046.87	124.3944	-44.56624	1	132.1368	-19.71085	-2.44566E-006	-0.0002369	9
	14	43	11953.13	126.4735	-52.73486	1	137.0274	-22.63436	-1.111316E-005	5.913001E-005	9
	15	45	9515.62	128.101	-63.17598	1	142.8323	-26.25127	2.275049E-006	0.0004679	9
	16	48	7546.875	129.666	-76.65826	1	150.6312	-30.59148	1.234978E-005	0.0002202	9
	17	50	5928.309	131.6196	-94.47889	1	162.0184	-35.67146	-1.794268E-005	0.0008752	9
	18	52	4733.456	133.3297	-115.7197	1	176.5442	-40.95543	2.272261E-005	-0.0002751	9
	19	55	3796.875	136.0058	-141.2816	1	196.1073	-46.09	1.965364E-005	-0.0007473	9
	20	57	2987.132	139.2074	-176.7255	1	224.968	-51.77234	1.949068E-005	-0.0007328	9
	21	59	2390.625	142.4211	-218.3752	1	260.7134	-56.8882	-2.103587E-005	0.0007832	9
	22	62	1884.191	147.3412	-272.6406	1	309.907	-61.61219	2.340044E-005	-0.0002941	9
	23	64	1516.544	154.3216	-334.3528	1	368.2485	-65.22417	5.324804E-006	-0.0004933	9
	24	66	1193.986	161.8439	-418.1332	1	448.3624	-68.84042	6.944458E-006	-0.0015248	8
	25	69	946.5144	173.1746	-521.0377	1	549.0626	-71.61501	6.023127E-006	-0.0016702	8
	26	71	751.7689	187.3968	-648.3564	1	674.8953	-73.87893	7.330002E-006	-0.0012387	8
	27	73	597.4265	207.6213	-804.2032	1	830.5718	-75.52402	-3.301889E-006	0.0005659	8
	28	76	477.4305	229.9989	-992.575	1	1018.874	-76.9537	1.871435E-007	0.0006552	8
	29	78	376.6741	263.9036	-1239.721	1	1267.499	-77.98263	1.694289E-007	0.0006508	8
	30	80	298.2954	308.5253	-1542.05	1	1572.611	-78.68595	1.722844E-007	0.0006466	8
	31	83	237.7717	366.5544	-1904.103	1	1939.064	-79.10342	1.857156E-007	0.0006448	8
	32	85	189.0121	444.9407	-2353.737	1	2395.423	-79.29536	1.753086E-007	0.000651	8
	33	87	150.2404	550.2401	-2907.584	1	2959.191	-79.2839	1.751962E-007	0.0006541	8
	34	90	119.1737	693.4254	-3593.504	1	3659.796	-79.07809	2.008706E-007	0.0006458	8
	35	92	95.0169	883.3095	-4420.59	1	4507.977	-78.70014	1.060536E-009	0.0006178	7
	36	95	75.60484	1136.949	-5424.471	1	5542.341	-78.16238	-2.94373E-009	0.0006137	7
	37	97	54.50582	1656.329	-7241.685	1	7428.689	-77.11683	-3.720063E-009	0.0006212	7
	38	100	45.95588	2029.554	-8401.242	1	8642.914	-76.41882	4.623853E-009	0.0006184	7
	39	102	37.20238	2614.886	-10065.26	1	10399.38	-75.43689	1.775372E-009	0.0006149	7
	40	105	30.04808	3392.275	-12043.11	1	12511.75	-74.26865	-4.000818E-009	0.0006242	7
	41	107	23.91582	4475.358	-14501.76	1	15176.63	-72.84937	-2.127061E-009	0.0006296	7
	42	109	18.60119	6071.986	-17709.39	1	18721.42	-71.07479	4.537259E-009	0.0006251	7
	43	112	15.02404	7867.561	-20836.96	1	22272.8	-69.31461	3.412203E-009	0.000634	7
	44	114	12.01923	10217.74	-24483.58	1	26530.13	-67.34775	-6.25742E-009	0.0006225	7
	45	116	9.450605	13446.87	-28837.99	1	31818.99	-65.00082	-1.020543E-008	0.0006286	7
	46	119	7.512019	17297.6	-33431.48	1	37641.34	-62.64275	-8.476194E-009	0.0006227	7
	47	122	5.978954	21985.33	-38263.39	1	44129.83	-60.11925	-1.905224E-008	0.0006703	6
	48	125	4.734848	27686.82	-43399.98	1	51479.3	-57.46435	-2.39163E-008	0.000638	6
	49	128	3.75601	34389.46	-48536.86	1	59484.98	-54.68156	-1.893571E-008	0.0006809	6
	50	131	3.004808	41680.59	-53411.29	1	67749.81	-52.03257	-1.50285E-008	0.0006402	6
	51	135	2.372217	50437.76	-58400.89	1	77166.26	-49.18456	-1.977937E-008	0.000599	6
	52	139	1.878005	59805.76	-62621.94	1	86592.35	-46.31773	-1.58517E-008	0.0006771	6
	53	144	1.512097	69171.39	-66102.41	1	95677.6	-43.70034	-1.532714E-008	0.0006084	6
	54	149	1.201923	79728.1	-69352.64	1	105671	-41.01885	-1.823894E-008	0.0006909	6
	55	156	0.956633	90772.94	-71642.41	1	115638.9	-38.28222	-2.383334E-008	2.95469E-005	6
