EXPLAIN
TAG	EISPOT
TITLE	LABEL	Potentiostatic EIS	Test Identifier
DATE	LABEL	8/24/2020	Date
TIME	LABEL	18:15:16	Time
NOTES	NOTES	1	Notes...
	
PSTAT	PSTAT	REF3000-16137	Potentiostat
VDC	POTEN	0.00000E+000	T	DC Voltage (V)
FREQINIT	QUANT	3.00000E+005	Initial Freq. (Hz)
FREQFINAL	QUANT	1.00000E+000	Final Freq. (Hz)
PTSPERDEC	QUANT	1.00000E+001	Points/decade
VAC	QUANT	5.00000E+001	AC Voltage (mV rms)
AREA	QUANT	1.00000E+000	Sample Area (cm^2)
SPEED	SELECTOR	2	Optimize for:
ZGUESS	QUANT	1.00000E+003	Estimated Z (ohms)
EOC	QUANT	0	Open Circuit (V)
SEQUENCER	TOGGLE	TRUE	Run as Sequence
PSTATMODEL	IQUANT	5	Pstat Model
PSTATSECTION	LABEL	REF3000-16137	Pstat Section
PSTATSERIALNO	LABEL	16137	Pstat Serial Number
CTRLMODE	IQUANT	1	Control Mode
IESTAB	IQUANT	0	I/E Stability
CASPEED	IQUANT	1	Control Amp Speed
CONVENTION	IQUANT	1	Current Convention
ICHRANGE	IQUANT	2	Ich Range
ICHRANGEMODE	TOGGLE	F	Ich Auto Range
ICHOFFSETENABLE	TOGGLE	T	Ich Offset Enable
ICHOFFSET	QUANT	0	Ich Offset (V)
ICHFILTER	IQUANT	3	Ich Filter
VCHRANGE	IQUANT	2	Vch Range
VCHRANGEMODE	TOGGLE	F	Vch Auto Range
VCHOFFSETENABLE	TOGGLE	T	Vch Offset Enable
VCHOFFSET	QUANT	0	Vch Offset (V)
VCHFILTER	IQUANT	3	Vch Filter
ACHRANGE	IQUANT	2	Ach Range
ACHOFFSETENABLE	TOGGLE	F	Ach Offset Enable
ACHOFFSET	QUANT	0	Ach Offset (V)
ACHFILTER	IQUANT	3	Ach Filter
IERANGELOWERLIMIT	IQUANT	2	I/E Range Lower Limit
IERANGEMODE	TOGGLE	F	I/E AutoRange
IERANGE	IQUANT	11	I/E Range
POSFEEDENABLE	TOGGLE	F	Positive Feedback IR Comp
POSFEEDRESISTANCE	QUANT	0	Positive Feedback Resistance (ohm)
ACHSELECT	IQUANT	0	Ach Select
CABLEID	IQUANT	13	Cable ID
DCCALDATE	LABEL	7/31/2020	DC Calibration Date
ACCALDATE	LABEL	7/31/2020	AC Calibration Date
THERMOSELECT	IQUANT	1	Thermo Select
FRAMEWORKVERSION	QUANT	6.33	Framework Version
INSTRUMENTVERSION	LABEL	3.50	Instrument Version
COMPLIANCEVOLTAGE	IQUANT	0	Compliance Voltage
ZCURVE	TABLE
	Pt	Time	Freq	Zreal	Zimag	Zsig	Zmod	Zphz	Idc	Vdc	IERange
	#	s	Hz	ohm	ohm	V	ohm	°	A	V	#
	0	7	300046.9	87.89384	-4.788945	1	88.02421	-3.118709	2.392169E-006	0.0007973	9
	1	10	238359.4	88.70605	-6.161432	1	88.91977	-3.973325	4.801026E-005	-0.0007883	9
	2	13	189328.1	89.55972	-7.4992	1	89.87315	-4.786443	4.721664E-005	-0.0005787	9
	3	16	150421.9	90.39395	-8.782052	1	90.81955	-5.549047	6.181798E-005	-0.0019549	9
	4	18	119484.4	91.49098	-10.64481	1	92.10815	-6.636422	4.451913E-005	-0.0003608	9
	5	21	94921.88	92.73323	-12.1479	1	93.52552	-7.463157	-1.215698E-005	0.0001047	9
	6	23	75421.88	94.01043	-14.24145	1	95.083	-8.614129	3.067407E-006	0.0003802	9
	7	26	59859.37	95.4563	-16.5606	1	96.8822	-9.84221	-1.936284E-005	0.0004672	9
	8	28	47578.12	97.05	-19.12502	1	98.9165	-11.14806	1.251738E-005	-0.0006328	9
	9	31	37828.12	98.8223	-21.96485	1	101.2339	-12.5312	-1.530239E-005	0.0008283	9
	10	33	30046.88	100.6038	-25.31519	1	103.74	-14.12424	2.418553E-005	-0.0004472	9
	11	36	23859.38	102.4035	-29.26845	1	106.5041	-15.95072	1.273029E-005	0.0001664	9
	12	38	18984.38	104.0881	-34.0579	1	109.5183	-18.11824	1.196825E-005	-0.000614	9
	13	40	15046.87	105.7235	-39.97116	1	113.0272	-20.71023	3.575491E-006	0.0004374	9
	14	43	11953.13	107.1687	-47.98795	1	117.4222	-24.12187	1.197473E-005	0.0001105	9
	15	45	9515.62	108.6276	-57.5738	1	122.9418	-27.92407	1.827742E-005	-0.0001381	9
	16	47	7546.875	110.0939	-70.06857	1	130.5001	-32.47445	2.457746E-005	-0.0004538	9
	17	50	5928.309	111.9698	-86.62519	1	141.5668	-37.72726	-1.024026E-005	2.734145E-005	9
	18	52	4733.456	113.78	-106.2449	1	155.6723	-43.03859	-1.947185E-005	0.0005165	9
	19	54	3796.875	116.165	-130.1804	1	174.4742	-48.25622	-1.479278E-005	0.0001877	9
	20	57	2987.132	119.3608	-162.4361	1	201.575	-53.69092	2.403937E-005	-0.0004584	9
	21	59	2390.625	123.5669	-199.946	1	235.0472	-58.28387	-1.666638E-005	0.000874	9
	22	61	1884.191	128.8768	-250.6843	1	281.8721	-62.7923	2.281174E-005	-0.000286	9
	23	64	1516.544	135.3573	-306.4089	1	334.9747	-66.16638	1.237936E-005	-0.0006201	9
	24	66	1193.986	143.8088	-383.557	1	409.6303	-69.44724	2.272228E-005	-0.0002857	9
	25	68	946.5144	155.6142	-474.64	1	499.4986	-71.84789	6.303473E-006	-0.0006963	8
	26	71	751.7689	171.3909	-588.1585	1	612.6216	-73.75375	-4.451378E-006	0.0013143	8
	27	73	597.4265	191.6847	-729.1508	1	753.9257	-75.27092	5.176469E-006	-5.472226E-005	8
	28	76	477.4305	217.9849	-896.5673	1	922.6865	-76.33467	1.666938E-007	0.0007062	8
	29	78	376.6741	254.6426	-1115.596	1	1144.289	-77.14212	2.031155E-007	0.0006488	8
	30	80	298.2954	302.6669	-1381.918	1	1414.675	-77.64618	2.216036E-007	0.0006467	8
	31	82	237.7717	364.4883	-1699.587	1	1738.231	-77.89587	2.181684E-007	0.0006444	8
	32	85	189.0121	447.7018	-2093.288	1	2140.629	-77.92775	2.265252E-007	0.0006456	8
	33	87	150.2404	559.2985	-2574.489	1	2634.542	-77.74316	2.144525E-007	0.0006518	8
	34	90	119.1737	710.6344	-3167.733	1	3246.465	-77.35587	2.13478E-007	0.0006548	8
	35	92	95.0169	911.2788	-3871.108	1	3976.922	-76.75346	2.227732E-007	0.000649	8
	36	95	75.60484	1188.645	-4736.822	1	4883.683	-75.91323	-1.20079E-008	0.0006215	7
	37	97	54.50582	1757.144	-6265.419	1	6507.152	-74.33379	-8.785716E-009	0.0006173	7
	38	100	45.95588	2170.681	-7227.066	1	7546.015	-73.28213	-4.909345E-009	0.0006312	7
	39	102	37.20238	2819.108	-8573.523	1	9025.113	-71.79833	-8.818846E-009	0.0006283	7
	40	105	30.04808	3691.016	-10140.93	1	10791.76	-69.99992	-1.299856E-008	0.000672	7
	41	107	23.91582	4907.856	-12013.88	1	12977.69	-67.77923	-7.606938E-009	0.0006196	7
	42	109	18.60119	6670.101	-14318.27	1	15795.67	-65.02175	-1.624085E-008	0.0006271	7
	43	112	15.02404	8609.848	-16415.59	1	18536.48	-62.32334	-2.369241E-009	0.0006234	7
	44	114	12.01923	11120.21	-18640.71	1	21705.64	-59.18159	-1.763676E-008	0.0006219	7
	45	116	9.450605	14399.88	-20917.73	1	25395.04	-55.45626	-1.720797E-009	0.0006151	7
	46	119	7.512019	18090.32	-22885.94	1	29172.35	-51.67519	-4.713688E-009	0.000613	7
	47	122	5.978954	22185.02	-24266.08	1	32878.83	-47.56519	-7.482525E-009	0.0006661	7
	48	125	4.734848	26621.76	-25323.16	1	36742.08	-43.56793	-1.72799E-008	0.0006107	7
	49	128	3.75601	31139.57	-25548.68	1	40279.12	-39.3674	-2.681681E-008	0.0006789	6
	50	131	3.004808	35244.26	-24876.09	1	43139.05	-35.2152	-3.538366E-008	0.0006657	6
	51	138	2.372217	39325.63	-23975.98	1	46058.15	-31.36975	-3.647485E-008	0.0006189	6
	52	142	1.878005	42418.12	-21781.62	1	47683.71	-27.18041	-3.990387E-008	0.0006673	6
	53	151	1.512097	44765.3	-20102	1	49071.61	-24.18262	-4.39573E-008	0.000696	6
	54	162	1.201923	46832.14	-18182.68	1	50238.03	-21.21881	-4.741255E-008	0.000682	6
	55	175	0.956633	48837.46	-16544.93	1	51563.86	-18.71511	-7.336763E-008	7.046483E-005	6
