EXPLAIN
TAG	EISPOT
TITLE	LABEL	Potentiostatic EIS	Test Identifier
DATE	LABEL	8/24/2020	Date
TIME	LABEL	16:19:25	Time
NOTES	NOTES	1	Notes...
	
PSTAT	PSTAT	REF3000-16137	Potentiostat
VDC	POTEN	0.00000E+000	T	DC Voltage (V)
FREQINIT	QUANT	3.00000E+005	Initial Freq. (Hz)
FREQFINAL	QUANT	1.00000E+000	Final Freq. (Hz)
PTSPERDEC	QUANT	1.00000E+001	Points/decade
VAC	QUANT	5.00000E+001	AC Voltage (mV rms)
AREA	QUANT	1.00000E+000	Sample Area (cm^2)
SPEED	SELECTOR	2	Optimize for:
ZGUESS	QUANT	1.00000E+003	Estimated Z (ohms)
EOC	QUANT	0	Open Circuit (V)
SEQUENCER	TOGGLE	TRUE	Run as Sequence
PSTATMODEL	IQUANT	5	Pstat Model
PSTATSECTION	LABEL	REF3000-16137	Pstat Section
PSTATSERIALNO	LABEL	16137	Pstat Serial Number
CTRLMODE	IQUANT	1	Control Mode
IESTAB	IQUANT	0	I/E Stability
CASPEED	IQUANT	1	Control Amp Speed
CONVENTION	IQUANT	1	Current Convention
ICHRANGE	IQUANT	2	Ich Range
ICHRANGEMODE	TOGGLE	F	Ich Auto Range
ICHOFFSETENABLE	TOGGLE	T	Ich Offset Enable
ICHOFFSET	QUANT	0	Ich Offset (V)
ICHFILTER	IQUANT	3	Ich Filter
VCHRANGE	IQUANT	2	Vch Range
VCHRANGEMODE	TOGGLE	F	Vch Auto Range
VCHOFFSETENABLE	TOGGLE	T	Vch Offset Enable
VCHOFFSET	QUANT	0	Vch Offset (V)
VCHFILTER	IQUANT	3	Vch Filter
ACHRANGE	IQUANT	2	Ach Range
ACHOFFSETENABLE	TOGGLE	F	Ach Offset Enable
ACHOFFSET	QUANT	0	Ach Offset (V)
ACHFILTER	IQUANT	3	Ach Filter
IERANGELOWERLIMIT	IQUANT	2	I/E Range Lower Limit
IERANGEMODE	TOGGLE	F	I/E AutoRange
IERANGE	IQUANT	11	I/E Range
POSFEEDENABLE	TOGGLE	F	Positive Feedback IR Comp
POSFEEDRESISTANCE	QUANT	0	Positive Feedback Resistance (ohm)
ACHSELECT	IQUANT	0	Ach Select
CABLEID	IQUANT	13	Cable ID
DCCALDATE	LABEL	7/31/2020	DC Calibration Date
ACCALDATE	LABEL	7/31/2020	AC Calibration Date
THERMOSELECT	IQUANT	1	Thermo Select
FRAMEWORKVERSION	QUANT	6.33	Framework Version
INSTRUMENTVERSION	LABEL	3.50	Instrument Version
COMPLIANCEVOLTAGE	IQUANT	0	Compliance Voltage
ZCURVE	TABLE
	Pt	Time	Freq	Zreal	Zimag	Zsig	Zmod	Zphz	Idc	Vdc	IERange
	#	s	Hz	ohm	ohm	V	ohm	°	A	V	#
	0	14	300046.9	563.0747	-4721.82	1	4755.275	-83.19962	2.262119E-005	-0.0010479	9
	1	34	238359.4	914.1827	-5667.826	1	5741.079	-80.83749	1.884614E-005	-0.0022379	9
	2	48	189328.1	1430.342	-7167.338	1	7308.667	-78.7141	2.02031E-005	-0.0009114	9
	3	56	150421.9	2174.278	-8595.346	1	8866.084	-75.80425	2.588402E-005	0.001019	9
	4	63	119484.4	3544.76	-10820.23	1	11386.07	-71.86095	-6.089707E-005	0.0069171	8
	5	70	94921.88	4896.624	-12594.48	1	13512.88	-68.75436	2.24773E-005	-0.0096978	8
	6	79	75421.88	6678.562	-14940.8	1	16365.53	-65.91528	-2.10714E-006	0.007818	8
	7	88	59859.37	9453.862	-17276.05	1	19693.59	-61.31149	-2.719574E-005	0.0097577	8
	8	96	47578.12	15982.25	-19571.99	1	25268.46	-50.76535	-1.840885E-006	0.022131	7
	9	104	37828.12	19964.19	-20930.82	1	28925.22	-46.35405	-3.854938E-006	0.025595	7
	10	111	30046.88	24565.6	-21917.72	1	32921.96	-41.73973	7.567913E-006	-0.0183173	7
	11	119	23859.38	29472.99	-21972.19	1	36761.86	-36.70462	-3.655141E-006	0.0253763	7
	12	124	18984.38	32821.73	-23256.58	1	40226.04	-35.32034	-2.476431E-005	0.011017	8
	13	130	15046.87	38082.02	-20360.24	1	43183.1	-28.13083	-1.215727E-005	0.0103072	8
	14	138	11953.13	42247.41	-18006.91	1	45924.86	-23.08492	-6.814997E-006	0.0117156	7
	15	143	9515.62	45365.51	-15750.76	1	48022.04	-19.14684	3.615607E-006	-0.0247401	7
	16	149	7546.875	48527.7	-14245.76	1	50575.48	-16.3601	-1.216617E-006	-0.0135849	7
	17	154	5928.309	49446.83	-11929.4	1	50865.5	-13.56382	-1.839041E-006	0.022254	7
	18	159	4733.456	51587.16	-10278.66	1	52601.2	-11.26852	4.902543E-006	-0.0004197	7
	19	165	3796.875	52984.76	-8605.522	1	53679.05	-9.225143	-7.370969E-006	0.018713	7
	20	170	2987.132	55092.83	-8111.662	1	55686.8	-8.375836	7.595754E-006	-0.0183355	7
	21	175	2390.625	56650.56	-7544.52	1	57150.73	-7.585811	-5.31921E-006	0.0033217	7
	22	181	1884.191	56210.51	-6335.932	1	56566.47	-6.431117	-6.578995E-006	0.025876	7
	23	186	1516.544	58121.46	-6001.879	1	58430.54	-5.895718	-3.33675E-006	-0.0055312	7
	24	192	1193.986	58675.68	-5829.381	1	58964.54	-5.673671	3.551374E-006	-0.0247301	7
	25	197	946.5144	58882.87	-7818.155	1	59399.62	-7.563192	6.492557E-006	-0.0095083	7
	26	201	751.7689	62176.75	-3998.769	1	62305.2	-3.679791	4.808661E-006	-0.0002822	7
	27	205	597.4265	63250.85	-5932.34	1	63528.44	-5.358135	-6.406612E-006	0.0253801	7
	28	208	477.4305	63489.05	-6337.366	1	63804.56	-5.700283	-9.436733E-008	0.0006676	7
	29	212	376.6741	64655.2	-6200.586	1	64951.84	-5.478047	-1.008638E-008	0.0007012	6
	30	214	298.2954	65710.33	-7035.949	1	66085.95	-6.111673	-1.071923E-008	0.0007068	6
	31	216	237.7717	66803.48	-8008.622	1	67281.81	-6.836182	-9.182664E-009	0.0006162	6
	32	219	189.0121	68109.7	-9149.989	1	68721.56	-7.651416	-1.009325E-008	0.0007019	6
	33	221	150.2404	69544.17	-10433.98	1	70322.54	-8.532663	-9.505611E-009	0.0006258	6
	34	224	119.1737	71073.77	-12177.18	1	72109.4	-9.72218	-1.006445E-008	0.0006979	6
	35	226	95.0169	72714.59	-13638.42	1	73982.55	-10.62303	-1.026806E-008	0.0006294	6
	36	229	75.60484	74462.48	-15579.91	1	76074.93	-11.81761	-1.0269E-008	0.0006986	6
	37	231	54.50582	77205.59	-18808.25	1	79463.54	-13.69128	-1.06666E-008	0.0006747	6
	38	234	45.95588	78771.43	-20785.25	1	81467.57	-14.7816	-9.599017E-009	0.0006417	6
	39	236	37.20238	80592.29	-23611.2	1	83979.8	-16.32905	-8.754649E-009	0.0006589	6
	40	238	30.04808	82471.95	-27061.46	1	86798.3	-18.16618	-1.018991E-008	0.0006369	6
	41	241	23.91582	84267.27	-31553.48	1	89981.08	-20.52817	-9.51094E-009	0.0006918	6
	42	243	18.60119	86110.29	-37769.29	1	94029.26	-23.68299	-1.14952E-008	0.0006911	6
	43	245	15.02404	87652.03	-44908.9	1	98487	-27.12853	-8.823988E-009	0.0006221	6
	44	248	12.01923	89186.7	-54157.16	1	104342.1	-31.26753	-9.228475E-009	0.000606	6
	45	250	9.450605	90792.11	-66777.45	1	112705.1	-36.33442	-9.423366E-009	0.0006023	6
	46	253	7.512019	92662.63	-82196.41	1	123865.3	-41.57464	-9.937065E-009	0.0005955	6
	47	256	5.978954	94773.98	-101451.5	1	138832.7	-46.94902	-9.86495E-009	0.0006273	6
	48	259	4.734848	97261.9	-126404.7	1	159493	-52.42356	-9.521129E-009	0.0007186	6
	49	262	3.75601	100534	-157424.2	1	186787.2	-57.43694	-1.032108E-008	0.0007026	6
	50	268	3.004808	104549.3	-194691.1	1	220986.8	-61.76417	-1.059685E-008	0.0007253	6
	51	274	2.372217	109601.7	-243732	1	267241.1	-65.78744	-9.87561E-009	0.0006757	6
	52	279	1.878005	115574.6	-305754.9	1	326869.3	-69.29353	-1.017777E-008	0.0006561	6
	53	283	1.512097	121890.4	-376151.7	1	395407.8	-72.0453	-9.940152E-009	0.00059	6
	54	289	1.201923	131946.8	-470412.2	1	488566.8	-74.33163	-1.198898E-009	0.0006408	5
	55	295	0.956633	143476	-584964	1	602302.4	-76.21893	-1.154107E-009	3.463248E-005	5
