EXPLAIN
TAG	EISPOT
TITLE	LABEL	Potentiostatic EIS	Test Identifier
DATE	LABEL	8/24/2020	Date
TIME	LABEL	17:50:22	Time
NOTES	NOTES	1	Notes...
	
PSTAT	PSTAT	REF3000-16137	Potentiostat
VDC	POTEN	0.00000E+000	T	DC Voltage (V)
FREQINIT	QUANT	3.00000E+005	Initial Freq. (Hz)
FREQFINAL	QUANT	1.00000E+000	Final Freq. (Hz)
PTSPERDEC	QUANT	1.00000E+001	Points/decade
VAC	QUANT	5.00000E+001	AC Voltage (mV rms)
AREA	QUANT	1.00000E+000	Sample Area (cm^2)
SPEED	SELECTOR	2	Optimize for:
ZGUESS	QUANT	1.00000E+003	Estimated Z (ohms)
EOC	QUANT	0	Open Circuit (V)
SEQUENCER	TOGGLE	TRUE	Run as Sequence
PSTATMODEL	IQUANT	5	Pstat Model
PSTATSECTION	LABEL	REF3000-16137	Pstat Section
PSTATSERIALNO	LABEL	16137	Pstat Serial Number
CTRLMODE	IQUANT	1	Control Mode
IESTAB	IQUANT	0	I/E Stability
CASPEED	IQUANT	1	Control Amp Speed
CONVENTION	IQUANT	1	Current Convention
ICHRANGE	IQUANT	2	Ich Range
ICHRANGEMODE	TOGGLE	F	Ich Auto Range
ICHOFFSETENABLE	TOGGLE	T	Ich Offset Enable
ICHOFFSET	QUANT	0	Ich Offset (V)
ICHFILTER	IQUANT	3	Ich Filter
VCHRANGE	IQUANT	2	Vch Range
VCHRANGEMODE	TOGGLE	F	Vch Auto Range
VCHOFFSETENABLE	TOGGLE	T	Vch Offset Enable
VCHOFFSET	QUANT	0	Vch Offset (V)
VCHFILTER	IQUANT	3	Vch Filter
ACHRANGE	IQUANT	2	Ach Range
ACHOFFSETENABLE	TOGGLE	F	Ach Offset Enable
ACHOFFSET	QUANT	0	Ach Offset (V)
ACHFILTER	IQUANT	3	Ach Filter
IERANGELOWERLIMIT	IQUANT	2	I/E Range Lower Limit
IERANGEMODE	TOGGLE	F	I/E AutoRange
IERANGE	IQUANT	11	I/E Range
POSFEEDENABLE	TOGGLE	F	Positive Feedback IR Comp
POSFEEDRESISTANCE	QUANT	0	Positive Feedback Resistance (ohm)
ACHSELECT	IQUANT	0	Ach Select
CABLEID	IQUANT	13	Cable ID
DCCALDATE	LABEL	7/31/2020	DC Calibration Date
ACCALDATE	LABEL	7/31/2020	AC Calibration Date
THERMOSELECT	IQUANT	1	Thermo Select
FRAMEWORKVERSION	QUANT	6.33	Framework Version
INSTRUMENTVERSION	LABEL	3.50	Instrument Version
COMPLIANCEVOLTAGE	IQUANT	0	Compliance Voltage
ZCURVE	TABLE
	Pt	Time	Freq	Zreal	Zimag	Zsig	Zmod	Zphz	Idc	Vdc	IERange
	#	s	Hz	ohm	ohm	V	ohm	°	A	V	#
	0	6	300046.9	89.0779	-5.118927	1	89.22486	-3.288927	2.501295E-005	-0.0008709	9
	1	10	238359.4	89.66098	-6.395766	1	89.8888	-4.080156	-7.629178E-006	0.0008066	9
	2	13	189328.1	90.44214	-7.688797	1	90.76838	-4.859227	1.376661E-005	-0.0011959	9
	3	15	150421.9	91.42631	-9.277961	1	91.89587	-5.794551	1.812962E-005	-0.0005983	9
	4	18	119484.4	92.44582	-10.81052	1	93.07576	-6.669818	-6.821047E-006	0.001058	9
	5	20	94921.88	93.72401	-12.29288	1	94.52674	-7.472287	1.789573E-005	-0.0007394	9
	6	23	75421.88	95.0157	-14.36497	1	96.0954	-8.597167	1.225721E-005	-0.0006637	9
	7	25	59859.37	96.4725	-16.66901	1	97.902	-9.80306	-1.954978E-005	0.0006328	9
	8	28	47578.12	98.131	-19.21771	1	99.995	-11.08042	-1.837745E-005	0.00049	9
	9	30	37828.12	99.882	-22.10621	1	102.2991	-12.47972	5.262697E-006	-0.0004718	9
	10	33	30046.88	101.6734	-25.4185	1	104.8026	-14.03633	-9.041883E-006	-3.99351E-005	9
	11	36	23859.38	103.4529	-29.46123	1	107.5661	-15.89585	-3.760865E-006	-0.0002228	9
	12	38	18984.38	105.171	-34.22796	1	110.6006	-18.0275	-1.702854E-005	0.0004203	9
	13	40	15046.87	106.9003	-40.53646	1	114.3279	-20.76668	2.100618E-005	-0.0002544	9
	14	42	11953.13	108.3365	-48.08918	1	118.53	-23.93582	1.910766E-005	-0.0001656	9
	15	45	9515.62	109.8637	-57.69984	1	124.094	-27.70821	1.873488E-005	-0.0001566	9
	16	47	7546.875	111.4812	-70.1104	1	131.6949	-32.16573	-1.786995E-005	0.0004013	9
	17	49	5928.309	113.2467	-86.59576	1	142.561	-37.40387	2.204789E-005	-0.0006661	9
	18	52	4733.456	115.319	-106.0724	1	156.6838	-42.60839	1.219846E-005	-0.0006133	9
	19	54	3796.875	117.636	-129.6008	1	175.0274	-47.77061	-1.115058E-005	0.0008253	9
	20	56	2987.132	120.9226	-161.9252	1	202.0941	-53.24833	-2.872266E-006	-0.0002275	9
	21	59	2390.625	125.3062	-198.7787	1	234.9779	-57.77346	-1.720766E-005	0.0003434	9
	22	61	1884.191	129.6728	-247.1232	1	279.0787	-62.31269	-1.690683E-005	0.0003905	9
	23	63	1516.544	136.9369	-304.7363	1	334.0897	-65.80266	-1.725654E-005	0.0004209	9
	24	66	1193.986	146.8192	-381.9527	1	409.1989	-68.97369	2.427114E-005	-0.0004714	9
	25	68	946.5144	158.0277	-471.6139	1	497.3856	-71.47511	3.136852E-006	0.0008505	8
	26	71	751.7689	174.5521	-584.0166	1	609.5439	-73.35954	-2.902032E-006	0.0025563	8
	27	73	597.4265	194.9149	-722.5748	1	748.4024	-74.90376	6.232626E-006	-0.0013124	8
	28	75	477.4305	222.1013	-889.0129	1	916.3367	-75.97298	1.691759E-007	0.0006468	8
	29	78	376.6741	259.8604	-1105.469	1	1135.601	-76.77175	1.660699E-007	0.0006513	8
	30	80	298.2954	309.3296	-1368.788	1	1403.306	-77.26575	1.824486E-007	0.0006465	8
	31	82	237.7717	373.5108	-1682.691	1	1723.647	-77.48484	1.718385E-007	0.000657	8
	32	85	189.0121	460.2747	-2070.966	1	2121.498	-77.46961	1.82066E-007	0.000647	8
	33	87	150.2404	577.0125	-2544.268	1	2608.878	-77.22208	1.896564E-007	0.0006487	8
	34	90	119.1737	736.3525	-3126.783	1	3212.318	-76.74839	1.889194E-007	0.0006588	8
	35	92	95.0169	947.5618	-3812.942	1	3928.918	-76.04402	1.778091E-007	0.0006567	8
	36	94	75.60484	1240.402	-4656.054	1	4818.447	-75.08252	-4.713732E-008	0.0006785	7
	37	97	54.50582	1843.398	-6131.772	1	6402.87	-73.26762	-4.282798E-008	0.0006168	7
	38	99	45.95588	2276.129	-7053.958	1	7412.09	-72.11646	-3.678949E-008	0.0006313	7
	39	102	37.20238	2960.552	-8334.146	1	8844.368	-70.44336	-4.031124E-008	0.0006269	7
	40	104	30.04808	3882.747	-9808.77	1	10549.3	-68.40414	-4.00569E-008	0.0006176	7
	41	107	23.91582	5130.209	-11526.48	1	12616.6	-66.00709	-5.07179E-008	0.0006237	7
	42	109	18.60119	6948.924	-13628.96	1	15298.24	-62.98457	-5.387115E-008	0.0006311	7
	43	111	15.02404	8928.669	-15442.82	1	17838.21	-59.96452	-3.774817E-008	0.0006346	7
	44	114	12.01923	11427.21	-17289.31	1	20724.41	-56.53767	-4.559613E-008	0.0006242	7
	45	116	9.450605	14633.42	-19078.15	1	24043.98	-52.51089	-4.302408E-008	0.0006165	7
	46	119	7.512019	18040.99	-20432.19	1	27257.14	-48.5565	-4.317219E-008	0.0006443	7
	47	121	5.978954	21748.48	-21316.46	1	30453.04	-44.42524	-4.433648E-008	0.0006187	7
	48	124	4.734848	25648.29	-21592.18	1	33526.96	-40.09257	-4.74582E-008	0.0006367	7
	49	128	3.75601	29317.26	-21112.31	1	36127.98	-35.75889	-5.311122E-008	0.0006219	7
	50	133	3.004808	32591.31	-20337.56	1	38416.27	-31.9649	-7.997536E-008	0.0007095	6
	51	140	2.372217	35903.82	-19474.6	1	40845.37	-28.47586	-7.446179E-008	0.0007278	6
	52	144	1.878005	38024.82	-17372.6	1	41805.43	-24.55449	-8.565517E-008	0.0006526	6
	53	153	1.512097	39684.3	-15776.54	1	42705.31	-21.68035	-8.738093E-008	0.0007749	6
	54	163	1.201923	40950.27	-14043.78	1	43291.48	-18.92926	-8.986424E-008	0.0006558	6
	55	176	0.956633	42129.41	-12559.93	1	43961.79	-16.60076	-1.210053E-007	4.44656E-005	6
