EXPLAIN
TAG	EISPOT
TITLE	LABEL	Potentiostatic EIS	Test Identifier
DATE	LABEL	8/24/2020	Date
TIME	LABEL	17:11:26	Time
NOTES	NOTES	1	Notes...
	
PSTAT	PSTAT	REF3000-16137	Potentiostat
VDC	POTEN	0.00000E+000	T	DC Voltage (V)
FREQINIT	QUANT	3.00000E+005	Initial Freq. (Hz)
FREQFINAL	QUANT	1.00000E+000	Final Freq. (Hz)
PTSPERDEC	QUANT	1.00000E+001	Points/decade
VAC	QUANT	5.00000E+001	AC Voltage (mV rms)
AREA	QUANT	1.00000E+000	Sample Area (cm^2)
SPEED	SELECTOR	2	Optimize for:
ZGUESS	QUANT	1.00000E+003	Estimated Z (ohms)
EOC	QUANT	0	Open Circuit (V)
SEQUENCER	TOGGLE	TRUE	Run as Sequence
PSTATMODEL	IQUANT	5	Pstat Model
PSTATSECTION	LABEL	REF3000-16137	Pstat Section
PSTATSERIALNO	LABEL	16137	Pstat Serial Number
CTRLMODE	IQUANT	1	Control Mode
IESTAB	IQUANT	0	I/E Stability
CASPEED	IQUANT	1	Control Amp Speed
CONVENTION	IQUANT	1	Current Convention
ICHRANGE	IQUANT	2	Ich Range
ICHRANGEMODE	TOGGLE	F	Ich Auto Range
ICHOFFSETENABLE	TOGGLE	T	Ich Offset Enable
ICHOFFSET	QUANT	0	Ich Offset (V)
ICHFILTER	IQUANT	3	Ich Filter
VCHRANGE	IQUANT	2	Vch Range
VCHRANGEMODE	TOGGLE	F	Vch Auto Range
VCHOFFSETENABLE	TOGGLE	T	Vch Offset Enable
VCHOFFSET	QUANT	0	Vch Offset (V)
VCHFILTER	IQUANT	3	Vch Filter
ACHRANGE	IQUANT	2	Ach Range
ACHOFFSETENABLE	TOGGLE	F	Ach Offset Enable
ACHOFFSET	QUANT	0	Ach Offset (V)
ACHFILTER	IQUANT	3	Ach Filter
IERANGELOWERLIMIT	IQUANT	2	I/E Range Lower Limit
IERANGEMODE	TOGGLE	F	I/E AutoRange
IERANGE	IQUANT	11	I/E Range
POSFEEDENABLE	TOGGLE	F	Positive Feedback IR Comp
POSFEEDRESISTANCE	QUANT	0	Positive Feedback Resistance (ohm)
ACHSELECT	IQUANT	0	Ach Select
CABLEID	IQUANT	13	Cable ID
DCCALDATE	LABEL	7/31/2020	DC Calibration Date
ACCALDATE	LABEL	7/31/2020	AC Calibration Date
THERMOSELECT	IQUANT	1	Thermo Select
FRAMEWORKVERSION	QUANT	6.33	Framework Version
INSTRUMENTVERSION	LABEL	3.50	Instrument Version
COMPLIANCEVOLTAGE	IQUANT	0	Compliance Voltage
ZCURVE	TABLE
	Pt	Time	Freq	Zreal	Zimag	Zsig	Zmod	Zphz	Idc	Vdc	IERange
	#	s	Hz	ohm	ohm	V	ohm	°	A	V	#
	0	20	300046.9	-96.1464	-4726.667	1	4727.645	-91.16531	-0.0001137	0.0037762	9
	1	35	238359.4	-27.31603	-5983.749	1	5983.811	-90.26156	-9.337366E-005	0.0021941	9
	2	52	189328.1	253.9157	-7555.857	1	7560.123	-88.07529	-0.0001085	0.0038627	9
	3	60	150421.9	187.6689	-9908.34	1	9910.12	-88.91492	7.721288E-005	-0.001508	9
	4	69	119484.4	200.1234	-11539.05	1	11540.79	-89.00641	-9.181706E-005	0.002252	9
	5	80	94921.88	645.3093	-14557.97	1	14572.26	-87.46192	-2.505925E-005	0.0111284	8
	6	89	75421.88	874.1017	-18209.2	1	18230.17	-87.25172	-2.412203E-005	0.0052924	8
	7	97	59859.37	945.4324	-22810.26	1	22829.84	-87.62658	-9.541474E-006	-0.0021757	8
	8	106	47578.12	3853.335	-29953.98	1	30200.81	-82.66962	-1.831972E-006	0.0222719	7
	9	112	37828.12	4153.716	-37294.2	1	37524.8	-83.64476	-5.356835E-006	0.0272698	7
	10	120	30046.88	4646.289	-46249.19	1	46481.99	-84.2632	-5.347093E-006	0.0036221	7
	11	127	23859.38	-6986.627	-56754.99	1	57183.4	-97.0179	8.153817E-006	0.004203	8
	12	134	18984.38	4849.494	-71878.08	1	72041.48	-86.1402	-7.500299E-006	0.0192302	7
	13	139	15046.87	433.7411	-86057.94	1	86059.03	-89.71123	-2.443384E-005	0.0053835	8
	14	147	11953.13	-123.2406	-111682.8	1	111682.9	-90.06322	2.340907E-005	-0.0028209	8
	15	154	9515.62	-214.3374	-129143.4	1	129143.6	-90.09509	-9.457087E-006	-0.002182	8
	16	162	7546.875	3207.062	-182858.9	1	182887	-88.99522	-6.710981E-006	0.0260303	7
	17	167	5928.309	18876.63	-229666.5	1	230441	-85.30134	4.651478E-007	0.0165187	7
	18	173	4733.456	37172.96	-297882.2	1	300192.6	-82.88678	-6.912845E-007	0.0265082	6
	19	177	3796.875	-806.7068	-350605.7	1	350606.6	-90.13183	-7.485964E-006	0.0191929	7
	20	183	2987.132	58757.38	-493138.6	1	496626.8	-83.20525	5.434682E-006	-0.0271336	7
	21	191	2390.625	-24033.45	-524804.4	1	525354.4	-92.62203	-3.831995E-006	0.0259064	7
	22	197	1884.191	46716.52	-884067.9	1	885301.3	-86.97515	1.283042E-006	-0.0201824	7
	23	204	1516.544	26494.06	-886355.9	1	886751.8	-88.28788	2.251297E-007	0.010509	6
	24	210	1193.986	-8481.342	-1163390	1	1163421	-90.41769	4.410216E-007	0.0018435	6
	25	216	946.5144	106465.8	-1532982	1	1536675	-86.02718	-5.972313E-008	-0.0152788	6
	26	221	751.7689	192376.7	-1548553	1	1560457	-82.91843	-4.930868E-007	0.0013002	6
	27	226	597.4265	192405	-1998799	1	2008038	-84.50163	5.933269E-007	-0.0280502	6
	28	229	477.4305	87830.95	-2800496	1	2801873	-88.20364	-9.686882E-009	0.000628	6
	29	234	376.6741	487922.2	-3652933	1	3685375	-82.39204	-1.119586E-009	0.0006661	5
	30	238	298.2954	514065.8	-4551388	1	4580327	-83.55592	-1.030601E-009	0.0006297	5
	31	241	237.7717	440704.1	-5629558	1	5646782	-85.52379	-1.026998E-009	0.0006249	5
	32	243	189.0121	567018.5	-7062092	1	7084819	-85.40955	-9.65399E-010	0.0006007	5
	33	246	150.2404	435226.8	-8372656	1	8383961	-87.02433	-9.608723E-010	0.000602	5
	34	249	119.1737	-140208.6	-8134066	1	8135275	-90.98752	-9.964739E-010	0.0006356	5
	35	252	95.0169	837549.3	-1.399451E+007	1	1.401955E+007	-86.57503	-1.068361E-009	0.000686	5
	36	255	75.60484	1451747	-1.6824E+007	1	1.688652E+007	-85.06815	-1.104692E-009	0.0006425	5
	37	258	54.50582	1255961	-2.375538E+007	1	2.378856E+007	-86.97356	-1.003954E-009	0.000644	5
	38	261	45.95588	43828.34	-2.891604E+007	1	2.891607E+007	-89.91315	-1.091618E-009	0.0007348	5
	39	264	37.20238	-186464.2	-3.239219E+007	1	3.239272E+007	-90.32982	-1.032038E-009	0.0006242	5
	40	268	30.04808	306504.4	-4.354067E+007	1	4.354175E+007	-89.59667	-1.056252E-009	0.0006239	5
	41	272	23.91582	7384899	-5.085382E+007	1	5.138723E+007	-81.73737	-1.399977E-010	0.0006224	4
	42	276	18.60119	2.268185E+007	-7.247675E+007	1	7.594304E+007	-72.62231	-1.708681E-011	0.0006137	4
	43	280	15.02404	7333896	-8.657503E+007	1	8.688511E+007	-85.15795	-1.00576E-010	0.0006312	4
	44	283	12.01923	5242541	-1.093513E+008	1	1.094769E+008	-87.25522	-1.253121E-010	0.0007389	4
	45	287	9.450605	1.175361E+007	-1.405031E+008	1	1.409938E+008	-85.21813	-8.955104E-011	0.000607	4
	46	291	7.512019	9002774	-1.685125E+008	1	1.687528E+008	-86.94188	-9.960936E-011	0.0006171	4
	47	295	5.978954	2.433906E+007	-2.175191E+008	1	2.188765E+008	-83.61551	-9.461848E-011	0.0006885	4
	48	301	4.734848	5.15708E+007	-2.818226E+008	1	2.865022E+008	-79.63016	-1.752521E-011	0.0007283	3
	49	306	3.75601	1.197077E+007	-3.382559E+008	1	3.384676E+008	-87.97317	-9.926814E-010	0.0006507	5
	50	314	3.004808	-1.088532E+007	-3.955323E+008	1	3.95682E+008	-91.57642	-1.006268E-009	0.0005745	5
	51	323	2.372217	7.66325E+007	-5.328586E+008	1	5.383408E+008	-81.81618	-1.848995E-011	0.0007193	3
	52	329	1.878005	9.36165E+007	-6.670754E+008	1	6.736124E+008	-82.01136	-1.821732E-011	0.0007103	3
	53	338	1.512097	1.133548E+008	-8.207651E+008	1	8.285557E+008	-82.1367	-1.829372E-011	0.0008101	3
	54	345	1.201923	1.466201E+008	-1.022386E+009	1	1.032846E+009	-81.83887	-1.811117E-011	0.0007224	3
	55	356	0.956633	1.957529E+008	-1.271316E+009	1	1.286298E+009	-81.24654	-1.826107E-011	8.863665E-005	3
