EXPLAIN
TAG	EISPOT
TITLE	LABEL	Potentiostatic EIS	Test Identifier
DATE	LABEL	8/24/2020	Date
TIME	LABEL	15:29:16	Time
NOTES	NOTES	1	Notes...
	
PSTAT	PSTAT	REF3000-16137	Potentiostat
VDC	POTEN	0.00000E+000	T	DC Voltage (V)
FREQINIT	QUANT	3.00000E+005	Initial Freq. (Hz)
FREQFINAL	QUANT	1.00000E+000	Final Freq. (Hz)
PTSPERDEC	QUANT	1.00000E+001	Points/decade
VAC	QUANT	5.00000E+001	AC Voltage (mV rms)
AREA	QUANT	1.00000E+000	Sample Area (cm^2)
SPEED	SELECTOR	2	Optimize for:
ZGUESS	QUANT	1.00000E+003	Estimated Z (ohms)
EOC	QUANT	0	Open Circuit (V)
SEQUENCER	TOGGLE	TRUE	Run as Sequence
PSTATMODEL	IQUANT	5	Pstat Model
PSTATSECTION	LABEL	REF3000-16137	Pstat Section
PSTATSERIALNO	LABEL	16137	Pstat Serial Number
CTRLMODE	IQUANT	1	Control Mode
IESTAB	IQUANT	0	I/E Stability
CASPEED	IQUANT	1	Control Amp Speed
CONVENTION	IQUANT	1	Current Convention
ICHRANGE	IQUANT	2	Ich Range
ICHRANGEMODE	TOGGLE	F	Ich Auto Range
ICHOFFSETENABLE	TOGGLE	T	Ich Offset Enable
ICHOFFSET	QUANT	0	Ich Offset (V)
ICHFILTER	IQUANT	3	Ich Filter
VCHRANGE	IQUANT	2	Vch Range
VCHRANGEMODE	TOGGLE	F	Vch Auto Range
VCHOFFSETENABLE	TOGGLE	T	Vch Offset Enable
VCHOFFSET	QUANT	0	Vch Offset (V)
VCHFILTER	IQUANT	3	Vch Filter
ACHRANGE	IQUANT	2	Ach Range
ACHOFFSETENABLE	TOGGLE	F	Ach Offset Enable
ACHOFFSET	QUANT	0	Ach Offset (V)
ACHFILTER	IQUANT	3	Ach Filter
IERANGELOWERLIMIT	IQUANT	2	I/E Range Lower Limit
IERANGEMODE	TOGGLE	F	I/E AutoRange
IERANGE	IQUANT	11	I/E Range
POSFEEDENABLE	TOGGLE	F	Positive Feedback IR Comp
POSFEEDRESISTANCE	QUANT	0	Positive Feedback Resistance (ohm)
ACHSELECT	IQUANT	0	Ach Select
CABLEID	IQUANT	13	Cable ID
DCCALDATE	LABEL	7/31/2020	DC Calibration Date
ACCALDATE	LABEL	7/31/2020	AC Calibration Date
THERMOSELECT	IQUANT	1	Thermo Select
FRAMEWORKVERSION	QUANT	6.33	Framework Version
INSTRUMENTVERSION	LABEL	3.50	Instrument Version
COMPLIANCEVOLTAGE	IQUANT	0	Compliance Voltage
ZCURVE	TABLE
	Pt	Time	Freq	Zreal	Zimag	Zsig	Zmod	Zphz	Idc	Vdc	IERange
	#	s	Hz	ohm	ohm	V	ohm	°	A	V	#
	0	7	300046.9	167.4347	-10.58425	1	167.7689	-3.617095	7.774421E-005	-0.0019239	9
	1	11	238359.4	169.0995	-11.50189	1	169.4902	-3.891178	2.03028E-005	-0.0007151	9
	2	14	189328.1	170.611	-13.40226	1	171.1366	-4.491614	-8.329061E-005	0.00207	9
	3	16	150421.9	172.0668	-14.62455	1	172.6872	-4.858088	7.453121E-005	-0.0027903	9
	4	19	119484.4	173.7491	-16.95826	1	174.5747	-5.574525	6.887221E-005	-0.0026076	9
	5	21	94921.88	175.6911	-19.34929	1	176.7534	-6.284798	1.482559E-005	-0.0007637	9
	6	24	75421.88	177.9039	-22.23555	1	179.288	-7.124245	2.233244E-005	-0.0006099	9
	7	27	59859.37	180.4785	-25.25996	1	182.2376	-7.967423	-7.533295E-006	0.0008727	9
	8	29	47578.12	183.3323	-28.96727	1	185.6067	-8.978743	2.355035E-005	-0.0002221	9
	9	32	37828.12	186.5432	-32.91349	1	189.4246	-10.00622	2.704479E-005	-0.0006826	9
	10	34	30046.88	189.9807	-37.56159	1	193.6583	-11.18387	2.08883E-005	-0.0008137	9
	11	37	23859.38	193.6057	-42.901	1	198.3019	-12.49426	-1.582715E-005	0.0001792	9
	12	39	18984.38	197.5418	-49.13334	1	203.5605	-13.9674	1.166171E-005	0.0002037	9
	13	41	15046.87	201.1252	-56.63595	1	208.9473	-15.72698	9.213471E-006	0.0004371	9
	14	44	11953.13	204.6725	-65.38222	1	214.862	-17.71597	2.156575E-005	-0.000782	9
	15	46	9515.62	207.9576	-76.53566	1	221.5943	-20.20538	-2.258488E-005	0.000746	9
	16	48	7546.875	210.9082	-91.48663	1	229.8958	-23.44998	2.529372E-005	-0.0007256	9
	17	50	5928.309	213.5828	-110.7097	1	240.5707	-27.39977	-2.309844E-005	0.000864	9
	18	53	4733.456	216.2956	-133.6784	1	254.2709	-31.71755	7.404007E-006	-0.0006083	9
	19	56	3796.875	218.4585	-162.9243	1	272.5223	-36.71524	-2.500914E-005	0.000608	9
	20	60	2987.132	222.4547	-202.434	1	300.7751	-42.30222	-1.249818E-006	-0.0003529	9
	21	62	2390.625	224.226	-248.8685	1	334.9819	-47.98172	-2.158024E-005	0.0008797	9
	22	65	1884.191	230.9827	-311.3538	1	387.6779	-53.42954	-2.335205E-005	0.000717	9
	23	67	1516.544	235.0287	-383.0063	1	449.3688	-58.46498	1.132671E-005	0.0002644	9
	24	70	1193.986	241.7658	-479.1088	1	536.6525	-63.22377	-2.030096E-006	0.0032943	8
	25	72	946.5144	250.5329	-598.3241	1	648.6589	-67.27975	1.027645E-006	0.0025225	8
	26	74	751.7689	264.7731	-745.5449	1	791.165	-70.448	1.495072E-006	-0.0016903	8
	27	77	597.4265	279.4813	-927.7432	1	968.926	-73.23515	8.331333E-006	-0.0026928	8
	28	79	477.4305	300.854	-1149.754	1	1188.464	-75.3363	8.119832E-008	0.0006514	8
	29	81	376.6741	329.9341	-1441.194	1	1478.478	-77.10542	5.948964E-008	0.0006509	8
	30	84	298.2954	367.7382	-1798.917	1	1836.12	-78.44666	6.522679E-008	0.0006516	8
	31	86	237.7717	416.2665	-2230.154	1	2268.67	-79.42719	8.167767E-008	0.0006495	8
	32	88	189.0121	481.0357	-2770.47	1	2811.921	-80.14996	8.112676E-008	0.0006526	8
	33	91	150.2404	567.2681	-3440.283	1	3486.738	-80.63676	7.324605E-008	0.000647	8
	34	93	119.1737	683.1482	-4277.717	1	4331.922	-80.92652	9.412427E-008	0.0006526	8
	35	96	95.0169	837.7339	-5296.959	1	5362.796	-81.01289	-8.627334E-010	0.0006148	7
	36	98	75.60484	1043.161	-6553.821	1	6636.321	-80.95619	-1.906143E-009	0.0006155	7
	37	101	54.50582	1468.673	-8869.739	1	8990.511	-80.59813	-1.509996E-009	0.0006236	7
	38	103	45.95588	1777.296	-10372.95	1	10524.11	-80.27737	-2.899007E-009	0.0006324	7
	39	105	37.20238	2268.088	-12575.87	1	12778.76	-79.77647	-2.351666E-009	0.0006273	7
	40	108	30.04808	2926.918	-15251.23	1	15529.55	-79.13625	-4.056167E-009	0.0006339	7
	41	110	23.91582	3867.69	-18694.79	1	19090.68	-78.31121	6.902388E-010	0.0006167	7
	42	113	18.60119	5255.979	-23263.77	1	23850.12	-77.26892	-2.994273E-009	0.0006345	7
	43	115	15.02404	6861.867	-27932.64	1	28763.13	-76.19816	-2.0225E-010	0.0006202	7
	44	117	12.01923	9029.46	-33676.79	1	34866.28	-74.99081	-2.365752E-009	0.0006493	7
	45	120	9.450605	12107.65	-40961.94	1	42713.88	-73.53323	-5.853379E-010	0.0006825	6
	46	122	7.512019	15888.42	-49120.25	1	51625.97	-72.07569	-1.710181E-009	0.0006872	6
	47	125	5.978954	20667.12	-58489.63	1	62033.59	-70.53931	-1.683403E-009	0.0006739	6
	48	128	4.734848	26840.54	-69457.63	1	74463.26	-68.87195	-1.629879E-009	0.0006923	6
	49	131	3.75601	34331.95	-81916.37	1	88819.9	-67.26096	-5.179968E-009	0.0007034	6
	50	135	3.004808	43072.97	-95499.2	1	104763.4	-65.72321	-4.713346E-009	0.0006817	6
	51	138	2.372217	54493.39	-111624.7	1	124215.9	-63.9791	-4.009803E-009	0.0007422	6
	52	142	1.878005	67629.08	-129660.2	1	146237.7	-62.45404	-5.492515E-009	0.0006469	6
	53	147	1.512097	81728.03	-148007.4	1	169073	-61.09301	-5.212441E-009	0.0007245	6
	54	153	1.201923	99582.1	-170082.3	1	197090.2	-59.65129	-4.51911E-009	0.0006369	6
	55	159	0.956633	119822.7	-194594.3	1	228526.6	-58.37704	-5.717947E-009	2.485097E-005	6
