EXPLAIN
TAG	EISPOT
TITLE	LABEL	Potentiostatic EIS	Test Identifier
DATE	LABEL	8/24/2020	Date
TIME	LABEL	16:59:03	Time
NOTES	NOTES	1	Notes...
	
PSTAT	PSTAT	REF3000-16137	Potentiostat
VDC	POTEN	0.00000E+000	T	DC Voltage (V)
FREQINIT	QUANT	3.00000E+005	Initial Freq. (Hz)
FREQFINAL	QUANT	1.00000E+000	Final Freq. (Hz)
PTSPERDEC	QUANT	1.00000E+001	Points/decade
VAC	QUANT	5.00000E+001	AC Voltage (mV rms)
AREA	QUANT	1.00000E+000	Sample Area (cm^2)
SPEED	SELECTOR	2	Optimize for:
ZGUESS	QUANT	1.00000E+003	Estimated Z (ohms)
EOC	QUANT	0	Open Circuit (V)
SEQUENCER	TOGGLE	TRUE	Run as Sequence
PSTATMODEL	IQUANT	5	Pstat Model
PSTATSECTION	LABEL	REF3000-16137	Pstat Section
PSTATSERIALNO	LABEL	16137	Pstat Serial Number
CTRLMODE	IQUANT	1	Control Mode
IESTAB	IQUANT	0	I/E Stability
CASPEED	IQUANT	1	Control Amp Speed
CONVENTION	IQUANT	1	Current Convention
ICHRANGE	IQUANT	2	Ich Range
ICHRANGEMODE	TOGGLE	F	Ich Auto Range
ICHOFFSETENABLE	TOGGLE	T	Ich Offset Enable
ICHOFFSET	QUANT	0	Ich Offset (V)
ICHFILTER	IQUANT	3	Ich Filter
VCHRANGE	IQUANT	2	Vch Range
VCHRANGEMODE	TOGGLE	F	Vch Auto Range
VCHOFFSETENABLE	TOGGLE	T	Vch Offset Enable
VCHOFFSET	QUANT	0	Vch Offset (V)
VCHFILTER	IQUANT	3	Vch Filter
ACHRANGE	IQUANT	2	Ach Range
ACHOFFSETENABLE	TOGGLE	F	Ach Offset Enable
ACHOFFSET	QUANT	0	Ach Offset (V)
ACHFILTER	IQUANT	3	Ach Filter
IERANGELOWERLIMIT	IQUANT	2	I/E Range Lower Limit
IERANGEMODE	TOGGLE	F	I/E AutoRange
IERANGE	IQUANT	11	I/E Range
POSFEEDENABLE	TOGGLE	F	Positive Feedback IR Comp
POSFEEDRESISTANCE	QUANT	0	Positive Feedback Resistance (ohm)
ACHSELECT	IQUANT	0	Ach Select
CABLEID	IQUANT	13	Cable ID
DCCALDATE	LABEL	7/31/2020	DC Calibration Date
ACCALDATE	LABEL	7/31/2020	AC Calibration Date
THERMOSELECT	IQUANT	1	Thermo Select
FRAMEWORKVERSION	QUANT	6.33	Framework Version
INSTRUMENTVERSION	LABEL	3.50	Instrument Version
COMPLIANCEVOLTAGE	IQUANT	0	Compliance Voltage
ZCURVE	TABLE
	Pt	Time	Freq	Zreal	Zimag	Zsig	Zmod	Zphz	Idc	Vdc	IERange
	#	s	Hz	ohm	ohm	V	ohm	°	A	V	#
	0	23	300046.9	9.64294	-4759.869	1	4759.879	-89.88393	-1.879036E-005	0.0010509	9
	1	37	238359.4	-43.82995	-5996.446	1	5996.606	-90.41879	1.572039E-006	0.0016148	9
	2	51	189328.1	143.1013	-7481.583	1	7482.952	-88.90423	7.7954E-005	-0.001536	9
	3	61	150421.9	146.5586	-9050.889	1	9052.075	-89.0723	1.968002E-005	-0.0008379	9
	4	75	119484.4	384.0059	-11559.4	1	11565.78	-88.09732	7.78571E-005	-0.0236751	8
	5	82	94921.88	552.757	-14370.09	1	14380.72	-87.79716	7.769129E-006	-0.0077272	8
	6	91	75421.88	633.3012	-18051.21	1	18062.31	-87.99068	-2.673991E-005	0.0076631	8
	7	99	59859.37	1711.649	-22372.21	1	22437.59	-85.62495	-2.019465E-005	0.0114413	8
	8	108	47578.12	791.2819	-28771.6	1	28782.48	-88.42464	-2.070192E-005	0.0028416	8
	9	118	37828.12	315.3441	-35669.3	1	35670.7	-89.49348	-2.610776E-005	0.0075513	8
	10	126	30046.88	1671.793	-44047.66	1	44079.37	-87.82643	-2.052446E-005	0.002848	8
	11	135	23859.38	-154.923	-55894.68	1	55894.9	-90.15881	2.643662E-005	-0.0091362	8
	12	141	18984.38	4014.993	-68196.59	1	68314.68	-86.63067	-1.569862E-006	-0.0050734	8
	13	149	15046.87	5910.094	-91073.55	1	91265.12	-86.28707	7.651694E-006	-0.0190048	7
	14	154	11953.13	-5122.509	-101480.5	1	101609.7	-92.88971	1.059623E-005	-0.0008142	9
	15	162	9515.62	-8025.683	-146885.2	1	147104.3	-93.12749	-1.230345E-005	0.010471	8
	16	170	7546.875	6140.987	-176530.6	1	176637.4	-88.00765	5.460121E-006	-0.0271297	7
	17	176	5928.309	-4107.278	-220697.9	1	220736.1	-91.06618	-1.131048E-006	-0.0134172	7
	18	182	4733.456	38187.86	-299266	1	301692.7	-82.72807	2.217173E-009	0.0175582	6
	19	187	3796.875	39868.79	-369327.3	1	371472.9	-83.83879	2.027349E-008	0.0173906	6
	20	192	2987.132	42312.29	-465306.5	1	467226.4	-84.80415	1.820127E-007	-0.0213968	6
	21	197	2390.625	52390.05	-570289.5	1	572690.9	-84.75121	-4.559833E-008	-0.0151928	6
	22	203	1884.191	73880.19	-707348.9	1	711196.8	-84.03727	7.33162E-007	-0.0274588	6
	23	208	1516.544	54503.14	-870892.1	1	872595.9	-86.41892	-2.138012E-007	0.0226637	6
	24	214	1193.986	69212.43	-1143035	1	1145128	-86.53489	-2.914995E-007	-0.0072596	6
	25	220	946.5144	165004.3	-1396822	1	1406534	-83.26296	-4.998571E-007	0.0012664	6
	26	225	751.7689	92840.53	-1573657	1	1576393	-86.62365	-5.353639E-008	-0.0152803	6
	27	230	597.4265	-305351.8	-1957358	1	1981033	-98.8668	-2.934384E-007	-0.0072393	6
	28	234	477.4305	455588.8	-2928293	1	2963522	-81.15672	-1.146273E-009	0.0007231	5
	29	237	376.6741	109871.3	-3541534	1	3543238	-88.22305	-1.010925E-008	0.000701	6
	30	241	298.2954	513672.2	-4553246	1	4582129	-83.56342	-9.806761E-010	0.0005942	5
	31	245	237.7717	467172.5	-5719282	1	5738331	-85.33023	-1.059889E-009	0.0007289	5
	32	248	189.0121	593604.8	-7066479	1	7091368	-85.19826	-1.007279E-009	0.0006854	5
	33	251	150.2404	612424.9	-9301143	1	9321283	-86.23285	-1.022552E-009	0.0006241	5
	34	254	119.1737	2882866	-8523802	1	8998117	-71.31376	-9.874122E-010	0.0006138	5
	35	256	95.0169	727257.7	-1.393701E+007	1	1.395597E+007	-87.01292	-1.09431E-009	0.0007264	5
	36	259	75.60484	-62759.77	-1.764939E+007	1	1.76495E+007	-90.20374	-1.099017E-009	0.0006626	5
	37	262	54.50582	473249.7	-2.392169E+007	1	2.392637E+007	-88.86665	-1.087799E-009	0.0007216	5
	38	265	45.95588	2320654	-2.66625E+007	1	2.67633E+007	-85.02562	-1.073621E-009	0.000631	5
	39	269	37.20238	3558325	-3.281827E+007	1	3.301062E+007	-83.81187	-1.027438E-009	0.0005914	5
	40	273	30.04808	1581735	-4.267987E+007	1	4.270917E+007	-87.87756	-1.075206E-009	0.0006897	5
	41	277	23.91582	8944723	-5.34432E+007	1	5.418656E+007	-80.49854	-1.240406E-010	0.0006019	4
	42	281	18.60119	-1450315	-7.093571E+007	1	7.095054E+007	-91.17128	-1.052512E-010	0.0006997	4
	43	284	15.02404	8479673	-8.562202E+007	1	8.604089E+007	-84.34409	-1.075813E-010	0.0006923	4
	44	288	12.01923	1.240668E+007	-1.023466E+008	1	1.030958E+008	-83.0882	-8.826653E-011	0.0006179	4
	45	291	9.450605	1.70138E+007	-1.366093E+008	1	1.376648E+008	-82.90074	-9.345184E-011	0.0006751	4
	46	295	7.512019	1.79902E+007	-1.580304E+008	1	1.590511E+008	-83.5054	-1.234102E-010	0.0007123	4
	47	300	5.978954	1.047404E+007	-2.130778E+008	1	2.133351E+008	-87.18584	-1.117978E-010	0.0006924	4
	48	305	4.734848	5.766278E+007	-2.781137E+008	1	2.840286E+008	-78.28653	-1.846649E-011	0.0006756	3
	49	310	3.75601	3.630662E+007	-3.298258E+008	1	3.318181E+008	-83.71828	-1.025094E-009	0.0006026	5
	50	318	3.004808	3.563762E+007	-4.163814E+008	1	4.179037E+008	-85.10804	-9.789254E-010	0.0005953	5
	51	328	2.372217	9.419386E+007	-5.243144E+008	1	5.327083E+008	-79.81537	-1.874089E-011	0.0008002	3
	52	333	1.878005	1.154263E+008	-6.533391E+008	1	6.63457E+008	-79.98087	-1.887568E-011	0.0007003	3
	53	342	1.512097	1.439391E+008	-8.011112E+008	1	8.139396E+008	-79.8141	-1.863277E-011	0.000766	3
	54	349	1.201923	1.876929E+008	-9.972722E+008	1	1.014781E+009	-79.34126	-1.863052E-011	0.0006895	3
	55	361	0.956633	2.478729E+008	-1.235362E+009	1	1.259985E+009	-78.65437	-1.853857E-011	9.064058E-005	3
