EXPLAIN
TAG	EISPOT
TITLE	LABEL	Potentiostatic EIS	Test Identifier
DATE	LABEL	8/24/2020	Date
TIME	LABEL	16:04:19	Time
NOTES	NOTES	1	Notes...
	
PSTAT	PSTAT	REF3000-16137	Potentiostat
VDC	POTEN	0.00000E+000	T	DC Voltage (V)
FREQINIT	QUANT	3.00000E+005	Initial Freq. (Hz)
FREQFINAL	QUANT	1.00000E+000	Final Freq. (Hz)
PTSPERDEC	QUANT	1.00000E+001	Points/decade
VAC	QUANT	5.00000E+001	AC Voltage (mV rms)
AREA	QUANT	1.00000E+000	Sample Area (cm^2)
SPEED	SELECTOR	2	Optimize for:
ZGUESS	QUANT	1.00000E+003	Estimated Z (ohms)
EOC	QUANT	0	Open Circuit (V)
SEQUENCER	TOGGLE	TRUE	Run as Sequence
PSTATMODEL	IQUANT	5	Pstat Model
PSTATSECTION	LABEL	REF3000-16137	Pstat Section
PSTATSERIALNO	LABEL	16137	Pstat Serial Number
CTRLMODE	IQUANT	1	Control Mode
IESTAB	IQUANT	0	I/E Stability
CASPEED	IQUANT	1	Control Amp Speed
CONVENTION	IQUANT	1	Current Convention
ICHRANGE	IQUANT	2	Ich Range
ICHRANGEMODE	TOGGLE	F	Ich Auto Range
ICHOFFSETENABLE	TOGGLE	T	Ich Offset Enable
ICHOFFSET	QUANT	0	Ich Offset (V)
ICHFILTER	IQUANT	3	Ich Filter
VCHRANGE	IQUANT	2	Vch Range
VCHRANGEMODE	TOGGLE	F	Vch Auto Range
VCHOFFSETENABLE	TOGGLE	T	Vch Offset Enable
VCHOFFSET	QUANT	0	Vch Offset (V)
VCHFILTER	IQUANT	3	Vch Filter
ACHRANGE	IQUANT	2	Ach Range
ACHOFFSETENABLE	TOGGLE	F	Ach Offset Enable
ACHOFFSET	QUANT	0	Ach Offset (V)
ACHFILTER	IQUANT	3	Ach Filter
IERANGELOWERLIMIT	IQUANT	2	I/E Range Lower Limit
IERANGEMODE	TOGGLE	F	I/E AutoRange
IERANGE	IQUANT	11	I/E Range
POSFEEDENABLE	TOGGLE	F	Positive Feedback IR Comp
POSFEEDRESISTANCE	QUANT	0	Positive Feedback Resistance (ohm)
ACHSELECT	IQUANT	0	Ach Select
CABLEID	IQUANT	13	Cable ID
DCCALDATE	LABEL	7/31/2020	DC Calibration Date
ACCALDATE	LABEL	7/31/2020	AC Calibration Date
THERMOSELECT	IQUANT	1	Thermo Select
FRAMEWORKVERSION	QUANT	6.33	Framework Version
INSTRUMENTVERSION	LABEL	3.50	Instrument Version
COMPLIANCEVOLTAGE	IQUANT	0	Compliance Voltage
ZCURVE	TABLE
	Pt	Time	Freq	Zreal	Zimag	Zsig	Zmod	Zphz	Idc	Vdc	IERange
	#	s	Hz	ohm	ohm	V	ohm	°	A	V	#
	0	25	300046.9	2333.172	-2868.28	1	3697.394	-50.87373	2.657358E-005	-0.0017223	9
	1	41	238359.4	2957.411	-2895.74	1	4139.033	-44.39633	2.767621E-005	-0.0020839	9
	2	55	189328.1	3445.502	-2921.396	1	4517.304	-40.29417	1.853046E-005	-0.0021348	9
	3	62	150421.9	4119.065	-2937.178	1	5059.023	-35.49149	-2.134157E-005	0.0013092	9
	4	74	119484.4	4885.131	-2437.451	1	5459.458	-26.51704	7.527901E-005	-0.0227126	8
	5	81	94921.88	5289.667	-2235.744	1	5742.746	-22.91196	-1.624678E-006	-0.0047812	8
	6	89	75421.88	5651.476	-1985.93	1	5990.25	-19.36149	-1.14411E-005	0.0098714	8
	7	96	59859.37	5985.907	-1692.939	1	6220.701	-15.79201	-9.738531E-006	-0.001802	8
	8	104	47578.12	6198.933	-1463.84	1	6369.427	-13.28664	-9.648799E-006	-0.001852	8
	9	111	37828.12	6433.833	-1251.976	1	6554.514	-11.01172	-1.874939E-006	-0.0046779	8
	10	118	30046.88	6819.035	-639.8918	1	6848.993	-5.360883	-3.545075E-007	-0.0139968	7
	11	122	23859.38	6852.68	-565.2044	1	6875.949	-4.715045	6.811276E-006	-0.0152646	7
	12	126	18984.38	6917.689	-516.7324	1	6936.961	-4.271904	5.68476E-006	-0.0077564	7
	13	129	15046.87	6983.646	-506.1646	1	7001.965	-4.145466	-5.290947E-006	0.0245918	7
	14	133	11953.13	7058.52	-509.064	1	7076.853	-4.125059	-5.875361E-006	0.00905	7
	15	136	9515.62	7111.062	-500.0179	1	7128.619	-4.022162	-6.094497E-006	0.0233037	7
	16	139	7546.875	7200.565	-530.6869	1	7220.094	-4.21512	-6.611815E-006	0.0206323	7
	17	143	5928.309	7306.596	-566.4427	1	7328.52	-4.432979	5.31843E-006	-0.0247587	7
	18	147	4733.456	7376.377	-625.9183	1	7402.886	-4.850182	-2.257966E-006	0.0215743	7
	19	151	3796.875	7513.602	-687.5339	1	7544.993	-5.228304	-3.960408E-006	0.0243124	7
	20	155	2987.132	7618.899	-780.581	1	7658.781	-5.849729	-6.218169E-006	0.023203	7
	21	159	2390.625	7746.537	-856.6852	1	7793.763	-6.310665	-3.897164E-007	-0.0139809	7
	22	163	1884.191	7942.758	-963.712	1	8001.009	-6.918002	-6.7555E-006	0.0207502	7
	23	167	1516.544	8067.434	-1096.2	1	8141.569	-7.737941	6.560911E-006	-0.0243901	7
	24	171	1193.986	8241.299	-1279.083	1	8339.968	-8.822148	7.115137E-006	-0.0215329	7
	25	176	946.5144	8446.777	-1469.709	1	8573.686	-9.87044	-6.670231E-006	0.0155693	7
	26	178	751.7689	8611.261	-1608.705	1	8760.236	-10.58168	5.203121E-006	-0.0246947	7
	27	181	597.4265	8906.055	-1955.914	1	9118.301	-12.38644	-4.498952E-006	0.0010858	7
	28	184	477.4305	9023.423	-2105.776	1	9265.876	-13.1359	-8.160235E-008	0.0005653	7
	29	186	376.6741	9253.963	-2414.271	1	9563.71	-14.622	-8.216661E-008	0.00059	7
	30	188	298.2954	9479.986	-2772.621	1	9877.12	-16.30266	-9.100027E-008	0.0006685	7
	31	190	237.7717	9692.9	-3192.389	1	10205.08	-18.22948	-8.447169E-008	0.0005873	7
	32	193	189.0121	9895.45	-3722.886	1	10572.6	-20.6174	-8.890083E-008	0.0006635	7
	33	195	150.2404	10086.85	-4396.516	1	11003.36	-23.55075	-8.157532E-008	0.0005725	7
	34	198	119.1737	10256.57	-5263.474	1	11528.29	-27.16602	-8.001278E-008	0.0005958	7
	35	200	95.0169	10436.63	-6352.592	1	12217.97	-31.32813	-8.51463E-008	0.0005789	7
	36	203	75.60484	10618.08	-7746.051	1	13143.25	-36.11131	-7.987605E-008	0.0005852	7
	37	205	54.50582	10880.34	-10399.01	1	15050.62	-43.70423	-9.454943E-008	0.0006828	7
	38	208	45.95588	11069.36	-12185.84	1	16462.85	-47.74866	-8.599582E-008	0.0005855	7
	39	210	37.20238	11320.5	-14842.17	1	18666.64	-52.66631	-8.64417E-008	0.0006645	7
	40	212	30.04808	11626.88	-18157.89	1	21561.39	-57.36771	-8.161181E-008	0.0006102	7
	41	215	23.91582	12046.83	-22555.59	1	25571.09	-61.89354	-9.034597E-008	0.0006434	7
	42	217	18.60119	12605.21	-28672.63	1	31321.1	-66.2685	-8.427786E-008	0.0006602	7
	43	220	15.02404	13259.35	-35105.97	1	37526.52	-69.30869	-8.786802E-008	0.0006693	7
	44	222	12.01923	14168.82	-43514.17	1	45762.85	-71.96404	-8.971304E-009	0.0006287	6
	45	224	9.450605	15375.59	-54633.09	1	56755.46	-74.28162	-9.028826E-009	0.0007033	6
	46	227	7.512019	16944.72	-67952.74	1	70033.55	-75.99825	-9.423164E-009	0.0007242	6
	47	230	5.978954	18966.24	-84324.82	1	86431.44	-77.32404	-8.449542E-009	0.0006218	6
	48	233	4.734848	21814.08	-105201.6	1	107439.5	-78.28545	-9.418267E-009	0.0007192	6
	49	236	3.75601	25549.8	-130837.4	1	133308.7	-78.95039	-9.789747E-009	0.0007346	6
	50	240	3.004808	30391.36	-161240.7	1	164079.9	-79.32587	-9.516754E-009	0.0007377	6
	51	245	2.372217	37332.87	-200993.4	1	204431.1	-79.47769	-9.48682E-009	0.0007188	6
	52	249	1.878005	47061.82	-249564.1	1	253962.7	-79.32079	-9.424829E-009	0.0006376	6
	53	254	1.512097	59008.61	-304395.8	1	310062.6	-79.02901	-9.399733E-009	0.0007628	6
	54	259	1.201923	75611.39	-375438.4	1	382976.6	-78.61324	-9.152375E-009	0.0006348	6
	55	265	0.956633	97671	-461427.1	1	471650.9	-78.04852	-1.428413E-009	5.243441E-006	5
