EXPLAIN
TAG	EISPOT
TITLE	LABEL	Potentiostatic EIS	Test Identifier
DATE	LABEL	8/24/2020	Date
TIME	LABEL	17:30:01	Time
NOTES	NOTES	1	Notes...
	
PSTAT	PSTAT	REF3000-16137	Potentiostat
VDC	POTEN	0.00000E+000	T	DC Voltage (V)
FREQINIT	QUANT	3.00000E+005	Initial Freq. (Hz)
FREQFINAL	QUANT	1.00000E+000	Final Freq. (Hz)
PTSPERDEC	QUANT	1.00000E+001	Points/decade
VAC	QUANT	5.00000E+001	AC Voltage (mV rms)
AREA	QUANT	1.00000E+000	Sample Area (cm^2)
SPEED	SELECTOR	2	Optimize for:
ZGUESS	QUANT	1.00000E+003	Estimated Z (ohms)
EOC	QUANT	0	Open Circuit (V)
SEQUENCER	TOGGLE	TRUE	Run as Sequence
PSTATMODEL	IQUANT	5	Pstat Model
PSTATSECTION	LABEL	REF3000-16137	Pstat Section
PSTATSERIALNO	LABEL	16137	Pstat Serial Number
CTRLMODE	IQUANT	1	Control Mode
IESTAB	IQUANT	0	I/E Stability
CASPEED	IQUANT	1	Control Amp Speed
CONVENTION	IQUANT	1	Current Convention
ICHRANGE	IQUANT	2	Ich Range
ICHRANGEMODE	TOGGLE	F	Ich Auto Range
ICHOFFSETENABLE	TOGGLE	T	Ich Offset Enable
ICHOFFSET	QUANT	0	Ich Offset (V)
ICHFILTER	IQUANT	3	Ich Filter
VCHRANGE	IQUANT	2	Vch Range
VCHRANGEMODE	TOGGLE	F	Vch Auto Range
VCHOFFSETENABLE	TOGGLE	T	Vch Offset Enable
VCHOFFSET	QUANT	0	Vch Offset (V)
VCHFILTER	IQUANT	3	Vch Filter
ACHRANGE	IQUANT	2	Ach Range
ACHOFFSETENABLE	TOGGLE	F	Ach Offset Enable
ACHOFFSET	QUANT	0	Ach Offset (V)
ACHFILTER	IQUANT	3	Ach Filter
IERANGELOWERLIMIT	IQUANT	2	I/E Range Lower Limit
IERANGEMODE	TOGGLE	F	I/E AutoRange
IERANGE	IQUANT	11	I/E Range
POSFEEDENABLE	TOGGLE	F	Positive Feedback IR Comp
POSFEEDRESISTANCE	QUANT	0	Positive Feedback Resistance (ohm)
ACHSELECT	IQUANT	0	Ach Select
CABLEID	IQUANT	13	Cable ID
DCCALDATE	LABEL	7/31/2020	DC Calibration Date
ACCALDATE	LABEL	7/31/2020	AC Calibration Date
THERMOSELECT	IQUANT	1	Thermo Select
FRAMEWORKVERSION	QUANT	6.33	Framework Version
INSTRUMENTVERSION	LABEL	3.50	Instrument Version
COMPLIANCEVOLTAGE	IQUANT	0	Compliance Voltage
ZCURVE	TABLE
	Pt	Time	Freq	Zreal	Zimag	Zsig	Zmod	Zphz	Idc	Vdc	IERange
	#	s	Hz	ohm	ohm	V	ohm	°	A	V	#
	0	20	300046.9	-47.67739	-4800.105	1	4800.342	-90.56908	2.421478E-005	0.0009825	9
	1	35	238359.4	-45.8419	-6017.355	1	6017.53	-90.43649	1.877128E-005	-0.0022697	9
	2	49	189328.1	86.36374	-7430.935	1	7431.437	-89.33413	1.052062E-006	0.0016788	9
	3	57	150421.9	345.4492	-9634.6	1	9640.8	-87.94653	-0.0001073	0.0038957	9
	4	68	119484.4	592.087	-11342.27	1	11357.71	-87.01177	-8.8765E-005	0.0042273	9
	5	77	94921.88	699.9612	-14525.05	1	14541.91	-87.24106	-1.237428E-005	0.0103526	8
	6	85	75421.88	629.6316	-18270.91	1	18281.76	-88.02632	-9.629376E-006	-0.0021682	8
	7	94	59859.37	368.8262	-22248.16	1	22251.22	-89.05025	-2.09804E-006	0.0078811	8
	8	103	47578.12	4131.005	-30105.83	1	30387.93	-82.18689	-5.171546E-006	0.0269593	7
	9	109	37828.12	397.1425	-35890.94	1	35893.14	-89.36604	-2.169229E-006	0.0078777	8
	10	117	30046.88	896.4783	-44546.98	1	44556	-88.84711	-2.692227E-005	0.0097157	8
	11	126	23859.38	-1235.133	-56997.85	1	57011.23	-91.24139	-2.711021E-005	0.0097449	8
	12	132	18984.38	4773.58	-73120.77	1	73276.42	-86.26483	2.855305E-006	0.0084065	7
	13	139	15046.87	6528.104	-88154.05	1	88395.43	-85.76479	-6.894214E-006	0.0124303	7
	14	144	11953.13	5993.292	-112278.4	1	112438.2	-86.94452	-6.646206E-006	0.0264421	7
	15	151	9515.62	5961.268	-140655.2	1	140781.5	-87.57314	-1.960633E-006	0.0227204	7
	16	156	7546.875	9728.79	-182865.9	1	183124.5	-86.95464	7.847873E-006	-0.0248686	7
	17	161	5928.309	14682.09	-236654.9	1	237109.9	-86.44991	2.82939E-006	0.0085987	7
	18	168	4733.456	-30286.25	-243925	1	245798	-97.0777	-2.512452E-005	0.0111925	8
	19	175	3796.875	34763.59	-342584.9	1	344344.2	-84.20578	-2.079867E-006	0.0078796	8
	20	184	2987.132	-59436.44	-368416.1	1	373179.7	-99.1645	-2.721424E-005	0.0098018	8
	21	192	2390.625	-604661.9	-1013347	1	1180037	-120.8244	-1.270395E-006	-0.0051414	8
	22	200	1884.191	273966.7	-583592.7	1	644700.1	-64.85236	1.812934E-007	-0.0214504	6
	23	207	1516.544	421045.6	-571231	1	709636.7	-53.60664	4.011798E-007	-0.0257045	6
	24	212	1193.986	555082.1	-508320.1	1	752665.6	-42.4821	1.805799E-007	-0.0213888	6
	25	218	946.5144	647881.3	-406611.2	1	764907.1	-32.11244	4.011627E-007	-0.0257072	6
	26	222	751.7689	664676.6	-275519.6	1	719517.9	-22.51483	-7.447734E-007	0.0177587	6
	27	226	597.4265	615532.9	-199163.1	1	646951.9	-17.92961	-5.009005E-007	0.001425	6
	28	230	477.4305	567631.2	-149866.4	1	587081.9	-14.78979	-9.484697E-009	0.0006327	6
	29	233	376.6741	574624.7	-62428.51	1	578005.9	-6.200423	-1.168328E-009	0.0005983	5
	30	236	298.2954	535495.6	-48720.18	1	537707.3	-5.198543	-1.131456E-009	0.0005987	5
	31	238	237.7717	495293.1	-42149.08	1	497083.3	-4.864109	-1.121992E-009	0.0006287	5
	32	241	189.0121	461192.8	-39349.4	1	462868.4	-4.876719	-1.028379E-009	0.0006819	5
	33	243	150.2404	425963	-39065.75	1	427750.6	-5.24003	-1.087625E-009	0.000595	5
	34	246	119.1737	404810.6	-36419.41	1	406445.6	-5.140863	-1.586156E-009	0.0006077	5
	35	248	95.0169	372758.3	-40698.54	1	374973.5	-6.230992	-1.278948E-009	0.0005916	5
	36	251	75.60484	349494.4	-43052.48	1	352136.1	-7.022605	-9.907745E-010	0.0006769	5
	37	253	54.50582	331344.3	-46110.44	1	334537.3	-7.922499	-7.908971E-010	0.0005968	5
	38	256	45.95588	309920.7	-53363.37	1	314481.3	-9.76962	-1.055339E-008	0.0006695	6
	39	258	37.20238	294708.1	-55500	1	299888.5	-10.66514	-9.101226E-009	0.0006578	6
	40	260	30.04808	278520.9	-58085.26	1	284513.3	-11.78013	-1.042234E-008	0.0006442	6
	41	263	23.91582	263678.8	-61783.02	1	270820.3	-13.18717	-9.512408E-009	0.0007358	6
	42	266	18.60119	254285.7	-67127.13	1	262996.7	-14.78777	-1.226328E-008	0.0006159	6
	43	268	15.02404	244376.7	-71469.03	1	254613	-16.30179	-1.148219E-008	0.0006136	6
	44	271	12.01923	226992.5	-75319.66	1	239162.3	-18.35665	-1.134567E-008	0.000611	6
	45	274	9.450605	210966.8	-81449.59	1	226143.8	-21.11047	-9.574934E-008	0.0006401	7
	46	278	7.512019	199733.4	-91379.54	1	219644.4	-24.58445	-9.780777E-009	0.0006018	6
	47	281	5.978954	184756.3	-103965.1	1	211999.1	-29.36709	-9.518457E-009	0.0006348	6
	48	285	4.734848	170940.8	-122174.8	1	210112.9	-35.55415	-9.339368E-009	0.0006781	6
	49	289	3.75601	155811	-145892.7	1	213452	-43.11712	-1.055066E-008	0.0006907	6
	50	294	3.004808	139359.4	-174590.2	1	223389.3	-51.40284	-1.022027E-008	0.0006681	6
	51	301	2.372217	130760.4	-213774.8	1	250595.2	-58.54697	-1.046877E-008	0.0006333	6
	52	305	1.878005	130523.1	-261630.3	1	292381.1	-63.48613	-1.045062E-008	0.0006604	6
	53	310	1.512097	134393.9	-313188.8	1	340806.3	-66.77512	-1.032575E-008	0.0005518	6
	54	315	1.201923	145562.1	-375961.9	1	403157.1	-68.83496	-1.042698E-008	0.00067	6
	55	321	0.956633	165846	-445630	1	475490.3	-69.5867	-1.638156E-009	2.160151E-006	5
