EXPLAIN
TAG	EISPOT
TITLE	LABEL	Potentiostatic EIS	Test Identifier
DATE	LABEL	8/24/2020	Date
TIME	LABEL	15:38:11	Time
NOTES	NOTES	1	Notes...
	
PSTAT	PSTAT	REF3000-16137	Potentiostat
VDC	POTEN	0.00000E+000	T	DC Voltage (V)
FREQINIT	QUANT	3.00000E+005	Initial Freq. (Hz)
FREQFINAL	QUANT	1.00000E+000	Final Freq. (Hz)
PTSPERDEC	QUANT	1.00000E+001	Points/decade
VAC	QUANT	5.00000E+001	AC Voltage (mV rms)
AREA	QUANT	1.00000E+000	Sample Area (cm^2)
SPEED	SELECTOR	2	Optimize for:
ZGUESS	QUANT	1.00000E+003	Estimated Z (ohms)
EOC	QUANT	0	Open Circuit (V)
SEQUENCER	TOGGLE	TRUE	Run as Sequence
PSTATMODEL	IQUANT	5	Pstat Model
PSTATSECTION	LABEL	REF3000-16137	Pstat Section
PSTATSERIALNO	LABEL	16137	Pstat Serial Number
CTRLMODE	IQUANT	1	Control Mode
IESTAB	IQUANT	0	I/E Stability
CASPEED	IQUANT	1	Control Amp Speed
CONVENTION	IQUANT	1	Current Convention
ICHRANGE	IQUANT	2	Ich Range
ICHRANGEMODE	TOGGLE	F	Ich Auto Range
ICHOFFSETENABLE	TOGGLE	T	Ich Offset Enable
ICHOFFSET	QUANT	0	Ich Offset (V)
ICHFILTER	IQUANT	3	Ich Filter
VCHRANGE	IQUANT	2	Vch Range
VCHRANGEMODE	TOGGLE	F	Vch Auto Range
VCHOFFSETENABLE	TOGGLE	T	Vch Offset Enable
VCHOFFSET	QUANT	0	Vch Offset (V)
VCHFILTER	IQUANT	3	Vch Filter
ACHRANGE	IQUANT	2	Ach Range
ACHOFFSETENABLE	TOGGLE	F	Ach Offset Enable
ACHOFFSET	QUANT	0	Ach Offset (V)
ACHFILTER	IQUANT	3	Ach Filter
IERANGELOWERLIMIT	IQUANT	2	I/E Range Lower Limit
IERANGEMODE	TOGGLE	F	I/E AutoRange
IERANGE	IQUANT	11	I/E Range
POSFEEDENABLE	TOGGLE	F	Positive Feedback IR Comp
POSFEEDRESISTANCE	QUANT	0	Positive Feedback Resistance (ohm)
ACHSELECT	IQUANT	0	Ach Select
CABLEID	IQUANT	13	Cable ID
DCCALDATE	LABEL	7/31/2020	DC Calibration Date
ACCALDATE	LABEL	7/31/2020	AC Calibration Date
THERMOSELECT	IQUANT	1	Thermo Select
FRAMEWORKVERSION	QUANT	6.33	Framework Version
INSTRUMENTVERSION	LABEL	3.50	Instrument Version
COMPLIANCEVOLTAGE	IQUANT	0	Compliance Voltage
ZCURVE	TABLE
	Pt	Time	Freq	Zreal	Zimag	Zsig	Zmod	Zphz	Idc	Vdc	IERange
	#	s	Hz	ohm	ohm	V	ohm	°	A	V	#
	0	14	300046.9	602.6758	-78.78311	1	607.8033	-7.4476	-0.0001041	0.0037015	9
	1	25	238359.4	614.7145	-73.08143	1	619.0435	-6.779888	1.718738E-005	-0.0020437	9
	2	34	189328.1	628.576	-66.12865	1	632.0449	-6.005648	-0.0001037	0.0037875	9
	3	43	150421.9	640.7388	-61.7921	1	643.7115	-5.508503	-0.0001018	0.003715	9
	4	50	119484.4	653.9619	-58.72058	1	656.593	-5.130945	2.539448E-005	-0.0013939	9
	5	60	94921.88	664.842	-37.03481	1	665.8727	-3.188347	-2.216704E-006	-0.0029051	8
	6	63	75421.88	670.2324	-41.49623	1	671.5157	-3.542843	-1.18457E-005	0.0013136	8
	7	66	59859.37	676.083	-46.01183	1	677.6469	-3.893346	9.426123E-006	-0.0056904	8
	8	68	47578.12	683.8167	-52.32975	1	685.8161	-4.376087	2.554962E-006	-0.0037507	8
	9	71	37828.12	689.9567	-58.97045	1	692.4722	-4.885185	1.40335E-005	-0.0006069	8
	10	74	30046.88	699.929	-67.36341	1	703.1631	-5.497398	1.669128E-005	-0.0060053	8
	11	76	23859.38	707.9548	-74.68335	1	711.8831	-6.021956	1.82259E-005	-0.0038844	8
	12	79	18984.38	719.7436	-86.88524	1	724.9689	-6.883264	1.895228E-005	-0.0051335	8
	13	81	15046.87	732.1717	-98.5579	1	738.7754	-7.666523	9.408949E-007	0.0048024	8
	14	84	11953.13	741.2301	-115.4636	1	750.1693	-8.853972	1.691439E-005	-0.0059977	8
	15	86	9515.62	758.5724	-126.8957	1	769.1129	-9.496633	-1.748752E-005	0.0069164	8
	16	88	7546.875	774.8357	-146.2234	1	788.5123	-10.68691	-1.835018E-005	0.0062764	8
	17	91	5928.309	792.6523	-167.6135	1	810.1802	-11.93982	-1.72089E-005	0.0067576	8
	18	94	4733.456	810.8415	-193.2484	1	833.5519	-13.40526	1.746839E-005	-0.002662	8
	19	97	3796.875	830.4074	-217.9894	1	858.5428	-14.70879	1.814995E-005	-0.0045316	8
	20	99	2987.132	850.8992	-251.5238	1	887.2957	-16.46756	-6.002108E-006	0.0065996	8
	21	102	2390.625	868.1948	-288.1538	1	914.765	-18.361	6.689153E-006	0.0029105	8
	22	105	1884.191	886.4525	-337.1395	1	948.3992	-20.82303	-1.768613E-005	0.0070651	8
	23	108	1516.544	900.3622	-401.6153	1	985.874	-24.03972	-1.171158E-005	0.0075068	8
	24	111	1193.986	922.0881	-486.5071	1	1042.562	-27.81678	1.906096E-005	-0.0052778	8
	25	114	946.5144	933.0188	-584.2712	1	1100.862	-32.05545	-1.136031E-005	0.0074956	8
	26	116	751.7689	954.24	-720.2278	1	1195.534	-37.04427	-2.394186E-006	-0.0028786	8
	27	119	597.4265	965.31	-888.212	1	1311.771	-42.61813	-1.515083E-005	0.0029801	8
	28	121	477.4305	989.834	-1084.882	1	1468.584	-47.62301	-2.06522E-007	0.0006461	8
	29	124	376.6741	1015.772	-1353.214	1	1692.035	-53.10678	-2.073987E-007	0.0006421	8
	30	126	298.2954	1047.821	-1685.256	1	1984.444	-58.12841	-2.203754E-007	0.0006597	8
	31	128	237.7717	1088.069	-2088.155	1	2354.63	-62.47746	-2.069822E-007	0.0006449	8
	32	131	189.0121	1140.168	-2595.181	1	2834.599	-66.28217	-1.857854E-007	0.0006511	8
	33	133	150.2404	1208.055	-3225.815	1	3444.602	-69.46928	-2.176427E-007	0.0006585	8
	34	136	119.1737	1296.694	-4018.425	1	4222.458	-72.11578	-1.883286E-007	0.0006448	8
	35	138	95.0169	1416.241	-4986.25	1	5183.477	-74.1439	-4.659419E-008	0.0006436	7
	36	140	75.60484	1569.363	-6186.512	1	6382.462	-75.76575	-4.121548E-008	0.0006022	7
	37	143	54.50582	1881.071	-8413.848	1	8621.558	-77.39771	-4.187964E-008	0.0006095	7
	38	146	45.95588	2102.368	-9873.16	1	10094.52	-77.97911	-4.529125E-008	0.0006349	7
	39	148	37.20238	2457.304	-12022.96	1	12271.51	-78.44873	-4.942959E-008	0.0006716	7
	40	150	30.04808	2930.922	-14658.59	1	14948.74	-78.69306	-4.679864E-008	0.0006408	7
	41	153	23.91582	3613.392	-18087.13	1	18444.53	-78.70235	-4.636152E-008	0.0006325	7
	42	155	18.60119	4648.103	-22736.45	1	23206.71	-78.446	-4.183556E-008	0.0005965	7
	43	157	15.02404	5823.693	-27569.45	1	28177.83	-78.07235	-4.135768E-008	0.0006382	7
	44	160	12.01923	7459.982	-33613.56	1	34431.42	-77.48695	-4.418345E-008	0.000627	7
	45	162	9.450605	9839.36	-41481.4	1	42632.38	-76.65609	-3.974723E-008	0.0005969	7
	46	165	7.512019	12882.37	-50496.27	1	52113.62	-75.68826	-4.111852E-009	0.0006854	6
	47	167	5.978954	16798.28	-61096.43	1	63363.68	-74.62658	-4.700276E-009	0.0006948	6
	48	170	4.734848	22003.23	-73964	1	77167.45	-73.43301	-6.217613E-009	0.0006458	6
	49	174	3.75601	28579.93	-88873.66	1	93355.98	-72.17328	-5.167423E-009	0.0006562	6
	50	177	3.004808	36484.58	-105493.2	1	111624.1	-70.92217	-7.277511E-009	0.0007062	6
	51	181	2.372217	46872.24	-125970.2	1	134407.9	-69.59027	-5.943636E-009	0.0007186	6
	52	185	1.878005	59744.84	-149309.1	1	160818.7	-68.19157	-6.512999E-009	0.0006327	6
	53	190	1.512097	73905.16	-173869.4	1	188924.7	-66.97153	-6.825279E-009	0.0007364	6
	54	195	1.201923	91873.75	-204326.6	1	224031.5	-65.78933	-6.34745E-009	0.0006304	6
	55	201	0.956633	112770.1	-238822.8	1	264108.7	-64.72371	-7.82603E-009	2.042936E-005	6
