EXPLAIN
TAG	EISPOT
TITLE	LABEL	Potentiostatic EIS	Test Identifier
DATE	LABEL	8/24/2020	Date
TIME	LABEL	15:34:53	Time
NOTES	NOTES	1	Notes...
	
PSTAT	PSTAT	REF3000-16137	Potentiostat
VDC	POTEN	0.00000E+000	T	DC Voltage (V)
FREQINIT	QUANT	3.00000E+005	Initial Freq. (Hz)
FREQFINAL	QUANT	1.00000E+000	Final Freq. (Hz)
PTSPERDEC	QUANT	1.00000E+001	Points/decade
VAC	QUANT	5.00000E+001	AC Voltage (mV rms)
AREA	QUANT	1.00000E+000	Sample Area (cm^2)
SPEED	SELECTOR	2	Optimize for:
ZGUESS	QUANT	1.00000E+003	Estimated Z (ohms)
EOC	QUANT	0	Open Circuit (V)
SEQUENCER	TOGGLE	TRUE	Run as Sequence
PSTATMODEL	IQUANT	5	Pstat Model
PSTATSECTION	LABEL	REF3000-16137	Pstat Section
PSTATSERIALNO	LABEL	16137	Pstat Serial Number
CTRLMODE	IQUANT	1	Control Mode
IESTAB	IQUANT	0	I/E Stability
CASPEED	IQUANT	1	Control Amp Speed
CONVENTION	IQUANT	1	Current Convention
ICHRANGE	IQUANT	2	Ich Range
ICHRANGEMODE	TOGGLE	F	Ich Auto Range
ICHOFFSETENABLE	TOGGLE	T	Ich Offset Enable
ICHOFFSET	QUANT	0	Ich Offset (V)
ICHFILTER	IQUANT	3	Ich Filter
VCHRANGE	IQUANT	2	Vch Range
VCHRANGEMODE	TOGGLE	F	Vch Auto Range
VCHOFFSETENABLE	TOGGLE	T	Vch Offset Enable
VCHOFFSET	QUANT	0	Vch Offset (V)
VCHFILTER	IQUANT	3	Vch Filter
ACHRANGE	IQUANT	2	Ach Range
ACHOFFSETENABLE	TOGGLE	F	Ach Offset Enable
ACHOFFSET	QUANT	0	Ach Offset (V)
ACHFILTER	IQUANT	3	Ach Filter
IERANGELOWERLIMIT	IQUANT	2	I/E Range Lower Limit
IERANGEMODE	TOGGLE	F	I/E AutoRange
IERANGE	IQUANT	11	I/E Range
POSFEEDENABLE	TOGGLE	F	Positive Feedback IR Comp
POSFEEDRESISTANCE	QUANT	0	Positive Feedback Resistance (ohm)
ACHSELECT	IQUANT	0	Ach Select
CABLEID	IQUANT	13	Cable ID
DCCALDATE	LABEL	7/31/2020	DC Calibration Date
ACCALDATE	LABEL	7/31/2020	AC Calibration Date
THERMOSELECT	IQUANT	1	Thermo Select
FRAMEWORKVERSION	QUANT	6.33	Framework Version
INSTRUMENTVERSION	LABEL	3.50	Instrument Version
COMPLIANCEVOLTAGE	IQUANT	0	Compliance Voltage
ZCURVE	TABLE
	Pt	Time	Freq	Zreal	Zimag	Zsig	Zmod	Zphz	Idc	Vdc	IERange
	#	s	Hz	ohm	ohm	V	ohm	°	A	V	#
	0	17	300046.9	321.491	-25.0223	1	322.4633	-4.450475	-8.168758E-005	0.0035203	9
	1	25	238359.4	334.4067	-25.53956	1	335.3806	-4.367358	-4.701193E-006	-0.0017156	9
	2	30	189328.1	348.3704	-26.83481	1	349.4024	-4.404769	1.569985E-005	-0.0018024	9
	3	39	150421.9	363.3343	-27.46443	1	364.3708	-4.322766	7.472673E-005	-0.0015129	9
	4	45	119484.4	374.7498	-29.43624	1	375.9042	-4.491307	-0.0000991	0.0036119	9
	5	52	94921.88	386.3072	-31.73368	1	387.6084	-4.696089	2.735668E-005	-0.0005058	9
	6	55	75421.88	393.1412	-34.51474	1	394.6533	-5.017261	1.156261E-005	0.0003539	9
	7	58	59859.37	400.1477	-30.73566	1	401.3264	-4.39231	-1.405632E-005	0.004776	8
	8	60	47578.12	407.7874	-35.54299	1	409.3335	-4.981345	5.104587E-006	-0.0041145	8
	9	63	37828.12	416.0309	-43.32617	1	418.2808	-5.945449	6.874055E-006	0.0017324	8
	10	65	30046.88	425.4812	-50.98925	1	428.5256	-6.833681	-8.91478E-006	0.0061444	8
	11	68	23859.38	434.7131	-59.72136	1	438.7962	-7.82239	-5.372361E-006	0.0048948	8
	12	70	18984.38	445.5645	-68.24567	1	450.7607	-8.708132	1.424612E-005	-0.0021421	8
	13	73	15046.87	458.0748	-79.03168	1	464.8424	-9.78888	-1.49212E-005	0.0041317	8
	14	75	11953.13	470.0344	-90.3609	1	478.6412	-10.88196	-4.528191E-006	-0.0007274	8
	15	78	9515.62	483.0401	-103.5117	1	494.0065	-12.09511	-8.162974E-006	0.0059998	8
	16	80	7546.875	496.45	-118.0611	1	510.295	-13.37707	-1.413575E-005	0.0063292	8
	17	82	5928.309	512.6222	-138.2266	1	530.9313	-15.09068	-7.064165E-006	-0.0002574	8
	18	84	4733.456	526.9914	-157.7378	1	550.0919	-16.66336	1.122357E-005	-0.0049037	8
	19	87	3796.875	538.8439	-183.4301	1	569.2094	-18.7993	1.151291E-005	-0.005062	8
	20	89	2987.132	552.7264	-215.5556	1	593.2712	-21.30509	-1.317975E-005	0.0027098	8
	21	91	2390.625	566.4788	-254.1043	1	620.86	-24.15948	-9.326141E-006	0.0064112	8
	22	94	1884.191	575.8878	-306.2245	1	652.2424	-28.00151	-1.23522E-005	0.0064146	8
	23	96	1516.544	590.9034	-369.7483	1	697.0513	-32.03561	1.603704E-005	-0.0044757	8
	24	99	1193.986	605.1108	-455.5042	1	757.3924	-36.97103	-2.335281E-006	-0.002	8
	25	101	946.5144	618.026	-562.7399	1	835.8423	-42.31924	7.664928E-006	-0.0047893	8
	26	104	751.7689	635.3651	-693.6812	1	940.6819	-47.51242	1.198464E-005	-0.005226	8
	27	106	597.4265	654.5599	-859.0693	1	1080.023	-52.69475	-1.520873E-005	0.0052048	8
	28	109	477.4305	674.3098	-1060.426	1	1256.661	-57.54831	-1.178396E-007	0.0006392	8
	29	111	376.6741	702.5109	-1326.652	1	1501.175	-62.09714	-1.245059E-007	0.0006418	8
	30	114	298.2954	737.4387	-1654.579	1	1811.477	-65.97768	-1.079797E-007	0.0006422	8
	31	116	237.7717	781.0397	-2050.974	1	2194.657	-69.15247	-1.428188E-007	0.0006531	8
	32	118	189.0121	837.6048	-2548.708	1	2682.814	-71.80746	-1.10313E-007	0.0006346	8
	33	121	150.2404	910.7201	-3167.729	1	3296.046	-73.96009	-1.406652E-007	0.0006428	8
	34	123	119.1737	1007.147	-3942.672	1	4069.276	-75.67036	-1.064143E-007	0.0006422	8
	35	126	95.0169	1133.655	-4890.252	1	5019.934	-76.94828	-3.747218E-008	0.0006751	7
	36	128	75.60484	1298.572	-6062.235	1	6199.757	-77.90957	-3.478939E-008	0.0006262	7
	37	131	54.50582	1633.376	-8231.328	1	8391.822	-78.77636	-3.092418E-008	0.0006133	7
	38	133	45.95588	1874.111	-9650.91	1	9831.2	-79.01051	-3.263609E-008	0.000638	7
	39	135	37.20238	2257.278	-11736.54	1	11951.64	-79.11329	-3.468979E-008	0.0006402	7
	40	138	30.04808	2765.961	-14281.11	1	14546.5	-79.03868	-3.210017E-008	0.000625	7
	41	140	23.91582	3497.788	-17578.57	1	17923.19	-78.74626	-3.302039E-008	0.0006339	7
	42	143	18.60119	4595.15	-22051.33	1	22525.02	-78.22891	-3.328056E-008	0.0006093	7
	43	145	15.02404	5860.198	-26648.66	1	27285.4	-77.59772	-3.376366E-008	0.0006542	7
	44	147	12.01923	7608.442	-32407.2	1	33288.36	-76.7876	-3.828739E-008	0.0006234	7
	45	150	9.450605	10122.15	-39780.93	1	41048.51	-75.72418	-3.622474E-008	0.0006225	7
	46	152	7.512019	13280.4	-48217.17	1	50012.64	-74.60091	-6.112951E-009	0.0007075	6
	47	155	5.978954	17340.27	-58033.32	1	60568.56	-73.36394	-7.200209E-009	0.000673	6
	48	158	4.734848	22689.16	-69833.27	1	73426.73	-72.00078	-5.7936E-009	0.0006556	6
	49	161	3.75601	29309.51	-83419.38	1	88418.55	-70.64101	-5.215675E-009	0.0006708	6
	50	165	3.004808	37153.43	-98458.4	1	105235.1	-69.32592	-5.151814E-009	0.0006799	6
	51	168	2.372217	47588.22	-116727.4	1	126055.2	-67.81992	-5.78127E-009	0.0006048	6
	52	172	1.878005	59946	-137824.9	1	150297.1	-66.4937	-5.198294E-009	0.0006648	6
	53	177	1.512097	73421.65	-159706	1	175774.7	-65.31034	-5.793474E-009	0.0006737	6
	54	183	1.201923	90882.54	-186421.6	1	207394.9	-64.01027	-5.867615E-009	0.0006865	6
	55	189	0.956633	110985.9	-216549.8	1	243334.6	-62.86399	-7.575296E-009	2.989083E-005	6
