EXPLAIN
TAG	EISPOT
TITLE	LABEL	Potentiostatic EIS	Test Identifier
DATE	LABEL	8/24/2020	Date
TIME	LABEL	15:49:58	Time
NOTES	NOTES	1	Notes...
	
PSTAT	PSTAT	REF3000-16137	Potentiostat
VDC	POTEN	0.00000E+000	T	DC Voltage (V)
FREQINIT	QUANT	3.00000E+005	Initial Freq. (Hz)
FREQFINAL	QUANT	1.00000E+000	Final Freq. (Hz)
PTSPERDEC	QUANT	1.00000E+001	Points/decade
VAC	QUANT	5.00000E+001	AC Voltage (mV rms)
AREA	QUANT	1.00000E+000	Sample Area (cm^2)
SPEED	SELECTOR	2	Optimize for:
ZGUESS	QUANT	1.00000E+003	Estimated Z (ohms)
EOC	QUANT	0	Open Circuit (V)
SEQUENCER	TOGGLE	TRUE	Run as Sequence
PSTATMODEL	IQUANT	5	Pstat Model
PSTATSECTION	LABEL	REF3000-16137	Pstat Section
PSTATSERIALNO	LABEL	16137	Pstat Serial Number
CTRLMODE	IQUANT	1	Control Mode
IESTAB	IQUANT	0	I/E Stability
CASPEED	IQUANT	1	Control Amp Speed
CONVENTION	IQUANT	1	Current Convention
ICHRANGE	IQUANT	2	Ich Range
ICHRANGEMODE	TOGGLE	F	Ich Auto Range
ICHOFFSETENABLE	TOGGLE	T	Ich Offset Enable
ICHOFFSET	QUANT	0	Ich Offset (V)
ICHFILTER	IQUANT	3	Ich Filter
VCHRANGE	IQUANT	2	Vch Range
VCHRANGEMODE	TOGGLE	F	Vch Auto Range
VCHOFFSETENABLE	TOGGLE	T	Vch Offset Enable
VCHOFFSET	QUANT	0	Vch Offset (V)
VCHFILTER	IQUANT	3	Vch Filter
ACHRANGE	IQUANT	2	Ach Range
ACHOFFSETENABLE	TOGGLE	F	Ach Offset Enable
ACHOFFSET	QUANT	0	Ach Offset (V)
ACHFILTER	IQUANT	3	Ach Filter
IERANGELOWERLIMIT	IQUANT	2	I/E Range Lower Limit
IERANGEMODE	TOGGLE	F	I/E AutoRange
IERANGE	IQUANT	11	I/E Range
POSFEEDENABLE	TOGGLE	F	Positive Feedback IR Comp
POSFEEDRESISTANCE	QUANT	0	Positive Feedback Resistance (ohm)
ACHSELECT	IQUANT	0	Ach Select
CABLEID	IQUANT	13	Cable ID
DCCALDATE	LABEL	7/31/2020	DC Calibration Date
ACCALDATE	LABEL	7/31/2020	AC Calibration Date
THERMOSELECT	IQUANT	1	Thermo Select
FRAMEWORKVERSION	QUANT	6.33	Framework Version
INSTRUMENTVERSION	LABEL	3.50	Instrument Version
COMPLIANCEVOLTAGE	IQUANT	0	Compliance Voltage
ZCURVE	TABLE
	Pt	Time	Freq	Zreal	Zimag	Zsig	Zmod	Zphz	Idc	Vdc	IERange
	#	s	Hz	ohm	ohm	V	ohm	°	A	V	#
	0	19	300046.9	1424.095	-483.0454	1	1503.789	-18.73665	2.58209E-005	-0.0016835	9
	1	38	238359.4	1483.387	-410.4839	1	1539.134	-15.46787	1.931228E-005	-0.0005524	9
	2	51	189328.1	1554.37	-365.9417	1	1596.866	-13.24777	2.430501E-005	0.0010435	9
	3	62	150421.9	1598.263	-303.3686	1	1626.8	-10.74754	8.819864E-005	-0.0024758	9
	4	68	119484.4	1656.192	-224.7254	1	1671.369	-7.727157	6.275973E-006	0.0116838	8
	5	79	94921.88	1678.419	-194.679	1	1689.672	-6.616144	-2.207393E-005	0.0068466	8
	6	82	75421.88	1690.178	-175.3184	1	1699.247	-5.921983	2.290919E-005	-0.0064689	8
	7	86	59859.37	1710.723	-158.6798	1	1718.066	-5.299364	-9.208544E-006	0.0085322	8
	8	89	47578.12	1727.666	-151.8905	1	1734.329	-5.024333	-4.838937E-007	0.0062676	8
	9	93	37828.12	1748.422	-145.5132	1	1754.466	-4.757504	-2.087912E-005	0.0048113	8
	10	97	30046.88	1766.124	-147.3562	1	1772.261	-4.769415	-1.590163E-005	0.0093354	8
	11	101	23859.38	1784.458	-150.3683	1	1790.782	-4.816679	-2.387024E-006	-0.0037389	8
	12	104	18984.38	1806.844	-159.6287	1	1813.882	-5.048785	-2.766019E-006	-0.0036697	8
	13	108	15046.87	1833.167	-173.8196	1	1841.39	-5.416549	2.302754E-005	-0.0064354	8
	14	111	11953.13	1854.628	-188.4025	1	1864.173	-5.800497	1.840986E-005	-0.0081336	8
	15	115	9515.62	1883.395	-211.6999	1	1895.255	-6.413319	-9.20156E-006	-0.0012757	8
	16	119	7546.875	1910.194	-233.1132	1	1924.366	-6.957766	2.251075E-005	-0.004663	8
	17	122	5928.309	1949.556	-268.3803	1	1967.942	-7.838204	-8.495325E-007	0.0064107	8
	18	127	4733.456	1983.035	-301.7638	1	2005.863	-8.652476	-1.469609E-005	0.0011741	8
	19	131	3796.875	2025.875	-340.3561	1	2054.266	-9.53689	-1.827077E-005	0.0029858	8
	20	135	2987.132	2073.824	-395.4967	1	2111.199	-10.79716	2.201754E-005	-0.0077054	8
	21	139	2390.625	2119.039	-445.0478	1	2165.27	-11.86106	-1.458872E-005	0.001106	8
	22	143	1884.191	2186.392	-508.7989	1	2244.813	-13.10024	-9.133412E-006	0.008578	8
	23	148	1516.544	2230.297	-576.1951	1	2303.525	-14.48558	-1.832625E-005	0.0029925	8
	24	152	1193.986	2297.891	-667.1299	1	2392.774	-16.18921	1.279825E-005	-0.007657	8
	25	156	946.5144	2390.393	-770.2081	1	2511.414	-17.85945	-5.489546E-007	0.0007873	9
	26	160	751.7689	2403.247	-892.0079	1	2563.449	-20.36331	-9.108969E-006	0.0085913	8
	27	164	597.4265	2459.094	-1039.603	1	2669.817	-22.91663	2.299503E-005	-0.0048593	8
	28	168	477.4305	2493.374	-1250.785	1	2789.511	-26.64033	-3.068966E-007	0.0006384	8
	29	171	376.6741	2535.681	-1519.158	1	2955.93	-30.92635	-3.069235E-007	0.0006273	8
	30	173	298.2954	2578.207	-1857.331	1	3177.551	-35.76884	-3.119986E-007	0.0006433	8
	31	176	237.7717	2623.782	-2274.236	1	3472.23	-40.91801	-3.312554E-007	0.0006449	8
	32	178	189.0121	2677.164	-2805.447	1	3877.852	-46.34037	-3.508615E-007	0.0006745	8
	33	181	150.2404	2749.382	-3480.32	1	4435.283	-51.69198	-6.39301E-008	0.0005823	7
	34	183	119.1737	2829.38	-4323.967	1	5167.405	-56.80134	-6.388827E-008	0.0006015	7
	35	185	95.0169	2929.084	-5357.397	1	6105.836	-61.33297	-6.435282E-008	0.0006168	7
	36	188	75.60484	3058.725	-6653.049	1	7322.49	-65.30949	-6.246234E-008	0.0006018	7
	37	191	54.50582	3311.17	-9076.445	1	9661.56	-69.95757	-6.390093E-008	0.0005782	7
	38	193	45.95588	3492.031	-10671.63	1	11228.44	-71.88057	-6.978426E-008	0.000664	7
	39	195	37.20238	3770.774	-13035.7	1	13570.12	-73.86668	-6.389107E-008	0.0005977	7
	40	198	30.04808	4138.991	-15957.25	1	16485.3	-75.45907	-7.249557E-008	0.0006527	7
	41	200	23.91582	4662.637	-19786.14	1	20328.1	-76.74007	-7.285938E-008	0.0006258	7
	42	203	18.60119	5461.179	-25055.76	1	25644.02	-77.70406	-6.620367E-008	0.0005949	7
	43	205	15.02404	6361.858	-30603.57	1	31257.82	-78.25663	-7.130582E-008	0.0006592	7
	44	207	12.01923	7643.642	-37625.55	1	38394.11	-78.51662	-6.643661E-008	0.0006191	7
	45	210	9.450605	9526.45	-46980.22	1	47936.36	-78.53722	-9.052061E-009	0.0007096	6
	46	212	7.512019	11952.84	-57893.91	1	59114.93	-78.33456	-7.80788E-009	0.0006654	6
	47	215	5.978954	15244.86	-71054.78	1	72671.78	-77.89072	-8.0231E-009	0.0006385	6
	48	218	4.734848	19739.35	-87334.79	1	89537.74	-77.26404	-6.159241E-009	0.0006703	6
	49	221	3.75601	25682.59	-106815.1	1	109859.2	-76.48045	-8.095845E-009	0.0006662	6
	50	225	3.004808	33122.38	-129106.3	1	133287.4	-75.61103	-8.112456E-009	0.0007264	6
	51	229	2.372217	43552.18	-157289.2	1	163207.5	-74.52299	-7.896004E-009	0.0007411	6
	52	233	1.878005	56358.22	-190233.1	1	198405.8	-73.49761	-8.414079E-009	0.0006416	6
	53	238	1.512097	71335.77	-225474	1	236489.6	-72.4436	-8.086779E-009	0.0007092	6
	54	243	1.201923	90953.52	-270314.6	1	285206.1	-71.40331	-8.066614E-009	0.0006311	6
	55	250	0.956633	114742	-321993.7	1	341827	-70.38655	-8.59483E-009	2.142243E-005	6
