EXPLAIN
TAG	EISPOT
TITLE	LABEL	Potentiostatic EIS	Test Identifier
DATE	LABEL	8/24/2020	Date
TIME	LABEL	16:30:05	Time
NOTES	NOTES	1	Notes...
	
PSTAT	PSTAT	REF3000-16137	Potentiostat
VDC	POTEN	0.00000E+000	T	DC Voltage (V)
FREQINIT	QUANT	3.00000E+005	Initial Freq. (Hz)
FREQFINAL	QUANT	1.00000E+000	Final Freq. (Hz)
PTSPERDEC	QUANT	1.00000E+001	Points/decade
VAC	QUANT	5.00000E+001	AC Voltage (mV rms)
AREA	QUANT	1.00000E+000	Sample Area (cm^2)
SPEED	SELECTOR	2	Optimize for:
ZGUESS	QUANT	1.00000E+003	Estimated Z (ohms)
EOC	QUANT	0	Open Circuit (V)
SEQUENCER	TOGGLE	TRUE	Run as Sequence
PSTATMODEL	IQUANT	5	Pstat Model
PSTATSECTION	LABEL	REF3000-16137	Pstat Section
PSTATSERIALNO	LABEL	16137	Pstat Serial Number
CTRLMODE	IQUANT	1	Control Mode
IESTAB	IQUANT	0	I/E Stability
CASPEED	IQUANT	1	Control Amp Speed
CONVENTION	IQUANT	1	Current Convention
ICHRANGE	IQUANT	2	Ich Range
ICHRANGEMODE	TOGGLE	F	Ich Auto Range
ICHOFFSETENABLE	TOGGLE	T	Ich Offset Enable
ICHOFFSET	QUANT	0	Ich Offset (V)
ICHFILTER	IQUANT	3	Ich Filter
VCHRANGE	IQUANT	2	Vch Range
VCHRANGEMODE	TOGGLE	F	Vch Auto Range
VCHOFFSETENABLE	TOGGLE	T	Vch Offset Enable
VCHOFFSET	QUANT	0	Vch Offset (V)
VCHFILTER	IQUANT	3	Vch Filter
ACHRANGE	IQUANT	2	Ach Range
ACHOFFSETENABLE	TOGGLE	F	Ach Offset Enable
ACHOFFSET	QUANT	0	Ach Offset (V)
ACHFILTER	IQUANT	3	Ach Filter
IERANGELOWERLIMIT	IQUANT	2	I/E Range Lower Limit
IERANGEMODE	TOGGLE	F	I/E AutoRange
IERANGE	IQUANT	11	I/E Range
POSFEEDENABLE	TOGGLE	F	Positive Feedback IR Comp
POSFEEDRESISTANCE	QUANT	0	Positive Feedback Resistance (ohm)
ACHSELECT	IQUANT	0	Ach Select
CABLEID	IQUANT	13	Cable ID
DCCALDATE	LABEL	7/31/2020	DC Calibration Date
ACCALDATE	LABEL	7/31/2020	AC Calibration Date
THERMOSELECT	IQUANT	1	Thermo Select
FRAMEWORKVERSION	QUANT	6.33	Framework Version
INSTRUMENTVERSION	LABEL	3.50	Instrument Version
COMPLIANCEVOLTAGE	IQUANT	0	Compliance Voltage
ZCURVE	TABLE
	Pt	Time	Freq	Zreal	Zimag	Zsig	Zmod	Zphz	Idc	Vdc	IERange
	#	s	Hz	ohm	ohm	V	ohm	°	A	V	#
	0	21	300046.9	10.38611	-4844.407	1	4844.418	-89.87716	1.932552E-005	-0.0023251	9
	1	38	238359.4	42.49951	-5974.568	1	5974.719	-89.59244	2.134388E-005	-0.0009939	9
	2	55	189328.1	355.865	-7276.056	1	7284.753	-87.19995	-1.575232E-005	0.0017425	9
	3	63	150421.9	208.9779	-9137.747	1	9140.137	-88.68989	2.751654E-005	-0.0018894	9
	4	73	119484.4	1115.57	-11549.59	1	11603.34	-84.48294	7.092726E-005	-0.013862	8
	5	80	94921.88	1447.428	-14363.24	1	14435.99	-84.24555	-2.412027E-005	0.0053207	8
	6	89	75421.88	1682.903	-17696	1	17775.84	-84.56747	-2.171615E-006	0.0078002	8
	7	98	59859.37	2164.995	-21927.74	1	22034.36	-84.36128	2.269456E-005	-0.0098718	8
	8	106	47578.12	6496.258	-29135.08	1	29850.53	-77.43035	6.916321E-006	-0.0273221	7
	9	114	37828.12	8046.487	-35919.18	1	36809.42	-77.37326	2.806611E-006	0.0085031	7
	10	121	30046.88	10426.64	-44343.53	1	45552.86	-76.76821	1.340531E-006	-0.020228	7
	11	129	23859.38	13958.4	-54236.68	1	56004.06	-75.5675	-5.342979E-006	0.0037118	7
	12	134	18984.38	19108.39	-67450.66	1	70105.09	-74.18288	-1.1289E-006	-0.0134634	7
	13	139	15046.87	24597.38	-83550.48	1	87096	-73.5955	-1.138354E-006	-0.0133106	7
	14	145	11953.13	35950.44	-101722.9	1	107888.8	-70.5358	6.806971E-006	-0.0266165	7
	15	151	9515.62	49655.38	-121883.1	1	131609.9	-67.83394	-6.830874E-006	0.0119703	7
	16	156	7546.875	69505.88	-145318.4	1	161085.4	-64.43818	6.943453E-006	-0.0273155	7
	17	163	5928.309	102940.2	-166402	1	195668.9	-58.25809	7.744368E-006	-0.0247794	7
	18	169	4733.456	130357.7	-186349.3	1	227418.5	-55.02589	1.284778E-006	-0.0201611	7
	19	176	3796.875	204584	-187802.8	1	277712.9	-42.55112	2.016801E-008	0.0171825	6
	20	180	2987.132	244021.9	-186127.2	1	306903.9	-37.3345	-2.926957E-007	-0.0073268	6
	21	186	2390.625	237013.1	-218022.4	1	322038.8	-42.61017	-5.463764E-006	0.0271872	7
	22	192	1884.191	297511.8	-157703.7	1	336725	-27.92696	-5.446785E-006	0.0271953	7
	23	198	1516.544	342146	-116122.3	1	361314.6	-18.7469	5.285264E-007	0.0163476	7
	24	205	1193.986	418166.4	-162131.3	1	448497.1	-21.19228	7.698142E-006	-0.0244493	7
	25	212	946.5144	274899.7	-47774.04	1	279020	-9.85881	-1.650855E-006	0.0218553	7
	26	218	751.7689	442027.4	-92723.7	1	451648	-11.84711	-7.473809E-006	0.0240128	7
	27	224	597.4265	-542979.5	-148512.5	1	562923.3	-164.7029	2.269602E-005	-0.0026229	8
	28	230	477.4305	474856.7	-94501.78	1	484168.9	-11.25544	-8.828229E-008	0.0006177	7
	29	235	376.6741	486885.3	-74981.13	1	492625.1	-8.754865	-1.060045E-008	0.0007429	6
	30	238	298.2954	513189.2	-22225.79	1	513670.3	-2.479882	-1.279829E-009	0.0006963	5
	31	240	237.7717	516984	-24452.57	1	517562	-2.707986	-1.029685E-009	0.0006794	5
	32	242	189.0121	520831.7	-25422.72	1	521451.8	-2.794491	-1.442507E-009	0.0006907	5
	33	245	150.2404	525705.9	-26676.2	1	526382.3	-2.904901	-1.054902E-009	0.0006864	5
	34	248	119.1737	526486.1	-19456.19	1	526845.5	-2.116391	-1.033908E-009	0.0006121	5
	35	250	95.0169	539502.5	-34477.25	1	540603	-3.656551	-1.380087E-009	0.0006436	5
	36	253	75.60484	548094.3	-40615.57	1	549597.1	-4.238058	-1.357598E-009	0.0006925	5
	37	255	54.50582	554740	-45983.12	1	556642.6	-4.738489	-1.123257E-009	0.0006791	5
	38	258	45.95588	567221.4	-53135.39	1	569704.7	-5.351658	-1.470699E-009	0.0006902	5
	39	260	37.20238	576108.6	-60329.33	1	579258.8	-5.978149	-1.175606E-009	0.0007037	5
	40	262	30.04808	588065.2	-67936.88	1	591976.4	-6.589945	-1.248575E-009	0.0006841	5
	41	265	23.91582	601432.5	-78017.03	1	606471.5	-7.391061	-5.989682E-010	0.0005908	5
	42	268	18.60119	616478.6	-91997.44	1	623305.3	-8.487644	-2.118719E-009	0.0006374	5
	43	270	15.02404	629244.9	-102580.1	1	637551.5	-9.258967	-1.529698E-009	0.0007096	5
	44	273	12.01923	646194.1	-115742	1	656477.8	-10.15476	8.482562E-011	0.0007012	5
	45	275	9.450605	662836.7	-132851.8	1	676019.3	-11.33358	2.458998E-010	0.0006399	5
	46	278	7.512019	682406	-153965.5	1	699559.4	-12.71428	-2.818265E-010	0.0006196	5
	47	281	5.978954	705359	-176944.6	1	727214.4	-14.08248	-6.830955E-010	0.0006825	5
	48	285	4.734848	728708.9	-203284.7	1	756532.4	-15.58727	-1.361557E-009	0.0005963	5
	49	289	3.75601	755596.5	-235532.5	1	791455.4	-17.31316	-1.041616E-009	0.000736	5
	50	294	3.004808	783805.3	-274694	1	830546.5	-19.31363	-1.221711E-009	0.0007347	5
	51	301	2.372217	812707.8	-324143.1	1	874964.4	-21.74426	-8.118073E-010	0.0007113	5
	52	305	1.878005	836292.8	-388738.3	1	922227.3	-24.93066	-9.758728E-010	0.0006227	5
	53	310	1.512097	861861.9	-464064	1	978857	-28.29996	-9.547395E-010	0.0007495	5
	54	315	1.201923	890063.8	-566880.4	1	1055257	-32.49301	-9.922744E-010	0.0006394	5
	55	321	0.956633	921140.8	-695128.8	1	1153995	-37.03963	-1.166297E-009	1.477402E-005	5
