EXPLAIN
TAG	EISPOT
TITLE	LABEL	Potentiostatic EIS	Test Identifier
DATE	LABEL	8/24/2020	Date
TIME	LABEL	14:47:48	Time
NOTES	NOTES	1	Notes...
	
PSTAT	PSTAT	REF3000-16137	Potentiostat
VDC	POTEN	0.00000E+000	T	DC Voltage (V)
FREQINIT	QUANT	3.00000E+005	Initial Freq. (Hz)
FREQFINAL	QUANT	1.00000E+000	Final Freq. (Hz)
PTSPERDEC	QUANT	1.00000E+001	Points/decade
VAC	QUANT	5.00000E+001	AC Voltage (mV rms)
AREA	QUANT	1.00000E+000	Sample Area (cm^2)
SPEED	SELECTOR	2	Optimize for:
ZGUESS	QUANT	1.00000E+003	Estimated Z (ohms)
EOC	QUANT	0	Open Circuit (V)
SEQUENCER	TOGGLE	TRUE	Run as Sequence
PSTATMODEL	IQUANT	5	Pstat Model
PSTATSECTION	LABEL	REF3000-16137	Pstat Section
PSTATSERIALNO	LABEL	16137	Pstat Serial Number
CTRLMODE	IQUANT	1	Control Mode
IESTAB	IQUANT	0	I/E Stability
CASPEED	IQUANT	1	Control Amp Speed
CONVENTION	IQUANT	1	Current Convention
ICHRANGE	IQUANT	2	Ich Range
ICHRANGEMODE	TOGGLE	F	Ich Auto Range
ICHOFFSETENABLE	TOGGLE	T	Ich Offset Enable
ICHOFFSET	QUANT	0	Ich Offset (V)
ICHFILTER	IQUANT	3	Ich Filter
VCHRANGE	IQUANT	2	Vch Range
VCHRANGEMODE	TOGGLE	F	Vch Auto Range
VCHOFFSETENABLE	TOGGLE	T	Vch Offset Enable
VCHOFFSET	QUANT	0	Vch Offset (V)
VCHFILTER	IQUANT	3	Vch Filter
ACHRANGE	IQUANT	2	Ach Range
ACHOFFSETENABLE	TOGGLE	F	Ach Offset Enable
ACHOFFSET	QUANT	0	Ach Offset (V)
ACHFILTER	IQUANT	3	Ach Filter
IERANGELOWERLIMIT	IQUANT	2	I/E Range Lower Limit
IERANGEMODE	TOGGLE	F	I/E AutoRange
IERANGE	IQUANT	11	I/E Range
POSFEEDENABLE	TOGGLE	F	Positive Feedback IR Comp
POSFEEDRESISTANCE	QUANT	0	Positive Feedback Resistance (ohm)
ACHSELECT	IQUANT	0	Ach Select
CABLEID	IQUANT	13	Cable ID
DCCALDATE	LABEL	7/31/2020	DC Calibration Date
ACCALDATE	LABEL	7/31/2020	AC Calibration Date
THERMOSELECT	IQUANT	1	Thermo Select
FRAMEWORKVERSION	QUANT	6.33	Framework Version
INSTRUMENTVERSION	LABEL	3.50	Instrument Version
COMPLIANCEVOLTAGE	IQUANT	0	Compliance Voltage
ZCURVE	TABLE
	Pt	Time	Freq	Zreal	Zimag	Zsig	Zmod	Zphz	Idc	Vdc	IERange
	#	s	Hz	ohm	ohm	V	ohm	°	A	V	#
	0	7	300046.9	87.20323	-4.882296	1	87.3398	-3.204505	-7.43093E-006	-0.0013062	9
	1	10	238359.4	87.77111	-6.273239	1	87.99501	-4.088132	-7.724235E-005	0.0025959	9
	2	13	189328.1	88.59962	-7.643161	1	88.92869	-4.930488	-8.873892E-006	-0.0011385	9
	3	15	150421.9	89.7192	-9.077173	1	90.17722	-5.777136	-6.5542E-005	0.0027979	9
	4	18	119484.4	90.64839	-10.69356	1	91.27696	-6.727946	1.559789E-005	-0.0013102	9
	5	21	94921.88	91.95309	-12.17882	1	92.7561	-7.544687	-1.868016E-005	0.0003766	9
	6	23	75421.88	93.27107	-14.20583	1	94.34669	-8.659992	-1.987221E-005	0.0006473	9
	7	26	59859.37	94.78536	-16.56723	1	96.2223	-9.91439	-1.709537E-005	0.0007833	9
	8	28	47578.12	96.3981	-19.06456	1	98.2652	-11.18697	2.451082E-005	-0.0006005	9
	9	31	37828.12	98.2126	-21.95824	1	100.6373	-12.60285	2.028941E-005	-0.000211	9
	10	33	30046.88	100.0417	-25.2593	1	103.1812	-14.17032	1.916661E-005	-0.0002696	9
	11	36	23859.38	101.9385	-29.13608	1	106.0206	-15.95101	2.264699E-005	-0.0005145	9
	12	38	18984.38	103.6044	-33.92259	1	109.0165	-18.12971	-3.275828E-006	-0.0002229	9
	13	40	15046.87	105.2308	-40.03307	1	112.5884	-20.82838	-1.885769E-005	0.0004621	9
	14	43	11953.13	106.7042	-47.54643	1	116.818	-24.01732	-1.613814E-005	0.0005685	9
	15	45	9515.62	108.3616	-57.14883	1	122.508	-27.80673	1.237673E-005	0.0001828	9
	16	47	7546.875	110.0061	-69.52448	1	130.1346	-32.29311	-3.065846E-006	-0.0002181	9
	17	50	5928.309	111.8538	-85.67043	1	140.8925	-37.44903	1.200067E-005	-0.0005942	9
	18	52	4733.456	113.8921	-105.0868	1	154.9666	-42.69733	-1.752647E-005	0.0004249	9
	19	54	3796.875	116.5778	-128.5506	1	173.5385	-47.79628	-1.153016E-005	0.0008476	9
	20	57	2987.132	119.7637	-160.6171	1	200.3526	-53.29005	-5.152237E-006	0.0006835	9
	21	59	2390.625	123.6671	-197.5937	1	233.1026	-57.95896	2.260355E-005	-0.0002618	9
	22	61	1884.191	129.4413	-246.5132	1	278.431	-62.29654	2.417467E-005	-0.0006065	9
	23	65	1516.544	136.1264	-302.7257	1	331.9235	-65.78802	-1.680841E-005	0.0003972	9
	24	68	1193.986	144.8283	-378.6602	1	405.4118	-69.06936	2.388681E-005	-0.0004667	9
	25	70	946.5144	157.1677	-467.7402	1	493.4396	-71.42688	6.336127E-006	-0.0007362	8
	26	73	751.7689	172.0679	-580.2374	1	605.213	-73.48241	-5.45695E-006	0.0021202	8
	27	75	597.4265	192.7168	-718.5211	1	743.9169	-74.98589	-5.161647E-006	0.0016816	8
	28	77	477.4305	218.452	-884.4038	1	910.9837	-76.12539	1.988871E-007	0.000656	8
	29	80	376.6741	255.0124	-1100.64	1	1129.797	-76.95506	1.909899E-007	0.0006567	8
	30	82	298.2954	302.9188	-1363.65	1	1396.889	-77.47578	2.049904E-007	0.0006566	8
	31	84	237.7717	364.8898	-1677.172	1	1716.406	-77.72586	1.950621E-007	0.0006539	8
	32	87	189.0121	448.1592	-2065.138	1	2113.206	-77.756	1.968012E-007	0.0006517	8
	33	89	150.2404	559.3831	-2538.802	1	2599.697	-77.57436	1.910821E-007	0.0006523	8
	34	92	119.1737	709.0448	-3122.037	1	3201.54	-77.20462	2.15054E-007	0.0006494	8
	35	94	95.0169	905.4861	-3811.454	1	3917.536	-76.636	1.957881E-007	0.0006484	8
	36	96	75.60484	1172.998	-4660.524	1	4805.872	-75.87276	-2.628659E-008	0.000622	7
	37	99	54.50582	1714.376	-6161.129	1	6395.201	-74.45041	-2.802177E-008	0.0006196	7
	38	102	45.95588	2101.012	-7107.32	1	7411.36	-73.53167	-1.980525E-008	0.0006233	7
	39	104	37.20238	2706.274	-8443.642	1	8866.736	-72.22881	-2.46837E-008	0.000623	7
	40	106	30.04808	3515.01	-10009.93	1	10609.15	-70.65117	-2.681354E-008	0.0006214	7
	41	109	23.91582	4624.832	-11901.94	1	12768.92	-68.76497	-3.225161E-008	0.0006329	7
	42	111	18.60119	6244.347	-14298.08	1	15602.15	-66.40784	-1.690888E-008	0.0006282	7
	43	113	15.02404	8025.572	-16507.02	1	18354.6	-64.07137	-2.02332E-008	0.0006359	7
	44	116	12.01923	10357.22	-18949.51	1	21595.28	-61.34034	-3.215162E-008	0.000641	7
	45	118	9.450605	13472.85	-21587.14	1	25446.46	-58.03111	-3.338799E-008	0.0006283	7
	46	121	7.512019	17007.09	-24064.43	1	29467.57	-54.74995	-2.872246E-008	0.0006617	7
	47	123	5.978954	21074.49	-26214.95	1	33635.66	-51.20381	-2.63348E-008	0.0006408	7
	48	126	4.734848	25624.61	-27954.29	1	37921.8	-47.48973	-2.634024E-008	0.0005987	7
	49	130	3.75601	30491.09	-29297.08	1	42285.05	-43.85592	-4.019747E-008	0.0006916	6
	50	133	3.004808	35266.58	-30266.59	1	46473.63	-40.63696	-3.508233E-008	0.0006486	6
	51	137	2.372217	40400.45	-30727.77	1	50758.17	-37.25589	-4.640069E-008	0.0006094	6
	52	141	1.878005	45123.49	-30377.47	1	54395.95	-33.94873	-4.160824E-008	0.0006854	6
	53	146	1.512097	49395.5	-29933.14	1	57757.32	-31.21541	-3.985176E-008	0.0005824	6
	54	151	1.201923	53534.18	-28758.47	1	60769.71	-28.24462	-4.5792E-008	0.0006979	6
	55	164	0.956633	57413.18	-27442.11	1	63634.45	-25.54667	-5.72909E-008	3.436034E-005	6
