EXPLAIN
TAG	EISPOT
TITLE	LABEL	Potentiostatic EIS	Test Identifier
DATE	LABEL	8/24/2020	Date
TIME	LABEL	14:44:45	Time
NOTES	NOTES	1	Notes...
	
PSTAT	PSTAT	REF3000-16137	Potentiostat
VDC	POTEN	0.00000E+000	T	DC Voltage (V)
FREQINIT	QUANT	3.00000E+005	Initial Freq. (Hz)
FREQFINAL	QUANT	1.00000E+000	Final Freq. (Hz)
PTSPERDEC	QUANT	1.00000E+001	Points/decade
VAC	QUANT	5.00000E+001	AC Voltage (mV rms)
AREA	QUANT	1.00000E+000	Sample Area (cm^2)
SPEED	SELECTOR	2	Optimize for:
ZGUESS	QUANT	1.00000E+003	Estimated Z (ohms)
EOC	QUANT	0	Open Circuit (V)
SEQUENCER	TOGGLE	TRUE	Run as Sequence
PSTATMODEL	IQUANT	5	Pstat Model
PSTATSECTION	LABEL	REF3000-16137	Pstat Section
PSTATSERIALNO	LABEL	16137	Pstat Serial Number
CTRLMODE	IQUANT	1	Control Mode
IESTAB	IQUANT	0	I/E Stability
CASPEED	IQUANT	1	Control Amp Speed
CONVENTION	IQUANT	1	Current Convention
ICHRANGE	IQUANT	2	Ich Range
ICHRANGEMODE	TOGGLE	F	Ich Auto Range
ICHOFFSETENABLE	TOGGLE	T	Ich Offset Enable
ICHOFFSET	QUANT	0	Ich Offset (V)
ICHFILTER	IQUANT	3	Ich Filter
VCHRANGE	IQUANT	2	Vch Range
VCHRANGEMODE	TOGGLE	F	Vch Auto Range
VCHOFFSETENABLE	TOGGLE	T	Vch Offset Enable
VCHOFFSET	QUANT	0	Vch Offset (V)
VCHFILTER	IQUANT	3	Vch Filter
ACHRANGE	IQUANT	2	Ach Range
ACHOFFSETENABLE	TOGGLE	F	Ach Offset Enable
ACHOFFSET	QUANT	0	Ach Offset (V)
ACHFILTER	IQUANT	3	Ach Filter
IERANGELOWERLIMIT	IQUANT	2	I/E Range Lower Limit
IERANGEMODE	TOGGLE	F	I/E AutoRange
IERANGE	IQUANT	11	I/E Range
POSFEEDENABLE	TOGGLE	F	Positive Feedback IR Comp
POSFEEDRESISTANCE	QUANT	0	Positive Feedback Resistance (ohm)
ACHSELECT	IQUANT	0	Ach Select
CABLEID	IQUANT	13	Cable ID
DCCALDATE	LABEL	7/31/2020	DC Calibration Date
ACCALDATE	LABEL	7/31/2020	AC Calibration Date
THERMOSELECT	IQUANT	1	Thermo Select
FRAMEWORKVERSION	QUANT	6.33	Framework Version
INSTRUMENTVERSION	LABEL	3.50	Instrument Version
COMPLIANCEVOLTAGE	IQUANT	0	Compliance Voltage
ZCURVE	TABLE
	Pt	Time	Freq	Zreal	Zimag	Zsig	Zmod	Zphz	Idc	Vdc	IERange
	#	s	Hz	ohm	ohm	V	ohm	°	A	V	#
	0	6	300046.9	86.67662	-4.893102	1	86.81462	-3.231054	6.692047E-006	0.0006729	9
	1	10	238359.4	87.46793	-6.12672	1	87.68224	-4.006758	-7.862066E-005	0.002545	9
	2	13	189328.1	88.33386	-7.599348	1	88.66015	-4.91704	-1.68006E-005	-0.0008464	9
	3	15	150421.9	89.116	-8.905957	1	89.55991	-5.707001	6.232614E-005	-0.0019365	9
	4	18	119484.4	90.2732	-10.60251	1	90.8937	-6.698654	4.700293E-005	-0.0004243	9
	5	20	94921.88	91.60522	-12.12987	1	92.40482	-7.542917	2.311609E-005	-0.000635	9
	6	23	75421.88	92.86855	-14.16216	1	93.94219	-8.670623	1.682843E-005	-0.0001188	9
	7	25	59859.37	94.30813	-16.46624	1	95.7348	-9.90403	-1.960321E-005	0.0007301	9
	8	28	47578.12	95.8991	-18.93973	1	97.7515	-11.17193	1.939487E-005	-0.0001149	9
	9	30	37828.12	97.6411	-21.77725	1	100.0402	-12.5731	-2.232165E-006	-0.0002524	9
	10	33	30046.88	99.4756	-25.01932	1	102.5737	-14.11775	7.898694E-006	-0.0005572	9
	11	35	23859.38	101.2364	-28.93052	1	105.2891	-15.94844	-1.70883E-005	0.0008998	9
	12	38	18984.38	102.9887	-33.67866	1	108.3556	-18.10842	2.513968E-005	-0.0003645	9
	13	40	15046.87	104.5507	-39.68806	1	111.8302	-20.78706	-1.662951E-005	0.0002278	9
	14	42	11953.13	106.1243	-47.10638	1	116.1094	-23.93544	-1.845655E-005	0.0007862	9
	15	45	9515.62	107.6574	-56.69645	1	121.6742	-27.77298	-1.257507E-005	0.0007844	9
	16	47	7546.875	109.2843	-68.85309	1	129.1658	-32.21242	1.762075E-005	-0.0006541	9
	17	49	5928.309	111.2699	-85.03605	1	140.0433	-37.38823	-1.692324E-005	0.0003939	9
	18	52	4733.456	113.2036	-104.1647	1	153.8354	-42.61882	1.916165E-005	-0.0001445	9
	19	54	3796.875	115.6213	-127.1484	1	171.8575	-47.71846	-1.51808E-005	0.0002044	9
	20	56	2987.132	119.0935	-158.6446	1	198.3718	-53.10469	-9.642185E-006	8.294648E-006	9
	21	59	2390.625	123.1899	-195.2184	1	230.8376	-57.7466	2.200829E-005	-0.0006705	9
	22	61	1884.191	128.6286	-243.1685	1	275.0931	-62.12254	-1.109644E-005	0.0007862	9
	23	63	1516.544	135.1683	-298.4679	1	327.6485	-65.63547	2.252717E-005	-0.0006864	9
	24	66	1193.986	144.2272	-372.9103	1	399.8295	-68.85548	2.216617E-005	-0.0002723	9
	25	68	946.5144	156.6062	-461.1828	1	487.0473	-71.24379	3.088216E-006	0.0008161	8
	26	70	751.7689	172.5976	-570.9137	1	596.433	-73.17898	2.758077E-006	-0.0011294	8
	27	73	597.4265	192.3834	-706.8185	1	732.5325	-74.77396	6.357327E-006	-0.0009331	8
	28	75	477.4305	219.311	-869.295	1	896.5328	-75.84055	1.656784E-007	0.0006523	8
	29	77	376.6741	256.5286	-1080.847	1	1110.872	-76.64844	1.638304E-007	0.0006485	8
	30	80	298.2954	305.4385	-1337.822	1	1372.246	-77.13922	1.916579E-007	0.0006438	8
	31	82	237.7717	368.4934	-1643.685	1	1684.485	-77.36395	1.4135E-007	0.0007007	8
	32	84	189.0121	453.3562	-2021.455	1	2071.669	-77.35931	1.882765E-007	0.0006446	8
	33	87	150.2404	566.4451	-2481.637	1	2545.463	-77.14225	1.933149E-007	0.0006385	8
	34	89	119.1737	718.1991	-3046.566	1	3130.076	-76.73524	2.064454E-007	0.0006441	8
	35	92	95.0169	916.7465	-3713.952	1	3825.423	-76.13437	1.818189E-007	0.0006458	8
	36	94	75.60484	1186.978	-4533.286	1	4686.107	-75.32729	-4.018312E-008	0.0006169	7
	37	97	54.50582	1728.404	-5975.765	1	6220.703	-73.86825	-4.202428E-008	0.0006201	7
	38	99	45.95588	2112.273	-6879.706	1	7196.67	-72.93196	-3.641212E-008	0.0006243	7
	39	101	37.20238	2714.479	-8162.472	1	8601.996	-71.60514	-3.504152E-008	0.0006213	7
	40	104	30.04808	3492.997	-9640.69	1	10253.97	-70.08363	-4.325561E-008	0.0006217	7
	41	106	23.91582	4580.07	-11446.68	1	12328.97	-68.19257	-3.894874E-008	0.0006157	7
	42	109	18.60119	6141.562	-13706.38	1	15019.44	-65.86378	-4.116367E-008	0.0006296	7
	43	111	15.02404	7834.445	-15828.98	1	17661.69	-63.66721	-3.082214E-008	0.0006301	7
	44	113	12.01923	10075.52	-18156.37	1	20764.63	-60.97279	-5.244274E-008	0.0006207	7
	45	116	9.450605	13115.99	-20649.05	1	24462.47	-57.57685	-4.724983E-008	0.0006342	7
	46	118	7.512019	16500.87	-22943.87	1	28261.28	-54.27691	-4.568045E-008	0.0006116	7
	47	121	5.978954	20332.78	-25059.7	1	32270.89	-50.94503	-4.530602E-008	0.0006362	7
	48	124	4.734848	24727.4	-26831.32	1	36487.86	-47.33673	-3.470973E-008	0.0006175	7
	49	127	3.75601	29363.33	-28238.59	1	40738.47	-43.88139	-6.133282E-008	0.0006779	6
	50	131	3.004808	33892.39	-29043.94	1	44634.57	-40.59478	-5.554983E-008	0.0006437	6
	51	135	2.372217	38887.12	-29801.85	1	48993.45	-37.4654	-6.369149E-008	0.0006119	6
	52	139	1.878005	43388.55	-29424.5	1	52424.88	-34.14366	-6.11747E-008	0.000682	6
	53	148	1.512097	47330.74	-28748.92	1	55377.79	-31.2747	-6.159833E-008	0.0005909	6
	54	158	1.201923	51327.64	-28086.74	1	58509.76	-28.6877	-6.201373E-008	0.0006964	6
	55	171	0.956633	54994.16	-27173.5	1	61341.32	-26.29472	-7.373888E-008	3.648428E-005	6
