EXPLAIN
TAG	EISPOT
TITLE	LABEL	Potentiostatic EIS	Test Identifier
DATE	LABEL	8/24/2020	Date
TIME	LABEL	18:02:50	Time
NOTES	NOTES	1	Notes...
	
PSTAT	PSTAT	REF3000-16137	Potentiostat
VDC	POTEN	0.00000E+000	T	DC Voltage (V)
FREQINIT	QUANT	3.00000E+005	Initial Freq. (Hz)
FREQFINAL	QUANT	1.00000E+000	Final Freq. (Hz)
PTSPERDEC	QUANT	1.00000E+001	Points/decade
VAC	QUANT	5.00000E+001	AC Voltage (mV rms)
AREA	QUANT	1.00000E+000	Sample Area (cm^2)
SPEED	SELECTOR	2	Optimize for:
ZGUESS	QUANT	1.00000E+003	Estimated Z (ohms)
EOC	QUANT	0	Open Circuit (V)
SEQUENCER	TOGGLE	TRUE	Run as Sequence
PSTATMODEL	IQUANT	5	Pstat Model
PSTATSECTION	LABEL	REF3000-16137	Pstat Section
PSTATSERIALNO	LABEL	16137	Pstat Serial Number
CTRLMODE	IQUANT	1	Control Mode
IESTAB	IQUANT	0	I/E Stability
CASPEED	IQUANT	1	Control Amp Speed
CONVENTION	IQUANT	1	Current Convention
ICHRANGE	IQUANT	2	Ich Range
ICHRANGEMODE	TOGGLE	F	Ich Auto Range
ICHOFFSETENABLE	TOGGLE	T	Ich Offset Enable
ICHOFFSET	QUANT	0	Ich Offset (V)
ICHFILTER	IQUANT	3	Ich Filter
VCHRANGE	IQUANT	2	Vch Range
VCHRANGEMODE	TOGGLE	F	Vch Auto Range
VCHOFFSETENABLE	TOGGLE	T	Vch Offset Enable
VCHOFFSET	QUANT	0	Vch Offset (V)
VCHFILTER	IQUANT	3	Vch Filter
ACHRANGE	IQUANT	2	Ach Range
ACHOFFSETENABLE	TOGGLE	F	Ach Offset Enable
ACHOFFSET	QUANT	0	Ach Offset (V)
ACHFILTER	IQUANT	3	Ach Filter
IERANGELOWERLIMIT	IQUANT	2	I/E Range Lower Limit
IERANGEMODE	TOGGLE	F	I/E AutoRange
IERANGE	IQUANT	11	I/E Range
POSFEEDENABLE	TOGGLE	F	Positive Feedback IR Comp
POSFEEDRESISTANCE	QUANT	0	Positive Feedback Resistance (ohm)
ACHSELECT	IQUANT	0	Ach Select
CABLEID	IQUANT	13	Cable ID
DCCALDATE	LABEL	7/31/2020	DC Calibration Date
ACCALDATE	LABEL	7/31/2020	AC Calibration Date
THERMOSELECT	IQUANT	1	Thermo Select
FRAMEWORKVERSION	QUANT	6.33	Framework Version
INSTRUMENTVERSION	LABEL	3.50	Instrument Version
COMPLIANCEVOLTAGE	IQUANT	0	Compliance Voltage
ZCURVE	TABLE
	Pt	Time	Freq	Zreal	Zimag	Zsig	Zmod	Zphz	Idc	Vdc	IERange
	#	s	Hz	ohm	ohm	V	ohm	°	A	V	#
	0	7	300046.9	87.83106	-4.912898	1	87.96836	-3.201547	3.485463E-005	-0.0001142	9
	1	10	238359.4	88.65622	-6.272622	1	88.87785	-4.047058	-1.058267E-005	0.0006032	9
	2	14	189328.1	89.32313	-7.415749	1	89.63043	-4.745903	-6.439954E-006	-0.0011178	9
	3	16	150421.9	90.41446	-9.067091	1	90.86797	-5.726683	-7.128379E-005	0.002002	9
	4	19	119484.4	91.43025	-10.56533	1	92.03867	-6.591643	-3.164286E-005	-0.000174	9
	5	21	94921.88	92.67948	-12.17301	1	93.47549	-7.482696	2.187635E-005	-0.0003362	9
	6	24	75421.88	93.95264	-14.20473	1	95.0204	-8.597457	1.180635E-005	-0.0006546	9
	7	26	59859.37	95.4367	-16.57034	1	96.8645	-9.84987	2.196099E-005	-0.0003307	9
	8	29	47578.12	97.0373	-19.11593	1	98.9023	-11.14432	2.418218E-005	-0.0004562	9
	9	31	37828.12	98.6912	-21.89599	1	101.091	-12.50922	9.360099E-006	-0.0004999	9
	10	34	30046.88	100.5674	-25.31054	1	103.7036	-14.12666	1.281958E-005	-0.0006857	9
	11	36	23859.38	102.3841	-29.13292	1	106.4483	-15.88345	-1.663208E-005	0.0002896	9
	12	39	18984.38	104.0834	-34.02317	1	109.5031	-18.10173	2.39404E-005	-0.000567	9
	13	41	15046.87	105.6779	-40.06751	1	113.0186	-20.7641	2.486071E-005	-0.0005864	9
	14	43	11953.13	107.1604	-47.7943	1	117.3356	-24.03721	1.814782E-005	-0.000672	9
	15	46	9515.62	108.6257	-57.46858	1	122.8909	-27.88115	-1.805994E-005	0.0008199	9
	16	48	7546.875	110.1729	-69.91889	1	130.4865	-32.40038	-1.762685E-005	0.0004058	9
	17	50	5928.309	112.091	-86.41866	1	141.5365	-37.6311	-4.393159E-006	0.0006708	9
	18	53	4733.456	113.9816	-105.8803	1	155.5714	-42.88975	-9.988407E-006	2.21933E-005	9
	19	55	3796.875	116.4408	-129.6754	1	174.2819	-48.07803	-1.1882E-005	0.0008211	9
	20	57	2987.132	119.6821	-161.4531	1	200.9749	-53.45116	-1.504893E-005	0.000222	9
	21	60	2390.625	123.3275	-199.3656	1	234.4276	-58.25908	-9.984111E-006	1.773205E-005	9
	22	62	1884.191	129.0338	-248.203	1	279.74	-62.53135	2.451246E-005	-0.0006019	9
	23	64	1516.544	135.6362	-305.0317	1	333.8286	-66.02707	5.046967E-006	-0.0004648	9
	24	67	1193.986	144.6542	-381.7414	1	408.2295	-69.24668	-2.005604E-005	0.0006605	9
	25	69	946.5144	155.9715	-472.0338	1	497.1349	-71.71519	-1.178488E-006	0.0021685	8
	26	71	751.7689	172.7733	-585.1229	1	610.0979	-73.54934	-5.345656E-006	0.0017476	8
	27	74	597.4265	193.1031	-724.549	1	749.84	-75.0767	-4.872647E-006	0.0025346	8
	28	76	477.4305	219.1432	-890.8558	1	917.4137	-76.18011	1.980974E-007	0.0006448	8
	29	78	376.6741	256.1759	-1108.174	1	1137.399	-76.98362	1.887071E-007	0.0006471	8
	30	81	298.2954	304.6638	-1372.568	1	1405.974	-77.48516	2.036709E-007	0.0006473	8
	31	83	237.7717	367.2661	-1687.696	1	1727.194	-77.72305	2.088E-007	0.0006446	8
	32	86	189.0121	451.7253	-2078.079	1	2126.61	-77.73605	1.914793E-007	0.0006506	8
	33	88	150.2404	565.0483	-2554.636	1	2616.38	-77.52781	1.895783E-007	0.0006479	8
	34	90	119.1737	718.8264	-3141.7	1	3222.886	-77.11246	2.102595E-007	0.0006518	8
	35	93	95.0169	923.0909	-3837.029	1	3946.503	-76.47315	2.131752E-007	0.0006392	8
	36	95	75.60484	1205.87	-4690.748	1	4843.268	-75.58292	-2.07575E-008	0.0006231	7
	37	98	54.50582	1786.651	-6196.88	1	6449.298	-73.91695	-2.118071E-008	0.0006182	7
	38	100	45.95588	2202.123	-7135.153	1	7467.246	-72.8482	-1.311827E-008	0.0006303	7
	39	103	37.20238	2870.957	-8463.979	1	8937.635	-71.26321	-1.217834E-008	0.0006249	7
	40	105	30.04808	3755.123	-9992.4	1	10674.69	-69.40389	-2.069481E-008	0.0006253	7
	41	108	23.91582	4983.075	-11805.03	1	12813.65	-67.11468	-1.449156E-008	0.0006151	7
	42	110	18.60119	6768.979	-14035.86	1	15582.82	-64.25369	-5.334207E-009	0.0006237	7
	43	112	15.02404	8712.572	-16019.67	1	18235.65	-61.45969	-1.146462E-008	0.0006375	7
	44	114	12.01923	11224.06	-18107.05	1	21303.63	-58.20636	-2.99497E-008	0.0006208	7
	45	117	9.450605	14469.42	-20181.14	1	24832.29	-54.36033	-1.070061E-008	0.000619	7
	46	120	7.512019	18088.89	-21885.96	1	28393.71	-50.42604	-1.333879E-008	0.0006253	7
	47	122	5.978954	22021.28	-23130.45	1	31936.72	-46.40721	-2.199006E-008	0.0006294	7
	48	125	4.734848	26261.2	-23793.46	1	35436.97	-42.17755	-2.645525E-008	0.0005984	7
	49	129	3.75601	30421.95	-23588.55	1	38495.64	-37.78926	-4.407814E-008	0.0006892	6
	50	134	3.004808	34171.9	-22906.44	1	41139.08	-33.83512	-4.662126E-008	0.0006666	6
	51	140	2.372217	37934.14	-22047.65	1	43875.94	-30.16552	-4.984695E-008	0.000655	6
	52	144	1.878005	40635.17	-19917.32	1	45253.91	-26.11177	-5.319336E-008	0.0006696	6
	53	153	1.512097	42742.48	-18312.52	1	46500.19	-23.19215	-5.630163E-008	0.0006472	6
	54	164	1.201923	44573.13	-16546.3	1	47545.18	-20.36579	-6.094413E-008	0.0006848	6
	55	177	0.956633	46099.49	-14845.81	1	48430.99	-17.85056	-8.667175E-008	2.818506E-005	6
