EXPLAIN
TAG	EISPOT
TITLE	LABEL	Potentiostatic EIS	Test Identifier
DATE	LABEL	8/24/2020	Date
TIME	LABEL	18:24:31	Time
NOTES	NOTES	1	Notes...
	
PSTAT	PSTAT	REF3000-16137	Potentiostat
VDC	POTEN	0.00000E+000	T	DC Voltage (V)
FREQINIT	QUANT	3.00000E+005	Initial Freq. (Hz)
FREQFINAL	QUANT	1.00000E+000	Final Freq. (Hz)
PTSPERDEC	QUANT	1.00000E+001	Points/decade
VAC	QUANT	5.00000E+001	AC Voltage (mV rms)
AREA	QUANT	1.00000E+000	Sample Area (cm^2)
SPEED	SELECTOR	2	Optimize for:
ZGUESS	QUANT	1.00000E+003	Estimated Z (ohms)
EOC	QUANT	0	Open Circuit (V)
SEQUENCER	TOGGLE	TRUE	Run as Sequence
PSTATMODEL	IQUANT	5	Pstat Model
PSTATSECTION	LABEL	REF3000-16137	Pstat Section
PSTATSERIALNO	LABEL	16137	Pstat Serial Number
CTRLMODE	IQUANT	1	Control Mode
IESTAB	IQUANT	0	I/E Stability
CASPEED	IQUANT	1	Control Amp Speed
CONVENTION	IQUANT	1	Current Convention
ICHRANGE	IQUANT	2	Ich Range
ICHRANGEMODE	TOGGLE	F	Ich Auto Range
ICHOFFSETENABLE	TOGGLE	T	Ich Offset Enable
ICHOFFSET	QUANT	0	Ich Offset (V)
ICHFILTER	IQUANT	3	Ich Filter
VCHRANGE	IQUANT	2	Vch Range
VCHRANGEMODE	TOGGLE	F	Vch Auto Range
VCHOFFSETENABLE	TOGGLE	T	Vch Offset Enable
VCHOFFSET	QUANT	0	Vch Offset (V)
VCHFILTER	IQUANT	3	Vch Filter
ACHRANGE	IQUANT	2	Ach Range
ACHOFFSETENABLE	TOGGLE	F	Ach Offset Enable
ACHOFFSET	QUANT	0	Ach Offset (V)
ACHFILTER	IQUANT	3	Ach Filter
IERANGELOWERLIMIT	IQUANT	2	I/E Range Lower Limit
IERANGEMODE	TOGGLE	F	I/E AutoRange
IERANGE	IQUANT	11	I/E Range
POSFEEDENABLE	TOGGLE	F	Positive Feedback IR Comp
POSFEEDRESISTANCE	QUANT	0	Positive Feedback Resistance (ohm)
ACHSELECT	IQUANT	0	Ach Select
CABLEID	IQUANT	13	Cable ID
DCCALDATE	LABEL	7/31/2020	DC Calibration Date
ACCALDATE	LABEL	7/31/2020	AC Calibration Date
THERMOSELECT	IQUANT	1	Thermo Select
FRAMEWORKVERSION	QUANT	6.33	Framework Version
INSTRUMENTVERSION	LABEL	3.50	Instrument Version
COMPLIANCEVOLTAGE	IQUANT	0	Compliance Voltage
ZCURVE	TABLE
	Pt	Time	Freq	Zreal	Zimag	Zsig	Zmod	Zphz	Idc	Vdc	IERange
	#	s	Hz	ohm	ohm	V	ohm	°	A	V	#
	0	7	300046.9	88.14822	-4.801471	1	88.27888	-3.117844	-5.058023E-005	0.0006425	9
	1	10	238359.4	88.79181	-6.295724	1	89.01472	-4.055732	-4.847356E-005	0.0006385	9
	2	13	189328.1	89.45386	-7.656527	1	89.78093	-4.892132	1.303269E-005	0.0006535	9
	3	16	150421.9	90.28632	-9.12345	1	90.74612	-5.770163	-6.977805E-005	0.001863	9
	4	18	119484.4	91.5507	-10.59948	1	92.16225	-6.604139	-1.123527E-005	-0.0008705	9
	5	21	94921.88	92.80413	-12.19154	1	93.60149	-7.484005	-2.122839E-005	0.0006128	9
	6	24	75421.88	94.06256	-14.2427	1	95.1347	-8.610167	-1.474466E-005	0.0001523	9
	7	26	59859.37	95.5279	-16.54838	1	96.9506	-9.82787	4.02803E-006	0.0004516	9
	8	29	47578.12	97.2041	-19.11612	1	99.066	-11.12578	2.437802E-005	-0.0005225	9
	9	31	37828.12	98.9385	-21.97334	1	101.3492	-12.52163	2.366468E-005	-0.0006077	9
	10	34	30046.88	100.6968	-25.31879	1	103.8311	-14.11364	-2.027621E-005	0.0008207	9
	11	36	23859.38	102.478	-29.3085	1	106.5867	-15.96042	-1.894486E-005	0.0007053	9
	12	39	18984.38	104.1299	-34.06646	1	109.5607	-18.11569	-1.850897E-005	0.0004166	9
	13	41	15046.87	105.8141	-40.20282	1	113.1941	-20.80369	2.361589E-005	-0.0006052	9
	14	43	11953.13	107.2865	-47.82571	1	117.4636	-24.02614	-1.731312E-005	0.0004354	9
	15	45	9515.62	108.6863	-57.61187	1	123.0115	-27.92694	1.258156E-005	-0.0006464	9
	16	48	7546.875	110.1052	-70.33269	1	130.6516	-32.5695	2.29129E-005	-0.0003372	9
	17	50	5928.309	111.813	-86.80408	1	141.5524	-37.82337	-4.461279E-006	0.0006568	9
	18	52	4733.456	113.8129	-106.4335	1	155.8251	-43.08099	-2.03039E-005	0.0006566	9
	19	55	3796.875	115.87	-130.3636	1	174.4148	-48.36859	2.225905E-005	-0.0001532	9
	20	57	2987.132	119.2913	-162.8565	1	201.8728	-53.77747	3.423237E-006	0.0004435	9
	21	59	2390.625	123.0285	-200.6561	1	235.3696	-58.48624	-5.002014E-006	0.0006369	9
	22	62	1884.191	128.1564	-250.1009	1	281.024	-62.86855	1.224971E-005	-0.0006221	9
	23	64	1516.544	134.757	-307.583	1	335.8076	-66.34102	2.256418E-005	-0.0002914	9
	24	66	1193.986	143.9188	-384.9103	1	410.9362	-69.49912	-1.653378E-005	0.0008293	9
	25	69	946.5144	155.9924	-476.561	1	501.442	-71.87521	6.180929E-006	-0.0012977	8
	26	71	751.7689	170.4513	-591.7622	1	615.8215	-73.93147	3.113353E-006	0.0008332	8
	27	74	597.4265	190.8906	-731.7509	1	756.2397	-75.3792	4.99903E-006	1.49487E-005	8
	28	76	477.4305	217.6746	-900.5381	1	926.4724	-76.41133	2.051279E-007	0.0006469	8
	29	78	376.6741	254.352	-1120.683	1	1149.185	-77.21268	2.055111E-007	0.0006414	8
	30	81	298.2954	302.2915	-1388.435	1	1420.961	-77.71719	2.082365E-007	0.000649	8
	31	83	237.7717	364.1067	-1707.785	1	1746.168	-77.96451	1.694837E-007	0.0006955	8
	32	85	189.0121	447.2882	-2103.563	1	2150.592	-77.99578	2.15364E-007	0.0006411	8
	33	88	150.2404	558.5358	-2587.66	1	2647.252	-77.8198	2.155657E-007	0.0006496	8
	34	90	119.1737	709.5184	-3184.029	1	3262.125	-77.43764	2.271224E-007	0.0006434	8
	35	92	95.0169	909.4958	-3892.181	1	3997.031	-76.84755	2.129029E-007	0.0006455	8
	36	95	75.60484	1186.142	-4764.483	1	4909.911	-76.02013	-6.97727E-009	0.0006242	7
	37	98	54.50582	1754.853	-6305.259	1	6544.907	-74.44727	-5.321697E-009	0.0006178	7
	38	100	45.95588	2164.71	-7272.896	1	7588.213	-73.42485	8.533385E-010	0.0006251	7
	39	102	37.20238	2816.201	-8637.216	1	9084.739	-71.94122	-7.898889E-009	0.0006246	7
	40	105	30.04808	3688.773	-10218.59	1	10864.01	-70.15111	-7.244394E-009	0.0006171	7
	41	107	23.91582	4908.575	-12136.52	1	13091.57	-67.97929	-3.469268E-009	0.0006135	7
	42	110	18.60119	6662.758	-14460.38	1	15921.52	-65.26166	-1.256495E-008	0.0006336	7
	43	112	15.02404	8608.542	-16586.64	1	18687.53	-62.57048	9.790055E-009	0.0006189	7
	44	114	12.01923	11115.8	-18852.7	1	21885.73	-59.47583	-4.728727E-009	0.0006232	7
	45	117	9.450605	14429.3	-21229.05	1	25668.61	-55.79621	3.622166E-009	0.0006077	7
	46	119	7.512019	18112.15	-23226.78	1	29453.92	-52.05303	4.47051E-009	0.0006318	7
	47	122	5.978954	22239.51	-24808.53	1	33317.54	-48.12549	2.518732E-009	0.0006232	7
	48	125	4.734848	26827.43	-25863.9	1	37264.62	-43.9524	-2.927437E-009	0.0006775	7
	49	128	3.75601	31470.21	-26349.6	1	41044.8	-39.939	-2.599141E-008	0.0006625	6
	50	132	3.004808	35700.59	-25743.31	1	44014.21	-35.79496	-3.213205E-008	0.0007073	6
	51	138	2.372217	39996.3	-24973.5	1	47152.73	-31.98046	-2.736929E-008	0.0007035	6
	52	142	1.878005	43278.2	-22820.41	1	48926.2	-27.80249	-3.378401E-008	0.0006475	6
	53	151	1.512097	45860.08	-21148.47	1	50501.54	-24.75689	-3.661396E-008	0.0007691	6
	54	162	1.201923	48092.1	-19189.47	1	51779.2	-21.75274	-3.800992E-008	0.0006579	6
	55	175	0.956633	50227.39	-17493.3	1	53186.52	-19.20232	-6.413656E-008	3.370212E-005	6
