EXPLAIN
TAG	EISPOT
TITLE	LABEL	Potentiostatic EIS	Test Identifier
DATE	LABEL	8/24/2020	Date
TIME	LABEL	16:13:49	Time
NOTES	NOTES	1	Notes...
	
PSTAT	PSTAT	REF3000-16137	Potentiostat
VDC	POTEN	0.00000E+000	T	DC Voltage (V)
FREQINIT	QUANT	3.00000E+005	Initial Freq. (Hz)
FREQFINAL	QUANT	1.00000E+000	Final Freq. (Hz)
PTSPERDEC	QUANT	1.00000E+001	Points/decade
VAC	QUANT	5.00000E+001	AC Voltage (mV rms)
AREA	QUANT	1.00000E+000	Sample Area (cm^2)
SPEED	SELECTOR	2	Optimize for:
ZGUESS	QUANT	1.00000E+003	Estimated Z (ohms)
EOC	QUANT	0	Open Circuit (V)
SEQUENCER	TOGGLE	TRUE	Run as Sequence
PSTATMODEL	IQUANT	5	Pstat Model
PSTATSECTION	LABEL	REF3000-16137	Pstat Section
PSTATSERIALNO	LABEL	16137	Pstat Serial Number
CTRLMODE	IQUANT	1	Control Mode
IESTAB	IQUANT	0	I/E Stability
CASPEED	IQUANT	1	Control Amp Speed
CONVENTION	IQUANT	1	Current Convention
ICHRANGE	IQUANT	2	Ich Range
ICHRANGEMODE	TOGGLE	F	Ich Auto Range
ICHOFFSETENABLE	TOGGLE	T	Ich Offset Enable
ICHOFFSET	QUANT	0	Ich Offset (V)
ICHFILTER	IQUANT	3	Ich Filter
VCHRANGE	IQUANT	2	Vch Range
VCHRANGEMODE	TOGGLE	F	Vch Auto Range
VCHOFFSETENABLE	TOGGLE	T	Vch Offset Enable
VCHOFFSET	QUANT	0	Vch Offset (V)
VCHFILTER	IQUANT	3	Vch Filter
ACHRANGE	IQUANT	2	Ach Range
ACHOFFSETENABLE	TOGGLE	F	Ach Offset Enable
ACHOFFSET	QUANT	0	Ach Offset (V)
ACHFILTER	IQUANT	3	Ach Filter
IERANGELOWERLIMIT	IQUANT	2	I/E Range Lower Limit
IERANGEMODE	TOGGLE	F	I/E AutoRange
IERANGE	IQUANT	11	I/E Range
POSFEEDENABLE	TOGGLE	F	Positive Feedback IR Comp
POSFEEDRESISTANCE	QUANT	0	Positive Feedback Resistance (ohm)
ACHSELECT	IQUANT	0	Ach Select
CABLEID	IQUANT	13	Cable ID
DCCALDATE	LABEL	7/31/2020	DC Calibration Date
ACCALDATE	LABEL	7/31/2020	AC Calibration Date
THERMOSELECT	IQUANT	1	Thermo Select
FRAMEWORKVERSION	QUANT	6.33	Framework Version
INSTRUMENTVERSION	LABEL	3.50	Instrument Version
COMPLIANCEVOLTAGE	IQUANT	0	Compliance Voltage
ZCURVE	TABLE
	Pt	Time	Freq	Zreal	Zimag	Zsig	Zmod	Zphz	Idc	Vdc	IERange
	#	s	Hz	ohm	ohm	V	ohm	°	A	V	#
	0	30	300046.9	1211.367	-4444.075	1	4606.215	-74.75272	1.640018E-006	0.001544	9
	1	55	238359.4	1720.105	-5303.328	1	5575.307	-72.02981	2.703006E-005	-0.0020608	9
	2	80	189328.1	2622.015	-6383.908	1	6901.394	-67.67094	1.937161E-005	-0.0021771	9
	3	87	150421.9	3497.289	-7268.549	1	8066.154	-64.3053	-3.007509E-005	-0.0009927	9
	4	95	119484.4	5179.073	-8307.897	1	9789.99	-58.06094	6.621332E-005	-0.0260092	8
	5	102	94921.88	6964.775	-9340.104	1	11650.99	-53.28866	-2.471524E-005	0.0110963	8
	6	111	75421.88	8992.698	-10004.9	1	13452.38	-48.04985	1.759549E-005	0.0001952	8
	7	119	59859.37	11217.11	-10592.14	1	15427.8	-43.35859	-1.129474E-005	0.0099625	8
	8	128	47578.12	15531.48	-9067.866	1	17984.8	-30.278	-5.381663E-006	0.0262242	7
	9	134	37828.12	17167.44	-8487.05	1	19150.74	-26.30636	7.554727E-006	-0.0237091	7
	10	141	30046.88	18765.4	-7617.333	1	20252.51	-22.09343	-5.163987E-006	0.0025866	7
	11	147	23859.38	19998.25	-6744.811	1	21105.04	-18.63771	1.475324E-006	-0.0208421	7
	12	151	18984.38	21212.54	-5939.89	1	22028.49	-15.6432	4.940435E-006	0.0004484	7
	13	155	15046.87	21812.24	-5082.233	1	22396.49	-13.11586	3.671564E-006	-0.0243483	7
	14	160	11953.13	22640.23	-4228.263	1	23031.68	-10.57862	-3.895227E-006	0.0253349	7
	15	164	9515.62	23077.29	-3745.217	1	23379.22	-9.218172	-7.227781E-006	0.0228624	7
	16	168	7546.875	23671.68	-3211.306	1	23888.51	-7.725596	-5.268492E-006	0.0255877	7
	17	172	5928.309	24456.64	-3098.386	1	24652.12	-7.220279	1.751152E-005	0.0002427	8
	18	179	4733.456	25146.7	-3314.096	1	25364.14	-7.507772	2.601212E-005	-0.005158	8
	19	186	3796.875	25117.38	-2775.809	1	25270.3	-6.306365	-2.042891E-005	0.0010958	9
	20	193	2987.132	26602.64	-3460.73	1	26826.8	-7.411966	1.593972E-005	-0.0091998	8
	21	200	2390.625	29857.58	-3852.541	1	30105.1	-7.352285	2.788653E-005	-0.0076769	8
	22	207	1884.191	26696.53	-1046.99	1	26717.05	-2.245887	2.330932E-005	-0.0028932	8
	23	214	1516.544	28534.91	-3525.941	1	28751.93	-7.044096	-1.203953E-005	0.0102721	8
	24	220	1193.986	27844.73	-2496.891	1	27956.46	-5.124118	-5.432928E-006	0.026475	7
	25	226	946.5144	25913.02	-3481.786	1	26145.88	-7.652678	2.653429E-005	-0.005251	8
	26	231	751.7689	29299.47	-1964.015	1	29365.22	-3.834938	2.596402E-005	-0.0089243	8
	27	237	597.4265	31048.24	-3821.25	1	31282.51	-7.016371	-9.810394E-006	-0.0021158	8
	28	241	477.4305	30483.45	-3964.148	1	30740.12	-7.409315	-9.679987E-008	0.000651	7
	29	245	376.6741	31068.84	-4482.425	1	31390.52	-8.209642	-9.342231E-008	0.0006661	7
	30	247	298.2954	31695.45	-5064.557	1	32097.53	-9.07844	-8.437284E-008	0.0005793	7
	31	249	237.7717	32388.95	-5757.938	1	32896.78	-10.08043	-8.768274E-008	0.0005667	7
	32	252	189.0121	33148.52	-6545.079	1	33788.49	-11.16922	-9.258866E-008	0.0006645	7
	33	254	150.2404	33966.52	-7454.79	1	34774.97	-12.3787	-8.989433E-008	0.0005878	7
	34	257	119.1737	34933.71	-8476.476	1	35947.39	-13.63892	-9.250974E-008	0.00067	7
	35	259	95.0169	35730.81	-9696.65	1	37023.18	-15.18328	-8.675456E-008	0.0005724	7
	36	262	75.60484	36722.13	-11065.06	1	38352.97	-16.76852	-1.017342E-008	0.0006964	6
	37	264	54.50582	37826.32	-13740.73	1	40244.72	-19.96398	-9.451963E-009	0.0006101	6
	38	267	45.95588	38433.77	-15489.99	1	41437.84	-21.95094	-1.017139E-008	0.0007133	6
	39	269	37.20238	39146.43	-18206.78	1	43173.25	-24.94287	-1.059408E-008	0.0006625	6
	40	271	30.04808	39798.93	-21623.63	1	45293.89	-28.5162	-9.510947E-009	0.0006434	6
	41	274	23.91582	40457.42	-26246.99	1	48225.59	-32.97373	-9.080523E-009	0.0006601	6
	42	276	18.60119	41295.63	-32792.78	1	52732.3	-38.45302	-9.400135E-009	0.0007115	6
	43	279	15.02404	41984.23	-39837.42	1	57876.55	-43.49704	-9.238495E-009	0.0006639	6
	44	281	12.01923	42818.14	-48968.3	1	65048.35	-48.83338	-9.397527E-009	0.0006169	6
	45	283	9.450605	43983.47	-61458.6	1	75575.83	-54.41021	-1.045957E-008	0.0006926	6
	46	286	7.512019	45282.42	-76348.53	1	88767.09	-59.32776	-9.177329E-009	0.0006188	6
	47	288	5.978954	46942.02	-94940.16	1	105911.2	-63.69046	-9.64039E-009	0.0006717	6
	48	292	4.734848	49047.66	-118645.1	1	128383.5	-67.53989	-1.041058E-008	0.0006724	6
	49	295	3.75601	51863.36	-148119.4	1	156936.8	-70.70251	-9.933231E-009	0.0007194	6
	50	300	3.004808	55405.87	-183279	1	191470.6	-73.17976	-1.016616E-008	0.0007127	6
	51	306	2.372217	60488.8	-229688.4	1	237519.8	-75.24606	-1.014427E-008	0.0006149	6
	52	310	1.878005	66230.94	-287808.1	1	295330.4	-77.0406	-9.756965E-009	0.000665	6
	53	315	1.512097	73067.52	-353027.8	1	360510	-78.30638	-1.008745E-008	0.0006736	6
	54	320	1.201923	83063.48	-440814	1	448571.7	-79.32877	-9.819886E-009	0.0006884	6
	55	326	0.956633	96244.3	-548269.1	1	556652.5	-80.04362	-1.182069E-009	4.796325E-006	5
