EXPLAIN
TAG	EISPOT
TITLE	LABEL	Potentiostatic EIS	Test Identifier
DATE	LABEL	8/24/2020	Date
TIME	LABEL	15:09:58	Time
NOTES	NOTES	1	Notes...
	
PSTAT	PSTAT	REF3000-16137	Potentiostat
VDC	POTEN	0.00000E+000	T	DC Voltage (V)
FREQINIT	QUANT	3.00000E+005	Initial Freq. (Hz)
FREQFINAL	QUANT	1.00000E+000	Final Freq. (Hz)
PTSPERDEC	QUANT	1.00000E+001	Points/decade
VAC	QUANT	5.00000E+001	AC Voltage (mV rms)
AREA	QUANT	1.00000E+000	Sample Area (cm^2)
SPEED	SELECTOR	2	Optimize for:
ZGUESS	QUANT	1.00000E+003	Estimated Z (ohms)
EOC	QUANT	0	Open Circuit (V)
SEQUENCER	TOGGLE	TRUE	Run as Sequence
PSTATMODEL	IQUANT	5	Pstat Model
PSTATSECTION	LABEL	REF3000-16137	Pstat Section
PSTATSERIALNO	LABEL	16137	Pstat Serial Number
CTRLMODE	IQUANT	1	Control Mode
IESTAB	IQUANT	0	I/E Stability
CASPEED	IQUANT	1	Control Amp Speed
CONVENTION	IQUANT	1	Current Convention
ICHRANGE	IQUANT	2	Ich Range
ICHRANGEMODE	TOGGLE	F	Ich Auto Range
ICHOFFSETENABLE	TOGGLE	T	Ich Offset Enable
ICHOFFSET	QUANT	0	Ich Offset (V)
ICHFILTER	IQUANT	3	Ich Filter
VCHRANGE	IQUANT	2	Vch Range
VCHRANGEMODE	TOGGLE	F	Vch Auto Range
VCHOFFSETENABLE	TOGGLE	T	Vch Offset Enable
VCHOFFSET	QUANT	0	Vch Offset (V)
VCHFILTER	IQUANT	3	Vch Filter
ACHRANGE	IQUANT	2	Ach Range
ACHOFFSETENABLE	TOGGLE	F	Ach Offset Enable
ACHOFFSET	QUANT	0	Ach Offset (V)
ACHFILTER	IQUANT	3	Ach Filter
IERANGELOWERLIMIT	IQUANT	2	I/E Range Lower Limit
IERANGEMODE	TOGGLE	F	I/E AutoRange
IERANGE	IQUANT	11	I/E Range
POSFEEDENABLE	TOGGLE	F	Positive Feedback IR Comp
POSFEEDRESISTANCE	QUANT	0	Positive Feedback Resistance (ohm)
ACHSELECT	IQUANT	0	Ach Select
CABLEID	IQUANT	13	Cable ID
DCCALDATE	LABEL	7/31/2020	DC Calibration Date
ACCALDATE	LABEL	7/31/2020	AC Calibration Date
THERMOSELECT	IQUANT	1	Thermo Select
FRAMEWORKVERSION	QUANT	6.33	Framework Version
INSTRUMENTVERSION	LABEL	3.50	Instrument Version
COMPLIANCEVOLTAGE	IQUANT	0	Compliance Voltage
ZCURVE	TABLE
	Pt	Time	Freq	Zreal	Zimag	Zsig	Zmod	Zphz	Idc	Vdc	IERange
	#	s	Hz	ohm	ohm	V	ohm	°	A	V	#
	0	7	300046.9	111.5717	-6.581799	1	111.7657	-3.37606	1.853016E-005	-0.0015595	9
	1	10	238359.4	112.5341	-7.723105	1	112.7988	-3.925996	5.24984E-005	-0.0007217	9
	2	13	189328.1	113.4431	-9.58308	1	113.8472	-4.828584	8.205715E-007	0.0010739	9
	3	16	150421.9	114.1264	-11.11556	1	114.6664	-5.562887	-5.438871E-005	0.0008911	9
	4	18	119484.4	115.8877	-12.92147	1	116.6059	-6.362195	7.142811E-005	-0.002116	9
	5	21	94921.88	117.4358	-14.76627	1	118.3605	-7.166709	1.902685E-005	-0.0007712	9
	6	23	75421.88	119.1054	-17.19921	1	120.3408	-8.2169	2.530665E-005	-0.0004815	9
	7	26	59859.37	121.0603	-19.8175	1	122.6716	-9.296826	1.839104E-005	-0.0007423	9
	8	28	47578.12	123.1375	-22.7851	1	125.2278	-10.48332	1.933108E-005	-0.0007221	9
	9	31	37828.12	125.361	-26.08724	1	128.0466	-11.75531	-6.188404E-006	0.0006953	9
	10	34	30046.88	127.7454	-29.95549	1	131.2106	-13.19706	1.880117E-005	-0.0007008	9
	11	36	23859.38	130.1729	-34.39614	1	134.6405	-14.80123	1.341453E-005	-0.0006805	9
	12	38	18984.38	132.5165	-39.81208	1	138.3677	-16.7219	-1.466998E-005	0.0001679	9
	13	41	15046.87	134.8735	-46.49165	1	142.6616	-19.01935	-2.082065E-005	0.0006938	9
	14	43	11953.13	136.7754	-54.9486	1	147.4003	-21.88747	2.521209E-005	-0.0005085	9
	15	45	9515.62	138.6835	-65.60344	1	153.4175	-25.31623	-2.281072E-005	0.0006904	9
	16	48	7546.875	140.5602	-79.37442	1	161.4233	-29.45343	6.44807E-006	0.0003434	9
	17	50	5928.309	142.43	-97.6473	1	172.6885	-34.43379	1.168358E-005	0.0002026	9
	18	52	4733.456	144.3498	-119.0782	1	187.1269	-39.52019	5.675086E-006	-0.0005022	9
	19	55	3796.875	146.7618	-145.7988	1	206.8727	-44.81141	1.164796E-005	0.0002344	9
	20	57	2987.132	149.7344	-182.2402	1	235.8641	-50.59237	2.560323E-005	-0.0004768	9
	21	59	2390.625	153.5363	-224.8289	1	272.2525	-55.67072	1.325308E-005	0.0001998	9
	22	61	1884.191	158.5716	-281.3903	1	322.9945	-60.59748	1.890519E-005	-0.0007224	9
	23	64	1516.544	164.2971	-345.8879	1	382.9255	-64.59224	2.014942E-005	-0.0001362	9
	24	66	1193.986	172.9886	-433.5102	1	466.7507	-68.24594	1.367274E-005	-0.0006778	9
	25	69	946.5144	182.3391	-537.7888	1	567.8594	-71.2706	1.042652E-006	0.0017975	8
	26	71	751.7689	197.3685	-670.1141	1	698.5752	-73.58874	6.498463E-006	-0.0018813	8
	27	73	597.4265	214.6598	-830.9697	1	858.2479	-75.51575	-6.322021E-006	0.0019043	8
	28	76	477.4305	238.2994	-1028.075	1	1055.331	-76.94976	1.755919E-007	0.0006453	8
	29	78	376.6741	271.2011	-1285.331	1	1313.631	-78.08552	1.751664E-007	0.0006507	8
	30	80	298.2954	314.5075	-1600.093	1	1630.709	-78.87994	1.725363E-007	0.000658	8
	31	82	237.7717	370.6952	-1977.814	1	2012.253	-79.3844	1.319864E-007	0.0007001	8
	32	85	189.0121	446.6545	-2448.306	1	2488.715	-79.661	1.634346E-007	0.0006467	8
	33	87	150.2404	548.6242	-3027.276	1	3076.587	-79.72794	1.804719E-007	0.0006466	8
	34	90	119.1737	687.2983	-3745.624	1	3808.159	-79.60226	1.72784E-007	0.0006532	8
	35	92	95.0169	872.1049	-4615.364	1	4697.036	-79.29973	1.101899E-009	0.0006199	7
	36	95	75.60484	1119.073	-5673.816	1	5783.123	-78.84249	-3.055448E-009	0.0006246	7
	37	97	54.50582	1625.817	-7592.284	1	7764.409	-77.91319	-4.877347E-009	0.0006232	7
	38	100	45.95588	1990.234	-8824.254	1	9045.91	-77.2901	5.837147E-009	0.0006303	7
	39	102	37.20238	2561.021	-10596.47	1	10901.56	-76.41296	6.660238E-010	0.0006269	7
	40	104	30.04808	3331.066	-12733.17	1	13161.67	-75.33965	-3.457182E-009	0.0006242	7
	41	107	23.91582	4395.442	-15386.46	1	16001.97	-74.05698	-6.133435E-009	0.0006234	7
	42	109	18.60119	5974.521	-18872.96	1	19796.05	-72.43403	-4.283389E-009	0.0006348	7
	43	111	15.02404	7716.853	-22308.94	1	23605.91	-70.91906	-2.883588E-009	0.0006238	7
	44	114	12.01923	10055.3	-26392.49	1	28243.1	-69.14361	1.42659E-009	0.0006226	7
	45	116	9.450605	13273.93	-31377.2	1	34069.42	-67.06951	-4.62124E-009	0.0006257	7
	46	119	7.512019	17172.17	-36698.15	1	40517.13	-64.92369	-2.027635E-009	0.0006261	7
	47	121	5.978954	21909.1	-42435.16	1	47757.21	-62.69287	-1.605845E-008	0.0006864	6
	48	125	4.734848	27809.05	-48822.19	1	56186.74	-60.33422	-1.285986E-008	0.0006813	6
	49	128	3.75601	34734.46	-55498.46	1	65471.85	-57.95905	-1.728153E-008	0.0006656	6
	50	131	3.004808	42546.24	-62094.52	1	75272.26	-55.58164	-1.437928E-008	0.0007064	6
	51	135	2.372217	51986.27	-69173.64	1	86530.72	-53.07393	-1.674305E-008	0.0006771	6
	52	139	1.878005	62814.02	-76187.65	1	98742.9	-50.49562	-1.720303E-008	0.0006648	6
	53	144	1.512097	73678.8	-82590.43	1	110678.6	-48.2639	-1.64388E-008	0.0006518	6
	54	149	1.201923	86570.73	-88929.77	1	124108.8	-45.77011	-1.613249E-008	0.0006553	6
	55	156	0.956633	100582	-94650.55	1	138114	-43.2598	-1.761926E-008	2.970668E-005	6
