EXPLAIN
TAG	EISPOT
TITLE	LABEL	Potentiostatic EIS	Test Identifier
DATE	LABEL	8/24/2020	Date
TIME	LABEL	15:23:44	Time
NOTES	NOTES	1	Notes...
	
PSTAT	PSTAT	REF3000-16137	Potentiostat
VDC	POTEN	0.00000E+000	T	DC Voltage (V)
FREQINIT	QUANT	3.00000E+005	Initial Freq. (Hz)
FREQFINAL	QUANT	1.00000E+000	Final Freq. (Hz)
PTSPERDEC	QUANT	1.00000E+001	Points/decade
VAC	QUANT	5.00000E+001	AC Voltage (mV rms)
AREA	QUANT	1.00000E+000	Sample Area (cm^2)
SPEED	SELECTOR	2	Optimize for:
ZGUESS	QUANT	1.00000E+003	Estimated Z (ohms)
EOC	QUANT	0	Open Circuit (V)
SEQUENCER	TOGGLE	TRUE	Run as Sequence
PSTATMODEL	IQUANT	5	Pstat Model
PSTATSECTION	LABEL	REF3000-16137	Pstat Section
PSTATSERIALNO	LABEL	16137	Pstat Serial Number
CTRLMODE	IQUANT	1	Control Mode
IESTAB	IQUANT	0	I/E Stability
CASPEED	IQUANT	1	Control Amp Speed
CONVENTION	IQUANT	1	Current Convention
ICHRANGE	IQUANT	2	Ich Range
ICHRANGEMODE	TOGGLE	F	Ich Auto Range
ICHOFFSETENABLE	TOGGLE	T	Ich Offset Enable
ICHOFFSET	QUANT	0	Ich Offset (V)
ICHFILTER	IQUANT	3	Ich Filter
VCHRANGE	IQUANT	2	Vch Range
VCHRANGEMODE	TOGGLE	F	Vch Auto Range
VCHOFFSETENABLE	TOGGLE	T	Vch Offset Enable
VCHOFFSET	QUANT	0	Vch Offset (V)
VCHFILTER	IQUANT	3	Vch Filter
ACHRANGE	IQUANT	2	Ach Range
ACHOFFSETENABLE	TOGGLE	F	Ach Offset Enable
ACHOFFSET	QUANT	0	Ach Offset (V)
ACHFILTER	IQUANT	3	Ach Filter
IERANGELOWERLIMIT	IQUANT	2	I/E Range Lower Limit
IERANGEMODE	TOGGLE	F	I/E AutoRange
IERANGE	IQUANT	11	I/E Range
POSFEEDENABLE	TOGGLE	F	Positive Feedback IR Comp
POSFEEDRESISTANCE	QUANT	0	Positive Feedback Resistance (ohm)
ACHSELECT	IQUANT	0	Ach Select
CABLEID	IQUANT	13	Cable ID
DCCALDATE	LABEL	7/31/2020	DC Calibration Date
ACCALDATE	LABEL	7/31/2020	AC Calibration Date
THERMOSELECT	IQUANT	1	Thermo Select
FRAMEWORKVERSION	QUANT	6.33	Framework Version
INSTRUMENTVERSION	LABEL	3.50	Instrument Version
COMPLIANCEVOLTAGE	IQUANT	0	Compliance Voltage
ZCURVE	TABLE
	Pt	Time	Freq	Zreal	Zimag	Zsig	Zmod	Zphz	Idc	Vdc	IERange
	#	s	Hz	ohm	ohm	V	ohm	°	A	V	#
	0	7	300046.9	145.5678	-9.167234	1	145.8562	-3.603483	9.449887E-006	-0.0011439	9
	1	11	238359.4	146.5067	-10.17447	1	146.8596	-3.972649	1.921991E-005	-0.0006529	9
	2	14	189328.1	147.7369	-11.51461	1	148.185	-4.456621	7.701558E-005	-0.0024152	9
	3	16	150421.9	149.8818	-13.24445	1	150.4659	-5.049879	-9.879634E-006	0.0011429	9
	4	19	119484.4	150.9101	-15.48859	1	151.7029	-5.860007	2.091454E-005	-0.0017252	9
	5	22	94921.88	152.7743	-17.69355	1	153.7955	-6.606276	3.345118E-006	-0.0004648	9
	6	24	75421.88	154.7696	-20.36189	1	156.1033	-7.494938	2.585876E-005	-0.0004669	9
	7	27	59859.37	157.2052	-23.36031	1	158.9314	-8.452162	-1.474439E-005	0.0008794	9
	8	29	47578.12	159.7092	-26.63045	1	161.9142	-9.466599	-2.1987E-005	0.0008644	9
	9	32	37828.12	162.563	-30.45827	1	165.3918	-10.61206	-2.231198E-005	0.0006496	9
	10	34	30046.88	165.5948	-34.80304	1	169.2126	-11.8691	-1.814919E-005	0.0004053	9
	11	37	23859.38	168.7221	-39.86155	1	173.3669	-13.29271	-2.297227E-005	0.0010957	9
	12	39	18984.38	172.0965	-45.62332	1	178.0412	-14.84775	2.433662E-005	-0.0007463	9
	13	41	15046.87	175.5803	-52.64148	1	183.3018	-16.68949	-5.091305E-006	-0.0001543	9
	14	44	11953.13	178.1305	-61.57208	1	188.4717	-19.06808	-6.665864E-006	0.0008305	9
	15	46	9515.62	180.7084	-72.81529	1	194.8271	-21.94665	-1.959645E-005	0.0008942	9
	16	48	7546.875	183.2917	-87.32959	1	203.0328	-25.47553	-1.741342E-006	-0.0003216	9
	17	51	5928.309	185.7598	-106.2144	1	213.9818	-29.76023	-6.336907E-006	0.0007825	9
	18	53	4733.456	187.7346	-129.2625	1	227.9322	-34.54891	1.492238E-005	-0.0007446	9
	19	55	3796.875	190.1444	-156.995	1	246.5813	-39.54519	2.609022E-005	-0.0006429	9
	20	58	2987.132	193.2104	-196.5054	1	275.5806	-45.48442	2.368663E-005	-0.0002612	9
	21	60	2390.625	196.2095	-242.76	1	312.1387	-51.05331	-6.953031E-006	0.0008394	9
	22	62	1884.191	201.5605	-303.4034	1	364.2531	-56.40265	2.231586E-006	0.0005654	9
	23	65	1516.544	206.6776	-370.1267	1	423.9215	-60.82114	-7.557748E-006	0.0026195	8
	24	67	1193.986	214.2034	-464.8306	1	511.811	-65.25879	7.818124E-006	-0.0024554	8
	25	70	946.5144	224.2512	-581.3289	1	623.0826	-68.90557	-4.428893E-006	0.0035901	8
	26	72	751.7689	236.5449	-721.6306	1	759.4104	-71.85126	-7.629022E-006	0.0026499	8
	27	74	597.4265	255.1302	-901.4906	1	936.8974	-74.198	-7.853359E-006	0.0027831	8
	28	76	477.4305	275.0775	-1114.801	1	1148.238	-76.13913	1.174891E-007	0.0006534	8
	29	79	376.6741	305.3325	-1396.248	1	1429.243	-77.6647	1.166553E-007	0.0006511	8
	30	81	298.2954	344.8707	-1741.475	1	1775.294	-78.79844	7.736136E-008	0.0007021	8
	31	83	237.7717	395.8043	-2157.131	1	2193.143	-79.60266	1.239844E-007	0.000649	8
	32	86	189.0121	464.142	-2677.545	1	2717.476	-80.16573	1.019355E-007	0.000655	8
	33	88	150.2404	555.5013	-3321.323	1	3367.458	-80.505	1.267907E-007	0.0006433	8
	34	91	119.1737	678.5515	-4124.348	1	4179.794	-80.6572	1.054232E-007	0.0006535	8
	35	93	95.0169	845.4841	-5100.656	1	5170.255	-80.58823	-1.624897E-009	0.0006301	7
	36	96	75.60484	1067.368	-6300.195	1	6389.972	-80.38435	-1.847515E-009	0.000629	7
	37	98	54.50582	1525.866	-8499.999	1	8635.87	-79.82302	-3.448513E-009	0.0006245	7
	38	101	45.95588	1854.988	-9917.61	1	10089.6	-79.40582	2.807421E-009	0.0006344	7
	39	103	37.20238	2381.483	-11992.3	1	12226.48	-78.76808	2.044979E-009	0.0006284	7
	40	105	30.04808	3074.253	-14477.78	1	14800.58	-78.01172	9.199373E-010	0.0006174	7
	41	108	23.91582	4073.066	-17683.98	1	18146.99	-77.02954	-3.464614E-009	0.0006257	7
	42	110	18.60119	5539.797	-21914.23	1	22603.6	-75.81316	-4.345885E-009	0.000623	7
	43	112	15.02404	7196.396	-26195.38	1	27165.9	-74.63866	5.420104E-009	0.0006381	7
	44	115	12.01923	9441.408	-31405.97	1	32794.44	-73.26793	2.498425E-010	0.0006775	7
	45	117	9.450605	12574.26	-37925.7	1	39955.86	-71.65707	1.316857E-010	0.0006107	7
	46	120	7.512019	16401.16	-45179.92	1	48064.78	-70.04816	-5.651392E-009	0.0006482	6
	47	122	5.978954	21189.2	-53372.76	1	57425.02	-68.34673	-3.169275E-009	0.000675	6
	48	125	4.734848	27275.59	-62889.93	1	68549.98	-66.55345	-3.754526E-009	0.0006955	6
	49	129	3.75601	34618	-73549.33	1	81289.05	-64.7947	-4.373905E-009	0.0006793	6
	50	132	3.004808	43105.82	-84855.23	1	95176.3	-63.06977	-7.378696E-009	0.0007091	6
	51	136	2.372217	54018.74	-98185.3	1	112064.2	-61.18167	-5.976784E-009	0.0008014	6
	52	140	1.878005	66514.04	-112593	1	130771.9	-59.42762	-7.098314E-009	0.0006465	6
	53	145	1.512097	79851.8	-127083.5	1	150088.4	-57.85716	-6.823768E-009	0.0007189	6
	54	150	1.201923	96378.4	-144327.5	1	173548.9	-56.26597	-6.275235E-009	0.0006386	6
	55	156	0.956633	115147.2	-163002.6	1	199571.3	-54.7621	-8.34619E-009	3.163717E-005	6
