EXPLAIN
TAG	EISPOT
TITLE	LABEL	Potentiostatic EIS	Test Identifier
DATE	LABEL	8/24/2020	Date
TIME	LABEL	17:44:03	Time
NOTES	NOTES	1	Notes...
	
PSTAT	PSTAT	REF3000-16137	Potentiostat
VDC	POTEN	0.00000E+000	T	DC Voltage (V)
FREQINIT	QUANT	3.00000E+005	Initial Freq. (Hz)
FREQFINAL	QUANT	1.00000E+000	Final Freq. (Hz)
PTSPERDEC	QUANT	1.00000E+001	Points/decade
VAC	QUANT	5.00000E+001	AC Voltage (mV rms)
AREA	QUANT	1.00000E+000	Sample Area (cm^2)
SPEED	SELECTOR	2	Optimize for:
ZGUESS	QUANT	1.00000E+003	Estimated Z (ohms)
EOC	QUANT	0	Open Circuit (V)
SEQUENCER	TOGGLE	TRUE	Run as Sequence
PSTATMODEL	IQUANT	5	Pstat Model
PSTATSECTION	LABEL	REF3000-16137	Pstat Section
PSTATSERIALNO	LABEL	16137	Pstat Serial Number
CTRLMODE	IQUANT	1	Control Mode
IESTAB	IQUANT	0	I/E Stability
CASPEED	IQUANT	1	Control Amp Speed
CONVENTION	IQUANT	1	Current Convention
ICHRANGE	IQUANT	2	Ich Range
ICHRANGEMODE	TOGGLE	F	Ich Auto Range
ICHOFFSETENABLE	TOGGLE	T	Ich Offset Enable
ICHOFFSET	QUANT	0	Ich Offset (V)
ICHFILTER	IQUANT	3	Ich Filter
VCHRANGE	IQUANT	2	Vch Range
VCHRANGEMODE	TOGGLE	F	Vch Auto Range
VCHOFFSETENABLE	TOGGLE	T	Vch Offset Enable
VCHOFFSET	QUANT	0	Vch Offset (V)
VCHFILTER	IQUANT	3	Vch Filter
ACHRANGE	IQUANT	2	Ach Range
ACHOFFSETENABLE	TOGGLE	F	Ach Offset Enable
ACHOFFSET	QUANT	0	Ach Offset (V)
ACHFILTER	IQUANT	3	Ach Filter
IERANGELOWERLIMIT	IQUANT	2	I/E Range Lower Limit
IERANGEMODE	TOGGLE	F	I/E AutoRange
IERANGE	IQUANT	11	I/E Range
POSFEEDENABLE	TOGGLE	F	Positive Feedback IR Comp
POSFEEDRESISTANCE	QUANT	0	Positive Feedback Resistance (ohm)
ACHSELECT	IQUANT	0	Ach Select
CABLEID	IQUANT	13	Cable ID
DCCALDATE	LABEL	7/31/2020	DC Calibration Date
ACCALDATE	LABEL	7/31/2020	AC Calibration Date
THERMOSELECT	IQUANT	1	Thermo Select
FRAMEWORKVERSION	QUANT	6.33	Framework Version
INSTRUMENTVERSION	LABEL	3.50	Instrument Version
COMPLIANCEVOLTAGE	IQUANT	0	Compliance Voltage
ZCURVE	TABLE
	Pt	Time	Freq	Zreal	Zimag	Zsig	Zmod	Zphz	Idc	Vdc	IERange
	#	s	Hz	ohm	ohm	V	ohm	°	A	V	#
	0	7	300046.9	148.3647	-8.508062	1	148.6085	-3.282065	1.756921E-005	-0.0006942	9
	1	10	238359.4	145.65	-9.388888	1	145.9523	-3.688297	-1.497563E-005	0.0007779	9
	2	13	189328.1	142.9511	-10.56142	1	143.3407	-4.225412	-5.947144E-006	0.0010617	9
	3	16	150421.9	140.5485	-12.27129	1	141.0831	-4.989842	6.744693E-005	-0.0015919	9
	4	19	119484.4	138.8247	-13.89922	1	139.5188	-5.717439	-1.395495E-005	0.0009892	9
	5	21	94921.88	137.4056	-15.44435	1	138.2708	-6.413113	2.554113E-005	-0.0008551	9
	6	24	75421.88	135.8214	-17.86023	1	136.9906	-7.491292	-1.582891E-005	0.0001663	9
	7	27	59859.37	133.8848	-20.67734	1	135.4722	-8.779466	2.015375E-005	-0.0008014	9
	8	29	47578.12	133.5303	-23.37112	1	135.5601	-9.92763	1.995123E-005	-0.000795	9
	9	32	37828.12	134.1945	-26.49135	1	136.7843	-11.16718	2.300415E-005	-0.0007282	9
	10	34	30046.88	134.868	-30.03927	1	138.1728	-12.55658	-1.870797E-005	0.0002666	9
	11	37	23859.38	135.7049	-34.43956	1	140.0068	-14.24005	-2.645411E-006	-0.00031	9
	12	39	18984.38	136.7309	-39.5169	1	142.3268	-16.11994	2.396946E-005	-0.0007889	9
	13	41	15046.87	137.5712	-45.95491	1	145.0437	-18.47162	1.51822E-005	-0.0007478	9
	14	44	11953.13	138.1908	-54.06364	1	148.39	-21.36666	2.40325E-005	-0.0002598	9
	15	46	9515.62	138.9862	-64.31596	1	153.146	-24.83238	-1.063109E-005	-5.806603E-006	9
	16	48	7546.875	139.5567	-77.62272	1	159.6915	-29.08321	6.729765E-006	-0.00057	9
	17	51	5928.309	140.6078	-95.4321	1	169.9348	-34.16516	-2.092072E-005	0.0008074	9
	18	53	4733.456	141.7134	-116.4479	1	183.4197	-39.41042	2.498438E-005	-0.0006084	9
	19	55	3796.875	143.2911	-141.9167	1	201.6747	-44.7239	1.127252E-005	0.0001652	9
	20	58	2987.132	145.4742	-177.0664	1	229.1621	-50.59415	3.031707E-006	0.0004863	9
	21	60	2390.625	148.9292	-216.7188	1	262.9581	-55.50314	-1.534703E-005	0.0002121	9
	22	62	1884.191	153.7883	-271.099	1	311.6818	-60.43474	3.308498E-006	0.0004811	9
	23	65	1516.544	159.1145	-332.5321	1	368.6394	-64.42918	-1.291525E-005	0.0008575	9
	24	67	1193.986	168.3943	-415.7184	1	448.5291	-67.9487	5.556507E-006	-0.0005134	9
	25	69	946.5144	178.6879	-513.7462	1	543.9343	-70.82163	3.288776E-006	0.0008927	8
	26	72	751.7689	194.682	-637.2446	1	666.3195	-73.01178	-5.717145E-006	0.0028561	8
	27	74	597.4265	215.9841	-788.3965	1	817.4462	-74.6795	-6.258465E-006	0.0023119	8
	28	76	477.4305	241.4002	-969.664	1	999.261	-76.02026	6.78825E-008	0.0006485	8
	29	79	376.6741	279.5381	-1206.411	1	1238.374	-76.95419	4.247725E-008	0.0006959	8
	30	81	298.2954	330.3705	-1493.882	1	1529.977	-77.52981	8.825453E-008	0.0006471	8
	31	83	237.7717	397.0341	-1836.484	1	1878.912	-77.80083	8.154407E-008	0.0006505	8
	32	86	189.0121	488.315	-2260.341	1	2312.487	-77.80939	7.442787E-008	0.0006514	8
	33	88	150.2404	612.4769	-2777.087	1	2843.825	-77.56271	3.040493E-008	0.0006998	8
	34	91	119.1737	784.2637	-3412.683	1	3501.639	-77.05766	8.558104E-008	0.0006928	8
	35	93	95.0169	1016.354	-4170.244	1	4292.309	-76.30314	-1.111082E-007	0.0006188	7
	36	95	75.60484	1332.363	-5078.073	1	5249.954	-75.29836	-1.138415E-007	0.0006199	7
	37	98	54.50582	1997.011	-6686.07	1	6977.936	-73.37004	-1.143922E-007	0.0006168	7
	38	101	45.95588	2472.697	-7674.952	1	8063.443	-72.14223	-1.086507E-007	0.0006263	7
	39	103	37.20238	3237.635	-9065.358	1	9626.16	-70.34614	-1.13351E-007	0.0006302	7
	40	105	30.04808	4259.833	-10630.69	1	11452.41	-68.16349	-1.139079E-007	0.0006172	7
	41	108	23.91582	5673.01	-12479.11	1	13708.07	-65.55343	-1.162001E-007	0.0006296	7
	42	110	18.60119	7707.595	-14653.1	1	16556.58	-62.25543	-1.157719E-007	0.000621	7
	43	112	15.02404	9886.89	-16528.97	1	19260.25	-59.11402	-1.170337E-007	0.0006319	7
	44	115	12.01923	12641.78	-18370.08	1	22299.65	-55.46531	-1.293414E-007	0.0006178	7
	45	117	9.450605	16137.2	-20013.8	1	25709.17	-51.12065	-1.277001E-007	0.0006392	7
	46	120	7.512019	19834.84	-21156.43	1	29000.27	-46.84661	-1.295932E-007	0.0006238	7
	47	122	5.978954	23657.23	-21577.59	1	32019.64	-42.36771	-1.341441E-007	0.0006241	7
	48	125	4.734848	27555.95	-21388.67	1	34882.74	-37.81827	-1.32277E-007	0.0006181	7
	49	129	3.75601	30939.66	-20280.92	1	36994.3	-33.2448	-1.393423E-007	0.0006393	7
	50	134	3.004808	33671.2	-18926.38	1	38625.87	-29.34008	-1.412939E-007	0.0005949	7
	51	141	2.372217	36285.69	-17569.81	1	40315.63	-25.83662	-1.680106E-007	0.000658	6
	52	148	1.878005	37749.79	-15433.09	1	40782.68	-22.23601	-1.738774E-007	0.0007419	6
	53	157	1.512097	38974.45	-14028.02	1	41422.13	-19.79526	-1.740069E-007	0.0005796	6
	54	168	1.201923	39943.96	-12545.17	1	41867.66	-17.4359	-1.759526E-007	0.0006884	6
	55	181	0.956633	40576.88	-11150.7	1	42081.12	-15.36583	-1.941782E-007	4.585568E-005	6
