EXPLAIN
TAG	EISPOT
TITLE	LABEL	Potentiostatic EIS	Test Identifier
DATE	LABEL	2/26/2021	Date
TIME	LABEL	20:07:54	Time
NOTES	NOTES	1	Notes...
	
PSTAT	PSTAT	REF3000-16137	Potentiostat
VDC	POTEN	0.00000E+000	T	DC Voltage (V)
FREQINIT	QUANT	3.00000E+005	Initial Freq. (Hz)
FREQFINAL	QUANT	1.00000E+000	Final Freq. (Hz)
PTSPERDEC	QUANT	1.00000E+001	Points/decade
VAC	QUANT	5.00000E+001	AC Voltage (mV rms)
AREA	QUANT	1.00000E+000	Sample Area (cm^2)
SPEED	SELECTOR	2	Optimize for:
ZGUESS	QUANT	1.00000E+003	Estimated Z (ohms)
EOC	QUANT	0	Open Circuit (V)
SEQUENCER	TOGGLE	TRUE	Run as Sequence
PSTATMODEL	IQUANT	5	Pstat Model
PSTATSECTION	LABEL	REF3000-16137	Pstat Section
PSTATSERIALNO	LABEL	16137	Pstat Serial Number
CTRLMODE	IQUANT	1	Control Mode
IESTAB	IQUANT	0	I/E Stability
CASPEED	IQUANT	1	Control Amp Speed
CONVENTION	IQUANT	1	Current Convention
ICHRANGE	IQUANT	2	Ich Range
ICHRANGEMODE	TOGGLE	F	Ich Auto Range
ICHOFFSETENABLE	TOGGLE	T	Ich Offset Enable
ICHOFFSET	QUANT	0	Ich Offset (V)
ICHFILTER	IQUANT	3	Ich Filter
VCHRANGE	IQUANT	2	Vch Range
VCHRANGEMODE	TOGGLE	F	Vch Auto Range
VCHOFFSETENABLE	TOGGLE	T	Vch Offset Enable
VCHOFFSET	QUANT	0	Vch Offset (V)
VCHFILTER	IQUANT	3	Vch Filter
ACHRANGE	IQUANT	2	Ach Range
ACHOFFSETENABLE	TOGGLE	F	Ach Offset Enable
ACHOFFSET	QUANT	0	Ach Offset (V)
ACHFILTER	IQUANT	3	Ach Filter
IERANGELOWERLIMIT	IQUANT	2	I/E Range Lower Limit
IERANGEMODE	TOGGLE	F	I/E AutoRange
IERANGE	IQUANT	11	I/E Range
POSFEEDENABLE	TOGGLE	F	Positive Feedback IR Comp
POSFEEDRESISTANCE	QUANT	0	Positive Feedback Resistance (ohm)
ACHSELECT	IQUANT	0	Ach Select
CABLEID	IQUANT	13	Cable ID
DCCALDATE	LABEL	7/31/2020	DC Calibration Date
ACCALDATE	LABEL	7/31/2020	AC Calibration Date
THERMOSELECT	IQUANT	1	Thermo Select
FRAMEWORKVERSION	QUANT	6.33	Framework Version
INSTRUMENTVERSION	LABEL	3.50	Instrument Version
COMPLIANCEVOLTAGE	IQUANT	0	Compliance Voltage
ZCURVE	TABLE
	Pt	Time	Freq	Zreal	Zimag	Zsig	Zmod	Zphz	Idc	Vdc	IERange
	#	s	Hz	ohm	ohm	V	ohm	°	A	V	#
	0	14	300046.9	-85.64436	-4848.844	1	4849.6	-91.0119	-1.055699E-005	0.001665	9
	1	29	238359.4	-18.23308	-5974.211	1	5974.239	-90.17487	7.932585E-005	-0.0015888	9
	2	49	189328.1	303.6769	-6999.052	1	7005.637	-87.51559	8.908054E-005	-0.0024751	9
	3	62	150421.9	304.2025	-11233.96	1	11238.08	-88.44888	7.630967E-005	-0.0014437	9
	4	70	119484.4	298.8341	-11702.67	1	11706.49	-88.53724	-1.974562E-005	0.0016762	9
	5	80	94921.88	400.6284	-14524.58	1	14530.11	-88.42002	-2.02058E-006	0.0076636	8
	6	88	75421.88	599.9489	-18259.65	1	18269.5	-88.11813	-2.648977E-005	0.0096228	8
	7	97	59859.37	1015.517	-22890.22	1	22912.73	-87.45975	2.61759E-005	-0.0050276	8
	8	106	47578.12	4039.028	-30185.31	1	30454.33	-82.37865	-1.794389E-006	0.0219593	7
	9	113	37828.12	4393.074	-37293.94	1	37551.79	-83.28175	-6.541105E-006	0.0258455	7
	10	120	30046.88	412.037	-45669.07	1	45670.93	-89.48308	1.729056E-005	0.0003369	8
	11	129	23859.38	3049.628	-57116.1	1	57197.46	-86.94368	8.310009E-006	-0.0076417	8
	12	139	18984.38	4799.983	-71998.4	1	72158.23	-86.18585	-1.046064E-006	-0.0130349	7
	13	144	15046.87	5493.728	-90412.41	1	90579.16	-86.52281	3.574815E-006	-0.0245714	7
	14	149	11953.13	6902.637	-113490.3	1	113700	-86.51948	-6.542534E-006	0.0259008	7
	15	156	9515.62	2360.727	-140959.3	1	140979	-89.04053	4.915515E-006	-0.0005896	7
	16	162	7546.875	4544.281	-182811.9	1	182868.4	-88.57605	-3.3879E-006	-0.005227	7
	17	168	5928.309	19983.03	-237664.8	1	238503.4	-85.19383	-3.328833E-006	-0.0052604	7
	18	173	4733.456	22810.46	-316451.5	1	317272.6	-85.87714	4.932492E-006	-0.0005808	7
	19	179	3796.875	23172.25	-365297.3	1	366031.5	-86.37036	4.331322E-007	0.0163825	7
	20	186	2987.132	14311.1	-415495	1	415741.4	-88.02731	1.323318E-006	-0.0199113	7
	21	192	2390.625	43894.76	-574714.3	1	576388.1	-85.63242	-5.82545E-008	-0.0146314	6
	22	198	1884.191	57906.07	-756871.9	1	759083.8	-85.62499	-4.016582E-007	0.0254999	6
	23	203	1516.544	73240.93	-883971.9	1	887000.9	-85.26361	4.025277E-007	-0.025396	6
	24	208	1193.986	32897.79	-1134800	1	1135277	-88.33946	-2.768782E-007	-0.0073855	6
	25	215	946.5144	110081.2	-1330494	1	1335040	-85.27029	-6.118491E-008	-0.0144094	6
	26	219	751.7689	239151.5	-1988903	1	2003230	-83.14351	-7.478523E-007	0.023105	6
	27	224	597.4265	499200.8	-2760358	1	2805134	-79.74906	7.381205E-007	-0.02758	6
	28	228	477.4305	236121.3	-2805325	1	2815245	-85.18881	-6.896014E-009	0.0007067	6
	29	234	376.6741	349459.5	-3542987	1	3560179	-84.3669	-7.144652E-009	0.0006529	6
	30	238	298.2954	894111.1	-4498142	1	4586145	-78.75766	-7.147894E-010	0.0006151	5
	31	242	237.7717	1082385	-5635388	1	5738394	-79.12765	-7.055586E-010	0.0006348	5
	32	246	189.0121	1411595	-6947091	1	7089053	-78.51431	-7.256961E-010	0.0006662	5
	33	250	150.2404	1964631	-8579055	1	8801134	-77.10149	-7.84915E-010	0.0007156	5
	34	253	119.1737	3105007	-1.214601E+007	1	1.253661E+007	-75.66001	-5.705054E-010	0.0006566	5
	35	256	95.0169	4097613	-1.301108E+007	1	1.364106E+007	-72.51909	-6.935859E-010	0.0007073	5
	36	258	75.60484	4657469	-1.750382E+007	1	1.811286E+007	-75.09981	-8.589913E-010	0.0007115	5
	37	261	54.50582	9.900171E+006	-2.157394E+007	1	2.373707E+007	-65.34985	-6.843578E-010	0.0006515	5
	38	264	45.95588	8780557	-2.471249E+007	1	2.622604E+007	-70.43945	-7.412884E-010	0.0006173	5
	39	268	37.20238	1.150591E+007	-2.470645E+007	1	2.725426E+007	-65.02838	-6.754152E-010	0.0007076	5
	40	272	30.04808	2.18223E+007	-2.983064E+007	1	3.696051E+007	-53.81305	-8.046596E-010	0.0007132	5
	41	276	23.91582	2.936862E+007	-3.803038E+007	1	4.805024E+007	-52.32321	-1.747214E-010	0.0007201	4
	42	280	18.60119	1.641155E+007	-3.472703E+007	1	3.840971E+007	-64.70518	-4.24049E-010	0.0007146	4
	43	283	15.02404	4.444945E+007	-3.390576E+007	1	5.590487E+007	-37.33615	-7.786671E-011	0.0006407	4
	44	287	12.01923	5.050301E+007	-2.996616E+007	1	5.872414E+007	-30.68295	-5.549261E-011	0.0007101	4
	45	291	9.450605	5.715565E+007	-2.894575E+007	1	6.406735E+007	-26.85935	-6.539645E-011	0.0007152	4
	46	295	7.512019	6.776298E+007	-2.707517E+007	1	7.297182E+007	-21.77952	-5.036183E-011	0.0007082	4
	47	299	5.978954	6.760077E+007	-3.001916E+007	1	7.39663E+007	-23.94435	-3.681992E-011	0.0006242	4
	48	304	4.734848	7.631274E+007	-2.452237E+007	1	8.015598E+007	-17.81431	-5.876488E-011	0.0006524	4
	49	311	3.75601	8.083604E+007	-1.886771E+007	1	8.300877E+007	-13.13803	-6.125333E-011	0.0006726	4
	50	317	3.004808	8.571891E+007	-1.890716E+007	1	8.777934E+007	-12.43866	-6.380826E-011	0.0007089	4
	51	325	2.372217	9.64198E+007	-1.448798E+007	1	9.75022E+007	-8.545298	-5.070502E-012	0.0007801	3
	52	329	1.878005	1.014004E+008	-1.486404E+007	1	1.02484E+008	-8.339456	-7.955878E-012	0.0007141	3
	53	338	1.512097	1.071172E+008	-1.548132E+007	1	1.082302E+008	-8.223838	-1.227978E-011	0.0008456	3
	54	344	1.201923	1.141231E+008	-1.66174E+007	1	1.153266E+008	-8.284582	-6.988118E-012	0.0007157	3
	55	354	0.956633	1.222212E+008	-1.800909E+007	1	1.235409E+008	-8.382124	-2.229106E-011	0.000097	3
