EXPLAIN
TAG	EISPOT
TITLE	LABEL	Potentiostatic EIS	Test Identifier
DATE	LABEL	2/26/2021	Date
TIME	LABEL	19:09:08	Time
NOTES	NOTES	1	Notes...
	
PSTAT	PSTAT	REF3000-16137	Potentiostat
VDC	POTEN	0.00000E+000	T	DC Voltage (V)
FREQINIT	QUANT	3.00000E+005	Initial Freq. (Hz)
FREQFINAL	QUANT	1.00000E+000	Final Freq. (Hz)
PTSPERDEC	QUANT	1.00000E+001	Points/decade
VAC	QUANT	5.00000E+001	AC Voltage (mV rms)
AREA	QUANT	1.00000E+000	Sample Area (cm^2)
SPEED	SELECTOR	2	Optimize for:
ZGUESS	QUANT	1.00000E+003	Estimated Z (ohms)
EOC	QUANT	0	Open Circuit (V)
SEQUENCER	TOGGLE	TRUE	Run as Sequence
PSTATMODEL	IQUANT	5	Pstat Model
PSTATSECTION	LABEL	REF3000-16137	Pstat Section
PSTATSERIALNO	LABEL	16137	Pstat Serial Number
CTRLMODE	IQUANT	1	Control Mode
IESTAB	IQUANT	0	I/E Stability
CASPEED	IQUANT	1	Control Amp Speed
CONVENTION	IQUANT	1	Current Convention
ICHRANGE	IQUANT	2	Ich Range
ICHRANGEMODE	TOGGLE	F	Ich Auto Range
ICHOFFSETENABLE	TOGGLE	T	Ich Offset Enable
ICHOFFSET	QUANT	0	Ich Offset (V)
ICHFILTER	IQUANT	3	Ich Filter
VCHRANGE	IQUANT	2	Vch Range
VCHRANGEMODE	TOGGLE	F	Vch Auto Range
VCHOFFSETENABLE	TOGGLE	T	Vch Offset Enable
VCHOFFSET	QUANT	0	Vch Offset (V)
VCHFILTER	IQUANT	3	Vch Filter
ACHRANGE	IQUANT	2	Ach Range
ACHOFFSETENABLE	TOGGLE	F	Ach Offset Enable
ACHOFFSET	QUANT	0	Ach Offset (V)
ACHFILTER	IQUANT	3	Ach Filter
IERANGELOWERLIMIT	IQUANT	2	I/E Range Lower Limit
IERANGEMODE	TOGGLE	F	I/E AutoRange
IERANGE	IQUANT	11	I/E Range
POSFEEDENABLE	TOGGLE	F	Positive Feedback IR Comp
POSFEEDRESISTANCE	QUANT	0	Positive Feedback Resistance (ohm)
ACHSELECT	IQUANT	0	Ach Select
CABLEID	IQUANT	13	Cable ID
DCCALDATE	LABEL	7/31/2020	DC Calibration Date
ACCALDATE	LABEL	7/31/2020	AC Calibration Date
THERMOSELECT	IQUANT	1	Thermo Select
FRAMEWORKVERSION	QUANT	6.33	Framework Version
INSTRUMENTVERSION	LABEL	3.50	Instrument Version
COMPLIANCEVOLTAGE	IQUANT	0	Compliance Voltage
ZCURVE	TABLE
	Pt	Time	Freq	Zreal	Zimag	Zsig	Zmod	Zphz	Idc	Vdc	IERange
	#	s	Hz	ohm	ohm	V	ohm	°	A	V	#
	0	8	300046.9	289.3907	-44.85415	1	292.8462	-8.810461	-5.946887E-005	0.0004756	10
	1	13	238359.4	294.7011	-42.19938	1	297.7072	-8.149005	4.869507E-005	-0.0002686	9
	2	17	189328.1	300.1745	-51.29776	1	304.5262	-9.69777	-2.842712E-008	0.0004056	10
	3	26	150421.9	305.0822	-51.65077	1	309.4235	-9.60913	7.799832E-005	-0.0029077	9
	4	30	119484.4	311.6335	-60.43132	1	317.4388	-10.97447	5.633138E-006	0.0013982	9
	5	34	94921.88	318.6696	-68.52572	1	325.9542	-12.1359	-8.712345E-006	0.0009337	9
	6	36	75421.88	325.2908	-79.99908	1	334.9835	-13.81661	2.773737E-005	-0.000563	9
	7	39	59859.37	334.0148	-92.01914	1	346.4584	-15.40257	2.835862E-005	-0.0006398	9
	8	41	47578.12	343.3355	-106.8527	1	359.5786	-17.28716	-2.171156E-005	0.0010383	9
	9	44	37828.12	354.8026	-124.4173	1	375.9848	-19.32404	2.283337E-005	-0.0008166	9
	10	46	30046.88	367.909	-144.8681	1	395.4033	-21.49257	5.25768E-006	-0.0005885	9
	11	49	23859.38	384.0948	-164.6728	1	417.9067	-23.20625	1.171813E-005	-0.0043182	8
	12	51	18984.38	401.7253	-193.0164	1	445.6888	-25.66283	-1.116588E-005	0.0027362	8
	13	54	15046.87	424.0454	-226.3777	1	480.6884	-28.09564	1.406232E-005	-0.0028345	8
	14	56	11953.13	449.5478	-261.5338	1	520.0896	-30.1896	-9.774338E-006	0.005385	8
	15	58	9515.62	479.2335	-301.1216	1	565.985	-32.14279	1.043365E-005	-0.0004649	8
	16	60	7546.875	512.4425	-344.8034	1	617.6461	-33.93513	-6.898658E-007	-0.0018828	8
	17	63	5928.309	554.921	-397.7263	1	682.7324	-35.63015	-9.52371E-006	0.0017242	8
	18	65	4733.456	594.377	-454.3102	1	748.1188	-37.39237	1.333595E-005	-0.0027955	8
	19	68	3796.875	635.4401	-512.2228	1	816.184	-38.87199	1.128144E-005	-0.0007529	8
	20	70	2987.132	680.024	-593.4741	1	902.5764	-41.11203	-1.143635E-005	0.0050633	8
	21	73	2390.625	723.1509	-680.5397	1	993.016	-43.26123	-6.836023E-006	0.0003588	8
	22	75	1884.191	766.103	-798.9338	1	1106.892	-46.20175	1.31839E-005	-0.0036175	8
	23	78	1516.544	815.661	-935.6608	1	1241.275	-48.91975	-1.169439E-005	0.0051325	8
	24	81	1193.986	865.6688	-1121.488	1	1416.728	-52.33571	-1.161057E-005	0.005122	8
	25	84	946.5144	921.7345	-1346.217	1	1631.531	-55.60114	-1.190704E-005	0.0035332	8
	26	86	751.7689	1001.189	-1615.465	1	1900.555	-58.21132	-1.21232E-005	0.0036659	8
	27	89	597.4265	1077.515	-1952.772	1	2230.326	-61.11064	-1.123755E-005	0.0026709	8
	28	92	477.4305	1149.225	-2362.751	1	2627.415	-64.06205	6.077348E-008	0.0006664	8
	29	94	376.6741	1255.029	-2894.878	1	3155.22	-66.56161	7.90073E-008	0.000651	8
	30	96	298.2954	1379.277	-3543.059	1	3802.061	-68.72954	5.31075E-008	0.0006644	8
	31	99	237.7717	1530.595	-4326.595	1	4589.352	-70.51804	-6.037928E-009	0.0006281	7
	32	101	189.0121	1707.587	-5293.612	1	5562.21	-72.1216	-4.888105E-009	0.0006262	7
	33	104	150.2404	1922.792	-6482.333	1	6761.491	-73.47857	-7.063645E-009	0.0006407	7
	34	106	119.1737	2185.337	-7959.417	1	8253.97	-74.64719	-6.456476E-009	0.0006433	7
	35	108	95.0169	2500.689	-9732.75	1	10048.88	-75.59038	-3.234329E-009	0.0006171	7
	36	111	75.60484	2887.229	-11927.81	1	12272.27	-76.39279	-6.127991E-009	0.0006214	7
	37	113	54.50582	3588.394	-15967.85	1	16366.09	-77.33455	-4.212102E-009	0.000631	7
	38	116	45.95588	4061.612	-18598.37	1	19036.7	-77.68085	-7.34131E-009	0.0006532	7
	39	118	37.20238	4738.566	-22467.05	1	22961.33	-78.09019	-6.938762E-009	0.0006586	7
	40	121	30.04808	5573.227	-27189.53	1	27754.85	-78.41615	-7.278948E-009	0.0006497	7
	41	123	23.91582	6667.372	-33383.9	1	34043.19	-78.7056	-6.2043E-009	0.0006246	7
	42	126	18.60119	8215.921	-41808.62	1	42608.24	-78.88232	-7.317996E-009	0.0006573	7
	43	128	15.02404	9825.75	-50583.12	1	51528.61	-79.00722	-1.991805E-009	0.0006844	6
	44	130	12.01923	11906.51	-61762.42	1	62899.61	-79.08842	-1.394771E-009	0.0006672	6
	45	133	9.450605	14720.5	-76664.78	1	78065.24	-79.13085	-1.407008E-009	0.0006673	6
	46	135	7.512019	18165.55	-94049.93	1	95788.2	-79.06805	-1.814766E-009	0.0006865	6
	47	138	5.978954	22475.76	-115274.2	1	117444.9	-78.96709	-1.324068E-009	0.0006489	6
	48	143	4.734848	27954.33	-142041.2	1	144765.8	-78.86623	-2.009576E-009	0.0006483	6
	49	146	3.75601	35247.06	-174507.4	1	178031.5	-78.58101	-1.890633E-009	0.0007069	6
	50	151	3.004808	44056.27	-212808.5	1	217320.9	-78.30368	-1.420671E-009	0.000627	6
	51	158	2.372217	56186.54	-262603.7	1	268547.2	-77.92312	-1.841908E-009	0.0006077	6
	52	162	1.878005	71725.29	-322678	1	330553.5	-77.46796	-1.65112E-009	0.0006573	6
	53	167	1.512097	90727.27	-389643.6	1	400067	-76.89242	-1.757304E-009	0.0006159	6
	54	172	1.201923	116649.3	-477177.5	1	491228.5	-76.26306	-1.025916E-009	0.0006984	5
	55	178	0.956633	150755.4	-581590.4	1	600811.6	-75.46807	-1.368028E-009	1.731419E-005	5
