EXPLAIN
TAG	EISPOT
TITLE	LABEL	Potentiostatic EIS	Test Identifier
DATE	LABEL	2/26/2021	Date
TIME	LABEL	19:51:10	Time
NOTES	NOTES	1	Notes...
	
PSTAT	PSTAT	REF3000-16137	Potentiostat
VDC	POTEN	0.00000E+000	T	DC Voltage (V)
FREQINIT	QUANT	3.00000E+005	Initial Freq. (Hz)
FREQFINAL	QUANT	1.00000E+000	Final Freq. (Hz)
PTSPERDEC	QUANT	1.00000E+001	Points/decade
VAC	QUANT	5.00000E+001	AC Voltage (mV rms)
AREA	QUANT	1.00000E+000	Sample Area (cm^2)
SPEED	SELECTOR	2	Optimize for:
ZGUESS	QUANT	1.00000E+003	Estimated Z (ohms)
EOC	QUANT	0	Open Circuit (V)
SEQUENCER	TOGGLE	TRUE	Run as Sequence
PSTATMODEL	IQUANT	5	Pstat Model
PSTATSECTION	LABEL	REF3000-16137	Pstat Section
PSTATSERIALNO	LABEL	16137	Pstat Serial Number
CTRLMODE	IQUANT	1	Control Mode
IESTAB	IQUANT	0	I/E Stability
CASPEED	IQUANT	1	Control Amp Speed
CONVENTION	IQUANT	1	Current Convention
ICHRANGE	IQUANT	2	Ich Range
ICHRANGEMODE	TOGGLE	F	Ich Auto Range
ICHOFFSETENABLE	TOGGLE	T	Ich Offset Enable
ICHOFFSET	QUANT	0	Ich Offset (V)
ICHFILTER	IQUANT	3	Ich Filter
VCHRANGE	IQUANT	2	Vch Range
VCHRANGEMODE	TOGGLE	F	Vch Auto Range
VCHOFFSETENABLE	TOGGLE	T	Vch Offset Enable
VCHOFFSET	QUANT	0	Vch Offset (V)
VCHFILTER	IQUANT	3	Vch Filter
ACHRANGE	IQUANT	2	Ach Range
ACHOFFSETENABLE	TOGGLE	F	Ach Offset Enable
ACHOFFSET	QUANT	0	Ach Offset (V)
ACHFILTER	IQUANT	3	Ach Filter
IERANGELOWERLIMIT	IQUANT	2	I/E Range Lower Limit
IERANGEMODE	TOGGLE	F	I/E AutoRange
IERANGE	IQUANT	11	I/E Range
POSFEEDENABLE	TOGGLE	F	Positive Feedback IR Comp
POSFEEDRESISTANCE	QUANT	0	Positive Feedback Resistance (ohm)
ACHSELECT	IQUANT	0	Ach Select
CABLEID	IQUANT	13	Cable ID
DCCALDATE	LABEL	7/31/2020	DC Calibration Date
ACCALDATE	LABEL	7/31/2020	AC Calibration Date
THERMOSELECT	IQUANT	1	Thermo Select
FRAMEWORKVERSION	QUANT	6.33	Framework Version
INSTRUMENTVERSION	LABEL	3.50	Instrument Version
COMPLIANCEVOLTAGE	IQUANT	0	Compliance Voltage
ZCURVE	TABLE
	Pt	Time	Freq	Zreal	Zimag	Zsig	Zmod	Zphz	Idc	Vdc	IERange
	#	s	Hz	ohm	ohm	V	ohm	°	A	V	#
	0	15	300046.9	248.7107	-4798.102	1	4804.544	-87.03271	2.50176E-005	-0.0005267	9
	1	40	238359.4	395.6543	-5918.717	1	5931.927	-86.17558	2.354709E-005	0.0010106	9
	2	59	189328.1	552.0894	-7563.023	1	7583.147	-85.8249	4.506811E-007	0.0017358	9
	3	74	150421.9	711.4328	-9407.339	1	9434.202	-85.67522	-9.100578E-005	0.0022401	9
	4	81	119484.4	1899.264	-11427.85	1	11584.6	-80.56391	4.219894E-005	-0.0187203	8
	5	90	94921.88	2475.392	-14161.32	1	14376.04	-80.08489	2.606042E-005	-0.0050136	8
	6	98	75421.88	3329.56	-17759.59	1	18069	-79.38148	2.604805E-005	-0.0087606	8
	7	107	59859.37	4985.284	-22064.97	1	22621.14	-77.26855	-9.052789E-007	-0.0050812	8
	8	115	47578.12	10103.76	-27382.73	1	29187.33	-69.74679	-5.35618E-006	0.0265315	7
	9	122	37828.12	9650.21	-31941.06	1	33367.02	-73.18909	-2.153999E-006	0.007714	8
	10	130	30046.88	17647.93	-39745.64	1	43487.53	-66.05774	5.431837E-006	-0.0265983	7
	11	138	23859.38	19129.24	-47245.99	1	50971.67	-67.95766	-2.603557E-005	0.0075523	8
	12	144	18984.38	30654.11	-54503.82	1	62532.71	-60.64567	2.578487E-005	-0.0049125	8
	13	152	15046.87	40257.55	-56528.41	1	69398.35	-54.54286	-2.647858E-005	0.0095929	8
	14	158	11953.13	52962.61	-72410.98	1	89712.8	-53.81763	-2.607082E-005	0.0075667	8
	15	165	9515.62	61279.09	-74704.93	1	96622.7	-50.6386	-2.395916E-005	0.0053521	8
	16	173	7546.875	77526.17	-81748.35	1	112663.7	-46.51849	1.984531E-005	7.43462E-005	9
	17	182	5928.309	107512.5	-102810.2	1	148757.8	-43.7192	-2.64533E-005	0.0095777	8
	18	190	4733.456	90895.65	-88298.52	1	126722.7	-44.16965	1.733853E-005	0.0003874	8
	19	197	3796.875	141524.5	-69267.23	1	157566.3	-26.0788	4.869661E-006	-0.0005489	7
	20	204	2987.132	150945.9	-61152.61	1	162862.9	-22.05431	-9.846614E-007	-0.0133624	7
	21	209	2390.625	170172	-47428.52	1	176657.8	-15.57365	-7.354465E-007	0.017654	6
	22	213	1884.191	178688.7	-41492.71	1	183442.9	-13.07279	-2.153002E-007	0.0223911	6
	23	218	1516.544	184174.6	-37290.82	1	187911.9	-11.44624	-7.333746E-007	0.0175973	6
	24	222	1193.986	188620.6	-35195.04	1	191876	-10.56937	5.93525E-007	-0.0275806	6
	25	226	946.5144	192527.5	-34570.39	1	195606.6	-10.17959	-2.211276E-007	0.0227392	6
	26	229	751.7689	197058.7	-28231.73	1	199070.8	-8.153034	6.101077E-007	-0.0071938	6
	27	232	597.4265	206364.3	-28667.13	1	208345.9	-7.908641	-4.121324E-007	0.0256463	6
	28	234	477.4305	206429.3	-31626.39	1	208837.9	-8.710379	-6.743513E-009	0.0006753	6
	29	236	376.6741	210615.7	-33306.72	1	213233	-8.986325	-7.219407E-009	0.0007175	6
	30	239	298.2954	215391.6	-35339.74	1	218271.4	-9.317619	-6.610941E-009	0.0006588	6
	31	241	237.7717	219903.9	-39625.6	1	223445.6	-10.2148	-7.208706E-009	0.000713	6
	32	244	189.0121	225075.9	-44290.38	1	229392.2	-11.13241	-6.65082E-009	0.0006541	6
	33	246	150.2404	231172.6	-50302.89	1	236582.2	-12.27613	-6.548917E-009	0.0006323	6
	34	249	119.1737	238412.3	-58777.71	1	245550.9	-13.84941	-7.467311E-009	0.0007169	6
	35	252	95.0169	246337	-66838.87	1	255243.7	-15.18063	-6.715017E-009	0.0006322	6
	36	255	75.60484	253939.3	-77622.28	1	265537.9	-16.99695	-7.531173E-009	0.0006959	6
	37	257	54.50582	269243	-98629	1	286739.4	-20.11877	-7.202358E-009	0.0006878	6
	38	260	45.95588	275283.3	-109406.3	1	296227.3	-21.67444	-7.626697E-009	0.0007332	6
	39	262	37.20238	287672	-126894.9	1	314416.1	-23.80273	-6.508071E-009	0.0006578	6
	40	264	30.04808	301214.8	-147910.1	1	335570.8	-26.15313	-6.837564E-009	0.0006461	6
	41	267	23.91582	318622.8	-173218.9	1	362664.2	-28.53065	-6.813278E-009	0.0007015	6
	42	270	18.60119	341182.6	-203689.3	1	397359.8	-30.8376	-8.430268E-010	0.0006211	5
	43	272	15.02404	364292.4	-236745.8	1	434462.3	-33.01897	-2.730009E-010	0.0006238	5
	44	275	12.01923	390472	-274624.8	1	477375.3	-35.11929	-5.551084E-010	0.0006537	5
	45	277	9.450605	421122.8	-320731.4	1	529351.6	-37.29327	-1.157299E-009	0.0006203	5
	46	280	7.512019	455671.1	-372232.8	1	588382	-39.24501	-7.572213E-010	0.0007003	5
	47	283	5.978954	492948.5	-431676.3	1	655242.5	-41.20872	-6.455553E-010	0.0006579	5
	48	287	4.734848	534107.5	-504583.5	1	734762.1	-43.37185	-8.233939E-010	0.000603	5
	49	290	3.75601	577771.1	-591073.9	1	826551.8	-45.65207	-7.951397E-010	0.0007023	5
	50	296	3.004808	625480.6	-694494	1	934637.8	-47.99292	-7.45917E-010	0.0006875	5
	51	302	2.372217	677294.1	-827864.4	1	1069620	-50.71264	-8.280867E-010	0.000609	5
	52	307	1.878005	729383.4	-991054	1	1230524	-53.64815	-7.768638E-010	0.0006736	5
	53	311	1.512097	785344.9	-1177822	1	1415639	-56.30555	-8.111178E-010	0.000569	5
	54	317	1.201923	849568.6	-1428192	1	1661776	-59.25345	-7.465666E-010	0.0006566	5
	55	323	0.956633	924339.7	-1736735	1	1967397	-61.97682	-8.263906E-010	2.457076E-005	5
