EXPLAIN
TAG	EISPOT
TITLE	LABEL	Potentiostatic EIS	Test Identifier
DATE	LABEL	2/26/2021	Date
TIME	LABEL	19:40:58	Time
NOTES	NOTES	1	Notes...
	
PSTAT	PSTAT	REF3000-16137	Potentiostat
VDC	POTEN	0.00000E+000	T	DC Voltage (V)
FREQINIT	QUANT	3.00000E+005	Initial Freq. (Hz)
FREQFINAL	QUANT	1.00000E+000	Final Freq. (Hz)
PTSPERDEC	QUANT	1.00000E+001	Points/decade
VAC	QUANT	5.00000E+001	AC Voltage (mV rms)
AREA	QUANT	1.00000E+000	Sample Area (cm^2)
SPEED	SELECTOR	2	Optimize for:
ZGUESS	QUANT	1.00000E+003	Estimated Z (ohms)
EOC	QUANT	0	Open Circuit (V)
SEQUENCER	TOGGLE	TRUE	Run as Sequence
PSTATMODEL	IQUANT	5	Pstat Model
PSTATSECTION	LABEL	REF3000-16137	Pstat Section
PSTATSERIALNO	LABEL	16137	Pstat Serial Number
CTRLMODE	IQUANT	1	Control Mode
IESTAB	IQUANT	0	I/E Stability
CASPEED	IQUANT	1	Control Amp Speed
CONVENTION	IQUANT	1	Current Convention
ICHRANGE	IQUANT	2	Ich Range
ICHRANGEMODE	TOGGLE	F	Ich Auto Range
ICHOFFSETENABLE	TOGGLE	T	Ich Offset Enable
ICHOFFSET	QUANT	0	Ich Offset (V)
ICHFILTER	IQUANT	3	Ich Filter
VCHRANGE	IQUANT	2	Vch Range
VCHRANGEMODE	TOGGLE	F	Vch Auto Range
VCHOFFSETENABLE	TOGGLE	T	Vch Offset Enable
VCHOFFSET	QUANT	0	Vch Offset (V)
VCHFILTER	IQUANT	3	Vch Filter
ACHRANGE	IQUANT	2	Ach Range
ACHOFFSETENABLE	TOGGLE	F	Ach Offset Enable
ACHOFFSET	QUANT	0	Ach Offset (V)
ACHFILTER	IQUANT	3	Ach Filter
IERANGELOWERLIMIT	IQUANT	2	I/E Range Lower Limit
IERANGEMODE	TOGGLE	F	I/E AutoRange
IERANGE	IQUANT	11	I/E Range
POSFEEDENABLE	TOGGLE	F	Positive Feedback IR Comp
POSFEEDRESISTANCE	QUANT	0	Positive Feedback Resistance (ohm)
ACHSELECT	IQUANT	0	Ach Select
CABLEID	IQUANT	13	Cable ID
DCCALDATE	LABEL	7/31/2020	DC Calibration Date
ACCALDATE	LABEL	7/31/2020	AC Calibration Date
THERMOSELECT	IQUANT	1	Thermo Select
FRAMEWORKVERSION	QUANT	6.33	Framework Version
INSTRUMENTVERSION	LABEL	3.50	Instrument Version
COMPLIANCEVOLTAGE	IQUANT	0	Compliance Voltage
ZCURVE	TABLE
	Pt	Time	Freq	Zreal	Zimag	Zsig	Zmod	Zphz	Idc	Vdc	IERange
	#	s	Hz	ohm	ohm	V	ohm	°	A	V	#
	0	23	300046.9	1735.365	-4098.826	1	4451.052	-67.05312	-6.541071E-005	0.0003131	9
	1	39	238359.4	2410.425	-4743.483	1	5320.788	-63.06237	-9.041277E-005	0.0021338	9
	2	53	189328.1	3429.04	-5008.456	1	6069.839	-55.6025	-2.895281E-005	-0.0010028	9
	3	63	150421.9	3965.272	-5147.8	1	6497.94	-52.39348	2.405958E-005	0.0011448	9
	4	70	119484.4	5873.815	-6239.092	1	8569.013	-46.72729	-5.11418E-006	-0.0144097	8
	5	77	94921.88	7308.856	-6196.342	1	9581.96	-40.29079	-9.431176E-006	-0.0019195	8
	6	86	75421.88	8591.813	-6134.28	1	10556.92	-35.52563	-2.388534E-005	0.0107598	8
	7	95	59859.37	9911.16	-6139.256	1	11658.54	-31.77526	1.989683E-005	3.869249E-006	9
	8	104	47578.12	11342.19	-5231.06	1	12490.36	-24.75933	-2.581827E-005	0.0094502	8
	9	111	37828.12	12423.85	-5154.193	1	13450.57	-22.53174	2.194503E-005	-0.0093412	8
	10	120	30046.88	13144.01	-4469.64	1	13883.18	-18.78068	-2.385139E-005	0.0107681	8
	11	127	23859.38	13884.21	-4079.424	1	14471.11	-16.37371	8.293628E-006	0.0039872	8
	12	134	18984.38	14757	-2889.104	1	15037.16	-11.07718	4.389454E-006	0.0005416	7
	13	138	15046.87	15109.15	-2734.029	1	15354.52	-10.25679	7.409988E-006	-0.0224633	7
	14	142	11953.13	15502.7	-2517.51	1	15705.78	-9.223839	2.324538E-006	0.0091528	7
	15	146	9515.62	15786.31	-2428.859	1	15972.07	-8.746858	7.226451E-006	-0.0168135	7
	16	150	7546.875	16197.23	-2424.194	1	16377.64	-8.512115	5.403481E-006	-0.0257531	7
	17	155	5928.309	16472.97	-2624.467	1	16680.73	-9.052258	5.391548E-006	-0.0257154	7
	18	159	4733.456	16889.68	-2661.267	1	17098.06	-8.954341	2.381892E-006	0.0092555	7
	19	163	3796.875	17326.33	-2834.699	1	17556.69	-9.291638	-3.863327E-006	0.0247019	7
	20	167	2987.132	17574.25	-3147.216	1	17853.83	-10.15297	-2.937943E-006	-0.0059364	7
	21	172	2390.625	18236.5	-3532.854	1	18575.54	-10.96378	7.444394E-006	-0.0228657	7
	22	176	1884.191	18926.62	-3832.906	1	19310.83	-11.44837	6.734655E-006	-0.0256917	7
	23	180	1516.544	19362.17	-4578.938	1	19896.23	-13.30537	-3.825916E-006	0.0247312	7
	24	184	1193.986	19954.43	-5168.537	1	20612.93	-14.52145	-1.945847E-006	0.0216801	7
	25	189	946.5144	20842.6	-5641.882	1	21592.7	-15.14641	-5.330695E-006	0.0257879	7
	26	192	751.7689	21171.15	-7337.948	1	22406.77	-19.11638	-6.3332E-006	0.0108283	7
	27	194	597.4265	22575.3	-8362.458	1	24074.36	-20.3259	-6.438655E-007	-0.0139429	7
	28	197	477.4305	23110.91	-9868.55	1	25129.71	-23.12287	-6.192877E-008	0.0006032	7
	29	200	376.6741	24235.99	-11631.28	1	26882.53	-25.63717	-6.102881E-008	0.0006576	7
	30	202	298.2954	25566.25	-13646.79	1	28980.48	-28.09246	-5.821968E-008	0.0005907	7
	31	205	237.7717	27104.1	-15937.33	1	31442.5	-30.45571	-5.882329E-008	0.0005832	7
	32	207	189.0121	28926.7	-18545.6	1	34361.22	-32.66491	-5.648312E-008	0.0005964	7
	33	210	150.2404	31030.59	-21498.57	1	37750.31	-34.71494	-6.54813E-008	0.000685	7
	34	212	119.1737	33569.22	-24815.74	1	41745.82	-36.47333	-6.518052E-009	0.0006548	6
	35	214	95.0169	36114.83	-28530.54	1	46024.7	-38.30857	-6.997912E-009	0.0006752	6
	36	217	75.60484	38878.83	-32852.67	1	50900.5	-40.19786	-6.93244E-009	0.0006424	6
	37	219	54.50582	42783.68	-40469.41	1	58891.57	-43.4077	-7.162956E-009	0.0007244	6
	38	222	45.95588	45104.45	-45238.73	1	63882.34	-45.08517	-7.148275E-009	0.0007318	6
	39	224	37.20238	47821.54	-52388	1	70932.38	-47.60911	-7.085454E-009	0.0007104	6
	40	227	30.04808	50686.25	-61218.11	1	79478.01	-50.37654	-6.820124E-009	0.0006455	6
	41	230	23.91582	53847.52	-73017.78	1	90725.7	-53.5928	-7.536442E-009	0.0007187	6
	42	232	18.60119	57638.3	-88970.16	1	106008.8	-57.06328	-6.157336E-009	0.000665	6
	43	234	15.02404	61281.03	-106377.5	1	122766.2	-60.055	-7.052401E-009	0.0006752	6
	44	237	12.01923	65613.81	-128619.3	1	144388.7	-62.97207	-6.939372E-009	0.0007306	6
	45	239	9.450605	71108.36	-158392.9	1	173622.4	-65.82295	-6.576468E-009	0.0006394	6
	46	242	7.512019	77386.84	-193755.3	1	208638.1	-68.22798	-6.673082E-009	0.0006348	6
	47	245	5.978954	85160.78	-237320.2	1	252137.3	-70.25981	-7.161707E-009	0.0007177	6
	48	249	4.734848	94570.09	-292340.8	1	307256.7	-72.07399	-6.941972E-009	0.000698	6
	49	253	3.75601	106100	-360005.1	1	375314.3	-73.5788	-6.483047E-009	0.0006247	6
	50	258	3.004808	120234.7	-440740.9	1	456846.8	-74.74093	-7.208908E-010	0.0006613	5
	51	264	2.372217	138102.2	-544842.8	1	562072.9	-75.7767	-7.047776E-010	0.0007091	5
	52	269	1.878005	158709	-674644.5	1	693061.1	-76.76197	-8.494673E-010	0.0006673	5
	53	273	1.512097	180771.5	-820653.6	1	840327.7	-77.57742	-7.281841E-010	0.0005863	5
	54	279	1.201923	212003	-1012503	1	1034460	-78.17397	-8.12161E-010	0.0006747	5
	55	285	0.956633	248209.1	-1245959	1	1270442	-78.73353	-7.974617E-010	2.526695E-005	5
