EXPLAIN
TAG	EISPOT
TITLE	LABEL	Potentiostatic EIS	Test Identifier
DATE	LABEL	2/26/2021	Date
TIME	LABEL	17:54:28	Time
NOTES	NOTES	1	Notes...
	
PSTAT	PSTAT	REF3000-16137	Potentiostat
VDC	POTEN	0.00000E+000	T	DC Voltage (V)
FREQINIT	QUANT	3.00000E+005	Initial Freq. (Hz)
FREQFINAL	QUANT	1.00000E+000	Final Freq. (Hz)
PTSPERDEC	QUANT	1.00000E+001	Points/decade
VAC	QUANT	5.00000E+001	AC Voltage (mV rms)
AREA	QUANT	1.00000E+000	Sample Area (cm^2)
SPEED	SELECTOR	2	Optimize for:
ZGUESS	QUANT	1.00000E+003	Estimated Z (ohms)
EOC	QUANT	0	Open Circuit (V)
SEQUENCER	TOGGLE	TRUE	Run as Sequence
PSTATMODEL	IQUANT	5	Pstat Model
PSTATSECTION	LABEL	REF3000-16137	Pstat Section
PSTATSERIALNO	LABEL	16137	Pstat Serial Number
CTRLMODE	IQUANT	1	Control Mode
IESTAB	IQUANT	0	I/E Stability
CASPEED	IQUANT	1	Control Amp Speed
CONVENTION	IQUANT	1	Current Convention
ICHRANGE	IQUANT	2	Ich Range
ICHRANGEMODE	TOGGLE	F	Ich Auto Range
ICHOFFSETENABLE	TOGGLE	T	Ich Offset Enable
ICHOFFSET	QUANT	0	Ich Offset (V)
ICHFILTER	IQUANT	3	Ich Filter
VCHRANGE	IQUANT	2	Vch Range
VCHRANGEMODE	TOGGLE	F	Vch Auto Range
VCHOFFSETENABLE	TOGGLE	T	Vch Offset Enable
VCHOFFSET	QUANT	0	Vch Offset (V)
VCHFILTER	IQUANT	3	Vch Filter
ACHRANGE	IQUANT	2	Ach Range
ACHOFFSETENABLE	TOGGLE	F	Ach Offset Enable
ACHOFFSET	QUANT	0	Ach Offset (V)
ACHFILTER	IQUANT	0	Ach Filter
IERANGELOWERLIMIT	IQUANT	2	I/E Range Lower Limit
IERANGEMODE	TOGGLE	F	I/E AutoRange
IERANGE	IQUANT	11	I/E Range
POSFEEDENABLE	TOGGLE	F	Positive Feedback IR Comp
POSFEEDRESISTANCE	QUANT	0	Positive Feedback Resistance (ohm)
ACHSELECT	IQUANT	0	Ach Select
CABLEID	IQUANT	13	Cable ID
DCCALDATE	LABEL	7/31/2020	DC Calibration Date
ACCALDATE	LABEL	7/31/2020	AC Calibration Date
THERMOSELECT	IQUANT	1	Thermo Select
FRAMEWORKVERSION	QUANT	6.33	Framework Version
INSTRUMENTVERSION	LABEL	3.50	Instrument Version
COMPLIANCEVOLTAGE	IQUANT	0	Compliance Voltage
ZCURVE	TABLE
	Pt	Time	Freq	Zreal	Zimag	Zsig	Zmod	Zphz	Idc	Vdc	IERange
	#	s	Hz	ohm	ohm	V	ohm	°	A	V	#
	0	7	300046.9	29.33447	-8.133593	1	30.44119	-15.49714	-0.0001248	-0.0005175	11
	1	11	238359.4	30.72395	-9.61037	1	32.19193	-17.36954	-0.0001004	0.0004875	10
	2	15	189328.1	32.16489	-11.5084	1	34.16173	-19.68689	-2.288387E-005	0.0005129	10
	3	17	150421.9	33.85897	-13.51674	1	36.45726	-21.76223	6.869418E-005	0.0005223	10
	4	20	119484.4	35.95881	-15.15574	1	39.0222	-22.85421	-5.684362E-008	-0.0003457	9
	5	22	94921.88	38.14436	-17.12525	1	41.81227	-24.17813	1.71252E-005	-0.0004464	9
	6	25	75421.88	40.46679	-19.31271	1	44.83907	-25.51273	6.942247E-006	0.0001438	9
	7	27	59859.37	42.99732	-21.67353	1	48.15092	-26.75116	-1.059862E-006	0.0003135	9
	8	30	47578.12	45.55062	-24.11967	1	51.54239	-27.90182	-1.123356E-005	0.0005703	9
	9	32	37828.12	48.23869	-26.90338	1	55.23372	-29.14901	-1.097973E-005	0.0002984	9
	10	35	30046.88	50.99451	-30.15458	1	59.24305	-30.5971	-8.505987E-006	0.0005717	9
	11	37	23859.38	53.83199	-33.97839	1	63.65857	-32.25985	-8.244562E-006	0.0005692	9
	12	40	18984.38	56.70083	-38.65493	1	68.62352	-34.28362	1.447765E-005	-0.0003847	9
	13	42	15046.87	59.80381	-44.29974	1	74.42421	-36.52924	-1.321775E-005	0.0005033	9
	14	44	11953.13	63.02538	-51.40711	1	81.33197	-39.20266	1.45728E-005	-0.0001842	9
	15	46	9515.62	66.4246	-60.0042	1	89.51385	-42.09286	-5.515643E-006	0.0004383	9
	16	49	7546.875	70.14851	-70.69672	1	99.5934	-45.22301	-5.712584E-006	0.0004464	9
	17	51	5928.309	74.64918	-84.29757	1	112.5992	-48.47371	-3.806096E-006	1.785737E-005	9
	18	53	4733.456	79.25906	-100.206	1	127.7625	-51.65738	-1.201512E-005	0.0003912	9
	19	56	3796.875	84.32791	-119.1697	1	145.9884	-54.71568	1.94667E-005	-0.0003071	9
	20	58	2987.132	90.88672	-144.6212	1	170.8089	-57.85283	1.443016E-005	-0.0004066	9
	21	60	2390.625	97.6989	-173.8946	1	199.4603	-60.6715	1.481848E-005	-0.0001982	9
	22	62	1884.191	106.42	-212.0508	1	237.2567	-63.34972	4.842732E-006	0.0001865	9
	23	65	1516.544	116.0235	-254.5216	1	279.719	-65.49416	7.291044E-008	0.0003376	9
	24	67	1193.986	128.7926	-311.4554	1	337.0341	-67.53398	-1.343705E-005	0.0004686	9
	25	70	946.5144	146.2958	-379.066	1	406.317	-68.89652	-1.287788E-005	0.0004847	9
	26	72	751.7689	161.3989	-462.7401	1	490.0795	-70.77177	2.728481E-006	-0.0001169	8
	27	74	597.4265	183.5774	-564.9606	1	594.038	-71.99903	3.309696E-006	-7.453431E-005	8
	28	76	477.4305	210.4036	-686.4641	1	717.9852	-72.95952	2.826213E-007	0.0006674	8
	29	79	376.6741	246.0433	-844.204	1	879.328	-73.75124	2.930462E-007	0.0006726	8
	30	81	298.2954	290.3516	-1034.933	1	1074.891	-74.32848	2.977173E-007	0.0006656	8
	31	83	237.7717	344.9633	-1261.149	1	1307.477	-74.70203	2.987929E-007	0.0006623	8
	32	86	189.0121	415.3387	-1540.039	1	1595.063	-74.90678	2.992643E-007	0.0006639	8
	33	88	150.2404	504.968	-1879.033	1	1945.702	-74.95782	3.135985E-007	0.0006626	8
	34	91	119.1737	622.2272	-2294.848	1	2377.708	-74.82951	3.185099E-007	0.0006607	8
	35	93	95.0169	769.4891	-2786.47	1	2890.766	-74.5624	3.215912E-007	0.0006643	8
	36	95	75.60484	939.571	-3390.739	1	3518.508	-74.51199	3.283045E-007	0.0006562	8
	37	98	54.50582	1309.985	-4460.98	1	4649.345	-73.63491	3.194929E-007	0.0006584	8
	38	101	45.95588	1563.543	-5151.653	1	5383.697	-73.11679	-1.831379E-007	0.0006429	7
	39	103	37.20238	1952.831	-6126.826	1	6430.517	-72.32112	-1.775645E-007	0.0006426	7
	40	105	30.04808	2441.144	-7269.052	1	7668.005	-71.43655	-1.8344E-007	0.000631	7
	41	108	23.91582	3091.56	-8739.767	1	9270.451	-70.51954	-1.846903E-007	0.0006389	7
	42	110	18.60119	4038.671	-10599.98	1	11343.3	-69.14279	-1.815283E-007	0.0006482	7
	43	112	15.02404	5073.702	-12447.86	1	13442.16	-67.82438	-1.59879E-007	0.0006485	7
	44	115	12.01923	6419.918	-14611.65	1	15959.81	-66.28075	-1.697713E-007	0.0006412	7
	45	117	9.450605	8226.129	-17240.4	1	19102.37	-64.4922	-1.791835E-007	0.0006295	7
	46	119	7.512019	10350.03	-19994.89	1	22514.86	-62.6324	-1.695526E-007	0.000637	7
	47	122	5.978954	12836.48	-22848.92	1	26207.79	-60.6728	-1.770744E-007	0.0006438	7
	48	125	4.734848	15768.68	-26148.83	1	30535.43	-58.90852	-1.7291E-007	0.000668	7
	49	128	3.75601	19038.51	-29715.39	1	35291.21	-57.3525	-1.833006E-007	0.0006229	7
	50	132	3.004808	22576.71	-33628.08	1	40503.77	-56.12398	-1.757007E-007	0.0006093	7
	51	136	2.372217	26882.95	-38582.17	1	47024.21	-55.13232	-2.342387E-007	0.0007007	6
	52	140	1.878005	31718.56	-43898.22	1	54158.3	-54.15009	-2.35093E-007	0.0007209	6
	53	149	1.512097	36706.61	-49761.14	1	61834.83	-53.58543	-2.318976E-007	0.0005986	6
	54	159	1.201923	42896.36	-57061.14	1	71386.77	-53.06557	-2.315526E-007	0.0007261	6
	55	172	0.956633	50697.11	-65778.39	1	83048.14	-52.37762	-2.333758E-007	6.865813E-005	6
