EXPLAIN
TAG	EISPOT
TITLE	LABEL	Potentiostatic EIS	Test Identifier
DATE	LABEL	2/26/2021	Date
TIME	LABEL	19:23:13	Time
NOTES	NOTES	1	Notes...
	
PSTAT	PSTAT	REF3000-16137	Potentiostat
VDC	POTEN	0.00000E+000	T	DC Voltage (V)
FREQINIT	QUANT	3.00000E+005	Initial Freq. (Hz)
FREQFINAL	QUANT	1.00000E+000	Final Freq. (Hz)
PTSPERDEC	QUANT	1.00000E+001	Points/decade
VAC	QUANT	5.00000E+001	AC Voltage (mV rms)
AREA	QUANT	1.00000E+000	Sample Area (cm^2)
SPEED	SELECTOR	2	Optimize for:
ZGUESS	QUANT	1.00000E+003	Estimated Z (ohms)
EOC	QUANT	0	Open Circuit (V)
SEQUENCER	TOGGLE	TRUE	Run as Sequence
PSTATMODEL	IQUANT	5	Pstat Model
PSTATSECTION	LABEL	REF3000-16137	Pstat Section
PSTATSERIALNO	LABEL	16137	Pstat Serial Number
CTRLMODE	IQUANT	1	Control Mode
IESTAB	IQUANT	0	I/E Stability
CASPEED	IQUANT	1	Control Amp Speed
CONVENTION	IQUANT	1	Current Convention
ICHRANGE	IQUANT	2	Ich Range
ICHRANGEMODE	TOGGLE	F	Ich Auto Range
ICHOFFSETENABLE	TOGGLE	T	Ich Offset Enable
ICHOFFSET	QUANT	0	Ich Offset (V)
ICHFILTER	IQUANT	3	Ich Filter
VCHRANGE	IQUANT	2	Vch Range
VCHRANGEMODE	TOGGLE	F	Vch Auto Range
VCHOFFSETENABLE	TOGGLE	T	Vch Offset Enable
VCHOFFSET	QUANT	0	Vch Offset (V)
VCHFILTER	IQUANT	3	Vch Filter
ACHRANGE	IQUANT	2	Ach Range
ACHOFFSETENABLE	TOGGLE	F	Ach Offset Enable
ACHOFFSET	QUANT	0	Ach Offset (V)
ACHFILTER	IQUANT	3	Ach Filter
IERANGELOWERLIMIT	IQUANT	2	I/E Range Lower Limit
IERANGEMODE	TOGGLE	F	I/E AutoRange
IERANGE	IQUANT	11	I/E Range
POSFEEDENABLE	TOGGLE	F	Positive Feedback IR Comp
POSFEEDRESISTANCE	QUANT	0	Positive Feedback Resistance (ohm)
ACHSELECT	IQUANT	0	Ach Select
CABLEID	IQUANT	13	Cable ID
DCCALDATE	LABEL	7/31/2020	DC Calibration Date
ACCALDATE	LABEL	7/31/2020	AC Calibration Date
THERMOSELECT	IQUANT	1	Thermo Select
FRAMEWORKVERSION	QUANT	6.33	Framework Version
INSTRUMENTVERSION	LABEL	3.50	Instrument Version
COMPLIANCEVOLTAGE	IQUANT	0	Compliance Voltage
ZCURVE	TABLE
	Pt	Time	Freq	Zreal	Zimag	Zsig	Zmod	Zphz	Idc	Vdc	IERange
	#	s	Hz	ohm	ohm	V	ohm	°	A	V	#
	0	14	300046.9	934.3524	-212.6576	1	958.247	-12.82204	2.625273E-005	0.0008869	9
	1	27	238359.4	968.206	-196.8611	1	988.016	-11.49303	1.756294E-005	-0.0010101	9
	2	40	189328.1	1001.244	-175.4635	1	1016.502	-9.93989	1.770379E-005	-0.0008821	9
	3	46	150421.9	1020.479	-178.2578	1	1035.931	-9.90848	-1.905528E-005	0.0012262	9
	4	53	119484.4	1043.873	-137.6665	1	1052.911	-7.512844	7.177201E-006	0.0099731	8
	5	59	94921.88	1062.72	-138.9384	1	1071.764	-7.448514	4.640854E-006	-0.0051994	8
	6	63	75421.88	1077.117	-152.8903	1	1087.914	-8.078823	1.632312E-005	-0.0071099	8
	7	67	59859.37	1096.319	-165.3861	1	1108.724	-8.578714	-1.904532E-005	0.0073573	8
	8	69	47578.12	1109.827	-183.8831	1	1124.957	-9.407662	1.94217E-005	-0.006779	8
	9	73	37828.12	1134.923	-211.1279	1	1154.394	-10.53818	-1.975665E-005	0.0063411	8
	10	76	30046.88	1159.751	-239.7044	1	1184.264	-11.6778	5.045908E-006	-0.0053334	8
	11	80	23859.38	1186.45	-275.1926	1	1217.946	-13.05863	-8.723359E-006	-0.0008274	8
	12	83	18984.38	1217.979	-316.3123	1	1258.382	-14.55826	1.469483E-005	-0.0002409	8
	13	85	15046.87	1253.52	-373.0365	1	1307.848	-16.57255	-7.808745E-006	0.0076293	8
	14	88	11953.13	1292.38	-427.2343	1	1361.167	-18.29283	-1.85606E-005	0.0046547	8
	15	91	9515.62	1337.62	-498.9197	1	1427.637	-20.45505	5.150438E-006	-0.0054572	8
	16	94	7546.875	1396.685	-587.3586	1	1515.163	-22.80858	-1.378115E-005	0.0085093	8
	17	98	5928.309	1465.777	-690.3975	1	1620.232	-25.22096	2.109632E-005	-0.0057761	8
	18	102	4733.456	1548.33	-800.5781	1	1743.058	-27.34164	1.469456E-005	-0.0001497	8
	19	106	3796.875	1635.958	-930.0012	1	1881.824	-29.61714	-1.985678E-005	0.0076505	8
	20	110	2987.132	1752.952	-1084.132	1	2061.112	-31.73517	5.102203E-006	-0.005426	8
	21	114	2390.625	1874.232	-1233.393	1	2243.659	-33.34809	-1.357595E-005	0.0083794	8
	22	118	1884.191	2015.051	-1421.541	1	2466.011	-35.20149	-1.378701E-005	0.008612	8
	23	122	1516.544	2164.18	-1642.598	1	2716.948	-37.19825	1.169679E-005	-0.0067915	8
	24	128	1193.986	2362.406	-1887.242	1	3023.68	-38.62011	-2.023907E-005	0.0063731	8
	25	133	946.5144	2545.665	-2197.023	1	3362.635	-40.79567	1.196801E-005	-0.0068487	8
	26	137	751.7689	2710.208	-2518.236	1	3699.559	-42.89722	-7.901696E-006	0.007818	8
	27	141	597.4265	2855.371	-2935.013	1	4094.807	-45.78801	-8.534813E-006	-0.0009371	8
	28	144	477.4305	3050.791	-3422.295	1	4584.695	-48.28473	-1.310113E-007	0.0006634	8
	29	147	376.6741	3252.437	-4087.261	1	5223.414	-51.48899	-3.305105E-008	0.0005993	7
	30	149	298.2954	3456.088	-4904.588	1	5999.961	-54.82901	-3.731695E-008	0.0006605	7
	31	151	237.7717	3678.499	-5896.558	1	6949.874	-58.0425	-3.129909E-008	0.0006312	7
	32	154	189.0121	3935.212	-7141.251	1	8153.733	-61.14288	-3.753577E-008	0.0006662	7
	33	156	150.2404	4235.797	-8683.011	1	9661.09	-63.99569	-3.189325E-008	0.0006202	7
	34	159	119.1737	4590.021	-10611.63	1	11561.79	-66.60929	-3.407551E-008	0.000615	7
	35	161	95.0169	5007.102	-12935.15	1	13870.44	-68.83894	-3.618914E-008	0.0006232	7
	36	164	75.60484	5508.768	-15818.73	1	16750.49	-70.79967	-3.92558E-008	0.000654	7
	37	166	54.50582	6393.742	-21163.99	1	22108.69	-73.19019	-3.208227E-008	0.0006122	7
	38	169	45.95588	6983.043	-24633.85	1	25604.48	-74.17338	-3.216725E-008	0.0006062	7
	39	171	37.20238	7816.361	-29767.58	1	30776.68	-75.28742	-3.842874E-008	0.0006002	7
	40	173	30.04808	8827.584	-36059.3	1	37124.11	-76.24411	-3.509971E-008	0.0006086	7
	41	176	23.91582	10171.17	-44241.86	1	45395.98	-77.05273	-4.151701E-009	0.0007054	6
	42	178	18.60119	11914.61	-55479.14	1	56744.11	-77.87935	-4.311234E-009	0.0006463	6
	43	180	15.02404	13772.46	-67370.91	1	68764.23	-78.44637	-4.393743E-009	0.000695	6
	44	183	12.01923	16123.36	-82433.41	1	83995.42	-78.93309	-4.143221E-009	0.0006385	6
	45	185	9.450605	19167.61	-102435	1	104212.9	-79.4014	-5.165115E-009	0.0006821	6
	46	188	7.512019	22913.07	-126267.3	1	128329.4	-79.71475	-4.165956E-009	0.0007036	6
	47	191	5.978954	27491.9	-155307.8	1	157722.3	-79.96174	-4.234123E-009	0.0006671	6
	48	195	4.734848	33345.98	-192256.4	1	195126.8	-80.16021	-4.57611E-009	0.0007212	6
	49	198	3.75601	40389.75	-237196.9	1	240611.1	-80.3364	-4.602306E-009	0.0006876	6
	50	204	3.004808	49095.38	-290720.3	1	294836.6	-80.41461	-3.761265E-009	0.0006936	6
	51	210	2.372217	60422.52	-360932.2	1	365954.9	-80.49642	-4.351679E-009	0.0007509	6
	52	215	1.878005	75134.9	-446436.1	1	452714.5	-80.44669	-6.380289E-010	0.0006334	5
	53	219	1.512097	92350.05	-543107	1	550902.7	-80.34972	-5.183211E-010	0.000736	5
	54	225	1.201923	113991.3	-670921.3	1	680536.1	-80.35738	-5.958289E-010	0.0006265	5
	55	231	0.956633	141944.6	-826576.9	1	838676.1	-80.25587	-7.130817E-010	2.115481E-005	5
