EXPLAIN
TAG	EISPOT
TITLE	LABEL	Potentiostatic EIS	Test Identifier
DATE	LABEL	2/26/2021	Date
TIME	LABEL	18:17:06	Time
NOTES	NOTES	1	Notes...
	
PSTAT	PSTAT	REF3000-16137	Potentiostat
VDC	POTEN	0.00000E+000	T	DC Voltage (V)
FREQINIT	QUANT	3.00000E+005	Initial Freq. (Hz)
FREQFINAL	QUANT	1.00000E+000	Final Freq. (Hz)
PTSPERDEC	QUANT	1.00000E+001	Points/decade
VAC	QUANT	5.00000E+001	AC Voltage (mV rms)
AREA	QUANT	1.00000E+000	Sample Area (cm^2)
SPEED	SELECTOR	2	Optimize for:
ZGUESS	QUANT	1.00000E+003	Estimated Z (ohms)
EOC	QUANT	0	Open Circuit (V)
SEQUENCER	TOGGLE	TRUE	Run as Sequence
PSTATMODEL	IQUANT	5	Pstat Model
PSTATSECTION	LABEL	REF3000-16137	Pstat Section
PSTATSERIALNO	LABEL	16137	Pstat Serial Number
CTRLMODE	IQUANT	1	Control Mode
IESTAB	IQUANT	0	I/E Stability
CASPEED	IQUANT	1	Control Amp Speed
CONVENTION	IQUANT	1	Current Convention
ICHRANGE	IQUANT	2	Ich Range
ICHRANGEMODE	TOGGLE	F	Ich Auto Range
ICHOFFSETENABLE	TOGGLE	T	Ich Offset Enable
ICHOFFSET	QUANT	0	Ich Offset (V)
ICHFILTER	IQUANT	3	Ich Filter
VCHRANGE	IQUANT	2	Vch Range
VCHRANGEMODE	TOGGLE	F	Vch Auto Range
VCHOFFSETENABLE	TOGGLE	T	Vch Offset Enable
VCHOFFSET	QUANT	0	Vch Offset (V)
VCHFILTER	IQUANT	3	Vch Filter
ACHRANGE	IQUANT	2	Ach Range
ACHOFFSETENABLE	TOGGLE	F	Ach Offset Enable
ACHOFFSET	QUANT	0	Ach Offset (V)
ACHFILTER	IQUANT	3	Ach Filter
IERANGELOWERLIMIT	IQUANT	2	I/E Range Lower Limit
IERANGEMODE	TOGGLE	F	I/E AutoRange
IERANGE	IQUANT	11	I/E Range
POSFEEDENABLE	TOGGLE	F	Positive Feedback IR Comp
POSFEEDRESISTANCE	QUANT	0	Positive Feedback Resistance (ohm)
ACHSELECT	IQUANT	0	Ach Select
CABLEID	IQUANT	13	Cable ID
DCCALDATE	LABEL	7/31/2020	DC Calibration Date
ACCALDATE	LABEL	7/31/2020	AC Calibration Date
THERMOSELECT	IQUANT	1	Thermo Select
FRAMEWORKVERSION	QUANT	6.33	Framework Version
INSTRUMENTVERSION	LABEL	3.50	Instrument Version
COMPLIANCEVOLTAGE	IQUANT	0	Compliance Voltage
ZCURVE	TABLE
	Pt	Time	Freq	Zreal	Zimag	Zsig	Zmod	Zphz	Idc	Vdc	IERange
	#	s	Hz	ohm	ohm	V	ohm	°	A	V	#
	0	7	300046.9	40.27959	-9.72307	1	41.4365	-13.57099	3.248323E-005	-0.0007019	9
	1	10	238359.4	41.74724	-12.20452	1	43.49462	-16.29591	-4.113121E-005	0.0005209	9
	2	13	189328.1	43.44147	-14.96461	1	45.94672	-19.00768	5.031026E-005	-0.001629	9
	3	16	150421.9	45.44573	-17.90236	1	48.84474	-21.50088	4.94257E-005	-0.0015058	9
	4	18	119484.4	47.74462	-21.07173	1	52.1878	-23.8139	-1.6308E-006	0.0006228	9
	5	21	94921.88	50.67785	-24.26764	1	56.18864	-25.58794	-7.031009E-006	0.0005354	9
	6	24	75421.88	53.81705	-27.8875	1	60.61343	-27.39278	5.016782E-006	0.0001795	9
	7	26	59859.37	57.34659	-31.72776	1	65.5384	-28.95415	1.323701E-005	6.200876E-005	9
	8	29	47578.12	61.28566	-35.96326	1	71.05834	-30.40499	-1.230334E-005	0.0002484	9
	9	31	37828.12	65.58067	-40.46872	1	77.06194	-31.67803	2.228884E-006	-0.0002269	9
	10	34	30046.88	70.14359	-45.40675	1	83.55773	-32.9166	-1.138282E-005	0.000717	9
	11	36	23859.38	74.90244	-51.27714	1	90.77291	-34.39499	-6.65821E-006	0.0005395	9
	12	39	18984.38	79.68512	-57.87461	1	98.4845	-35.99058	2.07952E-006	-0.000229	9
	13	41	15046.87	84.73862	-65.89095	1	107.3418	-37.86788	1.303222E-005	8.272324E-005	9
	14	43	11953.13	90.01888	-75.79005	1	117.6755	-40.0952	1.316573E-005	-0.00046	9
	15	45	9515.62	95.5883	-87.88285	1	129.8481	-42.59508	1.631539E-005	-0.0001927	9
	16	48	7546.875	101.8893	-102.5565	1	144.5658	-45.18697	1.83196E-006	-0.0002166	9
	17	50	5928.309	108.696	-121.9476	1	163.3586	-48.28831	1.245157E-005	-0.0004541	9
	18	52	4733.456	115.9571	-144.2148	1	185.0512	-51.19867	5.467446E-006	0.0002477	9
	19	55	3796.875	124.1474	-170.8444	1	211.188	-53.99525	-9.943489E-006	0.0001528	9
	20	57	2987.132	134.4206	-205.8012	1	245.8109	-56.84913	1.916125E-005	-0.0002798	9
	21	59	2390.625	146.2297	-244.8247	1	285.1706	-59.15083	-1.304878E-005	0.0003121	9
	22	62	1884.191	160.4401	-297.6707	1	338.1551	-61.67599	1.421019E-006	-0.0002213	9
	23	64	1516.544	173.3828	-356.4688	1	396.3983	-64.06218	5.183757E-006	0.0002559	9
	24	67	1193.986	191.9272	-432.2827	1	472.974	-66.05948	-1.741794E-006	0.0016223	8
	25	69	946.5144	213.557	-524.6884	1	566.4844	-67.85285	3.221938E-006	0.0001448	8
	26	71	751.7689	238.9262	-637.8014	1	681.0847	-69.46359	3.869091E-006	-0.0004121	8
	27	74	597.4265	268.4057	-775.3334	1	820.4776	-70.90512	7.676433E-007	0.0001298	8
	28	76	477.4305	302.4071	-939.8585	1	987.312	-72.164	4.166389E-007	0.0006723	8
	29	78	376.6741	345.8719	-1153.232	1	1203.982	-73.30521	4.210233E-007	0.0006673	8
	30	81	298.2954	397.4393	-1412.378	1	1467.232	-74.28355	4.181849E-007	0.0006688	8
	31	83	237.7717	457.8671	-1721.542	1	1781.389	-75.10621	4.128626E-007	0.0006673	8
	32	85	189.0121	532.3348	-2105.234	1	2171.495	-75.8095	4.269388E-007	0.0006733	8
	33	88	150.2404	623.3968	-2576.321	1	2650.67	-76.39749	4.210376E-007	0.0006681	8
	34	90	119.1737	736.8768	-3161.771	1	3246.503	-76.88093	4.25421E-007	0.0006659	8
	35	93	95.0169	874.5861	-3862.524	1	3960.302	-77.24173	4.268315E-007	0.0006645	8
	36	95	75.60484	1050.112	-4739.195	1	4854.143	-77.50625	-2.738428E-008	0.0006256	7
	37	98	54.50582	1378.861	-6331.338	1	6479.745	-77.71377	-3.044475E-008	0.0006376	7
	38	100	45.95588	1599.813	-7370.521	1	7542.146	-77.75359	-2.044197E-008	0.0006073	7
	39	103	37.20238	1933.634	-8881.131	1	9089.192	-77.71703	-2.598941E-008	0.0006355	7
	40	105	30.04808	2367.147	-10729.85	1	10987.86	-77.55907	-2.687731E-008	0.0006352	7
	41	107	23.91582	2954.408	-13126.94	1	13455.3	-77.31609	-2.866867E-008	0.0006295	7
	42	110	18.60119	3806.38	-16355.46	1	16792.55	-76.89886	-3.135469E-008	0.0006413	7
	43	112	15.02404	4757.82	-19682.19	1	20249.08	-76.41045	-2.65264E-008	0.0006463	7
	44	114	12.01923	6080.652	-23887.19	1	24648.98	-75.71828	-2.099885E-008	0.000649	7
	45	117	9.450605	7962.338	-29342.11	1	30403.26	-74.81771	-2.408261E-008	0.0006416	7
	46	119	7.512019	10330.96	-35552.31	1	37022.91	-73.79694	-1.974249E-008	0.0006381	7
	47	122	5.978954	13478.25	-42859.41	1	44928.75	-72.54289	-7.029312E-008	0.0006946	6
	48	125	4.734848	17751.75	-51664.03	1	54628.72	-71.03728	-7.105359E-008	0.0007018	6
	49	129	3.75601	23273.43	-61691.2	1	65935.24	-69.33067	-7.347839E-008	0.0006862	6
	50	134	3.004808	30080.78	-72629.36	1	78612.2	-67.50221	-7.369598E-008	0.000725	6
	51	141	2.372217	39285.7	-85468.36	1	94064.91	-65.31403	-7.366611E-008	0.0007619	6
	52	145	1.878005	50314.28	-99511.1	1	111507.8	-63.17817	-7.460137E-008	0.0006841	6
	53	150	1.512097	62268.75	-113260.1	1	129248.8	-61.19864	-7.314701E-008	0.0006594	6
	54	155	1.201923	77113.66	-128967.4	1	150263.5	-59.12347	-7.258775E-008	0.0006745	6
	55	161	0.956633	93357.54	-145821.4	1	173146	-57.37189	-7.257493E-008	4.946278E-005	6
