EXPLAIN
TAG	EISPOT
TITLE	LABEL	Potentiostatic EIS	Test Identifier
DATE	LABEL	2/26/2021	Date
TIME	LABEL	18:06:01	Time
NOTES	NOTES	1	Notes...
	
PSTAT	PSTAT	REF3000-16137	Potentiostat
VDC	POTEN	0.00000E+000	T	DC Voltage (V)
FREQINIT	QUANT	3.00000E+005	Initial Freq. (Hz)
FREQFINAL	QUANT	1.00000E+000	Final Freq. (Hz)
PTSPERDEC	QUANT	1.00000E+001	Points/decade
VAC	QUANT	5.00000E+001	AC Voltage (mV rms)
AREA	QUANT	1.00000E+000	Sample Area (cm^2)
SPEED	SELECTOR	2	Optimize for:
ZGUESS	QUANT	1.00000E+003	Estimated Z (ohms)
EOC	QUANT	0	Open Circuit (V)
SEQUENCER	TOGGLE	TRUE	Run as Sequence
PSTATMODEL	IQUANT	5	Pstat Model
PSTATSECTION	LABEL	REF3000-16137	Pstat Section
PSTATSERIALNO	LABEL	16137	Pstat Serial Number
CTRLMODE	IQUANT	1	Control Mode
IESTAB	IQUANT	0	I/E Stability
CASPEED	IQUANT	1	Control Amp Speed
CONVENTION	IQUANT	1	Current Convention
ICHRANGE	IQUANT	2	Ich Range
ICHRANGEMODE	TOGGLE	F	Ich Auto Range
ICHOFFSETENABLE	TOGGLE	T	Ich Offset Enable
ICHOFFSET	QUANT	0	Ich Offset (V)
ICHFILTER	IQUANT	3	Ich Filter
VCHRANGE	IQUANT	2	Vch Range
VCHRANGEMODE	TOGGLE	F	Vch Auto Range
VCHOFFSETENABLE	TOGGLE	T	Vch Offset Enable
VCHOFFSET	QUANT	0	Vch Offset (V)
VCHFILTER	IQUANT	3	Vch Filter
ACHRANGE	IQUANT	2	Ach Range
ACHOFFSETENABLE	TOGGLE	F	Ach Offset Enable
ACHOFFSET	QUANT	0	Ach Offset (V)
ACHFILTER	IQUANT	3	Ach Filter
IERANGELOWERLIMIT	IQUANT	2	I/E Range Lower Limit
IERANGEMODE	TOGGLE	F	I/E AutoRange
IERANGE	IQUANT	11	I/E Range
POSFEEDENABLE	TOGGLE	F	Positive Feedback IR Comp
POSFEEDRESISTANCE	QUANT	0	Positive Feedback Resistance (ohm)
ACHSELECT	IQUANT	0	Ach Select
CABLEID	IQUANT	13	Cable ID
DCCALDATE	LABEL	7/31/2020	DC Calibration Date
ACCALDATE	LABEL	7/31/2020	AC Calibration Date
THERMOSELECT	IQUANT	1	Thermo Select
FRAMEWORKVERSION	QUANT	6.33	Framework Version
INSTRUMENTVERSION	LABEL	3.50	Instrument Version
COMPLIANCEVOLTAGE	IQUANT	0	Compliance Voltage
ZCURVE	TABLE
	Pt	Time	Freq	Zreal	Zimag	Zsig	Zmod	Zphz	Idc	Vdc	IERange
	#	s	Hz	ohm	ohm	V	ohm	°	A	V	#
	0	6	300046.9	33.245	-9.50064	1	34.57589	-15.9487	-6.165662E-005	6.148764E-005	11
	1	11	238359.4	34.73756	-11.16557	1	36.48792	-17.81877	-2.706956E-005	0.0003701	10
	2	14	189328.1	36.49182	-12.89438	1	38.70294	-19.46085	2.844758E-005	-0.0001888	9
	3	16	150421.9	38.28843	-15.31605	1	41.23816	-21.80229	2.468421E-006	-0.0007039	9
	4	19	119484.4	40.43045	-17.97053	1	44.24434	-23.96419	-5.051099E-005	0.0018741	9
	5	22	94921.88	43.01861	-20.47862	1	47.64425	-25.45637	7.044672E-006	-0.0003396	9
	6	24	75421.88	45.82774	-23.29004	1	51.4063	-26.94006	7.059872E-006	-0.0003404	9
	7	27	59859.37	48.81854	-26.31205	1	55.45786	-28.32363	1.841974E-005	-0.0003321	9
	8	29	47578.12	52.11006	-29.52078	1	59.89103	-29.53191	1.10953E-005	-0.0003932	9
	9	32	37828.12	55.55289	-33.07479	1	64.65343	-30.7685	1.559182E-005	-0.0001992	9
	10	34	30046.88	59.11858	-37.07285	1	69.78111	-32.09154	4.351915E-006	0.0001875	9
	11	37	23859.38	62.81596	-41.60134	1	75.34267	-33.51545	7.525637E-006	-0.0003527	9
	12	39	18984.38	66.49327	-47.10677	1	81.48867	-35.31544	1.219338E-005	-0.0004067	9
	13	41	15046.87	70.41488	-54.12413	1	88.81259	-37.54755	-8.513369E-006	0.0004668	9
	14	44	11953.13	74.45752	-62.35725	1	97.1203	-39.94576	-1.736851E-005	0.0005461	9
	15	46	9515.62	78.88409	-72.12251	1	106.8848	-42.43619	-8.377914E-006	0.0001413	9
	16	48	7546.875	83.7699	-84.83801	1	119.2262	-45.36296	-4.561738E-006	3.163016E-005	9
	17	50	5928.309	89.19189	-101.3831	1	135.0323	-48.66026	-4.012948E-007	0.0003937	9
	18	53	4733.456	95.0919	-120.1426	1	153.2211	-51.63869	1.813275E-005	-0.0002693	9
	19	55	3796.875	101.2393	-142.5545	1	174.8461	-54.61841	1.06132E-006	-0.0001587	9
	20	57	2987.132	109.539	-171.9794	1	203.9012	-57.50568	-1.37581E-005	0.0005563	9
	21	60	2390.625	118.8288	-205.6414	1	237.5051	-59.97875	1.115948E-005	-0.0004028	9
	22	62	1884.191	128.9506	-250.7255	1	281.9424	-62.7828	-1.358772E-005	0.0005509	9
	23	64	1516.544	140.143	-300.2822	1	331.3751	-64.98134	1.830942E-005	-0.000368	9
	24	67	1193.986	154.8949	-367.355	1	398.6754	-67.13732	-9.842034E-006	0.0005875	9
	25	69	946.5144	171.9624	-445.2887	1	477.3396	-68.88435	3.014558E-006	-0.000233	8
	26	71	751.7689	190.9245	-543.2547	1	575.8279	-70.6362	-1.541057E-006	0.0014734	8
	27	74	597.4265	215.1012	-663.482	1	697.4789	-72.03728	-2.974609E-008	0.0011788	8
	28	76	477.4305	243.7215	-805.7286	1	841.7831	-73.17017	3.83039E-007	0.0006659	8
	29	78	376.6741	280.1622	-991.41	1	1030.235	-74.22026	4.001389E-007	0.0006633	8
	30	81	298.2954	324.3595	-1217.076	1	1259.557	-75.07711	3.890033E-007	0.0006681	8
	31	83	237.7717	377.1777	-1486.365	1	1533.475	-75.76126	3.961286E-007	0.0006676	8
	32	85	189.0121	443.625	-1820.501	1	1873.773	-76.30491	3.904285E-007	0.0006686	8
	33	88	150.2404	526.6077	-2230.134	1	2291.465	-76.71396	3.892692E-007	0.0006709	8
	34	90	119.1737	632.1829	-2737.419	1	2809.469	-76.99603	3.919416E-007	0.0006724	8
	35	92	95.0169	762.8544	-3344.821	1	3430.71	-77.15228	4.090137E-007	0.0006694	8
	36	95	75.60484	931.7073	-4092.58	1	4197.295	-77.17477	4.039468E-007	0.0006681	8
	37	98	54.50582	1262.19	-5468.432	1	5612.208	-77.00295	-8.786096E-008	0.0006355	7
	38	100	45.95588	1485.612	-6351.946	1	6523.363	-76.83612	-7.929111E-008	0.0006364	7
	39	102	37.20238	1829.726	-7635.208	1	7851.389	-76.5236	-8.664208E-008	0.0006386	7
	40	105	30.04808	2272.905	-9176.922	1	9454.205	-76.08913	-8.922285E-008	0.0006356	7
	41	107	23.91582	2879.526	-11160.75	1	11526.23	-75.53292	-8.724741E-008	0.0006421	7
	42	110	18.60119	3780.929	-13828.97	1	14336.52	-74.70866	-7.970809E-008	0.0006307	7
	43	112	15.02404	4776.21	-16539.3	1	17215.13	-73.89236	-8.138131E-008	0.0006447	7
	44	114	12.01923	6116.673	-19875.63	1	20795.54	-72.89439	-9.386875E-008	0.0006406	7
	45	117	9.450605	8036.701	-24126.83	1	25430.15	-71.57697	-8.074425E-008	0.000644	7
	46	119	7.512019	10424.23	-28880.37	1	30704.08	-70.15321	-8.664657E-008	0.0006503	7
	47	122	5.978954	13409.45	-34345.91	1	36870.78	-68.67316	-8.559662E-008	0.0006424	7
	48	125	4.734848	17562.38	-40488.62	1	44133.5	-66.55069	-1.349834E-007	0.0007055	6
	49	128	3.75601	22545.17	-47361.63	1	52453.87	-64.54453	-1.332373E-007	0.0007227	6
	50	131	3.004808	28292.54	-54560.4	1	61459.79	-62.59081	-1.303012E-007	0.00068	6
	51	135	2.372217	35606.85	-62784.14	1	72178.23	-60.44107	-1.328084E-007	0.0006196	6
	52	139	1.878005	43630.36	-71496.3	1	83757.56	-58.60652	-1.313022E-007	0.0007034	6
	53	144	1.512097	51859.25	-80142.67	1	95458	-57.09363	-1.343533E-007	0.0006919	6
	54	149	1.201923	61571.84	-90564.39	1	109512.6	-55.78946	-1.321609E-007	0.0007293	6
	55	156	0.956633	71978.02	-102436.7	1	125196.3	-54.90588	-1.336331E-007	5.558363E-005	6
