EXPLAIN
TAG	EISPOT
TITLE	LABEL	Potentiostatic EIS	Test Identifier
DATE	LABEL	2/26/2021	Date
TIME	LABEL	19:36:15	Time
NOTES	NOTES	1	Notes...
	
PSTAT	PSTAT	REF3000-16137	Potentiostat
VDC	POTEN	0.00000E+000	T	DC Voltage (V)
FREQINIT	QUANT	3.00000E+005	Initial Freq. (Hz)
FREQFINAL	QUANT	1.00000E+000	Final Freq. (Hz)
PTSPERDEC	QUANT	1.00000E+001	Points/decade
VAC	QUANT	5.00000E+001	AC Voltage (mV rms)
AREA	QUANT	1.00000E+000	Sample Area (cm^2)
SPEED	SELECTOR	2	Optimize for:
ZGUESS	QUANT	1.00000E+003	Estimated Z (ohms)
EOC	QUANT	0	Open Circuit (V)
SEQUENCER	TOGGLE	TRUE	Run as Sequence
PSTATMODEL	IQUANT	5	Pstat Model
PSTATSECTION	LABEL	REF3000-16137	Pstat Section
PSTATSERIALNO	LABEL	16137	Pstat Serial Number
CTRLMODE	IQUANT	1	Control Mode
IESTAB	IQUANT	0	I/E Stability
CASPEED	IQUANT	1	Control Amp Speed
CONVENTION	IQUANT	1	Current Convention
ICHRANGE	IQUANT	2	Ich Range
ICHRANGEMODE	TOGGLE	F	Ich Auto Range
ICHOFFSETENABLE	TOGGLE	T	Ich Offset Enable
ICHOFFSET	QUANT	0	Ich Offset (V)
ICHFILTER	IQUANT	3	Ich Filter
VCHRANGE	IQUANT	2	Vch Range
VCHRANGEMODE	TOGGLE	F	Vch Auto Range
VCHOFFSETENABLE	TOGGLE	T	Vch Offset Enable
VCHOFFSET	QUANT	0	Vch Offset (V)
VCHFILTER	IQUANT	3	Vch Filter
ACHRANGE	IQUANT	2	Ach Range
ACHOFFSETENABLE	TOGGLE	F	Ach Offset Enable
ACHOFFSET	QUANT	0	Ach Offset (V)
ACHFILTER	IQUANT	3	Ach Filter
IERANGELOWERLIMIT	IQUANT	2	I/E Range Lower Limit
IERANGEMODE	TOGGLE	F	I/E AutoRange
IERANGE	IQUANT	11	I/E Range
POSFEEDENABLE	TOGGLE	F	Positive Feedback IR Comp
POSFEEDRESISTANCE	QUANT	0	Positive Feedback Resistance (ohm)
ACHSELECT	IQUANT	0	Ach Select
CABLEID	IQUANT	13	Cable ID
DCCALDATE	LABEL	7/31/2020	DC Calibration Date
ACCALDATE	LABEL	7/31/2020	AC Calibration Date
THERMOSELECT	IQUANT	1	Thermo Select
FRAMEWORKVERSION	QUANT	6.33	Framework Version
INSTRUMENTVERSION	LABEL	3.50	Instrument Version
COMPLIANCEVOLTAGE	IQUANT	0	Compliance Voltage
ZCURVE	TABLE
	Pt	Time	Freq	Zreal	Zimag	Zsig	Zmod	Zphz	Idc	Vdc	IERange
	#	s	Hz	ohm	ohm	V	ohm	°	A	V	#
	0	26	300046.9	2384.821	-2659.072	1	3571.839	-48.11227	2.319707E-005	0.0009808	9
	1	41	238359.4	2932.207	-2658.699	1	3958.095	-42.19932	2.121033E-005	-0.0004734	9
	2	55	189328.1	3367.99	-2587.804	1	4247.362	-37.53698	8.415932E-005	-0.0033664	9
	3	64	150421.9	4080.578	-2461.394	1	4765.457	-31.09827	-9.038657E-005	0.0022287	9
	4	75	119484.4	4631.23	-2311.962	1	5176.241	-26.52889	4.41191E-006	0.0142536	8
	5	83	94921.88	5087.921	-2047.818	1	5484.569	-21.9241	-2.458267E-005	0.0072703	8
	6	90	75421.88	5450.691	-1847.771	1	5755.371	-18.72653	-2.304274E-005	0.0104341	8
	7	98	59859.37	5713.909	-1652.093	1	5947.955	-16.12646	2.140896E-005	-0.0090882	8
	8	105	47578.12	5997.323	-1498.887	1	6181.792	-14.03225	-2.310618E-005	0.0104247	8
	9	113	37828.12	6337.076	-1354.512	1	6480.218	-12.06508	-9.342433E-006	-0.0017993	8
	10	120	30046.88	6622.878	-769.6582	1	6667.45	-6.628725	-5.754765E-006	0.0089589	7
	11	123	23859.38	6706.205	-784.6163	1	6751.949	-6.673184	6.563006E-006	-0.0238388	7
	12	127	18984.38	6788.571	-793.5292	1	6834.792	-6.667158	5.510611E-006	-0.0066891	7
	13	131	15046.87	6907.24	-843.8655	1	6958.597	-6.965374	6.625356E-006	-0.0144584	7
	14	135	11953.13	7017.271	-921.1306	1	7077.469	-7.478244	1.872034E-006	-0.0194505	7
	15	138	9515.62	7159.975	-1029.803	1	7233.653	-8.184594	-3.97333E-006	0.0237519	7
	16	142	7546.875	7299.235	-1168.275	1	7392.138	-9.093321	6.651704E-006	-0.0148548	7
	17	145	5928.309	7465.774	-1365.106	1	7589.552	-10.36198	-2.204961E-006	0.0212361	7
	18	150	4733.456	7690.632	-1551.228	1	7845.517	-11.40375	5.319892E-006	-0.0243929	7
	19	154	3796.875	7858.165	-1779.738	1	8057.184	-12.76122	6.76876E-006	-0.0149195	7
	20	157	2987.132	8091.363	-2109.254	1	8361.765	-14.61069	-2.47359E-006	-0.0067162	7
	21	161	2390.625	8353.439	-2428.933	1	8699.406	-16.21287	3.988467E-006	0.0017208	7
	22	165	1884.191	8665.299	-2844.137	1	9120.116	-18.17095	3.711669E-006	-0.0229947	7
	23	170	1516.544	9009.397	-3320.2	1	9601.72	-20.23017	-4.40149E-006	0.0012937	7
	24	174	1193.986	9366.245	-3904.759	1	10147.59	-22.6311	-3.453273E-007	-0.0138972	7
	25	178	946.5144	9812.09	-4606.256	1	10839.49	-25.14758	-6.572685E-006	0.0201114	7
	26	181	751.7689	10356.25	-5383.65	1	11672	-27.46746	-5.955691E-006	0.0096632	7
	27	184	597.4265	10939.34	-6398.937	1	12673.42	-30.32538	-4.302975E-006	0.001047	7
	28	186	477.4305	11748.81	-7334.12	1	13850.05	-31.97421	-5.249785E-008	0.0006066	7
	29	188	376.6741	12611.86	-8535.124	1	15228.5	-34.08833	-6.223692E-008	0.0006825	7
	30	191	298.2954	13569.3	-9862.69	1	16774.94	-36.01111	-5.473665E-008	0.0005837	7
	31	193	237.7717	14604.49	-11321.58	1	18478.88	-37.78328	-6.112869E-008	0.0006792	7
	32	195	189.0121	15711.98	-13010.97	1	20399.79	-39.6279	-5.398935E-008	0.0006241	7
	33	198	150.2404	16861.46	-14984.53	1	22557.59	-41.627	-6.195677E-008	0.0006299	7
	34	200	119.1737	18030.88	-17379.61	1	25043.24	-43.94633	-5.319049E-008	0.0006108	7
	35	203	95.0169	19204.17	-20260.64	1	27915.83	-46.53343	-5.223283E-008	0.0006	7
	36	205	75.60484	20400.23	-23870.17	1	31399.91	-49.48172	-5.424585E-008	0.0005878	7
	37	208	54.50582	22220.11	-30582.74	1	37802.61	-53.99944	-5.796374E-008	0.000666	7
	38	210	45.95588	23316.96	-35125.39	1	42160.1	-56.42297	-6.192101E-009	0.0006572	6
	39	212	37.20238	24754.34	-41815.03	1	48592.94	-59.37463	-6.638017E-009	0.0006909	6
	40	215	30.04808	26385.5	-50119.2	1	56640.35	-62.23521	-7.024222E-009	0.000697	6
	41	217	23.91582	28414.86	-60923.95	1	67224.48	-64.99571	-6.43043E-009	0.00071	6
	42	220	18.60119	31033.56	-76005.48	1	82096.98	-67.78947	-7.355307E-009	0.0006932	6
	43	222	15.02404	33781.91	-91711.2	1	97735.2	-69.77868	-6.718643E-009	0.0006724	6
	44	224	12.01923	37206.16	-111862.6	1	117887.9	-71.60258	-5.744581E-009	0.0006816	6
	45	227	9.450605	41592.33	-138604.7	1	144710.7	-73.29662	-6.527531E-009	0.0007324	6
	46	229	7.512019	46841.52	-170280.6	1	176605.8	-74.61926	-5.946744E-009	0.0006259	6
	47	232	5.978954	53067.97	-209131.8	1	215759.9	-75.76151	-6.031877E-009	0.0006303	6
	48	237	4.734848	60950.36	-258502.4	1	265590.8	-76.73296	-5.769759E-009	0.000629	6
	49	240	3.75601	70477.34	-318702.4	1	326402.1	-77.53038	-5.980747E-009	0.0006297	6
	50	246	3.004808	81653.47	-390306	1	398755.7	-78.18392	-5.799625E-009	0.0006878	6
	51	252	2.372217	96583.8	-484587.8	1	494119.2	-78.72801	-7.456889E-010	0.000735	5
	52	256	1.878005	114009.4	-599099.1	1	609850.8	-79.22536	-7.616531E-010	0.0006404	5
	53	261	1.512097	134261.9	-728299.4	1	740571.6	-79.5548	-6.434518E-010	0.0007158	5
	54	267	1.201923	158963.6	-900542.2	1	914464.7	-79.98928	-7.456141E-010	0.0006289	5
	55	273	0.956633	190219.8	-1110239	1	1126416	-80.27778	-7.984179E-010	2.299599E-005	5
