EXPLAIN
TAG	EISPOT
TITLE	LABEL	Potentiostatic EIS	Test Identifier
DATE	LABEL	2/26/2021	Date
TIME	LABEL	19:06:02	Time
NOTES	NOTES	1	Notes...
	
PSTAT	PSTAT	REF3000-16137	Potentiostat
VDC	POTEN	0.00000E+000	T	DC Voltage (V)
FREQINIT	QUANT	3.00000E+005	Initial Freq. (Hz)
FREQFINAL	QUANT	1.00000E+000	Final Freq. (Hz)
PTSPERDEC	QUANT	1.00000E+001	Points/decade
VAC	QUANT	5.00000E+001	AC Voltage (mV rms)
AREA	QUANT	1.00000E+000	Sample Area (cm^2)
SPEED	SELECTOR	2	Optimize for:
ZGUESS	QUANT	1.00000E+003	Estimated Z (ohms)
EOC	QUANT	0	Open Circuit (V)
SEQUENCER	TOGGLE	TRUE	Run as Sequence
PSTATMODEL	IQUANT	5	Pstat Model
PSTATSECTION	LABEL	REF3000-16137	Pstat Section
PSTATSERIALNO	LABEL	16137	Pstat Serial Number
CTRLMODE	IQUANT	1	Control Mode
IESTAB	IQUANT	0	I/E Stability
CASPEED	IQUANT	1	Control Amp Speed
CONVENTION	IQUANT	1	Current Convention
ICHRANGE	IQUANT	2	Ich Range
ICHRANGEMODE	TOGGLE	F	Ich Auto Range
ICHOFFSETENABLE	TOGGLE	T	Ich Offset Enable
ICHOFFSET	QUANT	0	Ich Offset (V)
ICHFILTER	IQUANT	3	Ich Filter
VCHRANGE	IQUANT	2	Vch Range
VCHRANGEMODE	TOGGLE	F	Vch Auto Range
VCHOFFSETENABLE	TOGGLE	T	Vch Offset Enable
VCHOFFSET	QUANT	0	Vch Offset (V)
VCHFILTER	IQUANT	3	Vch Filter
ACHRANGE	IQUANT	2	Ach Range
ACHOFFSETENABLE	TOGGLE	F	Ach Offset Enable
ACHOFFSET	QUANT	0	Ach Offset (V)
ACHFILTER	IQUANT	3	Ach Filter
IERANGELOWERLIMIT	IQUANT	2	I/E Range Lower Limit
IERANGEMODE	TOGGLE	F	I/E AutoRange
IERANGE	IQUANT	11	I/E Range
POSFEEDENABLE	TOGGLE	F	Positive Feedback IR Comp
POSFEEDRESISTANCE	QUANT	0	Positive Feedback Resistance (ohm)
ACHSELECT	IQUANT	0	Ach Select
CABLEID	IQUANT	13	Cable ID
DCCALDATE	LABEL	7/31/2020	DC Calibration Date
ACCALDATE	LABEL	7/31/2020	AC Calibration Date
THERMOSELECT	IQUANT	1	Thermo Select
FRAMEWORKVERSION	QUANT	6.33	Framework Version
INSTRUMENTVERSION	LABEL	3.50	Instrument Version
COMPLIANCEVOLTAGE	IQUANT	0	Compliance Voltage
ZCURVE	TABLE
	Pt	Time	Freq	Zreal	Zimag	Zsig	Zmod	Zphz	Idc	Vdc	IERange
	#	s	Hz	ohm	ohm	V	ohm	°	A	V	#
	0	8	300046.9	235.2167	-37.93201	1	238.2556	-9.160885	8.244764E-005	6.406617E-005	10
	1	13	238359.4	240.0477	-35.93292	1	242.7222	-8.513436	2.224615E-005	-0.0005206	9
	2	17	189328.1	244.5473	-40.69668	1	247.9105	-9.448371	-1.469928E-005	0.0013946	9
	3	22	150421.9	249.1735	-49.69937	1	254.0816	-11.28001	-1.243746E-006	0.0007966	10
	4	26	119484.4	254.2791	-56.27015	1	260.4308	-12.47805	8.348583E-005	0.0003381	10
	5	30	94921.88	259.9405	-62.31318	1	267.305	-13.48062	2.531025E-005	-0.0003688	9
	6	33	75421.88	267.5291	-72.29228	1	277.1245	-15.12144	-1.42012E-006	-0.0003718	9
	7	37	59859.37	275.2633	-83.95036	1	287.7804	-16.96077	1.114496E-005	0.0003508	9
	8	40	47578.12	284.0941	-98.0372	1	300.5341	-19.03889	2.221585E-005	-0.0008105	9
	9	42	37828.12	294.5582	-114.0571	1	315.8695	-21.16711	-1.23837E-006	-0.0003719	9
	10	45	30046.88	307.2542	-133.1008	1	334.8447	-23.42198	-8.542812E-006	0.0008527	9
	11	47	23859.38	321.4037	-155.1291	1	356.8829	-25.7648	-2.379773E-005	0.0008181	9
	12	50	18984.38	339.056	-179.0695	1	383.4382	-27.84039	-1.392782E-005	0.0001765	9
	13	52	15046.87	358.7346	-204.4987	1	412.9288	-29.68555	-2.455424E-006	-0.0009524	8
	14	54	11953.13	383.6015	-237.7666	1	451.3126	-31.79175	1.336738E-005	-0.0026333	8
	15	57	9515.62	409.9269	-272.0646	1	491.9951	-33.57185	1.0609E-005	-0.003612	8
	16	59	7546.875	440.3667	-310.4489	1	538.7962	-35.183	-1.053547E-005	0.0033651	8
	17	61	5928.309	473.9119	-356.98	1	593.3188	-36.98934	1.156777E-005	-0.0031323	8
	18	64	4733.456	508.4978	-407.0522	1	651.3536	-38.67725	-2.446615E-006	0.0039904	8
	19	66	3796.875	541.8857	-464.085	1	713.4528	-40.57761	-2.627459E-006	0.0041114	8
	20	68	2987.132	578.2323	-539.6152	1	790.9091	-43.02145	5.415754E-006	-0.00313	8
	21	71	2390.625	613.6013	-625.0876	1	875.923	-45.53128	1.177606E-005	-0.0017646	8
	22	73	1884.191	651.6634	-735.3885	1	982.579	-48.45429	-1.084543E-005	0.0034679	8
	23	76	1516.544	692.6664	-867.244	1	1109.909	-51.3857	-1.064574E-005	0.003359	8
	24	78	1193.986	737.7291	-1044.785	1	1278.992	-54.77385	-2.721535E-006	0.0041072	8
	25	81	946.5144	794.1707	-1260.622	1	1489.925	-57.78977	1.753761E-006	0.0028591	8
	26	84	751.7689	849.1161	-1515.362	1	1737.044	-60.7364	-6.128569E-006	0.00038	8
	27	87	597.4265	914.2076	-1846.831	1	2060.719	-63.66394	1.195614E-005	-0.0018587	8
	28	89	477.4305	998.15	-2230.332	1	2443.499	-65.88985	1.248829E-007	0.0006455	8
	29	91	376.6741	1098.283	-2735.472	1	2947.717	-68.12471	1.073028E-007	0.0006733	8
	30	94	298.2954	1216.92	-3350.25	1	3564.417	-70.03733	1.262257E-007	0.0006644	8
	31	96	237.7717	1361.58	-4092.577	1	4313.13	-71.59797	1.416078E-009	0.0006391	7
	32	99	189.0121	1532.216	-5007.766	1	5236.927	-72.98757	2.853487E-009	0.0006085	7
	33	101	150.2404	1739.359	-6131.483	1	6373.418	-74.1626	2.310396E-009	0.0006344	7
	34	103	119.1737	1995.538	-7525.567	1	7785.649	-75.14879	1.791876E-009	0.0006286	7
	35	106	95.0169	2300.142	-9200.098	1	9483.272	-75.96307	-1.632721E-009	0.0006415	7
	36	108	75.60484	2675.262	-11270.86	1	11584.01	-76.64732	-1.859072E-009	0.0006383	7
	37	111	54.50582	3358.514	-15072.1	1	15441.76	-77.43802	-2.587994E-009	0.0006442	7
	38	113	45.95588	3818.844	-17549.68	1	17960.37	-77.72371	1.712928E-009	0.0006269	7
	39	116	37.20238	4487.039	-21187.44	1	21657.36	-78.04267	1.445351E-009	0.0006267	7
	40	118	30.04808	5299.251	-25618.87	1	26161.21	-78.31322	-4.779129E-010	0.0006259	7
	41	121	23.91582	6402.219	-31423.87	1	32069.42	-78.48431	-1.798668E-009	0.000636	7
	42	123	18.60119	7931.033	-39266.89	1	40059.83	-78.58115	1.763973E-009	0.0006396	7
	43	125	15.02404	9490.691	-47524.57	1	48462.96	-78.70656	-1.666319E-009	0.0006842	6
	44	127	12.01923	11544.92	-57975.11	1	59113.43	-78.73769	-2.096775E-009	0.000695	6
	45	130	9.450605	14366.42	-71808.21	1	73231.23	-78.6864	-2.21325E-009	0.0006997	6
	46	133	7.512019	17759.63	-88045.69	1	89818.97	-78.59593	-1.852229E-009	0.0006806	6
	47	136	5.978954	22032.82	-107773.2	1	110002.3	-78.44584	-1.65689E-009	0.0006904	6
	48	140	4.734848	27647.03	-132685.6	1	135535.4	-78.22997	-1.218516E-009	0.0006786	6
	49	143	3.75601	34703.44	-162748.8	1	166407.6	-77.96291	-1.834422E-009	0.0006799	6
	50	149	3.004808	43450.37	-198244.1	1	202949.9	-77.63761	-1.218056E-009	0.0006465	6
	51	155	2.372217	55530.36	-244053	1	250290.9	-77.1815	-1.572015E-009	0.0006091	6
	52	159	1.878005	71460.38	-299300.6	1	307713.2	-76.57157	-1.462531E-009	0.0006827	6
	53	164	1.512097	90791.55	-360776.8	1	372025.6	-75.8745	-1.504664E-009	0.0005956	6
	54	169	1.201923	117077.3	-440360.3	1	455658.1	-75.11137	-1.413005E-009	0.0006943	5
	55	176	0.956633	151738.2	-534907.3	1	556012.8	-74.16284	-1.778568E-009	2.090159E-005	5
