EXPLAIN
TAG	EISPOT
TITLE	LABEL	Potentiostatic EIS	Test Identifier
DATE	LABEL	2/26/2021	Date
TIME	LABEL	19:19:23	Time
NOTES	NOTES	1	Notes...
	
PSTAT	PSTAT	REF3000-16137	Potentiostat
VDC	POTEN	0.00000E+000	T	DC Voltage (V)
FREQINIT	QUANT	3.00000E+005	Initial Freq. (Hz)
FREQFINAL	QUANT	1.00000E+000	Final Freq. (Hz)
PTSPERDEC	QUANT	1.00000E+001	Points/decade
VAC	QUANT	5.00000E+001	AC Voltage (mV rms)
AREA	QUANT	1.00000E+000	Sample Area (cm^2)
SPEED	SELECTOR	2	Optimize for:
ZGUESS	QUANT	1.00000E+003	Estimated Z (ohms)
EOC	QUANT	0	Open Circuit (V)
SEQUENCER	TOGGLE	TRUE	Run as Sequence
PSTATMODEL	IQUANT	5	Pstat Model
PSTATSECTION	LABEL	REF3000-16137	Pstat Section
PSTATSERIALNO	LABEL	16137	Pstat Serial Number
CTRLMODE	IQUANT	1	Control Mode
IESTAB	IQUANT	0	I/E Stability
CASPEED	IQUANT	1	Control Amp Speed
CONVENTION	IQUANT	1	Current Convention
ICHRANGE	IQUANT	2	Ich Range
ICHRANGEMODE	TOGGLE	F	Ich Auto Range
ICHOFFSETENABLE	TOGGLE	T	Ich Offset Enable
ICHOFFSET	QUANT	0	Ich Offset (V)
ICHFILTER	IQUANT	3	Ich Filter
VCHRANGE	IQUANT	2	Vch Range
VCHRANGEMODE	TOGGLE	F	Vch Auto Range
VCHOFFSETENABLE	TOGGLE	T	Vch Offset Enable
VCHOFFSET	QUANT	0	Vch Offset (V)
VCHFILTER	IQUANT	3	Vch Filter
ACHRANGE	IQUANT	2	Ach Range
ACHOFFSETENABLE	TOGGLE	F	Ach Offset Enable
ACHOFFSET	QUANT	0	Ach Offset (V)
ACHFILTER	IQUANT	3	Ach Filter
IERANGELOWERLIMIT	IQUANT	2	I/E Range Lower Limit
IERANGEMODE	TOGGLE	F	I/E AutoRange
IERANGE	IQUANT	11	I/E Range
POSFEEDENABLE	TOGGLE	F	Positive Feedback IR Comp
POSFEEDRESISTANCE	QUANT	0	Positive Feedback Resistance (ohm)
ACHSELECT	IQUANT	0	Ach Select
CABLEID	IQUANT	13	Cable ID
DCCALDATE	LABEL	7/31/2020	DC Calibration Date
ACCALDATE	LABEL	7/31/2020	AC Calibration Date
THERMOSELECT	IQUANT	1	Thermo Select
FRAMEWORKVERSION	QUANT	6.33	Framework Version
INSTRUMENTVERSION	LABEL	3.50	Instrument Version
COMPLIANCEVOLTAGE	IQUANT	0	Compliance Voltage
ZCURVE	TABLE
	Pt	Time	Freq	Zreal	Zimag	Zsig	Zmod	Zphz	Idc	Vdc	IERange
	#	s	Hz	ohm	ohm	V	ohm	°	A	V	#
	0	14	300046.9	658.2285	-114.6047	1	668.1309	-9.87681	-2.011499E-005	0.0014252	9
	1	24	238359.4	679.6209	-111.7135	1	688.7412	-9.33459	1.851254E-005	-0.0009428	9
	2	42	189328.1	698.3771	-110.0374	1	706.9927	-8.954	2.559454E-005	0.0009806	9
	3	49	150421.9	716.6465	-108.2471	1	724.7756	-8.589413	-2.804276E-005	-0.0008445	9
	4	57	119484.4	732.6434	-90.36993	1	738.1958	-7.031789	8.200876E-006	-0.0049562	8
	5	64	94921.88	742.8472	-98.3238	1	749.3261	-7.539884	-1.50846E-005	0.0029181	8
	6	67	75421.88	754.1808	-113.9807	1	762.7452	-8.594176	9.889011E-006	-0.0058983	8
	7	69	59859.37	766.8033	-129.067	1	777.5896	-9.55437	-1.29937E-005	0.0016539	8
	8	72	47578.12	781.2945	-148.4437	1	795.2714	-10.75781	-2.045459E-006	-0.002761	8
	9	74	37828.12	798.7897	-170.7865	1	816.8434	-12.06851	-1.263364E-005	0.0014962	8
	10	77	30046.88	815.2997	-200.7783	1	839.658	-13.83456	1.862265E-005	-0.0039085	8
	11	79	23859.38	836.9686	-234.231	1	869.1263	-15.63461	1.854411E-005	-0.003861	8
	12	82	18984.38	861.658	-271.9452	1	903.5534	-17.51605	1.864592E-005	-0.0038724	8
	13	84	15046.87	891.6592	-314.7436	1	945.579	-19.44234	-8.895619E-006	-0.0004828	8
	14	87	11953.13	924.4703	-370.7812	1	996.054	-21.85445	1.451049E-005	-0.0063488	8
	15	89	9515.62	966.27	-433.444	1	1059.033	-24.15978	-8.269665E-006	-0.0006421	8
	16	92	7546.875	1013.504	-505.3245	1	1132.494	-26.50046	-1.247888E-005	0.0014269	8
	17	95	5928.309	1077.514	-592.25	1	1229.551	-28.79518	-1.280108E-005	0.001551	8
	18	98	4733.456	1142.646	-682.1601	1	1330.783	-30.83721	-1.556541E-005	0.0076588	8
	19	101	3796.875	1216	-783.0696	1	1446.324	-32.7804	1.003434E-005	-0.0058953	8
	20	104	2987.132	1316.104	-910.4933	1	1600.353	-34.67585	1.774593E-005	-0.0061239	8
	21	108	2390.625	1404.054	-1035.927	1	1744.853	-36.42034	1.797163E-005	-0.0061298	8
	22	110	1884.191	1521.675	-1188.768	1	1930.975	-37.99779	-2.33334E-006	-0.0027856	8
	23	115	1516.544	1626.792	-1355.219	1	2117.326	-39.79639	-2.359833E-006	-0.002773	8
	24	119	1193.986	1741.788	-1575.715	1	2348.767	-42.13419	1.78647E-005	-0.006169	8
	25	123	946.5144	1852.631	-1824.838	1	2600.438	-44.56699	1.472139E-005	-0.0064754	8
	26	126	751.7689	1959.96	-2164.959	1	2920.358	-47.84513	1.763979E-005	-0.0024614	8
	27	130	597.4265	2109.181	-2530.089	1	3293.933	-50.18409	1.413867E-005	-0.0003375	8
	28	133	477.4305	2233.794	-3015.207	1	3752.507	-53.46737	-4.331509E-008	0.0006566	8
	29	137	376.6741	2391.15	-3648.084	1	4361.894	-56.75702	-2.173882E-008	0.0006215	7
	30	139	298.2954	2556.99	-4421.627	1	5107.737	-59.95956	-2.837988E-008	0.0006528	7
	31	141	237.7717	2744.509	-5353.322	1	6015.844	-62.85697	-2.847537E-008	0.0006442	7
	32	144	189.0121	2966.313	-6518.168	1	7161.392	-65.53048	-2.838406E-008	0.0006628	7
	33	146	150.2404	3230.663	-7956.26	1	8587.156	-67.90025	-2.358437E-008	0.0006346	7
	34	149	119.1737	3547.487	-9751.72	1	10376.93	-70.00958	-2.469339E-008	0.0006122	7
	35	151	95.0169	3919.739	-11908.65	1	12537.16	-71.78101	-2.347269E-008	0.0006059	7
	36	154	75.60484	4374.313	-14591.91	1	15233.47	-73.3125	-2.315597E-008	0.000618	7
	37	156	54.50582	5178.407	-19526.27	1	20201.26	-75.14696	-3.031854E-008	0.0006559	7
	38	159	45.95588	5720.909	-22764.68	1	23472.52	-75.89333	-2.693736E-008	0.0006247	7
	39	161	37.20238	6487.409	-27515.93	1	28270.35	-76.73369	-2.925015E-008	0.0006691	7
	40	163	30.04808	7430.657	-33371.27	1	34188.54	-77.44695	-2.711595E-008	0.0006196	7
	41	166	23.91582	8636.381	-40974.62	1	41874.89	-78.09776	-3.028361E-008	0.0006584	7
	42	168	18.60119	10268.52	-51354.75	1	52371.3	-78.69267	-3.203973E-009	0.0006833	6
	43	170	15.02404	12067.7	-62311.07	1	63468.88	-79.03929	-2.996131E-009	0.0006619	6
	44	173	12.01923	14303.15	-76259.69	1	77589.43	-79.37711	-4.000192E-009	0.0006688	6
	45	175	9.450605	17315.99	-94767.8	1	96336.8	-79.64513	-3.251508E-009	0.0006815	6
	46	178	7.512019	20825.64	-116759.5	1	118602.2	-79.88687	-3.70926E-009	0.0007009	6
	47	181	5.978954	25190.15	-143547.6	1	145741.1	-80.04691	-3.428027E-009	0.0007034	6
	48	185	4.734848	30913.72	-177487.6	1	180159.7	-80.11968	-3.664841E-009	0.0007189	6
	49	188	3.75601	37912.26	-218974	1	222231.8	-80.17742	-2.912657E-009	0.0006592	6
	50	194	3.004808	46437.98	-268044.3	1	272037.1	-80.17121	-3.589339E-009	0.0007357	6
	51	200	2.372217	58191.3	-332306.8	1	337363.3	-80.06746	-3.394675E-009	0.0007488	6
	52	204	1.878005	72259.49	-410915.4	1	417220.4	-80.0265	-3.614471E-009	0.0006522	6
	53	209	1.512097	88953.02	-498807.1	1	506676.6	-79.88865	-5.186552E-010	0.0006334	5
	54	215	1.201923	112479	-616029.3	1	626213.7	-79.65251	-7.19E-010	0.0006446	5
	55	221	0.956633	142234.7	-757095.1	1	770339.9	-79.35992	-7.350259E-010	1.460805E-005	5
