EXPLAIN
TAG	EISPOT
TITLE	LABEL	Potentiostatic EIS	Test Identifier
DATE	LABEL	2/26/2021	Date
TIME	LABEL	18:19:56	Time
NOTES	NOTES	1	Notes...
	
PSTAT	PSTAT	REF3000-16137	Potentiostat
VDC	POTEN	0.00000E+000	T	DC Voltage (V)
FREQINIT	QUANT	3.00000E+005	Initial Freq. (Hz)
FREQFINAL	QUANT	1.00000E+000	Final Freq. (Hz)
PTSPERDEC	QUANT	1.00000E+001	Points/decade
VAC	QUANT	5.00000E+001	AC Voltage (mV rms)
AREA	QUANT	1.00000E+000	Sample Area (cm^2)
SPEED	SELECTOR	2	Optimize for:
ZGUESS	QUANT	1.00000E+003	Estimated Z (ohms)
EOC	QUANT	0	Open Circuit (V)
SEQUENCER	TOGGLE	TRUE	Run as Sequence
PSTATMODEL	IQUANT	5	Pstat Model
PSTATSECTION	LABEL	REF3000-16137	Pstat Section
PSTATSERIALNO	LABEL	16137	Pstat Serial Number
CTRLMODE	IQUANT	1	Control Mode
IESTAB	IQUANT	0	I/E Stability
CASPEED	IQUANT	1	Control Amp Speed
CONVENTION	IQUANT	1	Current Convention
ICHRANGE	IQUANT	2	Ich Range
ICHRANGEMODE	TOGGLE	F	Ich Auto Range
ICHOFFSETENABLE	TOGGLE	T	Ich Offset Enable
ICHOFFSET	QUANT	0	Ich Offset (V)
ICHFILTER	IQUANT	3	Ich Filter
VCHRANGE	IQUANT	2	Vch Range
VCHRANGEMODE	TOGGLE	F	Vch Auto Range
VCHOFFSETENABLE	TOGGLE	T	Vch Offset Enable
VCHOFFSET	QUANT	0	Vch Offset (V)
VCHFILTER	IQUANT	3	Vch Filter
ACHRANGE	IQUANT	2	Ach Range
ACHOFFSETENABLE	TOGGLE	F	Ach Offset Enable
ACHOFFSET	QUANT	0	Ach Offset (V)
ACHFILTER	IQUANT	3	Ach Filter
IERANGELOWERLIMIT	IQUANT	2	I/E Range Lower Limit
IERANGEMODE	TOGGLE	F	I/E AutoRange
IERANGE	IQUANT	11	I/E Range
POSFEEDENABLE	TOGGLE	F	Positive Feedback IR Comp
POSFEEDRESISTANCE	QUANT	0	Positive Feedback Resistance (ohm)
ACHSELECT	IQUANT	0	Ach Select
CABLEID	IQUANT	13	Cable ID
DCCALDATE	LABEL	7/31/2020	DC Calibration Date
ACCALDATE	LABEL	7/31/2020	AC Calibration Date
THERMOSELECT	IQUANT	1	Thermo Select
FRAMEWORKVERSION	QUANT	6.33	Framework Version
INSTRUMENTVERSION	LABEL	3.50	Instrument Version
COMPLIANCEVOLTAGE	IQUANT	0	Compliance Voltage
ZCURVE	TABLE
	Pt	Time	Freq	Zreal	Zimag	Zsig	Zmod	Zphz	Idc	Vdc	IERange
	#	s	Hz	ohm	ohm	V	ohm	°	A	V	#
	0	6	300046.9	42.67885	-10.06966	1	43.85068	-13.2756	5.904357E-005	-0.0023769	9
	1	10	238359.4	44.08827	-12.65961	1	45.86983	-16.02102	-4.516416E-006	-0.0011408	9
	2	13	189328.1	45.73441	-15.49729	1	48.28874	-18.71916	-4.043389E-005	0.0007072	9
	3	15	150421.9	47.83062	-18.56935	1	51.30876	-21.21778	1.855454E-005	0.0002354	9
	4	18	119484.4	50.21556	-21.80312	1	54.74467	-23.47003	-5.648395E-005	0.0018237	9
	5	20	94921.88	53.17199	-25.18035	1	58.8329	-25.34056	-1.567611E-005	0.0006152	9
	6	23	75421.88	56.36518	-29.134	1	63.44937	-27.33351	-1.602737E-005	0.0004719	9
	7	25	59859.37	60.06237	-33.27142	1	68.66203	-28.98417	1.738081E-005	-0.0004931	9
	8	28	47578.12	64.27802	-37.74726	1	74.54206	-30.42359	1.314561E-005	-0.0004815	9
	9	30	37828.12	68.72081	-42.55433	1	80.82957	-31.76724	1.849198E-005	-0.0001652	9
	10	33	30046.88	73.57915	-47.94831	1	87.8233	-33.09053	-1.459412E-005	0.0004118	9
	11	35	23859.38	78.60258	-53.92168	1	95.3201	-34.45028	-1.171866E-005	0.0005927	9
	12	38	18984.38	83.85623	-61.04482	1	103.7224	-36.05349	1.689894E-005	-0.000182	9
	13	40	15046.87	89.23008	-69.5349	1	113.1243	-37.92844	4.368707E-006	0.0002422	9
	14	42	11953.13	94.84792	-79.91121	1	124.0239	-40.11478	7.226912E-006	-0.0003558	9
	15	45	9515.62	100.6474	-92.46206	1	136.6716	-42.57287	-1.545445E-005	0.0005691	9
	16	47	7546.875	107.2115	-107.5239	1	151.841	-45.08334	-1.312604E-005	0.0003221	9
	17	49	5928.309	114.6388	-128.0081	1	171.8376	-48.15369	-1.44507E-005	0.0004198	9
	18	52	4733.456	122.4013	-151.2153	1	194.546	-51.01154	-1.599167E-005	0.0005224	9
	19	54	3796.875	131.1062	-179.4444	1	222.2366	-53.84726	1.761013E-005	-0.0002045	9
	20	56	2987.132	142.1074	-215.5828	1	258.2062	-56.60801	1.816024E-006	-0.0002196	9
	21	59	2390.625	154.2049	-256.6721	1	299.4323	-59.00316	1.543673E-006	-0.0002137	9
	22	61	1884.191	168.3739	-311.2045	1	353.8333	-61.58486	1.751039E-006	-0.0002407	9
	23	63	1516.544	183.0577	-371.0107	1	413.7138	-63.73814	-2.96475E-006	0.0016897	8
	24	66	1193.986	203.0839	-452.1886	1	495.6991	-65.81452	4.227978E-006	-0.0003392	8
	25	68	946.5144	226.6074	-547.9414	1	592.9509	-67.53191	-2.706586E-006	0.0012457	8
	26	70	751.7689	253.2153	-666.717	1	713.1827	-69.20351	-3.05656E-006	0.0015743	8
	27	73	597.4265	284.6868	-809.6401	1	858.2329	-70.62724	-2.696688E-006	0.0011947	8
	28	75	477.4305	321.068	-980.201	1	1031.445	-71.86363	4.269249E-007	0.000667	8
	29	77	376.6741	367.174	-1201.658	1	1256.502	-73.00914	4.238357E-007	0.0006676	8
	30	80	298.2954	421.7252	-1470.327	1	1529.612	-73.99583	4.247295E-007	0.0006735	8
	31	82	237.7717	485.5587	-1790.717	1	1855.38	-74.82886	4.254116E-007	0.0006707	8
	32	84	189.0121	563.5557	-2188.165	1	2259.571	-75.5575	4.152502E-007	0.0006798	8
	33	87	150.2404	659.009	-2676.27	1	2756.214	-76.16661	4.206796E-007	0.0006688	8
	34	89	119.1737	776.6251	-3282.387	1	3373.012	-76.6884	4.26372E-007	0.0006725	8
	35	92	95.0169	918.8769	-4008.547	1	4112.516	-77.08917	4.339381E-007	0.0006696	8
	36	94	75.60484	1099.106	-4915.674	1	5037.051	-77.39642	-2.070044E-008	0.0006394	7
	37	97	54.50582	1434.261	-6565.736	1	6720.565	-77.67751	-2.137704E-008	0.0006448	7
	38	99	45.95588	1656.271	-7639.343	1	7816.828	-77.76714	-1.53238E-008	0.0006479	7
	39	102	37.20238	1997.566	-9212.566	1	9426.646	-77.76591	-1.725858E-008	0.0006464	7
	40	104	30.04808	2428.694	-11134.56	1	11396.36	-77.69524	-1.811006E-008	0.0006307	7
	41	106	23.91582	3004.884	-13600.42	1	13928.41	-77.54119	-1.556974E-008	0.000648	7
	42	109	18.60119	3857.576	-16982.73	1	17415.34	-77.20258	-1.863158E-008	0.0006498	7
	43	111	15.02404	4801.318	-20469.84	1	21025.38	-76.79958	-1.258057E-008	0.0006509	7
	44	113	12.01923	6092.965	-24843.95	1	25580.18	-76.22021	-1.926399E-008	0.0006508	7
	45	116	9.450605	7954.727	-30567.01	1	31585.12	-75.41296	-1.377861E-008	0.0006579	7
	46	118	7.512019	10280.43	-37153.12	1	38549.21	-74.533	-1.270621E-008	0.00067	7
	47	121	5.978954	13390.34	-44927.2	1	46880.22	-73.40356	-6.328565E-008	0.0007084	6
	48	125	4.734848	17672.38	-54306.67	1	57109.78	-71.97417	-6.475145E-008	0.0006911	6
	49	129	3.75601	23263.09	-65179.91	1	69206.88	-70.35822	-6.404107E-008	0.0007037	6
	50	134	3.004808	30255.93	-77112.98	1	82836.19	-68.57702	-6.241738E-008	0.0006739	6
	51	141	2.372217	39616.91	-91356.16	1	99576.3	-66.55587	-6.406725E-008	0.000671	6
	52	145	1.878005	51522.84	-106745.1	1	118529	-64.2347	-6.317721E-008	0.0007108	6
	53	149	1.512097	64590.16	-122024.7	1	138064.9	-62.10683	-6.213269E-008	0.0005879	6
	54	155	1.201923	80633.02	-139449.4	1	161083.2	-59.96245	-6.185373E-008	0.0006955	6
	55	161	0.956633	98368.1	-157980.4	1	186102.3	-58.09113	-6.235864E-008	5.757893E-005	6
