EXPLAIN
TAG	EISPOT
TITLE	LABEL	Potentiostatic EIS	Test Identifier
DATE	LABEL	2/26/2021	Date
TIME	LABEL	18:48:31	Time
NOTES	NOTES	1	Notes...
	
PSTAT	PSTAT	REF3000-16137	Potentiostat
VDC	POTEN	0.00000E+000	T	DC Voltage (V)
FREQINIT	QUANT	3.00000E+005	Initial Freq. (Hz)
FREQFINAL	QUANT	1.00000E+000	Final Freq. (Hz)
PTSPERDEC	QUANT	1.00000E+001	Points/decade
VAC	QUANT	5.00000E+001	AC Voltage (mV rms)
AREA	QUANT	1.00000E+000	Sample Area (cm^2)
SPEED	SELECTOR	2	Optimize for:
ZGUESS	QUANT	1.00000E+003	Estimated Z (ohms)
EOC	QUANT	0	Open Circuit (V)
SEQUENCER	TOGGLE	TRUE	Run as Sequence
PSTATMODEL	IQUANT	5	Pstat Model
PSTATSECTION	LABEL	REF3000-16137	Pstat Section
PSTATSERIALNO	LABEL	16137	Pstat Serial Number
CTRLMODE	IQUANT	1	Control Mode
IESTAB	IQUANT	0	I/E Stability
CASPEED	IQUANT	1	Control Amp Speed
CONVENTION	IQUANT	1	Current Convention
ICHRANGE	IQUANT	2	Ich Range
ICHRANGEMODE	TOGGLE	F	Ich Auto Range
ICHOFFSETENABLE	TOGGLE	T	Ich Offset Enable
ICHOFFSET	QUANT	0	Ich Offset (V)
ICHFILTER	IQUANT	3	Ich Filter
VCHRANGE	IQUANT	2	Vch Range
VCHRANGEMODE	TOGGLE	F	Vch Auto Range
VCHOFFSETENABLE	TOGGLE	T	Vch Offset Enable
VCHOFFSET	QUANT	0	Vch Offset (V)
VCHFILTER	IQUANT	3	Vch Filter
ACHRANGE	IQUANT	2	Ach Range
ACHOFFSETENABLE	TOGGLE	F	Ach Offset Enable
ACHOFFSET	QUANT	0	Ach Offset (V)
ACHFILTER	IQUANT	3	Ach Filter
IERANGELOWERLIMIT	IQUANT	2	I/E Range Lower Limit
IERANGEMODE	TOGGLE	F	I/E AutoRange
IERANGE	IQUANT	11	I/E Range
POSFEEDENABLE	TOGGLE	F	Positive Feedback IR Comp
POSFEEDRESISTANCE	QUANT	0	Positive Feedback Resistance (ohm)
ACHSELECT	IQUANT	0	Ach Select
CABLEID	IQUANT	13	Cable ID
DCCALDATE	LABEL	7/31/2020	DC Calibration Date
ACCALDATE	LABEL	7/31/2020	AC Calibration Date
THERMOSELECT	IQUANT	1	Thermo Select
FRAMEWORKVERSION	QUANT	6.33	Framework Version
INSTRUMENTVERSION	LABEL	3.50	Instrument Version
COMPLIANCEVOLTAGE	IQUANT	0	Compliance Voltage
ZCURVE	TABLE
	Pt	Time	Freq	Zreal	Zimag	Zsig	Zmod	Zphz	Idc	Vdc	IERange
	#	s	Hz	ohm	ohm	V	ohm	°	A	V	#
	0	7	300046.9	96.8925	-16.9947	1	98.3716	-9.94834	2.799813E-005	5.713771E-005	9
	1	10	238359.4	98.9325	-20.67472	1	101.0697	-11.80368	-9.731142E-006	0.0008135	9
	2	13	189328.1	101.5841	-24.81396	1	104.5708	-13.72685	-1.138249E-006	0.0010518	9
	3	16	150421.9	104.2356	-30.17276	1	108.5148	-16.14398	3.118485E-005	0.0001654	9
	4	18	119484.4	107.5164	-34.89491	1	113.0373	-17.98106	-7.234327E-005	0.0020653	9
	5	21	94921.88	111.5352	-40.60283	1	118.6958	-20.00333	-1.415862E-005	0.0002013	9
	6	23	75421.88	116.0155	-47.81503	1	125.4826	-22.39869	-5.253049E-006	0.0006439	9
	7	26	59859.37	121.5256	-55.74208	1	133.6998	-24.64027	1.86495E-005	-0.0007093	9
	8	28	47578.12	127.9321	-64.89973	1	143.4524	-26.8986	-1.682305E-005	0.0008152	9
	9	31	37828.12	135.4367	-74.58555	1	154.616	-28.84176	-1.938862E-005	0.0008286	9
	10	33	30046.88	144.3029	-85.78876	1	167.8781	-30.73168	-1.055906E-005	6.523162E-005	9
	11	36	23859.38	154.4294	-98.1162	1	182.9624	-32.4297	-1.247031E-005	0.0008978	9
	12	38	18984.38	165.6512	-111.5588	1	199.714	-33.95855	-2.895311E-006	-0.0002232	9
	13	41	15046.87	177.8122	-126.9412	1	218.4748	-35.52327	2.439958E-005	-0.0006059	9
	14	43	11953.13	190.4667	-144.773	1	239.2421	-37.23833	-9.882009E-006	3.21928E-005	9
	15	45	9515.62	203.7322	-164.1738	1	261.6483	-38.86297	-1.998423E-005	0.0005175	9
	16	49	7546.875	217.4797	-189.3624	1	288.367	-41.04652	-1.237037E-005	0.0008192	9
	17	51	5928.309	232.1969	-220.4006	1	320.1434	-43.50702	-1.529442E-005	0.0002415	9
	18	53	4733.456	247.011	-256.4813	1	356.0858	-46.07756	-2.086745E-005	0.0007026	9
	19	56	3796.875	261.5885	-300.4117	1	398.3412	-48.95174	-1.359584E-005	0.0009465	9
	20	58	2987.132	279.1704	-356.2532	1	452.6063	-51.91671	6.998738E-006	-0.0008963	8
	21	60	2390.625	299.0886	-422.0966	1	517.3195	-54.67944	9.362707E-007	-0.0006117	8
	22	63	1884.191	320.6028	-511.7645	1	603.8949	-57.93428	7.22485E-006	-0.0012586	8
	23	65	1516.544	347.4345	-609.8765	1	701.8975	-60.3307	-5.910235E-006	0.0023261	8
	24	67	1193.986	378.4848	-743.1638	1	833.9924	-63.01078	6.651343E-007	-0.0006733	8
	25	70	946.5144	416.0706	-902.1108	1	993.438	-65.23995	-4.526254E-007	0.0022081	8
	26	72	751.7689	459.7895	-1098.037	1	1190.416	-67.2791	-4.043085E-006	0.0028595	8
	27	74	597.4265	515.6259	-1334.871	1	1430.997	-68.87976	-2.721505E-006	0.0027339	8
	28	77	477.4305	578.0334	-1617.108	1	1717.313	-70.33064	2.962414E-007	0.0006773	8
	29	79	376.6741	658.8956	-1982.175	1	2088.818	-71.61266	2.809729E-007	0.0006826	8
	30	81	298.2954	755.822	-2423.416	1	2538.545	-72.67819	2.913019E-007	0.0006715	8
	31	84	237.7717	870.5585	-2947.785	1	3073.647	-73.54674	3.031656E-007	0.0006452	8
	32	86	189.0121	1010.794	-3594.764	1	3734.171	-74.29481	3.159014E-007	0.0006628	8
	33	89	150.2404	1186.08	-4394.064	1	4551.328	-74.89428	2.049295E-008	0.0006407	7
	34	91	119.1737	1395.375	-5371.083	1	5549.379	-75.43684	2.010791E-008	0.0006519	7
	35	93	95.0169	1646.93	-6538.839	1	6743.056	-75.86302	2.039924E-008	0.0006412	7
	36	96	75.60484	1955.823	-7976.361	1	8212.647	-76.22276	2.013613E-008	0.0006401	7
	37	98	54.50582	2518.049	-10594.03	1	10889.17	-76.62971	1.942651E-008	0.0006462	7
	38	101	45.95588	2884.81	-12300.91	1	12634.65	-76.80151	2.225666E-008	0.0006422	7
	39	103	37.20238	3425.659	-14790.53	1	15182.06	-76.95956	2.251645E-008	0.0006141	7
	40	106	30.04808	4090.958	-17818.62	1	18282.21	-77.06961	2.111339E-008	0.0006378	7
	41	108	23.91582	4952.356	-21752.33	1	22308.96	-77.17408	1.787837E-008	0.0006357	7
	42	110	18.60119	6148.538	-27051.51	1	27741.46	-77.19479	2.201446E-008	0.0006368	7
	43	113	15.02404	7422.326	-32607.2	1	33441.3	-77.17635	2.026374E-008	0.0005979	7
	44	115	12.01923	9097.519	-39610.78	1	40642.08	-77.06504	2.144856E-008	0.0006326	7
	45	117	9.450605	11347.46	-48827.33	1	50128.57	-76.91672	-4.77185E-009	0.0006751	6
	46	120	7.512019	14109.29	-59672.39	1	61317.74	-76.69697	-4.927404E-009	0.0006853	6
	47	123	5.978954	17630.86	-72734.04	1	74840.41	-76.37422	-4.769178E-009	0.0006855	6
	48	127	4.734848	22285.2	-89039.91	1	91786.36	-75.94848	-5.910405E-009	0.0006638	6
	49	131	3.75601	28448.36	-108698.4	1	112359.5	-75.3336	-4.603001E-009	0.0007023	6
	50	136	3.004808	36159.14	-131485.2	1	136366.6	-74.62347	-5.160242E-009	0.0007011	6
	51	143	2.372217	47278.49	-160444.2	1	167265.1	-73.58121	-4.954045E-009	0.0006331	6
	52	147	1.878005	61719.18	-195059.7	1	204591.1	-72.44202	-4.147947E-009	0.0006789	6
	53	151	1.512097	78926.65	-232090.1	1	245143.3	-71.21842	-4.768482E-009	0.0007253	6
	54	157	1.201923	103841.8	-278322.3	1	297063	-69.53951	-4.381489E-009	0.000697	6
	55	163	0.956633	135373	-330099.8	1	356779.7	-67.7016	-6.072488E-009	4.661474E-005	6
