EXPLAIN
TAG	EISPOT
TITLE	LABEL	Potentiostatic EIS	Test Identifier
DATE	LABEL	2/26/2021	Date
TIME	LABEL	18:00:29	Time
NOTES	NOTES	1	Notes...
	
PSTAT	PSTAT	REF3000-16137	Potentiostat
VDC	POTEN	0.00000E+000	T	DC Voltage (V)
FREQINIT	QUANT	3.00000E+005	Initial Freq. (Hz)
FREQFINAL	QUANT	1.00000E+000	Final Freq. (Hz)
PTSPERDEC	QUANT	1.00000E+001	Points/decade
VAC	QUANT	5.00000E+001	AC Voltage (mV rms)
AREA	QUANT	1.00000E+000	Sample Area (cm^2)
SPEED	SELECTOR	2	Optimize for:
ZGUESS	QUANT	1.00000E+003	Estimated Z (ohms)
EOC	QUANT	0	Open Circuit (V)
SEQUENCER	TOGGLE	TRUE	Run as Sequence
PSTATMODEL	IQUANT	5	Pstat Model
PSTATSECTION	LABEL	REF3000-16137	Pstat Section
PSTATSERIALNO	LABEL	16137	Pstat Serial Number
CTRLMODE	IQUANT	1	Control Mode
IESTAB	IQUANT	0	I/E Stability
CASPEED	IQUANT	1	Control Amp Speed
CONVENTION	IQUANT	1	Current Convention
ICHRANGE	IQUANT	2	Ich Range
ICHRANGEMODE	TOGGLE	F	Ich Auto Range
ICHOFFSETENABLE	TOGGLE	T	Ich Offset Enable
ICHOFFSET	QUANT	0	Ich Offset (V)
ICHFILTER	IQUANT	3	Ich Filter
VCHRANGE	IQUANT	2	Vch Range
VCHRANGEMODE	TOGGLE	F	Vch Auto Range
VCHOFFSETENABLE	TOGGLE	T	Vch Offset Enable
VCHOFFSET	QUANT	0	Vch Offset (V)
VCHFILTER	IQUANT	3	Vch Filter
ACHRANGE	IQUANT	2	Ach Range
ACHOFFSETENABLE	TOGGLE	F	Ach Offset Enable
ACHOFFSET	QUANT	0	Ach Offset (V)
ACHFILTER	IQUANT	3	Ach Filter
IERANGELOWERLIMIT	IQUANT	2	I/E Range Lower Limit
IERANGEMODE	TOGGLE	F	I/E AutoRange
IERANGE	IQUANT	11	I/E Range
POSFEEDENABLE	TOGGLE	F	Positive Feedback IR Comp
POSFEEDRESISTANCE	QUANT	0	Positive Feedback Resistance (ohm)
ACHSELECT	IQUANT	0	Ach Select
CABLEID	IQUANT	13	Cable ID
DCCALDATE	LABEL	7/31/2020	DC Calibration Date
ACCALDATE	LABEL	7/31/2020	AC Calibration Date
THERMOSELECT	IQUANT	1	Thermo Select
FRAMEWORKVERSION	QUANT	6.33	Framework Version
INSTRUMENTVERSION	LABEL	3.50	Instrument Version
COMPLIANCEVOLTAGE	IQUANT	0	Compliance Voltage
ZCURVE	TABLE
	Pt	Time	Freq	Zreal	Zimag	Zsig	Zmod	Zphz	Idc	Vdc	IERange
	#	s	Hz	ohm	ohm	V	ohm	°	A	V	#
	0	7	300046.9	30.82292	-8.84516	1	32.06695	-16.01173	7.262899E-005	-0.0001441	11
	1	11	238359.4	32.29165	-10.38862	1	33.92159	-17.83362	2.439583E-005	0.0006674	10
	2	14	189328.1	33.82851	-12.4305	1	36.04005	-20.17617	-9.262501E-005	0.0007041	10
	3	17	150421.9	35.62993	-14.56693	1	38.49269	-22.2367	3.199537E-005	0.0008843	10
	4	19	119484.4	37.80282	-16.46661	1	41.23351	-23.53756	3.515031E-006	0.0005875	9
	5	22	94921.88	40.23334	-18.70343	1	44.36823	-24.93248	2.186308E-006	-0.0001962	9
	6	24	75421.88	42.75985	-21.17881	1	47.71736	-26.34907	-9.306704E-006	0.0002304	9
	7	27	59859.37	45.5167	-23.88707	1	51.40391	-27.6904	-1.017986E-005	0.000534	9
	8	29	47578.12	48.39352	-26.67591	1	55.25882	-28.86482	1.792826E-005	-0.0002394	9
	9	32	37828.12	51.43436	-29.81146	1	59.44928	-30.09667	1.154321E-006	-0.0001437	9
	10	34	30046.88	54.589	-33.38732	1	63.98962	-31.45048	1.037183E-006	-0.0001546	9
	11	37	23859.38	57.80825	-37.50281	1	68.90758	-32.97329	-1.22783E-005	0.0004406	9
	12	39	18984.38	61.06796	-42.64659	1	74.48508	-34.92838	1.747825E-006	-0.0001622	9
	13	41	15046.87	64.54149	-48.92184	1	80.98735	-37.16179	6.979744E-006	-0.0003026	9
	14	44	11953.13	68.13822	-56.53685	1	88.53944	-39.68377	9.003185E-007	-0.0001513	9
	15	46	9515.62	71.97441	-65.86088	1	97.5601	-42.46037	-3.961787E-006	-1.367337E-005	9
	16	48	7546.875	76.38224	-77.59483	1	108.8816	-45.4512	4.396518E-006	0.0001652	9
	17	51	5928.309	81.2314	-92.39801	1	123.0282	-48.67979	1.688121E-005	-0.0004081	9
	18	53	4733.456	86.44968	-109.5398	1	139.544	-51.71922	-1.256663E-005	0.0003107	9
	19	55	3796.875	92.3532	-129.6521	1	159.1815	-54.53713	-9.057232E-006	0.000199	9
	20	58	2987.132	99.2007	-157.6946	1	186.3018	-57.8273	-1.298543E-005	0.000524	9
	21	60	2390.625	107.5334	-188.3161	1	216.8557	-60.27251	-4.363942E-006	2.884915E-005	9
	22	62	1884.191	115.9297	-230.3366	1	257.8656	-63.28363	-1.35457E-005	0.0005439	9
	23	64	1516.544	126.5928	-276.4568	1	304.0627	-65.3964	-5.530323E-006	0.0005046	9
	24	67	1193.986	140.3119	-338.291	1	366.2353	-67.47295	-1.26548E-005	0.0003857	9
	25	69	946.5144	159.3139	-411.0882	1	440.8792	-68.81657	-9.287666E-006	0.0002046	9
	26	72	751.7689	173.4416	-502.0604	1	531.1747	-70.94203	-2.064382E-006	0.0014731	8
	27	74	597.4265	196.206	-613.0695	1	643.701	-72.25331	-2.391705E-006	0.0014446	8
	28	76	477.4305	222.911	-745.5281	1	778.1397	-73.35347	3.667291E-007	0.0006653	8
	29	78	376.6741	257.8977	-917.6944	1	953.244	-74.30315	3.640043E-007	0.0006665	8
	30	81	298.2954	300.7504	-1126.467	1	1165.924	-75.05152	3.689268E-007	0.0006648	8
	31	83	237.7717	352.7659	-1375.126	1	1419.653	-75.61198	3.705114E-007	0.0006622	8
	32	86	189.0121	418.8019	-1682.962	1	1734.288	-76.02589	3.643077E-007	0.0006614	8
	33	88	150.2404	502.3871	-2058.993	1	2119.397	-76.28796	3.70612E-007	0.0006671	8
	34	90	119.1737	609.5574	-2523.291	1	2595.873	-76.41911	3.715916E-007	0.0006656	8
	35	93	95.0169	743.434	-3076.414	1	3164.967	-76.41458	3.877671E-007	0.000665	8
	36	95	75.60484	915.8779	-3753.648	1	3863.768	-76.28794	3.81319E-007	0.0006644	8
	37	98	54.50582	1252.54	-4989.649	1	5144.458	-75.90836	-1.199177E-007	0.000641	7
	38	100	45.95588	1476.974	-5775.227	1	5961.099	-75.65448	-1.142768E-007	0.0006492	7
	39	103	37.20238	1837.116	-6909.92	1	7149.965	-75.1114	-1.196883E-007	0.0006336	7
	40	105	30.04808	2280.413	-8273.201	1	8581.733	-74.58974	-1.250277E-007	0.0006402	7
	41	107	23.91582	2900.218	-10025.21	1	10436.29	-73.86523	-1.187314E-007	0.0006375	7
	42	110	18.60119	3767.953	-12327.08	1	12890.09	-73.00346	-1.117132E-007	0.0006388	7
	43	112	15.02404	4735.753	-14657.58	1	15403.64	-72.09475	-1.199934E-007	0.0006325	7
	44	114	12.01923	6040.668	-17508.02	1	18520.81	-70.96439	-1.112874E-007	0.0006398	7
	45	117	9.450605	7842.573	-21084.21	1	22495.55	-69.5966	-1.196998E-007	0.0006364	7
	46	119	7.512019	10087.05	-25082.13	1	27034.46	-68.09195	-1.130023E-007	0.0006352	7
	47	122	5.978954	12796.93	-29764.03	1	32398.44	-66.73491	-1.068445E-007	0.0006402	7
	48	125	4.734848	16450.68	-34860.09	1	38546.73	-64.73711	-1.12202E-007	0.0006366	7
	49	128	3.75601	20870.88	-40214.83	1	45308.13	-62.57138	-1.685326E-007	0.0007114	6
	50	132	3.004808	25762.64	-45953.83	1	52682.71	-60.72414	-1.723208E-007	0.0007419	6
	51	135	2.372217	31833.39	-52527.92	1	61421.06	-58.78297	-1.686535E-007	0.0007757	6
	52	140	1.878005	38355.8	-59622.61	1	70894.45	-57.24643	-1.703013E-007	0.0006806	6
	53	144	1.512097	45004.85	-66872.02	1	80605.85	-56.05946	-1.668606E-007	0.0007406	6
	54	150	1.201923	52219.44	-74766.74	1	91197.23	-55.06834	-1.673107E-007	0.0006417	6
	55	156	0.956633	60955.29	-84671.4	1	104330.2	-54.24973	-1.724828E-007	6.048661E-005	6
