EXPLAIN
TAG	EISPOT
TITLE	LABEL	Potentiostatic EIS	Test Identifier
DATE	LABEL	2/26/2021	Date
TIME	LABEL	18:22:47	Time
NOTES	NOTES	1	Notes...
	
PSTAT	PSTAT	REF3000-16137	Potentiostat
VDC	POTEN	0.00000E+000	T	DC Voltage (V)
FREQINIT	QUANT	3.00000E+005	Initial Freq. (Hz)
FREQFINAL	QUANT	1.00000E+000	Final Freq. (Hz)
PTSPERDEC	QUANT	1.00000E+001	Points/decade
VAC	QUANT	5.00000E+001	AC Voltage (mV rms)
AREA	QUANT	1.00000E+000	Sample Area (cm^2)
SPEED	SELECTOR	2	Optimize for:
ZGUESS	QUANT	1.00000E+003	Estimated Z (ohms)
EOC	QUANT	0	Open Circuit (V)
SEQUENCER	TOGGLE	TRUE	Run as Sequence
PSTATMODEL	IQUANT	5	Pstat Model
PSTATSECTION	LABEL	REF3000-16137	Pstat Section
PSTATSERIALNO	LABEL	16137	Pstat Serial Number
CTRLMODE	IQUANT	1	Control Mode
IESTAB	IQUANT	0	I/E Stability
CASPEED	IQUANT	1	Control Amp Speed
CONVENTION	IQUANT	1	Current Convention
ICHRANGE	IQUANT	2	Ich Range
ICHRANGEMODE	TOGGLE	F	Ich Auto Range
ICHOFFSETENABLE	TOGGLE	T	Ich Offset Enable
ICHOFFSET	QUANT	0	Ich Offset (V)
ICHFILTER	IQUANT	3	Ich Filter
VCHRANGE	IQUANT	2	Vch Range
VCHRANGEMODE	TOGGLE	F	Vch Auto Range
VCHOFFSETENABLE	TOGGLE	T	Vch Offset Enable
VCHOFFSET	QUANT	0	Vch Offset (V)
VCHFILTER	IQUANT	3	Vch Filter
ACHRANGE	IQUANT	2	Ach Range
ACHOFFSETENABLE	TOGGLE	F	Ach Offset Enable
ACHOFFSET	QUANT	0	Ach Offset (V)
ACHFILTER	IQUANT	3	Ach Filter
IERANGELOWERLIMIT	IQUANT	2	I/E Range Lower Limit
IERANGEMODE	TOGGLE	F	I/E AutoRange
IERANGE	IQUANT	11	I/E Range
POSFEEDENABLE	TOGGLE	F	Positive Feedback IR Comp
POSFEEDRESISTANCE	QUANT	0	Positive Feedback Resistance (ohm)
ACHSELECT	IQUANT	0	Ach Select
CABLEID	IQUANT	13	Cable ID
DCCALDATE	LABEL	7/31/2020	DC Calibration Date
ACCALDATE	LABEL	7/31/2020	AC Calibration Date
THERMOSELECT	IQUANT	1	Thermo Select
FRAMEWORKVERSION	QUANT	6.33	Framework Version
INSTRUMENTVERSION	LABEL	3.50	Instrument Version
COMPLIANCEVOLTAGE	IQUANT	0	Compliance Voltage
ZCURVE	TABLE
	Pt	Time	Freq	Zreal	Zimag	Zsig	Zmod	Zphz	Idc	Vdc	IERange
	#	s	Hz	ohm	ohm	V	ohm	°	A	V	#
	0	7	300046.9	45.17477	-10.53942	1	46.38792	-13.13238	3.389685E-005	-0.0005222	9
	1	10	238359.4	46.77937	-13.18819	1	48.60286	-15.74438	5.556925E-005	-0.0022317	9
	2	14	189328.1	48.48995	-16.03891	1	51.07369	-18.30255	5.540239E-005	-0.0020771	9
	3	16	150421.9	50.48719	-19.38232	1	54.07985	-21.00208	4.11846E-005	-0.0007429	9
	4	19	119484.4	52.96251	-22.71835	1	57.62942	-23.21699	1.545639E-005	0.0004421	9
	5	21	94921.88	55.96325	-26.34503	1	61.85423	-25.20899	-1.597714E-005	0.0004659	9
	6	24	75421.88	59.324	-30.46638	1	66.68986	-27.18318	4.424519E-006	0.0002321	9
	7	26	59859.37	63.17613	-34.84756	1	72.14967	-28.88085	1.658615E-006	-0.0002254	9
	8	29	47578.12	67.47445	-39.73527	1	78.30513	-30.49356	-1.455402E-005	0.0006298	9
	9	31	37828.12	72.25055	-44.90384	1	85.0676	-31.86102	-1.203234E-005	0.0006463	9
	10	34	30046.88	77.33164	-50.56474	1	92.39576	-33.17942	-9.679837E-006	0.0001405	9
	11	36	23859.38	82.7024	-56.86257	1	100.3645	-34.51072	-7.800149E-006	0.0006519	9
	12	39	18984.38	88.33015	-64.26843	1	109.2367	-36.03939	1.278974E-005	-0.0004691	9
	13	41	15046.87	94.05443	-73.3999	1	119.3054	-37.96841	-1.564779E-005	0.0005074	9
	14	43	11953.13	99.9722	-84.06493	1	130.6191	-40.05992	5.699459E-006	-0.0003077	9
	15	46	9515.62	106.2882	-97.2881	1	144.0908	-42.4686	-8.810689E-006	8.617641E-005	9
	16	48	7546.875	113.1983	-113.6836	1	160.4301	-45.12257	8.997003E-006	-0.0004041	9
	17	50	5928.309	120.9615	-134.7349	1	181.0667	-48.08333	1.190684E-005	6.020024E-005	9
	18	53	4733.456	129.1338	-158.9416	1	204.7876	-50.90749	2.000244E-005	-0.0002885	9
	19	55	3796.875	138.1096	-187.876	1	233.1773	-53.68002	4.829062E-006	0.000256	9
	20	57	2987.132	149.8903	-226.2497	1	271.3964	-56.47555	-1.459725E-005	0.0004222	9
	21	60	2390.625	161.6898	-270.6318	1	315.2541	-59.14367	-1.016399E-005	0.0001457	9
	22	62	1884.191	178.4721	-327.4347	1	372.9152	-61.40689	1.238378E-005	5.294276E-005	9
	23	64	1516.544	193.6789	-388.7857	1	434.3568	-63.51919	-3.214488E-006	0.0016309	8
	24	66	1193.986	214.9014	-473.766	1	520.2277	-65.60085	-2.612519E-006	0.0017963	8
	25	69	946.5144	238.6603	-575.1239	1	622.6767	-67.46292	-1.260929E-006	0.0016266	8
	26	71	751.7689	267.9324	-697.1533	1	746.8671	-68.97706	-1.812198E-006	0.0008832	8
	27	74	597.4265	301.9007	-846.5906	1	898.8101	-70.37337	2.828695E-006	-0.0004219	8
	28	76	477.4305	341.0868	-1024.601	1	1079.883	-71.58755	4.226117E-007	0.0006812	8
	29	78	376.6741	390.4103	-1255.026	1	1314.348	-72.72026	4.318557E-007	0.0006807	8
	30	81	298.2954	448.5533	-1534.159	1	1598.388	-73.70228	4.089929E-007	0.0006881	8
	31	83	237.7717	516.39	-1866.906	1	1937.007	-74.53845	4.33843E-007	0.0006715	8
	32	85	189.0121	599.1906	-2278.853	1	2356.311	-75.26837	4.167345E-007	0.0006758	8
	33	88	150.2404	699.6353	-2784.671	1	2871.216	-75.89663	4.261999E-007	0.0006691	8
	34	90	119.1737	823.7584	-3412.27	1	3510.294	-76.42786	4.402829E-007	0.0006729	8
	35	93	95.0169	972.379	-4164.047	1	4276.074	-76.85595	4.390499E-007	0.0006768	8
	36	95	75.60484	1160.367	-5104.692	1	5234.915	-77.1935	-8.517299E-009	0.0006253	7
	37	98	54.50582	1506.999	-6812.134	1	6976.834	-77.52578	-9.302322E-009	0.0006463	7
	38	100	45.95588	1737.371	-7927.332	1	8115.481	-77.63838	-4.380422E-009	0.0006285	7
	39	103	37.20238	2081.068	-9547.67	1	9771.84	-77.70379	-1.096831E-008	0.0006579	7
	40	105	30.04808	2524.66	-11541.57	1	11814.47	-77.66119	-1.023153E-008	0.0006523	7
	41	107	23.91582	3108.497	-14102.79	1	14441.31	-77.56979	-7.744451E-009	0.0006458	7
	42	110	18.60119	3974.241	-17597.62	1	18040.8	-77.27383	-1.055706E-008	0.0006589	7
	43	112	15.02404	4918.82	-21226.34	1	21788.81	-76.95303	-1.055966E-008	0.0006529	7
	44	114	12.01923	6225.189	-25800.81	1	26541.19	-76.43501	-5.793861E-009	0.0006564	7
	45	117	9.450605	8043.286	-31756.65	1	32759.42	-75.78709	-1.099559E-008	0.0006521	7
	46	119	7.512019	10389.36	-38643.86	1	40016.08	-74.95191	-8.013165E-009	0.0006385	7
	47	122	5.978954	13508.41	-46844.86	1	48753.65	-73.9143	-5.197235E-008	0.000705	6
	48	127	4.734848	17748.5	-56783.74	1	59492.88	-72.64268	-5.319036E-008	0.0006838	6
	49	130	3.75601	23348.84	-68414.55	1	72289.14	-71.15601	-5.167482E-008	0.0007195	6
	50	135	3.004808	30392.05	-81307.8	1	86802.28	-69.50475	-5.046399E-008	0.0006688	6
	51	142	2.372217	40029.96	-96852.1	1	104798.5	-67.54419	-5.151906E-008	0.0006231	6
	52	146	1.878005	52246.14	-113755.6	1	125179.8	-65.33143	-5.106706E-008	0.0007037	6
	53	151	1.512097	65970.32	-130743.1	1	146444	-63.22542	-5.011234E-008	0.0006003	6
	54	156	1.201923	83147.68	-150261.1	1	171732.1	-61.04184	-5.025414E-008	0.000729	6
	55	162	0.956633	102543.9	-170855.7	1	199265.9	-59.02873	-5.092287E-008	5.545634E-005	6
