EXPLAIN
TAG	EISPOT
TITLE	LABEL	Potentiostatic EIS	Test Identifier
DATE	LABEL	2/26/2021	Date
TIME	LABEL	19:12:16	Time
NOTES	NOTES	1	Notes...
	
PSTAT	PSTAT	REF3000-16137	Potentiostat
VDC	POTEN	0.00000E+000	T	DC Voltage (V)
FREQINIT	QUANT	3.00000E+005	Initial Freq. (Hz)
FREQFINAL	QUANT	1.00000E+000	Final Freq. (Hz)
PTSPERDEC	QUANT	1.00000E+001	Points/decade
VAC	QUANT	5.00000E+001	AC Voltage (mV rms)
AREA	QUANT	1.00000E+000	Sample Area (cm^2)
SPEED	SELECTOR	2	Optimize for:
ZGUESS	QUANT	1.00000E+003	Estimated Z (ohms)
EOC	QUANT	0	Open Circuit (V)
SEQUENCER	TOGGLE	TRUE	Run as Sequence
PSTATMODEL	IQUANT	5	Pstat Model
PSTATSECTION	LABEL	REF3000-16137	Pstat Section
PSTATSERIALNO	LABEL	16137	Pstat Serial Number
CTRLMODE	IQUANT	1	Control Mode
IESTAB	IQUANT	0	I/E Stability
CASPEED	IQUANT	1	Control Amp Speed
CONVENTION	IQUANT	1	Current Convention
ICHRANGE	IQUANT	2	Ich Range
ICHRANGEMODE	TOGGLE	F	Ich Auto Range
ICHOFFSETENABLE	TOGGLE	T	Ich Offset Enable
ICHOFFSET	QUANT	0	Ich Offset (V)
ICHFILTER	IQUANT	3	Ich Filter
VCHRANGE	IQUANT	2	Vch Range
VCHRANGEMODE	TOGGLE	F	Vch Auto Range
VCHOFFSETENABLE	TOGGLE	T	Vch Offset Enable
VCHOFFSET	QUANT	0	Vch Offset (V)
VCHFILTER	IQUANT	3	Vch Filter
ACHRANGE	IQUANT	2	Ach Range
ACHOFFSETENABLE	TOGGLE	F	Ach Offset Enable
ACHOFFSET	QUANT	0	Ach Offset (V)
ACHFILTER	IQUANT	3	Ach Filter
IERANGELOWERLIMIT	IQUANT	2	I/E Range Lower Limit
IERANGEMODE	TOGGLE	F	I/E AutoRange
IERANGE	IQUANT	11	I/E Range
POSFEEDENABLE	TOGGLE	F	Positive Feedback IR Comp
POSFEEDRESISTANCE	QUANT	0	Positive Feedback Resistance (ohm)
ACHSELECT	IQUANT	0	Ach Select
CABLEID	IQUANT	13	Cable ID
DCCALDATE	LABEL	7/31/2020	DC Calibration Date
ACCALDATE	LABEL	7/31/2020	AC Calibration Date
THERMOSELECT	IQUANT	1	Thermo Select
FRAMEWORKVERSION	QUANT	6.33	Framework Version
INSTRUMENTVERSION	LABEL	3.50	Instrument Version
COMPLIANCEVOLTAGE	IQUANT	0	Compliance Voltage
ZCURVE	TABLE
	Pt	Time	Freq	Zreal	Zimag	Zsig	Zmod	Zphz	Idc	Vdc	IERange
	#	s	Hz	ohm	ohm	V	ohm	°	A	V	#
	0	17	300046.9	367.6498	-50.50742	1	371.103	-7.82228	-2.274038E-005	0.0012387	9
	1	25	238359.4	374.4821	-53.01392	1	378.216	-8.05759	1.749403E-005	-0.0018768	9
	2	31	189328.1	379.9078	-57.64257	1	384.2559	-8.627558	-1.761122E-005	0.0010376	9
	3	36	150421.9	387.5168	-61.6781	1	392.3946	-9.043476	8.372677E-005	-0.0024214	9
	4	40	119484.4	395.0417	-69.68797	1	401.1413	-10.00442	3.665525E-006	0.0015346	9
	5	46	94921.88	404.5367	-67.24109	1	410.087	-9.437281	1.16997E-005	-0.0006129	8
	6	48	75421.88	411.7213	-79.66953	1	419.3586	-10.95159	1.483184E-005	-0.0042232	8
	7	51	59859.37	421.0554	-95.0097	1	431.6416	-12.71564	1.334111E-005	-0.0045065	8
	8	53	47578.12	431.1824	-111.3522	1	445.3286	-14.48017	-1.340582E-005	0.0047089	8
	9	56	37828.12	442.8955	-132.1557	1	462.1922	-16.61459	1.080179E-006	0.0036076	8
	10	58	30046.88	456.924	-155.9473	1	482.8034	-18.84468	1.045553E-005	-0.0045842	8
	11	61	23859.38	473.7596	-182.0059	1	507.5178	-21.01546	-8.17213E-006	0.005802	8
	12	63	18984.38	493.6912	-212.5753	1	537.5121	-23.29592	-7.315107E-006	0.0061439	8
	13	66	15046.87	517.2933	-245.1047	1	572.4235	-25.3526	1.458769E-005	-0.0040576	8
	14	68	11953.13	545.8613	-289.9404	1	618.0858	-27.97552	-1.209559E-005	0.0026985	8
	15	70	9515.62	578.3149	-336.571	1	669.1249	-30.1988	-1.064099E-005	0.0018531	8
	16	72	7546.875	618.9401	-391.4416	1	732.3342	-32.31084	1.494104E-005	-0.0040914	8
	17	75	5928.309	661.4969	-447.0858	1	798.4133	-34.05357	1.166053E-005	-0.0004997	8
	18	77	4733.456	714.9608	-508.5193	1	877.3601	-35.42252	6.420772E-006	0.0018156	8
	19	80	3796.875	764.4319	-579.2116	1	959.084	-37.15128	2.540703E-006	-0.0032896	8
	20	83	2987.132	821.0292	-667.8931	1	1058.381	-39.12776	-1.07292E-005	0.0017377	8
	21	86	2390.625	875.0677	-762.0866	1	1160.396	-41.05224	-1.254628E-005	0.0028563	8
	22	89	1884.191	934.56	-890.4655	1	1290.865	-43.61594	-7.209605E-006	2.026868E-005	8
	23	91	1516.544	990.868	-1029.74	1	1429.05	-46.1021	-1.155037E-005	0.0060997	8
	24	95	1193.986	1059.551	-1219.709	1	1615.655	-49.01944	-1.26701E-005	0.0028532	8
	25	98	946.5144	1120.382	-1458.838	1	1839.42	-52.47587	7.490882E-006	-0.0043957	8
	26	101	751.7689	1201.017	-1735.515	1	2110.558	-55.31586	-7.364864E-006	8.775046E-005	8
	27	104	597.4265	1286.413	-2089.896	1	2454.083	-58.38606	1.512024E-005	-0.0041316	8
	28	106	477.4305	1370.672	-2524.681	1	2872.761	-61.50208	3.677469E-009	0.0006648	8
	29	110	376.6741	1484.678	-3086.392	1	3424.921	-64.31059	1.941659E-008	0.0006519	8
	30	112	298.2954	1617.229	-3771.241	1	4103.375	-66.78879	-1.895006E-009	0.0006676	8
	31	114	237.7717	1777.718	-4600.804	1	4932.31	-68.87382	-8.270759E-009	0.0006293	7
	32	117	189.0121	1964.067	-5625.504	1	5958.511	-70.75406	-8.760328E-009	0.00063	7
	33	119	150.2404	2189.163	-6887.608	1	7227.142	-72.36762	-9.016136E-009	0.0006185	7
	34	122	119.1737	2463.161	-8455.945	1	8807.394	-73.75951	-1.330433E-008	0.0006543	7
	35	124	95.0169	2790.569	-10342.31	1	10712.17	-74.89999	-7.963783E-009	0.0006333	7
	36	127	75.60484	3191.469	-12678.62	1	13074.13	-75.87101	-1.176568E-008	0.0006208	7
	37	129	54.50582	3918.808	-16991.07	1	17437.13	-77.01245	-1.366165E-008	0.0006395	7
	38	132	45.95588	4401.38	-19785.67	1	20269.31	-77.4586	-1.016955E-008	0.0006194	7
	39	134	37.20238	5099.769	-23912.15	1	24449.92	-77.96084	-1.098384E-008	0.000615	7
	40	136	30.04808	5965.69	-28970.7	1	29578.55	-78.36421	-9.758981E-009	0.0006171	7
	41	139	23.91582	7079.083	-35546.37	1	36244.42	-78.73687	-1.374395E-008	0.0006359	7
	42	141	18.60119	8623.416	-44587.46	1	45413.71	-79.05389	-2.136526E-009	0.0006746	6
	43	143	15.02404	10279.47	-54001.85	1	54971.51	-79.22246	-1.765225E-009	0.0006937	6
	44	146	12.01923	12402.07	-66005.25	1	67160.29	-79.35847	-1.619339E-009	0.0006635	6
	45	148	9.450605	15313.84	-81938.73	1	83357.48	-79.4139	-2.198706E-009	0.0006739	6
	46	151	7.512019	18707.21	-100693.6	1	102416.6	-79.47538	-1.656599E-009	0.0006829	6
	47	154	5.978954	23026.58	-123627	1	125753.2	-79.44907	-1.770353E-009	0.0006621	6
	48	158	4.734848	28733.37	-152466.6	1	155150.4	-79.32739	-2.178029E-009	0.0006791	6
	49	162	3.75601	35704.8	-187714.1	1	191079.6	-79.23051	-1.926459E-009	0.0006633	6
	50	167	3.004808	44491.21	-229261.9	1	233539.1	-79.01753	-2.264436E-009	0.0006565	6
	51	174	2.372217	56221.21	-283378.1	1	288901.3	-78.77843	-2.205946E-009	0.0006084	6
	52	178	1.878005	71733.37	-348993.5	1	356289.4	-78.38499	-2.122253E-009	0.0006888	6
	53	182	1.512097	90686.47	-422805.2	1	432421.4	-77.89419	-8.415658E-010	0.0005668	5
	54	188	1.201923	115686.6	-518757.9	1	531500.9	-77.42836	-8.902327E-010	0.0006884	5
	55	194	0.956633	148504.6	-634397.5	1	651547.3	-76.825	-1.022526E-009	1.958141E-005	5
