EXPLAIN
TAG	EISPOT
TITLE	LABEL	Potentiostatic EIS	Test Identifier
DATE	LABEL	2/26/2021	Date
TIME	LABEL	19:27:13	Time
NOTES	NOTES	1	Notes...
	
PSTAT	PSTAT	REF3000-16137	Potentiostat
VDC	POTEN	0.00000E+000	T	DC Voltage (V)
FREQINIT	QUANT	3.00000E+005	Initial Freq. (Hz)
FREQFINAL	QUANT	1.00000E+000	Final Freq. (Hz)
PTSPERDEC	QUANT	1.00000E+001	Points/decade
VAC	QUANT	5.00000E+001	AC Voltage (mV rms)
AREA	QUANT	1.00000E+000	Sample Area (cm^2)
SPEED	SELECTOR	2	Optimize for:
ZGUESS	QUANT	1.00000E+003	Estimated Z (ohms)
EOC	QUANT	0	Open Circuit (V)
SEQUENCER	TOGGLE	TRUE	Run as Sequence
PSTATMODEL	IQUANT	5	Pstat Model
PSTATSECTION	LABEL	REF3000-16137	Pstat Section
PSTATSERIALNO	LABEL	16137	Pstat Serial Number
CTRLMODE	IQUANT	1	Control Mode
IESTAB	IQUANT	0	I/E Stability
CASPEED	IQUANT	1	Control Amp Speed
CONVENTION	IQUANT	1	Current Convention
ICHRANGE	IQUANT	2	Ich Range
ICHRANGEMODE	TOGGLE	F	Ich Auto Range
ICHOFFSETENABLE	TOGGLE	T	Ich Offset Enable
ICHOFFSET	QUANT	0	Ich Offset (V)
ICHFILTER	IQUANT	3	Ich Filter
VCHRANGE	IQUANT	2	Vch Range
VCHRANGEMODE	TOGGLE	F	Vch Auto Range
VCHOFFSETENABLE	TOGGLE	T	Vch Offset Enable
VCHOFFSET	QUANT	0	Vch Offset (V)
VCHFILTER	IQUANT	3	Vch Filter
ACHRANGE	IQUANT	2	Ach Range
ACHOFFSETENABLE	TOGGLE	F	Ach Offset Enable
ACHOFFSET	QUANT	0	Ach Offset (V)
ACHFILTER	IQUANT	3	Ach Filter
IERANGELOWERLIMIT	IQUANT	2	I/E Range Lower Limit
IERANGEMODE	TOGGLE	F	I/E AutoRange
IERANGE	IQUANT	11	I/E Range
POSFEEDENABLE	TOGGLE	F	Positive Feedback IR Comp
POSFEEDRESISTANCE	QUANT	0	Positive Feedback Resistance (ohm)
ACHSELECT	IQUANT	0	Ach Select
CABLEID	IQUANT	13	Cable ID
DCCALDATE	LABEL	7/31/2020	DC Calibration Date
ACCALDATE	LABEL	7/31/2020	AC Calibration Date
THERMOSELECT	IQUANT	1	Thermo Select
FRAMEWORKVERSION	QUANT	6.33	Framework Version
INSTRUMENTVERSION	LABEL	3.50	Instrument Version
COMPLIANCEVOLTAGE	IQUANT	0	Compliance Voltage
ZCURVE	TABLE
	Pt	Time	Freq	Zreal	Zimag	Zsig	Zmod	Zphz	Idc	Vdc	IERange
	#	s	Hz	ohm	ohm	V	ohm	°	A	V	#
	0	18	300046.9	1386.095	-461.1187	1	1460.784	-18.40098	1.637094E-005	-0.0009886	9
	1	30	238359.4	1473.617	-426.5663	1	1534.115	-16.14408	2.76533E-005	0.0010101	9
	2	49	189328.1	1533.052	-368.0724	1	1576.618	-13.50068	-5.347381E-007	-0.0018484	9
	3	55	150421.9	1604.669	-338.7851	1	1640.042	-11.92148	-8.965622E-005	0.0041557	9
	4	65	119484.4	1646.9	-266.463	1	1668.317	-9.190622	6.820977E-006	0.0116334	8
	5	71	94921.88	1674.901	-244.4089	1	1692.639	-8.302254	-8.825143E-006	0.0082539	8
	6	74	75421.88	1696.846	-250.5857	1	1715.249	-8.400572	-1.547957E-005	0.0092858	8
	7	77	59859.37	1724.717	-253.71	1	1743.277	-8.368332	1.836021E-005	-0.0079569	8
	8	80	47578.12	1754.23	-265.3562	1	1774.186	-8.601718	2.286837E-005	-0.0062952	8
	9	86	37828.12	1791.212	-286.026	1	1813.905	-9.072563	-1.451314E-005	0.0012247	8
	10	89	30046.88	1826.838	-314.259	1	1853.671	-9.76069	-1.722565E-006	-0.0038809	8
	11	95	23859.38	1865.837	-352.8909	1	1898.916	-10.71	2.305846E-005	-0.0062552	8
	12	98	18984.38	1906.104	-395.8489	1	1946.774	-11.73209	2.305372E-005	-0.0062475	8
	13	101	15046.87	1955.756	-448.9035	1	2006.613	-12.92715	8.117489E-006	0.0033267	8
	14	104	11953.13	2009.307	-522.4937	1	2076.129	-14.57619	-2.18111E-005	0.0082124	8
	15	107	9515.62	2068.487	-599.6078	1	2153.641	-16.16568	-9.012938E-006	0.0085223	8
	16	111	7546.875	2138.648	-700.9395	1	2250.585	-18.1465	-9.475258E-006	-0.0011644	8
	17	115	5928.309	2220.573	-826.5742	1	2369.423	-20.41701	-9.037872E-006	-0.0012211	8
	18	119	4733.456	2324.301	-967.888	1	2517.773	-22.60787	6.051803E-006	-0.006137	8
	19	125	3796.875	2435.193	-1114.587	1	2678.146	-24.59355	-1.567196E-005	0.0095269	8
	20	130	2987.132	2570.517	-1326.251	1	2892.49	-27.29134	1.863037E-005	-0.0080123	8
	21	135	2390.625	2737.332	-1538.399	1	3140.009	-29.33629	2.284043E-005	-0.0061226	8
	22	141	1884.191	2945.209	-1805.694	1	3454.676	-31.51226	-2.042562E-005	0.0048575	8
	23	146	1516.544	3120.036	-2038.858	1	3727.139	-33.16351	-1.7995E-005	0.0029569	8
	24	151	1193.986	3388.194	-2393.843	1	4148.536	-35.24215	-9.120937E-006	-0.0012599	8
	25	157	946.5144	3670.228	-2711.223	1	4563.037	-36.45355	-9.332374E-006	0.0086969	8
	26	161	751.7689	4007.358	-3044.798	1	5032.863	-37.22764	2.368536E-005	-0.0064593	8
	27	165	597.4265	4168.147	-3622.262	1	5522.159	-40.99175	-8.964251E-006	-0.0013219	8
	28	168	477.4305	4516.765	-4158.947	1	6139.87	-42.63826	-1.738291E-007	0.0006864	8
	29	170	376.6741	4831.48	-4865.188	1	6856.622	-45.19917	-4.630686E-008	0.0006198	7
	30	173	298.2954	5130.736	-5730.535	1	7691.78	-48.16087	-4.195946E-008	0.0006453	7
	31	175	237.7717	5437.217	-6781.924	1	8692.4	-51.28008	-4.507027E-008	0.000627	7
	32	178	189.0121	5771.372	-8110.075	1	9954	-54.56321	-4.637586E-008	0.0006746	7
	33	180	150.2404	6142.331	-9768.55	1	11539.19	-57.83888	-4.324577E-008	0.0006008	7
	34	182	119.1737	6571.901	-11853.18	1	13553.15	-60.99418	-4.869226E-008	0.0006628	7
	35	185	95.0169	7060.318	-14376.11	1	16016.27	-63.84367	-4.809306E-008	0.0006552	7
	36	187	75.60484	7641.421	-17518.89	1	19112.89	-66.43404	-4.280902E-008	0.000597	7
	37	190	54.50582	8661.868	-23357.19	1	24911.57	-69.65302	-4.682698E-008	0.0006236	7
	38	192	45.95588	9321.973	-27145.89	1	28701.89	-71.04739	-4.642714E-008	0.0006279	7
	39	195	37.20238	10265.57	-32759.35	1	34330.12	-72.60094	-4.504041E-008	0.0006618	7
	40	197	30.04808	11405.37	-39629.56	1	41238.14	-73.9442	-4.325319E-008	0.0006427	7
	41	199	23.91582	12855.03	-48628.75	1	50299.18	-75.19256	-4.891652E-009	0.0007003	6
	42	202	18.60119	14897.82	-60913.43	1	62708.78	-76.25674	-5.579949E-009	0.0006637	6
	43	204	15.02404	16881.69	-73862.44	1	75767.09	-77.12585	-4.836172E-009	0.0006613	6
	44	206	12.01923	19454.95	-90314.7	1	92386.37	-77.84351	-5.513901E-009	0.0006724	6
	45	209	9.450605	22724.98	-112201.8	1	114480	-78.55038	-6.049346E-009	0.0007071	6
	46	212	7.512019	26803.86	-138270.2	1	140844.2	-79.02921	-4.729285E-009	0.0006424	6
	47	215	5.978954	31630.75	-170072	1	172988.4	-79.46426	-5.433457E-009	0.0007118	6
	48	219	4.734848	37717.84	-210367.4	1	213722	-79.83515	-5.283123E-009	0.0006411	6
	49	222	3.75601	45251.52	-259774.7	1	263686.5	-80.1185	-4.586842E-009	0.0006545	6
	50	228	3.004808	54288	-318481	1	323074.8	-80.32639	-4.765439E-009	0.0007021	6
	51	234	2.372217	65951.09	-395253.8	1	400718.2	-80.52704	-5.387909E-009	0.0007506	6
	52	238	1.878005	81202.26	-489397.8	1	496088.7	-80.57915	-6.791642E-010	0.000643	5
	53	243	1.512097	98482.6	-595357	1	603447.4	-80.60732	-5.464355E-010	0.000727	5
	54	248	1.201923	119800.3	-736248.3	1	745931.4	-80.75799	-6.596518E-010	0.0006311	5
	55	255	0.956633	147340.8	-907742.2	1	919622.3	-80.7804	-7.179539E-010	1.72588E-005	5
