EXPLAIN
TAG	EISPOT
TITLE	LABEL	Potentiostatic EIS	Test Identifier
DATE	LABEL	2/26/2021	Date
TIME	LABEL	19:31:37	Time
NOTES	NOTES	1	Notes...
	
PSTAT	PSTAT	REF3000-16137	Potentiostat
VDC	POTEN	0.00000E+000	T	DC Voltage (V)
FREQINIT	QUANT	3.00000E+005	Initial Freq. (Hz)
FREQFINAL	QUANT	1.00000E+000	Final Freq. (Hz)
PTSPERDEC	QUANT	1.00000E+001	Points/decade
VAC	QUANT	5.00000E+001	AC Voltage (mV rms)
AREA	QUANT	1.00000E+000	Sample Area (cm^2)
SPEED	SELECTOR	2	Optimize for:
ZGUESS	QUANT	1.00000E+003	Estimated Z (ohms)
EOC	QUANT	0	Open Circuit (V)
SEQUENCER	TOGGLE	TRUE	Run as Sequence
PSTATMODEL	IQUANT	5	Pstat Model
PSTATSECTION	LABEL	REF3000-16137	Pstat Section
PSTATSERIALNO	LABEL	16137	Pstat Serial Number
CTRLMODE	IQUANT	1	Control Mode
IESTAB	IQUANT	0	I/E Stability
CASPEED	IQUANT	1	Control Amp Speed
CONVENTION	IQUANT	1	Current Convention
ICHRANGE	IQUANT	2	Ich Range
ICHRANGEMODE	TOGGLE	F	Ich Auto Range
ICHOFFSETENABLE	TOGGLE	T	Ich Offset Enable
ICHOFFSET	QUANT	0	Ich Offset (V)
ICHFILTER	IQUANT	3	Ich Filter
VCHRANGE	IQUANT	2	Vch Range
VCHRANGEMODE	TOGGLE	F	Vch Auto Range
VCHOFFSETENABLE	TOGGLE	T	Vch Offset Enable
VCHOFFSET	QUANT	0	Vch Offset (V)
VCHFILTER	IQUANT	3	Vch Filter
ACHRANGE	IQUANT	2	Ach Range
ACHOFFSETENABLE	TOGGLE	F	Ach Offset Enable
ACHOFFSET	QUANT	0	Ach Offset (V)
ACHFILTER	IQUANT	3	Ach Filter
IERANGELOWERLIMIT	IQUANT	2	I/E Range Lower Limit
IERANGEMODE	TOGGLE	F	I/E AutoRange
IERANGE	IQUANT	11	I/E Range
POSFEEDENABLE	TOGGLE	F	Positive Feedback IR Comp
POSFEEDRESISTANCE	QUANT	0	Positive Feedback Resistance (ohm)
ACHSELECT	IQUANT	0	Ach Select
CABLEID	IQUANT	13	Cable ID
DCCALDATE	LABEL	7/31/2020	DC Calibration Date
ACCALDATE	LABEL	7/31/2020	AC Calibration Date
THERMOSELECT	IQUANT	1	Thermo Select
FRAMEWORKVERSION	QUANT	6.33	Framework Version
INSTRUMENTVERSION	LABEL	3.50	Instrument Version
COMPLIANCEVOLTAGE	IQUANT	0	Compliance Voltage
ZCURVE	TABLE
	Pt	Time	Freq	Zreal	Zimag	Zsig	Zmod	Zphz	Idc	Vdc	IERange
	#	s	Hz	ohm	ohm	V	ohm	°	A	V	#
	0	14	300046.9	2031.04	-1134.146	1	2326.243	-29.17927	2.390295E-005	0.0009657	9
	1	31	238359.4	2235.732	-1039.033	1	2465.378	-24.92616	4.515749E-007	0.0014603	9
	2	43	189328.1	2387.525	-940.3293	1	2566.027	-21.49706	-1.466532E-005	0.0016878	9
	3	51	150421.9	2508.168	-702.3589	1	2604.653	-15.64377	2.615701E-005	-0.0017734	9
	4	58	119484.4	2709.496	-653.9974	1	2787.307	-13.57006	7.150972E-005	-0.0216072	8
	5	66	94921.88	2807.229	-594.0308	1	2869.391	-11.94797	-2.350841E-005	0.0087606	8
	6	71	75421.88	2884.358	-537.8451	1	2934.075	-10.56261	-1.488101E-005	0.0009912	8
	7	78	59859.37	2960.403	-509.3635	1	3003.904	-9.76266	-2.341234E-005	0.0069643	8
	8	86	47578.12	3023.149	-497.9379	1	3063.882	-9.353115	1.626014E-005	8.349187E-005	8
	9	92	37828.12	3108.505	-495.6758	1	3147.777	-9.059992	2.473401E-005	-0.0067088	8
	10	97	30046.88	3170.616	-497.3921	1	3209.393	-8.915643	-2.349224E-005	0.0070111	8
	11	102	23859.38	3237.956	-518.78	1	3279.252	-9.102476	-2.351664E-005	0.0070431	8
	12	107	18984.38	3324.692	-574.6953	1	3373.996	-9.80705	-1.651598E-006	0.0008266	9
	13	113	15046.87	3405.638	-621.3299	1	3461.852	-10.33942	-2.169991E-005	0.004917	8
	14	118	11953.13	3493.487	-695.0135	1	3561.951	-11.25182	6.719163E-006	-0.0067138	8
	15	123	9515.62	3604.579	-798.6398	1	3691.993	-12.49279	2.855374E-005	-0.0008405	9
	16	129	7546.875	3711.188	-914.4278	1	3822.184	-13.84182	1.016272E-005	-0.0007622	9
	17	134	5928.309	3791.991	-1027.648	1	3928.773	-15.16323	-9.280448E-006	-0.0015447	8
	18	139	4733.456	3960.611	-1211.727	1	4141.826	-17.01121	-2.390045E-005	0.0088633	8
	19	145	3796.875	4104.938	-1406.947	1	4339.357	-18.91889	1.641612E-005	0.0001305	8
	20	150	2987.132	4304.633	-1628.929	1	4602.529	-20.72729	2.029138E-005	-0.0086825	8
	21	155	2390.625	4491.208	-1904.088	1	4878.166	-22.97495	-1.889251E-005	0.0029355	8
	22	161	1884.191	4784.442	-2228.146	1	5277.833	-24.9717	-1.405273E-006	-0.0044123	8
	23	166	1516.544	5020.424	-2602.23	1	5654.756	-27.399	-5.045826E-006	0.0068892	7
	24	170	1193.986	5370.24	-3056.377	1	6179.071	-29.64561	-1.826219E-006	-0.0075848	7
	25	175	946.5144	5710.629	-3579.11	1	6739.534	-32.07723	1.336879E-006	0.0104933	7
	26	178	751.7689	6128.999	-4123.156	1	7386.815	-33.92987	-5.931232E-006	0.0132712	7
	27	180	597.4265	6648.658	-4771.781	1	8183.798	-35.66723	6.016011E-006	-0.0123397	7
	28	183	477.4305	7069.68	-5442.909	1	8922.199	-37.59248	-5.529185E-008	0.0006295	7
	29	185	376.6741	7612.055	-6272.188	1	9863.25	-39.48787	-5.406918E-008	0.0006686	7
	30	187	298.2954	8163.994	-7233.437	1	10907.49	-41.54149	-4.830325E-008	0.0006317	7
	31	190	237.7717	8704.103	-8366.226	1	12072.91	-43.86608	-5.360554E-008	0.0006302	7
	32	192	189.0121	9255.847	-9771.72	1	13459.47	-46.55303	-5.641619E-008	0.0006756	7
	33	194	150.2404	9825.72	-11524.79	1	15144.82	-49.55001	-4.938923E-008	0.0005936	7
	34	197	119.1737	10428.04	-13743.45	1	17251.85	-52.81009	-5.247073E-008	0.0006206	7
	35	199	95.0169	11070.21	-16448.74	1	19827.02	-56.05894	-5.647284E-008	0.0006783	7
	36	202	75.60484	11797.66	-19847.93	1	23089.5	-59.27264	-4.831238E-008	0.0006243	7
	37	204	54.50582	13005.19	-26216.71	1	29265.18	-63.61561	-5.571599E-008	0.0006425	7
	38	207	45.95588	13808.25	-30375.01	1	33366.29	-65.55382	-5.611397E-008	0.0006288	7
	39	209	37.20238	14900.21	-36534.23	1	39455.88	-67.81228	-5.143205E-008	0.000595	7
	40	211	30.04808	16286.66	-44137.49	1	47046.5	-69.74602	-6.350982E-009	0.000678	6
	41	214	23.91582	17955.92	-54039.81	1	56944.85	-71.6198	-6.449636E-009	0.0007069	6
	42	216	18.60119	20304.36	-67640.43	1	70622.2	-73.29125	-5.678918E-009	0.0007055	6
	43	219	15.02404	22520.74	-81817.44	1	84860.34	-74.61012	-5.353105E-009	0.0006488	6
	44	221	12.01923	25422.72	-99935.6	1	103118.5	-75.7272	-5.796313E-009	0.0006762	6
	45	224	9.450605	29173.89	-124088.7	1	127472.1	-76.76974	-6.527725E-009	0.0006853	6
	46	226	7.512019	33620.37	-152716.9	1	156373.9	-77.58448	-5.668582E-009	0.000618	6
	47	229	5.978954	39017.38	-187731.1	1	191742.8	-78.259	-5.732236E-009	0.0007014	6
	48	233	4.734848	45667.81	-232232.4	1	236680.1	-78.87491	-5.511939E-009	0.0006195	6
	49	237	3.75601	54067.05	-286495.9	1	291553	-79.31292	-5.335297E-009	0.0006517	6
	50	242	3.004808	63665.79	-351039.7	1	356766.3	-79.72038	-5.800781E-009	0.0006666	6
	51	249	2.372217	76384.13	-435245.3	1	441897.1	-80.04614	-6.207898E-009	0.000702	6
	52	253	1.878005	92944.38	-539884.9	1	547826.9	-80.23194	-6.655411E-010	0.0006407	5
	53	258	1.512097	110762	-658047.3	1	667303.8	-80.44557	-6.746312E-010	0.000755	5
	54	263	1.201923	133796.3	-812608	1	823549.1	-80.65012	-6.345034E-010	0.0006456	5
	55	269	0.956633	161762.7	-1001564	1	1014543	-80.82538	-7.548471E-010	1.813489E-005	5
