EXPLAIN
TAG	EISPOT
TITLE	LABEL	Potentiostatic EIS	Test Identifier
DATE	LABEL	2/26/2021	Date
TIME	LABEL	18:08:46	Time
NOTES	NOTES	1	Notes...
	
PSTAT	PSTAT	REF3000-16137	Potentiostat
VDC	POTEN	0.00000E+000	T	DC Voltage (V)
FREQINIT	QUANT	3.00000E+005	Initial Freq. (Hz)
FREQFINAL	QUANT	1.00000E+000	Final Freq. (Hz)
PTSPERDEC	QUANT	1.00000E+001	Points/decade
VAC	QUANT	5.00000E+001	AC Voltage (mV rms)
AREA	QUANT	1.00000E+000	Sample Area (cm^2)
SPEED	SELECTOR	2	Optimize for:
ZGUESS	QUANT	1.00000E+003	Estimated Z (ohms)
EOC	QUANT	0	Open Circuit (V)
SEQUENCER	TOGGLE	TRUE	Run as Sequence
PSTATMODEL	IQUANT	5	Pstat Model
PSTATSECTION	LABEL	REF3000-16137	Pstat Section
PSTATSERIALNO	LABEL	16137	Pstat Serial Number
CTRLMODE	IQUANT	1	Control Mode
IESTAB	IQUANT	0	I/E Stability
CASPEED	IQUANT	1	Control Amp Speed
CONVENTION	IQUANT	1	Current Convention
ICHRANGE	IQUANT	2	Ich Range
ICHRANGEMODE	TOGGLE	F	Ich Auto Range
ICHOFFSETENABLE	TOGGLE	T	Ich Offset Enable
ICHOFFSET	QUANT	0	Ich Offset (V)
ICHFILTER	IQUANT	3	Ich Filter
VCHRANGE	IQUANT	2	Vch Range
VCHRANGEMODE	TOGGLE	F	Vch Auto Range
VCHOFFSETENABLE	TOGGLE	T	Vch Offset Enable
VCHOFFSET	QUANT	0	Vch Offset (V)
VCHFILTER	IQUANT	3	Vch Filter
ACHRANGE	IQUANT	2	Ach Range
ACHOFFSETENABLE	TOGGLE	F	Ach Offset Enable
ACHOFFSET	QUANT	0	Ach Offset (V)
ACHFILTER	IQUANT	3	Ach Filter
IERANGELOWERLIMIT	IQUANT	2	I/E Range Lower Limit
IERANGEMODE	TOGGLE	F	I/E AutoRange
IERANGE	IQUANT	11	I/E Range
POSFEEDENABLE	TOGGLE	F	Positive Feedback IR Comp
POSFEEDRESISTANCE	QUANT	0	Positive Feedback Resistance (ohm)
ACHSELECT	IQUANT	0	Ach Select
CABLEID	IQUANT	13	Cable ID
DCCALDATE	LABEL	7/31/2020	DC Calibration Date
ACCALDATE	LABEL	7/31/2020	AC Calibration Date
THERMOSELECT	IQUANT	1	Thermo Select
FRAMEWORKVERSION	QUANT	6.33	Framework Version
INSTRUMENTVERSION	LABEL	3.50	Instrument Version
COMPLIANCEVOLTAGE	IQUANT	0	Compliance Voltage
ZCURVE	TABLE
	Pt	Time	Freq	Zreal	Zimag	Zsig	Zmod	Zphz	Idc	Vdc	IERange
	#	s	Hz	ohm	ohm	V	ohm	°	A	V	#
	0	7	300046.9	34.92601	-8.653005	1	35.98195	-13.91498	1.748671E-005	-0.0003525	9
	1	10	238359.4	36.31713	-10.94104	1	37.92942	-16.76565	-5.147721E-005	0.0011081	9
	2	13	189328.1	37.90874	-13.42177	1	40.21463	-19.49675	6.764114E-007	0.0002945	9
	3	16	150421.9	39.73317	-15.90794	1	42.79939	-21.81965	-4.501019E-006	-0.0006142	9
	4	18	119484.4	42.01409	-18.62765	1	45.95838	-23.9109	5.010847E-005	-0.0015753	9
	5	21	94921.88	44.71916	-21.38025	1	49.56731	-25.55249	1.77481E-005	-0.0004792	9
	6	23	75421.88	47.50219	-24.41087	1	53.40738	-27.19815	-9.133858E-006	0.0001304	9
	7	26	59859.37	50.73321	-27.63424	1	57.77119	-28.57701	1.525364E-005	-0.0002495	9
	8	28	47578.12	54.12836	-31.08384	1	62.41862	-29.8671	-8.680786E-006	0.0005068	9
	9	31	37828.12	57.72961	-34.75132	1	67.38221	-31.04655	1.222256E-005	3.235681E-005	9
	10	33	30046.88	61.58026	-39.01008	1	72.89661	-32.35358	4.696493E-006	0.0001897	9
	11	36	23859.38	65.44353	-43.7207	1	78.70423	-33.7456	-1.269639E-005	0.0004246	9
	12	38	18984.38	69.39658	-49.60081	1	85.30022	-35.55507	1.852021E-005	-0.0003375	9
	13	41	15046.87	73.60697	-56.72481	1	92.92841	-37.61945	-9.126838E-006	0.0001471	9
	14	43	11953.13	77.93452	-65.51055	1	101.8107	-40.04989	-1.299277E-005	0.0005693	9
	15	45	9515.62	82.5524	-76.0213	1	112.2236	-42.64152	-1.089661E-005	0.0005644	9
	16	47	7546.875	87.58775	-89.22254	1	125.0291	-45.52974	-1.496386E-005	0.0005483	9
	17	50	5928.309	93.55663	-106.0087	1	141.3884	-48.57039	-1.439742E-005	0.0005693	9
	18	52	4733.456	99.6952	-125.4402	1	160.2322	-51.52363	1.750108E-005	-0.0004127	9
	19	54	3796.875	106.5177	-149.0208	1	183.1754	-54.44341	1.049032E-005	1.138638E-006	9
	20	57	2987.132	115.1516	-179.8093	1	213.5211	-57.36412	-9.711711E-006	0.0005909	9
	21	59	2390.625	124.7593	-214.3695	1	248.0306	-59.80133	-1.187333E-005	0.0006251	9
	22	61	1884.191	135.3307	-261.1702	1	294.1501	-62.60814	1.855321E-005	-0.0002747	9
	23	64	1516.544	147.8755	-312.171	1	345.4242	-64.65306	-1.373471E-005	0.0005566	9
	24	66	1193.986	163.7395	-381.5049	1	415.1586	-66.7713	-1.448241E-005	0.0004941	9
	25	68	946.5144	179.9548	-463.7735	1	497.4632	-68.7926	3.600385E-006	-0.0002985	8
	26	71	751.7689	201.8041	-564.8094	1	599.7787	-70.3384	2.527583E-006	-0.0002021	8
	27	73	597.4265	226.8318	-689.1954	1	725.5639	-71.78231	-2.115391E-006	0.0015329	8
	28	75	477.4305	255.9854	-836.5374	1	874.8276	-72.98557	4.020827E-007	0.0006715	8
	29	78	376.6741	293.6551	-1028.6	1	1069.697	-74.06648	4.007469E-007	0.0006637	8
	30	80	298.2954	338.9322	-1262.164	1	1306.879	-74.96881	4.072136E-007	0.0006714	8
	31	82	237.7717	392.9376	-1540.902	1	1590.213	-75.69418	4.107034E-007	0.0006652	8
	32	85	189.0121	460.4095	-1887.112	1	1942.464	-76.28907	4.001737E-007	0.0006642	8
	33	87	150.2404	544.2818	-2311.747	1	2374.956	-76.75146	3.980511E-007	0.0006676	8
	34	90	119.1737	650.2781	-2838.799	1	2912.326	-77.09796	4.032782E-007	0.0006726	8
	35	92	95.0169	780.9182	-3469.168	1	3555.976	-77.31403	4.023949E-007	0.0006675	8
	36	94	75.60484	950.971	-4255.82	1	4360.774	-77.40408	-7.4786E-008	0.0006434	7
	37	97	54.50582	1275.876	-5680.581	1	5822.101	-77.34126	-7.412706E-008	0.0006381	7
	38	100	45.95588	1495.957	-6601.714	1	6769.085	-77.23232	-6.800394E-008	0.0006484	7
	39	102	37.20238	1839.904	-7949.757	1	8159.895	-76.96882	-6.752614E-008	0.0006381	7
	40	104	30.04808	2273.362	-9571.62	1	9837.89	-76.63921	-7.096304E-008	0.0006389	7
	41	107	23.91582	2886.228	-11669.26	1	12020.89	-76.10751	-7.385161E-008	0.0006357	7
	42	109	18.60119	3762.745	-14472.98	1	14954.11	-75.42664	-7.338753E-008	0.0006468	7
	43	111	15.02404	4763.875	-17372.33	1	18013.67	-74.6652	-5.957971E-008	0.0006462	7
	44	114	12.01923	6119.896	-20917.17	1	21794.06	-73.6917	-6.421401E-008	0.0006385	7
	45	116	9.450605	8028.578	-25471.2	1	26706.55	-72.50503	-6.875649E-008	0.0006322	7
	46	118	7.512019	10438.78	-30588.7	1	32320.84	-71.15715	-6.152634E-008	0.000625	7
	47	121	5.978954	13569.11	-36474.2	1	38916.42	-69.59382	-6.322443E-008	0.000642	7
	48	124	4.734848	17696.01	-43368.48	1	46839.88	-67.80265	-1.175482E-007	0.000711	6
	49	127	3.75601	22698.9	-51392.39	1	56182.01	-66.17	-1.186754E-007	0.0006953	6
	50	131	3.004808	28787.03	-59664.67	1	66246.25	-64.24361	-1.197162E-007	0.0007412	6
	51	135	2.372217	36759.6	-69104.54	1	78273.27	-61.98962	-1.164648E-007	0.0007702	6
	52	139	1.878005	45745.54	-79107.52	1	91381.92	-59.96047	-1.166836E-007	0.0006708	6
	53	144	1.512097	55132.98	-88982.37	1	104678.1	-58.21787	-1.151834E-007	0.0007619	6
	54	149	1.201923	66175.48	-100700.3	1	120497.9	-56.68896	-1.138796E-007	0.0006627	6
	55	155	0.956633	78092.26	-113695.2	1	137931.1	-55.51653	-1.148964E-007	5.401479E-005	6
