EXPLAIN
TAG	EISPOT
TITLE	LABEL	Potentiostatic EIS	Test Identifier
DATE	LABEL	2/26/2021	Date
TIME	LABEL	17:57:31	Time
NOTES	NOTES	1	Notes...
	
PSTAT	PSTAT	REF3000-16137	Potentiostat
VDC	POTEN	0.00000E+000	T	DC Voltage (V)
FREQINIT	QUANT	3.00000E+005	Initial Freq. (Hz)
FREQFINAL	QUANT	1.00000E+000	Final Freq. (Hz)
PTSPERDEC	QUANT	1.00000E+001	Points/decade
VAC	QUANT	5.00000E+001	AC Voltage (mV rms)
AREA	QUANT	1.00000E+000	Sample Area (cm^2)
SPEED	SELECTOR	2	Optimize for:
ZGUESS	QUANT	1.00000E+003	Estimated Z (ohms)
EOC	QUANT	0	Open Circuit (V)
SEQUENCER	TOGGLE	TRUE	Run as Sequence
PSTATMODEL	IQUANT	5	Pstat Model
PSTATSECTION	LABEL	REF3000-16137	Pstat Section
PSTATSERIALNO	LABEL	16137	Pstat Serial Number
CTRLMODE	IQUANT	1	Control Mode
IESTAB	IQUANT	0	I/E Stability
CASPEED	IQUANT	1	Control Amp Speed
CONVENTION	IQUANT	1	Current Convention
ICHRANGE	IQUANT	2	Ich Range
ICHRANGEMODE	TOGGLE	F	Ich Auto Range
ICHOFFSETENABLE	TOGGLE	T	Ich Offset Enable
ICHOFFSET	QUANT	0	Ich Offset (V)
ICHFILTER	IQUANT	3	Ich Filter
VCHRANGE	IQUANT	2	Vch Range
VCHRANGEMODE	TOGGLE	F	Vch Auto Range
VCHOFFSETENABLE	TOGGLE	T	Vch Offset Enable
VCHOFFSET	QUANT	0	Vch Offset (V)
VCHFILTER	IQUANT	3	Vch Filter
ACHRANGE	IQUANT	2	Ach Range
ACHOFFSETENABLE	TOGGLE	F	Ach Offset Enable
ACHOFFSET	QUANT	0	Ach Offset (V)
ACHFILTER	IQUANT	3	Ach Filter
IERANGELOWERLIMIT	IQUANT	2	I/E Range Lower Limit
IERANGEMODE	TOGGLE	F	I/E AutoRange
IERANGE	IQUANT	11	I/E Range
POSFEEDENABLE	TOGGLE	F	Positive Feedback IR Comp
POSFEEDRESISTANCE	QUANT	0	Positive Feedback Resistance (ohm)
ACHSELECT	IQUANT	0	Ach Select
CABLEID	IQUANT	13	Cable ID
DCCALDATE	LABEL	7/31/2020	DC Calibration Date
ACCALDATE	LABEL	7/31/2020	AC Calibration Date
THERMOSELECT	IQUANT	1	Thermo Select
FRAMEWORKVERSION	QUANT	6.33	Framework Version
INSTRUMENTVERSION	LABEL	3.50	Instrument Version
COMPLIANCEVOLTAGE	IQUANT	0	Compliance Voltage
ZCURVE	TABLE
	Pt	Time	Freq	Zreal	Zimag	Zsig	Zmod	Zphz	Idc	Vdc	IERange
	#	s	Hz	ohm	ohm	V	ohm	°	A	V	#
	0	6	300046.9	29.89939	-8.426591	1	31.06414	-15.73951	-1.68372E-005	-0.0000962	11
	1	11	238359.4	31.28153	-9.92484	1	32.81824	-17.60293	-0.000105	0.000424	10
	2	14	189328.1	32.7748	-11.90782	1	34.87095	-19.96722	-1.317714E-005	0.0006653	10
	3	16	150421.9	34.52642	-13.9039	1	37.22086	-21.9348	-3.140507E-005	0.0005281	10
	4	19	119484.4	36.59227	-15.78408	1	39.85137	-23.33295	-4.748151E-005	0.001739	9
	5	21	94921.88	38.95615	-17.82125	1	42.83899	-24.58265	1.433517E-006	-0.0001998	9
	6	24	75421.88	41.3341	-20.20281	1	46.00719	-26.04793	-1.398366E-005	0.0004069	9
	7	26	59859.37	43.99656	-22.6062	1	49.46451	-27.19489	4.929257E-006	-0.0002359	9
	8	29	47578.12	46.72722	-25.24389	1	53.11014	-28.37967	5.905684E-006	-0.0002754	9
	9	31	37828.12	49.5551	-28.26476	1	57.04914	-29.69915	-1.249855E-005	0.000529	9
	10	34	30046.88	52.4652	-31.6339	1	61.26419	-31.08788	1.901139E-005	-0.0003849	9
	11	36	23859.38	55.49537	-35.67181	1	65.97132	-32.73246	-1.572935E-005	0.0005519	9
	12	39	18984.38	58.5453	-40.50489	1	71.19128	-34.67764	-1.274123E-005	0.0003839	9
	13	41	15046.87	61.8198	-46.36901	1	77.27724	-36.87236	4.396437E-006	-0.000191	9
	14	43	11953.13	65.26999	-53.62466	1	84.47352	-39.40591	1.137718E-006	-0.0001274	9
	15	46	9515.62	68.8671	-62.49031	1	92.9931	-42.22074	-1.177396E-005	0.00033	9
	16	48	7546.875	72.99654	-73.67082	1	103.7106	-45.2634	5.930457E-006	-0.0002622	9
	17	50	5928.309	77.46967	-88.21058	1	117.3996	-48.70925	-4.892805E-006	0.0004712	9
	18	53	4733.456	82.41667	-104.6721	1	133.2244	-51.78382	1.408675E-005	-0.0003914	9
	19	55	3796.875	87.6424	-124.5112	1	152.2637	-54.85861	1.587746E-005	-0.000142	9
	20	57	2987.132	94.53672	-150.8513	1	178.0261	-57.92511	1.485504E-006	-0.0001476	9
	21	60	2390.625	102.5041	-180.519	1	207.5914	-60.41078	-1.163812E-005	0.0004343	9
	22	62	1884.191	110.4428	-220.8974	1	246.9682	-63.43616	-4.51526E-006	0.0004672	9
	23	64	1516.544	120.6017	-265.4511	1	291.5631	-65.56641	1.664589E-005	-0.0003923	9
	24	66	1193.986	133.2477	-325.9545	1	352.1382	-67.76563	1.581696E-005	-0.0001653	9
	25	69	946.5144	151.4797	-396.4013	1	424.3585	-69.08628	-4.202064E-006	4.462243E-005	9
	26	71	751.7689	166.1262	-482.695	1	510.4825	-71.00838	1.516486E-006	8.519865E-005	8
	27	74	597.4265	188.0188	-589.3856	1	618.6489	-72.30689	-4.694812E-008	0.0011163	8
	28	76	477.4305	214.7031	-716.9365	1	748.3952	-73.32847	3.415402E-007	0.000677	8
	29	78	376.6741	248.9282	-881.8744	1	916.3339	-74.23712	3.755572E-007	0.0006421	8
	30	81	298.2954	291.6231	-1082.248	1	1120.85	-74.91924	3.525654E-007	0.0006766	8
	31	83	237.7717	344.6528	-1321.304	1	1365.515	-75.38056	3.461107E-007	0.0006721	8
	32	85	189.0121	411.3486	-1616.074	1	1667.604	-75.71943	3.697467E-007	0.0006578	8
	33	88	150.2404	496.2221	-1975.329	1	2036.704	-75.89854	3.502427E-007	0.0006769	8
	34	90	119.1737	605.4012	-2418.268	1	2492.896	-75.94515	3.587997E-007	0.0006759	8
	35	92	95.0169	742.4595	-2943.682	1	3035.871	-75.84403	3.520328E-007	0.0006691	8
	36	95	75.60484	918.8281	-3586.089	1	3701.929	-75.62883	3.479225E-007	0.0006695	8
	37	97	54.50582	1265.161	-4750.871	1	4916.442	-75.08816	-1.544433E-007	0.0006305	7
	38	100	45.95588	1502.885	-5494.141	1	5695.985	-74.70137	-1.426036E-007	0.0006506	7
	39	102	37.20238	1859.775	-6555.323	1	6814.032	-74.16112	-1.516748E-007	0.0006558	7
	40	105	30.04808	2323.528	-7831.742	1	8169.147	-73.47539	-1.512226E-007	0.0006492	7
	41	107	23.91582	2933.709	-9429.217	1	9875.06	-72.71753	-1.565938E-007	0.000645	7
	42	109	18.60119	3828.293	-11558.9	1	12176.37	-71.6752	-1.45066E-007	0.000657	7
	43	112	15.02404	4799.341	-13682.2	1	14499.52	-70.67052	-1.340968E-007	0.0006482	7
	44	114	12.01923	6087.543	-16262.41	1	17364.45	-69.47751	-1.43937E-007	0.0006517	7
	45	116	9.450605	7868.528	-19468.51	1	20998.49	-67.99307	-1.372805E-007	0.0006587	7
	46	119	7.512019	10062.78	-23016.03	1	25119.66	-66.38468	-1.489112E-007	0.0006614	7
	47	122	5.978954	12741.45	-26911.52	1	29775.4	-64.66446	-1.510848E-007	0.0006544	7
	48	125	4.734848	16129.28	-31312.83	1	35222.82	-62.74694	-1.450872E-007	0.0006276	7
	49	128	3.75601	20124.88	-36074.02	1	41307.94	-60.84384	-1.395471E-007	0.0006757	7
	50	131	3.004808	24548.23	-40938.47	1	47734.41	-59.05153	-1.965358E-007	0.0007184	6
	51	135	2.372217	29887.48	-46513.51	1	55288.04	-57.27703	-1.963921E-007	0.0006587	6
	52	139	1.878005	35788.99	-53078.54	1	64017.06	-56.0096	-1.926421E-007	0.0007101	6
	53	144	1.512097	41505.59	-59043.1	1	72172.03	-54.89389	-1.994465E-007	0.0007663	6
	54	155	1.201923	48564.37	-67018.57	1	82764.65	-54.07139	-1.959234E-007	0.0007196	6
	55	168	0.956633	56722.65	-76586.24	1	95304.3	-53.47496	-1.986943E-007	7.21878E-005	6
