Z60W Data File: Version 1.1
CorrTest for Windows: SN CS310H1805157  V5.2.1111.9  2.5H6.220118
Sweep Frequency: Control Voltage
  Date:4-28-2026   Time:18:02:34
  Begin Information:            Cell Information
      Surface Area:           1
      Density:                7.8
      Weight:                 28
  End Information:              Cell Information
  Freq (Hz)     Ampl(mV)       Bias(V)      Time(Sec)       Z'(Ohm.cm^2)    Z''(Ohm.cm^2)        GD       Err      Range
End Comments
  1.02857E+03,	1.00000E+01,	-1.59402E-02,	7.32627E-02,	3.33937E+03,	-6.65512E+01,	0.00000E+00,	0,	0
  8.00000E+02,	1.00000E+01,	-1.59402E-02,	4.36300E+00,	3.37841E+03,	-9.65602E+01,	0.00000E+00,	0,	0
  6.35294E+02,	1.00000E+01,	-1.59402E-02,	5.74882E+00,	3.38992E+03,	-9.34270E+01,	0.00000E+00,	0,	0
  5.02326E+02,	1.00000E+01,	-1.59402E-02,	7.15326E+00,	3.39925E+03,	-9.53080E+01,	0.00000E+00,	0,	0
  3.92727E+02,	1.00000E+01,	-1.59402E-02,	8.56268E+00,	3.41241E+03,	-1.03072E+02,	0.00000E+00,	0,	0
  3.08571E+02,	1.00000E+01,	-1.59402E-02,	1.10723E+01,	3.43085E+03,	-1.13174E+02,	0.00000E+00,	0,	0
  2.42697E+02,	1.00000E+01,	-1.59402E-02,	1.38754E+01,	3.44787E+03,	-1.29361E+02,	0.00000E+00,	0,	0
  1.92857E+02,	1.00000E+01,	-1.59402E-02,	1.70911E+01,	3.47049E+03,	-1.52159E+02,	0.00000E+00,	0,	0
  1.52113E+02,	1.00000E+01,	-1.59402E-02,	2.05951E+01,	3.49645E+03,	-1.79555E+02,	0.00000E+00,	0,	0
  1.20000E+02,	1.00000E+01,	-1.59402E-02,	2.45306E+01,	3.52730E+03,	-2.16193E+02,	0.00000E+00,	0,	0
  9.47368E+01,	1.00000E+01,	-1.59402E-02,	2.99948E+01,	3.57154E+03,	-2.63433E+02,	0.00000E+00,	0,	0
  7.50000E+01,	1.00000E+01,	-1.59402E-02,	3.48255E+01,	3.62384E+03,	-3.20916E+02,	0.00000E+00,	0,	0
  5.93407E+01,	1.00000E+01,	-1.59402E-02,	4.00825E+01,	3.64000E+03,	-3.60310E+02,	0.00000E+00,	0,	0
  4.65517E+01,	1.00000E+01,	-1.59402E-02,	4.58791E+01,	3.69314E+03,	-4.40900E+02,	0.00000E+00,	0,	0
  3.67347E+01,	1.00000E+01,	-1.59402E-02,	4.96445E+01,	3.71387E+03,	-5.55304E+02,	0.00000E+00,	0,	0
  2.90323E+01,	1.00000E+01,	-1.59402E-02,	5.34554E+01,	3.79549E+03,	-6.64005E+02,	0.00000E+00,	0,	0
  2.28814E+01,	1.00000E+01,	-1.59402E-02,	5.73479E+01,	3.87224E+03,	-7.97102E+02,	0.00000E+00,	0,	0
  1.87500E+01,	1.00000E+01,	-1.59402E-02,	6.10444E+01,	3.94483E+03,	-9.32431E+02,	0.00000E+00,	0,	0
  1.45161E+01,	1.00000E+01,	-1.59402E-02,	6.63494E+01,	4.05599E+03,	-1.13878E+03,	0.00000E+00,	0,	0
  1.15385E+01,	1.00000E+01,	-1.59402E-02,	7.00160E+01,	4.16548E+03,	-1.36141E+03,	0.00000E+00,	0,	0
  9.00000E+00,	1.00000E+01,	-1.59402E-02,	7.41740E+01,	4.30777E+03,	-1.64154E+03,	0.00000E+00,	0,	0
  7.03125E+00,	1.00000E+01,	-1.59402E-02,	7.67257E+01,	4.46071E+03,	-1.98550E+03,	0.00000E+00,	0,	0
  5.55556E+00,	1.00000E+01,	-1.59402E-02,	7.95876E+01,	4.63944E+03,	-2.37032E+03,	0.00000E+00,	0,	0
  4.41176E+00,	1.00000E+01,	-1.59402E-02,	8.29428E+01,	4.84300E+03,	-2.81768E+03,	0.00000E+00,	0,	0
  3.46154E+00,	1.00000E+01,	-1.59402E-02,	8.69589E+01,	5.09411E+03,	-3.37606E+03,	0.00000E+00,	0,	0
  2.74390E+00,	1.00000E+01,	-1.59402E-02,	9.07886E+01,	5.37319E+03,	-4.01436E+03,	0.00000E+00,	0,	0
  2.16346E+00,	1.00000E+01,	-1.59402E-02,	9.54061E+01,	5.70446E+03,	-4.79746E+03,	0.00000E+00,	0,	0
  1.70455E+00,	1.00000E+01,	-1.59402E-02,	1.00981E+02,	6.08676E+03,	-5.74565E+03,	0.00000E+00,	0,	0
  1.34731E+00,	1.00000E+01,	-1.59402E-02,	1.05149E+02,	6.50329E+03,	-6.86686E+03,	0.00000E+00,	0,	0
  1.06132E+00,	1.00000E+01,	-1.59402E-02,	1.09489E+02,	7.01181E+03,	-8.25395E+03,	0.00000E+00,	0,	0
  8.39552E-01,	1.00000E+01,	-1.59402E-02,	1.16339E+02,	7.54994E+03,	-9.90694E+03,	0.00000E+00,	0,	0
  6.61765E-01,	1.00000E+01,	-1.59402E-02,	1.20890E+02,	8.18957E+03,	-1.19482E+04,	0.00000E+00,	0,	0
  5.23256E-01,	1.00000E+01,	-1.59402E-02,	1.25824E+02,	8.73803E+03,	-1.46701E+04,	0.00000E+00,	0,	0
  4.13603E-01,	1.00000E+01,	-1.59402E-02,	1.31800E+02,	9.62331E+03,	-1.77463E+04,	0.00000E+00,	0,	0
  3.27035E-01,	1.00000E+01,	-1.59402E-02,	1.38830E+02,	1.08703E+04,	-2.20115E+04,	0.00000E+00,	0,	0
  2.58028E-01,	1.00000E+01,	-1.59402E-02,	1.56617E+02,	1.21726E+04,	-2.60281E+04,	0.00000E+00,	0,	0
  2.03804E-01,	1.00000E+01,	-1.59402E-02,	1.67372E+02,	1.37495E+04,	-3.29770E+04,	0.00000E+00,	0,	0
  1.60944E-01,	1.00000E+01,	-1.59402E-02,	1.80720E+02,	1.58444E+04,	-3.96637E+04,	0.00000E+00,	0,	0
  1.26689E-01,	1.00000E+01,	-1.59402E-02,	1.97434E+02,	1.83994E+04,	-4.85257E+04,	0.00000E+00,	0,	0
  1.00446E-01,	1.00000E+01,	-1.59402E-02,	2.18324E+02,	2.15517E+04,	-5.90738E+04,	0.00000E+00,	0,	0