Z60W Data File: Version 1.1
CorrTest for Windows: SN CS310H1805157  V5.2.1111.9  2.5H6.220118
Sweep Frequency: Control Voltage
  Date:4-28-2026   Time:13:27:12
  Begin Information:            Cell Information
      Surface Area:           1
      Density:                7.8
      Weight:                 28
  End Information:              Cell Information
  Freq (Hz)     Ampl(mV)       Bias(V)      Time(Sec)       Z'(Ohm.cm^2)    Z''(Ohm.cm^2)        GD       Err      Range
End Comments
  3.07200E+05,	1.00000E+01,	-6.87223E-03,	3.91425E-02,	2.07825E+00,	4.79624E+00,	0.00000E+00,	0,	0
  2.76480E+05,	1.00000E+01,	-6.87223E-03,	1.64816E+00,	2.53754E+00,	3.92355E+00,	0.00000E+00,	0,	0
  1.97486E+05,	1.00000E+01,	-6.87223E-03,	2.57094E+00,	3.20524E+00,	2.81167E+00,	0.00000E+00,	0,	0
  1.53600E+05,	1.00000E+01,	-6.87223E-03,	3.47269E+00,	3.44883E+00,	2.13955E+00,	0.00000E+00,	0,	0
  1.25673E+05,	1.00000E+01,	-6.87223E-03,	4.37283E+00,	3.58655E+00,	1.69857E+00,	0.00000E+00,	0,	0
  9.87429E+04,	1.00000E+01,	-6.87223E-03,	5.33311E+00,	3.71075E+00,	1.28312E+00,	0.00000E+00,	0,	0
  7.68000E+04,	1.00000E+01,	-6.87223E-03,	6.23356E+00,	3.78464E+00,	9.42506E-01,	0.00000E+00,	0,	0
  6.01043E+04,	1.00000E+01,	-6.87223E-03,	9.44464E+00,	3.86191E+00,	5.90617E-01,	0.00000E+00,	0,	0
  4.93714E+04,	1.00000E+01,	-6.87223E-03,	1.10342E+01,	3.88382E+00,	4.05765E-01,	0.00000E+00,	0,	0
  3.84000E+04,	1.00000E+01,	-6.87223E-03,	1.19474E+01,	3.90335E+00,	1.93057E-01,	0.00000E+00,	0,	0
  3.00522E+04,	1.00000E+01,	-6.87223E-03,	1.28104E+01,	3.94170E+00,	4.59778E-03,	0.00000E+00,	0,	0
  2.38345E+04,	1.00000E+01,	-6.87223E-03,	1.37204E+01,	3.96823E+00,	-1.69496E-01,	0.00000E+00,	0,	0
  1.86811E+04,	1.00000E+01,	-6.87223E-03,	1.45829E+01,	3.99878E+00,	-3.49411E-01,	0.00000E+00,	0,	0
  1.47064E+04,	1.00000E+01,	-6.87223E-03,	1.55484E+01,	4.04614E+00,	-5.42901E-01,	0.00000E+00,	0,	0
  1.15200E+04,	1.00000E+01,	-6.87223E-03,	1.65314E+01,	4.10660E+00,	-7.48181E-01,	0.00000E+00,	0,	0
  9.60000E+03,	1.00000E+01,	-6.87223E-03,	1.81142E+01,	4.14670E+00,	-9.07788E-01,	0.00000E+00,	0,	0
  7.51304E+03,	1.00000E+01,	-6.87223E-03,	1.90447E+01,	4.22922E+00,	-1.16215E+00,	0.00000E+00,	0,	0
  5.76000E+03,	1.00000E+01,	-6.87223E-03,	1.99960E+01,	4.33549E+00,	-1.48031E+00,	0.00000E+00,	0,	0
  4.54737E+03,	1.00000E+01,	-6.87223E-03,	2.08639E+01,	4.44426E+00,	-1.81850E+00,	0.00000E+00,	0,	0
  3.60000E+03,	1.00000E+01,	-6.87223E-03,	2.19288E+01,	4.57288E+00,	-2.20005E+00,	0.00000E+00,	0,	0
  2.88000E+03,	1.00000E+01,	-6.87223E-03,	2.28287E+01,	4.71156E+00,	-2.65075E+00,	0.00000E+00,	0,	0
  2.27368E+03,	1.00000E+01,	-6.87223E-03,	2.51620E+01,	4.83818E+00,	-3.16636E+00,	0.00000E+00,	0,	0
  1.78144E+03,	1.00000E+01,	-6.87223E-03,	2.59713E+01,	5.03606E+00,	-3.86319E+00,	0.00000E+00,	0,	0
  1.41639E+03,	1.00000E+01,	-6.87223E-03,	2.68650E+01,	5.25173E+00,	-4.66359E+00,	0.00000E+00,	0,	0
  1.12208E+03,	1.00000E+01,	-6.87223E-03,	2.78990E+01,	5.51159E+00,	-5.63089E+00,	0.00000E+00,	0,	0
  9.00000E+02,	1.00000E+01,	-6.87223E-03,	3.28860E+01,	5.80094E+00,	-6.78374E+00,	0.00000E+00,	0,	0
  7.20000E+02,	1.00000E+01,	-6.87223E-03,	3.43110E+01,	6.13482E+00,	-8.17730E+00,	0.00000E+00,	0,	0
  5.68421E+02,	1.00000E+01,	-6.87223E-03,	3.57254E+01,	6.55903E+00,	-9.98819E+00,	0.00000E+00,	0,	0
  4.40816E+02,	1.00000E+01,	-6.87223E-03,	3.87528E+01,	7.14248E+00,	-1.24365E+01,	0.00000E+00,	0,	0
  3.54098E+02,	1.00000E+01,	-6.87223E-03,	4.11059E+01,	7.74644E+00,	-1.50095E+01,	0.00000E+00,	0,	0
  2.76923E+02,	1.00000E+01,	-6.87223E-03,	4.37386E+01,	8.60048E+00,	-1.85435E+01,	0.00000E+00,	0,	0
  2.20408E+02,	1.00000E+01,	-6.87223E-03,	4.66827E+01,	9.60386E+00,	-2.25806E+01,	0.00000E+00,	0,	0
  1.74194E+02,	1.00000E+01,	-6.87223E-03,	4.99458E+01,	1.09186E+01,	-2.76435E+01,	0.00000E+00,	0,	0
  1.37580E+02,	1.00000E+01,	-6.87223E-03,	5.36709E+01,	1.26126E+01,	-3.38402E+01,	0.00000E+00,	0,	0
  1.09091E+02,	1.00000E+01,	-6.87223E-03,	5.77582E+01,	1.47580E+01,	-4.12653E+01,	0.00000E+00,	0,	0
  8.70968E+01,	1.00000E+01,	-6.87223E-03,	6.34608E+01,	1.74094E+01,	-5.00136E+01,	0.00000E+00,	0,	0
  6.83544E+01,	1.00000E+01,	-6.87223E-03,	6.84948E+01,	2.11463E+01,	-6.16177E+01,	0.00000E+00,	0,	0
  5.45455E+01,	1.00000E+01,	-6.87223E-03,	7.39792E+01,	2.58072E+01,	-7.30935E+01,	0.00000E+00,	0,	0
  4.28571E+01,	1.00000E+01,	-6.87223E-03,	7.75381E+01,	3.19660E+01,	-8.87079E+01,	0.00000E+00,	0,	0
  3.39623E+01,	1.00000E+01,	-6.87223E-03,	8.13202E+01,	3.87850E+01,	-1.06397E+02,	0.00000E+00,	0,	0
  2.68657E+01,	1.00000E+01,	-6.87223E-03,	8.51632E+01,	4.84477E+01,	-1.27759E+02,	0.00000E+00,	0,	0
  2.13439E+01,	1.00000E+01,	-6.87223E-03,	8.89687E+01,	5.99371E+01,	-1.51902E+02,	0.00000E+00,	0,	0
  1.73077E+01,	1.00000E+01,	-6.87223E-03,	9.56603E+01,	7.24546E+01,	-1.77455E+02,	0.00000E+00,	0,	0
  1.36364E+01,	1.00000E+01,	-6.87223E-03,	1.00691E+02,	8.88040E+01,	-2.10519E+02,	0.00000E+00,	0,	0
  1.07143E+01,	1.00000E+01,	-6.87223E-03,	1.03589E+02,	1.07940E+02,	-2.49525E+02,	0.00000E+00,	0,	0
  8.49057E+00,	1.00000E+01,	-6.87223E-03,	1.07779E+02,	1.28894E+02,	-2.93804E+02,	0.00000E+00,	0,	0
  6.71642E+00,	1.00000E+01,	-6.87223E-03,	1.10283E+02,	1.52786E+02,	-3.46870E+02,	0.00000E+00,	0,	0
  5.29412E+00,	1.00000E+01,	-6.87223E-03,	1.13227E+02,	1.80125E+02,	-4.11112E+02,	0.00000E+00,	0,	0
  4.16667E+00,	1.00000E+01,	-6.87223E-03,	1.16712E+02,	2.11331E+02,	-4.89389E+02,	0.00000E+00,	0,	0
  3.30882E+00,	1.00000E+01,	-6.87223E-03,	1.20962E+02,	2.45537E+02,	-5.80443E+02,	0.00000E+00,	0,	0
  2.61628E+00,	1.00000E+01,	-6.87223E-03,	1.24970E+02,	2.85987E+02,	-6.92380E+02,	0.00000E+00,	0,	0
  2.07373E+00,	1.00000E+01,	-6.87223E-03,	1.29807E+02,	3.32625E+02,	-8.26883E+02,	0.00000E+00,	0,	0
  1.64234E+00,	1.00000E+01,	-6.87223E-03,	1.35627E+02,	3.87070E+02,	-9.89607E+02,	0.00000E+00,	0,	0
  1.30058E+00,	1.00000E+01,	-6.87223E-03,	1.39808E+02,	4.51294E+02,	-1.18532E+03,	0.00000E+00,	0,	0
  1.03211E+00,	1.00000E+01,	-6.87223E-03,	1.44258E+02,	5.25465E+02,	-1.42034E+03,	0.00000E+00,	0,	0
  8.15217E-01,	1.00000E+01,	-6.87223E-03,	1.51191E+02,	6.08463E+02,	-1.70625E+03,	0.00000E+00,	0,	0
  6.46552E-01,	1.00000E+01,	-6.87223E-03,	1.60310E+02,	6.99717E+02,	-2.04907E+03,	0.00000E+00,	0,	0
  5.11364E-01,	1.00000E+01,	-6.87223E-03,	1.65321E+02,	7.76240E+02,	-2.48285E+03,	0.00000E+00,	0,	0
  4.07609E-01,	1.00000E+01,	-6.87223E-03,	1.71395E+02,	8.82593E+02,	-2.99222E+03,	0.00000E+00,	0,	0
  3.21429E-01,	1.00000E+01,	-6.87223E-03,	1.78525E+02,	1.00527E+03,	-3.70435E+03,	0.00000E+00,	0,	0
  2.54525E-01,	1.00000E+01,	-6.87223E-03,	1.87311E+02,	1.14625E+03,	-4.51788E+03,	0.00000E+00,	0,	0
  2.01613E-01,	1.00000E+01,	-6.87223E-03,	1.98184E+02,	1.30794E+03,	-5.53829E+03,	0.00000E+00,	0,	0
  1.59574E-01,	1.00000E+01,	-6.87223E-03,	2.11641E+02,	1.50695E+03,	-6.81576E+03,	0.00000E+00,	0,	0
  1.26689E-01,	1.00000E+01,	-6.87223E-03,	2.28571E+02,	1.75748E+03,	-8.37938E+03,	0.00000E+00,	0,	0
  1.00446E-01,	1.00000E+01,	-6.87223E-03,	2.49441E+02,	2.07895E+03,	-1.03434E+04,	0.00000E+00,	0,	0