Z60W Data File: Version 1.1
CorrTest for Windows: SN CS310H1805157  V5.2.1111.9  2.5H6.220118
Sweep Frequency: Control Voltage
  Date:4-28-2026   Time:15:33:12
  Begin Information:            Cell Information
      Surface Area:           1
      Density:                7.8
      Weight:                 28
  End Information:              Cell Information
  Freq (Hz)     Ampl(mV)       Bias(V)      Time(Sec)       Z'(Ohm.cm^2)    Z''(Ohm.cm^2)        GD       Err      Range
End Comments
  3.07200E+05,	1.00000E+01,	-3.04281E-03,	6.11002E-02,	1.46376E+01,	1.13305E+01,	0.00000E+00,	0,	0
  2.76480E+05,	1.00000E+01,	-3.04281E-03,	1.66919E+00,	1.49013E+01,	9.82365E+00,	0.00000E+00,	0,	0
  1.97486E+05,	1.00000E+01,	-3.04281E-03,	2.55970E+00,	1.51385E+01,	6.99721E+00,	0.00000E+00,	0,	0
  1.53600E+05,	1.00000E+01,	-3.04281E-03,	3.46537E+00,	1.51958E+01,	5.36418E+00,	0.00000E+00,	0,	0
  1.25673E+05,	1.00000E+01,	-3.04281E-03,	4.36496E+00,	1.52810E+01,	4.33815E+00,	0.00000E+00,	0,	0
  9.87429E+04,	1.00000E+01,	-3.04281E-03,	5.25842E+00,	1.53478E+01,	3.32379E+00,	0.00000E+00,	0,	0
  7.68000E+04,	1.00000E+01,	-3.04281E-03,	6.19471E+00,	1.53862E+01,	2.47014E+00,	0.00000E+00,	0,	0
  6.01043E+04,	1.00000E+01,	-3.04281E-03,	8.30812E+00,	1.54130E+01,	1.79440E+00,	0.00000E+00,	0,	0
  4.93714E+04,	1.00000E+01,	-3.04281E-03,	9.91699E+00,	1.54422E+01,	1.35782E+00,	0.00000E+00,	0,	0
  3.84000E+04,	1.00000E+01,	-3.04281E-03,	1.08249E+01,	1.55135E+01,	9.16831E-01,	0.00000E+00,	0,	0
  3.00522E+04,	1.00000E+01,	-3.04281E-03,	1.16754E+01,	1.55217E+01,	4.96678E-01,	0.00000E+00,	0,	0
  2.38345E+04,	1.00000E+01,	-3.04281E-03,	1.25440E+01,	1.55574E+01,	1.19302E-01,	0.00000E+00,	0,	0
  1.86811E+04,	1.00000E+01,	-3.04281E-03,	1.33986E+01,	1.55903E+01,	-2.09805E-01,	0.00000E+00,	0,	0
  1.47064E+04,	1.00000E+01,	-3.04281E-03,	1.43718E+01,	1.56494E+01,	-5.59156E-01,	0.00000E+00,	0,	0
  1.15200E+04,	1.00000E+01,	-3.04281E-03,	1.53740E+01,	1.57227E+01,	-9.09767E-01,	0.00000E+00,	0,	0
  9.60000E+03,	1.00000E+01,	-3.04281E-03,	1.69539E+01,	1.58094E+01,	-1.19494E+00,	0.00000E+00,	0,	0
  7.51304E+03,	1.00000E+01,	-3.04281E-03,	1.78410E+01,	1.59174E+01,	-1.61620E+00,	0.00000E+00,	0,	0
  5.76000E+03,	1.00000E+01,	-3.04281E-03,	1.87436E+01,	1.60736E+01,	-2.12812E+00,	0.00000E+00,	0,	0
  4.54737E+03,	1.00000E+01,	-3.04281E-03,	1.96163E+01,	1.62513E+01,	-2.67825E+00,	0.00000E+00,	0,	0
  3.60000E+03,	1.00000E+01,	-3.04281E-03,	2.06085E+01,	1.64290E+01,	-3.30051E+00,	0.00000E+00,	0,	0
  2.88000E+03,	1.00000E+01,	-3.04281E-03,	2.15019E+01,	1.66837E+01,	-4.03604E+00,	0.00000E+00,	0,	0
  2.27368E+03,	1.00000E+01,	-3.04281E-03,	2.37863E+01,	1.70162E+01,	-4.90002E+00,	0.00000E+00,	0,	0
  1.78144E+03,	1.00000E+01,	-3.04281E-03,	2.46162E+01,	1.73629E+01,	-5.98987E+00,	0.00000E+00,	0,	0
  1.41639E+03,	1.00000E+01,	-3.04281E-03,	2.55127E+01,	1.77898E+01,	-7.16355E+00,	0.00000E+00,	0,	0
  1.12208E+03,	1.00000E+01,	-3.04281E-03,	2.65490E+01,	1.83529E+01,	-8.63965E+00,	0.00000E+00,	0,	0
  9.00000E+02,	1.00000E+01,	-3.04281E-03,	3.15346E+01,	1.90080E+01,	-1.03183E+01,	0.00000E+00,	0,	0
  7.20000E+02,	1.00000E+01,	-3.04281E-03,	3.29041E+01,	1.96837E+01,	-1.22821E+01,	0.00000E+00,	0,	0
  5.68421E+02,	1.00000E+01,	-3.04281E-03,	3.42932E+01,	2.05146E+01,	-1.47708E+01,	0.00000E+00,	0,	0
  4.40816E+02,	1.00000E+01,	-3.04281E-03,	3.57428E+01,	2.15335E+01,	-1.80336E+01,	0.00000E+00,	0,	0
  3.54098E+02,	1.00000E+01,	-3.04281E-03,	3.81214E+01,	2.25582E+01,	-2.14681E+01,	0.00000E+00,	0,	0
  2.76923E+02,	1.00000E+01,	-3.04281E-03,	4.07646E+01,	2.38774E+01,	-2.61675E+01,	0.00000E+00,	0,	0
  2.20408E+02,	1.00000E+01,	-3.04281E-03,	4.37257E+01,	2.52900E+01,	-3.15227E+01,	0.00000E+00,	0,	0
  1.74194E+02,	1.00000E+01,	-3.04281E-03,	4.70007E+01,	2.69881E+01,	-3.82875E+01,	0.00000E+00,	0,	0
  1.37580E+02,	1.00000E+01,	-3.04281E-03,	5.06718E+01,	2.90150E+01,	-4.66481E+01,	0.00000E+00,	0,	0
  1.09091E+02,	1.00000E+01,	-3.04281E-03,	5.47375E+01,	3.14184E+01,	-5.68042E+01,	0.00000E+00,	0,	0
  8.70968E+01,	1.00000E+01,	-3.04281E-03,	6.04306E+01,	3.42608E+01,	-6.89930E+01,	0.00000E+00,	0,	0
  6.83544E+01,	1.00000E+01,	-3.04281E-03,	6.54642E+01,	3.81252E+01,	-8.55090E+01,	0.00000E+00,	0,	0
  5.45455E+01,	1.00000E+01,	-3.04281E-03,	7.09237E+01,	4.27820E+01,	-1.02239E+02,	0.00000E+00,	0,	0
  4.28571E+01,	1.00000E+01,	-3.04281E-03,	7.44778E+01,	4.89233E+01,	-1.25710E+02,	0.00000E+00,	0,	0
  3.39623E+01,	1.00000E+01,	-3.04281E-03,	7.82150E+01,	5.54888E+01,	-1.53250E+02,	0.00000E+00,	0,	0
  2.68657E+01,	1.00000E+01,	-3.04281E-03,	8.20703E+01,	6.56241E+01,	-1.87749E+02,	0.00000E+00,	0,	0
  2.13439E+01,	1.00000E+01,	-3.04281E-03,	8.58758E+01,	7.82782E+01,	-2.28335E+02,	0.00000E+00,	0,	0
  1.73077E+01,	1.00000E+01,	-3.04281E-03,	9.25625E+01,	9.30297E+01,	-2.72838E+02,	0.00000E+00,	0,	0
  1.36364E+01,	1.00000E+01,	-3.04281E-03,	9.75952E+01,	1.13981E+02,	-3.32382E+02,	0.00000E+00,	0,	0
  1.07143E+01,	1.00000E+01,	-3.04281E-03,	1.00507E+02,	1.41187E+02,	-4.04351E+02,	0.00000E+00,	0,	0
  8.49057E+00,	1.00000E+01,	-3.04281E-03,	1.04711E+02,	1.74545E+02,	-4.86776E+02,	0.00000E+00,	0,	0
  6.71642E+00,	1.00000E+01,	-3.04281E-03,	1.07241E+02,	2.16892E+02,	-5.84606E+02,	0.00000E+00,	0,	0
  5.29412E+00,	1.00000E+01,	-3.04281E-03,	1.10179E+02,	2.70132E+02,	-7.00148E+02,	0.00000E+00,	0,	0
  4.16667E+00,	1.00000E+01,	-3.04281E-03,	1.13642E+02,	3.35303E+02,	-8.36300E+02,	0.00000E+00,	0,	0
  3.30882E+00,	1.00000E+01,	-3.04281E-03,	1.17869E+02,	4.10045E+02,	-9.88508E+02,	0.00000E+00,	0,	0
  2.61628E+00,	1.00000E+01,	-3.04281E-03,	1.21816E+02,	4.99014E+02,	-1.16796E+03,	0.00000E+00,	0,	0
  2.07373E+00,	1.00000E+01,	-3.04281E-03,	1.26620E+02,	5.99993E+02,	-1.37658E+03,	0.00000E+00,	0,	0
  1.64234E+00,	1.00000E+01,	-3.04281E-03,	1.32401E+02,	7.14957E+02,	-1.62328E+03,	0.00000E+00,	0,	0
  1.30058E+00,	1.00000E+01,	-3.04281E-03,	1.36548E+02,	8.45480E+02,	-1.91490E+03,	0.00000E+00,	0,	0
  1.03211E+00,	1.00000E+01,	-3.04281E-03,	1.40969E+02,	9.94270E+02,	-2.26406E+03,	0.00000E+00,	0,	0
  8.15217E-01,	1.00000E+01,	-3.04281E-03,	1.47961E+02,	1.16078E+03,	-2.68526E+03,	0.00000E+00,	0,	0
  6.46552E-01,	1.00000E+01,	-3.04281E-03,	1.57099E+02,	1.35116E+03,	-3.19468E+03,	0.00000E+00,	0,	0
  5.11364E-01,	1.00000E+01,	-3.04281E-03,	1.62109E+02,	1.53008E+03,	-3.83169E+03,	0.00000E+00,	0,	0
  4.07609E-01,	1.00000E+01,	-3.04281E-03,	1.68203E+02,	1.78369E+03,	-4.55869E+03,	0.00000E+00,	0,	0
  3.21429E-01,	1.00000E+01,	-3.04281E-03,	1.75342E+02,	2.10608E+03,	-5.56344E+03,	0.00000E+00,	0,	0
  2.54525E-01,	1.00000E+01,	-3.04281E-03,	1.84112E+02,	2.46752E+03,	-6.64677E+03,	0.00000E+00,	0,	0
  2.01613E-01,	1.00000E+01,	-3.04281E-03,	1.94954E+02,	2.87016E+03,	-7.96768E+03,	0.00000E+00,	0,	0
  1.59574E-01,	1.00000E+01,	-3.04281E-03,	2.08421E+02,	3.32289E+03,	-9.57385E+03,	0.00000E+00,	0,	0
  1.26689E-01,	1.00000E+01,	-3.04281E-03,	2.42295E+02,	3.83604E+03,	-1.13184E+04,	0.00000E+00,	0,	0
  1.00446E-01,	1.00000E+01,	-3.04281E-03,	2.63158E+02,	4.29801E+03,	-1.41365E+04,	0.00000E+00,	0,	0