Z60W Data File: Version 1.1
CorrTest for Windows: SN CS310H1805157  V5.2.1111.9  2.5H6.220118
Sweep Frequency: Control Voltage
  Date:4-28-2026   Time:17:17:54
  Begin Information:            Cell Information
      Surface Area:           1
      Density:                7.8
      Weight:                 28
  End Information:              Cell Information
  Freq (Hz)     Ampl(mV)       Bias(V)      Time(Sec)       Z'(Ohm.cm^2)    Z''(Ohm.cm^2)        GD       Err      Range
End Comments
  3.07200E+05,	1.00000E+01,	-1.15976E-02,	2.88061E-02,	2.64809E+02,	4.50866E+01,	0.00000E+00,	0,	0
  2.76480E+05,	1.00000E+01,	-1.15976E-02,	1.63057E+00,	2.58857E+02,	3.99687E+01,	0.00000E+00,	0,	0
  1.97486E+05,	1.00000E+01,	-1.15976E-02,	2.55022E+00,	2.50590E+02,	2.85513E+01,	0.00000E+00,	0,	0
  1.53600E+05,	1.00000E+01,	-1.15976E-02,	3.46333E+00,	2.48708E+02,	2.14825E+01,	0.00000E+00,	0,	0
  1.25673E+05,	1.00000E+01,	-1.15976E-02,	4.35995E+00,	2.46711E+02,	1.74674E+01,	0.00000E+00,	0,	0
  9.87429E+04,	1.00000E+01,	-1.15976E-02,	5.25673E+00,	2.45767E+02,	1.24145E+01,	0.00000E+00,	0,	0
  7.68000E+04,	1.00000E+01,	-1.15976E-02,	6.19455E+00,	2.46075E+02,	8.03759E+00,	0.00000E+00,	0,	0
  6.01043E+04,	1.00000E+01,	-1.15976E-02,	7.23066E+00,	2.46915E+02,	5.88318E+00,	0.00000E+00,	0,	0
  4.93714E+04,	1.00000E+01,	-1.15976E-02,	8.80281E+00,	2.48024E+02,	3.53937E+00,	0.00000E+00,	0,	0
  3.84000E+04,	1.00000E+01,	-1.15976E-02,	9.71161E+00,	2.48654E+02,	6.49707E-01,	0.00000E+00,	0,	0
  3.00522E+04,	1.00000E+01,	-1.15976E-02,	1.05602E+01,	2.45583E+02,	3.87855E+00,	0.00000E+00,	0,	0
  2.38345E+04,	1.00000E+01,	-1.15976E-02,	1.14112E+01,	2.48246E+02,	6.86910E-01,	0.00000E+00,	0,	0
  1.86811E+04,	1.00000E+01,	-1.15976E-02,	1.22840E+01,	2.47927E+02,	5.22464E-01,	0.00000E+00,	0,	0
  1.47064E+04,	1.00000E+01,	-1.15976E-02,	1.32468E+01,	2.49716E+02,	-4.91529E-01,	0.00000E+00,	0,	0
  1.15200E+04,	1.00000E+01,	-1.15976E-02,	1.42330E+01,	2.49738E+02,	-1.69627E+00,	0.00000E+00,	0,	0
  9.60000E+03,	1.00000E+01,	-1.15976E-02,	1.57993E+01,	2.50587E+02,	-2.92421E+00,	0.00000E+00,	0,	0
  7.51304E+03,	1.00000E+01,	-1.15976E-02,	1.67176E+01,	2.51161E+02,	-2.79467E+00,	0.00000E+00,	0,	0
  5.76000E+03,	1.00000E+01,	-1.15976E-02,	1.76199E+01,	2.51248E+02,	-3.21126E+00,	0.00000E+00,	0,	0
  4.54737E+03,	1.00000E+01,	-1.15976E-02,	1.84825E+01,	2.52742E+02,	-4.27844E+00,	0.00000E+00,	0,	0
  3.60000E+03,	1.00000E+01,	-1.15976E-02,	1.94796E+01,	2.52369E+02,	-6.35122E+00,	0.00000E+00,	0,	0
  2.88000E+03,	1.00000E+01,	-1.15976E-02,	2.04024E+01,	2.52781E+02,	-7.55723E+00,	0.00000E+00,	0,	0
  2.27368E+03,	1.00000E+01,	-1.15976E-02,	2.26723E+01,	2.53705E+02,	-9.31278E+00,	0.00000E+00,	0,	0
  1.78144E+03,	1.00000E+01,	-1.15976E-02,	2.34764E+01,	2.55526E+02,	-1.18384E+01,	0.00000E+00,	0,	0
  1.41639E+03,	1.00000E+01,	-1.15976E-02,	2.43810E+01,	2.57605E+02,	-1.63199E+01,	0.00000E+00,	0,	0
  1.12208E+03,	1.00000E+01,	-1.15976E-02,	2.54117E+01,	2.56881E+02,	-1.71173E+01,	0.00000E+00,	0,	0
  9.00000E+02,	1.00000E+01,	-1.15976E-02,	3.04071E+01,	2.59440E+02,	-2.07842E+01,	0.00000E+00,	0,	0
  7.20000E+02,	1.00000E+01,	-1.15976E-02,	3.17705E+01,	2.60908E+02,	-2.51833E+01,	0.00000E+00,	0,	0
  5.68421E+02,	1.00000E+01,	-1.15976E-02,	3.31965E+01,	2.62847E+02,	-3.06918E+01,	0.00000E+00,	0,	0
  4.40816E+02,	1.00000E+01,	-1.15976E-02,	3.46610E+01,	2.65269E+02,	-3.78796E+01,	0.00000E+00,	0,	0
  3.54098E+02,	1.00000E+01,	-1.15976E-02,	3.70044E+01,	2.68303E+02,	-4.55351E+01,	0.00000E+00,	0,	0
  2.76923E+02,	1.00000E+01,	-1.15976E-02,	3.96456E+01,	2.72230E+02,	-5.56789E+01,	0.00000E+00,	0,	0
  2.20408E+02,	1.00000E+01,	-1.15976E-02,	4.25594E+01,	2.77001E+02,	-6.71528E+01,	0.00000E+00,	0,	0
  1.74194E+02,	1.00000E+01,	-1.15976E-02,	4.58176E+01,	2.82737E+02,	-8.11150E+01,	0.00000E+00,	0,	0
  1.37580E+02,	1.00000E+01,	-1.15976E-02,	4.94679E+01,	2.89839E+02,	-9.79524E+01,	0.00000E+00,	0,	0
  1.09091E+02,	1.00000E+01,	-1.15976E-02,	5.35424E+01,	2.98320E+02,	-1.17791E+02,	0.00000E+00,	0,	0
  8.70968E+01,	1.00000E+01,	-1.15976E-02,	5.92340E+01,	3.08525E+02,	-1.40786E+02,	0.00000E+00,	0,	0
  6.83544E+01,	1.00000E+01,	-1.15976E-02,	6.42448E+01,	3.22348E+02,	-1.71275E+02,	0.00000E+00,	0,	0
  5.45455E+01,	1.00000E+01,	-1.15976E-02,	6.96991E+01,	3.32917E+02,	-1.98570E+02,	0.00000E+00,	0,	0
  4.28571E+01,	1.00000E+01,	-1.15976E-02,	7.32312E+01,	3.48657E+02,	-2.38604E+02,	0.00000E+00,	0,	0
  3.39623E+01,	1.00000E+01,	-1.15976E-02,	7.69559E+01,	3.63571E+02,	-2.85901E+02,	0.00000E+00,	0,	0
  2.68657E+01,	1.00000E+01,	-1.15976E-02,	8.07806E+01,	3.85598E+02,	-3.42871E+02,	0.00000E+00,	0,	0
  2.13439E+01,	1.00000E+01,	-1.15976E-02,	8.45766E+01,	4.09158E+02,	-4.09730E+02,	0.00000E+00,	0,	0
  1.73077E+01,	1.00000E+01,	-1.15976E-02,	8.82753E+01,	4.33275E+02,	-4.82972E+02,	0.00000E+00,	0,	0
  1.36364E+01,	1.00000E+01,	-1.15976E-02,	9.33264E+01,	4.64061E+02,	-5.83596E+02,	0.00000E+00,	0,	0
  1.07143E+01,	1.00000E+01,	-1.15976E-02,	9.62328E+01,	4.99543E+02,	-7.08233E+02,	0.00000E+00,	0,	0
  8.49057E+00,	1.00000E+01,	-1.15976E-02,	1.00434E+02,	5.40111E+02,	-8.57186E+02,	0.00000E+00,	0,	0
  6.71642E+00,	1.00000E+01,	-1.15976E-02,	1.02978E+02,	5.87659E+02,	-1.04145E+03,	0.00000E+00,	0,	0
  5.29412E+00,	1.00000E+01,	-1.15976E-02,	1.05934E+02,	6.46163E+02,	-1.27039E+03,	0.00000E+00,	0,	0
  4.16667E+00,	1.00000E+01,	-1.15976E-02,	1.09424E+02,	7.18751E+02,	-1.55588E+03,	0.00000E+00,	0,	0
  3.30882E+00,	1.00000E+01,	-1.15976E-02,	1.15962E+02,	8.05326E+02,	-1.89140E+03,	0.00000E+00,	0,	0
  2.61628E+00,	1.00000E+01,	-1.15976E-02,	1.19909E+02,	9.16475E+02,	-2.30993E+03,	0.00000E+00,	0,	0
  2.07373E+00,	1.00000E+01,	-1.15976E-02,	1.24715E+02,	1.05567E+03,	-2.81787E+03,	0.00000E+00,	0,	0
  1.64234E+00,	1.00000E+01,	-1.15976E-02,	1.30496E+02,	1.23310E+03,	-3.43720E+03,	0.00000E+00,	0,	0
  1.30058E+00,	1.00000E+01,	-1.15976E-02,	1.34713E+02,	1.46136E+03,	-4.18581E+03,	0.00000E+00,	0,	0
  1.03211E+00,	1.00000E+01,	-1.15976E-02,	1.39137E+02,	1.75379E+03,	-5.08854E+03,	0.00000E+00,	0,	0
  8.15217E-01,	1.00000E+01,	-1.15976E-02,	1.46075E+02,	2.12821E+03,	-6.17923E+03,	0.00000E+00,	0,	0
  6.46552E-01,	1.00000E+01,	-1.15976E-02,	1.50891E+02,	2.60652E+03,	-7.47411E+03,	0.00000E+00,	0,	0
  5.11364E-01,	1.00000E+01,	-1.15976E-02,	1.55893E+02,	3.13592E+03,	-9.05774E+03,	0.00000E+00,	0,	0
  4.07609E-01,	1.00000E+01,	-1.15976E-02,	1.61953E+02,	3.87147E+03,	-1.08477E+04,	0.00000E+00,	0,	0
  3.21429E-01,	1.00000E+01,	-1.15976E-02,	1.69083E+02,	4.84980E+03,	-1.31971E+04,	0.00000E+00,	0,	0
  2.54525E-01,	1.00000E+01,	-1.15976E-02,	1.77855E+02,	6.03899E+03,	-1.57294E+04,	0.00000E+00,	0,	0
  2.01613E-01,	1.00000E+01,	-1.15976E-02,	1.88728E+02,	7.45910E+03,	-1.87201E+04,	0.00000E+00,	0,	0
  1.59574E-01,	1.00000E+01,	-1.15976E-02,	2.02181E+02,	9.15813E+03,	-2.22373E+04,	0.00000E+00,	0,	0
  1.26689E-01,	1.00000E+01,	-1.15976E-02,	2.36062E+02,	1.11503E+04,	-2.60289E+04,	0.00000E+00,	0,	0
  1.00446E-01,	1.00000E+01,	-1.15976E-02,	2.56920E+02,	1.33838E+04,	-3.18079E+04,	0.00000E+00,	0,	0