Z60W Data File: Version 1.1
CorrTest for Windows: SN CS310H1805157  V5.2.1111.9  2.5H6.220118
Sweep Frequency: Control Voltage
  Date:4-28-2026   Time:13:56:48
  Begin Information:            Cell Information
      Surface Area:           1
      Density:                7.8
      Weight:                 28
  End Information:              Cell Information
  Freq (Hz)     Ampl(mV)       Bias(V)      Time(Sec)       Z'(Ohm.cm^2)    Z''(Ohm.cm^2)        GD       Err      Range
End Comments
  3.07200E+05,	1.00000E+01,	-5.19045E-03,	6.44123E-02,	3.28653E+00,	5.44373E+00,	0.00000E+00,	0,	0
  2.76480E+05,	1.00000E+01,	-5.19045E-03,	1.67851E+00,	3.82893E+00,	4.58074E+00,	0.00000E+00,	0,	0
  1.97486E+05,	1.00000E+01,	-5.19045E-03,	2.57496E+00,	4.38448E+00,	3.23817E+00,	0.00000E+00,	0,	0
  1.53600E+05,	1.00000E+01,	-5.19045E-03,	3.47166E+00,	4.63981E+00,	2.46891E+00,	0.00000E+00,	0,	0
  1.25673E+05,	1.00000E+01,	-5.19045E-03,	4.38955E+00,	4.76835E+00,	1.97449E+00,	0.00000E+00,	0,	0
  9.87429E+04,	1.00000E+01,	-5.19045E-03,	5.30538E+00,	4.87720E+00,	1.49976E+00,	0.00000E+00,	0,	0
  7.68000E+04,	1.00000E+01,	-5.19045E-03,	6.19937E+00,	4.95714E+00,	1.08674E+00,	0.00000E+00,	0,	0
  6.01043E+04,	1.00000E+01,	-5.19045E-03,	8.35054E+00,	4.99508E+00,	7.33878E-01,	0.00000E+00,	0,	0
  4.93714E+04,	1.00000E+01,	-5.19045E-03,	9.96781E+00,	5.02597E+00,	5.16175E-01,	0.00000E+00,	0,	0
  3.84000E+04,	1.00000E+01,	-5.19045E-03,	1.08710E+01,	5.05536E+00,	2.75052E-01,	0.00000E+00,	0,	0
  3.00522E+04,	1.00000E+01,	-5.19045E-03,	1.17199E+01,	5.07794E+00,	4.76723E-02,	0.00000E+00,	0,	0
  2.38345E+04,	1.00000E+01,	-5.19045E-03,	1.25913E+01,	5.10568E+00,	-1.43211E-01,	0.00000E+00,	0,	0
  1.86811E+04,	1.00000E+01,	-5.19045E-03,	1.34222E+01,	5.14506E+00,	-3.45269E-01,	0.00000E+00,	0,	0
  1.47064E+04,	1.00000E+01,	-5.19045E-03,	1.43897E+01,	5.18590E+00,	-5.58693E-01,	0.00000E+00,	0,	0
  1.15200E+04,	1.00000E+01,	-5.19045E-03,	1.53519E+01,	5.24933E+00,	-7.86823E-01,	0.00000E+00,	0,	0
  9.60000E+03,	1.00000E+01,	-5.19045E-03,	1.69120E+01,	5.29877E+00,	-9.76357E-01,	0.00000E+00,	0,	0
  7.51304E+03,	1.00000E+01,	-5.19045E-03,	1.77691E+01,	5.38043E+00,	-1.25343E+00,	0.00000E+00,	0,	0
  5.76000E+03,	1.00000E+01,	-5.19045E-03,	1.86650E+01,	5.49241E+00,	-1.60242E+00,	0.00000E+00,	0,	0
  4.54737E+03,	1.00000E+01,	-5.19045E-03,	1.95404E+01,	5.61936E+00,	-1.96589E+00,	0.00000E+00,	0,	0
  3.60000E+03,	1.00000E+01,	-5.19045E-03,	2.05324E+01,	5.76254E+00,	-2.40088E+00,	0.00000E+00,	0,	0
  2.88000E+03,	1.00000E+01,	-5.19045E-03,	2.14269E+01,	5.92791E+00,	-2.87278E+00,	0.00000E+00,	0,	0
  2.27368E+03,	1.00000E+01,	-5.19045E-03,	2.33991E+01,	6.11851E+00,	-3.48757E+00,	0.00000E+00,	0,	0
  1.78144E+03,	1.00000E+01,	-5.19045E-03,	2.41868E+01,	6.35635E+00,	-4.22470E+00,	0.00000E+00,	0,	0
  1.41639E+03,	1.00000E+01,	-5.19045E-03,	2.50950E+01,	6.61146E+00,	-5.07657E+00,	0.00000E+00,	0,	0
  1.12208E+03,	1.00000E+01,	-5.19045E-03,	2.61585E+01,	6.91207E+00,	-6.12029E+00,	0.00000E+00,	0,	0
  9.00000E+02,	1.00000E+01,	-5.19045E-03,	3.11400E+01,	7.25043E+00,	-7.35630E+00,	0.00000E+00,	0,	0
  7.20000E+02,	1.00000E+01,	-5.19045E-03,	3.25358E+01,	7.62393E+00,	-8.83126E+00,	0.00000E+00,	0,	0
  5.68421E+02,	1.00000E+01,	-5.19045E-03,	3.39233E+01,	8.09167E+00,	-1.07538E+01,	0.00000E+00,	0,	0
  4.40816E+02,	1.00000E+01,	-5.19045E-03,	3.69472E+01,	8.72313E+00,	-1.33562E+01,	0.00000E+00,	0,	0
  3.54098E+02,	1.00000E+01,	-5.19045E-03,	3.92953E+01,	9.35670E+00,	-1.60853E+01,	0.00000E+00,	0,	0
  2.76923E+02,	1.00000E+01,	-5.19045E-03,	4.19296E+01,	1.02429E+01,	-1.98424E+01,	0.00000E+00,	0,	0
  2.20408E+02,	1.00000E+01,	-5.19045E-03,	4.48516E+01,	1.12724E+01,	-2.41524E+01,	0.00000E+00,	0,	0
  1.74194E+02,	1.00000E+01,	-5.19045E-03,	4.81501E+01,	1.26032E+01,	-2.95733E+01,	0.00000E+00,	0,	0
  1.37580E+02,	1.00000E+01,	-5.19045E-03,	5.18119E+01,	1.43094E+01,	-3.62347E+01,	0.00000E+00,	0,	0
  1.09091E+02,	1.00000E+01,	-5.19045E-03,	5.58619E+01,	1.64512E+01,	-4.42515E+01,	0.00000E+00,	0,	0
  8.70968E+01,	1.00000E+01,	-5.19045E-03,	6.15555E+01,	1.90886E+01,	-5.37462E+01,	0.00000E+00,	0,	0
  6.83544E+01,	1.00000E+01,	-5.19045E-03,	6.66140E+01,	2.28085E+01,	-6.64192E+01,	0.00000E+00,	0,	0
  5.45455E+01,	1.00000E+01,	-5.19045E-03,	7.20907E+01,	2.74931E+01,	-7.90637E+01,	0.00000E+00,	0,	0
  4.28571E+01,	1.00000E+01,	-5.19045E-03,	7.56293E+01,	3.37211E+01,	-9.64068E+01,	0.00000E+00,	0,	0
  3.39623E+01,	1.00000E+01,	-5.19045E-03,	7.93526E+01,	4.06543E+01,	-1.16205E+02,	0.00000E+00,	0,	0
  2.68657E+01,	1.00000E+01,	-5.19045E-03,	8.31841E+01,	5.07358E+01,	-1.40353E+02,	0.00000E+00,	0,	0
  2.13439E+01,	1.00000E+01,	-5.19045E-03,	8.69870E+01,	6.29789E+01,	-1.67831E+02,	0.00000E+00,	0,	0
  1.73077E+01,	1.00000E+01,	-5.19045E-03,	9.36806E+01,	7.66335E+01,	-1.97059E+02,	0.00000E+00,	0,	0
  1.36364E+01,	1.00000E+01,	-5.19045E-03,	9.87096E+01,	9.49361E+01,	-2.34916E+02,	0.00000E+00,	0,	0
  1.07143E+01,	1.00000E+01,	-5.19045E-03,	1.01620E+02,	1.16920E+02,	-2.79384E+02,	0.00000E+00,	0,	0
  8.49057E+00,	1.00000E+01,	-5.19045E-03,	1.05851E+02,	1.41605E+02,	-3.29660E+02,	0.00000E+00,	0,	0
  6.71642E+00,	1.00000E+01,	-5.19045E-03,	1.08360E+02,	1.69816E+02,	-3.88529E+02,	0.00000E+00,	0,	0
  5.29412E+00,	1.00000E+01,	-5.19045E-03,	1.11340E+02,	2.02441E+02,	-4.59322E+02,	0.00000E+00,	0,	0
  4.16667E+00,	1.00000E+01,	-5.19045E-03,	1.14849E+02,	2.39473E+02,	-5.44983E+02,	0.00000E+00,	0,	0
  3.30882E+00,	1.00000E+01,	-5.19045E-03,	1.19103E+02,	2.79683E+02,	-6.43910E+02,	0.00000E+00,	0,	0
  2.61628E+00,	1.00000E+01,	-5.19045E-03,	1.23065E+02,	3.26342E+02,	-7.64984E+02,	0.00000E+00,	0,	0
  2.07373E+00,	1.00000E+01,	-5.19045E-03,	1.27820E+02,	3.79546E+02,	-9.10418E+02,	0.00000E+00,	0,	0
  1.64234E+00,	1.00000E+01,	-5.19045E-03,	1.33642E+02,	4.41393E+02,	-1.08716E+03,	0.00000E+00,	0,	0
  1.30058E+00,	1.00000E+01,	-5.19045E-03,	1.37828E+02,	5.14203E+02,	-1.29976E+03,	0.00000E+00,	0,	0
  1.03211E+00,	1.00000E+01,	-5.19045E-03,	1.42222E+02,	5.99975E+02,	-1.55580E+03,	0.00000E+00,	0,	0
  8.15217E-01,	1.00000E+01,	-5.19045E-03,	1.49170E+02,	6.97310E+02,	-1.86585E+03,	0.00000E+00,	0,	0
  6.46552E-01,	1.00000E+01,	-5.19045E-03,	1.58254E+02,	8.07192E+02,	-2.23719E+03,	0.00000E+00,	0,	0
  5.11364E-01,	1.00000E+01,	-5.19045E-03,	1.63300E+02,	9.01741E+02,	-2.70137E+03,	0.00000E+00,	0,	0
  4.07609E-01,	1.00000E+01,	-5.19045E-03,	1.69357E+02,	1.03275E+03,	-3.24017E+03,	0.00000E+00,	0,	0
  3.21429E-01,	1.00000E+01,	-5.19045E-03,	1.76504E+02,	1.18325E+03,	-3.99312E+03,	0.00000E+00,	0,	0
  2.54525E-01,	1.00000E+01,	-5.19045E-03,	1.85279E+02,	1.34631E+03,	-4.84095E+03,	0.00000E+00,	0,	0
  2.01613E-01,	1.00000E+01,	-5.19045E-03,	1.96173E+02,	1.52397E+03,	-5.90532E+03,	0.00000E+00,	0,	0
  1.59574E-01,	1.00000E+01,	-5.19045E-03,	2.09631E+02,	1.72929E+03,	-7.24234E+03,	0.00000E+00,	0,	0
  1.26689E-01,	1.00000E+01,	-5.19045E-03,	2.26587E+02,	1.97278E+03,	-8.88242E+03,	0.00000E+00,	0,	0
  1.00446E-01,	1.00000E+01,	-5.19045E-03,	2.47458E+02,	2.27309E+03,	-1.09543E+04,	0.00000E+00,	0,	0