Z60W Data File: Version 1.1
CorrTest for Windows: SN CS310H1805157  V5.2.1111.9  2.5H6.220118
Sweep Frequency: Control Voltage
  Date:4-28-2026   Time:18:06:57
  Begin Information:            Cell Information
      Surface Area:           1
      Density:                7.8
      Weight:                 28
  End Information:              Cell Information
  Freq (Hz)     Ampl(mV)       Bias(V)      Time(Sec)       Z'(Ohm.cm^2)    Z''(Ohm.cm^2)        GD       Err      Range
End Comments
  3.07200E+05,	1.00000E+01,	-1.67729E-02,	2.96226E-02,	-5.00516E+01,	4.24843E+00,	0.00000E+00,	0,	0
  2.76480E+05,	1.00000E+01,	-1.67729E-02,	1.64075E+00,	-3.44942E+01,	5.68389E+01,	0.00000E+00,	0,	0
  1.97486E+05,	1.00000E+01,	-1.67729E-02,	2.53574E+00,	-1.02038E+02,	6.94815E+01,	0.00000E+00,	0,	0
  1.53600E+05,	1.00000E+01,	-1.67729E-02,	3.44178E+00,	-1.69380E+02,	1.45125E+02,	0.00000E+00,	0,	0
  1.25673E+05,	1.00000E+01,	-1.67729E-02,	4.40779E+00,	-1.54015E+02,	2.52325E+02,	0.00000E+00,	0,	0
  9.87429E+04,	1.00000E+01,	-1.67729E-02,	5.30188E+00,	-1.87148E+02,	1.33059E+02,	0.00000E+00,	0,	0
  7.68000E+04,	1.00000E+01,	-1.67729E-02,	6.20616E+00,	-7.63698E+02,	2.73852E+02,	0.00000E+00,	0,	0
  6.01043E+04,	1.00000E+01,	-1.67729E-02,	7.20848E+00,	-7.91759E+02,	1.61868E+03,	0.00000E+00,	0,	0
  4.93714E+04,	1.00000E+01,	-1.67729E-02,	8.80760E+00,	9.33053E+02,	7.10388E+02,	0.00000E+00,	0,	0
  3.84000E+04,	1.00000E+01,	-1.67729E-02,	9.71685E+00,	-1.35316E+03,	4.05586E+03,	0.00000E+00,	0,	0
  3.00522E+04,	1.00000E+01,	-1.67729E-02,	1.06052E+01,	-5.89719E+02,	9.45894E+02,	0.00000E+00,	0,	0
  2.38345E+04,	1.00000E+01,	-1.67729E-02,	1.14794E+01,	-3.40369E+01,	1.38544E+03,	0.00000E+00,	0,	0
  1.86811E+04,	1.00000E+01,	-1.67729E-02,	1.23850E+01,	2.07233E+03,	1.53653E+03,	0.00000E+00,	0,	0
  1.47064E+04,	1.00000E+01,	-1.67729E-02,	1.33521E+01,	3.76528E+03,	6.43004E+02,	0.00000E+00,	0,	0
  1.15200E+04,	1.00000E+01,	-1.67729E-02,	1.43154E+01,	1.46772E+03,	-5.17757E+03,	0.00000E+00,	0,	0
  9.60000E+03,	1.00000E+01,	-1.67729E-02,	1.58762E+01,	-1.42285E+03,	-9.46702E+02,	0.00000E+00,	0,	0
  7.51304E+03,	1.00000E+01,	-1.67729E-02,	1.67455E+01,	9.97455E+02,	6.64140E+02,	0.00000E+00,	0,	0
  5.76000E+03,	1.00000E+01,	-1.67729E-02,	1.76531E+01,	-3.31294E+03,	8.34685E+03,	0.00000E+00,	0,	0
  4.54737E+03,	1.00000E+01,	-1.67729E-02,	1.85227E+01,	3.74421E+02,	1.19931E+03,	0.00000E+00,	0,	0
  3.60000E+03,	1.00000E+01,	-1.67729E-02,	1.95144E+01,	-1.06002E+02,	4.89018E+03,	0.00000E+00,	0,	0
  2.88000E+03,	1.00000E+01,	-1.67729E-02,	2.04345E+01,	3.63455E+02,	8.00616E+02,	0.00000E+00,	0,	0
  2.27368E+03,	1.00000E+01,	-1.67729E-02,	2.15819E+01,	4.96953E+03,	-2.79691E+03,	0.00000E+00,	0,	0
  1.78144E+03,	1.00000E+01,	-1.67729E-02,	2.23713E+01,	-8.38836E+02,	3.69764E+02,	0.00000E+00,	0,	0
  1.41639E+03,	1.00000E+01,	-1.67729E-02,	2.32826E+01,	4.34827E+03,	1.22111E+03,	0.00000E+00,	0,	0
  1.12208E+03,	1.00000E+01,	-1.67729E-02,	2.43064E+01,	-3.88549E+03,	3.92548E+02,	0.00000E+00,	0,	0
  9.00000E+02,	1.00000E+01,	-1.67729E-02,	2.92818E+01,	1.71592E+03,	1.83340E+02,	0.00000E+00,	0,	0
  7.20000E+02,	1.00000E+01,	-1.67729E-02,	3.06750E+01,	2.86387E+03,	8.25760E+02,	0.00000E+00,	0,	0
  5.68421E+02,	1.00000E+01,	-1.67729E-02,	3.20608E+01,	4.88191E+03,	-6.52351E+02,	0.00000E+00,	0,	0
  4.40816E+02,	1.00000E+01,	-1.67729E-02,	3.98385E+01,	4.86454E+03,	-1.43364E+02,	0.00000E+00,	0,	0
  3.54098E+02,	1.00000E+01,	-1.67729E-02,	4.21834E+01,	4.87970E+03,	-1.43436E+02,	0.00000E+00,	0,	0
  2.76923E+02,	1.00000E+01,	-1.67729E-02,	4.48338E+01,	4.89541E+03,	-1.52845E+02,	0.00000E+00,	0,	0
  2.20408E+02,	1.00000E+01,	-1.67729E-02,	4.77559E+01,	4.91625E+03,	-1.67683E+02,	0.00000E+00,	0,	0
  1.74194E+02,	1.00000E+01,	-1.67729E-02,	5.10242E+01,	4.93812E+03,	-1.93239E+02,	0.00000E+00,	0,	0
  1.37580E+02,	1.00000E+01,	-1.67729E-02,	5.46867E+01,	4.96470E+03,	-2.22643E+02,	0.00000E+00,	0,	0
  1.09091E+02,	1.00000E+01,	-1.67729E-02,	5.87459E+01,	4.99534E+03,	-2.60650E+02,	0.00000E+00,	0,	0
  8.70968E+01,	1.00000E+01,	-1.67729E-02,	6.44380E+01,	5.03877E+03,	-3.17303E+02,	0.00000E+00,	0,	0
  6.83544E+01,	1.00000E+01,	-1.67729E-02,	6.94853E+01,	5.10844E+03,	-3.92548E+02,	0.00000E+00,	0,	0
  5.45455E+01,	1.00000E+01,	-1.67729E-02,	7.49580E+01,	5.08996E+03,	-4.23119E+02,	0.00000E+00,	0,	0
  4.28571E+01,	1.00000E+01,	-1.67729E-02,	7.84946E+01,	5.13157E+03,	-5.12781E+02,	0.00000E+00,	0,	0
  3.39623E+01,	1.00000E+01,	-1.67729E-02,	8.22117E+01,	5.15928E+03,	-6.43528E+02,	0.00000E+00,	0,	0
  2.68657E+01,	1.00000E+01,	-1.67729E-02,	8.60510E+01,	5.23770E+03,	-7.66547E+02,	0.00000E+00,	0,	0
  2.13439E+01,	1.00000E+01,	-1.67729E-02,	8.98830E+01,	5.31176E+03,	-9.15994E+02,	0.00000E+00,	0,	0
  1.73077E+01,	1.00000E+01,	-1.67729E-02,	9.35707E+01,	5.38844E+03,	-1.07851E+03,	0.00000E+00,	0,	0
  1.36364E+01,	1.00000E+01,	-1.67729E-02,	9.86297E+01,	5.49353E+03,	-1.30219E+03,	0.00000E+00,	0,	0
  1.07143E+01,	1.00000E+01,	-1.67729E-02,	1.01545E+02,	5.61036E+03,	-1.57031E+03,	0.00000E+00,	0,	0
  8.49057E+00,	1.00000E+01,	-1.67729E-02,	1.05754E+02,	5.75713E+03,	-1.88132E+03,	0.00000E+00,	0,	0
  6.71642E+00,	1.00000E+01,	-1.67729E-02,	1.08260E+02,	5.91560E+03,	-2.24666E+03,	0.00000E+00,	0,	0
  5.29412E+00,	1.00000E+01,	-1.67729E-02,	1.11211E+02,	6.11133E+03,	-2.69019E+03,	0.00000E+00,	0,	0
  4.16667E+00,	1.00000E+01,	-1.67729E-02,	1.14689E+02,	6.34820E+03,	-3.21960E+03,	0.00000E+00,	0,	0
  3.30882E+00,	1.00000E+01,	-1.67729E-02,	1.18913E+02,	6.62054E+03,	-3.82116E+03,	0.00000E+00,	0,	0
  2.61628E+00,	1.00000E+01,	-1.67729E-02,	1.22904E+02,	6.93671E+03,	-4.54791E+03,	0.00000E+00,	0,	0
  2.07373E+00,	1.00000E+01,	-1.67729E-02,	1.27711E+02,	7.30375E+03,	-5.40240E+03,	0.00000E+00,	0,	0
  1.64234E+00,	1.00000E+01,	-1.67729E-02,	1.33492E+02,	7.72507E+03,	-6.42822E+03,	0.00000E+00,	0,	0
  1.30058E+00,	1.00000E+01,	-1.67729E-02,	1.37659E+02,	8.20055E+03,	-7.64307E+03,	0.00000E+00,	0,	0
  1.03211E+00,	1.00000E+01,	-1.67729E-02,	1.42065E+02,	8.77220E+03,	-9.09409E+03,	0.00000E+00,	0,	0
  8.15217E-01,	1.00000E+01,	-1.67729E-02,	1.49022E+02,	9.36660E+03,	-1.08870E+04,	0.00000E+00,	0,	0
  6.46552E-01,	1.00000E+01,	-1.67729E-02,	1.58109E+02,	1.00838E+04,	-1.30311E+04,	0.00000E+00,	0,	0
  5.11364E-01,	1.00000E+01,	-1.67729E-02,	1.63114E+02,	1.06726E+04,	-1.59404E+04,	0.00000E+00,	0,	0
  4.07609E-01,	1.00000E+01,	-1.67729E-02,	1.69185E+02,	1.16062E+04,	-1.90463E+04,	0.00000E+00,	0,	0
  3.21429E-01,	1.00000E+01,	-1.67729E-02,	1.76308E+02,	1.30253E+04,	-2.36099E+04,	0.00000E+00,	0,	0
  2.54525E-01,	1.00000E+01,	-1.67729E-02,	1.85061E+02,	1.43681E+04,	-2.83976E+04,	0.00000E+00,	0,	0
  2.01613E-01,	1.00000E+01,	-1.67729E-02,	1.95901E+02,	1.59737E+04,	-3.43788E+04,	0.00000E+00,	0,	0
  1.59574E-01,	1.00000E+01,	-1.67729E-02,	2.09383E+02,	1.79560E+04,	-4.17147E+04,	0.00000E+00,	0,	0
  1.26689E-01,	1.00000E+01,	-1.67729E-02,	2.26284E+02,	2.03783E+04,	-5.05478E+04,	0.00000E+00,	0,	0
  1.00446E-01,	1.00000E+01,	-1.67729E-02,	2.47147E+02,	2.34273E+04,	-6.14683E+04,	0.00000E+00,	0,	0