Z60W Data File: Version 1.1
CorrTest for Windows: SN CS310H1805157  V5.2.1111.9  2.5H6.220118
Sweep Frequency: Control Voltage
  Date:4-28-2026   Time:14:36:24
  Begin Information:            Cell Information
      Surface Area:           1
      Density:                7.8
      Weight:                 28
  End Information:              Cell Information
  Freq (Hz)     Ampl(mV)       Bias(V)      Time(Sec)       Z'(Ohm.cm^2)    Z''(Ohm.cm^2)        GD       Err      Range
End Comments
  3.07200E+05,	1.00000E+01,	-3.40935E-03,	7.20238E-02,	5.52893E+00,	6.67039E+00,	0.00000E+00,	0,	0
  2.76480E+05,	1.00000E+01,	-3.40935E-03,	1.67459E+00,	5.93485E+00,	5.62810E+00,	0.00000E+00,	0,	0
  1.97486E+05,	1.00000E+01,	-3.40935E-03,	2.58953E+00,	6.48814E+00,	3.99811E+00,	0.00000E+00,	0,	0
  1.53600E+05,	1.00000E+01,	-3.40935E-03,	3.49047E+00,	6.69434E+00,	3.06403E+00,	0.00000E+00,	0,	0
  1.25673E+05,	1.00000E+01,	-3.40935E-03,	4.41372E+00,	6.81304E+00,	2.44770E+00,	0.00000E+00,	0,	0
  9.87429E+04,	1.00000E+01,	-3.40935E-03,	5.34196E+00,	6.91010E+00,	1.86252E+00,	0.00000E+00,	0,	0
  7.68000E+04,	1.00000E+01,	-3.40935E-03,	6.23551E+00,	6.98690E+00,	1.36470E+00,	0.00000E+00,	0,	0
  6.01043E+04,	1.00000E+01,	-3.40935E-03,	8.36246E+00,	7.01454E+00,	9.39153E-01,	0.00000E+00,	0,	0
  4.93714E+04,	1.00000E+01,	-3.40935E-03,	9.93728E+00,	7.04707E+00,	6.78749E-01,	0.00000E+00,	0,	0
  3.84000E+04,	1.00000E+01,	-3.40935E-03,	1.08386E+01,	7.07744E+00,	3.82064E-01,	0.00000E+00,	0,	0
  3.00522E+04,	1.00000E+01,	-3.40935E-03,	1.17134E+01,	7.09715E+00,	1.22254E-01,	0.00000E+00,	0,	0
  2.38345E+04,	1.00000E+01,	-3.40935E-03,	1.26044E+01,	7.12641E+00,	-1.03141E-01,	0.00000E+00,	0,	0
  1.86811E+04,	1.00000E+01,	-3.40935E-03,	1.35204E+01,	7.16874E+00,	-3.35668E-01,	0.00000E+00,	0,	0
  1.47064E+04,	1.00000E+01,	-3.40935E-03,	1.44780E+01,	7.21415E+00,	-5.74460E-01,	0.00000E+00,	0,	0
  1.15200E+04,	1.00000E+01,	-3.40935E-03,	1.54754E+01,	7.27653E+00,	-8.38944E-01,	0.00000E+00,	0,	0
  9.60000E+03,	1.00000E+01,	-3.40935E-03,	1.70973E+01,	7.33630E+00,	-1.05083E+00,	0.00000E+00,	0,	0
  7.51304E+03,	1.00000E+01,	-3.40935E-03,	1.79780E+01,	7.42807E+00,	-1.36471E+00,	0.00000E+00,	0,	0
  5.76000E+03,	1.00000E+01,	-3.40935E-03,	1.88774E+01,	7.55130E+00,	-1.76894E+00,	0.00000E+00,	0,	0
  4.54737E+03,	1.00000E+01,	-3.40935E-03,	1.97483E+01,	7.68891E+00,	-2.17965E+00,	0.00000E+00,	0,	0
  3.60000E+03,	1.00000E+01,	-3.40935E-03,	2.07464E+01,	7.85686E+00,	-2.67327E+00,	0.00000E+00,	0,	0
  2.88000E+03,	1.00000E+01,	-3.40935E-03,	2.16846E+01,	8.04354E+00,	-3.20628E+00,	0.00000E+00,	0,	0
  2.27368E+03,	1.00000E+01,	-3.40935E-03,	2.28164E+01,	8.27638E+00,	-3.87804E+00,	0.00000E+00,	0,	0
  1.78144E+03,	1.00000E+01,	-3.40935E-03,	2.36089E+01,	8.55536E+00,	-4.71534E+00,	0.00000E+00,	0,	0
  1.41639E+03,	1.00000E+01,	-3.40935E-03,	2.45248E+01,	8.86804E+00,	-5.65268E+00,	0.00000E+00,	0,	0
  1.12208E+03,	1.00000E+01,	-3.40935E-03,	2.55647E+01,	9.21408E+00,	-6.80865E+00,	0.00000E+00,	0,	0
  9.00000E+02,	1.00000E+01,	-3.40935E-03,	3.05721E+01,	9.62403E+00,	-8.11522E+00,	0.00000E+00,	0,	0
  7.20000E+02,	1.00000E+01,	-3.40935E-03,	3.19808E+01,	1.00719E+01,	-9.70847E+00,	0.00000E+00,	0,	0
  5.68421E+02,	1.00000E+01,	-3.40935E-03,	3.33887E+01,	1.06128E+01,	-1.17761E+01,	0.00000E+00,	0,	0
  4.40816E+02,	1.00000E+01,	-3.40935E-03,	3.64558E+01,	1.13317E+01,	-1.45562E+01,	0.00000E+00,	0,	0
  3.54098E+02,	1.00000E+01,	-3.40935E-03,	3.87859E+01,	1.20261E+01,	-1.74719E+01,	0.00000E+00,	0,	0
  2.76923E+02,	1.00000E+01,	-3.40935E-03,	4.14320E+01,	1.29884E+01,	-2.15058E+01,	0.00000E+00,	0,	0
  2.20408E+02,	1.00000E+01,	-3.40935E-03,	4.43632E+01,	1.40702E+01,	-2.61232E+01,	0.00000E+00,	0,	0
  1.74194E+02,	1.00000E+01,	-3.40935E-03,	4.76353E+01,	1.54505E+01,	-3.19634E+01,	0.00000E+00,	0,	0
  1.37580E+02,	1.00000E+01,	-3.40935E-03,	5.13247E+01,	1.71847E+01,	-3.91470E+01,	0.00000E+00,	0,	0
  1.09091E+02,	1.00000E+01,	-3.40935E-03,	5.53793E+01,	1.93467E+01,	-4.78439E+01,	0.00000E+00,	0,	0
  8.70968E+01,	1.00000E+01,	-3.40935E-03,	6.11286E+01,	2.19772E+01,	-5.81826E+01,	0.00000E+00,	0,	0
  6.83544E+01,	1.00000E+01,	-3.40935E-03,	6.61817E+01,	2.56831E+01,	-7.20727E+01,	0.00000E+00,	0,	0
  5.45455E+01,	1.00000E+01,	-3.40935E-03,	7.16262E+01,	3.03428E+01,	-8.60607E+01,	0.00000E+00,	0,	0
  4.28571E+01,	1.00000E+01,	-3.40935E-03,	7.51933E+01,	3.65424E+01,	-1.05365E+02,	0.00000E+00,	0,	0
  3.39623E+01,	1.00000E+01,	-3.40935E-03,	7.89494E+01,	4.34315E+01,	-1.27643E+02,	0.00000E+00,	0,	0
  2.68657E+01,	1.00000E+01,	-3.40935E-03,	8.27778E+01,	5.37026E+01,	-1.55081E+02,	0.00000E+00,	0,	0
  2.13439E+01,	1.00000E+01,	-3.40935E-03,	8.65740E+01,	6.64110E+01,	-1.86680E+02,	0.00000E+00,	0,	0
  1.73077E+01,	1.00000E+01,	-3.40935E-03,	9.32442E+01,	8.08787E+01,	-2.20531E+02,	0.00000E+00,	0,	0
  1.36364E+01,	1.00000E+01,	-3.40935E-03,	9.83078E+01,	1.00852E+02,	-2.64787E+02,	0.00000E+00,	0,	0
  1.07143E+01,	1.00000E+01,	-3.40935E-03,	1.01243E+02,	1.25605E+02,	-3.16954E+02,	0.00000E+00,	0,	0
  8.49057E+00,	1.00000E+01,	-3.40935E-03,	1.05466E+02,	1.54246E+02,	-3.75647E+02,	0.00000E+00,	0,	0
  6.71642E+00,	1.00000E+01,	-3.40935E-03,	1.07973E+02,	1.88072E+02,	-4.44026E+02,	0.00000E+00,	0,	0
  5.29412E+00,	1.00000E+01,	-3.40935E-03,	1.10940E+02,	2.27733E+02,	-5.24972E+02,	0.00000E+00,	0,	0
  4.16667E+00,	1.00000E+01,	-3.40935E-03,	1.14411E+02,	2.73223E+02,	-6.21432E+02,	0.00000E+00,	0,	0
  3.30882E+00,	1.00000E+01,	-3.40935E-03,	1.18680E+02,	3.22434E+02,	-7.31512E+02,	0.00000E+00,	0,	0
  2.61628E+00,	1.00000E+01,	-3.40935E-03,	1.22675E+02,	3.79124E+02,	-8.65213E+02,	0.00000E+00,	0,	0
  2.07373E+00,	1.00000E+01,	-3.40935E-03,	1.27438E+02,	4.42657E+02,	-1.02466E+03,	0.00000E+00,	0,	0
  1.64234E+00,	1.00000E+01,	-3.40935E-03,	1.33272E+02,	5.15455E+02,	-1.21820E+03,	0.00000E+00,	0,	0
  1.30058E+00,	1.00000E+01,	-3.40935E-03,	1.37432E+02,	6.00325E+02,	-1.45135E+03,	0.00000E+00,	0,	0
  1.03211E+00,	1.00000E+01,	-3.40935E-03,	1.41841E+02,	6.99690E+02,	-1.73291E+03,	0.00000E+00,	0,	0
  8.15217E-01,	1.00000E+01,	-3.40935E-03,	1.48832E+02,	8.13876E+02,	-2.07352E+03,	0.00000E+00,	0,	0
  6.46552E-01,	1.00000E+01,	-3.40935E-03,	1.57962E+02,	9.45541E+02,	-2.48311E+03,	0.00000E+00,	0,	0
  5.11364E-01,	1.00000E+01,	-3.40935E-03,	1.62956E+02,	1.06464E+03,	-2.99068E+03,	0.00000E+00,	0,	0
  4.07609E-01,	1.00000E+01,	-3.40935E-03,	1.69015E+02,	1.23110E+03,	-3.57378E+03,	0.00000E+00,	0,	0
  3.21429E-01,	1.00000E+01,	-3.40935E-03,	1.76176E+02,	1.42716E+03,	-4.38293E+03,	0.00000E+00,	0,	0
  2.54525E-01,	1.00000E+01,	-3.40935E-03,	1.84975E+02,	1.63669E+03,	-5.27721E+03,	0.00000E+00,	0,	0
  2.01613E-01,	1.00000E+01,	-3.40935E-03,	1.95822E+02,	1.85550E+03,	-6.39212E+03,	0.00000E+00,	0,	0
  1.59574E-01,	1.00000E+01,	-3.40935E-03,	2.09299E+02,	2.09685E+03,	-7.78356E+03,	0.00000E+00,	0,	0
  1.26689E-01,	1.00000E+01,	-3.40935E-03,	2.26208E+02,	2.36248E+03,	-9.49378E+03,	0.00000E+00,	0,	0
  1.00446E-01,	1.00000E+01,	-3.40935E-03,	2.47126E+02,	2.67248E+03,	-1.16572E+04,	0.00000E+00,	0,	0