Z60W Data File: Version 1.1
CorrTest for Windows: SN CS310H1805157  V5.2.1111.9  2.5H6.220118
Sweep Frequency: Control Voltage
  Date:4-28-2026   Time:17:03:38
  Begin Information:            Cell Information
      Surface Area:           1
      Density:                7.8
      Weight:                 28
  End Information:              Cell Information
  Freq (Hz)     Ampl(mV)       Bias(V)      Time(Sec)       Z'(Ohm.cm^2)    Z''(Ohm.cm^2)        GD       Err      Range
End Comments
  3.07200E+05,	1.00000E+01,	-9.59845E-03,	3.25338E-02,	1.54152E+02,	4.93266E+01,	0.00000E+00,	0,	0
  2.76480E+05,	1.00000E+01,	-9.59845E-03,	1.62568E+00,	1.50429E+02,	4.38147E+01,	0.00000E+00,	0,	0
  1.97486E+05,	1.00000E+01,	-9.59845E-03,	2.52288E+00,	1.44694E+02,	3.24756E+01,	0.00000E+00,	0,	0
  1.53600E+05,	1.00000E+01,	-9.59845E-03,	3.43243E+00,	1.42154E+02,	2.48990E+01,	0.00000E+00,	0,	0
  1.25673E+05,	1.00000E+01,	-9.59845E-03,	4.33903E+00,	1.41095E+02,	1.98311E+01,	0.00000E+00,	0,	0
  9.87429E+04,	1.00000E+01,	-9.59845E-03,	5.25500E+00,	1.40504E+02,	1.52950E+01,	0.00000E+00,	0,	0
  7.68000E+04,	1.00000E+01,	-9.59845E-03,	6.17245E+00,	1.39672E+02,	1.14063E+01,	0.00000E+00,	0,	0
  6.01043E+04,	1.00000E+01,	-9.59845E-03,	7.16836E+00,	1.39978E+02,	8.37884E+00,	0.00000E+00,	0,	0
  4.93714E+04,	1.00000E+01,	-9.59845E-03,	8.73145E+00,	1.39915E+02,	7.09579E+00,	0.00000E+00,	0,	0
  3.84000E+04,	1.00000E+01,	-9.59845E-03,	9.62502E+00,	1.41145E+02,	3.72668E+00,	0.00000E+00,	0,	0
  3.00522E+04,	1.00000E+01,	-9.59845E-03,	1.04958E+01,	1.40650E+02,	2.15665E+00,	0.00000E+00,	0,	0
  2.38345E+04,	1.00000E+01,	-9.59845E-03,	1.13817E+01,	1.40351E+02,	2.21140E+00,	0.00000E+00,	0,	0
  1.86811E+04,	1.00000E+01,	-9.59845E-03,	1.22107E+01,	1.40668E+02,	1.78683E+00,	0.00000E+00,	0,	0
  1.47064E+04,	1.00000E+01,	-9.59845E-03,	1.31628E+01,	1.41651E+02,	3.36209E-02,	0.00000E+00,	0,	0
  1.15200E+04,	1.00000E+01,	-9.59845E-03,	1.41192E+01,	1.40911E+02,	-8.35511E-01,	0.00000E+00,	0,	0
  9.60000E+03,	1.00000E+01,	-9.59845E-03,	1.56991E+01,	1.41259E+02,	-1.45012E+00,	0.00000E+00,	0,	0
  7.51304E+03,	1.00000E+01,	-9.59845E-03,	1.65703E+01,	1.41524E+02,	-1.94130E+00,	0.00000E+00,	0,	0
  5.76000E+03,	1.00000E+01,	-9.59845E-03,	1.74785E+01,	1.42133E+02,	-2.82088E+00,	0.00000E+00,	0,	0
  4.54737E+03,	1.00000E+01,	-9.59845E-03,	1.83496E+01,	1.42154E+02,	-4.43058E+00,	0.00000E+00,	0,	0
  3.60000E+03,	1.00000E+01,	-9.59845E-03,	1.93386E+01,	1.42613E+02,	-5.55169E+00,	0.00000E+00,	0,	0
  2.88000E+03,	1.00000E+01,	-9.59845E-03,	2.02762E+01,	1.42569E+02,	-7.30940E+00,	0.00000E+00,	0,	0
  2.27368E+03,	1.00000E+01,	-9.59845E-03,	2.25470E+01,	1.43563E+02,	-8.18497E+00,	0.00000E+00,	0,	0
  1.78144E+03,	1.00000E+01,	-9.59845E-03,	2.33320E+01,	1.45472E+02,	-8.75070E+00,	0.00000E+00,	0,	0
  1.41639E+03,	1.00000E+01,	-9.59845E-03,	2.42642E+01,	1.44005E+02,	-1.34842E+01,	0.00000E+00,	0,	0
  1.12208E+03,	1.00000E+01,	-9.59845E-03,	2.53087E+01,	1.45786E+02,	-1.52086E+01,	0.00000E+00,	0,	0
  9.00000E+02,	1.00000E+01,	-9.59845E-03,	3.03135E+01,	1.47469E+02,	-1.82714E+01,	0.00000E+00,	0,	0
  7.20000E+02,	1.00000E+01,	-9.59845E-03,	3.16739E+01,	1.48771E+02,	-2.20656E+01,	0.00000E+00,	0,	0
  5.68421E+02,	1.00000E+01,	-9.59845E-03,	3.30646E+01,	1.50470E+02,	-2.68761E+01,	0.00000E+00,	0,	0
  4.40816E+02,	1.00000E+01,	-9.59845E-03,	3.45213E+01,	1.52653E+02,	-3.30872E+01,	0.00000E+00,	0,	0
  3.54098E+02,	1.00000E+01,	-9.59845E-03,	3.69273E+01,	1.55105E+02,	-3.95719E+01,	0.00000E+00,	0,	0
  2.76923E+02,	1.00000E+01,	-9.59845E-03,	3.95743E+01,	1.58440E+02,	-4.81913E+01,	0.00000E+00,	0,	0
  2.20408E+02,	1.00000E+01,	-9.59845E-03,	4.24990E+01,	1.62329E+02,	-5.77928E+01,	0.00000E+00,	0,	0
  1.74194E+02,	1.00000E+01,	-9.59845E-03,	4.57611E+01,	1.66994E+02,	-6.95066E+01,	0.00000E+00,	0,	0
  1.37580E+02,	1.00000E+01,	-9.59845E-03,	4.94330E+01,	1.72554E+02,	-8.35120E+01,	0.00000E+00,	0,	0
  1.09091E+02,	1.00000E+01,	-9.59845E-03,	5.34935E+01,	1.79075E+02,	-9.99411E+01,	0.00000E+00,	0,	0
  8.70968E+01,	1.00000E+01,	-9.59845E-03,	5.91831E+01,	1.86737E+02,	-1.19245E+02,	0.00000E+00,	0,	0
  6.83544E+01,	1.00000E+01,	-9.59845E-03,	6.42003E+01,	1.96694E+02,	-1.44788E+02,	0.00000E+00,	0,	0
  5.45455E+01,	1.00000E+01,	-9.59845E-03,	6.96595E+01,	2.05133E+02,	-1.68663E+02,	0.00000E+00,	0,	0
  4.28571E+01,	1.00000E+01,	-9.59845E-03,	7.31868E+01,	2.16774E+02,	-2.03276E+02,	0.00000E+00,	0,	0
  3.39623E+01,	1.00000E+01,	-9.59845E-03,	7.69209E+01,	2.27649E+02,	-2.44298E+02,	0.00000E+00,	0,	0
  2.68657E+01,	1.00000E+01,	-9.59845E-03,	8.07750E+01,	2.43605E+02,	-2.94872E+02,	0.00000E+00,	0,	0
  2.13439E+01,	1.00000E+01,	-9.59845E-03,	8.45868E+01,	2.61056E+02,	-3.54959E+02,	0.00000E+00,	0,	0
  1.73077E+01,	1.00000E+01,	-9.59845E-03,	8.83000E+01,	2.79118E+02,	-4.21182E+02,	0.00000E+00,	0,	0
  1.36364E+01,	1.00000E+01,	-9.59845E-03,	9.33307E+01,	3.03261E+02,	-5.12945E+02,	0.00000E+00,	0,	0
  1.07143E+01,	1.00000E+01,	-9.59845E-03,	9.62328E+01,	3.32063E+02,	-6.27407E+02,	0.00000E+00,	0,	0
  8.49057E+00,	1.00000E+01,	-9.59845E-03,	1.00484E+02,	3.66278E+02,	-7.63563E+02,	0.00000E+00,	0,	0
  6.71642E+00,	1.00000E+01,	-9.59845E-03,	1.03000E+02,	4.09183E+02,	-9.32189E+02,	0.00000E+00,	0,	0
  5.29412E+00,	1.00000E+01,	-9.59845E-03,	1.05970E+02,	4.63271E+02,	-1.14152E+03,	0.00000E+00,	0,	0
  4.16667E+00,	1.00000E+01,	-9.59845E-03,	1.09460E+02,	5.32506E+02,	-1.40070E+03,	0.00000E+00,	0,	0
  3.30882E+00,	1.00000E+01,	-9.59845E-03,	1.16001E+02,	6.17208E+02,	-1.70362E+03,	0.00000E+00,	0,	0
  2.61628E+00,	1.00000E+01,	-9.59845E-03,	1.19987E+02,	7.28893E+02,	-2.07918E+03,	0.00000E+00,	0,	0
  2.07373E+00,	1.00000E+01,	-9.59845E-03,	1.24746E+02,	8.69874E+02,	-2.52837E+03,	0.00000E+00,	0,	0
  1.64234E+00,	1.00000E+01,	-9.59845E-03,	1.30562E+02,	1.05098E+03,	-3.07199E+03,	0.00000E+00,	0,	0
  1.30058E+00,	1.00000E+01,	-9.59845E-03,	1.34731E+02,	1.28588E+03,	-3.71965E+03,	0.00000E+00,	0,	0
  1.03211E+00,	1.00000E+01,	-9.59845E-03,	1.39128E+02,	1.58600E+03,	-4.49049E+03,	0.00000E+00,	0,	0
  8.15217E-01,	1.00000E+01,	-9.59845E-03,	1.46109E+02,	1.96134E+03,	-5.40282E+03,	0.00000E+00,	0,	0
  6.46552E-01,	1.00000E+01,	-9.59845E-03,	1.50918E+02,	2.43328E+03,	-6.46784E+03,	0.00000E+00,	0,	0
  5.11364E-01,	1.00000E+01,	-9.59845E-03,	1.55964E+02,	2.92927E+03,	-7.76043E+03,	0.00000E+00,	0,	0
  4.07609E-01,	1.00000E+01,	-9.59845E-03,	1.62016E+02,	3.60476E+03,	-9.19363E+03,	0.00000E+00,	0,	0
  3.21429E-01,	1.00000E+01,	-9.59845E-03,	1.69144E+02,	4.47172E+03,	-1.10802E+04,	0.00000E+00,	0,	0
  2.54525E-01,	1.00000E+01,	-9.59845E-03,	1.77918E+02,	5.47011E+03,	-1.30720E+04,	0.00000E+00,	0,	0
  2.01613E-01,	1.00000E+01,	-9.59845E-03,	1.88766E+02,	6.60307E+03,	-1.54422E+04,	0.00000E+00,	0,	0
  1.59574E-01,	1.00000E+01,	-9.59845E-03,	2.02244E+02,	7.91063E+03,	-1.82521E+04,	0.00000E+00,	0,	0
  1.26689E-01,	1.00000E+01,	-9.59845E-03,	2.36115E+02,	9.39190E+03,	-2.12299E+04,	0.00000E+00,	0,	0
  1.00446E-01,	1.00000E+01,	-9.59845E-03,	2.56980E+02,	1.10666E+04,	-2.60762E+04,	0.00000E+00,	0,	0