Z60W Data File: Version 1.1
CorrTest for Windows: SN CS310H1805157  V5.2.1111.9  2.5H6.220118
Sweep Frequency: Control Voltage
  Date:4-28-2026   Time:13:00:05
  Begin Information:            Cell Information
      Surface Area:           1
      Density:                7.8
      Weight:                 28
  End Information:              Cell Information
  Freq (Hz)     Ampl(mV)       Bias(V)      Time(Sec)       Z'(Ohm.cm^2)    Z''(Ohm.cm^2)        GD       Err      Range
End Comments
  3.07200E+05,	1.00000E+01,	-7.55609E-03,	6.37927E-02,	1.30134E+00,	4.37508E+00,	0.00000E+00,	0,	0
  2.76480E+05,	1.00000E+01,	-7.55609E-03,	1.67669E+00,	1.86760E+00,	3.57576E+00,	0.00000E+00,	0,	0
  1.97486E+05,	1.00000E+01,	-7.55609E-03,	2.62371E+00,	2.53642E+00,	2.56372E+00,	0.00000E+00,	0,	0
  1.53600E+05,	1.00000E+01,	-7.55609E-03,	3.52322E+00,	2.77124E+00,	1.94892E+00,	0.00000E+00,	0,	0
  1.25673E+05,	1.00000E+01,	-7.55609E-03,	4.42483E+00,	2.92194E+00,	1.54877E+00,	0.00000E+00,	0,	0
  9.87429E+04,	1.00000E+01,	-7.55609E-03,	5.32422E+00,	3.04237E+00,	1.16233E+00,	0.00000E+00,	0,	0
  7.68000E+04,	1.00000E+01,	-7.55609E-03,	6.24354E+00,	3.12369E+00,	8.49858E-01,	0.00000E+00,	0,	0
  6.01043E+04,	1.00000E+01,	-7.55609E-03,	9.49616E+00,	3.19602E+00,	5.29722E-01,	0.00000E+00,	0,	0
  4.93714E+04,	1.00000E+01,	-7.55609E-03,	1.10632E+01,	3.21690E+00,	3.62616E-01,	0.00000E+00,	0,	0
  3.84000E+04,	1.00000E+01,	-7.55609E-03,	1.19655E+01,	3.24796E+00,	1.65263E-01,	0.00000E+00,	0,	0
  3.00522E+04,	1.00000E+01,	-7.55609E-03,	1.28682E+01,	3.26811E+00,	-1.39877E-02,	0.00000E+00,	0,	0
  2.38345E+04,	1.00000E+01,	-7.55609E-03,	1.37467E+01,	3.29702E+00,	-1.71523E-01,	0.00000E+00,	0,	0
  1.86811E+04,	1.00000E+01,	-7.55609E-03,	1.45880E+01,	3.33093E+00,	-3.35525E-01,	0.00000E+00,	0,	0
  1.47064E+04,	1.00000E+01,	-7.55609E-03,	1.55527E+01,	3.37352E+00,	-5.13880E-01,	0.00000E+00,	0,	0
  1.15200E+04,	1.00000E+01,	-7.55609E-03,	1.65440E+01,	3.42619E+00,	-7.02775E-01,	0.00000E+00,	0,	0
  9.60000E+03,	1.00000E+01,	-7.55609E-03,	1.81698E+01,	3.47587E+00,	-8.57036E-01,	0.00000E+00,	0,	0
  7.51304E+03,	1.00000E+01,	-7.55609E-03,	1.90908E+01,	3.55301E+00,	-1.09207E+00,	0.00000E+00,	0,	0
  5.76000E+03,	1.00000E+01,	-7.55609E-03,	1.99926E+01,	3.64498E+00,	-1.39031E+00,	0.00000E+00,	0,	0
  4.54737E+03,	1.00000E+01,	-7.55609E-03,	2.08627E+01,	3.74302E+00,	-1.69512E+00,	0.00000E+00,	0,	0
  3.60000E+03,	1.00000E+01,	-7.55609E-03,	2.18562E+01,	3.86018E+00,	-2.05787E+00,	0.00000E+00,	0,	0
  2.88000E+03,	1.00000E+01,	-7.55609E-03,	2.27598E+01,	3.98533E+00,	-2.47711E+00,	0.00000E+00,	0,	0
  2.27368E+03,	1.00000E+01,	-7.55609E-03,	2.50450E+01,	4.10039E+00,	-2.97674E+00,	0.00000E+00,	0,	0
  1.78144E+03,	1.00000E+01,	-7.55609E-03,	2.58473E+01,	4.28528E+00,	-3.63245E+00,	0.00000E+00,	0,	0
  1.41639E+03,	1.00000E+01,	-7.55609E-03,	2.67950E+01,	4.47981E+00,	-4.38419E+00,	0.00000E+00,	0,	0
  1.12208E+03,	1.00000E+01,	-7.55609E-03,	2.78207E+01,	4.71023E+00,	-5.32348E+00,	0.00000E+00,	0,	0
  9.00000E+02,	1.00000E+01,	-7.55609E-03,	3.28096E+01,	4.98955E+00,	-6.42032E+00,	0.00000E+00,	0,	0
  7.20000E+02,	1.00000E+01,	-7.55609E-03,	3.41650E+01,	5.29770E+00,	-7.75556E+00,	0.00000E+00,	0,	0
  5.68421E+02,	1.00000E+01,	-7.55609E-03,	3.55258E+01,	5.70263E+00,	-9.48851E+00,	0.00000E+00,	0,	0
  4.40816E+02,	1.00000E+01,	-7.55609E-03,	3.85492E+01,	6.26111E+00,	-1.18294E+01,	0.00000E+00,	0,	0
  3.54098E+02,	1.00000E+01,	-7.55609E-03,	4.09234E+01,	6.83988E+00,	-1.42719E+01,	0.00000E+00,	0,	0
  2.76923E+02,	1.00000E+01,	-7.55609E-03,	4.35560E+01,	7.68093E+00,	-1.76402E+01,	0.00000E+00,	0,	0
  2.20408E+02,	1.00000E+01,	-7.55609E-03,	4.64926E+01,	8.67267E+00,	-2.14771E+01,	0.00000E+00,	0,	0
  1.74194E+02,	1.00000E+01,	-7.55609E-03,	4.97472E+01,	9.98120E+00,	-2.62801E+01,	0.00000E+00,	0,	0
  1.37580E+02,	1.00000E+01,	-7.55609E-03,	5.34382E+01,	1.16747E+01,	-3.21381E+01,	0.00000E+00,	0,	0
  1.09091E+02,	1.00000E+01,	-7.55609E-03,	5.75486E+01,	1.38210E+01,	-3.91243E+01,	0.00000E+00,	0,	0
  8.70968E+01,	1.00000E+01,	-7.55609E-03,	6.32962E+01,	1.64728E+01,	-4.73219E+01,	0.00000E+00,	0,	0
  6.83544E+01,	1.00000E+01,	-7.55609E-03,	6.83081E+01,	2.01945E+01,	-5.81427E+01,	0.00000E+00,	0,	0
  5.45455E+01,	1.00000E+01,	-7.55609E-03,	7.37443E+01,	2.48039E+01,	-6.87573E+01,	0.00000E+00,	0,	0
  4.28571E+01,	1.00000E+01,	-7.55609E-03,	7.72680E+01,	3.08385E+01,	-8.31214E+01,	0.00000E+00,	0,	0
  3.39623E+01,	1.00000E+01,	-7.55609E-03,	8.09995E+01,	3.74599E+01,	-9.93020E+01,	0.00000E+00,	0,	0
  2.68657E+01,	1.00000E+01,	-7.55609E-03,	8.48569E+01,	4.66538E+01,	-1.18737E+02,	0.00000E+00,	0,	0
  2.13439E+01,	1.00000E+01,	-7.55609E-03,	8.86850E+01,	5.74061E+01,	-1.40660E+02,	0.00000E+00,	0,	0
  1.73077E+01,	1.00000E+01,	-7.55609E-03,	9.53914E+01,	6.89185E+01,	-1.63831E+02,	0.00000E+00,	0,	0
  1.36364E+01,	1.00000E+01,	-7.55609E-03,	1.00453E+02,	8.36875E+01,	-1.93954E+02,	0.00000E+00,	0,	0
  1.07143E+01,	1.00000E+01,	-7.55609E-03,	1.03361E+02,	1.00762E+02,	-2.29766E+02,	0.00000E+00,	0,	0
  8.49057E+00,	1.00000E+01,	-7.55609E-03,	1.07569E+02,	1.19300E+02,	-2.70765E+02,	0.00000E+00,	0,	0
  6.71642E+00,	1.00000E+01,	-7.55609E-03,	1.10099E+02,	1.40437E+02,	-3.20252E+02,	0.00000E+00,	0,	0
  5.29412E+00,	1.00000E+01,	-7.55609E-03,	1.13061E+02,	1.64658E+02,	-3.80480E+02,	0.00000E+00,	0,	0
  4.16667E+00,	1.00000E+01,	-7.55609E-03,	1.16555E+02,	1.92491E+02,	-4.54161E+02,	0.00000E+00,	0,	0
  3.30882E+00,	1.00000E+01,	-7.55609E-03,	1.20793E+02,	2.23465E+02,	-5.40153E+02,	0.00000E+00,	0,	0
  2.61628E+00,	1.00000E+01,	-7.55609E-03,	1.24772E+02,	2.60266E+02,	-6.45834E+02,	0.00000E+00,	0,	0
  2.07373E+00,	1.00000E+01,	-7.55609E-03,	1.29533E+02,	3.02977E+02,	-7.72636E+02,	0.00000E+00,	0,	0
  1.64234E+00,	1.00000E+01,	-7.55609E-03,	1.35317E+02,	3.52972E+02,	-9.25838E+02,	0.00000E+00,	0,	0
  1.30058E+00,	1.00000E+01,	-7.55609E-03,	1.39524E+02,	4.11166E+02,	-1.11024E+03,	0.00000E+00,	0,	0
  1.03211E+00,	1.00000E+01,	-7.55609E-03,	1.43925E+02,	4.77543E+02,	-1.33159E+03,	0.00000E+00,	0,	0
  8.15217E-01,	1.00000E+01,	-7.55609E-03,	1.50906E+02,	5.50698E+02,	-1.60293E+03,	0.00000E+00,	0,	0
  6.46552E-01,	1.00000E+01,	-7.55609E-03,	1.60033E+02,	6.29978E+02,	-1.93040E+03,	0.00000E+00,	0,	0
  5.11364E-01,	1.00000E+01,	-7.55609E-03,	1.65036E+02,	6.98224E+02,	-2.34673E+03,	0.00000E+00,	0,	0
  4.07609E-01,	1.00000E+01,	-7.55609E-03,	1.71109E+02,	7.92353E+02,	-2.83887E+03,	0.00000E+00,	0,	0
  3.21429E-01,	1.00000E+01,	-7.55609E-03,	1.78267E+02,	9.05101E+02,	-3.52642E+03,	0.00000E+00,	0,	0
  2.54525E-01,	1.00000E+01,	-7.55609E-03,	1.87054E+02,	1.03999E+03,	-4.31849E+03,	0.00000E+00,	0,	0
  2.01613E-01,	1.00000E+01,	-7.55609E-03,	1.97881E+02,	1.20294E+03,	-5.30757E+03,	0.00000E+00,	0,	0
  1.59574E-01,	1.00000E+01,	-7.55609E-03,	2.11343E+02,	1.40824E+03,	-6.54438E+03,	0.00000E+00,	0,	0
  1.26689E-01,	1.00000E+01,	-7.55609E-03,	2.28254E+02,	1.67549E+03,	-8.05991E+03,	0.00000E+00,	0,	0
  1.00446E-01,	1.00000E+01,	-7.55609E-03,	2.49160E+02,	2.02672E+03,	-9.95505E+03,	0.00000E+00,	0,	0