Z60W Data File: Version 1.1
CorrTest for Windows: SN CS310H1805157  V5.2.1111.9  2.5H6.220118
Sweep Frequency: Control Voltage
  Date:4-28-2026   Time:17:50:25
  Begin Information:            Cell Information
      Surface Area:           1
      Density:                7.8
      Weight:                 28
  End Information:              Cell Information
  Freq (Hz)     Ampl(mV)       Bias(V)      Time(Sec)       Z'(Ohm.cm^2)    Z''(Ohm.cm^2)        GD       Err      Range
End Comments
  3.07200E+05,	1.00000E+01,	-1.45991E-02,	2.20036E-02,	5.33521E+02,	-5.26019E+02,	0.00000E+00,	0,	0
  2.76480E+05,	1.00000E+01,	-1.45991E-02,	1.61316E+00,	5.52809E+02,	-5.16932E+02,	0.00000E+00,	0,	0
  1.97486E+05,	1.00000E+01,	-1.45991E-02,	2.53127E+00,	6.97637E+02,	-5.14966E+02,	0.00000E+00,	0,	0
  1.53600E+05,	1.00000E+01,	-1.45991E-02,	3.42423E+00,	7.78004E+02,	-5.09129E+02,	0.00000E+00,	0,	0
  1.25673E+05,	1.00000E+01,	-1.45991E-02,	4.34037E+00,	8.63762E+02,	-5.10397E+02,	0.00000E+00,	0,	0
  9.87429E+04,	1.00000E+01,	-1.45991E-02,	5.24094E+00,	9.72443E+02,	-4.80734E+02,	0.00000E+00,	0,	0
  7.68000E+04,	1.00000E+01,	-1.45991E-02,	6.19110E+00,	1.08754E+03,	-4.65159E+02,	0.00000E+00,	0,	0
  6.01043E+04,	1.00000E+01,	-1.45991E-02,	7.19213E+00,	1.00387E+03,	-2.73140E+02,	0.00000E+00,	0,	0
  4.93714E+04,	1.00000E+01,	-1.45991E-02,	8.76948E+00,	1.35826E+03,	-3.13599E+02,	0.00000E+00,	0,	0
  3.84000E+04,	1.00000E+01,	-1.45991E-02,	9.72025E+00,	1.21334E+03,	-2.89361E+02,	0.00000E+00,	0,	0
  3.00522E+04,	1.00000E+01,	-1.45991E-02,	1.05841E+01,	1.27014E+03,	-3.18171E+02,	0.00000E+00,	0,	0
  2.38345E+04,	1.00000E+01,	-1.45991E-02,	1.14461E+01,	1.29511E+03,	-1.92255E+02,	0.00000E+00,	0,	0
  1.86811E+04,	1.00000E+01,	-1.45991E-02,	1.22858E+01,	1.22967E+03,	-1.93373E+02,	0.00000E+00,	0,	0
  1.47064E+04,	1.00000E+01,	-1.45991E-02,	1.33045E+01,	1.33059E+03,	-1.20841E+02,	0.00000E+00,	0,	0
  1.15200E+04,	1.00000E+01,	-1.45991E-02,	1.42920E+01,	1.32731E+03,	-1.30782E+02,	0.00000E+00,	0,	0
  9.60000E+03,	1.00000E+01,	-1.45991E-02,	1.58797E+01,	1.32758E+03,	-1.09229E+02,	0.00000E+00,	0,	0
  7.51304E+03,	1.00000E+01,	-1.45991E-02,	1.67520E+01,	1.34625E+03,	-8.32981E+01,	0.00000E+00,	0,	0
  5.76000E+03,	1.00000E+01,	-1.45991E-02,	1.76560E+01,	1.35060E+03,	-8.93317E+01,	0.00000E+00,	0,	0
  4.54737E+03,	1.00000E+01,	-1.45991E-02,	1.85276E+01,	1.35917E+03,	-7.24806E+01,	0.00000E+00,	0,	0
  3.60000E+03,	1.00000E+01,	-1.45991E-02,	1.95187E+01,	1.36203E+03,	-3.00751E+01,	0.00000E+00,	0,	0
  2.88000E+03,	1.00000E+01,	-1.45991E-02,	2.04087E+01,	1.34302E+03,	-3.68954E+01,	0.00000E+00,	0,	0
  2.27368E+03,	1.00000E+01,	-1.45991E-02,	2.15417E+01,	1.50619E+03,	-3.49954E+01,	0.00000E+00,	0,	0
  1.78144E+03,	1.00000E+01,	-1.45991E-02,	2.23408E+01,	1.44056E+03,	-2.11538E+00,	0.00000E+00,	0,	0
  1.41639E+03,	1.00000E+01,	-1.45991E-02,	2.32443E+01,	1.27366E+03,	-2.09342E+01,	0.00000E+00,	0,	0
  1.12208E+03,	1.00000E+01,	-1.45991E-02,	2.42997E+01,	1.38647E+03,	-3.01971E+01,	0.00000E+00,	0,	0
  9.00000E+02,	1.00000E+01,	-1.45991E-02,	2.93108E+01,	1.38525E+03,	-4.61582E+01,	0.00000E+00,	0,	0
  7.20000E+02,	1.00000E+01,	-1.45991E-02,	3.06945E+01,	1.39041E+03,	-4.21439E+01,	0.00000E+00,	0,	0
  5.68421E+02,	1.00000E+01,	-1.45991E-02,	3.20714E+01,	1.39682E+03,	-5.09485E+01,	0.00000E+00,	0,	0
  4.40816E+02,	1.00000E+01,	-1.45991E-02,	3.66788E+01,	1.40817E+03,	-5.87860E+01,	0.00000E+00,	0,	0
  3.54098E+02,	1.00000E+01,	-1.45991E-02,	3.90419E+01,	1.41382E+03,	-7.00642E+01,	0.00000E+00,	0,	0
  2.76923E+02,	1.00000E+01,	-1.45991E-02,	4.16787E+01,	1.42217E+03,	-8.48939E+01,	0.00000E+00,	0,	0
  2.20408E+02,	1.00000E+01,	-1.45991E-02,	4.46060E+01,	1.43139E+03,	-1.01451E+02,	0.00000E+00,	0,	0
  1.74194E+02,	1.00000E+01,	-1.45991E-02,	4.79134E+01,	1.44330E+03,	-1.22320E+02,	0.00000E+00,	0,	0
  1.37580E+02,	1.00000E+01,	-1.45991E-02,	5.15824E+01,	1.45631E+03,	-1.49874E+02,	0.00000E+00,	0,	0
  1.09091E+02,	1.00000E+01,	-1.45991E-02,	5.56663E+01,	1.47328E+03,	-1.83336E+02,	0.00000E+00,	0,	0
  8.70968E+01,	1.00000E+01,	-1.45991E-02,	6.13537E+01,	1.49572E+03,	-2.21781E+02,	0.00000E+00,	0,	0
  6.83544E+01,	1.00000E+01,	-1.45991E-02,	6.64125E+01,	1.52818E+03,	-2.73335E+02,	0.00000E+00,	0,	0
  5.45455E+01,	1.00000E+01,	-1.45991E-02,	7.19009E+01,	1.53877E+03,	-3.12630E+02,	0.00000E+00,	0,	0
  4.28571E+01,	1.00000E+01,	-1.45991E-02,	7.54241E+01,	1.56824E+03,	-3.79585E+02,	0.00000E+00,	0,	0
  3.39623E+01,	1.00000E+01,	-1.45991E-02,	7.91837E+01,	1.59494E+03,	-4.62547E+02,	0.00000E+00,	0,	0
  2.68657E+01,	1.00000E+01,	-1.45991E-02,	8.30402E+01,	1.64420E+03,	-5.54273E+02,	0.00000E+00,	0,	0
  2.13439E+01,	1.00000E+01,	-1.45991E-02,	8.68486E+01,	1.69614E+03,	-6.60443E+02,	0.00000E+00,	0,	0
  1.73077E+01,	1.00000E+01,	-1.45991E-02,	9.05323E+01,	1.75013E+03,	-7.75216E+02,	0.00000E+00,	0,	0
  1.36364E+01,	1.00000E+01,	-1.45991E-02,	9.55647E+01,	1.82268E+03,	-9.28277E+02,	0.00000E+00,	0,	0
  1.07143E+01,	1.00000E+01,	-1.45991E-02,	9.84705E+01,	1.90308E+03,	-1.11165E+03,	0.00000E+00,	0,	0
  8.49057E+00,	1.00000E+01,	-1.45991E-02,	1.02680E+02,	1.99741E+03,	-1.32479E+03,	0.00000E+00,	0,	0
  6.71642E+00,	1.00000E+01,	-1.45991E-02,	1.05182E+02,	2.09895E+03,	-1.57888E+03,	0.00000E+00,	0,	0
  5.29412E+00,	1.00000E+01,	-1.45991E-02,	1.08158E+02,	2.22208E+03,	-1.88954E+03,	0.00000E+00,	0,	0
  4.16667E+00,	1.00000E+01,	-1.45991E-02,	1.11660E+02,	2.36304E+03,	-2.26631E+03,	0.00000E+00,	0,	0
  3.30882E+00,	1.00000E+01,	-1.45991E-02,	1.15921E+02,	2.51822E+03,	-2.70617E+03,	0.00000E+00,	0,	0
  2.61628E+00,	1.00000E+01,	-1.45991E-02,	1.19910E+02,	2.70052E+03,	-3.24829E+03,	0.00000E+00,	0,	0
  2.07373E+00,	1.00000E+01,	-1.45991E-02,	1.24682E+02,	2.90432E+03,	-3.90227E+03,	0.00000E+00,	0,	0
  1.64234E+00,	1.00000E+01,	-1.45991E-02,	1.30464E+02,	3.14504E+03,	-4.70789E+03,	0.00000E+00,	0,	0
  1.30058E+00,	1.00000E+01,	-1.45991E-02,	1.34630E+02,	3.42045E+03,	-5.68984E+03,	0.00000E+00,	0,	0
  1.03211E+00,	1.00000E+01,	-1.45991E-02,	1.39027E+02,	3.75116E+03,	-6.89032E+03,	0.00000E+00,	0,	0
  8.15217E-01,	1.00000E+01,	-1.45991E-02,	1.45968E+02,	4.14802E+03,	-8.38182E+03,	0.00000E+00,	0,	0
  6.46552E-01,	1.00000E+01,	-1.45991E-02,	1.50815E+02,	4.63218E+03,	-1.01831E+04,	0.00000E+00,	0,	0
  5.11364E-01,	1.00000E+01,	-1.45991E-02,	1.55827E+02,	5.12579E+03,	-1.24908E+04,	0.00000E+00,	0,	0
  4.07609E-01,	1.00000E+01,	-1.45991E-02,	1.61908E+02,	5.84268E+03,	-1.51478E+04,	0.00000E+00,	0,	0
  3.21429E-01,	1.00000E+01,	-1.45991E-02,	1.69028E+02,	6.84505E+03,	-1.87965E+04,	0.00000E+00,	0,	0
  2.54525E-01,	1.00000E+01,	-1.45991E-02,	1.77818E+02,	8.07184E+03,	-2.28572E+04,	0.00000E+00,	0,	0
  2.01613E-01,	1.00000E+01,	-1.45991E-02,	1.88677E+02,	9.60310E+03,	-2.78197E+04,	0.00000E+00,	0,	0
  1.59574E-01,	1.00000E+01,	-1.45991E-02,	2.02146E+02,	1.15793E+04,	-3.38620E+04,	0.00000E+00,	0,	0
  1.26689E-01,	1.00000E+01,	-1.45991E-02,	2.36031E+02,	1.40831E+04,	-4.06432E+04,	0.00000E+00,	0,	0
  1.00446E-01,	1.00000E+01,	-1.45991E-02,	2.56896E+02,	1.71400E+04,	-5.04517E+04,	0.00000E+00,	0,	0