Z60W Data File: Version 1.1
CorrTest for Windows: SN CS310H1805157  V5.2.1111.9  2.5H6.220118
Sweep Frequency: Control Voltage
  Date:4-28-2026   Time:11:32:06
  Begin Information:            Cell Information
      Surface Area:           1
      Density:                7.8
      Weight:                 28
  End Information:              Cell Information
  Freq (Hz)     Ampl(mV)       Bias(V)      Time(Sec)       Z'(Ohm.cm^2)    Z''(Ohm.cm^2)        GD       Err      Range
End Comments
  3.07200E+05,	1.00000E+01,	-7.57757E-03,	2.87925E-02,	8.08969E-01,	4.09046E+00,	0.00000E+00,	0,	0
  2.76480E+05,	1.00000E+01,	-7.57757E-03,	1.62641E+00,	1.33262E+00,	3.34585E+00,	0.00000E+00,	0,	0
  1.97486E+05,	1.00000E+01,	-7.57757E-03,	2.57267E+00,	2.05460E+00,	2.37701E+00,	0.00000E+00,	0,	0
  1.53600E+05,	1.00000E+01,	-7.57757E-03,	3.47298E+00,	2.29735E+00,	1.79502E+00,	0.00000E+00,	0,	0
  1.25673E+05,	1.00000E+01,	-7.57757E-03,	4.40166E+00,	2.44559E+00,	1.43996E+00,	0.00000E+00,	0,	0
  9.87429E+04,	1.00000E+01,	-7.57757E-03,	5.29949E+00,	2.57585E+00,	1.08922E+00,	0.00000E+00,	0,	0
  7.68000E+04,	1.00000E+01,	-7.57757E-03,	6.20055E+00,	2.65511E+00,	7.81348E-01,	0.00000E+00,	0,	0
  6.01043E+04,	1.00000E+01,	-7.57757E-03,	9.41487E+00,	2.72294E+00,	4.85485E-01,	0.00000E+00,	0,	0
  4.93714E+04,	1.00000E+01,	-7.57757E-03,	1.09845E+01,	2.74525E+00,	3.29977E-01,	0.00000E+00,	0,	0
  3.84000E+04,	1.00000E+01,	-7.57757E-03,	1.19242E+01,	2.77453E+00,	1.41968E-01,	0.00000E+00,	0,	0
  3.00522E+04,	1.00000E+01,	-7.57757E-03,	1.27838E+01,	2.79913E+00,	-1.55083E-02,	0.00000E+00,	0,	0
  2.38345E+04,	1.00000E+01,	-7.57757E-03,	1.36514E+01,	2.83137E+00,	-1.64834E-01,	0.00000E+00,	0,	0
  1.86811E+04,	1.00000E+01,	-7.57757E-03,	1.45514E+01,	2.85911E+00,	-3.20535E-01,	0.00000E+00,	0,	0
  1.47064E+04,	1.00000E+01,	-7.57757E-03,	1.55130E+01,	2.89926E+00,	-4.81162E-01,	0.00000E+00,	0,	0
  1.15200E+04,	1.00000E+01,	-7.57757E-03,	1.64952E+01,	2.95373E+00,	-6.55306E-01,	0.00000E+00,	0,	0
  9.60000E+03,	1.00000E+01,	-7.57757E-03,	1.80810E+01,	2.99694E+00,	-7.99999E-01,	0.00000E+00,	0,	0
  7.51304E+03,	1.00000E+01,	-7.57757E-03,	1.89719E+01,	3.06390E+00,	-1.01599E+00,	0.00000E+00,	0,	0
  5.76000E+03,	1.00000E+01,	-7.57757E-03,	1.98672E+01,	3.15032E+00,	-1.29082E+00,	0.00000E+00,	0,	0
  4.54737E+03,	1.00000E+01,	-7.57757E-03,	2.07258E+01,	3.24291E+00,	-1.57783E+00,	0.00000E+00,	0,	0
  3.60000E+03,	1.00000E+01,	-7.57757E-03,	2.17438E+01,	3.34061E+00,	-1.92096E+00,	0.00000E+00,	0,	0
  2.88000E+03,	1.00000E+01,	-7.57757E-03,	2.26633E+01,	3.45436E+00,	-2.30688E+00,	0.00000E+00,	0,	0
  2.27368E+03,	1.00000E+01,	-7.57757E-03,	2.49501E+01,	3.56444E+00,	-2.78034E+00,	0.00000E+00,	0,	0
  1.78144E+03,	1.00000E+01,	-7.57757E-03,	2.57299E+01,	3.72961E+00,	-3.40105E+00,	0.00000E+00,	0,	0
  1.41639E+03,	1.00000E+01,	-7.57757E-03,	2.66516E+01,	3.90233E+00,	-4.12125E+00,	0.00000E+00,	0,	0
  1.12208E+03,	1.00000E+01,	-7.57757E-03,	2.77201E+01,	4.12126E+00,	-5.00790E+00,	0.00000E+00,	0,	0
  9.00000E+02,	1.00000E+01,	-7.57757E-03,	3.27088E+01,	4.37574E+00,	-6.05360E+00,	0.00000E+00,	0,	0
  7.20000E+02,	1.00000E+01,	-7.57757E-03,	3.40812E+01,	4.67080E+00,	-7.32592E+00,	0.00000E+00,	0,	0
  5.68421E+02,	1.00000E+01,	-7.57757E-03,	3.54651E+01,	5.05678E+00,	-8.97247E+00,	0.00000E+00,	0,	0
  4.40816E+02,	1.00000E+01,	-7.57757E-03,	3.84845E+01,	5.59758E+00,	-1.11957E+01,	0.00000E+00,	0,	0
  3.54098E+02,	1.00000E+01,	-7.57757E-03,	4.08410E+01,	6.16512E+00,	-1.35179E+01,	0.00000E+00,	0,	0
  2.76923E+02,	1.00000E+01,	-7.57757E-03,	4.34916E+01,	6.99033E+00,	-1.66976E+01,	0.00000E+00,	0,	0
  2.20408E+02,	1.00000E+01,	-7.57757E-03,	4.64211E+01,	7.97257E+00,	-2.03188E+01,	0.00000E+00,	0,	0
  1.74194E+02,	1.00000E+01,	-7.57757E-03,	4.97019E+01,	9.27286E+00,	-2.48388E+01,	0.00000E+00,	0,	0
  1.37580E+02,	1.00000E+01,	-7.57757E-03,	5.33552E+01,	1.09612E+01,	-3.03321E+01,	0.00000E+00,	0,	0
  1.09091E+02,	1.00000E+01,	-7.57757E-03,	5.74196E+01,	1.30960E+01,	-3.68547E+01,	0.00000E+00,	0,	0
  8.70968E+01,	1.00000E+01,	-7.57757E-03,	6.31128E+01,	1.57300E+01,	-4.44666E+01,	0.00000E+00,	0,	0
  6.83544E+01,	1.00000E+01,	-7.57757E-03,	6.81488E+01,	1.93969E+01,	-5.44719E+01,	0.00000E+00,	0,	0
  5.45455E+01,	1.00000E+01,	-7.57757E-03,	7.36169E+01,	2.38867E+01,	-6.41840E+01,	0.00000E+00,	0,	0
  4.28571E+01,	1.00000E+01,	-7.57757E-03,	7.71548E+01,	2.96990E+01,	-7.72861E+01,	0.00000E+00,	0,	0
  3.39623E+01,	1.00000E+01,	-7.57757E-03,	8.08826E+01,	3.59924E+01,	-9.19641E+01,	0.00000E+00,	0,	0
  2.68657E+01,	1.00000E+01,	-7.57757E-03,	8.47174E+01,	4.45697E+01,	-1.09570E+02,	0.00000E+00,	0,	0
  2.13439E+01,	1.00000E+01,	-7.57757E-03,	8.85402E+01,	5.44158E+01,	-1.29383E+02,	0.00000E+00,	0,	0
  1.73077E+01,	1.00000E+01,	-7.57757E-03,	9.52032E+01,	6.47951E+01,	-1.50446E+02,	0.00000E+00,	0,	0
  1.36364E+01,	1.00000E+01,	-7.57757E-03,	1.00243E+02,	7.79248E+01,	-1.77969E+02,	0.00000E+00,	0,	0
  1.07143E+01,	1.00000E+01,	-7.57757E-03,	1.03160E+02,	9.29439E+01,	-2.10977E+02,	0.00000E+00,	0,	0
  8.49057E+00,	1.00000E+01,	-7.57757E-03,	1.07362E+02,	1.09264E+02,	-2.49111E+02,	0.00000E+00,	0,	0
  6.71642E+00,	1.00000E+01,	-7.57757E-03,	1.09952E+02,	1.27891E+02,	-2.95374E+02,	0.00000E+00,	0,	0
  5.29412E+00,	1.00000E+01,	-7.57757E-03,	1.12883E+02,	1.49492E+02,	-3.51998E+02,	0.00000E+00,	0,	0
  4.16667E+00,	1.00000E+01,	-7.57757E-03,	1.16365E+02,	1.74552E+02,	-4.21426E+02,	0.00000E+00,	0,	0
  3.30882E+00,	1.00000E+01,	-7.57757E-03,	1.20655E+02,	2.02692E+02,	-5.02505E+02,	0.00000E+00,	0,	0
  2.61628E+00,	1.00000E+01,	-7.57757E-03,	1.24644E+02,	2.36340E+02,	-6.01911E+02,	0.00000E+00,	0,	0
  2.07373E+00,	1.00000E+01,	-7.57757E-03,	1.29420E+02,	2.75428E+02,	-7.21078E+02,	0.00000E+00,	0,	0
  1.64234E+00,	1.00000E+01,	-7.57757E-03,	1.35241E+02,	3.20739E+02,	-8.64940E+02,	0.00000E+00,	0,	0
  1.30058E+00,	1.00000E+01,	-7.57757E-03,	1.39417E+02,	3.73095E+02,	-1.03833E+03,	0.00000E+00,	0,	0
  1.03211E+00,	1.00000E+01,	-7.57757E-03,	1.43829E+02,	4.31378E+02,	-1.24718E+03,	0.00000E+00,	0,	0
  8.15217E-01,	1.00000E+01,	-7.57757E-03,	1.50784E+02,	4.95526E+02,	-1.50554E+03,	0.00000E+00,	0,	0
  6.46552E-01,	1.00000E+01,	-7.57757E-03,	1.59867E+02,	5.64623E+02,	-1.81901E+03,	0.00000E+00,	0,	0
  5.11364E-01,	1.00000E+01,	-7.57757E-03,	1.64871E+02,	6.26357E+02,	-2.21879E+03,	0.00000E+00,	0,	0
  4.07609E-01,	1.00000E+01,	-7.57757E-03,	1.70923E+02,	7.12875E+02,	-2.69489E+03,	0.00000E+00,	0,	0
  3.21429E-01,	1.00000E+01,	-7.57757E-03,	1.78058E+02,	8.19949E+02,	-3.35529E+03,	0.00000E+00,	0,	0
  2.54525E-01,	1.00000E+01,	-7.57757E-03,	1.86865E+02,	9.54614E+02,	-4.12023E+03,	0.00000E+00,	0,	0
  2.01613E-01,	1.00000E+01,	-7.57757E-03,	1.97757E+02,	1.12298E+03,	-5.07507E+03,	0.00000E+00,	0,	0
  1.59574E-01,	1.00000E+01,	-7.57757E-03,	2.11221E+02,	1.34636E+03,	-6.26653E+03,	0.00000E+00,	0,	0
  1.26689E-01,	1.00000E+01,	-7.57757E-03,	2.28127E+02,	1.63915E+03,	-7.71850E+03,	0.00000E+00,	0,	0
  1.00446E-01,	1.00000E+01,	-7.57757E-03,	2.48994E+02,	2.03732E+03,	-9.52669E+03,	0.00000E+00,	0,	0