Z60W Data File: Version 1.1
CorrTest for Windows: SN CS310H1805157  V5.2.1111.9  2.5H6.220118
Sweep Frequency: Control Voltage
  Date:4-28-2026   Time:15:44:41
  Begin Information:            Cell Information
      Surface Area:           1
      Density:                7.8
      Weight:                 28
  End Information:              Cell Information
  Freq (Hz)     Ampl(mV)       Bias(V)      Time(Sec)       Z'(Ohm.cm^2)    Z''(Ohm.cm^2)        GD       Err      Range
End Comments
  3.07200E+05,	1.00000E+01,	-3.05832E-03,	4.60124E-02,	2.06792E+01,	1.42783E+01,	0.00000E+00,	0,	0
  2.76480E+05,	1.00000E+01,	-3.05832E-03,	1.64723E+00,	2.06618E+01,	1.24266E+01,	0.00000E+00,	0,	0
  1.97486E+05,	1.00000E+01,	-3.05832E-03,	2.56355E+00,	2.08146E+01,	8.82428E+00,	0.00000E+00,	0,	0
  1.53600E+05,	1.00000E+01,	-3.05832E-03,	3.49525E+00,	2.08008E+01,	6.82256E+00,	0.00000E+00,	0,	0
  1.25673E+05,	1.00000E+01,	-3.05832E-03,	4.38371E+00,	2.07963E+01,	5.50857E+00,	0.00000E+00,	0,	0
  9.87429E+04,	1.00000E+01,	-3.05832E-03,	5.27754E+00,	2.08339E+01,	4.22035E+00,	0.00000E+00,	0,	0
  7.68000E+04,	1.00000E+01,	-3.05832E-03,	6.17999E+00,	2.08762E+01,	3.16515E+00,	0.00000E+00,	0,	0
  6.01043E+04,	1.00000E+01,	-3.05832E-03,	8.31827E+00,	2.08711E+01,	2.33346E+00,	0.00000E+00,	0,	0
  4.93714E+04,	1.00000E+01,	-3.05832E-03,	9.88393E+00,	2.09305E+01,	1.78947E+00,	0.00000E+00,	0,	0
  3.84000E+04,	1.00000E+01,	-3.05832E-03,	1.07895E+01,	2.09844E+01,	1.18545E+00,	0.00000E+00,	0,	0
  3.00522E+04,	1.00000E+01,	-3.05832E-03,	1.16507E+01,	2.09717E+01,	7.15729E-01,	0.00000E+00,	0,	0
  2.38345E+04,	1.00000E+01,	-3.05832E-03,	1.25414E+01,	2.10331E+01,	2.88761E-01,	0.00000E+00,	0,	0
  1.86811E+04,	1.00000E+01,	-3.05832E-03,	1.33868E+01,	2.10805E+01,	-1.09719E-01,	0.00000E+00,	0,	0
  1.47064E+04,	1.00000E+01,	-3.05832E-03,	1.43838E+01,	2.11549E+01,	-4.86686E-01,	0.00000E+00,	0,	0
  1.15200E+04,	1.00000E+01,	-3.05832E-03,	1.53480E+01,	2.12156E+01,	-8.93516E-01,	0.00000E+00,	0,	0
  9.60000E+03,	1.00000E+01,	-3.05832E-03,	1.69052E+01,	2.13171E+01,	-1.21836E+00,	0.00000E+00,	0,	0
  7.51304E+03,	1.00000E+01,	-3.05832E-03,	1.77706E+01,	2.14140E+01,	-1.68523E+00,	0.00000E+00,	0,	0
  5.76000E+03,	1.00000E+01,	-3.05832E-03,	1.86954E+01,	2.15788E+01,	-2.24490E+00,	0.00000E+00,	0,	0
  4.54737E+03,	1.00000E+01,	-3.05832E-03,	1.95711E+01,	2.17555E+01,	-2.85725E+00,	0.00000E+00,	0,	0
  3.60000E+03,	1.00000E+01,	-3.05832E-03,	2.05667E+01,	2.19865E+01,	-3.57929E+00,	0.00000E+00,	0,	0
  2.88000E+03,	1.00000E+01,	-3.05832E-03,	2.14600E+01,	2.22315E+01,	-4.32664E+00,	0.00000E+00,	0,	0
  2.27368E+03,	1.00000E+01,	-3.05832E-03,	2.37516E+01,	2.25865E+01,	-5.34425E+00,	0.00000E+00,	0,	0
  1.78144E+03,	1.00000E+01,	-3.05832E-03,	2.45628E+01,	2.29945E+01,	-6.52386E+00,	0.00000E+00,	0,	0
  1.41639E+03,	1.00000E+01,	-3.05832E-03,	2.54692E+01,	2.34602E+01,	-7.86663E+00,	0.00000E+00,	0,	0
  1.12208E+03,	1.00000E+01,	-3.05832E-03,	2.64937E+01,	2.40658E+01,	-9.45751E+00,	0.00000E+00,	0,	0
  9.00000E+02,	1.00000E+01,	-3.05832E-03,	3.14835E+01,	2.48102E+01,	-1.12816E+01,	0.00000E+00,	0,	0
  7.20000E+02,	1.00000E+01,	-3.05832E-03,	3.28667E+01,	2.55850E+01,	-1.34278E+01,	0.00000E+00,	0,	0
  5.68421E+02,	1.00000E+01,	-3.05832E-03,	3.42470E+01,	2.65369E+01,	-1.61359E+01,	0.00000E+00,	0,	0
  4.40816E+02,	1.00000E+01,	-3.05832E-03,	3.57414E+01,	2.77237E+01,	-1.96641E+01,	0.00000E+00,	0,	0
  3.54098E+02,	1.00000E+01,	-3.05832E-03,	3.80711E+01,	2.89147E+01,	-2.33383E+01,	0.00000E+00,	0,	0
  2.76923E+02,	1.00000E+01,	-3.05832E-03,	4.07592E+01,	3.04503E+01,	-2.83423E+01,	0.00000E+00,	0,	0
  2.20408E+02,	1.00000E+01,	-3.05832E-03,	4.37093E+01,	3.20763E+01,	-3.40103E+01,	0.00000E+00,	0,	0
  1.74194E+02,	1.00000E+01,	-3.05832E-03,	4.69790E+01,	3.40044E+01,	-4.11557E+01,	0.00000E+00,	0,	0
  1.37580E+02,	1.00000E+01,	-3.05832E-03,	5.06837E+01,	3.62554E+01,	-4.99568E+01,	0.00000E+00,	0,	0
  1.09091E+02,	1.00000E+01,	-3.05832E-03,	5.47483E+01,	3.88788E+01,	-6.06556E+01,	0.00000E+00,	0,	0
  8.70968E+01,	1.00000E+01,	-3.05832E-03,	6.04480E+01,	4.19139E+01,	-7.34784E+01,	0.00000E+00,	0,	0
  6.83544E+01,	1.00000E+01,	-3.05832E-03,	6.54882E+01,	4.59891E+01,	-9.08915E+01,	0.00000E+00,	0,	0
  5.45455E+01,	1.00000E+01,	-3.05832E-03,	7.09701E+01,	5.07064E+01,	-1.08512E+02,	0.00000E+00,	0,	0
  4.28571E+01,	1.00000E+01,	-3.05832E-03,	7.45032E+01,	5.69148E+01,	-1.33360E+02,	0.00000E+00,	0,	0
  3.39623E+01,	1.00000E+01,	-3.05832E-03,	7.82557E+01,	6.34132E+01,	-1.62666E+02,	0.00000E+00,	0,	0
  2.68657E+01,	1.00000E+01,	-3.05832E-03,	8.21128E+01,	7.35481E+01,	-1.99451E+02,	0.00000E+00,	0,	0
  2.13439E+01,	1.00000E+01,	-3.05832E-03,	8.59884E+01,	8.60949E+01,	-2.42964E+02,	0.00000E+00,	0,	0
  1.73077E+01,	1.00000E+01,	-3.05832E-03,	9.26876E+01,	1.00687E+02,	-2.90914E+02,	0.00000E+00,	0,	0
  1.36364E+01,	1.00000E+01,	-3.05832E-03,	9.77347E+01,	1.21426E+02,	-3.55491E+02,	0.00000E+00,	0,	0
  1.07143E+01,	1.00000E+01,	-3.05832E-03,	1.00692E+02,	1.48537E+02,	-4.34331E+02,	0.00000E+00,	0,	0
  8.49057E+00,	1.00000E+01,	-3.05832E-03,	1.04893E+02,	1.82103E+02,	-5.25413E+02,	0.00000E+00,	0,	0
  6.71642E+00,	1.00000E+01,	-3.05832E-03,	1.07413E+02,	2.25318E+02,	-6.34354E+02,	0.00000E+00,	0,	0
  5.29412E+00,	1.00000E+01,	-3.05832E-03,	1.10348E+02,	2.80607E+02,	-7.63950E+02,	0.00000E+00,	0,	0
  4.16667E+00,	1.00000E+01,	-3.05832E-03,	1.13836E+02,	3.49960E+02,	-9.17798E+02,	0.00000E+00,	0,	0
  3.30882E+00,	1.00000E+01,	-3.05832E-03,	1.20408E+02,	4.31234E+02,	-1.08966E+03,	0.00000E+00,	0,	0
  2.61628E+00,	1.00000E+01,	-3.05832E-03,	1.24377E+02,	5.30945E+02,	-1.29322E+03,	0.00000E+00,	0,	0
  2.07373E+00,	1.00000E+01,	-3.05832E-03,	1.29151E+02,	6.47007E+02,	-1.52742E+03,	0.00000E+00,	0,	0
  1.64234E+00,	1.00000E+01,	-3.05832E-03,	1.34995E+02,	7.80855E+02,	-1.80154E+03,	0.00000E+00,	0,	0
  1.30058E+00,	1.00000E+01,	-3.05832E-03,	1.39159E+02,	9.34193E+02,	-2.12240E+03,	0.00000E+00,	0,	0
  1.03211E+00,	1.00000E+01,	-3.05832E-03,	1.43582E+02,	1.10905E+03,	-2.50238E+03,	0.00000E+00,	0,	0
  8.15217E-01,	1.00000E+01,	-3.05832E-03,	1.50521E+02,	1.30290E+03,	-2.95676E+03,	0.00000E+00,	0,	0
  6.46552E-01,	1.00000E+01,	-3.05832E-03,	1.55348E+02,	1.52494E+03,	-3.49747E+03,	0.00000E+00,	0,	0
  5.11364E-01,	1.00000E+01,	-3.05832E-03,	1.60346E+02,	1.72938E+03,	-4.19029E+03,	0.00000E+00,	0,	0
  4.07609E-01,	1.00000E+01,	-3.05832E-03,	1.66408E+02,	2.01429E+03,	-4.96997E+03,	0.00000E+00,	0,	0
  3.21429E-01,	1.00000E+01,	-3.05832E-03,	1.73531E+02,	2.38059E+03,	-6.05399E+03,	0.00000E+00,	0,	0
  2.54525E-01,	1.00000E+01,	-3.05832E-03,	1.82305E+02,	2.79168E+03,	-7.21802E+03,	0.00000E+00,	0,	0
  2.01613E-01,	1.00000E+01,	-3.05832E-03,	1.93134E+02,	3.25834E+03,	-8.63576E+03,	0.00000E+00,	0,	0
  1.59574E-01,	1.00000E+01,	-3.05832E-03,	2.06624E+02,	3.79588E+03,	-1.03517E+04,	0.00000E+00,	0,	0
  1.26689E-01,	1.00000E+01,	-3.05832E-03,	2.40498E+02,	4.40643E+03,	-1.21939E+04,	0.00000E+00,	0,	0
  1.00446E-01,	1.00000E+01,	-3.05832E-03,	2.61386E+02,	4.99779E+03,	-1.51676E+04,	0.00000E+00,	0,	0