Z60W Data File: Version 1.1
CorrTest for Windows: SN CS310H1805157  V5.2.1111.9  2.5H6.220118
Sweep Frequency: Control Voltage
  Date:4-28-2026   Time:17:26:54
  Begin Information:            Cell Information
      Surface Area:           1
      Density:                7.8
      Weight:                 28
  End Information:              Cell Information
  Freq (Hz)     Ampl(mV)       Bias(V)      Time(Sec)       Z'(Ohm.cm^2)    Z''(Ohm.cm^2)        GD       Err      Range
End Comments
  3.07200E+05,	1.00000E+01,	-1.24496E-02,	5.89922E-02,	3.87938E+02,	3.34103E+00,	0.00000E+00,	0,	0
  2.76480E+05,	1.00000E+01,	-1.24496E-02,	1.67089E+00,	3.84419E+02,	-2.54860E+00,	0.00000E+00,	0,	0
  1.97486E+05,	1.00000E+01,	-1.24496E-02,	2.56634E+00,	3.83314E+02,	-5.70914E+00,	0.00000E+00,	0,	0
  1.53600E+05,	1.00000E+01,	-1.24496E-02,	3.46056E+00,	3.84491E+02,	-7.38655E+00,	0.00000E+00,	0,	0
  1.25673E+05,	1.00000E+01,	-1.24496E-02,	4.38756E+00,	3.84128E+02,	-7.81206E+00,	0.00000E+00,	0,	0
  9.87429E+04,	1.00000E+01,	-1.24496E-02,	5.28459E+00,	3.88317E+02,	-1.03158E+01,	0.00000E+00,	0,	0
  7.68000E+04,	1.00000E+01,	-1.24496E-02,	6.21805E+00,	3.90448E+02,	-8.48572E+00,	0.00000E+00,	0,	0
  6.01043E+04,	1.00000E+01,	-1.24496E-02,	7.25542E+00,	3.92807E+02,	-9.59029E+00,	0.00000E+00,	0,	0
  4.93714E+04,	1.00000E+01,	-1.24496E-02,	8.82692E+00,	3.94169E+02,	-1.10970E+01,	0.00000E+00,	0,	0
  3.84000E+04,	1.00000E+01,	-1.24496E-02,	9.74022E+00,	3.97638E+02,	-1.25234E+01,	0.00000E+00,	0,	0
  3.00522E+04,	1.00000E+01,	-1.24496E-02,	1.06016E+01,	4.06630E+02,	-8.83207E+00,	0.00000E+00,	0,	0
  2.38345E+04,	1.00000E+01,	-1.24496E-02,	1.14851E+01,	4.00984E+02,	-8.53910E+00,	0.00000E+00,	0,	0
  1.86811E+04,	1.00000E+01,	-1.24496E-02,	1.23182E+01,	3.96768E+02,	-9.49160E+00,	0.00000E+00,	0,	0
  1.47064E+04,	1.00000E+01,	-1.24496E-02,	1.32871E+01,	4.01580E+02,	-6.81438E+00,	0.00000E+00,	0,	0
  1.15200E+04,	1.00000E+01,	-1.24496E-02,	1.42561E+01,	4.04067E+02,	-6.09270E+00,	0.00000E+00,	0,	0
  9.60000E+03,	1.00000E+01,	-1.24496E-02,	1.58210E+01,	4.02242E+02,	-6.63071E+00,	0.00000E+00,	0,	0
  7.51304E+03,	1.00000E+01,	-1.24496E-02,	1.67229E+01,	4.05586E+02,	-7.42376E+00,	0.00000E+00,	0,	0
  5.76000E+03,	1.00000E+01,	-1.24496E-02,	1.76294E+01,	4.06566E+02,	-6.41285E+00,	0.00000E+00,	0,	0
  4.54737E+03,	1.00000E+01,	-1.24496E-02,	1.84883E+01,	4.07146E+02,	-9.61740E+00,	0.00000E+00,	0,	0
  3.60000E+03,	1.00000E+01,	-1.24496E-02,	1.94861E+01,	4.05020E+02,	-9.00022E+00,	0.00000E+00,	0,	0
  2.88000E+03,	1.00000E+01,	-1.24496E-02,	2.03957E+01,	4.06822E+02,	-9.95895E+00,	0.00000E+00,	0,	0
  2.27368E+03,	1.00000E+01,	-1.24496E-02,	2.27053E+01,	4.06777E+02,	-1.31257E+01,	0.00000E+00,	0,	0
  1.78144E+03,	1.00000E+01,	-1.24496E-02,	2.35432E+01,	4.10614E+02,	-1.42162E+01,	0.00000E+00,	0,	0
  1.41639E+03,	1.00000E+01,	-1.24496E-02,	2.44535E+01,	4.10052E+02,	-1.65996E+01,	0.00000E+00,	0,	0
  1.12208E+03,	1.00000E+01,	-1.24496E-02,	2.54805E+01,	4.10861E+02,	-1.92810E+01,	0.00000E+00,	0,	0
  9.00000E+02,	1.00000E+01,	-1.24496E-02,	3.04595E+01,	4.15531E+02,	-2.33813E+01,	0.00000E+00,	0,	0
  7.20000E+02,	1.00000E+01,	-1.24496E-02,	3.18247E+01,	4.17574E+02,	-2.80984E+01,	0.00000E+00,	0,	0
  5.68421E+02,	1.00000E+01,	-1.24496E-02,	3.31952E+01,	4.19682E+02,	-3.44025E+01,	0.00000E+00,	0,	0
  4.40816E+02,	1.00000E+01,	-1.24496E-02,	3.46400E+01,	4.22351E+02,	-4.22211E+01,	0.00000E+00,	0,	0
  3.54098E+02,	1.00000E+01,	-1.24496E-02,	3.69907E+01,	4.26002E+02,	-5.09771E+01,	0.00000E+00,	0,	0
  2.76923E+02,	1.00000E+01,	-1.24496E-02,	3.96348E+01,	4.30600E+02,	-6.25198E+01,	0.00000E+00,	0,	0
  2.20408E+02,	1.00000E+01,	-1.24496E-02,	4.25543E+01,	4.35874E+02,	-7.54951E+01,	0.00000E+00,	0,	0
  1.74194E+02,	1.00000E+01,	-1.24496E-02,	4.58126E+01,	4.42365E+02,	-9.15361E+01,	0.00000E+00,	0,	0
  1.37580E+02,	1.00000E+01,	-1.24496E-02,	4.94701E+01,	4.50588E+02,	-1.10894E+02,	0.00000E+00,	0,	0
  1.09091E+02,	1.00000E+01,	-1.24496E-02,	5.35673E+01,	4.60609E+02,	-1.33887E+02,	0.00000E+00,	0,	0
  8.70968E+01,	1.00000E+01,	-1.24496E-02,	5.92534E+01,	4.72933E+02,	-1.60749E+02,	0.00000E+00,	0,	0
  6.83544E+01,	1.00000E+01,	-1.24496E-02,	6.43255E+01,	4.90085E+02,	-1.96241E+02,	0.00000E+00,	0,	0
  5.45455E+01,	1.00000E+01,	-1.24496E-02,	6.97622E+01,	5.01834E+02,	-2.26912E+02,	0.00000E+00,	0,	0
  4.28571E+01,	1.00000E+01,	-1.24496E-02,	7.32851E+01,	5.21128E+02,	-2.73092E+02,	0.00000E+00,	0,	0
  3.39623E+01,	1.00000E+01,	-1.24496E-02,	7.70033E+01,	5.39659E+02,	-3.27561E+02,	0.00000E+00,	0,	0
  2.68657E+01,	1.00000E+01,	-1.24496E-02,	8.08607E+01,	5.67712E+02,	-3.91582E+02,	0.00000E+00,	0,	0
  2.13439E+01,	1.00000E+01,	-1.24496E-02,	8.46857E+01,	5.97716E+02,	-4.66096E+02,	0.00000E+00,	0,	0
  1.73077E+01,	1.00000E+01,	-1.24496E-02,	8.84112E+01,	6.28255E+02,	-5.47005E+02,	0.00000E+00,	0,	0
  1.36364E+01,	1.00000E+01,	-1.24496E-02,	9.34295E+01,	6.67615E+02,	-6.57174E+02,	0.00000E+00,	0,	0
  1.07143E+01,	1.00000E+01,	-1.24496E-02,	9.63352E+01,	7.11541E+02,	-7.92735E+02,	0.00000E+00,	0,	0
  8.49057E+00,	1.00000E+01,	-1.24496E-02,	1.00552E+02,	7.62645E+02,	-9.53187E+02,	0.00000E+00,	0,	0
  6.71642E+00,	1.00000E+01,	-1.24496E-02,	1.03050E+02,	8.17362E+02,	-1.14935E+03,	0.00000E+00,	0,	0
  5.29412E+00,	1.00000E+01,	-1.24496E-02,	1.06008E+02,	8.84565E+02,	-1.39473E+03,	0.00000E+00,	0,	0
  4.16667E+00,	1.00000E+01,	-1.24496E-02,	1.09477E+02,	9.64792E+02,	-1.69974E+03,	0.00000E+00,	0,	0
  3.30882E+00,	1.00000E+01,	-1.24496E-02,	1.16002E+02,	1.05788E+03,	-2.05946E+03,	0.00000E+00,	0,	0
  2.61628E+00,	1.00000E+01,	-1.24496E-02,	1.19990E+02,	1.17409E+03,	-2.50995E+03,	0.00000E+00,	0,	0
  2.07373E+00,	1.00000E+01,	-1.24496E-02,	1.24755E+02,	1.31599E+03,	-3.05754E+03,	0.00000E+00,	0,	0
  1.64234E+00,	1.00000E+01,	-1.24496E-02,	1.30553E+02,	1.49378E+03,	-3.72994E+03,	0.00000E+00,	0,	0
  1.30058E+00,	1.00000E+01,	-1.24496E-02,	1.34738E+02,	1.72008E+03,	-4.54868E+03,	0.00000E+00,	0,	0
  1.03211E+00,	1.00000E+01,	-1.24496E-02,	1.39130E+02,	2.00644E+03,	-5.54013E+03,	0.00000E+00,	0,	0
  8.15217E-01,	1.00000E+01,	-1.24496E-02,	1.46083E+02,	2.37245E+03,	-6.75595E+03,	0.00000E+00,	0,	0
  6.46552E-01,	1.00000E+01,	-1.24496E-02,	1.50887E+02,	2.84062E+03,	-8.20815E+03,	0.00000E+00,	0,	0
  5.11364E-01,	1.00000E+01,	-1.24496E-02,	1.55894E+02,	3.36455E+03,	-1.00039E+04,	0.00000E+00,	0,	0
  4.07609E-01,	1.00000E+01,	-1.24496E-02,	1.61953E+02,	4.10171E+03,	-1.20607E+04,	0.00000E+00,	0,	0
  3.21429E-01,	1.00000E+01,	-1.24496E-02,	1.69069E+02,	5.09677E+03,	-1.47751E+04,	0.00000E+00,	0,	0
  2.54525E-01,	1.00000E+01,	-1.24496E-02,	1.77832E+02,	6.34759E+03,	-1.77570E+04,	0.00000E+00,	0,	0
  2.01613E-01,	1.00000E+01,	-1.24496E-02,	1.88659E+02,	7.88748E+03,	-2.12983E+04,	0.00000E+00,	0,	0
  1.59574E-01,	1.00000E+01,	-1.24496E-02,	2.02112E+02,	9.78933E+03,	-2.54723E+04,	0.00000E+00,	0,	0
  1.26689E-01,	1.00000E+01,	-1.24496E-02,	2.36010E+02,	1.20852E+04,	-2.99994E+04,	0.00000E+00,	0,	0
  1.00446E-01,	1.00000E+01,	-1.24496E-02,	2.56875E+02,	1.47051E+04,	-3.66136E+04,	0.00000E+00,	0,	0