Z60W Data File: Version 1.1
CorrTest for Windows: SN CS310H1805157  V5.2.1111.9  2.5H6.220118
Sweep Frequency: Control Voltage
  Date:4-28-2026   Time:18:22:33
  Begin Information:            Cell Information
      Surface Area:           1
      Density:                7.8
      Weight:                 28
  End Information:              Cell Information
  Freq (Hz)     Ampl(mV)       Bias(V)      Time(Sec)       Z'(Ohm.cm^2)    Z''(Ohm.cm^2)        GD       Err      Range
End Comments
  1.02857E+03,	1.00000E+01,	-1.81615E-02,	2.14474E-02,	9.10601E+03,	-4.88246E+02,	0.00000E+00,	0,	0
  8.00000E+02,	1.00000E+01,	-1.81615E-02,	4.25211E+00,	9.08375E+03,	-4.78848E+02,	0.00000E+00,	0,	0
  6.35294E+02,	1.00000E+01,	-1.81615E-02,	5.61212E+00,	9.12610E+03,	-4.06314E+02,	0.00000E+00,	0,	0
  5.02326E+02,	1.00000E+01,	-1.81615E-02,	7.00141E+00,	9.15209E+03,	-3.55045E+02,	0.00000E+00,	0,	0
  3.92727E+02,	1.00000E+01,	-1.81615E-02,	8.37373E+00,	9.18463E+03,	-3.17455E+02,	0.00000E+00,	0,	0
  3.08571E+02,	1.00000E+01,	-1.81615E-02,	1.08607E+01,	9.22933E+03,	-2.89691E+02,	0.00000E+00,	0,	0
  2.42697E+02,	1.00000E+01,	-1.81615E-02,	1.36515E+01,	9.27801E+03,	-2.79470E+02,	0.00000E+00,	0,	0
  1.92857E+02,	1.00000E+01,	-1.81615E-02,	1.68507E+01,	9.32445E+03,	-2.94122E+02,	0.00000E+00,	0,	0
  1.52113E+02,	1.00000E+01,	-1.81615E-02,	2.03113E+01,	9.38116E+03,	-3.09488E+02,	0.00000E+00,	0,	0
  1.20000E+02,	1.00000E+01,	-1.81615E-02,	2.41990E+01,	9.44904E+03,	-3.44354E+02,	0.00000E+00,	0,	0
  9.47368E+01,	1.00000E+01,	-1.81615E-02,	2.96572E+01,	9.54543E+03,	-3.95939E+02,	0.00000E+00,	0,	0
  7.50000E+01,	1.00000E+01,	-1.81615E-02,	3.44807E+01,	9.66086E+03,	-4.68564E+02,	0.00000E+00,	0,	0
  5.93407E+01,	1.00000E+01,	-1.81615E-02,	3.97318E+01,	9.66291E+03,	-4.73656E+02,	0.00000E+00,	0,	0
  4.65517E+01,	1.00000E+01,	-1.81615E-02,	4.55111E+01,	9.76075E+03,	-5.72912E+02,	0.00000E+00,	0,	0
  3.67347E+01,	1.00000E+01,	-1.81615E-02,	5.23076E+01,	1.32280E+04,	-9.96133E+02,	0.00000E+00,	0,	0
  2.90323E+01,	1.00000E+01,	-1.81615E-02,	5.61444E+01,	1.36193E+04,	-1.18522E+03,	0.00000E+00,	0,	0
  2.28814E+01,	1.00000E+01,	-1.81615E-02,	6.00395E+01,	1.39048E+04,	-1.41983E+03,	0.00000E+00,	0,	0
  1.87500E+01,	1.00000E+01,	-1.81615E-02,	6.37508E+01,	1.41402E+04,	-1.66200E+03,	0.00000E+00,	0,	0
  1.45161E+01,	1.00000E+01,	-1.81615E-02,	6.90709E+01,	1.44542E+04,	-2.04416E+03,	0.00000E+00,	0,	0
  1.15385E+01,	1.00000E+01,	-1.81615E-02,	7.27895E+01,	1.47262E+04,	-2.46701E+03,	0.00000E+00,	0,	0
  9.00000E+00,	1.00000E+01,	-1.81615E-02,	7.70011E+01,	1.07127E+04,	-2.13051E+03,	0.00000E+00,	0,	0
  7.03125E+00,	1.00000E+01,	-1.81615E-02,	7.95337E+01,	1.09128E+04,	-2.60436E+03,	0.00000E+00,	0,	0
  5.55556E+00,	1.00000E+01,	-1.81615E-02,	8.23996E+01,	1.11610E+04,	-3.12510E+03,	0.00000E+00,	0,	0
  4.41176E+00,	1.00000E+01,	-1.81615E-02,	8.57815E+01,	1.14545E+04,	-3.74268E+03,	0.00000E+00,	0,	0
  3.46154E+00,	1.00000E+01,	-1.81615E-02,	8.98333E+01,	1.18224E+04,	-4.50134E+03,	0.00000E+00,	0,	0
  2.74390E+00,	1.00000E+01,	-1.81615E-02,	9.36536E+01,	1.22442E+04,	-5.36412E+03,	0.00000E+00,	0,	0
  2.16346E+00,	1.00000E+01,	-1.81615E-02,	9.82883E+01,	1.27561E+04,	-6.40780E+03,	0.00000E+00,	0,	0
  1.70455E+00,	1.00000E+01,	-1.81615E-02,	1.03863E+02,	1.33685E+04,	-7.65600E+03,	0.00000E+00,	0,	0
  1.34731E+00,	1.00000E+01,	-1.81615E-02,	1.08026E+02,	1.40199E+04,	-9.10201E+03,	0.00000E+00,	0,	0
  1.06132E+00,	1.00000E+01,	-1.81615E-02,	1.12342E+02,	1.48874E+04,	-1.08204E+04,	0.00000E+00,	0,	0
  8.39552E-01,	1.00000E+01,	-1.81615E-02,	1.19186E+02,	1.57052E+04,	-1.28951E+04,	0.00000E+00,	0,	0
  6.61765E-01,	1.00000E+01,	-1.81615E-02,	1.23761E+02,	1.67483E+04,	-1.53479E+04,	0.00000E+00,	0,	0
  5.23256E-01,	1.00000E+01,	-1.81615E-02,	1.28677E+02,	1.76993E+04,	-1.90040E+04,	0.00000E+00,	0,	0
  4.13603E-01,	1.00000E+01,	-1.81615E-02,	1.34646E+02,	1.90900E+04,	-2.25778E+04,	0.00000E+00,	0,	0
  3.27035E-01,	1.00000E+01,	-1.81615E-02,	1.41676E+02,	2.13296E+04,	-2.76676E+04,	0.00000E+00,	0,	0
  2.58028E-01,	1.00000E+01,	-1.81615E-02,	1.50542E+02,	2.31352E+04,	-3.29901E+04,	0.00000E+00,	0,	0
  2.03804E-01,	1.00000E+01,	-1.81615E-02,	1.61286E+02,	2.53072E+04,	-3.98625E+04,	0.00000E+00,	0,	0
  1.60944E-01,	1.00000E+01,	-1.81615E-02,	1.74647E+02,	2.77743E+04,	-4.79082E+04,	0.00000E+00,	0,	0
  1.26689E-01,	1.00000E+01,	-1.81615E-02,	1.91376E+02,	3.07893E+04,	-5.81373E+04,	0.00000E+00,	0,	0
  1.00446E-01,	1.00000E+01,	-1.81615E-02,	2.12264E+02,	3.43394E+04,	-7.03343E+04,	0.00000E+00,	0,	0