Z60W Data File: Version 1.1
CorrTest for Windows: SN CS310H1805157  V5.2.1111.9  2.5H6.220118
Sweep Frequency: Control Voltage
  Date:4-28-2026   Time:15:26:17
  Begin Information:            Cell Information
      Surface Area:           1
      Density:                7.8
      Weight:                 28
  End Information:              Cell Information
  Freq (Hz)     Ampl(mV)       Bias(V)      Time(Sec)       Z'(Ohm.cm^2)    Z''(Ohm.cm^2)        GD       Err      Range
End Comments
  3.07200E+05,	1.00000E+01,	-2.61931E-03,	5.95323E-02,	1.20305E+01,	1.00751E+01,	0.00000E+00,	0,	0
  2.76480E+05,	1.00000E+01,	-2.61931E-03,	1.66874E+00,	1.23025E+01,	8.64704E+00,	0.00000E+00,	0,	0
  1.97486E+05,	1.00000E+01,	-2.61931E-03,	2.60362E+00,	1.26733E+01,	6.13864E+00,	0.00000E+00,	0,	0
  1.53600E+05,	1.00000E+01,	-2.61931E-03,	3.50690E+00,	1.27865E+01,	4.72990E+00,	0.00000E+00,	0,	0
  1.25673E+05,	1.00000E+01,	-2.61931E-03,	4.44512E+00,	1.28555E+01,	3.79896E+00,	0.00000E+00,	0,	0
  9.87429E+04,	1.00000E+01,	-2.61931E-03,	5.34164E+00,	1.29155E+01,	2.91383E+00,	0.00000E+00,	0,	0
  7.68000E+04,	1.00000E+01,	-2.61931E-03,	6.25317E+00,	1.29839E+01,	2.17309E+00,	0.00000E+00,	0,	0
  6.01043E+04,	1.00000E+01,	-2.61931E-03,	8.37041E+00,	1.30086E+01,	1.54920E+00,	0.00000E+00,	0,	0
  4.93714E+04,	1.00000E+01,	-2.61931E-03,	9.94686E+00,	1.30290E+01,	1.15929E+00,	0.00000E+00,	0,	0
  3.84000E+04,	1.00000E+01,	-2.61931E-03,	1.08361E+01,	1.30940E+01,	7.35773E-01,	0.00000E+00,	0,	0
  3.00522E+04,	1.00000E+01,	-2.61931E-03,	1.16952E+01,	1.30901E+01,	3.73011E-01,	0.00000E+00,	0,	0
  2.38345E+04,	1.00000E+01,	-2.61931E-03,	1.25389E+01,	1.31481E+01,	5.54903E-02,	0.00000E+00,	0,	0
  1.86811E+04,	1.00000E+01,	-2.61931E-03,	1.33891E+01,	1.31616E+01,	-2.50944E-01,	0.00000E+00,	0,	0
  1.47064E+04,	1.00000E+01,	-2.61931E-03,	1.43834E+01,	1.32325E+01,	-5.70222E-01,	0.00000E+00,	0,	0
  1.15200E+04,	1.00000E+01,	-2.61931E-03,	1.53484E+01,	1.33013E+01,	-9.14714E-01,	0.00000E+00,	0,	0
  9.60000E+03,	1.00000E+01,	-2.61931E-03,	1.69147E+01,	1.33772E+01,	-1.16698E+00,	0.00000E+00,	0,	0
  7.51304E+03,	1.00000E+01,	-2.61931E-03,	1.78219E+01,	1.34667E+01,	-1.57292E+00,	0.00000E+00,	0,	0
  5.76000E+03,	1.00000E+01,	-2.61931E-03,	1.86963E+01,	1.36278E+01,	-2.05993E+00,	0.00000E+00,	0,	0
  4.54737E+03,	1.00000E+01,	-2.61931E-03,	1.95583E+01,	1.37683E+01,	-2.59032E+00,	0.00000E+00,	0,	0
  3.60000E+03,	1.00000E+01,	-2.61931E-03,	2.05491E+01,	1.39885E+01,	-3.17588E+00,	0.00000E+00,	0,	0
  2.88000E+03,	1.00000E+01,	-2.61931E-03,	2.14481E+01,	1.42269E+01,	-3.84152E+00,	0.00000E+00,	0,	0
  2.27368E+03,	1.00000E+01,	-2.61931E-03,	2.37227E+01,	1.45248E+01,	-4.67763E+00,	0.00000E+00,	0,	0
  1.78144E+03,	1.00000E+01,	-2.61931E-03,	2.45114E+01,	1.48942E+01,	-5.68507E+00,	0.00000E+00,	0,	0
  1.41639E+03,	1.00000E+01,	-2.61931E-03,	2.54187E+01,	1.52865E+01,	-6.84099E+00,	0.00000E+00,	0,	0
  1.12208E+03,	1.00000E+01,	-2.61931E-03,	2.64604E+01,	1.57686E+01,	-8.24582E+00,	0.00000E+00,	0,	0
  9.00000E+02,	1.00000E+01,	-2.61931E-03,	3.14348E+01,	1.63780E+01,	-9.80361E+00,	0.00000E+00,	0,	0
  7.20000E+02,	1.00000E+01,	-2.61931E-03,	3.28266E+01,	1.70028E+01,	-1.16678E+01,	0.00000E+00,	0,	0
  5.68421E+02,	1.00000E+01,	-2.61931E-03,	3.42303E+01,	1.77564E+01,	-1.40529E+01,	0.00000E+00,	0,	0
  4.40816E+02,	1.00000E+01,	-2.61931E-03,	3.57181E+01,	1.86907E+01,	-1.71860E+01,	0.00000E+00,	0,	0
  3.54098E+02,	1.00000E+01,	-2.61931E-03,	3.80538E+01,	1.96166E+01,	-2.04924E+01,	0.00000E+00,	0,	0
  2.76923E+02,	1.00000E+01,	-2.61931E-03,	4.07245E+01,	2.08271E+01,	-2.50308E+01,	0.00000E+00,	0,	0
  2.20408E+02,	1.00000E+01,	-2.61931E-03,	4.36613E+01,	2.21356E+01,	-3.02142E+01,	0.00000E+00,	0,	0
  1.74194E+02,	1.00000E+01,	-2.61931E-03,	4.69129E+01,	2.37308E+01,	-3.67740E+01,	0.00000E+00,	0,	0
  1.37580E+02,	1.00000E+01,	-2.61931E-03,	5.05739E+01,	2.56549E+01,	-4.48825E+01,	0.00000E+00,	0,	0
  1.09091E+02,	1.00000E+01,	-2.61931E-03,	5.47037E+01,	2.79676E+01,	-5.47303E+01,	0.00000E+00,	0,	0
  8.70968E+01,	1.00000E+01,	-2.61931E-03,	6.04160E+01,	3.07221E+01,	-6.65299E+01,	0.00000E+00,	0,	0
  6.83544E+01,	1.00000E+01,	-2.61931E-03,	6.54483E+01,	3.45091E+01,	-8.24891E+01,	0.00000E+00,	0,	0
  5.45455E+01,	1.00000E+01,	-2.61931E-03,	7.08982E+01,	3.91383E+01,	-9.86582E+01,	0.00000E+00,	0,	0
  4.28571E+01,	1.00000E+01,	-2.61931E-03,	7.44265E+01,	4.52616E+01,	-1.21273E+02,	0.00000E+00,	0,	0
  3.39623E+01,	1.00000E+01,	-2.61931E-03,	7.82138E+01,	5.18795E+01,	-1.47730E+02,	0.00000E+00,	0,	0
  2.68657E+01,	1.00000E+01,	-2.61931E-03,	8.20585E+01,	6.20544E+01,	-1.80768E+02,	0.00000E+00,	0,	0
  2.13439E+01,	1.00000E+01,	-2.61931E-03,	8.58804E+01,	7.47657E+01,	-2.19519E+02,	0.00000E+00,	0,	0
  1.73077E+01,	1.00000E+01,	-2.61931E-03,	9.25657E+01,	8.95726E+01,	-2.61788E+02,	0.00000E+00,	0,	0
  1.36364E+01,	1.00000E+01,	-2.61931E-03,	9.75859E+01,	1.10531E+02,	-3.18119E+02,	0.00000E+00,	0,	0
  1.07143E+01,	1.00000E+01,	-2.61931E-03,	1.00497E+02,	1.37667E+02,	-3.85879E+02,	0.00000E+00,	0,	0
  8.49057E+00,	1.00000E+01,	-2.61931E-03,	1.04758E+02,	1.70623E+02,	-4.62959E+02,	0.00000E+00,	0,	0
  6.71642E+00,	1.00000E+01,	-2.61931E-03,	1.07304E+02,	2.11867E+02,	-5.53890E+02,	0.00000E+00,	0,	0
  5.29412E+00,	1.00000E+01,	-2.61931E-03,	1.10276E+02,	2.63064E+02,	-6.60882E+02,	0.00000E+00,	0,	0
  4.16667E+00,	1.00000E+01,	-2.61931E-03,	1.13793E+02,	3.24597E+02,	-7.86660E+02,	0.00000E+00,	0,	0
  3.30882E+00,	1.00000E+01,	-2.61931E-03,	1.18059E+02,	3.94108E+02,	-9.27545E+02,	0.00000E+00,	0,	0
  2.61628E+00,	1.00000E+01,	-2.61931E-03,	1.22085E+02,	4.75649E+02,	-1.09425E+03,	0.00000E+00,	0,	0
  2.07373E+00,	1.00000E+01,	-2.61931E-03,	1.26867E+02,	5.67357E+02,	-1.28922E+03,	0.00000E+00,	0,	0
  1.64234E+00,	1.00000E+01,	-2.61931E-03,	1.32637E+02,	6.70931E+02,	-1.52133E+03,	0.00000E+00,	0,	0
  1.30058E+00,	1.00000E+01,	-2.61931E-03,	1.36823E+02,	7.88882E+02,	-1.79759E+03,	0.00000E+00,	0,	0
  1.03211E+00,	1.00000E+01,	-2.61931E-03,	1.41218E+02,	9.23846E+02,	-2.12961E+03,	0.00000E+00,	0,	0
  8.15217E-01,	1.00000E+01,	-2.61931E-03,	1.48153E+02,	1.07532E+03,	-2.53214E+03,	0.00000E+00,	0,	0
  6.46552E-01,	1.00000E+01,	-2.61931E-03,	1.57248E+02,	1.25059E+03,	-3.01882E+03,	0.00000E+00,	0,	0
  5.11364E-01,	1.00000E+01,	-2.61931E-03,	1.62253E+02,	1.41506E+03,	-3.62512E+03,	0.00000E+00,	0,	0
  4.07609E-01,	1.00000E+01,	-2.61931E-03,	1.68354E+02,	1.64955E+03,	-4.31802E+03,	0.00000E+00,	0,	0
  3.21429E-01,	1.00000E+01,	-2.61931E-03,	1.75481E+02,	1.94456E+03,	-5.27310E+03,	0.00000E+00,	0,	0
  2.54525E-01,	1.00000E+01,	-2.61931E-03,	1.84253E+02,	2.27207E+03,	-6.30472E+03,	0.00000E+00,	0,	0
  2.01613E-01,	1.00000E+01,	-2.61931E-03,	1.95099E+02,	2.62994E+03,	-7.56709E+03,	0.00000E+00,	0,	0
  1.59574E-01,	1.00000E+01,	-2.61931E-03,	2.08552E+02,	3.02614E+03,	-9.10879E+03,	0.00000E+00,	0,	0
  1.26689E-01,	1.00000E+01,	-2.61931E-03,	2.25482E+02,	3.44518E+03,	-1.09694E+04,	0.00000E+00,	0,	0
  1.00446E-01,	1.00000E+01,	-2.61931E-03,	2.46398E+02,	3.89676E+03,	-1.33122E+04,	0.00000E+00,	0,	0