Z60W Data File: Version 1.1
CorrTest for Windows: SN CS310H1805157  V5.2.1111.9  2.5H6.220118
Sweep Frequency: Control Voltage
  Date:4-28-2026   Time:13:45:17
  Begin Information:            Cell Information
      Surface Area:           1
      Density:                7.8
      Weight:                 28
  End Information:              Cell Information
  Freq (Hz)     Ampl(mV)       Bias(V)      Time(Sec)       Z'(Ohm.cm^2)    Z''(Ohm.cm^2)        GD       Err      Range
End Comments
  3.07200E+05,	1.00000E+01,	-5.59218E-03,	6.48528E-02,	2.98608E+00,	5.19122E+00,	0.00000E+00,	0,	0
  2.76480E+05,	1.00000E+01,	-5.59218E-03,	1.67299E+00,	3.44464E+00,	4.37659E+00,	0.00000E+00,	0,	0
  1.97486E+05,	1.00000E+01,	-5.59218E-03,	2.58081E+00,	4.07247E+00,	3.13347E+00,	0.00000E+00,	0,	0
  1.53600E+05,	1.00000E+01,	-5.59218E-03,	3.49473E+00,	4.32809E+00,	2.39364E+00,	0.00000E+00,	0,	0
  1.25673E+05,	1.00000E+01,	-5.59218E-03,	4.39140E+00,	4.45537E+00,	1.91625E+00,	0.00000E+00,	0,	0
  9.87429E+04,	1.00000E+01,	-5.59218E-03,	5.28639E+00,	4.57412E+00,	1.44124E+00,	0.00000E+00,	0,	0
  7.68000E+04,	1.00000E+01,	-5.59218E-03,	6.20616E+00,	4.64908E+00,	1.04732E+00,	0.00000E+00,	0,	0
  6.01043E+04,	1.00000E+01,	-5.59218E-03,	8.31420E+00,	4.69452E+00,	7.05941E-01,	0.00000E+00,	0,	0
  4.93714E+04,	1.00000E+01,	-5.59218E-03,	9.88692E+00,	4.72166E+00,	4.94061E-01,	0.00000E+00,	0,	0
  3.84000E+04,	1.00000E+01,	-5.59218E-03,	1.07856E+01,	4.74805E+00,	2.43787E-01,	0.00000E+00,	0,	0
  3.00522E+04,	1.00000E+01,	-5.59218E-03,	1.16871E+01,	4.76875E+00,	4.14753E-02,	0.00000E+00,	0,	0
  2.38345E+04,	1.00000E+01,	-5.59218E-03,	1.25512E+01,	4.80385E+00,	-1.42145E-01,	0.00000E+00,	0,	0
  1.86811E+04,	1.00000E+01,	-5.59218E-03,	1.34120E+01,	4.84440E+00,	-3.44383E-01,	0.00000E+00,	0,	0
  1.47064E+04,	1.00000E+01,	-5.59218E-03,	1.43784E+01,	4.88264E+00,	-5.52582E-01,	0.00000E+00,	0,	0
  1.15200E+04,	1.00000E+01,	-5.59218E-03,	1.64428E+01,	4.94141E+00,	-7.91044E-01,	0.00000E+00,	0,	0
  9.60000E+03,	1.00000E+01,	-5.59218E-03,	1.80066E+01,	4.99188E+00,	-9.73694E-01,	0.00000E+00,	0,	0
  7.51304E+03,	1.00000E+01,	-5.59218E-03,	1.88900E+01,	5.06958E+00,	-1.24201E+00,	0.00000E+00,	0,	0
  5.76000E+03,	1.00000E+01,	-5.59218E-03,	1.97921E+01,	5.18685E+00,	-1.58511E+00,	0.00000E+00,	0,	0
  4.54737E+03,	1.00000E+01,	-5.59218E-03,	2.06626E+01,	5.30602E+00,	-1.94606E+00,	0.00000E+00,	0,	0
  3.60000E+03,	1.00000E+01,	-5.59218E-03,	2.16489E+01,	5.46233E+00,	-2.36542E+00,	0.00000E+00,	0,	0
  2.88000E+03,	1.00000E+01,	-5.59218E-03,	2.25373E+01,	5.60373E+00,	-2.84136E+00,	0.00000E+00,	0,	0
  2.27368E+03,	1.00000E+01,	-5.59218E-03,	2.48280E+01,	5.75260E+00,	-3.39998E+00,	0.00000E+00,	0,	0
  1.78144E+03,	1.00000E+01,	-5.59218E-03,	2.56047E+01,	5.98009E+00,	-4.13380E+00,	0.00000E+00,	0,	0
  1.41639E+03,	1.00000E+01,	-5.59218E-03,	2.65264E+01,	6.22294E+00,	-4.97118E+00,	0.00000E+00,	0,	0
  1.12208E+03,	1.00000E+01,	-5.59218E-03,	2.75756E+01,	6.50513E+00,	-6.00057E+00,	0.00000E+00,	0,	0
  9.00000E+02,	1.00000E+01,	-5.59218E-03,	3.25574E+01,	6.83535E+00,	-7.20552E+00,	0.00000E+00,	0,	0
  7.20000E+02,	1.00000E+01,	-5.59218E-03,	3.39369E+01,	7.19947E+00,	-8.66383E+00,	0.00000E+00,	0,	0
  5.68421E+02,	1.00000E+01,	-5.59218E-03,	3.53072E+01,	7.65641E+00,	-1.05587E+01,	0.00000E+00,	0,	0
  4.40816E+02,	1.00000E+01,	-5.59218E-03,	3.83340E+01,	8.27296E+00,	-1.31229E+01,	0.00000E+00,	0,	0
  3.54098E+02,	1.00000E+01,	-5.59218E-03,	4.06900E+01,	8.89734E+00,	-1.58091E+01,	0.00000E+00,	0,	0
  2.76923E+02,	1.00000E+01,	-5.59218E-03,	4.33407E+01,	9.77841E+00,	-1.95195E+01,	0.00000E+00,	0,	0
  2.20408E+02,	1.00000E+01,	-5.59218E-03,	4.62540E+01,	1.07951E+01,	-2.37507E+01,	0.00000E+00,	0,	0
  1.74194E+02,	1.00000E+01,	-5.59218E-03,	4.95261E+01,	1.21228E+01,	-2.90886E+01,	0.00000E+00,	0,	0
  1.37580E+02,	1.00000E+01,	-5.59218E-03,	5.32425E+01,	1.38269E+01,	-3.56401E+01,	0.00000E+00,	0,	0
  1.09091E+02,	1.00000E+01,	-5.59218E-03,	5.73121E+01,	1.59678E+01,	-4.35154E+01,	0.00000E+00,	0,	0
  8.70968E+01,	1.00000E+01,	-5.59218E-03,	6.30169E+01,	1.86149E+01,	-5.28301E+01,	0.00000E+00,	0,	0
  6.83544E+01,	1.00000E+01,	-5.59218E-03,	6.80392E+01,	2.23400E+01,	-6.52507E+01,	0.00000E+00,	0,	0
  5.45455E+01,	1.00000E+01,	-5.59218E-03,	7.34739E+01,	2.70298E+01,	-7.76233E+01,	0.00000E+00,	0,	0
  4.28571E+01,	1.00000E+01,	-5.59218E-03,	7.70402E+01,	3.32425E+01,	-9.45468E+01,	0.00000E+00,	0,	0
  3.39623E+01,	1.00000E+01,	-5.59218E-03,	8.07775E+01,	4.01679E+01,	-1.13843E+02,	0.00000E+00,	0,	0
  2.68657E+01,	1.00000E+01,	-5.59218E-03,	8.46142E+01,	5.01599E+01,	-1.37330E+02,	0.00000E+00,	0,	0
  2.13439E+01,	1.00000E+01,	-5.59218E-03,	8.84559E+01,	6.22648E+01,	-1.63998E+02,	0.00000E+00,	0,	0
  1.73077E+01,	1.00000E+01,	-5.59218E-03,	9.51359E+01,	7.56771E+01,	-1.92296E+02,	0.00000E+00,	0,	0
  1.36364E+01,	1.00000E+01,	-5.59218E-03,	1.00195E+02,	9.35541E+01,	-2.28924E+02,	0.00000E+00,	0,	0
  1.07143E+01,	1.00000E+01,	-5.59218E-03,	1.03110E+02,	1.14875E+02,	-2.71962E+02,	0.00000E+00,	0,	0
  8.49057E+00,	1.00000E+01,	-5.59218E-03,	1.07310E+02,	1.38615E+02,	-3.20661E+02,	0.00000E+00,	0,	0
  6.71642E+00,	1.00000E+01,	-5.59218E-03,	1.09832E+02,	1.65841E+02,	-3.78155E+02,	0.00000E+00,	0,	0
  5.29412E+00,	1.00000E+01,	-5.59218E-03,	1.12765E+02,	1.97104E+02,	-4.47242E+02,	0.00000E+00,	0,	0
  4.16667E+00,	1.00000E+01,	-5.59218E-03,	1.16229E+02,	2.32494E+02,	-5.30784E+02,	0.00000E+00,	0,	0
  3.30882E+00,	1.00000E+01,	-5.59218E-03,	1.20455E+02,	2.71089E+02,	-6.27791E+02,	0.00000E+00,	0,	0
  2.61628E+00,	1.00000E+01,	-5.59218E-03,	1.24438E+02,	3.16038E+02,	-7.46598E+02,	0.00000E+00,	0,	0
  2.07373E+00,	1.00000E+01,	-5.59218E-03,	1.29290E+02,	3.67557E+02,	-8.89428E+02,	0.00000E+00,	0,	0
  1.64234E+00,	1.00000E+01,	-5.59218E-03,	1.35093E+02,	4.27464E+02,	-1.06266E+03,	0.00000E+00,	0,	0
  1.30058E+00,	1.00000E+01,	-5.59218E-03,	1.39272E+02,	4.98242E+02,	-1.27127E+03,	0.00000E+00,	0,	0
  1.03211E+00,	1.00000E+01,	-5.59218E-03,	1.43668E+02,	5.81026E+02,	-1.52198E+03,	0.00000E+00,	0,	0
  8.15217E-01,	1.00000E+01,	-5.59218E-03,	1.50645E+02,	6.74960E+02,	-1.82597E+03,	0.00000E+00,	0,	0
  6.46552E-01,	1.00000E+01,	-5.59218E-03,	1.59751E+02,	7.79956E+02,	-2.19002E+03,	0.00000E+00,	0,	0
  5.11364E-01,	1.00000E+01,	-5.59218E-03,	1.64778E+02,	8.69399E+02,	-2.64557E+03,	0.00000E+00,	0,	0
  4.07609E-01,	1.00000E+01,	-5.59218E-03,	1.70813E+02,	9.94178E+02,	-3.17610E+03,	0.00000E+00,	0,	0
  3.21429E-01,	1.00000E+01,	-5.59218E-03,	1.77997E+02,	1.13602E+03,	-3.91899E+03,	0.00000E+00,	0,	0
  2.54525E-01,	1.00000E+01,	-5.59218E-03,	1.86770E+02,	1.29237E+03,	-4.75775E+03,	0.00000E+00,	0,	0
  2.01613E-01,	1.00000E+01,	-5.59218E-03,	1.97640E+02,	1.46438E+03,	-5.81006E+03,	0.00000E+00,	0,	0
  1.59574E-01,	1.00000E+01,	-5.59218E-03,	2.11095E+02,	1.66641E+03,	-7.13066E+03,	0.00000E+00,	0,	0
  1.26689E-01,	1.00000E+01,	-5.59218E-03,	2.28015E+02,	1.90887E+03,	-8.75075E+03,	0.00000E+00,	0,	0
  1.00446E-01,	1.00000E+01,	-5.59218E-03,	2.48924E+02,	2.21251E+03,	-1.07919E+04,	0.00000E+00,	0,	0