Z60W Data File: Version 1.1
CorrTest for Windows: SN CS310H1805157  V5.2.1111.9  2.5H6.220118
Sweep Frequency: Control Voltage
  Date:4-28-2026   Time:16:30:01
  Begin Information:            Cell Information
      Surface Area:           1
      Density:                7.8
      Weight:                 28
  End Information:              Cell Information
  Freq (Hz)     Ampl(mV)       Bias(V)      Time(Sec)       Z'(Ohm.cm^2)    Z''(Ohm.cm^2)        GD       Err      Range
End Comments
  3.07200E+05,	1.00000E+01,	-6.76039E-03,	2.70161E-02,	5.36554E+01,	2.77540E+01,	0.00000E+00,	0,	0
  2.76480E+05,	1.00000E+01,	-6.76039E-03,	1.63633E+00,	5.27300E+01,	2.46445E+01,	0.00000E+00,	0,	0
  1.97486E+05,	1.00000E+01,	-6.76039E-03,	2.56141E+00,	5.16274E+01,	1.76201E+01,	0.00000E+00,	0,	0
  1.53600E+05,	1.00000E+01,	-6.76039E-03,	3.46359E+00,	5.10343E+01,	1.36378E+01,	0.00000E+00,	0,	0
  1.25673E+05,	1.00000E+01,	-6.76039E-03,	4.36024E+00,	5.06799E+01,	1.10292E+01,	0.00000E+00,	0,	0
  9.87429E+04,	1.00000E+01,	-6.76039E-03,	5.29969E+00,	5.05474E+01,	8.53740E+00,	0.00000E+00,	0,	0
  7.68000E+04,	1.00000E+01,	-6.76039E-03,	6.19098E+00,	5.03851E+01,	6.39125E+00,	0.00000E+00,	0,	0
  6.01043E+04,	1.00000E+01,	-6.76039E-03,	8.29431E+00,	5.04560E+01,	4.90921E+00,	0.00000E+00,	0,	0
  4.93714E+04,	1.00000E+01,	-6.76039E-03,	9.87818E+00,	5.05392E+01,	3.91504E+00,	0.00000E+00,	0,	0
  3.84000E+04,	1.00000E+01,	-6.76039E-03,	1.07968E+01,	5.06163E+01,	2.84288E+00,	0.00000E+00,	0,	0
  3.00522E+04,	1.00000E+01,	-6.76039E-03,	1.16594E+01,	5.06462E+01,	2.01495E+00,	0.00000E+00,	0,	0
  2.38345E+04,	1.00000E+01,	-6.76039E-03,	1.25248E+01,	5.07863E+01,	1.21639E+00,	0.00000E+00,	0,	0
  1.86811E+04,	1.00000E+01,	-6.76039E-03,	1.33916E+01,	5.07710E+01,	5.05764E-01,	0.00000E+00,	0,	0
  1.47064E+04,	1.00000E+01,	-6.76039E-03,	1.43493E+01,	5.08556E+01,	-3.17877E-02,	0.00000E+00,	0,	0
  1.15200E+04,	1.00000E+01,	-6.76039E-03,	1.53389E+01,	5.10468E+01,	-7.56657E-01,	0.00000E+00,	0,	0
  9.60000E+03,	1.00000E+01,	-6.76039E-03,	1.69175E+01,	5.10155E+01,	-1.17710E+00,	0.00000E+00,	0,	0
  7.51304E+03,	1.00000E+01,	-6.76039E-03,	1.77868E+01,	5.11952E+01,	-1.79193E+00,	0.00000E+00,	0,	0
  5.76000E+03,	1.00000E+01,	-6.76039E-03,	1.86919E+01,	5.12885E+01,	-2.59131E+00,	0.00000E+00,	0,	0
  4.54737E+03,	1.00000E+01,	-6.76039E-03,	1.95526E+01,	5.15889E+01,	-3.34579E+00,	0.00000E+00,	0,	0
  3.60000E+03,	1.00000E+01,	-6.76039E-03,	2.05542E+01,	5.18420E+01,	-4.29660E+00,	0.00000E+00,	0,	0
  2.88000E+03,	1.00000E+01,	-6.76039E-03,	2.14575E+01,	5.20470E+01,	-5.34832E+00,	0.00000E+00,	0,	0
  2.27368E+03,	1.00000E+01,	-6.76039E-03,	2.37513E+01,	5.24457E+01,	-6.57718E+00,	0.00000E+00,	0,	0
  1.78144E+03,	1.00000E+01,	-6.76039E-03,	2.45489E+01,	5.30435E+01,	-8.15202E+00,	0.00000E+00,	0,	0
  1.41639E+03,	1.00000E+01,	-6.76039E-03,	2.54520E+01,	5.33070E+01,	-9.62690E+00,	0.00000E+00,	0,	0
  1.12208E+03,	1.00000E+01,	-6.76039E-03,	2.65455E+01,	5.41740E+01,	-1.20849E+01,	0.00000E+00,	0,	0
  9.00000E+02,	1.00000E+01,	-6.76039E-03,	3.15258E+01,	5.53355E+01,	-1.43360E+01,	0.00000E+00,	0,	0
  7.20000E+02,	1.00000E+01,	-6.76039E-03,	3.29307E+01,	5.63668E+01,	-1.71667E+01,	0.00000E+00,	0,	0
  5.68421E+02,	1.00000E+01,	-6.76039E-03,	3.43331E+01,	5.77036E+01,	-2.07247E+01,	0.00000E+00,	0,	0
  4.40816E+02,	1.00000E+01,	-6.76039E-03,	3.57747E+01,	5.94089E+01,	-2.53004E+01,	0.00000E+00,	0,	0
  3.54098E+02,	1.00000E+01,	-6.76039E-03,	3.81065E+01,	6.12115E+01,	-3.00249E+01,	0.00000E+00,	0,	0
  2.76923E+02,	1.00000E+01,	-6.76039E-03,	4.07382E+01,	6.35431E+01,	-3.62968E+01,	0.00000E+00,	0,	0
  2.20408E+02,	1.00000E+01,	-6.76039E-03,	4.36676E+01,	6.60839E+01,	-4.33041E+01,	0.00000E+00,	0,	0
  1.74194E+02,	1.00000E+01,	-6.76039E-03,	4.69264E+01,	6.90796E+01,	-5.19557E+01,	0.00000E+00,	0,	0
  1.37580E+02,	1.00000E+01,	-6.76039E-03,	5.06042E+01,	7.25355E+01,	-6.24676E+01,	0.00000E+00,	0,	0
  1.09091E+02,	1.00000E+01,	-6.76039E-03,	5.46749E+01,	7.64235E+01,	-7.50366E+01,	0.00000E+00,	0,	0
  8.70968E+01,	1.00000E+01,	-6.76039E-03,	6.27997E+01,	8.10775E+01,	-9.02305E+01,	0.00000E+00,	0,	0
  6.83544E+01,	1.00000E+01,	-6.76039E-03,	6.78262E+01,	8.66908E+01,	-1.10510E+02,	0.00000E+00,	0,	0
  5.45455E+01,	1.00000E+01,	-6.76039E-03,	7.32702E+01,	9.23007E+01,	-1.30621E+02,	0.00000E+00,	0,	0
  4.28571E+01,	1.00000E+01,	-6.76039E-03,	7.68130E+01,	9.96304E+01,	-1.59420E+02,	0.00000E+00,	0,	0
  3.39623E+01,	1.00000E+01,	-6.76039E-03,	8.05368E+01,	1.06760E+02,	-1.93614E+02,	0.00000E+00,	0,	0
  2.68657E+01,	1.00000E+01,	-6.76039E-03,	8.43984E+01,	1.17749E+02,	-2.36739E+02,	0.00000E+00,	0,	0
  2.13439E+01,	1.00000E+01,	-6.76039E-03,	8.82121E+01,	1.30788E+02,	-2.88165E+02,	0.00000E+00,	0,	0
  1.73077E+01,	1.00000E+01,	-6.76039E-03,	9.19094E+01,	1.45181E+02,	-3.44773E+02,	0.00000E+00,	0,	0
  1.36364E+01,	1.00000E+01,	-6.76039E-03,	9.69376E+01,	1.65687E+02,	-4.22804E+02,	0.00000E+00,	0,	0
  1.07143E+01,	1.00000E+01,	-6.76039E-03,	9.98550E+01,	1.91972E+02,	-5.19482E+02,	0.00000E+00,	0,	0
  8.49057E+00,	1.00000E+01,	-6.76039E-03,	1.04038E+02,	2.24652E+02,	-6.33642E+02,	0.00000E+00,	0,	0
  6.71642E+00,	1.00000E+01,	-6.76039E-03,	1.06572E+02,	2.66665E+02,	-7.72369E+02,	0.00000E+00,	0,	0
  5.29412E+00,	1.00000E+01,	-6.76039E-03,	1.09515E+02,	3.22094E+02,	-9.42863E+02,	0.00000E+00,	0,	0
  4.16667E+00,	1.00000E+01,	-6.76039E-03,	1.12990E+02,	3.93933E+02,	-1.14959E+03,	0.00000E+00,	0,	0
  3.30882E+00,	1.00000E+01,	-6.76039E-03,	1.19537E+02,	4.82110E+02,	-1.38619E+03,	0.00000E+00,	0,	0
  2.61628E+00,	1.00000E+01,	-6.76039E-03,	1.23547E+02,	5.97192E+02,	-1.67260E+03,	0.00000E+00,	0,	0
  2.07373E+00,	1.00000E+01,	-6.76039E-03,	1.28345E+02,	7.39965E+02,	-2.00630E+03,	0.00000E+00,	0,	0
  1.64234E+00,	1.00000E+01,	-6.76039E-03,	1.34165E+02,	9.17200E+02,	-2.39867E+03,	0.00000E+00,	0,	0
  1.30058E+00,	1.00000E+01,	-6.76039E-03,	1.38328E+02,	1.13487E+03,	-2.85275E+03,	0.00000E+00,	0,	0
  1.03211E+00,	1.00000E+01,	-6.76039E-03,	1.42779E+02,	1.39700E+03,	-3.38125E+03,	0.00000E+00,	0,	0
  8.15217E-01,	1.00000E+01,	-6.76039E-03,	1.49719E+02,	1.69868E+03,	-3.99338E+03,	0.00000E+00,	0,	0
  6.46552E-01,	1.00000E+01,	-6.76039E-03,	1.54564E+02,	2.05115E+03,	-4.70231E+03,	0.00000E+00,	0,	0
  5.11364E-01,	1.00000E+01,	-6.76039E-03,	1.59581E+02,	2.37863E+03,	-5.59216E+03,	0.00000E+00,	0,	0
  4.07609E-01,	1.00000E+01,	-6.76039E-03,	1.65652E+02,	2.81720E+03,	-6.57592E+03,	0.00000E+00,	0,	0
  3.21429E-01,	1.00000E+01,	-6.76039E-03,	1.72782E+02,	3.37276E+03,	-7.93365E+03,	0.00000E+00,	0,	0
  2.54525E-01,	1.00000E+01,	-6.76039E-03,	1.81539E+02,	3.97845E+03,	-9.37322E+03,	0.00000E+00,	0,	0
  2.01613E-01,	1.00000E+01,	-6.76039E-03,	1.92385E+02,	4.66183E+03,	-1.11368E+04,	0.00000E+00,	0,	0
  1.59574E-01,	1.00000E+01,	-6.76039E-03,	2.05900E+02,	5.45713E+03,	-1.32697E+04,	0.00000E+00,	0,	0
  1.26689E-01,	1.00000E+01,	-6.76039E-03,	2.39791E+02,	6.36915E+03,	-1.55424E+04,	0.00000E+00,	0,	0
  1.00446E-01,	1.00000E+01,	-6.76039E-03,	2.60670E+02,	7.42099E+03,	-1.92559E+04,	0.00000E+00,	0,	0