Z60W Data File: Version 1.1
CorrTest for Windows: SN CS310H1805157  V5.2.1111.9  2.5H6.220118
Sweep Frequency: Control Voltage
  Date:4-28-2026   Time:15:07:17
  Begin Information:            Cell Information
      Surface Area:           1
      Density:                7.8
      Weight:                 28
  End Information:              Cell Information
  Freq (Hz)     Ampl(mV)       Bias(V)      Time(Sec)       Z'(Ohm.cm^2)    Z''(Ohm.cm^2)        GD       Err      Range
End Comments
  3.07200E+05,	1.00000E+01,	-2.45110E-03,	2.50342E-02,	8.38230E+00,	8.14574E+00,	0.00000E+00,	0,	0
  2.76480E+05,	1.00000E+01,	-2.45110E-03,	1.66659E+00,	8.72950E+00,	6.95633E+00,	0.00000E+00,	0,	0
  1.97486E+05,	1.00000E+01,	-2.45110E-03,	2.56706E+00,	9.17175E+00,	4.92280E+00,	0.00000E+00,	0,	0
  1.53600E+05,	1.00000E+01,	-2.45110E-03,	3.45666E+00,	9.33015E+00,	3.78142E+00,	0.00000E+00,	0,	0
  1.25673E+05,	1.00000E+01,	-2.45110E-03,	4.40135E+00,	9.43400E+00,	3.05888E+00,	0.00000E+00,	0,	0
  9.87429E+04,	1.00000E+01,	-2.45110E-03,	5.30682E+00,	9.52686E+00,	2.31366E+00,	0.00000E+00,	0,	0
  7.68000E+04,	1.00000E+01,	-2.45110E-03,	6.24262E+00,	9.59281E+00,	1.72365E+00,	0.00000E+00,	0,	0
  6.01043E+04,	1.00000E+01,	-2.45110E-03,	8.34771E+00,	9.61971E+00,	1.19992E+00,	0.00000E+00,	0,	0
  4.93714E+04,	1.00000E+01,	-2.45110E-03,	9.93696E+00,	9.65781E+00,	8.91530E-01,	0.00000E+00,	0,	0
  3.84000E+04,	1.00000E+01,	-2.45110E-03,	1.08331E+01,	9.69543E+00,	5.28473E-01,	0.00000E+00,	0,	0
  3.00522E+04,	1.00000E+01,	-2.45110E-03,	1.17355E+01,	9.70859E+00,	2.30626E-01,	0.00000E+00,	0,	0
  2.38345E+04,	1.00000E+01,	-2.45110E-03,	1.26267E+01,	9.73976E+00,	-3.25373E-02,	0.00000E+00,	0,	0
  1.86811E+04,	1.00000E+01,	-2.45110E-03,	1.34976E+01,	9.77557E+00,	-3.00100E-01,	0.00000E+00,	0,	0
  1.47064E+04,	1.00000E+01,	-2.45110E-03,	1.44659E+01,	9.81906E+00,	-5.76563E-01,	0.00000E+00,	0,	0
  1.15200E+04,	1.00000E+01,	-2.45110E-03,	1.54713E+01,	9.88296E+00,	-8.73931E-01,	0.00000E+00,	0,	0
  9.60000E+03,	1.00000E+01,	-2.45110E-03,	1.70342E+01,	9.95803E+00,	-1.11459E+00,	0.00000E+00,	0,	0
  7.51304E+03,	1.00000E+01,	-2.45110E-03,	1.79461E+01,	1.00557E+01,	-1.47531E+00,	0.00000E+00,	0,	0
  5.76000E+03,	1.00000E+01,	-2.45110E-03,	1.88433E+01,	1.01839E+01,	-1.92113E+00,	0.00000E+00,	0,	0
  4.54737E+03,	1.00000E+01,	-2.45110E-03,	1.97413E+01,	1.03373E+01,	-2.36811E+00,	0.00000E+00,	0,	0
  3.60000E+03,	1.00000E+01,	-2.45110E-03,	2.07487E+01,	1.05129E+01,	-2.91885E+00,	0.00000E+00,	0,	0
  2.88000E+03,	1.00000E+01,	-2.45110E-03,	2.16848E+01,	1.07308E+01,	-3.52016E+00,	0.00000E+00,	0,	0
  2.27368E+03,	1.00000E+01,	-2.45110E-03,	2.39955E+01,	1.10006E+01,	-4.28476E+00,	0.00000E+00,	0,	0
  1.78144E+03,	1.00000E+01,	-2.45110E-03,	2.47826E+01,	1.13379E+01,	-5.19385E+00,	0.00000E+00,	0,	0
  1.41639E+03,	1.00000E+01,	-2.45110E-03,	2.57014E+01,	1.16943E+01,	-6.22779E+00,	0.00000E+00,	0,	0
  1.12208E+03,	1.00000E+01,	-2.45110E-03,	2.67657E+01,	1.20999E+01,	-7.45620E+00,	0.00000E+00,	0,	0
  9.00000E+02,	1.00000E+01,	-2.45110E-03,	3.17987E+01,	1.25978E+01,	-8.92401E+00,	0.00000E+00,	0,	0
  7.20000E+02,	1.00000E+01,	-2.45110E-03,	3.31752E+01,	1.31229E+01,	-1.06452E+01,	0.00000E+00,	0,	0
  5.68421E+02,	1.00000E+01,	-2.45110E-03,	3.45585E+01,	1.37594E+01,	-1.28543E+01,	0.00000E+00,	0,	0
  4.40816E+02,	1.00000E+01,	-2.45110E-03,	3.60300E+01,	1.45544E+01,	-1.57835E+01,	0.00000E+00,	0,	0
  3.54098E+02,	1.00000E+01,	-2.45110E-03,	3.83754E+01,	1.53524E+01,	-1.88946E+01,	0.00000E+00,	0,	0
  2.76923E+02,	1.00000E+01,	-2.45110E-03,	4.10096E+01,	1.64071E+01,	-2.31607E+01,	0.00000E+00,	0,	0
  2.20408E+02,	1.00000E+01,	-2.45110E-03,	4.39190E+01,	1.75748E+01,	-2.80593E+01,	0.00000E+00,	0,	0
  1.74194E+02,	1.00000E+01,	-2.45110E-03,	4.71832E+01,	1.90279E+01,	-3.42504E+01,	0.00000E+00,	0,	0
  1.37580E+02,	1.00000E+01,	-2.45110E-03,	5.08766E+01,	2.08284E+01,	-4.19044E+01,	0.00000E+00,	0,	0
  1.09091E+02,	1.00000E+01,	-2.45110E-03,	5.49478E+01,	2.30310E+01,	-5.11780E+01,	0.00000E+00,	0,	0
  8.70968E+01,	1.00000E+01,	-2.45110E-03,	6.06700E+01,	2.56978E+01,	-6.22513E+01,	0.00000E+00,	0,	0
  6.83544E+01,	1.00000E+01,	-2.45110E-03,	6.57222E+01,	2.94052E+01,	-7.71970E+01,	0.00000E+00,	0,	0
  5.45455E+01,	1.00000E+01,	-2.45110E-03,	7.12264E+01,	3.40326E+01,	-9.22878E+01,	0.00000E+00,	0,	0
  4.28571E+01,	1.00000E+01,	-2.45110E-03,	7.47878E+01,	4.01729E+01,	-1.13278E+02,	0.00000E+00,	0,	0
  3.39623E+01,	1.00000E+01,	-2.45110E-03,	7.85151E+01,	4.69452E+01,	-1.37686E+02,	0.00000E+00,	0,	0
  2.68657E+01,	1.00000E+01,	-2.45110E-03,	8.23768E+01,	5.71907E+01,	-1.67954E+02,	0.00000E+00,	0,	0
  2.13439E+01,	1.00000E+01,	-2.45110E-03,	8.62446E+01,	6.99768E+01,	-2.03177E+02,	0.00000E+00,	0,	0
  1.73077E+01,	1.00000E+01,	-2.45110E-03,	9.29986E+01,	8.47514E+01,	-2.41262E+02,	0.00000E+00,	0,	0
  1.36364E+01,	1.00000E+01,	-2.45110E-03,	9.80258E+01,	1.05479E+02,	-2.91477E+02,	0.00000E+00,	0,	0
  1.07143E+01,	1.00000E+01,	-2.45110E-03,	1.00946E+02,	1.31834E+02,	-3.51214E+02,	0.00000E+00,	0,	0
  8.49057E+00,	1.00000E+01,	-2.45110E-03,	1.05148E+02,	1.63198E+02,	-4.18777E+02,	0.00000E+00,	0,	0
  6.71642E+00,	1.00000E+01,	-2.45110E-03,	1.07668E+02,	2.01337E+02,	-4.97607E+02,	0.00000E+00,	0,	0
  5.29412E+00,	1.00000E+01,	-2.45110E-03,	1.10636E+02,	2.47271E+02,	-5.90303E+02,	0.00000E+00,	0,	0
  4.16667E+00,	1.00000E+01,	-2.45110E-03,	1.14107E+02,	3.00935E+02,	-6.99489E+02,	0.00000E+00,	0,	0
  3.30882E+00,	1.00000E+01,	-2.45110E-03,	1.18414E+02,	3.60042E+02,	-8.22784E+02,	0.00000E+00,	0,	0
  2.61628E+00,	1.00000E+01,	-2.45110E-03,	1.22427E+02,	4.28135E+02,	-9.70485E+02,	0.00000E+00,	0,	0
  2.07373E+00,	1.00000E+01,	-2.45110E-03,	1.27185E+02,	5.04222E+02,	-1.14528E+03,	0.00000E+00,	0,	0
  1.64234E+00,	1.00000E+01,	-2.45110E-03,	1.32969E+02,	5.90128E+02,	-1.35580E+03,	0.00000E+00,	0,	0
  1.30058E+00,	1.00000E+01,	-2.45110E-03,	1.37137E+02,	6.89087E+02,	-1.60841E+03,	0.00000E+00,	0,	0
  1.03211E+00,	1.00000E+01,	-2.45110E-03,	1.41542E+02,	8.03569E+02,	-1.91369E+03,	0.00000E+00,	0,	0
  8.15217E-01,	1.00000E+01,	-2.45110E-03,	1.48470E+02,	9.33883E+02,	-2.28380E+03,	0.00000E+00,	0,	0
  6.46552E-01,	1.00000E+01,	-2.45110E-03,	1.57583E+02,	1.08518E+03,	-2.73001E+03,	0.00000E+00,	0,	0
  5.11364E-01,	1.00000E+01,	-2.45110E-03,	1.62584E+02,	1.22643E+03,	-3.28371E+03,	0.00000E+00,	0,	0
  4.07609E-01,	1.00000E+01,	-2.45110E-03,	1.68642E+02,	1.42681E+03,	-3.91683E+03,	0.00000E+00,	0,	0
  3.21429E-01,	1.00000E+01,	-2.45110E-03,	1.75769E+02,	1.67003E+03,	-4.79029E+03,	0.00000E+00,	0,	0
  2.54525E-01,	1.00000E+01,	-2.45110E-03,	1.84588E+02,	1.93597E+03,	-5.74087E+03,	0.00000E+00,	0,	0
  2.01613E-01,	1.00000E+01,	-2.45110E-03,	1.95463E+02,	2.21474E+03,	-6.91857E+03,	0.00000E+00,	0,	0
  1.59574E-01,	1.00000E+01,	-2.45110E-03,	2.08923E+02,	2.51747E+03,	-8.36893E+03,	0.00000E+00,	0,	0
  1.26689E-01,	1.00000E+01,	-2.45110E-03,	2.25826E+02,	2.83945E+03,	-1.01391E+04,	0.00000E+00,	0,	0
  1.00446E-01,	1.00000E+01,	-2.45110E-03,	2.46729E+02,	3.19249E+03,	-1.23824E+04,	0.00000E+00,	0,	0