Z60W Data File: Version 1.1
CorrTest for Windows: SN CS310H1805157  V5.2.1111.9  2.5H6.220118
Sweep Frequency: Control Voltage
  Date:4-27-2026   Time:19:52:06
  Begin Information:            Cell Information
      Surface Area:           1
      Density:                7.8
      Weight:                 28
  End Information:              Cell Information
  Freq (Hz)     Ampl(mV)       Bias(V)      Time(Sec)       Z'(Ohm.cm^2)    Z''(Ohm.cm^2)        GD       Err      Range
End Comments
  3.07200E+05,	1.00000E+01,	-5.92762E-04,	5.18839E-02,	3.24913E+00,	5.18564E+00,	0.00000E+00,	0,	0
  2.76480E+05,	1.00000E+01,	-5.92762E-04,	1.65067E+00,	3.77424E+00,	4.27916E+00,	0.00000E+00,	0,	0
  2.30400E+05,	1.00000E+01,	-5.92762E-04,	2.56515E+00,	4.17117E+00,	3.53725E+00,	0.00000E+00,	0,	0
  1.72800E+05,	1.00000E+01,	-5.92762E-04,	3.46900E+00,	4.54527E+00,	2.52927E+00,	0.00000E+00,	0,	0
  1.53600E+05,	1.00000E+01,	-5.92762E-04,	4.36690E+00,	4.64966E+00,	2.18617E+00,	0.00000E+00,	0,	0
  1.15200E+05,	1.00000E+01,	-5.92762E-04,	5.27152E+00,	4.84358E+00,	1.45785E+00,	0.00000E+00,	0,	0
  9.87429E+04,	1.00000E+01,	-5.92762E-04,	6.18025E+00,	4.93861E+00,	1.13143E+00,	0.00000E+00,	0,	0
  8.13176E+04,	1.00000E+01,	-5.92762E-04,	7.11773E+00,	5.02025E+00,	7.70822E-01,	0.00000E+00,	0,	0
  6.58286E+04,	1.00000E+01,	-5.92762E-04,	8.03027E+00,	5.10458E+00,	4.18941E-01,	0.00000E+00,	0,	0
  5.31692E+04,	1.00000E+01,	-5.92762E-04,	1.01383E+01,	5.16697E+00,	5.41613E-02,	0.00000E+00,	0,	0
  4.60800E+04,	1.00000E+01,	-5.92762E-04,	1.16926E+01,	5.22059E+00,	-1.52179E-01,	0.00000E+00,	0,	0
  3.63789E+04,	1.00000E+01,	-5.92762E-04,	1.26390E+01,	5.29443E+00,	-4.84594E-01,	0.00000E+00,	0,	0
  3.00522E+04,	1.00000E+01,	-5.92762E-04,	1.34891E+01,	5.36952E+00,	-7.56560E-01,	0.00000E+00,	0,	0
  2.46857E+04,	1.00000E+01,	-5.92762E-04,	1.43490E+01,	5.45347E+00,	-1.05129E+00,	0.00000E+00,	0,	0
  2.03294E+04,	1.00000E+01,	-5.92762E-04,	1.52852E+01,	5.55151E+00,	-1.35416E+00,	0.00000E+00,	0,	0
  1.64571E+04,	1.00000E+01,	-5.92762E-04,	1.61724E+01,	5.67318E+00,	-1.71592E+00,	0.00000E+00,	0,	0
  1.35529E+04,	1.00000E+01,	-5.92762E-04,	1.69664E+01,	5.80761E+00,	-2.08138E+00,	0.00000E+00,	0,	0
  1.11484E+04,	1.00000E+01,	-5.92762E-04,	1.78754E+01,	5.96139E+00,	-2.48884E+00,	0.00000E+00,	0,	0
  9.60000E+03,	1.00000E+01,	-5.92762E-04,	1.95418E+01,	6.10378E+00,	-2.83458E+00,	0.00000E+00,	0,	0
  7.85455E+03,	1.00000E+01,	-5.92762E-04,	2.04906E+01,	6.30532E+00,	-3.35254E+00,	0.00000E+00,	0,	0
  6.40000E+03,	1.00000E+01,	-5.92762E-04,	2.14448E+01,	6.56147E+00,	-3.95385E+00,	0.00000E+00,	0,	0
  5.23636E+03,	1.00000E+01,	-5.92762E-04,	2.23888E+01,	6.83403E+00,	-4.63103E+00,	0.00000E+00,	0,	0
  4.32000E+03,	1.00000E+01,	-5.92762E-04,	2.32934E+01,	7.14976E+00,	-5.37781E+00,	0.00000E+00,	0,	0
  3.52653E+03,	1.00000E+01,	-5.92762E-04,	2.43150E+01,	7.51938E+00,	-6.27874E+00,	0.00000E+00,	0,	0
  2.88000E+03,	1.00000E+01,	-5.92762E-04,	2.52086E+01,	7.94471E+00,	-7.32060E+00,	0.00000E+00,	0,	0
  2.36712E+03,	1.00000E+01,	-5.92762E-04,	2.62096E+01,	8.42330E+00,	-8.50634E+00,	0.00000E+00,	0,	0
  1.96364E+03,	1.00000E+01,	-5.92762E-04,	2.69441E+01,	8.94151E+00,	-9.80987E+00,	0.00000E+00,	0,	0
  1.61495E+03,	1.00000E+01,	-5.92762E-04,	2.89523E+01,	9.58424E+00,	-1.14039E+01,	0.00000E+00,	0,	0
  1.32923E+03,	1.00000E+01,	-5.92762E-04,	2.98739E+01,	1.02911E+01,	-1.32160E+01,	0.00000E+00,	0,	0
  1.09367E+03,	1.00000E+01,	-5.92762E-04,	3.09199E+01,	1.11046E+01,	-1.53346E+01,	0.00000E+00,	0,	0
  9.00000E+02,	1.00000E+01,	-5.92762E-04,	3.58971E+01,	1.21038E+01,	-1.78854E+01,	0.00000E+00,	0,	0
  7.44828E+02,	1.00000E+01,	-5.92762E-04,	3.72567E+01,	1.31616E+01,	-2.06893E+01,	0.00000E+00,	0,	0
  6.17143E+02,	1.00000E+01,	-5.92762E-04,	3.86143E+01,	1.43796E+01,	-2.39251E+01,	0.00000E+00,	0,	0
  5.14286E+02,	1.00000E+01,	-5.92762E-04,	3.99846E+01,	1.57480E+01,	-2.75501E+01,	0.00000E+00,	0,	0
  4.15385E+02,	1.00000E+01,	-5.92762E-04,	4.13517E+01,	1.76193E+01,	-3.25052E+01,	0.00000E+00,	0,	0
  3.42857E+02,	1.00000E+01,	-5.92762E-04,	4.37479E+01,	1.96040E+01,	-3.77197E+01,	0.00000E+00,	0,	0
  2.84211E+02,	1.00000E+01,	-5.92762E-04,	4.64275E+01,	2.18648E+01,	-4.36268E+01,	0.00000E+00,	0,	0
  2.32258E+02,	1.00000E+01,	-5.92762E-04,	4.92766E+01,	2.47065E+01,	-5.10248E+01,	0.00000E+00,	0,	0
  1.91150E+02,	1.00000E+01,	-5.92762E-04,	5.23968E+01,	2.79098E+01,	-5.93249E+01,	0.00000E+00,	0,	0
  1.57664E+02,	1.00000E+01,	-5.92762E-04,	5.58130E+01,	3.15744E+01,	-6.88360E+01,	0.00000E+00,	0,	0
  1.30120E+02,	1.00000E+01,	-5.92762E-04,	5.95406E+01,	3.58158E+01,	-7.98518E+01,	0.00000E+00,	0,	0
  1.06931E+02,	1.00000E+01,	-5.92762E-04,	6.36289E+01,	4.08088E+01,	-9.29662E+01,	0.00000E+00,	0,	0
  8.85246E+01,	1.00000E+01,	-5.92762E-04,	6.92365E+01,	4.63592E+01,	-1.07766E+02,	0.00000E+00,	0,	0
  7.29730E+01,	1.00000E+01,	-5.92762E-04,	7.40750E+01,	5.29409E+01,	-1.25609E+02,	0.00000E+00,	0,	0
  6.00000E+01,	1.00000E+01,	-5.92762E-04,	7.93239E+01,	6.09405E+01,	-1.44236E+02,	0.00000E+00,	0,	0
  4.95413E+01,	1.00000E+01,	-5.92762E-04,	8.79192E+01,	6.98938E+01,	-1.67570E+02,	0.00000E+00,	0,	0
  4.06015E+01,	1.00000E+01,	-5.92762E-04,	9.15319E+01,	8.02897E+01,	-1.95271E+02,	0.00000E+00,	0,	0
  3.35404E+01,	1.00000E+01,	-5.92762E-04,	9.53129E+01,	9.03026E+01,	-2.25851E+02,	0.00000E+00,	0,	0
  2.75510E+01,	1.00000E+01,	-5.92762E-04,	9.91550E+01,	1.04310E+02,	-2.63563E+02,	0.00000E+00,	0,	0
  2.26891E+01,	1.00000E+01,	-5.92762E-04,	1.02116E+02,	1.19743E+02,	-3.06268E+02,	0.00000E+00,	0,	0
  1.87500E+01,	1.00000E+01,	-5.92762E-04,	1.05816E+02,	1.36972E+02,	-3.55103E+02,	0.00000E+00,	0,	0
  1.55172E+01,	1.00000E+01,	-5.92762E-04,	1.11359E+02,	1.56168E+02,	-4.11628E+02,	0.00000E+00,	0,	0
  1.28571E+01,	1.00000E+01,	-5.92762E-04,	1.15988E+02,	1.77771E+02,	-4.76844E+02,	0.00000E+00,	0,	0
  1.04651E+01,	1.00000E+01,	-5.92762E-04,	1.18710E+02,	2.03858E+02,	-5.60354E+02,	0.00000E+00,	0,	0
  8.65385E+00,	1.00000E+01,	-5.92762E-04,	1.22954E+02,	2.31479E+02,	-6.51498E+02,	0.00000E+00,	0,	0
  7.14286E+00,	1.00000E+01,	-5.92762E-04,	1.25357E+02,	2.62593E+02,	-7.59369E+02,	0.00000E+00,	0,	0
  5.84416E+00,	1.00000E+01,	-5.92762E-04,	1.28097E+02,	2.99104E+02,	-8.91936E+02,	0.00000E+00,	0,	0
  4.83871E+00,	1.00000E+01,	-5.92762E-04,	1.31228E+02,	3.38022E+02,	-1.04003E+03,	0.00000E+00,	0,	0
  3.98230E+00,	1.00000E+01,	-5.92762E-04,	1.34831E+02,	3.83780E+02,	-1.22055E+03,	0.00000E+00,	0,	0
  3.28467E+00,	1.00000E+01,	-5.92762E-04,	1.39019E+02,	4.35208E+02,	-1.43176E+03,	0.00000E+00,	0,	0
  2.69461E+00,	1.00000E+01,	-5.92762E-04,	1.42916E+02,	4.95189E+02,	-1.68833E+03,	0.00000E+00,	0,	0
  2.22772E+00,	1.00000E+01,	-5.92762E-04,	1.47411E+02,	5.60592E+02,	-1.98109E+03,	0.00000E+00,	0,	0
  1.82927E+00,	1.00000E+01,	-5.92762E-04,	1.52718E+02,	6.38337E+02,	-2.34085E+03,	0.00000E+00,	0,	0
  1.51007E+00,	1.00000E+01,	-5.92762E-04,	1.59657E+02,	7.23107E+02,	-2.75533E+03,	0.00000E+00,	0,	0
  1.24309E+00,	1.00000E+01,	-5.92762E-04,	1.63980E+02,	8.22397E+02,	-3.25472E+03,	0.00000E+00,	0,	0
  1.02273E+00,	1.00000E+01,	-5.92762E-04,	1.68406E+02,	9.36182E+02,	-3.85420E+03,	0.00000E+00,	0,	0
  8.45865E-01,	1.00000E+01,	-5.92762E-04,	1.75269E+02,	1.06249E+03,	-4.54445E+03,	0.00000E+00,	0,	0
  6.94444E-01,	1.00000E+01,	-5.92762E-04,	1.79636E+02,	1.21196E+03,	-5.39858E+03,	0.00000E+00,	0,	0
  5.73980E-01,	1.00000E+01,	-5.92762E-04,	1.84207E+02,	1.33879E+03,	-6.39124E+03,	0.00000E+00,	0,	0
  4.72689E-01,	1.00000E+01,	-5.92762E-04,	1.89560E+02,	1.53074E+03,	-7.59560E+03,	0.00000E+00,	0,	0
  3.90625E-01,	1.00000E+01,	-5.92762E-04,	1.95578E+02,	1.73743E+03,	-9.07524E+03,	0.00000E+00,	0,	0
  3.21429E-01,	1.00000E+01,	-5.92762E-04,	2.02706E+02,	2.00397E+03,	-1.08046E+04,	0.00000E+00,	0,	0
  2.64085E-01,	1.00000E+01,	-5.92762E-04,	2.20141E+02,	2.36404E+03,	-1.27766E+04,	0.00000E+00,	0,	0
  2.18023E-01,	1.00000E+01,	-5.92762E-04,	2.30235E+02,	2.66779E+03,	-1.53760E+04,	0.00000E+00,	0,	0
  1.79426E-01,	1.00000E+01,	-5.92762E-04,	2.42308E+02,	3.09832E+03,	-1.82779E+04,	0.00000E+00,	0,	0
  1.47638E-01,	1.00000E+01,	-5.92762E-04,	2.56810E+02,	3.61018E+03,	-2.18274E+04,	0.00000E+00,	0,	0
  1.21753E-01,	1.00000E+01,	-5.92762E-04,	2.74172E+02,	4.21580E+03,	-2.60198E+04,	0.00000E+00,	0,	0
  1.00446E-01,	1.00000E+01,	-5.92762E-04,	2.95026E+02,	4.94280E+03,	-3.10194E+04,	0.00000E+00,	0,	0