EXPLAIN
TAG	EISPOT
TITLE	LABEL	Potentiostatic EIS	Test Identifier
DATE	LABEL	2/28/2021	Date
TIME	LABEL	23:00:42	Time
NOTES	NOTES	1	Notes...
	
PSTAT	PSTAT	REF3000-16137	Potentiostat
VDC	POTEN	0.00000E+000	T	DC Voltage (V)
FREQINIT	QUANT	3.00000E+005	Initial Freq. (Hz)
FREQFINAL	QUANT	1.00000E+000	Final Freq. (Hz)
PTSPERDEC	QUANT	1.00000E+001	Points/decade
VAC	QUANT	5.00000E+001	AC Voltage (mV rms)
AREA	QUANT	1.00000E+000	Sample Area (cm^2)
SPEED	SELECTOR	2	Optimize for:
ZGUESS	QUANT	1.00000E+003	Estimated Z (ohms)
EOC	QUANT	0	Open Circuit (V)
SEQUENCER	TOGGLE	TRUE	Run as Sequence
PSTATMODEL	IQUANT	5	Pstat Model
PSTATSECTION	LABEL	REF3000-16137	Pstat Section
PSTATSERIALNO	LABEL	16137	Pstat Serial Number
CTRLMODE	IQUANT	1	Control Mode
IESTAB	IQUANT	0	I/E Stability
CASPEED	IQUANT	1	Control Amp Speed
CONVENTION	IQUANT	1	Current Convention
ICHRANGE	IQUANT	2	Ich Range
ICHRANGEMODE	TOGGLE	F	Ich Auto Range
ICHOFFSETENABLE	TOGGLE	T	Ich Offset Enable
ICHOFFSET	QUANT	0	Ich Offset (V)
ICHFILTER	IQUANT	3	Ich Filter
VCHRANGE	IQUANT	2	Vch Range
VCHRANGEMODE	TOGGLE	F	Vch Auto Range
VCHOFFSETENABLE	TOGGLE	T	Vch Offset Enable
VCHOFFSET	QUANT	0	Vch Offset (V)
VCHFILTER	IQUANT	3	Vch Filter
ACHRANGE	IQUANT	2	Ach Range
ACHOFFSETENABLE	TOGGLE	F	Ach Offset Enable
ACHOFFSET	QUANT	0	Ach Offset (V)
ACHFILTER	IQUANT	3	Ach Filter
IERANGELOWERLIMIT	IQUANT	2	I/E Range Lower Limit
IERANGEMODE	TOGGLE	F	I/E AutoRange
IERANGE	IQUANT	11	I/E Range
POSFEEDENABLE	TOGGLE	F	Positive Feedback IR Comp
POSFEEDRESISTANCE	QUANT	0	Positive Feedback Resistance (ohm)
ACHSELECT	IQUANT	0	Ach Select
CABLEID	IQUANT	13	Cable ID
DCCALDATE	LABEL	7/31/2020	DC Calibration Date
ACCALDATE	LABEL	7/31/2020	AC Calibration Date
THERMOSELECT	IQUANT	1	Thermo Select
FRAMEWORKVERSION	QUANT	6.33	Framework Version
INSTRUMENTVERSION	LABEL	3.50	Instrument Version
COMPLIANCEVOLTAGE	IQUANT	0	Compliance Voltage
ZCURVE	TABLE
	Pt	Time	Freq	Zreal	Zimag	Zsig	Zmod	Zphz	Idc	Vdc	IERange
	#	s	Hz	ohm	ohm	V	ohm	°	A	V	#
	0	15	300046.9	525.3204	-3821.241	1	3857.181	-82.1724	-2.000303E-006	0.0015139	9
	1	29	238359.4	807.8088	-4676.732	1	4745.986	-80.20004	7.924527E-005	-0.0016751	9
	2	44	189328.1	825.5264	-5924.217	1	5981.458	-82.06705	-1.845407E-005	0.0012681	9
	3	55	150421.9	1785.585	-6725.589	1	6958.582	-75.13148	-2.022976E-005	0.0016496	9
	4	62	119484.4	2265.909	-8546.563	1	8841.837	-75.15107	-8.355073E-005	0.0221772	8
	5	70	94921.88	3140.413	-10309.69	1	10777.38	-73.05885	-1.126639E-005	0.0100179	8
	6	78	75421.88	3857.149	-12749.17	1	13319.87	-73.16727	2.330557E-005	-0.0028764	8
	7	87	59859.37	5272.291	-15224.1	1	16111.19	-70.89841	-1.13232E-005	0.0100327	8
	8	95	47578.12	9509.73	-18339.79	1	20658.72	-62.59189	4.785119E-006	-0.0009723	7
	9	102	37828.12	12275.48	-21489.16	1	24748.16	-60.26325	-6.911859E-006	0.0226903	7
	10	108	30046.88	15406.21	-25041.19	1	29400.89	-58.39872	4.779958E-006	-0.000902	7
	11	115	23859.38	17348.16	-29164.77	1	33934.39	-59.25443	-1.132343E-005	0.0101053	8
	12	122	18984.38	24714.6	-32664.44	1	40960.68	-52.88808	3.331146E-006	-0.0232219	7
	13	127	15046.87	29984.04	-36679.63	1	47375.5	-50.73546	1.594967E-005	-0.0090599	8
	14	134	11953.13	38520.71	-38884.38	1	54734.27	-45.26918	7.301943E-006	-0.0178787	7
	15	139	9515.62	46516.63	-40510.02	1	61683.53	-41.05169	-6.938014E-006	0.0227868	7
	16	144	7546.875	55103.57	-43084.1	1	69947.43	-38.02096	4.197227E-007	0.0153713	7
	17	149	5928.309	62693.71	-44907.05	1	77117.73	-35.61375	1.19945E-006	-0.0187833	7
	18	155	4733.456	71555.23	-38695.85	1	81348.14	-28.40377	-6.927106E-006	0.0227113	7
	19	161	3796.875	80208.61	-39491.61	1	89403.63	-26.21385	-6.92922E-006	0.0227352	7
	20	168	2987.132	86834.95	-36733.37	1	94284.93	-22.92959	-1.044512E-006	-0.0124481	7
	21	173	2390.625	98168.5	-27370.36	1	101912.7	-15.579	-5.684671E-008	-0.0136724	6
	22	177	1884.191	103555	-26590.25	1	106914.3	-14.40096	3.86172E-007	-0.0241563	6
	23	182	1516.544	108035.5	-24798.47	1	110845.1	-12.92773	-7.043935E-007	0.016969	6
	24	186	1193.986	111135.7	-24322.86	1	113766.2	-12.34496	-4.667629E-007	0.0014476	6
	25	190	946.5144	115521.6	-23496.72	1	117887	-11.49694	2.087498E-007	0.0098741	6
	26	193	751.7689	120618	-19699.51	1	122216.1	-9.275736	6.910273E-007	-0.0256782	6
	27	196	597.4265	124482.6	-19586.62	1	126014.1	-8.94185	-5.36607E-007	0.0254376	6
	28	198	477.4305	127470.7	-19857.4	1	129008.1	-8.854381	-7.936751E-009	0.000636	6
	29	200	376.6741	131244.1	-19000.78	1	132612.4	-8.237725	-7.594473E-009	0.000636	6
	30	203	298.2954	134701.2	-18274.36	1	135935.1	-7.725919	-7.750648E-009	0.0007352	6
	31	205	237.7717	138630.5	-17342.98	1	139711.1	-7.130779	-8.688381E-009	0.0007246	6
	32	208	189.0121	142076.3	-16488.71	1	143029.9	-6.619865	-7.090045E-009	0.000676	6
	33	210	150.2404	145635.1	-15585.55	1	146466.7	-6.108422	-7.969367E-009	0.0007223	6
	34	213	119.1737	149448	-14533.5	1	150153	-5.554428	-7.27677E-009	0.000722	6
	35	215	95.0169	152441.8	-14107.5	1	153093.2	-5.287296	-7.472798E-009	0.0006379	6
	36	218	75.60484	155721.2	-13255.07	1	156284.3	-4.865319	-7.115955E-009	0.0006641	6
	37	220	54.50582	158420.6	-11915.06	1	158868	-4.301208	-7.310349E-009	0.0006744	6
	38	223	45.95588	161832.6	-12000	1	162276.9	-4.240762	-8.619352E-009	0.0006453	6
	39	225	37.20238	164398.5	-11704.49	1	164814.7	-4.072347	-6.083807E-009	0.000643	6
	40	227	30.04808	167102.2	-11382.14	1	167489.5	-3.896674	-8.818329E-009	0.0007352	6
	41	230	23.91582	169978.5	-10941.82	1	170330.3	-3.683149	-8.984486E-009	0.0006324	6
	42	233	18.60119	172546.3	-11988.46	1	172962.3	-3.974505	-1.03632E-008	0.0006715	6
	43	235	15.02404	175224.3	-11879.69	1	175626.6	-3.878551	-6.647852E-009	0.0006564	6
	44	237	12.01923	177925.5	-12370.98	1	178355.1	-3.977316	-5.095946E-009	0.0007376	6
	45	240	9.450605	180977.5	-13359.41	1	181470	-4.221806	-9.450897E-009	0.0007368	6
	46	242	7.512019	183990.7	-14712.24	1	184578	-4.571749	-1.062569E-008	0.0007206	6
	47	245	5.978954	188073.2	-16338.45	1	188781.5	-4.964983	-8.783025E-009	0.000702	6
	48	250	4.734848	192137.1	-18444.62	1	193020.4	-5.48343	-1.000475E-008	0.0006542	6
	49	253	3.75601	197270.6	-20936.57	1	198378.5	-6.058194	-5.260056E-009	0.0006508	6
	50	258	3.004808	203838.1	-23995.51	1	205245.6	-6.713873	-3.748801E-009	0.0006186	6
	51	265	2.372217	210304.5	-27508.83	1	212096.1	-7.45225	-6.613834E-009	0.000611	6
	52	269	1.878005	216815.4	-32140.03	1	219184.6	-8.43194	-2.843611E-009	0.0006904	6
	53	274	1.512097	224122.2	-36811.51	1	227125.2	-9.327408	-2.610039E-009	0.000665	6
	54	279	1.201923	232332.3	-42702.5	1	236224.1	-10.41468	-4.949215E-009	0.0007063	6
	55	285	0.956633	245290.1	-49719.82	1	250278.5	-11.45849	-1.059164E-008	4.068776E-005	6
