EXPLAIN
TAG	EISPOT
TITLE	LABEL	Potentiostatic EIS	Test Identifier
DATE	LABEL	2/28/2021	Date
TIME	LABEL	23:05:40	Time
NOTES	NOTES	1	Notes...
	
PSTAT	PSTAT	REF3000-16137	Potentiostat
VDC	POTEN	0.00000E+000	T	DC Voltage (V)
FREQINIT	QUANT	3.00000E+005	Initial Freq. (Hz)
FREQFINAL	QUANT	1.00000E+000	Final Freq. (Hz)
PTSPERDEC	QUANT	1.00000E+001	Points/decade
VAC	QUANT	5.00000E+001	AC Voltage (mV rms)
AREA	QUANT	1.00000E+000	Sample Area (cm^2)
SPEED	SELECTOR	2	Optimize for:
ZGUESS	QUANT	1.00000E+003	Estimated Z (ohms)
EOC	QUANT	0	Open Circuit (V)
SEQUENCER	TOGGLE	TRUE	Run as Sequence
PSTATMODEL	IQUANT	5	Pstat Model
PSTATSECTION	LABEL	REF3000-16137	Pstat Section
PSTATSERIALNO	LABEL	16137	Pstat Serial Number
CTRLMODE	IQUANT	1	Control Mode
IESTAB	IQUANT	0	I/E Stability
CASPEED	IQUANT	1	Control Amp Speed
CONVENTION	IQUANT	1	Current Convention
ICHRANGE	IQUANT	2	Ich Range
ICHRANGEMODE	TOGGLE	F	Ich Auto Range
ICHOFFSETENABLE	TOGGLE	T	Ich Offset Enable
ICHOFFSET	QUANT	0	Ich Offset (V)
ICHFILTER	IQUANT	3	Ich Filter
VCHRANGE	IQUANT	2	Vch Range
VCHRANGEMODE	TOGGLE	F	Vch Auto Range
VCHOFFSETENABLE	TOGGLE	T	Vch Offset Enable
VCHOFFSET	QUANT	0	Vch Offset (V)
VCHFILTER	IQUANT	3	Vch Filter
ACHRANGE	IQUANT	2	Ach Range
ACHOFFSETENABLE	TOGGLE	F	Ach Offset Enable
ACHOFFSET	QUANT	0	Ach Offset (V)
ACHFILTER	IQUANT	3	Ach Filter
IERANGELOWERLIMIT	IQUANT	2	I/E Range Lower Limit
IERANGEMODE	TOGGLE	F	I/E AutoRange
IERANGE	IQUANT	11	I/E Range
POSFEEDENABLE	TOGGLE	F	Positive Feedback IR Comp
POSFEEDRESISTANCE	QUANT	0	Positive Feedback Resistance (ohm)
ACHSELECT	IQUANT	0	Ach Select
CABLEID	IQUANT	13	Cable ID
DCCALDATE	LABEL	7/31/2020	DC Calibration Date
ACCALDATE	LABEL	7/31/2020	AC Calibration Date
THERMOSELECT	IQUANT	1	Thermo Select
FRAMEWORKVERSION	QUANT	6.33	Framework Version
INSTRUMENTVERSION	LABEL	3.50	Instrument Version
COMPLIANCEVOLTAGE	IQUANT	0	Compliance Voltage
ZCURVE	TABLE
	Pt	Time	Freq	Zreal	Zimag	Zsig	Zmod	Zphz	Idc	Vdc	IERange
	#	s	Hz	ohm	ohm	V	ohm	°	A	V	#
	0	14	300046.9	322.3735	-4086.765	1	4099.46	-85.48972	-1.823613E-005	0.0014314	9
	1	28	238359.4	521.537	-4996.595	1	5023.74	-84.04113	2.665155E-005	-0.0014902	9
	2	43	189328.1	804.4623	-6192.448	1	6244.483	-82.59814	8.864995E-008	-0.0019002	9
	3	50	150421.9	865.7124	-8703.398	1	8746.348	-84.31957	1.984144E-005	-0.0007911	9
	4	58	119484.4	1555.666	-9334.411	1	9463.156	-80.53809	-4.054423E-005	0.0224707	8
	5	65	94921.88	2216.255	-11606.89	1	11816.58	-79.1899	7.939702E-006	-0.0074913	8
	6	74	75421.88	2789.258	-14131.89	1	14404.52	-78.83485	-2.411226E-005	0.0109283	8
	7	82	59859.37	3349.596	-17756.31	1	18069.48	-79.31712	2.596486E-005	-0.0088766	8
	8	91	47578.12	4220.783	-21714.71	1	22121.11	-79.00033	2.626826E-005	-0.005234	8
	9	99	37828.12	8947.241	-27031.72	1	28473.97	-71.68595	-1.518294E-006	0.0210222	7
	10	106	30046.88	11289.69	-32767.43	1	34657.77	-70.98911	6.650325E-006	-0.0262188	7
	11	113	23859.38	14326.25	-40176.95	1	42654.77	-70.37485	-7.072702E-006	0.0230992	7
	12	119	18984.38	14560.46	-48016.61	1	50175.71	-73.1307	-1.120571E-005	0.0100382	8
	13	125	15046.87	24748.96	-58195.21	1	63239.18	-66.96117	-3.445248E-006	-0.0044334	7
	14	130	11953.13	30880.48	-68882.01	1	75487.32	-65.85284	-1.063334E-006	-0.0125934	7
	15	136	9515.62	41344.98	-81926.36	1	91767.84	-63.22174	5.167155E-007	0.0153879	7
	16	141	7546.875	57415.85	-91142.76	1	107719.9	-57.79091	4.804264E-006	-0.0008971	7
	17	147	5928.309	77443.91	-107885.2	1	132803.5	-54.32784	5.18815E-006	-0.0259041	7
	18	154	4733.456	86717.7	-117149	1	145752.7	-53.48989	2.78215E-006	0.0079057	7
	19	160	3796.875	126040.3	-133243.3	1	183412	-46.5913	-7.140405E-006	0.0186903	7
	20	168	2987.132	149419.1	-138275.8	1	203583.5	-42.78188	6.636662E-006	-0.0262174	7
	21	174	2390.625	190969.7	-148344.2	1	241816.9	-37.83986	6.515842E-006	-0.0260425	7
	22	181	1884.191	251548.5	-138562	1	287186.5	-28.84757	-1.091334E-006	-0.0125869	7
	23	188	1516.544	244632.2	-142367.7	1	283043.2	-30.19796	-7.271546E-007	0.0227517	6
	24	193	1193.986	269747.4	-139748.2	1	303798	-27.38735	5.944999E-007	-0.0070832	6
	25	199	946.5144	267960	-186537.8	1	326494.9	-34.84334	-1.18838E-006	-0.0122778	7
	26	204	751.7689	305336.7	-131575.3	1	332479.4	-23.31212	-7.243831E-007	0.0224753	6
	27	208	597.4265	342488	-80853.14	1	351902.3	-13.28295	-1.566732E-006	0.0209983	7
	28	212	477.4305	364621.5	-118841.8	1	383499.9	-18.05244	-7.08484E-009	0.0006887	6
	29	216	376.6741	409252.2	-77324.63	1	416493.1	-10.69941	-1.242703E-009	0.0006805	5
	30	218	298.2954	422654.6	-77066.04	1	429623.2	-10.33368	-7.910995E-010	0.0006286	5
	31	220	237.7717	434033.9	-75595.34	1	440567.9	-9.88005	-1.269051E-009	0.0007006	5
	32	223	189.0121	447829.4	-76071.38	1	454244.5	-9.64063	-1.032373E-009	0.0006231	5
	33	225	150.2404	464338.1	-75599.73	1	470452.1	-9.247292	-1.151238E-009	0.0006977	5
	34	228	119.1737	477994.4	-70608.74	1	483181.4	-8.402893	-1.220005E-009	0.0006799	5
	35	230	95.0169	495251.8	-73227.59	1	500636.2	-8.410776	-1.095342E-009	0.0006158	5
	36	233	75.60484	513444.2	-70851.95	1	518309.7	-7.856825	-1.166895E-009	0.0006806	5
	37	235	54.50582	522681.9	-63180.96	1	526486.7	-6.892383	-1.061991E-009	0.0007128	5
	38	238	45.95588	545046.1	-64949.88	1	548902.3	-6.79555	-8.12643E-010	0.0006267	5
	39	240	37.20238	555838.1	-60594.6	1	559131.3	-6.221521	-1.200379E-009	0.0006197	5
	40	243	30.04808	570831.9	-58665.61	1	573838.6	-5.867809	-1.050394E-009	0.0006861	5
	41	246	23.91582	585024	-56298.99	1	587726.7	-5.496855	-1.222524E-009	0.0006553	5
	42	248	18.60119	601929	-53886.43	1	604336.3	-5.115648	-1.367127E-009	0.0007226	5
	43	250	15.02404	609915.5	-49768.64	1	611942.7	-4.664957	-1.613838E-009	0.0007038	5
	44	253	12.01923	622071.1	-47990.35	1	623919.5	-4.411407	-9.640545E-010	0.0007182	5
	45	255	9.450605	633641.9	-46373.36	1	635336.6	-4.185754	-9.819173E-010	0.0006921	5
	46	258	7.512019	646531.6	-46085.7	1	648172	-4.077229	-1.488245E-009	0.0007104	5
	47	261	5.978954	661563.5	-45621.31	1	663134.6	-3.944862	-8.509887E-010	0.0006174	5
	48	265	4.734848	677091.1	-47398.39	1	678748.1	-4.004343	-1.511409E-009	0.0006484	5
	49	269	3.75601	695528.2	-49330.41	1	697275.4	-4.056916	-1.60041E-009	0.0006154	5
	50	274	3.004808	717758.3	-52366.26	1	719666.1	-4.172796	-6.033769E-010	0.0006852	5
	51	281	2.372217	740127.3	-56027.65	1	742244.9	-4.329035	-1.370334E-009	0.0006134	5
	52	285	1.878005	759593.5	-61904.26	1	762111.8	-4.659112	-6.1741E-010	0.0006778	5
	53	289	1.512097	782096.4	-69171.34	1	785149.4	-5.054287	1.433201E-010	0.0005846	5
	54	295	1.201923	808838.8	-77121.44	1	812507.2	-5.446592	-8.286286E-010	0.0006974	5
	55	301	0.956633	839967.6	-88030.77	1	844567.9	-5.982904	-2.11351E-009	2.333282E-005	5
