EXPLAIN
TAG	EISPOT
TITLE	LABEL	Potentiostatic EIS	Test Identifier
DATE	LABEL	2/28/2021	Date
TIME	LABEL	22:33:41	Time
NOTES	NOTES	1	Notes...
	
PSTAT	PSTAT	REF3000-16137	Potentiostat
VDC	POTEN	0.00000E+000	T	DC Voltage (V)
FREQINIT	QUANT	3.00000E+005	Initial Freq. (Hz)
FREQFINAL	QUANT	1.00000E+000	Final Freq. (Hz)
PTSPERDEC	QUANT	1.00000E+001	Points/decade
VAC	QUANT	5.00000E+001	AC Voltage (mV rms)
AREA	QUANT	1.00000E+000	Sample Area (cm^2)
SPEED	SELECTOR	2	Optimize for:
ZGUESS	QUANT	1.00000E+003	Estimated Z (ohms)
EOC	QUANT	0	Open Circuit (V)
SEQUENCER	TOGGLE	TRUE	Run as Sequence
PSTATMODEL	IQUANT	5	Pstat Model
PSTATSECTION	LABEL	REF3000-16137	Pstat Section
PSTATSERIALNO	LABEL	16137	Pstat Serial Number
CTRLMODE	IQUANT	1	Control Mode
IESTAB	IQUANT	0	I/E Stability
CASPEED	IQUANT	1	Control Amp Speed
CONVENTION	IQUANT	1	Current Convention
ICHRANGE	IQUANT	2	Ich Range
ICHRANGEMODE	TOGGLE	F	Ich Auto Range
ICHOFFSETENABLE	TOGGLE	T	Ich Offset Enable
ICHOFFSET	QUANT	0	Ich Offset (V)
ICHFILTER	IQUANT	3	Ich Filter
VCHRANGE	IQUANT	2	Vch Range
VCHRANGEMODE	TOGGLE	F	Vch Auto Range
VCHOFFSETENABLE	TOGGLE	T	Vch Offset Enable
VCHOFFSET	QUANT	0	Vch Offset (V)
VCHFILTER	IQUANT	3	Vch Filter
ACHRANGE	IQUANT	2	Ach Range
ACHOFFSETENABLE	TOGGLE	F	Ach Offset Enable
ACHOFFSET	QUANT	0	Ach Offset (V)
ACHFILTER	IQUANT	3	Ach Filter
IERANGELOWERLIMIT	IQUANT	2	I/E Range Lower Limit
IERANGEMODE	TOGGLE	F	I/E AutoRange
IERANGE	IQUANT	11	I/E Range
POSFEEDENABLE	TOGGLE	F	Positive Feedback IR Comp
POSFEEDRESISTANCE	QUANT	0	Positive Feedback Resistance (ohm)
ACHSELECT	IQUANT	0	Ach Select
CABLEID	IQUANT	13	Cable ID
DCCALDATE	LABEL	7/31/2020	DC Calibration Date
ACCALDATE	LABEL	7/31/2020	AC Calibration Date
THERMOSELECT	IQUANT	1	Thermo Select
FRAMEWORKVERSION	QUANT	6.33	Framework Version
INSTRUMENTVERSION	LABEL	3.50	Instrument Version
COMPLIANCEVOLTAGE	IQUANT	0	Compliance Voltage
ZCURVE	TABLE
	Pt	Time	Freq	Zreal	Zimag	Zsig	Zmod	Zphz	Idc	Vdc	IERange
	#	s	Hz	ohm	ohm	V	ohm	°	A	V	#
	0	19	300046.9	871.1996	-285.0515	1	916.6477	-18.1178	-2.928223E-006	-0.001977	9
	1	31	238359.4	920.3619	-257.504	1	955.706	-15.63085	-1.31469E-005	0.0015506	9
	2	41	189328.1	963.139	-232.2948	1	990.756	-13.55992	1.878807E-005	-0.0008765	9
	3	49	150421.9	1011.393	-217.7968	1	1034.577	-12.15269	2.365959E-005	-0.0003182	9
	4	61	119484.4	1048.876	-147.8299	1	1059.243	-8.022493	-9.63461E-006	-0.0085947	8
	5	67	94921.88	1069.941	-127.8419	1	1077.551	-6.813686	-1.951905E-005	0.0076581	8
	6	70	75421.88	1084.052	-113.1676	1	1089.943	-5.9597	2.016577E-005	-0.0044189	8
	7	73	59859.37	1100.305	-99.3911	1	1104.785	-5.161544	-9.117917E-006	-0.0006327	8
	8	77	47578.12	1115.103	-94.53013	1	1119.103	-4.845524	1.91496E-005	-0.0028638	8
	9	80	37828.12	1126.994	-78.7855	1	1129.744	-3.998909	-1.367092E-005	0.0086611	8
	10	82	30046.88	1142.328	-73.08503	1	1144.663	-3.660739	-1.931746E-005	0.0048735	8
	11	86	23859.38	1155.147	-67.62907	1	1157.125	-3.350604	1.60947E-005	-0.0070859	8
	12	90	18984.38	1170.66	-62.4805	1	1172.326	-3.055093	-1.306928E-005	0.0085813	8
	13	93	15046.87	1183.323	-57.10342	1	1184.7	-2.762769	2.084836E-005	-0.0044427	8
	14	95	11953.13	1194.376	-56.92647	1	1195.731	-2.728773	-9.041177E-006	-0.0007686	8
	15	100	9515.62	1210.823	-54.93737	1	1212.068	-2.597838	-8.747194E-006	-0.0008353	8
	16	104	7546.875	1223.5	-52.37654	1	1224.621	-2.451265	-6.861585E-006	0.0074681	8
	17	107	5928.309	1236.676	-53.11671	1	1237.816	-2.45941	-6.950607E-006	0.0074807	8
	18	110	4733.456	1253.008	-52.04724	1	1254.088	-2.378576	-9.359307E-006	-0.0006342	8
	19	114	3796.875	1266.509	-52.99565	1	1267.617	-2.39608	6.455347E-007	0.0054837	8
	20	118	2987.132	1284.042	-53.71341	1	1285.164	-2.395373	-6.972655E-006	0.0074867	8
	21	122	2390.625	1294.142	-53.1118	1	1295.231	-2.350109	-1.929449E-005	0.004916	8
	22	125	1884.191	1310.185	-65.54741	1	1311.824	-2.86407	8.604603E-006	0.0025908	8
	23	128	1516.544	1321.895	-64.34402	1	1323.46	-2.786708	-1.759439E-005	0.0086457	8
	24	132	1193.986	1338.263	-70.74424	1	1340.132	-3.025994	-9.36491E-006	-0.000687	8
	25	136	946.5144	1353.413	-69.62815	1	1355.203	-2.945061	6.500796E-007	0.0055432	8
	26	139	751.7689	1366.18	-82.47903	1	1368.668	-3.454868	-1.774693E-005	0.0087134	8
	27	141	597.4265	1376.627	-98.7933	1	1380.168	-4.104778	2.139366E-005	-0.0059698	8
	28	144	477.4305	1392.543	-109.9523	1	1396.877	-4.514587	-1.13656E-007	0.0006579	8
	29	146	376.6741	1407.482	-127.7965	1	1413.272	-5.188117	-1.139771E-007	0.000671	8
	30	148	298.2954	1423.53	-149.3209	1	1431.34	-5.98813	-6.750516E-008	0.0006506	8
	31	151	237.7717	1441.274	-174.8103	1	1451.837	-6.91555	-6.402404E-008	0.0006463	8
	32	153	189.0121	1461.334	-205.7059	1	1475.741	-8.01264	-1.098239E-007	0.0006571	8
	33	155	150.2404	1483.642	-242.8262	1	1503.382	-9.295132	-7.423433E-008	0.000647	8
	34	158	119.1737	1509.249	-287.4825	1	1536.385	-10.78454	-9.963929E-008	0.000652	8
	35	160	95.0169	1537.564	-339.5099	1	1574.602	-12.45169	-5.738962E-008	0.0006414	8
	36	163	75.60484	1570.2	-401.9073	1	1620.82	-14.35715	-9.05524E-008	0.0006508	8
	37	165	54.50582	1621.423	-512.4312	1	1700.47	-17.53852	-1.120409E-007	0.0006566	8
	38	168	45.95588	1655.114	-582.1523	1	1754.509	-19.37828	-4.789162E-008	0.0006375	8
	39	170	37.20238	1699.241	-682.7465	1	1831.274	-21.89001	-7.753197E-008	0.0006495	8
	40	173	30.04808	1749.829	-803.2524	1	1925.388	-24.65731	-7.441712E-008	0.0006389	8
	41	175	23.91582	1810.184	-956.928	1	2047.554	-27.86253	-6.855433E-008	0.0006487	8
	42	177	18.60119	1884.982	-1163.98	1	2215.402	-31.6954	-4.381444E-008	0.0006495	8
	43	180	15.02404	1961.991	-1374.491	1	2395.545	-35.01352	-1.194725E-007	0.000644	8
	44	182	12.01923	2050.393	-1637.568	1	2624.07	-38.61297	-3.418932E-008	0.000652	8
	45	184	9.450605	2163.254	-1984.494	1	2935.623	-42.53219	-4.292732E-008	0.0006607	8
	46	187	7.512019	2288.584	-2389.356	1	3308.571	-46.23407	-8.082167E-008	0.0006656	8
	47	192	5.978954	2444.177	-2876.68	1	3774.823	-49.64704	-1.088169E-007	0.0006501	8
	48	195	4.734848	2632.07	-3490.792	1	4371.89	-52.98357	-2.808673E-008	0.000607	7
	49	198	3.75601	2845.476	-4224.301	1	5093.275	-56.03591	-3.82391E-008	0.0006444	7
	50	201	3.004808	3090.406	-5077.028	1	5943.637	-58.67097	-2.060988E-008	0.0005951	7
	51	205	2.372217	3408.741	-6182.045	1	7059.546	-61.12793	-3.484194E-008	0.0005515	7
	52	209	1.878005	3777.478	-7510.591	1	8407.04	-63.29973	-2.381089E-008	0.0006333	7
	53	214	1.512097	4194.473	-8984.113	1	9915.03	-64.97323	-3.25484E-008	0.0005715	7
	54	219	1.201923	4725.918	-10928.19	1	11906.29	-66.61383	-2.840581E-008	0.0006551	7
	55	225	0.956633	5366.45	-13249.4	1	14294.94	-67.9504	-3.973518E-008	-1.395257E-005	7
