EXPLAIN
TAG	EISPOT
TITLE	LABEL	Potentiostatic EIS	Test Identifier
DATE	LABEL	2/28/2021	Date
TIME	LABEL	21:33:42	Time
NOTES	NOTES	1	Notes...
	
PSTAT	PSTAT	REF3000-16137	Potentiostat
VDC	POTEN	0.00000E+000	T	DC Voltage (V)
FREQINIT	QUANT	3.00000E+005	Initial Freq. (Hz)
FREQFINAL	QUANT	1.00000E+000	Final Freq. (Hz)
PTSPERDEC	QUANT	1.00000E+001	Points/decade
VAC	QUANT	5.00000E+001	AC Voltage (mV rms)
AREA	QUANT	1.00000E+000	Sample Area (cm^2)
SPEED	SELECTOR	2	Optimize for:
ZGUESS	QUANT	1.00000E+003	Estimated Z (ohms)
EOC	QUANT	0	Open Circuit (V)
SEQUENCER	TOGGLE	TRUE	Run as Sequence
PSTATMODEL	IQUANT	5	Pstat Model
PSTATSECTION	LABEL	REF3000-16137	Pstat Section
PSTATSERIALNO	LABEL	16137	Pstat Serial Number
CTRLMODE	IQUANT	1	Control Mode
IESTAB	IQUANT	0	I/E Stability
CASPEED	IQUANT	1	Control Amp Speed
CONVENTION	IQUANT	1	Current Convention
ICHRANGE	IQUANT	2	Ich Range
ICHRANGEMODE	TOGGLE	F	Ich Auto Range
ICHOFFSETENABLE	TOGGLE	T	Ich Offset Enable
ICHOFFSET	QUANT	0	Ich Offset (V)
ICHFILTER	IQUANT	3	Ich Filter
VCHRANGE	IQUANT	2	Vch Range
VCHRANGEMODE	TOGGLE	F	Vch Auto Range
VCHOFFSETENABLE	TOGGLE	T	Vch Offset Enable
VCHOFFSET	QUANT	0	Vch Offset (V)
VCHFILTER	IQUANT	3	Vch Filter
ACHRANGE	IQUANT	2	Ach Range
ACHOFFSETENABLE	TOGGLE	F	Ach Offset Enable
ACHOFFSET	QUANT	0	Ach Offset (V)
ACHFILTER	IQUANT	3	Ach Filter
IERANGELOWERLIMIT	IQUANT	2	I/E Range Lower Limit
IERANGEMODE	TOGGLE	F	I/E AutoRange
IERANGE	IQUANT	11	I/E Range
POSFEEDENABLE	TOGGLE	F	Positive Feedback IR Comp
POSFEEDRESISTANCE	QUANT	0	Positive Feedback Resistance (ohm)
ACHSELECT	IQUANT	0	Ach Select
CABLEID	IQUANT	13	Cable ID
DCCALDATE	LABEL	7/31/2020	DC Calibration Date
ACCALDATE	LABEL	7/31/2020	AC Calibration Date
THERMOSELECT	IQUANT	1	Thermo Select
FRAMEWORKVERSION	QUANT	6.33	Framework Version
INSTRUMENTVERSION	LABEL	3.50	Instrument Version
COMPLIANCEVOLTAGE	IQUANT	0	Compliance Voltage
ZCURVE	TABLE
	Pt	Time	Freq	Zreal	Zimag	Zsig	Zmod	Zphz	Idc	Vdc	IERange
	#	s	Hz	ohm	ohm	V	ohm	°	A	V	#
	0	8	300046.9	20.93845	1.523645	1	20.99382	4.161952	-8.708402E-005	0.0005037	10
	1	11	238359.4	20.98579	1.088623	1	21.01401	2.969517	-2.659512E-006	0.0002217	10
	2	15	189328.1	21.04232	0.7524127	1	21.05577	2.047859	1.522576E-005	0.0004814	10
	3	17	150421.9	21.08924	0.4748038	1	21.09459	1.289741	-0.0001039	0.0005319	10
	4	20	119484.4	21.17673	0.2378411	1	21.17806	0.6434761	-1.779711E-005	0.0007056	10
	5	22	94921.88	21.23185	0.0352577	1	21.23188	0.0951455	-2.485798E-005	0.0006917	10
	6	25	75421.88	21.30117	-0.170387	1	21.30186	-0.4582963	1.911343E-005	0.0006918	10
	7	27	59859.37	21.36967	-0.3636667	1	21.37276	-0.974959	-6.566503E-006	0.0006532	10
	8	30	47578.12	21.44056	-0.5571194	1	21.4478	-1.48846	-2.691429E-006	0.0006355	10
	9	32	37828.12	21.51129	-0.7621004	1	21.52479	-2.029022	1.470366E-005	0.0006492	10
	10	35	30046.88	21.58723	-0.993782	1	21.61009	-2.635788	-2.287843E-005	0.0006962	10
	11	38	23859.38	21.6702	-1.252595	1	21.70637	-3.308166	2.633593E-005	0.0006875	10
	12	40	18984.38	21.76089	-1.558918	1	21.81666	-4.097584	1.42963E-005	0.0006532	10
	13	42	15046.87	21.86736	-1.933289	1	21.95266	-5.052371	1.658127E-005	0.000723	10
	14	44	11953.13	21.98418	-2.369089	1	22.11146	-6.15065	-1.140865E-005	0.0007489	10
	15	47	9515.62	22.12109	-2.896056	1	22.30985	-7.45865	-2.637931E-005	0.0007273	10
	16	49	7546.875	22.28783	-3.543594	1	22.56777	-9.033975	-2.367953E-005	0.0007137	10
	17	51	5928.309	22.49768	-4.379971	1	22.92007	-11.01685	-2.123832E-005	0.00072	10
	18	54	4733.456	22.73318	-5.326913	1	23.34896	-13.1878	5.328267E-006	0.0007068	10
	19	56	3796.875	23.01502	-6.43225	1	23.89697	-15.61464	-2.715424E-005	0.0007417	10
	20	58	2987.132	23.39312	-7.917378	1	24.69662	-18.69834	2.089133E-005	0.0006406	10
	21	61	2390.625	23.82893	-9.56778	1	25.67801	-21.87643	-2.362154E-005	0.0007156	10
	22	63	1884.191	24.393	-11.73666	1	27.06968	-25.69448	1.444826E-005	0.0006335	10
	23	65	1516.544	25.04802	-14.11932	1	28.75341	-29.40953	2.114037E-005	0.00069	10
	24	68	1193.986	25.91684	-17.25706	1	31.13661	-33.65817	-2.544482E-005	0.0006997	10
	25	70	946.5144	26.97646	-20.94048	1	34.15015	-37.8204	-2.726414E-005	0.000737	10
	26	72	751.7689	28.25723	-25.39535	1	37.99204	-41.94668	2.398531E-005	0.0006826	10
	27	75	597.4265	29.74117	-30.64172	1	42.7019	-45.85445	1.261636E-005	-0.0002666	9
	28	77	477.4305	31.55269	-36.83118	1	48.49854	-49.41385	1.310986E-006	9.067587E-005	9
	29	79	376.6741	33.82296	-44.71259	1	56.06432	-52.89422	1.345013E-006	8.469457E-005	9
	30	82	298.2954	36.48184	-54.10518	1	65.25562	-56.00914	1.280955E-006	9.14745E-005	9
	31	84	237.7717	39.53572	-65.13123	1	76.19153	-58.74157	1.370748E-006	8.826124E-005	9
	32	86	189.0121	43.17835	-78.62675	1	89.70249	-61.22635	1.313426E-006	9.124544E-005	9
	33	89	150.2404	47.48414	-94.98758	1	106.195	-63.43961	1.371792E-006	8.822828E-005	9
	34	91	119.1737	52.64187	-115.0578	1	126.5285	-65.4147	1.331982E-006	9.10206E-005	9
	35	94	95.0169	58.64401	-138.8855	1	150.759	-67.10823	1.345527E-006	8.639156E-005	9
	36	96	75.60484	65.88277	-168.0698	1	180.5215	-68.59499	1.320596E-006	8.265796E-005	9
	37	99	54.50582	78.86137	-221.2164	1	234.8527	-70.37937	1.254547E-006	8.864791E-005	9
	38	101	45.95588	87.18063	-255.321	1	269.7949	-71.14727	1.416997E-006	9.19464E-005	9
	39	104	37.20238	99.2335	-305.0294	1	320.7651	-71.97903	1.455778E-006	9.107925E-005	9
	40	106	30.04808	113.8105	-365.355	1	382.671	-72.69785	1.412071E-006	9.434099E-005	9
	41	108	23.91582	132.1467	-441.2458	1	460.609	-73.3278	4.84181E-007	0.0006704	8
	42	111	18.60119	157.2649	-545.6055	1	567.8183	-73.92094	6.083586E-007	0.0006803	8
	43	113	15.02404	183.5413	-653.5082	1	678.7933	-74.31232	5.044088E-007	0.0006645	8
	44	115	12.01923	216.5547	-788.966	1	818.1462	-74.6515	6.263004E-007	0.0006719	8
	45	118	9.450605	259.9094	-966.564	1	1000.899	-74.94917	5.930192E-007	0.0006558	8
	46	120	7.512019	310.9573	-1173.691	1	1214.185	-75.16101	6.067789E-007	0.0006657	8
	47	123	5.978954	372.9541	-1421.859	1	1469.958	-75.3024	5.966372E-007	0.0006694	8
	48	126	4.734848	449.4156	-1730.878	1	1788.271	-75.44479	5.927149E-007	0.0006318	8
	49	129	3.75601	543.9506	-2101.575	1	2170.829	-75.48859	6.301011E-007	0.0006874	8
	50	133	3.004808	655.2485	-2530.955	1	2614.399	-75.48517	6.0182E-007	0.0006735	8
	51	136	2.372217	803.4514	-3079.241	1	3182.335	-75.37614	6.06089E-007	0.0006229	8
	52	141	1.878005	978.156	-3745.252	1	3870.879	-75.36289	6.34897E-007	0.0006655	8
	53	145	1.512097	1173.436	-4480.816	1	4631.918	-75.32494	8.987789E-008	0.0006906	7
	54	151	1.201923	1437.042	-5421.187	1	5608.418	-75.15355	1.10273E-007	0.0006523	7
	55	157	0.956633	1749.714	-6532.49	1	6762.76	-75.00541	7.745127E-008	5.769016E-008	7
