EXPLAIN
TAG	EISPOT
TITLE	LABEL	Potentiostatic EIS	Test Identifier
DATE	LABEL	2/28/2021	Date
TIME	LABEL	22:55:27	Time
NOTES	NOTES	1	Notes...
	
PSTAT	PSTAT	REF3000-16137	Potentiostat
VDC	POTEN	0.00000E+000	T	DC Voltage (V)
FREQINIT	QUANT	3.00000E+005	Initial Freq. (Hz)
FREQFINAL	QUANT	1.00000E+000	Final Freq. (Hz)
PTSPERDEC	QUANT	1.00000E+001	Points/decade
VAC	QUANT	5.00000E+001	AC Voltage (mV rms)
AREA	QUANT	1.00000E+000	Sample Area (cm^2)
SPEED	SELECTOR	2	Optimize for:
ZGUESS	QUANT	1.00000E+003	Estimated Z (ohms)
EOC	QUANT	0	Open Circuit (V)
SEQUENCER	TOGGLE	TRUE	Run as Sequence
PSTATMODEL	IQUANT	5	Pstat Model
PSTATSECTION	LABEL	REF3000-16137	Pstat Section
PSTATSERIALNO	LABEL	16137	Pstat Serial Number
CTRLMODE	IQUANT	1	Control Mode
IESTAB	IQUANT	0	I/E Stability
CASPEED	IQUANT	1	Control Amp Speed
CONVENTION	IQUANT	1	Current Convention
ICHRANGE	IQUANT	2	Ich Range
ICHRANGEMODE	TOGGLE	F	Ich Auto Range
ICHOFFSETENABLE	TOGGLE	T	Ich Offset Enable
ICHOFFSET	QUANT	0	Ich Offset (V)
ICHFILTER	IQUANT	3	Ich Filter
VCHRANGE	IQUANT	2	Vch Range
VCHRANGEMODE	TOGGLE	F	Vch Auto Range
VCHOFFSETENABLE	TOGGLE	T	Vch Offset Enable
VCHOFFSET	QUANT	0	Vch Offset (V)
VCHFILTER	IQUANT	3	Vch Filter
ACHRANGE	IQUANT	2	Ach Range
ACHOFFSETENABLE	TOGGLE	F	Ach Offset Enable
ACHOFFSET	QUANT	0	Ach Offset (V)
ACHFILTER	IQUANT	3	Ach Filter
IERANGELOWERLIMIT	IQUANT	2	I/E Range Lower Limit
IERANGEMODE	TOGGLE	F	I/E AutoRange
IERANGE	IQUANT	11	I/E Range
POSFEEDENABLE	TOGGLE	F	Positive Feedback IR Comp
POSFEEDRESISTANCE	QUANT	0	Positive Feedback Resistance (ohm)
ACHSELECT	IQUANT	0	Ach Select
CABLEID	IQUANT	13	Cable ID
DCCALDATE	LABEL	7/31/2020	DC Calibration Date
ACCALDATE	LABEL	7/31/2020	AC Calibration Date
THERMOSELECT	IQUANT	1	Thermo Select
FRAMEWORKVERSION	QUANT	6.33	Framework Version
INSTRUMENTVERSION	LABEL	3.50	Instrument Version
COMPLIANCEVOLTAGE	IQUANT	0	Compliance Voltage
ZCURVE	TABLE
	Pt	Time	Freq	Zreal	Zimag	Zsig	Zmod	Zphz	Idc	Vdc	IERange
	#	s	Hz	ohm	ohm	V	ohm	°	A	V	#
	0	14	300046.9	897.2904	-3428.797	1	3544.26	-75.33499	-1.818914E-005	0.0014182	9
	1	28	238359.4	1272.357	-4123.669	1	4315.5	-72.85241	8.760981E-005	-0.0025456	9
	2	50	189328.1	1424.911	-5075.759	1	5271.973	-74.31905	2.537546E-005	-0.0018686	9
	3	59	150421.9	2153.764	-5756.043	1	6145.79	-69.48544	-2.14388E-005	0.0015556	9
	4	67	119484.4	3318.592	-6883.731	1	7641.911	-64.26165	-3.938642E-005	0.0222579	8
	5	74	94921.88	4073.518	-8198.161	1	9154.42	-63.57805	1.890607E-005	-0.0009234	9
	6	83	75421.88	5768.744	-9374.978	1	11007.66	-58.39459	-1.622747E-006	-0.0047875	8
	7	92	59859.37	7408.72	-10682.72	1	13000.37	-55.25778	2.611539E-005	-0.0052904	8
	8	100	47578.12	9689.91	-11928.96	1	15368.62	-50.913	-2.586949E-005	0.0076717	8
	9	109	37828.12	11782.99	-12696.72	1	17321.82	-47.13763	2.202195E-005	-0.0094797	8
	10	117	30046.88	16156.66	-12833.99	1	20633.68	-38.46175	-4.948736E-006	0.0247344	7
	11	125	23859.38	18765.78	-13088.41	1	22879.27	-34.8943	-6.720952E-006	0.0219119	7
	12	129	18984.38	21449.21	-12670.29	1	24911.94	-30.57082	-6.232851E-006	0.0113418	7
	13	133	15046.87	23950.2	-12246.28	1	26899.51	-27.08169	-6.768494E-006	0.0220975	7
	14	139	11953.13	25989.3	-12492.24	1	28835.74	-25.67213	2.194485E-005	-0.0094218	8
	15	145	9515.62	27963.71	-11520.3	1	30243.79	-22.39035	-1.631754E-005	0.0010262	8
	16	152	7546.875	30780.26	-10245.18	1	32440.53	-18.40998	-4.932236E-006	0.0031613	7
	17	157	5928.309	30096.64	-9323.807	1	31507.8	-17.21275	-1.874522E-005	0.0110805	8
	18	163	4733.456	34434.8	-8810.702	1	35544.11	-14.35214	-9.946462E-006	-0.0018023	8
	19	170	3796.875	35646.14	-7712.265	1	36470.89	-12.20813	-6.871631E-006	0.0177767	7
	20	175	2987.132	37314.46	-8069.113	1	38176.95	-12.20212	-4.961766E-006	0.0035276	7
	21	180	2390.625	38872.53	-6335.963	1	39385.51	-9.257422	7.068526E-006	-0.0224428	7
	22	186	1884.191	39344.79	-2763.141	1	39441.7	-4.017224	2.578088E-005	-0.0088762	8
	23	192	1516.544	39513.45	-2763.488	1	39609.97	-4.000632	-2.586662E-005	0.0076487	8
	24	199	1193.986	40057.52	-8214.795	1	40891.17	-11.58925	-2.052952E-005	0.0030638	8
	25	207	946.5144	39981.25	-5838.669	1	40405.32	-8.30847	1.577217E-005	-0.0089508	8
	26	211	751.7689	46385.79	-5736.624	1	46739.18	-7.050086	-4.961581E-006	0.0035725	7
	27	215	597.4265	47277.32	-4935.708	1	47534.27	-5.960036	-3.127148E-006	-0.0047025	7
	28	219	477.4305	48244.73	-4784.356	1	48481.38	-5.663417	-5.998257E-008	0.0006403	7
	29	222	376.6741	49379.59	-3982.123	1	49539.9	-4.610531	-8.255602E-009	0.0006275	6
	30	224	298.2954	50307.68	-3800.182	1	50451.01	-4.319851	-8.815218E-009	0.0007172	6
	31	227	237.7717	51227.5	-3710.78	1	51361.72	-4.143113	-1.012684E-008	0.000713	6
	32	229	189.0121	52106.84	-3585.057	1	52230.02	-3.935864	-1.018949E-008	0.0007257	6
	33	231	150.2404	52992.53	-3454.964	1	53105.04	-3.730244	-9.604264E-009	0.0006413	6
	34	234	119.1737	53818.95	-3350.146	1	53923.11	-3.561978	-1.092253E-008	0.0007211	6
	35	236	95.0169	54637.55	-3379.524	1	54741.97	-3.539436	-7.808677E-009	0.0006424	6
	36	239	75.60484	55442.01	-3367.162	1	55544.17	-3.475478	-9.737157E-009	0.0007157	6
	37	241	54.50582	56548	-3458.265	1	56653.65	-3.499638	-6.687412E-009	0.0006258	6
	38	244	45.95588	57125.72	-3582.36	1	57237.94	-3.588325	-1.266165E-008	0.0007247	6
	39	246	37.20238	57923.2	-3786.962	1	58046.86	-3.740619	-3.206214E-009	0.0006391	6
	40	249	30.04808	58753.5	-4045.111	1	58892.59	-3.938533	-4.854321E-009	0.0007156	6
	41	251	23.91582	59647.15	-4438.899	1	59812.09	-4.256067	-1.559702E-009	0.0006676	6
	42	254	18.60119	60470.54	-4956.766	1	60673.35	-4.686055	-3.870016E-010	0.0006278	6
	43	256	15.02404	61453.12	-5535.513	1	61701.93	-5.147141	-6.62819E-009	0.0006462	6
	44	258	12.01923	62503.43	-6228.896	1	62813.04	-5.691127	-1.676986E-008	0.0006397	6
	45	261	9.450605	63588.34	-7215.211	1	63996.38	-6.473523	-7.599365E-009	0.0006184	6
	46	263	7.512019	64850.75	-8326.054	1	65383.05	-7.316063	1.839293E-009	0.0006797	6
	47	266	5.978954	66330.55	-9577.22	1	67018.39	-8.215945	-1.391762E-008	0.0006763	6
	48	270	4.734848	67975.22	-11118.3	1	68878.49	-9.289269	-1.317574E-009	0.000722	6
	49	273	3.75601	70110.41	-12933.14	1	71293.3	-10.45175	-8.632015E-009	0.0006847	6
	50	279	3.004808	72718.67	-15046.91	1	74259.11	-11.69063	-1.238357E-008	0.0007377	6
	51	285	2.372217	75417.58	-17484.23	1	77417.76	-13.05243	-7.709507E-009	0.0007554	6
	52	289	1.878005	78170.5	-20608.54	1	80841.45	-14.76917	-1.533202E-008	0.0006617	6
	53	294	1.512097	81231.29	-23862.08	1	84663.58	-16.37041	-1.60312E-008	0.0007082	6
	54	299	1.201923	84625.19	-27925.84	1	89113.83	-18.2626	-1.070274E-008	0.0006559	6
	55	305	0.956633	88884.91	-32799.35	1	94743.47	-20.25452	-1.622841E-008	3.623688E-005	6
