EXPLAIN
TAG	EISPOT
TITLE	LABEL	Potentiostatic EIS	Test Identifier
DATE	LABEL	2/28/2021	Date
TIME	LABEL	22:23:47	Time
NOTES	NOTES	1	Notes...
	
PSTAT	PSTAT	REF3000-16137	Potentiostat
VDC	POTEN	0.00000E+000	T	DC Voltage (V)
FREQINIT	QUANT	3.00000E+005	Initial Freq. (Hz)
FREQFINAL	QUANT	1.00000E+000	Final Freq. (Hz)
PTSPERDEC	QUANT	1.00000E+001	Points/decade
VAC	QUANT	5.00000E+001	AC Voltage (mV rms)
AREA	QUANT	1.00000E+000	Sample Area (cm^2)
SPEED	SELECTOR	2	Optimize for:
ZGUESS	QUANT	1.00000E+003	Estimated Z (ohms)
EOC	QUANT	0	Open Circuit (V)
SEQUENCER	TOGGLE	TRUE	Run as Sequence
PSTATMODEL	IQUANT	5	Pstat Model
PSTATSECTION	LABEL	REF3000-16137	Pstat Section
PSTATSERIALNO	LABEL	16137	Pstat Serial Number
CTRLMODE	IQUANT	1	Control Mode
IESTAB	IQUANT	0	I/E Stability
CASPEED	IQUANT	1	Control Amp Speed
CONVENTION	IQUANT	1	Current Convention
ICHRANGE	IQUANT	2	Ich Range
ICHRANGEMODE	TOGGLE	F	Ich Auto Range
ICHOFFSETENABLE	TOGGLE	T	Ich Offset Enable
ICHOFFSET	QUANT	0	Ich Offset (V)
ICHFILTER	IQUANT	3	Ich Filter
VCHRANGE	IQUANT	2	Vch Range
VCHRANGEMODE	TOGGLE	F	Vch Auto Range
VCHOFFSETENABLE	TOGGLE	T	Vch Offset Enable
VCHOFFSET	QUANT	0	Vch Offset (V)
VCHFILTER	IQUANT	3	Vch Filter
ACHRANGE	IQUANT	2	Ach Range
ACHOFFSETENABLE	TOGGLE	F	Ach Offset Enable
ACHOFFSET	QUANT	0	Ach Offset (V)
ACHFILTER	IQUANT	3	Ach Filter
IERANGELOWERLIMIT	IQUANT	2	I/E Range Lower Limit
IERANGEMODE	TOGGLE	F	I/E AutoRange
IERANGE	IQUANT	11	I/E Range
POSFEEDENABLE	TOGGLE	F	Positive Feedback IR Comp
POSFEEDRESISTANCE	QUANT	0	Positive Feedback Resistance (ohm)
ACHSELECT	IQUANT	0	Ach Select
CABLEID	IQUANT	13	Cable ID
DCCALDATE	LABEL	7/31/2020	DC Calibration Date
ACCALDATE	LABEL	7/31/2020	AC Calibration Date
THERMOSELECT	IQUANT	1	Thermo Select
FRAMEWORKVERSION	QUANT	6.33	Framework Version
INSTRUMENTVERSION	LABEL	3.50	Instrument Version
COMPLIANCEVOLTAGE	IQUANT	0	Compliance Voltage
ZCURVE	TABLE
	Pt	Time	Freq	Zreal	Zimag	Zsig	Zmod	Zphz	Idc	Vdc	IERange
	#	s	Hz	ohm	ohm	V	ohm	°	A	V	#
	0	11	300046.9	356.7407	-45.33755	1	359.6101	-7.242794	-0.0000961	0.0034495	9
	1	16	238359.4	363.1701	-41.13295	1	365.4921	-6.461831	-8.20966E-005	0.0035357	9
	2	24	189328.1	369.0966	-36.81968	1	370.9286	-5.696762	7.377879E-005	-0.0015932	9
	3	30	150421.9	377.4968	-32.25362	1	378.8722	-4.883536	-1.641462E-005	0.0015221	9
	4	36	119484.4	383.6173	-16.48392	1	383.9713	-2.460469	1.813416E-005	0.002349	8
	5	39	94921.88	386.9888	-14.0471	1	387.2436	-2.078837	1.141635E-005	-0.0006121	8
	6	41	75421.88	390.0188	-13.29051	1	390.2452	-1.95169	-1.270412E-005	0.002877	8
	7	44	59859.37	392.823	-13.68154	1	393.0612	-1.994735	1.074099E-005	-0.0046732	8
	8	46	47578.12	395.8519	-13.03534	1	396.0664	-1.88606	1.416628E-005	-0.0022171	8
	9	49	37828.12	399.1267	-12.75066	1	399.3303	-1.829771	-1.137523E-005	0.0059326	8
	10	51	30046.88	402.5196	-13.2122	1	402.7364	-1.879987	1.315465E-005	-0.0046171	8
	11	54	23859.38	405.2745	-12.85399	1	405.4783	-1.816627	-1.268452E-005	0.0036092	8
	12	56	18984.38	408.0349	-12.30357	1	408.2204	-1.727129	-1.266416E-005	0.0065969	8
	13	58	15046.87	410.1539	-14.4939	1	410.4099	-2.02386	1.12381E-005	-0.0003594	8
	14	61	11953.13	414.6211	-12.69572	1	414.8154	-1.753852	-6.862327E-006	-1.88398E-005	8
	15	63	9515.62	417.3989	-14.03462	1	417.6348	-1.925788	-8.331749E-006	0.0058664	8
	16	65	7546.875	420.5347	-16.07	1	420.8416	-2.188394	1.631395E-005	-0.0026153	8
	17	68	5928.309	423.1896	-15.15162	1	423.4608	-2.050507	-4.211744E-006	0.0052248	8
	18	70	4733.456	425.7931	-17.1796	1	426.1395	-2.310477	-1.040449E-005	0.0016602	8
	19	72	3796.875	430.6218	-18.85548	1	431.0344	-2.507188	1.55117E-005	-0.0033353	8
	20	75	2987.132	433.4744	-20.62257	1	433.9647	-2.723796	-1.358417E-005	0.0040297	8
	21	77	2390.625	436.2984	-23.19044	1	436.9143	-3.042562	1.087836E-005	-0.0047542	8
	22	79	1884.191	438.5699	-25.01495	1	439.2827	-3.264474	-1.177218E-005	0.0061315	8
	23	81	1516.544	444.0122	-30.37739	1	445.0502	-3.913829	-1.118783E-005	0.0059274	8
	24	84	1193.986	447.5014	-35.98095	1	448.9456	-4.596927	-1.129725E-005	0.0060916	8
	25	86	946.5144	452.4306	-42.18257	1	454.3928	-5.3266	-1.282739E-005	0.0028171	8
	26	89	751.7689	456.5528	-48.86131	1	459.1599	-6.108672	-1.341777E-005	0.0038055	8
	27	91	597.4265	463.5929	-58.59283	1	467.281	-7.203336	-1.042685E-005	0.0016874	8
	28	93	477.4305	467.5941	-69.05646	1	472.6659	-8.40098	4.566012E-008	0.0006594	8
	29	95	376.6741	474.5739	-82.52135	1	481.6951	-9.86425	1.410913E-008	0.0006665	8
	30	98	298.2954	482.4442	-98.4522	1	492.3872	-11.53396	1.953354E-008	0.0006527	8
	31	100	237.7717	491.2972	-116.9786	1	505.0316	-13.39284	4.879982E-008	0.0006434	8
	32	103	189.0121	501.5136	-139.3712	1	520.5192	-15.53067	-2.588523E-009	0.0006635	8
	33	105	150.2404	513.2015	-166.1294	1	539.4207	-17.93738	1.838073E-009	0.0006535	8
	34	107	119.1737	526.6829	-198.4856	1	562.8423	-20.64941	4.813131E-009	0.0006633	8
	35	110	95.0169	541.8268	-236.4481	1	591.1717	-23.576	3.616098E-008	0.0006419	8
	36	112	75.60484	559.3953	-282.408	1	626.6398	-26.7867	3.379513E-008	0.0006426	8
	37	115	54.50582	588.299	-364.8477	1	692.2496	-31.80611	2.441152E-008	0.0006573	8
	38	117	45.95588	606.7903	-417.6452	1	736.6288	-34.53909	4.730239E-008	0.0006477	8
	39	120	37.20238	632.0532	-494.1648	1	802.3029	-38.01974	-9.022752E-009	0.0006629	8
	40	122	30.04808	661.6393	-586.5308	1	884.1861	-41.55639	6.265653E-009	0.0006678	8
	41	124	23.91582	698.0778	-705.1446	1	992.241	-45.28854	-3.769743E-008	0.0006566	8
	42	127	18.60119	745.3887	-865.3738	1	1142.137	-49.26007	6.992752E-008	0.0006584	8
	43	129	15.02404	793.9069	-1030.685	1	1301	-52.39398	-3.71736E-008	0.0006557	8
	44	131	12.01923	853.0709	-1237.444	1	1502.996	-55.41834	4.634843E-008	0.0006642	8
	45	134	9.450605	929.0071	-1509.772	1	1772.7	-58.39479	5.363912E-008	0.000654	8
	46	136	7.512019	1016.458	-1827.791	1	2091.412	-60.92099	5.459052E-009	0.0006812	8
	47	139	5.978954	1121.641	-2208.813	1	2477.283	-63.07843	-1.224894E-008	0.0006533	8
	48	142	4.734848	1252.732	-2685.628	1	2963.434	-64.99294	4.377334E-008	0.0006505	8
	49	145	3.75601	1407.902	-3259.314	1	3550.397	-66.63746	2.251299E-008	0.0006521	8
	50	149	3.004808	1591.058	-3934.31	1	4243.85	-67.98131	3.964669E-009	0.0005881	7
	51	152	2.372217	1823.94	-4801.11	1	5135.895	-69.19823	-1.461559E-008	0.0005621	7
	52	157	1.878005	2101.157	-5839.473	1	6205.989	-70.21027	-4.460645E-009	0.0006413	7
	53	161	1.512097	2418.106	-6996.7	1	7402.773	-70.93451	-1.533289E-008	0.0005462	7
	54	167	1.201923	2809.844	-8513.342	1	8965.055	-71.73443	-1.137722E-008	0.0006627	7
	55	173	0.956633	3286.119	-10330.17	1	10840.24	-72.35366	-2.139867E-008	-9.276957E-006	7
