EXPLAIN
TAG	EISPOT
TITLE	LABEL	Potentiostatic EIS	Test Identifier
DATE	LABEL	2/28/2021	Date
TIME	LABEL	22:20:48	Time
NOTES	NOTES	1	Notes...
	
PSTAT	PSTAT	REF3000-16137	Potentiostat
VDC	POTEN	0.00000E+000	T	DC Voltage (V)
FREQINIT	QUANT	3.00000E+005	Initial Freq. (Hz)
FREQFINAL	QUANT	1.00000E+000	Final Freq. (Hz)
PTSPERDEC	QUANT	1.00000E+001	Points/decade
VAC	QUANT	5.00000E+001	AC Voltage (mV rms)
AREA	QUANT	1.00000E+000	Sample Area (cm^2)
SPEED	SELECTOR	2	Optimize for:
ZGUESS	QUANT	1.00000E+003	Estimated Z (ohms)
EOC	QUANT	0	Open Circuit (V)
SEQUENCER	TOGGLE	TRUE	Run as Sequence
PSTATMODEL	IQUANT	5	Pstat Model
PSTATSECTION	LABEL	REF3000-16137	Pstat Section
PSTATSERIALNO	LABEL	16137	Pstat Serial Number
CTRLMODE	IQUANT	1	Control Mode
IESTAB	IQUANT	0	I/E Stability
CASPEED	IQUANT	1	Control Amp Speed
CONVENTION	IQUANT	1	Current Convention
ICHRANGE	IQUANT	2	Ich Range
ICHRANGEMODE	TOGGLE	F	Ich Auto Range
ICHOFFSETENABLE	TOGGLE	T	Ich Offset Enable
ICHOFFSET	QUANT	0	Ich Offset (V)
ICHFILTER	IQUANT	3	Ich Filter
VCHRANGE	IQUANT	2	Vch Range
VCHRANGEMODE	TOGGLE	F	Vch Auto Range
VCHOFFSETENABLE	TOGGLE	T	Vch Offset Enable
VCHOFFSET	QUANT	0	Vch Offset (V)
VCHFILTER	IQUANT	3	Vch Filter
ACHRANGE	IQUANT	2	Ach Range
ACHOFFSETENABLE	TOGGLE	F	Ach Offset Enable
ACHOFFSET	QUANT	0	Ach Offset (V)
ACHFILTER	IQUANT	3	Ach Filter
IERANGELOWERLIMIT	IQUANT	2	I/E Range Lower Limit
IERANGEMODE	TOGGLE	F	I/E AutoRange
IERANGE	IQUANT	11	I/E Range
POSFEEDENABLE	TOGGLE	F	Positive Feedback IR Comp
POSFEEDRESISTANCE	QUANT	0	Positive Feedback Resistance (ohm)
ACHSELECT	IQUANT	0	Ach Select
CABLEID	IQUANT	13	Cable ID
DCCALDATE	LABEL	7/31/2020	DC Calibration Date
ACCALDATE	LABEL	7/31/2020	AC Calibration Date
THERMOSELECT	IQUANT	1	Thermo Select
FRAMEWORKVERSION	QUANT	6.33	Framework Version
INSTRUMENTVERSION	LABEL	3.50	Instrument Version
COMPLIANCEVOLTAGE	IQUANT	0	Compliance Voltage
ZCURVE	TABLE
	Pt	Time	Freq	Zreal	Zimag	Zsig	Zmod	Zphz	Idc	Vdc	IERange
	#	s	Hz	ohm	ohm	V	ohm	°	A	V	#
	0	5	300046.9	267.4309	-31.80887	1	269.3159	-6.783031	7.466992E-005	0.0004598	10
	1	9	238359.4	273.0305	-27.68192	1	274.4302	-5.789302	1.871642E-005	0.0007905	10
	2	17	189328.1	276.7582	-22.44677	1	277.667	-4.636887	2.157887E-005	-0.000406	9
	3	21	150421.9	281.0744	-19.97012	1	281.7829	-4.063993	1.600128E-005	-0.0007821	9
	4	27	119484.4	285.7695	-16.53129	1	286.2472	-3.310775	-5.557179E-005	0.0007723	9
	5	33	94921.88	289.5884	-15.23167	1	289.9887	-3.010849	2.622451E-005	-0.0004831	9
	6	37	75421.88	292.4698	-13.9127	1	292.8006	-2.72349	2.001814E-005	-1.320888E-005	9
	7	40	59859.37	295.0972	-12.62992	1	295.3673	-2.450716	-1.265879E-006	-0.0003667	9
	8	43	47578.12	298.0172	-12.31568	1	298.2716	-2.366424	-2.115821E-005	0.0008243	9
	9	45	37828.12	300.0016	-11.21305	1	300.2111	-2.140527	-9.1178E-006	0.0008709	9
	10	48	30046.88	302.0997	-10.62006	1	302.2863	-2.013355	2.301755E-005	-0.000832	9
	11	50	23859.38	304.2155	-10.4226	1	304.394	-1.962219	2.680747E-005	-0.0008065	9
	12	53	18984.38	306.4699	-10.10247	1	306.6364	-1.888014	-1.764461E-005	0.0011235	9
	13	55	15046.87	308.9271	-10.80501	1	309.116	-2.003156	-1.680049E-005	0.0009795	9
	14	57	11953.13	310.9885	-10.94982	1	311.1812	-2.016536	2.019542E-005	-0.0007895	9
	15	60	9515.62	313.036	-11.06227	1	313.2314	-2.023913	1.933408E-005	1.916195E-005	9
	16	62	7546.875	315.4016	-11.7985	1	315.6222	-2.142314	2.383605E-005	-0.0003147	9
	17	65	5928.309	317.9527	-12.25018	1	318.1886	-2.206418	-1.513136E-005	0.0001354	9
	18	67	4733.456	319.9066	-14.27602	1	320.225	-2.555162	1.582272E-006	0.0006357	9
	19	69	3796.875	321.5278	-15.05993	1	321.8803	-2.681698	1.594513E-005	-0.0007884	9
	20	72	2987.132	324.789	-17.34754	1	325.252	-3.05736	-9.591718E-006	0.000918	9
	21	74	2390.625	327.1293	-20.46219	1	327.7686	-3.579233	-1.687795E-005	0.00101	9
	22	76	1884.191	330.4987	-23.47955	1	331.3317	-4.063625	-2.375299E-005	0.000717	9
	23	79	1516.544	332.2246	-26.39555	1	333.2715	-4.542659	-1.867889E-005	0.0003347	9
	24	81	1193.986	335.7999	-31.73656	1	337.2963	-5.399007	-9.170521E-006	-0.0000951	9
	25	83	946.5144	339.3383	-37.23109	1	341.3747	-6.261261	-1.51139E-005	0.0001273	9
	26	86	751.7689	343.8387	-44.32249	1	346.6836	-7.345201	7.667976E-006	-0.0006319	9
	27	88	597.4265	347.8178	-52.67654	1	351.7841	-8.611922	-1.538771E-005	0.0001186	9
	28	90	477.4305	352.9063	-62.42202	1	358.3844	-10.03072	1.288014E-006	7.973822E-005	9
	29	93	376.6741	357.2447	-74.48648	1	364.9274	-11.77759	6.707324E-008	0.0006315	8
	30	95	298.2954	363.8782	-89.10535	1	374.6293	-13.75964	5.672716E-008	0.0006544	8
	31	97	237.7717	371.3748	-106.1461	1	386.2464	-15.95096	3.399682E-008	0.0006512	8
	32	100	189.0121	380.0522	-126.7845	1	400.6419	-18.44858	7.097942E-008	0.0006478	8
	33	102	150.2404	390.0038	-151.5263	1	418.4055	-21.2324	3.280513E-008	0.0006592	8
	34	105	119.1737	401.5318	-181.5245	1	440.6574	-24.32677	5.76891E-008	0.0006514	8
	35	107	95.0169	414.5506	-216.8178	1	467.8271	-27.61041	1.711105E-008	0.0006693	8
	36	110	75.60484	429.7318	-259.6837	1	502.1006	-31.14426	4.84114E-008	0.0006561	8
	37	112	54.50582	455.0179	-336.7515	1	566.0767	-36.50455	3.748634E-008	0.0006539	8
	38	115	45.95588	471.2991	-386.2099	1	609.3283	-39.33318	9.864171E-008	0.0006483	8
	39	117	37.20238	493.737	-457.9415	1	673.4142	-42.84595	2.563227E-008	0.0006548	8
	40	119	30.04808	520.1409	-544.5997	1	753.0839	-46.31595	4.986847E-008	0.0006493	8
	41	122	23.91582	553.037	-656.1201	1	858.1047	-49.8728	3.83112E-008	0.0006539	8
	42	124	18.60119	595.7661	-806.5527	1	1002.729	-53.5483	-2.205831E-008	0.0006517	8
	43	126	15.02404	639.8862	-961.361	1	1154.846	-56.35209	5.36916E-008	0.0006568	8
	44	129	12.01923	694.4824	-1156.285	1	1348.814	-59.01033	9.985975E-008	0.0006514	8
	45	131	9.450605	764.9966	-1412.419	1	1606.284	-61.55907	7.577636E-008	0.000652	8
	46	134	7.512019	845.168	-1709.606	1	1907.108	-63.69386	6.432852E-008	0.0006849	8
	47	136	5.978954	942.9086	-2068.587	1	2273.352	-65.49544	4.833499E-008	0.0006465	8
	48	139	4.734848	1062.001	-2515.542	1	2730.531	-67.11169	8.88484E-008	0.0006729	8
	49	143	3.75601	1206.489	-3054.721	1	3284.347	-68.44802	4.539947E-008	0.0006377	8
	50	146	3.004808	1374.895	-3681.74	1	3930.082	-69.52255	7.909217E-008	0.0006164	8
	51	150	2.372217	1590.234	-4497.577	1	4770.434	-70.52763	-7.673697E-009	0.0006025	7
	52	154	1.878005	1855.892	-5476.656	1	5782.568	-71.27986	-1.152716E-008	0.0006322	7
	53	159	1.512097	2149.927	-6573.176	1	6915.839	-71.88834	-9.20185E-009	0.0005173	7
	54	164	1.201923	2517.436	-7987.701	1	8375.014	-72.50703	-1.11927E-008	0.0006532	7
	55	170	0.956633	2958.029	-9691.78	1	10133.14	-73.02729	-1.595486E-008	-4.611342E-006	7
