EXPLAIN
TAG	EISPOT
TITLE	LABEL	Potentiostatic EIS	Test Identifier
DATE	LABEL	2/28/2021	Date
TIME	LABEL	21:39:16	Time
NOTES	NOTES	1	Notes...
	
PSTAT	PSTAT	REF3000-16137	Potentiostat
VDC	POTEN	0.00000E+000	T	DC Voltage (V)
FREQINIT	QUANT	3.00000E+005	Initial Freq. (Hz)
FREQFINAL	QUANT	1.00000E+000	Final Freq. (Hz)
PTSPERDEC	QUANT	1.00000E+001	Points/decade
VAC	QUANT	5.00000E+001	AC Voltage (mV rms)
AREA	QUANT	1.00000E+000	Sample Area (cm^2)
SPEED	SELECTOR	2	Optimize for:
ZGUESS	QUANT	1.00000E+003	Estimated Z (ohms)
EOC	QUANT	0	Open Circuit (V)
SEQUENCER	TOGGLE	TRUE	Run as Sequence
PSTATMODEL	IQUANT	5	Pstat Model
PSTATSECTION	LABEL	REF3000-16137	Pstat Section
PSTATSERIALNO	LABEL	16137	Pstat Serial Number
CTRLMODE	IQUANT	1	Control Mode
IESTAB	IQUANT	0	I/E Stability
CASPEED	IQUANT	1	Control Amp Speed
CONVENTION	IQUANT	1	Current Convention
ICHRANGE	IQUANT	2	Ich Range
ICHRANGEMODE	TOGGLE	F	Ich Auto Range
ICHOFFSETENABLE	TOGGLE	T	Ich Offset Enable
ICHOFFSET	QUANT	0	Ich Offset (V)
ICHFILTER	IQUANT	3	Ich Filter
VCHRANGE	IQUANT	2	Vch Range
VCHRANGEMODE	TOGGLE	F	Vch Auto Range
VCHOFFSETENABLE	TOGGLE	T	Vch Offset Enable
VCHOFFSET	QUANT	0	Vch Offset (V)
VCHFILTER	IQUANT	3	Vch Filter
ACHRANGE	IQUANT	2	Ach Range
ACHOFFSETENABLE	TOGGLE	F	Ach Offset Enable
ACHOFFSET	QUANT	0	Ach Offset (V)
ACHFILTER	IQUANT	3	Ach Filter
IERANGELOWERLIMIT	IQUANT	2	I/E Range Lower Limit
IERANGEMODE	TOGGLE	F	I/E AutoRange
IERANGE	IQUANT	11	I/E Range
POSFEEDENABLE	TOGGLE	F	Positive Feedback IR Comp
POSFEEDRESISTANCE	QUANT	0	Positive Feedback Resistance (ohm)
ACHSELECT	IQUANT	0	Ach Select
CABLEID	IQUANT	13	Cable ID
DCCALDATE	LABEL	7/31/2020	DC Calibration Date
ACCALDATE	LABEL	7/31/2020	AC Calibration Date
THERMOSELECT	IQUANT	1	Thermo Select
FRAMEWORKVERSION	QUANT	6.33	Framework Version
INSTRUMENTVERSION	LABEL	3.50	Instrument Version
COMPLIANCEVOLTAGE	IQUANT	0	Compliance Voltage
ZCURVE	TABLE
	Pt	Time	Freq	Zreal	Zimag	Zsig	Zmod	Zphz	Idc	Vdc	IERange
	#	s	Hz	ohm	ohm	V	ohm	°	A	V	#
	0	7	300046.9	24.08738	1.02843	1	24.10933	2.444804	-6.251916E-005	-0.0002828	11
	1	11	238359.4	24.20616	0.963244	1	24.22532	2.278788	3.970807E-005	0.0004483	10
	2	16	189328.1	24.29805	0.4064655	1	24.30145	0.958373	-4.668568E-005	0.000453	11
	3	19	150421.9	24.42572	0.3929452	1	24.42888	0.9216579	4.867449E-005	0.0007601	10
	4	23	119484.4	24.48644	0.0059469	1	24.48644	0.0139151	-0.0001103	0.0003133	11
	5	27	94921.88	24.59516	-0.0406798	1	24.59519	-0.0947658	-2.209955E-005	0.0007451	10
	6	29	75421.88	24.69994	-0.2397708	1	24.7011	-0.5561724	2.376388E-005	0.0006228	10
	7	33	59859.37	24.79465	-0.4217482	1	24.79824	-0.974487	-2.638839E-005	0.000704	10
	8	36	47578.12	24.88515	-0.6062329	1	24.89253	-1.39552	-1.61213E-005	0.0006663	10
	9	38	37828.12	24.97739	-0.8009109	1	24.99023	-1.836585	2.764448E-005	0.0006761	10
	10	41	30046.88	25.07256	-1.021462	1	25.09336	-2.332953	-1.906506E-006	0.0007265	10
	11	43	23859.38	25.17606	-1.277691	1	25.20846	-2.905281	-2.665278E-005	0.0006716	10
	12	46	18984.38	25.28188	-1.568571	1	25.33049	-3.550268	1.634177E-005	0.0006551	10
	13	48	15046.87	25.40396	-1.921087	1	25.47649	-4.324566	2.122465E-005	0.0006228	10
	14	50	11953.13	25.54601	-2.342536	1	25.65319	-5.239295	-2.531688E-005	0.0007232	10
	15	53	9515.62	25.6977	-2.855282	1	25.85583	-6.340153	2.837728E-005	0.0006905	10
	16	55	7546.875	25.88168	-3.483019	1	26.11499	-7.664515	1.19258E-005	0.0006494	10
	17	57	5928.309	26.11778	-4.2753	1	26.46538	-9.296474	-1.073508E-005	0.0006674	10
	18	60	4733.456	26.37726	-5.175682	1	26.88025	-11.1014	-4.949069E-006	0.0007036	10
	19	62	3796.875	26.68653	-6.233809	1	27.40495	-13.14817	2.120153E-005	0.0006252	10
	20	64	2987.132	27.08313	-7.638175	1	28.13961	-15.74989	-3.174135E-006	0.0006457	10
	21	66	2390.625	27.54011	-9.219615	1	29.04237	-18.50902	6.389458E-006	0.0006652	10
	22	69	1884.191	28.13113	-11.23304	1	30.29095	-21.76731	-1.095202E-005	0.0006774	10
	23	71	1516.544	28.81067	-13.49048	1	31.8127	-25.09116	-2.459053E-005	0.0006912	10
	24	73	1193.986	29.71482	-16.43571	1	33.95737	-28.94763	-1.137044E-005	0.0006634	10
	25	76	946.5144	30.79044	-19.92291	1	36.67389	-32.90483	2.316754E-005	0.0007231	10
	26	78	751.7689	32.06998	-24.01643	1	40.06585	-36.82864	1.476927E-005	-0.0001576	9
	27	80	597.4265	33.65013	-28.94265	1	44.38477	-40.699	1.51835E-005	-0.0002458	9
	28	83	477.4305	35.51983	-34.67537	1	49.63909	-44.31075	1.390149E-006	7.923507E-005	9
	29	85	376.6741	37.88373	-41.93818	1	56.51538	-47.90776	1.397003E-006	7.729045E-005	9
	30	87	298.2954	40.66187	-50.54256	1	64.86862	-51.18306	1.480765E-006	8.456464E-005	9
	31	90	237.7717	43.86045	-60.57449	1	74.78642	-54.09266	1.385871E-006	8.696672E-005	9
	32	92	189.0121	47.67896	-72.7738	1	87.00178	-56.76852	1.501987E-006	8.740757E-005	9
	33	95	150.2404	52.18171	-87.47057	1	101.853	-59.18126	1.380254E-006	0.0001066	9
	34	97	119.1737	57.55375	-105.3875	1	120.0789	-61.36035	1.505016E-006	8.467326E-005	9
	35	99	95.0169	63.75885	-126.5443	1	141.6992	-63.25893	1.414437E-006	8.285408E-005	9
	36	102	75.60484	71.18617	-152.3455	1	168.1565	-64.95482	1.344814E-006	8.090753E-005	9
	37	104	54.50582	84.36002	-199.0154	1	216.1567	-67.02855	1.463319E-006	7.574727E-005	9
	38	107	45.95588	92.71214	-228.9375	1	246.9978	-67.95367	1.441134E-006	8.559517E-005	9
	39	109	37.20238	104.7763	-272.4075	1	291.8629	-68.96173	1.527745E-006	7.567911E-005	9
	40	112	30.04808	119.2022	-324.8253	1	346.0067	-69.84822	1.607485E-006	7.380071E-005	9
	41	114	23.91582	137.6626	-392.1976	1	415.6561	-70.65878	1.503836E-006	7.554042E-005	9
	42	116	18.60119	161.8884	-481.0697	1	507.5785	-71.40102	6.262865E-007	0.0006518	8
	43	119	15.02404	187.2112	-574.1138	1	603.8665	-71.93951	6.950182E-007	0.0006689	8
	44	121	12.01923	219.2081	-690.78	1	724.7269	-72.39399	6.572871E-007	0.0006562	8
	45	124	9.450605	260.8322	-843.2728	1	882.6904	-72.81267	6.137596E-007	0.0006547	8
	46	126	7.512019	309.1255	-1020.222	1	1066.026	-73.14327	5.847753E-007	0.0006396	8
	47	129	5.978954	367.6086	-1233.271	1	1286.893	-73.40194	6.257813E-007	0.0006566	8
	48	132	4.734848	440.393	-1496.764	1	1560.208	-73.60453	6.151611E-007	0.0006278	8
	49	135	3.75601	529.1391	-1813.836	1	1889.441	-73.73678	6.693514E-007	0.000684	8
	50	138	3.004808	632.1726	-2181.254	1	2271.015	-73.83732	6.660633E-007	0.0006448	8
	51	142	2.372217	769.0765	-2651.282	1	2760.575	-73.82376	6.750158E-007	0.0005941	8
	52	146	1.878005	930.1277	-3223.504	1	3355.014	-73.90474	6.875909E-007	0.0006554	8
	53	151	1.512097	1108.279	-3853.796	1	4009.991	-73.95577	6.520228E-007	0.0007273	8
	54	156	1.201923	1354.725	-4672.26	1	4864.698	-73.83044	1.745276E-007	0.0006377	7
	55	163	0.956633	1641.056	-5633.896	1	5868.037	-73.76008	1.306915E-007	-1.314649E-005	7
