EXPLAIN
TAG	EISPOT
TITLE	LABEL	Potentiostatic EIS	Test Identifier
DATE	LABEL	2/28/2021	Date
TIME	LABEL	22:26:50	Time
NOTES	NOTES	1	Notes...
	
PSTAT	PSTAT	REF3000-16137	Potentiostat
VDC	POTEN	0.00000E+000	T	DC Voltage (V)
FREQINIT	QUANT	3.00000E+005	Initial Freq. (Hz)
FREQFINAL	QUANT	1.00000E+000	Final Freq. (Hz)
PTSPERDEC	QUANT	1.00000E+001	Points/decade
VAC	QUANT	5.00000E+001	AC Voltage (mV rms)
AREA	QUANT	1.00000E+000	Sample Area (cm^2)
SPEED	SELECTOR	2	Optimize for:
ZGUESS	QUANT	1.00000E+003	Estimated Z (ohms)
EOC	QUANT	0	Open Circuit (V)
SEQUENCER	TOGGLE	TRUE	Run as Sequence
PSTATMODEL	IQUANT	5	Pstat Model
PSTATSECTION	LABEL	REF3000-16137	Pstat Section
PSTATSERIALNO	LABEL	16137	Pstat Serial Number
CTRLMODE	IQUANT	1	Control Mode
IESTAB	IQUANT	0	I/E Stability
CASPEED	IQUANT	1	Control Amp Speed
CONVENTION	IQUANT	1	Current Convention
ICHRANGE	IQUANT	2	Ich Range
ICHRANGEMODE	TOGGLE	F	Ich Auto Range
ICHOFFSETENABLE	TOGGLE	T	Ich Offset Enable
ICHOFFSET	QUANT	0	Ich Offset (V)
ICHFILTER	IQUANT	3	Ich Filter
VCHRANGE	IQUANT	2	Vch Range
VCHRANGEMODE	TOGGLE	F	Vch Auto Range
VCHOFFSETENABLE	TOGGLE	T	Vch Offset Enable
VCHOFFSET	QUANT	0	Vch Offset (V)
VCHFILTER	IQUANT	3	Vch Filter
ACHRANGE	IQUANT	2	Ach Range
ACHOFFSETENABLE	TOGGLE	F	Ach Offset Enable
ACHOFFSET	QUANT	0	Ach Offset (V)
ACHFILTER	IQUANT	3	Ach Filter
IERANGELOWERLIMIT	IQUANT	2	I/E Range Lower Limit
IERANGEMODE	TOGGLE	F	I/E AutoRange
IERANGE	IQUANT	11	I/E Range
POSFEEDENABLE	TOGGLE	F	Positive Feedback IR Comp
POSFEEDRESISTANCE	QUANT	0	Positive Feedback Resistance (ohm)
ACHSELECT	IQUANT	0	Ach Select
CABLEID	IQUANT	13	Cable ID
DCCALDATE	LABEL	7/31/2020	DC Calibration Date
ACCALDATE	LABEL	7/31/2020	AC Calibration Date
THERMOSELECT	IQUANT	1	Thermo Select
FRAMEWORKVERSION	QUANT	6.33	Framework Version
INSTRUMENTVERSION	LABEL	3.50	Instrument Version
COMPLIANCEVOLTAGE	IQUANT	0	Compliance Voltage
ZCURVE	TABLE
	Pt	Time	Freq	Zreal	Zimag	Zsig	Zmod	Zphz	Idc	Vdc	IERange
	#	s	Hz	ohm	ohm	V	ohm	°	A	V	#
	0	20	300046.9	474.3831	-81.27395	1	481.295	-9.72184	8.743491E-005	-0.0027689	9
	1	25	238359.4	488.0549	-72.74165	1	493.446	-8.477188	7.397553E-005	-0.0017473	9
	2	33	189328.1	503.8513	-63.74369	1	507.8675	-7.21035	-1.25654E-005	0.001609	9
	3	42	150421.9	510.9383	-56.24772	1	514.0251	-6.28223	2.24833E-005	-0.0003478	9
	4	49	119484.4	523.4016	-33.69926	1	524.4853	-3.68391	-3.07019E-006	0.0084056	8
	5	52	94921.88	527.2493	-28.44442	1	528.016	-3.088041	7.517145E-006	0.0018118	8
	6	55	75421.88	532.0604	-26.13556	1	532.702	-2.81219	2.354462E-006	-0.0031793	8
	7	57	59859.37	536.343	-24.11375	1	536.8848	-2.57426	1.693977E-005	-0.0051399	8
	8	60	47578.12	541.2212	-23.76369	1	541.7426	-2.514102	2.656117E-006	-0.0037498	8
	9	62	37828.12	546.0587	-22.52527	1	546.5231	-2.362149	7.324445E-006	0.0018532	8
	10	65	30046.88	551.6487	-22.90198	1	552.1239	-2.377298	1.282675E-005	-0.000352	8
	11	67	23859.38	555.4019	-20.58755	1	555.7833	-2.122859	1.507848E-005	-0.0028998	8
	12	70	18984.38	560.9702	-20.52802	1	561.3456	-2.095734	7.691744E-006	-0.0052709	8
	13	72	15046.87	564.8984	-20.20743	1	565.2598	-2.048699	-1.558884E-005	0.0061104	8
	14	75	11953.13	570.7305	-19.8936	1	571.0771	-1.996315	2.991893E-006	-0.0037873	8
	15	77	9515.62	573.7328	-20.8035	1	574.1098	-2.07663	2.944148E-006	-0.003822	8
	16	79	7546.875	579.6074	-20.81421	1	579.981	-2.056658	-1.573481E-005	0.0053934	8
	17	82	5928.309	582.3626	-22.90499	1	582.8129	-2.252347	8.570337E-006	-0.0050679	8
	18	84	4733.456	587.9414	-23.0226	1	588.392	-2.242442	-9.565048E-006	0.0066565	8
	19	86	3796.875	591.4472	-24.43956	1	591.9519	-2.366209	1.608094E-005	-0.0024022	8
	20	89	2987.132	595.285	-27.38198	1	595.9144	-2.633641	-1.172608E-005	0.0015883	8
	21	91	2390.625	601.3011	-28.79189	1	601.99	-2.74138	-1.535834E-005	0.0042506	8
	22	94	1884.191	609.3186	-32.19429	1	610.1685	-3.024499	-1.526698E-005	0.0064792	8
	23	96	1516.544	610.8298	-37.03534	1	611.9515	-3.469663	-1.568031E-005	0.0043465	8
	24	98	1193.986	617.0165	-42.07061	1	618.4492	-3.900614	8.373199E-006	-0.0050606	8
	25	101	946.5144	622.6458	-48.77176	1	624.553	-4.478825	-1.566681E-005	0.0065359	8
	26	103	751.7689	626.5353	-56.97354	1	629.1204	-5.195861	1.721674E-005	-0.0047586	8
	27	106	597.4265	635.1423	-67.98373	1	638.7703	-6.109508	-8.288786E-006	-1.387118E-006	8
	28	108	477.4305	642.7672	-78.23672	1	647.511	-6.939824	-4.140685E-008	0.0006733	8
	29	111	376.6741	651.3489	-93.00465	1	657.9553	-8.126206	-2.093973E-008	0.0006598	8
	30	113	298.2954	660.9132	-110.5421	1	670.0939	-9.495209	-3.729217E-008	0.000686	8
	31	115	237.7717	671.6667	-130.9489	1	684.3126	-11.03206	-3.499908E-008	0.0006678	8
	32	118	189.0121	683.99	-155.5868	1	701.4625	-12.81498	4.784196E-009	0.0006539	8
	33	120	150.2404	698.0598	-184.9747	1	722.1517	-14.84137	-3.227997E-008	0.0006632	8
	34	122	119.1737	714.2095	-220.4331	1	747.453	-17.15228	-4.947878E-008	0.0006794	8
	35	125	95.0169	732.271	-261.8718	1	777.6874	-19.67786	-1.228874E-008	0.0006557	8
	36	127	75.60484	753.1484	-311.8919	1	815.1743	-22.4953	-2.449637E-008	0.0006745	8
	37	130	54.50582	786.9405	-401.3088	1	883.3596	-27.0198	-3.305378E-008	0.0006717	8
	38	132	45.95588	808.776	-458.3841	1	929.6422	-29.54295	-3.504963E-008	0.000654	8
	39	135	37.20238	838.1212	-540.9521	1	997.535	-32.83958	-4.295521E-008	0.0006821	8
	40	137	30.04808	872.1886	-640.4836	1	1082.096	-36.29135	-2.445291E-008	0.0006714	8
	41	139	23.91582	913.8141	-768.0266	1	1193.701	-40.0458	-8.839576E-008	0.0006691	8
	42	142	18.60119	967.102	-939.8134	1	1348.531	-44.18014	-2.299489E-008	0.0006802	8
	43	144	15.02404	1021.741	-1117.578	1	1514.244	-47.565	-1.014782E-007	0.0006749	8
	44	146	12.01923	1087.149	-1340.587	1	1725.997	-50.95967	-4.674333E-008	0.0006661	8
	45	149	9.450605	1171.681	-1632.358	1	2009.336	-54.32981	-3.826969E-009	0.0006777	8
	46	151	7.512019	1267.814	-1973.866	1	2345.954	-57.28737	-1.280138E-008	0.0006628	8
	47	154	5.978954	1382.351	-2383.26	1	2755.145	-59.88519	-3.740865E-008	0.0006545	8
	48	157	4.734848	1526.094	-2895.002	1	3272.613	-62.20415	-3.569853E-008	0.0006644	8
	49	160	3.75601	1695.417	-3511.313	1	3899.199	-64.22669	9.313585E-009	0.0006641	8
	50	164	3.004808	1894.625	-4237.199	1	4641.494	-65.90863	-1.296861E-008	0.000641	7
	51	167	2.372217	2154.959	-5161.841	1	5593.608	-67.34049	-1.913423E-008	0.0005623	7
	52	172	1.878005	2451.732	-6288.714	1	6749.734	-68.70107	-3.482383E-009	0.0006326	7
	53	176	1.512097	2778.412	-7534.724	1	8030.669	-69.75866	-1.862978E-008	0.0006563	7
	54	182	1.201923	3221.958	-9165.123	1	9714.96	-70.6311	-8.37095E-009	0.0006436	7
	55	188	0.956633	3741.616	-11109.98	1	11723.11	-71.38751	-2.850577E-008	-6.556767E-006	7
