EXPLAIN
TAG	EISPOT
TITLE	LABEL	Potentiostatic EIS	Test Identifier
DATE	LABEL	2/28/2021	Date
TIME	LABEL	22:06:54	Time
NOTES	NOTES	1	Notes...
	
PSTAT	PSTAT	REF3000-16137	Potentiostat
VDC	POTEN	0.00000E+000	T	DC Voltage (V)
FREQINIT	QUANT	3.00000E+005	Initial Freq. (Hz)
FREQFINAL	QUANT	1.00000E+000	Final Freq. (Hz)
PTSPERDEC	QUANT	1.00000E+001	Points/decade
VAC	QUANT	5.00000E+001	AC Voltage (mV rms)
AREA	QUANT	1.00000E+000	Sample Area (cm^2)
SPEED	SELECTOR	2	Optimize for:
ZGUESS	QUANT	1.00000E+003	Estimated Z (ohms)
EOC	QUANT	0	Open Circuit (V)
SEQUENCER	TOGGLE	TRUE	Run as Sequence
PSTATMODEL	IQUANT	5	Pstat Model
PSTATSECTION	LABEL	REF3000-16137	Pstat Section
PSTATSERIALNO	LABEL	16137	Pstat Serial Number
CTRLMODE	IQUANT	1	Control Mode
IESTAB	IQUANT	0	I/E Stability
CASPEED	IQUANT	1	Control Amp Speed
CONVENTION	IQUANT	1	Current Convention
ICHRANGE	IQUANT	2	Ich Range
ICHRANGEMODE	TOGGLE	F	Ich Auto Range
ICHOFFSETENABLE	TOGGLE	T	Ich Offset Enable
ICHOFFSET	QUANT	0	Ich Offset (V)
ICHFILTER	IQUANT	3	Ich Filter
VCHRANGE	IQUANT	2	Vch Range
VCHRANGEMODE	TOGGLE	F	Vch Auto Range
VCHOFFSETENABLE	TOGGLE	T	Vch Offset Enable
VCHOFFSET	QUANT	0	Vch Offset (V)
VCHFILTER	IQUANT	3	Vch Filter
ACHRANGE	IQUANT	2	Ach Range
ACHOFFSETENABLE	TOGGLE	F	Ach Offset Enable
ACHOFFSET	QUANT	0	Ach Offset (V)
ACHFILTER	IQUANT	3	Ach Filter
IERANGELOWERLIMIT	IQUANT	2	I/E Range Lower Limit
IERANGEMODE	TOGGLE	F	I/E AutoRange
IERANGE	IQUANT	11	I/E Range
POSFEEDENABLE	TOGGLE	F	Positive Feedback IR Comp
POSFEEDRESISTANCE	QUANT	0	Positive Feedback Resistance (ohm)
ACHSELECT	IQUANT	0	Ach Select
CABLEID	IQUANT	13	Cable ID
DCCALDATE	LABEL	7/31/2020	DC Calibration Date
ACCALDATE	LABEL	7/31/2020	AC Calibration Date
THERMOSELECT	IQUANT	1	Thermo Select
FRAMEWORKVERSION	QUANT	6.33	Framework Version
INSTRUMENTVERSION	LABEL	3.50	Instrument Version
COMPLIANCEVOLTAGE	IQUANT	0	Compliance Voltage
ZCURVE	TABLE
	Pt	Time	Freq	Zreal	Zimag	Zsig	Zmod	Zphz	Idc	Vdc	IERange
	#	s	Hz	ohm	ohm	V	ohm	°	A	V	#
	0	7	300046.9	65.15865	0.2139134	1	65.159	0.1880992	-4.708501E-005	0.0004186	9
	1	10	238359.4	65.48808	-0.2382058	1	65.48852	-0.2084062	1.337308E-005	0.0003384	9
	2	14	189328.1	65.8481	-0.49992	1	65.85	-0.4349823	-2.817306E-005	-0.0003323	9
	3	16	150421.9	66.31467	-0.7284809	1	66.31867	-0.6293811	4.431615E-005	-0.0004971	9
	4	19	119484.4	66.60453	-0.9423314	1	66.6112	-0.8105757	1.017844E-005	0.0007252	9
	5	21	94921.88	67.03152	-0.8794346	1	67.03729	-0.7516613	-1.84708E-005	0.0004803	9
	6	24	75421.88	67.26162	-1.068678	1	67.27011	-0.9102605	1.82757E-005	-0.0001426	9
	7	26	59859.37	67.5621	-1.287742	1	67.57437	-1.091933	-3.010965E-006	-0.00017	9
	8	29	47578.12	67.86203	-1.50751	1	67.87877	-1.272579	2.014622E-005	-0.0005728	9
	9	31	37828.12	68.16904	-1.689329	1	68.18996	-1.419583	-2.60561E-006	-0.0001804	9
	10	34	30046.88	68.47693	-1.903704	1	68.50339	-1.59245	1.132603E-005	0.0001624	9
	11	36	23859.38	68.77749	-2.160095	1	68.8114	-1.798897	2.165004E-005	-0.0006358	9
	12	39	18984.38	69.0682	-2.447014	1	69.11153	-2.029081	1.300027E-005	-0.0005243	9
	13	41	15046.87	69.35896	-2.863575	1	69.41805	-2.364188	-9.098561E-006	6.524739E-005	9
	14	43	11953.13	69.67432	-3.371075	1	69.75582	-2.77	-2.570963E-006	0.0005129	9
	15	45	9515.62	69.99033	-3.914424	1	70.0997	-3.201108	-1.608228E-005	0.0003716	9
	16	48	7546.875	70.36053	-4.638058	1	70.51323	-3.771394	9.115663E-006	0.0001965	9
	17	50	5928.309	70.70492	-5.587311	1	70.92534	-4.518292	-9.05614E-006	6.942671E-005	9
	18	52	4733.456	71.15135	-6.7413	1	71.46999	-5.412384	3.705087E-006	-0.0003431	9
	19	55	3796.875	71.6072	-8.076097	1	72.06119	-6.434816	-9.921775E-006	0.0007504	9
	20	57	2987.132	72.1996	-9.82501	1	72.86504	-7.749282	1.083467E-005	0.00016	9
	21	59	2390.625	72.83593	-11.82017	1	73.78881	-9.217875	-8.292609E-006	2.163051E-005	9
	22	62	1884.191	73.59435	-14.50585	1	75.01032	-11.15038	-1.693347E-005	0.0004775	9
	23	64	1516.544	74.54356	-17.42296	1	76.5526	-13.1555	-3.140214E-006	-0.0001421	9
	24	66	1193.986	75.77159	-21.27676	1	78.70219	-15.68481	-1.061113E-005	0.0007446	9
	25	69	946.5144	77.21136	-25.86612	1	81.4288	-18.52106	1.007965E-005	0.0001513	9
	26	71	751.7689	78.96896	-31.34708	1	84.96314	-21.65082	1.103368E-005	0.0001503	9
	27	73	597.4265	81.07639	-37.86481	1	89.48254	-25.03381	-1.376841E-005	0.0002415	9
	28	76	477.4305	83.65922	-45.59245	1	95.2761	-28.58942	1.396831E-006	0.0000952	9
	29	78	376.6741	86.95045	-55.30258	1	103.0473	-32.45734	1.438062E-006	8.691697E-005	9
	30	80	298.2954	90.89317	-66.77045	1	112.7824	-36.30114	1.448042E-006	9.205587E-005	9
	31	82	237.7717	95.5133	-80.07237	1	124.637	-39.97437	1.301392E-006	0.0001148	9
	32	85	189.0121	101.0844	-96.1299	1	139.4956	-43.56089	1.437638E-006	9.046424E-005	9
	33	87	150.2404	107.6891	-115.3014	1	157.7699	-46.95518	1.447955E-006	9.181489E-005	9
	34	90	119.1737	115.5542	-138.4986	1	180.3736	-50.16057	1.422015E-006	9.155778E-005	9
	35	92	95.0169	124.5742	-165.686	1	207.2935	-53.06161	1.397476E-006	9.399786E-005	9
	36	95	75.60484	135.2567	-198.6401	1	240.317	-55.74854	1.366062E-006	8.926687E-005	9
	37	97	54.50582	153.7542	-257.8942	1	300.2495	-59.19699	1.358354E-006	0.0000952	9
	38	100	45.95588	165.327	-295.8488	1	338.9093	-60.80255	1.485573E-006	9.088388E-005	9
	39	102	37.20238	181.697	-350.8688	1	395.1237	-62.62267	1.396886E-006	9.128442E-005	9
	40	104	30.04808	200.2076	-415.519	1	461.2365	-64.27406	3.69666E-007	0.0006576	8
	41	107	23.91582	224.5056	-500.4956	1	548.5422	-65.84059	3.883138E-007	0.0006755	8
	42	109	18.60119	256.5796	-615.2911	1	666.6454	-67.36361	2.584259E-007	0.0006704	8
	43	111	15.02404	289.39	-733.2816	1	788.32	-68.46329	3.735603E-007	0.0006739	8
	44	114	12.01923	330.0675	-881.9987	1	941.7357	-69.4828	4.087663E-007	0.0006746	8
	45	116	9.450605	382.9394	-1076.412	1	1142.5	-70.41671	3.535374E-007	0.0006555	8
	46	119	7.512019	443.4111	-1303.225	1	1376.593	-71.20957	3.95552E-007	0.000653	8
	47	121	5.978954	516.3085	-1575.621	1	1658.058	-71.85677	3.967425E-007	0.0006707	8
	48	124	4.734848	606.4664	-1916.563	1	2010.228	-72.44084	3.710398E-007	0.0006644	8
	49	128	3.75601	714.6448	-2326.474	1	2433.762	-72.92412	4.024958E-007	0.0006638	8
	50	131	3.004808	841.0463	-2804.603	1	2927.995	-73.30702	3.80255E-007	0.0006995	8
	51	135	2.372217	1001.075	-3419.514	1	3563.036	-73.68242	3.947872E-007	0.0007155	8
	52	139	1.878005	1205.657	-4170.479	1	4341.257	-73.87578	5.489981E-008	0.0006218	7
	53	144	1.512097	1430.972	-5003.182	1	5203.798	-74.03882	5.474727E-008	0.0007393	7
	54	149	1.201923	1712.02	-6078.158	1	6314.667	-74.26919	5.592963E-008	0.0006147	7
	55	155	0.956633	2051.898	-7370.768	1	7651.046	-74.44369	3.173989E-008	5.348581E-006	7
