EXPLAIN
TAG	EISPOT
TITLE	LABEL	Potentiostatic EIS	Test Identifier
DATE	LABEL	2/28/2021	Date
TIME	LABEL	22:17:53	Time
NOTES	NOTES	1	Notes...
	
PSTAT	PSTAT	REF3000-16137	Potentiostat
VDC	POTEN	0.00000E+000	T	DC Voltage (V)
FREQINIT	QUANT	3.00000E+005	Initial Freq. (Hz)
FREQFINAL	QUANT	1.00000E+000	Final Freq. (Hz)
PTSPERDEC	QUANT	1.00000E+001	Points/decade
VAC	QUANT	5.00000E+001	AC Voltage (mV rms)
AREA	QUANT	1.00000E+000	Sample Area (cm^2)
SPEED	SELECTOR	2	Optimize for:
ZGUESS	QUANT	1.00000E+003	Estimated Z (ohms)
EOC	QUANT	0	Open Circuit (V)
SEQUENCER	TOGGLE	TRUE	Run as Sequence
PSTATMODEL	IQUANT	5	Pstat Model
PSTATSECTION	LABEL	REF3000-16137	Pstat Section
PSTATSERIALNO	LABEL	16137	Pstat Serial Number
CTRLMODE	IQUANT	1	Control Mode
IESTAB	IQUANT	0	I/E Stability
CASPEED	IQUANT	1	Control Amp Speed
CONVENTION	IQUANT	1	Current Convention
ICHRANGE	IQUANT	2	Ich Range
ICHRANGEMODE	TOGGLE	F	Ich Auto Range
ICHOFFSETENABLE	TOGGLE	T	Ich Offset Enable
ICHOFFSET	QUANT	0	Ich Offset (V)
ICHFILTER	IQUANT	3	Ich Filter
VCHRANGE	IQUANT	2	Vch Range
VCHRANGEMODE	TOGGLE	F	Vch Auto Range
VCHOFFSETENABLE	TOGGLE	T	Vch Offset Enable
VCHOFFSET	QUANT	0	Vch Offset (V)
VCHFILTER	IQUANT	3	Vch Filter
ACHRANGE	IQUANT	2	Ach Range
ACHOFFSETENABLE	TOGGLE	F	Ach Offset Enable
ACHOFFSET	QUANT	0	Ach Offset (V)
ACHFILTER	IQUANT	3	Ach Filter
IERANGELOWERLIMIT	IQUANT	2	I/E Range Lower Limit
IERANGEMODE	TOGGLE	F	I/E AutoRange
IERANGE	IQUANT	11	I/E Range
POSFEEDENABLE	TOGGLE	F	Positive Feedback IR Comp
POSFEEDRESISTANCE	QUANT	0	Positive Feedback Resistance (ohm)
ACHSELECT	IQUANT	0	Ach Select
CABLEID	IQUANT	13	Cable ID
DCCALDATE	LABEL	7/31/2020	DC Calibration Date
ACCALDATE	LABEL	7/31/2020	AC Calibration Date
THERMOSELECT	IQUANT	1	Thermo Select
FRAMEWORKVERSION	QUANT	6.33	Framework Version
INSTRUMENTVERSION	LABEL	3.50	Instrument Version
COMPLIANCEVOLTAGE	IQUANT	0	Compliance Voltage
ZCURVE	TABLE
	Pt	Time	Freq	Zreal	Zimag	Zsig	Zmod	Zphz	Idc	Vdc	IERange
	#	s	Hz	ohm	ohm	V	ohm	°	A	V	#
	0	7	300046.9	205.0956	-14.58171	1	205.6133	-4.066723	-9.273579E-006	0.0012202	9
	1	10	238359.4	207.6147	-13.17825	1	208.0325	-3.631951	2.885153E-005	0.0003922	9
	2	14	189328.1	210.2301	-11.86175	1	210.5645	-3.229359	-5.776571E-005	0.0006884	9
	3	16	150421.9	211.1938	-10.50969	1	211.4551	-2.848875	-9.025359E-005	0.0032148	9
	4	19	119484.4	213.9379	-10.14729	1	214.1784	-2.715561	5.441681E-006	0.0012742	9
	5	21	94921.88	215.4464	-8.984707	1	215.6337	-2.388007	2.111582E-005	-0.000812	9
	6	24	75421.88	217.2848	-8.486071	1	217.4505	-2.236553	2.614291E-005	-0.000443	9
	7	26	59859.37	219.1701	-7.867609	1	219.3112	-2.05588	8.704371E-007	0.0005684	9
	8	29	47578.12	220.5887	-7.35744	1	220.7114	-1.910315	-1.505819E-005	0.0009539	9
	9	31	37828.12	222.4849	-7.139201	1	222.5994	-1.837904	1.175385E-005	0.0003111	9
	10	34	30046.88	223.9367	-7.067575	1	224.0482	-1.807689	-1.583586E-005	0.0010019	9
	11	36	23859.38	225.7689	-7.156027	1	225.8823	-1.815453	2.683438E-005	-0.0006732	9
	12	38	18984.38	227.2095	-7.276152	1	227.326	-1.834212	2.558417E-005	-0.0007327	9
	13	41	15046.87	229.2756	-7.386137	1	229.3945	-1.845152	-1.341774E-005	2.365396E-005	9
	14	43	11953.13	229.7801	-7.975852	1	229.9185	-1.987985	-1.789831E-005	0.0003148	9
	15	45	9515.62	231.8712	-8.385602	1	232.0228	-2.071194	-2.105852E-005	0.000474	9
	16	48	7546.875	233.4169	-9.232727	1	233.5995	-2.265134	1.098114E-006	0.0005666	9
	17	50	5928.309	235.129	-10.27579	1	235.3535	-2.502392	1.510877E-005	-0.0007488	9
	18	52	4733.456	236.7945	-11.24163	1	237.0612	-2.718031	2.605405E-005	-0.0007669	9
	19	55	3796.875	239.187	-13.01885	1	239.5411	-3.115511	2.683016E-005	-0.00075	9
	20	58	2987.132	241.0719	-14.54918	1	241.5106	-3.453727	1.084068E-005	0.0003034	9
	21	61	2390.625	243.4563	-16.99364	1	244.0487	-3.992862	7.408148E-006	-0.0005972	9
	22	65	1884.191	246.1853	-19.61164	1	246.9652	-4.554685	2.3324E-005	0.0006925	10
	23	68	1516.544	248.4554	-23.54157	1	249.5682	-5.412714	1.543859E-005	-0.0007416	9
	24	72	1193.986	252.0466	-28.15313	1	253.614	-6.373413	5.462487E-007	0.0006415	9
	25	76	946.5144	255.1216	-33.18901	1	257.2714	-7.412035	-2.3407E-005	0.0008522	9
	26	79	751.7689	259.0605	-40.07152	1	262.1413	-8.792836	-1.533727E-005	0.0001388	9
	27	83	597.4265	263.1187	-47.75693	1	267.4176	-10.28739	2.370307E-005	-0.0002236	9
	28	86	477.4305	267.6332	-56.59709	1	273.5521	-11.94057	1.283093E-006	7.98164E-005	9
	29	89	376.6741	272.6255	-68.05234	1	280.9907	-14.01566	1.325364E-006	7.736852E-005	9
	30	91	298.2954	278.3074	-81.64867	1	290.0371	-16.35041	1.316476E-006	7.599689E-005	9
	31	93	237.7717	284.7299	-97.5121	1	300.9646	-18.90492	1.337786E-006	7.680486E-005	9
	32	96	189.0121	292.207	-116.7795	1	314.6782	-21.78394	1.264505E-006	8.644084E-005	9
	33	98	150.2404	300.8246	-139.9401	1	331.7811	-24.94731	1.269622E-006	9.101449E-005	9
	34	101	119.1737	310.8825	-168.1308	1	353.4344	-28.40531	1.212683E-006	9.247579E-005	9
	35	103	95.0169	320.9561	-200.4781	1	378.4234	-31.99004	1.000279E-007	0.0006576	8
	36	106	75.60484	334.3333	-240.7296	1	411.9823	-35.75497	9.339945E-008	0.0006563	8
	37	108	54.50582	356.9414	-313.2302	1	474.8898	-41.26823	8.085234E-008	0.0006572	8
	38	111	45.95588	371.5192	-359.8154	1	517.1979	-44.08315	1.046566E-007	0.0006614	8
	39	113	37.20238	391.8374	-427.3875	1	579.8246	-47.48478	7.706358E-008	0.0006591	8
	40	115	30.04808	415.8167	-509.037	1	657.2839	-50.75566	7.639605E-008	0.0006629	8
	41	118	23.91582	446.0223	-614.1429	1	759.0175	-54.01091	6.094968E-008	0.0006675	8
	42	120	18.60119	485.7185	-755.793	1	898.4128	-57.27274	3.766327E-008	0.0006701	8
	43	122	15.02404	526.5354	-902.1613	1	1044.574	-59.73055	1.660387E-007	0.0006675	8
	44	125	12.01923	576.9563	-1085.806	1	1229.574	-62.01551	1.10471E-007	0.0006679	8
	45	127	9.450605	642.4608	-1326.175	1	1473.6	-64.1523	5.416678E-008	0.0006661	8
	46	130	7.512019	718.9849	-1606.687	1	1760.223	-65.89172	1.041885E-007	0.0006663	8
	47	132	5.978954	809.2294	-1943.81	1	2105.528	-67.39751	1.308564E-007	0.0006559	8
	48	135	4.734848	921.4797	-2362.586	1	2535.929	-68.69272	1.395519E-007	0.0006855	8
	49	138	3.75601	1057.239	-2869.574	1	3058.138	-69.77467	9.508784E-008	0.0006427	8
	50	142	3.004808	1212.286	-3459.527	1	3665.783	-70.68854	1.116831E-007	0.0006615	8
	51	146	2.372217	1418.487	-4223.061	1	4454.924	-71.43328	5.555753E-009	0.0006322	7
	52	150	1.878005	1664.89	-5151.357	1	5413.718	-72.08945	-1.397857E-008	0.0006368	7
	53	155	1.512097	1927.333	-6183.863	1	6477.25	-72.68924	1.471645E-009	0.0005512	7
	54	160	1.201923	2284.214	-7516.671	1	7856.08	-73.09669	-1.007764E-008	0.000634	7
	55	166	0.956633	2700.711	-9113.787	1	9505.52	-73.49374	-9.22045E-009	-5.590202E-006	7
