EXPLAIN
TAG	EISPOT
TITLE	LABEL	Potentiostatic EIS	Test Identifier
DATE	LABEL	2/28/2021	Date
TIME	LABEL	21:53:13	Time
NOTES	NOTES	1	Notes...
	
PSTAT	PSTAT	REF3000-16137	Potentiostat
VDC	POTEN	0.00000E+000	T	DC Voltage (V)
FREQINIT	QUANT	3.00000E+005	Initial Freq. (Hz)
FREQFINAL	QUANT	1.00000E+000	Final Freq. (Hz)
PTSPERDEC	QUANT	1.00000E+001	Points/decade
VAC	QUANT	5.00000E+001	AC Voltage (mV rms)
AREA	QUANT	1.00000E+000	Sample Area (cm^2)
SPEED	SELECTOR	2	Optimize for:
ZGUESS	QUANT	1.00000E+003	Estimated Z (ohms)
EOC	QUANT	0	Open Circuit (V)
SEQUENCER	TOGGLE	TRUE	Run as Sequence
PSTATMODEL	IQUANT	5	Pstat Model
PSTATSECTION	LABEL	REF3000-16137	Pstat Section
PSTATSERIALNO	LABEL	16137	Pstat Serial Number
CTRLMODE	IQUANT	1	Control Mode
IESTAB	IQUANT	0	I/E Stability
CASPEED	IQUANT	1	Control Amp Speed
CONVENTION	IQUANT	1	Current Convention
ICHRANGE	IQUANT	2	Ich Range
ICHRANGEMODE	TOGGLE	F	Ich Auto Range
ICHOFFSETENABLE	TOGGLE	T	Ich Offset Enable
ICHOFFSET	QUANT	0	Ich Offset (V)
ICHFILTER	IQUANT	3	Ich Filter
VCHRANGE	IQUANT	2	Vch Range
VCHRANGEMODE	TOGGLE	F	Vch Auto Range
VCHOFFSETENABLE	TOGGLE	T	Vch Offset Enable
VCHOFFSET	QUANT	0	Vch Offset (V)
VCHFILTER	IQUANT	3	Vch Filter
ACHRANGE	IQUANT	2	Ach Range
ACHOFFSETENABLE	TOGGLE	F	Ach Offset Enable
ACHOFFSET	QUANT	0	Ach Offset (V)
ACHFILTER	IQUANT	3	Ach Filter
IERANGELOWERLIMIT	IQUANT	2	I/E Range Lower Limit
IERANGEMODE	TOGGLE	F	I/E AutoRange
IERANGE	IQUANT	11	I/E Range
POSFEEDENABLE	TOGGLE	F	Positive Feedback IR Comp
POSFEEDRESISTANCE	QUANT	0	Positive Feedback Resistance (ohm)
ACHSELECT	IQUANT	0	Ach Select
CABLEID	IQUANT	13	Cable ID
DCCALDATE	LABEL	7/31/2020	DC Calibration Date
ACCALDATE	LABEL	7/31/2020	AC Calibration Date
THERMOSELECT	IQUANT	1	Thermo Select
FRAMEWORKVERSION	QUANT	6.33	Framework Version
INSTRUMENTVERSION	LABEL	3.50	Instrument Version
COMPLIANCEVOLTAGE	IQUANT	0	Compliance Voltage
ZCURVE	TABLE
	Pt	Time	Freq	Zreal	Zimag	Zsig	Zmod	Zphz	Idc	Vdc	IERange
	#	s	Hz	ohm	ohm	V	ohm	°	A	V	#
	0	6	300046.9	37.61017	1.423384	1	37.6371	2.167365	1.540022E-005	-0.0009819	9
	1	10	238359.4	37.80225	0.991111	1	37.81524	1.501854	1.408023E-006	-0.0013125	9
	2	13	189328.1	38.00475	0.5619223	1	38.00891	0.8470896	1.316011E-005	-0.0006001	9
	3	15	150421.9	38.20251	0.2426692	1	38.20328	0.3639482	6.650422E-006	-0.0009376	9
	4	18	119484.4	38.32767	0.0268975	1	38.32768	0.040209	-8.899307E-006	-0.0006123	9
	5	20	94921.88	38.51902	-0.0675788	1	38.51908	-0.1005212	2.009093E-005	-0.0005115	9
	6	23	75421.88	38.65252	-0.3078598	1	38.65374	-0.4563402	1.805485E-005	-0.0005186	9
	7	25	59859.37	38.7936	-0.5396025	1	38.79735	-0.7969086	-1.152848E-005	0.0003089	9
	8	28	47578.12	38.93284	-0.7478771	1	38.94003	-1.100483	-1.41826E-005	0.0003574	9
	9	30	37828.12	39.0753	-0.968979	1	39.08731	-1.420514	8.932202E-006	-0.0004023	9
	10	33	30046.88	39.23589	-1.214787	1	39.25469	-1.773374	-2.17717E-006	0.0004532	9
	11	35	23859.38	39.39281	-1.487638	1	39.42089	-2.162701	1.777282E-005	-0.0003401	9
	12	38	18984.38	39.5567	-1.804269	1	39.59782	-2.611578	-1.495445E-005	0.0004698	9
	13	40	15046.87	39.73552	-2.188837	1	39.79576	-3.15296	1.477204E-005	-0.0004095	9
	14	42	11953.13	39.89587	-2.636933	1	39.98292	-3.781487	3.369533E-006	-0.0002326	9
	15	45	9515.62	40.11939	-3.173731	1	40.24473	-4.523086	1.83209E-005	-0.0003801	9
	16	47	7546.875	40.35212	-3.827432	1	40.53323	-5.418341	2.885587E-006	0.0002508	9
	17	49	5928.309	40.63744	-4.686863	1	40.90682	-6.579062	-2.288986E-006	-8.166461E-005	9
	18	52	4733.456	40.96532	-5.658011	1	41.35421	-7.863774	3.476949E-006	0.0002727	9
	19	54	3796.875	41.30548	-6.813949	1	41.86374	-9.367418	1.011883E-005	0.0001198	9
	20	56	2987.132	41.7942	-8.321008	1	42.61449	-11.26005	-2.829101E-006	-7.491478E-005	9
	21	58	2390.625	42.32666	-10.03209	1	43.4993	-13.33396	3.071515E-006	-0.000261	9
	22	61	1884.191	43.00318	-12.20978	1	44.70293	-15.8507	-7.747522E-006	0.0005566	9
	23	63	1516.544	43.7761	-14.64647	1	46.16131	-18.49905	8.31758E-006	-0.0003546	9
	24	65	1193.986	44.7953	-17.87117	1	48.2286	-21.74962	3.48565E-006	0.0002838	9
	25	68	946.5144	46.01017	-21.64347	1	50.84658	-25.19258	1.354037E-005	-0.0004268	9
	26	70	751.7689	47.46165	-26.10385	1	54.16659	-28.81074	1.484751E-005	-0.0001031	9
	27	73	597.4265	49.28918	-31.49341	1	58.49152	-32.57662	-2.427303E-006	0.0004499	9
	28	75	477.4305	51.41493	-37.70635	1	63.75942	-36.25533	1.582582E-006	8.095369E-005	9
	29	77	376.6741	54.12477	-45.58755	1	70.76521	-40.10635	1.502988E-006	7.643108E-005	9
	30	79	298.2954	57.33232	-54.8903	1	79.37215	-43.75341	1.575722E-006	8.265489E-005	9
	31	82	237.7717	61.04243	-65.6974	1	89.67902	-47.10344	1.54328E-006	8.099017E-005	9
	32	84	189.0121	65.48092	-78.77855	1	102.4393	-50.26656	1.482067E-006	8.123543E-005	9
	33	87	150.2404	70.71407	-94.45815	1	117.995	-53.18042	1.270171E-006	0.0001169	9
	34	89	119.1737	76.9136	-113.5092	1	137.1132	-55.87851	1.512338E-006	8.531799E-005	9
	35	91	95.0169	84.04646	-135.9086	1	159.7966	-58.26718	1.493676E-006	8.47343E-005	9
	36	94	75.60484	92.51749	-163.1564	1	187.562	-60.44469	1.502927E-006	8.342315E-005	9
	37	96	54.50582	107.336	-212.2705	1	237.8651	-63.17625	1.519858E-006	7.843306E-005	9
	38	99	45.95588	116.6894	-243.8084	1	270.2942	-64.42371	1.538624E-006	8.682148E-005	9
	39	101	37.20238	130.0146	-289.4552	1	317.3138	-65.81181	1.565086E-006	8.323743E-005	9
	40	104	30.04808	145.9109	-344.5887	1	374.2076	-67.05051	1.573978E-006	7.917185E-005	9
	41	106	23.91582	165.4132	-413.7596	1	445.5991	-68.20941	5.468946E-007	0.000649	8
	42	108	18.60119	191.9977	-508.7855	1	543.8068	-69.32526	4.041953E-007	0.0006671	8
	43	111	15.02404	219.3864	-606.5245	1	644.9825	-70.1144	5.117649E-007	0.0006737	8
	44	113	12.01923	253.6188	-729.4165	1	772.2505	-70.82738	5.953136E-007	0.0006644	8
	45	115	9.450605	297.7634	-890.1605	1	938.642	-71.50464	5.783619E-007	0.0006492	8
	46	118	7.512019	349.2838	-1076.599	1	1131.841	-72.02525	5.826727E-007	0.0006723	8
	47	121	5.978954	410.4248	-1301.829	1	1364.993	-72.50161	5.423196E-007	0.0006589	8
	48	124	4.734848	486.2188	-1581.117	1	1654.189	-72.9065	5.700174E-007	0.0006902	8
	49	127	3.75601	578.5065	-1917.856	1	2003.207	-73.21446	5.027616E-007	0.0006435	8
	50	130	3.004808	686.0134	-2309.043	1	2408.795	-73.45339	5.472447E-007	0.0006394	8
	51	134	2.372217	825.0095	-2809.717	1	2928.336	-73.63632	5.476948E-007	0.0006539	8
	52	138	1.878005	997.724	-3419.845	1	3562.414	-73.73564	5.361958E-007	0.0006639	8
	53	143	1.512097	1186.807	-4098.739	1	4267.104	-73.8514	5.506573E-007	0.0005558	8
	54	148	1.201923	1436.677	-4977.868	1	5181.043	-73.90118	9.121396E-008	0.0006455	7
	55	155	0.956633	1729.657	-6020.749	1	6264.274	-73.97156	8.863805E-008	-1.514545E-005	7
