EXPLAIN
TAG	EISPOT
TITLE	LABEL	Potentiostatic EIS	Test Identifier
DATE	LABEL	2/28/2021	Date
TIME	LABEL	21:58:41	Time
NOTES	NOTES	1	Notes...
	
PSTAT	PSTAT	REF3000-16137	Potentiostat
VDC	POTEN	0.00000E+000	T	DC Voltage (V)
FREQINIT	QUANT	3.00000E+005	Initial Freq. (Hz)
FREQFINAL	QUANT	1.00000E+000	Final Freq. (Hz)
PTSPERDEC	QUANT	1.00000E+001	Points/decade
VAC	QUANT	5.00000E+001	AC Voltage (mV rms)
AREA	QUANT	1.00000E+000	Sample Area (cm^2)
SPEED	SELECTOR	2	Optimize for:
ZGUESS	QUANT	1.00000E+003	Estimated Z (ohms)
EOC	QUANT	0	Open Circuit (V)
SEQUENCER	TOGGLE	TRUE	Run as Sequence
PSTATMODEL	IQUANT	5	Pstat Model
PSTATSECTION	LABEL	REF3000-16137	Pstat Section
PSTATSERIALNO	LABEL	16137	Pstat Serial Number
CTRLMODE	IQUANT	1	Control Mode
IESTAB	IQUANT	0	I/E Stability
CASPEED	IQUANT	1	Control Amp Speed
CONVENTION	IQUANT	1	Current Convention
ICHRANGE	IQUANT	2	Ich Range
ICHRANGEMODE	TOGGLE	F	Ich Auto Range
ICHOFFSETENABLE	TOGGLE	T	Ich Offset Enable
ICHOFFSET	QUANT	0	Ich Offset (V)
ICHFILTER	IQUANT	3	Ich Filter
VCHRANGE	IQUANT	2	Vch Range
VCHRANGEMODE	TOGGLE	F	Vch Auto Range
VCHOFFSETENABLE	TOGGLE	T	Vch Offset Enable
VCHOFFSET	QUANT	0	Vch Offset (V)
VCHFILTER	IQUANT	3	Vch Filter
ACHRANGE	IQUANT	2	Ach Range
ACHOFFSETENABLE	TOGGLE	F	Ach Offset Enable
ACHOFFSET	QUANT	0	Ach Offset (V)
ACHFILTER	IQUANT	3	Ach Filter
IERANGELOWERLIMIT	IQUANT	2	I/E Range Lower Limit
IERANGEMODE	TOGGLE	F	I/E AutoRange
IERANGE	IQUANT	11	I/E Range
POSFEEDENABLE	TOGGLE	F	Positive Feedback IR Comp
POSFEEDRESISTANCE	QUANT	0	Positive Feedback Resistance (ohm)
ACHSELECT	IQUANT	0	Ach Select
CABLEID	IQUANT	13	Cable ID
DCCALDATE	LABEL	7/31/2020	DC Calibration Date
ACCALDATE	LABEL	7/31/2020	AC Calibration Date
THERMOSELECT	IQUANT	1	Thermo Select
FRAMEWORKVERSION	QUANT	6.33	Framework Version
INSTRUMENTVERSION	LABEL	3.50	Instrument Version
COMPLIANCEVOLTAGE	IQUANT	0	Compliance Voltage
ZCURVE	TABLE
	Pt	Time	Freq	Zreal	Zimag	Zsig	Zmod	Zphz	Idc	Vdc	IERange
	#	s	Hz	ohm	ohm	V	ohm	°	A	V	#
	0	7	300046.9	46.07114	1.134463	1	46.08511	1.410575	5.707356E-005	-0.002249	9
	1	10	238359.4	46.36399	0.718588	1	46.36956	0.887947	5.325714E-005	-0.0022063	9
	2	13	189328.1	46.61289	0.3102257	1	46.61393	0.3813185	-1.826831E-007	0.0004944	9
	3	16	150421.9	46.87638	-0.0103176	1	46.87638	-0.0126109	-1.570931E-005	-0.0005009	9
	4	18	119484.4	47.03419	-0.2472484	1	47.03484	-0.3011885	-4.366435E-006	0.0005978	9
	5	21	94921.88	47.30057	-0.2779922	1	47.30139	-0.3367316	1.708057E-005	-0.0002035	9
	6	23	75421.88	47.46574	-0.511727	1	47.4685	-0.6176804	-8.291668E-006	4.896207E-006	9
	7	26	59859.37	47.64885	-0.7334653	1	47.6545	-0.8818922	-1.324231E-005	0.000281	9
	8	28	47578.12	47.82563	-0.9417769	1	47.8349	-1.128116	4.513548E-006	0.000295	9
	9	31	37828.12	48.01954	-1.181431	1	48.03407	-1.409372	1.864584E-005	-0.0004629	9
	10	33	30046.88	48.22724	-1.422429	1	48.24821	-1.689409	3.102501E-006	-0.0002925	9
	11	36	23859.38	48.41762	-1.683917	1	48.44689	-1.991888	1.372214E-005	-0.0004866	9
	12	38	18984.38	48.61839	-1.998534	1	48.65944	-2.353906	-9.105609E-006	0.000571	9
	13	40	15046.87	48.82218	-2.393172	1	48.8808	-2.806286	1.588915E-005	-0.0001467	9
	14	43	11953.13	49.01601	-2.850671	1	49.09883	-3.328456	1.338248E-005	3.945058E-005	9
	15	45	9515.62	49.2872	-3.40693	1	49.40482	-3.954225	1.450013E-005	-0.0005155	9
	16	47	7546.875	49.55534	-4.124473	1	49.72669	-4.757741	4.375567E-006	0.0003159	9
	17	50	5928.309	49.86366	-4.995875	1	50.11331	-5.721411	-8.062568E-006	7.140321E-005	9
	18	52	4733.456	50.21104	-6.034172	1	50.57232	-6.852726	-8.300362E-006	0.000603	9
	19	54	3796.875	50.59638	-7.205657	1	51.1069	-8.105245	-1.483389E-005	0.0005901	9
	20	57	2987.132	51.11203	-8.857022	1	51.87376	-9.83096	-1.541111E-005	0.0006331	9
	21	59	2390.625	51.68893	-10.66936	1	52.7786	-11.6629	-1.319972E-005	0.0006255	9
	22	61	1884.191	52.38808	-13.02508	1	53.983	-13.96217	-1.177568E-005	0.0002161	9
	23	63	1516.544	53.21291	-15.58901	1	55.44936	-16.32823	1.641382E-005	-0.0001267	9
	24	66	1193.986	54.32383	-19.03861	1	57.56342	-19.31379	-8.60604E-006	0.0006239	9
	25	68	946.5144	55.63339	-23.10663	1	60.2411	-22.55494	1.827703E-005	-0.000487	9
	26	71	751.7689	57.20697	-27.89104	1	63.64391	-25.99137	-2.806344E-006	-0.0001017	9
	27	73	597.4265	59.12938	-33.67718	1	68.0473	-29.66371	1.050602E-005	8.866878E-005	9
	28	75	477.4305	61.41089	-40.37183	1	73.49274	-33.32113	1.469223E-006	7.586675E-005	9
	29	78	376.6741	64.33046	-48.85192	1	80.77696	-37.21268	1.433895E-006	7.187373E-005	9
	30	80	298.2954	67.79436	-58.86118	1	89.78148	-40.96553	1.384157E-006	8.477295E-005	9
	31	82	237.7717	71.8205	-70.47782	1	100.6246	-44.45939	1.483295E-006	7.540988E-005	9
	32	85	189.0121	76.64289	-84.5233	1	114.0979	-47.79932	1.410688E-006	7.978078E-005	9
	33	87	150.2404	82.32948	-101.3278	1	130.5583	-50.90592	1.441903E-006	7.527886E-005	9
	34	89	119.1737	89.08752	-121.7157	1	150.8353	-53.79843	1.476013E-006	7.538615E-005	9
	35	92	95.0169	96.843	-145.6727	1	174.926	-56.38411	1.487033E-006	7.65037E-005	9
	36	94	75.60484	106.0204	-174.7589	1	204.404	-58.7562	1.436212E-006	7.896265E-005	9
	37	97	54.50582	122.0365	-227.1588	1	257.8643	-61.75398	1.476012E-006	7.618697E-005	9
	38	99	45.95588	132.1154	-260.808	1	292.3615	-63.13497	1.556779E-006	0.0000989	9
	39	102	37.20238	146.4469	-309.5019	1	342.4005	-64.67791	1.537373E-006	8.425322E-005	9
	40	104	30.04808	163.4604	-368.3492	1	402.9894	-66.07005	1.551884E-006	7.684121E-005	9
	41	106	23.91582	184.1931	-442.1151	1	478.9498	-67.38251	4.352939E-007	0.0006567	8
	42	109	18.60119	212.6518	-543.5184	1	583.6378	-68.63206	3.674795E-007	0.0006656	8
	43	111	15.02404	241.7273	-648.1022	1	691.7142	-69.54563	5.238865E-007	0.0006621	8
	44	113	12.01923	278.1241	-779.1918	1	827.3408	-70.35653	4.183223E-007	0.0006534	8
	45	116	9.450605	325.4221	-951.157	1	1005.286	-71.1125	4.009939E-007	0.0006555	8
	46	118	7.512019	379.4243	-1150.62	1	1211.564	-71.74969	4.156352E-007	0.0006529	8
	47	121	5.978954	444.7404	-1391.331	1	1460.683	-72.27346	4.947258E-007	0.0006571	8
	48	124	4.734848	525.3788	-1691.65	1	1771.357	-72.74668	4.680243E-007	0.0006431	8
	49	127	3.75601	623.0146	-2052.149	1	2144.636	-73.11217	5.034413E-007	0.0006648	8
	50	131	3.004808	737.0409	-2471.303	1	2578.87	-73.39333	4.691313E-007	0.000689	8
	51	134	2.372217	883.8052	-3013.401	1	3140.334	-73.65403	4.857186E-007	0.000725	8
	52	139	1.878005	1062.576	-3661.528	1	3812.592	-73.81727	4.77323E-007	0.0006278	8
	53	143	1.512097	1268.001	-4390.859	1	4570.281	-73.89223	8.804169E-008	0.0006813	7
	54	149	1.201923	1522.88	-5335.887	1	5548.95	-74.07108	7.980659E-008	0.0005996	7
	55	155	0.956633	1833.661	-6462.955	1	6718.042	-74.16037	6.210783E-008	-1.676184E-005	7
