EXPLAIN
TAG	EISPOT
TITLE	LABEL	Potentiostatic EIS	Test Identifier
DATE	LABEL	2/28/2021	Date
TIME	LABEL	22:46:28	Time
NOTES	NOTES	1	Notes...
	
PSTAT	PSTAT	REF3000-16137	Potentiostat
VDC	POTEN	0.00000E+000	T	DC Voltage (V)
FREQINIT	QUANT	3.00000E+005	Initial Freq. (Hz)
FREQFINAL	QUANT	1.00000E+000	Final Freq. (Hz)
PTSPERDEC	QUANT	1.00000E+001	Points/decade
VAC	QUANT	5.00000E+001	AC Voltage (mV rms)
AREA	QUANT	1.00000E+000	Sample Area (cm^2)
SPEED	SELECTOR	2	Optimize for:
ZGUESS	QUANT	1.00000E+003	Estimated Z (ohms)
EOC	QUANT	0	Open Circuit (V)
SEQUENCER	TOGGLE	TRUE	Run as Sequence
PSTATMODEL	IQUANT	5	Pstat Model
PSTATSECTION	LABEL	REF3000-16137	Pstat Section
PSTATSERIALNO	LABEL	16137	Pstat Serial Number
CTRLMODE	IQUANT	1	Control Mode
IESTAB	IQUANT	0	I/E Stability
CASPEED	IQUANT	1	Control Amp Speed
CONVENTION	IQUANT	1	Current Convention
ICHRANGE	IQUANT	2	Ich Range
ICHRANGEMODE	TOGGLE	F	Ich Auto Range
ICHOFFSETENABLE	TOGGLE	T	Ich Offset Enable
ICHOFFSET	QUANT	0	Ich Offset (V)
ICHFILTER	IQUANT	3	Ich Filter
VCHRANGE	IQUANT	2	Vch Range
VCHRANGEMODE	TOGGLE	F	Vch Auto Range
VCHOFFSETENABLE	TOGGLE	T	Vch Offset Enable
VCHOFFSET	QUANT	0	Vch Offset (V)
VCHFILTER	IQUANT	3	Vch Filter
ACHRANGE	IQUANT	2	Ach Range
ACHOFFSETENABLE	TOGGLE	F	Ach Offset Enable
ACHOFFSET	QUANT	0	Ach Offset (V)
ACHFILTER	IQUANT	3	Ach Filter
IERANGELOWERLIMIT	IQUANT	2	I/E Range Lower Limit
IERANGEMODE	TOGGLE	F	I/E AutoRange
IERANGE	IQUANT	11	I/E Range
POSFEEDENABLE	TOGGLE	F	Positive Feedback IR Comp
POSFEEDRESISTANCE	QUANT	0	Positive Feedback Resistance (ohm)
ACHSELECT	IQUANT	0	Ach Select
CABLEID	IQUANT	13	Cable ID
DCCALDATE	LABEL	7/31/2020	DC Calibration Date
ACCALDATE	LABEL	7/31/2020	AC Calibration Date
THERMOSELECT	IQUANT	1	Thermo Select
FRAMEWORKVERSION	QUANT	6.33	Framework Version
INSTRUMENTVERSION	LABEL	3.50	Instrument Version
COMPLIANCEVOLTAGE	IQUANT	0	Compliance Voltage
ZCURVE	TABLE
	Pt	Time	Freq	Zreal	Zimag	Zsig	Zmod	Zphz	Idc	Vdc	IERange
	#	s	Hz	ohm	ohm	V	ohm	°	A	V	#
	0	18	300046.9	1618.813	-2021.448	1	2589.75	-51.31161	5.125539E-005	2.007951E-005	9
	1	32	238359.4	2033.462	-2180.573	1	2981.588	-46.99937	-3.67004E-007	0.0014807	9
	2	46	189328.1	2331.239	-2194.135	1	3201.39	-43.26465	1.832595E-005	-0.0019608	9
	3	54	150421.9	3028.158	-2522.382	1	3941.085	-39.79347	5.034327E-005	0.000142	9
	4	62	119484.4	3514.263	-2233.025	1	4163.706	-32.4326	6.621787E-005	-0.013482	8
	5	69	94921.88	3983.326	-2104.036	1	4504.87	-27.8435	-1.727908E-005	0.0105219	8
	6	77	75421.88	4386.498	-2013.899	1	4826.712	-24.66048	2.587222E-005	-0.0071861	8
	7	84	59859.37	4777.19	-1863.759	1	5127.879	-21.3126	2.420951E-005	-0.0084689	8
	8	92	47578.12	5134.097	-1664.001	1	5397.022	-17.95792	-2.002236E-005	0.0031747	8
	9	99	37828.12	5457.307	-1510.928	1	5662.606	-15.47546	-2.278118E-005	0.0053628	8
	10	107	30046.88	5705.342	-1373.84	1	5868.421	-13.53901	1.464476E-005	-0.0085402	8
	11	114	23859.38	5959.785	-1237.236	1	6086.854	-11.72787	6.636707E-006	-0.0069014	8
	12	119	18984.38	6242.023	-792.6559	1	6292.15	-7.237086	4.806211E-006	-0.0223545	7
	13	122	15046.87	6382.843	-729.7871	1	6424.428	-6.522631	-6.118139E-006	0.0192794	7
	14	125	11953.13	6473.345	-655.5865	1	6506.457	-5.7829	1.86465E-006	0.0085037	7
	15	128	9515.62	6585.437	-596.8961	1	6612.432	-5.17907	-6.085096E-006	0.0151566	7
	16	131	7546.875	6716.994	-556.7566	1	6740.028	-4.738287	6.197691E-006	-0.0142906	7
	17	135	5928.309	6875.789	-547.8295	1	6897.578	-4.555427	-1.854558E-006	0.0192636	7
	18	140	4733.456	6976.794	-486.2087	1	6993.716	-3.986464	-4.893349E-007	-0.0121263	7
	19	144	3796.875	7072.272	-471.5749	1	7087.977	-3.814802	3.814699E-006	0.0009703	7
	20	147	2987.132	7251.01	-468.635	1	7266.138	-3.697901	-1.85609E-006	0.0193009	7
	21	151	2390.625	7372.705	-458.7228	1	7386.962	-3.5603	5.400963E-006	-0.0071921	7
	22	155	1884.191	7499.463	-448.1038	1	7512.838	-3.41944	-4.7137E-006	0.0225412	7
	23	159	1516.544	7640.429	-445.8949	1	7653.429	-3.339989	-4.729255E-006	0.0225794	7
	24	163	1193.986	7771.43	-413.7951	1	7782.439	-3.047875	3.896415E-006	0.0007249	7
	25	168	946.5144	7878.239	-424.1301	1	7889.647	-3.08158	-1.879331E-006	0.0195426	7
	26	170	751.7689	8057.334	-473.725	1	8071.248	-3.364789	-5.48755E-006	0.0093229	7
	27	173	597.4265	8121.988	-429.1876	1	8133.32	-3.024849	-5.711813E-006	0.0217274	7
	28	175	477.4305	8238.816	-421.3335	1	8249.583	-2.927559	-5.669176E-008	0.0006717	7
	29	178	376.6741	8339.628	-430.9698	1	8350.756	-2.958262	-5.608674E-008	0.0006604	7
	30	180	298.2954	8437.313	-448.7098	1	8449.235	-3.044214	-5.585926E-008	0.0005933	7
	31	182	237.7717	8537.426	-475.3878	1	8550.651	-3.187098	-5.846076E-008	0.0006786	7
	32	185	189.0121	8638.666	-513.5668	1	8653.918	-3.402217	-4.556633E-008	0.0005993	7
	33	187	150.2404	8742.999	-565.2806	1	8761.254	-3.699322	-5.353799E-008	0.0006753	7
	34	190	119.1737	8852.448	-630.0089	1	8874.838	-4.070749	-4.485536E-008	0.0005941	7
	35	192	95.0169	8965.57	-712.0309	1	8993.8	-4.540806	-5.931012E-008	0.0006086	7
	36	195	75.60484	9091.392	-815.4346	1	9127.888	-5.125319	-5.903868E-008	0.0006074	7
	37	197	54.50582	9254.311	-1002.456	1	9308.447	-6.182353	-6.848024E-008	0.0006664	7
	38	200	45.95588	9383.861	-1118.165	1	9450.246	-6.795227	-3.738082E-008	0.0006506	7
	39	202	37.20238	9530.4	-1291.492	1	9617.51	-7.717303	-7.264247E-008	0.0006654	7
	40	204	30.04808	9699.45	-1493.198	1	9813.71	-8.751789	-4.218331E-008	0.0005833	7
	41	207	23.91582	9887.83	-1754.863	1	10042.34	-10.0639	-2.275759E-008	0.0006648	7
	42	209	18.60119	10120.12	-2106.572	1	10337.04	-11.7586	-1.439293E-007	0.0006365	7
	43	211	15.02404	10341.97	-2409.609	1	10618.97	-13.11554	-2.53545E-008	0.0006065	7
	44	214	12.01923	10611.38	-2807.87	1	10976.59	-14.82131	4.03465E-009	0.0006291	7
	45	216	9.450605	10906.59	-3344.056	1	11407.73	-17.046	-2.271376E-008	0.0006403	7
	46	219	7.512019	11209.62	-3972.164	1	11892.59	-19.51194	-4.796444E-009	0.0006414	7
	47	221	5.978954	11615.59	-4687.052	1	12525.59	-21.97477	-4.911539E-008	0.0006549	7
	48	224	4.734848	12052.55	-5591.183	1	13286.29	-24.88659	-3.430642E-008	0.000668	7
	49	227	3.75601	12538.22	-6658.531	1	14196.58	-27.97092	-7.458726E-008	0.0006563	7
	50	231	3.004808	13091.99	-7879.063	1	15280.05	-31.04051	-5.263345E-008	0.0006585	7
	51	235	2.372217	13762.1	-9473.907	1	16707.79	-34.54374	-6.515803E-008	0.000619	7
	52	239	1.878005	14533.42	-11378.11	1	18457.56	-38.05713	-6.107881E-008	0.0006417	7
	53	244	1.512097	15382.6	-13511.67	1	20474.12	-41.29522	-5.72279E-008	0.0005248	7
	54	249	1.201923	16417.12	-16296.48	1	23132.17	-44.78872	-5.891944E-008	0.0006522	7
	55	255	0.956633	17627.63	-19651.79	1	26399.36	-48.10794	-6.20547E-008	-6.683629E-006	7
