EXPLAIN
TAG	EISPOT
TITLE	LABEL	Potentiostatic EIS	Test Identifier
DATE	LABEL	2/28/2021	Date
TIME	LABEL	22:37:36	Time
NOTES	NOTES	1	Notes...
	
PSTAT	PSTAT	REF3000-16137	Potentiostat
VDC	POTEN	0.00000E+000	T	DC Voltage (V)
FREQINIT	QUANT	3.00000E+005	Initial Freq. (Hz)
FREQFINAL	QUANT	1.00000E+000	Final Freq. (Hz)
PTSPERDEC	QUANT	1.00000E+001	Points/decade
VAC	QUANT	5.00000E+001	AC Voltage (mV rms)
AREA	QUANT	1.00000E+000	Sample Area (cm^2)
SPEED	SELECTOR	2	Optimize for:
ZGUESS	QUANT	1.00000E+003	Estimated Z (ohms)
EOC	QUANT	0	Open Circuit (V)
SEQUENCER	TOGGLE	TRUE	Run as Sequence
PSTATMODEL	IQUANT	5	Pstat Model
PSTATSECTION	LABEL	REF3000-16137	Pstat Section
PSTATSERIALNO	LABEL	16137	Pstat Serial Number
CTRLMODE	IQUANT	1	Control Mode
IESTAB	IQUANT	0	I/E Stability
CASPEED	IQUANT	1	Control Amp Speed
CONVENTION	IQUANT	1	Current Convention
ICHRANGE	IQUANT	2	Ich Range
ICHRANGEMODE	TOGGLE	F	Ich Auto Range
ICHOFFSETENABLE	TOGGLE	T	Ich Offset Enable
ICHOFFSET	QUANT	0	Ich Offset (V)
ICHFILTER	IQUANT	3	Ich Filter
VCHRANGE	IQUANT	2	Vch Range
VCHRANGEMODE	TOGGLE	F	Vch Auto Range
VCHOFFSETENABLE	TOGGLE	T	Vch Offset Enable
VCHOFFSET	QUANT	0	Vch Offset (V)
VCHFILTER	IQUANT	3	Vch Filter
ACHRANGE	IQUANT	2	Ach Range
ACHOFFSETENABLE	TOGGLE	F	Ach Offset Enable
ACHOFFSET	QUANT	0	Ach Offset (V)
ACHFILTER	IQUANT	3	Ach Filter
IERANGELOWERLIMIT	IQUANT	2	I/E Range Lower Limit
IERANGEMODE	TOGGLE	F	I/E AutoRange
IERANGE	IQUANT	11	I/E Range
POSFEEDENABLE	TOGGLE	F	Positive Feedback IR Comp
POSFEEDRESISTANCE	QUANT	0	Positive Feedback Resistance (ohm)
ACHSELECT	IQUANT	0	Ach Select
CABLEID	IQUANT	13	Cable ID
DCCALDATE	LABEL	7/31/2020	DC Calibration Date
ACCALDATE	LABEL	7/31/2020	AC Calibration Date
THERMOSELECT	IQUANT	1	Thermo Select
FRAMEWORKVERSION	QUANT	6.33	Framework Version
INSTRUMENTVERSION	LABEL	3.50	Instrument Version
COMPLIANCEVOLTAGE	IQUANT	0	Compliance Voltage
ZCURVE	TABLE
	Pt	Time	Freq	Zreal	Zimag	Zsig	Zmod	Zphz	Idc	Vdc	IERange
	#	s	Hz	ohm	ohm	V	ohm	°	A	V	#
	0	14	300046.9	1184.079	-570.1846	1	1314.212	-25.7128	-2.006717E-005	0.0014915	9
	1	30	238359.4	1292.963	-524.9269	1	1395.458	-22.09654	-1.914199E-005	0.0010106	9
	2	43	189328.1	1389.843	-483.8716	1	1471.664	-19.19547	2.579037E-005	0.0009381	9
	3	49	150421.9	1444.699	-419.8604	1	1504.473	-16.20499	-1.3739E-005	0.0018074	9
	4	55	119484.4	1545.438	-329.5559	1	1580.185	-12.0377	-2.931129E-006	0.0132402	8
	5	62	94921.88	1594.527	-290.4081	1	1620.757	-10.32203	-2.48911E-006	-0.003517	8
	6	65	75421.88	1629.014	-249.8722	1	1648.067	-8.720552	2.145508E-005	-0.0075445	8
	7	69	59859.37	1673.733	-221.2277	1	1688.29	-7.529495	-1.832254E-005	0.0032548	8
	8	72	47578.12	1699.868	-193.5879	1	1710.856	-6.497084	-1.488027E-005	0.0014024	8
	9	79	37828.12	1745.479	-182.0434	1	1754.946	-5.954094	8.837551E-006	0.0028537	8
	10	81	30046.88	1763.001	-154.3453	1	1769.744	-5.003312	-2.065889E-005	0.0051819	8
	11	85	23859.38	1786.904	-139.6788	1	1792.354	-4.469612	-2.022764E-005	0.0050821	8
	12	89	18984.38	1817.864	-130.5331	1	1822.544	-4.107118	2.089104E-005	-0.0029596	8
	13	92	15046.87	1837.492	-116.3159	1	1841.17	-3.622074	-1.490362E-005	0.0014278	8
	14	95	11953.13	1862.389	-113.1926	1	1865.825	-3.478056	2.152499E-005	-0.0075217	8
	15	98	9515.62	1887.549	-103.8593	1	1890.404	-3.14943	-9.629538E-006	-0.0009913	8
	16	102	7546.875	1911.61	-101.3927	1	1914.297	-3.036149	-9.836837E-006	-0.0009855	8
	17	105	5928.309	1928.365	-100.0947	1	1930.962	-2.971355	3.681214E-007	0.0059672	8
	18	109	4733.456	1966.851	-95.3277	1	1969.16	-2.774793	1.235939E-005	-0.0073945	8
	19	113	3796.875	1993.653	-97.3966	1	1996.031	-2.796868	-1.915401E-005	0.0092715	8
	20	118	2987.132	2024.797	-96.4038	1	2027.091	-2.725884	5.180339E-006	-0.0058996	8
	21	122	2390.625	2049.153	-97.9741	1	2051.494	-2.73734	1.638948E-005	-0.0003296	8
	22	126	1884.191	2083.488	-93.0448	1	2085.564	-2.557027	2.329136E-005	-0.0065245	8
	23	130	1516.544	2119.579	-102.1858	1	2122.041	-2.760116	2.288513E-005	-0.0047965	8
	24	134	1193.986	2132.672	-112.9776	1	2135.662	-3.032391	2.103943E-005	-0.0029725	8
	25	139	946.5144	2174.505	-96.9814	1	2176.667	-2.55366	2.10757E-005	-0.0029401	8
	26	141	751.7689	2186.899	-100.7664	1	2189.219	-2.638168	1.25732E-005	-0.0075055	8
	27	144	597.4265	2226.871	-125.6025	1	2230.41	-3.228241	2.844479E-007	0.0060543	8
	28	147	477.4305	2228.045	-142.6601	1	2232.607	-3.663607	-1.268329E-007	0.000662	8
	29	149	376.6741	2251.156	-161.6487	1	2256.952	-4.107188	-1.11652E-007	0.0006528	8
	30	151	298.2954	2275.432	-185.031	1	2282.943	-4.648885	-1.23474E-007	0.0006611	8
	31	153	237.7717	2301.598	-213.542	1	2311.483	-5.300721	-1.435776E-007	0.0006732	8
	32	156	189.0121	2330.327	-248.6039	1	2343.55	-6.089396	-1.303115E-007	0.0006454	8
	33	158	150.2404	2361.864	-290.9238	1	2379.714	-7.022067	-9.985814E-008	0.0006307	8
	34	161	119.1737	2397.639	-342.382	1	2421.962	-8.126872	-1.035317E-007	0.0006577	8
	35	163	95.0169	2436.631	-402.2461	1	2469.61	-9.374007	-1.121642E-007	0.0006542	8
	36	166	75.60484	2481.246	-474.0574	1	2526.126	-10.81636	-1.154857E-007	0.0006523	8
	37	168	54.50582	2548.954	-600.7457	1	2618.79	-13.26164	-1.018141E-007	0.0006402	8
	38	171	45.95588	2595.815	-680.632	1	2683.564	-14.69241	-8.321708E-008	0.0006459	8
	39	173	37.20238	2655.081	-794.7855	1	2771.487	-16.66481	-1.301731E-007	0.0006397	8
	40	175	30.04808	2722.105	-930.3937	1	2876.715	-18.87002	-1.523172E-007	0.00066	8
	41	178	23.91582	2800.176	-1102.903	1	3009.549	-21.49795	-1.452278E-007	0.0006357	8
	42	180	18.60119	2898.069	-1332.726	1	3189.822	-24.69613	-1.042359E-007	0.0006661	8
	43	182	15.02404	2997.34	-1568.094	1	3382.745	-27.61685	-2.066377E-007	0.000649	8
	44	185	12.01923	3108.53	-1860.378	1	3622.701	-30.89947	-7.045856E-008	0.0006573	8
	45	187	9.450605	3254.624	-2246.847	1	3954.857	-34.61946	8.39781E-009	0.0006203	7
	46	190	7.512019	3408.909	-2697.167	1	4346.881	-38.35144	-2.998875E-008	0.0006658	7
	47	192	5.978954	3588.811	-3230.981	1	4828.954	-41.99648	-5.929661E-008	0.0006669	7
	48	195	4.734848	3808.167	-3899.51	1	5450.533	-45.67897	-3.31148E-008	0.0006334	7
	49	199	3.75601	4060.76	-4704.622	1	6214.76	-49.20112	-3.775049E-008	0.0006253	7
	50	202	3.004808	4345.686	-5641.097	1	7120.882	-52.39072	-2.571961E-008	0.0005696	7
	51	206	2.372217	4718.58	-6852.9	1	8320.291	-55.45056	-4.295483E-008	0.0005516	7
	52	210	1.878005	5139.742	-8317.685	1	9777.57	-58.28686	-3.184557E-008	0.0006363	7
	53	215	1.512097	5614.362	-9938.4	1	11414.59	-60.53719	-3.979379E-008	0.0005815	7
	54	220	1.201923	6225.13	-12078.43	1	13588.26	-62.73378	-3.534659E-008	0.0006562	7
	55	226	0.956633	6955.58	-14633.73	1	16202.65	-64.57771	-4.461933E-008	-2.742662E-005	7
