EXPLAIN
TAG	EISPOT
TITLE	LABEL	Potentiostatic EIS	Test Identifier
DATE	LABEL	2/28/2021	Date
TIME	LABEL	22:09:39	Time
NOTES	NOTES	1	Notes...
	
PSTAT	PSTAT	REF3000-16137	Potentiostat
VDC	POTEN	0.00000E+000	T	DC Voltage (V)
FREQINIT	QUANT	3.00000E+005	Initial Freq. (Hz)
FREQFINAL	QUANT	1.00000E+000	Final Freq. (Hz)
PTSPERDEC	QUANT	1.00000E+001	Points/decade
VAC	QUANT	5.00000E+001	AC Voltage (mV rms)
AREA	QUANT	1.00000E+000	Sample Area (cm^2)
SPEED	SELECTOR	2	Optimize for:
ZGUESS	QUANT	1.00000E+003	Estimated Z (ohms)
EOC	QUANT	0	Open Circuit (V)
SEQUENCER	TOGGLE	TRUE	Run as Sequence
PSTATMODEL	IQUANT	5	Pstat Model
PSTATSECTION	LABEL	REF3000-16137	Pstat Section
PSTATSERIALNO	LABEL	16137	Pstat Serial Number
CTRLMODE	IQUANT	1	Control Mode
IESTAB	IQUANT	0	I/E Stability
CASPEED	IQUANT	1	Control Amp Speed
CONVENTION	IQUANT	1	Current Convention
ICHRANGE	IQUANT	2	Ich Range
ICHRANGEMODE	TOGGLE	F	Ich Auto Range
ICHOFFSETENABLE	TOGGLE	T	Ich Offset Enable
ICHOFFSET	QUANT	0	Ich Offset (V)
ICHFILTER	IQUANT	3	Ich Filter
VCHRANGE	IQUANT	2	Vch Range
VCHRANGEMODE	TOGGLE	F	Vch Auto Range
VCHOFFSETENABLE	TOGGLE	T	Vch Offset Enable
VCHOFFSET	QUANT	0	Vch Offset (V)
VCHFILTER	IQUANT	3	Vch Filter
ACHRANGE	IQUANT	2	Ach Range
ACHOFFSETENABLE	TOGGLE	F	Ach Offset Enable
ACHOFFSET	QUANT	0	Ach Offset (V)
ACHFILTER	IQUANT	3	Ach Filter
IERANGELOWERLIMIT	IQUANT	2	I/E Range Lower Limit
IERANGEMODE	TOGGLE	F	I/E AutoRange
IERANGE	IQUANT	11	I/E Range
POSFEEDENABLE	TOGGLE	F	Positive Feedback IR Comp
POSFEEDRESISTANCE	QUANT	0	Positive Feedback Resistance (ohm)
ACHSELECT	IQUANT	0	Ach Select
CABLEID	IQUANT	13	Cable ID
DCCALDATE	LABEL	7/31/2020	DC Calibration Date
ACCALDATE	LABEL	7/31/2020	AC Calibration Date
THERMOSELECT	IQUANT	1	Thermo Select
FRAMEWORKVERSION	QUANT	6.33	Framework Version
INSTRUMENTVERSION	LABEL	3.50	Instrument Version
COMPLIANCEVOLTAGE	IQUANT	0	Compliance Voltage
ZCURVE	TABLE
	Pt	Time	Freq	Zreal	Zimag	Zsig	Zmod	Zphz	Idc	Vdc	IERange
	#	s	Hz	ohm	ohm	V	ohm	°	A	V	#
	0	8	300046.9	73.80383	-0.3990051	1	73.80491	-0.3097547	3.002946E-005	-0.0001611	9
	1	11	238359.4	74.40791	-0.7263965	1	74.41146	-0.559324	1.839999E-005	-0.0007432	9
	2	14	189328.1	74.90324	-0.980102	1	74.90965	-0.7496675	4.376904E-005	-0.0006074	9
	3	16	150421.9	75.34531	-1.103707	1	75.35339	-0.8392457	9.800117E-006	-0.0007301	9
	4	19	119484.4	75.76405	-1.262826	1	75.77457	-0.954911	6.526151E-005	-0.0019446	9
	5	21	94921.88	76.1958	-1.181155	1	76.20496	-0.8881038	2.144372E-005	-0.0002784	9
	6	24	75421.88	76.54451	-1.384862	1	76.55704	-1.036496	1.139653E-005	-0.0005846	9
	7	26	59859.37	76.90708	-1.578642	1	76.92328	-1.175923	-1.103867E-005	0.0007948	9
	8	29	47578.12	77.28078	-1.772598	1	77.3011	-1.313969	4.860268E-006	-0.0004077	9
	9	31	37828.12	77.66679	-1.946314	1	77.69118	-1.43552	1.073491E-005	0.0001217	9
	10	34	30046.88	80.44023	-2.156682	1	80.46914	-1.535789	6.092044E-006	-0.0004108	9
	11	36	23859.38	84.5472	-2.432649	1	84.58219	-1.648098	2.182932E-005	-0.0002196	9
	12	39	18984.38	87.48151	-2.762089	1	87.5251	-1.808422	-1.898447E-005	0.000728	9
	13	41	15046.87	89.56828	-3.128782	1	89.62292	-2.000631	-1.905712E-005	0.0006681	9
	14	43	11953.13	91.13741	-3.658737	1	91.21082	-2.298921	2.248325E-005	-0.0005342	9
	15	46	9515.62	92.47184	-4.232801	1	92.56866	-2.620825	1.220955E-005	-0.0005808	9
	16	48	7546.875	93.57845	-4.929981	1	93.70822	-3.015718	2.523388E-006	0.000432	9
	17	50	5928.309	94.70054	-5.972376	1	94.88868	-3.608631	1.116847E-005	0.0002056	9
	18	53	4733.456	95.8325	-6.996305	1	96.0875	-4.175504	2.339818E-005	-0.000532	9
	19	55	3796.875	96.8961	-8.340285	1	97.2544	-4.919582	-1.963278E-005	0.0006826	9
	20	57	2987.132	98.1573	-10.10458	1	98.676	-5.877479	1.186919E-005	-0.0005664	9
	21	60	2390.625	99.4268	-12.15426	1	100.167	-6.969443	-1.920758E-005	0.00041	9
	22	62	1884.191	100.7465	-14.74074	1	101.8192	-8.324169	2.19204E-005	-0.0002239	9
	23	64	1516.544	102.1476	-17.58672	1	103.6505	-9.76882	-5.489554E-006	0.0006991	9
	24	66	1193.986	103.9428	-21.35889	1	106.1146	-11.6119	-1.625955E-005	0.0003843	9
	25	69	946.5144	105.8669	-25.84842	1	108.9768	-13.72086	-9.840604E-006	5.617684E-005	9
	26	71	751.7689	107.9577	-31.20885	1	112.3782	-16.12374	-1.713747E-005	0.0008503	9
	27	74	597.4265	110.5175	-37.72204	1	116.7779	-18.8459	2.208172E-005	-0.0006145	9
	28	76	477.4305	113.3866	-45.35184	1	122.1201	-21.80019	1.435891E-006	0.0000986	9
	29	78	376.6741	116.8902	-55.05011	1	129.2046	-25.21836	1.426691E-006	8.904382E-005	9
	30	80	298.2954	120.9644	-66.5915	1	138.0827	-28.833	1.347356E-006	0.0000989	9
	31	83	237.7717	125.6591	-80.1003	1	149.0177	-32.51512	1.330573E-006	9.178805E-005	9
	32	85	189.0121	131.2502	-96.5452	1	162.9343	-36.33752	1.317432E-006	9.063972E-005	9
	33	88	150.2404	137.8423	-116.3353	1	180.373	-40.1635	1.391646E-006	9.273289E-005	9
	34	90	119.1737	145.7131	-140.4143	1	202.3573	-43.93905	1.502867E-006	8.532724E-005	9
	35	92	95.0169	154.8209	-168.7585	1	229.0173	-47.46639	1.278568E-006	0.0001151	9
	36	95	75.60484	165.6594	-203.1899	1	262.1625	-50.80986	1.411136E-006	7.840746E-005	9
	37	97	54.50582	184.4468	-265.1733	1	323.0132	-55.17865	1.422794E-006	7.792522E-005	9
	38	100	45.95588	196.4963	-304.8996	1	362.732	-57.19975	1.461614E-006	8.510309E-005	9
	39	102	37.20238	212.5684	-360.9096	1	418.8568	-59.50278	3.045741E-007	0.0006592	8
	40	105	30.04808	232.6392	-430.1296	1	489.0117	-61.5929	2.856756E-007	0.0006607	8
	41	107	23.91582	258.0481	-519.0809	1	579.6843	-63.56688	3.152728E-007	0.0006547	8
	42	109	18.60119	291.4857	-638.9423	1	702.29	-65.47752	2.094456E-007	0.0006598	8
	43	112	15.02404	325.8124	-762.3692	1	829.0721	-66.85967	2.404588E-007	0.0006812	8
	44	114	12.01923	368.8252	-917.4024	1	988.766	-68.09829	3.230572E-007	0.0006632	8
	45	116	9.450605	424.1343	-1120.659	1	1198.234	-69.26991	3.296527E-007	0.0006536	8
	46	119	7.512019	487.3226	-1356.925	1	1441.78	-70.24489	3.188852E-007	0.0006791	8
	47	123	5.978954	564.6023	-1641.954	1	1736.315	-71.02396	3.004722E-007	0.000671	8
	48	126	4.734848	659.3602	-1997.679	1	2103.682	-71.73385	2.827805E-007	0.000669	8
	49	129	3.75601	772.7694	-2425.194	1	2545.337	-72.32592	3.131116E-007	0.000663	8
	50	132	3.004808	904.9646	-2923.726	1	3060.577	-72.80142	2.693688E-007	0.0006955	8
	51	136	2.372217	1074.769	-3568.18	1	3726.531	-73.23721	2.858344E-007	0.0007349	8
	52	140	1.878005	1284.22	-4349.922	1	4535.531	-73.5519	2.77688E-008	0.0006129	7
	53	145	1.512097	1519.157	-5213.531	1	5430.354	-73.75455	3.862657E-008	0.0007065	7
	54	150	1.201923	1811.187	-6343.513	1	6597.011	-74.065	3.191969E-008	0.0006027	7
	55	156	0.956633	2168.765	-7696.732	1	7996.451	-74.26337	1.725801E-008	-2.659264E-006	7
