EXPLAIN
TAG	EISPOT
TITLE	LABEL	Potentiostatic EIS	Test Identifier
DATE	LABEL	2/28/2021	Date
TIME	LABEL	22:50:52	Time
NOTES	NOTES	1	Notes...
	
PSTAT	PSTAT	REF3000-16137	Potentiostat
VDC	POTEN	0.00000E+000	T	DC Voltage (V)
FREQINIT	QUANT	3.00000E+005	Initial Freq. (Hz)
FREQFINAL	QUANT	1.00000E+000	Final Freq. (Hz)
PTSPERDEC	QUANT	1.00000E+001	Points/decade
VAC	QUANT	5.00000E+001	AC Voltage (mV rms)
AREA	QUANT	1.00000E+000	Sample Area (cm^2)
SPEED	SELECTOR	2	Optimize for:
ZGUESS	QUANT	1.00000E+003	Estimated Z (ohms)
EOC	QUANT	0	Open Circuit (V)
SEQUENCER	TOGGLE	TRUE	Run as Sequence
PSTATMODEL	IQUANT	5	Pstat Model
PSTATSECTION	LABEL	REF3000-16137	Pstat Section
PSTATSERIALNO	LABEL	16137	Pstat Serial Number
CTRLMODE	IQUANT	1	Control Mode
IESTAB	IQUANT	0	I/E Stability
CASPEED	IQUANT	1	Control Amp Speed
CONVENTION	IQUANT	1	Current Convention
ICHRANGE	IQUANT	2	Ich Range
ICHRANGEMODE	TOGGLE	F	Ich Auto Range
ICHOFFSETENABLE	TOGGLE	T	Ich Offset Enable
ICHOFFSET	QUANT	0	Ich Offset (V)
ICHFILTER	IQUANT	3	Ich Filter
VCHRANGE	IQUANT	2	Vch Range
VCHRANGEMODE	TOGGLE	F	Vch Auto Range
VCHOFFSETENABLE	TOGGLE	T	Vch Offset Enable
VCHOFFSET	QUANT	0	Vch Offset (V)
VCHFILTER	IQUANT	3	Vch Filter
ACHRANGE	IQUANT	2	Ach Range
ACHOFFSETENABLE	TOGGLE	F	Ach Offset Enable
ACHOFFSET	QUANT	0	Ach Offset (V)
ACHFILTER	IQUANT	3	Ach Filter
IERANGELOWERLIMIT	IQUANT	2	I/E Range Lower Limit
IERANGEMODE	TOGGLE	F	I/E AutoRange
IERANGE	IQUANT	11	I/E Range
POSFEEDENABLE	TOGGLE	F	Positive Feedback IR Comp
POSFEEDRESISTANCE	QUANT	0	Positive Feedback Resistance (ohm)
ACHSELECT	IQUANT	0	Ach Select
CABLEID	IQUANT	13	Cable ID
DCCALDATE	LABEL	7/31/2020	DC Calibration Date
ACCALDATE	LABEL	7/31/2020	AC Calibration Date
THERMOSELECT	IQUANT	1	Thermo Select
FRAMEWORKVERSION	QUANT	6.33	Framework Version
INSTRUMENTVERSION	LABEL	3.50	Instrument Version
COMPLIANCEVOLTAGE	IQUANT	0	Compliance Voltage
ZCURVE	TABLE
	Pt	Time	Freq	Zreal	Zimag	Zsig	Zmod	Zphz	Idc	Vdc	IERange
	#	s	Hz	ohm	ohm	V	ohm	°	A	V	#
	0	15	300046.9	1324.803	-2876.722	1	3167.117	-65.27273	-6.64551E-005	0.0003886	9
	1	30	238359.4	1803.172	-3354.222	1	3808.18	-61.73828	-8.852551E-005	0.0042034	9
	2	45	189328.1	2361.099	-3962.304	1	4612.445	-59.20969	-0.0001055	0.0037659	9
	3	53	150421.9	2474.47	-3792.713	1	4528.54	-56.87847	8.738968E-005	-0.0024625	9
	4	62	119484.4	4070.774	-4635.847	1	6169.463	-48.71338	3.999101E-005	-0.0183656	8
	5	70	94921.88	4921.159	-4878.027	1	6929.138	-44.74781	1.767451E-005	-3.803055E-005	8
	6	77	75421.88	6023.115	-5157.866	1	7929.785	-40.57494	2.108473E-005	-0.0092275	8
	7	85	59859.37	7150.936	-5212.696	1	8849.186	-36.09029	-2.549104E-005	0.0076189	8
	8	93	47578.12	8274.791	-5247.501	1	9798.39	-32.38103	2.578681E-005	-0.005271	8
	9	102	37828.12	9185.721	-5021.235	1	10468.54	-28.66256	-1.613807E-005	0.0010093	8
	10	110	30046.88	10323.71	-4767.635	1	11371.43	-24.78815	-9.112231E-007	0.0072614	8
	11	119	23859.38	11687.41	-3687.553	1	12255.35	-17.51126	-6.531803E-006	0.016658	7
	12	123	18984.38	12271.59	-3347.514	1	12719.97	-15.25824	5.814775E-006	-0.0084449	7
	13	127	15046.87	12871.21	-3038.563	1	13225.02	-13.28287	6.923721E-006	-0.0216283	7
	14	131	11953.13	13325.57	-2780.449	1	13612.55	-11.78596	2.384988E-006	0.0076143	7
	15	136	9515.62	13780.74	-2462.17	1	13998.96	-10.13001	1.321731E-006	-0.0179498	7
	16	140	7546.875	14198.52	-2242.134	1	14374.46	-8.973662	-4.724072E-006	0.0239093	7
	17	144	5928.309	14679.49	-2061.837	1	14823.59	-7.995286	-4.659392E-006	0.002967	7
	18	148	4733.456	15020.36	-1842.226	1	15132.91	-6.992326	4.918843E-006	-0.0238919	7
	19	153	3796.875	15342.24	-1744.39	1	15441.09	-6.486591	-2.872878E-006	-0.0049342	7
	20	157	2987.132	15706.27	-1681.112	1	15795.98	-6.109362	-6.591127E-006	0.0168945	7
	21	161	2390.625	16083.99	-1520.193	1	16155.67	-5.399322	-5.969646E-006	0.0107073	7
	22	165	1884.191	16447	-1449.89	1	16510.78	-5.037901	1.314398E-006	-0.0180487	7
	23	170	1516.544	16775.43	-1318.408	1	16827.16	-4.49373	2.382707E-006	0.0080071	7
	24	174	1193.986	17347.56	-1405.258	1	17404.38	-4.631193	2.394883E-006	0.0079877	7
	25	178	946.5144	17547.48	-1400.491	1	17603.28	-4.563192	-2.904498E-006	-0.0047638	7
	26	181	751.7689	17868.68	-1267.292	1	17913.56	-4.05677	-5.911475E-006	0.0232919	7
	27	184	597.4265	18059.73	-1314.183	1	18107.48	-4.162003	6.241982E-006	-0.0241314	7
	28	186	477.4305	18469.77	-1174.216	1	18507.05	-3.637686	-6.300868E-008	0.0006749	7
	29	188	376.6741	18745.03	-1138.491	1	18779.57	-3.475624	-5.602751E-008	0.0006014	7
	30	191	298.2954	19007.97	-1118.186	1	19040.83	-3.366672	-6.306335E-008	0.0006672	7
	31	193	237.7717	19269.05	-1105.329	1	19300.72	-3.283055	-6.350545E-008	0.0006661	7
	32	196	189.0121	19527.82	-1115.174	1	19559.63	-3.268437	-6.451415E-008	0.0006381	7
	33	198	150.2404	19785.19	-1147.796	1	19818.45	-3.320172	-5.313613E-008	0.0006093	7
	34	200	119.1737	20031.64	-1192.36	1	20067.09	-3.406445	-5.622478E-008	0.0006113	7
	35	203	95.0169	20303.37	-1271.424	1	20343.14	-3.583258	-6.011303E-008	0.0006205	7
	36	205	75.60484	20578.77	-1373.743	1	20624.57	-3.819134	-5.985969E-008	0.0006428	7
	37	208	54.50582	20927.11	-1598.566	1	20988.07	-4.368188	-4.982121E-008	0.000609	7
	38	210	45.95588	21176.28	-1726.082	1	21246.51	-4.659888	-5.932842E-008	0.0006734	7
	39	213	37.20238	21473.72	-1954.228	1	21562.46	-5.199911	-7.811621E-008	0.0006019	7
	40	215	30.04808	21786.67	-2194.323	1	21896.89	-5.751356	-7.092975E-008	0.0006632	7
	41	217	23.91582	22129.92	-2535.347	1	22274.68	-6.535681	-8.581922E-008	0.0006625	7
	42	220	18.60119	22564.04	-3003.559	1	22763.06	-7.582222	-4.461301E-008	0.0006137	7
	43	222	15.02404	22988.4	-3410.389	1	23239.99	-8.438433	-3.077657E-008	0.0006417	7
	44	224	12.01923	23400.6	-3946.595	1	23731.07	-9.57305	-7.160492E-008	0.0006002	7
	45	227	9.450605	23932.37	-4620.091	1	24374.24	-10.92641	-9.447866E-008	0.0005946	7
	46	229	7.512019	24586.6	-5394.099	1	25171.36	-12.37418	-4.776881E-008	0.0005753	7
	47	232	5.978954	25225.8	-6326.327	1	26006.99	-14.07873	-2.830696E-008	0.0006068	7
	48	235	4.734848	26024.51	-7395.786	1	27055	-15.86437	-4.573321E-008	0.000687	7
	49	238	3.75601	26901.14	-8686.31	1	28268.77	-17.89513	-6.119427E-008	0.0006157	7
	50	242	3.004808	27891.44	-10205.14	1	29699.79	-20.09697	-6.842639E-008	0.0006147	7
	51	245	2.372217	28971.82	-12038.81	1	31373.55	-22.5646	-6.595472E-008	0.0007059	7
	52	249	1.878005	30270.46	-14339.47	1	33495.09	-25.34747	-7.214956E-008	0.0006237	7
	53	254	1.512097	31649	-16841.51	1	35851.02	-28.01896	-6.867867E-008	0.0006051	7
	54	260	1.201923	33275.19	-20086.65	1	38867.87	-31.11738	-6.556871E-008	0.0006176	7
	55	266	0.956633	35262.6	-24016.84	1	42664.5	-34.2582	-1.490003E-008	3.037514E-005	6
