EXPLAIN
TAG	EISPOT
TITLE	LABEL	Potentiostatic EIS	Test Identifier
DATE	LABEL	2/28/2021	Date
TIME	LABEL	22:04:10	Time
NOTES	NOTES	1	Notes...
	
PSTAT	PSTAT	REF3000-16137	Potentiostat
VDC	POTEN	0.00000E+000	T	DC Voltage (V)
FREQINIT	QUANT	3.00000E+005	Initial Freq. (Hz)
FREQFINAL	QUANT	1.00000E+000	Final Freq. (Hz)
PTSPERDEC	QUANT	1.00000E+001	Points/decade
VAC	QUANT	5.00000E+001	AC Voltage (mV rms)
AREA	QUANT	1.00000E+000	Sample Area (cm^2)
SPEED	SELECTOR	2	Optimize for:
ZGUESS	QUANT	1.00000E+003	Estimated Z (ohms)
EOC	QUANT	0	Open Circuit (V)
SEQUENCER	TOGGLE	TRUE	Run as Sequence
PSTATMODEL	IQUANT	5	Pstat Model
PSTATSECTION	LABEL	REF3000-16137	Pstat Section
PSTATSERIALNO	LABEL	16137	Pstat Serial Number
CTRLMODE	IQUANT	1	Control Mode
IESTAB	IQUANT	0	I/E Stability
CASPEED	IQUANT	1	Control Amp Speed
CONVENTION	IQUANT	1	Current Convention
ICHRANGE	IQUANT	2	Ich Range
ICHRANGEMODE	TOGGLE	F	Ich Auto Range
ICHOFFSETENABLE	TOGGLE	T	Ich Offset Enable
ICHOFFSET	QUANT	0	Ich Offset (V)
ICHFILTER	IQUANT	3	Ich Filter
VCHRANGE	IQUANT	2	Vch Range
VCHRANGEMODE	TOGGLE	F	Vch Auto Range
VCHOFFSETENABLE	TOGGLE	T	Vch Offset Enable
VCHOFFSET	QUANT	0	Vch Offset (V)
VCHFILTER	IQUANT	3	Vch Filter
ACHRANGE	IQUANT	2	Ach Range
ACHOFFSETENABLE	TOGGLE	F	Ach Offset Enable
ACHOFFSET	QUANT	0	Ach Offset (V)
ACHFILTER	IQUANT	3	Ach Filter
IERANGELOWERLIMIT	IQUANT	2	I/E Range Lower Limit
IERANGEMODE	TOGGLE	F	I/E AutoRange
IERANGE	IQUANT	11	I/E Range
POSFEEDENABLE	TOGGLE	F	Positive Feedback IR Comp
POSFEEDRESISTANCE	QUANT	0	Positive Feedback Resistance (ohm)
ACHSELECT	IQUANT	0	Ach Select
CABLEID	IQUANT	13	Cable ID
DCCALDATE	LABEL	7/31/2020	DC Calibration Date
ACCALDATE	LABEL	7/31/2020	AC Calibration Date
THERMOSELECT	IQUANT	1	Thermo Select
FRAMEWORKVERSION	QUANT	6.33	Framework Version
INSTRUMENTVERSION	LABEL	3.50	Instrument Version
COMPLIANCEVOLTAGE	IQUANT	0	Compliance Voltage
ZCURVE	TABLE
	Pt	Time	Freq	Zreal	Zimag	Zsig	Zmod	Zphz	Idc	Vdc	IERange
	#	s	Hz	ohm	ohm	V	ohm	°	A	V	#
	0	6	300046.9	57.77583	0.598444	1	57.77893	0.5934504	9.160294E-007	-0.0014401	9
	1	9	238359.4	58.04758	0.1310375	1	58.04773	0.1293402	-2.899406E-005	-0.0004708	9
	2	13	189328.1	58.32047	-0.137099	1	58.32063	-0.1346899	-6.459039E-005	0.0020547	9
	3	15	150421.9	58.60279	-0.3602873	1	58.6039	-0.3522474	-6.645791E-005	0.0018218	9
	4	18	119484.4	58.96893	-0.6536982	1	58.97255	-0.6351246	1.056266E-006	0.0008409	9
	5	20	94921.88	59.3273	-0.6052138	1	59.33039	-0.5844694	-1.250988E-005	0.0001579	9
	6	23	75421.88	59.54578	-0.8237798	1	59.55148	-0.7926019	2.112148E-005	-0.0005266	9
	7	25	59859.37	59.79758	-1.0574	1	59.80693	-1.013055	1.931273E-005	-0.0005709	9
	8	28	47578.12	60.03937	-1.270203	1	60.05281	-1.211978	1.708135E-005	-0.0001705	9
	9	30	37828.12	60.32018	-1.483083	1	60.33841	-1.408438	-1.739281E-005	0.0005375	9
	10	33	30046.88	60.57663	-1.70819	1	60.60071	-1.615246	-1.243286E-005	0.000203	9
	11	35	23859.38	60.83361	-1.957828	1	60.86511	-1.843332	2.1386E-005	-0.000476	9
	12	38	18984.38	61.07286	-2.272273	1	61.11512	-2.13076	1.525931E-005	-0.0005517	9
	13	40	15046.87	61.34679	-2.691419	1	61.4058	-2.512081	1.014433E-005	-0.0004614	9
	14	42	11953.13	61.6207	-3.147019	1	61.70101	-2.923602	-1.760474E-005	0.000556	9
	15	44	9515.62	61.9049	-3.725312	1	62.01689	-3.443792	-1.68516E-005	0.000436	9
	16	47	7546.875	62.22423	-4.478703	1	62.3852	-4.116869	-2.864921E-006	-0.0001483	9
	17	49	5928.309	62.58764	-5.386226	1	62.81898	-4.918695	1.661896E-005	-0.0001014	9
	18	51	4733.456	62.96652	-6.474936	1	63.29856	-5.871169	3.217784E-006	0.000356	9
	19	54	3796.875	63.41489	-7.781522	1	63.89053	-6.995686	-1.023964E-005	0.0006514	9
	20	56	2987.132	63.9332	-9.477782	1	64.6319	-8.432403	1.03572E-005	-0.0004854	9
	21	58	2390.625	64.58232	-11.4418	1	65.58804	-10.04663	-1.434149E-005	0.0003033	9
	22	61	1884.191	65.34772	-13.96627	1	66.82351	-12.0639	1.699565E-005	-0.0001063	9
	23	63	1516.544	66.25664	-16.76288	1	68.34425	-14.19787	-8.909509E-006	7.539512E-005	9
	24	65	1193.986	67.40736	-20.49288	1	70.4536	-16.91008	-3.720331E-006	0.0005693	9
	25	68	946.5144	68.79884	-24.88841	1	73.16224	-19.88791	-1.058141E-005	0.0006673	9
	26	70	751.7689	70.47855	-30.10155	1	76.63765	-23.12744	-1.001227E-005	0.0006912	9
	27	72	597.4265	72.53869	-36.37595	1	81.14845	-26.63237	2.086034E-005	-0.0004777	9
	28	75	477.4305	75.01733	-43.70908	1	86.82214	-30.22735	1.432678E-006	8.314961E-005	9
	29	77	376.6741	78.17708	-52.96833	1	94.43145	-34.11933	1.463315E-006	8.200401E-005	9
	30	79	298.2954	81.9522	-63.89516	1	103.9171	-37.94225	1.374349E-006	8.31064E-005	9
	31	81	237.7717	86.35993	-76.57359	1	115.419	-41.56275	1.31936E-006	8.341757E-005	9
	32	84	189.0121	91.66229	-91.88268	1	129.786	-45.0688	1.474353E-006	7.880401E-005	9
	33	86	150.2404	97.9326	-110.1837	1	147.4152	-48.36892	1.50902E-006	8.167855E-005	9
	34	89	119.1737	105.3849	-132.3371	1	169.1718	-51.4684	1.441152E-006	8.470246E-005	9
	35	91	95.0169	113.9411	-158.3311	1	195.0675	-54.25978	1.499698E-006	7.789857E-005	9
	36	94	75.60484	124.0553	-189.8647	1	226.8002	-56.83989	1.389886E-006	7.829822E-005	9
	37	96	54.50582	141.6002	-246.576	1	284.3419	-60.13271	1.408149E-006	7.100145E-005	9
	38	99	45.95588	152.6409	-282.9865	1	321.5285	-61.6579	1.48683E-006	8.900119E-005	9
	39	101	37.20238	168.2464	-335.7023	1	375.5035	-63.381	1.534297E-006	8.279818E-005	9
	40	103	30.04808	185.9747	-397.7277	1	439.0603	-64.93953	3.761763E-007	0.0006593	8
	41	106	23.91582	209.2416	-479.2455	1	522.9324	-66.41362	3.217096E-007	0.0006578	8
	42	108	18.60119	240.056	-589.0969	1	636.1305	-67.82919	4.631746E-007	0.0006732	8
	43	110	15.02404	271.293	-702.1699	1	752.7565	-68.87527	4.331911E-007	0.000667	8
	44	113	12.01923	310.5588	-844.3994	1	899.6983	-69.80715	3.489534E-007	0.0006637	8
	45	115	9.450605	361.3162	-1030.735	1	1092.229	-70.68228	3.438702E-007	0.0006741	8
	46	118	7.512019	419.4798	-1247.286	1	1315.936	-71.41149	3.59748E-007	0.0006532	8
	47	120	5.978954	489.4207	-1508.724	1	1586.121	-72.02726	3.931213E-007	0.0006755	8
	48	123	4.734848	575.4471	-1834.678	1	1922.806	-72.58596	3.72663E-007	0.0006468	8
	49	127	3.75601	679.859	-2226.189	1	2327.687	-73.01778	4.396802E-007	0.0006773	8
	50	130	3.004808	801.3691	-2682.927	1	2800.052	-73.36953	3.984951E-007	0.0006935	8
	51	134	2.372217	956.577	-3270.56	1	3407.58	-73.6968	4.221305E-007	0.0007013	8
	52	138	1.878005	1151.524	-3980.734	1	4143.942	-73.8662	4.315724E-007	0.000639	8
	53	143	1.512097	1372.158	-4782.204	1	4975.167	-73.99023	6.425653E-008	0.0007266	7
	54	148	1.201923	1642.455	-5808.861	1	6036.599	-74.21175	6.137294E-008	0.0006044	7
	55	154	0.956633	1971.821	-7042.306	1	7313.149	-74.35794	3.99737E-008	-2.628803E-006	7
