EXPLAIN
TAG	EISPOT
TITLE	LABEL	Potentiostatic EIS	Test Identifier
DATE	LABEL	8/24/2020	Date
TIME	LABEL	21:37:31	Time
NOTES	NOTES	1	Notes...
	
PSTAT	PSTAT	REF3000-16137	Potentiostat
VDC	POTEN	0.00000E+000	T	DC Voltage (V)
FREQINIT	QUANT	3.00000E+005	Initial Freq. (Hz)
FREQFINAL	QUANT	1.00000E+000	Final Freq. (Hz)
PTSPERDEC	QUANT	1.00000E+001	Points/decade
VAC	QUANT	5.00000E+001	AC Voltage (mV rms)
AREA	QUANT	1.00000E+000	Sample Area (cm^2)
SPEED	SELECTOR	2	Optimize for:
ZGUESS	QUANT	1.00000E+003	Estimated Z (ohms)
EOC	QUANT	0	Open Circuit (V)
SEQUENCER	TOGGLE	TRUE	Run as Sequence
PSTATMODEL	IQUANT	5	Pstat Model
PSTATSECTION	LABEL	REF3000-16137	Pstat Section
PSTATSERIALNO	LABEL	16137	Pstat Serial Number
CTRLMODE	IQUANT	1	Control Mode
IESTAB	IQUANT	0	I/E Stability
CASPEED	IQUANT	1	Control Amp Speed
CONVENTION	IQUANT	1	Current Convention
ICHRANGE	IQUANT	2	Ich Range
ICHRANGEMODE	TOGGLE	F	Ich Auto Range
ICHOFFSETENABLE	TOGGLE	T	Ich Offset Enable
ICHOFFSET	QUANT	0	Ich Offset (V)
ICHFILTER	IQUANT	3	Ich Filter
VCHRANGE	IQUANT	2	Vch Range
VCHRANGEMODE	TOGGLE	F	Vch Auto Range
VCHOFFSETENABLE	TOGGLE	T	Vch Offset Enable
VCHOFFSET	QUANT	0	Vch Offset (V)
VCHFILTER	IQUANT	3	Vch Filter
ACHRANGE	IQUANT	2	Ach Range
ACHOFFSETENABLE	TOGGLE	F	Ach Offset Enable
ACHOFFSET	QUANT	0	Ach Offset (V)
ACHFILTER	IQUANT	3	Ach Filter
IERANGELOWERLIMIT	IQUANT	2	I/E Range Lower Limit
IERANGEMODE	TOGGLE	F	I/E AutoRange
IERANGE	IQUANT	11	I/E Range
POSFEEDENABLE	TOGGLE	F	Positive Feedback IR Comp
POSFEEDRESISTANCE	QUANT	0	Positive Feedback Resistance (ohm)
ACHSELECT	IQUANT	0	Ach Select
CABLEID	IQUANT	13	Cable ID
DCCALDATE	LABEL	7/31/2020	DC Calibration Date
ACCALDATE	LABEL	7/31/2020	AC Calibration Date
THERMOSELECT	IQUANT	1	Thermo Select
FRAMEWORKVERSION	QUANT	6.33	Framework Version
INSTRUMENTVERSION	LABEL	3.50	Instrument Version
COMPLIANCEVOLTAGE	IQUANT	0	Compliance Voltage
ZCURVE	TABLE
	Pt	Time	Freq	Zreal	Zimag	Zsig	Zmod	Zphz	Idc	Vdc	IERange
	#	s	Hz	ohm	ohm	V	ohm	°	A	V	#
	0	21	300046.9	1859.247	-3092.753	1	3608.59	-58.9873	-5.453682E-007	0.0015324	9
	1	35	238359.4	2562.854	-3469.392	1	4313.34	-53.54657	-2.948464E-005	-0.0011586	9
	2	60	189328.1	3183.481	-3493.722	1	4726.589	-47.66021	-2.113681E-005	0.0016504	9
	3	70	150421.9	3670.833	-3644.674	1	5172.878	-44.79512	2.226199E-005	-0.0008739	9
	4	77	119484.4	4633.938	-3461.987	1	5784.353	-36.76318	-1.71508E-005	0.0163936	8
	5	84	94921.88	5227.32	-3385.404	1	6227.827	-32.92857	2.099847E-005	-0.009191	8
	6	92	75421.88	5830.217	-3240.177	1	6670.096	-29.06337	-1.498656E-006	-0.0048159	8
	7	99	59859.37	6335.993	-3096.201	1	7052.04	-26.04331	2.149279E-005	-0.0093471	8
	8	107	47578.12	6820.426	-2932.44	1	7424.111	-23.26527	-2.346052E-005	0.0053362	8
	9	114	37828.12	7231.86	-2752.053	1	7737.803	-20.83411	7.365771E-006	-0.0073523	8
	10	123	30046.88	7972.754	-2108.695	1	8246.902	-14.81479	4.022264E-006	0.0013744	7
	11	127	23859.38	8223.4	-2007.971	1	8465.002	-13.72185	-4.388331E-006	0.0013147	7
	12	130	18984.38	8416.271	-2000.831	1	8650.835	-13.37289	3.65535E-006	-0.0226879	7
	13	134	15046.87	8674.841	-2009.469	1	8904.54	-13.04216	4.030245E-006	0.0014864	7
	14	138	11953.13	8909.7	-2043.152	1	9140.964	-12.91563	6.749278E-006	-0.0153103	7
	15	142	9515.62	9186.602	-2113.101	1	9426.497	-12.95385	6.73039E-006	-0.0148332	7
	16	146	7546.875	9460.464	-2186.096	1	9709.76	-13.01136	5.60895E-006	-0.0074536	7
	17	150	5928.309	9722.33	-2287.723	1	9987.86	-13.24117	-6.12193E-006	0.0230025	7
	18	155	4733.456	10050.93	-2437.265	1	10342.22	-13.63063	6.402158E-006	-0.0239729	7
	19	159	3796.875	10297.52	-2552.313	1	10609.11	-13.92063	-6.668404E-006	0.0204682	7
	20	162	2987.132	10654.52	-2737.622	1	11000.61	-14.41011	6.974821E-006	-0.0210931	7
	21	166	2390.625	11182.74	-2786.425	1	11524.66	-13.99158	-5.852813E-007	-0.0136977	7
	22	171	1884.191	11413.87	-3226.127	1	11861.04	-15.78293	6.424165E-006	-0.0240546	7
	23	175	1516.544	11722.12	-3435.423	1	12215.16	-16.33438	2.004997E-006	0.0095697	7
	24	179	1193.986	12047.61	-3708.311	1	12605.42	-17.10861	5.180559E-006	-0.024347	7
	25	184	946.5144	12640.39	-4272.603	1	13342.96	-18.67586	-6.56058E-006	0.0158977	7
	26	186	751.7689	13232.59	-4612.578	1	14013.47	-19.21739	3.615369E-006	-0.0229729	7
	27	189	597.4265	13697.23	-5249.846	1	14668.84	-20.97072	-6.572211E-006	0.0159327	7
	28	191	477.4305	14434.6	-5677.369	1	15510.97	-21.47054	-9.729378E-008	0.0006036	7
	29	194	376.6741	15242.59	-6317.396	1	16499.88	-22.51189	-1.004311E-007	0.000634	7
	30	196	298.2954	16150.25	-6996.597	1	17600.66	-23.42318	-9.677466E-008	0.0006661	7
	31	198	237.7717	17158.64	-7698.605	1	18806.58	-24.16445	-8.973412E-008	0.0005738	7
	32	201	189.0121	18309.49	-8430.289	1	20157.06	-24.72289	-9.326325E-008	0.0005869	7
	33	203	150.2404	19589.99	-9165.752	1	21628.2	-25.07392	-9.713645E-008	0.0006678	7
	34	206	119.1737	21011.96	-9903.25	1	23228.79	-25.2352	-9.638253E-008	0.0006669	7
	35	208	95.0169	22513.77	-10581.9	1	24876.62	-25.17443	-9.067501E-008	0.0005701	7
	36	211	75.60484	24106.73	-11244.18	1	26600.12	-25.00592	-9.296399E-008	0.0005987	7
	37	213	54.50582	26464.76	-12152.42	1	29121.55	-24.66423	-9.050119E-008	0.0005706	7
	38	216	45.95588	27704.1	-12641.35	1	30451.95	-24.52716	-9.170198E-008	0.0005888	7
	39	218	37.20238	29239.51	-13298.52	1	32121.64	-24.45668	-9.541296E-008	0.0006686	7
	40	220	30.04808	30785.92	-14023.47	1	33829.44	-24.49001	-9.257379E-008	0.0005764	7
	41	223	23.91582	32388.96	-14953.12	1	35674.09	-24.78151	-9.068588E-008	0.0005705	7
	42	225	18.60119	34169.91	-16320.03	1	37867.22	-25.52979	-1.022172E-007	0.0005884	7
	43	227	15.02404	35757.94	-17670.09	1	39885.61	-26.29667	-1.076795E-008	0.0006816	6
	44	230	12.01923	37269.48	-19493.99	1	42059.84	-27.61204	-1.854015E-008	0.0006212	6
	45	232	9.450605	39007.73	-21992.02	1	44780.04	-29.4137	-2.340094E-008	0.0007346	6
	46	235	7.512019	40900.29	-25103.74	1	47989.91	-31.54073	-1.715014E-008	0.0006093	6
	47	237	5.978954	42971.67	-28818.53	1	51740.43	-33.8474	-1.345937E-008	0.0006168	6
	48	240	4.734848	45653.91	-33567.88	1	56666.41	-36.32587	-1.478958E-008	0.0007261	6
	49	244	3.75601	49028.57	-39201.25	1	62773.71	-38.64441	-1.85708E-008	0.0006863	6
	50	247	3.004808	53227.26	-45502.93	1	70026.13	-40.52648	-1.871999E-008	0.0006465	6
	51	251	2.372217	59118.98	-52899.96	1	79331.34	-41.82234	-1.710482E-008	0.0007397	6
	52	255	1.878005	66356.75	-60659.62	1	89904.44	-42.4318	-1.958874E-008	0.0006477	6
	53	260	1.512097	74672.51	-68189.5	1	101122.7	-42.40173	-1.945771E-008	0.0006938	6
	54	265	1.201923	85589.6	-75996.19	1	114459.6	-41.60231	-1.867974E-008	0.0006341	6
	55	271	0.956633	98176.2	-83086.38	1	128615.3	-40.2412	-2.36795E-008	2.679114E-005	6
