EXPLAIN
TAG	EISPOT
TITLE	LABEL	Potentiostatic EIS	Test Identifier
DATE	LABEL	8/24/2020	Date
TIME	LABEL	23:11:34	Time
NOTES	NOTES	1	Notes...
	
PSTAT	PSTAT	REF3000-16137	Potentiostat
VDC	POTEN	0.00000E+000	T	DC Voltage (V)
FREQINIT	QUANT	3.00000E+005	Initial Freq. (Hz)
FREQFINAL	QUANT	1.00000E+000	Final Freq. (Hz)
PTSPERDEC	QUANT	1.00000E+001	Points/decade
VAC	QUANT	5.00000E+001	AC Voltage (mV rms)
AREA	QUANT	1.00000E+000	Sample Area (cm^2)
SPEED	SELECTOR	2	Optimize for:
ZGUESS	QUANT	1.00000E+003	Estimated Z (ohms)
EOC	QUANT	0	Open Circuit (V)
SEQUENCER	TOGGLE	TRUE	Run as Sequence
PSTATMODEL	IQUANT	5	Pstat Model
PSTATSECTION	LABEL	REF3000-16137	Pstat Section
PSTATSERIALNO	LABEL	16137	Pstat Serial Number
CTRLMODE	IQUANT	1	Control Mode
IESTAB	IQUANT	0	I/E Stability
CASPEED	IQUANT	1	Control Amp Speed
CONVENTION	IQUANT	1	Current Convention
ICHRANGE	IQUANT	2	Ich Range
ICHRANGEMODE	TOGGLE	F	Ich Auto Range
ICHOFFSETENABLE	TOGGLE	T	Ich Offset Enable
ICHOFFSET	QUANT	0	Ich Offset (V)
ICHFILTER	IQUANT	3	Ich Filter
VCHRANGE	IQUANT	2	Vch Range
VCHRANGEMODE	TOGGLE	F	Vch Auto Range
VCHOFFSETENABLE	TOGGLE	T	Vch Offset Enable
VCHOFFSET	QUANT	0	Vch Offset (V)
VCHFILTER	IQUANT	3	Vch Filter
ACHRANGE	IQUANT	2	Ach Range
ACHOFFSETENABLE	TOGGLE	F	Ach Offset Enable
ACHOFFSET	QUANT	0	Ach Offset (V)
ACHFILTER	IQUANT	3	Ach Filter
IERANGELOWERLIMIT	IQUANT	2	I/E Range Lower Limit
IERANGEMODE	TOGGLE	F	I/E AutoRange
IERANGE	IQUANT	11	I/E Range
POSFEEDENABLE	TOGGLE	F	Positive Feedback IR Comp
POSFEEDRESISTANCE	QUANT	0	Positive Feedback Resistance (ohm)
ACHSELECT	IQUANT	0	Ach Select
CABLEID	IQUANT	13	Cable ID
DCCALDATE	LABEL	7/31/2020	DC Calibration Date
ACCALDATE	LABEL	7/31/2020	AC Calibration Date
THERMOSELECT	IQUANT	1	Thermo Select
FRAMEWORKVERSION	QUANT	6.33	Framework Version
INSTRUMENTVERSION	LABEL	3.50	Instrument Version
COMPLIANCEVOLTAGE	IQUANT	0	Compliance Voltage
ZCURVE	TABLE
	Pt	Time	Freq	Zreal	Zimag	Zsig	Zmod	Zphz	Idc	Vdc	IERange
	#	s	Hz	ohm	ohm	V	ohm	°	A	V	#
	0	15	300046.9	167.5557	-2591.881	1	2597.292	-86.30119	-3.440455E-005	-0.0020185	10
	1	30	238359.4	317.3972	-3083.045	1	3099.34	-84.12215	-0.0003222	-0.0065714	9
	2	47	189328.1	184.1676	-4110.905	1	4115.028	-87.43488	0.0007218	0.0004269	10
	3	55	150421.9	210.9015	-4847.359	1	4851.945	-87.50871	0.0002016	0.010297	9
	4	65	119484.4	395.6549	-6003.869	1	6016.891	-86.22966	0.0007856	-0.0229429	9
	5	74	94921.88	540.3304	-7491.717	1	7511.177	-85.87476	4.140528E-005	0.0062286	9
	6	84	75421.88	857.9125	-9725.67	1	9763.44	-84.95892	-0.0002181	0.0015119	9
	7	97	59859.37	1603.643	-12254.25	1	12358.74	-82.5444	0.0001419	0.0025669	9
	8	107	47578.12	2198.207	-16349.22	1	16496.33	-82.34232	0.0001229	-0.0047253	8
	9	114	37828.12	626.667	-19492.28	1	19502.35	-88.15861	-0.0002652	0.0045558	9
	10	126	30046.88	266.1969	-24446.32	1	24447.77	-89.37613	-0.0002931	0.0093421	9
	11	136	23859.38	1494.146	-36397.74	1	36428.4	-87.6493	0.0001376	-0.0101695	9
	12	145	18984.38	5850.517	-32357.78	1	32882.44	-79.75124	0.0002139	-0.0110115	9
	13	153	15046.87	6751.106	-42933.88	1	43461.43	-81.06374	0.0003046	-0.0075737	9
	14	163	11953.13	14165.28	-51401.85	1	53317.96	-74.5929	-0.0002167	0.001474	9
	15	171	9515.62	6705.896	-81074.06	1	81350.92	-85.27164	-7.210931E-006	-0.0439301	8
	16	178	7546.875	24221.84	-141693.2	1	143748.6	-80.2993	-0.000293	0.0093416	9
	17	187	5928.309	173179.7	-13145.66	1	173677.9	-4.340862	-0.0002928	0.009339	9
	18	197	4733.456	190423.7	-117103.2	1	223549.4	-31.58991	0.0001481	-0.0540401	8
	19	208	3796.875	-628461.4	235362.4	1	671088.1	159.4688	4.85247E-005	-0.0083275	9
	20	217	2987.132	-1111.923	-94818.55	1	94825.06	-90.67187	1.685583E-005	0.0475632	8
	21	225	2390.625	12163.55	-44127.84	1	45773.56	-74.58948	0.0002831	-0.0049786	9
	22	234	1884.191	3882.428	38952.8	1	39145.8	84.30812	0.00014	0.0026175	9
	23	241	1516.544	-57080.28	-94887.55	1	110733	-121.0293	-0.000265	0.0045656	9
	24	249	1193.986	45961.25	27800.52	1	53715.04	31.16843	-5.963124E-005	0.0090215	9
	25	258	946.5144	-13562.25	-17291.5	1	21975.68	-128.1082	0.0001476	-0.0541113	8
	26	264	751.7689	-28866.46	20705.25	1	35524.36	144.349	0.0002701	-0.0108465	9
	27	272	597.4265	39757.23	-129210	1	135188.3	-72.89716	0.000143	0.0025373	9
	28	280	477.4305	-290818.9	-1153963	1	1190045	-104.145	-2.190512E-006	0.0005433	8
	29	288	376.6741	170852.7	-2693369	1	2698783	-86.37033	-7.991559E-007	0.0007505	7
	30	292	298.2954	320452.2	-3562275	1	3576659	-84.85966	-8.842319E-008	0.0007687	6
	31	299	237.7717	3187909	-4763742	1	5732015	-56.20946	-9.276506E-009	0.0007851	5
	32	302	189.0121	3758386	-6985641	1	7932506	-61.71904	-8.52212E-009	0.0005928	5
	33	306	150.2404	2237045	-3909821	1	4504561	-60.22352	-9.058929E-009	0.0005284	5
	34	310	119.1737	1003135	-3354519	1	3501296	-73.35123	-8.866519E-009	0.0007607	5
	35	314	95.0169	-23616.66	-1.103063E+007	1	1.103066E+007	-90.12267	-8.743176E-008	0.0007819	6
	36	319	75.60484	-2419077	-1.585556E+007	1	1.603903E+007	-98.6747	-8.788607E-008	0.0007992	6
	37	324	54.50582	3298174	-2.037563E+007	1	2.064084E+007	-80.80537	-8.899417E-009	0.0007596	5
	38	330	45.95588	3.189468E+007	-1.236269E+008	1	1.276749E+008	-75.53363	-3.417852E-010	0.0005228	4
	39	332	37.20238	-4.21477E+007	-1.191773E+008	1	1.264107E+008	-109.4764	-4.512074E-010	0.0007703	4
	40	336	30.04808	1.984224E+007	-9.273324E+007	1	9.483232E+007	-77.92247	-3.036427E-010	0.0007926	4
	41	340	23.91582	-1.465424E+008	-1.626273E+008	1	2.189117E+008	-132.0218	-5.185921E-011	0.000517	4
	42	344	18.60119	9.085423E+007	3.740742E+007	1	9.825378E+007	22.37844	-6.953066E-010	0.0007955	4
	43	348	15.02404	-1.037808E+007	-3.878229E+008	1	3.879618E+008	-91.53286	-1.966072E-010	0.0005636	4
	44	351	12.01923	-4.194059E+008	6.616048E+007	1	4.245921E+008	171.0356	-5.569297E-010	0.0005851	4
	45	356	9.450605	7.652373E+007	-2.38782E+008	1	2.507444E+008	-72.23064	-3.005899E-010	0.0005471	4
	46	362	7.512019	-2.832932E+008	-2.337851E+008	1	3.673017E+008	-140.4692	-8.661273E-008	0.0006005	6
	47	370	5.978954	-1.608097E+008	-3.152242E+008	1	3.538729E+008	-117.0281	-8.791623E-009	0.0007668	5
	48	378	4.734848	9495777	-1.757597E+008	1	1.76016E+008	-86.90749	-8.826105E-008	0.0007596	6
	49	390	3.75601	1.813038E+008	-3.616496E+008	1	4.04551E+008	-63.37428	-8.845355E-009	0.0006676	5
	50	399	3.004808	-5.318904E+007	-2.168705E+008	1	2.232977E+008	-103.7802	-9.018664E-009	0.0006729	5
	51	410	2.372217	-9.811644E+008	1.571408E+007	1	9.812902E+008	179.0824	-5.829209E-010	0.0006884	4
	52	423	1.878005	-2.537008E+009	1.711313E+010	1	1.730016E+010	98.4326	8.836875E-012	0.0006949	3
	53	435	1.512097	-2.304863E+009	-8.473026E+009	1	8.78092E+009	-105.2176	-5.332326E-012	0.0006716	3
	54	448	1.201923	-1.999341E+009	2.011305E+009	1	2.835968E+009	134.8291	1.209041E-011	0.00069	3
	55	463	0.956633	-1.788429E+009	-5.612376E+009	1	5.890437E+009	-107.6749	3.079286E-011	7.251631E-005	3
