EXPLAIN
TAG	EISPOT
TITLE	LABEL	Potentiostatic EIS	Test Identifier
DATE	LABEL	8/25/2020	Date
TIME	LABEL	2:53:26	Time
NOTES	NOTES	1	Notes...
	
PSTAT	PSTAT	REF3000-16137	Potentiostat
VDC	POTEN	0.00000E+000	T	DC Voltage (V)
FREQINIT	QUANT	3.00000E+005	Initial Freq. (Hz)
FREQFINAL	QUANT	1.00000E+000	Final Freq. (Hz)
PTSPERDEC	QUANT	1.00000E+001	Points/decade
VAC	QUANT	5.00000E+001	AC Voltage (mV rms)
AREA	QUANT	1.00000E+000	Sample Area (cm^2)
SPEED	SELECTOR	2	Optimize for:
ZGUESS	QUANT	1.00000E+003	Estimated Z (ohms)
EOC	QUANT	0	Open Circuit (V)
SEQUENCER	TOGGLE	TRUE	Run as Sequence
PSTATMODEL	IQUANT	5	Pstat Model
PSTATSECTION	LABEL	REF3000-16137	Pstat Section
PSTATSERIALNO	LABEL	16137	Pstat Serial Number
CTRLMODE	IQUANT	1	Control Mode
IESTAB	IQUANT	0	I/E Stability
CASPEED	IQUANT	1	Control Amp Speed
CONVENTION	IQUANT	1	Current Convention
ICHRANGE	IQUANT	2	Ich Range
ICHRANGEMODE	TOGGLE	F	Ich Auto Range
ICHOFFSETENABLE	TOGGLE	T	Ich Offset Enable
ICHOFFSET	QUANT	0	Ich Offset (V)
ICHFILTER	IQUANT	3	Ich Filter
VCHRANGE	IQUANT	2	Vch Range
VCHRANGEMODE	TOGGLE	F	Vch Auto Range
VCHOFFSETENABLE	TOGGLE	T	Vch Offset Enable
VCHOFFSET	QUANT	0	Vch Offset (V)
VCHFILTER	IQUANT	3	Vch Filter
ACHRANGE	IQUANT	2	Ach Range
ACHOFFSETENABLE	TOGGLE	F	Ach Offset Enable
ACHOFFSET	QUANT	0	Ach Offset (V)
ACHFILTER	IQUANT	3	Ach Filter
IERANGELOWERLIMIT	IQUANT	2	I/E Range Lower Limit
IERANGEMODE	TOGGLE	F	I/E AutoRange
IERANGE	IQUANT	11	I/E Range
POSFEEDENABLE	TOGGLE	F	Positive Feedback IR Comp
POSFEEDRESISTANCE	QUANT	0	Positive Feedback Resistance (ohm)
ACHSELECT	IQUANT	0	Ach Select
CABLEID	IQUANT	13	Cable ID
DCCALDATE	LABEL	7/31/2020	DC Calibration Date
ACCALDATE	LABEL	7/31/2020	AC Calibration Date
THERMOSELECT	IQUANT	1	Thermo Select
FRAMEWORKVERSION	QUANT	6.33	Framework Version
INSTRUMENTVERSION	LABEL	3.50	Instrument Version
COMPLIANCEVOLTAGE	IQUANT	0	Compliance Voltage
ZCURVE	TABLE
	Pt	Time	Freq	Zreal	Zimag	Zsig	Zmod	Zphz	Idc	Vdc	IERange
	#	s	Hz	ohm	ohm	V	ohm	°	A	V	#
	0	16	300046.9	828.8611	-1354.253	1	1587.769	-58.53157	0.0004442	0.0027699	9
	1	31	238359.4	1129.013	-1520.225	1	1893.609	-53.40014	0.0007866	-0.0237654	9
	2	46	189328.1	1345.996	-1572.556	1	2069.937	-49.43884	0.0002608	-0.0184825	9
	3	53	150421.9	1606.575	-1760.436	1	2383.321	-47.61639	-0.0007012	0.0122994	9
	4	61	119484.4	1900.828	-1720.185	1	2563.627	-42.14404	0.0002251	0.0098709	9
	5	69	94921.88	2313.119	-1784.661	1	2921.564	-37.65159	4.776288E-005	0.0059862	9
	6	79	75421.88	2686.546	-1787.855	1	3227.066	-33.64315	-0.0002627	0.004613	9
	7	88	59859.37	2930.271	-1758.448	1	3417.401	-30.96786	-5.228326E-005	-0.005367	9
	8	97	47578.12	3286.139	-1621.334	1	3664.346	-26.26107	0.0002254	-0.0014957	9
	9	107	37828.12	3434.33	-1585.455	1	3782.63	-24.78036	-0.0002871	0.0071424	9
	10	117	30046.88	3686.382	-1405.956	1	3945.393	-20.87644	4.366648E-005	-0.0082051	9
	11	127	23859.38	3963.096	-1465.769	1	4225.471	-20.29714	-0.0002879	0.0092714	9
	12	134	18984.38	4100.982	-1311.795	1	4305.678	-17.7381	-0.0002665	0.0107144	9
	13	142	15046.87	4223.887	-1292.421	1	4417.19	-17.01301	0.0003004	-0.0076058	9
	14	149	11953.13	4585.041	-1164.959	1	4730.722	-14.25595	0.0001385	-0.050443	8
	15	156	9515.62	4500.151	-1169.031	1	4649.515	-14.56219	4.648655E-005	-0.0082422	9
	16	162	7546.875	4743.624	-1211.966	1	4896.001	-14.33211	0.000295	-0.0095119	9
	17	170	5928.309	5128.176	-1190.784	1	5264.613	-13.07266	-0.0001412	0.0270075	8
	18	176	4733.456	5172.934	-1392.132	1	5356.984	-15.06249	0.0003005	-0.0075922	9
	19	184	3796.875	5117.028	-1213.837	1	5259.028	-13.34477	0.0001396	0.0026714	9
	20	191	2987.132	5305.244	-1393.102	1	5485.102	-14.7131	-0.0002902	0.0093464	9
	21	198	2390.625	5565.015	-1179.441	1	5688.626	-11.96612	0.000147	-0.0519053	8
	22	204	1884.191	5408.462	-1705.153	1	5670.892	-17.49876	-5.280965E-005	-0.005364	9
	23	212	1516.544	6099.063	-1407.501	1	6259.363	-12.99484	4.23216E-005	-0.0502712	8
	24	217	1193.986	6145.486	-1549.054	1	6337.71	-14.14748	-7.720196E-005	0.0560175	8
	25	223	946.5144	6846.381	-2267.789	1	7212.198	-18.32689	-0.0001237	0.0099609	8
	26	226	751.7689	6232.508	-1261.971	1	6358.988	-11.4466	-9.434518E-005	-0.0078801	8
	27	231	597.4265	6670.295	-3045.684	1	7332.737	-24.54163	4.378949E-005	-0.0081109	9
	28	236	477.4305	7195.366	-2261.538	1	7542.403	-17.44818	-1.527557E-006	0.0005423	8
	29	240	376.6741	9453.098	-2958.495	1	9905.24	-17.37833	-5.999123E-007	0.0006919	7
	30	242	298.2954	9839.84	-3176.156	1	10339.75	-17.88931	-6.051739E-007	0.0007187	7
	31	245	237.7717	10280.11	-3446.213	1	10842.37	-18.53276	-6.011807E-007	0.0007368	7
	32	247	189.0121	10774.47	-3725.228	1	11400.28	-19.07262	-6.043058E-007	0.0007141	7
	33	249	150.2404	11132.03	-3944.202	1	11810.12	-19.5098	-5.852666E-007	0.0005121	7
	34	252	119.1737	11879.23	-4377.052	1	12659.97	-20.22695	-6.113694E-007	0.0006358	7
	35	255	95.0169	12249.94	-4582.539	1	13079.02	-20.51015	-5.79648E-007	0.0005452	7
	36	257	75.60484	12792.54	-4965.125	1	13722.3	-21.21256	-5.941733E-007	0.000735	7
	37	260	54.50582	13508.05	-5663.992	1	14647.47	-22.74854	-5.86848E-007	0.0004856	7
	38	262	45.95588	13850.9	-6099.073	1	15134.27	-23.7657	-5.863067E-007	0.0007016	7
	39	265	37.20238	14444.31	-6804.361	1	15966.76	-25.22397	-6.025811E-007	0.0007267	7
	40	267	30.04808	14988.35	-7624.212	1	16816.04	-26.96134	-6.006978E-007	0.0007173	7
	41	270	23.91582	15755.25	-8718.764	1	18006.8	-28.95961	-5.922725E-007	0.0007152	7
	42	272	18.60119	16736.9	-10255.18	1	19628.87	-31.497	-6.01458E-007	0.0006378	7
	43	274	15.02404	17645.54	-11683.53	1	21162.94	-33.50949	-5.845042E-007	0.0007095	7
	44	277	12.01923	19128.53	-13510.13	1	23418.46	-35.23285	-5.782338E-007	0.0005009	7
	45	279	9.450605	20998.16	-15507.24	1	26103.59	-36.44604	-5.913463E-007	0.0007583	7
	46	282	7.512019	23471.96	-17587.19	1	29329.88	-36.84367	-6.083921E-007	0.0006907	7
	47	285	5.978954	26220.69	-19254.24	1	32530.76	-36.29039	-5.86112E-007	0.0004896	7
	48	290	4.734848	29530.53	-20669.44	1	36045.5	-34.98951	-5.754817E-007	0.0005683	7
	49	294	3.75601	33006.44	-21455.96	1	39367.28	-33.02603	-5.944526E-007	0.0007437	7
	50	299	3.004808	36377.93	-21540.63	1	42277.09	-30.63124	-5.886411E-007	0.0006253	7
	51	306	2.372217	40142.51	-21507.82	1	45541.27	-28.18181	-5.922587E-007	0.0007301	7
	52	310	1.878005	42849.97	-20064.23	1	47314.83	-25.09105	-5.99308E-007	0.0005828	7
	53	319	1.512097	45026.79	-18774.85	1	48784.29	-22.6347	-5.995709E-007	0.0007127	7
	54	330	1.201923	46999.08	-17379.78	1	50109.59	-20.29388	-5.998833E-007	0.0005928	7
	55	343	0.956633	51807	-17031.05	1	54534.59	-18.19778	-1.23857E-007	2.483299E-005	6
