EXPLAIN
TAG	EISPOT
TITLE	LABEL	Potentiostatic EIS	Test Identifier
DATE	LABEL	8/25/2020	Date
TIME	LABEL	1:02:45	Time
NOTES	NOTES	1	Notes...
	
PSTAT	PSTAT	REF3000-16137	Potentiostat
VDC	POTEN	0.00000E+000	T	DC Voltage (V)
FREQINIT	QUANT	3.00000E+005	Initial Freq. (Hz)
FREQFINAL	QUANT	1.00000E+000	Final Freq. (Hz)
PTSPERDEC	QUANT	1.00000E+001	Points/decade
VAC	QUANT	5.00000E+001	AC Voltage (mV rms)
AREA	QUANT	1.00000E+000	Sample Area (cm^2)
SPEED	SELECTOR	2	Optimize for:
ZGUESS	QUANT	1.00000E+003	Estimated Z (ohms)
EOC	QUANT	0	Open Circuit (V)
SEQUENCER	TOGGLE	TRUE	Run as Sequence
PSTATMODEL	IQUANT	5	Pstat Model
PSTATSECTION	LABEL	REF3000-16137	Pstat Section
PSTATSERIALNO	LABEL	16137	Pstat Serial Number
CTRLMODE	IQUANT	1	Control Mode
IESTAB	IQUANT	0	I/E Stability
CASPEED	IQUANT	1	Control Amp Speed
CONVENTION	IQUANT	1	Current Convention
ICHRANGE	IQUANT	2	Ich Range
ICHRANGEMODE	TOGGLE	F	Ich Auto Range
ICHOFFSETENABLE	TOGGLE	T	Ich Offset Enable
ICHOFFSET	QUANT	0	Ich Offset (V)
ICHFILTER	IQUANT	3	Ich Filter
VCHRANGE	IQUANT	2	Vch Range
VCHRANGEMODE	TOGGLE	F	Vch Auto Range
VCHOFFSETENABLE	TOGGLE	T	Vch Offset Enable
VCHOFFSET	QUANT	0	Vch Offset (V)
VCHFILTER	IQUANT	3	Vch Filter
ACHRANGE	IQUANT	2	Ach Range
ACHOFFSETENABLE	TOGGLE	F	Ach Offset Enable
ACHOFFSET	QUANT	0	Ach Offset (V)
ACHFILTER	IQUANT	3	Ach Filter
IERANGELOWERLIMIT	IQUANT	2	I/E Range Lower Limit
IERANGEMODE	TOGGLE	F	I/E AutoRange
IERANGE	IQUANT	11	I/E Range
POSFEEDENABLE	TOGGLE	F	Positive Feedback IR Comp
POSFEEDRESISTANCE	QUANT	0	Positive Feedback Resistance (ohm)
ACHSELECT	IQUANT	0	Ach Select
CABLEID	IQUANT	13	Cable ID
DCCALDATE	LABEL	7/31/2020	DC Calibration Date
ACCALDATE	LABEL	7/31/2020	AC Calibration Date
THERMOSELECT	IQUANT	1	Thermo Select
FRAMEWORKVERSION	QUANT	6.33	Framework Version
INSTRUMENTVERSION	LABEL	3.50	Instrument Version
COMPLIANCEVOLTAGE	IQUANT	0	Compliance Voltage
ZCURVE	TABLE
	Pt	Time	Freq	Zreal	Zimag	Zsig	Zmod	Zphz	Idc	Vdc	IERange
	#	s	Hz	ohm	ohm	V	ohm	°	A	V	#
	0	16	300046.9	857.4639	-1359.895	1	1607.656	-57.76706	-0.0001065	-0.0133409	9
	1	30	238359.4	1033.37	-1487.239	1	1811.003	-55.20748	-0.0007071	0.0124432	9
	2	43	189328.1	1304.62	-1635.665	1	2092.231	-51.42385	-0.0008096	0.0291882	9
	3	52	150421.9	1525.15	-1593.776	1	2205.948	-46.26047	0.0004204	0.0028189	9
	4	61	119484.4	1946.13	-1958.453	1	2760.971	-45.18082	-0.000335	-0.0059778	9
	5	68	94921.88	2310.226	-1807.94	1	2933.563	-38.04607	0.0001346	-0.0100759	9
	6	78	75421.88	2592.715	-1824.515	1	3170.335	-35.13436	-0.0002034	0.0002856	10
	7	86	59859.37	2977.821	-1729.495	1	3443.627	-30.14768	0.0002634	-0.0107116	9
	8	95	47578.12	3194.781	-1613.014	1	3578.888	-26.78878	-5.519044E-005	0.0088845	9
	9	105	37828.12	3812.094	-867.9086	1	3909.646	-12.82604	-8.249449E-005	0.0561184	8
	10	112	30046.88	3921.11	-1044.845	1	4057.932	-14.92072	-0.0001185	0.0544676	8
	11	119	23859.38	3509.642	-1466.913	1	3803.869	-22.6833	-0.0002186	0.0017074	9
	12	126	18984.38	4026.436	-1317.598	1	4236.538	-18.12	0.0002593	-0.010618	9
	13	133	15046.87	4082.444	-1226.271	1	4262.638	-16.71904	0.0001444	0.0024274	9
	14	140	11953.13	4397.69	-1105.239	1	4534.449	-14.10754	0.0001544	-0.0418114	8
	15	145	9515.62	4448.041	-1181.901	1	4602.386	-14.88038	0.0001352	-0.010097	9
	16	152	7546.875	4943.409	-1199.332	1	5086.815	-13.63718	0.0001401	-0.0265473	8
	17	157	5928.309	4890.918	-1270.98	1	5053.363	-14.56699	5.595914E-005	0.030002	8
	18	162	4733.456	5195.043	-1031.964	1	5296.548	-11.23521	4.176045E-005	-0.0503753	8
	19	168	3796.875	5176.754	-1083.794	1	5288.988	-11.82454	0.0001467	-0.051775	8
	20	173	2987.132	5327.755	-1527.207	1	5542.322	-15.99501	-0.0001459	0.0106163	9
	21	181	2390.625	4875.303	-388.7232	1	4890.775	-4.558729	-0.0002929	0.009397	9
	22	187	1884.191	5097.448	-1326.021	1	5267.096	-14.58142	0.0001339	-0.0100512	9
	23	194	1516.544	5335.657	-1451.766	1	5529.635	-15.221	-0.0001435	-0.0019759	9
	24	202	1193.986	5690.436	-1305.888	1	5838.356	-12.92491	-5.260522E-005	-0.0053594	9
	25	209	946.5144	6161.185	-2330.607	1	6587.255	-20.72025	0.0001249	-0.0072138	8
	26	213	751.7689	6718.099	-1546.53	1	6893.809	-12.96384	0.000283	-0.005219	9
	27	217	597.4265	7838.417	-1907.948	1	8067.282	-13.68032	-0.000115	0.0544952	8
	28	222	477.4305	7116.295	-2194.909	1	7447.099	-17.14155	-1.724418E-006	0.0007251	8
	29	227	376.6741	9263.374	-2841.716	1	9689.45	-17.05439	-5.835637E-007	0.0005943	7
	30	229	298.2954	9668.65	-3076.716	1	10146.37	-17.65189	-6.106281E-007	0.0007131	7
	31	232	237.7717	10113.11	-3345.559	1	10652.13	-18.30494	-6.069672E-007	0.0007453	7
	32	234	189.0121	10571.64	-3580.999	1	11161.68	-18.71311	-5.870425E-007	0.0007262	7
	33	237	150.2404	11154.7	-3800.96	1	11784.51	-18.81652	-5.934385E-007	0.000637	7
	34	240	119.1737	11453	-4105.309	1	12166.54	-19.72013	-5.690964E-007	0.0006036	7
	35	242	95.0169	12059.14	-4433.182	1	12848.19	-20.18443	-6.111983E-007	0.0007238	7
	36	244	75.60484	12540.15	-4779.604	1	13420.14	-20.86404	-6.038034E-007	0.0007217	7
	37	247	54.50582	13277.54	-5418.323	1	14340.54	-22.19949	-5.95323E-007	0.0005893	7
	38	249	45.95588	13679.02	-5857.414	1	14880.35	-23.18081	-6.115318E-007	0.0007499	7
	39	252	37.20238	14121.51	-6460.498	1	15529.17	-24.58378	-5.843694E-007	0.000742	7
	40	254	30.04808	14738.68	-7292.682	1	16444.2	-26.32615	-5.860417E-007	0.0004901	7
	41	257	23.91582	15390.34	-8287.309	1	17479.76	-28.30134	-5.916803E-007	0.0007094	7
	42	260	18.60119	16348.12	-9688.79	1	19003.52	-30.6533	-5.836644E-007	0.0005913	7
	43	262	15.02404	17390.51	-11053.8	1	20606.22	-32.44098	-5.99622E-007	0.0007483	7
	44	264	12.01923	18775.15	-12625.95	1	22625.67	-33.92013	-5.969676E-007	0.0007195	7
	45	267	9.450605	20665.31	-14475.37	1	25230.77	-35.00997	-6.026472E-007	0.0007338	7
	46	270	7.512019	22829.29	-16171.84	1	27976.86	-35.31305	-5.823817E-007	0.0005219	7
	47	273	5.978954	25418.08	-17618.76	1	30927.32	-34.7281	-5.962497E-007	0.0005596	7
	48	277	4.734848	28496.52	-18819.83	1	34150.22	-33.4418	-5.960334E-007	0.0005869	7
	49	281	3.75601	31663.49	-19372.43	1	37119.64	-31.45923	-5.913423E-007	0.0005761	7
	50	286	3.004808	34731.26	-19465.66	1	39814.22	-29.26911	-5.982082E-007	0.0007346	7
	51	293	2.372217	37988.33	-19278.51	1	42600.17	-26.90711	-6.078383E-007	0.0005418	7
	52	297	1.878005	40839.27	-18513.79	1	44839.79	-24.38635	-6.025562E-007	0.0006285	7
	53	302	1.512097	42806.21	-17237.34	1	46146.48	-21.93381	-6.010133E-007	0.0005465	7
	54	312	1.201923	44634.9	-15899.51	1	47382.15	-19.60653	-6.063652E-007	0.0006457	7
	55	325	0.956633	46363.24	-14773.96	1	48660.25	-17.67484	-6.26775E-007	-2.305734E-005	7
