EXPLAIN
TAG	EISPOT
TITLE	LABEL	Potentiostatic EIS	Test Identifier
DATE	LABEL	8/25/2020	Date
TIME	LABEL	2:47:32	Time
NOTES	NOTES	1	Notes...
	
PSTAT	PSTAT	REF3000-16137	Potentiostat
VDC	POTEN	0.00000E+000	T	DC Voltage (V)
FREQINIT	QUANT	3.00000E+005	Initial Freq. (Hz)
FREQFINAL	QUANT	1.00000E+000	Final Freq. (Hz)
PTSPERDEC	QUANT	1.00000E+001	Points/decade
VAC	QUANT	5.00000E+001	AC Voltage (mV rms)
AREA	QUANT	1.00000E+000	Sample Area (cm^2)
SPEED	SELECTOR	2	Optimize for:
ZGUESS	QUANT	1.00000E+003	Estimated Z (ohms)
EOC	QUANT	0	Open Circuit (V)
SEQUENCER	TOGGLE	TRUE	Run as Sequence
PSTATMODEL	IQUANT	5	Pstat Model
PSTATSECTION	LABEL	REF3000-16137	Pstat Section
PSTATSERIALNO	LABEL	16137	Pstat Serial Number
CTRLMODE	IQUANT	1	Control Mode
IESTAB	IQUANT	0	I/E Stability
CASPEED	IQUANT	1	Control Amp Speed
CONVENTION	IQUANT	1	Current Convention
ICHRANGE	IQUANT	2	Ich Range
ICHRANGEMODE	TOGGLE	F	Ich Auto Range
ICHOFFSETENABLE	TOGGLE	T	Ich Offset Enable
ICHOFFSET	QUANT	0	Ich Offset (V)
ICHFILTER	IQUANT	3	Ich Filter
VCHRANGE	IQUANT	2	Vch Range
VCHRANGEMODE	TOGGLE	F	Vch Auto Range
VCHOFFSETENABLE	TOGGLE	T	Vch Offset Enable
VCHOFFSET	QUANT	0	Vch Offset (V)
VCHFILTER	IQUANT	3	Vch Filter
ACHRANGE	IQUANT	2	Ach Range
ACHOFFSETENABLE	TOGGLE	F	Ach Offset Enable
ACHOFFSET	QUANT	0	Ach Offset (V)
ACHFILTER	IQUANT	3	Ach Filter
IERANGELOWERLIMIT	IQUANT	2	I/E Range Lower Limit
IERANGEMODE	TOGGLE	F	I/E AutoRange
IERANGE	IQUANT	11	I/E Range
POSFEEDENABLE	TOGGLE	F	Positive Feedback IR Comp
POSFEEDRESISTANCE	QUANT	0	Positive Feedback Resistance (ohm)
ACHSELECT	IQUANT	0	Ach Select
CABLEID	IQUANT	13	Cable ID
DCCALDATE	LABEL	7/31/2020	DC Calibration Date
ACCALDATE	LABEL	7/31/2020	AC Calibration Date
THERMOSELECT	IQUANT	1	Thermo Select
FRAMEWORKVERSION	QUANT	6.33	Framework Version
INSTRUMENTVERSION	LABEL	3.50	Instrument Version
COMPLIANCEVOLTAGE	IQUANT	0	Compliance Voltage
ZCURVE	TABLE
	Pt	Time	Freq	Zreal	Zimag	Zsig	Zmod	Zphz	Idc	Vdc	IERange
	#	s	Hz	ohm	ohm	V	ohm	°	A	V	#
	0	15	300046.9	849.3658	-1367.002	1	1609.384	-58.14588	0.0006113	-0.0319901	9
	1	30	238359.4	882.3397	-1303.461	1	1574.019	-55.90512	-0.0007296	0.0123963	9
	2	44	189328.1	1318.616	-1658.555	1	2118.857	-51.51394	0.0006072	-0.0308924	9
	3	54	150421.9	1598.825	-1771.581	1	2386.366	-47.93423	-0.0000961	0.017219	9
	4	62	119484.4	1856.211	-1907.943	1	2661.91	-45.7874	0.0007023	-0.0028279	10
	5	71	94921.88	2300.308	-1807.287	1	2925.355	-38.15572	-0.0001442	-0.001971	9
	6	81	75421.88	3184.163	-961.748	1	3326.237	-16.80647	-0.0001187	0.0550528	8
	7	88	59859.37	2907.616	-1813.504	1	3426.81	-31.95212	-0.0002146	0.0015682	9
	8	99	47578.12	3200.135	-1719.996	1	3633.077	-28.25697	-0.0002889	0.0092081	9
	9	109	37828.12	3536.306	-1614.965	1	3887.618	-24.5453	0.0001359	-0.010165	9
	10	117	30046.88	3773.396	-1431.47	1	4035.793	-20.77467	-0.000218	0.0112666	9
	11	128	23859.38	3890.37	-1293.844	1	4099.879	-18.39588	0.0002959	-0.0095652	9
	12	135	18984.38	4042.101	-1337.461	1	4257.626	-18.30848	4.587644E-005	0.0060011	9
	13	142	15046.87	4202.192	-1185.098	1	4366.105	-15.74946	0.0002638	-0.0106494	9
	14	148	11953.13	4425.662	-1059.004	1	4550.601	-13.45711	-0.0001426	-0.0022278	9
	15	156	9515.62	4516.327	-1202.099	1	4673.569	-14.90471	0.0003006	-0.0075743	9
	16	162	7546.875	4761.403	-1358.112	1	4951.306	-15.91993	0.0003025	-0.0097541	9
	17	169	5928.309	4862.891	-1343.249	1	5045	-15.44145	4.561012E-005	0.0059716	9
	18	176	4733.456	5141.747	-1200.626	1	5280.063	-13.14338	1.412222E-005	0.0433896	8
	19	182	3796.875	5214.068	-1150.478	1	5339.485	-12.44287	-8.168921E-005	0.0561288	8
	20	187	2987.132	5373	-1407.755	1	5554.359	-14.68179	0.0002095	-0.0109294	9
	21	194	2390.625	7527.223	-2038.746	1	7798.434	-15.15494	-0.0002622	0.0045284	9
	22	200	1884.191	5585.114	-999.523	1	5673.847	-10.14635	-0.0002886	0.0071794	9
	23	209	1516.544	5462.933	-1414.985	1	5643.21	-14.52137	-0.000143	-0.0020214	9
	24	218	1193.986	6002.298	-1653.066	1	6225.77	-15.39785	-5.276268E-005	-0.0258894	8
	25	224	946.5144	6835.927	-1095.42	1	6923.138	-9.103942	0.0002848	-0.0051542	9
	26	229	751.7689	10281.83	-793.3688	1	10312.4	-4.412325	-7.621537E-005	0.0564639	8
	27	233	597.4265	6321.836	-2649.118	1	6854.446	-22.73575	4.013433E-005	-0.049302	8
	28	238	477.4305	7193.72	-2242.222	1	7535.063	-17.31182	-1.494212E-006	0.0005804	8
	29	242	376.6741	9413.966	-2942.211	1	9863.03	-17.35595	-5.93907E-007	0.0005908	7
	30	244	298.2954	9759.41	-3173.77	1	10262.5	-18.01458	-5.937151E-007	0.0007455	7
	31	247	237.7717	10348.05	-3462.682	1	10912.03	-18.50135	-6.031506E-007	0.0004858	7
	32	249	189.0121	10733.7	-3698.547	1	11353.04	-19.01259	-6.018516E-007	0.00074	7
	33	252	150.2404	11094.64	-4022.698	1	11801.4	-19.92965	-5.94808E-007	0.000714	7
	34	254	119.1737	11924.75	-4375.829	1	12702.26	-20.1508	-6.34763E-007	0.00072	7
	35	256	95.0169	12203.99	-4577.723	1	13034.3	-20.56109	-5.851175E-007	0.0007208	7
	36	259	75.60484	12818.92	-4975.331	1	13750.59	-21.21243	-5.8937E-007	0.0004941	7
	37	262	54.50582	13505.38	-5621.457	1	14628.61	-22.59895	-5.9407E-007	0.000586	7
	38	264	45.95588	13821.45	-6072.067	1	15096.44	-23.71695	-5.696748E-007	0.0005521	7
	39	266	37.20238	14505.99	-6817.178	1	16028.03	-25.17146	-6.003827E-007	0.0007447	7
	40	269	30.04808	14928.67	-7595.006	1	16749.61	-26.96485	-5.71801E-007	0.0005449	7
	41	272	23.91582	15786.07	-8766.208	1	18056.75	-29.04398	-5.963492E-007	0.0005193	7
	42	274	18.60119	16644.06	-10242.19	1	19542.96	-31.60673	-6.067186E-007	0.0006932	7
	43	277	15.02404	17661.58	-11693.89	1	21182.03	-33.5089	-5.844548E-007	0.0007322	7
	44	279	12.01923	19287.51	-13593.97	1	23596.7	-35.17644	-6.037882E-007	0.0005128	7
	45	282	9.450605	21010.59	-15477.03	1	26095.65	-36.37648	-5.73567E-007	0.0005261	7
	46	284	7.512019	23341.37	-17503.35	1	29175.11	-36.8657	-5.860124E-007	0.0005023	7
	47	287	5.978954	26180.76	-19131.44	1	32425.98	-36.15725	-5.924E-007	0.0007204	7
	48	292	4.734848	29454.81	-20638.9	1	35965.95	-35.01882	-5.842774E-007	0.0005215	7
	49	295	3.75601	32978.92	-21468.93	1	39351.29	-33.06371	-5.743777E-007	0.0005612	7
	50	301	3.004808	36303.77	-21524.8	1	42205.23	-30.66405	-5.957878E-007	0.0007177	7
	51	307	2.372217	39974.23	-21335.11	1	45311.43	-28.08981	-5.964973E-007	0.0005753	7
	52	312	1.878005	42773.57	-19940.28	1	47193.15	-24.9941	-5.939975E-007	0.0006062	7
	53	321	1.512097	44933.31	-18708.48	1	48672.47	-22.60494	-5.984682E-007	0.0006739	7
	54	331	1.201923	46906.74	-17292.56	1	49992.75	-20.23682	-6.008501E-007	0.0006248	7
	55	344	0.956633	51661.33	-16941.02	1	54368.11	-18.15558	-1.232345E-007	2.727489E-005	6
