EXPLAIN
TAG	EISPOT
TITLE	LABEL	Potentiostatic EIS	Test Identifier
DATE	LABEL	8/25/2020	Date
TIME	LABEL	1:37:09	Time
NOTES	NOTES	1	Notes...
	
PSTAT	PSTAT	REF3000-16137	Potentiostat
VDC	POTEN	0.00000E+000	T	DC Voltage (V)
FREQINIT	QUANT	3.00000E+005	Initial Freq. (Hz)
FREQFINAL	QUANT	1.00000E+000	Final Freq. (Hz)
PTSPERDEC	QUANT	1.00000E+001	Points/decade
VAC	QUANT	5.00000E+001	AC Voltage (mV rms)
AREA	QUANT	1.00000E+000	Sample Area (cm^2)
SPEED	SELECTOR	2	Optimize for:
ZGUESS	QUANT	1.00000E+003	Estimated Z (ohms)
EOC	QUANT	0	Open Circuit (V)
SEQUENCER	TOGGLE	TRUE	Run as Sequence
PSTATMODEL	IQUANT	5	Pstat Model
PSTATSECTION	LABEL	REF3000-16137	Pstat Section
PSTATSERIALNO	LABEL	16137	Pstat Serial Number
CTRLMODE	IQUANT	1	Control Mode
IESTAB	IQUANT	0	I/E Stability
CASPEED	IQUANT	1	Control Amp Speed
CONVENTION	IQUANT	1	Current Convention
ICHRANGE	IQUANT	2	Ich Range
ICHRANGEMODE	TOGGLE	F	Ich Auto Range
ICHOFFSETENABLE	TOGGLE	T	Ich Offset Enable
ICHOFFSET	QUANT	0	Ich Offset (V)
ICHFILTER	IQUANT	3	Ich Filter
VCHRANGE	IQUANT	2	Vch Range
VCHRANGEMODE	TOGGLE	F	Vch Auto Range
VCHOFFSETENABLE	TOGGLE	T	Vch Offset Enable
VCHOFFSET	QUANT	0	Vch Offset (V)
VCHFILTER	IQUANT	3	Vch Filter
ACHRANGE	IQUANT	2	Ach Range
ACHOFFSETENABLE	TOGGLE	F	Ach Offset Enable
ACHOFFSET	QUANT	0	Ach Offset (V)
ACHFILTER	IQUANT	3	Ach Filter
IERANGELOWERLIMIT	IQUANT	2	I/E Range Lower Limit
IERANGEMODE	TOGGLE	F	I/E AutoRange
IERANGE	IQUANT	11	I/E Range
POSFEEDENABLE	TOGGLE	F	Positive Feedback IR Comp
POSFEEDRESISTANCE	QUANT	0	Positive Feedback Resistance (ohm)
ACHSELECT	IQUANT	0	Ach Select
CABLEID	IQUANT	13	Cable ID
DCCALDATE	LABEL	7/31/2020	DC Calibration Date
ACCALDATE	LABEL	7/31/2020	AC Calibration Date
THERMOSELECT	IQUANT	1	Thermo Select
FRAMEWORKVERSION	QUANT	6.33	Framework Version
INSTRUMENTVERSION	LABEL	3.50	Instrument Version
COMPLIANCEVOLTAGE	IQUANT	0	Compliance Voltage
ZCURVE	TABLE
	Pt	Time	Freq	Zreal	Zimag	Zsig	Zmod	Zphz	Idc	Vdc	IERange
	#	s	Hz	ohm	ohm	V	ohm	°	A	V	#
	0	15	300046.9	681.8557	-1297.609	1	1465.85	-62.27938	-0.0006831	0.0005983	10
	1	33	238359.4	1136.154	-1364.12	1	1775.294	-50.20963	-0.0004437	0.0312197	9
	2	49	189328.1	1316.594	-1669.337	1	2126.054	-51.7374	-0.000696	0.0125051	9
	3	59	150421.9	1571.089	-1641.704	1	2272.336	-46.25912	5.001625E-005	0.0145912	9
	4	69	119484.4	1934.458	-1745.746	1	2605.716	-42.06459	-0.0001326	-0.0129152	9
	5	77	94921.88	2301.229	-1796.105	1	2919.186	-37.97198	0.0001362	-0.0101835	9
	6	87	75421.88	3063.798	-901.8354	1	3193.769	-16.40191	5.355912E-005	0.029999	8
	7	95	59859.37	3181.78	-1310.962	1	3441.271	-22.39271	-0.0001428	0.0268642	8
	8	102	47578.12	3202.106	-1633.369	1	3594.632	-27.02577	-0.0001173	-0.0001179	10
	9	111	37828.12	3418.145	-1541.734	1	3749.754	-24.27748	4.395433E-005	-0.0081673	9
	10	119	30046.88	3639.621	-1429.151	1	3910.155	-21.43819	-0.0001458	0.0105667	9
	11	128	23859.38	4241.8	-1166.326	1	4399.225	-15.37413	-0.0001259	0.0486858	8
	12	133	18984.38	4122.145	-1316.88	1	4327.384	-17.71685	-0.0002941	0.007523	9
	13	141	15046.87	4140.273	-1208.433	1	4313.024	-16.27109	0.0001414	0.0025715	9
	14	147	11953.13	4333.474	-1269.598	1	4515.626	-16.32924	0.0003006	-0.010032	9
	15	155	9515.62	4485.101	-1177.731	1	4637.152	-14.71299	-0.000291	0.0093246	9
	16	161	7546.875	4721.094	-1075.056	1	4841.949	-12.82827	0.0002957	-0.0096759	9
	17	169	5928.309	4605.698	-1024.095	1	4718.18	-12.536	-0.0002665	0.0107477	9
	18	176	4733.456	4942.093	-1306.69	1	5111.919	-14.81011	-5.355083E-005	0.0087808	9
	19	183	3796.875	5116.173	-1225.823	1	5260.977	-13.47394	-0.0001429	0.0270154	8
	20	189	2987.132	5006.08	-1178.343	1	5142.891	-13.24532	0.0001434	0.0023723	9
	21	195	2390.625	5402.203	-1247.925	1	5544.467	-13.00733	0.0001261	-0.0071835	8
	22	200	1884.191	5491.754	-1412.444	1	5670.482	-14.4235	0.0001448	-0.0260979	8
	23	206	1516.544	5646.946	-1545.392	1	5854.591	-15.30531	-5.397739E-005	0.0088157	9
	24	214	1193.986	6187.239	-1524.872	1	6372.375	-13.84488	-0.0001223	0.0098041	8
	25	219	946.5144	5987.993	-606.9395	1	6018.674	-5.787701	-7.941132E-005	0.0564135	8
	26	223	751.7689	5699.652	-1660.866	1	5936.709	-16.24601	-0.0002929	0.009423	9
	27	228	597.4265	7350.562	-1492.503	1	7500.555	-11.47765	-0.0002195	0.0017519	9
	28	233	477.4305	6817.144	-2129.325	1	7141.952	-17.34612	-1.600704E-007	7.887049E-005	9
	29	237	376.6741	9235.904	-2871.956	1	9672.13	-17.27337	-5.98474E-007	0.0005534	7
	30	240	298.2954	9683.81	-3125.253	1	10175.63	-17.88643	-5.837963E-007	0.0005213	7
	31	242	237.7717	10067.05	-3358.57	1	10612.52	-18.44973	-6.073494E-007	0.0007155	7
	32	245	189.0121	10542.79	-3619.475	1	11146.8	-18.948	-6.024707E-007	0.0006001	7
	33	247	150.2404	10904.3	-3938.445	1	11593.75	-19.85884	-5.830081E-007	0.0005162	7
	34	249	119.1737	11504.52	-4132.9	1	12224.35	-19.76039	-5.440193E-007	0.0004963	7
	35	252	95.0169	12069.06	-4469.788	1	12870.17	-20.32216	-5.948774E-007	0.0005969	7
	36	254	75.60484	12541.9	-4808.491	1	13432.09	-20.97653	-5.89402E-007	0.0004878	7
	37	257	54.50582	13264.66	-5470.267	1	14348.35	-22.41096	-5.87228E-007	0.0007221	7
	38	259	45.95588	13730.64	-5925.509	1	14954.67	-23.34279	-5.983219E-007	0.0007001	7
	39	262	37.20238	14131.28	-6534.325	1	15568.89	-24.8159	-5.714305E-007	0.0005256	7
	40	264	30.04808	14750.64	-7344.374	1	16477.9	-26.46881	-5.813524E-007	0.0004936	7
	41	267	23.91582	15409.7	-8399.531	1	17550.25	-28.59395	-6.001368E-007	0.0007052	7
	42	269	18.60119	16329.5	-9801.89	1	19045.47	-30.97457	-5.747486E-007	0.0004967	7
	43	272	15.02404	17494.48	-11222.69	1	20784.74	-32.68014	-5.727609E-007	0.0005549	7
	44	274	12.01923	18747.41	-12783.49	1	22691.03	-34.2893	-5.853988E-007	0.0006333	7
	45	277	9.450605	20726.54	-14734.88	1	25430.42	-35.40973	-5.798797E-007	0.0005575	7
	46	279	7.512019	22814.55	-16398.22	1	28096.36	-35.70712	-5.690755E-007	0.0005388	7
	47	283	5.978954	25544.49	-17926.3	1	31206.95	-35.05995	-5.917821E-007	0.0006985	7
	48	287	4.734848	28641.07	-19116.26	1	34434.61	-33.72083	-5.987965E-007	0.0006915	7
	49	291	3.75601	31877.08	-19748.23	1	37498.54	-31.77871	-5.989352E-007	0.0007513	7
	50	297	3.004808	34946.61	-19834.09	1	40182.79	-29.57725	-5.822386E-007	0.0005742	7
	51	303	2.372217	38290.5	-19670.91	1	43047.73	-27.19084	-6.014824E-007	0.0006374	7
	52	307	1.878005	41306.71	-18846.71	1	45403.11	-24.52545	-6.092839E-007	0.0006082	7
	53	312	1.512097	43240.43	-17605.41	1	46687.11	-22.15378	-6.033837E-007	0.0005679	7
	54	323	1.201923	44886.12	-16057.55	1	47671.89	-19.68414	-6.038968E-007	0.0005932	7
	55	336	0.956633	46633.83	-14946.21	1	48970.43	-17.77073	-6.211335E-007	-2.599977E-005	7
