EXPLAIN
TAG	EISPOT
TITLE	LABEL	Potentiostatic EIS	Test Identifier
DATE	LABEL	8/25/2020	Date
TIME	LABEL	0:10:38	Time
NOTES	NOTES	1	Notes...
	
PSTAT	PSTAT	REF3000-16137	Potentiostat
VDC	POTEN	0.00000E+000	T	DC Voltage (V)
FREQINIT	QUANT	3.00000E+005	Initial Freq. (Hz)
FREQFINAL	QUANT	1.00000E+000	Final Freq. (Hz)
PTSPERDEC	QUANT	1.00000E+001	Points/decade
VAC	QUANT	5.00000E+001	AC Voltage (mV rms)
AREA	QUANT	1.00000E+000	Sample Area (cm^2)
SPEED	SELECTOR	2	Optimize for:
ZGUESS	QUANT	1.00000E+003	Estimated Z (ohms)
EOC	QUANT	0	Open Circuit (V)
SEQUENCER	TOGGLE	TRUE	Run as Sequence
PSTATMODEL	IQUANT	5	Pstat Model
PSTATSECTION	LABEL	REF3000-16137	Pstat Section
PSTATSERIALNO	LABEL	16137	Pstat Serial Number
CTRLMODE	IQUANT	1	Control Mode
IESTAB	IQUANT	0	I/E Stability
CASPEED	IQUANT	1	Control Amp Speed
CONVENTION	IQUANT	1	Current Convention
ICHRANGE	IQUANT	2	Ich Range
ICHRANGEMODE	TOGGLE	F	Ich Auto Range
ICHOFFSETENABLE	TOGGLE	T	Ich Offset Enable
ICHOFFSET	QUANT	0	Ich Offset (V)
ICHFILTER	IQUANT	3	Ich Filter
VCHRANGE	IQUANT	2	Vch Range
VCHRANGEMODE	TOGGLE	F	Vch Auto Range
VCHOFFSETENABLE	TOGGLE	T	Vch Offset Enable
VCHOFFSET	QUANT	0	Vch Offset (V)
VCHFILTER	IQUANT	3	Vch Filter
ACHRANGE	IQUANT	2	Ach Range
ACHOFFSETENABLE	TOGGLE	F	Ach Offset Enable
ACHOFFSET	QUANT	0	Ach Offset (V)
ACHFILTER	IQUANT	3	Ach Filter
IERANGELOWERLIMIT	IQUANT	2	I/E Range Lower Limit
IERANGEMODE	TOGGLE	F	I/E AutoRange
IERANGE	IQUANT	11	I/E Range
POSFEEDENABLE	TOGGLE	F	Positive Feedback IR Comp
POSFEEDRESISTANCE	QUANT	0	Positive Feedback Resistance (ohm)
ACHSELECT	IQUANT	0	Ach Select
CABLEID	IQUANT	13	Cable ID
DCCALDATE	LABEL	7/31/2020	DC Calibration Date
ACCALDATE	LABEL	7/31/2020	AC Calibration Date
THERMOSELECT	IQUANT	1	Thermo Select
FRAMEWORKVERSION	QUANT	6.33	Framework Version
INSTRUMENTVERSION	LABEL	3.50	Instrument Version
COMPLIANCEVOLTAGE	IQUANT	0	Compliance Voltage
ZCURVE	TABLE
	Pt	Time	Freq	Zreal	Zimag	Zsig	Zmod	Zphz	Idc	Vdc	IERange
	#	s	Hz	ohm	ohm	V	ohm	°	A	V	#
	0	15	300046.9	762.836	-1575.83	1	1750.76	-64.16907	-0.0003529	-0.006378	9
	1	29	238359.4	1084.891	-2047.323	1	2317.006	-62.08056	0.0002397	0.0099996	9
	2	44	189328.1	1188.636	-2020.107	1	2343.862	-59.52733	-0.0007445	0.0356279	9
	3	54	150421.9	1473.472	-2344.254	1	2768.871	-57.84875	0.0002466	-0.0016259	10
	4	65	119484.4	2036.842	-2672.574	1	3360.264	-52.68799	0.0005818	-0.0059952	9
	5	73	94921.88	2466.967	-2646.79	1	3618.207	-47.01394	4.280348E-005	-0.0082854	9
	6	83	75421.88	2726.048	-2938.969	1	4008.6	-47.15246	0.0003036	-0.0077131	9
	7	91	59859.37	3417.097	-2915.244	1	4491.682	-40.46864	-0.0002181	0.0113532	9
	8	100	47578.12	3910.934	-2725.842	1	4767.139	-34.87571	-5.14978E-005	-0.0054105	9
	9	110	37828.12	5090.523	-2070.472	1	5495.479	-22.13308	1.7318E-005	0.0436932	8
	10	117	30046.88	5037.31	-2287.901	1	5532.539	-24.42712	9.166659E-005	-0.0566961	8
	11	125	23859.38	5134.163	-2367.269	1	5653.635	-24.75356	0.0002665	-0.0108104	9
	12	131	18984.38	5795.955	-1961.075	1	6118.734	-18.69337	1.329648E-005	0.0440965	8
	13	138	15046.87	5869.753	-2329.397	1	6315.068	-21.64553	0.0001567	-0.0430975	8
	14	143	11953.13	6413.387	-2326.337	1	6822.271	-19.9373	0.0001456	-0.0529587	8
	15	148	9515.62	6780.152	-2275.226	1	7151.721	-18.55029	-3.021947E-005	0.0532365	8
	16	154	7546.875	6851.741	-2310.144	1	7230.707	-18.63213	-9.079881E-006	-0.040326	8
	17	159	5928.309	9485.421	-1721.426	1	9640.36	-10.28616	-1.355552E-005	-0.0258733	7
	18	163	4733.456	7742.523	-2636.936	1	8179.248	-18.80773	6.505589E-005	0.029007	8
	19	169	3796.875	8813.843	-2683.372	1	9213.269	-16.93286	-1.434376E-005	0.0533951	8
	20	174	2987.132	7235.97	-2565.44	1	7677.288	-19.52145	-0.0001684	-0.0014346	9
	21	181	2390.625	8476.33	-3063.451	1	9012.93	-19.87048	-7.044296E-005	0.0574736	8
	22	188	1884.191	9003.925	-3437.418	1	9637.76	-20.8953	-0.0001361	0.0526316	8
	23	193	1516.544	9324.53	-3202.041	1	9859	-18.95246	-0.0001363	0.0110671	9
	24	201	1193.986	12167.62	-5382.511	1	13304.98	-23.86284	-7.971807E-005	-0.0050663	9
	25	209	946.5144	8039.432	-4117.06	1	9032.312	-27.11736	-0.0001069	0.0588506	8
	26	212	751.7689	13830.57	-5648.696	1	14939.63	-22.21614	-7.139921E-005	-0.0248124	8
	27	216	597.4265	18284.8	-4145.432	1	18748.83	-12.77385	0.0002781	-0.0026423	9
	28	222	477.4305	11461.27	-4751.673	1	12407.22	-22.51817	-3.546172E-007	0.0001094	9
	29	227	376.6741	17171.51	-6916.919	1	18512.28	-21.94025	-7.263867E-007	0.0005006	7
	30	229	298.2954	18187.63	-7250.921	1	19579.72	-21.73585	-7.278589E-007	0.0007619	7
	31	231	237.7717	18776.96	-7423.308	1	20191.08	-21.57093	-7.22314E-007	0.0007621	7
	32	234	189.0121	19719.57	-7568.43	1	21122.09	-20.99695	-7.263187E-007	0.0007045	7
	33	236	150.2404	20796.93	-8070.403	1	22307.93	-21.20911	-7.243145E-007	0.0007358	7
	34	239	119.1737	21849.96	-8272.44	1	23363.51	-20.73677	-7.254324E-007	0.0004907	7
	35	242	95.0169	23052.26	-8193.45	1	24465.07	-19.5667	-7.253248E-007	0.0005492	7
	36	244	75.60484	24170.26	-8340.864	1	25568.95	-19.03894	-7.371064E-007	0.0007021	7
	37	248	54.50582	26078.82	-8666.759	1	27481.22	-18.38316	-7.367228E-007	0.000592	7
	38	251	45.95588	26741.99	-8666.622	1	28111.29	-17.95662	-7.217841E-007	0.0005261	7
	39	254	37.20238	27606.28	-8904.288	1	29006.78	-17.87688	-7.263882E-007	0.0004892	7
	40	256	30.04808	28587.13	-9028.252	1	29978.88	-17.52691	-7.249978E-007	0.0004973	7
	41	259	23.91582	29284.36	-9403.826	1	30757.21	-17.80292	-7.311223E-007	0.0007055	7
	42	262	18.60119	30486.16	-10100.9	1	32115.94	-18.33145	-7.397136E-007	0.0007275	7
	43	264	15.02404	31204.29	-10651.96	1	32972.29	-18.84795	-7.467823E-007	0.0005973	7
	44	267	12.01923	32257.32	-11591.72	1	34276.85	-19.76599	-7.333078E-007	0.0004883	7
	45	269	9.450605	33214.36	-12592.5	1	35521.33	-20.76313	-7.324458E-007	0.0005006	7
	46	272	7.512019	34525.18	-13830.2	1	37192.24	-21.8302	-7.393719E-007	0.0005105	7
	47	275	5.978954	35743.42	-14846.52	1	38704.15	-22.55623	-7.371018E-007	0.0005216	7
	48	280	4.734848	37498.78	-15995.04	1	40767.63	-23.10058	-7.42609E-007	0.000521	7
	49	284	3.75601	39841.86	-16966.86	1	43304.13	-23.06698	-7.516549E-007	0.0006949	7
	50	290	3.004808	42145.86	-17992.72	1	45825.89	-23.11839	-7.530534E-007	0.0006733	7
	51	296	2.372217	44853.07	-18233.56	1	48417.56	-22.12261	-7.466853E-007	0.0006605	7
	52	304	1.878005	46896.01	-17539.38	1	50068.61	-20.50608	-7.494081E-007	0.0005954	7
	53	313	1.512097	49003.71	-16875.09	1	51827.91	-19.00184	-7.499543E-007	0.0007079	7
	54	324	1.201923	50772.8	-15565.82	1	53105.29	-17.04439	-7.483521E-007	0.000599	7
	55	337	0.956633	52568.07	-14443.56	1	54516.22	-15.36342	-7.737881E-007	-2.687261E-005	7
