EXPLAIN
TAG	EISPOT
TITLE	LABEL	Potentiostatic EIS	Test Identifier
DATE	LABEL	8/25/2020	Date
TIME	LABEL	3:10:54	Time
NOTES	NOTES	1	Notes...
	
PSTAT	PSTAT	REF3000-16137	Potentiostat
VDC	POTEN	0.00000E+000	T	DC Voltage (V)
FREQINIT	QUANT	3.00000E+005	Initial Freq. (Hz)
FREQFINAL	QUANT	1.00000E+000	Final Freq. (Hz)
PTSPERDEC	QUANT	1.00000E+001	Points/decade
VAC	QUANT	5.00000E+001	AC Voltage (mV rms)
AREA	QUANT	1.00000E+000	Sample Area (cm^2)
SPEED	SELECTOR	2	Optimize for:
ZGUESS	QUANT	1.00000E+003	Estimated Z (ohms)
EOC	QUANT	0	Open Circuit (V)
SEQUENCER	TOGGLE	TRUE	Run as Sequence
PSTATMODEL	IQUANT	5	Pstat Model
PSTATSECTION	LABEL	REF3000-16137	Pstat Section
PSTATSERIALNO	LABEL	16137	Pstat Serial Number
CTRLMODE	IQUANT	1	Control Mode
IESTAB	IQUANT	0	I/E Stability
CASPEED	IQUANT	1	Control Amp Speed
CONVENTION	IQUANT	1	Current Convention
ICHRANGE	IQUANT	2	Ich Range
ICHRANGEMODE	TOGGLE	F	Ich Auto Range
ICHOFFSETENABLE	TOGGLE	T	Ich Offset Enable
ICHOFFSET	QUANT	0	Ich Offset (V)
ICHFILTER	IQUANT	3	Ich Filter
VCHRANGE	IQUANT	2	Vch Range
VCHRANGEMODE	TOGGLE	F	Vch Auto Range
VCHOFFSETENABLE	TOGGLE	T	Vch Offset Enable
VCHOFFSET	QUANT	0	Vch Offset (V)
VCHFILTER	IQUANT	3	Vch Filter
ACHRANGE	IQUANT	2	Ach Range
ACHOFFSETENABLE	TOGGLE	F	Ach Offset Enable
ACHOFFSET	QUANT	0	Ach Offset (V)
ACHFILTER	IQUANT	3	Ach Filter
IERANGELOWERLIMIT	IQUANT	2	I/E Range Lower Limit
IERANGEMODE	TOGGLE	F	I/E AutoRange
IERANGE	IQUANT	11	I/E Range
POSFEEDENABLE	TOGGLE	F	Positive Feedback IR Comp
POSFEEDRESISTANCE	QUANT	0	Positive Feedback Resistance (ohm)
ACHSELECT	IQUANT	0	Ach Select
CABLEID	IQUANT	13	Cable ID
DCCALDATE	LABEL	7/31/2020	DC Calibration Date
ACCALDATE	LABEL	7/31/2020	AC Calibration Date
THERMOSELECT	IQUANT	1	Thermo Select
FRAMEWORKVERSION	QUANT	6.33	Framework Version
INSTRUMENTVERSION	LABEL	3.50	Instrument Version
COMPLIANCEVOLTAGE	IQUANT	0	Compliance Voltage
ZCURVE	TABLE
	Pt	Time	Freq	Zreal	Zimag	Zsig	Zmod	Zphz	Idc	Vdc	IERange
	#	s	Hz	ohm	ohm	V	ohm	°	A	V	#
	0	16	300046.9	815.709	-1394.121	1	1615.226	-59.66783	0.0007565	-0.0149464	9
	1	30	238359.4	1193.107	-1456.392	1	1882.707	-50.67494	-0.0004871	0.031248	9
	2	44	189328.1	1316.347	-1588.937	1	2063.369	-50.36012	-0.000809	0.0292456	9
	3	52	150421.9	1543.985	-1774.336	1	2352.054	-48.97097	-0.0003284	-0.0058419	9
	4	60	119484.4	2014.087	-1759.492	1	2674.389	-41.14022	-0.0006858	0.0121977	9
	5	68	94921.88	2311.816	-1830.031	1	2948.476	-38.36511	-0.0002187	0.001661	9
	6	77	75421.88	2642.146	-1791.916	1	3192.475	-34.1453	-0.0002643	0.0046254	9
	7	86	59859.37	3018.989	-1741.824	1	3485.433	-29.98305	0.0001344	-0.0100966	9
	8	94	47578.12	3245.126	-1656.909	1	3643.65	-27.04813	-0.0002676	0.0107852	9
	9	105	37828.12	3499.833	-1545.387	1	3825.84	-23.82435	-0.000265	0.0046212	9
	10	114	30046.88	3637.748	-1475.805	1	3925.711	-22.082	0.0002111	-0.0109291	9
	11	124	23859.38	4520.135	-1182.303	1	4672.201	-14.6581	-0.0002595	0.0044215	9
	12	131	18984.38	4080.687	-1235.47	1	4263.613	-16.84423	-0.0002651	0.0105526	9
	13	138	15046.87	4129.52	-1299.488	1	4329.157	-17.46789	-4.932747E-005	-0.0055003	9
	14	147	11953.13	4579.763	-965.657	1	4680.461	-11.90658	5.521797E-005	0.0299522	8
	15	153	9515.62	4637.482	-1085.347	1	4762.795	-13.1723	9.361257E-005	0.0124979	8
	16	158	7546.875	4525.253	-1099.487	1	4656.908	-13.65636	0.0003027	-0.0076918	9
	17	164	5928.309	4748.953	-1225.653	1	4904.567	-14.47162	0.00021	-0.0109578	9
	18	171	4733.456	4842.082	-1236.483	1	4997.464	-14.32501	0.0001434	0.0023848	9
	19	178	3796.875	5235.229	-1154.196	1	5360.951	-12.43295	-0.0002646	0.0046995	9
	20	186	2987.132	5134.294	-1070.725	1	5244.752	-11.77984	-5.442069E-005	0.0088113	9
	21	192	2390.625	5553.047	-1481.973	1	5747.397	-14.9426	-0.0002874	0.0071488	9
	22	199	1884.191	5824.094	-1338.16	1	5975.847	-12.93985	0.0001419	-0.0517434	8
	23	206	1516.544	6046.562	-1604.156	1	6255.735	-14.85832	0.0001509	-0.0418498	8
	24	211	1193.986	6266.474	-1797.137	1	6519.08	-16.00215	4.158898E-005	-0.050325	8
	25	218	946.5144	5842.572	-445.9332	1	5859.565	-4.364627	-0.000145	0.0399091	8
	26	222	751.7689	5634.983	-3521.723	1	6644.965	-32.00435	-0.0001405	0.0266267	8
	27	226	597.4265	5350.199	-2294.267	1	5821.365	-23.21058	4.602313E-005	0.0059647	9
	28	233	477.4305	7218.673	-2268.801	1	7566.815	-17.44773	-1.510286E-006	0.0006377	8
	29	237	376.6741	9432.361	-2939.194	1	9879.69	-17.30742	-5.973429E-007	0.0005917	7
	30	239	298.2954	9858.68	-3214.309	1	10369.44	-18.05797	-5.999653E-007	0.0005961	7
	31	241	237.7717	10320.38	-3454.86	1	10883.3	-18.50854	-5.927724E-007	0.0005454	7
	32	244	189.0121	10754.12	-3721.347	1	11379.79	-19.08763	-5.963465E-007	0.000691	7
	33	246	150.2404	11240.25	-4064.147	1	11952.42	-19.87852	-5.988599E-007	0.0006311	7
	34	249	119.1737	11764.39	-4314.301	1	12530.53	-20.13927	-5.817619E-007	0.0005509	7
	35	252	95.0169	12290.63	-4603.45	1	13124.45	-20.53342	-5.8097E-007	0.0004934	7
	36	254	75.60484	12782.91	-4978.638	1	13718.22	-21.27973	-5.919397E-007	0.0006351	7
	37	257	54.50582	13547.21	-5697.06	1	14696.37	-22.8084	-5.941472E-007	0.0006868	7
	38	259	45.95588	13986.57	-6135.585	1	15273.17	-23.68595	-5.929373E-007	0.0006425	7
	39	262	37.20238	14375.52	-6791.611	1	15899.11	-25.28805	-5.838323E-007	0.00059	7
	40	264	30.04808	15065.22	-7662.083	1	16901.73	-26.95761	-5.915539E-007	0.0006392	7
	41	267	23.91582	15635.36	-8719.826	1	17902.51	-29.14837	-5.842456E-007	0.0007071	7
	42	269	18.60119	16679.02	-10279.3	1	19592.19	-31.64557	-5.713944E-007	0.000518	7
	43	272	15.02404	17810.82	-11844.3	1	21389.55	-33.62415	-6.112402E-007	0.0005811	7
	44	274	12.01923	19026.65	-13524.16	1	23343.45	-35.40524	-5.793699E-007	0.0006839	7
	45	277	9.450605	21188.33	-15743.79	1	26397.2	-36.61385	-6.135665E-007	0.000719	7
	46	280	7.512019	23487.15	-17665.63	1	29389.12	-36.94829	-6.025354E-007	0.0006401	7
	47	283	5.978954	26227.45	-19319.29	1	32574.75	-36.37557	-5.792124E-007	0.0005512	7
	48	287	4.734848	29668.91	-20896.14	1	36289.02	-35.15746	-5.86891E-007	0.0006491	7
	49	290	3.75601	33173.94	-21717.05	1	39650.23	-33.21044	-5.81348E-007	0.000514	7
	50	296	3.004808	36578.82	-21785.7	1	42574.95	-30.77729	-6.019487E-007	0.0007184	7
	51	302	2.372217	40246.68	-21654.55	1	45702.46	-28.28228	-5.909287E-007	0.0006057	7
	52	307	1.878005	42983.54	-20192.98	1	47490.43	-25.16339	-5.968907E-007	0.0006	7
	53	316	1.512097	45215.04	-18922.58	1	49014.93	-22.7094	-5.984187E-007	0.0006515	7
	54	326	1.201923	47281.15	-17462.15	1	50402.72	-20.27049	-6.023752E-007	0.000618	7
	55	339	0.956633	52189.04	-17213.24	1	54954.45	-18.25384	-1.228401E-007	2.220619E-005	6
