EXPLAIN
TAG	EISPOT
TITLE	LABEL	Potentiostatic EIS	Test Identifier
DATE	LABEL	8/25/2020	Date
TIME	LABEL	1:54:56	Time
NOTES	NOTES	1	Notes...
	
PSTAT	PSTAT	REF3000-16137	Potentiostat
VDC	POTEN	0.00000E+000	T	DC Voltage (V)
FREQINIT	QUANT	3.00000E+005	Initial Freq. (Hz)
FREQFINAL	QUANT	1.00000E+000	Final Freq. (Hz)
PTSPERDEC	QUANT	1.00000E+001	Points/decade
VAC	QUANT	5.00000E+001	AC Voltage (mV rms)
AREA	QUANT	1.00000E+000	Sample Area (cm^2)
SPEED	SELECTOR	2	Optimize for:
ZGUESS	QUANT	1.00000E+003	Estimated Z (ohms)
EOC	QUANT	0	Open Circuit (V)
SEQUENCER	TOGGLE	TRUE	Run as Sequence
PSTATMODEL	IQUANT	5	Pstat Model
PSTATSECTION	LABEL	REF3000-16137	Pstat Section
PSTATSERIALNO	LABEL	16137	Pstat Serial Number
CTRLMODE	IQUANT	1	Control Mode
IESTAB	IQUANT	0	I/E Stability
CASPEED	IQUANT	1	Control Amp Speed
CONVENTION	IQUANT	1	Current Convention
ICHRANGE	IQUANT	2	Ich Range
ICHRANGEMODE	TOGGLE	F	Ich Auto Range
ICHOFFSETENABLE	TOGGLE	T	Ich Offset Enable
ICHOFFSET	QUANT	0	Ich Offset (V)
ICHFILTER	IQUANT	3	Ich Filter
VCHRANGE	IQUANT	2	Vch Range
VCHRANGEMODE	TOGGLE	F	Vch Auto Range
VCHOFFSETENABLE	TOGGLE	T	Vch Offset Enable
VCHOFFSET	QUANT	0	Vch Offset (V)
VCHFILTER	IQUANT	3	Vch Filter
ACHRANGE	IQUANT	2	Ach Range
ACHOFFSETENABLE	TOGGLE	F	Ach Offset Enable
ACHOFFSET	QUANT	0	Ach Offset (V)
ACHFILTER	IQUANT	3	Ach Filter
IERANGELOWERLIMIT	IQUANT	2	I/E Range Lower Limit
IERANGEMODE	TOGGLE	F	I/E AutoRange
IERANGE	IQUANT	11	I/E Range
POSFEEDENABLE	TOGGLE	F	Positive Feedback IR Comp
POSFEEDRESISTANCE	QUANT	0	Positive Feedback Resistance (ohm)
ACHSELECT	IQUANT	0	Ach Select
CABLEID	IQUANT	13	Cable ID
DCCALDATE	LABEL	7/31/2020	DC Calibration Date
ACCALDATE	LABEL	7/31/2020	AC Calibration Date
THERMOSELECT	IQUANT	1	Thermo Select
FRAMEWORKVERSION	QUANT	6.33	Framework Version
INSTRUMENTVERSION	LABEL	3.50	Instrument Version
COMPLIANCEVOLTAGE	IQUANT	0	Compliance Voltage
ZCURVE	TABLE
	Pt	Time	Freq	Zreal	Zimag	Zsig	Zmod	Zphz	Idc	Vdc	IERange
	#	s	Hz	ohm	ohm	V	ohm	°	A	V	#
	0	16	300046.9	838.6417	-1332.282	1	1574.26	-57.8105	-0.0001084	0.0179062	9
	1	31	238359.4	934.2394	-1503.8	1	1770.373	-58.14929	-0.0007436	0.0355216	9
	2	45	189328.1	1301.95	-1608.861	1	2069.664	-51.01892	-0.000802	0.0292154	9
	3	52	150421.9	1539.218	-1736.002	1	2320.107	-48.43835	0.0002313	0.0099272	9
	4	60	119484.4	1995.791	-1738.917	1	2647.076	-41.06537	4.102001E-005	0.014799	9
	5	67	94921.88	2757.388	-1196.048	1	3005.614	-23.44933	8.403374E-005	-0.0554869	8
	6	75	75421.88	2624.855	-1758.348	1	3159.375	-33.8175	0.0002111	-0.0110099	9
	7	83	59859.37	2896.771	-1710.964	1	3364.324	-30.56802	-0.0001461	0.0105548	9
	8	93	47578.12	3419.201	-1288.702	1	3653.997	-20.6515	-0.0001232	0.0100503	8
	9	100	37828.12	3442.973	-1504.71	1	3757.421	-23.60715	-0.0002182	0.0112486	9
	10	109	30046.88	3663.02	-1443.873	1	3937.319	-21.51315	-0.0002181	0.0016443	9
	11	119	23859.38	3923.657	-1380.966	1	4159.585	-19.38997	0.0002253	-0.001457	9
	12	126	18984.38	4006.197	-1250.614	1	4196.862	-17.33679	-0.0001465	0.010559	9
	13	134	15046.87	4042.454	-1382.815	1	4272.424	-18.88444	0.0002099	-0.0109845	9
	14	141	11953.13	4329.044	-1035.937	1	4451.269	-13.45776	4.333876E-005	-0.0081331	9
	15	149	9515.62	4571.24	-1075.71	1	4696.104	-13.24199	0.0001468	-0.0262256	8
	16	154	7546.875	4724.229	-984.668	1	4825.755	-11.77356	-0.0002139	0.0016384	9
	17	161	5928.309	4752.613	-1273.831	1	4920.364	-15.00418	0.0001436	0.0023949	9
	18	168	4733.456	5100.947	-1211.232	1	5242.78	-13.35764	5.634727E-005	0.0298357	8
	19	174	3796.875	5133.703	-1152.87	1	5261.56	-12.65688	-0.0001405	0.0491989	8
	20	179	2987.132	5526.259	-1360.206	1	5691.195	-13.82763	-5.476749E-005	0.008811	9
	21	185	2390.625	5003.657	-1530.503	1	5232.497	-17.00766	-0.000265	0.0046941	9
	22	192	1884.191	5745.667	-1746.593	1	6005.271	-16.90845	0.0002268	-0.0014961	9
	23	199	1516.544	5897.892	-1411.915	1	6064.539	-13.46285	-0.0002174	0.0112121	9
	24	207	1193.986	5978.42	-2012.811	1	6308.163	-18.60732	4.235829E-005	-0.0504225	8
	25	214	946.5144	5960.696	-2885.355	1	6622.324	-25.82993	-0.0001139	0.0546198	8
	26	217	751.7689	5500.425	-2845.387	1	6192.811	-27.35267	-5.42425E-005	-0.0053598	9
	27	222	597.4265	7178.786	-1812.436	1	7404.046	-14.16942	0.0003008	-0.0076732	9
	28	227	477.4305	6859.668	-2147.674	1	7188.015	-17.38467	-2.384986E-007	8.923464E-005	9
	29	232	376.6741	9302.526	-2887.293	1	9740.3	-17.24316	-6.006963E-007	0.0006286	7
	30	234	298.2954	9710.81	-3158.585	1	10211.59	-18.01788	-5.958923E-007	0.0005871	7
	31	236	237.7717	10138.37	-3386.041	1	10688.87	-18.46842	-5.827508E-007	0.0004963	7
	32	239	189.0121	10620.3	-3658.867	1	11232.9	-19.00967	-5.919235E-007	0.0006905	7
	33	241	150.2404	11110.46	-3801.324	1	11742.76	-18.88783	-5.94196E-007	0.0006856	7
	34	244	119.1737	11605.76	-4208.55	1	12345.27	-19.93196	-5.928952E-007	0.0005428	7
	35	246	95.0169	12132.92	-4511.108	1	12944.41	-20.3955	-5.797764E-007	0.0004794	7
	36	249	75.60484	12601.49	-4853.251	1	13503.76	-21.06336	-5.955335E-007	0.0007304	7
	37	252	54.50582	13338.81	-5495.462	1	14426.5	-22.3912	-5.965115E-007	0.0007326	7
	38	254	45.95588	13716.17	-5967.599	1	14958.13	-23.51278	-5.913537E-007	0.0005879	7
	39	256	37.20238	14208.2	-6603.979	1	15667.97	-24.92904	-5.837962E-007	0.0005211	7
	40	259	30.04808	14808.58	-7403.61	1	16556.19	-26.56295	-5.827115E-007	0.0005503	7
	41	262	23.91582	15471.14	-8479.921	1	17642.71	-28.72769	-5.896466E-007	0.0007313	7
	42	264	18.60119	16472.17	-9876.83	1	19206.36	-30.94718	-5.707108E-007	0.0004768	7
	43	267	15.02404	17548.15	-11359.69	1	20904.07	-32.91676	-5.89923E-007	0.0004826	7
	44	269	12.01923	18931.21	-13100.73	1	23022.16	-34.68392	-5.882245E-007	0.000511	7
	45	272	9.450605	20811.97	-14971.63	1	25637.62	-35.73033	-5.950971E-007	0.0007142	7
	46	274	7.512019	23040.19	-16758.42	1	28490.26	-36.03049	-5.855244E-007	0.0004864	7
	47	278	5.978954	25688.77	-18281.86	1	31529.97	-35.43821	-5.888234E-007	0.0005165	7
	48	282	4.734848	28905.18	-19677.23	1	34967.17	-34.24512	-5.866516E-007	0.0007385	7
	49	285	3.75601	32207.12	-20247.58	1	38042.91	-32.15626	-5.82162E-007	0.0006487	7
	50	291	3.004808	35384.02	-20326.98	1	40807.04	-29.87598	-5.956683E-007	0.0006938	7
	51	297	2.372217	38861.7	-20130.96	1	43766.29	-27.38486	-5.925806E-007	0.000583	7
	52	302	1.878005	41363	-18827.86	1	45446.52	-24.47436	-5.96673E-007	0.000593	7
	53	311	1.512097	43478.93	-17666.47	1	46931.03	-22.11301	-5.969964E-007	0.0006707	7
	54	321	1.201923	45501.13	-16431.53	1	48377.14	-19.85585	-5.995652E-007	0.0006039	7
	55	334	0.956633	47536.55	-15326.41	1	49946.2	-17.87	-6.293337E-007	-3.36479E-005	7
