EXPLAIN
TAG	EISPOT
TITLE	LABEL	Potentiostatic EIS	Test Identifier
DATE	LABEL	8/24/2020	Date
TIME	LABEL	21:28:22	Time
NOTES	NOTES	1	Notes...
	
PSTAT	PSTAT	REF3000-16137	Potentiostat
VDC	POTEN	0.00000E+000	T	DC Voltage (V)
FREQINIT	QUANT	3.00000E+005	Initial Freq. (Hz)
FREQFINAL	QUANT	1.00000E+000	Final Freq. (Hz)
PTSPERDEC	QUANT	1.00000E+001	Points/decade
VAC	QUANT	5.00000E+001	AC Voltage (mV rms)
AREA	QUANT	1.00000E+000	Sample Area (cm^2)
SPEED	SELECTOR	2	Optimize for:
ZGUESS	QUANT	1.00000E+003	Estimated Z (ohms)
EOC	QUANT	0	Open Circuit (V)
SEQUENCER	TOGGLE	TRUE	Run as Sequence
PSTATMODEL	IQUANT	5	Pstat Model
PSTATSECTION	LABEL	REF3000-16137	Pstat Section
PSTATSERIALNO	LABEL	16137	Pstat Serial Number
CTRLMODE	IQUANT	1	Control Mode
IESTAB	IQUANT	0	I/E Stability
CASPEED	IQUANT	1	Control Amp Speed
CONVENTION	IQUANT	1	Current Convention
ICHRANGE	IQUANT	2	Ich Range
ICHRANGEMODE	TOGGLE	F	Ich Auto Range
ICHOFFSETENABLE	TOGGLE	T	Ich Offset Enable
ICHOFFSET	QUANT	0	Ich Offset (V)
ICHFILTER	IQUANT	3	Ich Filter
VCHRANGE	IQUANT	2	Vch Range
VCHRANGEMODE	TOGGLE	F	Vch Auto Range
VCHOFFSETENABLE	TOGGLE	T	Vch Offset Enable
VCHOFFSET	QUANT	0	Vch Offset (V)
VCHFILTER	IQUANT	3	Vch Filter
ACHRANGE	IQUANT	2	Ach Range
ACHOFFSETENABLE	TOGGLE	F	Ach Offset Enable
ACHOFFSET	QUANT	0	Ach Offset (V)
ACHFILTER	IQUANT	3	Ach Filter
IERANGELOWERLIMIT	IQUANT	2	I/E Range Lower Limit
IERANGEMODE	TOGGLE	F	I/E AutoRange
IERANGE	IQUANT	11	I/E Range
POSFEEDENABLE	TOGGLE	F	Positive Feedback IR Comp
POSFEEDRESISTANCE	QUANT	0	Positive Feedback Resistance (ohm)
ACHSELECT	IQUANT	0	Ach Select
CABLEID	IQUANT	13	Cable ID
DCCALDATE	LABEL	7/31/2020	DC Calibration Date
ACCALDATE	LABEL	7/31/2020	AC Calibration Date
THERMOSELECT	IQUANT	1	Thermo Select
FRAMEWORKVERSION	QUANT	6.33	Framework Version
INSTRUMENTVERSION	LABEL	3.50	Instrument Version
COMPLIANCEVOLTAGE	IQUANT	0	Compliance Voltage
ZCURVE	TABLE
	Pt	Time	Freq	Zreal	Zimag	Zsig	Zmod	Zphz	Idc	Vdc	IERange
	#	s	Hz	ohm	ohm	V	ohm	°	A	V	#
	0	14	300046.9	1789.734	-2775.455	1	3302.468	-57.18431	2.499435E-005	-0.0019197	9
	1	28	238359.4	2202.911	-2839.402	1	3593.748	-52.1944	4.776508E-005	-2.802253E-005	9
	2	43	189328.1	2898.453	-3103.578	1	4246.555	-46.95737	2.175901E-005	-0.0009154	9
	3	52	150421.9	3484.181	-3117.384	1	4675.211	-41.81979	-3.073271E-005	-0.0007523	9
	4	59	119484.4	4143.049	-3014.657	1	5123.77	-36.04121	-8.151444E-005	0.0294586	8
	5	67	94921.88	4699.48	-2915.069	1	5530.167	-31.81116	-9.367226E-006	-0.0016591	8
	6	74	75421.88	5140.251	-2763.554	1	5836.044	-28.26381	1.943709E-005	-0.0085998	8
	7	82	59859.37	5629.865	-2554.172	1	6182.166	-24.40297	-9.362964E-006	-0.001615	8
	8	89	47578.12	5924.183	-2499.344	1	6429.826	-22.87432	1.62357E-005	2.443264E-005	8
	9	97	37828.12	6278.122	-2344.748	1	6701.69	-20.47961	1.951755E-005	-0.0085008	8
	10	104	30046.88	6590.63	-2254.509	1	6965.573	-18.88469	2.128655E-005	-0.0028091	8
	11	112	23859.38	6879.337	-2197.964	1	7221.934	-17.7188	2.450635E-005	-0.0067613	8
	12	117	18984.38	7167.343	-2099.655	1	7468.558	-16.32781	2.308511E-005	-0.0080906	8
	13	123	15046.87	7378.916	-2038.599	1	7655.344	-15.44407	-2.427774E-005	0.0089775	8
	14	130	11953.13	7696.461	-2026.484	1	7958.778	-14.75121	-8.222398E-007	0.0066589	8
	15	136	9515.62	7928.867	-1910.08	1	8155.694	-13.54459	3.682301E-006	0.0008752	7
	16	140	7546.875	8184.405	-1974.995	1	8419.328	-13.56679	-7.463063E-008	0.0151054	7
	17	144	5928.309	8448.375	-2119.465	1	8710.177	-14.08329	-2.460128E-006	-0.0056558	7
	18	148	4733.456	8754.608	-2198.766	1	9026.502	-14.09852	-2.4435E-006	-0.0056906	7
	19	152	3796.875	8989.144	-2336.712	1	9287.892	-14.57144	6.237099E-006	-0.0143096	7
	20	156	2987.132	9354.832	-2489.289	1	9680.36	-14.90092	-6.162511E-006	0.0191797	7
	21	160	2390.625	9620.73	-2648.255	1	9978.56	-15.3904	-4.874953E-006	0.0229112	7
	22	164	1884.191	10113.01	-2871.178	1	10512.69	-15.84973	1.9071E-006	0.0085843	7
	23	168	1516.544	10313.41	-3047.87	1	10754.34	-16.46373	5.297682E-006	-0.0070831	7
	24	172	1193.986	10784.59	-3376.781	1	11300.89	-17.38594	3.300829E-006	-0.0211587	7
	25	177	946.5144	11129.74	-3747.371	1	11743.68	-18.60832	5.312189E-006	-0.0071428	7
	26	179	751.7689	11585.55	-4120.671	1	12296.54	-19.57911	-3.570231E-006	0.0221366	7
	27	182	597.4265	12273.55	-4547.925	1	13089.06	-20.33203	-4.148583E-006	0.0015858	7
	28	185	477.4305	12791.86	-4905.779	1	13700.31	-20.98221	-1.062794E-007	0.0006882	7
	29	187	376.6741	13512.55	-5396.28	1	14550.22	-21.76946	-9.151319E-008	0.0005857	7
	30	189	298.2954	14300.41	-5942.597	1	15486	-22.56554	-9.136733E-008	0.0005967	7
	31	192	237.7717	15160.3	-6497.599	1	16494.05	-23.19963	-9.575164E-008	0.0005866	7
	32	194	189.0121	16139.24	-7071.412	1	17620.44	-23.66064	-9.01782E-008	0.0005772	7
	33	196	150.2404	17220.97	-7637.974	1	18838.8	-23.9186	-9.789429E-008	0.0006604	7
	34	199	119.1737	18401.14	-8203.966	1	20147.13	-24.02923	-8.972895E-008	0.0005842	7
	35	201	95.0169	19624.76	-8706.106	1	21469.22	-23.92344	-9.057452E-008	0.0006059	7
	36	204	75.60484	20909.08	-9206.078	1	22846.04	-23.76345	-8.876076E-008	0.0005714	7
	37	206	54.50582	22771.78	-9908.78	1	24834.21	-23.5155	-9.358752E-008	0.0006615	7
	38	209	45.95588	23767.6	-10310.03	1	25907.45	-23.45048	-9.695574E-008	0.0006716	7
	39	211	37.20238	24971.24	-10858.95	1	27230.12	-23.5022	-8.824787E-008	0.0006642	7
	40	214	30.04808	26169.04	-11472.71	1	28573.45	-23.67303	-9.526471E-008	0.0006086	7
	41	216	23.91582	27454.7	-12297.76	1	30083.14	-24.129	-9.903526E-008	0.0006245	7
	42	218	18.60119	28916.94	-13455.42	1	31894.17	-24.95316	-8.442514E-008	0.0006438	7
	43	221	15.02404	30125.83	-14635.37	1	33492.68	-25.91085	-1.024367E-007	0.0006336	7
	44	223	12.01923	31456.5	-16251.53	1	35406.55	-27.32246	-8.078377E-008	0.0005738	7
	45	225	9.450605	32966.35	-18453.78	1	37779.92	-29.23906	-9.339346E-008	0.0006795	7
	46	228	7.512019	34708.05	-21063.12	1	40599.3	-31.25212	-1.339106E-008	0.0006361	6
	47	231	5.978954	36691.79	-24170.14	1	43937.27	-33.37427	-1.353598E-008	0.0007089	6
	48	234	4.734848	39340.9	-28016.05	1	48297.05	-35.45601	-1.859384E-008	0.0006989	6
	49	237	3.75601	42682.4	-32299.59	1	53526.17	-37.11635	-1.246543E-008	0.000651	6
	50	240	3.004808	46750.25	-36747.51	1	59463.98	-38.16872	-1.681582E-008	0.0007589	6
	51	244	2.372217	52230.05	-41644.67	1	66800.13	-38.56646	-1.401972E-008	0.0006674	6
	52	248	1.878005	58938.43	-46085.09	1	74816.94	-38.02253	-1.309664E-008	0.0006585	6
	53	253	1.512097	66093.17	-50046.2	1	82903.13	-37.13326	-1.521751E-008	0.0007412	6
	54	258	1.201923	74779.02	-53202.71	1	91773.8	-35.43055	-1.569998E-008	0.000662	6
	55	265	0.956633	84048.16	-55335.59	1	100628.6	-33.36009	-2.675205E-008	2.498952E-005	6
