EXPLAIN
TAG	EISPOT
TITLE	LABEL	Potentiostatic EIS	Test Identifier
DATE	LABEL	8/24/2020	Date
TIME	LABEL	21:18:57	Time
NOTES	NOTES	1	Notes...
	
PSTAT	PSTAT	REF3000-16137	Potentiostat
VDC	POTEN	0.00000E+000	T	DC Voltage (V)
FREQINIT	QUANT	3.00000E+005	Initial Freq. (Hz)
FREQFINAL	QUANT	1.00000E+000	Final Freq. (Hz)
PTSPERDEC	QUANT	1.00000E+001	Points/decade
VAC	QUANT	5.00000E+001	AC Voltage (mV rms)
AREA	QUANT	1.00000E+000	Sample Area (cm^2)
SPEED	SELECTOR	2	Optimize for:
ZGUESS	QUANT	1.00000E+003	Estimated Z (ohms)
EOC	QUANT	0	Open Circuit (V)
SEQUENCER	TOGGLE	TRUE	Run as Sequence
PSTATMODEL	IQUANT	5	Pstat Model
PSTATSECTION	LABEL	REF3000-16137	Pstat Section
PSTATSERIALNO	LABEL	16137	Pstat Serial Number
CTRLMODE	IQUANT	1	Control Mode
IESTAB	IQUANT	0	I/E Stability
CASPEED	IQUANT	1	Control Amp Speed
CONVENTION	IQUANT	1	Current Convention
ICHRANGE	IQUANT	2	Ich Range
ICHRANGEMODE	TOGGLE	F	Ich Auto Range
ICHOFFSETENABLE	TOGGLE	T	Ich Offset Enable
ICHOFFSET	QUANT	0	Ich Offset (V)
ICHFILTER	IQUANT	3	Ich Filter
VCHRANGE	IQUANT	2	Vch Range
VCHRANGEMODE	TOGGLE	F	Vch Auto Range
VCHOFFSETENABLE	TOGGLE	T	Vch Offset Enable
VCHOFFSET	QUANT	0	Vch Offset (V)
VCHFILTER	IQUANT	3	Vch Filter
ACHRANGE	IQUANT	2	Ach Range
ACHOFFSETENABLE	TOGGLE	F	Ach Offset Enable
ACHOFFSET	QUANT	0	Ach Offset (V)
ACHFILTER	IQUANT	3	Ach Filter
IERANGELOWERLIMIT	IQUANT	2	I/E Range Lower Limit
IERANGEMODE	TOGGLE	F	I/E AutoRange
IERANGE	IQUANT	11	I/E Range
POSFEEDENABLE	TOGGLE	F	Positive Feedback IR Comp
POSFEEDRESISTANCE	QUANT	0	Positive Feedback Resistance (ohm)
ACHSELECT	IQUANT	0	Ach Select
CABLEID	IQUANT	13	Cable ID
DCCALDATE	LABEL	7/31/2020	DC Calibration Date
ACCALDATE	LABEL	7/31/2020	AC Calibration Date
THERMOSELECT	IQUANT	1	Thermo Select
FRAMEWORKVERSION	QUANT	6.33	Framework Version
INSTRUMENTVERSION	LABEL	3.50	Instrument Version
COMPLIANCEVOLTAGE	IQUANT	0	Compliance Voltage
ZCURVE	TABLE
	Pt	Time	Freq	Zreal	Zimag	Zsig	Zmod	Zphz	Idc	Vdc	IERange
	#	s	Hz	ohm	ohm	V	ohm	°	A	V	#
	0	17	300046.9	1834.998	-2615.987	1	3195.404	-54.95206	-2.438525E-005	0.0012779	9
	1	37	238359.4	2323.779	-2774.295	1	3618.931	-50.0501	2.704979E-005	-0.001832	9
	2	52	189328.1	2861.964	-2796.569	1	4001.455	-44.33787	1.468057E-005	-0.0018252	9
	3	60	150421.9	3410.137	-2776.72	1	4397.636	-39.15436	7.885637E-005	-0.0021849	9
	4	67	119484.4	3938.073	-2680.585	1	4763.818	-34.24251	7.41756E-006	-0.0158924	8
	5	75	94921.88	4409.395	-2571.638	1	5104.516	-30.2515	8.338244E-006	0.0033027	8
	6	82	75421.88	4844.57	-2438.687	1	5423.75	-26.72003	2.102046E-005	-0.0028044	8
	7	90	59859.37	5217.82	-2342.277	1	5719.432	-24.17529	-1.701963E-005	0.0101375	8
	8	97	47578.12	5545.414	-2150.198	1	5947.686	-21.19348	-9.269008E-006	-0.0016053	8
	9	105	37828.12	5825.203	-2067.085	1	6181.087	-19.53733	-2.414154E-005	0.0072811	8
	10	112	30046.88	6088.07	-1997.081	1	6407.256	-18.16114	-2.413584E-005	0.007245	8
	11	120	23859.38	6307.671	-1887.608	1	6584.055	-16.66012	-9.172289E-006	-0.0016555	8
	12	125	18984.38	6667.335	-1563.689	1	6848.247	-13.19902	-4.794687E-006	0.022547	7
	13	129	15046.87	6879.033	-1602.033	1	7063.116	-13.10973	3.753962E-006	0.0007627	7
	14	133	11953.13	7102.162	-1657.289	1	7292.963	-13.13492	-2.008875E-006	0.0194847	7
	15	136	9515.62	7280.985	-1693.079	1	7475.244	-13.0906	-4.808718E-006	0.0225557	7
	16	139	7546.875	7509.56	-1773.824	1	7716.213	-13.29017	1.430624E-006	-0.0173672	7
	17	143	5928.309	7756.994	-1854.874	1	7975.683	-13.4482	-4.805964E-006	0.0225191	7
	18	147	4733.456	7994.202	-1931.772	1	8224.294	-13.58491	-5.671977E-006	0.0213579	7
	19	151	3796.875	8301.23	-2074.282	1	8556.464	-14.02958	-5.431043E-006	0.0090687	7
	20	156	2987.132	8575.344	-2163.949	1	8844.161	-14.16265	-6.069441E-006	0.0147241	7
	21	160	2390.625	8833.341	-2370.424	1	9145.863	-15.02141	-3.684618E-006	0.0222274	7
	22	164	1884.191	9147.676	-2544.309	1	9494.919	-15.54323	-6.075367E-006	0.0147554	7
	23	168	1516.544	9476.794	-2633.346	1	9835.86	-15.52918	3.730596E-006	0.0008736	7
	24	173	1193.986	9754.09	-2939.074	1	10187.27	-16.76846	5.221449E-006	-0.0070184	7
	25	177	946.5144	10215	-3191.025	1	10701.81	-17.34809	6.178098E-006	-0.0142555	7
	26	180	751.7689	10704.81	-3311.498	1	11205.31	-17.18928	5.835393E-006	-0.0221344	7
	27	182	597.4265	10900.16	-3670.72	1	11501.64	-18.61138	-5.656779E-006	0.0213901	7
	28	185	477.4305	11549.31	-4094.291	1	12253.56	-19.51968	-1.156174E-007	0.0005885	7
	29	187	376.6741	12144.34	-4493.949	1	12949.16	-20.30672	-1.141998E-007	0.000635	7
	30	190	298.2954	12803.96	-4911.66	1	13713.71	-20.98705	-1.139585E-007	0.0006396	7
	31	192	237.7717	13518.35	-5334.103	1	14532.67	-21.53332	-1.147094E-007	0.0005929	7
	32	195	189.0121	14318.62	-5766.981	1	15436.35	-21.93765	-1.221901E-007	0.0006938	7
	33	197	150.2404	15185.13	-6192.036	1	16399.07	-22.18414	-1.176086E-007	0.0006681	7
	34	199	119.1737	16111.62	-6618.809	1	17418.18	-22.33333	-1.12639E-007	0.000613	7
	35	202	95.0169	17075.58	-7019.754	1	18462.19	-22.34752	-1.082331E-007	0.0005812	7
	36	204	75.60484	18070.28	-7429.739	1	19538.07	-22.3504	-1.143148E-007	0.0006237	7
	37	207	54.50582	19516.04	-8045.459	1	21109.36	-22.40384	-1.129974E-007	0.0006555	7
	38	209	45.95588	20297.75	-8418.837	1	21974.43	-22.52706	-1.040762E-007	0.0006255	7
	39	212	37.20238	21261.78	-8924.952	1	23059.01	-22.77096	-1.166919E-007	0.00067	7
	40	214	30.04808	22230.25	-9495.02	1	24173.11	-23.12837	-1.154802E-007	0.000668	7
	41	216	23.91582	23298.13	-10255.22	1	25455.3	-23.75782	-1.081613E-007	0.0006252	7
	42	219	18.60119	24557.73	-11316.44	1	27039.67	-24.74072	-1.001652E-007	0.0006702	7
	43	221	15.02404	25601.94	-12363.46	1	28430.87	-25.77642	-1.127019E-007	0.000575	7
	44	223	12.01923	26753.74	-13746.34	1	30078.63	-27.19456	-9.95967E-008	0.0005777	7
	45	226	9.450605	28169.6	-15570.37	1	32186.38	-28.93104	-1.050073E-007	0.0006107	7
	46	228	7.512019	29785.29	-17699.03	1	34647.06	-30.71965	-1.017238E-007	0.0006017	7
	47	231	5.978954	31673.52	-20077.56	1	37500.94	-32.37024	-1.131669E-007	0.0006446	7
	48	234	4.734848	34216.13	-22901.2	1	41172.91	-33.79479	-2.148384E-008	0.0007325	6
	49	237	3.75601	37316.95	-25898.66	1	45423.51	-34.76138	-1.977582E-008	0.0006549	6
	50	241	3.004808	40978.9	-28785.06	1	50078.44	-35.08559	-1.595595E-008	0.0007065	6
	51	244	2.372217	45768.18	-31815.15	1	55739.84	-34.80459	-2.32908E-008	0.0006147	6
	52	249	1.878005	51050.84	-33955.04	1	61311.77	-33.62875	-2.119956E-008	0.0006787	6
	53	253	1.512097	56486.94	-35474.79	1	66702.59	-32.12955	-2.035115E-008	0.0005653	6
	54	259	1.201923	62327.41	-35723.24	1	71839.1	-29.81937	-2.369325E-008	0.0006886	6
	55	272	0.956633	68019.67	-35205.74	1	76590.6	-27.36526	-3.220271E-008	3.245466E-005	6
