EXPLAIN
TAG	EISPOT
TITLE	LABEL	Potentiostatic EIS	Test Identifier
DATE	LABEL	8/25/2020	Date
TIME	LABEL	2:00:40	Time
NOTES	NOTES	1	Notes...
	
PSTAT	PSTAT	REF3000-16137	Potentiostat
VDC	POTEN	0.00000E+000	T	DC Voltage (V)
FREQINIT	QUANT	3.00000E+005	Initial Freq. (Hz)
FREQFINAL	QUANT	1.00000E+000	Final Freq. (Hz)
PTSPERDEC	QUANT	1.00000E+001	Points/decade
VAC	QUANT	5.00000E+001	AC Voltage (mV rms)
AREA	QUANT	1.00000E+000	Sample Area (cm^2)
SPEED	SELECTOR	2	Optimize for:
ZGUESS	QUANT	1.00000E+003	Estimated Z (ohms)
EOC	QUANT	0	Open Circuit (V)
SEQUENCER	TOGGLE	TRUE	Run as Sequence
PSTATMODEL	IQUANT	5	Pstat Model
PSTATSECTION	LABEL	REF3000-16137	Pstat Section
PSTATSERIALNO	LABEL	16137	Pstat Serial Number
CTRLMODE	IQUANT	1	Control Mode
IESTAB	IQUANT	0	I/E Stability
CASPEED	IQUANT	1	Control Amp Speed
CONVENTION	IQUANT	1	Current Convention
ICHRANGE	IQUANT	2	Ich Range
ICHRANGEMODE	TOGGLE	F	Ich Auto Range
ICHOFFSETENABLE	TOGGLE	T	Ich Offset Enable
ICHOFFSET	QUANT	0	Ich Offset (V)
ICHFILTER	IQUANT	3	Ich Filter
VCHRANGE	IQUANT	2	Vch Range
VCHRANGEMODE	TOGGLE	F	Vch Auto Range
VCHOFFSETENABLE	TOGGLE	T	Vch Offset Enable
VCHOFFSET	QUANT	0	Vch Offset (V)
VCHFILTER	IQUANT	3	Vch Filter
ACHRANGE	IQUANT	2	Ach Range
ACHOFFSETENABLE	TOGGLE	F	Ach Offset Enable
ACHOFFSET	QUANT	0	Ach Offset (V)
ACHFILTER	IQUANT	3	Ach Filter
IERANGELOWERLIMIT	IQUANT	2	I/E Range Lower Limit
IERANGEMODE	TOGGLE	F	I/E AutoRange
IERANGE	IQUANT	11	I/E Range
POSFEEDENABLE	TOGGLE	F	Positive Feedback IR Comp
POSFEEDRESISTANCE	QUANT	0	Positive Feedback Resistance (ohm)
ACHSELECT	IQUANT	0	Ach Select
CABLEID	IQUANT	13	Cable ID
DCCALDATE	LABEL	7/31/2020	DC Calibration Date
ACCALDATE	LABEL	7/31/2020	AC Calibration Date
THERMOSELECT	IQUANT	1	Thermo Select
FRAMEWORKVERSION	QUANT	6.33	Framework Version
INSTRUMENTVERSION	LABEL	3.50	Instrument Version
COMPLIANCEVOLTAGE	IQUANT	0	Compliance Voltage
ZCURVE	TABLE
	Pt	Time	Freq	Zreal	Zimag	Zsig	Zmod	Zphz	Idc	Vdc	IERange
	#	s	Hz	ohm	ohm	V	ohm	°	A	V	#
	0	16	300046.9	902.5179	-1326.402	1	1604.332	-55.76762	-0.0004707	0.0315825	9
	1	31	238359.4	1073.519	-1553.562	1	1888.385	-55.35534	-0.0008107	0.0293513	9
	2	45	189328.1	1224.818	-1635.119	1	2042.986	-53.16424	-0.0005254	0.0030452	9
	3	53	150421.9	1611.196	-1693.483	1	2337.485	-46.42638	-0.000699	0.0123334	9
	4	62	119484.4	1984.019	-1762.04	1	2653.51	-41.60881	-0.0001289	-0.0127093	9
	5	69	94921.88	2274.308	-1796.811	1	2898.449	-38.31041	-5.453017E-005	0.008765	9
	6	78	75421.88	2671.359	-1797.363	1	3219.731	-33.93374	0.000135	-0.0101145	9
	7	86	59859.37	2914.656	-1749.412	1	3399.362	-30.9727	0.0001462	0.0023227	9
	8	96	47578.12	3216.677	-1610.935	1	3597.516	-26.60204	-0.0002882	0.0071201	9
	9	106	37828.12	3455.861	-1559.88	1	3791.596	-24.29309	-0.0002186	0.011209	9
	10	116	30046.88	3658.027	-1416.495	1	3922.706	-21.16786	0.0002267	-0.0014595	9
	11	126	23859.38	3466.803	-1241.973	1	3682.557	-19.70993	0.0003046	-0.0077599	9
	12	132	18984.38	3965.397	-1297.58	1	4172.3	-18.11943	-5.630606E-005	0.0087839	9
	13	140	15046.87	4172.118	-1288.774	1	4366.636	-17.16601	0.0002666	-0.010863	9
	14	146	11953.13	4303.369	-1229.31	1	4475.509	-15.94264	0.0003025	-0.0076887	9
	15	153	9515.62	4518.675	-1235.638	1	4684.573	-15.29373	-0.000215	0.0014342	9
	16	159	7546.875	4678.532	-1188.722	1	4827.186	-14.25606	0.0002987	-0.0078065	9
	17	166	5928.309	4915.253	-1210.563	1	5062.131	-13.83585	8.5667E-005	-0.0556668	8
	18	173	4733.456	5063.07	-1202.345	1	5203.875	-13.35878	-0.0001129	0.0546213	8
	19	178	3796.875	5099.102	-1343.519	1	5273.128	-14.7609	4.34865E-005	-0.0081922	9
	20	186	2987.132	5441.374	-1212.326	1	5574.79	-12.56023	-0.0001136	0.054826	8
	21	191	2390.625	4781.234	-1863.264	1	5131.467	-21.29104	-0.0001403	0.0105347	9
	22	198	1884.191	5707.756	-1801.3	1	5985.246	-17.51507	0.0003001	-0.0075902	9
	23	205	1516.544	5759.65	-1508.98	1	5954.04	-14.68105	-0.0002663	0.0107521	9
	24	211	1193.986	6345.788	-1638.949	1	6554.02	-14.48152	0.0002827	-0.0051707	9
	25	218	946.5144	7202.735	-1525.411	1	7362.491	-11.95755	-0.0002177	0.0112103	9
	26	225	751.7689	5095.35	-1929.507	1	5448.448	-20.74067	-5.418049E-005	-0.005328	9
	27	231	597.4265	6729.387	-2707.128	1	7253.496	-21.91416	-0.0001456	0.0405324	8
	28	235	477.4305	7138.13	-2226.172	1	7477.215	-17.32116	-1.608235E-006	0.0006118	8
	29	240	376.6741	9330.632	-2903.691	1	9772.01	-17.28613	-6.037876E-007	0.0007353	7
	30	242	298.2954	9700.48	-3147.308	1	10198.28	-17.97558	-5.744705E-007	0.0004881	7
	31	244	237.7717	10193.28	-3423.488	1	10752.82	-18.56501	-6.010741E-007	0.0006271	7
	32	247	189.0121	10648.39	-3665.122	1	11261.5	-18.9932	-6.029063E-007	0.0006881	7
	33	249	150.2404	11064.83	-3827.753	1	11708.2	-19.08249	-5.991047E-007	0.0005895	7
	34	252	119.1737	11661.04	-4116.961	1	12366.45	-19.44572	-5.993056E-007	0.0005904	7
	35	254	95.0169	12106.92	-4507.558	1	12918.81	-20.42092	-5.777484E-007	0.0005164	7
	36	257	75.60484	12680.05	-4891.032	1	13590.65	-21.09295	-6.013299E-007	0.0007033	7
	37	259	54.50582	13337.48	-5506.067	1	14429.32	-22.43214	-5.778995E-007	0.00048	7
	38	262	45.95588	13734.84	-5978.202	1	14979.48	-23.52147	-5.802181E-007	0.0004953	7
	39	264	37.20238	14307.48	-6611.814	1	15761.35	-24.80274	-5.825891E-007	0.0005816	7
	40	267	30.04808	14801.61	-7439.053	1	16565.84	-26.68337	-5.932519E-007	0.0005833	7
	41	269	23.91582	15538.43	-8523.389	1	17722.61	-28.74636	-5.846386E-007	0.0004836	7
	42	272	18.60119	16496.83	-9944.71	1	19262.47	-31.08264	-5.781915E-007	0.0004974	7
	43	274	15.02404	17557.9	-11398.3	1	20933.25	-32.99098	-5.99928E-007	0.0006417	7
	44	277	12.01923	19004.77	-13142.01	1	23106.14	-34.66428	-5.766126E-007	0.0005153	7
	45	279	9.450605	20842.94	-15021.45	1	25691.87	-35.78018	-5.837601E-007	0.000542	7
	46	282	7.512019	23129.64	-16865.68	1	28625.71	-36.0988	-5.967797E-007	0.0006946	7
	47	285	5.978954	25829.78	-18437	1	31734.84	-35.51881	-5.945815E-007	0.0007331	7
	48	289	4.734848	28961.91	-19682.62	1	35017.11	-34.20016	-5.933954E-007	0.0007052	7
	49	294	3.75601	32299.06	-20388.4	1	38195.76	-32.26168	-5.852249E-007	0.00047	7
	50	299	3.004808	35531.61	-20493.18	1	41017.87	-29.97459	-6.023679E-007	0.0007359	7
	51	306	2.372217	38987.32	-20397.37	1	44000.72	-27.61764	-6.041762E-007	0.0006727	7
	52	310	1.878005	41626.87	-19083.03	1	45792.55	-24.62817	-6.044706E-007	0.0005837	7
	53	319	1.512097	43732.77	-17890.21	1	47250.55	-22.2485	-6.056106E-007	0.0006567	7
	54	330	1.201923	45719.47	-16552.55	1	48623.63	-19.90258	-6.042569E-007	0.0005775	7
	55	342	0.956633	47538.68	-15425.1	1	49978.6	-17.97694	-6.254822E-007	-3.396509E-005	7
