EXPLAIN
TAG	EISPOT
TITLE	LABEL	Potentiostatic EIS	Test Identifier
DATE	LABEL	8/25/2020	Date
TIME	LABEL	2:41:35	Time
NOTES	NOTES	1	Notes...
	
PSTAT	PSTAT	REF3000-16137	Potentiostat
VDC	POTEN	0.00000E+000	T	DC Voltage (V)
FREQINIT	QUANT	3.00000E+005	Initial Freq. (Hz)
FREQFINAL	QUANT	1.00000E+000	Final Freq. (Hz)
PTSPERDEC	QUANT	1.00000E+001	Points/decade
VAC	QUANT	5.00000E+001	AC Voltage (mV rms)
AREA	QUANT	1.00000E+000	Sample Area (cm^2)
SPEED	SELECTOR	2	Optimize for:
ZGUESS	QUANT	1.00000E+003	Estimated Z (ohms)
EOC	QUANT	0	Open Circuit (V)
SEQUENCER	TOGGLE	TRUE	Run as Sequence
PSTATMODEL	IQUANT	5	Pstat Model
PSTATSECTION	LABEL	REF3000-16137	Pstat Section
PSTATSERIALNO	LABEL	16137	Pstat Serial Number
CTRLMODE	IQUANT	1	Control Mode
IESTAB	IQUANT	0	I/E Stability
CASPEED	IQUANT	1	Control Amp Speed
CONVENTION	IQUANT	1	Current Convention
ICHRANGE	IQUANT	2	Ich Range
ICHRANGEMODE	TOGGLE	F	Ich Auto Range
ICHOFFSETENABLE	TOGGLE	T	Ich Offset Enable
ICHOFFSET	QUANT	0	Ich Offset (V)
ICHFILTER	IQUANT	3	Ich Filter
VCHRANGE	IQUANT	2	Vch Range
VCHRANGEMODE	TOGGLE	F	Vch Auto Range
VCHOFFSETENABLE	TOGGLE	T	Vch Offset Enable
VCHOFFSET	QUANT	0	Vch Offset (V)
VCHFILTER	IQUANT	3	Vch Filter
ACHRANGE	IQUANT	2	Ach Range
ACHOFFSETENABLE	TOGGLE	F	Ach Offset Enable
ACHOFFSET	QUANT	0	Ach Offset (V)
ACHFILTER	IQUANT	3	Ach Filter
IERANGELOWERLIMIT	IQUANT	2	I/E Range Lower Limit
IERANGEMODE	TOGGLE	F	I/E AutoRange
IERANGE	IQUANT	11	I/E Range
POSFEEDENABLE	TOGGLE	F	Positive Feedback IR Comp
POSFEEDRESISTANCE	QUANT	0	Positive Feedback Resistance (ohm)
ACHSELECT	IQUANT	0	Ach Select
CABLEID	IQUANT	13	Cable ID
DCCALDATE	LABEL	7/31/2020	DC Calibration Date
ACCALDATE	LABEL	7/31/2020	AC Calibration Date
THERMOSELECT	IQUANT	1	Thermo Select
FRAMEWORKVERSION	QUANT	6.33	Framework Version
INSTRUMENTVERSION	LABEL	3.50	Instrument Version
COMPLIANCEVOLTAGE	IQUANT	0	Compliance Voltage
ZCURVE	TABLE
	Pt	Time	Freq	Zreal	Zimag	Zsig	Zmod	Zphz	Idc	Vdc	IERange
	#	s	Hz	ohm	ohm	V	ohm	°	A	V	#
	0	15	300046.9	859.8859	-1390.681	1	1635.053	-58.27067	-0.0007125	0.0128045	9
	1	30	238359.4	1099.153	-1456.287	1	1824.53	-52.95581	-0.0007005	0.0125769	9
	2	46	189328.1	1212.122	-1701.103	1	2088.778	-54.52821	0.0008126	-0.0237807	9
	3	55	150421.9	1691.366	-1651.211	1	2363.729	-44.31174	0.000215	0.0097552	9
	4	62	119484.4	1930.17	-1835.839	1	2663.806	-43.56517	0.0005872	-0.0304103	9
	5	71	94921.88	2295.131	-1787.988	1	2909.386	-37.91985	0.0002826	-0.0051278	9
	6	80	75421.88	2587.308	-1786.565	1	3144.198	-34.6255	0.0003003	-0.0076502	9
	7	89	59859.37	2976.344	-1658.558	1	3407.262	-29.1286	-5.245312E-005	-0.0053616	9
	8	99	47578.12	3245.911	-1638.235	1	3635.898	-26.78041	-0.0002673	0.0108343	9
	9	107	37828.12	3460.022	-1551.391	1	3791.908	-24.15033	-0.0002181	0.0112101	9
	10	117	30046.88	3686.899	-1524.233	1	3989.55	-22.46111	4.306935E-005	-0.0081729	9
	11	127	23859.38	3901.051	-1320.903	1	4118.614	-18.7062	0.0003011	-0.0076176	9
	12	134	18984.38	4017.607	-1337.251	1	4234.313	-18.4099	0.0002276	-0.0015944	9
	13	141	15046.87	4214.852	-1278.269	1	4404.423	-16.87136	4.875769E-005	-0.0083989	9
	14	148	11953.13	4333.343	-1161.019	1	4486.182	-14.99881	-0.0001434	-0.0020281	9
	15	155	9515.62	4686.438	-1333.044	1	4872.341	-15.87825	-5.049585E-005	-0.0056713	9
	16	162	7546.875	4885.131	-961.238	1	4978.804	-11.13177	-0.000116	0.0544485	8
	17	167	5928.309	5150.002	-1073.155	1	5260.626	-11.77083	-0.000137	0.0491586	8
	18	173	4733.456	4730.898	-1341.899	1	4917.529	-15.83576	0.000211	-0.0109971	9
	19	182	3796.875	5175.278	-1152.995	1	5302.16	-12.55975	0.0002236	-0.0014161	9
	20	188	2987.132	5438.996	-1453.481	1	5629.856	-14.96173	0.0002995	-0.0075636	9
	21	195	2390.625	5503.418	-2255.213	1	5947.571	-22.28304	-0.0002657	0.0049413	9
	22	202	1884.191	5969.618	-2120.58	1	6335.077	-19.5565	0.0002994	-0.0075477	9
	23	209	1516.544	5936.504	-1706.282	1	6176.85	-16.03582	-0.000144	-0.0019846	9
	24	215	1193.986	5735.563	-1574.29	1	5947.694	-15.34848	4.228481E-005	-0.0502927	8
	25	223	946.5144	8486.815	-3499.897	1	9180.158	-22.41087	-0.0001345	0.0490755	8
	26	227	751.7689	6785.324	-2519.483	1	7237.984	-20.37064	0.0002285	-0.0014892	9
	27	233	597.4265	7668.371	-1125.26	1	7750.492	-8.348031	-0.0001465	0.010589	9
	28	239	477.4305	7219.375	-2257.024	1	7563.963	-17.36103	-1.668563E-006	0.0007498	8
	29	243	376.6741	9383.418	-2930.496	1	9830.38	-17.34389	-5.866585E-007	0.0005232	7
	30	246	298.2954	9866.38	-3204.383	1	10373.69	-17.99266	-6.045202E-007	0.0007258	7
	31	248	237.7717	10249.62	-3441.86	1	10812.08	-18.56224	-5.85626E-007	0.0005011	7
	32	251	189.0121	10720.91	-3698.636	1	11340.98	-19.03407	-5.960633E-007	0.0007418	7
	33	253	150.2404	11353.06	-4019.635	1	12043.65	-19.49688	-6.030915E-007	0.0007137	7
	34	256	119.1737	11745.08	-4232.855	1	12484.55	-19.81885	-5.611479E-007	0.0005441	7
	35	258	95.0169	12311.22	-4606.606	1	13144.85	-20.51481	-6.031093E-007	0.0007117	7
	36	261	75.60484	12742.43	-4938.304	1	13665.88	-21.18375	-5.829511E-007	0.0005117	7
	37	263	54.50582	13503.51	-5637.188	1	14632.93	-22.65863	-5.879819E-007	0.0004773	7
	38	266	45.95588	13898.42	-6092.302	1	15175.05	-23.67001	-5.791736E-007	0.0005493	7
	39	268	37.20238	14399.85	-6775.779	1	15914.36	-25.1991	-5.844017E-007	0.0004872	7
	40	271	30.04808	14954.4	-7593.742	1	16771.97	-26.92115	-5.780792E-007	0.0004881	7
	41	274	23.91582	15672.87	-8696.557	1	17923.98	-29.025	-5.747609E-007	0.0005107	7
	42	276	18.60119	16689.33	-10202.23	1	19560.66	-31.43755	-5.98467E-007	0.0005903	7
	43	278	15.02404	17621.26	-11638.68	1	21117.94	-33.4444	-5.847002E-007	0.0005927	7
	44	281	12.01923	19115.78	-13477.02	1	23388.96	-35.18463	-5.775046E-007	0.0005454	7
	45	284	9.450605	20941.78	-15371.28	1	25977.57	-36.2787	-5.929479E-007	0.0007005	7
	46	286	7.512019	23393.11	-17398.45	1	29153.79	-36.63975	-5.998019E-007	0.0007278	7
	47	289	5.978954	26143.63	-19102.95	1	32379.19	-36.1553	-5.934029E-007	0.0007391	7
	48	294	4.734848	29431.07	-20486.13	1	35859.02	-34.84068	-5.811106E-007	0.0004907	7
	49	298	3.75601	32912.52	-21291.54	1	39199.02	-32.89936	-5.989837E-007	0.0007201	7
	50	303	3.004808	36254.61	-21393.14	1	42095.88	-30.54403	-5.905394E-007	0.0006731	7
	51	310	2.372217	39945.54	-21256.56	1	45249.17	-28.01916	-5.926743E-007	0.0006444	7
	52	314	1.878005	42653.75	-19835.19	1	47040.17	-24.93975	-6.009024E-007	0.0005913	7
	53	323	1.512097	44809.48	-18618.39	1	48523.54	-22.56294	-6.000286E-007	0.0007111	7
	54	334	1.201923	46858.04	-17210.01	1	49918.54	-20.16726	-6.027713E-007	0.0005896	7
	55	347	0.956633	51742.19	-16944.28	1	54445.96	-18.13234	-1.246905E-007	2.305083E-005	6
