EXPLAIN
TAG	EISPOT
TITLE	LABEL	Potentiostatic EIS	Test Identifier
DATE	LABEL	8/24/2020	Date
TIME	LABEL	22:22:29	Time
NOTES	NOTES	1	Notes...
	
PSTAT	PSTAT	REF3000-16137	Potentiostat
VDC	POTEN	0.00000E+000	T	DC Voltage (V)
FREQINIT	QUANT	3.00000E+005	Initial Freq. (Hz)
FREQFINAL	QUANT	1.00000E+000	Final Freq. (Hz)
PTSPERDEC	QUANT	1.00000E+001	Points/decade
VAC	QUANT	5.00000E+001	AC Voltage (mV rms)
AREA	QUANT	1.00000E+000	Sample Area (cm^2)
SPEED	SELECTOR	2	Optimize for:
ZGUESS	QUANT	1.00000E+003	Estimated Z (ohms)
EOC	QUANT	0	Open Circuit (V)
SEQUENCER	TOGGLE	TRUE	Run as Sequence
PSTATMODEL	IQUANT	5	Pstat Model
PSTATSECTION	LABEL	REF3000-16137	Pstat Section
PSTATSERIALNO	LABEL	16137	Pstat Serial Number
CTRLMODE	IQUANT	1	Control Mode
IESTAB	IQUANT	0	I/E Stability
CASPEED	IQUANT	1	Control Amp Speed
CONVENTION	IQUANT	1	Current Convention
ICHRANGE	IQUANT	2	Ich Range
ICHRANGEMODE	TOGGLE	F	Ich Auto Range
ICHOFFSETENABLE	TOGGLE	T	Ich Offset Enable
ICHOFFSET	QUANT	0	Ich Offset (V)
ICHFILTER	IQUANT	3	Ich Filter
VCHRANGE	IQUANT	2	Vch Range
VCHRANGEMODE	TOGGLE	F	Vch Auto Range
VCHOFFSETENABLE	TOGGLE	T	Vch Offset Enable
VCHOFFSET	QUANT	0	Vch Offset (V)
VCHFILTER	IQUANT	3	Vch Filter
ACHRANGE	IQUANT	2	Ach Range
ACHOFFSETENABLE	TOGGLE	F	Ach Offset Enable
ACHOFFSET	QUANT	0	Ach Offset (V)
ACHFILTER	IQUANT	3	Ach Filter
IERANGELOWERLIMIT	IQUANT	2	I/E Range Lower Limit
IERANGEMODE	TOGGLE	F	I/E AutoRange
IERANGE	IQUANT	11	I/E Range
POSFEEDENABLE	TOGGLE	F	Positive Feedback IR Comp
POSFEEDRESISTANCE	QUANT	0	Positive Feedback Resistance (ohm)
ACHSELECT	IQUANT	0	Ach Select
CABLEID	IQUANT	13	Cable ID
DCCALDATE	LABEL	7/31/2020	DC Calibration Date
ACCALDATE	LABEL	7/31/2020	AC Calibration Date
THERMOSELECT	IQUANT	1	Thermo Select
FRAMEWORKVERSION	QUANT	6.33	Framework Version
INSTRUMENTVERSION	LABEL	3.50	Instrument Version
COMPLIANCEVOLTAGE	IQUANT	0	Compliance Voltage
ZCURVE	TABLE
	Pt	Time	Freq	Zreal	Zimag	Zsig	Zmod	Zphz	Idc	Vdc	IERange
	#	s	Hz	ohm	ohm	V	ohm	°	A	V	#
	0	16	300046.9	474.885	-2569.583	1	2613.096	-79.5293	-0.0008459	0.0228967	9
	1	32	238359.4	352.1375	-2909.302	1	2930.535	-83.09858	0.0001489	-0.0019521	10
	2	48	189328.1	740.8395	-4155.066	1	4220.595	-79.89052	-0.0001277	-0.0132384	9
	3	58	150421.9	912.7334	-4749.667	1	4836.57	-79.1222	-0.0001239	-0.0130535	9
	4	67	119484.4	807.7464	-5839.903	1	5895.5	-82.1251	-0.0003176	-0.0064947	9
	5	76	94921.88	1548.99	-6971.258	1	7141.275	-77.47259	-0.0002233	0.0113654	9
	6	85	75421.88	2349.39	-8718.094	1	9029.108	-74.91797	-0.0002642	0.0045307	9
	7	95	59859.37	3433.207	-10619.59	1	11160.76	-72.0845	-5.928615E-005	0.0090095	9
	8	104	47578.12	4450.475	-12614.32	1	13376.39	-70.56658	4.097904E-005	0.0062466	9
	9	114	37828.12	7771.646	-16767.84	1	18481.31	-65.13297	-0.0001268	0.0505317	8
	10	121	30046.88	8823.609	-19978.31	1	21840.07	-66.17089	-0.0002219	0.0112896	9
	11	131	23859.38	13425.86	-18661.62	1	22989.34	-54.26735	0.0002161	-0.0110973	9
	12	140	18984.38	14688.63	-22312.82	1	26713.62	-56.64291	-4.885751E-005	-0.005584	9
	13	150	15046.87	21791.34	-20022.49	1	29593.29	-42.57766	-0.0002186	0.0016546	9
	14	158	11953.13	27526.32	-26087.99	1	37924.68	-43.46328	-0.0001295	0.0089333	8
	15	166	9515.62	29975.44	-33469.02	1	44929.97	-48.15182	-0.0002712	0.0108494	9
	16	175	7546.875	37343.53	-20688.03	1	42691.14	-28.98611	-0.0002172	0.0015279	9
	17	186	5928.309	61111.48	-73713.14	1	95750.9	-50.33976	-0.0001495	0.0107412	9
	18	194	4733.456	57562.33	-31324.21	1	65533.41	-28.5541	0.0002136	-0.0109947	9
	19	203	3796.875	44015.96	-25410.24	1	50824.06	-29.99767	-0.0002931	0.0093198	9
	20	211	2987.132	58346.1	-69673.98	1	90877.56	-50.05666	4.086136E-005	0.0061815	9
	21	220	2390.625	24613.17	-26156.97	1	35916.5	-46.74169	-0.0002162	0.0014945	9
	22	228	1884.191	90738.62	-54650.66	1	105925.4	-31.06	-0.0001398	0.0509798	8
	23	238	1516.544	204836.4	65866.93	1	215166	17.82564	-0.0001492	0.0107071	9
	24	247	1193.986	8816.7	58303.42	1	58966.29	81.40083	-0.0002007	0.0002964	10
	25	257	946.5144	-114178.1	718.3808	1	114180.3	179.6395	0.0001416	0.0024071	9
	26	263	751.7689	28079.3	-8212.383	1	29255.6	-16.30267	0.0001346	-0.0101043	9
	27	270	597.4265	14197.35	17446.85	1	22493.49	50.86308	0.0001345	-0.0100557	9
	28	277	477.4305	113337.5	-52356.98	1	124846.5	-24.79487	-2.393936E-006	0.0007011	8
	29	283	376.6741	167206.4	-68554.94	1	180714.6	-22.29372	-7.811118E-007	0.0005509	7
	30	286	298.2954	192515.1	-59874.27	1	201611	-17.27626	-8.5266E-008	0.0005317	6
	31	288	237.7717	199553.5	-71934.43	1	212123	-19.82306	-8.315629E-008	0.0006824	6
	32	291	189.0121	208659.6	-82879.83	1	224517	-21.66303	-8.549723E-008	0.0008084	6
	33	294	150.2404	220318.1	-98423.3	1	241303.1	-24.07188	-8.514334E-008	0.0005701	6
	34	297	119.1737	227590.5	-99425.6	1	248360.4	-23.59868	-8.739083E-008	0.0007604	6
	35	301	95.0169	229312.5	-133373.5	1	265278.6	-30.18328	-7.859185E-007	0.0007606	7
	36	305	75.60484	262950.5	-155961.6	1	305723.7	-30.67309	-8.704833E-008	0.0008022	6
	37	309	54.50582	278212.5	-183978.8	1	333542.2	-33.47621	-7.802215E-007	0.0007483	7
	38	313	45.95588	309153.5	-211529.5	1	374593.9	-34.38077	-8.526499E-008	0.0006075	6
	39	317	37.20238	340994.7	-244240.2	1	419440.9	-35.61243	-8.339997E-008	0.0005328	6
	40	321	30.04808	362241.8	-270429.9	1	452052.5	-36.743	-8.542819E-008	0.0006871	6
	41	324	23.91582	399717.1	-307457.7	1	504285.7	-37.56706	-8.390191E-008	0.0005295	6
	42	328	18.60119	451860.2	-342948.8	1	567266.7	-37.19745	-8.948557E-008	0.0007851	6
	43	330	15.02404	485585.8	-402580.5	1	630765.1	-39.66082	-8.486041E-008	0.0007767	6
	44	332	12.01923	576552.1	-448581.6	1	730505.1	-37.88441	-8.10217E-009	0.0007335	5
	45	335	9.450605	675123.4	-539065.4	1	863934.6	-38.6063	-8.810454E-009	0.0007511	5
	46	338	7.512019	741546.9	-604887.4	1	956964	-39.20448	-8.873525E-009	0.0005812	5
	47	341	5.978954	832611.3	-677330.3	1	1073321	-39.1284	-8.756429E-009	0.0007707	5
	48	345	4.734848	958271	-775600.9	1	1232818	-38.98587	-7.835525E-009	0.0007115	5
	49	350	3.75601	1011000	-819169.6	1	1301215	-39.01635	-8.641998E-009	0.0007438	5
	50	355	3.004808	1197443	-958455	1	1533788	-38.67442	-8.241778E-009	0.0006078	5
	51	362	2.372217	1339379	-1069111	1	1713749	-38.59735	-7.549525E-009	0.0005911	5
	52	366	1.878005	1469324	-1163844	1	1874419	-38.38256	-7.602765E-009	0.0006551	5
	53	371	1.512097	1671942	-1323239	1	2132217	-38.35944	-8.188876E-009	0.0005557	5
	54	377	1.201923	1892879	-1545195	1	2443485	-39.22546	-8.366278E-009	0.0006776	5
	55	383	0.956633	2050995	-1536514	1	2562705	-36.83891	-8.386188E-009	9.691659E-006	5
