EXPLAIN
TAG	EISPOT
TITLE	LABEL	Potentiostatic EIS	Test Identifier
DATE	LABEL	8/24/2020	Date
TIME	LABEL	23:42:02	Time
NOTES	NOTES	1	Notes...
	
PSTAT	PSTAT	REF3000-16137	Potentiostat
VDC	POTEN	0.00000E+000	T	DC Voltage (V)
FREQINIT	QUANT	3.00000E+005	Initial Freq. (Hz)
FREQFINAL	QUANT	1.00000E+000	Final Freq. (Hz)
PTSPERDEC	QUANT	1.00000E+001	Points/decade
VAC	QUANT	5.00000E+001	AC Voltage (mV rms)
AREA	QUANT	1.00000E+000	Sample Area (cm^2)
SPEED	SELECTOR	2	Optimize for:
ZGUESS	QUANT	1.00000E+003	Estimated Z (ohms)
EOC	QUANT	0	Open Circuit (V)
SEQUENCER	TOGGLE	TRUE	Run as Sequence
PSTATMODEL	IQUANT	5	Pstat Model
PSTATSECTION	LABEL	REF3000-16137	Pstat Section
PSTATSERIALNO	LABEL	16137	Pstat Serial Number
CTRLMODE	IQUANT	1	Control Mode
IESTAB	IQUANT	0	I/E Stability
CASPEED	IQUANT	1	Control Amp Speed
CONVENTION	IQUANT	1	Current Convention
ICHRANGE	IQUANT	2	Ich Range
ICHRANGEMODE	TOGGLE	F	Ich Auto Range
ICHOFFSETENABLE	TOGGLE	T	Ich Offset Enable
ICHOFFSET	QUANT	0	Ich Offset (V)
ICHFILTER	IQUANT	3	Ich Filter
VCHRANGE	IQUANT	2	Vch Range
VCHRANGEMODE	TOGGLE	F	Vch Auto Range
VCHOFFSETENABLE	TOGGLE	T	Vch Offset Enable
VCHOFFSET	QUANT	0	Vch Offset (V)
VCHFILTER	IQUANT	3	Vch Filter
ACHRANGE	IQUANT	2	Ach Range
ACHOFFSETENABLE	TOGGLE	F	Ach Offset Enable
ACHOFFSET	QUANT	0	Ach Offset (V)
ACHFILTER	IQUANT	3	Ach Filter
IERANGELOWERLIMIT	IQUANT	2	I/E Range Lower Limit
IERANGEMODE	TOGGLE	F	I/E AutoRange
IERANGE	IQUANT	11	I/E Range
POSFEEDENABLE	TOGGLE	F	Positive Feedback IR Comp
POSFEEDRESISTANCE	QUANT	0	Positive Feedback Resistance (ohm)
ACHSELECT	IQUANT	0	Ach Select
CABLEID	IQUANT	13	Cable ID
DCCALDATE	LABEL	7/31/2020	DC Calibration Date
ACCALDATE	LABEL	7/31/2020	AC Calibration Date
THERMOSELECT	IQUANT	1	Thermo Select
FRAMEWORKVERSION	QUANT	6.33	Framework Version
INSTRUMENTVERSION	LABEL	3.50	Instrument Version
COMPLIANCEVOLTAGE	IQUANT	0	Compliance Voltage
ZCURVE	TABLE
	Pt	Time	Freq	Zreal	Zimag	Zsig	Zmod	Zphz	Idc	Vdc	IERange
	#	s	Hz	ohm	ohm	V	ohm	°	A	V	#
	0	15	300046.9	340.53	-2670.75	1	2692.372	-82.7338	-0.0006901	0.0125598	9
	1	32	238359.4	284.4804	-3152.958	1	3165.766	-84.84436	5.835732E-007	0.0028362	10
	2	47	189328.1	521.3134	-4090.037	1	4123.126	-82.73628	-1.374638E-005	0.002792	10
	3	56	150421.9	689.5463	-4915.075	1	4963.208	-82.01398	2.351717E-005	-0.0164334	9
	4	65	119484.4	374.7466	-6743.222	1	6753.626	-86.81913	-0.0005252	0.0026719	9
	5	74	94921.88	599.3812	-7785.339	1	7808.378	-85.59757	-0.0002891	0.0071227	9
	6	85	75421.88	421.6458	-9753.51	1	9762.62	-87.52464	-0.0001428	-0.0020942	9
	7	95	59859.37	2943.7	-12422.99	1	12766.99	-76.6693	-5.585335E-005	-0.0289149	8
	8	104	47578.12	3708.842	-14543.15	1	15008.62	-75.69319	-0.0001203	0.0573523	8
	9	111	37828.12	1573.032	-22937.36	1	22991.23	-86.07683	-0.0001282	0.0086951	8
	10	120	30046.88	2065.742	-21921.2	1	22018.32	-84.61664	-0.0002205	0.0016197	9
	11	130	23859.38	-7852.895	-20072.66	1	21554.11	-111.3666	4.607466E-005	-0.0083654	9
	12	140	18984.38	4108.357	-39498.96	1	39712.04	-84.06191	7.860242E-005	-0.0589701	8
	13	146	15046.87	2372.61	-45149.46	1	45211.76	-86.99187	0.000096	0.0152982	8
	14	153	11953.13	22559.88	-69628.27	1	73191.83	-72.04743	6.004903E-005	0.0335372	8
	15	160	9515.62	-925.9591	-78511.88	1	78517.34	-90.6757	0.0001296	-0.0586346	8
	16	167	7546.875	31395.18	-67414.8	1	74366.75	-65.02853	6.436749E-005	0.033519	8
	17	175	5928.309	-43937.39	-78692.75	1	90127.93	-119.1764	-0.0001438	-0.0020613	9
	18	183	4733.456	-27206.36	-55669	1	61961.46	-116.0455	0.0002817	0.0005874	10
	19	192	3796.875	-13696.26	-202740.4	1	203202.5	-93.86478	0.0001376	-0.010201	9
	20	202	2987.132	61269.9	-107401.3	1	123648.8	-60.29626	0.0001499	-0.0261002	8
	21	209	2390.625	71678.05	-28953.88	1	77305.05	-21.99592	0.0002817	-0.0050857	9
	22	219	1884.191	-44421.93	-42686.7	1	61607.32	-136.1412	0.0002134	-0.011034	9
	23	228	1516.544	38550.42	-55548.08	1	67614.52	-55.23932	0.0002267	-0.0013697	9
	24	236	1193.986	-273862.9	-301810.6	1	407542.1	-132.2206	4.342588E-005	0.0061518	9
	25	247	946.5144	-58417.69	-23797.8	1	63079.02	-157.8353	-0.0001479	0.0267856	8
	26	255	751.7689	29324.05	-19622.15	1	35283.55	-33.78841	0.0002274	-0.0013889	9
	27	263	597.4265	37246.59	-32836.9	1	49654.51	-41.39967	0.0001311	-0.0051606	8
	28	270	477.4305	-501792.1	-1776741	1	1846240	-105.7709	-2.282473E-006	0.0006706	8
	29	276	376.6741	460295.5	-2796869	1	2834493	-80.6543	-8.805282E-008	0.0005715	6
	30	281	298.2954	3260875	-4708077	1	5727067	-55.29303	-9.69842E-009	0.0007771	5
	31	284	237.7717	3245853	-4829718	1	5819084	-56.09659	-8.47803E-009	0.0005309	5
	32	288	189.0121	2900297	-6501577	1	7119145	-65.95876	-7.989637E-009	0.0005274	5
	33	292	150.2404	1393329	-6707185	1	6850379	-78.26447	-8.387335E-009	0.0005139	5
	34	296	119.1737	-1286029	-3682681	1	3900771	-109.2497	-1.005626E-008	0.0007936	5
	35	300	95.0169	3093595	-1.56713E+007	1	1.597373E+007	-78.8331	-8.572137E-009	0.0005271	5
	36	304	75.60484	8136836	-1.40413E+007	1	1.622857E+007	-59.90801	-8.439201E-009	0.0005538	5
	37	308	54.50582	2203969	-2.006597E+007	1	2.018665E+007	-83.73198	-8.765686E-009	0.0005884	5
	38	312	45.95588	-6255976	-8.688598E+007	1	8.711091E+007	-94.11831	-3.416254E-010	0.000547	4
	39	315	37.20238	4.059624E+007	-1.664635E+008	1	1.713422E+008	-76.29454	-5.136314E-010	0.0007382	4
	40	319	30.04808	-4.444803E+007	-9.759506E+007	1	1.0724E+008	-114.4861	-5.951951E-010	0.0007706	4
	41	323	23.91582	-1.524508E+007	-1.860597E+008	1	1.866832E+008	-94.68415	-4.455806E-010	0.0005557	4
	42	327	18.60119	6.596691E+007	-1.110448E+008	1	1.29161E+008	-59.28728	-3.546896E-010	0.0005185	4
	43	330	15.02404	1.251811E+008	-2.099202E+008	1	2.444112E+008	-59.19124	-2.457644E-010	0.0007618	4
	44	334	12.01923	2.44498E+007	-2.377954E+007	1	3.410658E+007	-44.20378	-8.626587E-008	0.0005764	6
	45	340	9.450605	-1.657237E+007	-1.055897E+008	1	1.068823E+008	-98.9198	-8.505913E-009	0.0006448	5
	46	345	7.512019	-2.099766E+007	-1.978407E+008	1	1.989519E+008	-96.0584	-5.530347E-010	0.0005273	4
	47	349	5.978954	-2.346949E+007	-3.823838E+008	1	3.831034E+008	-93.51222	-6.790477E-010	0.000796	4
	48	355	4.734848	5.756071E+007	-4.869416E+008	1	4.903319E+008	-83.25843	-2.473651E-010	0.0007119	4
	49	363	3.75601	-1.429033E+009	-2.271792E+009	1	2.683873E+009	-122.1713	3.258728E-012	0.0008023	3
	50	370	3.004808	5.164633E+007	-1.624318E+008	1	1.704448E+008	-72.36157	-8.559883E-008	0.0005742	6
	51	383	2.372217	-3.407283E+008	2.074483E+008	1	3.989118E+008	148.6654	-8.23554E-009	0.0006002	5
	52	397	1.878005	8.07169E+008	-5.016015E+008	1	9.503294E+008	-31.85818	-5.35141E-010	0.0006631	4
	53	411	1.512097	-1.28865E+010	-1.635947E+010	1	2.082532E+010	-128.2278	5.930801E-012	0.0006845	3
	54	425	1.201923	1.088634E+009	-1.65342E+009	1	1.979626E+009	-56.63856	6.37316E-012	0.0006973	3
	55	440	0.956633	3.966948E+009	-8.670469E+009	1	9.534868E+009	-65.41477	1.276272E-011	7.607362E-005	3
