EXPLAIN
TAG	EISPOT
TITLE	LABEL	Potentiostatic EIS	Test Identifier
DATE	LABEL	8/25/2020	Date
TIME	LABEL	2:23:54	Time
NOTES	NOTES	1	Notes...
	
PSTAT	PSTAT	REF3000-16137	Potentiostat
VDC	POTEN	0.00000E+000	T	DC Voltage (V)
FREQINIT	QUANT	3.00000E+005	Initial Freq. (Hz)
FREQFINAL	QUANT	1.00000E+000	Final Freq. (Hz)
PTSPERDEC	QUANT	1.00000E+001	Points/decade
VAC	QUANT	5.00000E+001	AC Voltage (mV rms)
AREA	QUANT	1.00000E+000	Sample Area (cm^2)
SPEED	SELECTOR	2	Optimize for:
ZGUESS	QUANT	1.00000E+003	Estimated Z (ohms)
EOC	QUANT	0	Open Circuit (V)
SEQUENCER	TOGGLE	TRUE	Run as Sequence
PSTATMODEL	IQUANT	5	Pstat Model
PSTATSECTION	LABEL	REF3000-16137	Pstat Section
PSTATSERIALNO	LABEL	16137	Pstat Serial Number
CTRLMODE	IQUANT	1	Control Mode
IESTAB	IQUANT	0	I/E Stability
CASPEED	IQUANT	1	Control Amp Speed
CONVENTION	IQUANT	1	Current Convention
ICHRANGE	IQUANT	2	Ich Range
ICHRANGEMODE	TOGGLE	F	Ich Auto Range
ICHOFFSETENABLE	TOGGLE	T	Ich Offset Enable
ICHOFFSET	QUANT	0	Ich Offset (V)
ICHFILTER	IQUANT	3	Ich Filter
VCHRANGE	IQUANT	2	Vch Range
VCHRANGEMODE	TOGGLE	F	Vch Auto Range
VCHOFFSETENABLE	TOGGLE	T	Vch Offset Enable
VCHOFFSET	QUANT	0	Vch Offset (V)
VCHFILTER	IQUANT	3	Vch Filter
ACHRANGE	IQUANT	2	Ach Range
ACHOFFSETENABLE	TOGGLE	F	Ach Offset Enable
ACHOFFSET	QUANT	0	Ach Offset (V)
ACHFILTER	IQUANT	3	Ach Filter
IERANGELOWERLIMIT	IQUANT	2	I/E Range Lower Limit
IERANGEMODE	TOGGLE	F	I/E AutoRange
IERANGE	IQUANT	11	I/E Range
POSFEEDENABLE	TOGGLE	F	Positive Feedback IR Comp
POSFEEDRESISTANCE	QUANT	0	Positive Feedback Resistance (ohm)
ACHSELECT	IQUANT	0	Ach Select
CABLEID	IQUANT	13	Cable ID
DCCALDATE	LABEL	7/31/2020	DC Calibration Date
ACCALDATE	LABEL	7/31/2020	AC Calibration Date
THERMOSELECT	IQUANT	1	Thermo Select
FRAMEWORKVERSION	QUANT	6.33	Framework Version
INSTRUMENTVERSION	LABEL	3.50	Instrument Version
COMPLIANCEVOLTAGE	IQUANT	0	Compliance Voltage
ZCURVE	TABLE
	Pt	Time	Freq	Zreal	Zimag	Zsig	Zmod	Zphz	Idc	Vdc	IERange
	#	s	Hz	ohm	ohm	V	ohm	°	A	V	#
	0	15	300046.9	825.4651	-1359.614	1	1590.579	-58.73672	-0.000104	0.0180158	9
	1	30	238359.4	999.737	-1372.591	1	1698.081	-53.932	0.0006081	-0.0313274	9
	2	44	189328.1	1251.056	-1591.361	1	2024.246	-51.82719	-0.0001479	-0.0129553	9
	3	54	150421.9	1594.512	-1705.34	1	2334.663	-46.9236	0.0007163	-0.0142578	9
	4	62	119484.4	1961.494	-1828.996	1	2681.918	-42.99801	0.0008073	-0.0010145	10
	5	72	94921.88	2335.88	-1760.102	1	2924.773	-36.99828	-0.0002695	0.0109048	9
	6	82	75421.88	2615.131	-1793.111	1	3170.829	-34.43717	-0.0002176	0.0016724	9
	7	91	59859.37	3033.576	-1471.01	1	3371.418	-25.86919	-5.350702E-005	0.0087719	9
	8	101	47578.12	3604.546	-1230.762	1	3808.875	-18.85233	-0.0001427	0.0407839	8
	9	109	37828.12	3477.326	-1553.614	1	3808.61	-24.07433	-0.000144	0.010558	9
	10	119	30046.88	3711.802	-1410.777	1	3970.865	-20.81073	0.0002824	-0.0052048	9
	11	127	23859.38	3739.674	-1314.168	1	3963.862	-19.36211	0.000306	-0.0077859	9
	12	135	18984.38	4055.863	-1251.689	1	4244.614	-17.15087	0.0001457	0.0023687	9
	13	141	15046.87	4266.611	-1305.572	1	4461.893	-17.01398	-0.0002639	0.0046067	9
	14	149	11953.13	4453.506	-1228.683	1	4619.89	-15.42371	-0.0001452	-0.0018966	9
	15	157	9515.62	4514.956	-1170.872	1	4664.308	-14.53835	-0.0002897	0.0093321	9
	16	165	7546.875	4780.455	-1235.755	1	4937.594	-14.49377	0.0002064	-0.0107399	9
	17	171	5928.309	4856.641	-1307.787	1	5029.639	-15.07102	-0.0002909	0.0093633	9
	18	179	4733.456	4964.803	-1517.022	1	5191.399	-16.99081	-5.43188E-005	0.008803	9
	19	187	3796.875	5106.261	-1143.542	1	5232.742	-12.62306	-0.0002679	0.010785	9
	20	193	2987.132	5183.466	-1445.478	1	5381.239	-15.58183	-0.000265	0.0046766	9
	21	201	2390.625	5690.636	-1278.436	1	5832.473	-12.66162	4.320736E-005	-0.0081599	9
	22	208	1884.191	6121.64	-1562.66	1	6317.941	-14.31998	5.595231E-005	0.0299853	8
	23	214	1516.544	5878.845	-1605.539	1	6094.143	-15.27524	0.0001245	-0.007186	8
	24	219	1193.986	5768.338	-1156.915	1	5883.211	-11.34094	-0.0002178	0.0112635	9
	25	226	946.5144	6108.108	-1239.239	1	6232.551	-11.46874	-0.0002895	0.0094027	9
	26	231	751.7689	6731.074	-3621.732	1	7643.579	-28.28298	-0.0002188	0.0016848	9
	27	235	597.4265	6166.523	-2141.848	1	6527.903	-19.15389	-5.374598E-005	0.0087408	9
	28	242	477.4305	7185.086	-2243.403	1	7527.172	-17.33996	-1.647208E-006	0.0007382	8
	29	246	376.6741	9398.483	-2932.416	1	9845.33	-17.32842	-6.008647E-007	0.0005181	7
	30	249	298.2954	9743.83	-3171.119	1	10246.86	-18.02742	-5.818171E-007	0.0007407	7
	31	251	237.7717	10263.64	-3425.616	1	10820.22	-18.45706	-5.906462E-007	0.0005886	7
	32	253	189.0121	10705.35	-3674.461	1	11318.4	-18.94406	-5.859907E-007	0.0004846	7
	33	256	150.2404	11329.77	-4025.605	1	12023.69	-19.56075	-5.999818E-007	0.0007174	7
	34	259	119.1737	11808.89	-4238.369	1	12546.46	-19.74375	-6.07926E-007	0.0005214	7
	35	261	95.0169	12198.61	-4542.844	1	13017.04	-20.42567	-5.826905E-007	0.000497	7
	36	263	75.60484	12730.55	-4934.081	1	13653.28	-21.18524	-5.931561E-007	0.0005101	7
	37	266	54.50582	13421.14	-5578.671	1	14534.4	-22.57084	-5.915328E-007	0.0007384	7
	38	268	45.95588	13862.79	-6049.139	1	15125.12	-23.57443	-5.900748E-007	0.0006938	7
	39	271	37.20238	14362.38	-6720.471	1	15856.94	-25.07592	-5.924894E-007	0.0007188	7
	40	273	30.04808	14935.23	-7524.604	1	16723.66	-26.73969	-5.818866E-007	0.0006374	7
	41	276	23.91582	15631.78	-8627.347	1	17854.51	-28.89478	-5.761985E-007	0.0004945	7
	42	279	18.60119	16604.7	-10119.2	1	19445.16	-31.35887	-5.882843E-007	0.0005506	7
	43	281	15.02404	17672.32	-11664.31	1	21174.68	-33.42612	-5.946726E-007	0.0007411	7
	44	284	12.01923	19009.28	-13294.75	1	23197.05	-34.96826	-5.943614E-007	0.0007073	7
	45	286	9.450605	20996.26	-15329.79	1	25997.03	-36.13393	-5.752744E-007	0.0005235	7
	46	289	7.512019	23262.01	-17266.75	1	28970.01	-36.58548	-5.925626E-007	0.0007243	7
	47	292	5.978954	26023.31	-18880.47	1	32150.97	-35.96169	-5.90444E-007	0.0005876	7
	48	296	4.734848	29300.97	-20247.78	1	35616.28	-34.64555	-5.908107E-007	0.0007298	7
	49	300	3.75601	32756.71	-21015.9	1	38918.76	-32.68323	-5.809587E-007	0.0005559	7
	50	305	3.004808	35994.07	-21118.34	1	41731.98	-30.40088	-5.921247E-007	0.0006022	7
	51	312	2.372217	39653.04	-21018.42	1	44879.14	-27.92619	-5.971418E-007	0.0005375	7
	52	316	1.878005	42605.52	-20160.92	1	47134.84	-25.3235	-5.968894E-007	0.0006199	7
	53	321	1.512097	44763.99	-18657.12	1	48496.42	-22.62581	-5.986714E-007	0.0005114	7
	54	331	1.201923	46578.29	-17119.39	1	49624.7	-20.1804	-6.041633E-007	0.0006353	7
	55	344	0.956633	51049.81	-16715.09	1	53716.64	-18.12985	-1.185465E-007	2.207684E-005	6
