EXPLAIN
TAG	EISPOT
TITLE	LABEL	Potentiostatic EIS	Test Identifier
DATE	LABEL	8/24/2020	Date
TIME	LABEL	22:49:24	Time
NOTES	NOTES	1	Notes...
	
PSTAT	PSTAT	REF3000-16137	Potentiostat
VDC	POTEN	0.00000E+000	T	DC Voltage (V)
FREQINIT	QUANT	3.00000E+005	Initial Freq. (Hz)
FREQFINAL	QUANT	1.00000E+000	Final Freq. (Hz)
PTSPERDEC	QUANT	1.00000E+001	Points/decade
VAC	QUANT	5.00000E+001	AC Voltage (mV rms)
AREA	QUANT	1.00000E+000	Sample Area (cm^2)
SPEED	SELECTOR	2	Optimize for:
ZGUESS	QUANT	1.00000E+003	Estimated Z (ohms)
EOC	QUANT	0	Open Circuit (V)
SEQUENCER	TOGGLE	TRUE	Run as Sequence
PSTATMODEL	IQUANT	5	Pstat Model
PSTATSECTION	LABEL	REF3000-16137	Pstat Section
PSTATSERIALNO	LABEL	16137	Pstat Serial Number
CTRLMODE	IQUANT	1	Control Mode
IESTAB	IQUANT	0	I/E Stability
CASPEED	IQUANT	1	Control Amp Speed
CONVENTION	IQUANT	1	Current Convention
ICHRANGE	IQUANT	2	Ich Range
ICHRANGEMODE	TOGGLE	F	Ich Auto Range
ICHOFFSETENABLE	TOGGLE	T	Ich Offset Enable
ICHOFFSET	QUANT	0	Ich Offset (V)
ICHFILTER	IQUANT	3	Ich Filter
VCHRANGE	IQUANT	2	Vch Range
VCHRANGEMODE	TOGGLE	F	Vch Auto Range
VCHOFFSETENABLE	TOGGLE	T	Vch Offset Enable
VCHOFFSET	QUANT	0	Vch Offset (V)
VCHFILTER	IQUANT	3	Vch Filter
ACHRANGE	IQUANT	2	Ach Range
ACHOFFSETENABLE	TOGGLE	F	Ach Offset Enable
ACHOFFSET	QUANT	0	Ach Offset (V)
ACHFILTER	IQUANT	3	Ach Filter
IERANGELOWERLIMIT	IQUANT	2	I/E Range Lower Limit
IERANGEMODE	TOGGLE	F	I/E AutoRange
IERANGE	IQUANT	11	I/E Range
POSFEEDENABLE	TOGGLE	F	Positive Feedback IR Comp
POSFEEDRESISTANCE	QUANT	0	Positive Feedback Resistance (ohm)
ACHSELECT	IQUANT	0	Ach Select
CABLEID	IQUANT	13	Cable ID
DCCALDATE	LABEL	7/31/2020	DC Calibration Date
ACCALDATE	LABEL	7/31/2020	AC Calibration Date
THERMOSELECT	IQUANT	1	Thermo Select
FRAMEWORKVERSION	QUANT	6.33	Framework Version
INSTRUMENTVERSION	LABEL	3.50	Instrument Version
COMPLIANCEVOLTAGE	IQUANT	0	Compliance Voltage
ZCURVE	TABLE
	Pt	Time	Freq	Zreal	Zimag	Zsig	Zmod	Zphz	Idc	Vdc	IERange
	#	s	Hz	ohm	ohm	V	ohm	°	A	V	#
	0	15	300046.9	-49.46415	-2543.564	1	2544.045	-91.11407	0.0001716	0.0027206	10
	1	30	238359.4	58.59341	-3165.156	1	3165.699	-88.93946	0.0001144	-0.0019888	10
	2	46	189328.1	-50.59431	-4011.849	1	4012.168	-90.72253	0.0005554	0.0016015	10
	3	56	150421.9	17.79227	-5285.859	1	5285.889	-89.80714	-4.010365E-005	0.002957	10
	4	64	119484.4	154.8308	-6887.129	1	6888.87	-88.71214	0.0005774	-0.0053293	9
	5	74	94921.88	292.0861	-7499.785	1	7505.471	-87.76969	4.634574E-005	0.0060867	9
	6	85	75421.88	3284.402	-9527.63	1	10077.85	-70.97971	5.995124E-005	0.0336836	8
	7	93	59859.37	3792.996	-11746.31	1	12343.53	-72.10424	1.601155E-005	0.0475503	8
	8	101	47578.12	3189.66	-15443.9	1	15769.84	-78.33067	0.0001242	-0.0046413	8
	9	108	37828.12	-291.509	-19925.55	1	19927.68	-90.83817	-5.911968E-005	0.0088825	9
	10	118	30046.88	6648.101	-27010.85	1	27816.96	-76.1728	-6.368331E-005	0.0585399	8
	11	127	23859.38	2295.192	-31068.94	1	31153.6	-85.77499	4.716808E-005	-0.0082737	9
	12	135	18984.38	5139.986	-37731.09	1	38079.58	-82.24253	4.725156E-005	-0.0543857	8
	13	142	15046.87	-751.7658	-47105.13	1	47111.13	-90.91432	-7.591367E-005	0.0590756	8
	14	148	11953.13	-20088.57	-53955.19	1	57573.54	-110.4213	-0.0001032	-0.0105883	8
	15	155	9515.62	-20292.31	-82336.35	1	84800.07	-103.845	-0.00015	0.0107144	9
	16	162	7546.875	19817.53	-102924.6	1	104815.1	-79.1014	0.0001384	-0.0101769	9
	17	171	5928.309	192980.9	128818	1	232025.2	33.72377	-0.0002921	0.0093089	9
	18	183	4733.456	71101.5	-20283.62	1	73938.14	-15.92223	-0.0002714	0.0108321	9
	19	192	3796.875	57743.43	-97450.3	1	113273.4	-59.35147	0.0002955	-0.0094096	9
	20	203	2987.132	128823.8	-145920.9	1	194649.7	-48.56087	4.859099E-005	-0.0083278	9
	21	212	2390.625	-131374.3	33789.3	1	135650	165.5762	-0.0001431	0.0276768	8
	22	220	1884.191	-63749.88	-91028.91	1	111131.9	-125.0045	0.0002133	-0.0109847	9
	23	229	1516.544	117315.9	-149055.2	1	189685.2	-51.795	1.823988E-005	0.0473742	8
	24	237	1193.986	-149226.5	-285269.5	1	321942.9	-117.6144	0.0001576	-0.043014	8
	25	244	946.5144	29367.64	-15676.95	1	33290.01	-28.09407	0.0002917	-0.009299	9
	26	253	751.7689	-39790.92	31193.53	1	50560.39	141.9058	-0.0002868	0.0091288	9
	27	260	597.4265	7985.893	-40711.83	1	41487.68	-78.90197	-5.75861E-005	0.0088245	9
	28	267	477.4305	439451.7	-1264881	1	1339045	-70.84148	-2.243904E-006	0.0007579	8
	29	272	376.6741	529314.4	-2282748	1	2343313	-76.9452	-8.039083E-007	0.0007458	7
	30	277	298.2954	1700658	-2897563	1	3359778	-59.59017	-8.422928E-008	0.0005795	6
	31	283	237.7717	5180715	-4311797	1	6740282	-39.76988	-6.420176E-009	0.0007903	5
	32	287	189.0121	3962068	-4403377	1	5923488	-48.01976	-7.283178E-009	0.0006696	5
	33	291	150.2404	6875316	-2179095	1	7212380	-17.58573	-9.192045E-009	0.0007405	5
	34	295	119.1737	-7049012	-2643883	1	7528525	-159.4404	-9.397995E-009	0.0006736	5
	35	299	95.0169	7625288	-5874223	1	9.625565E+006	-37.60925	-8.330002E-009	0.0007439	5
	36	303	75.60484	6340349	-5498994	1	8392793	-40.93515	-8.391837E-009	0.0007676	5
	37	307	54.50582	9.784852E+006	-6777327	1	1.190275E+007	-34.70781	-8.482174E-009	0.0006654	5
	38	311	45.95588	3.622644E+007	-3.560374E+007	1	5.079352E+007	-44.50331	-2.562731E-010	0.0005249	4
	39	314	37.20238	5.570554E+007	-2785321	1	5.577513E+007	-2.86245	-3.421737E-010	0.0006387	4
	40	317	30.04808	1.844566E+007	-4.437229E+007	1	4.805354E+007	-67.42723	-1.091284E-009	0.0007784	4
	41	321	23.91582	4.50917E+007	-3.230982E+007	1	5.547239E+007	-35.62295	-4.920893E-010	0.0005197	4
	42	325	18.60119	-1.208141E+007	-5.659018E+007	1	5.786544E+007	-102.0511	-1.110464E-009	0.0007466	4
	43	329	15.02404	3.764121E+007	-3.648434E+007	1	5.242106E+007	-44.10586	-1.069981E-010	0.0005746	4
	44	332	12.01923	7.281302E+007	-2.671519E+007	1	7.755926E+007	-20.14815	3.1945E-010	0.000561	4
	45	336	9.450605	6.017179E+007	2.191027E+007	1	6.403674E+007	20.00801	-4.114976E-010	0.0005675	4
	46	340	7.512019	5.890828E+007	-4.094312E+007	1	7.173928E+007	-34.80052	-7.291932E-010	0.0006547	4
	47	344	5.978954	8.18397E+007	-1.7914E+007	1	8.377738E+007	-12.34682	-1.952251E-010	0.0005366	4
	48	350	4.734848	6.463425E+008	-5.871574E+008	1	8.732195E+008	-42.25297	-1.124198E-011	0.0006035	3
	49	355	3.75601	2.330679E+007	-1.210753E+007	1	2.626402E+007	-27.45121	-8.654587E-008	0.0008214	6
	50	368	3.004808	2.579171E+007	-1.334237E+007	1	2.903844E+007	-27.35308	-8.868469E-009	0.0005208	5
	51	377	2.372217	1.11688E+008	-4.806484E+007	1	1.215913E+008	-23.28458	-3.75035E-010	0.0005893	4
	52	386	1.878005	9.810536E+008	-6.526095E+008	1	1.178289E+009	-33.63236	-3.823428E-012	0.0007616	3
	53	395	1.512097	1.051169E+009	-7.862106E+008	1	1.312663E+009	-36.79426	5.020243E-012	0.0007124	3
	54	406	1.201923	1.719099E+009	-6.320251E+008	1	1.8316E+009	-20.1859	-1.640926E-011	0.0007467	3
	55	419	0.956633	1.01182E+009	-6.423551E+008	1	1.198499E+009	-32.40947	3.696259E-011	6.793697E-005	3
