EXPLAIN
TAG	EISPOT
TITLE	LABEL	Potentiostatic EIS	Test Identifier
DATE	LABEL	8/24/2020	Date
TIME	LABEL	21:57:20	Time
NOTES	NOTES	1	Notes...
	
PSTAT	PSTAT	REF3000-16137	Potentiostat
VDC	POTEN	0.00000E+000	T	DC Voltage (V)
FREQINIT	QUANT	3.00000E+005	Initial Freq. (Hz)
FREQFINAL	QUANT	1.00000E+000	Final Freq. (Hz)
PTSPERDEC	QUANT	1.00000E+001	Points/decade
VAC	QUANT	5.00000E+001	AC Voltage (mV rms)
AREA	QUANT	1.00000E+000	Sample Area (cm^2)
SPEED	SELECTOR	2	Optimize for:
ZGUESS	QUANT	1.00000E+003	Estimated Z (ohms)
EOC	QUANT	0	Open Circuit (V)
SEQUENCER	TOGGLE	TRUE	Run as Sequence
PSTATMODEL	IQUANT	5	Pstat Model
PSTATSECTION	LABEL	REF3000-16137	Pstat Section
PSTATSERIALNO	LABEL	16137	Pstat Serial Number
CTRLMODE	IQUANT	1	Control Mode
IESTAB	IQUANT	0	I/E Stability
CASPEED	IQUANT	1	Control Amp Speed
CONVENTION	IQUANT	1	Current Convention
ICHRANGE	IQUANT	2	Ich Range
ICHRANGEMODE	TOGGLE	F	Ich Auto Range
ICHOFFSETENABLE	TOGGLE	T	Ich Offset Enable
ICHOFFSET	QUANT	0	Ich Offset (V)
ICHFILTER	IQUANT	3	Ich Filter
VCHRANGE	IQUANT	2	Vch Range
VCHRANGEMODE	TOGGLE	F	Vch Auto Range
VCHOFFSETENABLE	TOGGLE	T	Vch Offset Enable
VCHOFFSET	QUANT	0	Vch Offset (V)
VCHFILTER	IQUANT	3	Vch Filter
ACHRANGE	IQUANT	2	Ach Range
ACHOFFSETENABLE	TOGGLE	F	Ach Offset Enable
ACHOFFSET	QUANT	0	Ach Offset (V)
ACHFILTER	IQUANT	3	Ach Filter
IERANGELOWERLIMIT	IQUANT	2	I/E Range Lower Limit
IERANGEMODE	TOGGLE	F	I/E AutoRange
IERANGE	IQUANT	11	I/E Range
POSFEEDENABLE	TOGGLE	F	Positive Feedback IR Comp
POSFEEDRESISTANCE	QUANT	0	Positive Feedback Resistance (ohm)
ACHSELECT	IQUANT	0	Ach Select
CABLEID	IQUANT	13	Cable ID
DCCALDATE	LABEL	7/31/2020	DC Calibration Date
ACCALDATE	LABEL	7/31/2020	AC Calibration Date
THERMOSELECT	IQUANT	1	Thermo Select
FRAMEWORKVERSION	QUANT	6.33	Framework Version
INSTRUMENTVERSION	LABEL	3.50	Instrument Version
COMPLIANCEVOLTAGE	IQUANT	0	Compliance Voltage
ZCURVE	TABLE
	Pt	Time	Freq	Zreal	Zimag	Zsig	Zmod	Zphz	Idc	Vdc	IERange
	#	s	Hz	ohm	ohm	V	ohm	°	A	V	#
	0	15	300046.9	616.2303	-2332.316	1	2412.351	-75.19986	-0.0002756	-0.0015358	10
	1	30	238359.4	381.9275	-3156.438	1	3179.46	-83.10078	0.0001769	-0.0190658	9
	2	46	189328.1	968.054	-3243.156	1	3384.552	-73.3801	-0.000836	0.0013174	10
	3	56	150421.9	1799.976	-3744.59	1	4154.74	-64.32701	0.0007935	-0.0229195	9
	4	65	119484.4	2264.134	-4277.659	1	4839.904	-62.10805	-0.0001107	0.0173936	9
	5	74	94921.88	3125.884	-4814.473	1	5740.235	-57.00562	0.0002826	-0.0050379	9
	6	83	75421.88	3768.209	-5676.166	1	6813.095	-56.4212	-4.953181E-005	-0.0054712	9
	7	91	59859.37	6187.266	-5169.916	1	8062.896	-39.88124	-4.46884E-006	-0.043169	8
	8	99	47578.12	6268.766	-6575.146	1	9084.601	-46.36648	0.0002825	-0.0050306	9
	9	112	37828.12	7240.181	-6778.702	1	9918.22	-43.1146	4.149971E-005	0.006169	9
	10	122	30046.88	9568.71	-6153.158	1	11376.36	-32.74304	4.878604E-005	-0.053317	8
	11	129	23859.38	10074.56	-7559.854	1	12595.56	-36.88421	-0.0002649	0.0045618	9
	12	137	18984.38	11331.09	-7101.999	1	13372.81	-32.0783	0.0001496	-0.0105291	9
	13	144	15046.87	11066.57	-8354.013	1	13865.73	-37.04869	-0.0002534	0.0042402	9
	14	152	11953.13	12664.65	-5359.758	1	13752.1	-22.93838	-0.0002915	0.0092966	9
	15	160	9515.62	14301.83	-7529.274	1	16162.68	-27.7648	-4.910608E-005	-0.0055116	9
	16	168	7546.875	14822.34	-5148.465	1	15691.03	-19.15441	0.000213	-0.0109651	9
	17	175	5928.309	12743.65	-6769.491	1	14430.06	-27.97747	0.0002253	-0.0013286	9
	18	184	4733.456	16340.12	-9152.45	1	18728.77	-29.25412	-0.0002644	0.0045673	9
	19	193	3796.875	19073.18	-5184.699	1	19765.31	-15.20736	-8.060839E-005	0.0586425	8
	20	199	2987.132	18653.23	-8196.28	1	20374.55	-23.72081	-0.0001389	0.050297	8
	21	206	2390.625	29819.92	-11797.49	1	32068.81	-21.58497	0.0001332	-0.0546668	8
	22	213	1884.191	22078.08	-5377.492	1	22723.54	-13.68882	-0.0002643	0.0045673	9
	23	221	1516.544	18797.58	-9634.37	1	21122.74	-27.1366	0.0002822	-0.0050669	9
	24	230	1193.986	23028.55	-11921.42	1	25931.34	-27.3697	0.0002135	-0.0110121	9
	25	240	946.5144	34777.84	-42679.01	1	55054.48	-50.82445	0.0002119	-0.01094	9
	26	247	751.7689	13617.24	-29741.24	1	32710.4	-65.39899	-0.0002634	0.0045914	9
	27	255	597.4265	21014.73	-22623.01	1	30877.49	-47.1107	0.0001379	0.0027258	9
	28	263	477.4305	28544.65	-15127.75	1	32305.51	-27.92215	-2.060016E-006	0.0006902	8
	29	269	376.6741	41372.91	-23442.48	1	47552.78	-29.53651	-7.524447E-007	0.0005201	7
	30	273	298.2954	43822.39	-26788.83	1	51361.89	-31.43764	-7.53213E-007	0.0007542	7
	31	276	237.7717	46594.32	-30618.76	1	55754.27	-33.31032	-7.507791E-007	0.0005014	7
	32	278	189.0121	53899.6	-33067.94	1	63234.92	-31.52953	-7.66036E-008	0.0005429	6
	33	281	150.2404	57887.42	-38526.46	1	69535.91	-33.6454	-7.838008E-008	0.0005258	6
	34	284	119.1737	62083.76	-43108.75	1	75582.79	-34.77474	-7.504753E-008	0.0005708	6
	35	286	95.0169	68996.79	-52599.87	1	86760.03	-37.32018	-7.96077E-008	0.0006855	6
	36	289	75.60484	75922.21	-60255.56	1	96927.4	-38.43723	-7.982673E-008	0.0007941	6
	37	292	54.50582	89372.55	-72460.77	1	115056.6	-39.03417	-8.266985E-008	0.0006391	6
	38	295	45.95588	96935.7	-78950.63	1	125019	-39.16156	-8.371738E-008	0.0006989	6
	39	297	37.20238	108662.4	-87625.66	1	139591.5	-38.88279	-8.226998E-008	0.0005862	6
	40	300	30.04808	120422	-96444	1	154281.9	-38.69068	-8.432581E-008	0.0007423	6
	41	303	23.91582	134395.6	-104647.3	1	170332.7	-37.90615	-8.158065E-008	0.0005881	6
	42	306	18.60119	152273.4	-117167.2	1	192133.7	-37.57657	-8.362329E-008	0.0006411	6
	43	308	15.02404	168631.6	-124660.3	1	209706.4	-36.47353	-8.253502E-008	0.0005469	6
	44	311	12.01923	185086.7	-133647.3	1	228295.2	-35.83227	-8.462904E-008	0.0006347	6
	45	313	9.450605	205370.7	-145708.8	1	251809.8	-35.35538	-8.414202E-008	0.0005583	6
	46	316	7.512019	217238	-149142.5	1	263506.8	-34.47115	-7.513075E-007	0.0007493	7
	47	320	5.978954	246559.6	-166873	1	297721.8	-34.09038	-8.436385E-008	0.000569	6
	48	326	4.734848	259778	-176131.8	1	313858.2	-34.13762	-7.456743E-007	0.0004716	7
	49	332	3.75601	293962.2	-196528	1	353605.8	-33.76465	-8.463396E-008	0.0005994	6
	50	339	3.004808	318481.8	-213056	1	383175.6	-33.78149	-8.303727E-008	0.00063	6
	51	347	2.372217	347353.1	-233035.1	1	418281.7	-33.85719	-8.602198E-008	0.0006785	6
	52	351	1.878005	378167.3	-254001.5	1	455551.6	-33.88785	-8.601581E-008	0.0006568	6
	53	356	1.512097	410323.6	-277121.1	1	495137.9	-34.034	-8.514018E-008	0.000574	6
	54	361	1.201923	443819.7	-304899.7	1	538460.6	-34.48867	-8.597826E-008	0.0006647	6
	55	367	0.956633	483614.3	-336104.4	1	588938.9	-34.7987	-8.672188E-008	2.334331E-005	6
