EXPLAIN
TAG	EISPOT
TITLE	LABEL	Potentiostatic EIS	Test Identifier
DATE	LABEL	8/24/2020	Date
TIME	LABEL	22:16:13	Time
NOTES	NOTES	1	Notes...
	
PSTAT	PSTAT	REF3000-16137	Potentiostat
VDC	POTEN	0.00000E+000	T	DC Voltage (V)
FREQINIT	QUANT	3.00000E+005	Initial Freq. (Hz)
FREQFINAL	QUANT	1.00000E+000	Final Freq. (Hz)
PTSPERDEC	QUANT	1.00000E+001	Points/decade
VAC	QUANT	5.00000E+001	AC Voltage (mV rms)
AREA	QUANT	1.00000E+000	Sample Area (cm^2)
SPEED	SELECTOR	2	Optimize for:
ZGUESS	QUANT	1.00000E+003	Estimated Z (ohms)
EOC	QUANT	0	Open Circuit (V)
SEQUENCER	TOGGLE	TRUE	Run as Sequence
PSTATMODEL	IQUANT	5	Pstat Model
PSTATSECTION	LABEL	REF3000-16137	Pstat Section
PSTATSERIALNO	LABEL	16137	Pstat Serial Number
CTRLMODE	IQUANT	1	Control Mode
IESTAB	IQUANT	0	I/E Stability
CASPEED	IQUANT	1	Control Amp Speed
CONVENTION	IQUANT	1	Current Convention
ICHRANGE	IQUANT	2	Ich Range
ICHRANGEMODE	TOGGLE	F	Ich Auto Range
ICHOFFSETENABLE	TOGGLE	T	Ich Offset Enable
ICHOFFSET	QUANT	0	Ich Offset (V)
ICHFILTER	IQUANT	3	Ich Filter
VCHRANGE	IQUANT	2	Vch Range
VCHRANGEMODE	TOGGLE	F	Vch Auto Range
VCHOFFSETENABLE	TOGGLE	T	Vch Offset Enable
VCHOFFSET	QUANT	0	Vch Offset (V)
VCHFILTER	IQUANT	3	Vch Filter
ACHRANGE	IQUANT	2	Ach Range
ACHOFFSETENABLE	TOGGLE	F	Ach Offset Enable
ACHOFFSET	QUANT	0	Ach Offset (V)
ACHFILTER	IQUANT	3	Ach Filter
IERANGELOWERLIMIT	IQUANT	2	I/E Range Lower Limit
IERANGEMODE	TOGGLE	F	I/E AutoRange
IERANGE	IQUANT	11	I/E Range
POSFEEDENABLE	TOGGLE	F	Positive Feedback IR Comp
POSFEEDRESISTANCE	QUANT	0	Positive Feedback Resistance (ohm)
ACHSELECT	IQUANT	0	Ach Select
CABLEID	IQUANT	13	Cable ID
DCCALDATE	LABEL	7/31/2020	DC Calibration Date
ACCALDATE	LABEL	7/31/2020	AC Calibration Date
THERMOSELECT	IQUANT	1	Thermo Select
FRAMEWORKVERSION	QUANT	6.33	Framework Version
INSTRUMENTVERSION	LABEL	3.50	Instrument Version
COMPLIANCEVOLTAGE	IQUANT	0	Compliance Voltage
ZCURVE	TABLE
	Pt	Time	Freq	Zreal	Zimag	Zsig	Zmod	Zphz	Idc	Vdc	IERange
	#	s	Hz	ohm	ohm	V	ohm	°	A	V	#
	0	16	300046.9	575.2645	-2487.327	1	2552.984	-76.9777	0.0004575	0.0030492	9
	1	31	238359.4	611.4673	-3179.54	1	3237.803	-79.11417	0.0008128	-0.002421	10
	2	48	189328.1	673.152	-3699.878	1	3760.616	-79.68845	-0.000719	0.0006924	10
	3	57	150421.9	1024.253	-4235.207	1	4357.301	-76.4045	-2.893898E-005	0.0029719	10
	4	67	119484.4	1570.753	-5629.919	1	5844.934	-74.41085	3.861015E-005	-0.0169145	9
	5	77	94921.88	3991.567	-5955.712	1	7169.597	-56.16968	9.494098E-005	-0.0588027	8
	6	84	75421.88	2888.11	-8175.37	1	8670.516	-70.54324	0.0002987	-0.0095924	9
	7	96	59859.37	4658.605	-9972.53	1	11006.99	-64.96066	-0.0002652	0.0045178	9
	8	106	47578.12	5897.333	-11093.26	1	12563.39	-62.00425	-0.000141	-0.0021397	9
	9	116	37828.12	7226.888	-12930.67	1	14813.17	-60.79938	0.0002286	-0.0014029	9
	10	127	30046.88	9639.1	-12767.49	1	15997.54	-52.9482	0.0001385	0.0026844	9
	11	137	23859.38	13943.76	-15717.71	1	21011.31	-48.42259	-0.0001082	0.0555749	8
	12	144	18984.38	17671.45	-16075.78	1	23889.56	-42.2929	-0.0001255	0.0077201	8
	13	150	15046.87	15334.98	-16194.91	1	22303.29	-46.56226	0.0002852	-0.005124	9
	14	159	11953.13	19734.38	-17167.46	1	26156.6	-41.02088	9.008712E-005	-0.0592434	8
	15	166	9515.62	23249.64	-21087.21	1	31388.15	-42.20774	0.0002978	-0.0096347	9
	16	174	7546.875	26198.47	-20030.56	1	32978.53	-37.40044	-5.939808E-005	0.0090183	9
	17	183	5928.309	30682.49	-22033.73	1	37774.33	-35.68291	0.000147	-0.0537534	8
	18	189	4733.456	30357.65	-15375.53	1	34029.31	-26.86128	6.014749E-005	0.0332	8
	19	198	3796.875	36004.58	-14657.99	1	38873.98	-22.15195	-0.000129	0.0090822	8
	20	205	2987.132	33419.43	-12606.33	1	35718.03	-20.66726	-0.0001412	0.0506506	8
	21	211	2390.625	45163.83	-13344.52	1	47094.03	-16.46078	-0.0001455	0.0507368	8
	22	217	1884.191	40440.86	-5946.425	1	40875.7	-8.364832	-0.0001505	0.0410634	8
	23	228	1516.544	43044.96	-16417.35	1	46069.5	-20.87685	-0.0001412	0.0505908	8
	24	234	1193.986	38463.2	-37293.42	1	53574.4	-44.11535	-5.899267E-005	-0.0285985	8
	25	241	946.5144	23641.7	-2198.496	1	23743.7	-5.312786	-0.0001145	0.0564382	8
	26	246	751.7689	17674.88	15334.23	1	23399.57	40.944	0.0002249	-0.0013798	9
	27	253	597.4265	36612.95	-37136.98	1	52150.39	-45.40711	-0.0002905	0.0072182	9
	28	261	477.4305	59126.96	-26529.75	1	64806.06	-24.16536	5.324261E-007	6.582919E-005	9
	29	267	376.6741	100444.3	-33654.09	1	105932.4	-18.52353	-8.18135E-008	0.0006081	6
	30	269	298.2954	105058.7	-41564.04	1	112981.8	-21.58509	-8.312258E-008	0.000809	6
	31	272	237.7717	109359.8	-49433.94	1	120013.6	-24.32442	-8.116308E-008	0.0006925	6
	32	274	189.0121	116306.5	-59777.51	1	130769.1	-27.20159	-8.143774E-008	0.0005579	6
	33	277	150.2404	122395.3	-71255.61	1	141626.1	-30.20694	-8.365546E-008	0.0005595	6
	34	280	119.1737	138338.5	-82598.63	1	161121.3	-30.84041	-8.283634E-008	0.0005957	6
	35	283	95.0169	142215.7	-95803	1	171474.5	-33.96601	-8.455248E-008	0.0005302	6
	36	286	75.60484	152656.3	-110842.8	1	188653.3	-35.98319	-8.239202E-008	0.0005933	6
	37	288	54.50582	174085.9	-135629.5	1	220683.7	-37.92199	-8.218255E-008	0.0005877	6
	38	292	45.95588	185347.7	-150995.4	1	239067.7	-39.16833	-8.471475E-008	0.000547	6
	39	294	37.20238	205024.8	-172127.2	1	267699.3	-40.01492	-8.641639E-008	0.0008062	6
	40	298	30.04808	227178.5	-195284	1	299576.3	-40.68256	-8.610042E-008	0.000754	6
	41	302	23.91582	240813	-219294.4	1	325700.7	-42.32232	-7.789031E-007	0.0007461	7
	42	306	18.60119	287351.2	-249650.2	1	380652	-40.98405	-8.260531E-008	0.0007996	6
	43	309	15.02404	316833.8	-282361.1	1	424395.3	-41.70731	-8.604257E-008	0.0007676	6
	44	312	12.01923	352689.7	-312110.7	1	470959.8	-41.50703	-8.806616E-008	0.0007775	6
	45	316	9.450605	396445.3	-352315.5	1	530372.6	-41.62706	-8.511918E-008	0.0007765	6
	46	318	7.512019	448498.6	-390420.8	1	594625.5	-41.03977	-8.554073E-008	0.0005725	6
	47	321	5.978954	501758.3	-432125.2	1	662188.4	-40.73575	-8.565033E-008	0.0007565	6
	48	327	4.734848	642610.1	-531933.9	1	834207.1	-39.61696	-7.99856E-009	0.0007763	5
	49	332	3.75601	694295.7	-570218.1	1	898440.4	-39.39592	-8.67629E-009	0.0007528	5
	50	338	3.004808	790259.1	-648315.8	1	1022166	-39.3649	-8.166721E-009	0.0007762	5
	51	344	2.372217	848913.8	-689247	1	1093488	-39.07371	-8.343976E-009	0.0005782	5
	52	348	1.878005	954170	-775560.1	1	1229607	-39.1046	-8.440606E-009	0.0006582	5
	53	353	1.512097	997630	-815728.2	1	1288673	-39.27169	-8.313925E-009	0.0006172	5
	54	358	1.201923	1132777	-941890.3	1	1473207	-39.74312	-8.07688E-009	0.0007223	5
	55	366	0.956633	1271016	-1048021	1	1647371	-39.5074	-9.173539E-009	1.178779E-005	5
