EXPLAIN
TAG	EISPOT
TITLE	LABEL	Potentiostatic EIS	Test Identifier
DATE	LABEL	8/24/2020	Date
TIME	LABEL	21:46:54	Time
NOTES	NOTES	1	Notes...
	
PSTAT	PSTAT	REF3000-16137	Potentiostat
VDC	POTEN	0.00000E+000	T	DC Voltage (V)
FREQINIT	QUANT	3.00000E+005	Initial Freq. (Hz)
FREQFINAL	QUANT	1.00000E+000	Final Freq. (Hz)
PTSPERDEC	QUANT	1.00000E+001	Points/decade
VAC	QUANT	5.00000E+001	AC Voltage (mV rms)
AREA	QUANT	1.00000E+000	Sample Area (cm^2)
SPEED	SELECTOR	2	Optimize for:
ZGUESS	QUANT	1.00000E+003	Estimated Z (ohms)
EOC	QUANT	0	Open Circuit (V)
SEQUENCER	TOGGLE	TRUE	Run as Sequence
PSTATMODEL	IQUANT	5	Pstat Model
PSTATSECTION	LABEL	REF3000-16137	Pstat Section
PSTATSERIALNO	LABEL	16137	Pstat Serial Number
CTRLMODE	IQUANT	1	Control Mode
IESTAB	IQUANT	0	I/E Stability
CASPEED	IQUANT	1	Control Amp Speed
CONVENTION	IQUANT	1	Current Convention
ICHRANGE	IQUANT	2	Ich Range
ICHRANGEMODE	TOGGLE	F	Ich Auto Range
ICHOFFSETENABLE	TOGGLE	T	Ich Offset Enable
ICHOFFSET	QUANT	0	Ich Offset (V)
ICHFILTER	IQUANT	3	Ich Filter
VCHRANGE	IQUANT	2	Vch Range
VCHRANGEMODE	TOGGLE	F	Vch Auto Range
VCHOFFSETENABLE	TOGGLE	T	Vch Offset Enable
VCHOFFSET	QUANT	0	Vch Offset (V)
VCHFILTER	IQUANT	3	Vch Filter
ACHRANGE	IQUANT	2	Ach Range
ACHOFFSETENABLE	TOGGLE	F	Ach Offset Enable
ACHOFFSET	QUANT	0	Ach Offset (V)
ACHFILTER	IQUANT	3	Ach Filter
IERANGELOWERLIMIT	IQUANT	2	I/E Range Lower Limit
IERANGEMODE	TOGGLE	F	I/E AutoRange
IERANGE	IQUANT	11	I/E Range
POSFEEDENABLE	TOGGLE	F	Positive Feedback IR Comp
POSFEEDRESISTANCE	QUANT	0	Positive Feedback Resistance (ohm)
ACHSELECT	IQUANT	0	Ach Select
CABLEID	IQUANT	13	Cable ID
DCCALDATE	LABEL	7/31/2020	DC Calibration Date
ACCALDATE	LABEL	7/31/2020	AC Calibration Date
THERMOSELECT	IQUANT	1	Thermo Select
FRAMEWORKVERSION	QUANT	6.33	Framework Version
INSTRUMENTVERSION	LABEL	3.50	Instrument Version
COMPLIANCEVOLTAGE	IQUANT	0	Compliance Voltage
ZCURVE	TABLE
	Pt	Time	Freq	Zreal	Zimag	Zsig	Zmod	Zphz	Idc	Vdc	IERange
	#	s	Hz	ohm	ohm	V	ohm	°	A	V	#
	0	36	300046.9	1813.253	-3343.996	1	3803.971	-61.53162	2.115062E-005	-0.0010657	9
	1	51	238359.4	2266.859	-3660.066	1	4305.199	-58.22803	7.759128E-005	-0.0015376	9
	2	73	189328.1	3155.765	-4099.601	1	5173.546	-52.41187	4.936921E-005	0.0001741	9
	3	81	150421.9	3885.82	-4216.573	1	5734.029	-47.33761	2.067738E-005	-0.0009085	9
	4	88	119484.4	4839.907	-4276.256	1	6458.411	-41.46191	-3.939412E-005	0.0217732	8
	5	96	94921.88	5714.015	-4276.81	1	7137.301	-36.81401	2.549102E-005	-0.0050785	8
	6	103	75421.88	6511.469	-4176.139	1	7735.591	-32.67413	-1.58659E-005	0.0007694	8
	7	112	59859.37	7196.131	-4066.915	1	8265.84	-29.47309	-1.909706E-005	0.0110698	8
	8	121	47578.12	7913.364	-3863.595	1	8806.174	-26.02333	-2.562814E-005	0.007582	8
	9	129	37828.12	8429.056	-3720.621	1	9213.686	-23.81687	2.490844E-005	-0.0002051	9
	10	138	30046.88	8983.39	-3422.86	1	9613.39	-20.85789	8.464519E-006	0.0039008	8
	11	147	23859.38	9764.88	-2668.787	1	10123.01	-15.2859	-2.73493E-006	-0.0061781	7
	12	150	18984.38	10175.32	-2622.254	1	10507.78	-14.4511	4.25901E-006	0.0011433	7
	13	155	15046.87	10391.27	-2538.585	1	10696.86	-13.72845	5.275972E-006	-0.0248228	7
	14	159	11953.13	10694.33	-2524.902	1	10988.35	-13.28411	-2.101368E-006	0.0211988	7
	15	163	9515.62	11004.39	-2574.886	1	11301.63	-13.16954	7.142528E-006	-0.0218018	7
	16	167	7546.875	11365.98	-2633.677	1	11667.12	-13.0461	-6.210119E-006	0.0237137	7
	17	171	5928.309	11685.78	-2685.938	1	11990.49	-12.94442	-5.780187E-007	-0.013539	7
	18	175	4733.456	12064.79	-2911.879	1	12411.21	-13.56904	2.125272E-006	0.0094703	7
	19	180	3796.875	12436.56	-3011.051	1	12795.88	-13.61014	1.986397E-006	0.0093604	7
	20	184	2987.132	12810.06	-3138.508	1	13188.93	-13.76649	-2.070039E-006	0.0212933	7
	21	188	2390.625	13186.12	-3505.969	1	13644.25	-14.8895	-2.128147E-006	0.0212953	7
	22	192	1884.191	13563.33	-3648.425	1	14045.46	-15.05572	5.888142E-006	-0.0078956	7
	23	197	1516.544	14139.09	-3992.859	1	14692.07	-15.7696	-2.088216E-006	0.0213483	7
	24	201	1193.986	14492.36	-4565.384	1	15194.45	-17.48547	3.570061E-006	-0.0230659	7
	25	206	946.5144	15328.12	-5048.004	1	16137.95	-18.22825	-3.927322E-006	0.024114	7
	26	208	751.7689	15819.27	-5224.048	1	16659.53	-18.27494	-1.972415E-006	0.0209709	7
	27	211	597.4265	16420.94	-6001.581	1	17483.32	-20.07652	5.948014E-006	-0.0078757	7
	28	213	477.4305	17226.35	-6794.441	1	18517.87	-21.52534	-9.992063E-008	0.0006937	7
	29	216	376.6741	18181.11	-7598.262	1	19704.98	-22.68106	-9.535102E-008	0.0006703	7
	30	218	298.2954	19260.51	-8461.041	1	21037.03	-23.71563	-8.666493E-008	0.0005968	7
	31	220	237.7717	20459.3	-9346.331	1	22493.04	-24.55214	-8.780769E-008	0.0005777	7
	32	223	189.0121	21842.89	-10295.76	1	24147.76	-25.23708	-9.463637E-008	0.0006727	7
	33	225	150.2404	23405.59	-11270.02	1	25977.59	-25.71128	-9.420345E-008	0.0006731	7
	34	228	119.1737	25136.45	-12261.11	1	27967.41	-26.00229	-8.642605E-008	0.0005802	7
	35	230	95.0169	27021.95	-13177.19	1	30063.67	-25.99606	-9.259959E-008	0.0006102	7
	36	232	75.60484	29038.05	-14072.16	1	32268.16	-25.85534	-9.397843E-008	0.0006739	7
	37	235	54.50582	32070.65	-15277.33	1	35523.57	-25.47149	-9.28496E-008	0.0006674	7
	38	238	45.95588	33703.96	-15913.61	1	37271.98	-25.27473	-9.543543E-008	0.0006742	7
	39	240	37.20238	35759.62	-16716.81	1	39474.07	-25.05502	-1.220041E-008	0.0006507	6
	40	242	30.04808	37790.1	-17586.92	1	41682.03	-24.95652	-1.753927E-008	0.0006899	6
	41	245	23.91582	39884	-18672.06	1	44038.39	-25.08708	-1.880807E-008	0.0006465	6
	42	247	18.60119	42199.27	-20149.59	1	46763.07	-25.52386	-1.655675E-008	0.000659	6
	43	249	15.02404	44127.79	-21736.89	1	49190.99	-26.22438	-1.048736E-008	0.0007058	6
	44	252	12.01923	46073.26	-23727.32	1	51824.04	-27.24807	-1.850254E-008	0.0006435	6
	45	254	9.450605	48193.37	-26601.64	1	55047.69	-28.8977	-1.076782E-008	0.0006393	6
	46	257	7.512019	50332.5	-30145.12	1	58669.31	-30.91821	-1.009179E-008	0.0007234	6
	47	259	5.978954	52650.12	-34554.82	1	62976.75	-33.2773	-1.113133E-008	0.0007112	6
	48	262	4.734848	55400.29	-40229.49	1	68466.08	-35.98567	-1.19322E-008	0.0007057	6
	49	266	3.75601	58794.69	-47242.89	1	75423.51	-38.78268	-1.407658E-008	0.0006383	6
	50	269	3.004808	62877.82	-55415.67	1	83812.39	-41.39047	-1.518958E-008	0.0006568	6
	51	273	2.372217	68671.74	-65607.81	1	94974.7	-43.69288	-1.439995E-008	0.000749	6
	52	277	1.878005	75958.27	-77262.94	1	108347.7	-45.48786	-1.597352E-008	0.0006466	6
	53	282	1.512097	84525.02	-89417.51	1	123044.6	-46.61113	-1.563261E-008	0.0006694	6
	54	287	1.201923	96313.5	-103730.6	1	141549.7	-47.12342	-1.568629E-008	0.0006439	6
	55	293	0.956633	110675.4	-118716.3	1	162304.1	-47.00757	-1.741113E-008	2.406403E-005	6
