EXPLAIN
TAG	EISPOT
TITLE	LABEL	Potentiostatic EIS	Test Identifier
DATE	LABEL	8/24/2020	Date
TIME	LABEL	23:57:11	Time
NOTES	NOTES	1	Notes...
	
PSTAT	PSTAT	REF3000-16137	Potentiostat
VDC	POTEN	0.00000E+000	T	DC Voltage (V)
FREQINIT	QUANT	3.00000E+005	Initial Freq. (Hz)
FREQFINAL	QUANT	1.00000E+000	Final Freq. (Hz)
PTSPERDEC	QUANT	1.00000E+001	Points/decade
VAC	QUANT	5.00000E+001	AC Voltage (mV rms)
AREA	QUANT	1.00000E+000	Sample Area (cm^2)
SPEED	SELECTOR	2	Optimize for:
ZGUESS	QUANT	1.00000E+003	Estimated Z (ohms)
EOC	QUANT	0	Open Circuit (V)
SEQUENCER	TOGGLE	TRUE	Run as Sequence
PSTATMODEL	IQUANT	5	Pstat Model
PSTATSECTION	LABEL	REF3000-16137	Pstat Section
PSTATSERIALNO	LABEL	16137	Pstat Serial Number
CTRLMODE	IQUANT	1	Control Mode
IESTAB	IQUANT	0	I/E Stability
CASPEED	IQUANT	1	Control Amp Speed
CONVENTION	IQUANT	1	Current Convention
ICHRANGE	IQUANT	2	Ich Range
ICHRANGEMODE	TOGGLE	F	Ich Auto Range
ICHOFFSETENABLE	TOGGLE	T	Ich Offset Enable
ICHOFFSET	QUANT	0	Ich Offset (V)
ICHFILTER	IQUANT	3	Ich Filter
VCHRANGE	IQUANT	2	Vch Range
VCHRANGEMODE	TOGGLE	F	Vch Auto Range
VCHOFFSETENABLE	TOGGLE	T	Vch Offset Enable
VCHOFFSET	QUANT	0	Vch Offset (V)
VCHFILTER	IQUANT	3	Vch Filter
ACHRANGE	IQUANT	2	Ach Range
ACHOFFSETENABLE	TOGGLE	F	Ach Offset Enable
ACHOFFSET	QUANT	0	Ach Offset (V)
ACHFILTER	IQUANT	3	Ach Filter
IERANGELOWERLIMIT	IQUANT	2	I/E Range Lower Limit
IERANGEMODE	TOGGLE	F	I/E AutoRange
IERANGE	IQUANT	11	I/E Range
POSFEEDENABLE	TOGGLE	F	Positive Feedback IR Comp
POSFEEDRESISTANCE	QUANT	0	Positive Feedback Resistance (ohm)
ACHSELECT	IQUANT	0	Ach Select
CABLEID	IQUANT	13	Cable ID
DCCALDATE	LABEL	7/31/2020	DC Calibration Date
ACCALDATE	LABEL	7/31/2020	AC Calibration Date
THERMOSELECT	IQUANT	1	Thermo Select
FRAMEWORKVERSION	QUANT	6.33	Framework Version
INSTRUMENTVERSION	LABEL	3.50	Instrument Version
COMPLIANCEVOLTAGE	IQUANT	0	Compliance Voltage
ZCURVE	TABLE
	Pt	Time	Freq	Zreal	Zimag	Zsig	Zmod	Zphz	Idc	Vdc	IERange
	#	s	Hz	ohm	ohm	V	ohm	°	A	V	#
	0	16	300046.9	331.046	-2723.836	1	2743.879	-83.07044	-0.0005668	0.002388	9
	1	31	238359.4	408.6967	-3415.785	1	3440.149	-83.17703	0.0002966	-0.0189938	9
	2	47	189328.1	188.3475	-4000.064	1	4004.496	-87.30415	-0.0002801	-0.0014326	10
	3	55	150421.9	-314.1972	-4764.691	1	4775.039	-93.77278	-0.0002772	-0.0013246	10
	4	64	119484.4	137.2182	-5876.911	1	5878.513	-88.66246	4.090385E-005	0.0150995	9
	5	73	94921.88	323.6543	-8152.513	1	8158.935	-87.72655	-0.000142	-0.0021577	9
	6	83	75421.88	237.095	-9988.75	1	9991.56	-88.64027	0.0002867	-0.0051805	9
	7	92	59859.37	503.948	-12592.92	1	12603	-87.70834	0.0002669	-0.0107655	9
	8	102	47578.12	1907.321	-15417.33	1	15534.86	-82.94761	-0.0002725	0.0108427	9
	9	113	37828.12	695.5195	-18060.39	1	18073.78	-87.79459	-0.0002928	0.0094092	9
	10	123	30046.88	2946.628	-23545.87	1	23729.53	-82.86685	-0.0001522	0.0412243	8
	11	131	23859.38	1039.354	-29992.71	1	30010.72	-88.01529	-0.0001007	-0.0102707	8
	12	139	18984.38	2106.017	-36608.74	1	36669.27	-86.70753	-2.783727E-005	0.0560626	8
	13	145	15046.87	-4922.897	-43281.07	1	43560.14	-96.4891	4.479472E-005	0.0061203	9
	14	153	11953.13	14875.38	-74066.3	1	75545.3	-78.64387	-0.000146	0.0509604	8
	15	159	9515.62	37821.2	-70874.6	1	80334.63	-61.91404	-2.421634E-005	0.0567705	8
	16	168	7546.875	-4863.564	-89428.46	1	89560.62	-93.11296	-6.671022E-006	-0.0440476	8
	17	174	5928.309	-850218.8	-121028.1	1	858789.8	-171.8984	0.0000998	0.0151949	8
	18	184	4733.456	-92189.03	-102549.8	1	137895.9	-131.9545	0.0002275	-0.001353	9
	19	194	3796.875	-14482.55	-114943.8	1	115852.6	-97.1812	-4.857191E-005	-0.005575	9
	20	204	2987.132	-7710.929	-85679.24	1	86025.52	-95.1426	-5.031807E-005	-0.0055328	9
	21	212	2390.625	-69461	-251914.5	1	261315.4	-105.4153	-0.0001298	0.0086196	8
	22	219	1884.191	29516.81	24100.19	1	38105.93	39.2313	4.311226E-005	0.006183	9
	23	230	1516.544	64778.73	-181240.7	1	192469.5	-70.33218	-0.0001506	0.0415147	8
	24	236	1193.986	-35214.22	71299.95	1	79521.84	116.2842	-1.275003E-005	-0.043819	8
	25	244	946.5144	-22655.23	9484.579	1	24560.47	157.2834	0.00014	0.0026651	9
	26	252	751.7689	2427.16	-15224.75	1	15417.01	-80.94202	0.0001261	-0.0591529	8
	27	257	597.4265	45753.02	-9202.63	1	46669.34	-11.37256	0.0003016	-0.0075284	9
	28	263	477.4305	211813	-1370464	1	1386736	-81.21413	3.003789E-007	6.276814E-005	9
	29	269	376.6741	3575365	-3980811	1	5350710	-48.0714	-8.983588E-009	0.0006821	5
	30	273	298.2954	3361564	-4580408	1	5681571	-53.72503	-9.682591E-009	0.0006806	5
	31	277	237.7717	3734125	-4976021	1	6221292	-53.11456	-7.748484E-009	0.0005595	5
	32	281	189.0121	4238004	-6018963	1	7361290	-54.8503	-8.483494E-009	0.0005772	5
	33	284	150.2404	5784868	-9441165	1	1.10725E+007	-58.50303	-8.523786E-009	0.000671	5
	34	288	119.1737	-3567358	8815411	1	9.509864E+006	112.0318	-8.86619E-009	0.0005778	5
	35	292	95.0169	6894754	-1.247228E+007	1	1.425115E+007	-61.0659	-9.763665E-009	0.0007946	5
	36	296	75.60484	3790766	-1.309729E+007	1	1.363485E+007	-73.8579	-8.975369E-009	0.0006357	5
	37	300	54.50582	1.268362E+007	-1.861583E+007	1	2.252605E+007	-55.73202	-8.435354E-009	0.0005675	5
	38	305	45.95588	-949182.1	-7.724054E+007	1	7.724638E+007	-90.70406	-9.599466E-011	0.0005388	4
	39	307	37.20238	5.468727E+007	-1.818585E+007	1	5.763178E+007	-18.39417	-4.840677E-010	0.0005263	4
	40	311	30.04808	5.583462E+007	-2.799854E+007	1	6.246137E+007	-26.6317	-5.89197E-010	0.000791	4
	41	315	23.91582	6.448067E+007	-4.21394E+007	1	7.702912E+007	-33.16542	-3.025905E-010	0.0005728	4
	42	319	18.60119	9411571	-7.461572E+007	1	7.520694E+007	-82.81103	-1.189914E-009	0.0005304	4
	43	323	15.02404	5.276844E+007	-2.197732E+007	1	5.716215E+007	-22.61105	-5.66672E-010	0.0008013	4
	44	326	12.01923	5.85333E+007	-3.711276E+007	1	6.930732E+007	-32.37654	-4.029965E-010	0.0007778	4
	45	330	9.450605	4.806708E+007	-1.150029E+007	1	4.942369E+007	-13.45536	-3.578628E-010	0.000635	4
	46	334	7.512019	5.28694E+007	-2.31616E+007	1	5.77203E+007	-23.65779	-7.060523E-010	0.000788	4
	47	338	5.978954	4.745891E+007	-2.600768E+007	1	5.41179E+007	-28.72292	-5.458209E-010	0.0007763	4
	48	344	4.734848	3.228891E+008	-2.790436E+008	1	4.267583E+008	-40.83386	-3.083925E-011	0.0005818	3
	49	349	3.75601	2.819114E+008	-2.136038E+008	1	3.536956E+008	-37.15116	-3.343918E-011	0.0008727	3
	50	356	3.004808	3.322081E+007	-2.009118E+007	1	3.882368E+007	-31.16458	-5.64825E-010	0.0005542	4
	51	365	2.372217	2.790933E+007	-1.988295E+007	1	3.426752E+007	-35.46654	-5.162277E-010	0.0006504	4
	52	377	1.878005	2.483184E+007	-1.848986E+007	1	3.095958E+007	-36.67148	-5.700728E-010	0.0006505	4
	53	392	1.512097	2.066639E+007	-1.628206E+007	1	2.630979E+007	-38.23288	-5.970662E-010	0.0006016	4
	54	405	1.201923	4972835	-3629389	1	6156424	-36.12358	-8.109168E-009	0.0006418	5
	55	420	0.956633	1.749666E+007	-1.274643E+007	1	2.164727E+007	-36.07357	-6.904706E-010	1.457115E-005	4
