EXPLAIN
TAG	EISPOT
TITLE	LABEL	Potentiostatic EIS	Test Identifier
DATE	LABEL	8/24/2020	Date
TIME	LABEL	22:29:07	Time
NOTES	NOTES	1	Notes...
	
PSTAT	PSTAT	REF3000-16137	Potentiostat
VDC	POTEN	0.00000E+000	T	DC Voltage (V)
FREQINIT	QUANT	3.00000E+005	Initial Freq. (Hz)
FREQFINAL	QUANT	1.00000E+000	Final Freq. (Hz)
PTSPERDEC	QUANT	1.00000E+001	Points/decade
VAC	QUANT	5.00000E+001	AC Voltage (mV rms)
AREA	QUANT	1.00000E+000	Sample Area (cm^2)
SPEED	SELECTOR	2	Optimize for:
ZGUESS	QUANT	1.00000E+003	Estimated Z (ohms)
EOC	QUANT	0	Open Circuit (V)
SEQUENCER	TOGGLE	TRUE	Run as Sequence
PSTATMODEL	IQUANT	5	Pstat Model
PSTATSECTION	LABEL	REF3000-16137	Pstat Section
PSTATSERIALNO	LABEL	16137	Pstat Serial Number
CTRLMODE	IQUANT	1	Control Mode
IESTAB	IQUANT	0	I/E Stability
CASPEED	IQUANT	1	Control Amp Speed
CONVENTION	IQUANT	1	Current Convention
ICHRANGE	IQUANT	2	Ich Range
ICHRANGEMODE	TOGGLE	F	Ich Auto Range
ICHOFFSETENABLE	TOGGLE	T	Ich Offset Enable
ICHOFFSET	QUANT	0	Ich Offset (V)
ICHFILTER	IQUANT	3	Ich Filter
VCHRANGE	IQUANT	2	Vch Range
VCHRANGEMODE	TOGGLE	F	Vch Auto Range
VCHOFFSETENABLE	TOGGLE	T	Vch Offset Enable
VCHOFFSET	QUANT	0	Vch Offset (V)
VCHFILTER	IQUANT	3	Vch Filter
ACHRANGE	IQUANT	2	Ach Range
ACHOFFSETENABLE	TOGGLE	F	Ach Offset Enable
ACHOFFSET	QUANT	0	Ach Offset (V)
ACHFILTER	IQUANT	3	Ach Filter
IERANGELOWERLIMIT	IQUANT	2	I/E Range Lower Limit
IERANGEMODE	TOGGLE	F	I/E AutoRange
IERANGE	IQUANT	11	I/E Range
POSFEEDENABLE	TOGGLE	F	Positive Feedback IR Comp
POSFEEDRESISTANCE	QUANT	0	Positive Feedback Resistance (ohm)
ACHSELECT	IQUANT	0	Ach Select
CABLEID	IQUANT	13	Cable ID
DCCALDATE	LABEL	7/31/2020	DC Calibration Date
ACCALDATE	LABEL	7/31/2020	AC Calibration Date
THERMOSELECT	IQUANT	1	Thermo Select
FRAMEWORKVERSION	QUANT	6.33	Framework Version
INSTRUMENTVERSION	LABEL	3.50	Instrument Version
COMPLIANCEVOLTAGE	IQUANT	0	Compliance Voltage
ZCURVE	TABLE
	Pt	Time	Freq	Zreal	Zimag	Zsig	Zmod	Zphz	Idc	Vdc	IERange
	#	s	Hz	ohm	ohm	V	ohm	°	A	V	#
	0	16	300046.9	175.6353	-2522.747	1	2528.854	-86.01746	0.0002321	-0.00185	10
	1	32	238359.4	250.6559	-3172.612	1	3182.498	-85.48267	-0.0002847	-0.0015234	10
	2	47	189328.1	455.3807	-3774.191	1	3801.564	-83.12015	0.0007318	-0.0141359	9
	3	57	150421.9	554.5944	-5233.124	1	5262.429	-83.95051	4.306499E-005	-0.017177	9
	4	66	119484.4	752.709	-6103.368	1	6149.607	-82.96939	0.000736	-0.0277101	9
	5	76	94921.88	1091.305	-7584.275	1	7662.387	-81.81189	0.0001378	-0.0102771	9
	6	86	75421.88	3160.59	-9240.125	1	9765.72	-71.11672	0.0001304	-0.005352	8
	7	94	59859.37	1203.693	-12217.5	1	12276.65	-84.37326	0.0002831	-0.005103	9
	8	105	47578.12	2071.253	-14981.55	1	15124.05	-82.12856	4.557169E-005	-0.0082699	9
	9	114	37828.12	3043.291	-19663.02	1	19897.13	-81.20201	0.0001264	-0.0545749	8
	10	123	30046.88	7663.907	-22210.43	1	23495.5	-70.96255	1.506881E-005	0.0472765	8
	11	130	23859.38	32706.96	-36549.29	1	49046.88	-48.1755	1.510048E-005	-0.0674623	7
	12	136	18984.38	13965.09	-35331.65	1	37991.44	-68.43324	-0.0001436	0.0420334	8
	13	143	15046.87	22035.8	-31624.34	1	38544.46	-55.13127	4.635022E-005	-0.0539853	8
	14	150	11953.13	18187.82	-53531.36	1	56536.75	-71.23428	4.712996E-005	-0.0540624	8
	15	157	9515.62	24541.67	-51033.57	1	56627.9	-64.31744	-0.0001549	0.0412285	8
	16	163	7546.875	20960.47	-122383.8	1	124165.7	-80.28134	-5.769269E-005	0.0089325	9
	17	173	5928.309	95477.8	-64553.41	1	115252.5	-34.063	4.066402E-005	-0.0542852	8
	18	180	4733.456	23320.07	-62197.35	1	66425.42	-69.44714	1.634807E-005	0.0474951	8
	19	188	3796.875	135012.3	-67680.21	1	151026.3	-26.62411	-0.0001476	0.010629	9
	20	198	2987.132	-58827.93	-506014.5	1	509422.6	-96.6313	-0.0002935	0.0093605	9
	21	207	2390.625	-98654.9	-19933.49	1	100648.6	-168.577	-0.0002136	0.0013682	9
	22	217	1884.191	-22970.96	-73666.97	1	77165.32	-107.3186	0.0002682	-0.0107906	9
	23	227	1516.544	103054.6	-3526.162	1	103114.9	-1.959693	-0.0002645	0.0045442	9
	24	237	1193.986	59925.15	44737.67	1	74782.91	36.74352	-0.0001478	0.0106891	9
	25	247	946.5144	22488.79	69832.91	1	73364.71	72.14951	0.0001421	-0.0102706	9
	26	253	751.7689	-25091.63	-6201.233	1	25846.57	-166.1179	0.0001499	-0.0260134	8
	27	259	597.4265	-16256.73	-21830.95	1	27218.95	-126.6737	-0.0001482	0.0106304	9
	28	266	477.4305	251740.4	-113379.8	1	276094.5	-24.24604	-2.312612E-006	0.0006189	8
	29	272	376.6741	375915.9	-140725	1	401393	-20.52351	-7.831059E-007	0.0004997	7
	30	276	298.2954	424450.8	-119806.7	1	441035.2	-15.7624	-8.837647E-008	0.0006971	6
	31	280	237.7717	445929.7	-141128.1	1	467729	-17.56157	-8.611466E-008	0.0006511	6
	32	284	189.0121	473199.1	-156507.9	1	498409.6	-18.30134	-8.498708E-008	0.0005434	6
	33	288	150.2404	482886.5	-215992.9	1	528991.8	-24.09875	-8.356017E-008	0.000631	6
	34	293	119.1737	446865.2	-168405.4	1	477544.7	-20.64939	-8.384659E-008	0.0007453	6
	35	297	95.0169	531265.8	-211264.8	1	571730.9	-21.68589	-8.742391E-008	0.0007529	6
	36	301	75.60484	547728.7	-244035.6	1	599633.3	-24.01494	-8.55707E-008	0.000692	6
	37	305	54.50582	597284.2	-293388.9	1	665451.3	-26.1605	-8.574881E-008	0.0007732	6
	38	309	45.95588	715709.3	-273925.2	1	766338.5	-20.94347	-7.696976E-009	0.0005563	5
	39	312	37.20238	757309.4	-311723.6	1	818956.1	-22.37304	-8.443781E-009	0.0005252	5
	40	315	30.04808	769963	-373095.5	1	855595.3	-25.85311	-8.503626E-009	0.0007884	5
	41	318	23.91582	869995.1	-484514.3	1	995814	-29.11414	-9.222151E-009	0.0007548	5
	42	320	18.60119	937116.1	-580576.9	1	1102387	-31.7797	-3.574876E-009	0.0006334	5
	43	323	15.02404	979309	-627386	1	1163038	-32.64532	-8.735388E-009	0.0007593	5
	44	325	12.01923	1053822	-730173.3	1	1282066	-34.71737	-8.74109E-009	0.0007835	5
	45	328	9.450605	1199352	-844193.6	1	1466665	-35.14075	-8.635929E-009	0.0005095	5
	46	331	7.512019	1296023	-971388	1	1619651	-36.85208	-8.558841E-009	0.0006313	5
	47	334	5.978954	1439872	-1130961	1	1830930	-38.14819	-9.357656E-009	0.0007669	5
	48	338	4.734848	1591677	-1254930	1	2026891	-38.25339	-8.823686E-009	0.0005291	5
	49	343	3.75601	1778488	-1403543	1	2265602	-38.27972	-8.700896E-009	0.000502	5
	50	348	3.004808	1969297	-1565209	1	2515553	-38.4779	-9.125563E-009	0.0008042	5
	51	355	2.372217	2195699	-1777829	1	2825203	-38.99664	-9.025375E-009	0.0007182	5
	52	359	1.878005	2461371	-1945571	1	3137450	-38.32433	-8.931235E-009	0.0006307	5
	53	365	1.512097	2743864	-2154918	1	3488906	-38.14463	-8.886282E-009	0.000633	5
	54	370	1.201923	3115559	-2393057	1	3928540	-37.52782	-9.069435E-009	0.0006235	5
	55	377	0.956633	3692617	-2707831	1	4579058	-36.25294	-8.615009E-009	4.750811E-005	5
