EXPLAIN
TAG	EISPOT
TITLE	LABEL	Potentiostatic EIS	Test Identifier
DATE	LABEL	8/24/2020	Date
TIME	LABEL	21:23:39	Time
NOTES	NOTES	1	Notes...
	
PSTAT	PSTAT	REF3000-16137	Potentiostat
VDC	POTEN	0.00000E+000	T	DC Voltage (V)
FREQINIT	QUANT	3.00000E+005	Initial Freq. (Hz)
FREQFINAL	QUANT	1.00000E+000	Final Freq. (Hz)
PTSPERDEC	QUANT	1.00000E+001	Points/decade
VAC	QUANT	5.00000E+001	AC Voltage (mV rms)
AREA	QUANT	1.00000E+000	Sample Area (cm^2)
SPEED	SELECTOR	2	Optimize for:
ZGUESS	QUANT	1.00000E+003	Estimated Z (ohms)
EOC	QUANT	0	Open Circuit (V)
SEQUENCER	TOGGLE	TRUE	Run as Sequence
PSTATMODEL	IQUANT	5	Pstat Model
PSTATSECTION	LABEL	REF3000-16137	Pstat Section
PSTATSERIALNO	LABEL	16137	Pstat Serial Number
CTRLMODE	IQUANT	1	Control Mode
IESTAB	IQUANT	0	I/E Stability
CASPEED	IQUANT	1	Control Amp Speed
CONVENTION	IQUANT	1	Current Convention
ICHRANGE	IQUANT	2	Ich Range
ICHRANGEMODE	TOGGLE	F	Ich Auto Range
ICHOFFSETENABLE	TOGGLE	T	Ich Offset Enable
ICHOFFSET	QUANT	0	Ich Offset (V)
ICHFILTER	IQUANT	3	Ich Filter
VCHRANGE	IQUANT	2	Vch Range
VCHRANGEMODE	TOGGLE	F	Vch Auto Range
VCHOFFSETENABLE	TOGGLE	T	Vch Offset Enable
VCHOFFSET	QUANT	0	Vch Offset (V)
VCHFILTER	IQUANT	3	Vch Filter
ACHRANGE	IQUANT	2	Ach Range
ACHOFFSETENABLE	TOGGLE	F	Ach Offset Enable
ACHOFFSET	QUANT	0	Ach Offset (V)
ACHFILTER	IQUANT	3	Ach Filter
IERANGELOWERLIMIT	IQUANT	2	I/E Range Lower Limit
IERANGEMODE	TOGGLE	F	I/E AutoRange
IERANGE	IQUANT	11	I/E Range
POSFEEDENABLE	TOGGLE	F	Positive Feedback IR Comp
POSFEEDRESISTANCE	QUANT	0	Positive Feedback Resistance (ohm)
ACHSELECT	IQUANT	0	Ach Select
CABLEID	IQUANT	13	Cable ID
DCCALDATE	LABEL	7/31/2020	DC Calibration Date
ACCALDATE	LABEL	7/31/2020	AC Calibration Date
THERMOSELECT	IQUANT	1	Thermo Select
FRAMEWORKVERSION	QUANT	6.33	Framework Version
INSTRUMENTVERSION	LABEL	3.50	Instrument Version
COMPLIANCEVOLTAGE	IQUANT	0	Compliance Voltage
ZCURVE	TABLE
	Pt	Time	Freq	Zreal	Zimag	Zsig	Zmod	Zphz	Idc	Vdc	IERange
	#	s	Hz	ohm	ohm	V	ohm	°	A	V	#
	0	17	300046.9	2000.406	-2690.028	1	3352.294	-53.36412	-2.032867E-005	0.0010525	9
	1	31	238359.4	2534.624	-2835.787	1	3803.42	-48.20968	2.00896E-005	-0.0022091	9
	2	46	189328.1	3119.523	-2864.422	1	4235.132	-42.55891	-1.511507E-005	0.0018307	9
	3	53	150421.9	3528.829	-2963.052	1	4607.854	-40.01917	2.582365E-005	-0.001889	9
	4	64	119484.4	4228.35	-2766.215	1	5052.81	-33.19298	1.820894E-005	-0.0091491	8
	5	71	94921.88	4723.155	-2607.354	1	5395.043	-28.9003	-2.350553E-005	0.010689	8
	6	79	75421.88	5130.328	-2505.099	1	5709.272	-26.0259	8.910361E-006	0.0037959	8
	7	86	59859.37	5488.115	-2395.015	1	5987.947	-23.57647	-2.358492E-005	0.0107589	8
	8	94	47578.12	5857.709	-2266.806	1	6281.016	-21.15536	1.734916E-005	4.951042E-006	8
	9	101	37828.12	6136.366	-2136.865	1	6497.783	-19.19963	-2.348707E-005	0.0106336	8
	10	109	30046.88	6412.064	-2006.627	1	6718.714	-17.37728	-9.999088E-006	-0.0017699	8
	11	116	23859.38	6726.575	-1987.513	1	7014.059	-16.46092	1.730178E-005	3.466781E-005	8
	12	122	18984.38	6959.083	-1908.428	1	7216.02	-15.33552	-2.424138E-005	0.0107562	8
	13	127	15046.87	7114.595	-1949.022	1	7376.73	-15.32015	1.677985E-005	0.0001059	8
	14	133	11953.13	7413.804	-1879.991	1	7648.455	-14.22913	-2.353169E-005	0.0106942	8
	15	140	9515.62	7629.311	-1950.709	1	7874.748	-14.34246	-4.589751E-007	0.0007305	9
	16	147	7546.875	7913.902	-1840.914	1	8125.196	-13.09513	-5.17849E-006	0.0239262	7
	17	150	5928.309	8178.143	-1940.582	1	8405.229	-13.34876	6.612844E-006	-0.0148376	7
	18	154	4733.456	8454.636	-2012.899	1	8690.951	-13.39179	6.332103E-006	-0.0236033	7
	19	159	3796.875	8715.565	-2178.847	1	8983.788	-14.03597	-4.497803E-006	0.0018373	7
	20	163	2987.132	8982.855	-2287.11	1	9269.442	-14.28448	5.575772E-006	-0.007022	7
	21	167	2390.625	9276.166	-2534.273	1	9616.12	-15.28047	6.675235E-006	-0.0200747	7
	22	171	1884.191	9599.03	-2613.182	1	9948.37	-15.22881	6.338852E-006	-0.0236132	7
	23	176	1516.544	9908.91	-2851.374	1	10311	-16.05363	-6.472136E-006	0.0154547	7
	24	180	1193.986	10313.64	-3097.025	1	10768.6	-16.71419	5.149292E-006	-0.0239783	7
	25	184	946.5144	10728.21	-3341.16	1	11236.45	-17.29852	6.272754E-006	-0.0233879	7
	26	187	751.7689	11071.43	-3777.825	1	11698.23	-18.84081	1.658145E-006	-0.018867	7
	27	190	597.4265	11702.59	-4271.862	1	12457.91	-20.05388	6.269416E-006	-0.0233709	7
	28	192	477.4305	12186.7	-4502.035	1	12991.69	-20.27533	-9.527722E-008	0.0005871	7
	29	195	376.6741	12837.34	-4962.94	1	13763.29	-21.1366	-1.014224E-007	0.0006623	7
	30	197	298.2954	13562.23	-5449.828	1	14616.25	-21.89217	-1.001333E-007	0.0006688	7
	31	199	237.7717	14355.13	-5941.577	1	15536.16	-22.48462	-9.522986E-008	0.0005759	7
	32	202	189.0121	15251.03	-6446.743	1	16557.61	-22.9142	-1.012343E-007	0.0006409	7
	33	204	150.2404	16229.07	-6942.666	1	17651.72	-23.16085	-9.183287E-008	0.000578	7
	34	207	119.1737	17292.87	-7426.756	1	18820.21	-23.24203	-9.016841E-008	0.0005842	7
	35	209	95.0169	18393.92	-7877.318	1	20009.71	-23.18335	-9.253833E-008	0.0005766	7
	36	211	75.60484	19537.38	-8323.042	1	21236.34	-23.0743	-9.78322E-008	0.0006646	7
	37	214	54.50582	21194.43	-8965.863	1	23012.84	-22.92978	-9.532292E-008	0.0006257	7
	38	216	45.95588	22076.56	-9349.856	1	23974.87	-22.95361	-8.72357E-008	0.000586	7
	39	219	37.20238	23159.68	-9860.61	1	25171.46	-23.06266	-9.155824E-008	0.0006067	7
	40	221	30.04808	24235.29	-10447.42	1	26391.24	-23.32005	-9.559293E-008	0.0006724	7
	41	224	23.91582	25404.21	-11243.39	1	27781.07	-23.8732	-9.028211E-008	0.0006367	7
	42	226	18.60119	26717.84	-12376.11	1	29445.05	-24.8543	-1.051544E-007	0.0006652	7
	43	228	15.02404	27863.13	-13467.76	1	30947.28	-25.797	-8.547679E-008	0.000682	7
	44	231	12.01923	29046.45	-14957.16	1	32671.29	-27.24571	-9.177415E-008	0.0006404	7
	45	233	9.450605	30523.88	-16968.58	1	34923.34	-29.07019	-9.131242E-008	0.000652	7
	46	236	7.512019	32160.91	-19311.03	1	37513.2	-30.98273	-9.066252E-008	0.0006184	7
	47	238	5.978954	34152.2	-22137.49	1	40699.39	-32.95135	-2.025614E-008	0.0006677	6
	48	241	4.734848	36751.6	-25442.91	1	44699.23	-34.69462	-1.452693E-008	0.0006765	6
	49	245	3.75601	39989.46	-29121.82	1	49469.56	-36.0635	-1.775469E-008	0.0006576	6
	50	248	3.004808	43897.14	-32747.7	1	54766.51	-36.7233	-1.155871E-008	0.0005943	6
	51	252	2.372217	49119.3	-36709.14	1	61321.02	-36.77248	-1.654324E-008	0.0005957	6
	52	256	1.878005	55105.28	-39940.02	1	68057.3	-35.9344	-1.492176E-008	0.0006755	6
	53	261	1.512097	61425.88	-42318.03	1	74591.92	-34.56406	-1.344484E-008	0.0005785	6
	54	266	1.201923	68900.48	-44485.47	1	82013.62	-32.84824	-1.791926E-008	0.0006938	6
	55	272	0.956633	76393.61	-44816.66	1	88569.27	-30.39821	-2.558903E-008	2.39754E-005	6
