EXPLAIN
TAG	EISPOT
TITLE	LABEL	Potentiostatic EIS	Test Identifier
DATE	LABEL	8/25/2020	Date
TIME	LABEL	1:08:21	Time
NOTES	NOTES	1	Notes...
	
PSTAT	PSTAT	REF3000-16137	Potentiostat
VDC	POTEN	0.00000E+000	T	DC Voltage (V)
FREQINIT	QUANT	3.00000E+005	Initial Freq. (Hz)
FREQFINAL	QUANT	1.00000E+000	Final Freq. (Hz)
PTSPERDEC	QUANT	1.00000E+001	Points/decade
VAC	QUANT	5.00000E+001	AC Voltage (mV rms)
AREA	QUANT	1.00000E+000	Sample Area (cm^2)
SPEED	SELECTOR	2	Optimize for:
ZGUESS	QUANT	1.00000E+003	Estimated Z (ohms)
EOC	QUANT	0	Open Circuit (V)
SEQUENCER	TOGGLE	TRUE	Run as Sequence
PSTATMODEL	IQUANT	5	Pstat Model
PSTATSECTION	LABEL	REF3000-16137	Pstat Section
PSTATSERIALNO	LABEL	16137	Pstat Serial Number
CTRLMODE	IQUANT	1	Control Mode
IESTAB	IQUANT	0	I/E Stability
CASPEED	IQUANT	1	Control Amp Speed
CONVENTION	IQUANT	1	Current Convention
ICHRANGE	IQUANT	2	Ich Range
ICHRANGEMODE	TOGGLE	F	Ich Auto Range
ICHOFFSETENABLE	TOGGLE	T	Ich Offset Enable
ICHOFFSET	QUANT	0	Ich Offset (V)
ICHFILTER	IQUANT	3	Ich Filter
VCHRANGE	IQUANT	2	Vch Range
VCHRANGEMODE	TOGGLE	F	Vch Auto Range
VCHOFFSETENABLE	TOGGLE	T	Vch Offset Enable
VCHOFFSET	QUANT	0	Vch Offset (V)
VCHFILTER	IQUANT	3	Vch Filter
ACHRANGE	IQUANT	2	Ach Range
ACHOFFSETENABLE	TOGGLE	F	Ach Offset Enable
ACHOFFSET	QUANT	0	Ach Offset (V)
ACHFILTER	IQUANT	3	Ach Filter
IERANGELOWERLIMIT	IQUANT	2	I/E Range Lower Limit
IERANGEMODE	TOGGLE	F	I/E AutoRange
IERANGE	IQUANT	11	I/E Range
POSFEEDENABLE	TOGGLE	F	Positive Feedback IR Comp
POSFEEDRESISTANCE	QUANT	0	Positive Feedback Resistance (ohm)
ACHSELECT	IQUANT	0	Ach Select
CABLEID	IQUANT	13	Cable ID
DCCALDATE	LABEL	7/31/2020	DC Calibration Date
ACCALDATE	LABEL	7/31/2020	AC Calibration Date
THERMOSELECT	IQUANT	1	Thermo Select
FRAMEWORKVERSION	QUANT	6.33	Framework Version
INSTRUMENTVERSION	LABEL	3.50	Instrument Version
COMPLIANCEVOLTAGE	IQUANT	0	Compliance Voltage
ZCURVE	TABLE
	Pt	Time	Freq	Zreal	Zimag	Zsig	Zmod	Zphz	Idc	Vdc	IERange
	#	s	Hz	ohm	ohm	V	ohm	°	A	V	#
	0	15	300046.9	880.3298	-1342.52	1	1605.41	-56.74598	-0.0004558	0.0314974	9
	1	30	238359.4	1089.554	-1426.961	1	1795.368	-52.63651	0.0002394	0.0100716	9
	2	45	189328.1	1319.709	-1610.693	1	2082.297	-50.67078	0.0002179	0.0098394	9
	3	52	150421.9	1603.373	-1654.271	1	2303.783	-45.89513	0.0005844	-0.0060205	9
	4	61	119484.4	2043.244	-1852.059	1	2757.711	-42.19012	0.0005932	-0.0305251	9
	5	69	94921.88	2297.424	-1812.374	1	2926.236	-38.26892	0.0002082	-0.0109091	9
	6	79	75421.88	2645.837	-1865.193	1	3237.19	-35.18206	-9.341342E-005	0.0020577	10
	7	88	59859.37	3496.227	-1196.292	1	3695.229	-18.88923	-0.0001239	0.0490252	8
	8	95	47578.12	3215.126	-1614.678	1	3597.808	-26.6664	-5.324765E-005	-0.0053028	9
	9	105	37828.12	3472.634	-1533.148	1	3796.015	-23.82118	4.076367E-005	-0.0080692	9
	10	114	30046.88	3695.402	-1435.785	1	3964.527	-21.23278	-0.0002649	0.0046026	9
	11	122	23859.38	3864.784	-1484.312	1	4140.017	-21.00982	4.404076E-005	-0.0081293	9
	12	130	18984.38	4190.535	-1002.4	1	4308.757	-13.4527	-0.0001182	0.0544761	8
	13	135	15046.87	4192.681	-1173.03	1	4353.685	-15.63058	4.427624E-005	-0.0081434	9
	14	141	11953.13	4515.409	-1064.911	1	4639.284	-13.27011	9.416478E-005	0.0123961	8
	15	147	9515.62	4498.501	-1228.238	1	4663.163	-15.27141	-0.0002187	0.0016763	9
	16	153	7546.875	4601.928	-1147.287	1	4742.785	-13.9988	-0.0002685	0.010733	9
	17	161	5928.309	4992.443	-1096.032	1	5111.337	-12.38218	-0.0001451	0.0105853	9
	18	168	4733.456	4972.518	-1260.456	1	5129.784	-14.22399	-0.0002654	0.0046533	9
	19	178	3796.875	5089.726	-1244.971	1	5239.777	-13.74493	-0.0002649	0.0046669	9
	20	184	2987.132	5368.569	-1350.797	1	5535.899	-14.12315	0.0001191	-0.0557463	8
	21	191	2390.625	5381.585	-1513.885	1	5590.465	-15.71174	-0.0002677	0.0108079	9
	22	197	1884.191	5688.043	-1467.52	1	5874.305	-14.46688	-0.0002173	0.0016149	9
	23	205	1516.544	5472.01	-1165.206	1	5594.694	-12.02098	0.0003015	-0.0076091	9
	24	212	1193.986	6203.263	-1508.109	1	6383.954	-13.6644	-5.45875E-005	0.0088202	9
	25	221	946.5144	5983.129	-996.907	1	6065.612	-9.459699	-0.0001433	-0.0020885	9
	26	226	751.7689	7685.809	-485.2152	1	7701.109	-3.612364	-5.406674E-005	-0.0266872	8
	27	230	597.4265	5748.937	-2034.648	1	6098.366	-19.48975	-0.000287	0.0072461	9
	28	236	477.4305	6805.384	-2119.136	1	7127.691	-17.29612	1.544889E-007	8.38616E-005	9
	29	239	376.6741	9295.646	-2861.83	1	9726.21	-17.11191	-6.226173E-007	0.0005489	7
	30	242	298.2954	9622.32	-3060.909	1	10097.44	-17.64613	-5.755782E-007	0.0006014	7
	31	244	237.7717	10053.74	-3319.837	1	10587.68	-18.2737	-5.951352E-007	0.0007438	7
	32	247	189.0121	10589.64	-3611.289	1	11188.47	-18.83044	-6.180358E-007	0.0007208	7
	33	249	150.2404	11010.05	-3837.987	1	11659.82	-19.218	-5.732753E-007	0.0004948	7
	34	251	119.1737	11562.81	-4096.348	1	12266.97	-19.50767	-5.95115E-007	0.0007259	7
	35	254	95.0169	12043.79	-4430.636	1	12832.9	-20.19742	-6.176662E-007	0.0006391	7
	36	256	75.60484	12429.72	-4742.284	1	13303.65	-20.88325	-5.83862E-007	0.0006353	7
	37	259	54.50582	13248.81	-5403.87	1	14308.49	-22.18936	-6.008261E-007	0.000694	7
	38	261	45.95588	13551.17	-5829.038	1	14751.67	-23.27497	-5.778165E-007	0.0004936	7
	39	264	37.20238	14046.43	-6471.376	1	15465.48	-24.73615	-5.791964E-007	0.0004891	7
	40	266	30.04808	14693.67	-7199.424	1	16362.63	-26.10337	-5.95307E-007	0.0004873	7
	41	269	23.91582	15323.22	-8256.611	1	17406.12	-28.31711	-5.925772E-007	0.0006345	7
	42	271	18.60119	16411.38	-9678.95	1	19052.96	-30.53085	-5.904055E-007	0.0005929	7
	43	274	15.02404	17272.48	-10926.78	1	20438.52	-32.31794	-5.624572E-007	0.000495	7
	44	276	12.01923	18711.1	-12583.73	1	22548.96	-33.92193	-5.858096E-007	0.000519	7
	45	279	9.450605	20559.5	-14406.56	1	25104.62	-35.01989	-5.897056E-007	0.0007027	7
	46	282	7.512019	22852.98	-16160.79	1	27989.82	-35.26656	-5.999466E-007	0.0007152	7
	47	285	5.978954	25355.38	-17524.61	1	30822.19	-34.65065	-5.97858E-007	0.0007466	7
	48	289	4.734848	28388.36	-18741.7	1	34016.91	-33.43237	-5.938849E-007	0.000778	7
	49	293	3.75601	31543.71	-19280.06	1	36969.27	-31.434	-5.867273E-007	0.0005756	7
	50	298	3.004808	34592.69	-19336.61	1	39630.27	-29.2043	-5.953609E-007	0.0007513	7
	51	305	2.372217	37850.09	-19137.55	1	42413.15	-26.82182	-6.028804E-007	0.0005453	7
	52	309	1.878005	40678.58	-18296.37	1	44603.86	-24.21721	-5.991016E-007	0.0006747	7
	53	313	1.512097	42588.93	-17106.76	1	45896.16	-21.88392	-6.010137E-007	0.0005445	7
	54	324	1.201923	44398.61	-15867.35	1	47148.8	-19.66608	-6.038068E-007	0.0006463	7
	55	337	0.956633	46074.78	-14584.06	1	48327.84	-17.56415	-6.254873E-007	-2.40175E-005	7
