EXPLAIN
TAG	EISPOT
TITLE	LABEL	Potentiostatic EIS	Test Identifier
DATE	LABEL	8/9/2020	Date
TIME	LABEL	21:14:22	Time
NOTES	NOTES	1	Notes...
	
PSTAT	PSTAT	REF3000-16137	Potentiostat
VDC	POTEN	0.00000E+000	T	DC Voltage (V)
FREQINIT	QUANT	3.00000E+005	Initial Freq. (Hz)
FREQFINAL	QUANT	1.00000E+000	Final Freq. (Hz)
PTSPERDEC	QUANT	1.00000E+001	Points/decade
VAC	QUANT	5.00000E+001	AC Voltage (mV rms)
AREA	QUANT	1.00000E+000	Sample Area (cm^2)
SPEED	SELECTOR	2	Optimize for:
ZGUESS	QUANT	1.00000E+003	Estimated Z (ohms)
EOC	QUANT	0	Open Circuit (V)
SEQUENCER	TOGGLE	TRUE	Run as Sequence
PSTATMODEL	IQUANT	5	Pstat Model
PSTATSECTION	LABEL	REF3000-16137	Pstat Section
PSTATSERIALNO	LABEL	16137	Pstat Serial Number
CTRLMODE	IQUANT	1	Control Mode
IESTAB	IQUANT	0	I/E Stability
CASPEED	IQUANT	1	Control Amp Speed
CONVENTION	IQUANT	1	Current Convention
ICHRANGE	IQUANT	2	Ich Range
ICHRANGEMODE	TOGGLE	F	Ich Auto Range
ICHOFFSETENABLE	TOGGLE	T	Ich Offset Enable
ICHOFFSET	QUANT	0	Ich Offset (V)
ICHFILTER	IQUANT	3	Ich Filter
VCHRANGE	IQUANT	2	Vch Range
VCHRANGEMODE	TOGGLE	F	Vch Auto Range
VCHOFFSETENABLE	TOGGLE	T	Vch Offset Enable
VCHOFFSET	QUANT	0	Vch Offset (V)
VCHFILTER	IQUANT	3	Vch Filter
ACHRANGE	IQUANT	2	Ach Range
ACHOFFSETENABLE	TOGGLE	F	Ach Offset Enable
ACHOFFSET	QUANT	0	Ach Offset (V)
ACHFILTER	IQUANT	3	Ach Filter
IERANGELOWERLIMIT	IQUANT	2	I/E Range Lower Limit
IERANGEMODE	TOGGLE	F	I/E AutoRange
IERANGE	IQUANT	11	I/E Range
POSFEEDENABLE	TOGGLE	F	Positive Feedback IR Comp
POSFEEDRESISTANCE	QUANT	0	Positive Feedback Resistance (ohm)
ACHSELECT	IQUANT	0	Ach Select
CABLEID	IQUANT	13	Cable ID
DCCALDATE	LABEL	7/31/2020	DC Calibration Date
ACCALDATE	LABEL	7/31/2020	AC Calibration Date
THERMOSELECT	IQUANT	1	Thermo Select
FRAMEWORKVERSION	QUANT	6.33	Framework Version
INSTRUMENTVERSION	LABEL	3.50	Instrument Version
COMPLIANCEVOLTAGE	IQUANT	0	Compliance Voltage
ZCURVE	TABLE
	Pt	Time	Freq	Zreal	Zimag	Zsig	Zmod	Zphz	Idc	Vdc	IERange
	#	s	Hz	ohm	ohm	V	ohm	°	A	V	#
	0	8	300046.9	17.10551	1.119596	1	17.14211	3.744803	2.256678E-005	0.0002215	10
	1	11	238359.4	17.26408	0.8961744	1	17.28732	2.971544	7.577598E-005	6.897409E-005	10
	2	14	189328.1	17.43463	0.6915953	1	17.44834	2.271613	6.379247E-005	0.0002783	10
	3	16	150421.9	17.58393	0.5389312	1	17.59219	1.755513	2.158991E-005	0.0005858	10
	4	19	119484.4	17.73742	0.3889789	1	17.74168	1.256287	3.764122E-005	0.0006737	10
	5	21	94921.88	17.89312	0.283095	1	17.89536	0.9064263	1.376187E-005	0.0005675	10
	6	24	75421.88	18.05665	0.1729587	1	18.05748	0.5488006	2.291546E-005	0.0006079	10
	7	27	59859.37	18.22143	0.0740549	1	18.22158	0.2328581	2.538322E-005	0.0006088	10
	8	29	47578.12	18.392	-0.0156383	1	18.392	-0.0487173	-3.045014E-005	0.0006534	10
	9	32	37828.12	18.56235	-0.102743	1	18.56264	-0.3171299	-1.700083E-005	0.0006711	10
	10	34	30046.88	18.73531	-0.1926583	1	18.7363	-0.5891615	1.991609E-005	0.0006932	10
	11	37	23859.38	18.90315	-0.2927272	1	18.90542	-0.8871903	5.312595E-006	0.0006111	10
	12	39	18984.38	19.07051	-0.4019035	1	19.07474	-1.207307	-9.244314E-008	0.0007194	10
	13	41	15046.87	19.24233	-0.5341086	1	19.24974	-1.589949	2.331034E-005	0.0006793	10
	14	44	11953.13	19.41451	-0.6854217	1	19.42661	-2.021965	1.748271E-005	0.0007019	10
	15	46	9515.62	19.59758	-0.8670974	1	19.61675	-2.533407	-2.204763E-006	0.0006321	10
	16	48	7546.875	19.78723	-1.090484	1	19.81725	-3.154407	6.853878E-006	0.0006389	10
	17	51	5928.309	19.98697	-1.376858	1	20.03434	-3.940753	1.985673E-005	0.0006182	10
	18	53	4733.456	20.19682	-1.707095	1	20.26884	-4.831326	-2.750738E-005	0.0006936	10
	19	55	3796.875	20.41717	-2.094859	1	20.52436	-5.858206	1.574379E-005	0.0006428	10
	20	58	2987.132	20.66354	-2.622131	1	20.82924	-7.231984	-2.15602E-005	0.0007196	10
	21	60	2390.625	20.9209	-3.219341	1	21.16715	-8.748142	2.30979E-005	0.0006858	10
	22	62	1884.191	21.21239	-4.014623	1	21.58895	-10.71695	2.40041E-005	0.0006591	10
	23	65	1516.544	21.53761	-4.896937	1	22.08729	-12.80939	-1.162348E-005	0.0006539	10
	24	67	1193.986	21.91991	-6.083328	1	22.74839	-15.51067	-1.773235E-005	0.0006638	10
	25	69	946.5144	22.34856	-7.508386	1	23.57613	-18.57067	2.021533E-005	0.000641	10
	26	72	751.7689	22.8382	-9.239374	1	24.63634	-22.02618	2.612681E-005	0.0006533	10
	27	74	597.4265	23.39575	-11.35133	1	26.00411	-25.8821	-4.075708E-006	0.0006318	10
	28	76	477.4305	24.02837	-13.86159	1	27.73998	-29.97998	-2.363519E-006	0.000677	10
	29	79	376.6741	24.78791	-17.11694	1	30.12358	-34.62646	-1.952357E-006	0.0006716	10
	30	81	298.2954	25.6537	-21.06681	1	33.19522	-39.39283	-2.049921E-006	0.0006762	10
	31	83	237.7717	26.64195	-25.78901	1	37.07919	-44.06801	-1.898566E-006	0.0006802	10
	32	86	189.0121	27.76704	-31.62849	1	42.08765	-48.71971	1.409129E-006	7.818888E-005	9
	33	88	150.2404	29.12271	-38.86527	1	48.56585	-53.15488	1.383444E-006	7.61248E-005	9
	34	91	119.1737	30.74002	-47.89467	1	56.91088	-57.30662	1.363911E-006	7.559106E-005	9
	35	93	95.0169	32.63683	-58.79607	1	67.24686	-60.96599	1.422476E-006	7.311633E-005	9
	36	95	75.60484	34.96233	-72.3704	1	80.37312	-64.21469	1.008042E-006	0.0001202	9
	37	98	54.50582	39.14679	-97.4998	1	105.0651	-68.12422	1.439784E-006	6.923383E-005	9
	38	101	45.95588	42.04211	-114.0077	1	121.5125	-69.75776	1.409495E-006	7.882927E-005	9
	39	103	37.20238	46.32476	-138.3283	1	145.879	-71.48482	1.403265E-006	7.61577E-005	9
	40	105	30.04808	51.82645	-168.2284	1	176.0306	-72.8774	1.350114E-006	7.059797E-005	9
	41	108	23.91582	59.38031	-207.2747	1	215.6127	-74.01398	1.274273E-006	6.289991E-005	9
	42	110	18.60119	70.37875	-260.4731	1	269.8136	-74.87997	1.751577E-006	6.658777E-005	9
	43	112	15.02404	82.89108	-316.1057	1	326.7931	-75.30639	1.331297E-006	7.492043E-005	9
	44	115	12.01923	100.178	-386.1654	1	398.9478	-75.45706	1.314084E-006	7.058495E-005	9
	45	117	9.450605	124.318	-476.0416	1	492.0067	-75.36411	2.766959E-007	0.000661	8
	46	120	7.512019	155.3603	-581.1544	1	601.5623	-75.03308	2.670646E-007	0.0006327	8
	47	122	5.978954	195.4858	-706.674	1	733.214	-74.53706	3.232702E-007	0.0006596	8
	48	125	4.734848	248.3256	-860.128	1	895.2574	-73.89616	5.039494E-007	0.0006567	8
	49	129	3.75601	313.6452	-1039.268	1	1085.565	-73.20649	3.660982E-007	0.0006482	8
	50	132	3.004808	390.5209	-1241.664	1	1301.629	-72.54091	4.666834E-007	0.0006291	8
	51	136	2.372217	488.0371	-1492.779	1	1570.532	-71.89578	4.516209E-007	0.0006654	8
	52	140	1.878005	601.9213	-1793.539	1	1891.849	-71.44798	4.022219E-007	0.000648	8
	53	145	1.512097	717.8654	-2122.643	1	2240.746	-71.31477	4.514259E-007	0.00056	8
	54	150	1.201923	862.764	-2541.899	1	2684.327	-71.25191	4.252879E-007	0.0006543	8
	55	156	0.956633	1019.203	-3045.862	1	3211.861	-71.49879	4.359097E-007	8.427411E-006	8
