EXPLAIN
TAG	EISPOT
TITLE	LABEL	Potentiostatic EIS	Test Identifier
DATE	LABEL	8/9/2020	Date
TIME	LABEL	21:19:53	Time
NOTES	NOTES	1	Notes...
	
PSTAT	PSTAT	REF3000-16137	Potentiostat
VDC	POTEN	0.00000E+000	T	DC Voltage (V)
FREQINIT	QUANT	3.00000E+005	Initial Freq. (Hz)
FREQFINAL	QUANT	1.00000E+000	Final Freq. (Hz)
PTSPERDEC	QUANT	1.00000E+001	Points/decade
VAC	QUANT	5.00000E+001	AC Voltage (mV rms)
AREA	QUANT	1.00000E+000	Sample Area (cm^2)
SPEED	SELECTOR	2	Optimize for:
ZGUESS	QUANT	1.00000E+003	Estimated Z (ohms)
EOC	QUANT	0	Open Circuit (V)
SEQUENCER	TOGGLE	TRUE	Run as Sequence
PSTATMODEL	IQUANT	5	Pstat Model
PSTATSECTION	LABEL	REF3000-16137	Pstat Section
PSTATSERIALNO	LABEL	16137	Pstat Serial Number
CTRLMODE	IQUANT	1	Control Mode
IESTAB	IQUANT	0	I/E Stability
CASPEED	IQUANT	1	Control Amp Speed
CONVENTION	IQUANT	1	Current Convention
ICHRANGE	IQUANT	2	Ich Range
ICHRANGEMODE	TOGGLE	F	Ich Auto Range
ICHOFFSETENABLE	TOGGLE	T	Ich Offset Enable
ICHOFFSET	QUANT	0	Ich Offset (V)
ICHFILTER	IQUANT	3	Ich Filter
VCHRANGE	IQUANT	2	Vch Range
VCHRANGEMODE	TOGGLE	F	Vch Auto Range
VCHOFFSETENABLE	TOGGLE	T	Vch Offset Enable
VCHOFFSET	QUANT	0	Vch Offset (V)
VCHFILTER	IQUANT	3	Vch Filter
ACHRANGE	IQUANT	2	Ach Range
ACHOFFSETENABLE	TOGGLE	F	Ach Offset Enable
ACHOFFSET	QUANT	0	Ach Offset (V)
ACHFILTER	IQUANT	3	Ach Filter
IERANGELOWERLIMIT	IQUANT	2	I/E Range Lower Limit
IERANGEMODE	TOGGLE	F	I/E AutoRange
IERANGE	IQUANT	11	I/E Range
POSFEEDENABLE	TOGGLE	F	Positive Feedback IR Comp
POSFEEDRESISTANCE	QUANT	0	Positive Feedback Resistance (ohm)
ACHSELECT	IQUANT	0	Ach Select
CABLEID	IQUANT	13	Cable ID
DCCALDATE	LABEL	7/31/2020	DC Calibration Date
ACCALDATE	LABEL	7/31/2020	AC Calibration Date
THERMOSELECT	IQUANT	1	Thermo Select
FRAMEWORKVERSION	QUANT	6.33	Framework Version
INSTRUMENTVERSION	LABEL	3.50	Instrument Version
COMPLIANCEVOLTAGE	IQUANT	0	Compliance Voltage
ZCURVE	TABLE
	Pt	Time	Freq	Zreal	Zimag	Zsig	Zmod	Zphz	Idc	Vdc	IERange
	#	s	Hz	ohm	ohm	V	ohm	°	A	V	#
	0	6	300046.9	64.66788	1.056992	1	64.67651	0.9364125	4.599041E-005	-0.0009509	9
	1	10	238359.4	65.86517	0.7482094	1	65.86942	0.6508356	4.252646E-005	-0.0008951	9
	2	13	189328.1	66.73387	0.531674	1	66.73599	0.4564703	-6.669739E-005	0.0015979	9
	3	15	150421.9	67.5706	0.430753	1	67.57198	0.3652475	-6.358378E-005	0.0020913	9
	4	18	119484.4	68.52187	0.2049244	1	68.52217	0.1713507	2.750597E-005	0.0002804	9
	5	20	94921.88	69.43983	0.3503661	1	69.44071	0.2890895	-1.766016E-005	0.0006905	9
	6	23	75421.88	70.29437	0.1853781	1	70.29462	0.1510983	-1.778352E-005	0.0006941	9
	7	25	59859.37	71.12634	-0.016172	1	71.12634	-0.0130274	-1.017125E-005	0.0007891	9
	8	28	47578.12	72.04807	-0.1165989	1	72.04816	-0.0927245	2.549285E-006	0.0003565	9
	9	30	37828.12	72.9877	-0.2283643	1	72.98806	-0.1792668	3.262703E-006	0.0004289	9
	10	33	30046.88	73.94476	-0.3389616	1	73.94553	-0.2626411	-1.76729E-005	0.0007352	9
	11	35	23859.38	74.85015	-0.4312067	1	74.85139	-0.3300735	2.502686E-006	0.0003846	9
	12	38	18984.38	75.73935	-0.5685568	1	75.74149	-0.4300974	-1.610619E-005	0.0007494	9
	13	40	15046.87	76.66351	-0.7221661	1	76.66691	-0.5397072	3.317387E-006	0.0004639	9
	14	42	11953.13	77.53602	-0.8702285	1	77.5409	-0.6430344	-1.826969E-005	0.000506	9
	15	45	9515.62	78.50562	-1.132301	1	78.51379	-0.8263305	-9.429155E-006	1.122449E-005	9
	16	47	7546.875	79.44508	-1.366522	1	79.45683	-0.985439	-1.856732E-005	0.0004504	9
	17	49	5928.309	80.43851	-1.76462	1	80.45787	-1.256724	2.150278E-005	-0.0002636	9
	18	52	4733.456	81.44455	-2.174501	1	81.47357	-1.529386	-1.705525E-005	0.0003945	9
	19	54	3796.875	82.44405	-2.623863	1	82.48579	-1.822879	1.806804E-006	-0.0003771	9
	20	56	2987.132	83.55302	-3.333161	1	83.61948	-2.284476	-1.97234E-005	0.0006401	9
	21	59	2390.625	84.61693	-4.020586	1	84.71239	-2.720372	-1.155718E-005	0.0008103	9
	22	61	1884.191	85.83653	-5.053391	1	85.98515	-3.369243	1.846084E-005	-0.0001284	9
	23	63	1516.544	86.94812	-6.153625	1	87.1656	-4.048275	2.354418E-005	-0.0005623	9
	24	66	1193.986	88.31397	-7.662245	1	88.64574	-4.958646	-9.640294E-006	6.033447E-006	9
	25	68	946.5144	89.6703	-9.50072	1	90.1722	-6.048022	5.225044E-006	-0.0004679	9
	26	70	751.7689	91.02103	-11.80394	1	91.78323	-7.389089	-2.920308E-006	-0.0002213	9
	27	73	597.4265	92.63034	-14.48975	1	93.75677	-8.890474	1.142165E-005	0.0001573	9
	28	75	477.4305	94.34769	-17.7589	1	96.0045	-10.65996	1.334249E-006	8.058928E-005	9
	29	77	376.6741	96.2611	-22.00221	1	98.7436	-12.87482	1.383984E-006	6.763794E-005	9
	30	80	298.2954	98.4094	-27.13088	1	102.0808	-15.41321	1.336505E-006	6.4565E-005	9
	31	82	237.7717	100.8585	-33.22157	1	106.189	-18.23126	1.359757E-006	6.5722E-005	9
	32	84	189.0121	103.6393	-40.71704	1	111.3507	-21.44851	1.338914E-006	7.370644E-005	9
	33	87	150.2404	106.8122	-49.83701	1	117.8667	-25.01307	1.395612E-006	6.966011E-005	9
	34	89	119.1737	110.429	-61.03843	1	126.1755	-28.93115	1.322022E-006	7.813995E-005	9
	35	92	95.0169	114.4943	-74.36763	1	136.5265	-33.00499	1.330908E-006	7.341253E-005	9
	36	94	75.60484	119.1867	-90.74862	1	149.8025	-37.28561	1.3495E-006	6.748618E-005	9
	37	97	54.50582	126.3738	-120.6218	1	174.6996	-43.66594	1.258159E-006	6.918507E-005	9
	38	99	45.95588	131.3754	-140.1537	1	192.1004	-46.85168	1.265445E-006	7.269678E-005	9
	39	101	37.20238	137.7938	-168.7976	1	217.8985	-50.77436	1.243123E-006	7.337453E-005	9
	40	104	30.04808	145.2761	-203.9998	1	250.4418	-54.54387	1.292043E-006	7.282465E-005	9
	41	106	23.91582	154.4279	-250.0607	1	293.9019	-58.30212	1.388238E-006	5.949402E-005	9
	42	109	18.60119	166.0629	-313.2665	1	354.56	-62.07189	1.439529E-006	7.514207E-005	9
	43	111	15.02404	177.5242	-378.3651	1	417.9413	-64.86462	2.772136E-007	0.000662	8
	44	113	12.01923	192.7361	-463.2968	1	501.788	-67.4122	1.130077E-007	0.0006483	8
	45	116	9.450605	213.0253	-576.6472	1	614.7372	-69.72474	2.475967E-007	0.000655	8
	46	118	7.512019	237.3758	-711.5071	1	750.0598	-71.55006	2.166062E-007	0.0006497	8
	47	121	5.978954	268.3806	-876.2784	1	916.4562	-72.97158	2.392903E-007	0.0006538	8
	48	124	4.734848	309.7493	-1085.703	1	1129.025	-74.07664	1.94659E-007	0.0006528	8
	49	127	3.75601	362.5562	-1341.592	1	1389.718	-74.87743	2.355275E-007	0.0006524	8
	50	131	3.004808	428.9056	-1642.946	1	1698.008	-75.36897	1.624026E-007	0.0006847	8
	51	134	2.372217	520.8698	-2033.869	1	2099.507	-75.6354	1.478121E-007	0.0007495	8
	52	139	1.878005	646.2566	-2510.629	1	2592.471	-75.56496	1.863143E-007	0.0006239	8
	53	143	1.512097	796.4668	-3043.643	1	3146.128	-75.33555	1.799011E-007	0.000741	8
	54	149	1.201923	996.96	-3732.913	1	3863.75	-75.04685	1.856252E-007	0.0006184	8
	55	155	0.956633	1255.376	-4566.673	1	4736.082	-74.6291	-2.407663E-008	-1.382376E-005	7
