EXPLAIN
TAG	EISPOT
TITLE	LABEL	Potentiostatic EIS	Test Identifier
DATE	LABEL	8/9/2020	Date
TIME	LABEL	21:17:08	Time
NOTES	NOTES	1	Notes...
	
PSTAT	PSTAT	REF3000-16137	Potentiostat
VDC	POTEN	0.00000E+000	T	DC Voltage (V)
FREQINIT	QUANT	3.00000E+005	Initial Freq. (Hz)
FREQFINAL	QUANT	1.00000E+000	Final Freq. (Hz)
PTSPERDEC	QUANT	1.00000E+001	Points/decade
VAC	QUANT	5.00000E+001	AC Voltage (mV rms)
AREA	QUANT	1.00000E+000	Sample Area (cm^2)
SPEED	SELECTOR	2	Optimize for:
ZGUESS	QUANT	1.00000E+003	Estimated Z (ohms)
EOC	QUANT	0	Open Circuit (V)
SEQUENCER	TOGGLE	TRUE	Run as Sequence
PSTATMODEL	IQUANT	5	Pstat Model
PSTATSECTION	LABEL	REF3000-16137	Pstat Section
PSTATSERIALNO	LABEL	16137	Pstat Serial Number
CTRLMODE	IQUANT	1	Control Mode
IESTAB	IQUANT	0	I/E Stability
CASPEED	IQUANT	1	Control Amp Speed
CONVENTION	IQUANT	1	Current Convention
ICHRANGE	IQUANT	2	Ich Range
ICHRANGEMODE	TOGGLE	F	Ich Auto Range
ICHOFFSETENABLE	TOGGLE	T	Ich Offset Enable
ICHOFFSET	QUANT	0	Ich Offset (V)
ICHFILTER	IQUANT	3	Ich Filter
VCHRANGE	IQUANT	2	Vch Range
VCHRANGEMODE	TOGGLE	F	Vch Auto Range
VCHOFFSETENABLE	TOGGLE	T	Vch Offset Enable
VCHOFFSET	QUANT	0	Vch Offset (V)
VCHFILTER	IQUANT	3	Vch Filter
ACHRANGE	IQUANT	2	Ach Range
ACHOFFSETENABLE	TOGGLE	F	Ach Offset Enable
ACHOFFSET	QUANT	0	Ach Offset (V)
ACHFILTER	IQUANT	3	Ach Filter
IERANGELOWERLIMIT	IQUANT	2	I/E Range Lower Limit
IERANGEMODE	TOGGLE	F	I/E AutoRange
IERANGE	IQUANT	11	I/E Range
POSFEEDENABLE	TOGGLE	F	Positive Feedback IR Comp
POSFEEDRESISTANCE	QUANT	0	Positive Feedback Resistance (ohm)
ACHSELECT	IQUANT	0	Ach Select
CABLEID	IQUANT	13	Cable ID
DCCALDATE	LABEL	7/31/2020	DC Calibration Date
ACCALDATE	LABEL	7/31/2020	AC Calibration Date
THERMOSELECT	IQUANT	1	Thermo Select
FRAMEWORKVERSION	QUANT	6.33	Framework Version
INSTRUMENTVERSION	LABEL	3.50	Instrument Version
COMPLIANCEVOLTAGE	IQUANT	0	Compliance Voltage
ZCURVE	TABLE
	Pt	Time	Freq	Zreal	Zimag	Zsig	Zmod	Zphz	Idc	Vdc	IERange
	#	s	Hz	ohm	ohm	V	ohm	°	A	V	#
	0	6	300046.9	31.49031	0.3397757	1	31.49214	0.6181887	1.682332E-005	1.348229E-005	11
	1	11	238359.4	31.9024	0.6265963	1	31.90855	1.125204	-8.337306E-005	0.000634	10
	2	14	189328.1	32.31765	0.4624678	1	32.32096	0.8198506	7.430378E-005	0.0004701	10
	3	16	150421.9	32.65649	0.3515479	1	32.65838	0.6167666	-6.788332E-006	0.0004163	10
	4	19	119484.4	33.01819	0.2334358	1	33.01902	0.4050695	1.742279E-006	0.0007575	10
	5	21	94921.88	33.36461	0.151663	1	33.36496	0.2604433	-2.809438E-005	0.0006448	10
	6	24	75421.88	33.72567	0.0589765	1	33.72573	0.1001938	2.702839E-005	0.0006286	10
	7	27	59859.37	34.09095	-0.0262506	1	34.09097	-0.0441186	-2.54146E-005	0.0006478	10
	8	29	47578.12	34.46281	-0.109295	1	34.46299	-0.1817067	-1.695755E-005	0.0006677	10
	9	32	37828.12	34.83588	-0.1869123	1	34.83638	-0.3074182	-2.764004E-005	0.0007001	10
	10	34	30046.88	35.21391	-0.2716309	1	35.21496	-0.4419559	6.734818E-006	0.0006352	10
	11	37	23859.38	35.53059	-0.3042459	1	35.53189	-0.4906076	-1.062933E-005	0.000518	9
	12	39	18984.38	35.89477	-0.438004	1	35.89744	-0.699114	1.74301E-005	-0.0004199	9
	13	41	15046.87	36.25581	-0.5787891	1	36.26043	-0.9145942	-5.765561E-007	0.0003135	9
	14	44	11953.13	36.63439	-0.7506673	1	36.64208	-1.173871	-2.485227E-006	0.0004642	9
	15	46	9515.62	37.02134	-0.95678	1	37.0337	-1.480424	-1.387688E-005	0.0003588	9
	16	48	7546.875	37.40714	-1.218954	1	37.427	-1.866388	-1.799514E-005	0.0005397	9
	17	51	5928.309	37.82516	-1.518435	1	37.85563	-2.29882	2.952141E-006	-0.0002497	9
	18	53	4733.456	38.24264	-1.885322	1	38.28909	-2.822336	-2.868553E-006	0.000452	9
	19	55	3796.875	38.6911	-2.333978	1	38.76143	-3.452092	-1.43777E-005	0.0005905	9
	20	58	2987.132	39.1446	-2.909498	1	39.25257	-4.250804	1.676352E-005	-0.0004532	9
	21	60	2390.625	39.62529	-3.576159	1	39.78633	-5.15694	2.720754E-006	0.000259	9
	22	62	1884.191	40.17475	-4.463118	1	40.4219	-6.339145	9.038527E-006	-0.000407	9
	23	65	1516.544	40.70266	-5.437402	1	41.06424	-7.609	-3.043695E-006	-0.0000971	9
	24	67	1193.986	41.33879	-6.777561	1	41.89071	-9.310897	1.571308E-005	-0.0001309	9
	25	69	946.5144	42.02198	-8.366734	1	42.84681	-11.26055	1.864525E-005	-0.0003659	9
	26	72	751.7689	42.78996	-10.33146	1	44.01954	-13.57404	1.880055E-005	-0.0004316	9
	27	74	597.4265	43.64328	-12.70866	1	45.45597	-16.23524	-1.491764E-005	0.0004252	9
	28	76	477.4305	44.59368	-15.53778	1	47.22308	-19.20988	1.44917E-006	7.333219E-005	9
	29	79	376.6741	45.729	-19.193	1	49.59347	-22.76836	1.471826E-006	7.558921E-005	9
	30	81	298.2954	47.00834	-23.60239	1	52.60092	-26.66074	1.449348E-006	7.381847E-005	9
	31	83	237.7717	48.47128	-28.83826	1	56.40133	-30.75077	1.387093E-006	7.139782E-005	9
	32	86	189.0121	50.15382	-35.304	1	61.33334	-35.14227	1.411855E-006	7.562026E-005	9
	33	88	150.2404	52.07972	-43.22102	1	67.67831	-39.68932	1.402127E-006	7.100175E-005	9
	34	91	119.1737	54.30251	-53.03513	1	75.90446	-44.32352	1.406194E-006	7.277902E-005	9
	35	93	95.0169	56.8127	-64.83449	1	86.20437	-48.7728	1.401045E-006	7.286529E-005	9
	36	95	75.60484	59.75625	-79.4853	1	99.4421	-53.06452	1.402228E-006	7.096226E-005	9
	37	98	54.50582	64.62209	-106.5361	1	124.6032	-58.76007	1.338425E-006	6.81791E-005	9
	38	100	45.95588	67.9538	-124.3168	1	141.677	-61.33818	1.062883E-006	0.0001261	9
	39	103	37.20238	72.57358	-150.5433	1	167.1233	-64.26232	1.440665E-006	7.209524E-005	9
	40	105	30.04808	78.21442	-182.8393	1	198.866	-66.83988	1.485257E-006	7.003129E-005	9
	41	108	23.91582	85.55255	-225.1487	1	240.8551	-69.19409	1.351766E-006	7.054062E-005	9
	42	110	18.60119	95.7382	-283.2978	1	299.0375	-71.32774	1.695017E-006	7.182169E-005	9
	43	112	15.02404	106.9859	-344.4846	1	360.7154	-72.74687	1.613669E-006	8.097548E-005	9
	44	115	12.01923	121.4234	-420.7454	1	437.9159	-73.90233	1.852666E-007	0.0006465	8
	45	117	9.450605	142.3828	-523.8264	1	542.8323	-74.79366	2.92583E-007	0.0006597	8
	46	120	7.512019	169.2259	-645.3693	1	667.1874	-75.30695	2.549299E-007	0.0006569	8
	47	122	5.978954	204.0885	-792.4216	1	818.2811	-75.55733	2.952009E-007	0.0006509	8
	48	125	4.734848	252.388	-976.104	1	1008.205	-75.50272	3.181856E-007	0.0006371	8
	49	128	3.75601	314.7288	-1197.319	1	1237.993	-75.27234	3.395524E-007	0.0006538	8
	50	132	3.004808	392.7899	-1451.648	1	1503.85	-74.85934	4.113073E-007	0.000625	8
	51	136	2.372217	501.8202	-1775.887	1	1845.427	-74.22107	3.511035E-007	0.0005733	8
	52	140	1.878005	634.907	-2158.084	1	2249.541	-73.60615	3.768504E-007	0.0006581	8
	53	145	1.512097	789.4212	-2572.913	1	2691.295	-72.94294	3.477422E-007	0.0005882	8
	54	150	1.201923	986.272	-3106.479	1	3259.285	-72.38594	3.577782E-007	0.0006782	8
	55	156	0.956633	1217.984	-3730.439	1	3924.24	-71.91821	3.191253E-007	1.069467E-005	8
