EXPLAIN
TAG	EISPOT
TITLE	LABEL	Potentiostatic EIS	Test Identifier
DATE	LABEL	8/9/2020	Date
TIME	LABEL	21:11:36	Time
NOTES	NOTES	1	Notes...
	
PSTAT	PSTAT	REF3000-16137	Potentiostat
VDC	POTEN	0.00000E+000	T	DC Voltage (V)
FREQINIT	QUANT	3.00000E+005	Initial Freq. (Hz)
FREQFINAL	QUANT	1.00000E+000	Final Freq. (Hz)
PTSPERDEC	QUANT	1.00000E+001	Points/decade
VAC	QUANT	5.00000E+001	AC Voltage (mV rms)
AREA	QUANT	1.00000E+000	Sample Area (cm^2)
SPEED	SELECTOR	2	Optimize for:
ZGUESS	QUANT	1.00000E+003	Estimated Z (ohms)
EOC	QUANT	0	Open Circuit (V)
SEQUENCER	TOGGLE	TRUE	Run as Sequence
PSTATMODEL	IQUANT	5	Pstat Model
PSTATSECTION	LABEL	REF3000-16137	Pstat Section
PSTATSERIALNO	LABEL	16137	Pstat Serial Number
CTRLMODE	IQUANT	1	Control Mode
IESTAB	IQUANT	0	I/E Stability
CASPEED	IQUANT	1	Control Amp Speed
CONVENTION	IQUANT	1	Current Convention
ICHRANGE	IQUANT	2	Ich Range
ICHRANGEMODE	TOGGLE	F	Ich Auto Range
ICHOFFSETENABLE	TOGGLE	T	Ich Offset Enable
ICHOFFSET	QUANT	0	Ich Offset (V)
ICHFILTER	IQUANT	3	Ich Filter
VCHRANGE	IQUANT	2	Vch Range
VCHRANGEMODE	TOGGLE	F	Vch Auto Range
VCHOFFSETENABLE	TOGGLE	T	Vch Offset Enable
VCHOFFSET	QUANT	0	Vch Offset (V)
VCHFILTER	IQUANT	3	Vch Filter
ACHRANGE	IQUANT	2	Ach Range
ACHOFFSETENABLE	TOGGLE	F	Ach Offset Enable
ACHOFFSET	QUANT	0	Ach Offset (V)
ACHFILTER	IQUANT	3	Ach Filter
IERANGELOWERLIMIT	IQUANT	2	I/E Range Lower Limit
IERANGEMODE	TOGGLE	F	I/E AutoRange
IERANGE	IQUANT	11	I/E Range
POSFEEDENABLE	TOGGLE	F	Positive Feedback IR Comp
POSFEEDRESISTANCE	QUANT	0	Positive Feedback Resistance (ohm)
ACHSELECT	IQUANT	0	Ach Select
CABLEID	IQUANT	13	Cable ID
DCCALDATE	LABEL	7/31/2020	DC Calibration Date
ACCALDATE	LABEL	7/31/2020	AC Calibration Date
THERMOSELECT	IQUANT	1	Thermo Select
FRAMEWORKVERSION	QUANT	6.33	Framework Version
INSTRUMENTVERSION	LABEL	3.50	Instrument Version
COMPLIANCEVOLTAGE	IQUANT	0	Compliance Voltage
ZCURVE	TABLE
	Pt	Time	Freq	Zreal	Zimag	Zsig	Zmod	Zphz	Idc	Vdc	IERange
	#	s	Hz	ohm	ohm	V	ohm	°	A	V	#
	0	8	300046.9	10.23719	1.247841	1	10.31296	6.949663	2.573701E-005	0.0001072	10
	1	11	238359.4	10.3001	0.983037	1	10.34691	5.451767	6.999169E-005	0.0001165	10
	2	14	189328.1	10.37895	0.7688309	1	10.40739	4.236503	-1.072409E-005	0.0004775	10
	3	17	150421.9	10.45606	0.5829133	1	10.47229	3.190871	1.959934E-005	0.0004579	10
	4	19	119484.4	10.52609	0.4424727	1	10.53538	2.407058	1.124533E-005	0.0007155	10
	5	22	94921.88	10.60471	0.3413875	1	10.6102	1.843833	-2.424436E-005	0.0006528	10
	6	24	75421.88	10.68034	0.2215076	1	10.68264	1.18813	5.394663E-006	0.0005763	10
	7	27	59859.37	10.76256	0.1162086	1	10.76319	0.6186261	-2.876433E-005	0.0006367	10
	8	29	47578.12	10.84788	0.0230571	1	10.84791	0.1217814	-2.954475E-005	0.0006441	10
	9	32	37828.12	10.93444	-0.0645134	1	10.93463	-0.3380423	-1.514517E-005	0.0006678	10
	10	34	30046.88	11.02246	-0.154137	1	11.02354	-0.8011664	4.477046E-006	0.0006141	10
	11	37	23859.38	11.11026	-0.2489838	1	11.11305	-1.283798	-1.082913E-005	0.0007156	10
	12	39	18984.38	11.19685	-0.3542776	1	11.20245	-1.812282	-2.663801E-005	0.0006585	10
	13	42	15046.87	11.28637	-0.4751012	1	11.29637	-2.41045	-2.963307E-005	0.0006588	10
	14	44	11953.13	11.3788	-0.6173656	1	11.39553	-3.105583	-4.299211E-006	0.0006323	10
	15	46	9515.62	11.47902	-0.7863367	1	11.50592	-3.918759	1.215103E-005	0.0006226	10
	16	48	7546.875	11.58456	-0.992638	1	11.62701	-4.897501	2.220098E-005	0.0006802	10
	17	51	5928.309	11.69921	-1.255054	1	11.76633	-6.123095	-2.238836E-005	0.0007027	10
	18	53	4733.456	11.82117	-1.555874	1	11.92313	-7.49803	6.348392E-006	0.0006735	10
	19	55	3796.875	11.95549	-1.914784	1	12.10785	-9.099181	-2.762604E-006	0.0007174	10
	20	58	2987.132	12.10801	-2.393864	1	12.34238	-11.18367	-1.884489E-005	0.000674	10
	21	60	2390.625	12.27593	-2.941818	1	12.6235	-13.47629	2.595694E-005	0.0006589	10
	22	62	1884.191	12.47387	-3.657784	1	12.9991	-16.34302	-2.611147E-005	0.0006849	10
	23	65	1516.544	12.68882	-4.457807	1	13.44909	-19.35728	-2.66294E-005	0.0007104	10
	24	67	1193.986	12.95586	-5.535287	1	14.08878	-23.1342	-2.575958E-005	0.0006853	10
	25	69	946.5144	13.25696	-6.82882	1	14.91241	-27.25353	4.508719E-006	0.0006231	10
	26	72	751.7689	13.6022	-8.397422	1	15.98551	-31.68942	2.177693E-005	0.0006666	10
	27	74	597.4265	14.01257	-10.3207	1	17.40313	-36.37281	2.28174E-005	0.0006309	10
	28	76	477.4305	14.46673	-12.62148	1	19.19865	-41.10303	-2.238761E-006	0.000673	10
	29	79	376.6741	15.03243	-15.61988	1	21.67843	-46.09794	-1.675467E-006	0.0006699	10
	30	81	298.2954	15.69018	-19.27815	1	24.85616	-50.85841	-1.338701E-006	0.0006705	10
	31	83	237.7717	16.46284	-23.67075	1	28.83278	-55.18167	-1.659235E-006	0.0006796	10
	32	86	189.0121	17.39679	-29.15106	1	33.9475	-59.17206	-2.088233E-006	0.0006756	10
	33	88	150.2404	18.5315	-35.92096	1	40.41945	-62.71095	-1.289776E-006	0.0006796	10
	34	91	119.1737	19.91727	-44.32318	1	48.59262	-65.80254	1.422015E-006	8.813013E-005	9
	35	93	95.0169	21.63769	-54.51994	1	58.65674	-68.35303	1.427382E-006	8.145904E-005	9
	36	95	75.60484	23.8317	-67.21207	1	71.31208	-70.47678	1.449104E-006	8.14468E-005	9
	37	98	54.50582	28.06369	-90.65506	1	94.89948	-72.79927	1.39985E-006	7.433187E-005	9
	38	101	45.95588	31.05554	-105.9973	1	110.453	-73.67024	1.291458E-006	8.78057E-005	9
	39	103	37.20238	35.68288	-128.5112	1	133.3731	-74.48196	1.304837E-006	8.114766E-005	9
	40	105	30.04808	41.7456	-155.9491	1	161.4398	-75.01399	1.532323E-006	7.24919E-005	9
	41	108	23.91582	50.29721	-191.4387	1	197.9358	-75.27922	1.550812E-006	8.075898E-005	9
	42	110	18.60119	62.98431	-239.33	1	247.479	-75.25583	1.793371E-006	7.772037E-005	9
	43	112	15.02404	77.38423	-288.537	1	298.7339	-74.98685	1.251304E-006	6.820225E-005	9
	44	115	12.01923	96.8695	-349.2354	1	362.4211	-74.49726	1.738503E-006	7.36578E-005	9
	45	117	9.450605	123.3061	-425.2814	1	442.7964	-73.83101	3.119358E-007	0.0006527	8
	46	120	7.512019	155.3459	-512.8502	1	535.8616	-73.14808	3.925554E-007	0.0006418	8
	47	122	5.978954	194.8397	-615.0584	1	645.1816	-72.42271	4.281834E-007	0.0006561	8
	48	125	4.734848	243.1239	-737.6148	1	776.6497	-71.75735	4.722135E-007	0.0006371	8
	49	129	3.75601	298.4823	-881.6379	1	930.7938	-71.29625	5.105911E-007	0.0006698	8
	50	132	3.004808	358.6393	-1045.212	1	1105.03	-71.06158	5.325593E-007	0.0006262	8
	51	136	2.372217	430.5346	-1254.42	1	1326.246	-71.05705	4.908374E-007	0.0005771	8
	52	140	1.878005	507.9325	-1504.895	1	1588.302	-71.34942	5.218225E-007	0.0006546	8
	53	145	1.512097	589.0049	-1785.299	1	1879.952	-71.74126	4.661448E-007	0.0005922	8
	54	150	1.201923	683.5432	-2159.521	1	2265.118	-72.4361	5.05826E-007	0.000677	8
	55	156	0.956633	792.1906	-2615.033	1	2732.392	-73.14649	4.864077E-007	3.172018E-006	8
