EXPLAIN
TAG	EISPOT
TITLE	LABEL	Potentiostatic EIS	Test Identifier
DATE	LABEL	8/9/2020	Date
TIME	LABEL	21:32:59	Time
NOTES	NOTES	1	Notes...
	
PSTAT	PSTAT	REF3000-16137	Potentiostat
VDC	POTEN	0.00000E+000	T	DC Voltage (V)
FREQINIT	QUANT	3.00000E+005	Initial Freq. (Hz)
FREQFINAL	QUANT	1.00000E+000	Final Freq. (Hz)
PTSPERDEC	QUANT	1.00000E+001	Points/decade
VAC	QUANT	5.00000E+001	AC Voltage (mV rms)
AREA	QUANT	1.00000E+000	Sample Area (cm^2)
SPEED	SELECTOR	2	Optimize for:
ZGUESS	QUANT	1.00000E+003	Estimated Z (ohms)
EOC	QUANT	0	Open Circuit (V)
SEQUENCER	TOGGLE	TRUE	Run as Sequence
PSTATMODEL	IQUANT	5	Pstat Model
PSTATSECTION	LABEL	REF3000-16137	Pstat Section
PSTATSERIALNO	LABEL	16137	Pstat Serial Number
CTRLMODE	IQUANT	1	Control Mode
IESTAB	IQUANT	0	I/E Stability
CASPEED	IQUANT	1	Control Amp Speed
CONVENTION	IQUANT	1	Current Convention
ICHRANGE	IQUANT	2	Ich Range
ICHRANGEMODE	TOGGLE	F	Ich Auto Range
ICHOFFSETENABLE	TOGGLE	T	Ich Offset Enable
ICHOFFSET	QUANT	0	Ich Offset (V)
ICHFILTER	IQUANT	3	Ich Filter
VCHRANGE	IQUANT	2	Vch Range
VCHRANGEMODE	TOGGLE	F	Vch Auto Range
VCHOFFSETENABLE	TOGGLE	T	Vch Offset Enable
VCHOFFSET	QUANT	0	Vch Offset (V)
VCHFILTER	IQUANT	3	Vch Filter
ACHRANGE	IQUANT	2	Ach Range
ACHOFFSETENABLE	TOGGLE	F	Ach Offset Enable
ACHOFFSET	QUANT	0	Ach Offset (V)
ACHFILTER	IQUANT	3	Ach Filter
IERANGELOWERLIMIT	IQUANT	2	I/E Range Lower Limit
IERANGEMODE	TOGGLE	F	I/E AutoRange
IERANGE	IQUANT	11	I/E Range
POSFEEDENABLE	TOGGLE	F	Positive Feedback IR Comp
POSFEEDRESISTANCE	QUANT	0	Positive Feedback Resistance (ohm)
ACHSELECT	IQUANT	0	Ach Select
CABLEID	IQUANT	13	Cable ID
DCCALDATE	LABEL	7/31/2020	DC Calibration Date
ACCALDATE	LABEL	7/31/2020	AC Calibration Date
THERMOSELECT	IQUANT	1	Thermo Select
FRAMEWORKVERSION	QUANT	6.33	Framework Version
INSTRUMENTVERSION	LABEL	3.50	Instrument Version
COMPLIANCEVOLTAGE	IQUANT	0	Compliance Voltage
ZCURVE	TABLE
	Pt	Time	Freq	Zreal	Zimag	Zsig	Zmod	Zphz	Idc	Vdc	IERange
	#	s	Hz	ohm	ohm	V	ohm	°	A	V	#
	0	15	300046.9	509.2536	-4317.632	1	4347.561	-83.27319	5.501043E-005	-9.040219E-005	9
	1	29	238359.4	782.6815	-5249.095	1	5307.126	-81.51923	1.863037E-005	-0.0005058	9
	2	42	189328.1	1090.6	-6483.969	1	6575.049	-80.45225	1.936572E-005	-0.0021363	9
	3	50	150421.9	1642.578	-8072.66	1	8238.076	-78.49879	-1.64046E-005	0.001969	9
	4	57	119484.4	2236.058	-10087.25	1	10332.12	-77.50126	5.106417E-005	-0.0024745	8
	5	65	94921.88	2584.766	-12409.96	1	12676.28	-78.23456	2.713045E-005	-0.0055069	8
	6	73	75421.88	3364.004	-15499.49	1	15860.35	-77.75447	2.684851E-005	-0.0054519	8
	7	82	59859.37	4385.435	-19444.8	1	19933.19	-77.29058	2.794115E-005	-0.0076537	8
	8	91	47578.12	8896.269	-24546.34	1	26108.74	-70.07809	7.689697E-006	-0.0247041	7
	9	98	37828.12	7249.372	-29609.92	1	30484.43	-76.24294	2.681812E-005	-0.0054611	8
	10	107	30046.88	10573.18	-36847.01	1	38333.98	-73.98927	-2.102992E-005	0.0029317	8
	11	117	23859.38	16905.26	-44421.24	1	47529.3	-69.16483	-1.987046E-005	0.0111596	8
	12	123	18984.38	17924.57	-57437.19	1	60169.11	-72.66829	-1.949195E-006	0.0078028	8
	13	130	15046.87	28511.75	-68147.52	1	73871.55	-67.2964	-7.482237E-006	0.0194016	7
	14	135	11953.13	37255.83	-87479.32	1	95082.2	-66.93174	2.629328E-005	-0.0092745	8
	15	142	9515.62	44349.7	-104530	1	113549.2	-67.0096	-2.601645E-005	0.0011418	9
	16	150	7546.875	67213.85	-125297.4	1	142187	-61.78935	-1.222288E-005	0.0104331	8
	17	157	5928.309	79028.09	-151231.4	1	170635.2	-62.41005	-5.448267E-006	0.0037947	7
	18	164	4733.456	114972.4	-179554.1	1	213209.6	-57.36768	-1.747306E-006	0.0222286	7
	19	169	3796.875	154627.9	-222489.1	1	270945	-55.20104	1.301977E-006	-0.0198436	7
	20	175	2987.132	209845.9	-236465.5	1	316150.7	-48.41328	-5.674229E-007	0.0271076	6
	21	180	2390.625	267718.1	-265694.3	1	377182.3	-44.78262	7.396678E-007	-0.0161156	6
	22	185	1884.191	292717.7	-332236.8	1	442792.2	-48.61829	-6.613721E-006	0.0262194	7
	23	192	1516.544	414729.9	-378907.7	1	561757.9	-42.41561	-7.293824E-006	0.0238	7
	24	198	1193.986	443509.4	-265809.9	1	517064.3	-30.93566	6.734407E-006	-0.010521	7
	25	205	946.5144	689845.2	-76906.3	1	694118.8	-6.361262	-6.674677E-006	0.026879	7
	26	210	751.7689	767742.9	-719876.9	1	1052451	-43.15707	-3.488429E-006	-0.0047188	7
	27	215	597.4265	-22045.34	-205326.9	1	206507	-96.1282	1.69082E-005	-0.0096137	8
	28	222	477.4305	973345	-531980.3	1	1109236	-28.65874	-1.060465E-007	0.0006983	7
	29	226	376.6741	1207991	-392096.9	1	1270032	-17.98271	-1.113526E-009	0.0006157	5
	30	229	298.2954	1309093	-366630.5	1	1359464	-15.64568	-1.125534E-009	0.0006073	5
	31	232	237.7717	1405759	-338188.6	1	1445866	-13.52681	-1.118058E-009	0.0006039	5
	32	234	189.0121	1510430	-318829.3	1	1543713	-11.91932	-1.159638E-009	0.0006959	5
	33	237	150.2404	1608758	-298787.4	1	1636269	-10.5214	-1.250399E-009	0.0007334	5
	34	240	119.1737	1696057	-222405.7	1	1710577	-7.470628	-1.303074E-009	0.0007432	5
	35	243	95.0169	1838731	-249542.8	1	1855587	-7.728661	-1.177023E-009	0.0006033	5
	36	246	75.60484	1943542	-221753.2	1	1956152	-6.509154	-1.105004E-009	0.0005974	5
	37	248	54.50582	2099077	-179235.4	1	2106715	-4.880518	-1.116732E-009	0.0006163	5
	38	251	45.95588	2209341	-196342.1	1	2218048	-5.078482	-1.040416E-009	0.0006124	5
	39	254	37.20238	2330257	-184742.1	1	2337569	-4.532912	-1.200221E-009	0.0007039	5
	40	257	30.04808	2468345	-156601.2	1	2473308	-3.630197	-1.153356E-009	0.0006888	5
	41	260	23.91582	2667516	-165731.7	1	2672659	-3.555194	-1.077489E-009	0.0007016	5
	42	264	18.60119	2888765	-125144.4	1	2891475	-2.480563	-9.521577E-009	0.0006559	6
	43	267	15.02404	3093782	-135598.7	1	3096752	-2.509636	-1.141167E-009	0.0006755	5
	44	271	12.01923	3336137	-125165.9	1	3338484	-2.148627	-1.145164E-009	0.0006106	5
	45	274	9.450605	3608597	-135862.7	1	3611154	-2.156152	-1.039011E-008	0.0006871	6
	46	278	7.512019	3941357	-114641.2	1	3943024	-1.666077	-1.093697E-009	0.0006532	5
	47	283	5.978954	4272627	-22727.87	1	4272688	-0.3047771	-1.712775E-010	0.0006132	4
	48	287	4.734848	4688999	-36256.38	1	4689139	-0.4430149	-1.627656E-010	0.0006322	4
	49	292	3.75601	5232015	-46287.82	1	5232219	-0.5068846	-1.82336E-010	0.0006445	4
	50	297	3.004808	5921497	-64635.21	1	5921849	-0.6253787	-1.451892E-010	0.0006769	4
	51	304	2.372217	6631676	-61005.44	1	6631956	-0.5270547	-1.471937E-010	0.0007171	4
	52	308	1.878005	7305423	-72123.91	1	7305779	-0.5656431	-1.591395E-010	0.000639	4
	53	313	1.512097	8168976	-90603.66	1	8169478	-0.6354523	-1.524124E-010	0.0006434	4
	54	318	1.201923	9273243	-104257	1	9273829	-0.6441367	-1.429731E-010	0.0006332	4
	55	324	0.956633	1.069059E+007	-132138.8	1	1.069141E+007	-0.7081562	-1.909377E-010	2.005037E-005	4
