EXPLAIN
TAG	EISPOT
TITLE	LABEL	Potentiostatic EIS	Test Identifier
DATE	LABEL	2/25/2021	Date
TIME	LABEL	2:24:27	Time
NOTES	NOTES	1	Notes...
	
PSTAT	PSTAT	REF3000-16137	Potentiostat
VDC	POTEN	0.00000E+000	T	DC Voltage (V)
FREQINIT	QUANT	3.00000E+005	Initial Freq. (Hz)
FREQFINAL	QUANT	1.00000E+000	Final Freq. (Hz)
PTSPERDEC	QUANT	1.00000E+001	Points/decade
VAC	QUANT	5.00000E+001	AC Voltage (mV rms)
AREA	QUANT	1.00000E+000	Sample Area (cm^2)
SPEED	SELECTOR	2	Optimize for:
ZGUESS	QUANT	1.00000E+003	Estimated Z (ohms)
EOC	QUANT	0	Open Circuit (V)
SEQUENCER	TOGGLE	TRUE	Run as Sequence
PSTATMODEL	IQUANT	5	Pstat Model
PSTATSECTION	LABEL	REF3000-16137	Pstat Section
PSTATSERIALNO	LABEL	16137	Pstat Serial Number
CTRLMODE	IQUANT	1	Control Mode
IESTAB	IQUANT	0	I/E Stability
CASPEED	IQUANT	1	Control Amp Speed
CONVENTION	IQUANT	1	Current Convention
ICHRANGE	IQUANT	2	Ich Range
ICHRANGEMODE	TOGGLE	F	Ich Auto Range
ICHOFFSETENABLE	TOGGLE	T	Ich Offset Enable
ICHOFFSET	QUANT	0	Ich Offset (V)
ICHFILTER	IQUANT	3	Ich Filter
VCHRANGE	IQUANT	2	Vch Range
VCHRANGEMODE	TOGGLE	F	Vch Auto Range
VCHOFFSETENABLE	TOGGLE	T	Vch Offset Enable
VCHOFFSET	QUANT	0	Vch Offset (V)
VCHFILTER	IQUANT	3	Vch Filter
ACHRANGE	IQUANT	2	Ach Range
ACHOFFSETENABLE	TOGGLE	F	Ach Offset Enable
ACHOFFSET	QUANT	0	Ach Offset (V)
ACHFILTER	IQUANT	3	Ach Filter
IERANGELOWERLIMIT	IQUANT	2	I/E Range Lower Limit
IERANGEMODE	TOGGLE	F	I/E AutoRange
IERANGE	IQUANT	11	I/E Range
POSFEEDENABLE	TOGGLE	F	Positive Feedback IR Comp
POSFEEDRESISTANCE	QUANT	0	Positive Feedback Resistance (ohm)
ACHSELECT	IQUANT	0	Ach Select
CABLEID	IQUANT	13	Cable ID
DCCALDATE	LABEL	7/31/2020	DC Calibration Date
ACCALDATE	LABEL	7/31/2020	AC Calibration Date
THERMOSELECT	IQUANT	1	Thermo Select
FRAMEWORKVERSION	QUANT	6.33	Framework Version
INSTRUMENTVERSION	LABEL	3.50	Instrument Version
COMPLIANCEVOLTAGE	IQUANT	0	Compliance Voltage
ZCURVE	TABLE
	Pt	Time	Freq	Zreal	Zimag	Zsig	Zmod	Zphz	Idc	Vdc	IERange
	#	s	Hz	ohm	ohm	V	ohm	°	A	V	#
	0	18	300046.9	761.6345	-3814.195	1	3889.495	-78.70747	1.797342E-005	-0.0021976	9
	1	32	238359.4	1083.572	-4637.291	1	4762.205	-76.84796	2.115891E-005	-0.0021164	9
	2	51	189328.1	1398.54	-5539.757	1	5713.564	-75.83144	7.851776E-005	-0.0015884	9
	3	59	150421.9	2043.975	-6826.271	1	7125.714	-73.33084	2.370877E-005	0.0011161	9
	4	66	119484.4	3341.047	-8118.477	1	8779.081	-67.63106	4.066822E-005	-0.0184048	8
	5	74	94921.88	4370.853	-9656.3	1	10599.45	-65.64646	-2.359354E-005	0.0053488	8
	6	82	75421.88	5767.896	-11540.57	1	12901.68	-63.44443	-2.402729E-005	0.0109101	8
	7	91	59859.37	7742.547	-13326.76	1	15412.65	-59.84438	-1.116428E-005	0.0099153	8
	8	100	47578.12	12317.73	-14677.73	1	19161.48	-49.99622	7.176634E-006	-0.0175307	7
	9	106	37828.12	15323.72	-16237.77	1	22326.71	-46.65887	-6.928014E-006	0.0226946	7
	10	112	30046.88	18826.62	-17341.73	1	25596.43	-42.64905	1.236932E-006	-0.0186711	7
	11	119	23859.38	20970.88	-19409.47	1	28574.56	-42.78561	-9.275676E-006	-0.0001566	9
	12	125	18984.38	25731.56	-19773.81	1	32451.76	-37.54103	7.637505E-006	-0.0074361	8
	13	132	15046.87	30589.73	-20087.12	1	36595.41	-33.29139	-2.40471E-005	0.0109859	8
	14	138	11953.13	34101.98	-17908.88	1	38518.47	-27.7065	-2.057771E-005	0.0030519	8
	15	145	9515.62	37912.98	-18471.68	1	42173.41	-25.97593	1.588932E-005	-0.0090834	8
	16	152	7546.875	42435.77	-15424.66	1	45152.13	-19.97532	-3.550777E-006	0.0240319	7
	17	158	5928.309	46302.46	-12933.21	1	48074.79	-15.60613	7.267624E-006	-0.0178302	7
	18	163	4733.456	54305.05	-14347.69	1	56168.45	-14.79968	-1.119234E-005	0.0100218	8
	19	170	3796.875	51433.28	-10142.88	1	52423.85	-11.15585	6.351994E-006	-0.0099312	7
	20	175	2987.132	52705.64	-9504.86	1	53555.83	-10.22276	-1.606154E-006	0.0207908	7
	21	180	2390.625	55335.84	-9059.736	1	56072.58	-9.298129	6.428537E-006	-0.0101875	7
	22	186	1884.191	58450.14	-8868.363	1	59119.09	-8.627416	-7.059416E-006	0.0183741	7
	23	191	1516.544	61288.12	-5807.928	1	61562.7	-5.413431	2.728262E-006	0.007827	7
	24	196	1193.986	61022.56	-5764.45	1	61294.23	-5.396389	-1.586704E-006	0.0208305	7
	25	202	946.5144	61347.43	-1018.645	1	61355.89	-0.951282	3.261306E-006	-0.0230017	7
	26	206	751.7689	63129.9	-6578.73	1	63471.75	-5.949286	-5.119126E-006	0.0036023	7
	27	209	597.4265	65589.54	-2154.724	1	65624.92	-1.881583	7.427587E-006	-0.0182719	7
	28	213	477.4305	66314.95	-2442.457	1	66359.91	-2.109317	-6.742555E-008	0.0006765	7
	29	217	376.6741	67226.84	-1251.5	1	67238.49	-1.066499	-9.611878E-009	0.0006838	6
	30	219	298.2954	67995.52	-1084.505	1	68004.17	-0.9137703	-9.745318E-009	0.0006637	6
	31	221	237.7717	68839.69	-926.6862	1	68845.92	-0.7712411	-8.17395E-009	0.0006301	6
	32	224	189.0121	69674.54	-821.0677	1	69679.38	-0.6751611	-1.093921E-008	0.0007091	6
	33	226	150.2404	70582	-726.079	1	70585.73	-0.5893825	-8.700802E-009	0.0006353	6
	34	229	119.1737	71541.95	-585.0618	1	71544.34	-0.4685479	-8.618683E-009	0.0006935	6
	35	231	95.0169	72427.91	-650.2468	1	72430.83	-0.514379	-7.672302E-009	0.0006273	6
	36	234	75.60484	73324.18	-663.3605	1	73327.18	-0.5183382	-9.239901E-009	0.0006281	6
	37	236	54.50582	74433.15	-586.7719	1	74435.46	-0.4516651	-7.459194E-009	0.0007174	6
	38	239	45.95588	75149.05	-699.5273	1	75152.3	-0.5333242	-1.233118E-008	0.0006812	6
	39	241	37.20238	76090.5	-769.5652	1	76094.39	-0.5794591	-1.132272E-008	0.0006458	6
	40	244	30.04808	77075.36	-843.8186	1	77079.98	-0.6272473	-5.966703E-009	0.0006657	6
	41	247	23.91582	78159.49	-958.525	1	78165.37	-0.702623	-5.145123E-009	0.00063	6
	42	249	18.60119	79073.63	-1116.653	1	79081.52	-0.8090592	-1.407256E-008	0.0007236	6
	43	251	15.02404	79986.02	-1339.129	1	79997.23	-0.959158	-1.241935E-008	0.0006275	6
	44	254	12.01923	81017.2	-1626.585	1	81033.53	-1.150175	-4.735637E-009	0.0006594	6
	45	256	9.450605	82014.59	-1996.615	1	82038.88	-1.39457	2.516549E-009	0.0006422	6
	46	259	7.512019	83313.23	-2420.876	1	83348.39	-1.664405	-5.60591E-009	0.0006485	6
	47	262	5.978954	84931.66	-2979.799	1	84983.92	-2.009379	-5.617548E-009	0.0006477	6
	48	266	4.734848	86549.32	-3693.108	1	86628.08	-2.443361	-1.70466E-008	0.0006936	6
	49	269	3.75601	88688.85	-4533.306	1	88804.63	-2.926111	-5.64557E-009	0.0007305	6
	50	275	3.004808	91536.49	-5581.103	1	91706.48	-3.489081	-1.478783E-009	0.0006867	6
	51	281	2.372217	94162.84	-6781.333	1	94406.7	-4.119164	-8.939968E-009	0.0006025	6
	52	286	1.878005	96531.4	-8581.217	1	96912.1	-5.079988	-5.807088E-010	0.000683	6
	53	290	1.512097	99391.7	-10547.36	1	99949.8	-6.057502	2.361426E-009	0.0006092	6
	54	296	1.201923	102664.8	-12747.77	1	103453.2	-7.078121	-1.02239E-008	0.0007022	6
	55	302	0.956633	106828.2	-15935.4	1	108010.2	-8.48416	-1.901018E-008	3.366482E-005	6
