EXPLAIN
TAG	EISPOT
TITLE	LABEL	Potentiostatic EIS	Test Identifier
DATE	LABEL	2/25/2021	Date
TIME	LABEL	1:50:07	Time
NOTES	NOTES	1	Notes...
	
PSTAT	PSTAT	REF3000-16137	Potentiostat
VDC	POTEN	0.00000E+000	T	DC Voltage (V)
FREQINIT	QUANT	3.00000E+005	Initial Freq. (Hz)
FREQFINAL	QUANT	1.00000E+000	Final Freq. (Hz)
PTSPERDEC	QUANT	1.00000E+001	Points/decade
VAC	QUANT	5.00000E+001	AC Voltage (mV rms)
AREA	QUANT	1.00000E+000	Sample Area (cm^2)
SPEED	SELECTOR	2	Optimize for:
ZGUESS	QUANT	1.00000E+003	Estimated Z (ohms)
EOC	QUANT	0	Open Circuit (V)
SEQUENCER	TOGGLE	TRUE	Run as Sequence
PSTATMODEL	IQUANT	5	Pstat Model
PSTATSECTION	LABEL	REF3000-16137	Pstat Section
PSTATSERIALNO	LABEL	16137	Pstat Serial Number
CTRLMODE	IQUANT	1	Control Mode
IESTAB	IQUANT	0	I/E Stability
CASPEED	IQUANT	1	Control Amp Speed
CONVENTION	IQUANT	1	Current Convention
ICHRANGE	IQUANT	2	Ich Range
ICHRANGEMODE	TOGGLE	F	Ich Auto Range
ICHOFFSETENABLE	TOGGLE	T	Ich Offset Enable
ICHOFFSET	QUANT	0	Ich Offset (V)
ICHFILTER	IQUANT	3	Ich Filter
VCHRANGE	IQUANT	2	Vch Range
VCHRANGEMODE	TOGGLE	F	Vch Auto Range
VCHOFFSETENABLE	TOGGLE	T	Vch Offset Enable
VCHOFFSET	QUANT	0	Vch Offset (V)
VCHFILTER	IQUANT	3	Vch Filter
ACHRANGE	IQUANT	2	Ach Range
ACHOFFSETENABLE	TOGGLE	F	Ach Offset Enable
ACHOFFSET	QUANT	0	Ach Offset (V)
ACHFILTER	IQUANT	3	Ach Filter
IERANGELOWERLIMIT	IQUANT	2	I/E Range Lower Limit
IERANGEMODE	TOGGLE	F	I/E AutoRange
IERANGE	IQUANT	11	I/E Range
POSFEEDENABLE	TOGGLE	F	Positive Feedback IR Comp
POSFEEDRESISTANCE	QUANT	0	Positive Feedback Resistance (ohm)
ACHSELECT	IQUANT	0	Ach Select
CABLEID	IQUANT	13	Cable ID
DCCALDATE	LABEL	7/31/2020	DC Calibration Date
ACCALDATE	LABEL	7/31/2020	AC Calibration Date
THERMOSELECT	IQUANT	1	Thermo Select
FRAMEWORKVERSION	QUANT	6.33	Framework Version
INSTRUMENTVERSION	LABEL	3.50	Instrument Version
COMPLIANCEVOLTAGE	IQUANT	0	Compliance Voltage
ZCURVE	TABLE
	Pt	Time	Freq	Zreal	Zimag	Zsig	Zmod	Zphz	Idc	Vdc	IERange
	#	s	Hz	ohm	ohm	V	ohm	°	A	V	#
	0	7	300046.9	74.97046	1.236237	1	74.98065	0.9447019	-1.019467E-005	-0.0012598	9
	1	10	238359.4	75.32556	0.8790498	1	75.33069	0.6686118	1.048127E-005	-0.0010188	9
	2	13	189328.1	75.7644	0.568898	1	75.76654	0.4302131	-1.23358E-006	0.0008386	9
	3	15	150421.9	76.19036	0.3839256	1	76.19133	0.2887128	1.741534E-005	-0.0003875	9
	4	18	119484.4	76.61597	0.2449487	1	76.61636	0.1831796	9.453395E-006	-0.0006249	9
	5	21	94921.88	76.9884	0.3468935	1	76.98917	0.2581609	-9.390018E-006	1.048785E-006	9
	6	23	75421.88	77.30811	0.1818496	1	77.30832	0.134775	2.168769E-005	-0.0005761	9
	7	26	59859.37	77.69483	0.0103186	1	77.69483	0.0076094	2.175254E-006	-0.0003604	9
	8	28	47578.12	78.0743	-0.1952991	1	78.07454	-0.1433223	2.27478E-005	-0.0005633	9
	9	31	37828.12	78.42139	-0.2633641	1	78.42183	-0.1924169	-1.623267E-005	0.00036	9
	10	33	30046.88	78.7886	-0.3721955	1	78.78948	-0.2706619	2.26057E-005	-0.0005515	9
	11	36	23859.38	79.16923	-0.5367061	1	79.17104	-0.3884151	-1.380825E-005	0.0003645	9
	12	38	18984.38	79.50751	-0.6463675	1	79.51014	-0.4657838	-3.366836E-006	0.0006515	9
	13	40	15046.87	79.80587	-0.829871	1	79.81019	-0.5957756	2.190345E-005	-0.0005289	9
	14	43	11953.13	80.23658	-1.045112	1	80.24339	-0.7462568	-1.083467E-005	0.0007946	9
	15	45	9515.62	80.56153	-1.266155	1	80.57148	-0.9004222	2.129044E-006	0.0004052	9
	16	47	7546.875	80.94239	-1.57395	1	80.9577	-1.113994	1.05618E-005	0.0001452	9
	17	50	5928.309	81.30122	-1.959438	1	81.32482	-1.380617	-1.333087E-005	0.000191	9
	18	52	4733.456	81.70667	-2.470161	1	81.744	-1.731642	-2.909843E-006	-0.0001728	9
	19	54	3796.875	82.11567	-2.991116	1	82.17013	-2.086113	-1.881824E-005	0.0005392	9
	20	57	2987.132	82.52607	-3.717712	1	82.60976	-2.57937	-2.050615E-006	-0.0002134	9
	21	59	2390.625	82.97456	-4.611504	1	83.10261	-3.181073	-1.842608E-005	0.0007077	9
	22	61	1884.191	83.42303	-5.770858	1	83.6224	-3.957179	2.08851E-005	-0.0006006	9
	23	64	1516.544	83.89445	-7.019989	1	84.18764	-4.783164	2.163262E-005	-0.000615	9
	24	66	1193.986	84.43003	-8.790895	1	84.88645	-5.944245	1.682431E-005	-0.0005953	9
	25	68	946.5144	85.01056	-10.89276	1	85.70559	-7.301764	-1.840663E-005	0.00053	9
	26	71	751.7689	85.71181	-13.584	1	86.78156	-9.005596	2.151052E-005	-0.0006115	9
	27	73	597.4265	86.37556	-16.85522	1	88.00475	-11.04187	-1.851419E-005	0.0007277	9
	28	75	477.4305	87.2187	-20.76352	1	89.65615	-13.39074	1.364891E-006	8.916543E-005	9
	29	78	376.6741	88.20538	-25.91152	1	91.93256	-16.37086	1.290069E-006	8.487715E-005	9
	30	80	298.2954	89.36628	-32.20405	1	94.99175	-19.81714	1.344058E-006	8.818408E-005	9
	31	82	237.7717	90.75422	-39.75953	1	99.0815	-23.65828	1.412875E-006	8.487947E-005	9
	32	85	189.0121	92.44205	-49.1652	1	104.7031	-28.00623	1.281789E-006	8.934121E-005	9
	33	87	150.2404	94.50174	-60.73169	1	112.334	-32.72689	1.294256E-006	8.195813E-005	9
	34	90	119.1737	97.0433	-75.07235	1	122.6918	-37.7254	1.259819E-006	9.021998E-005	9
	35	92	95.0169	100.0641	-92.26356	1	136.108	-42.67744	1.365449E-006	8.515864E-005	9
	36	95	75.60484	103.7534	-113.4951	1	153.7722	-47.56747	1.33419E-006	8.05013E-005	9
	37	97	54.50582	110.1441	-152.4958	1	188.1135	-54.16032	1.375045E-006	7.874526E-005	9
	38	100	45.95588	114.3721	-177.9185	1	211.5088	-57.26571	1.367311E-006	8.614998E-005	9
	39	102	37.20238	120.2878	-215.3266	1	246.6469	-60.811	1.316456E-006	8.241723E-005	9
	40	104	30.04808	127.3818	-261.2875	1	290.6841	-64.01003	1.310452E-006	7.762918E-005	9
	41	107	23.91582	136.3006	-321.347	1	349.0584	-67.01558	1.333617E-006	7.874367E-005	9
	42	109	18.60119	148.1688	-403.8487	1	430.1718	-69.85233	1.347348E-006	8.146991E-005	9
	43	111	15.02404	159.8754	-488.5752	1	514.068	-71.88047	2.896862E-007	0.0006711	8
	44	114	12.01923	175.4185	-599.1785	1	624.3289	-73.68181	2.544419E-007	0.0006586	8
	45	116	9.450605	196.1284	-746.7445	1	772.071	-75.28394	3.019382E-007	0.0006763	8
	46	119	7.512019	220.3664	-921.389	1	947.3748	-76.54937	3.224451E-007	0.0006833	8
	47	121	5.978954	250.5093	-1135.996	1	1163.289	-77.56419	3.190982E-007	0.0006582	8
	48	125	4.734848	289.1663	-1408.369	1	1437.748	-78.39728	2.747806E-007	0.0006626	8
	49	128	3.75601	336.3486	-1741.151	1	1773.341	-79.06651	3.336299E-007	0.0006682	8
	50	131	3.004808	393.2511	-2135.213	1	2171.125	-79.56454	2.789318E-007	0.0006883	8
	51	135	2.372217	469.2746	-2647.169	1	2688.443	-79.94738	2.871297E-007	0.0006683	8
	52	139	1.878005	566.4081	-3284.86	1	3333.335	-80.2167	3.125315E-007	0.0006417	8
	53	144	1.512097	671.2693	-4004.925	1	4060.792	-80.48505	3.002428E-007	0.0007592	8
	54	149	1.201923	819.163	-4953.308	1	5020.586	-80.60959	3.460517E-008	0.0006164	7
	55	156	0.956633	990.762	-6099.372	1	6179.316	-80.77365	1.335777E-008	-1.238185E-005	7
