EXPLAIN
TAG	EISPOT
TITLE	LABEL	Potentiostatic EIS	Test Identifier
DATE	LABEL	2/25/2021	Date
TIME	LABEL	1:39:02	Time
NOTES	NOTES	1	Notes...
	
PSTAT	PSTAT	REF3000-16137	Potentiostat
VDC	POTEN	0.00000E+000	T	DC Voltage (V)
FREQINIT	QUANT	3.00000E+005	Initial Freq. (Hz)
FREQFINAL	QUANT	1.00000E+000	Final Freq. (Hz)
PTSPERDEC	QUANT	1.00000E+001	Points/decade
VAC	QUANT	5.00000E+001	AC Voltage (mV rms)
AREA	QUANT	1.00000E+000	Sample Area (cm^2)
SPEED	SELECTOR	2	Optimize for:
ZGUESS	QUANT	1.00000E+003	Estimated Z (ohms)
EOC	QUANT	0	Open Circuit (V)
SEQUENCER	TOGGLE	TRUE	Run as Sequence
PSTATMODEL	IQUANT	5	Pstat Model
PSTATSECTION	LABEL	REF3000-16137	Pstat Section
PSTATSERIALNO	LABEL	16137	Pstat Serial Number
CTRLMODE	IQUANT	1	Control Mode
IESTAB	IQUANT	0	I/E Stability
CASPEED	IQUANT	1	Control Amp Speed
CONVENTION	IQUANT	1	Current Convention
ICHRANGE	IQUANT	2	Ich Range
ICHRANGEMODE	TOGGLE	F	Ich Auto Range
ICHOFFSETENABLE	TOGGLE	T	Ich Offset Enable
ICHOFFSET	QUANT	0	Ich Offset (V)
ICHFILTER	IQUANT	3	Ich Filter
VCHRANGE	IQUANT	2	Vch Range
VCHRANGEMODE	TOGGLE	F	Vch Auto Range
VCHOFFSETENABLE	TOGGLE	T	Vch Offset Enable
VCHOFFSET	QUANT	0	Vch Offset (V)
VCHFILTER	IQUANT	3	Vch Filter
ACHRANGE	IQUANT	2	Ach Range
ACHOFFSETENABLE	TOGGLE	F	Ach Offset Enable
ACHOFFSET	QUANT	0	Ach Offset (V)
ACHFILTER	IQUANT	3	Ach Filter
IERANGELOWERLIMIT	IQUANT	2	I/E Range Lower Limit
IERANGEMODE	TOGGLE	F	I/E AutoRange
IERANGE	IQUANT	11	I/E Range
POSFEEDENABLE	TOGGLE	F	Positive Feedback IR Comp
POSFEEDRESISTANCE	QUANT	0	Positive Feedback Resistance (ohm)
ACHSELECT	IQUANT	0	Ach Select
CABLEID	IQUANT	13	Cable ID
DCCALDATE	LABEL	7/31/2020	DC Calibration Date
ACCALDATE	LABEL	7/31/2020	AC Calibration Date
THERMOSELECT	IQUANT	1	Thermo Select
FRAMEWORKVERSION	QUANT	6.33	Framework Version
INSTRUMENTVERSION	LABEL	3.50	Instrument Version
COMPLIANCEVOLTAGE	IQUANT	0	Compliance Voltage
ZCURVE	TABLE
	Pt	Time	Freq	Zreal	Zimag	Zsig	Zmod	Zphz	Idc	Vdc	IERange
	#	s	Hz	ohm	ohm	V	ohm	°	A	V	#
	0	7	300046.9	27.49615	1.358846	1	27.5297	2.829226	-1.889152E-005	-0.0001359	11
	1	12	238359.4	27.66501	1.374682	1	27.69915	2.844702	-5.264517E-005	0.0005772	10
	2	15	189328.1	27.80956	1.073919	1	27.83028	2.211486	7.946602E-005	0.000375	10
	3	19	150421.9	27.92544	0.8094628	1	27.93717	1.660344	-6.235473E-006	0.0004472	10
	4	21	119484.4	28.00705	0.6120151	1	28.01374	1.251838	-3.022052E-005	0.0005317	10
	5	24	94921.88	28.10103	0.4590899	1	28.10478	0.9359646	-2.922336E-005	0.0006476	10
	6	26	75421.88	28.20222	0.3001849	1	28.20382	0.6098343	-1.794434E-005	0.0006423	10
	7	29	59859.37	28.30817	0.1580909	1	28.30861	0.3199728	2.546197E-005	0.00069	10
	8	31	47578.12	28.4065	0.0397477	1	28.40653	0.080171	2.178066E-005	0.0006329	10
	9	34	37828.12	28.51076	-0.077909	1	28.51087	-0.1565671	-1.72805E-005	0.0006751	10
	10	36	30046.88	28.61565	-0.1993392	1	28.61634	-0.3991211	1.347622E-005	0.0006091	10
	11	39	23859.38	28.71999	-0.3256826	1	28.72184	-0.649702	-1.928893E-005	0.0007512	10
	12	41	18984.38	28.82351	-0.4749679	1	28.82742	-0.9440627	-2.774074E-005	0.0006789	10
	13	44	15046.87	28.917	-0.6305545	1	28.92387	-1.249175	-1.626981E-005	0.0006825	10
	14	46	11953.13	29.0392	-0.8222401	1	29.05084	-1.621887	-2.489355E-005	0.0007104	10
	15	48	9515.62	29.14488	-1.051322	1	29.16383	-2.065892	-2.257181E-006	0.0006522	10
	16	50	7546.875	29.26746	-1.334555	1	29.29787	-2.610798	2.064986E-005	0.0006568	10
	17	53	5928.309	29.38958	-1.688216	1	29.43803	-3.28761	-3.5638E-006	0.0006439	10
	18	55	4733.456	29.51605	-2.100403	1	29.59069	-4.070385	-5.108128E-006	0.0007002	10
	19	57	3796.875	29.66419	-2.591413	1	29.77716	-4.992588	-1.671614E-006	0.0006477	10
	20	60	2987.132	29.82001	-3.253519	1	29.99697	-6.226639	-2.189348E-005	0.0007194	10
	21	62	2390.625	29.99512	-4.020844	1	30.26342	-7.634982	-1.866296E-005	0.0006643	10
	22	64	1884.191	30.19316	-5.020566	1	30.60772	-9.440853	-1.073572E-005	0.0006634	10
	23	67	1516.544	30.40931	-6.175885	1	31.03011	-11.48017	2.480218E-005	0.0006669	10
	24	69	1193.986	30.6775	-7.727541	1	31.6358	-14.13844	-1.206522E-005	0.0006605	10
	25	72	946.5144	30.99226	-9.60705	1	32.44712	-17.22252	2.384031E-005	0.0006339	10
	26	74	751.7689	31.3605	-11.91621	1	33.54813	-20.80555	2.334362E-005	0.0006535	10
	27	76	597.4265	31.80268	-14.77979	1	35.06926	-24.92589	-2.227111E-005	0.0007208	10
	28	78	477.4305	32.34202	-18.19197	1	37.10733	-29.35719	-2.101056E-006	0.0006758	10
	29	81	376.6741	32.99473	-22.62271	1	40.00549	-34.43633	1.285207E-006	7.71861E-005	9
	30	83	298.2954	33.83297	-28.04551	1	43.94565	-39.6567	1.300568E-006	8.627497E-005	9
	31	85	237.7717	34.83426	-34.53005	1	49.04844	-44.74872	1.275324E-006	8.450012E-005	9
	32	88	189.0121	36.05689	-42.59467	1	55.80686	-49.75169	1.240876E-006	8.591351E-005	9
	33	90	150.2404	37.52966	-52.52615	1	64.55596	-54.4544	1.191986E-006	8.385281E-005	9
	34	93	119.1737	39.31947	-64.90064	1	75.88224	-58.7908	1.232966E-006	8.902852E-005	9
	35	95	95.0169	41.43557	-79.82452	1	89.93809	-62.56693	1.242967E-006	8.190554E-005	9
	36	98	75.60484	44.02207	-98.3965	1	107.7952	-65.89651	1.205527E-006	7.899378E-005	9
	37	100	54.50582	48.70058	-132.7985	1	141.4468	-69.86073	1.161296E-006	8.359914E-005	9
	38	103	45.95588	51.81132	-155.349	1	163.7611	-71.55565	1.326143E-006	8.55715E-005	9
	39	105	37.20238	56.34156	-188.5961	1	196.832	-73.36691	1.271831E-006	8.819847E-005	9
	40	107	30.04808	61.97559	-229.5195	1	237.7397	-74.88918	1.33605E-006	8.267476E-005	9
	41	110	23.91582	69.40773	-283.156	1	291.5386	-76.22711	1.324336E-006	8.23841E-005	9
	42	112	18.60119	79.6374	-356.6397	1	365.4231	-77.4124	1.335085E-006	8.229032E-005	9
	43	114	15.02404	90.25077	-431.954	1	441.2816	-78.19862	5.05776E-007	0.0006603	8
	44	117	12.01923	104.3854	-530.0979	1	540.2778	-78.86	5.150457E-007	0.0006598	8
	45	119	9.450605	123.5209	-660.556	1	672.0057	-79.40828	4.767973E-007	0.0006491	8
	46	122	7.512019	146.1157	-814.7675	1	827.7656	-79.83298	4.976192E-007	0.0006456	8
	47	124	5.978954	174.3016	-1002.968	1	1018	-80.14127	5.187493E-007	0.0006726	8
	48	128	4.734848	210.5277	-1241.003	1	1258.734	-80.37183	4.881101E-007	0.0006808	8
	49	131	3.75601	253.2906	-1532.178	1	1552.973	-80.6131	5.250045E-007	0.0006675	8
	50	134	3.004808	304.5748	-1875.002	1	1899.579	-80.77348	4.916091E-007	0.0006722	8
	51	138	2.372217	374.902	-2322.061	1	2352.13	-80.82861	4.819308E-007	0.0006365	8
	52	142	1.878005	458.7991	-2879.433	1	2915.756	-80.94678	5.197265E-007	0.0006463	8
	53	147	1.512097	548.9066	-3504.104	1	3546.836	-81.09715	4.903123E-007	0.0007193	8
	54	152	1.201923	681.3035	-4330.459	1	4383.726	-81.05904	5.242391E-007	0.0006739	8
	55	159	0.956633	843.3611	-5342.161	1	5408.322	-81.02882	2.672111E-008	-1.438754E-005	7
