EXPLAIN
TAG	EISPOT
TITLE	LABEL	Potentiostatic EIS	Test Identifier
DATE	LABEL	2/25/2021	Date
TIME	LABEL	0:46:00	Time
NOTES	NOTES	1	Notes...
	
PSTAT	PSTAT	REF3000-16137	Potentiostat
VDC	POTEN	0.00000E+000	T	DC Voltage (V)
FREQINIT	QUANT	3.00000E+005	Initial Freq. (Hz)
FREQFINAL	QUANT	1.00000E+000	Final Freq. (Hz)
PTSPERDEC	QUANT	1.00000E+001	Points/decade
VAC	QUANT	5.00000E+001	AC Voltage (mV rms)
AREA	QUANT	1.00000E+000	Sample Area (cm^2)
SPEED	SELECTOR	2	Optimize for:
ZGUESS	QUANT	1.00000E+003	Estimated Z (ohms)
EOC	QUANT	0	Open Circuit (V)
SEQUENCER	TOGGLE	TRUE	Run as Sequence
PSTATMODEL	IQUANT	5	Pstat Model
PSTATSECTION	LABEL	REF3000-16137	Pstat Section
PSTATSERIALNO	LABEL	16137	Pstat Serial Number
CTRLMODE	IQUANT	1	Control Mode
IESTAB	IQUANT	0	I/E Stability
CASPEED	IQUANT	1	Control Amp Speed
CONVENTION	IQUANT	1	Current Convention
ICHRANGE	IQUANT	2	Ich Range
ICHRANGEMODE	TOGGLE	F	Ich Auto Range
ICHOFFSETENABLE	TOGGLE	T	Ich Offset Enable
ICHOFFSET	QUANT	0	Ich Offset (V)
ICHFILTER	IQUANT	3	Ich Filter
VCHRANGE	IQUANT	2	Vch Range
VCHRANGEMODE	TOGGLE	F	Vch Auto Range
VCHOFFSETENABLE	TOGGLE	T	Vch Offset Enable
VCHOFFSET	QUANT	0	Vch Offset (V)
VCHFILTER	IQUANT	3	Vch Filter
ACHRANGE	IQUANT	2	Ach Range
ACHOFFSETENABLE	TOGGLE	F	Ach Offset Enable
ACHOFFSET	QUANT	0	Ach Offset (V)
ACHFILTER	IQUANT	3	Ach Filter
IERANGELOWERLIMIT	IQUANT	2	I/E Range Lower Limit
IERANGEMODE	TOGGLE	F	I/E AutoRange
IERANGE	IQUANT	11	I/E Range
POSFEEDENABLE	TOGGLE	F	Positive Feedback IR Comp
POSFEEDRESISTANCE	QUANT	0	Positive Feedback Resistance (ohm)
ACHSELECT	IQUANT	0	Ach Select
CABLEID	IQUANT	13	Cable ID
DCCALDATE	LABEL	7/31/2020	DC Calibration Date
ACCALDATE	LABEL	7/31/2020	AC Calibration Date
THERMOSELECT	IQUANT	1	Thermo Select
FRAMEWORKVERSION	QUANT	6.33	Framework Version
INSTRUMENTVERSION	LABEL	3.50	Instrument Version
COMPLIANCEVOLTAGE	IQUANT	0	Compliance Voltage
ZCURVE	TABLE
	Pt	Time	Freq	Zreal	Zimag	Zsig	Zmod	Zphz	Idc	Vdc	IERange
	#	s	Hz	ohm	ohm	V	ohm	°	A	V	#
	0	10	300046.9	3.017869	2.240134	1	3.758422	36.58614	1.253569E-005	-0.0001212	10
	1	13	238359.4	2.978902	1.776713	1	3.468511	30.8132	7.136856E-005	-0.0006758	10
	2	16	189328.1	3.042165	1.171396	1	3.259899	21.05937	-0.0001789	-0.0002312	12
	3	20	150421.9	2.947462	1.07888	1	3.138712	20.1045	-7.219242E-005	0.0003544	11
	4	22	119484.4	2.9426	0.8340312	1	3.058513	15.82451	7.290656E-005	0.0004594	11
	5	25	94921.88	2.935639	0.6347864	1	3.003486	12.20147	-5.431518E-005	0.0005293	11
	6	27	75421.88	2.935184	0.4652446	1	2.971827	9.006801	2.044313E-005	0.0006418	11
	7	30	59859.37	2.936185	0.3207146	1	2.953649	6.233611	3.243783E-006	0.0006534	11
	8	32	47578.12	2.939473	0.1946828	1	2.945913	3.789194	-3.324391E-005	0.0006642	11
	9	35	37828.12	2.943584	0.0799046	1	2.944669	1.554931	-2.22714E-005	0.0006795	11
	10	38	30046.88	2.949039	-0.0300992	1	2.949192	-0.5847654	-1.714673E-005	0.0006852	11
	11	40	23859.38	2.956255	-0.1403806	1	2.959586	-2.718703	-2.773851E-005	0.0007046	11
	12	42	18984.38	2.964542	-0.2553889	1	2.975523	-4.92375	-3.350441E-005	0.000704	11
	13	45	15046.87	2.973654	-0.3839232	1	2.998336	-7.35666	1.201366E-005	0.0007229	11
	14	47	11953.13	2.986551	-0.5294045	1	3.033109	-10.052	-1.850719E-005	0.0007093	11
	15	49	9515.62	3.000592	-0.6980441	1	3.080717	-13.0961	1.525412E-005	0.0007291	11
	16	52	7546.875	3.020234	-0.9035333	1	3.152489	-16.65508	-3.246E-005	0.0007011	11
	17	54	5928.309	3.043947	-1.163102	1	3.258592	-20.91202	2.997271E-006	0.0007133	11
	18	56	4733.456	3.0734	-1.459405	1	3.402301	-25.40072	-3.918292E-005	0.000676	11
	19	59	3796.875	3.10881	-1.814149	1	3.599421	-30.26574	8.933508E-006	0.0007342	11
	20	61	2987.132	3.161167	-2.289328	1	3.903076	-35.91219	1.096943E-005	0.0006505	10
	21	63	2390.625	3.218211	-2.835248	1	4.289	-41.38009	-2.750094E-005	0.0007173	10
	22	66	1884.191	3.297327	-3.553466	1	4.847627	-47.14119	-1.086562E-005	0.0006735	10
	23	68	1516.544	3.389003	-4.362508	1	5.524203	-52.15825	1.103337E-005	0.0006505	10
	24	70	1193.986	3.515249	-5.464791	1	6.497763	-57.24869	-2.50325E-005	0.0006938	10
	25	73	946.5144	3.669719	-6.793887	1	7.721641	-61.6243	-2.638709E-005	0.0007099	10
	26	75	751.7689	3.875519	-8.423718	1	9.272469	-65.29415	1.839708E-005	0.0006728	10
	27	77	597.4265	4.12834	-10.43551	1	11.22244	-68.41601	-2.116267E-005	0.0006978	10
	28	80	477.4305	4.447361	-12.84491	1	13.59304	-70.90234	-2.832393E-006	0.0006838	10
	29	82	376.6741	4.872239	-15.99435	1	16.71998	-73.05808	-2.556405E-006	0.000679	10
	30	84	298.2954	5.40196	-19.833	1	20.55551	-74.76382	-2.192778E-006	0.0006814	10
	31	87	237.7717	6.051724	-24.43183	1	25.17018	-76.08794	-3.165442E-006	0.0006805	10
	32	89	189.0121	6.878366	-30.16407	1	30.93838	-77.15439	-2.351783E-006	0.000678	10
	33	91	150.2404	7.912155	-37.21042	1	38.04231	-77.99582	-2.717652E-006	0.0006789	10
	34	94	119.1737	9.206233	-45.9303	1	46.84386	-78.66587	4.985541E-007	7.977092E-005	9
	35	96	95.0169	10.79449	-56.45638	1	57.47907	-79.17566	3.383513E-007	8.298225E-005	9
	36	99	75.60484	12.78835	-69.52902	1	70.69531	-79.57816	2.295874E-007	8.414975E-005	9
	37	101	54.50582	16.53625	-93.65624	1	95.1049	-79.98687	2.009196E-007	0.0000962	9
	38	104	45.95588	19.05768	-109.4495	1	111.0963	-80.12252	5.247219E-007	9.093885E-005	9
	39	106	37.20238	22.83264	-132.6628	1	134.6134	-80.23448	3.725873E-007	9.329594E-005	9
	40	108	30.04808	27.66369	-161.199	1	163.5555	-80.26221	2.888069E-007	8.876147E-005	9
	41	111	23.91582	34.33763	-198.4396	1	201.3885	-80.18285	3.041949E-007	8.116561E-005	9
	42	113	18.60119	43.90402	-249.4224	1	253.257	-80.01691	4.579315E-007	9.299318E-005	9
	43	115	15.02404	54.74427	-302.8356	1	307.744	-79.75317	5.930753E-007	0.0000981	9
	44	118	12.01923	69.83746	-370.6146	1	377.1372	-79.3285	4.525783E-007	8.548021E-005	9
	45	120	9.450605	91.24804	-458.3409	1	467.3356	-78.74058	-1.709938E-008	0.0006572	8
	46	123	7.512019	119.6986	-562.737	1	575.3266	-77.99171	-3.827566E-008	0.0006642	8
	47	126	5.978954	157.7926	-688.2645	1	706.1207	-77.08743	-3.839993E-008	0.0006655	8
	48	129	4.734848	211.7154	-844.1467	1	870.2914	-75.9204	-9.104647E-008	0.0006487	8
	49	132	3.75601	285.0787	-1029.111	1	1067.866	-74.51649	2.160889E-008	0.0006742	8
	50	135	3.004808	381.6399	-1239.739	1	1297.151	-72.8896	-7.418989E-008	0.0006916	8
	51	139	2.372217	521.8052	-1499.256	1	1587.467	-70.80992	-7.659443E-008	0.000684	8
	52	143	1.878005	715.2949	-1796.142	1	1933.332	-68.28559	-4.017148E-008	0.0006432	8
	53	148	1.512097	950.426	-2101.049	1	2306.017	-65.66001	-5.697789E-008	0.0007668	8
	54	153	1.201923	1276.526	-2447.049	1	2759.994	-62.45079	-3.099426E-008	0.000637	8
	55	160	0.956633	1687.267	-2799.401	1	3268.565	-58.92161	-2.156958E-007	1.239138E-005	8
