EXPLAIN
TAG	EISPOT
TITLE	LABEL	Potentiostatic EIS	Test Identifier
DATE	LABEL	2/25/2021	Date
TIME	LABEL	0:43:10	Time
NOTES	NOTES	1	Notes...
	
PSTAT	PSTAT	REF3000-16137	Potentiostat
VDC	POTEN	0.00000E+000	T	DC Voltage (V)
FREQINIT	QUANT	3.00000E+005	Initial Freq. (Hz)
FREQFINAL	QUANT	1.00000E+000	Final Freq. (Hz)
PTSPERDEC	QUANT	1.00000E+001	Points/decade
VAC	QUANT	5.00000E+001	AC Voltage (mV rms)
AREA	QUANT	1.00000E+000	Sample Area (cm^2)
SPEED	SELECTOR	2	Optimize for:
ZGUESS	QUANT	1.00000E+003	Estimated Z (ohms)
EOC	QUANT	0	Open Circuit (V)
SEQUENCER	TOGGLE	TRUE	Run as Sequence
PSTATMODEL	IQUANT	5	Pstat Model
PSTATSECTION	LABEL	REF3000-16137	Pstat Section
PSTATSERIALNO	LABEL	16137	Pstat Serial Number
CTRLMODE	IQUANT	1	Control Mode
IESTAB	IQUANT	0	I/E Stability
CASPEED	IQUANT	1	Control Amp Speed
CONVENTION	IQUANT	1	Current Convention
ICHRANGE	IQUANT	2	Ich Range
ICHRANGEMODE	TOGGLE	F	Ich Auto Range
ICHOFFSETENABLE	TOGGLE	T	Ich Offset Enable
ICHOFFSET	QUANT	0	Ich Offset (V)
ICHFILTER	IQUANT	3	Ich Filter
VCHRANGE	IQUANT	2	Vch Range
VCHRANGEMODE	TOGGLE	F	Vch Auto Range
VCHOFFSETENABLE	TOGGLE	T	Vch Offset Enable
VCHOFFSET	QUANT	0	Vch Offset (V)
VCHFILTER	IQUANT	3	Vch Filter
ACHRANGE	IQUANT	2	Ach Range
ACHOFFSETENABLE	TOGGLE	F	Ach Offset Enable
ACHOFFSET	QUANT	0	Ach Offset (V)
ACHFILTER	IQUANT	3	Ach Filter
IERANGELOWERLIMIT	IQUANT	2	I/E Range Lower Limit
IERANGEMODE	TOGGLE	F	I/E AutoRange
IERANGE	IQUANT	11	I/E Range
POSFEEDENABLE	TOGGLE	F	Positive Feedback IR Comp
POSFEEDRESISTANCE	QUANT	0	Positive Feedback Resistance (ohm)
ACHSELECT	IQUANT	0	Ach Select
CABLEID	IQUANT	13	Cable ID
DCCALDATE	LABEL	7/31/2020	DC Calibration Date
ACCALDATE	LABEL	7/31/2020	AC Calibration Date
THERMOSELECT	IQUANT	1	Thermo Select
FRAMEWORKVERSION	QUANT	6.33	Framework Version
INSTRUMENTVERSION	LABEL	3.50	Instrument Version
COMPLIANCEVOLTAGE	IQUANT	0	Compliance Voltage
ZCURVE	TABLE
	Pt	Time	Freq	Zreal	Zimag	Zsig	Zmod	Zphz	Idc	Vdc	IERange
	#	s	Hz	ohm	ohm	V	ohm	°	A	V	#
	0	10	300046.9	2.881958	2.261074	1	3.663077	38.11638	-3.287536E-005	-0.0002087	10
	1	13	238359.4	2.845379	1.778308	1	3.355378	32.0046	6.759295E-005	-0.0006901	10
	2	16	189328.1	2.90673	1.177845	1	3.136304	22.05844	-0.0001636	-0.0002138	12
	3	20	150421.9	2.813594	1.08242	1	3.014622	21.04226	1.054363E-006	0.0004602	11
	4	22	119484.4	2.806188	0.8378022	1	2.928584	16.62327	-0.000138	0.0002162	11
	5	25	94921.88	2.801323	0.6368011	1	2.872791	12.80693	-7.160894E-006	0.0005617	11
	6	27	75421.88	2.799048	0.4681786	1	2.837933	9.495589	-4.021443E-005	0.0005744	11
	7	30	59859.37	2.799222	0.3227688	1	2.817769	6.577534	1.726128E-005	0.000648	11
	8	32	47578.12	2.80113	0.1977007	1	2.808098	4.037179	-5.391576E-005	0.0006076	11
	9	35	37828.12	2.805391	0.0833873	1	2.80663	1.702555	1.516696E-005	0.0007107	11
	10	37	30046.88	2.810782	-0.025677	1	2.810899	-0.5233921	-4.547021E-005	0.0006785	11
	11	40	23859.38	2.81666	-0.1353255	1	2.819909	-2.750642	-1.572389E-005	0.0006979	11
	12	42	18984.38	2.824386	-0.2493933	1	2.835376	-5.046129	-2.650662E-005	0.000709	11
	13	45	15046.87	2.832304	-0.3767454	1	2.857251	-7.576852	-5.888015E-006	0.000697	11
	14	47	11953.13	2.845279	-0.5205894	1	2.892512	-10.36849	-3.889231E-005	0.0007074	11
	15	49	9515.62	2.857968	-0.6872123	1	2.939429	-13.52037	-5.11844E-006	0.0007009	11
	16	51	7546.875	2.876033	-0.8892387	1	3.010367	-17.18105	2.033883E-005	0.0007319	11
	17	54	5928.309	2.900501	-1.146319	1	3.118806	-21.56463	-4.287796E-005	0.0006879	11
	18	56	4733.456	2.92848	-1.439037	1	3.262947	-26.16921	-3.515979E-005	0.0006941	11
	19	58	3796.875	2.963364	-1.788558	1	3.461281	-31.11336	-1.803149E-005	0.0007201	11
	20	61	2987.132	3.0107	-2.256144	1	3.762247	-36.84697	1.485952E-005	0.0007278	11
	21	63	2390.625	3.070461	-2.796156	1	4.152857	-42.32298	-1.495983E-005	0.000671	10
	22	65	1884.191	3.147769	-3.505004	1	4.710998	-48.07367	3.501215E-006	0.0006889	10
	23	68	1516.544	3.237366	-4.302382	1	5.384332	-53.04003	1.953581E-005	0.0006824	10
	24	70	1193.986	3.364405	-5.387569	1	6.351781	-58.01623	3.728219E-006	0.0006603	10
	25	72	946.5144	3.516054	-6.701864	1	7.568197	-62.31678	1.997558E-005	0.0006883	10
	26	75	751.7689	3.718816	-8.303641	1	9.098354	-65.87461	3.385285E-006	0.0006557	10
	27	77	597.4265	3.972781	-10.28688	1	11.02737	-68.8835	9.767627E-006	0.0006526	10
	28	79	477.4305	4.280478	-12.66391	1	13.36776	-71.32444	-2.41664E-006	0.0006821	10
	29	82	376.6741	4.697247	-15.76808	1	16.45286	-73.41142	-3.085878E-006	0.000684	10
	30	84	298.2954	5.217098	-19.55388	1	20.23789	-75.06111	-2.993036E-006	0.0006882	10
	31	86	237.7717	5.853479	-24.08713	1	24.78816	-76.34116	-3.265325E-006	0.0006821	10
	32	89	189.0121	6.662844	-29.73912	1	30.47636	-77.37181	-2.766988E-006	0.0006804	10
	33	91	150.2404	7.671293	-36.69011	1	37.4835	-78.19053	-2.834442E-006	0.0006882	10
	34	94	119.1737	8.932893	-45.29552	1	46.16796	-78.84366	1.927229E-007	0.0001068	9
	35	96	95.0169	10.4887	-55.68858	1	56.66772	-79.33354	1.437794E-007	8.267502E-005	9
	36	98	75.60484	12.44213	-68.6001	1	69.71929	-79.7199	2.335888E-008	8.366544E-005	9
	37	101	54.50582	16.12964	-92.45472	1	93.85116	-80.10378	-5.149926E-008	7.984928E-005	9
	38	104	45.95588	18.61591	-108.0443	1	109.6363	-80.22399	3.459872E-007	8.561065E-005	9
	39	106	37.20238	22.37318	-131.0619	1	132.9579	-80.31259	1.960387E-007	8.172389E-005	9
	40	108	30.04808	27.20141	-159.2866	1	161.5925	-80.30907	4.976252E-008	9.150909E-005	9
	41	111	23.91582	33.87869	-196.2662	1	199.1687	-80.20634	1.426456E-007	8.807172E-005	9
	42	113	18.60119	43.60048	-246.4879	1	250.3144	-79.96889	3.419251E-007	9.295411E-005	9
	43	115	15.02404	54.64754	-299.3415	1	304.2888	-79.65406	3.124997E-007	8.092332E-005	9
	44	118	12.01923	70.04183	-366.2748	1	372.9116	-79.17416	2.547828E-007	8.329323E-005	9
	45	120	9.450605	92.08458	-452.6954	1	461.9662	-78.50211	-1.789024E-007	0.000666	8
	46	123	7.512019	121.4736	-555.2837	1	568.4152	-77.66039	-1.927883E-007	0.0006784	8
	47	125	5.978954	161.3796	-678.7813	1	697.7015	-76.62627	-2.58558E-007	0.0006676	8
	48	128	4.734848	217.422	-830.8894	1	858.8652	-75.33599	-1.476955E-007	0.0006948	8
	49	132	3.75601	294.4637	-1010.896	1	1052.91	-73.75969	-3.171172E-007	0.0006504	8
	50	135	3.004808	395.3994	-1213.875	1	1276.649	-71.95785	-2.599238E-007	0.0006763	8
	51	139	2.372217	543.4405	-1461.077	1	1558.869	-69.59756	-2.681067E-007	0.0007012	8
	52	143	1.878005	741.2858	-1742.301	1	1893.44	-66.952	-3.373517E-007	0.0006507	8
	53	148	1.512097	977.68	-2021.599	1	2245.6	-64.1908	-2.878022E-007	0.000627	8
	54	153	1.201923	1310.66	-2333.994	1	2676.818	-60.68351	-3.006192E-007	0.0006449	8
	55	159	0.956633	1719.597	-2636.782	1	3147.957	-56.88932	-3.892526E-007	2.592099E-005	8
