EXPLAIN
TAG	EISPOT
TITLE	LABEL	Potentiostatic EIS	Test Identifier
DATE	LABEL	2/25/2021	Date
TIME	LABEL	1:55:37	Time
NOTES	NOTES	1	Notes...
	
PSTAT	PSTAT	REF3000-16137	Potentiostat
VDC	POTEN	0.00000E+000	T	DC Voltage (V)
FREQINIT	QUANT	3.00000E+005	Initial Freq. (Hz)
FREQFINAL	QUANT	1.00000E+000	Final Freq. (Hz)
PTSPERDEC	QUANT	1.00000E+001	Points/decade
VAC	QUANT	5.00000E+001	AC Voltage (mV rms)
AREA	QUANT	1.00000E+000	Sample Area (cm^2)
SPEED	SELECTOR	2	Optimize for:
ZGUESS	QUANT	1.00000E+003	Estimated Z (ohms)
EOC	QUANT	0	Open Circuit (V)
SEQUENCER	TOGGLE	TRUE	Run as Sequence
PSTATMODEL	IQUANT	5	Pstat Model
PSTATSECTION	LABEL	REF3000-16137	Pstat Section
PSTATSERIALNO	LABEL	16137	Pstat Serial Number
CTRLMODE	IQUANT	1	Control Mode
IESTAB	IQUANT	0	I/E Stability
CASPEED	IQUANT	1	Control Amp Speed
CONVENTION	IQUANT	1	Current Convention
ICHRANGE	IQUANT	2	Ich Range
ICHRANGEMODE	TOGGLE	F	Ich Auto Range
ICHOFFSETENABLE	TOGGLE	T	Ich Offset Enable
ICHOFFSET	QUANT	0	Ich Offset (V)
ICHFILTER	IQUANT	3	Ich Filter
VCHRANGE	IQUANT	2	Vch Range
VCHRANGEMODE	TOGGLE	F	Vch Auto Range
VCHOFFSETENABLE	TOGGLE	T	Vch Offset Enable
VCHOFFSET	QUANT	0	Vch Offset (V)
VCHFILTER	IQUANT	3	Vch Filter
ACHRANGE	IQUANT	2	Ach Range
ACHOFFSETENABLE	TOGGLE	F	Ach Offset Enable
ACHOFFSET	QUANT	0	Ach Offset (V)
ACHFILTER	IQUANT	3	Ach Filter
IERANGELOWERLIMIT	IQUANT	2	I/E Range Lower Limit
IERANGEMODE	TOGGLE	F	I/E AutoRange
IERANGE	IQUANT	11	I/E Range
POSFEEDENABLE	TOGGLE	F	Positive Feedback IR Comp
POSFEEDRESISTANCE	QUANT	0	Positive Feedback Resistance (ohm)
ACHSELECT	IQUANT	0	Ach Select
CABLEID	IQUANT	13	Cable ID
DCCALDATE	LABEL	7/31/2020	DC Calibration Date
ACCALDATE	LABEL	7/31/2020	AC Calibration Date
THERMOSELECT	IQUANT	1	Thermo Select
FRAMEWORKVERSION	QUANT	6.33	Framework Version
INSTRUMENTVERSION	LABEL	3.50	Instrument Version
COMPLIANCEVOLTAGE	IQUANT	0	Compliance Voltage
ZCURVE	TABLE
	Pt	Time	Freq	Zreal	Zimag	Zsig	Zmod	Zphz	Idc	Vdc	IERange
	#	s	Hz	ohm	ohm	V	ohm	°	A	V	#
	0	7	300046.9	138.1976	-2.600629	1	138.2221	-1.078076	-4.959653E-006	0.0009729	9
	1	10	238359.4	139.3175	-2.477324	1	139.3395	-1.018718	4.891208E-005	-0.0004835	9
	2	13	189328.1	139.9684	-1.97716	1	139.9824	-0.8092924	1.803135E-005	-0.000497	9
	3	16	150421.9	141.5752	-1.935375	1	141.5884	-0.7832016	1.224069E-005	-0.0007211	9
	4	19	119484.4	142.4336	-1.645976	1	142.4431	-0.6620857	-1.10136E-005	0.0011439	9
	5	21	94921.88	143.129	-1.273345	1	143.1347	-0.5097175	-2.146166E-005	0.0006102	9
	6	24	75421.88	143.9358	-1.202871	1	143.9409	-0.4788095	2.131156E-006	0.0005407	9
	7	26	59859.37	144.8427	-1.16612	1	144.8474	-0.461275	-6.819916E-006	0.0007968	9
	8	29	47578.12	145.5529	-1.055275	1	145.5568	-0.4153935	-1.707572E-005	0.000375	9
	9	32	37828.12	146.4141	-1.042514	1	146.4178	-0.407957	-1.401253E-005	0.0009225	9
	10	34	30046.88	147.2694	-1.122138	1	147.2737	-0.4365638	-9.945988E-006	-2.041144E-005	9
	11	37	23859.38	147.9675	-1.072822	1	147.9713	-0.4154095	-1.966449E-005	0.0004554	9
	12	39	18984.38	148.6755	-1.047851	1	148.6792	-0.4038087	2.171339E-005	-0.0007532	9
	13	41	15046.87	149.4912	-1.153324	1	149.4957	-0.4420279	2.254215E-005	-0.0002731	9
	14	44	11953.13	150.1941	-1.401971	1	150.2007	-0.5348057	2.468846E-005	-0.0007	9
	15	46	9515.62	150.9494	-1.584009	1	150.9577	-0.6012195	-2.247099E-005	0.00082	9
	16	48	7546.875	151.916	-1.911671	1	151.928	-0.7209568	-1.064054E-006	-0.0003034	9
	17	50	5928.309	152.4106	-2.298622	1	152.428	-0.8640561	1.958536E-005	-0.0000953	9
	18	53	4733.456	153.1925	-2.817621	1	153.2184	-1.053705	-2.109813E-005	0.0005233	9
	19	55	3796.875	154.1228	-3.373663	1	154.1598	-1.253972	1.465318E-005	-0.0007129	9
	20	57	2987.132	154.928	-4.269011	1	154.9868	-1.578374	2.352668E-005	-0.0006935	9
	21	60	2390.625	155.8318	-5.175013	1	155.9178	-1.902034	2.541387E-005	-0.0006062	9
	22	62	1884.191	156.4372	-6.123404	1	156.557	-2.241577	2.471143E-005	-0.0007085	9
	23	64	1516.544	157.6471	-7.629808	1	157.8316	-2.770841	2.446926E-005	-0.0004217	9
	24	67	1193.986	158.4796	-9.5571	1	158.7675	-3.451037	-2.220186E-005	0.0006993	9
	25	69	946.5144	159.6896	-11.79382	1	160.1245	-4.223892	-1.481567E-005	0.0009638	9
	26	72	751.7689	160.414	-14.73032	1	161.0889	-5.246578	2.021687E-005	-0.0007413	9
	27	74	597.4265	161.8089	-18.15336	1	162.8241	-6.401254	-2.102767E-005	0.0005239	9
	28	76	477.4305	163.0816	-22.49399	1	164.6256	-7.853302	1.286858E-006	8.775896E-005	9
	29	79	376.6741	164.5161	-28.06771	1	166.8932	-9.68188	1.274271E-006	8.216003E-005	9
	30	81	298.2954	166.1038	-34.90211	1	169.731	-11.86649	1.363153E-006	8.546733E-005	9
	31	83	237.7717	167.9374	-43.13259	1	173.388	-14.40435	1.263895E-006	8.135861E-005	9
	32	86	189.0121	170.0842	-53.4201	1	178.2761	-17.43647	1.296927E-006	8.401869E-005	9
	33	88	150.2404	172.6306	-66.12311	1	184.861	-20.95845	1.365998E-006	8.147034E-005	9
	34	91	119.1737	175.7024	-81.94232	1	193.8708	-25.00293	1.274077E-006	8.507379E-005	9
	35	93	95.0169	179.3605	-100.9307	1	205.8087	-29.36755	1.245871E-006	8.794308E-005	9
	36	95	75.60484	183.8699	-124.4351	1	222.0186	-34.08842	1.299269E-006	7.950154E-005	9
	37	98	54.50582	191.7075	-167.4661	1	254.5519	-41.13884	1.296831E-006	7.482946E-005	9
	38	100	45.95588	197.1538	-195.4212	1	277.5951	-44.74714	1.321259E-006	8.149342E-005	9
	39	103	37.20238	204.6664	-236.347	1	312.6472	-49.10883	1.26472E-006	8.780799E-005	9
	40	105	30.04808	213.663	-286.3156	1	357.2513	-53.26786	1.311389E-006	8.830595E-005	9
	41	108	23.91582	224.0029	-349.878	1	415.4418	-57.37135	1.524421E-007	0.0006502	8
	42	110	18.60119	238.5384	-438.3318	1	499.0344	-61.44514	2.163196E-007	0.0006578	8
	43	112	15.02404	253.3766	-531.1047	1	588.4487	-64.49537	1.330061E-007	0.0006586	8
	44	115	12.01923	271.8098	-649.5547	1	704.1321	-67.29285	1.637852E-007	0.0006604	8
	45	117	9.450605	295.4827	-807.5568	1	859.9174	-69.90257	1.270014E-007	0.0006723	8
	46	121	7.512019	323.471	-995.15	1	1046.402	-71.99337	1.762334E-007	0.0006485	8
	47	123	5.978954	356.3465	-1224.505	1	1275.302	-73.77433	1.936117E-007	0.0006547	8
	48	126	4.734848	397.5513	-1516.625	1	1567.864	-75.31158	1.576349E-007	0.0006433	8
	49	130	3.75601	447.9677	-1874.204	1	1926.997	-76.5575	1.772343E-007	0.0006669	8
	50	133	3.004808	507.5484	-2297.179	1	2352.581	-77.54099	1.402944E-007	0.0006786	8
	51	137	2.372217	590.1807	-2850.72	1	2911.171	-78.30338	1.46005E-007	0.0006303	8
	52	141	1.878005	686.5496	-3541.132	1	3607.072	-79.0277	1.780263E-007	0.0006536	8
	53	146	1.512097	794.9399	-4321.497	1	4394.003	-79.57696	-3.691603E-009	0.0006733	7
	54	151	1.201923	949.0578	-5351.494	1	5434.998	-79.94347	1.801212E-008	0.0006486	7
	55	157	0.956633	1133.88	-6596.673	1	6693.414	-80.24693	-1.789116E-009	-1.205111E-005	7
