EXPLAIN
TAG	EISPOT
TITLE	LABEL	Potentiostatic EIS	Test Identifier
DATE	LABEL	2/25/2021	Date
TIME	LABEL	1:16:53	Time
NOTES	NOTES	1	Notes...
	
PSTAT	PSTAT	REF3000-16137	Potentiostat
VDC	POTEN	0.00000E+000	T	DC Voltage (V)
FREQINIT	QUANT	3.00000E+005	Initial Freq. (Hz)
FREQFINAL	QUANT	1.00000E+000	Final Freq. (Hz)
PTSPERDEC	QUANT	1.00000E+001	Points/decade
VAC	QUANT	5.00000E+001	AC Voltage (mV rms)
AREA	QUANT	1.00000E+000	Sample Area (cm^2)
SPEED	SELECTOR	2	Optimize for:
ZGUESS	QUANT	1.00000E+003	Estimated Z (ohms)
EOC	QUANT	0	Open Circuit (V)
SEQUENCER	TOGGLE	TRUE	Run as Sequence
PSTATMODEL	IQUANT	5	Pstat Model
PSTATSECTION	LABEL	REF3000-16137	Pstat Section
PSTATSERIALNO	LABEL	16137	Pstat Serial Number
CTRLMODE	IQUANT	1	Control Mode
IESTAB	IQUANT	0	I/E Stability
CASPEED	IQUANT	1	Control Amp Speed
CONVENTION	IQUANT	1	Current Convention
ICHRANGE	IQUANT	2	Ich Range
ICHRANGEMODE	TOGGLE	F	Ich Auto Range
ICHOFFSETENABLE	TOGGLE	T	Ich Offset Enable
ICHOFFSET	QUANT	0	Ich Offset (V)
ICHFILTER	IQUANT	3	Ich Filter
VCHRANGE	IQUANT	2	Vch Range
VCHRANGEMODE	TOGGLE	F	Vch Auto Range
VCHOFFSETENABLE	TOGGLE	T	Vch Offset Enable
VCHOFFSET	QUANT	0	Vch Offset (V)
VCHFILTER	IQUANT	3	Vch Filter
ACHRANGE	IQUANT	2	Ach Range
ACHOFFSETENABLE	TOGGLE	F	Ach Offset Enable
ACHOFFSET	QUANT	0	Ach Offset (V)
ACHFILTER	IQUANT	3	Ach Filter
IERANGELOWERLIMIT	IQUANT	2	I/E Range Lower Limit
IERANGEMODE	TOGGLE	F	I/E AutoRange
IERANGE	IQUANT	11	I/E Range
POSFEEDENABLE	TOGGLE	F	Positive Feedback IR Comp
POSFEEDRESISTANCE	QUANT	0	Positive Feedback Resistance (ohm)
ACHSELECT	IQUANT	0	Ach Select
CABLEID	IQUANT	13	Cable ID
DCCALDATE	LABEL	7/31/2020	DC Calibration Date
ACCALDATE	LABEL	7/31/2020	AC Calibration Date
THERMOSELECT	IQUANT	1	Thermo Select
FRAMEWORKVERSION	QUANT	6.33	Framework Version
INSTRUMENTVERSION	LABEL	3.50	Instrument Version
COMPLIANCEVOLTAGE	IQUANT	0	Compliance Voltage
ZCURVE	TABLE
	Pt	Time	Freq	Zreal	Zimag	Zsig	Zmod	Zphz	Idc	Vdc	IERange
	#	s	Hz	ohm	ohm	V	ohm	°	A	V	#
	0	8	300046.9	7.399807	2.207144	1	7.721958	16.60829	-9.388394E-005	0.0000995	10
	1	11	238359.4	7.381403	1.736626	1	7.582941	13.23923	2.648498E-005	0.0001391	10
	2	14	189328.1	7.378555	1.368846	1	7.504453	10.50985	-1.606626E-005	0.0002761	10
	3	17	150421.9	7.385568	1.076773	1	7.463649	8.294947	2.857677E-005	0.0005727	10
	4	19	119484.4	7.390597	0.8203216	1	7.435984	6.333638	-2.492673E-005	0.0004545	10
	5	22	94921.88	7.40057	0.6401053	1	7.428201	4.943441	-2.575163E-005	0.0006142	10
	6	24	75421.88	7.407644	0.4593763	1	7.421875	3.548586	-8.201401E-006	0.0005797	10
	7	27	59859.37	7.422038	0.301901	1	7.428175	2.329296	5.764648E-006	0.0006009	10
	8	30	47578.12	7.438877	0.1651036	1	7.440709	1.271454	-4.58764E-006	0.0006239	10
	9	32	37828.12	7.457495	0.039972	1	7.457603	0.3071009	4.550246E-006	0.0006237	10
	10	35	30046.88	7.47632	-0.0798461	1	7.476746	-0.6118882	1.631141E-005	0.0006427	10
	11	37	23859.38	7.498241	-0.2017218	1	7.500954	-1.541031	-2.126638E-005	0.0007237	10
	12	39	18984.38	7.518104	-0.330828	1	7.52538	-2.519628	2.072237E-005	0.0006465	10
	13	42	15046.87	7.541936	-0.4773648	1	7.557028	-3.62169	-9.847005E-006	0.0006672	10
	14	44	11953.13	7.570184	-0.6431766	1	7.597458	-4.856291	-1.962513E-005	0.000737	10
	15	46	9515.62	7.59945	-0.8386218	1	7.645582	-6.297279	-2.137499E-005	0.0007547	10
	16	49	7546.875	7.632039	-1.076141	1	7.707535	-8.02597	-8.96819E-006	0.0006666	10
	17	51	5928.309	7.673601	-1.378465	1	7.79643	-10.18384	1.11622E-005	0.000645	10
	18	53	4733.456	7.719787	-1.724608	1	7.910081	-12.59315	4.750216E-006	0.0006901	10
	19	56	3796.875	7.773015	-2.13886	1	8.061915	-15.38503	8.064826E-006	0.0007118	10
	20	58	2987.132	7.842713	-2.692674	1	8.292083	-18.94911	3.890174E-006	0.0006495	10
	21	60	2390.625	7.922863	-3.331669	1	8.59487	-22.8074	2.379872E-005	0.0006914	10
	22	63	1884.191	8.027428	-4.172939	1	9.047266	-27.467	-6.22312E-006	0.0006932	10
	23	65	1516.544	8.146121	-5.118118	1	9.62052	-32.14069	-2.201327E-005	0.0007153	10
	24	67	1193.986	8.306476	-6.400548	1	10.4864	-37.61602	2.040987E-005	0.0006598	10
	25	70	946.5144	8.504005	-7.943552	1	11.63693	-43.04839	2.118154E-005	0.0006543	10
	26	72	751.7689	8.736596	-9.8525	1	13.16814	-48.43533	1.40206E-005	0.0006846	10
	27	74	597.4265	9.029985	-12.19312	1	15.17276	-53.47708	1.605698E-005	0.0006516	10
	28	77	477.4305	9.383465	-15.01647	1	17.70717	-57.99963	-2.946162E-006	0.0006935	10
	29	79	376.6741	9.84608	-18.70997	1	21.14257	-62.24451	-2.993049E-006	0.0006857	10
	30	81	298.2954	10.41668	-23.23139	1	25.45987	-65.84911	-2.723137E-006	0.0006878	10
	31	84	237.7717	11.11427	-28.66855	1	30.74756	-68.80961	-2.236592E-006	0.0006873	10
	32	86	189.0121	11.99741	-35.45725	1	37.432	-71.30611	-2.777444E-006	0.0007126	10
	33	88	150.2404	13.09495	-43.78677	1	45.70294	-73.35009	1.229028E-006	9.036328E-005	9
	34	91	119.1737	14.50928	-54.22414	1	56.13178	-75.01975	1.093329E-006	0.0000956	9
	35	93	95.0169	16.24658	-66.80211	1	68.74935	-76.33078	1.165018E-006	8.857367E-005	9
	36	96	75.60484	18.44573	-82.41501	1	84.454	-77.38425	1.102257E-006	8.454055E-005	9
	37	98	54.50582	22.58468	-111.2325	1	113.5021	-78.52267	1.033275E-006	8.337454E-005	9
	38	101	45.95588	25.32946	-130.0272	1	132.4714	-78.97676	1.222792E-006	0.0000961	9
	39	103	37.20238	29.3968	-157.6681	1	160.3852	-79.43862	1.094599E-006	9.323756E-005	9
	40	106	30.04808	34.39919	-191.5782	1	194.642	-79.82062	1.159699E-006	9.137865E-005	9
	41	108	23.91582	40.98682	-235.8612	1	239.396	-80.14186	9.967949E-007	8.905591E-005	9
	42	110	18.60119	49.98297	-296.3586	1	300.5441	-80.42676	1.084754E-006	0.0001139	9
	43	113	15.02404	59.33891	-359.9701	1	364.8282	-80.63932	1.299072E-006	9.243313E-005	9
	44	115	12.01923	71.25504	-439.2902	1	445.0317	-80.78658	5.414888E-007	0.0006769	8
	45	117	9.450605	87.701	-547.0012	1	553.9871	-80.89126	5.712133E-007	0.0006797	8
	46	120	7.512019	107.1456	-674.3469	1	682.806	-80.97186	5.674705E-007	0.0006896	8
	47	123	5.978954	132.1394	-830.519	1	840.9653	-80.95975	5.630698E-007	0.0006672	8
	48	126	4.734848	165.0255	-1027.725	1	1040.89	-80.87768	5.601955E-007	0.0006923	8
	49	129	3.75601	206.8885	-1269.402	1	1286.151	-80.74326	5.478773E-007	0.0006547	8
	50	132	3.004808	259.2384	-1554.026	1	1575.501	-80.52928	5.371189E-007	0.0006992	8
	51	136	2.372217	333.9865	-1926.001	1	1954.745	-80.16221	5.473656E-007	0.0007379	8
	52	140	1.878005	427.1137	-2380.783	1	2418.792	-79.8293	5.223426E-007	0.0006415	8
	53	145	1.512097	539.0995	-2888.531	1	2938.407	-79.42826	5.64952E-007	0.000625	8
	54	150	1.201923	704.952	-3558.531	1	3627.685	-78.79467	5.319205E-007	0.0006441	8
	55	157	0.956633	924.0942	-4368.562	1	4465.23	-78.05613	-6.303805E-008	-4.381198E-006	7
