EXPLAIN
TAG	EISPOT
TITLE	LABEL	Potentiostatic EIS	Test Identifier
DATE	LABEL	2/25/2021	Date
TIME	LABEL	1:30:44	Time
NOTES	NOTES	1	Notes...
	
PSTAT	PSTAT	REF3000-16137	Potentiostat
VDC	POTEN	0.00000E+000	T	DC Voltage (V)
FREQINIT	QUANT	3.00000E+005	Initial Freq. (Hz)
FREQFINAL	QUANT	1.00000E+000	Final Freq. (Hz)
PTSPERDEC	QUANT	1.00000E+001	Points/decade
VAC	QUANT	5.00000E+001	AC Voltage (mV rms)
AREA	QUANT	1.00000E+000	Sample Area (cm^2)
SPEED	SELECTOR	2	Optimize for:
ZGUESS	QUANT	1.00000E+003	Estimated Z (ohms)
EOC	QUANT	0	Open Circuit (V)
SEQUENCER	TOGGLE	TRUE	Run as Sequence
PSTATMODEL	IQUANT	5	Pstat Model
PSTATSECTION	LABEL	REF3000-16137	Pstat Section
PSTATSERIALNO	LABEL	16137	Pstat Serial Number
CTRLMODE	IQUANT	1	Control Mode
IESTAB	IQUANT	0	I/E Stability
CASPEED	IQUANT	1	Control Amp Speed
CONVENTION	IQUANT	1	Current Convention
ICHRANGE	IQUANT	2	Ich Range
ICHRANGEMODE	TOGGLE	F	Ich Auto Range
ICHOFFSETENABLE	TOGGLE	T	Ich Offset Enable
ICHOFFSET	QUANT	0	Ich Offset (V)
ICHFILTER	IQUANT	3	Ich Filter
VCHRANGE	IQUANT	2	Vch Range
VCHRANGEMODE	TOGGLE	F	Vch Auto Range
VCHOFFSETENABLE	TOGGLE	T	Vch Offset Enable
VCHOFFSET	QUANT	0	Vch Offset (V)
VCHFILTER	IQUANT	3	Vch Filter
ACHRANGE	IQUANT	2	Ach Range
ACHOFFSETENABLE	TOGGLE	F	Ach Offset Enable
ACHOFFSET	QUANT	0	Ach Offset (V)
ACHFILTER	IQUANT	3	Ach Filter
IERANGELOWERLIMIT	IQUANT	2	I/E Range Lower Limit
IERANGEMODE	TOGGLE	F	I/E AutoRange
IERANGE	IQUANT	11	I/E Range
POSFEEDENABLE	TOGGLE	F	Positive Feedback IR Comp
POSFEEDRESISTANCE	QUANT	0	Positive Feedback Resistance (ohm)
ACHSELECT	IQUANT	0	Ach Select
CABLEID	IQUANT	13	Cable ID
DCCALDATE	LABEL	7/31/2020	DC Calibration Date
ACCALDATE	LABEL	7/31/2020	AC Calibration Date
THERMOSELECT	IQUANT	1	Thermo Select
FRAMEWORKVERSION	QUANT	6.33	Framework Version
INSTRUMENTVERSION	LABEL	3.50	Instrument Version
COMPLIANCEVOLTAGE	IQUANT	0	Compliance Voltage
ZCURVE	TABLE
	Pt	Time	Freq	Zreal	Zimag	Zsig	Zmod	Zphz	Idc	Vdc	IERange
	#	s	Hz	ohm	ohm	V	ohm	°	A	V	#
	0	8	300046.9	15.34592	2.072875	1	15.48528	7.692761	-0.000105	0.0001949	10
	1	11	238359.4	15.37738	1.622585	1	15.46275	6.023427	7.319696E-005	1.942684E-005	10
	2	14	189328.1	15.40817	1.277913	1	15.46107	4.741109	-7.330166E-007	0.0005211	10
	3	16	150421.9	15.42802	0.977701	1	15.45897	3.626087	5.926696E-005	0.0004621	10
	4	19	119484.4	15.47639	0.7542939	1	15.49476	2.790294	7.437122E-005	0.0003966	10
	5	21	94921.88	15.51619	0.5776516	1	15.52694	2.132078	-3.034863E-005	0.0006281	10
	6	24	75421.88	15.55839	0.3997388	1	15.56353	1.471766	-1.06803E-005	0.0006965	10
	7	27	59859.37	15.60621	0.2488697	1	15.60819	0.9136093	-1.319961E-005	0.0007115	10
	8	29	47578.12	15.65231	0.115364	1	15.65273	0.422286	-1.69626E-005	0.000656	10
	9	32	37828.12	15.70069	-0.0064196	1	15.70069	-0.0234269	1.447236E-006	0.0006468	10
	10	34	30046.88	15.7495	-0.1325618	1	15.75005	-0.4822409	2.925267E-006	0.0006508	10
	11	37	23859.38	15.79865	-0.2610065	1	15.8008	-0.9464867	3.575184E-006	0.0006556	10
	12	39	18984.38	15.85017	-0.3972909	1	15.85515	-1.435841	-2.300232E-005	0.0007513	10
	13	41	15046.87	15.90066	-0.5536454	1	15.9103	-1.994177	1.154328E-005	0.0006275	10
	14	44	11953.13	15.95694	-0.7376617	1	15.97398	-2.646801	2.005354E-005	0.0006514	10
	15	46	9515.62	16.01727	-0.9493187	1	16.04538	-3.391863	-4.596797E-006	0.00073	10
	16	48	7546.875	16.08139	-1.21175	1	16.12698	-4.309157	-1.706687E-005	0.0006749	10
	17	51	5928.309	16.15396	-1.542506	1	16.22744	-5.45451	-2.791288E-005	0.0007065	10
	18	53	4733.456	16.23123	-1.927093	1	16.34522	-6.770888	2.349702E-005	0.0006578	10
	19	55	3796.875	16.31617	-2.379888	1	16.48882	-8.29868	-1.058537E-005	0.0006748	10
	20	58	2987.132	16.41634	-2.998861	1	16.688	-10.35238	-2.557166E-005	0.0007074	10
	21	60	2390.625	16.53271	-3.707326	1	16.94328	-12.63904	1.761313E-005	0.0007181	10
	22	62	1884.191	16.6691	-4.642828	1	17.30361	-15.56406	-2.740039E-005	0.000711	10
	23	64	1516.544	16.83006	-5.695306	1	17.7676	-18.69586	-2.495216E-005	0.0006946	10
	24	67	1193.986	17.03612	-7.132262	1	18.46885	-22.71688	1.5994E-005	0.0006877	10
	25	69	946.5144	17.28432	-8.868226	1	19.42661	-27.16142	-3.213284E-006	0.0006494	10
	26	72	751.7689	17.58953	-10.9797	1	20.73513	-31.97314	2.307028E-005	0.0006654	10
	27	74	597.4265	17.95442	-13.59095	1	22.51833	-37.12461	1.230662E-005	0.0006326	10
	28	76	477.4305	18.40137	-16.72322	1	24.86517	-42.26466	-2.723145E-006	0.0006827	10
	29	79	376.6741	18.97709	-20.80796	1	28.16205	-47.63485	-2.145846E-006	0.0006781	10
	30	81	298.2954	19.66482	-25.78954	1	32.43155	-52.67406	-2.451628E-006	0.0006839	10
	31	83	237.7717	20.48103	-31.76784	1	37.79773	-57.18973	-2.427151E-006	0.0006861	10
	32	86	189.0121	21.4591	-39.18712	1	44.67799	-61.29462	1.263236E-006	8.494667E-005	9
	33	88	150.2404	22.68668	-48.40566	1	53.45833	-64.88853	1.269193E-006	8.091021E-005	9
	34	90	119.1737	24.2136	-59.92204	1	64.62932	-67.9971	1.240193E-006	7.902881E-005	9
	35	93	95.0169	26.06403	-73.83121	1	78.29675	-70.55585	1.224778E-006	7.750788E-005	9
	36	95	75.60484	28.38361	-91.14185	1	95.4592	-72.70225	1.257944E-006	7.615772E-005	9
	37	98	54.50582	32.71898	-123.1878	1	127.4588	-75.12552	1.218807E-006	7.986868E-005	9
	38	100	45.95588	35.62709	-144.1534	1	148.4907	-76.1177	1.186544E-006	9.156384E-005	9
	39	103	37.20238	39.93734	-175.0594	1	179.5572	-77.14871	1.227401E-006	7.766152E-005	9
	40	105	30.04808	45.31166	-212.9848	1	217.7514	-77.98962	1.152928E-006	8.249264E-005	9
	41	108	23.91582	52.49417	-262.5963	1	267.7918	-78.69533	1.216151E-006	8.52124E-005	9
	42	110	18.60119	62.37153	-330.3802	1	336.2161	-79.30912	1.255209E-006	8.744643E-005	9
	43	112	15.02404	72.93022	-401.5143	1	408.084	-79.70515	1.327572E-006	0.0000981	9
	44	114	12.01923	86.07628	-489.9912	1	497.4942	-80.03657	4.647637E-007	0.0006649	8
	45	117	9.450605	103.9949	-609.8688	1	618.6719	-80.323	5.568099E-007	0.0006646	8
	46	119	7.512019	125.0348	-751.7472	1	762.0745	-80.55669	5.437547E-007	0.0006825	8
	47	122	5.978954	150.8385	-924.7166	1	936.9381	-80.73558	5.477225E-007	0.0006622	8
	48	125	4.734848	183.555	-1143.373	1	1158.013	-80.87965	5.81759E-007	0.0006904	8
	49	128	3.75601	224.0192	-1411.931	1	1429.592	-80.98451	5.352091E-007	0.0006509	8
	50	132	3.004808	272.8079	-1729.203	1	1750.591	-81.03462	5.744713E-007	0.0006732	8
	51	136	2.372217	341.0251	-2146.111	1	2173.038	-80.97098	5.739948E-007	0.0007275	8
	52	140	1.878005	420.6591	-2657.949	1	2691.031	-81.0067	5.433876E-007	0.000639	8
	53	145	1.512097	514.597	-3231.387	1	3272.105	-80.95165	5.84194E-007	0.0006479	8
	54	150	1.201923	648.1899	-3995.805	1	4048.038	-80.78588	5.567551E-007	0.0006329	8
	55	156	0.956633	820.1204	-4928.389	1	4996.16	-80.55213	1.480392E-008	-6.160156E-006	7
