EXPLAIN
TAG	EISPOT
TITLE	LABEL	Potentiostatic EIS	Test Identifier
DATE	LABEL	2/25/2021	Date
TIME	LABEL	2:04:18	Time
NOTES	NOTES	1	Notes...
	
PSTAT	PSTAT	REF3000-16137	Potentiostat
VDC	POTEN	0.00000E+000	T	DC Voltage (V)
FREQINIT	QUANT	3.00000E+005	Initial Freq. (Hz)
FREQFINAL	QUANT	1.00000E+000	Final Freq. (Hz)
PTSPERDEC	QUANT	1.00000E+001	Points/decade
VAC	QUANT	5.00000E+001	AC Voltage (mV rms)
AREA	QUANT	1.00000E+000	Sample Area (cm^2)
SPEED	SELECTOR	2	Optimize for:
ZGUESS	QUANT	1.00000E+003	Estimated Z (ohms)
EOC	QUANT	0	Open Circuit (V)
SEQUENCER	TOGGLE	TRUE	Run as Sequence
PSTATMODEL	IQUANT	5	Pstat Model
PSTATSECTION	LABEL	REF3000-16137	Pstat Section
PSTATSERIALNO	LABEL	16137	Pstat Serial Number
CTRLMODE	IQUANT	1	Control Mode
IESTAB	IQUANT	0	I/E Stability
CASPEED	IQUANT	1	Control Amp Speed
CONVENTION	IQUANT	1	Current Convention
ICHRANGE	IQUANT	2	Ich Range
ICHRANGEMODE	TOGGLE	F	Ich Auto Range
ICHOFFSETENABLE	TOGGLE	T	Ich Offset Enable
ICHOFFSET	QUANT	0	Ich Offset (V)
ICHFILTER	IQUANT	3	Ich Filter
VCHRANGE	IQUANT	2	Vch Range
VCHRANGEMODE	TOGGLE	F	Vch Auto Range
VCHOFFSETENABLE	TOGGLE	T	Vch Offset Enable
VCHOFFSET	QUANT	0	Vch Offset (V)
VCHFILTER	IQUANT	3	Vch Filter
ACHRANGE	IQUANT	2	Ach Range
ACHOFFSETENABLE	TOGGLE	F	Ach Offset Enable
ACHOFFSET	QUANT	0	Ach Offset (V)
ACHFILTER	IQUANT	3	Ach Filter
IERANGELOWERLIMIT	IQUANT	2	I/E Range Lower Limit
IERANGEMODE	TOGGLE	F	I/E AutoRange
IERANGE	IQUANT	11	I/E Range
POSFEEDENABLE	TOGGLE	F	Positive Feedback IR Comp
POSFEEDRESISTANCE	QUANT	0	Positive Feedback Resistance (ohm)
ACHSELECT	IQUANT	0	Ach Select
CABLEID	IQUANT	13	Cable ID
DCCALDATE	LABEL	7/31/2020	DC Calibration Date
ACCALDATE	LABEL	7/31/2020	AC Calibration Date
THERMOSELECT	IQUANT	1	Thermo Select
FRAMEWORKVERSION	QUANT	6.33	Framework Version
INSTRUMENTVERSION	LABEL	3.50	Instrument Version
COMPLIANCEVOLTAGE	IQUANT	0	Compliance Voltage
ZCURVE	TABLE
	Pt	Time	Freq	Zreal	Zimag	Zsig	Zmod	Zphz	Idc	Vdc	IERange
	#	s	Hz	ohm	ohm	V	ohm	°	A	V	#
	0	15	300046.9	446.6713	-59.24931	1	450.5838	-7.555966	1.98848E-005	-0.0020417	9
	1	22	238359.4	458.6947	-50.74021	1	461.4926	-6.312322	-8.845259E-005	0.0021723	9
	2	29	189328.1	467.7826	-46.9967	1	470.1375	-5.737082	2.496441E-005	0.000872	9
	3	37	150421.9	482.6683	-36.6942	1	484.0611	-4.347471	7.937744E-005	-0.0030114	9
	4	44	119484.4	490.702	-31.42661	1	491.7073	-3.664457	1.559986E-005	-0.001737	9
	5	49	94921.88	495.504	-11.95695	1	495.6483	-1.38233	1.604997E-005	-0.0044931	8
	6	51	75421.88	500.323	-10.45169	1	500.4322	-1.196728	-1.446146E-005	0.0041066	8
	7	54	59859.37	502.756	-8.712834	1	502.8315	-0.992845	-1.118495E-005	0.0015202	8
	8	57	47578.12	507.4496	-8.465531	1	507.5202	-0.955749	-1.315577E-005	0.0035298	8
	9	59	37828.12	510.1521	-6.96139	1	510.1996	-0.7817934	-1.474333E-005	0.0041812	8
	10	62	30046.88	514.4786	-6.225047	1	514.5162	-0.6932291	8.698288E-006	-0.0050888	8
	11	64	23859.38	517.3118	-5.002599	1	517.3359	-0.5540544	-1.306372E-005	0.0066742	8
	12	66	18984.38	520.6753	-4.624525	1	520.6958	-0.5088753	-1.376439E-005	0.0028172	8
	13	69	15046.87	524.9897	-6.446548	1	525.0293	-0.7035212	1.583998E-005	-0.0023295	8
	14	71	11953.13	527.9052	-5.151956	1	527.9303	-0.5591459	-1.496233E-005	0.0041336	8
	15	73	9515.62	531.2587	-4.274008	1	531.2759	-0.460938	1.236598E-006	0.0040744	8
	16	76	7546.875	534.0731	-4.047463	1	534.0884	-0.4342068	-1.318412E-005	0.0030199	8
	17	78	5928.309	539.7631	-3.60217	1	539.7751	-0.3823642	1.265322E-005	-0.0055881	8
	18	81	4733.456	542.8619	-3.417037	1	542.8726	-0.3606428	1.546791E-005	-0.0021947	8
	19	83	3796.875	546.2433	-3.557748	1	546.2549	-0.373169	8.749916E-006	-0.0052635	8
	20	85	2987.132	549.7392	-3.899745	1	549.7531	-0.4064385	-1.61066E-005	0.0055384	8
	21	88	2390.625	551.8504	-6.530686	1	551.889	-0.6780158	-1.348121E-005	0.0027602	8
	22	90	1884.191	557.8629	-7.47689	1	557.913	-0.7678742	6.964051E-006	0.0019963	8
	23	92	1516.544	560.043	-8.048967	1	560.1009	-0.8234012	7.918827E-006	-0.0049377	8
	24	95	1193.986	562.8148	-11.33555	1	562.929	-1.153827	-8.051051E-006	-0.0001884	8
	25	97	946.5144	565.8196	-15.1874	1	566.0234	-1.537531	-8.030651E-006	-4.850339E-005	8
	26	100	751.7689	572.1656	-16.09778	1	572.392	-1.611582	-1.572147E-005	0.0043789	8
	27	102	597.4265	572.8354	-21.88092	1	573.2532	-2.187496	-1.157133E-005	0.0015095	8
	28	104	477.4305	578.7799	-26.57273	1	579.3896	-2.628697	-1.71989E-008	0.0006617	8
	29	107	376.6741	583.131	-33.01312	1	584.0648	-3.240259	-7.599044E-009	0.0006553	8
	30	109	298.2954	587.5679	-40.93796	1	588.9923	-3.985562	-1.455126E-008	0.0006735	8
	31	111	237.7717	592.435	-50.52962	1	594.5859	-4.87504	-1.57655E-008	0.0006696	8
	32	114	189.0121	597.642	-62.54045	1	600.9053	-5.973994	-3.326951E-008	0.0006656	8
	33	116	150.2404	603.2079	-77.44131	1	608.1587	-7.315755	8.908239E-009	0.000655	8
	34	119	119.1737	609.3258	-96.1085	1	616.8588	-8.963378	-1.779233E-008	0.0006643	8
	35	121	95.0169	615.9902	-118.6979	1	627.3221	-10.90689	1.21345E-008	0.0006558	8
	36	124	75.60484	623.7461	-146.8584	1	640.8015	-13.24875	-3.102741E-008	0.0006591	8
	37	126	54.50582	635.0234	-198.9463	1	665.4581	-17.39524	4.237206E-009	0.0006405	8
	38	129	45.95588	643.9564	-233.0606	1	684.8336	-19.8962	-1.719237E-008	0.0006691	8
	39	131	37.20238	655.2593	-283.2569	1	713.8622	-23.37797	-6.852042E-008	0.0006627	8
	40	133	30.04808	669.0558	-344.6286	1	752.5985	-27.25286	4.783196E-010	0.0006512	8
	41	136	23.91582	686.3224	-424.4356	1	806.9597	-31.73348	-2.123098E-008	0.000662	8
	42	138	18.60119	708.6513	-532.942	1	886.687	-36.94503	3.781908E-008	0.0006692	8
	43	140	15.02404	732.9562	-645.489	1	976.668	-41.36925	-3.548188E-008	0.000641	8
	44	143	12.01923	763.0395	-788.2103	1	1097.044	-45.92961	-8.943481E-008	0.0006682	8
	45	145	9.450605	801.2271	-976.055	1	1262.794	-50.61802	2.761615E-008	0.0006558	8
	46	148	7.512019	844.8191	-1196.4	1	1464.614	-54.77278	1.085223E-009	0.0006796	8
	47	151	5.978954	897.2968	-1464.821	1	1717.802	-58.50986	-5.025058E-009	0.0006521	8
	48	154	4.734848	960.498	-1803.804	1	2043.591	-61.96538	-4.944317E-008	0.0006471	8
	49	157	3.75601	1034.337	-2216.15	1	2445.644	-64.98027	-1.533381E-008	0.0006825	8
	50	160	3.004808	1118.523	-2704.12	1	2926.322	-67.52823	7.649414E-010	0.0006713	8
	51	164	2.372217	1224.079	-3337.884	1	3555.255	-69.86086	-3.150805E-008	0.0006609	8
	52	168	1.878005	1357.86	-4135.985	1	4353.178	-71.82479	-8.555482E-009	0.0006123	7
	53	173	1.512097	1494.582	-5034.959	1	5252.103	-73.46696	-1.866159E-008	0.0007235	7
	54	178	1.201923	1678.328	-6211.574	1	6434.317	-74.88008	-8.553455E-009	0.0006254	7
	55	185	0.956633	1891.518	-7649.377	1	7879.772	-76.11067	-2.730202E-008	-1.396509E-005	7
