EXPLAIN
TAG	EISPOT
TITLE	LABEL	Potentiostatic EIS	Test Identifier
DATE	LABEL	2/25/2021	Date
TIME	LABEL	1:11:17	Time
NOTES	NOTES	1	Notes...
	
PSTAT	PSTAT	REF3000-16137	Potentiostat
VDC	POTEN	0.00000E+000	T	DC Voltage (V)
FREQINIT	QUANT	3.00000E+005	Initial Freq. (Hz)
FREQFINAL	QUANT	1.00000E+000	Final Freq. (Hz)
PTSPERDEC	QUANT	1.00000E+001	Points/decade
VAC	QUANT	5.00000E+001	AC Voltage (mV rms)
AREA	QUANT	1.00000E+000	Sample Area (cm^2)
SPEED	SELECTOR	2	Optimize for:
ZGUESS	QUANT	1.00000E+003	Estimated Z (ohms)
EOC	QUANT	0	Open Circuit (V)
SEQUENCER	TOGGLE	TRUE	Run as Sequence
PSTATMODEL	IQUANT	5	Pstat Model
PSTATSECTION	LABEL	REF3000-16137	Pstat Section
PSTATSERIALNO	LABEL	16137	Pstat Serial Number
CTRLMODE	IQUANT	1	Control Mode
IESTAB	IQUANT	0	I/E Stability
CASPEED	IQUANT	1	Control Amp Speed
CONVENTION	IQUANT	1	Current Convention
ICHRANGE	IQUANT	2	Ich Range
ICHRANGEMODE	TOGGLE	F	Ich Auto Range
ICHOFFSETENABLE	TOGGLE	T	Ich Offset Enable
ICHOFFSET	QUANT	0	Ich Offset (V)
ICHFILTER	IQUANT	3	Ich Filter
VCHRANGE	IQUANT	2	Vch Range
VCHRANGEMODE	TOGGLE	F	Vch Auto Range
VCHOFFSETENABLE	TOGGLE	T	Vch Offset Enable
VCHOFFSET	QUANT	0	Vch Offset (V)
VCHFILTER	IQUANT	3	Vch Filter
ACHRANGE	IQUANT	2	Ach Range
ACHOFFSETENABLE	TOGGLE	F	Ach Offset Enable
ACHOFFSET	QUANT	0	Ach Offset (V)
ACHFILTER	IQUANT	3	Ach Filter
IERANGELOWERLIMIT	IQUANT	2	I/E Range Lower Limit
IERANGEMODE	TOGGLE	F	I/E AutoRange
IERANGE	IQUANT	11	I/E Range
POSFEEDENABLE	TOGGLE	F	Positive Feedback IR Comp
POSFEEDRESISTANCE	QUANT	0	Positive Feedback Resistance (ohm)
ACHSELECT	IQUANT	0	Ach Select
CABLEID	IQUANT	13	Cable ID
DCCALDATE	LABEL	7/31/2020	DC Calibration Date
ACCALDATE	LABEL	7/31/2020	AC Calibration Date
THERMOSELECT	IQUANT	1	Thermo Select
FRAMEWORKVERSION	QUANT	6.33	Framework Version
INSTRUMENTVERSION	LABEL	3.50	Instrument Version
COMPLIANCEVOLTAGE	IQUANT	0	Compliance Voltage
ZCURVE	TABLE
	Pt	Time	Freq	Zreal	Zimag	Zsig	Zmod	Zphz	Idc	Vdc	IERange
	#	s	Hz	ohm	ohm	V	ohm	°	A	V	#
	0	10	300046.9	5.909534	2.225987	1	6.314872	20.64025	-9.414894E-005	0.0002633	10
	1	13	238359.4	5.890285	1.748262	1	6.144255	16.53112	2.23019E-005	-7.483874E-005	10
	2	16	189328.1	5.881814	1.379695	1	6.041465	13.20118	1.09819E-005	0.0001706	10
	3	19	150421.9	5.8793	1.067869	1	5.975493	10.29452	3.379656E-005	0.0003492	10
	4	21	119484.4	5.875343	0.8290794	1	5.933551	8.03207	2.17403E-005	0.0005541	10
	5	24	94921.88	5.885602	0.6478014	1	5.921145	6.281003	2.506075E-005	0.0005442	10
	6	26	75421.88	5.890395	0.4692133	1	5.909053	4.554414	1.11115E-005	0.0005924	10
	7	29	59859.37	5.8977	0.3136746	1	5.906036	3.04446	-3.166978E-005	0.0005992	10
	8	31	47578.12	5.909008	0.1774037	1	5.911671	1.719651	-2.21225E-005	0.0006185	10
	9	34	37828.12	5.921616	0.0528784	1	5.921852	0.5116218	1.584132E-006	0.0006292	10
	10	37	30046.88	5.937901	-0.0661201	1	5.938269	-0.6379778	7.655524E-006	0.0006228	10
	11	39	23859.38	5.953835	-0.185961	1	5.956738	-1.788984	-1.444663E-005	0.0006817	10
	12	41	18984.38	5.970555	-0.3122739	1	5.978715	-2.993974	-1.428132E-006	0.0007007	10
	13	44	15046.87	5.989567	-0.4543614	1	6.006776	-4.338081	-2.203661E-005	0.0007157	10
	14	46	11953.13	6.010821	-0.6170079	1	6.042406	-5.860857	1.101931E-005	0.000642	10
	15	48	9515.62	6.03578	-0.8057916	1	6.08933	-7.604166	6.980583E-006	0.0007069	10
	16	51	7546.875	6.063681	-1.035816	1	6.151515	-9.69387	-9.463407E-006	0.0006585	10
	17	53	5928.309	6.099802	-1.328418	1	6.242778	-12.28607	-2.593708E-005	0.0006927	10
	18	55	4733.456	6.140082	-1.66207	1	6.36106	-15.14652	1.908739E-005	0.0006721	10
	19	58	3796.875	6.188866	-2.060658	1	6.522911	-18.41581	-2.005635E-005	0.0007374	10
	20	60	2987.132	6.25134	-2.597222	1	6.769403	-22.56124	-4.742677E-006	0.0006609	10
	21	62	2390.625	6.325925	-3.210085	1	7.093798	-26.90547	-1.00267E-005	0.0006842	10
	22	64	1884.191	6.420982	-4.024594	1	7.578019	-32.07899	2.065286E-005	0.0006592	10
	23	67	1516.544	6.529856	-4.937579	1	8.186495	-37.09491	3.910468E-006	0.0006889	10
	24	69	1193.986	6.680297	-6.176469	1	9.098084	-42.75586	1.149055E-005	0.0006451	10
	25	72	946.5144	6.856384	-7.67834	1	10.29402	-48.2367	-3.070557E-005	0.000682	10
	26	74	751.7689	7.080973	-9.51072	1	11.85724	-53.33139	2.167625E-005	0.0006729	10
	27	76	597.4265	7.354715	-11.7838	1	13.89063	-58.03015	-5.572499E-006	0.0006892	10
	28	79	477.4305	7.693938	-14.5142	1	16.42738	-62.07206	-2.77863E-006	0.0006899	10
	29	81	376.6741	8.140609	-18.09057	1	19.8378	-65.77264	-2.651049E-006	0.0006838	10
	30	83	298.2954	8.695963	-22.46569	1	24.08997	-68.8397	-2.251828E-006	0.0006857	10
	31	85	237.7717	9.381559	-27.72363	1	29.26796	-71.3044	-2.593755E-006	0.0006821	10
	32	88	189.0121	10.25244	-34.28178	1	35.78202	-73.34998	-2.710261E-006	0.0006876	10
	33	90	150.2404	11.33618	-42.3218	1	43.81374	-75.00494	1.065502E-006	8.280469E-005	9
	34	93	119.1737	12.73246	-52.38779	1	53.91286	-76.33955	1.038842E-006	9.047351E-005	9
	35	95	95.0169	14.44502	-64.50349	1	66.10113	-77.37734	1.043601E-006	8.516951E-005	9
	36	98	75.60484	16.60678	-79.53339	1	81.24866	-78.20594	9.672647E-007	8.408719E-005	9
	37	100	54.50582	20.6504	-107.2527	1	109.2226	-79.10165	8.926629E-007	8.032768E-005	9
	38	103	45.95588	23.3133	-125.3147	1	127.4648	-79.46129	1.132018E-006	8.282188E-005	9
	39	105	37.20238	27.25151	-151.9315	1	154.3562	-79.83116	1.015406E-006	0.0001023	9
	40	107	30.04808	32.1177	-184.5555	1	187.3293	-80.12784	8.640855E-007	0.0001234	9
	41	110	23.91582	38.37578	-227.0119	1	230.2327	-80.40501	1.008199E-006	8.594673E-005	9
	42	112	18.60119	47.16974	-285.5084	1	289.3787	-80.61873	1.063353E-006	8.162609E-005	9
	43	115	15.02404	56.49067	-346.8733	1	351.4431	-80.7502	1.209118E-006	8.079304E-005	9
	44	117	12.01923	68.26098	-423.5018	1	428.9678	-80.84369	5.455249E-007	0.0006659	8
	45	119	9.450605	84.67281	-527.3654	1	534.1196	-80.87855	4.535565E-007	0.0006613	8
	46	122	7.512019	104.8027	-650.2123	1	658.6043	-80.84369	4.814094E-007	0.0006509	8
	47	125	5.978954	130.323	-800.5945	1	811.1323	-80.75433	4.859695E-007	0.000664	8
	48	128	4.734848	165.0346	-990.405	1	1004.061	-80.53953	5.166311E-007	0.0006514	8
	49	131	3.75601	209.5334	-1222.574	1	1240.399	-80.27473	4.949372E-007	0.0006708	8
	50	134	3.004808	265.8618	-1495.872	1	1519.314	-79.92204	5.357455E-007	0.0006384	8
	51	138	2.372217	343.7518	-1850.434	1	1882.092	-79.47623	5.110024E-007	0.0006143	8
	52	142	1.878005	452.0155	-2282.303	1	2326.634	-78.79741	5.023459E-007	0.0006776	8
	53	147	1.512097	584.7953	-2766.292	1	2827.429	-78.06339	4.928553E-007	0.0005669	8
	54	152	1.201923	767.6918	-3394.034	1	3479.773	-77.25481	5.01161E-007	0.0006924	8
	55	159	0.956633	1015.14	-4145.499	1	4267.981	-76.24031	4.735288E-007	1.929993E-005	8
