EXPLAIN
TAG	EISPOT
TITLE	LABEL	Potentiostatic EIS	Test Identifier
DATE	LABEL	2/25/2021	Date
TIME	LABEL	1:05:41	Time
NOTES	NOTES	1	Notes...
	
PSTAT	PSTAT	REF3000-16137	Potentiostat
VDC	POTEN	0.00000E+000	T	DC Voltage (V)
FREQINIT	QUANT	3.00000E+005	Initial Freq. (Hz)
FREQFINAL	QUANT	1.00000E+000	Final Freq. (Hz)
PTSPERDEC	QUANT	1.00000E+001	Points/decade
VAC	QUANT	5.00000E+001	AC Voltage (mV rms)
AREA	QUANT	1.00000E+000	Sample Area (cm^2)
SPEED	SELECTOR	2	Optimize for:
ZGUESS	QUANT	1.00000E+003	Estimated Z (ohms)
EOC	QUANT	0	Open Circuit (V)
SEQUENCER	TOGGLE	TRUE	Run as Sequence
PSTATMODEL	IQUANT	5	Pstat Model
PSTATSECTION	LABEL	REF3000-16137	Pstat Section
PSTATSERIALNO	LABEL	16137	Pstat Serial Number
CTRLMODE	IQUANT	1	Control Mode
IESTAB	IQUANT	0	I/E Stability
CASPEED	IQUANT	1	Control Amp Speed
CONVENTION	IQUANT	1	Current Convention
ICHRANGE	IQUANT	2	Ich Range
ICHRANGEMODE	TOGGLE	F	Ich Auto Range
ICHOFFSETENABLE	TOGGLE	T	Ich Offset Enable
ICHOFFSET	QUANT	0	Ich Offset (V)
ICHFILTER	IQUANT	3	Ich Filter
VCHRANGE	IQUANT	2	Vch Range
VCHRANGEMODE	TOGGLE	F	Vch Auto Range
VCHOFFSETENABLE	TOGGLE	T	Vch Offset Enable
VCHOFFSET	QUANT	0	Vch Offset (V)
VCHFILTER	IQUANT	3	Vch Filter
ACHRANGE	IQUANT	2	Ach Range
ACHOFFSETENABLE	TOGGLE	F	Ach Offset Enable
ACHOFFSET	QUANT	0	Ach Offset (V)
ACHFILTER	IQUANT	3	Ach Filter
IERANGELOWERLIMIT	IQUANT	2	I/E Range Lower Limit
IERANGEMODE	TOGGLE	F	I/E AutoRange
IERANGE	IQUANT	11	I/E Range
POSFEEDENABLE	TOGGLE	F	Positive Feedback IR Comp
POSFEEDRESISTANCE	QUANT	0	Positive Feedback Resistance (ohm)
ACHSELECT	IQUANT	0	Ach Select
CABLEID	IQUANT	13	Cable ID
DCCALDATE	LABEL	7/31/2020	DC Calibration Date
ACCALDATE	LABEL	7/31/2020	AC Calibration Date
THERMOSELECT	IQUANT	1	Thermo Select
FRAMEWORKVERSION	QUANT	6.33	Framework Version
INSTRUMENTVERSION	LABEL	3.50	Instrument Version
COMPLIANCEVOLTAGE	IQUANT	0	Compliance Voltage
ZCURVE	TABLE
	Pt	Time	Freq	Zreal	Zimag	Zsig	Zmod	Zphz	Idc	Vdc	IERange
	#	s	Hz	ohm	ohm	V	ohm	°	A	V	#
	0	10	300046.9	4.864585	2.206868	1	5.341765	24.4019	6.052359E-005	8.603762E-005	10
	1	13	238359.4	4.844594	1.759707	1	5.154285	19.96259	1.549369E-005	-0.0002079	10
	2	16	189328.1	4.828145	1.390469	1	5.024379	16.066	-1.448726E-005	0.0001394	10
	3	19	150421.9	4.813195	1.090756	1	4.93524	12.76859	1.64623E-005	0.0002965	10
	4	21	119484.4	4.819512	0.838189	1	4.891857	9.86596	-9.166289E-005	0.0004224	10
	5	24	94921.88	4.823017	0.6507015	1	4.866714	7.683713	3.671068E-006	0.0004822	10
	6	26	75421.88	4.824496	0.473087	1	4.847636	5.600482	-2.370363E-005	0.0005333	10
	7	29	59859.37	4.830834	0.3203527	1	4.841444	3.793967	9.272596E-006	0.0005647	10
	8	31	47578.12	4.838885	0.18692	1	4.842494	2.212164	8.583947E-006	0.0006403	10
	9	34	37828.12	4.848017	0.0635853	1	4.848433	0.7514337	1.865037E-005	0.00061	10
	10	36	30046.88	4.860246	-0.054049	1	4.860547	-0.6371384	2.282653E-005	0.0006588	10
	11	39	23859.38	4.872283	-0.1723278	1	4.87533	-2.02565	1.968578E-005	0.0006453	10
	12	41	18984.38	4.886234	-0.296022	1	4.895193	-3.466904	2.100052E-005	0.0006464	10
	13	44	15046.87	4.902701	-0.4347402	1	4.921938	-5.06737	-2.526443E-006	0.0006624	10
	14	46	11953.13	4.921355	-0.5931048	1	4.956966	-6.871948	-2.115927E-005	0.0007168	10
	15	48	9515.62	4.941224	-0.7763578	1	5.001842	-8.92923	-9.341518E-006	0.0006663	10
	16	50	7546.875	4.966857	-0.999657	1	5.066457	-11.37964	-3.021718E-005	0.0006788	10
	17	53	5928.309	4.998894	-1.283058	1	5.160928	-14.39527	2.165284E-005	0.0006744	10
	18	55	4733.456	5.035829	-1.606933	1	5.286001	-17.69789	-2.268181E-005	0.0006978	10
	19	57	3796.875	5.079335	-1.994739	1	5.45698	-21.44076	8.874974E-006	0.0006472	10
	20	60	2987.132	5.137101	-2.51321	1	5.718918	-26.06914	1.442057E-005	0.0006802	10
	21	62	2390.625	5.20558	-3.109192	1	6.063426	-30.84905	-7.735277E-007	0.0007068	10
	22	64	1884.191	5.295006	-3.895543	1	6.573609	-36.34196	-2.162494E-005	0.0007043	10
	23	67	1516.544	5.397964	-4.780125	1	7.210244	-41.52624	-2.097812E-005	0.0007026	10
	24	69	1193.986	5.537543	-5.982117	1	8.151693	-47.2101	-2.206615E-005	0.0007048	10
	25	71	946.5144	5.707679	-7.436062	1	9.37404	-52.49133	1.978646E-005	0.0006906	10
	26	74	751.7689	5.92575	-9.218347	1	10.95867	-57.26622	1.50665E-005	0.0006559	10
	27	76	597.4265	6.188642	-11.42426	1	12.99281	-61.55513	1.896144E-005	0.0006777	10
	28	78	477.4305	6.51675	-14.07148	1	15.50724	-65.15031	-3.068522E-006	0.0006845	10
	29	81	376.6741	6.955652	-17.53947	1	18.86834	-68.36814	-2.966986E-006	0.0006829	10
	30	83	298.2954	7.504676	-21.77826	1	23.03503	-70.98631	-2.346443E-006	0.0006843	10
	31	85	237.7717	8.178889	-26.86136	1	28.07894	-73.06528	-2.776522E-006	0.0006854	10
	32	88	189.0121	9.041484	-33.21031	1	34.41908	-74.77037	-2.761132E-006	0.0006851	10
	33	90	150.2404	10.12757	-41.02577	1	42.25733	-76.13328	-2.792261E-006	0.0006881	10
	34	93	119.1737	11.49169	-50.69901	1	51.98508	-77.22884	9.746865E-007	8.720226E-005	9
	35	95	95.0169	13.17738	-62.38931	1	63.76574	-78.07372	9.04322E-007	8.482395E-005	9
	36	98	75.60484	15.29542	-76.88538	1	78.39204	-78.7486	8.811766E-007	7.982906E-005	9
	37	100	54.50582	19.23733	-103.6178	1	105.3885	-79.48241	6.900406E-007	0.000109	9
	38	103	45.95588	21.8372	-121.0602	1	123.014	-79.77477	1.101786E-006	8.854805E-005	9
	39	105	37.20238	25.65123	-146.7026	1	148.9283	-80.08199	9.737103E-007	8.329637E-005	9
	40	107	30.04808	30.35693	-178.1476	1	180.7155	-80.3295	8.608947E-007	9.117032E-005	9
	41	110	23.91582	36.62025	-219.3695	1	222.405	-80.52277	9.34768E-007	8.085284E-005	9
	42	112	18.60119	45.24691	-275.8619	1	279.548	-80.68528	1.00281E-006	8.838417E-005	9
	43	114	15.02404	54.49954	-335.2567	1	339.6576	-80.76673	1.120155E-006	0.0000951	9
	44	117	12.01923	66.89105	-410.8822	1	416.2914	-80.75345	9.767147E-007	8.324088E-005	9
	45	119	9.450605	83.44221	-509.7607	1	516.5448	-80.70376	4.002802E-007	0.000671	8
	46	122	7.512019	104.7753	-628.2173	1	636.8947	-80.53125	3.933177E-007	0.0006574	8
	47	124	5.978954	131.7401	-772.8322	1	783.9802	-80.32611	4.054348E-007	0.0006666	8
	48	127	4.734848	168.7431	-955.733	1	970.515	-79.98712	5.018537E-007	0.0006664	8
	49	131	3.75601	217.0588	-1177.39	1	1197.231	-79.55447	4.190283E-007	0.0006474	8
	50	134	3.004808	279.213	-1438.682	1	1465.526	-79.01683	4.854512E-007	0.0006358	8
	51	138	2.372217	367.8579	-1775.942	1	1813.64	-78.29758	4.380333E-007	0.000606	8
	52	142	1.878005	490.7196	-2184.58	1	2239.016	-77.33986	4.201697E-007	0.0006665	8
	53	147	1.512097	640.4683	-2641.662	1	2718.194	-76.37167	4.392646E-007	0.0005551	8
	54	152	1.201923	856.0998	-3224.238	1	3335.958	-75.12994	4.290104E-007	0.000682	8
	55	158	0.956633	1145.901	-3913.022	1	4077.356	-73.6777	4.06536E-007	1.505388E-005	8
