EXPLAIN
TAG	EISPOT
TITLE	LABEL	Potentiostatic EIS	Test Identifier
DATE	LABEL	2/25/2021	Date
TIME	LABEL	2:01:11	Time
NOTES	NOTES	1	Notes...
	
PSTAT	PSTAT	REF3000-16137	Potentiostat
VDC	POTEN	0.00000E+000	T	DC Voltage (V)
FREQINIT	QUANT	3.00000E+005	Initial Freq. (Hz)
FREQFINAL	QUANT	1.00000E+000	Final Freq. (Hz)
PTSPERDEC	QUANT	1.00000E+001	Points/decade
VAC	QUANT	5.00000E+001	AC Voltage (mV rms)
AREA	QUANT	1.00000E+000	Sample Area (cm^2)
SPEED	SELECTOR	2	Optimize for:
ZGUESS	QUANT	1.00000E+003	Estimated Z (ohms)
EOC	QUANT	0	Open Circuit (V)
SEQUENCER	TOGGLE	TRUE	Run as Sequence
PSTATMODEL	IQUANT	5	Pstat Model
PSTATSECTION	LABEL	REF3000-16137	Pstat Section
PSTATSERIALNO	LABEL	16137	Pstat Serial Number
CTRLMODE	IQUANT	1	Control Mode
IESTAB	IQUANT	0	I/E Stability
CASPEED	IQUANT	1	Control Amp Speed
CONVENTION	IQUANT	1	Current Convention
ICHRANGE	IQUANT	2	Ich Range
ICHRANGEMODE	TOGGLE	F	Ich Auto Range
ICHOFFSETENABLE	TOGGLE	T	Ich Offset Enable
ICHOFFSET	QUANT	0	Ich Offset (V)
ICHFILTER	IQUANT	3	Ich Filter
VCHRANGE	IQUANT	2	Vch Range
VCHRANGEMODE	TOGGLE	F	Vch Auto Range
VCHOFFSETENABLE	TOGGLE	T	Vch Offset Enable
VCHOFFSET	QUANT	0	Vch Offset (V)
VCHFILTER	IQUANT	3	Vch Filter
ACHRANGE	IQUANT	2	Ach Range
ACHOFFSETENABLE	TOGGLE	F	Ach Offset Enable
ACHOFFSET	QUANT	0	Ach Offset (V)
ACHFILTER	IQUANT	3	Ach Filter
IERANGELOWERLIMIT	IQUANT	2	I/E Range Lower Limit
IERANGEMODE	TOGGLE	F	I/E AutoRange
IERANGE	IQUANT	11	I/E Range
POSFEEDENABLE	TOGGLE	F	Positive Feedback IR Comp
POSFEEDRESISTANCE	QUANT	0	Positive Feedback Resistance (ohm)
ACHSELECT	IQUANT	0	Ach Select
CABLEID	IQUANT	13	Cable ID
DCCALDATE	LABEL	7/31/2020	DC Calibration Date
ACCALDATE	LABEL	7/31/2020	AC Calibration Date
THERMOSELECT	IQUANT	1	Thermo Select
FRAMEWORKVERSION	QUANT	6.33	Framework Version
INSTRUMENTVERSION	LABEL	3.50	Instrument Version
COMPLIANCEVOLTAGE	IQUANT	0	Compliance Voltage
ZCURVE	TABLE
	Pt	Time	Freq	Zreal	Zimag	Zsig	Zmod	Zphz	Idc	Vdc	IERange
	#	s	Hz	ohm	ohm	V	ohm	°	A	V	#
	0	15	300046.9	288.2299	-22.09674	1	289.0757	-4.383925	-5.495991E-005	0.0005281	9
	1	19	238359.4	292.4465	-19.51248	1	293.0967	-3.817206	-7.772711E-006	-0.0015899	9
	2	24	189328.1	297.2475	-16.30419	1	297.6943	-3.139559	1.114503E-005	-0.0017129	9
	3	31	150421.9	302.6471	-14.9444	1	303.0158	-2.82691	-3.161635E-005	-0.0006011	9
	4	36	119484.4	305.8622	-11.51639	1	306.0789	-2.156294	2.155036E-005	-0.0012295	9
	5	40	94921.88	308.8687	-9.67324	1	309.0201	-1.793819	-2.392248E-005	0.0008909	9
	6	43	75421.88	312.2703	-8.027225	1	312.3734	-1.472522	-1.708053E-005	0.0009712	9
	7	47	59859.37	314.3114	-6.665482	1	314.3821	-1.214868	-1.575651E-006	0.0006495	9
	8	49	47578.12	316.5146	-5.804641	1	316.5679	-1.050644	-9.274223E-007	-0.0003852	9
	9	52	37828.12	318.5422	-5.034083	1	318.5819	-0.9053988	8.107772E-008	0.0006975	9
	10	54	30046.88	320.4383	-4.021763	1	320.4635	-0.7190713	-8.973274E-006	0.0009439	9
	11	57	23859.38	322.4581	-3.68465	1	322.4792	-0.6546763	1.180199E-005	0.0003472	9
	12	59	18984.38	324.2205	-3.454731	1	324.2389	-0.610492	-9.902186E-006	-6.943841E-005	9
	13	61	15046.87	326.3795	-3.463233	1	326.3979	-0.6079463	-7.454572E-006	0.0009307	9
	14	64	11953.13	327.565	-3.266666	1	327.5813	-0.5713674	-2.160999E-005	0.0005052	9
	15	66	9515.62	330.2677	-2.722789	1	330.2789	-0.4723465	2.033177E-005	-0.0007302	9
	16	69	7546.875	332.3107	-3.007709	1	332.3243	-0.5185638	3.741517E-007	0.0007022	9
	17	71	5928.309	333.9731	-3.529266	1	333.9918	-0.6054514	2.373382E-005	-0.0001881	9
	18	73	4733.456	335.7567	-3.497376	1	335.7749	-0.5967941	-8.548933E-006	0.0008968	9
	19	76	3796.875	338.044	-4.447068	1	338.0732	-0.7536993	2.70201E-005	-0.0007429	9
	20	78	2987.132	340.1872	-4.728549	1	340.2201	-0.796351	2.866817E-007	0.0006589	9
	21	81	2390.625	341.9669	-6.057393	1	342.0206	-1.014796	1.021521E-006	0.0007021	9
	22	83	1884.191	343.832	-6.755664	1	343.8984	-1.125612	-1.576248E-005	0.0001394	9
	23	85	1516.544	345.7914	-8.090461	1	345.886	-1.340302	-2.162562E-005	0.0004716	9
	24	87	1193.986	348.963	-10.74779	1	349.1285	-1.764107	-2.137012E-005	0.0009861	9
	25	90	946.5144	351.2957	-14.17505	1	351.5815	-2.310675	2.809188E-005	-0.0006597	9
	26	92	751.7689	353.0343	-14.55367	1	353.3341	-2.360655	-2.58655E-007	-0.0003979	9
	27	95	597.4265	353.8654	-19.98768	1	354.4295	-3.232852	-1.207373E-005	0.0052294	8
	28	97	477.4305	358.2492	-24.95303	1	359.1172	-3.984371	1.30073E-006	8.28025E-005	9
	29	99	376.6741	359.4272	-30.91073	1	360.7539	-4.915342	5.330714E-008	0.0006531	8
	30	102	298.2954	362.298	-38.40522	1	364.3279	-6.051013	4.099935E-008	0.0006473	8
	31	104	237.7717	365.4661	-47.44874	1	368.5334	-7.397377	4.308477E-008	0.000645	8
	32	106	189.0121	368.9157	-58.78205	1	373.5695	-9.053254	3.494732E-008	0.0006543	8
	33	109	150.2404	372.7712	-72.8269	1	379.8186	-11.05442	3.795472E-008	0.0006568	8
	34	111	119.1737	377.1375	-90.37862	1	387.8157	-13.47643	6.033829E-009	0.0006767	8
	35	114	95.0169	382.1516	-111.6028	1	398.1143	-16.27981	5.280074E-008	0.0006576	8
	36	116	75.60484	388.1009	-137.9756	1	411.8975	-19.57106	2.813963E-008	0.0006669	8
	37	119	54.50582	397.6581	-186.616	1	439.2693	-25.14008	1.873803E-008	0.0006628	8
	38	121	45.95588	404.8215	-218.3	1	459.9297	-28.33576	1.248483E-008	0.0006816	8
	39	124	37.20238	414.4969	-264.7446	1	491.8306	-32.56691	4.644087E-008	0.0006671	8
	40	126	30.04808	426.2826	-321.3995	1	533.8674	-37.01479	3.003143E-009	0.0006762	8
	41	128	23.91582	441.2202	-394.8163	1	592.0771	-41.82308	-1.92041E-009	0.0006605	8
	42	131	18.60119	460.8212	-494.5511	1	675.9711	-47.02201	2.957682E-008	0.0006585	8
	43	133	15.02404	481.0983	-598.5121	1	767.9012	-51.20685	9.553174E-009	0.0006471	8
	44	135	12.01923	506.1524	-729.8044	1	888.1469	-55.25694	-3.234424E-008	0.0006633	8
	45	138	9.450605	537.8264	-904.0717	1	1051.952	-59.25186	4.452867E-008	0.0006532	8
	46	140	7.512019	573.7134	-1109.4	1	1248.966	-62.65478	4.020987E-008	0.0006747	8
	47	143	5.978954	616.4678	-1360.222	1	1493.398	-65.61944	6.893387E-008	0.0006458	8
	48	146	4.734848	668.9815	-1678.011	1	1806.448	-68.26405	3.614733E-008	0.0006581	8
	49	149	3.75601	730.1993	-2066.933	1	2192.123	-70.54287	4.399563E-008	0.0006385	8
	50	153	3.004808	800.8699	-2527.226	1	2651.087	-72.41676	4.727061E-008	0.0006799	8
	51	157	2.372217	893.3364	-3135.516	1	3260.293	-74.09727	3.591904E-008	0.0007308	8
	52	161	1.878005	1000.137	-3880.096	1	4006.921	-75.54601	1.70878E-008	0.0006359	8
	53	165	1.512097	1127.217	-4728.409	1	4860.913	-76.59138	4.26426E-009	0.000658	7
	54	171	1.201923	1286.428	-5855.987	1	5995.622	-77.61021	-1.385328E-008	0.0006017	7
	55	177	0.956633	1484.235	-7225.672	1	7376.536	-78.39226	-1.813658E-008	-1.188569E-005	7
