EXPLAIN
TAG	EISPOT
TITLE	LABEL	Potentiostatic EIS	Test Identifier
DATE	LABEL	2/25/2021	Date
TIME	LABEL	1:36:15	Time
NOTES	NOTES	1	Notes...
	
PSTAT	PSTAT	REF3000-16137	Potentiostat
VDC	POTEN	0.00000E+000	T	DC Voltage (V)
FREQINIT	QUANT	3.00000E+005	Initial Freq. (Hz)
FREQFINAL	QUANT	1.00000E+000	Final Freq. (Hz)
PTSPERDEC	QUANT	1.00000E+001	Points/decade
VAC	QUANT	5.00000E+001	AC Voltage (mV rms)
AREA	QUANT	1.00000E+000	Sample Area (cm^2)
SPEED	SELECTOR	2	Optimize for:
ZGUESS	QUANT	1.00000E+003	Estimated Z (ohms)
EOC	QUANT	0	Open Circuit (V)
SEQUENCER	TOGGLE	TRUE	Run as Sequence
PSTATMODEL	IQUANT	5	Pstat Model
PSTATSECTION	LABEL	REF3000-16137	Pstat Section
PSTATSERIALNO	LABEL	16137	Pstat Serial Number
CTRLMODE	IQUANT	1	Control Mode
IESTAB	IQUANT	0	I/E Stability
CASPEED	IQUANT	1	Control Amp Speed
CONVENTION	IQUANT	1	Current Convention
ICHRANGE	IQUANT	2	Ich Range
ICHRANGEMODE	TOGGLE	F	Ich Auto Range
ICHOFFSETENABLE	TOGGLE	T	Ich Offset Enable
ICHOFFSET	QUANT	0	Ich Offset (V)
ICHFILTER	IQUANT	3	Ich Filter
VCHRANGE	IQUANT	2	Vch Range
VCHRANGEMODE	TOGGLE	F	Vch Auto Range
VCHOFFSETENABLE	TOGGLE	T	Vch Offset Enable
VCHOFFSET	QUANT	0	Vch Offset (V)
VCHFILTER	IQUANT	3	Vch Filter
ACHRANGE	IQUANT	2	Ach Range
ACHOFFSETENABLE	TOGGLE	F	Ach Offset Enable
ACHOFFSET	QUANT	0	Ach Offset (V)
ACHFILTER	IQUANT	3	Ach Filter
IERANGELOWERLIMIT	IQUANT	2	I/E Range Lower Limit
IERANGEMODE	TOGGLE	F	I/E AutoRange
IERANGE	IQUANT	11	I/E Range
POSFEEDENABLE	TOGGLE	F	Positive Feedback IR Comp
POSFEEDRESISTANCE	QUANT	0	Positive Feedback Resistance (ohm)
ACHSELECT	IQUANT	0	Ach Select
CABLEID	IQUANT	13	Cable ID
DCCALDATE	LABEL	7/31/2020	DC Calibration Date
ACCALDATE	LABEL	7/31/2020	AC Calibration Date
THERMOSELECT	IQUANT	1	Thermo Select
FRAMEWORKVERSION	QUANT	6.33	Framework Version
INSTRUMENTVERSION	LABEL	3.50	Instrument Version
COMPLIANCEVOLTAGE	IQUANT	0	Compliance Voltage
ZCURVE	TABLE
	Pt	Time	Freq	Zreal	Zimag	Zsig	Zmod	Zphz	Idc	Vdc	IERange
	#	s	Hz	ohm	ohm	V	ohm	°	A	V	#
	0	9	300046.9	22.36728	1.854904	1	22.44407	4.740653	7.925937E-005	0.0001647	10
	1	13	238359.4	22.4466	1.490295	1	22.49602	3.798459	-9.092161E-005	0.0005208	10
	2	16	189328.1	22.51203	1.167001	1	22.54225	2.967499	-1.998719E-006	0.0003533	10
	3	18	150421.9	22.57054	0.9220343	1	22.58937	2.339302	1.378675E-005	0.0005125	10
	4	21	119484.4	22.64224	0.6820431	1	22.65251	1.725376	2.699052E-005	0.0006282	10
	5	23	94921.88	22.70998	0.5104238	1	22.71571	1.287549	1.708161E-005	0.0006852	10
	6	26	75421.88	22.78802	0.3466676	1	22.79066	0.871557	-2.403889E-005	0.0007064	10
	7	29	59859.37	22.86471	0.2033195	1	22.86561	0.5094771	-2.851507E-005	0.0006516	10
	8	31	47578.12	22.9413	0.0757404	1	22.94142	0.1891606	5.97393E-006	0.0006145	10
	9	34	37828.12	23.02032	-0.0473365	1	23.02037	-0.1178167	-2.446874E-006	0.0006324	10
	10	36	30046.88	23.10174	-0.1704266	1	23.10237	-0.4226758	-2.765382E-005	0.0006757	10
	11	39	23859.38	23.18078	-0.2996603	1	23.18271	-0.7406272	1.39846E-005	0.0006141	10
	12	41	18984.38	23.25829	-0.4401534	1	23.26245	-1.084169	-2.406699E-005	0.0007072	10
	13	43	15046.87	23.33696	-0.6077341	1	23.34487	-1.491742	-2.89041E-005	0.0006763	10
	14	46	11953.13	23.427	-0.7890424	1	23.44029	-1.929044	5.22984E-006	0.000633	10
	15	48	9515.62	23.51806	-1.009336	1	23.53971	-2.457483	-1.140084E-005	0.000745	10
	16	50	7546.875	23.59956	-1.280983	1	23.6343	-3.106963	-7.009789E-006	0.0006628	10
	17	53	5928.309	23.71541	-1.632372	1	23.77152	-3.937556	5.785438E-006	0.0006355	10
	18	55	4733.456	23.82168	-2.034376	1	23.90839	-4.881227	5.160733E-006	0.0006357	10
	19	57	3796.875	23.93847	-2.510462	1	24.06974	-5.986808	1.870072E-005	0.0007164	10
	20	59	2987.132	24.07332	-3.162586	1	24.28017	-7.484263	2.41274E-005	0.0006674	10
	21	62	2390.625	24.21786	-3.904562	1	24.5306	-9.158785	-2.884946E-006	0.0007317	10
	22	64	1884.191	24.38901	-4.888802	1	24.87416	-11.33478	2.046011E-005	0.0006335	10
	23	66	1516.544	24.58318	-6.000758	1	25.30498	-13.71765	2.101569E-005	0.0006839	10
	24	69	1193.986	24.81968	-7.516347	1	25.93284	-16.84831	2.494892E-005	0.0006653	10
	25	71	946.5144	25.10561	-9.341039	1	26.78707	-20.40871	-3.072206E-005	0.0006819	10
	26	74	751.7689	25.44275	-11.59265	1	27.95931	-24.49576	-1.481691E-005	0.0007177	10
	27	76	597.4265	25.86594	-14.33845	1	29.57428	-29.00123	1.247725E-005	0.0006276	10
	28	78	477.4305	26.36867	-17.6608	1	31.73658	-33.81278	-2.576357E-006	0.0006871	10
	29	81	376.6741	27.01766	-21.9788	1	34.82846	-39.12827	-2.263975E-006	0.0006836	10
	30	83	298.2954	27.79956	-27.23693	1	38.91871	-44.4143	-2.330381E-006	0.0006867	10
	31	85	237.7717	28.69595	-33.4908	1	44.10319	-49.40901	1.242575E-006	8.617378E-005	9
	32	88	189.0121	29.82922	-41.32199	1	50.96361	-54.17551	1.288433E-006	8.454608E-005	9
	33	90	150.2404	31.19727	-50.98175	1	59.76963	-58.53628	1.226881E-006	8.217979E-005	9
	34	92	119.1737	32.87373	-63.03687	1	71.0938	-62.45796	1.181699E-006	8.179207E-005	9
	35	95	95.0169	34.86663	-77.58889	1	85.06302	-65.80196	1.161333E-006	8.872461E-005	9
	36	97	75.60484	37.32803	-95.7055	1	102.7275	-68.69273	1.125533E-006	8.844672E-005	9
	37	100	54.50582	41.84204	-129.2744	1	135.8773	-72.06487	1.149768E-006	8.238824E-005	9
	38	102	45.95588	44.8493	-151.2541	1	157.7633	-73.48405	1.26771E-006	9.28843E-005	9
	39	105	37.20238	49.2776	-183.68	1	190.1752	-74.98234	1.272417E-006	8.942892E-005	9
	40	107	30.04808	54.79445	-223.5739	1	230.1907	-76.22915	1.27362E-006	8.749871E-005	9
	41	110	23.91582	62.10231	-275.6796	1	282.5879	-77.3049	1.201935E-006	8.275906E-005	9
	42	112	18.60119	72.26818	-347.2869	1	354.7265	-78.24487	1.23103E-006	9.154806E-005	9
	43	114	15.02404	82.74429	-420.52	1	428.5833	-78.86832	5.157095E-007	0.0006651	8
	44	116	12.01923	96.6848	-515.8552	1	524.8376	-79.38442	4.738765E-007	0.0006593	8
	45	119	9.450605	115.6032	-642.6237	1	652.939	-79.80199	5.312552E-007	0.0006634	8
	46	121	7.512019	137.8119	-791.8823	1	803.7846	-80.12765	5.381761E-007	0.0006866	8
	47	124	5.978954	165.1434	-974.742	1	988.633	-80.38411	5.191259E-007	0.0006625	8
	48	127	4.734848	199.1821	-1205.474	1	1221.819	-80.61771	5.632427E-007	0.0006904	8
	49	130	3.75601	241.496	-1488.146	1	1507.613	-80.7824	5.017902E-007	0.0006477	8
	50	134	3.004808	291.508	-1822.165	1	1845.335	-80.9109	5.626076E-007	0.0006347	8
	51	138	2.372217	358.4555	-2256.785	1	2285.075	-80.97484	5.406743E-007	0.0006586	8
	52	142	1.878005	442.7872	-2798.549	1	2833.361	-81.00917	5.145814E-007	0.0006555	8
	53	146	1.512097	534.2017	-3410.443	1	3452.028	-81.09769	5.357721E-007	0.0005617	8
	54	152	1.201923	665.7252	-4210.116	1	4262.425	-81.0145	5.209906E-007	0.0006608	8
	55	158	0.956633	827.573	-5193.427	1	5258.95	-80.94604	2.678757E-008	-1.252513E-005	7
