EXPLAIN
TAG	EISPOT
TITLE	LABEL	Potentiostatic EIS	Test Identifier
DATE	LABEL	2/25/2021	Date
TIME	LABEL	0:54:27	Time
NOTES	NOTES	1	Notes...
	
PSTAT	PSTAT	REF3000-16137	Potentiostat
VDC	POTEN	0.00000E+000	T	DC Voltage (V)
FREQINIT	QUANT	3.00000E+005	Initial Freq. (Hz)
FREQFINAL	QUANT	1.00000E+000	Final Freq. (Hz)
PTSPERDEC	QUANT	1.00000E+001	Points/decade
VAC	QUANT	5.00000E+001	AC Voltage (mV rms)
AREA	QUANT	1.00000E+000	Sample Area (cm^2)
SPEED	SELECTOR	2	Optimize for:
ZGUESS	QUANT	1.00000E+003	Estimated Z (ohms)
EOC	QUANT	0	Open Circuit (V)
SEQUENCER	TOGGLE	TRUE	Run as Sequence
PSTATMODEL	IQUANT	5	Pstat Model
PSTATSECTION	LABEL	REF3000-16137	Pstat Section
PSTATSERIALNO	LABEL	16137	Pstat Serial Number
CTRLMODE	IQUANT	1	Control Mode
IESTAB	IQUANT	0	I/E Stability
CASPEED	IQUANT	1	Control Amp Speed
CONVENTION	IQUANT	1	Current Convention
ICHRANGE	IQUANT	2	Ich Range
ICHRANGEMODE	TOGGLE	F	Ich Auto Range
ICHOFFSETENABLE	TOGGLE	T	Ich Offset Enable
ICHOFFSET	QUANT	0	Ich Offset (V)
ICHFILTER	IQUANT	3	Ich Filter
VCHRANGE	IQUANT	2	Vch Range
VCHRANGEMODE	TOGGLE	F	Vch Auto Range
VCHOFFSETENABLE	TOGGLE	T	Vch Offset Enable
VCHOFFSET	QUANT	0	Vch Offset (V)
VCHFILTER	IQUANT	3	Vch Filter
ACHRANGE	IQUANT	2	Ach Range
ACHOFFSETENABLE	TOGGLE	F	Ach Offset Enable
ACHOFFSET	QUANT	0	Ach Offset (V)
ACHFILTER	IQUANT	3	Ach Filter
IERANGELOWERLIMIT	IQUANT	2	I/E Range Lower Limit
IERANGEMODE	TOGGLE	F	I/E AutoRange
IERANGE	IQUANT	11	I/E Range
POSFEEDENABLE	TOGGLE	F	Positive Feedback IR Comp
POSFEEDRESISTANCE	QUANT	0	Positive Feedback Resistance (ohm)
ACHSELECT	IQUANT	0	Ach Select
CABLEID	IQUANT	13	Cable ID
DCCALDATE	LABEL	7/31/2020	DC Calibration Date
ACCALDATE	LABEL	7/31/2020	AC Calibration Date
THERMOSELECT	IQUANT	1	Thermo Select
FRAMEWORKVERSION	QUANT	6.33	Framework Version
INSTRUMENTVERSION	LABEL	3.50	Instrument Version
COMPLIANCEVOLTAGE	IQUANT	0	Compliance Voltage
ZCURVE	TABLE
	Pt	Time	Freq	Zreal	Zimag	Zsig	Zmod	Zphz	Idc	Vdc	IERange
	#	s	Hz	ohm	ohm	V	ohm	°	A	V	#
	0	10	300046.9	3.594081	2.246665	1	4.238505	32.00956	9.258273E-006	-6.425424E-005	10
	1	14	238359.4	3.552061	1.771173	1	3.969155	26.50234	1.726077E-005	-0.0004087	10
	2	17	189328.1	3.534921	1.40035	1	3.802189	21.61087	-5.184334E-006	-4.011397E-005	10
	3	19	150421.9	3.516547	1.09192	1	3.682172	17.25006	-0.000108	0.0001358	10
	4	22	119484.4	3.515816	0.8451165	1	3.615962	13.51608	3.584914E-005	0.000364	10
	5	24	94921.88	3.515615	0.6550575	1	3.576122	10.55477	-1.074649E-005	0.0004142	10
	6	27	75421.88	3.51693	0.4796965	1	3.549493	7.767007	2.025185E-006	0.0004518	10
	7	29	59859.37	3.51968	0.3293223	1	3.535053	5.345373	3.167007E-005	0.0005351	10
	8	32	47578.12	3.523547	0.1984865	1	3.529133	3.224147	-2.524265E-005	0.0005752	10
	9	35	37828.12	3.529664	0.0789221	1	3.530546	1.280901	-2.512459E-005	0.0006461	10
	10	37	30046.88	3.53751	-0.035154	1	3.537685	-0.5693573	-2.094088E-005	0.0006646	10
	11	40	23859.38	3.545914	-0.1505334	1	3.549108	-2.430897	2.507134E-005	0.0006535	10
	12	42	18984.38	3.555832	-0.2701622	1	3.566081	-4.344826	1.846402E-005	0.0006402	10
	13	44	15046.87	3.568018	-0.4038412	1	3.590799	-6.457462	-1.541053E-005	0.0006608	10
	14	46	11953.13	3.582447	-0.5547718	1	3.625148	-8.802807	-9.269572E-006	0.0007049	10
	15	49	9515.62	3.598655	-0.7296807	1	3.671887	-11.46217	-1.943757E-005	0.0006776	10
	16	51	7546.875	3.620526	-0.9420477	1	3.741077	-14.58475	-2.59121E-005	0.0007119	10
	17	53	5928.309	3.646909	-1.21193	1	3.843009	-18.38252	-2.364738E-005	0.0007293	10
	18	56	4733.456	3.678258	-1.519799	1	3.979871	-22.44965	-1.784861E-005	0.0006849	10
	19	58	3796.875	3.71573	-1.887445	1	4.167624	-26.92878	-1.931341E-005	0.0006763	10
	20	60	2987.132	3.76797	-2.380459	1	4.456925	-32.28312	-7.344815E-006	0.0006879	10
	21	63	2390.625	3.828761	-2.946733	1	4.831423	-37.583	1.419642E-005	0.0006599	10
	22	65	1884.191	3.911477	-3.693272	1	5.379582	-43.35645	-2.810954E-005	0.0006948	10
	23	67	1516.544	4.005391	-4.531527	1	6.047966	-48.52671	2.201296E-005	0.0006764	10
	24	70	1193.986	4.136196	-5.675111	1	7.022464	-53.91428	-6.974499E-006	0.0006903	10
	25	72	946.5144	4.299335	-7.052991	1	8.260082	-58.63452	1.378624E-006	0.0006773	10
	26	74	751.7689	4.506718	-8.752007	1	9.84419	-62.75446	-1.186787E-005	0.000676	10
	27	77	597.4265	4.76826	-10.84296	1	11.84509	-66.26221	-3.228959E-006	0.0006656	10
	28	79	477.4305	5.086061	-13.35332	1	14.28913	-69.14898	-3.223874E-006	0.0006858	10
	29	81	376.6741	5.519398	-16.63389	1	17.52569	-71.6433	-3.359303E-006	0.000685	10
	30	84	298.2954	6.061658	-20.63705	1	21.50887	-73.63107	-3.011296E-006	0.0006857	10
	31	86	237.7717	6.727922	-25.43149	1	26.30638	-75.18182	-3.17102E-006	0.0006853	10
	32	88	189.0121	7.577719	-31.41063	1	32.31176	-76.43673	-2.598157E-006	0.000687	10
	33	91	150.2404	8.641624	-38.76034	1	39.71198	-77.43145	-2.730674E-006	0.0006847	10
	34	93	119.1737	9.9736	-47.85284	1	48.88115	-78.22682	8.479397E-007	7.755425E-005	9
	35	96	95.0169	11.60918	-58.82837	1	59.96291	-78.8367	7.706834E-007	8.160414E-005	9
	36	98	75.60484	13.6531	-72.43751	1	73.71295	-79.32605	6.233109E-007	8.448557E-005	9
	37	101	54.50582	17.46759	-97.5495	1	99.101	-79.84798	5.694462E-007	8.129445E-005	9
	38	103	45.95588	19.98837	-113.9632	1	115.7028	-80.0519	7.337707E-007	8.893109E-005	9
	39	106	37.20238	23.75475	-138.16	1	140.1873	-80.24415	7.273444E-007	8.279833E-005	9
	40	108	30.04808	28.44427	-167.7346	1	170.1292	-80.3754	7.038757E-007	7.769433E-005	9
	41	110	23.91582	34.7267	-206.3763	1	209.2776	-80.44839	5.215202E-007	7.572802E-005	9
	42	113	18.60119	43.87193	-259.6783	1	263.3583	-80.41059	6.333089E-007	8.627471E-005	9
	43	115	15.02404	53.80866	-315.6015	1	320.1557	-80.32436	8.414539E-007	7.443907E-005	9
	44	117	12.01923	67.39861	-386.4976	1	392.3301	-80.10806	8.41752E-007	8.389194E-005	9
	45	120	9.450605	86.39205	-478.7092	1	486.4423	-79.77001	1.836068E-007	0.0006572	8
	46	122	7.512019	110.9036	-589.0707	1	599.4197	-79.3378	2.46109E-007	0.0006525	8
	47	125	5.978954	143.7067	-722.8907	1	737.0363	-78.7565	2.462343E-007	0.000663	8
	48	128	4.734848	188.6853	-890.4976	1	910.2682	-78.03668	2.219559E-007	0.0006388	8
	49	131	3.75601	250.3361	-1092.282	1	1120.601	-77.09151	3.034294E-007	0.0006826	8
	50	135	3.004808	330.4897	-1326.328	1	1366.883	-76.00817	2.505336E-007	0.0006814	8
	51	138	2.372217	449.1868	-1622.021	1	1683.069	-74.52097	2.073341E-007	0.0006254	8
	52	143	1.878005	609.5907	-1976.674	1	2068.536	-72.86065	2.783249E-007	0.0006468	8
	53	147	1.512097	807.5356	-2357.928	1	2492.376	-71.09486	2.476872E-007	0.000748	8
	54	153	1.201923	1100.126	-2822.589	1	3029.403	-68.70625	2.795922E-007	0.0006602	8
	55	159	0.956633	1482.868	-3337.651	1	3652.233	-66.04514	1.491001E-007	2.343962E-005	8
