EXPLAIN
TAG	EISPOT
TITLE	LABEL	Potentiostatic EIS	Test Identifier
DATE	LABEL	9/13/2020	Date
TIME	LABEL	15:55:21	Time
NOTES	NOTES	1	Notes...
	
PSTAT	PSTAT	REF3000-16137	Potentiostat
VDC	POTEN	0.00000E+000	T	DC Voltage (V)
FREQINIT	QUANT	3.00000E+005	Initial Freq. (Hz)
FREQFINAL	QUANT	1.00000E+000	Final Freq. (Hz)
PTSPERDEC	QUANT	1.00000E+001	Points/decade
VAC	QUANT	5.00000E+001	AC Voltage (mV rms)
AREA	QUANT	1.00000E+000	Sample Area (cm^2)
SPEED	SELECTOR	2	Optimize for:
ZGUESS	QUANT	1.00000E+003	Estimated Z (ohms)
EOC	QUANT	0	Open Circuit (V)
SEQUENCER	TOGGLE	TRUE	Run as Sequence
PSTATMODEL	IQUANT	5	Pstat Model
PSTATSECTION	LABEL	REF3000-16137	Pstat Section
PSTATSERIALNO	LABEL	16137	Pstat Serial Number
CTRLMODE	IQUANT	1	Control Mode
IESTAB	IQUANT	0	I/E Stability
CASPEED	IQUANT	1	Control Amp Speed
CONVENTION	IQUANT	1	Current Convention
ICHRANGE	IQUANT	2	Ich Range
ICHRANGEMODE	TOGGLE	F	Ich Auto Range
ICHOFFSETENABLE	TOGGLE	T	Ich Offset Enable
ICHOFFSET	QUANT	0	Ich Offset (V)
ICHFILTER	IQUANT	3	Ich Filter
VCHRANGE	IQUANT	2	Vch Range
VCHRANGEMODE	TOGGLE	F	Vch Auto Range
VCHOFFSETENABLE	TOGGLE	T	Vch Offset Enable
VCHOFFSET	QUANT	0	Vch Offset (V)
VCHFILTER	IQUANT	3	Vch Filter
ACHRANGE	IQUANT	2	Ach Range
ACHOFFSETENABLE	TOGGLE	F	Ach Offset Enable
ACHOFFSET	QUANT	0	Ach Offset (V)
ACHFILTER	IQUANT	3	Ach Filter
IERANGELOWERLIMIT	IQUANT	2	I/E Range Lower Limit
IERANGEMODE	TOGGLE	F	I/E AutoRange
IERANGE	IQUANT	11	I/E Range
POSFEEDENABLE	TOGGLE	F	Positive Feedback IR Comp
POSFEEDRESISTANCE	QUANT	0	Positive Feedback Resistance (ohm)
ACHSELECT	IQUANT	0	Ach Select
CABLEID	IQUANT	13	Cable ID
DCCALDATE	LABEL	7/31/2020	DC Calibration Date
ACCALDATE	LABEL	7/31/2020	AC Calibration Date
THERMOSELECT	IQUANT	1	Thermo Select
FRAMEWORKVERSION	QUANT	6.33	Framework Version
INSTRUMENTVERSION	LABEL	3.50	Instrument Version
COMPLIANCEVOLTAGE	IQUANT	0	Compliance Voltage
ZCURVE	TABLE
	Pt	Time	Freq	Zreal	Zimag	Zsig	Zmod	Zphz	Idc	Vdc	IERange
	#	s	Hz	ohm	ohm	V	ohm	°	A	V	#
	0	8	300046.9	19.68199	1.984766	1	19.78181	5.758339	2.143698E-005	0.0002318	10
	1	12	238359.4	20.0013	1.574494	1	20.06318	4.501018	6.475259E-005	0.0002186	10
	2	15	189328.1	20.33018	1.233917	1	20.36759	3.47324	2.111056E-005	0.0004384	10
	3	17	150421.9	20.63327	0.9479318	1	20.65503	2.630428	1.461437E-005	0.0005017	10
	4	20	119484.4	20.95136	0.7390558	1	20.9644	2.020261	3.088791E-005	0.0008257	10
	5	22	94921.88	21.27005	0.5626888	1	21.27749	1.515378	-2.617779E-005	0.0006038	10
	6	25	75421.88	21.6033	0.3981383	1	21.60696	1.055814	-2.710782E-005	0.0006694	10
	7	27	59859.37	21.94826	0.2582975	1	21.94978	0.6742528	2.286627E-005	0.0006456	10
	8	30	47578.12	22.3044	0.1374199	1	22.30482	0.3530011	1.986771E-005	0.0006013	10
	9	32	37828.12	22.66529	0.0243713	1	22.6653	0.0616085	-2.088053E-005	0.0007128	10
	10	35	30046.88	23.03243	-0.0839167	1	23.03258	-0.2087513	-2.688083E-005	0.0006925	10
	11	37	23859.38	23.39247	-0.1939041	1	23.39327	-0.4749236	5.204064E-006	0.0006227	10
	12	40	18984.38	23.74414	-0.3128658	1	23.7462	-0.7549167	2.007551E-005	0.000575	10
	13	42	15046.87	24.10888	-0.4455554	1	24.113	-1.058761	1.353185E-005	0.0005737	10
	14	44	11953.13	24.48112	-0.6005104	1	24.48848	-1.405157	-2.752833E-005	0.000658	10
	15	47	9515.62	24.86906	-0.775327	1	24.88114	-1.785696	2.555634E-005	0.0006421	10
	16	49	7546.875	25.26452	-0.994946	1	25.28411	-2.255208	6.606145E-006	0.0005877	10
	17	51	5928.309	25.67098	-1.266974	1	25.70223	-2.825502	2.353268E-005	0.0006399	10
	18	54	4733.456	26.09032	-1.589783	1	26.13871	-3.48694	-1.383148E-005	0.0006911	10
	19	56	3796.875	26.52287	-1.973292	1	26.59617	-4.254947	-2.672753E-005	0.0006386	10
	20	58	2987.132	26.97827	-2.474633	1	27.09153	-5.240899	2.523386E-005	0.0006224	10
	21	61	2390.625	27.44747	-3.069587	1	27.61858	-6.381157	-1.720231E-005	0.0006287	10
	22	63	1884.191	27.94621	-3.849367	1	28.21007	-7.842687	6.61865E-006	0.0006655	10
	23	65	1516.544	28.46106	-4.732943	1	28.85191	-9.441623	2.099827E-005	0.000593	10
	24	67	1193.986	29.04453	-5.945716	1	29.64685	-11.5692	5.675746E-006	0.0005834	10
	25	70	946.5144	29.65999	-7.403039	1	30.56992	-14.0145	-1.096632E-005	0.0006296	10
	26	72	751.7689	30.31238	-9.224812	1	31.68497	-16.92631	2.112531E-005	0.0006514	10
	27	75	597.4265	31.02409	-11.4616	1	33.0736	-20.27635	-2.601721E-005	0.0006597	10
	28	77	477.4305	31.80525	-14.16552	1	34.81718	-24.00739	-2.017985E-006	0.0006512	10
	29	79	376.6741	32.7153	-17.71144	1	37.20197	-28.43027	-2.396952E-006	0.00065	10
	30	82	298.2954	33.70477	-22.0291	1	40.26528	-33.16823	1.29823E-006	4.770756E-005	9
	31	84	237.7717	34.89858	-27.24938	1	44.27685	-37.9833	8.465138E-007	0.0001009	9
	32	86	189.0121	36.30392	-33.7728	1	49.58404	-42.93142	1.184049E-006	4.690993E-005	9
	33	89	150.2404	37.96603	-41.82906	1	56.48973	-47.77163	1.249532E-006	4.882079E-005	9
	34	91	119.1737	39.95952	-51.87281	1	65.4794	-52.39163	1.277591E-006	4.303317E-005	9
	35	94	95.0169	42.31196	-63.98018	1	76.70571	-56.52217	1.234375E-006	4.856893E-005	9
	36	96	75.60484	45.19776	-79.02145	1	91.03421	-60.23182	1.281074E-006	4.700157E-005	9
	37	99	54.50582	50.15697	-106.7246	1	117.9232	-64.82806	1.193518E-006	4.905864E-005	9
	38	101	45.95588	53.67978	-124.9097	1	135.9557	-66.74445	1.297005E-006	5.122816E-005	9
	39	103	37.20238	58.63054	-151.6318	1	162.5723	-68.86031	1.357468E-006	4.914632E-005	9
	40	106	30.04808	64.76666	-184.4647	1	195.5044	-70.65353	8.045828E-007	0.0001026	9
	41	108	23.91582	72.80972	-227.2585	1	238.6371	-72.23544	1.324268E-006	4.832196E-005	9
	42	111	18.60119	83.98153	-285.8607	1	297.9417	-73.62801	1.168263E-006	5.80721E-005	9
	43	113	15.02404	96.2556	-347.3507	1	360.4409	-74.51122	1.413972E-006	6.40096E-005	9
	44	115	12.01923	111.8989	-423.5343	1	438.0669	-75.20047	3.381593E-007	0.0006213	8
	45	118	9.450605	134.2644	-526.3807	1	543.2344	-75.69064	3.075135E-007	0.0006292	8
	46	120	7.512019	161.857	-647.0515	1	666.9883	-75.95592	3.131808E-007	0.0006208	8
	47	123	5.978954	196.8295	-793.582	1	817.6272	-76.07022	4.405849E-007	0.0006289	8
	48	126	4.734848	242.6054	-976.393	1	1006.082	-76.04623	3.509391E-007	0.0006079	8
	49	129	3.75601	301.4468	-1197.571	1	1234.927	-75.8713	4.93287E-007	0.0006503	8
	50	133	3.004808	373.0664	-1454.465	1	1501.548	-75.61392	4.217234E-007	0.0006345	8
	51	136	2.372217	470.3701	-1782.807	1	1843.814	-75.22006	4.166042E-007	0.0005981	8
	52	140	1.878005	589.4008	-2185.278	1	2263.367	-74.90568	4.525265E-007	0.0006216	8
	53	145	1.512097	720.9969	-2630.572	1	2727.589	-74.67257	4.020654E-007	0.0006886	8
	54	151	1.201923	902.8519	-3208.728	1	3333.328	-74.28479	4.261545E-007	0.0006388	8
	55	157	0.956633	1117.655	-3899.609	1	4056.612	-74.00734	3.531979E-007	-1.088112E-005	8
