EXPLAIN
TAG	EISPOT
TITLE	LABEL	Potentiostatic EIS	Test Identifier
DATE	LABEL	9/13/2020	Date
TIME	LABEL	15:44:08	Time
NOTES	NOTES	1	Notes...
	
PSTAT	PSTAT	REF3000-16137	Potentiostat
VDC	POTEN	0.00000E+000	T	DC Voltage (V)
FREQINIT	QUANT	3.00000E+005	Initial Freq. (Hz)
FREQFINAL	QUANT	1.00000E+000	Final Freq. (Hz)
PTSPERDEC	QUANT	1.00000E+001	Points/decade
VAC	QUANT	5.00000E+001	AC Voltage (mV rms)
AREA	QUANT	1.00000E+000	Sample Area (cm^2)
SPEED	SELECTOR	2	Optimize for:
ZGUESS	QUANT	1.00000E+003	Estimated Z (ohms)
EOC	QUANT	0	Open Circuit (V)
SEQUENCER	TOGGLE	TRUE	Run as Sequence
PSTATMODEL	IQUANT	5	Pstat Model
PSTATSECTION	LABEL	REF3000-16137	Pstat Section
PSTATSERIALNO	LABEL	16137	Pstat Serial Number
CTRLMODE	IQUANT	1	Control Mode
IESTAB	IQUANT	0	I/E Stability
CASPEED	IQUANT	1	Control Amp Speed
CONVENTION	IQUANT	1	Current Convention
ICHRANGE	IQUANT	2	Ich Range
ICHRANGEMODE	TOGGLE	F	Ich Auto Range
ICHOFFSETENABLE	TOGGLE	T	Ich Offset Enable
ICHOFFSET	QUANT	0	Ich Offset (V)
ICHFILTER	IQUANT	3	Ich Filter
VCHRANGE	IQUANT	2	Vch Range
VCHRANGEMODE	TOGGLE	F	Vch Auto Range
VCHOFFSETENABLE	TOGGLE	T	Vch Offset Enable
VCHOFFSET	QUANT	0	Vch Offset (V)
VCHFILTER	IQUANT	3	Vch Filter
ACHRANGE	IQUANT	2	Ach Range
ACHOFFSETENABLE	TOGGLE	F	Ach Offset Enable
ACHOFFSET	QUANT	0	Ach Offset (V)
ACHFILTER	IQUANT	3	Ach Filter
IERANGELOWERLIMIT	IQUANT	2	I/E Range Lower Limit
IERANGEMODE	TOGGLE	F	I/E AutoRange
IERANGE	IQUANT	11	I/E Range
POSFEEDENABLE	TOGGLE	F	Positive Feedback IR Comp
POSFEEDRESISTANCE	QUANT	0	Positive Feedback Resistance (ohm)
ACHSELECT	IQUANT	0	Ach Select
CABLEID	IQUANT	13	Cable ID
DCCALDATE	LABEL	7/31/2020	DC Calibration Date
ACCALDATE	LABEL	7/31/2020	AC Calibration Date
THERMOSELECT	IQUANT	1	Thermo Select
FRAMEWORKVERSION	QUANT	6.33	Framework Version
INSTRUMENTVERSION	LABEL	3.50	Instrument Version
COMPLIANCEVOLTAGE	IQUANT	0	Compliance Voltage
ZCURVE	TABLE
	Pt	Time	Freq	Zreal	Zimag	Zsig	Zmod	Zphz	Idc	Vdc	IERange
	#	s	Hz	ohm	ohm	V	ohm	°	A	V	#
	0	10	300046.9	3.037873	2.266955	1	3.790482	36.73145	1.1441E-005	-0.000152	10
	1	13	238359.4	2.994963	1.801552	1	3.495053	31.02805	5.931189E-005	-0.0007145	10
	2	17	189328.1	2.984056	1.426726	1	3.307588	25.55322	6.497228E-005	-0.0003643	10
	3	19	150421.9	3.021521	0.9381217	1	3.163805	17.24852	-5.343429E-005	7.704797E-005	12
	4	23	119484.4	2.972896	0.8572161	1	3.094015	16.08459	-0.0001102	0.0003022	11
	5	25	94921.88	2.968444	0.6556662	1	3.039993	12.45543	2.261946E-005	0.0005559	11
	6	28	75421.88	2.971061	0.4900098	1	3.011198	9.365346	-1.757443E-005	0.0005622	11
	7	30	59859.37	2.974288	0.3489034	1	2.994682	6.690592	1.598449E-005	0.0006228	11
	8	33	47578.12	2.979775	0.2277991	1	2.98847	4.371667	-4.130918E-005	0.0006059	11
	9	35	37828.12	2.987763	0.1191953	1	2.990139	2.284575	-3.365323E-005	0.0006415	11
	10	38	30046.88	2.99603	0.0172711	1	2.99608	0.3302865	-1.838093E-007	0.0006453	11
	11	40	23859.38	3.005161	-0.0827968	1	3.006301	-1.578188	2.096685E-005	0.0006681	11
	12	43	18984.38	3.017363	-0.1846469	1	3.023007	-3.501836	-2.962515E-005	0.0006669	11
	13	45	15046.87	3.02958	-0.2967291	1	3.044077	-5.593934	-2.658239E-005	0.0006532	11
	14	47	11953.13	3.045221	-0.4208769	1	3.074168	-7.86894	-3.353649E-005	0.0007163	11
	15	50	9515.62	3.062076	-0.5636914	1	3.113528	-10.43068	2.49767E-005	0.0007035	11
	16	52	7546.875	3.082811	-0.7350324	1	3.169226	-13.41061	-1.522729E-006	0.0006553	11
	17	54	5928.309	3.11071	-0.951176	1	3.252884	-17.0023	-3.985623E-005	0.000647	11
	18	57	4733.456	3.141902	-1.196198	1	3.36191	-20.84304	2.226133E-005	0.0006971	11
	19	59	3796.875	3.180822	-1.488761	1	3.511985	-25.08161	-1.448573E-005	0.0006728	11
	20	61	2987.132	3.23484	-1.878691	1	3.740811	-30.14664	1.799451E-005	0.0006325	10
	21	64	2390.625	3.295879	-2.325094	1	4.03347	-35.20124	-1.256005E-005	0.0006268	10
	22	66	1884.191	3.378487	-2.911018	1	4.459619	-40.74929	1.757273E-005	0.0006369	10
	23	68	1516.544	3.473199	-3.568467	1	4.979665	-45.77512	-2.198503E-005	0.0006645	10
	24	70	1193.986	3.606379	-4.457985	1	5.734073	-51.02816	1.778221E-005	0.0006371	10
	25	73	946.5144	3.768436	-5.529935	1	6.691883	-55.72709	2.04326E-005	0.0006462	10
	26	75	751.7689	3.97755	-6.836097	1	7.909053	-59.80722	1.799873E-005	0.0006315	10
	27	78	597.4265	4.240476	-8.442406	1	9.447532	-63.33041	5.311093E-006	0.0006366	10
	28	80	477.4305	4.572502	-10.36762	1	11.33116	-66.20075	-1.484419E-006	0.0006475	10
	29	82	376.6741	5.021888	-12.87064	1	13.81567	-68.68517	-1.884548E-006	0.0006497	10
	30	85	298.2954	5.597233	-15.90954	1	16.86542	-70.6173	-1.649339E-006	0.0006593	10
	31	87	237.7717	6.323969	-19.52744	1	20.52592	-72.05544	-5.797452E-006	0.0006991	10
	32	89	189.0121	7.279248	-24.00062	1	25.08021	-73.12775	-2.930809E-006	0.0006478	10
	33	92	150.2404	8.523694	-29.45301	1	30.66159	-73.85957	-1.932231E-006	0.0006509	10
	34	94	119.1737	10.15589	-36.14299	1	37.54275	-74.30507	-1.909546E-006	0.0006511	10
	35	97	95.0169	12.20254	-43.99876	1	45.65953	-74.49928	8.045021E-007	4.899279E-005	9
	36	99	75.60484	14.86376	-53.59107	1	55.61415	-74.49837	7.425973E-007	4.461114E-005	9
	37	102	54.50582	19.94178	-70.69865	1	73.4573	-74.24797	6.413179E-007	3.553348E-005	9
	38	104	45.95588	23.31683	-81.57372	1	84.84071	-74.04807	9.928104E-007	5.425192E-005	9
	39	106	37.20238	28.2754	-97.1336	1	101.1654	-73.76982	8.894402E-007	4.819929E-005	9
	40	109	30.04808	34.24923	-115.6355	1	120.6009	-73.50163	8.745665E-007	4.398344E-005	9
	41	111	23.91582	41.99339	-139.2446	1	145.439	-73.21774	9.008647E-007	4.679085E-005	9
	42	114	18.60119	52.1348	-170.488	1	178.2813	-72.99651	4.126234E-007	0.000114	9
	43	116	15.02404	62.39988	-202.6651	1	212.0539	-72.88658	9.26905E-007	4.899634E-005	9
	44	118	12.01923	75.20945	-243.0625	1	254.4324	-72.80666	8.075125E-007	5.309831E-005	9
	45	121	9.450605	91.84875	-295.9521	1	309.8771	-72.75827	1.02924E-006	4.341436E-005	9
	46	123	7.512019	111.7406	-357.9275	1	374.9641	-72.66228	1.103573E-006	5.477798E-005	9
	47	126	5.978954	135.8977	-431.241	1	452.1471	-72.50871	3.797944E-007	0.0006225	8
	48	129	4.734848	168.7936	-524.7131	1	551.1942	-72.16767	4.184779E-007	0.0006586	8
	49	132	3.75601	212.6566	-637.4104	1	671.9485	-71.54996	2.341015E-007	0.0006161	8
	50	136	3.004808	269.1997	-767.4064	1	813.2534	-70.66956	2.522417E-007	0.0006445	8
	51	139	2.372217	351.2325	-931.1069	1	995.15	-69.3325	2.815796E-007	0.0006775	8
	52	146	1.878005	461.0989	-1124.75	1	1215.596	-67.70848	1.734919E-007	0.0006196	8
	53	151	1.512097	594.5891	-1329.249	1	1456.173	-65.90047	2.898467E-007	0.0005526	8
	54	156	1.201923	789.5307	-1570.002	1	1757.346	-63.30285	2.461916E-007	0.0006175	8
	55	162	0.956633	1035.875	-1829.597	1	2102.49	-60.48249	1.625119E-007	-1.098847E-005	8
