EXPLAIN
TAG	EISPOT
TITLE	LABEL	Potentiostatic EIS	Test Identifier
DATE	LABEL	9/13/2020	Date
TIME	LABEL	15:41:19	Time
NOTES	NOTES	1	Notes...
	
PSTAT	PSTAT	REF3000-16137	Potentiostat
VDC	POTEN	0.00000E+000	T	DC Voltage (V)
FREQINIT	QUANT	3.00000E+005	Initial Freq. (Hz)
FREQFINAL	QUANT	1.00000E+000	Final Freq. (Hz)
PTSPERDEC	QUANT	1.00000E+001	Points/decade
VAC	QUANT	5.00000E+001	AC Voltage (mV rms)
AREA	QUANT	1.00000E+000	Sample Area (cm^2)
SPEED	SELECTOR	2	Optimize for:
ZGUESS	QUANT	1.00000E+003	Estimated Z (ohms)
EOC	QUANT	0	Open Circuit (V)
SEQUENCER	TOGGLE	TRUE	Run as Sequence
PSTATMODEL	IQUANT	5	Pstat Model
PSTATSECTION	LABEL	REF3000-16137	Pstat Section
PSTATSERIALNO	LABEL	16137	Pstat Serial Number
CTRLMODE	IQUANT	1	Control Mode
IESTAB	IQUANT	0	I/E Stability
CASPEED	IQUANT	1	Control Amp Speed
CONVENTION	IQUANT	1	Current Convention
ICHRANGE	IQUANT	2	Ich Range
ICHRANGEMODE	TOGGLE	F	Ich Auto Range
ICHOFFSETENABLE	TOGGLE	T	Ich Offset Enable
ICHOFFSET	QUANT	0	Ich Offset (V)
ICHFILTER	IQUANT	3	Ich Filter
VCHRANGE	IQUANT	2	Vch Range
VCHRANGEMODE	TOGGLE	F	Vch Auto Range
VCHOFFSETENABLE	TOGGLE	T	Vch Offset Enable
VCHOFFSET	QUANT	0	Vch Offset (V)
VCHFILTER	IQUANT	3	Vch Filter
ACHRANGE	IQUANT	2	Ach Range
ACHOFFSETENABLE	TOGGLE	F	Ach Offset Enable
ACHOFFSET	QUANT	0	Ach Offset (V)
ACHFILTER	IQUANT	3	Ach Filter
IERANGELOWERLIMIT	IQUANT	2	I/E Range Lower Limit
IERANGEMODE	TOGGLE	F	I/E AutoRange
IERANGE	IQUANT	11	I/E Range
POSFEEDENABLE	TOGGLE	F	Positive Feedback IR Comp
POSFEEDRESISTANCE	QUANT	0	Positive Feedback Resistance (ohm)
ACHSELECT	IQUANT	0	Ach Select
CABLEID	IQUANT	13	Cable ID
DCCALDATE	LABEL	7/31/2020	DC Calibration Date
ACCALDATE	LABEL	7/31/2020	AC Calibration Date
THERMOSELECT	IQUANT	1	Thermo Select
FRAMEWORKVERSION	QUANT	6.33	Framework Version
INSTRUMENTVERSION	LABEL	3.50	Instrument Version
COMPLIANCEVOLTAGE	IQUANT	0	Compliance Voltage
ZCURVE	TABLE
	Pt	Time	Freq	Zreal	Zimag	Zsig	Zmod	Zphz	Idc	Vdc	IERange
	#	s	Hz	ohm	ohm	V	ohm	°	A	V	#
	0	10	300046.9	2.998306	2.25892	1	3.754006	36.99433	5.78282E-005	-0.0003295	10
	1	14	238359.4	2.954765	1.802306	1	3.461061	31.38177	5.269646E-005	-0.0005504	10
	2	17	189328.1	3.015309	1.199801	1	3.245245	21.69777	-0.0001913	-0.0002903	12
	3	20	150421.9	2.914837	1.098202	1	3.114855	20.64454	-3.301649E-005	0.0003247	11
	4	23	119484.4	2.903242	0.8573031	1	3.027174	16.45143	2.486271E-005	0.0005244	11
	5	25	94921.88	2.892694	0.658028	1	2.966594	12.81552	9.986478E-006	0.0005498	11
	6	28	75421.88	2.885289	0.4908433	1	2.926742	9.65469	-2.407747E-005	0.0005278	11
	7	30	59859.37	2.881591	0.3497315	1	2.902736	6.920002	-1.11523E-005	0.0005693	11
	8	33	47578.12	2.879698	0.2287152	1	2.888767	4.54109	-2.280385E-005	0.0005909	11
	9	35	37828.12	2.880448	0.1207614	1	2.882978	2.400692	-3.568815E-005	0.0006368	11
	10	38	30046.88	2.880576	0.0190905	1	2.88064	0.3797123	1.429839E-006	0.0006521	11
	11	40	23859.38	2.882555	-0.0804296	1	2.883677	-1.598263	-3.860486E-005	0.0006832	11
	12	43	18984.38	2.88674	-0.1814089	1	2.892435	-3.59586	-1.906807E-005	0.0006644	11
	13	45	15046.87	2.892483	-0.2924558	1	2.90723	-5.773494	-3.614722E-005	0.0006733	11
	14	47	11953.13	2.89995	-0.4155395	1	2.92957	-8.154515	-1.355214E-005	0.0006757	11
	15	50	9515.62	2.909884	-0.5567228	1	2.962662	-10.83101	5.205758E-006	0.0006757	11
	16	52	7546.875	2.924467	-0.726396	1	3.01333	-13.94916	-1.829787E-005	0.0006824	11
	17	54	5928.309	2.943669	-0.9395863	1	3.089985	-17.7025	-1.082056E-006	0.0006714	11
	18	57	4733.456	2.96834	-1.181486	1	3.194832	-21.70399	-2.584257E-005	0.0006674	11
	19	59	3796.875	2.998782	-1.467695	1	3.338686	-26.07853	2.197784E-005	0.0006816	11
	20	61	2987.132	3.04335	-1.851428	1	3.562269	-31.31432	-6.612156E-006	0.0006683	11
	21	64	2390.625	3.100091	-2.290491	1	3.854467	-36.45871	8.318811E-006	0.0006554	10
	22	66	1884.191	3.175431	-2.864846	1	4.276763	-42.0565	2.165756E-005	0.0006315	10
	23	68	1516.544	3.26344	-3.508243	1	4.791431	-47.0704	2.127241E-005	0.0006371	10
	24	70	1193.986	3.387875	-4.37884	1	5.536419	-52.27116	1.382985E-005	0.0006427	10
	25	73	946.5144	3.543498	-5.427352	1	6.481708	-56.85963	1.624074E-005	0.0006488	10
	26	75	751.7689	3.746854	-6.702516	1	7.678713	-60.79385	-1.065431E-005	0.0006371	10
	27	78	597.4265	4.00353	-8.270338	1	9.188403	-64.16917	1.384869E-005	0.000641	10
	28	80	477.4305	4.331605	-10.14623	1	11.03217	-66.88152	-1.623272E-006	0.0006549	10
	29	82	376.6741	4.780643	-12.58057	1	13.45828	-69.1931	-1.022659E-006	0.00065	10
	30	85	298.2954	5.359392	-15.53052	1	16.42924	-70.96107	-1.867238E-006	0.0006552	10
	31	87	237.7717	6.093915	-19.03271	1	19.98449	-72.24591	-1.656032E-006	0.0006484	10
	32	89	189.0121	7.062917	-23.3486	1	24.39348	-73.16951	-1.910381E-006	0.0006497	10
	33	92	150.2404	8.32661	-28.59146	1	29.77925	-73.763	-2.403598E-006	0.0006455	10
	34	94	119.1737	9.98285	-34.99808	1	36.394	-74.07973	-2.459501E-006	0.0006487	10
	35	96	95.0169	12.04949	-42.48352	1	44.15926	-74.16521	6.318611E-007	4.737484E-005	9
	36	99	75.60484	14.71996	-51.58071	1	53.63998	-74.07246	5.951117E-007	4.59081E-005	9
	37	101	54.50582	19.76428	-67.75752	1	70.58122	-73.73849	4.344946E-007	4.405862E-005	9
	38	104	45.95588	23.07097	-77.96457	1	81.30648	-73.51566	8.75087E-007	5.440792E-005	9
	39	106	37.20238	27.88113	-92.55947	1	96.6675	-73.23644	5.788211E-007	5.939028E-005	9
	40	109	30.04808	33.70349	-110.006	1	115.0532	-72.96605	6.337642E-007	5.513603E-005	9
	41	111	23.91582	41.08506	-132.1478	1	138.3873	-72.72941	4.435592E-007	5.894703E-005	9
	42	113	18.60119	50.79851	-161.6117	1	169.4073	-72.5508	8.356363E-007	5.385354E-005	9
	43	116	15.02404	60.76899	-192.0596	1	201.4442	-72.44227	9.666164E-007	6.568917E-005	9
	44	118	12.01923	73.52609	-230.2792	1	241.7325	-72.29218	7.629857E-007	5.4296E-005	9
	45	120	9.450605	90.65388	-280.497	1	294.7825	-72.08968	6.351717E-007	5.542576E-005	9
	46	123	7.512019	111.8277	-339.1061	1	357.0692	-71.74889	7.950837E-007	5.914614E-005	9
	47	126	5.978954	138.9184	-407.5623	1	430.5872	-71.17823	1.305136E-008	0.0006328	8
	48	129	4.734848	176.7723	-494.1641	1	524.8301	-70.31686	2.46018E-007	0.0006387	8
	49	132	3.75601	228.1144	-595.6563	1	637.8422	-69.04501	1.509872E-008	0.0006218	8
	50	135	3.004808	294.8853	-709.1917	1	768.0561	-67.42223	2.257296E-007	0.0006157	8
	51	139	2.372217	392.2781	-844.234	1	930.9206	-65.0778	1.338272E-007	0.0006531	8
	52	143	1.878005	522.4641	-992.891	1	1121.964	-62.24645	4.668456E-009	0.0006174	8
	53	148	1.512097	673.4238	-1135.307	1	1320.008	-59.32509	1.060011E-007	0.0005686	8
	54	154	1.201923	879.6482	-1283.313	1	1555.851	-55.57126	7.363494E-008	0.000617	8
	55	160	0.956633	1121.215	-1414.99	1	1805.359	-51.60726	-9.217013E-008	-1.131385E-005	8
