EXPLAIN
TAG	EISPOT
TITLE	LABEL	Potentiostatic EIS	Test Identifier
DATE	LABEL	9/13/2020	Date
TIME	LABEL	15:58:07	Time
NOTES	NOTES	1	Notes...
	
PSTAT	PSTAT	REF3000-16137	Potentiostat
VDC	POTEN	0.00000E+000	T	DC Voltage (V)
FREQINIT	QUANT	3.00000E+005	Initial Freq. (Hz)
FREQFINAL	QUANT	1.00000E+000	Final Freq. (Hz)
PTSPERDEC	QUANT	1.00000E+001	Points/decade
VAC	QUANT	5.00000E+001	AC Voltage (mV rms)
AREA	QUANT	1.00000E+000	Sample Area (cm^2)
SPEED	SELECTOR	2	Optimize for:
ZGUESS	QUANT	1.00000E+003	Estimated Z (ohms)
EOC	QUANT	0	Open Circuit (V)
SEQUENCER	TOGGLE	TRUE	Run as Sequence
PSTATMODEL	IQUANT	5	Pstat Model
PSTATSECTION	LABEL	REF3000-16137	Pstat Section
PSTATSERIALNO	LABEL	16137	Pstat Serial Number
CTRLMODE	IQUANT	1	Control Mode
IESTAB	IQUANT	0	I/E Stability
CASPEED	IQUANT	1	Control Amp Speed
CONVENTION	IQUANT	1	Current Convention
ICHRANGE	IQUANT	2	Ich Range
ICHRANGEMODE	TOGGLE	F	Ich Auto Range
ICHOFFSETENABLE	TOGGLE	T	Ich Offset Enable
ICHOFFSET	QUANT	0	Ich Offset (V)
ICHFILTER	IQUANT	3	Ich Filter
VCHRANGE	IQUANT	2	Vch Range
VCHRANGEMODE	TOGGLE	F	Vch Auto Range
VCHOFFSETENABLE	TOGGLE	T	Vch Offset Enable
VCHOFFSET	QUANT	0	Vch Offset (V)
VCHFILTER	IQUANT	3	Vch Filter
ACHRANGE	IQUANT	2	Ach Range
ACHOFFSETENABLE	TOGGLE	F	Ach Offset Enable
ACHOFFSET	QUANT	0	Ach Offset (V)
ACHFILTER	IQUANT	3	Ach Filter
IERANGELOWERLIMIT	IQUANT	2	I/E Range Lower Limit
IERANGEMODE	TOGGLE	F	I/E AutoRange
IERANGE	IQUANT	11	I/E Range
POSFEEDENABLE	TOGGLE	F	Positive Feedback IR Comp
POSFEEDRESISTANCE	QUANT	0	Positive Feedback Resistance (ohm)
ACHSELECT	IQUANT	0	Ach Select
CABLEID	IQUANT	13	Cable ID
DCCALDATE	LABEL	7/31/2020	DC Calibration Date
ACCALDATE	LABEL	7/31/2020	AC Calibration Date
THERMOSELECT	IQUANT	1	Thermo Select
FRAMEWORKVERSION	QUANT	6.33	Framework Version
INSTRUMENTVERSION	LABEL	3.50	Instrument Version
COMPLIANCEVOLTAGE	IQUANT	0	Compliance Voltage
ZCURVE	TABLE
	Pt	Time	Freq	Zreal	Zimag	Zsig	Zmod	Zphz	Idc	Vdc	IERange
	#	s	Hz	ohm	ohm	V	ohm	°	A	V	#
	0	7	300046.9	63.35278	1.883896	1	63.38078	1.703279	-6.365841E-005	0.0021077	9
	1	10	238359.4	65.22054	1.311743	1	65.23373	1.152202	-2.752651E-005	-0.0005203	9
	2	13	189328.1	66.89828	0.9188988	1	66.90459	0.7869515	1.663389E-005	-0.0005899	9
	3	16	150421.9	68.39647	0.6762902	1	68.39981	0.5665104	-4.579556E-005	0.0007385	9
	4	18	119484.4	69.98528	0.4293025	1	69.9866	0.3514583	-6.077275E-005	0.001768	9
	5	21	94921.88	71.60661	0.5370774	1	71.60863	0.4297325	-1.559549E-005	0.0006448	9
	6	23	75421.88	73.14238	0.3181082	1	73.14307	0.2491872	-4.808554E-006	-0.0001983	9
	7	26	59859.37	74.83115	0.1186081	1	74.83125	0.0908143	1.763911E-005	-0.0001324	9
	8	29	47578.12	76.56818	-0.0146497	1	76.56818	-0.0109624	-1.791987E-005	0.0003937	9
	9	31	37828.12	78.36533	-0.1505612	1	78.36548	-0.1100807	1.726938E-005	-0.0006703	9
	10	34	30046.88	80.21393	-0.2609905	1	80.21436	-0.1864215	1.107082E-005	0.0001569	9
	11	36	23859.38	82.00974	-0.3440277	1	82.01047	-0.2403522	1.205035E-005	-0.0006322	9
	12	38	18984.38	83.77879	-0.4882644	1	83.78021	-0.3339171	-1.950185E-005	0.0005507	9
	13	41	15046.87	85.58946	-0.6701376	1	85.59209	-0.4485981	1.849834E-005	-0.000178	9
	14	43	11953.13	87.43279	-0.7810227	1	87.43627	-0.5118002	-1.870488E-005	0.0004337	9
	15	45	9515.62	89.34431	-0.956881	1	89.34944	-0.6136162	-1.686316E-005	0.0008317	9
	16	48	7546.875	91.31905	-1.194258	1	91.32687	-0.7492636	-1.596863E-005	0.0002146	9
	17	50	5928.309	93.29322	-1.488597	1	93.3051	-0.9141403	1.745921E-005	-0.0000998	9
	18	52	4733.456	95.4189	-1.872085	1	95.4373	-1.123979	-1.706416E-005	0.0003821	9
	19	55	3796.875	97.5274	-2.312106	1	97.5548	-1.358071	2.214054E-005	-0.0002575	9
	20	57	2987.132	99.7941	-2.884736	1	99.8358	-1.655781	-1.724524E-005	0.0008242	9
	21	59	2390.625	101.9835	-3.569874	1	102.046	-2.004787	-1.06407E-005	1.520865E-005	9
	22	62	1884.191	104.4701	-4.411993	1	104.5632	-2.418285	2.36919E-005	-0.0005887	9
	23	64	1516.544	106.9023	-5.372063	1	107.0372	-2.876813	-1.854467E-005	0.0008499	9
	24	66	1193.986	109.6171	-6.805052	1	109.8281	-3.552376	2.203747E-005	-0.0002811	9
	25	69	946.5144	112.3159	-8.49731	1	112.6369	-4.326496	-1.495428E-006	-0.0003196	9
	26	71	751.7689	115.0502	-10.52319	1	115.5304	-5.226081	-1.885712E-005	0.0004579	9
	27	73	597.4265	117.998	-13.06263	1	118.7189	-6.317042	1.885378E-005	-0.0001011	9
	28	76	477.4305	121.0181	-16.12716	1	122.088	-7.59065	1.212036E-006	4.908764E-005	9
	29	78	376.6741	124.2079	-20.1833	1	125.8371	-9.229668	1.232523E-006	4.867966E-005	9
	30	80	298.2954	127.5822	-25.17658	1	130.0426	-11.1631	1.200407E-006	5.427857E-005	9
	31	83	237.7717	131.3049	-31.21571	1	134.9645	-13.37293	1.22076E-006	5.075629E-005	9
	32	85	189.0121	135.2915	-38.80406	1	140.7464	-16.00385	1.146354E-006	5.912675E-005	9
	33	87	150.2404	139.6097	-48.22465	1	147.704	-19.05618	1.233845E-006	5.638572E-005	9
	34	90	119.1737	144.2956	-60.0293	1	156.2841	-22.5881	7.698214E-007	0.0001079	9
	35	92	95.0169	149.505	-74.33015	1	166.9632	-26.43541	1.207705E-006	5.313335E-005	9
	36	95	75.60484	155.4755	-92.18098	1	180.7484	-30.66358	1.205294E-006	5.121301E-005	9
	37	97	54.50582	163.6869	-125.1754	1	206.0638	-37.40602	1.278667E-006	5.070862E-005	9
	38	100	45.95588	170.4982	-146.9179	1	225.0655	-40.75139	1.228728E-006	5.626718E-005	9
	39	102	37.20238	178.736	-178.9518	1	252.9234	-45.03456	1.195373E-006	5.858E-005	9
	40	104	30.04808	188.5287	-218.3534	1	288.481	-49.19231	1.256367E-006	5.564401E-005	9
	41	107	23.91582	200.3833	-269.8062	1	336.0786	-53.39898	1.213329E-006	5.129088E-005	9
	42	109	18.60119	215.23	-340.2698	1	402.6258	-57.68552	1.113423E-006	6.158762E-005	9
	43	112	15.02404	230.1462	-412.5691	1	472.4199	-60.84562	4.624233E-008	0.0006324	8
	44	114	12.01923	249.826	-506.6667	1	564.9108	-63.75313	-2.420783E-008	0.0006288	8
	45	116	9.450605	275.0813	-631.8203	1	689.1057	-66.4727	5.528792E-008	0.000648	8
	46	119	7.512019	305.0313	-780.027	1	837.5478	-68.64191	9.925279E-008	0.000657	8
	47	122	5.978954	342.345	-961.786	1	1020.898	-70.40695	2.327021E-008	0.0006408	8
	48	125	4.734848	388.9839	-1192.433	1	1254.274	-71.93314	9.731239E-008	0.0006522	8
	49	128	3.75601	447.7564	-1474.672	1	1541.15	-73.11007	-1.553796E-008	0.0006238	8
	50	131	3.004808	518.3158	-1809.577	1	1882.344	-74.01674	3.389074E-008	0.0006237	8
	51	135	2.372217	612.4914	-2246.096	1	2328.109	-74.74679	2.506092E-008	0.0006228	8
	52	139	1.878005	735.3574	-2789.602	1	2884.896	-75.2324	-1.344279E-008	0.0006296	8
	53	144	1.512097	872.9258	-3408.44	1	3518.446	-75.6349	6.282143E-009	0.0005335	8
	54	149	1.201923	1070.068	-4227.217	1	4360.552	-75.79469	-3.232022E-008	0.0006021	7
	55	156	0.956633	1308.197	-5218.705	1	5380.172	-75.92738	-3.049988E-008	-3.67137E-005	7
