EXPLAIN
TAG	EISPOT
TITLE	LABEL	Potentiostatic EIS	Test Identifier
DATE	LABEL	9/13/2020	Date
TIME	LABEL	15:47:00	Time
NOTES	NOTES	1	Notes...
	
PSTAT	PSTAT	REF3000-16137	Potentiostat
VDC	POTEN	0.00000E+000	T	DC Voltage (V)
FREQINIT	QUANT	3.00000E+005	Initial Freq. (Hz)
FREQFINAL	QUANT	1.00000E+000	Final Freq. (Hz)
PTSPERDEC	QUANT	1.00000E+001	Points/decade
VAC	QUANT	5.00000E+001	AC Voltage (mV rms)
AREA	QUANT	1.00000E+000	Sample Area (cm^2)
SPEED	SELECTOR	2	Optimize for:
ZGUESS	QUANT	1.00000E+003	Estimated Z (ohms)
EOC	QUANT	0	Open Circuit (V)
SEQUENCER	TOGGLE	TRUE	Run as Sequence
PSTATMODEL	IQUANT	5	Pstat Model
PSTATSECTION	LABEL	REF3000-16137	Pstat Section
PSTATSERIALNO	LABEL	16137	Pstat Serial Number
CTRLMODE	IQUANT	1	Control Mode
IESTAB	IQUANT	0	I/E Stability
CASPEED	IQUANT	1	Control Amp Speed
CONVENTION	IQUANT	1	Current Convention
ICHRANGE	IQUANT	2	Ich Range
ICHRANGEMODE	TOGGLE	F	Ich Auto Range
ICHOFFSETENABLE	TOGGLE	T	Ich Offset Enable
ICHOFFSET	QUANT	0	Ich Offset (V)
ICHFILTER	IQUANT	3	Ich Filter
VCHRANGE	IQUANT	2	Vch Range
VCHRANGEMODE	TOGGLE	F	Vch Auto Range
VCHOFFSETENABLE	TOGGLE	T	Vch Offset Enable
VCHOFFSET	QUANT	0	Vch Offset (V)
VCHFILTER	IQUANT	3	Vch Filter
ACHRANGE	IQUANT	2	Ach Range
ACHOFFSETENABLE	TOGGLE	F	Ach Offset Enable
ACHOFFSET	QUANT	0	Ach Offset (V)
ACHFILTER	IQUANT	3	Ach Filter
IERANGELOWERLIMIT	IQUANT	2	I/E Range Lower Limit
IERANGEMODE	TOGGLE	F	I/E AutoRange
IERANGE	IQUANT	11	I/E Range
POSFEEDENABLE	TOGGLE	F	Positive Feedback IR Comp
POSFEEDRESISTANCE	QUANT	0	Positive Feedback Resistance (ohm)
ACHSELECT	IQUANT	0	Ach Select
CABLEID	IQUANT	13	Cable ID
DCCALDATE	LABEL	7/31/2020	DC Calibration Date
ACCALDATE	LABEL	7/31/2020	AC Calibration Date
THERMOSELECT	IQUANT	1	Thermo Select
FRAMEWORKVERSION	QUANT	6.33	Framework Version
INSTRUMENTVERSION	LABEL	3.50	Instrument Version
COMPLIANCEVOLTAGE	IQUANT	0	Compliance Voltage
ZCURVE	TABLE
	Pt	Time	Freq	Zreal	Zimag	Zsig	Zmod	Zphz	Idc	Vdc	IERange
	#	s	Hz	ohm	ohm	V	ohm	°	A	V	#
	0	10	300046.9	3.630901	2.253298	1	4.273265	31.82329	6.693063E-005	-0.0002968	10
	1	13	238359.4	3.611196	1.806189	1	4.037704	26.57255	-0.0001107	-0.000427	10
	2	16	189328.1	3.60116	1.427188	1	3.873657	21.61909	-0.0001004	-0.0001358	10
	3	19	150421.9	3.602297	1.109347	1	3.769243	17.1165	3.526027E-005	0.0002035	10
	4	21	119484.4	3.607635	0.8678302	1	3.710547	13.52573	1.10851E-005	0.0002952	10
	5	24	94921.88	3.617944	0.6796613	1	3.68123	10.63949	2.895769E-006	0.0004377	10
	6	26	75421.88	3.629161	0.5052872	1	3.664168	7.926322	2.741771E-005	0.0004093	10
	7	29	59859.37	3.643187	0.3598308	1	3.660914	5.640703	-1.162877E-005	0.0005338	10
	8	31	47578.12	3.658262	0.2336713	1	3.665717	3.6548	-7.135756E-006	0.0005268	10
	9	34	37828.12	3.676024	0.1210553	1	3.678016	1.886128	-1.552735E-005	0.0005998	10
	10	36	30046.88	3.694458	0.0146526	1	3.694487	0.2272396	-2.946369E-005	0.0005966	10
	11	39	23859.38	3.715064	-0.0893377	1	3.716138	-1.377551	-1.067115E-005	0.000648	10
	12	41	18984.38	3.735884	-0.1953306	1	3.740987	-2.992983	-7.718998E-006	0.0006257	10
	13	44	15046.87	3.757974	-0.3110849	1	3.770828	-4.732153	1.928585E-005	0.0006026	10
	14	46	11953.13	3.782946	-0.4403563	1	3.80849	-6.63967	1.316455E-005	0.00061	10
	15	48	9515.62	3.810623	-0.5881411	1	3.855744	-8.773941	-8.834577E-006	0.000643	10
	16	51	7546.875	3.841264	-0.7661042	1	3.916915	-11.27911	1.558922E-005	0.0006162	10
	17	53	5928.309	3.878475	-0.991309	1	4.003156	-14.33741	3.931679E-006	0.0006146	10
	18	55	4733.456	3.919321	-1.24736	1	4.113026	-17.65416	1.695551E-005	0.0006356	10
	19	57	3796.875	3.967252	-1.552477	1	4.260196	-21.37155	-2.18842E-005	0.0006334	10
	20	60	2987.132	4.028221	-1.959952	1	4.47973	-25.94548	-2.218496E-005	0.0006671	10
	21	62	2390.625	4.098202	-2.427262	1	4.763073	-30.63719	-2.971094E-005	0.0007006	10
	22	64	1884.191	4.190249	-3.041542	1	5.177757	-35.97446	1.068421E-005	0.0006148	10
	23	67	1516.544	4.294041	-3.732455	1	5.689465	-40.99773	2.017014E-005	0.0006302	10
	24	69	1193.986	4.435248	-4.669767	1	6.440353	-46.47545	2.833724E-006	0.0006464	10
	25	72	946.5144	4.614302	-5.793749	1	7.406707	-51.46522	1.11716E-005	0.0006147	10
	26	74	751.7689	4.825891	-7.17925	1	8.650483	-56.09101	-2.716428E-005	0.0006631	10
	27	76	597.4265	5.099552	-8.87561	1	10.2363	-60.12014	9.07478E-006	0.000608	10
	28	78	477.4305	5.431042	-10.91151	1	12.18841	-63.53885	-2.743866E-006	0.0006603	10
	29	81	376.6741	5.878539	-13.56488	1	14.78388	-66.5698	-2.542507E-006	0.0006525	10
	30	83	298.2954	6.444048	-16.79517	1	17.98898	-69.00896	-2.680552E-006	0.0006533	10
	31	85	237.7717	7.152789	-20.65718	1	21.8605	-70.90099	-2.139298E-006	0.0006469	10
	32	88	189.0121	8.074359	-25.44799	1	26.69823	-72.39635	-7.062301E-006	0.0007028	10
	33	90	150.2404	9.273911	-31.32534	1	32.66929	-73.50854	-2.596304E-006	0.0006468	10
	34	93	119.1737	10.84451	-38.57772	1	40.07298	-74.2989	-2.603831E-006	0.0006469	10
	35	95	95.0169	12.82149	-47.15541	1	48.8674	-74.78909	9.762439E-007	4.516478E-005	9
	36	98	75.60484	15.41973	-57.70913	1	59.73368	-75.0402	8.80165E-007	4.472073E-005	9
	37	100	54.50582	20.47612	-76.71654	1	79.40213	-75.05577	8.078064E-007	4.511314E-005	9
	38	103	45.95588	23.9067	-88.86308	1	92.02271	-74.94232	1.089518E-006	5.523621E-005	9
	39	105	37.20238	29.05115	-106.3323	1	110.2295	-74.71909	1.086886E-006	4.767205E-005	9
	40	107	30.04808	35.42029	-127.2126	1	132.0517	-74.441	9.356917E-007	4.566327E-005	9
	41	110	23.91582	43.69296	-153.644	1	159.7359	-74.12542	7.672824E-007	4.925963E-005	9
	42	112	18.60119	54.8956	-188.7534	1	196.5741	-73.78386	1.062181E-006	5.232979E-005	9
	43	114	15.02404	66.20787	-224.6158	1	234.1703	-73.57656	9.448721E-007	4.749926E-005	9
	44	117	12.01923	80.16071	-269.1208	1	280.8055	-73.41324	1.000206E-006	5.045517E-005	9
	45	119	9.450605	98.0142	-327.2623	1	341.6246	-73.32717	1.118686E-006	5.142196E-005	9
	46	122	7.512019	118.0935	-394.9485	1	412.2261	-73.35281	1.191463E-006	5.734318E-005	9
	47	124	5.978954	141.2663	-474.7458	1	495.3179	-73.42899	4.811561E-007	0.0006255	8
	48	127	4.734848	171.1245	-577.069	1	601.9071	-73.48277	4.50706E-007	0.0006506	8
	49	131	3.75601	207.3867	-702.0119	1	732.0041	-73.54193	4.327138E-007	0.0006292	8
	50	134	3.004808	251.7231	-848.6122	1	885.1594	-73.47811	4.011312E-007	0.0006551	8
	51	138	2.372217	313.7516	-1040.746	1	1087.011	-73.22363	4.183205E-007	0.0007041	8
	52	142	1.878005	393.5598	-1272.71	1	1332.172	-72.81684	3.848454E-007	0.000601	8
	53	147	1.512097	493.424	-1530.135	1	1607.726	-72.12701	4.404261E-007	0.000666	8
	54	152	1.201923	635.4296	-1867.013	1	1972.183	-71.20422	4.133113E-007	0.0005986	8
	55	158	0.956633	827.5237	-2260.789	1	2407.481	-69.89571	3.3847E-007	-7.711305E-006	8
