EXPLAIN
TAG	EISPOT
TITLE	LABEL	Potentiostatic EIS	Test Identifier
DATE	LABEL	9/13/2020	Date
TIME	LABEL	16:00:52	Time
NOTES	NOTES	1	Notes...
	
PSTAT	PSTAT	REF3000-16137	Potentiostat
VDC	POTEN	0.00000E+000	T	DC Voltage (V)
FREQINIT	QUANT	3.00000E+005	Initial Freq. (Hz)
FREQFINAL	QUANT	1.00000E+000	Final Freq. (Hz)
PTSPERDEC	QUANT	1.00000E+001	Points/decade
VAC	QUANT	5.00000E+001	AC Voltage (mV rms)
AREA	QUANT	1.00000E+000	Sample Area (cm^2)
SPEED	SELECTOR	2	Optimize for:
ZGUESS	QUANT	1.00000E+003	Estimated Z (ohms)
EOC	QUANT	0	Open Circuit (V)
SEQUENCER	TOGGLE	TRUE	Run as Sequence
PSTATMODEL	IQUANT	5	Pstat Model
PSTATSECTION	LABEL	REF3000-16137	Pstat Section
PSTATSERIALNO	LABEL	16137	Pstat Serial Number
CTRLMODE	IQUANT	1	Control Mode
IESTAB	IQUANT	0	I/E Stability
CASPEED	IQUANT	1	Control Amp Speed
CONVENTION	IQUANT	1	Current Convention
ICHRANGE	IQUANT	2	Ich Range
ICHRANGEMODE	TOGGLE	F	Ich Auto Range
ICHOFFSETENABLE	TOGGLE	T	Ich Offset Enable
ICHOFFSET	QUANT	0	Ich Offset (V)
ICHFILTER	IQUANT	3	Ich Filter
VCHRANGE	IQUANT	2	Vch Range
VCHRANGEMODE	TOGGLE	F	Vch Auto Range
VCHOFFSETENABLE	TOGGLE	T	Vch Offset Enable
VCHOFFSET	QUANT	0	Vch Offset (V)
VCHFILTER	IQUANT	3	Vch Filter
ACHRANGE	IQUANT	2	Ach Range
ACHOFFSETENABLE	TOGGLE	F	Ach Offset Enable
ACHOFFSET	QUANT	0	Ach Offset (V)
ACHFILTER	IQUANT	3	Ach Filter
IERANGELOWERLIMIT	IQUANT	2	I/E Range Lower Limit
IERANGEMODE	TOGGLE	F	I/E AutoRange
IERANGE	IQUANT	11	I/E Range
POSFEEDENABLE	TOGGLE	F	Positive Feedback IR Comp
POSFEEDRESISTANCE	QUANT	0	Positive Feedback Resistance (ohm)
ACHSELECT	IQUANT	0	Ach Select
CABLEID	IQUANT	13	Cable ID
DCCALDATE	LABEL	7/31/2020	DC Calibration Date
ACCALDATE	LABEL	7/31/2020	AC Calibration Date
THERMOSELECT	IQUANT	1	Thermo Select
FRAMEWORKVERSION	QUANT	6.33	Framework Version
INSTRUMENTVERSION	LABEL	3.50	Instrument Version
COMPLIANCEVOLTAGE	IQUANT	0	Compliance Voltage
ZCURVE	TABLE
	Pt	Time	Freq	Zreal	Zimag	Zsig	Zmod	Zphz	Idc	Vdc	IERange
	#	s	Hz	ohm	ohm	V	ohm	°	A	V	#
	0	9	300046.9	362.3723	-44.12002	1	365.0483	-6.941782	4.672368E-005	0.000599	10
	1	17	238359.4	394.0031	-36.53606	1	395.6935	-5.297909	2.074705E-005	-0.0005681	9
	2	22	189328.1	421.5174	-32.72598	1	422.7859	-4.439452	-3.391482E-006	-0.0017307	9
	3	27	150421.9	461.5188	-32.7643	1	462.6804	-4.060749	1.790897E-005	-0.000862	9
	4	34	119484.4	489.3807	-14.65045	1	489.5999	-1.714735	6.339087E-007	-0.0083547	8
	5	37	94921.88	509.0594	-11.63788	1	509.1924	-1.309641	-1.552559E-005	0.005183	8
	6	40	75421.88	526.3203	-10.562	1	526.4262	-1.149636	-1.366293E-005	0.0067824	8
	7	42	59859.37	543.545	-9.483345	1	543.6277	-0.99955	-1.022571E-005	0.006779	8
	8	45	47578.12	562.6254	-8.85562	1	562.6951	-0.9017506	-1.431441E-005	0.0029031	8
	9	48	37828.12	581.4308	-9.208374	1	581.5038	-0.9073424	8.44789E-007	0.0043865	8
	10	50	30046.88	603.7197	-8.637629	1	603.7814	-0.8196948	-9.822937E-006	0.0069184	8
	11	53	23859.38	624.3251	-7.483905	1	624.37	-0.6867826	1.27348E-005	-0.0003852	8
	12	55	18984.38	644.4672	-7.091683	1	644.5062	-0.6304543	-1.491675E-005	0.0076892	8
	13	57	15046.87	670.0894	-9.090877	1	670.1511	-0.7772648	-1.651127E-005	0.0043743	8
	14	60	11953.13	691.4477	-6.301323	1	691.4764	-0.5221353	-1.786243E-005	0.0047722	8
	15	63	9515.62	718.1174	-6.615942	1	718.1479	-0.5278451	1.856064E-005	-0.0052795	8
	16	65	7546.875	742.2039	-5.494171	1	742.2242	-0.4241247	3.768937E-006	-0.0046129	8
	17	68	5928.309	768.962	-7.247726	1	768.9962	-0.5400161	-1.813674E-005	0.005982	8
	18	70	4733.456	798.9586	-4.286174	1	798.97	-0.3073718	-1.538738E-005	0.0075962	8
	19	73	3796.875	831.2907	-5.437378	1	831.3085	-0.3747598	-1.578385E-005	0.0029878	8
	20	76	2987.132	865.4694	-5.765826	1	865.4886	-0.3817034	-1.899925E-005	0.0061058	8
	21	79	2390.625	901.7508	-6.916343	1	901.7773	-0.4394446	9.422562E-006	-0.0060664	8
	22	81	1884.191	935.4548	-8.713648	1	935.4954	-0.5336878	2.945485E-007	0.0051123	8
	23	84	1516.544	975.423	-8.504402	1	975.46	-0.4995312	-1.323254E-005	0.0013559	8
	24	87	1193.986	1021.771	-10.6901	1	1021.827	-0.5994248	1.827859E-005	-0.0025514	8
	25	90	946.5144	1064.397	-13.15669	1	1064.479	-0.7081796	-1.692504E-005	0.0029867	8
	26	93	751.7689	1110.691	-10.24912	1	1110.738	-0.5286931	-1.69019E-005	0.0031141	8
	27	95	597.4265	1158.967	-16.20904	1	1159.081	-0.8012729	4.587927E-006	-0.0052431	8
	28	98	477.4305	1197.844	-21.33416	1	1198.034	-1.020357	-2.618298E-007	0.0006231	8
	29	100	376.6741	1241.474	-26.21747	1	1241.751	-1.209794	-2.550855E-007	0.0006373	8
	30	103	298.2954	1286.792	-32.27712	1	1287.197	-1.436871	-2.777053E-007	0.0006333	8
	31	105	237.7717	1335.827	-39.75733	1	1336.418	-1.704753	-2.63037E-007	0.0006364	8
	32	107	189.0121	1387.573	-49.11244	1	1388.442	-2.027109	-2.860597E-007	0.0006228	8
	33	110	150.2404	1441.118	-60.85549	1	1442.402	-2.418049	-2.522083E-007	0.0006262	8
	34	112	119.1737	1497.115	-75.73286	1	1499.03	-2.895888	-2.893311E-007	0.0006327	8
	35	114	95.0169	1556.618	-93.40807	1	1559.418	-3.434034	-2.541765E-007	0.0006236	8
	36	117	75.60484	1621.922	-115.9491	1	1626.062	-4.089045	-2.558902E-007	0.0006191	8
	37	119	54.50582	1692.631	-157.6781	1	1699.959	-5.322065	-2.89214E-007	0.0006411	8
	38	122	45.95588	1762.18	-184.841	1	1771.847	-5.98805	-3.448288E-007	0.0006146	8
	39	124	37.20238	1832.87	-226.5744	1	1846.822	-7.046997	-2.753773E-007	0.000637	8
	40	127	30.04808	1909.701	-276.9511	1	1929.678	-8.251696	-2.347882E-007	0.0006152	8
	41	129	23.91582	1991.871	-345.5939	1	2021.629	-9.84296	-4.51258E-007	0.0006415	8
	42	132	18.60119	2077.054	-439.7383	1	2123.093	-11.95372	-9.931766E-008	0.0006187	8
	43	134	15.02404	2167.809	-531.1645	1	2231.935	-13.76758	-5.087381E-007	0.0006411	8
	44	136	12.01923	2268.405	-658.7518	1	2362.121	-16.19346	-1.577766E-007	0.0006267	8
	45	139	9.450605	2374.677	-829.3119	1	2515.323	-19.25081	-4.202895E-007	0.0006174	8
	46	141	7.512019	2505.137	-1034.026	1	2710.151	-22.42899	-3.98188E-007	0.0006331	8
	47	144	5.978954	2658.544	-1279.339	1	2950.35	-25.69768	-3.091255E-007	0.0006198	8
	48	147	4.734848	2838.198	-1597.26	1	3256.779	-29.36962	-3.869015E-007	0.0006196	8
	49	150	3.75601	3054.09	-1985.517	1	3642.766	-33.02859	-2.723486E-007	0.0006568	8
	50	154	3.004808	3309.734	-2454.699	1	4120.666	-36.56287	-4.898204E-008	0.0005652	7
	51	157	2.372217	3613.652	-3060.963	1	4735.818	-40.26645	-6.586967E-008	0.0005553	7
	52	161	1.878005	3996.253	-3827.672	1	5533.635	-43.76565	-5.01546E-008	0.000598	7
	53	166	1.512097	4449.728	-4703.748	1	6474.977	-46.58961	-7.300489E-008	0.0006408	7
	54	172	1.201923	5065.37	-5869.104	1	7752.7	-49.20394	-5.768053E-008	0.0006059	7
	55	178	0.956633	5802.282	-7301.422	1	9326.159	-51.52659	-8.52179E-008	-4.25882E-005	7
