EXPLAIN
TAG	EISPOT
TITLE	LABEL	Potentiostatic EIS	Test Identifier
DATE	LABEL	9/13/2020	Date
TIME	LABEL	15:49:48	Time
NOTES	NOTES	1	Notes...
	
PSTAT	PSTAT	REF3000-16137	Potentiostat
VDC	POTEN	0.00000E+000	T	DC Voltage (V)
FREQINIT	QUANT	3.00000E+005	Initial Freq. (Hz)
FREQFINAL	QUANT	1.00000E+000	Final Freq. (Hz)
PTSPERDEC	QUANT	1.00000E+001	Points/decade
VAC	QUANT	5.00000E+001	AC Voltage (mV rms)
AREA	QUANT	1.00000E+000	Sample Area (cm^2)
SPEED	SELECTOR	2	Optimize for:
ZGUESS	QUANT	1.00000E+003	Estimated Z (ohms)
EOC	QUANT	0	Open Circuit (V)
SEQUENCER	TOGGLE	TRUE	Run as Sequence
PSTATMODEL	IQUANT	5	Pstat Model
PSTATSECTION	LABEL	REF3000-16137	Pstat Section
PSTATSERIALNO	LABEL	16137	Pstat Serial Number
CTRLMODE	IQUANT	1	Control Mode
IESTAB	IQUANT	0	I/E Stability
CASPEED	IQUANT	1	Control Amp Speed
CONVENTION	IQUANT	1	Current Convention
ICHRANGE	IQUANT	2	Ich Range
ICHRANGEMODE	TOGGLE	F	Ich Auto Range
ICHOFFSETENABLE	TOGGLE	T	Ich Offset Enable
ICHOFFSET	QUANT	0	Ich Offset (V)
ICHFILTER	IQUANT	3	Ich Filter
VCHRANGE	IQUANT	2	Vch Range
VCHRANGEMODE	TOGGLE	F	Vch Auto Range
VCHOFFSETENABLE	TOGGLE	T	Vch Offset Enable
VCHOFFSET	QUANT	0	Vch Offset (V)
VCHFILTER	IQUANT	3	Vch Filter
ACHRANGE	IQUANT	2	Ach Range
ACHOFFSETENABLE	TOGGLE	F	Ach Offset Enable
ACHOFFSET	QUANT	0	Ach Offset (V)
ACHFILTER	IQUANT	3	Ach Filter
IERANGELOWERLIMIT	IQUANT	2	I/E Range Lower Limit
IERANGEMODE	TOGGLE	F	I/E AutoRange
IERANGE	IQUANT	11	I/E Range
POSFEEDENABLE	TOGGLE	F	Positive Feedback IR Comp
POSFEEDRESISTANCE	QUANT	0	Positive Feedback Resistance (ohm)
ACHSELECT	IQUANT	0	Ach Select
CABLEID	IQUANT	13	Cable ID
DCCALDATE	LABEL	7/31/2020	DC Calibration Date
ACCALDATE	LABEL	7/31/2020	AC Calibration Date
THERMOSELECT	IQUANT	1	Thermo Select
FRAMEWORKVERSION	QUANT	6.33	Framework Version
INSTRUMENTVERSION	LABEL	3.50	Instrument Version
COMPLIANCEVOLTAGE	IQUANT	0	Compliance Voltage
ZCURVE	TABLE
	Pt	Time	Freq	Zreal	Zimag	Zsig	Zmod	Zphz	Idc	Vdc	IERange
	#	s	Hz	ohm	ohm	V	ohm	°	A	V	#
	0	10	300046.9	5.120571	2.250037	1	5.593113	23.72124	1.901949E-005	5.984954E-005	10
	1	13	238359.4	5.111751	1.782688	1	5.413684	19.22586	6.184534E-005	-0.0003689	10
	2	16	189328.1	5.129799	1.411712	1	5.320505	15.38681	-5.526746E-006	0.0001551	10
	3	19	150421.9	5.159694	1.108245	1	5.277371	12.12232	6.91031E-006	0.0002228	10
	4	21	119484.4	5.174931	0.8584062	1	5.245643	9.418341	4.224007E-006	0.0004569	10
	5	24	94921.88	5.210093	0.6745886	1	5.253584	7.377457	2.209268E-005	0.0004428	10
	6	26	75421.88	5.242074	0.5004809	1	5.265911	5.453717	8.771828E-006	0.0004804	10
	7	29	59859.37	5.277199	0.3521951	1	5.288939	3.818202	-1.995269E-005	0.0005828	10
	8	31	47578.12	5.313735	0.2220693	1	5.318373	2.393088	2.066226E-005	0.0005578	10
	9	34	37828.12	5.354316	0.106393	1	5.355373	1.138347	1.765554E-005	0.0005811	10
	10	36	30046.88	5.397747	-0.001879	1	5.397747	-0.0199447	-3.240447E-006	0.0005997	10
	11	39	23859.38	5.440656	-0.1081947	1	5.441731	-1.139253	-1.202101E-005	0.0006743	10
	12	41	18984.38	5.481741	-0.2173743	1	5.48605	-2.270831	1.27184E-005	0.0006146	10
	13	44	15046.87	5.526616	-0.3381454	1	5.536951	-3.501272	2.08771E-005	0.0006404	10
	14	46	11953.13	5.574068	-0.4733969	1	5.594134	-4.854392	9.969396E-006	0.0005946	10
	15	48	9515.62	5.624381	-0.6288134	1	5.659423	-6.379255	-6.523518E-007	0.0006662	10
	16	51	7546.875	5.67823	-0.8170165	1	5.736707	-8.187852	-1.464266E-005	0.0006244	10
	17	53	5928.309	5.738449	-1.054276	1	5.834492	-10.41037	-2.251469E-005	0.0006678	10
	18	55	4733.456	5.802862	-1.325408	1	5.952303	-12.86598	-2.660419E-005	0.0006601	10
	19	57	3796.875	5.874269	-1.648794	1	6.101275	-15.6784	-1.067037E-005	0.0006911	10
	20	60	2987.132	5.958007	-2.082353	1	6.311422	-19.26477	-1.510981E-005	0.0006631	10
	21	62	2390.625	6.05201	-2.580545	1	6.579212	-23.09314	1.727892E-005	0.0006563	10
	22	64	1884.191	6.167021	-3.236695	1	6.964794	-27.69226	-1.778232E-005	0.0006463	10
	23	67	1516.544	6.294173	-3.976569	1	7.445113	-32.28411	-2.586288E-005	0.0006541	10
	24	69	1193.986	6.460392	-4.980943	1	8.1576	-37.63212	1.977376E-005	0.0006301	10
	25	72	946.5144	6.659309	-6.195436	1	9.095594	-42.93334	-1.157346E-005	0.0006884	10
	26	74	751.7689	6.901299	-7.678561	1	10.32416	-48.05159	1.058254E-005	0.0006015	10
	27	76	597.4265	7.192722	-9.51188	1	11.92523	-52.90405	1.895985E-005	0.0006335	10
	28	79	477.4305	7.552765	-11.70674	1	13.93169	-57.17136	-2.780338E-006	0.0006506	10
	29	81	376.6741	8.021296	-14.5719	1	16.63374	-61.16882	-2.480032E-006	0.0006472	10
	30	83	298.2954	8.600118	-18.06624	1	20.00878	-64.54404	-6.681107E-006	0.0007075	10
	31	85	237.7717	9.313049	-22.25568	1	24.12567	-67.29278	-3.007528E-006	0.0006482	10
	32	88	189.0121	10.2227	-27.47698	1	29.31703	-69.59249	-2.578325E-006	0.0006433	10
	33	90	150.2404	11.38087	-33.89983	1	35.75924	-71.44204	-2.230314E-006	0.0006476	10
	34	93	119.1737	12.86383	-41.82827	1	43.76166	-72.90529	1.202211E-006	4.292561E-005	9
	35	95	95.0169	14.75118	-51.3863	1	53.46165	-73.98311	1.151236E-006	4.625842E-005	9
	36	98	75.60484	17.21041	-63.18076	1	65.48288	-74.76236	1.069139E-006	4.2299E-005	9
	37	100	54.50582	22.02727	-84.66843	1	87.48682	-75.41724	1.044602E-006	3.866799E-005	9
	38	103	45.95588	25.36067	-98.5691	1	101.7793	-75.57141	1.143893E-006	4.866585E-005	9
	39	105	37.20238	30.44144	-118.7433	1	122.5832	-75.62112	1.180137E-006	4.782773E-005	9
	40	107	30.04808	36.92691	-143.0382	1	147.7278	-75.52451	1.132748E-006	4.54873E-005	9
	41	110	23.91582	45.66301	-174.1371	1	180.0246	-75.30647	9.796089E-007	4.641602E-005	9
	42	112	18.60119	57.88178	-215.4375	1	223.0776	-74.96143	1.153189E-006	4.893124E-005	9
	43	114	15.02404	70.71787	-257.69	1	267.2175	-74.65411	1.071294E-006	4.73296E-005	9
	44	117	12.01923	87.12774	-309.9963	1	322.0077	-74.30142	1.355123E-006	4.815004E-005	9
	45	119	9.450605	108.2667	-377.658	1	392.8705	-74.0035	1.480141E-006	4.104117E-005	9
	46	122	7.512019	131.917	-453.4257	1	472.2255	-73.77848	6.169058E-007	0.0006423	8
	47	124	5.978954	160.1032	-546.2664	1	569.2451	-73.66486	5.526153E-007	0.000629	8
	48	127	4.734848	194.0757	-661.1691	1	689.0645	-73.64124	5.925983E-007	0.0006564	8
	49	131	3.75601	233.9409	-800.4906	1	833.9745	-73.70916	5.118386E-007	0.0006128	8
	50	134	3.004808	279.4362	-963.524	1	1003.226	-73.82706	5.251621E-007	0.0006536	8
	51	138	2.372217	337.1231	-1176.512	1	1223.86	-74.01064	5.321827E-007	0.0006945	8
	52	142	1.878005	406.8214	-1435.704	1	1492.23	-74.17938	5.192437E-007	0.0005976	8
	53	147	1.512097	488.4908	-1729.193	1	1796.867	-74.2252	5.494767E-007	0.0007005	8
	54	152	1.201923	594.4587	-2117.143	1	2199.017	-74.31614	5.382357E-007	0.0005931	8
	55	158	0.956633	731.9233	-2588.795	1	2690.274	-74.21295	4.92492E-007	-1.571703E-005	8
