May 13, 2026   00:06:09
A.C. Impedance
File: e:\chi_data\r0.35-n0.95-1_t-42.6_f0.1_1000000_v0.txt
Data Source:  Experiment
Instrument Model:  CHI660E
Header: 
Note: 

Init E (V) = 0
High Frequency (Hz) = 1e+6
Low Frequency (Hz) = 0.1
Imp SF
Amplitude (V) = 0.005
Quiet Time (sec) = 2
Cycles (.1-1Hz) = 1

Freq/Hz, Z'/ohm, Z"/ohm, Z/ohm, Phase/deg

8.252e+5, 2.332e+1, 9.484e+0, 2.518e+1, 22.1
6.816e+5, 2.249e+1, 8.483e+0, 2.403e+1, 20.7
5.625e+5, 2.228e+1, 6.034e+0, 2.308e+1, 15.2
4.639e+5, 2.210e+1, 4.990e+0, 2.266e+1, 12.7
3.828e+5, 2.216e+1, 3.835e+0, 2.249e+1, 9.8
3.164e+5, 2.216e+1, 3.257e+0, 2.239e+1, 8.4
2.607e+5, 2.216e+1, 2.631e+0, 2.232e+1, 6.8
2.158e+5, 2.212e+1, 2.181e+0, 2.223e+1, 5.6
1.777e+5, 2.215e+1, 1.635e+0, 2.221e+1, 4.2
1.465e+5, 2.217e+1, 1.224e+0, 2.220e+1, 3.2
1.211e+5, 2.213e+1, 9.640e-1, 2.216e+1, 2.5
9.961e+4, 2.211e+1, 7.514e-1, 2.212e+1, 1.9
8.252e+4, 2.209e+1, 5.659e-1, 2.209e+1, 1.5
6.812e+4, 2.207e+1, 3.813e-1, 2.208e+1, 1.0
5.625e+4, 2.208e+1, 1.612e-1, 2.208e+1, 0.4
4.644e+4, 2.212e+1, -6.731e-2, 2.212e+1, -0.2
3.833e+4, 2.218e+1, -2.586e-1, 2.219e+1, -0.7
3.164e+4, 2.225e+1, -4.391e-1, 2.226e+1, -1.1
2.612e+4, 2.231e+1, -6.113e-1, 2.232e+1, -1.6
2.153e+4, 2.237e+1, -7.986e-1, 2.239e+1, -2.0
1.777e+4, 2.244e+1, -1.008e+0, 2.247e+1, -2.6
1.470e+4, 2.251e+1, -1.228e+0, 2.255e+1, -3.1
1.211e+4, 2.259e+1, -1.470e+0, 2.264e+1, -3.7
1.001e+4, 2.267e+1, -1.745e+0, 2.274e+1, -4.4
8.252e+3, 2.277e+1, -2.058e+0, 2.286e+1, -5.2
6.812e+3, 2.289e+1, -2.418e+0, 2.301e+1, -6.0
5.625e+3, 2.302e+1, -2.838e+0, 2.319e+1, -7.0
4.643e+3, 2.316e+1, -3.331e+0, 2.340e+1, -8.2
3.833e+3, 2.332e+1, -3.904e+0, 2.364e+1, -9.5
3.164e+3, 2.350e+1, -4.570e+0, 2.394e+1, -11.0
2.612e+3, 2.371e+1, -5.348e+0, 2.431e+1, -12.7
2.153e+3, 2.395e+1, -6.262e+0, 2.476e+1, -14.7
1.777e+3, 2.423e+1, -7.330e+0, 2.532e+1, -16.8
1.470e+3, 2.456e+1, -8.595e+0, 2.602e+1, -19.3
1.211e+3, 2.492e+1, -1.011e+1, 2.690e+1, -22.1
1.001e+3, 2.533e+1, -1.190e+1, 2.799e+1, -25.2
8.252e+2, 2.580e+1, -1.399e+1, 2.935e+1, -28.5
6.836e+2, 2.633e+1, -1.650e+1, 3.107e+1, -32.1
5.615e+2, 2.693e+1, -1.951e+1, 3.326e+1, -35.9
4.639e+2, 2.764e+1, -2.311e+1, 3.603e+1, -39.9
3.809e+2, 2.845e+1, -2.733e+1, 3.945e+1, -43.8
3.174e+2, 2.942e+1, -3.236e+1, 4.373e+1, -47.7
2.588e+2, 3.054e+1, -3.835e+1, 4.902e+1, -51.5
2.148e+2, 3.187e+1, -4.547e+1, 5.553e+1, -55.0
1.758e+2, 3.342e+1, -5.385e+1, 6.338e+1, -58.2
1.465e+2, 3.519e+1, -6.347e+1, 7.257e+1, -61.0
1.221e+2, 3.740e+1, -7.545e+1, 8.421e+1, -63.6
9.766e+1, 4.020e+1, -8.941e+1, 9.803e+1, -65.8
8.254e+1, 4.349e+1, -1.053e+2, 1.139e+2, -67.6
6.813e+1, 4.718e+1, -1.245e+2, 1.331e+2, -69.2
5.623e+1, 5.128e+1, -1.474e+2, 1.561e+2, -70.8
4.642e+1, 5.594e+1, -1.750e+2, 1.837e+2, -72.3
3.831e+1, 6.135e+1, -2.077e+2, 2.166e+2, -73.5
3.162e+1, 6.761e+1, -2.466e+2, 2.557e+2, -74.7
2.610e+1, 7.491e+1, -2.926e+2, 3.020e+2, -75.6
2.154e+1, 8.338e+1, -3.473e+2, 3.572e+2, -76.5
1.778e+1, 9.335e+1, -4.126e+2, 4.231e+2, -77.3
1.468e+1, 1.054e+2, -4.904e+2, 5.016e+2, -77.9
1.212e+1, 1.193e+2, -5.832e+2, 5.953e+2, -78.4
1.000e+1, 1.363e+2, -6.940e+2, 7.073e+2, -78.9
8.254e+0, 1.567e+2, -8.264e+2, 8.412e+2, -79.3
6.813e+0, 1.808e+2, -9.843e+2, 1.001e+3, -79.6
5.623e+0, 2.094e+2, -1.172e+3, 1.191e+3, -79.9
4.642e+0, 2.433e+2, -1.397e+3, 1.418e+3, -80.1
3.831e+0, 2.848e+2, -1.663e+3, 1.688e+3, -80.3
3.162e+0, 3.350e+2, -1.982e+3, 2.010e+3, -80.4
2.610e+0, 3.967e+2, -2.360e+3, 2.394e+3, -80.5
2.154e+0, 4.648e+2, -2.819e+3, 2.857e+3, -80.6
1.778e+0, 5.438e+2, -3.366e+3, 3.410e+3, -80.8
1.468e+0, 6.469e+2, -4.008e+3, 4.060e+3, -80.8
1.212e+0, 7.827e+2, -4.761e+3, 4.825e+3, -80.7
1.000e+0, 9.591e+2, -5.643e+3, 5.724e+3, -80.4
8.254e-1, 1.178e+3, -6.672e+3, 6.775e+3, -80.0
6.813e-1, 1.440e+3, -7.877e+3, 8.008e+3, -79.6
5.623e-1, 1.753e+3, -9.298e+3, 9.462e+3, -79.3
4.642e-1, 2.133e+3, -1.097e+4, 1.118e+4, -79.0
3.831e-1, 2.594e+3, -1.294e+4, 1.320e+4, -78.7
3.162e-1, 3.161e+3, -1.526e+4, 1.558e+4, -78.3
2.610e-1, 3.849e+3, -1.797e+4, 1.838e+4, -77.9
2.154e-1, 4.697e+3, -2.112e+4, 2.164e+4, -77.5
1.778e-1, 5.735e+3, -2.479e+4, 2.544e+4, -77.0
1.468e-1, 6.978e+3, -2.903e+4, 2.986e+4, -76.5
1.212e-1, 8.461e+3, -3.395e+4, 3.499e+4, -76.0
1.000e-1, 1.019e+4, -3.957e+4, 4.086e+4, -75.6
