May 12, 2026   16:52:50
A.C. Impedance
File: e:\chi_data\r0.35-n0.95-1_t-19.7_f0.1_1000000_v0.txt
Data Source:  Experiment
Instrument Model:  CHI660E
Header: 
Note: 

Init E (V) = 0
High Frequency (Hz) = 1e+6
Low Frequency (Hz) = 0.1
Imp SF
Amplitude (V) = 0.005
Quiet Time (sec) = 2
Cycles (.1-1Hz) = 1

Freq/Hz, Z'/ohm, Z"/ohm, Z/ohm, Phase/deg

8.252e+5, 8.012e+0, 1.147e+1, 1.399e+1, 55.1
6.816e+5, 7.485e+0, 9.240e+0, 1.189e+1, 51.0
5.625e+5, 6.959e+0, 7.715e+0, 1.039e+1, 47.9
4.639e+5, 6.758e+0, 6.275e+0, 9.222e+0, 42.9
3.828e+5, 6.613e+0, 5.232e+0, 8.432e+0, 38.3
3.164e+5, 6.545e+0, 4.305e+0, 7.834e+0, 33.3
2.607e+5, 6.467e+0, 3.572e+0, 7.388e+0, 28.9
2.158e+5, 6.411e+0, 2.934e+0, 7.051e+0, 24.6
1.777e+5, 6.371e+0, 2.382e+0, 6.801e+0, 20.5
1.465e+5, 6.343e+0, 1.907e+0, 6.624e+0, 16.7
1.211e+5, 6.309e+0, 1.533e+0, 6.492e+0, 13.7
9.961e+4, 6.290e+0, 1.225e+0, 6.408e+0, 11.0
8.252e+4, 6.285e+0, 9.642e-1, 6.358e+0, 8.7
6.812e+4, 6.286e+0, 7.258e-1, 6.327e+0, 6.6
5.625e+4, 6.286e+0, 5.136e-1, 6.307e+0, 4.7
4.644e+4, 6.301e+0, 3.122e-1, 6.309e+0, 2.8
3.833e+4, 6.326e+0, 1.293e-1, 6.327e+0, 1.2
3.164e+4, 6.350e+0, -3.352e-2, 6.350e+0, -0.3
2.612e+4, 6.374e+0, -1.883e-1, 6.377e+0, -1.7
2.153e+4, 6.401e+0, -3.481e-1, 6.410e+0, -3.1
1.777e+4, 6.433e+0, -5.161e-1, 6.454e+0, -4.6
1.470e+4, 6.470e+0, -6.911e-1, 6.506e+0, -6.1
1.211e+4, 6.507e+0, -8.819e-1, 6.567e+0, -7.7
1.001e+4, 6.549e+0, -1.094e+0, 6.640e+0, -9.5
8.252e+3, 6.598e+0, -1.338e+0, 6.732e+0, -11.5
6.812e+3, 6.654e+0, -1.616e+0, 6.847e+0, -13.7
5.625e+3, 6.718e+0, -1.937e+0, 6.992e+0, -16.1
4.643e+3, 6.792e+0, -2.312e+0, 7.175e+0, -18.8
3.833e+3, 6.876e+0, -2.753e+0, 7.407e+0, -21.8
3.164e+3, 6.975e+0, -3.273e+0, 7.705e+0, -25.1
2.612e+3, 7.090e+0, -3.886e+0, 8.085e+0, -28.7
2.153e+3, 7.224e+0, -4.610e+0, 8.570e+0, -32.5
1.777e+3, 7.380e+0, -5.466e+0, 9.184e+0, -36.5
1.470e+3, 7.559e+0, -6.484e+0, 9.959e+0, -40.6
1.211e+3, 7.766e+0, -7.692e+0, 1.093e+1, -44.7
1.001e+3, 8.008e+0, -9.118e+0, 1.214e+1, -48.7
8.252e+2, 8.291e+0, -1.080e+1, 1.361e+1, -52.5
6.836e+2, 8.624e+0, -1.280e+1, 1.544e+1, -56.0
5.615e+2, 9.017e+0, -1.519e+1, 1.767e+1, -59.3
4.639e+2, 9.498e+0, -1.806e+1, 2.041e+1, -62.3
3.809e+2, 1.007e+1, -2.145e+1, 2.369e+1, -64.9
3.174e+2, 1.072e+1, -2.550e+1, 2.766e+1, -67.2
2.588e+2, 1.148e+1, -3.033e+1, 3.243e+1, -69.3
2.148e+2, 1.237e+1, -3.612e+1, 3.818e+1, -71.1
1.758e+2, 1.339e+1, -4.294e+1, 4.498e+1, -72.7
1.465e+2, 1.455e+1, -5.079e+1, 5.284e+1, -74.0
1.221e+2, 1.596e+1, -6.061e+1, 6.267e+1, -75.2
9.766e+1, 1.783e+1, -7.215e+1, 7.432e+1, -76.1
8.254e+1, 2.006e+1, -8.545e+1, 8.777e+1, -76.8
6.813e+1, 2.255e+1, -1.015e+2, 1.040e+2, -77.5
5.623e+1, 2.534e+1, -1.207e+2, 1.234e+2, -78.1
4.642e+1, 2.868e+1, -1.439e+2, 1.467e+2, -78.7
3.831e+1, 3.273e+1, -1.717e+2, 1.747e+2, -79.2
3.162e+1, 3.757e+1, -2.047e+2, 2.082e+2, -79.6
2.610e+1, 4.347e+1, -2.441e+2, 2.480e+2, -79.9
2.154e+1, 5.064e+1, -2.910e+2, 2.954e+2, -80.1
1.778e+1, 5.949e+1, -3.466e+2, 3.516e+2, -80.3
1.468e+1, 7.017e+1, -4.127e+2, 4.186e+2, -80.4
1.212e+1, 8.326e+1, -4.912e+2, 4.982e+2, -80.4
1.000e+1, 9.994e+1, -5.844e+2, 5.929e+2, -80.3
8.254e+0, 1.204e+2, -6.951e+2, 7.055e+2, -80.2
6.813e+0, 1.446e+2, -8.265e+2, 8.390e+2, -80.1
5.623e+0, 1.737e+2, -9.823e+2, 9.976e+2, -80.0
4.642e+0, 2.087e+2, -1.168e+3, 1.186e+3, -79.9
3.831e+0, 2.516e+2, -1.387e+3, 1.409e+3, -79.7
3.162e+0, 3.035e+2, -1.648e+3, 1.676e+3, -79.6
2.610e+0, 3.673e+2, -1.959e+3, 1.993e+3, -79.4
2.154e+0, 4.399e+2, -2.331e+3, 2.372e+3, -79.3
1.778e+0, 5.258e+2, -2.770e+3, 2.820e+3, -79.3
1.468e+0, 6.372e+2, -3.282e+3, 3.343e+3, -79.0
1.212e+0, 7.826e+2, -3.878e+3, 3.957e+3, -78.6
1.000e+0, 9.684e+2, -4.572e+3, 4.673e+3, -78.0
8.254e-1, 1.198e+3, -5.370e+3, 5.502e+3, -77.4
6.813e-1, 1.474e+3, -6.291e+3, 6.462e+3, -76.8
5.623e-1, 1.801e+3, -7.360e+3, 7.577e+3, -76.2
4.642e-1, 2.190e+3, -8.597e+3, 8.872e+3, -75.7
3.831e-1, 2.647e+3, -1.003e+4, 1.038e+4, -75.2
3.162e-1, 3.185e+3, -1.169e+4, 1.211e+4, -74.8
2.610e-1, 3.808e+3, -1.359e+4, 1.411e+4, -74.3
2.154e-1, 4.517e+3, -1.577e+4, 1.641e+4, -74.0
1.778e-1, 5.307e+3, -1.828e+4, 1.904e+4, -73.8
1.468e-1, 6.206e+3, -2.123e+4, 2.211e+4, -73.7
1.212e-1, 7.231e+3, -2.465e+4, 2.569e+4, -73.6
1.000e-1, 8.380e+3, -2.852e+4, 2.973e+4, -73.6
