May 12, 2026   23:14:14
A.C. Impedance
File: e:\chi_data\r0.35-n0.95-1_t-39.5_f0.1_1000000_v0.txt
Data Source:  Experiment
Instrument Model:  CHI660E
Header: 
Note: 

Init E (V) = 0
High Frequency (Hz) = 1e+6
Low Frequency (Hz) = 0.1
Imp SF
Amplitude (V) = 0.005
Quiet Time (sec) = 2
Cycles (.1-1Hz) = 1

Freq/Hz, Z'/ohm, Z"/ohm, Z/ohm, Phase/deg

8.252e+5, 1.986e+1, 9.969e+0, 2.222e+1, 26.7
6.816e+5, 1.932e+1, 7.823e+0, 2.084e+1, 22.0
5.625e+5, 1.868e+1, 6.432e+0, 1.975e+1, 19.0
4.639e+5, 1.859e+1, 5.173e+0, 1.930e+1, 15.5
3.828e+5, 1.855e+1, 4.291e+0, 1.904e+1, 13.0
3.164e+5, 1.860e+1, 3.523e+0, 1.893e+1, 10.7
2.607e+5, 1.855e+1, 2.921e+0, 1.878e+1, 8.9
2.158e+5, 1.851e+1, 2.376e+0, 1.866e+1, 7.3
1.777e+5, 1.852e+1, 1.819e+0, 1.861e+1, 5.6
1.465e+5, 1.853e+1, 1.361e+0, 1.858e+1, 4.2
1.211e+5, 1.847e+1, 1.076e+0, 1.850e+1, 3.3
9.961e+4, 1.844e+1, 8.478e-1, 1.846e+1, 2.6
8.252e+4, 1.843e+1, 6.583e-1, 1.844e+1, 2.0
6.812e+4, 1.843e+1, 4.608e-1, 1.843e+1, 1.4
5.625e+4, 1.844e+1, 2.453e-1, 1.844e+1, 0.8
4.644e+4, 1.848e+1, 1.284e-2, 1.848e+1, 0.0
3.833e+4, 1.853e+1, -1.881e-1, 1.853e+1, -0.6
3.164e+4, 1.858e+1, -3.637e-1, 1.859e+1, -1.1
2.612e+4, 1.862e+1, -5.415e-1, 1.863e+1, -1.7
2.153e+4, 1.866e+1, -7.207e-1, 1.868e+1, -2.2
1.777e+4, 1.873e+1, -9.134e-1, 1.875e+1, -2.8
1.470e+4, 1.880e+1, -1.126e+0, 1.883e+1, -3.4
1.211e+4, 1.888e+1, -1.356e+0, 1.892e+1, -4.1
1.001e+4, 1.896e+1, -1.622e+0, 1.903e+1, -4.9
8.252e+3, 1.905e+1, -1.931e+0, 1.915e+1, -5.8
6.812e+3, 1.916e+1, -2.284e+0, 1.929e+1, -6.8
5.625e+3, 1.928e+1, -2.694e+0, 1.947e+1, -8.0
4.643e+3, 1.941e+1, -3.167e+0, 1.967e+1, -9.3
3.833e+3, 1.956e+1, -3.720e+0, 1.991e+1, -10.8
3.164e+3, 1.972e+1, -4.362e+0, 2.019e+1, -12.5
2.612e+3, 1.990e+1, -5.115e+0, 2.054e+1, -14.4
2.153e+3, 2.010e+1, -6.005e+0, 2.098e+1, -16.6
1.777e+3, 2.034e+1, -7.049e+0, 2.153e+1, -19.1
1.470e+3, 2.061e+1, -8.280e+0, 2.221e+1, -21.9
1.211e+3, 2.092e+1, -9.739e+0, 2.307e+1, -25.0
1.001e+3, 2.131e+1, -1.145e+1, 2.419e+1, -28.3
8.252e+2, 2.177e+1, -1.347e+1, 2.560e+1, -31.7
6.836e+2, 2.228e+1, -1.590e+1, 2.737e+1, -35.5
5.615e+2, 2.287e+1, -1.882e+1, 2.961e+1, -39.5
4.639e+2, 2.353e+1, -2.232e+1, 3.243e+1, -43.5
3.809e+2, 2.430e+1, -2.641e+1, 3.589e+1, -47.4
3.174e+2, 2.521e+1, -3.130e+1, 4.019e+1, -51.1
2.588e+2, 2.628e+1, -3.711e+1, 4.547e+1, -54.7
2.148e+2, 2.756e+1, -4.402e+1, 5.193e+1, -57.9
1.758e+2, 2.905e+1, -5.213e+1, 5.968e+1, -60.9
1.465e+2, 3.074e+1, -6.145e+1, 6.871e+1, -63.4
1.221e+2, 3.285e+1, -7.303e+1, 8.008e+1, -65.8
9.766e+1, 3.555e+1, -8.655e+1, 9.357e+1, -67.7
8.254e+1, 3.866e+1, -1.020e+2, 1.091e+2, -69.2
6.813e+1, 4.215e+1, -1.207e+2, 1.278e+2, -70.8
5.623e+1, 4.601e+1, -1.430e+2, 1.502e+2, -72.2
4.642e+1, 5.034e+1, -1.696e+2, 1.769e+2, -73.5
3.831e+1, 5.533e+1, -2.014e+2, 2.089e+2, -74.6
3.162e+1, 6.123e+1, -2.393e+2, 2.470e+2, -75.6
2.610e+1, 6.824e+1, -2.842e+2, 2.923e+2, -76.5
2.154e+1, 7.640e+1, -3.377e+2, 3.462e+2, -77.3
1.778e+1, 8.598e+1, -4.013e+2, 4.104e+2, -77.9
1.468e+1, 9.753e+1, -4.773e+2, 4.872e+2, -78.5
1.212e+1, 1.112e+2, -5.678e+2, 5.786e+2, -78.9
1.000e+1, 1.279e+2, -6.759e+2, 6.879e+2, -79.3
8.254e+0, 1.482e+2, -8.050e+2, 8.186e+2, -79.6
6.813e+0, 1.720e+2, -9.588e+2, 9.741e+2, -79.8
5.623e+0, 2.004e+2, -1.142e+3, 1.159e+3, -80.0
4.642e+0, 2.343e+2, -1.360e+3, 1.380e+3, -80.2
3.831e+0, 2.758e+2, -1.620e+3, 1.643e+3, -80.3
3.162e+0, 3.260e+2, -1.931e+3, 1.958e+3, -80.4
2.610e+0, 3.876e+2, -2.299e+3, 2.332e+3, -80.4
2.154e+0, 4.567e+2, -2.743e+3, 2.781e+3, -80.5
1.778e+0, 5.369e+2, -3.274e+3, 3.317e+3, -80.7
1.468e+0, 6.403e+2, -3.896e+3, 3.948e+3, -80.7
1.212e+0, 7.760e+2, -4.625e+3, 4.690e+3, -80.5
1.000e+0, 9.522e+2, -5.479e+3, 5.561e+3, -80.1
8.254e-1, 1.171e+3, -6.475e+3, 6.580e+3, -79.8
6.813e-1, 1.434e+3, -7.641e+3, 7.775e+3, -79.4
5.623e-1, 1.748e+3, -9.014e+3, 9.181e+3, -79.0
4.642e-1, 2.128e+3, -1.063e+4, 1.084e+4, -78.7
3.831e-1, 2.593e+3, -1.252e+4, 1.279e+4, -78.3
3.162e-1, 3.163e+3, -1.474e+4, 1.508e+4, -77.9
2.610e-1, 3.855e+3, -1.734e+4, 1.777e+4, -77.5
2.154e-1, 4.706e+3, -2.036e+4, 2.090e+4, -77.0
1.778e-1, 5.745e+3, -2.384e+4, 2.453e+4, -76.5
1.468e-1, 6.979e+3, -2.788e+4, 2.874e+4, -75.9
1.212e-1, 8.441e+3, -3.254e+4, 3.362e+4, -75.5
1.000e-1, 1.014e+4, -3.784e+4, 3.918e+4, -75.0
