May 12, 2026   15:24:27
A.C. Impedance
File: e:\chi_data\r0.35-n0.95-1_t-1.9_f0.1_1000000_v0.txt
Data Source:  Experiment
Instrument Model:  CHI660E
Header: 
Note: 

Init E (V) = 0
High Frequency (Hz) = 1e+6
Low Frequency (Hz) = 0.1
Imp SF
Amplitude (V) = 0.005
Quiet Time (sec) = 2
Cycles (.1-1Hz) = 1

Freq/Hz, Z'/ohm, Z"/ohm, Z/ohm, Phase/deg

8.252e+5, 5.608e+0, 1.171e+1, 1.299e+1, 64.4
6.816e+5, 5.182e+0, 9.504e+0, 1.082e+1, 61.4
5.625e+5, 4.628e+0, 7.840e+0, 9.104e+0, 59.4
4.639e+5, 4.435e+0, 6.432e+0, 7.813e+0, 55.4
3.828e+5, 4.268e+0, 5.349e+0, 6.843e+0, 51.4
3.164e+5, 4.194e+0, 4.431e+0, 6.101e+0, 46.6
2.607e+5, 4.103e+0, 3.681e+0, 5.512e+0, 41.9
2.158e+5, 4.041e+0, 3.032e+0, 5.053e+0, 36.9
1.777e+5, 3.995e+0, 2.474e+0, 4.699e+0, 31.8
1.465e+5, 3.969e+0, 1.998e+0, 4.443e+0, 26.7
1.211e+5, 3.937e+0, 1.612e+0, 4.254e+0, 22.3
9.961e+4, 3.917e+0, 1.293e+0, 4.125e+0, 18.3
8.252e+4, 3.907e+0, 1.027e+0, 4.040e+0, 14.7
6.812e+4, 3.905e+0, 7.913e-1, 3.984e+0, 11.5
5.625e+4, 3.907e+0, 5.824e-1, 3.950e+0, 8.5
4.644e+4, 3.913e+0, 3.954e-1, 3.933e+0, 5.8
3.833e+4, 3.922e+0, 2.247e-1, 3.929e+0, 3.3
3.164e+4, 3.939e+0, 6.757e-2, 3.940e+0, 1.0
2.612e+4, 3.959e+0, -8.079e-2, 3.960e+0, -1.2
2.153e+4, 3.979e+0, -2.312e-1, 3.985e+0, -3.3
1.777e+4, 3.999e+0, -3.860e-1, 4.018e+0, -5.5
1.470e+4, 4.022e+0, -5.487e-1, 4.059e+0, -7.8
1.211e+4, 4.050e+0, -7.222e-1, 4.114e+0, -10.1
1.001e+4, 4.083e+0, -9.154e-1, 4.184e+0, -12.6
8.252e+3, 4.118e+0, -1.135e+0, 4.272e+0, -15.4
6.812e+3, 4.159e+0, -1.386e+0, 4.384e+0, -18.4
5.625e+3, 4.207e+0, -1.675e+0, 4.529e+0, -21.7
4.643e+3, 4.264e+0, -2.011e+0, 4.714e+0, -25.3
3.833e+3, 4.329e+0, -2.407e+0, 4.953e+0, -29.1
3.164e+3, 4.405e+0, -2.873e+0, 5.259e+0, -33.1
2.612e+3, 4.493e+0, -3.425e+0, 5.650e+0, -37.3
2.153e+3, 4.598e+0, -4.080e+0, 6.148e+0, -41.6
1.777e+3, 4.721e+0, -4.855e+0, 6.772e+0, -45.8
1.470e+3, 4.865e+0, -5.773e+0, 7.550e+0, -49.9
1.211e+3, 5.036e+0, -6.865e+0, 8.514e+0, -53.7
1.001e+3, 5.238e+0, -8.160e+0, 9.696e+0, -57.3
8.252e+2, 5.470e+0, -9.689e+0, 1.113e+1, -60.6
6.836e+2, 5.741e+0, -1.152e+1, 1.287e+1, -63.5
5.615e+2, 6.063e+0, -1.370e+1, 1.498e+1, -66.1
4.639e+2, 6.438e+0, -1.631e+1, 1.754e+1, -68.5
3.809e+2, 6.887e+0, -1.940e+1, 2.058e+1, -70.5
3.174e+2, 7.425e+0, -2.313e+1, 2.429e+1, -72.2
2.588e+2, 8.053e+0, -2.760e+1, 2.875e+1, -73.7
2.148e+2, 8.797e+0, -3.295e+1, 3.411e+1, -75.1
1.758e+2, 9.665e+0, -3.929e+1, 4.046e+1, -76.2
1.465e+2, 1.067e+1, -4.660e+1, 4.781e+1, -77.1
1.221e+2, 1.195e+1, -5.574e+1, 5.701e+1, -77.9
9.766e+1, 1.368e+1, -6.650e+1, 6.789e+1, -78.4
8.254e+1, 1.578e+1, -7.889e+1, 8.045e+1, -78.7
6.813e+1, 1.820e+1, -9.384e+1, 9.559e+1, -79.0
5.623e+1, 2.098e+1, -1.117e+2, 1.136e+2, -79.4
4.642e+1, 2.433e+1, -1.331e+2, 1.353e+2, -79.6
3.831e+1, 2.849e+1, -1.587e+2, 1.612e+2, -79.8
3.162e+1, 3.361e+1, -1.891e+2, 1.921e+2, -79.9
2.610e+1, 3.983e+1, -2.251e+2, 2.286e+2, -80.0
2.154e+1, 4.736e+1, -2.678e+2, 2.719e+2, -80.0
1.778e+1, 5.665e+1, -3.183e+2, 3.233e+2, -79.9
1.468e+1, 6.791e+1, -3.780e+2, 3.840e+2, -79.8
1.212e+1, 8.163e+1, -4.485e+2, 4.559e+2, -79.7
1.000e+1, 9.899e+1, -5.322e+2, 5.413e+2, -79.5
8.254e+0, 1.202e+2, -6.313e+2, 6.426e+2, -79.2
6.813e+0, 1.454e+2, -7.486e+2, 7.626e+2, -79.0
5.623e+0, 1.755e+2, -8.872e+2, 9.044e+2, -78.8
4.642e+0, 2.117e+2, -1.051e+3, 1.072e+3, -78.6
3.831e+0, 2.560e+2, -1.244e+3, 1.270e+3, -78.4
3.162e+0, 3.098e+2, -1.474e+3, 1.506e+3, -78.1
2.610e+0, 3.768e+2, -1.746e+3, 1.787e+3, -77.8
2.154e+0, 4.532e+2, -2.071e+3, 2.120e+3, -77.7
1.778e+0, 5.430e+2, -2.452e+3, 2.511e+3, -77.5
1.468e+0, 6.571e+2, -2.890e+3, 2.963e+3, -77.2
1.212e+0, 8.011e+2, -3.395e+3, 3.488e+3, -76.7
1.000e+0, 9.794e+2, -3.976e+3, 4.095e+3, -76.2
8.254e-1, 1.192e+3, -4.640e+3, 4.790e+3, -75.6
6.813e-1, 1.437e+3, -5.398e+3, 5.586e+3, -75.1
5.623e-1, 1.715e+3, -6.271e+3, 6.501e+3, -74.7
4.642e-1, 2.026e+3, -7.282e+3, 7.559e+3, -74.4
3.831e-1, 2.375e+3, -8.461e+3, 8.788e+3, -74.3
3.162e-1, 2.765e+3, -9.840e+3, 1.022e+4, -74.3
2.610e-1, 3.203e+3, -1.144e+4, 1.188e+4, -74.4
2.154e-1, 3.690e+3, -1.330e+4, 1.381e+4, -74.5
1.778e-1, 4.220e+3, -1.546e+4, 1.603e+4, -74.7
1.468e-1, 4.768e+3, -1.794e+4, 1.856e+4, -75.1
1.212e-1, 5.398e+3, -2.095e+4, 2.163e+4, -75.5
1.000e-1, 6.147e+3, -2.457e+4, 2.533e+4, -76.0
