June 13, 2026   23:05:29
A.C. Impedance
File: e:\chi_data\6.13Data Source:  Experiment
Instrument Model:  CHI660E
Ref. Electrode: 
Header: 
Note: 

Init E (V) = 0
High Frequency (Hz) = 1e+6
Low Frequency (Hz) = 0.1
Imp SF
Amplitude (V) = 0.005
Quiet Time (sec) = 2
Cycles (.1-1Hz) = 1

Freq/Hz	Z'/ohm	Z"/ohm	Z/ohm	Phase/deg

8.252e+5	3.185e+0	1.418e+1	1.453e+1	77.3
6.816e+5	2.506e+0	1.158e+1	1.185e+1	77.8
5.625e+5	1.967e+0	9.647e+0	9.846e+0	78.5
4.639e+5	1.649e+0	7.911e+0	8.081e+0	78.2
3.828e+5	1.454e+0	6.587e+0	6.745e+0	77.6
3.164e+5	1.334e+0	5.447e+0	5.608e+0	76.2
2.607e+5	1.236e+0	4.528e+0	4.693e+0	74.7
2.158e+5	1.153e+0	3.741e+0	3.915e+0	72.9
1.777e+5	1.098e+0	3.078e+0	3.268e+0	70.4
1.465e+5	1.060e+0	2.518e+0	2.733e+0	67.2
1.211e+5	1.026e+0	1.925e+0	2.181e+0	62.0
9.961e+4	9.977e-1	1.348e+0	1.677e+0	53.5
8.252e+4	9.795e-1	9.534e-1	1.367e+0	44.2
6.812e+4	9.724e-1	6.977e-1	1.197e+0	35.7
5.625e+4	9.706e-1	5.388e-1	1.110e+0	29.0
4.644e+4	9.732e-1	4.125e-1	1.057e+0	23.0
3.833e+4	9.792e-1	2.987e-1	1.024e+0	17.0
3.164e+4	9.885e-1	1.861e-1	1.006e+0	10.7
2.612e+4	9.989e-1	7.856e-2	1.002e+0	4.5
2.153e+4	1.009e+0	-2.508e-2	1.009e+0	-1.4
1.777e+4	1.020e+0	-1.250e-1	1.027e+0	-7.0
1.470e+4	1.034e+0	-2.249e-1	1.058e+0	-12.3
1.211e+4	1.051e+0	-3.271e-1	1.101e+0	-17.3
1.001e+4	1.071e+0	-4.372e-1	1.157e+0	-22.2
8.252e+3	1.093e+0	-5.603e-1	1.228e+0	-27.1
6.812e+3	1.118e+0	-6.971e-1	1.318e+0	-31.9
5.625e+3	1.147e+0	-8.517e-1	1.429e+0	-36.6
4.643e+3	1.183e+0	-1.029e+0	1.568e+0	-41.0
3.833e+3	1.224e+0	-1.234e+0	1.738e+0	-45.2
3.164e+3	1.274e+0	-1.471e+0	1.946e+0	-49.1
2.612e+3	1.333e+0	-1.750e+0	2.200e+0	-52.7
2.153e+3	1.405e+0	-2.078e+0	2.509e+0	-55.9
1.777e+3	1.500e+0	-2.470e+0	2.890e+0	-58.7
1.470e+3	1.617e+0	-2.936e+0	3.352e+0	-61.2
1.211e+3	1.755e+0	-3.480e+0	3.898e+0	-63.2
1.001e+3	1.918e+0	-4.114e+0	4.539e+0	-65.0
8.252e+2	2.113e+0	-4.846e+0	5.286e+0	-66.4
6.836e+2	2.346e+0	-5.702e+0	6.166e+0	-67.6
5.615e+2	2.625e+0	-6.707e+0	7.202e+0	-68.6
4.639e+2	2.957e+0	-7.889e+0	8.425e+0	-69.5
3.809e+2	3.339e+0	-9.246e+0	9.831e+0	-70.1
3.174e+2	3.780e+0	-1.083e+1	1.147e+1	-70.8
2.588e+2	4.284e+0	-1.269e+1	1.339e+1	-71.3
2.148e+2	4.853e+0	-1.486e+1	1.563e+1	-71.9
1.758e+2	5.480e+0	-1.739e+1	1.823e+1	-72.5
1.465e+2	6.162e+0	-2.029e+1	2.120e+1	-73.1
1.221e+2	6.959e+0	-2.391e+1	2.490e+1	-73.8
9.766e+1	7.921e+0	-2.814e+1	2.924e+1	-74.3
8.254e+1	9.014e+0	-3.300e+1	3.421e+1	-74.7
6.813e+1	1.019e+1	-3.883e+1	4.015e+1	-75.3
5.623e+1	1.146e+1	-4.579e+1	4.721e+1	-75.9
4.642e+1	1.291e+1	-5.412e+1	5.564e+1	-76.6
3.831e+1	1.462e+1	-6.408e+1	6.572e+1	-77.2
3.162e+1	1.659e+1	-7.594e+1	7.774e+1	-77.7
2.610e+1	1.890e+1	-9.005e+1	9.201e+1	-78.1
2.154e+1	2.159e+1	-1.068e+2	1.090e+2	-78.6
1.778e+1	2.477e+1	-1.269e+2	1.293e+2	-79.0
1.468e+1	2.852e+1	-1.509e+2	1.536e+2	-79.3
1.212e+1	3.296e+1	-1.794e+2	1.824e+2	-79.6
1.000e+1	3.847e+1	-2.133e+2	2.167e+2	-79.8
8.254e+0	4.509e+1	-2.536e+2	2.576e+2	-79.9
6.813e+0	5.270e+1	-3.017e+2	3.062e+2	-80.1
5.623e+0	6.158e+1	-3.589e+2	3.642e+2	-80.3
4.642e+0	7.194e+1	-4.273e+2	4.333e+2	-80.4
3.831e+0	8.445e+1	-5.086e+2	5.156e+2	-80.6
3.162e+0	9.934e+1	-6.060e+2	6.141e+2	-80.7
2.610e+0	1.174e+2	-7.225e+2	7.320e+2	-80.8
2.154e+0	1.370e+2	-8.632e+2	8.740e+2	-81.0
1.778e+0	1.601e+2	-1.032e+3	1.044e+3	-81.2
1.468e+0	1.910e+2	-1.233e+3	1.247e+3	-81.2
1.212e+0	2.320e+2	-1.473e+3	1.491e+3	-81.1
1.000e+0	2.847e+2	-1.749e+3	1.772e+3	-80.8
8.254e-1	3.544e+2	-2.065e+3	2.095e+3	-80.3
6.813e-1	4.427e+2	-2.438e+3	2.478e+3	-79.7
5.623e-1	5.508e+2	-2.881e+3	2.934e+3	-79.2
4.642e-1	6.855e+2	-3.408e+3	3.476e+3	-78.6
3.831e-1	8.540e+2	-4.028e+3	4.118e+3	-78.0
3.162e-1	1.070e+3	-4.753e+3	4.872e+3	-77.3
2.610e-1	1.348e+3	-5.596e+3	5.756e+3	-76.5
2.154e-1	1.703e+3	-6.573e+3	6.790e+3	-75.5
1.778e-1	2.153e+3	-7.695e+3	7.991e+3	-74.4
1.468e-1	2.706e+3	-8.958e+3	9.358e+3	-73.2
1.212e-1	3.410e+3	-1.040e+4	1.094e+4	-71.8
1.000e-1	4.284e+3	-1.203e+4	1.277e+4	-70.4
