EXPLAIN
TAG	EISPOT
TITLE	LABEL	Potentiostatic EIS	Test Identifier
DATE	LABEL	8/31/2020	Date
TIME	LABEL	15:57:43	Time
NOTES	NOTES	1	Notes...
	
PSTAT	PSTAT	REF3000-16137	Potentiostat
VDC	POTEN	0.00000E+000	T	DC Voltage (V)
FREQINIT	QUANT	3.00000E+005	Initial Freq. (Hz)
FREQFINAL	QUANT	1.00000E+000	Final Freq. (Hz)
PTSPERDEC	QUANT	1.00000E+001	Points/decade
VAC	QUANT	5.00000E+001	AC Voltage (mV rms)
AREA	QUANT	1.00000E+000	Sample Area (cm^2)
SPEED	SELECTOR	2	Optimize for:
ZGUESS	QUANT	1.00000E+003	Estimated Z (ohms)
EOC	QUANT	0	Open Circuit (V)
SEQUENCER	TOGGLE	TRUE	Run as Sequence
PSTATMODEL	IQUANT	5	Pstat Model
PSTATSECTION	LABEL	REF3000-16137	Pstat Section
PSTATSERIALNO	LABEL	16137	Pstat Serial Number
CTRLMODE	IQUANT	1	Control Mode
IESTAB	IQUANT	0	I/E Stability
CASPEED	IQUANT	1	Control Amp Speed
CONVENTION	IQUANT	1	Current Convention
ICHRANGE	IQUANT	2	Ich Range
ICHRANGEMODE	TOGGLE	F	Ich Auto Range
ICHOFFSETENABLE	TOGGLE	T	Ich Offset Enable
ICHOFFSET	QUANT	0	Ich Offset (V)
ICHFILTER	IQUANT	3	Ich Filter
VCHRANGE	IQUANT	2	Vch Range
VCHRANGEMODE	TOGGLE	F	Vch Auto Range
VCHOFFSETENABLE	TOGGLE	T	Vch Offset Enable
VCHOFFSET	QUANT	0	Vch Offset (V)
VCHFILTER	IQUANT	3	Vch Filter
ACHRANGE	IQUANT	2	Ach Range
ACHOFFSETENABLE	TOGGLE	F	Ach Offset Enable
ACHOFFSET	QUANT	0	Ach Offset (V)
ACHFILTER	IQUANT	3	Ach Filter
IERANGELOWERLIMIT	IQUANT	2	I/E Range Lower Limit
IERANGEMODE	TOGGLE	F	I/E AutoRange
IERANGE	IQUANT	11	I/E Range
POSFEEDENABLE	TOGGLE	F	Positive Feedback IR Comp
POSFEEDRESISTANCE	QUANT	0	Positive Feedback Resistance (ohm)
ACHSELECT	IQUANT	0	Ach Select
CABLEID	IQUANT	13	Cable ID
DCCALDATE	LABEL	7/31/2020	DC Calibration Date
ACCALDATE	LABEL	7/31/2020	AC Calibration Date
THERMOSELECT	IQUANT	1	Thermo Select
FRAMEWORKVERSION	QUANT	6.33	Framework Version
INSTRUMENTVERSION	LABEL	3.50	Instrument Version
COMPLIANCEVOLTAGE	IQUANT	0	Compliance Voltage
ZCURVE	TABLE
	Pt	Time	Freq	Zreal	Zimag	Zsig	Zmod	Zphz	Idc	Vdc	IERange
	#	s	Hz	ohm	ohm	V	ohm	°	A	V	#
	0	6	300046.9	599.363	-162.4192	1	620.9799	-15.16223	7.032423E-006	0.0014623	9
	1	10	238359.4	609.9522	-126.5949	1	622.951	-11.72521	-1.201272E-005	0.0020611	9
	2	13	189328.1	616.1822	-104.0375	1	624.9034	-9.58356	-1.133513E-005	0.0020832	9
	3	16	150421.9	615.6096	-83.52372	1	621.2498	-7.726509	-1.082095E-005	0.0021224	9
	4	19	119484.4	611.4261	-68.29118	1	615.2281	-6.373045	3.459637E-006	0.0001974	8
	5	22	94921.88	610.3101	-55.78751	1	612.8545	-5.222806	1.216266E-006	0.0005263	8
	6	24	75421.88	606.8564	-46.83184	1	608.6608	-4.412838	1.165759E-006	0.0005882	8
	7	27	59859.37	602.7807	-40.39758	1	604.1329	-3.834156	-2.620175E-006	0.0006101	8
	8	29	47578.12	599.1141	-35.06353	1	600.1393	-3.349451	2.156711E-006	0.0005323	8
	9	32	37828.12	595.6246	-31.93938	1	596.4803	-3.069451	-2.807973E-006	0.0007884	8
	10	34	30046.88	591.7663	-29.09747	1	592.4813	-2.814998	2.451389E-006	0.0005354	8
	11	37	23859.38	587.7864	-27.86717	1	588.4467	-2.714382	-4.061772E-007	0.0005549	8
	12	39	18984.38	584.7452	-27.25862	1	585.3802	-2.668981	-2.638592E-006	0.0006677	8
	13	41	15046.87	582.0211	-27.49307	1	582.67	-2.704485	1.284422E-006	0.0006221	8
	14	44	11953.13	579.9406	-28.50702	1	580.6407	-2.814114	-8.101448E-007	0.0006596	8
	15	46	9515.62	577.8729	-30.49684	1	578.677	-3.020942	2.351523E-006	0.0005043	8
	16	48	7546.875	575.8447	-32.47222	1	576.7595	-3.227524	-7.46361E-007	0.0007228	8
	17	51	5928.309	575.0753	-35.69198	1	576.1819	-3.5515	1.880038E-006	0.0006346	8
	18	53	4733.456	574.17	-39.158	1	575.5037	-3.901492	4.404972E-007	0.0005459	8
	19	55	3796.875	573.9191	-43.09083	1	575.5345	-4.293808	1.152362E-006	0.0005072	8
	20	58	2987.132	574.6155	-47.54166	1	576.5789	-4.729678	-2.610415E-006	0.0006649	8
	21	60	2390.625	575.6223	-52.7322	1	578.0326	-5.234202	2.083287E-006	0.0005234	8
	22	62	1884.191	577.2581	-58.48391	1	580.2131	-5.785084	-3.084899E-007	0.0005675	8
	23	65	1516.544	579.0649	-64.67728	1	582.6657	-6.373101	-2.585604E-006	0.0006592	8
	24	67	1193.986	582.2596	-72.4241	1	586.7465	-7.090294	-2.959522E-007	0.0005638	8
	25	69	946.5144	585.9572	-80.73676	1	591.4932	-7.845165	2.318886E-007	0.0006376	8
	26	72	751.7689	590.4998	-90.23	1	597.3537	-8.687754	1.283621E-006	0.000621	8
	27	74	597.4265	595.3674	-100.8628	1	603.8506	-9.61534	-2.09794E-006	0.0006049	8
	28	76	477.4305	601.5721	-113.2954	1	612.1477	-10.66572	-5.125671E-007	0.0006532	8
	29	79	376.6741	609.3193	-128.5604	1	622.7342	-11.91411	-5.230955E-007	0.0006511	8
	30	81	298.2954	618.2363	-146.2383	1	635.2966	-13.3082	-5.073073E-007	0.0006498	8
	31	83	237.7717	628.1525	-166.4121	1	649.822	-14.83811	-5.049286E-007	0.0006483	8
	32	86	189.0121	640.0052	-190.379	1	667.7206	-16.56589	-5.036904E-007	0.0006489	8
	33	88	150.2404	654.0224	-218.6595	1	689.6066	-18.48635	-4.904596E-007	0.0006542	8
	34	91	119.1737	670.9702	-252.3203	1	716.8448	-20.60892	-4.629809E-007	0.00065	8
	35	93	95.0169	690.538	-291.0572	1	749.3711	-22.8551	-4.869548E-007	0.0006461	8
	36	95	75.60484	714.249	-336.9551	1	789.7407	-25.25613	-4.929195E-007	0.0006458	8
	37	98	54.50582	759.3563	-416.3542	1	866.0097	-28.7359	-4.599143E-007	0.0006402	8
	38	101	45.95588	786.2932	-465.2459	1	913.6251	-30.6126	-4.227765E-007	0.0006436	8
	39	103	37.20238	827.2272	-533.6583	1	984.427	-32.82674	-5.221548E-007	0.0006505	8
	40	105	30.04808	877.2575	-611.3458	1	1069.263	-34.87198	-4.198707E-007	0.0006422	8
	41	108	23.91582	943.0417	-705.822	1	1177.927	-36.81311	-5.044248E-007	0.0006431	8
	42	110	18.60119	1033.36	-823.0737	1	1321.091	-38.53741	-5.347508E-007	0.0006549	8
	43	112	15.02404	1126.331	-931.7842	1	1461.794	-39.60007	-5.445416E-007	0.0006451	8
	44	115	12.01923	1241.402	-1050.928	1	1626.508	-40.25009	-3.929653E-007	0.0006533	8
	45	117	9.450605	1388.965	-1189.368	1	1828.611	-40.57337	-5.07009E-007	0.0006445	8
	46	120	7.512019	1552.22	-1316.901	1	2035.587	-40.31123	-3.953224E-007	0.0006522	8
	47	122	5.978954	1734.204	-1445.82	1	2257.844	-39.81824	-4.633735E-007	0.0006498	8
	48	125	4.734848	1937.827	-1562.866	1	2489.523	-38.88633	-5.118716E-007	0.000681	8
	49	129	3.75601	2168.039	-1687.546	1	2747.4	-37.89627	-4.599447E-007	0.0006622	8
	50	133	3.004808	2390.618	-1779.501	1	2980.215	-36.66285	-5.485127E-007	0.000666	8
	51	139	2.372217	2658.534	-1888.889	1	3261.243	-35.3938	-4.721759E-007	0.0006591	8
	52	143	1.878005	2898.095	-1936.407	1	3485.488	-33.74948	-5.010395E-007	0.000628	8
	53	152	1.512097	3152.56	-2028.358	1	3748.715	-32.75724	-4.704092E-007	0.0007255	8
	54	163	1.201923	3450.612	-2117.246	1	4048.389	-31.53268	-1.807934E-007	0.0006193	7
	55	176	0.956633	3771.137	-2195.588	1	4363.723	-30.20833	-4.114506E-007	-1.46242E-005	7
