EXPLAIN
TAG	EISPOT
TITLE	LABEL	Potentiostatic EIS	Test Identifier
DATE	LABEL	8/31/2020	Date
TIME	LABEL	15:51:31	Time
NOTES	NOTES	1	Notes...
	
PSTAT	PSTAT	REF3000-16137	Potentiostat
VDC	POTEN	0.00000E+000	T	DC Voltage (V)
FREQINIT	QUANT	3.00000E+005	Initial Freq. (Hz)
FREQFINAL	QUANT	1.00000E+000	Final Freq. (Hz)
PTSPERDEC	QUANT	1.00000E+001	Points/decade
VAC	QUANT	5.00000E+001	AC Voltage (mV rms)
AREA	QUANT	1.00000E+000	Sample Area (cm^2)
SPEED	SELECTOR	2	Optimize for:
ZGUESS	QUANT	1.00000E+003	Estimated Z (ohms)
EOC	QUANT	0	Open Circuit (V)
SEQUENCER	TOGGLE	TRUE	Run as Sequence
PSTATMODEL	IQUANT	5	Pstat Model
PSTATSECTION	LABEL	REF3000-16137	Pstat Section
PSTATSERIALNO	LABEL	16137	Pstat Serial Number
CTRLMODE	IQUANT	1	Control Mode
IESTAB	IQUANT	0	I/E Stability
CASPEED	IQUANT	1	Control Amp Speed
CONVENTION	IQUANT	1	Current Convention
ICHRANGE	IQUANT	2	Ich Range
ICHRANGEMODE	TOGGLE	F	Ich Auto Range
ICHOFFSETENABLE	TOGGLE	T	Ich Offset Enable
ICHOFFSET	QUANT	0	Ich Offset (V)
ICHFILTER	IQUANT	3	Ich Filter
VCHRANGE	IQUANT	2	Vch Range
VCHRANGEMODE	TOGGLE	F	Vch Auto Range
VCHOFFSETENABLE	TOGGLE	T	Vch Offset Enable
VCHOFFSET	QUANT	0	Vch Offset (V)
VCHFILTER	IQUANT	3	Vch Filter
ACHRANGE	IQUANT	2	Ach Range
ACHOFFSETENABLE	TOGGLE	F	Ach Offset Enable
ACHOFFSET	QUANT	0	Ach Offset (V)
ACHFILTER	IQUANT	3	Ach Filter
IERANGELOWERLIMIT	IQUANT	2	I/E Range Lower Limit
IERANGEMODE	TOGGLE	F	I/E AutoRange
IERANGE	IQUANT	11	I/E Range
POSFEEDENABLE	TOGGLE	F	Positive Feedback IR Comp
POSFEEDRESISTANCE	QUANT	0	Positive Feedback Resistance (ohm)
ACHSELECT	IQUANT	0	Ach Select
CABLEID	IQUANT	13	Cable ID
DCCALDATE	LABEL	7/31/2020	DC Calibration Date
ACCALDATE	LABEL	7/31/2020	AC Calibration Date
THERMOSELECT	IQUANT	1	Thermo Select
FRAMEWORKVERSION	QUANT	6.33	Framework Version
INSTRUMENTVERSION	LABEL	3.50	Instrument Version
COMPLIANCEVOLTAGE	IQUANT	0	Compliance Voltage
ZCURVE	TABLE
	Pt	Time	Freq	Zreal	Zimag	Zsig	Zmod	Zphz	Idc	Vdc	IERange
	#	s	Hz	ohm	ohm	V	ohm	°	A	V	#
	0	14	300046.9	1111.026	-831.823	1	1387.915	-36.82212	-4.797725E-007	0.0003544	9
	1	21	238359.4	1263.161	-761.5207	1	1474.954	-31.08448	-4.802213E-006	-0.0019871	9
	2	26	189328.1	1378.718	-670.674	1	1533.188	-25.9405	5.617469E-006	0.0017242	9
	3	33	150421.9	1465.883	-581.4938	1	1577.006	-21.63749	5.466714E-006	0.0017749	9
	4	39	119484.4	1529.858	-489.9382	1	1606.395	-17.75771	-2.237632E-006	0.001254	8
	5	42	94921.88	1575.469	-412.8491	1	1628.664	-14.68409	-2.796374E-006	0.0001225	8
	6	44	75421.88	1605.654	-349.3045	1	1643.209	-12.27327	-2.324533E-006	-4.276932E-005	8
	7	47	59859.37	1627.666	-294.1012	1	1654.023	-10.2422	-1.001531E-007	0.0012036	8
	8	49	47578.12	1637.999	-250.741	1	1657.08	-8.70314	-2.654284E-006	0.0002146	8
	9	52	37828.12	1644.71	-217.0782	1	1658.974	-7.518765	-1.979092E-006	-7.649531E-005	8
	10	54	30046.88	1651.405	-189.7695	1	1662.272	-6.555333	1.480416E-007	0.0013686	8
	11	57	23859.38	1651.956	-171.578	1	1660.842	-5.929682	6.72816E-007	0.0006354	8
	12	59	18984.38	1654.435	-159.461	1	1662.102	-5.505391	-2.77139E-007	0.0013331	8
	13	61	15046.87	1657.484	-153.4353	1	1664.571	-5.288867	6.78331E-007	0.0012113	8
	14	64	11953.13	1663.118	-151.4765	1	1670.002	-5.204133	-1.015134E-006	0.0010615	8
	15	66	9515.62	1665.925	-150.7247	1	1672.729	-5.169764	8.568168E-007	0.0007821	8
	16	68	7546.875	1671.381	-154.8191	1	1678.536	-5.292175	-2.4151E-006	0.000557	8
	17	71	5928.309	1678.755	-164.9626	1	1686.84	-5.612146	-2.421717E-006	-0.0001259	8
	18	73	4733.456	1687.878	-173.7061	1	1696.793	-5.875845	9.988523E-007	0.0009932	8
	19	75	3796.875	1700.539	-182.8415	1	1710.34	-6.136852	-2.194462E-006	0.0006935	8
	20	78	2987.132	1717.296	-195.6798	1	1728.409	-6.500613	3.397332E-007	0.0014778	8
	21	80	2390.625	1734.166	-209.857	1	1746.817	-6.899995	-2.71367E-006	0.0004722	8
	22	82	1884.191	1757.735	-225.557	1	1772.148	-7.312377	1.158793E-006	0.0009527	8
	23	85	1516.544	1778.45	-237.4645	1	1794.234	-7.605337	3.03072E-007	0.0013343	8
	24	87	1193.986	1804.972	-251.17	1	1822.364	-7.922092	1.145761E-006	0.0010438	8
	25	89	946.5144	1831.377	-263.5451	1	1850.242	-8.188956	-1.884307E-006	2.616742E-005	8
	26	92	751.7689	1863.684	-274.7119	1	1883.822	-8.385165	-2.605754E-006	0.0004789	8
	27	94	597.4265	1895.965	-285.9275	1	1917.404	-8.576057	1.12535E-006	0.0008613	8
	28	96	477.4305	1926.216	-297.9604	1	1949.125	-8.793212	-8.094601E-007	0.0006535	8
	29	99	376.6741	1961.06	-308.785	1	1985.221	-8.948225	-7.915622E-007	0.0006463	8
	30	101	298.2954	1995.701	-319.4963	1	2021.114	-9.09543	-8.027506E-007	0.0006513	8
	31	103	237.7717	2028.741	-330.1361	1	2055.427	-9.242702	-7.884976E-007	0.0006425	8
	32	106	189.0121	2063.043	-342.2641	1	2091.242	-9.419719	-7.935196E-007	0.0006476	8
	33	108	150.2404	2097.845	-355.8372	1	2127.81	-9.6269	-7.899524E-007	0.0006518	8
	34	111	119.1737	2134.028	-372.1672	1	2166.238	-9.8927	-8.016638E-007	0.0006494	8
	35	113	95.0169	2169.456	-390.1429	1	2204.258	-10.19479	-7.782813E-007	0.0006422	8
	36	116	75.60484	2206.604	-412.0259	1	2244.742	-10.5767	-7.894187E-007	0.0006467	8
	37	118	54.50582	2269.722	-450.9058	1	2314.078	-11.23616	-7.544019E-007	0.0006413	8
	38	121	45.95588	2301.053	-474.008	1	2349.368	-11.63989	-8.361806E-007	0.0006556	8
	39	123	37.20238	2345.179	-506.7074	1	2399.295	-12.19211	-7.254883E-007	0.0006505	8
	40	125	30.04808	2393.733	-542.4071	1	2454.417	-12.76732	-8.256941E-007	0.0006523	8
	41	128	23.91582	2451.942	-584.845	1	2520.727	-13.4157	-6.687607E-007	0.0006489	8
	42	130	18.60119	2527.305	-638.9482	1	2606.823	-14.1881	-7.980668E-007	0.0006505	8
	43	132	15.02404	2594.788	-685.2762	1	2683.752	-14.79388	-7.792129E-007	0.0006482	8
	44	135	12.01923	2669.94	-736.8618	1	2769.756	-15.42867	-7.883215E-007	0.0006446	8
	45	137	9.450605	2757.836	-791.671	1	2869.216	-16.01678	-5.713525E-007	0.0006441	8
	46	140	7.512019	2846.625	-854.0667	1	2971.986	-16.70071	-6.214032E-007	0.0006669	8
	47	142	5.978954	2938.929	-908.2327	1	3076.067	-17.17299	-7.209756E-007	0.0006488	8
	48	145	4.734848	3034.944	-969.046	1	3185.896	-17.70809	-6.212428E-007	0.0006773	8
	49	149	3.75601	3138.48	-1030.653	1	3303.377	-18.17979	-9.004985E-007	0.0006376	8
	50	152	3.004808	3244.122	-1086.087	1	3421.098	-18.50982	-8.326447E-007	0.0006503	8
	51	156	2.372217	3358.057	-1147.089	1	3548.571	-18.85982	-8.730126E-007	0.0006969	8
	52	160	1.878005	3471.454	-1195.914	1	3671.676	-19.0088	-9.835171E-007	0.0006376	8
	53	165	1.512097	3591.613	-1255.32	1	3804.669	-19.26525	-4.770509E-007	0.0005853	7
	54	170	1.201923	3711.227	-1309.496	1	3935.478	-19.43524	-4.950195E-007	0.0006118	7
	55	176	0.956633	3830.356	-1349.075	1	4060.989	-19.40257	-6.184439E-007	-9.795313E-006	7
