EXPLAIN
TAG	EISPOT
TITLE	LABEL	Potentiostatic EIS	Test Identifier
DATE	LABEL	8/31/2020	Date
TIME	LABEL	13:14:03	Time
NOTES	NOTES	1	Notes...
	
PSTAT	PSTAT	REF3000-16137	Potentiostat
VDC	POTEN	0.00000E+000	T	DC Voltage (V)
FREQINIT	QUANT	3.00000E+005	Initial Freq. (Hz)
FREQFINAL	QUANT	1.00000E+000	Final Freq. (Hz)
PTSPERDEC	QUANT	1.00000E+001	Points/decade
VAC	QUANT	5.00000E+001	AC Voltage (mV rms)
AREA	QUANT	1.00000E+000	Sample Area (cm^2)
SPEED	SELECTOR	2	Optimize for:
ZGUESS	QUANT	1.00000E+003	Estimated Z (ohms)
EOC	QUANT	0	Open Circuit (V)
SEQUENCER	TOGGLE	TRUE	Run as Sequence
PSTATMODEL	IQUANT	5	Pstat Model
PSTATSECTION	LABEL	REF3000-16137	Pstat Section
PSTATSERIALNO	LABEL	16137	Pstat Serial Number
CTRLMODE	IQUANT	1	Control Mode
IESTAB	IQUANT	0	I/E Stability
CASPEED	IQUANT	1	Control Amp Speed
CONVENTION	IQUANT	1	Current Convention
ICHRANGE	IQUANT	2	Ich Range
ICHRANGEMODE	TOGGLE	F	Ich Auto Range
ICHOFFSETENABLE	TOGGLE	T	Ich Offset Enable
ICHOFFSET	QUANT	0	Ich Offset (V)
ICHFILTER	IQUANT	3	Ich Filter
VCHRANGE	IQUANT	2	Vch Range
VCHRANGEMODE	TOGGLE	F	Vch Auto Range
VCHOFFSETENABLE	TOGGLE	T	Vch Offset Enable
VCHOFFSET	QUANT	0	Vch Offset (V)
VCHFILTER	IQUANT	3	Vch Filter
ACHRANGE	IQUANT	2	Ach Range
ACHOFFSETENABLE	TOGGLE	F	Ach Offset Enable
ACHOFFSET	QUANT	0	Ach Offset (V)
ACHFILTER	IQUANT	1	Ach Filter
IERANGELOWERLIMIT	IQUANT	2	I/E Range Lower Limit
IERANGEMODE	TOGGLE	F	I/E AutoRange
IERANGE	IQUANT	11	I/E Range
POSFEEDENABLE	TOGGLE	F	Positive Feedback IR Comp
POSFEEDRESISTANCE	QUANT	0	Positive Feedback Resistance (ohm)
ACHSELECT	IQUANT	0	Ach Select
CABLEID	IQUANT	13	Cable ID
DCCALDATE	LABEL	7/31/2020	DC Calibration Date
ACCALDATE	LABEL	7/31/2020	AC Calibration Date
THERMOSELECT	IQUANT	1	Thermo Select
FRAMEWORKVERSION	QUANT	6.33	Framework Version
INSTRUMENTVERSION	LABEL	3.50	Instrument Version
COMPLIANCEVOLTAGE	IQUANT	0	Compliance Voltage
ZCURVE	TABLE
	Pt	Time	Freq	Zreal	Zimag	Zsig	Zmod	Zphz	Idc	Vdc	IERange
	#	s	Hz	ohm	ohm	V	ohm	°	A	V	#
	0	8	300046.9	158.0775	-7.836886	1	158.2716	-2.838185	1.234505E-005	0.0011325	9
	1	11	238359.4	158.2925	-6.681937	1	158.4335	-2.417168	1.161593E-005	0.0010072	9
	2	15	189328.1	158.2463	-6.09091	1	158.3635	-2.20423	-6.296525E-006	-0.0005493	9
	3	17	150421.9	158.3295	-5.069012	1	158.4106	-1.833732	1.250943E-005	0.0015602	9
	4	20	119484.4	158.2343	-4.561761	1	158.3001	-1.651331	1.402347E-005	0.0018345	9
	5	22	94921.88	158.0909	-4.448997	1	158.1535	-1.611993	6.195826E-006	0.0006764	9
	6	25	75421.88	158.0206	-4.456861	1	158.0835	-1.615559	7.232927E-006	0.0007406	9
	7	27	59859.37	157.9997	-4.637095	1	158.0678	-1.681077	6.64634E-007	0.0001403	9
	8	30	47578.12	158.0154	-4.935856	1	158.0925	-1.78914	5.88076E-007	0.0001306	9
	9	32	37828.12	158.1273	-5.389135	1	158.2192	-1.951941	8.684293E-006	0.0008692	9
	10	35	30046.88	158.2867	-6.030058	1	158.4015	-2.181674	-7.018453E-006	-0.0004428	9
	11	37	23859.38	158.5456	-6.868821	1	158.6943	-2.480728	7.302534E-007	0.0002046	9
	12	39	18984.38	158.8391	-7.890891	1	159.035	-2.844031	-2.266534E-006	-8.486764E-005	9
	13	42	15046.87	159.3298	-9.12007	1	159.5906	-3.276047	5.008578E-006	0.0005361	9
	14	44	11953.13	159.9643	-10.6301	1	160.3171	-3.801885	-6.922015E-006	-0.0004428	9
	15	46	9515.62	160.855	-12.26899	1	161.3222	-4.361711	3.280047E-006	0.0004037	9
	16	49	7546.875	161.9585	-14.2149	1	162.5811	-5.015927	3.09427E-007	0.0001947	9
	17	51	5928.309	163.2638	-16.514	1	164.0968	-5.775779	-2.727512E-006	-0.0001355	9
	18	53	4733.456	164.7697	-18.94651	1	165.8554	-6.559509	-2.12139E-006	-7.370384E-005	9
	19	56	3796.875	166.4238	-21.72898	1	167.8363	-7.438696	-1.008051E-005	-0.0006663	9
	20	58	2987.132	168.5243	-25.15983	1	170.3921	-8.491253	1.36153E-006	0.000124	9
	21	60	2390.625	170.7475	-28.86832	1	173.1707	-9.59626	7.415799E-007	0.0002243	9
	22	63	1884.191	173.463	-33.49921	1	176.6681	-10.93041	6.836933E-007	0.0002225	9
	23	65	1516.544	176.2652	-38.45593	1	180.4114	-12.30742	7.308782E-007	0.0001272	9
	24	67	1193.986	179.8728	-44.84044	1	185.3777	-13.99793	-3.618127E-006	-0.0003036	9
	25	70	946.5144	183.8966	-52.15517	1	191.1495	-15.83394	-2.210835E-006	-1.8615E-006	9
	26	72	751.7689	188.5838	-60.58378	1	198.0764	-17.80995	-9.868703E-006	-0.0006343	9
	27	74	597.4265	193.9069	-70.57382	1	206.3505	-19.99935	-9.613125E-006	-0.0006299	9
	28	78	477.4305	199.9089	-82.01371	1	216.0783	-22.30615	-8.863155E-007	6.721262E-005	9
	29	80	376.6741	207.3971	-96.2782	1	228.6549	-24.90174	-8.265982E-007	6.696089E-005	9
	30	82	298.2954	215.9724	-112.9271	1	243.7142	-27.60406	-7.343315E-007	6.999858E-005	9
	31	84	237.7717	225.6953	-132.0242	1	261.4742	-30.32621	-7.15274E-007	6.840125E-005	9
	32	87	189.0121	237.2222	-154.7214	1	283.2192	-33.11325	-6.814204E-007	7.290561E-005	9
	33	89	150.2404	250.7276	-181.4906	1	309.5209	-35.89912	-7.098207E-007	6.861222E-005	9
	34	92	119.1737	266.8808	-213.2326	1	341.6043	-38.62418	-6.538147E-007	7.077697E-005	9
	35	94	95.0169	285.384	-249.8484	1	379.2996	-41.20154	-7.196589E-007	6.791016E-005	9
	36	97	75.60484	306.283	-291.7757	1	423.0158	-43.61043	-3.487062E-007	0.0006453	8
	37	99	54.50582	345.8218	-366.5843	1	503.9611	-46.66936	-3.064708E-007	0.0006393	8
	38	102	45.95588	371.2843	-412.4408	1	554.941	-48.00607	-2.414172E-007	0.0006422	8
	39	104	37.20238	408.0479	-477.0402	1	627.7503	-49.45718	-1.853081E-007	0.0006409	8
	40	106	30.04808	452.7831	-552.316	1	714.1887	-50.65545	-3.0384E-007	0.0006488	8
	41	109	23.91582	511.1943	-643.4097	1	821.7637	-51.53257	-2.708983E-007	0.0006463	8
	42	111	18.60119	591.0817	-758.0833	1	961.284	-52.05626	-2.503736E-007	0.000644	8
	43	113	15.02404	673.5486	-866.3082	1	1097.341	-52.13518	-1.241261E-007	0.0006556	8
	44	116	12.01923	777.2437	-989.251	1	1258.064	-51.84367	-1.185277E-007	0.0006476	8
	45	118	9.450605	911.9326	-1133.56	1	1454.847	-51.18383	-3.004533E-007	0.0006486	8
	46	121	7.512019	1063.924	-1277.06	1	1662.172	-50.20218	-2.779442E-007	0.0006304	8
	47	124	5.978954	1237.04	-1416.862	1	1880.895	-48.8763	-3.078477E-007	0.0006489	8
	48	128	4.734848	1440.696	-1563.97	1	2126.407	-47.34939	-3.591767E-007	0.0006204	8
	49	133	3.75601	1669.817	-1708.685	1	2389.12	-45.65915	-3.448147E-007	0.0006373	8
	50	139	3.004808	1908.908	-1841.344	1	2652.259	-43.96788	-2.98991E-007	0.0006192	8
	51	145	2.372217	2205.524	-1993.639	1	2973.034	-42.11136	-3.879009E-007	0.0005775	8
	52	149	1.878005	2476.709	-2078.345	1	3233.204	-40.0019	-3.287694E-007	0.0006551	8
	53	158	1.512097	2766.888	-2186.826	1	3526.737	-38.32129	-3.386589E-007	0.0005578	8
	54	169	1.201923	3103.848	-2304.801	1	3866.003	-36.59619	-3.431418E-007	0.000672	8
	55	182	0.956633	3469.501	-2415.105	1	4227.313	-34.84161	-5.340536E-007	-1.639334E-005	7
