EXPLAIN
TAG	EISPOT
TITLE	LABEL	Potentiostatic EIS	Test Identifier
DATE	LABEL	8/31/2020	Date
TIME	LABEL	14:27:33	Time
NOTES	NOTES	1	Notes...
	
PSTAT	PSTAT	REF3000-16137	Potentiostat
VDC	POTEN	0.00000E+000	T	DC Voltage (V)
FREQINIT	QUANT	3.00000E+005	Initial Freq. (Hz)
FREQFINAL	QUANT	1.00000E+000	Final Freq. (Hz)
PTSPERDEC	QUANT	1.00000E+001	Points/decade
VAC	QUANT	5.00000E+001	AC Voltage (mV rms)
AREA	QUANT	1.00000E+000	Sample Area (cm^2)
SPEED	SELECTOR	2	Optimize for:
ZGUESS	QUANT	1.00000E+003	Estimated Z (ohms)
EOC	QUANT	0	Open Circuit (V)
SEQUENCER	TOGGLE	TRUE	Run as Sequence
PSTATMODEL	IQUANT	5	Pstat Model
PSTATSECTION	LABEL	REF3000-16137	Pstat Section
PSTATSERIALNO	LABEL	16137	Pstat Serial Number
CTRLMODE	IQUANT	1	Control Mode
IESTAB	IQUANT	0	I/E Stability
CASPEED	IQUANT	1	Control Amp Speed
CONVENTION	IQUANT	1	Current Convention
ICHRANGE	IQUANT	2	Ich Range
ICHRANGEMODE	TOGGLE	F	Ich Auto Range
ICHOFFSETENABLE	TOGGLE	T	Ich Offset Enable
ICHOFFSET	QUANT	0	Ich Offset (V)
ICHFILTER	IQUANT	3	Ich Filter
VCHRANGE	IQUANT	2	Vch Range
VCHRANGEMODE	TOGGLE	F	Vch Auto Range
VCHOFFSETENABLE	TOGGLE	T	Vch Offset Enable
VCHOFFSET	QUANT	0	Vch Offset (V)
VCHFILTER	IQUANT	3	Vch Filter
ACHRANGE	IQUANT	2	Ach Range
ACHOFFSETENABLE	TOGGLE	F	Ach Offset Enable
ACHOFFSET	QUANT	0	Ach Offset (V)
ACHFILTER	IQUANT	3	Ach Filter
IERANGELOWERLIMIT	IQUANT	2	I/E Range Lower Limit
IERANGEMODE	TOGGLE	F	I/E AutoRange
IERANGE	IQUANT	11	I/E Range
POSFEEDENABLE	TOGGLE	F	Positive Feedback IR Comp
POSFEEDRESISTANCE	QUANT	0	Positive Feedback Resistance (ohm)
ACHSELECT	IQUANT	0	Ach Select
CABLEID	IQUANT	13	Cable ID
DCCALDATE	LABEL	7/31/2020	DC Calibration Date
ACCALDATE	LABEL	7/31/2020	AC Calibration Date
THERMOSELECT	IQUANT	1	Thermo Select
FRAMEWORKVERSION	QUANT	6.33	Framework Version
INSTRUMENTVERSION	LABEL	3.50	Instrument Version
COMPLIANCEVOLTAGE	IQUANT	0	Compliance Voltage
ZCURVE	TABLE
	Pt	Time	Freq	Zreal	Zimag	Zsig	Zmod	Zphz	Idc	Vdc	IERange
	#	s	Hz	ohm	ohm	V	ohm	°	A	V	#
	0	15	300046.9	182.2033	-2452.137	1	2458.896	-85.75051	-1.193392E-006	-0.0004447	9
	1	28	238359.4	248.9823	-3056.919	1	3067.042	-85.34361	5.789077E-006	0.0014952	9
	2	42	189328.1	329.1347	-3816.317	1	3830.484	-85.07078	2.017252E-006	0.0005701	9
	3	50	150421.9	490.7306	-4708.77	1	4734.272	-84.05032	5.309108E-006	0.0016395	9
	4	57	119484.4	743.129	-5905.022	1	5951.599	-82.82721	1.448162E-006	0.000531	8
	5	66	94921.88	970.216	-7344.968	1	7408.771	-82.47521	1.589269E-006	0.0007604	8
	6	69	75421.88	1441.973	-9105.376	1	9218.848	-81.00109	-1.851123E-006	0.0003529	8
	7	73	59859.37	2060.365	-11342.37	1	11527.98	-79.70436	9.181588E-007	0.0007452	8
	8	77	47578.12	3145.637	-13971.36	1	14321.1	-77.31149	-8.81638E-007	0.0026146	7
	9	80	37828.12	4641.469	-17160.64	1	17777.25	-74.86523	-5.888459E-007	0.0009209	7
	10	82	30046.88	6708.81	-20784.35	1	21840.27	-72.11087	3.1733E-007	0.0004337	7
	11	85	23859.38	9671.72	-24945.96	1	26755.25	-68.80834	-5.490364E-007	0.0008258	7
	12	88	18984.38	13887.34	-29243.27	1	32373.24	-64.59742	-1.005125E-006	0.0033686	7
	13	93	15046.87	19415.05	-33752.89	1	38938.43	-60.09198	7.645239E-007	-0.0015901	7
	14	97	11953.13	26065.35	-37857.75	1	45963.16	-55.45229	8.44594E-007	-0.002215	7
	15	101	9515.62	34291.14	-40842.37	1	53328.99	-49.98328	5.425006E-007	-0.0005722	7
	16	105	7546.875	43369.87	-41535.34	1	60051.06	-43.76221	3.741097E-008	0.0015266	7
	17	109	5928.309	52719.96	-41630.57	1	67175.13	-38.29655	8.58426E-009	-0.0011092	7
	18	113	4733.456	61281.74	-39496.09	1	72906.74	-32.80179	-9.220406E-008	0.0027571	6
	19	116	3796.875	68257.26	-36397.65	1	77355.3	-28.06842	-5.202013E-008	0.0007051	6
	20	118	2987.132	74903.58	-32587.23	1	81685.21	-23.51172	8.165884E-008	-0.0022342	6
	21	120	2390.625	79537.24	-28871.19	1	84615.12	-19.95037	2.286368E-009	-0.0011865	6
	22	123	1884.191	83687.26	-25007.8	1	87343.84	-16.63743	5.460411E-009	-0.001278	6
	23	125	1516.544	86653.75	-22182.95	1	89448.06	-14.35908	-2.390979E-008	-0.0003274	6
	24	127	1193.986	89042.54	-19180.14	1	91084.86	-12.15602	7.754658E-008	-0.0028638	6
	25	130	946.5144	90925.17	-17088.62	1	92517.07	-10.64409	5.893926E-008	-0.0025706	6
	26	132	751.7689	92660.05	-15246.69	1	93906.05	-9.343969	8.592495E-008	-0.0027746	6
	27	134	597.4265	94090.94	-14114.72	1	95143.7	-8.53141	-7.765772E-008	0.0018122	6
	28	137	477.4305	95593.6	-13358.55	1	96522.4	-7.955178	-1.040194E-008	0.0006776	6
	29	139	376.6741	97084.4	-12944	1	97943.5	-7.594305	-1.062292E-008	0.0006628	6
	30	141	298.2954	98604.4	-12905.59	1	99445.3	-7.456633	-1.046536E-008	0.0006684	6
	31	144	237.7717	100199.6	-13196	1	101064.8	-7.50252	-1.025038E-008	0.0006716	6
	32	146	189.0121	101921.3	-13776.15	1	102848.1	-7.697711	-1.086406E-008	0.0006651	6
	33	149	150.2404	103801.3	-14645.2	1	104829.3	-8.030787	-1.045632E-008	0.0006612	6
	34	151	119.1737	105913.7	-15787.46	1	107083.8	-8.47807	-1.095776E-008	0.0006746	6
	35	153	95.0169	108240.5	-17160.92	1	109592.4	-9.008936	-9.843109E-009	0.0006739	6
	36	156	75.60484	110899.4	-18755.56	1	112474.2	-9.59916	-1.084653E-008	0.0006645	6
	37	159	54.50582	115082.1	-21339.87	1	117043.9	-10.50513	-1.098265E-008	0.0006722	6
	38	161	45.95588	117784.9	-22809.52	1	119973.2	-10.95989	-1.034311E-008	0.0006806	6
	39	163	37.20238	121290.1	-24671.2	1	123773.8	-11.49748	-9.139816E-009	0.0006631	6
	40	166	30.04808	125210.3	-26625.46	1	128009.9	-12.0049	-9.087334E-009	0.0006746	6
	41	168	23.91582	129633.9	-28680.66	1	132768.7	-12.47536	-1.025948E-008	0.0006721	6
	42	171	18.60119	134874.3	-30988.63	1	138388.5	-12.93966	-1.488415E-008	0.0006723	6
	43	173	15.02404	139486.2	-32924.76	1	143319.4	-13.28118	-1.270332E-008	0.000669	6
	44	175	12.01923	144547.6	-34956.45	1	148714.4	-13.59502	-8.39985E-009	0.0006641	6
	45	178	9.450605	150112.6	-37355.68	1	154690.8	-13.97427	-1.087431E-008	0.0006544	6
	46	180	7.512019	155493.6	-39813.74	1	160509.7	-14.36189	-1.565903E-008	0.0006549	6
	47	183	5.978954	161573.1	-42435.83	1	167052.9	-14.7159	-1.196837E-008	0.000673	6
	48	186	4.734848	167955.3	-45718.61	1	174066.6	-15.22737	-8.904791E-009	0.0006694	6
	49	189	3.75601	174305.2	-49703.13	1	181253.2	-15.9155	-1.393646E-008	0.0006612	6
	50	193	3.004808	180777.5	-53590.9	1	188553.6	-16.51229	-9.178858E-009	0.0006526	6
	51	196	2.372217	188354.7	-59099.27	1	197408.7	-17.42008	-1.274848E-008	0.0006765	6
	52	201	1.878005	196085	-65535.23	1	206746.7	-18.48058	-1.266747E-008	0.0006673	6
	53	205	1.512097	203824.4	-72823.7	1	216443.3	-19.66112	-1.165883E-008	0.0005891	6
	54	211	1.201923	212613.2	-82586.68	1	228089.7	-21.22798	-1.097479E-008	0.0006514	6
	55	217	0.956633	223149.1	-93950.05	1	242120.1	-22.83203	-1.212965E-008	3.522535E-005	6
