EXPLAIN
TAG	EISPOT
TITLE	LABEL	Potentiostatic EIS	Test Identifier
DATE	LABEL	8/31/2020	Date
TIME	LABEL	16:10:21	Time
NOTES	NOTES	1	Notes...
	
PSTAT	PSTAT	REF3000-16137	Potentiostat
VDC	POTEN	0.00000E+000	T	DC Voltage (V)
FREQINIT	QUANT	3.00000E+005	Initial Freq. (Hz)
FREQFINAL	QUANT	1.00000E+000	Final Freq. (Hz)
PTSPERDEC	QUANT	1.00000E+001	Points/decade
VAC	QUANT	5.00000E+001	AC Voltage (mV rms)
AREA	QUANT	1.00000E+000	Sample Area (cm^2)
SPEED	SELECTOR	2	Optimize for:
ZGUESS	QUANT	1.00000E+003	Estimated Z (ohms)
EOC	QUANT	0	Open Circuit (V)
SEQUENCER	TOGGLE	TRUE	Run as Sequence
PSTATMODEL	IQUANT	5	Pstat Model
PSTATSECTION	LABEL	REF3000-16137	Pstat Section
PSTATSERIALNO	LABEL	16137	Pstat Serial Number
CTRLMODE	IQUANT	1	Control Mode
IESTAB	IQUANT	0	I/E Stability
CASPEED	IQUANT	1	Control Amp Speed
CONVENTION	IQUANT	1	Current Convention
ICHRANGE	IQUANT	2	Ich Range
ICHRANGEMODE	TOGGLE	F	Ich Auto Range
ICHOFFSETENABLE	TOGGLE	T	Ich Offset Enable
ICHOFFSET	QUANT	0	Ich Offset (V)
ICHFILTER	IQUANT	3	Ich Filter
VCHRANGE	IQUANT	2	Vch Range
VCHRANGEMODE	TOGGLE	F	Vch Auto Range
VCHOFFSETENABLE	TOGGLE	T	Vch Offset Enable
VCHOFFSET	QUANT	0	Vch Offset (V)
VCHFILTER	IQUANT	3	Vch Filter
ACHRANGE	IQUANT	2	Ach Range
ACHOFFSETENABLE	TOGGLE	F	Ach Offset Enable
ACHOFFSET	QUANT	0	Ach Offset (V)
ACHFILTER	IQUANT	3	Ach Filter
IERANGELOWERLIMIT	IQUANT	2	I/E Range Lower Limit
IERANGEMODE	TOGGLE	F	I/E AutoRange
IERANGE	IQUANT	11	I/E Range
POSFEEDENABLE	TOGGLE	F	Positive Feedback IR Comp
POSFEEDRESISTANCE	QUANT	0	Positive Feedback Resistance (ohm)
ACHSELECT	IQUANT	0	Ach Select
CABLEID	IQUANT	13	Cable ID
DCCALDATE	LABEL	7/31/2020	DC Calibration Date
ACCALDATE	LABEL	7/31/2020	AC Calibration Date
THERMOSELECT	IQUANT	1	Thermo Select
FRAMEWORKVERSION	QUANT	6.33	Framework Version
INSTRUMENTVERSION	LABEL	3.50	Instrument Version
COMPLIANCEVOLTAGE	IQUANT	0	Compliance Voltage
ZCURVE	TABLE
	Pt	Time	Freq	Zreal	Zimag	Zsig	Zmod	Zphz	Idc	Vdc	IERange
	#	s	Hz	ohm	ohm	V	ohm	°	A	V	#
	0	8	300046.9	162.7396	-9.061555	1	162.9917	-3.187014	1.384143E-005	0.0009124	9
	1	11	238359.4	162.8059	-7.697209	1	162.9878	-2.706839	6.492954E-006	0.0003766	9
	2	14	189328.1	163.1137	-6.888127	1	163.2591	-2.418106	-1.114755E-005	-0.001111	9
	3	17	150421.9	163.2541	-6.048185	1	163.3661	-2.121706	1.147884E-005	0.0009284	9
	4	19	119484.4	163.6657	-5.760266	1	163.767	-2.015711	1.463176E-005	0.0012749	9
	5	22	94921.88	163.6587	-5.269303	1	163.7435	-1.844109	-1.878285E-006	-3.627111E-005	9
	6	24	75421.88	163.7964	-5.35441	1	163.8839	-1.8723	-4.910696E-006	-0.0003473	9
	7	27	59859.37	163.9441	-5.56827	1	164.0386	-1.945272	-2.732708E-006	-0.0001383	9
	8	29	47578.12	164.1255	-5.952453	1	164.2334	-2.077075	7.781671E-006	0.0007789	9
	9	32	37828.12	164.4453	-6.52633	1	164.5748	-2.272701	-9.114962E-006	-0.000673	9
	10	35	30046.88	164.8652	-7.326865	1	165.0279	-2.544639	-7.60149E-006	-0.0005543	9
	11	37	23859.38	165.3228	-8.329629	1	165.5325	-2.884353	-7.770383E-006	-0.000595	9
	12	39	18984.38	165.9417	-9.54125	1	166.2158	-3.290745	-7.921935E-006	-0.0006056	9
	13	42	15046.87	166.7157	-10.99126	1	167.0776	-3.771947	1.58034E-007	5.180963E-005	9
	14	44	11953.13	167.6589	-12.71357	1	168.1402	-4.336437	8.748039E-006	0.0008563	9
	15	46	9515.62	168.746	-14.65214	1	169.381	-4.96252	5.135129E-006	0.0005619	9
	16	49	7546.875	170.0887	-16.94529	1	170.9307	-5.689389	4.151694E-006	0.0004855	9
	17	51	5928.309	171.8477	-19.68572	1	172.9716	-6.534934	-8.515246E-006	-0.0005985	9
	18	53	4733.456	173.7437	-22.67722	1	175.2174	-7.43627	-8.705464E-006	-0.0006158	9
	19	56	3796.875	175.7725	-26.05396	1	177.693	-8.431301	-5.508458E-006	-0.0004142	9
	20	58	2987.132	178.4082	-30.19696	1	180.9456	-9.60671	6.983182E-006	0.0006848	9
	21	60	2390.625	181.0497	-34.57022	1	184.3206	-10.81012	-1.842898E-006	-0.0001425	9
	22	63	1884.191	184.3951	-40.06647	1	188.6979	-12.25901	-2.229195E-006	-3.899337E-005	9
	23	65	1516.544	187.8323	-45.94291	1	193.3694	-13.74442	4.055842E-006	0.0004497	9
	24	67	1193.986	192.0378	-53.45899	1	199.3398	-15.556	7.037083E-006	0.0006909	9
	25	70	946.5144	196.6857	-62.17551	1	206.2791	-17.54258	7.115514E-006	0.0006952	9
	26	72	751.7689	201.9983	-72.27471	1	214.5389	-19.68714	7.86015E-006	0.0007706	9
	27	74	597.4265	207.884	-84.28893	1	224.322	-22.07065	5.536034E-006	0.0005432	9
	28	77	477.4305	214.6559	-98.3308	1	236.1061	-24.61183	-3.93126E-007	6.142269E-005	9
	29	79	376.6741	223.0771	-116.0565	1	251.4608	-27.48582	-3.138772E-007	6.117955E-005	9
	30	81	298.2954	232.8935	-136.9002	1	270.1501	-30.448	-3.511832E-007	7.046761E-005	9
	31	84	237.7717	244.2459	-160.9712	1	292.5197	-33.38702	-3.234967E-007	6.284878E-005	9
	32	86	189.0121	258.0723	-189.6677	1	320.2735	-36.31367	-2.785045E-007	6.850145E-005	9
	33	88	150.2404	274.5577	-223.5277	1	354.0432	-39.15033	-3.180161E-007	6.779865E-005	9
	34	91	119.1737	293.3285	-262.453	1	393.6029	-41.8203	-4.254661E-008	0.0006454	8
	35	93	95.0169	316.5272	-308.2428	1	441.818	-44.24031	-2.167519E-008	0.0006378	8
	36	96	75.60484	344.6891	-362.1317	1	499.9499	-46.41363	-3.10516E-008	0.0006391	8
	37	98	54.50582	395.2257	-455.0187	1	602.6984	-49.02267	-2.066323E-008	0.0006342	8
	38	101	45.95588	427.6889	-511.7033	1	666.9019	-50.11064	1.44144E-008	0.0006456	8
	39	103	37.20238	474.537	-591.1586	1	758.0593	-51.24516	7.580416E-008	0.000634	8
	40	105	30.04808	531.1644	-683.034	1	865.2578	-52.12942	4.581326E-008	0.0006388	8
	41	108	23.91582	604.748	-794.2336	1	998.262	-52.71351	1.132965E-008	0.0006372	8
	42	110	18.60119	704.7249	-933.6135	1	1169.731	-52.95319	2.042526E-007	0.0006509	8
	43	113	15.02404	807.2831	-1066.501	1	1337.584	-52.87627	6.952368E-008	0.0006499	8
	44	115	12.01923	936.4954	-1217.615	1	1536.102	-52.4353	4.005989E-008	0.00064	8
	45	118	9.450605	1102.235	-1391.46	1	1775.13	-51.61574	1.18995E-007	0.0006335	8
	46	120	7.512019	1291.082	-1565.201	1	2028.977	-50.48193	1.3743E-007	0.0006434	8
	47	123	5.978954	1504.627	-1739.859	1	2300.22	-49.1468	1.057187E-007	0.0006465	8
	48	128	4.734848	1758.551	-1923.741	1	2606.392	-47.5686	4.376311E-008	0.0006115	8
	49	132	3.75601	2042.499	-2096.132	1	2926.699	-45.74246	7.564656E-008	0.0006586	8
	50	138	3.004808	2342.376	-2257.507	1	3253.162	-43.94299	8.01144E-008	0.0006285	8
	51	144	2.372217	2701.479	-2425.558	1	3630.608	-41.91949	7.17457E-008	0.0005778	8
	52	149	1.878005	3073.445	-2557.912	1	3998.622	-39.76933	5.163305E-008	0.000613	7
	53	153	1.512097	3422.493	-2673.596	1	4342.992	-37.99638	-3.807407E-008	0.0006669	7
	54	164	1.201923	3819.898	-2769.23	1	4718.078	-35.94018	-6.181237E-008	0.0006211	7
	55	177	0.956633	4246.547	-2862.364	1	5121.161	-33.98174	-2.476662E-007	-2.581033E-005	7
