EXPLAIN
TAG	EISPOT
TITLE	LABEL	Potentiostatic EIS	Test Identifier
DATE	LABEL	8/31/2020	Date
TIME	LABEL	13:45:20	Time
NOTES	NOTES	1	Notes...
	
PSTAT	PSTAT	REF3000-16137	Potentiostat
VDC	POTEN	0.00000E+000	T	DC Voltage (V)
FREQINIT	QUANT	3.00000E+005	Initial Freq. (Hz)
FREQFINAL	QUANT	1.00000E+000	Final Freq. (Hz)
PTSPERDEC	QUANT	1.00000E+001	Points/decade
VAC	QUANT	5.00000E+001	AC Voltage (mV rms)
AREA	QUANT	1.00000E+000	Sample Area (cm^2)
SPEED	SELECTOR	2	Optimize for:
ZGUESS	QUANT	1.00000E+003	Estimated Z (ohms)
EOC	QUANT	0	Open Circuit (V)
SEQUENCER	TOGGLE	TRUE	Run as Sequence
PSTATMODEL	IQUANT	5	Pstat Model
PSTATSECTION	LABEL	REF3000-16137	Pstat Section
PSTATSERIALNO	LABEL	16137	Pstat Serial Number
CTRLMODE	IQUANT	1	Control Mode
IESTAB	IQUANT	0	I/E Stability
CASPEED	IQUANT	1	Control Amp Speed
CONVENTION	IQUANT	1	Current Convention
ICHRANGE	IQUANT	2	Ich Range
ICHRANGEMODE	TOGGLE	F	Ich Auto Range
ICHOFFSETENABLE	TOGGLE	T	Ich Offset Enable
ICHOFFSET	QUANT	0	Ich Offset (V)
ICHFILTER	IQUANT	3	Ich Filter
VCHRANGE	IQUANT	2	Vch Range
VCHRANGEMODE	TOGGLE	F	Vch Auto Range
VCHOFFSETENABLE	TOGGLE	T	Vch Offset Enable
VCHOFFSET	QUANT	0	Vch Offset (V)
VCHFILTER	IQUANT	3	Vch Filter
ACHRANGE	IQUANT	2	Ach Range
ACHOFFSETENABLE	TOGGLE	F	Ach Offset Enable
ACHOFFSET	QUANT	0	Ach Offset (V)
ACHFILTER	IQUANT	3	Ach Filter
IERANGELOWERLIMIT	IQUANT	2	I/E Range Lower Limit
IERANGEMODE	TOGGLE	F	I/E AutoRange
IERANGE	IQUANT	11	I/E Range
POSFEEDENABLE	TOGGLE	F	Positive Feedback IR Comp
POSFEEDRESISTANCE	QUANT	0	Positive Feedback Resistance (ohm)
ACHSELECT	IQUANT	0	Ach Select
CABLEID	IQUANT	13	Cable ID
DCCALDATE	LABEL	7/31/2020	DC Calibration Date
ACCALDATE	LABEL	7/31/2020	AC Calibration Date
THERMOSELECT	IQUANT	1	Thermo Select
FRAMEWORKVERSION	QUANT	6.33	Framework Version
INSTRUMENTVERSION	LABEL	3.50	Instrument Version
COMPLIANCEVOLTAGE	IQUANT	0	Compliance Voltage
ZCURVE	TABLE
	Pt	Time	Freq	Zreal	Zimag	Zsig	Zmod	Zphz	Idc	Vdc	IERange
	#	s	Hz	ohm	ohm	V	ohm	°	A	V	#
	0	9	300046.9	803.8853	-300.4939	1	858.2122	-20.49584	7.070057E-006	0.0013312	9
	1	13	238359.4	845.5178	-247.772	1	881.0739	-16.33278	-1.563935E-005	0.0020978	9
	2	17	189328.1	875.9659	-218.2906	1	902.7553	-13.99309	-5.256211E-006	-0.0016814	9
	3	20	150421.9	898.2651	-184.0986	1	916.9365	-11.58233	-3.22137E-006	-0.0003674	9
	4	24	119484.4	912.9191	-152.744	1	925.609	-9.498395	-3.12864E-006	0.0009617	8
	5	27	94921.88	928.9994	-122.03	1	936.9798	-7.483324	1.651288E-006	0.0005779	8
	6	30	75421.88	938.2288	-103.4113	1	943.9105	-6.289734	-1.596268E-006	0.0006447	8
	7	32	59859.37	946.0616	-87.82352	1	950.129	-5.303605	7.856969E-008	0.0006392	8
	8	35	47578.12	953.12	-75.54836	1	956.11	-4.532032	-3.139343E-006	0.0007346	8
	9	37	37828.12	959.665	-65.56584	1	961.903	-3.908463	-1.823597E-006	0.000689	8
	10	40	30046.88	964.424	-57.89763	1	966.161	-3.435535	-2.584064E-006	0.0006872	8
	11	42	23859.38	970.188	-53.05877	1	971.638	-3.130339	-2.263379E-006	0.0006586	8
	12	45	18984.38	975.92	-49.38321	1	977.169	-2.896792	3.52052E-007	0.0006493	8
	13	47	15046.87	981.342	-47.80365	1	982.506	-2.788817	1.929519E-006	0.0005943	8
	14	49	11953.13	986.656	-48.55964	1	987.85	-2.817617	-2.391087E-006	0.0006411	8
	15	51	9515.62	993.236	-50.95929	1	994.543	-2.93706	2.021813E-007	0.0006607	8
	16	54	7546.875	999.369	-54.91719	1	1000.877	-3.145346	1.756596E-006	0.0006465	8
	17	56	5928.309	1006.836	-59.46515	1	1008.59	-3.380044	-9.947146E-007	0.0005926	8
	18	58	4733.456	1015.403	-65.34271	1	1017.503	-3.681993	-3.156861E-006	0.0007715	8
	19	61	3796.875	1023.737	-72.90108	1	1026.329	-4.0732	-3.139206E-006	0.0007605	8
	20	63	2987.132	1035.129	-82.83356	1	1038.438	-4.575199	2.039253E-006	0.0005843	8
	21	65	2390.625	1046.339	-92.6145	1	1050.43	-5.058234	1.101367E-006	0.0006057	8
	22	68	1884.191	1058.147	-105.0258	1	1063.347	-5.668294	-2.459386E-006	0.0007589	8
	23	70	1516.544	1074.059	-119.314	1	1080.666	-6.338826	1.163324E-006	0.0006098	8
	24	72	1193.986	1089.297	-135.5224	1	1097.695	-7.091882	-3.386714E-006	0.0007542	8
	25	75	946.5144	1108.259	-153.8673	1	1118.889	-7.904242	2.177943E-006	0.0005038	8
	26	77	751.7689	1126.571	-175.4276	1	1140.147	-8.850913	-3.125606E-006	0.0007705	8
	27	79	597.4265	1148.061	-200.7402	1	1165.479	-9.91799	1.176534E-006	0.0005937	8
	28	82	477.4305	1169.939	-227.1286	1	1191.782	-10.98658	-5.665797E-007	0.0006227	8
	29	84	376.6741	1195.541	-261.4859	1	1223.803	-12.33732	-5.837397E-007	0.0006493	8
	30	86	298.2954	1223.396	-301.7539	1	1260.061	-13.8556	-5.785925E-007	0.0006428	8
	31	89	237.7717	1253.948	-348.3704	1	1301.44	-15.5263	-5.787368E-007	0.0006375	8
	32	91	189.0121	1288.661	-404.3098	1	1350.598	-17.41894	-5.630297E-007	0.0006423	8
	33	94	150.2404	1328.428	-470.9224	1	1409.429	-19.51921	-5.438581E-007	0.0006125	8
	34	96	119.1737	1374.422	-550.4858	1	1480.564	-21.82717	-5.669064E-007	0.0006408	8
	35	98	95.0169	1426.561	-642.993	1	1564.773	-24.2625	-5.719856E-007	0.0006452	8
	36	101	75.60484	1488.075	-753.2878	1	1667.876	-26.84927	-5.578661E-007	0.0006445	8
	37	103	54.50582	1594.631	-946.432	1	1854.341	-30.68963	-5.545737E-007	0.0006371	8
	38	106	45.95588	1663.955	-1066.352	1	1976.323	-32.65394	-5.924185E-007	0.0006522	8
	39	108	37.20238	1762.147	-1235.758	1	2152.269	-35.0412	-5.901964E-007	0.0006483	8
	40	111	30.04808	1880.315	-1432.517	1	2363.829	-37.30195	-5.293355E-007	0.0006365	8
	41	113	23.91582	2030.373	-1672.473	1	2630.51	-39.4792	-5.140231E-007	0.0006347	8
	42	115	18.60119	2226.789	-1975.925	1	2977.057	-41.58401	-4.997977E-007	0.0006428	8
	43	118	15.02404	2426.516	-2275.853	1	3326.783	-43.16488	-5.841621E-007	0.0006074	8
	44	120	12.01923	2669.137	-2628.478	1	3746.09	-44.56026	-4.717114E-007	0.0006412	8
	45	122	9.450605	2977.447	-3070.969	1	4277.387	-45.88585	-6.929926E-009	0.0006088	7
	46	125	7.512019	3316.343	-3543.745	1	4853.479	-46.89858	3.654684E-008	0.0006334	7
	47	128	5.978954	3715.021	-4095.168	1	5529.176	-47.78657	1.490907E-008	0.0006184	7
	48	131	4.734848	4195.364	-4728.759	1	6321.57	-48.4205	1.587489E-008	0.0006487	7
	49	134	3.75601	4764.208	-5459.62	1	7246.042	-48.89119	-4.03779E-008	0.0005997	7
	50	137	3.004808	5412.311	-6238.361	1	8258.95	-49.05557	-3.60799E-008	0.0006321	7
	51	144	2.372217	6240.862	-7141.229	1	9483.96	-48.84914	-2.554527E-008	0.0006818	7
	52	148	1.878005	7208.129	-8138.726	1	10871.8	-48.47003	-4.244598E-008	0.0006048	7
	53	157	1.512097	8245.701	-9147.926	1	12315.69	-47.96933	-4.121486E-008	0.0006337	7
	54	168	1.201923	9575.91	-10318.43	1	14077.21	-47.13747	-4.867098E-008	0.0005865	7
	55	180	0.956633	11084.92	-11542.21	1	16003.07	-46.15778	-6.527866E-008	-1.754241E-005	7
