EXPLAIN
TAG	EISPOT
TITLE	LABEL	Potentiostatic EIS	Test Identifier
DATE	LABEL	8/31/2020	Date
TIME	LABEL	14:09:17	Time
NOTES	NOTES	1	Notes...
	
PSTAT	PSTAT	REF3000-16137	Potentiostat
VDC	POTEN	0.00000E+000	T	DC Voltage (V)
FREQINIT	QUANT	3.00000E+005	Initial Freq. (Hz)
FREQFINAL	QUANT	1.00000E+000	Final Freq. (Hz)
PTSPERDEC	QUANT	1.00000E+001	Points/decade
VAC	QUANT	5.00000E+001	AC Voltage (mV rms)
AREA	QUANT	1.00000E+000	Sample Area (cm^2)
SPEED	SELECTOR	2	Optimize for:
ZGUESS	QUANT	1.00000E+003	Estimated Z (ohms)
EOC	QUANT	0	Open Circuit (V)
SEQUENCER	TOGGLE	TRUE	Run as Sequence
PSTATMODEL	IQUANT	5	Pstat Model
PSTATSECTION	LABEL	REF3000-16137	Pstat Section
PSTATSERIALNO	LABEL	16137	Pstat Serial Number
CTRLMODE	IQUANT	1	Control Mode
IESTAB	IQUANT	0	I/E Stability
CASPEED	IQUANT	1	Control Amp Speed
CONVENTION	IQUANT	1	Current Convention
ICHRANGE	IQUANT	2	Ich Range
ICHRANGEMODE	TOGGLE	F	Ich Auto Range
ICHOFFSETENABLE	TOGGLE	T	Ich Offset Enable
ICHOFFSET	QUANT	0	Ich Offset (V)
ICHFILTER	IQUANT	3	Ich Filter
VCHRANGE	IQUANT	2	Vch Range
VCHRANGEMODE	TOGGLE	F	Vch Auto Range
VCHOFFSETENABLE	TOGGLE	T	Vch Offset Enable
VCHOFFSET	QUANT	0	Vch Offset (V)
VCHFILTER	IQUANT	3	Vch Filter
ACHRANGE	IQUANT	2	Ach Range
ACHOFFSETENABLE	TOGGLE	F	Ach Offset Enable
ACHOFFSET	QUANT	0	Ach Offset (V)
ACHFILTER	IQUANT	3	Ach Filter
IERANGELOWERLIMIT	IQUANT	2	I/E Range Lower Limit
IERANGEMODE	TOGGLE	F	I/E AutoRange
IERANGE	IQUANT	11	I/E Range
POSFEEDENABLE	TOGGLE	F	Positive Feedback IR Comp
POSFEEDRESISTANCE	QUANT	0	Positive Feedback Resistance (ohm)
ACHSELECT	IQUANT	0	Ach Select
CABLEID	IQUANT	13	Cable ID
DCCALDATE	LABEL	7/31/2020	DC Calibration Date
ACCALDATE	LABEL	7/31/2020	AC Calibration Date
THERMOSELECT	IQUANT	1	Thermo Select
FRAMEWORKVERSION	QUANT	6.33	Framework Version
INSTRUMENTVERSION	LABEL	3.50	Instrument Version
COMPLIANCEVOLTAGE	IQUANT	0	Compliance Voltage
ZCURVE	TABLE
	Pt	Time	Freq	Zreal	Zimag	Zsig	Zmod	Zphz	Idc	Vdc	IERange
	#	s	Hz	ohm	ohm	V	ohm	°	A	V	#
	0	14	300046.9	978.162	-1984.745	1	2212.694	-63.76408	-6.99312E-006	-0.0023451	9
	1	27	238359.4	1330.294	-2248.563	1	2612.608	-59.3906	-3.101864E-006	-0.0015806	9
	2	40	189328.1	1772.21	-2483.773	1	3051.206	-54.49157	-3.22623E-006	-0.0014739	9
	3	47	150421.9	2336.738	-2690.031	1	3563.23	-49.02028	5.377824E-006	0.0016465	9
	4	55	119484.4	2945.607	-2761.157	1	4037.399	-43.14877	3.777208E-006	0.0008558	8
	5	62	94921.88	3530.393	-2709.411	1	4450.234	-37.50454	-2.101905E-006	0.000712	8
	6	65	75421.88	4102.93	-2539.856	1	4825.444	-31.75895	-1.119335E-006	0.0005722	8
	7	68	59859.37	4569.169	-2301.326	1	5115.996	-26.73275	1.594715E-006	0.0006561	8
	8	70	47578.12	4965.922	-2021.401	1	5361.571	-22.149	-8.588823E-007	0.0032505	7
	9	73	37828.12	5272.158	-1737.882	1	5551.205	-18.24397	2.212013E-007	0.0003926	7
	10	75	30046.88	5496.563	-1481.209	1	5692.643	-15.08175	-4.789834E-007	0.0025913	7
	11	78	23859.38	5656.067	-1253.633	1	5793.332	-12.49723	-1.526564E-007	-0.0001265	7
	12	80	18984.38	5787.261	-1055.475	1	5882.722	-10.33595	6.065548E-007	-0.0018277	7
	13	82	15046.87	5878.715	-882.3771	1	5944.567	-8.536197	-8.904659E-007	0.0032834	7
	14	85	11953.13	5975.269	-748.489	1	6021.966	-7.139937	-8.595702E-007	0.0033831	7
	15	87	9515.62	6024.594	-639.4782	1	6058.438	-6.058951	5.760755E-007	-0.0016344	7
	16	89	7546.875	6068.34	-557.2432	1	6093.872	-5.246639	7.331728E-007	-0.001949	7
	17	92	5928.309	6133.659	-494.455	1	6153.556	-4.60884	2.163793E-007	-0.0013443	7
	18	94	4733.456	6184.893	-443.112	1	6200.746	-4.097911	6.830982E-007	-0.0018499	7
	19	96	3796.875	6211.959	-408.1675	1	6225.354	-3.759314	-7.897129E-007	0.0033163	7
	20	99	2987.132	6259.32	-400.6812	1	6272.131	-3.662709	-8.802834E-007	0.0032617	7
	21	101	2390.625	6317.265	-400.9631	1	6329.977	-3.631748	2.552761E-007	-0.0013396	7
	22	103	1884.191	6353.61	-403.6189	1	6366.417	-3.634882	-6.87102E-007	0.0030403	7
	23	106	1516.544	6417.26	-432.1559	1	6431.795	-3.852638	6.169856E-007	-0.0013287	7
	24	108	1193.986	6477.609	-469.5522	1	6494.605	-4.146034	-6.224429E-007	0.0016017	7
	25	110	946.5144	6548.093	-518.6829	1	6568.604	-4.529016	6.01539E-007	-0.002073	7
	26	113	751.7689	6614.307	-565.5454	1	6638.44	-4.887095	-7.866682E-007	0.0024884	7
	27	115	597.4265	6704.328	-643.5442	1	6735.144	-5.482986	6.747566E-007	-0.0017752	7
	28	117	477.4305	6797.675	-718.1489	1	6835.504	-6.030714	-1.012099E-007	0.0006323	7
	29	120	376.6741	6907.647	-811.53	1	6955.154	-6.700556	-1.012767E-007	0.0006283	7
	30	122	298.2954	7029.658	-914.8658	1	7088.94	-7.415009	-1.000701E-007	0.0006336	7
	31	124	237.7717	7163.106	-1025.819	1	7236.187	-8.149844	-9.981893E-008	0.0006325	7
	32	127	189.0121	7310.405	-1149.834	1	7400.279	-8.93867	-1.008419E-007	0.0006219	7
	33	129	150.2404	7468.97	-1286.976	1	7579.038	-9.77662	-9.950714E-008	0.000624	7
	34	132	119.1737	7638.379	-1442.831	1	7773.455	-10.6967	-1.045334E-007	0.0006309	7
	35	134	95.0169	7813.457	-1618.151	1	7979.256	-11.70043	-9.758567E-008	0.000622	7
	36	136	75.60484	7999.42	-1825.881	1	8205.154	-12.85759	-9.977619E-008	0.0006181	7
	37	139	54.50582	8271.983	-2194.724	1	8558.185	-14.85937	-9.638367E-008	0.0006197	7
	38	142	45.95588	8438.477	-2431.633	1	8781.841	-16.07487	-1.012653E-007	0.0006189	7
	39	144	37.20238	8650.106	-2776.107	1	9084.664	-17.79317	-8.997617E-008	0.0006305	7
	40	146	30.04808	8886.069	-3187.563	1	9440.486	-19.73365	-1.055119E-007	0.0006254	7
	41	149	23.91582	9159.843	-3718.705	1	9885.92	-22.09612	-1.132141E-007	0.0006305	7
	42	151	18.60119	9499.842	-4435.9	1	10484.47	-25.02997	-1.191119E-007	0.0006292	7
	43	153	15.02404	9846.9	-5163.741	1	11118.71	-27.67264	-1.216445E-007	0.0006198	7
	44	156	12.01923	10236.25	-6086.042	1	11908.85	-30.73393	-9.465914E-008	0.0006288	7
	45	158	9.450605	10743.75	-7289.311	1	12983.15	-34.15571	-1.079767E-007	0.0006424	7
	46	161	7.512019	11320.84	-8696.271	1	14275.38	-37.5302	-9.934617E-008	0.0006457	7
	47	163	5.978954	12020.75	-10382.72	1	15883.93	-40.81826	-8.718628E-008	0.0006187	7
	48	166	4.734848	12943.35	-12453.54	1	17961.66	-43.89512	-9.985638E-008	0.0006267	7
	49	170	3.75601	14067.76	-14913.7	1	20501.71	-46.67192	-8.800738E-008	0.0006368	7
	50	173	3.004808	15447.48	-17685.71	1	23482.1	-48.86461	-9.738164E-008	0.0006446	7
	51	177	2.372217	17259.53	-21097.6	1	27258.03	-50.71408	-9.308469E-008	0.0006132	7
	52	181	1.878005	19570.25	-25069.74	1	31803.88	-52.02325	-8.952995E-008	0.0006092	7
	53	186	1.512097	22132.43	-29283.29	1	36706.34	-52.91786	-9.331615E-008	0.0007087	7
	54	191	1.201923	25425.59	-34374.8	1	42756.14	-53.51122	-4.064077E-009	0.0006705	6
	55	197	0.956633	29294.45	-40179.28	1	49724.63	-53.90445	-1.508434E-008	3.184303E-005	6
