EXPLAIN
TAG	EISPOT
TITLE	LABEL	Potentiostatic EIS	Test Identifier
DATE	LABEL	8/31/2020	Date
TIME	LABEL	14:16:10	Time
NOTES	NOTES	1	Notes...
	
PSTAT	PSTAT	REF3000-16137	Potentiostat
VDC	POTEN	0.00000E+000	T	DC Voltage (V)
FREQINIT	QUANT	3.00000E+005	Initial Freq. (Hz)
FREQFINAL	QUANT	1.00000E+000	Final Freq. (Hz)
PTSPERDEC	QUANT	1.00000E+001	Points/decade
VAC	QUANT	5.00000E+001	AC Voltage (mV rms)
AREA	QUANT	1.00000E+000	Sample Area (cm^2)
SPEED	SELECTOR	2	Optimize for:
ZGUESS	QUANT	1.00000E+003	Estimated Z (ohms)
EOC	QUANT	0	Open Circuit (V)
SEQUENCER	TOGGLE	TRUE	Run as Sequence
PSTATMODEL	IQUANT	5	Pstat Model
PSTATSECTION	LABEL	REF3000-16137	Pstat Section
PSTATSERIALNO	LABEL	16137	Pstat Serial Number
CTRLMODE	IQUANT	1	Control Mode
IESTAB	IQUANT	0	I/E Stability
CASPEED	IQUANT	1	Control Amp Speed
CONVENTION	IQUANT	1	Current Convention
ICHRANGE	IQUANT	2	Ich Range
ICHRANGEMODE	TOGGLE	F	Ich Auto Range
ICHOFFSETENABLE	TOGGLE	T	Ich Offset Enable
ICHOFFSET	QUANT	0	Ich Offset (V)
ICHFILTER	IQUANT	3	Ich Filter
VCHRANGE	IQUANT	2	Vch Range
VCHRANGEMODE	TOGGLE	F	Vch Auto Range
VCHOFFSETENABLE	TOGGLE	T	Vch Offset Enable
VCHOFFSET	QUANT	0	Vch Offset (V)
VCHFILTER	IQUANT	3	Vch Filter
ACHRANGE	IQUANT	2	Ach Range
ACHOFFSETENABLE	TOGGLE	F	Ach Offset Enable
ACHOFFSET	QUANT	0	Ach Offset (V)
ACHFILTER	IQUANT	3	Ach Filter
IERANGELOWERLIMIT	IQUANT	2	I/E Range Lower Limit
IERANGEMODE	TOGGLE	F	I/E AutoRange
IERANGE	IQUANT	11	I/E Range
POSFEEDENABLE	TOGGLE	F	Positive Feedback IR Comp
POSFEEDRESISTANCE	QUANT	0	Positive Feedback Resistance (ohm)
ACHSELECT	IQUANT	0	Ach Select
CABLEID	IQUANT	13	Cable ID
DCCALDATE	LABEL	7/31/2020	DC Calibration Date
ACCALDATE	LABEL	7/31/2020	AC Calibration Date
THERMOSELECT	IQUANT	1	Thermo Select
FRAMEWORKVERSION	QUANT	6.33	Framework Version
INSTRUMENTVERSION	LABEL	3.50	Instrument Version
COMPLIANCEVOLTAGE	IQUANT	0	Compliance Voltage
ZCURVE	TABLE
	Pt	Time	Freq	Zreal	Zimag	Zsig	Zmod	Zphz	Idc	Vdc	IERange
	#	s	Hz	ohm	ohm	V	ohm	°	A	V	#
	0	14	300046.9	537.7925	-2328.708	1	2390	-76.99608	-2.11423E-006	-0.0004526	9
	1	28	238359.4	745.0132	-2862.991	1	2958.337	-75.41387	-1.129472E-005	-0.0052983	9
	2	43	189328.1	1077.028	-3393.423	1	3560.24	-72.39125	-1.329505E-006	-0.0004828	9
	3	52	150421.9	1545.938	-4124.348	1	4404.563	-69.45239	-6.851229E-007	-0.000234	9
	4	59	119484.4	2142.514	-4956.956	1	5400.165	-66.62486	-3.862357E-006	0.0001528	8
	5	67	94921.88	3021.489	-5773.552	1	6516.387	-62.37547	9.65649E-007	0.0009565	8
	6	70	75421.88	4135.378	-6593.261	1	7782.831	-57.90353	1.383634E-006	0.000787	8
	7	73	59859.37	5531.775	-7217.592	1	9093.634	-52.53238	1.603873E-006	0.000792	8
	8	76	47578.12	7211.233	-7593.269	1	10471.85	-46.47821	-7.796569E-007	0.0024029	7
	9	79	37828.12	8890.487	-7703.849	1	11763.93	-40.90982	3.522728E-007	-0.0001442	7
	10	81	30046.88	10523.89	-7532.074	1	12941.57	-35.59176	-7.192519E-007	0.0027833	7
	11	84	23859.38	12088.69	-6942.15	1	13940.22	-29.86739	-5.811206E-007	0.0010942	7
	12	86	18984.38	13380.34	-6314.707	1	14795.57	-25.26447	2.484096E-007	0.0004614	7
	13	88	15046.87	14461.36	-5648.036	1	15525.18	-21.33365	6.035905E-007	-0.001255	7
	14	91	11953.13	15294.22	-4932.346	1	16069.89	-17.87437	-7.594448E-007	0.002399	7
	15	94	9515.62	16007.44	-4226.612	1	16556.04	-14.79084	6.992053E-007	-0.0016053	7
	16	96	7546.875	16581.94	-3620.948	1	16972.69	-12.31814	6.5093E-007	-0.0013801	7
	17	98	5928.309	16994.09	-3095.56	1	17273.73	-10.32353	-2.748549E-007	0.002154	7
	18	101	4733.456	17400.63	-2708.235	1	17610.12	-8.846543	-6.782676E-007	0.0019341	7
	19	104	3796.875	17725.88	-2367.569	1	17883.29	-7.607721	-8.679719E-007	0.0027375	7
	20	106	2987.132	18048.68	-2130.021	1	18173.93	-6.730649	6.60062E-007	-0.0018494	7
	21	108	2390.625	18354.8	-1920.268	1	18454.98	-5.972522	-2.281184E-007	0.002153	7
	22	111	1884.191	18671.65	-1813.343	1	18759.5	-5.547021	-1.117375E-007	0.0015264	7
	23	113	1516.544	18960.59	-1699.113	1	19036.57	-5.120761	6.663638E-007	-0.0023154	7
	24	116	1193.986	19242.39	-1682.961	1	19315.85	-4.998434	-7.184299E-007	0.0021196	7
	25	118	946.5144	19551.27	-1713.18	1	19626.18	-5.007753	1.575261E-007	0.0006159	7
	26	121	751.7689	19899.39	-1730.051	1	19974.46	-4.968795	7.461202E-007	-0.001889	7
	27	124	597.4265	20198.6	-1862.717	1	20284.31	-5.268918	-6.886933E-011	0.0013156	7
	28	126	477.4305	20580.32	-1998.571	1	20677.14	-5.546646	-9.854905E-008	0.0006276	7
	29	128	376.6741	20980.02	-2177.144	1	21092.68	-5.924509	-9.631717E-008	0.0006321	7
	30	131	298.2954	21413.81	-2390.402	1	21546.81	-6.369501	-9.910462E-008	0.0006318	7
	31	133	237.7717	21886.93	-2635.744	1	22045.07	-6.866804	-9.699776E-008	0.0006038	7
	32	136	189.0121	22406.19	-2911.05	1	22594.5	-7.402499	-1.012265E-007	0.0006259	7
	33	138	150.2404	22985.93	-3216.547	1	23209.89	-7.965985	-9.35979E-008	0.0005907	7
	34	140	119.1737	23613.11	-3547.022	1	23878.03	-8.542763	-1.021122E-007	0.0006291	7
	35	143	95.0169	24292.66	-3895.569	1	24603.03	-9.110382	-9.808052E-008	0.0006345	7
	36	145	75.60484	25030.05	-4271.227	1	25391.86	-9.6839	-9.638686E-008	0.0006289	7
	37	148	54.50582	26064.88	-4843.77	1	26511.14	-10.52747	-9.454077E-008	0.000626	7
	38	150	45.95588	26740.47	-5186.755	1	27238.86	-10.97715	-9.192373E-008	0.0006333	7
	39	153	37.20238	27535.36	-5652.407	1	28109.53	-11.60042	-8.66134E-008	0.0006199	7
	40	155	30.04808	28402.14	-6167.896	1	29064.14	-12.25229	-9.648344E-008	0.0006309	7
	41	158	23.91582	29343.09	-6802.648	1	30121.31	-13.05238	-9.172108E-008	0.0006195	7
	42	160	18.60119	30412.59	-7602.131	1	31348.34	-14.03444	-8.57787E-008	0.0006231	7
	43	162	15.02404	31403.7	-8427.575	1	32514.86	-15.02209	-1.069889E-007	0.0006296	7
	44	165	12.01923	32477.22	-9342.69	1	33794.31	-16.04889	-1.140433E-007	0.0006321	7
	45	167	9.450605	33696.75	-10668.4	1	35345.24	-17.5678	-8.420398E-008	0.0006299	7
	46	170	7.512019	35022.44	-12252.03	1	37103.69	-19.28156	-9.963512E-008	0.0006115	7
	47	172	5.978954	36470.76	-14071.69	1	39091.29	-21.09836	-1.588903E-008	0.0006655	6
	48	175	4.734848	38113.43	-16309.5	1	41456.41	-23.16705	-1.805933E-008	0.0006578	6
	49	179	3.75601	40085.45	-19001.02	1	44360.81	-25.36156	-5.666254E-009	0.0006811	6
	50	182	3.004808	42294.02	-22126.54	1	47732.25	-27.61677	-3.186607E-009	0.0006415	6
	51	186	2.372217	45173.45	-25961.96	1	52102.43	-29.88672	-1.328156E-008	0.0006145	6
	52	190	1.878005	48447.07	-30477.41	1	57236.27	-32.17345	-7.574581E-009	0.000681	6
	53	195	1.512097	52211.35	-35278.98	1	63012.95	-34.04672	-6.472362E-009	0.0005749	6
	54	200	1.201923	57104.75	-41227.68	1	70432.05	-35.828	-1.032856E-008	0.0006861	6
	55	206	0.956633	62830.36	-47925.23	1	79022.03	-37.33537	-1.34423E-008	4.076461E-005	6
