EXPLAIN
TAG	EISPOT
TITLE	LABEL	Potentiostatic EIS	Test Identifier
DATE	LABEL	8/31/2020	Date
TIME	LABEL	14:35:05	Time
NOTES	NOTES	1	Notes...
	
PSTAT	PSTAT	REF3000-16137	Potentiostat
VDC	POTEN	0.00000E+000	T	DC Voltage (V)
FREQINIT	QUANT	3.00000E+005	Initial Freq. (Hz)
FREQFINAL	QUANT	1.00000E+000	Final Freq. (Hz)
PTSPERDEC	QUANT	1.00000E+001	Points/decade
VAC	QUANT	5.00000E+001	AC Voltage (mV rms)
AREA	QUANT	1.00000E+000	Sample Area (cm^2)
SPEED	SELECTOR	2	Optimize for:
ZGUESS	QUANT	1.00000E+003	Estimated Z (ohms)
EOC	QUANT	0	Open Circuit (V)
SEQUENCER	TOGGLE	TRUE	Run as Sequence
PSTATMODEL	IQUANT	5	Pstat Model
PSTATSECTION	LABEL	REF3000-16137	Pstat Section
PSTATSERIALNO	LABEL	16137	Pstat Serial Number
CTRLMODE	IQUANT	1	Control Mode
IESTAB	IQUANT	0	I/E Stability
CASPEED	IQUANT	1	Control Amp Speed
CONVENTION	IQUANT	1	Current Convention
ICHRANGE	IQUANT	2	Ich Range
ICHRANGEMODE	TOGGLE	F	Ich Auto Range
ICHOFFSETENABLE	TOGGLE	T	Ich Offset Enable
ICHOFFSET	QUANT	0	Ich Offset (V)
ICHFILTER	IQUANT	3	Ich Filter
VCHRANGE	IQUANT	2	Vch Range
VCHRANGEMODE	TOGGLE	F	Vch Auto Range
VCHOFFSETENABLE	TOGGLE	T	Vch Offset Enable
VCHOFFSET	QUANT	0	Vch Offset (V)
VCHFILTER	IQUANT	3	Vch Filter
ACHRANGE	IQUANT	2	Ach Range
ACHOFFSETENABLE	TOGGLE	F	Ach Offset Enable
ACHOFFSET	QUANT	0	Ach Offset (V)
ACHFILTER	IQUANT	3	Ach Filter
IERANGELOWERLIMIT	IQUANT	2	I/E Range Lower Limit
IERANGEMODE	TOGGLE	F	I/E AutoRange
IERANGE	IQUANT	11	I/E Range
POSFEEDENABLE	TOGGLE	F	Positive Feedback IR Comp
POSFEEDRESISTANCE	QUANT	0	Positive Feedback Resistance (ohm)
ACHSELECT	IQUANT	0	Ach Select
CABLEID	IQUANT	13	Cable ID
DCCALDATE	LABEL	7/31/2020	DC Calibration Date
ACCALDATE	LABEL	7/31/2020	AC Calibration Date
THERMOSELECT	IQUANT	1	Thermo Select
FRAMEWORKVERSION	QUANT	6.33	Framework Version
INSTRUMENTVERSION	LABEL	3.50	Instrument Version
COMPLIANCEVOLTAGE	IQUANT	0	Compliance Voltage
ZCURVE	TABLE
	Pt	Time	Freq	Zreal	Zimag	Zsig	Zmod	Zphz	Idc	Vdc	IERange
	#	s	Hz	ohm	ohm	V	ohm	°	A	V	#
	0	14	300046.9	129.7904	-2489.694	1	2493.075	-87.01582	6.673505E-006	0.0013898	9
	1	28	238359.4	146.9092	-3050.072	1	3053.608	-87.24243	-9.358204E-006	0.0014365	9
	2	43	189328.1	280.4398	-3822.957	1	3833.229	-85.80448	3.194962E-006	0.0004937	9
	3	52	150421.9	342.1037	-4786.964	1	4799.173	-85.91227	-2.612943E-007	-0.000362	9
	4	59	119484.4	485.4885	-5978.241	1	5997.922	-85.35724	2.019817E-006	0.0007126	8
	5	67	94921.88	575.086	-7449.616	1	7471.78	-85.58571	-4.022111E-006	0.0007218	8
	6	70	75421.88	804.1105	-9317.309	1	9351.942	-85.06743	1.902533E-006	0.000237	8
	7	73	59859.37	1101.402	-11653.27	1	11705.2	-84.60076	5.449663E-007	0.00017	8
	8	78	47578.12	1646.267	-14553.61	1	14646.42	-83.54628	-4.418083E-007	0.002938	7
	9	80	37828.12	2374.916	-18214.46	1	18368.64	-82.57133	-1.076158E-006	0.0038035	7
	10	83	30046.88	3396.684	-22635.13	1	22888.57	-81.46574	-9.964302E-007	0.0030769	7
	11	85	23859.38	5070.53	-28094.15	1	28548.06	-79.7692	-8.925668E-007	0.0038522	7
	12	89	18984.38	7395.984	-34602.4	1	35383.99	-77.93504	9.31838E-007	-0.0024318	7
	13	93	15046.87	10692.23	-42608.61	1	43929.69	-75.91305	-9.57934E-007	0.0028248	7
	14	98	11953.13	15646.72	-52023.14	1	54325.19	-73.26057	-9.804634E-007	0.0029264	7
	15	102	9515.62	23209.74	-62316.05	1	66497.99	-69.57205	-1.366966E-007	-0.0006499	7
	16	108	7546.875	32828.19	-74940.47	1	81815.43	-66.34384	2.051264E-007	0.0009311	7
	17	112	5928.309	48189.68	-85093.33	1	97791.2	-60.47644	-9.83264E-008	0.0019821	7
	18	117	4733.456	64870.38	-96150.6	1	115987.5	-55.99347	-4.864131E-008	0.0004826	6
	19	119	3796.875	84637.93	-104300.6	1	134321.2	-50.94133	-7.300847E-008	0.0037461	6
	20	121	2987.132	108598.8	-107868.3	1	153066.2	-44.80665	-6.51532E-008	0.0036187	6
	21	124	2390.625	131325.6	-107403.2	1	169652.2	-39.27764	-7.308553E-008	0.0037434	6
	22	126	1884.191	154044.4	-102958.3	1	185283.8	-33.75748	-1.014753E-007	0.0037492	6
	23	129	1516.544	173174.2	-95690	1	197853.2	-28.92349	-4.276362E-008	0.0030102	6
	24	132	1193.986	191083.2	-85703.72	1	209422.8	-24.15696	6.957092E-008	-0.0026291	6
	25	135	946.5144	204395.8	-76124.92	1	218111.6	-20.42728	-4.183794E-008	0.0029965	6
	26	137	751.7689	214191.7	-66356.19	1	224234.8	-17.21288	-8.532991E-008	0.003949	6
	27	140	597.4265	222366.1	-58009.64	1	229808.2	-14.62114	2.175101E-008	-0.0016535	6
	28	143	477.4305	229609.4	-50759.63	1	235153.2	-12.46585	-1.039189E-008	0.0006699	6
	29	145	376.6741	235150.6	-44623.68	1	239347.2	-10.74504	-1.025949E-008	0.0006679	6
	30	147	298.2954	239867.1	-39946.37	1	243170.6	-9.455004	-1.016123E-008	0.0006662	6
	31	150	237.7717	244108.4	-36636.09	1	246842.3	-8.535319	-1.010676E-008	0.0006608	6
	32	152	189.0121	248090.4	-34358.9	1	250458.3	-7.884934	-1.026043E-008	0.0006594	6
	33	154	150.2404	252042.9	-33064.65	1	254202.5	-7.473758	-1.022561E-008	0.0006734	6
	34	157	119.1737	256089.4	-32676.96	1	258165.8	-7.271636	-9.93637E-009	0.0006647	6
	35	159	95.0169	260227.5	-33138.95	1	262329.1	-7.257328	-1.050381E-008	0.0006731	6
	36	162	75.60484	264795.5	-34367.14	1	267016.4	-7.394938	-1.023054E-008	0.0006619	6
	37	164	54.50582	271308.9	-37317.28	1	273863.3	-7.831628	-1.040946E-008	0.0006662	6
	38	167	45.95588	275783.1	-39447.36	1	278590	-8.140236	-1.009583E-008	0.0006783	6
	39	169	37.20238	281380.4	-42538.18	1	284577.6	-8.596696	-1.052379E-008	0.0006655	6
	40	171	30.04808	287832.2	-46234.3	1	291521.8	-9.125434	-1.063506E-008	0.0006668	6
	41	174	23.91582	295260.2	-50624.5	1	299568.7	-9.72917	-9.927319E-009	0.0006601	6
	42	176	18.60119	304359	-55793.68	1	309430.7	-10.38786	-9.56421E-009	0.0006543	6
	43	179	15.02404	313499.3	-60392.19	1	319263.3	-10.90383	-1.176076E-008	0.0006569	6
	44	181	12.01923	323340	-65409.62	1	329889.6	-11.43624	-9.353585E-009	0.0006622	6
	45	183	9.450605	334507.7	-70718.58	1	341901.3	-11.93718	-1.23211E-008	0.0006801	6
	46	186	7.512019	346672.9	-76392.32	1	354990	-12.42701	-1.162871E-008	0.0006607	6
	47	189	5.978954	359745.5	-81584.39	1	368880.6	-12.77762	-1.019223E-008	0.000673	6
	48	192	4.734848	373139.9	-87747.98	1	383318.5	-13.2333	-3.015597E-009	0.0006247	5
	49	195	3.75601	387552.2	-93740.5	1	398728	-13.59745	2.787926E-010	0.0006607	5
	50	198	3.004808	402362.7	-100776.8	1	414791.2	-14.06119	9.796326E-010	0.000623	5
	51	202	2.372217	419352.2	-107664.5	1	432952.5	-14.39912	-2.125071E-009	0.0005976	5
	52	206	1.878005	435872.3	-116967	1	451293.6	-15.0215	-9.154804E-010	0.0006637	5
	53	211	1.512097	452784	-127369.9	1	470357.8	-15.7115	-9.769114E-012	0.0005534	5
	54	216	1.201923	472783.4	-139345.6	1	492890.8	-16.42206	-1.626214E-009	0.0006767	5
	55	223	0.956633	494370.3	-155123.7	1	518136.4	-17.42083	-2.792103E-009	2.935806E-005	5
