EXPLAIN
TAG	EISPOT
TITLE	LABEL	Potentiostatic EIS	Test Identifier
DATE	LABEL	8/31/2020	Date
TIME	LABEL	15:06:21	Time
NOTES	NOTES	1	Notes...
	
PSTAT	PSTAT	REF3000-16137	Potentiostat
VDC	POTEN	0.00000E+000	T	DC Voltage (V)
FREQINIT	QUANT	3.00000E+005	Initial Freq. (Hz)
FREQFINAL	QUANT	1.00000E+000	Final Freq. (Hz)
PTSPERDEC	QUANT	1.00000E+001	Points/decade
VAC	QUANT	5.00000E+001	AC Voltage (mV rms)
AREA	QUANT	1.00000E+000	Sample Area (cm^2)
SPEED	SELECTOR	2	Optimize for:
ZGUESS	QUANT	1.00000E+003	Estimated Z (ohms)
EOC	QUANT	0	Open Circuit (V)
SEQUENCER	TOGGLE	TRUE	Run as Sequence
PSTATMODEL	IQUANT	5	Pstat Model
PSTATSECTION	LABEL	REF3000-16137	Pstat Section
PSTATSERIALNO	LABEL	16137	Pstat Serial Number
CTRLMODE	IQUANT	1	Control Mode
IESTAB	IQUANT	0	I/E Stability
CASPEED	IQUANT	1	Control Amp Speed
CONVENTION	IQUANT	1	Current Convention
ICHRANGE	IQUANT	2	Ich Range
ICHRANGEMODE	TOGGLE	F	Ich Auto Range
ICHOFFSETENABLE	TOGGLE	T	Ich Offset Enable
ICHOFFSET	QUANT	0	Ich Offset (V)
ICHFILTER	IQUANT	3	Ich Filter
VCHRANGE	IQUANT	2	Vch Range
VCHRANGEMODE	TOGGLE	F	Vch Auto Range
VCHOFFSETENABLE	TOGGLE	T	Vch Offset Enable
VCHOFFSET	QUANT	0	Vch Offset (V)
VCHFILTER	IQUANT	3	Vch Filter
ACHRANGE	IQUANT	2	Ach Range
ACHOFFSETENABLE	TOGGLE	F	Ach Offset Enable
ACHOFFSET	QUANT	0	Ach Offset (V)
ACHFILTER	IQUANT	3	Ach Filter
IERANGELOWERLIMIT	IQUANT	2	I/E Range Lower Limit
IERANGEMODE	TOGGLE	F	I/E AutoRange
IERANGE	IQUANT	11	I/E Range
POSFEEDENABLE	TOGGLE	F	Positive Feedback IR Comp
POSFEEDRESISTANCE	QUANT	0	Positive Feedback Resistance (ohm)
ACHSELECT	IQUANT	0	Ach Select
CABLEID	IQUANT	13	Cable ID
DCCALDATE	LABEL	7/31/2020	DC Calibration Date
ACCALDATE	LABEL	7/31/2020	AC Calibration Date
THERMOSELECT	IQUANT	1	Thermo Select
FRAMEWORKVERSION	QUANT	6.33	Framework Version
INSTRUMENTVERSION	LABEL	3.50	Instrument Version
COMPLIANCEVOLTAGE	IQUANT	0	Compliance Voltage
ZCURVE	TABLE
	Pt	Time	Freq	Zreal	Zimag	Zsig	Zmod	Zphz	Idc	Vdc	IERange
	#	s	Hz	ohm	ohm	V	ohm	°	A	V	#
	0	14	300046.9	-86.26292	-4827.162	1	4827.933	-91.02379	8.920967E-005	-0.0027583	9
	1	28	238359.4	-11.38968	-6058.657	1	6058.667	-90.10771	1.73843E-005	-0.0022825	9
	2	42	189328.1	234.7226	-7705.142	1	7708.716	-88.25513	4.920495E-005	0.0002371	9
	3	50	150421.9	218.6045	-9362.531	1	9365.083	-88.66245	-6.143979E-005	0.0005769	9
	4	60	119484.4	610.1833	-11560.58	1	11576.67	-86.97865	-7.907042E-005	0.0361328	8
	5	68	94921.88	559.3096	-14411.54	1	14422.39	-87.77747	1.73053E-005	0.0004506	8
	6	76	75421.88	872.4375	-18407.14	1	18427.8	-87.2864	-9.261557E-006	-0.0022048	8
	7	86	59859.37	683.0699	-22583.5	1	22593.83	-88.26754	-2.500183E-005	0.0111296	8
	8	94	47578.12	3964.436	-29846.74	1	30108.88	-82.43389	3.460174E-006	-0.0245641	7
	9	102	37828.12	603.0357	-36342.09	1	36347.09	-89.04936	2.616099E-005	-0.0089071	8
	10	111	30046.88	953.445	-44686.2	1	44696.37	-88.77769	2.617384E-005	-0.005129	8
	11	119	23859.38	1027.74	-56034.78	1	56044.2	-88.94925	-8.563542E-007	-0.0052055	8
	12	127	18984.38	4168.691	-71271.97	1	71393.78	-86.65259	2.736949E-006	0.0087196	7
	13	132	15046.87	5430.188	-89843.4	1	90007.35	-86.54121	-7.384114E-006	0.0187992	7
	14	137	11953.13	6851.364	-110048.7	1	110261.8	-86.4375	-2.696495E-005	0.0096904	8
	15	145	9515.62	1330.531	-137353.6	1	137360.1	-89.445	-2.04666E-005	0.0027744	8
	16	153	7546.875	-4381.863	-184726.5	1	184778.5	-91.35885	1.738197E-005	0.0004456	8
	17	161	5928.309	-6337.716	-243683	1	243765.4	-91.48981	-3.334521E-006	-0.0053801	7
	18	168	4733.456	-6955.141	-258438.3	1	258531.9	-91.54158	3.57302E-006	-0.0247478	7
	19	174	3796.875	4713.865	-350794.2	1	350825.8	-89.23013	-2.522647E-005	0.0111303	8
	20	182	2987.132	-281926.4	-369925.1	1	465109.8	-127.3117	-1.57174E-005	0.0005133	8
	21	189	2390.625	397644	-443851.9	1	595923.9	-48.14304	6.607096E-006	-0.0102062	7
	22	197	1884.191	212701.7	-564540	1	603280.6	-69.35509	6.916993E-006	-0.0270983	7
	23	203	1516.544	188031.3	-986777	1	1004532	-79.21156	-5.394191E-006	0.0267686	7
	24	210	1193.986	-117249.4	-637006.1	1	647706.8	-100.4293	-7.372974E-006	0.0187504	7
	25	217	946.5144	-665081.3	-803301.9	1	1042894	-129.6225	-6.717297E-006	0.011916	7
	26	222	751.7689	552631	-663614.1	1	863588.3	-50.21384	-3.822049E-006	0.02572	7
	27	228	597.4265	287440.9	387910.7	1	482801.1	53.46164	-9.668422E-007	-0.0051303	8
	28	235	477.4305	111642	-2791510	1	2793742	-87.70977	-8.206709E-009	0.000701	6
	29	239	376.6741	522078.8	-3636597	1	3673881	-81.8303	-8.313483E-010	0.0006753	5
	30	243	298.2954	581354.9	-4530266	1	4567416	-82.68738	-8.701209E-010	0.0006763	5
	31	246	237.7717	740205.8	-5596601	1	5645338	-82.4658	-7.868509E-010	0.0006746	5
	32	249	189.0121	718121.1	-7023548	1	7060165	-84.16209	-7.639166E-010	0.0005935	5
	33	251	150.2404	1357777	-8661723	1	8767497	-81.09104	-8.412173E-010	0.0006795	5
	34	254	119.1737	1962775	-8454840	1	8679678	-76.9304	-8.57261E-010	0.0006737	5
	35	257	95.0169	1216318	-1.362689E+007	1	1.368107E+007	-84.89938	-8.523415E-010	0.000655	5
	36	260	75.60484	1738435	-1.649641E+007	1	1.658775E+007	-83.98422	-7.569262E-010	0.0005877	5
	37	263	54.50582	2207795	-2.290442E+007	1	2.301058E+007	-84.49417	-8.415027E-010	0.0006806	5
	38	266	45.95588	6822898	-3.023777E+007	1	3.099798E+007	-77.28464	-5.493513E-011	0.0006096	4
	39	268	37.20238	6811716	-3.450436E+007	1	3.51703E+007	-78.83249	-8.24481E-010	0.0006621	5
	40	272	30.04808	6312957	-4.133071E+007	1	4.181006E+007	-81.31562	-8.81468E-010	0.0006791	5
	41	276	23.91582	1.159855E+007	-5.053003E+007	1	5.18441E+007	-77.07239	-8.281376E-011	0.0006159	4
	42	280	18.60119	1.694566E+007	-7.656465E+007	1	7.841748E+007	-77.5202	-1.185613E-010	0.0006325	4
	43	284	15.02404	2.163984E+007	-8.007534E+007	1	8.294782E+007	-74.87743	-7.74036E-011	0.0006401	4
	44	287	12.01923	2.81548E+007	-9.883543E+007	1	1.027674E+008	-74.09958	-8.297858E-011	0.0006887	4
	45	291	9.450605	4.452907E+007	-1.222979E+008	1	1.301523E+008	-69.99327	-6.725565E-011	0.0006737	4
	46	295	7.512019	5.82031E+007	-1.537526E+008	1	1.644003E+008	-69.26582	-6.74132E-011	0.0006987	4
	47	299	5.978954	7.843105E+007	-1.780573E+008	1	1.945657E+008	-66.22736	-8.614745E-011	0.0006995	4
	48	305	4.734848	1.431163E+008	-2.015212E+008	1	2.471702E+008	-54.6184	-9.203444E-012	0.0007125	3
	49	310	3.75601	1.544045E+008	-2.202775E+008	1	2.690036E+008	-54.9713	-7.8123E-010	0.0005755	5
	50	318	3.004808	2.191519E+008	-2.675525E+008	1	3.458495E+008	-50.67915	-8.401574E-010	0.000631	5
	51	327	2.372217	2.841579E+008	-2.764179E+008	1	3.964248E+008	-44.20895	-8.491522E-012	0.0007554	3
	52	333	1.878005	3.483846E+008	-2.901682E+008	1	4.533976E+008	-39.79078	-8.498055E-012	0.0007103	3
	53	342	1.512097	4.120048E+008	-2.994131E+008	1	5.093095E+008	-36.00674	-8.378847E-012	0.0006591	3
	54	347	1.201923	4.829475E+008	-2.992191E+008	1	5.681288E+008	-31.78106	-8.172824E-012	0.0006983	3
	55	358	0.956633	5.553127E+008	-2.948481E+008	1	6.287349E+008	-27.96645	-8.909316E-012	8.039162E-005	3
