EXPLAIN
TAG	EISPOT
TITLE	LABEL	Potentiostatic EIS	Test Identifier
DATE	LABEL	8/31/2020	Date
TIME	LABEL	14:12:44	Time
NOTES	NOTES	1	Notes...
	
PSTAT	PSTAT	REF3000-16137	Potentiostat
VDC	POTEN	0.00000E+000	T	DC Voltage (V)
FREQINIT	QUANT	3.00000E+005	Initial Freq. (Hz)
FREQFINAL	QUANT	1.00000E+000	Final Freq. (Hz)
PTSPERDEC	QUANT	1.00000E+001	Points/decade
VAC	QUANT	5.00000E+001	AC Voltage (mV rms)
AREA	QUANT	1.00000E+000	Sample Area (cm^2)
SPEED	SELECTOR	2	Optimize for:
ZGUESS	QUANT	1.00000E+003	Estimated Z (ohms)
EOC	QUANT	0	Open Circuit (V)
SEQUENCER	TOGGLE	TRUE	Run as Sequence
PSTATMODEL	IQUANT	5	Pstat Model
PSTATSECTION	LABEL	REF3000-16137	Pstat Section
PSTATSERIALNO	LABEL	16137	Pstat Serial Number
CTRLMODE	IQUANT	1	Control Mode
IESTAB	IQUANT	0	I/E Stability
CASPEED	IQUANT	1	Control Amp Speed
CONVENTION	IQUANT	1	Current Convention
ICHRANGE	IQUANT	2	Ich Range
ICHRANGEMODE	TOGGLE	F	Ich Auto Range
ICHOFFSETENABLE	TOGGLE	T	Ich Offset Enable
ICHOFFSET	QUANT	0	Ich Offset (V)
ICHFILTER	IQUANT	3	Ich Filter
VCHRANGE	IQUANT	2	Vch Range
VCHRANGEMODE	TOGGLE	F	Vch Auto Range
VCHOFFSETENABLE	TOGGLE	T	Vch Offset Enable
VCHOFFSET	QUANT	0	Vch Offset (V)
VCHFILTER	IQUANT	3	Vch Filter
ACHRANGE	IQUANT	2	Ach Range
ACHOFFSETENABLE	TOGGLE	F	Ach Offset Enable
ACHOFFSET	QUANT	0	Ach Offset (V)
ACHFILTER	IQUANT	3	Ach Filter
IERANGELOWERLIMIT	IQUANT	2	I/E Range Lower Limit
IERANGEMODE	TOGGLE	F	I/E AutoRange
IERANGE	IQUANT	11	I/E Range
POSFEEDENABLE	TOGGLE	F	Positive Feedback IR Comp
POSFEEDRESISTANCE	QUANT	0	Positive Feedback Resistance (ohm)
ACHSELECT	IQUANT	0	Ach Select
CABLEID	IQUANT	13	Cable ID
DCCALDATE	LABEL	7/31/2020	DC Calibration Date
ACCALDATE	LABEL	7/31/2020	AC Calibration Date
THERMOSELECT	IQUANT	1	Thermo Select
FRAMEWORKVERSION	QUANT	6.33	Framework Version
INSTRUMENTVERSION	LABEL	3.50	Instrument Version
COMPLIANCEVOLTAGE	IQUANT	0	Compliance Voltage
ZCURVE	TABLE
	Pt	Time	Freq	Zreal	Zimag	Zsig	Zmod	Zphz	Idc	Vdc	IERange
	#	s	Hz	ohm	ohm	V	ohm	°	A	V	#
	0	14	300046.9	795.7646	-2159.885	1	2301.814	-69.77473	-2.640592E-006	-0.001248	9
	1	27	238359.4	1122.923	-2511.06	1	2750.705	-65.90623	-3.92662E-006	-0.0017961	9
	2	40	189328.1	1583.351	-2949.13	1	3347.292	-61.76921	-8.788031E-007	-0.0003403	9
	3	47	150421.9	2170.151	-3316.259	1	3963.222	-56.79937	-1.067857E-006	-0.0002775	9
	4	54	119484.4	2832.046	-3604.724	1	4584.16	-51.8451	-9.587176E-006	-0.0008816	8
	5	62	94921.88	3655.471	-3804.73	1	5276.214	-46.14619	-2.225966E-006	0.0004942	8
	6	65	75421.88	4510.65	-3818.874	1	5910.141	-40.25242	-1.524571E-006	0.000398	8
	7	67	59859.37	5322.023	-3666.244	1	6462.606	-34.56224	3.928059E-007	0.0004795	8
	8	70	47578.12	6081.208	-3367.469	1	6951.326	-28.97549	1.857259E-007	0.0004173	7
	9	72	37828.12	6670.967	-3010.001	1	7318.6	-24.28533	2.840146E-007	-0.0011561	7
	10	75	30046.88	7137.414	-2629.045	1	7606.218	-20.22113	-3.651604E-007	0.0006358	7
	11	77	23859.38	7513.584	-2239.544	1	7840.25	-16.59753	2.445811E-007	-0.0012706	7
	12	80	18984.38	7796.043	-1910.451	1	8026.713	-13.76922	6.487548E-007	-0.0016795	7
	13	82	15046.87	8005.323	-1643.022	1	8172.191	-11.59839	5.914777E-007	-0.0011845	7
	14	84	11953.13	8204.583	-1379.215	1	8319.7	-9.54238	-7.060668E-007	0.002423	7
	15	87	9515.62	8302.251	-1151.718	1	8381.756	-7.897872	-8.753277E-007	0.0032952	7
	16	89	7546.875	8413.169	-989.706	1	8471.183	-6.709312	-7.531529E-007	0.0024885	7
	17	91	5928.309	8516.72	-840.7343	1	8558.116	-5.63773	3.801081E-007	-0.0004639	7
	18	93	4733.456	8588.802	-743.6318	1	8620.934	-4.948417	-2.24359E-007	0.0020381	7
	19	96	3796.875	8683.2	-687.5705	1	8710.38	-4.527462	-4.244734E-007	0.0007782	7
	20	98	2987.132	8767.948	-643.3164	1	8791.517	-4.196351	5.421626E-007	-0.0011657	7
	21	100	2390.625	8807.937	-582.345	1	8827.167	-3.782659	6.895993E-007	-0.0020364	7
	22	103	1884.191	8917.388	-627.8029	1	8939.46	-4.027099	6.593677E-007	-0.0016052	7
	23	105	1516.544	9010.476	-607.3781	1	9030.924	-3.856359	6.381271E-007	-0.0014476	7
	24	107	1193.986	9112.225	-652.0712	1	9135.526	-4.093111	5.840835E-007	-0.0018375	7
	25	110	946.5144	9210.174	-697.9116	1	9236.578	-4.333373	-5.569776E-007	0.0013613	7
	26	112	751.7689	9294.713	-765.9719	1	9326.221	-4.711067	-7.160423E-007	0.0023063	7
	27	114	597.4265	9456.238	-855.1694	1	9494.828	-5.167454	-5.609484E-008	-0.000643	7
	28	117	477.4305	9563.14	-939.0783	1	9609.14	-5.608334	-9.996935E-008	0.0006317	7
	29	119	376.6741	9718.48	-1058.802	1	9775.99	-6.217695	-9.637025E-008	0.0006202	7
	30	121	298.2954	9890.37	-1194.94	1	9962.3	-6.888997	-9.871581E-008	0.0006235	7
	31	124	237.7717	10082.59	-1343.236	1	10171.67	-7.588453	-9.876745E-008	0.0006342	7
	32	126	189.0121	10298.38	-1509.289	1	10408.39	-8.337681	-9.671169E-008	0.0006261	7
	33	128	150.2404	10535.65	-1691.226	1	10670.52	-9.11956	-9.954997E-008	0.000624	7
	34	131	119.1737	10794.36	-1893.848	1	10959.23	-9.95115	-9.336482E-008	0.0006331	7
	35	133	95.0169	11067.16	-2112.67	1	11267.01	-10.80747	-9.978469E-008	0.0006343	7
	36	136	75.60484	11360.94	-2364.455	1	11604.38	-11.75665	-9.893535E-008	0.0006342	7
	37	138	54.50582	11784.11	-2792.627	1	12110.5	-13.33214	-1.007508E-007	0.000632	7
	38	141	45.95588	12049.14	-3064.721	1	12432.79	-14.27067	-9.9533E-008	0.0006272	7
	39	143	37.20238	12377.1	-3453.214	1	12849.8	-15.58911	-9.023093E-008	0.0006277	7
	40	146	30.04808	12739.9	-3916.564	1	13328.33	-17.08874	-1.003286E-007	0.0006268	7
	41	148	23.91582	13147.17	-4510.84	1	13899.49	-18.93727	-1.014886E-007	0.0006347	7
	42	150	18.60119	13647.73	-5305.107	1	14642.56	-21.24196	-1.192564E-007	0.0006333	7
	43	153	15.02404	14103.67	-6122.819	1	15375.38	-23.46709	-8.85808E-008	0.00063	7
	44	155	12.01923	14664.43	-7131.825	1	16306.7	-25.93528	-8.226286E-008	0.0006289	7
	45	158	9.450605	15332.59	-8463.015	1	17513.16	-28.89705	-1.14852E-007	0.000636	7
	46	160	7.512019	16083.16	-10049.19	1	18964.55	-31.99826	-1.039336E-007	0.0006171	7
	47	163	5.978954	16995.1	-11922.97	1	20760.31	-35.05171	-1.054448E-007	0.000632	7
	48	166	4.734848	18107.9	-14222.85	1	23025.76	-38.14786	-1.063677E-007	0.0006079	7
	49	169	3.75601	19542.49	-16977.56	1	25887.19	-40.98252	-9.551628E-008	0.0006428	7
	50	172	3.004808	21230.4	-20097.13	1	29233.96	-43.42925	-9.093416E-008	0.0006102	7
	51	176	2.372217	23478.89	-23918.73	1	33516.63	-45.53168	-9.551695E-008	0.0005577	7
	52	180	1.878005	26250.56	-28400.5	1	38674.03	-47.25282	-8.946007E-008	0.0006341	7
	53	185	1.512097	29378.81	-33009.52	1	44189.85	-48.33058	-5.574968E-009	0.0006232	6
	54	191	1.201923	33405.95	-38628.47	1	51069.72	-49.14671	-7.170688E-009	0.0006993	6
	55	197	0.956633	38128.07	-44920	1	58919.91	-49.67542	-1.267655E-008	3.518877E-005	6
