EXPLAIN
TAG	EISPOT
TITLE	LABEL	Potentiostatic EIS	Test Identifier
DATE	LABEL	8/31/2020	Date
TIME	LABEL	14:05:49	Time
NOTES	NOTES	1	Notes...
	
PSTAT	PSTAT	REF3000-16137	Potentiostat
VDC	POTEN	0.00000E+000	T	DC Voltage (V)
FREQINIT	QUANT	3.00000E+005	Initial Freq. (Hz)
FREQFINAL	QUANT	1.00000E+000	Final Freq. (Hz)
PTSPERDEC	QUANT	1.00000E+001	Points/decade
VAC	QUANT	5.00000E+001	AC Voltage (mV rms)
AREA	QUANT	1.00000E+000	Sample Area (cm^2)
SPEED	SELECTOR	2	Optimize for:
ZGUESS	QUANT	1.00000E+003	Estimated Z (ohms)
EOC	QUANT	0	Open Circuit (V)
SEQUENCER	TOGGLE	TRUE	Run as Sequence
PSTATMODEL	IQUANT	5	Pstat Model
PSTATSECTION	LABEL	REF3000-16137	Pstat Section
PSTATSERIALNO	LABEL	16137	Pstat Serial Number
CTRLMODE	IQUANT	1	Control Mode
IESTAB	IQUANT	0	I/E Stability
CASPEED	IQUANT	1	Control Amp Speed
CONVENTION	IQUANT	1	Current Convention
ICHRANGE	IQUANT	2	Ich Range
ICHRANGEMODE	TOGGLE	F	Ich Auto Range
ICHOFFSETENABLE	TOGGLE	T	Ich Offset Enable
ICHOFFSET	QUANT	0	Ich Offset (V)
ICHFILTER	IQUANT	3	Ich Filter
VCHRANGE	IQUANT	2	Vch Range
VCHRANGEMODE	TOGGLE	F	Vch Auto Range
VCHOFFSETENABLE	TOGGLE	T	Vch Offset Enable
VCHOFFSET	QUANT	0	Vch Offset (V)
VCHFILTER	IQUANT	3	Vch Filter
ACHRANGE	IQUANT	2	Ach Range
ACHOFFSETENABLE	TOGGLE	F	Ach Offset Enable
ACHOFFSET	QUANT	0	Ach Offset (V)
ACHFILTER	IQUANT	3	Ach Filter
IERANGELOWERLIMIT	IQUANT	2	I/E Range Lower Limit
IERANGEMODE	TOGGLE	F	I/E AutoRange
IERANGE	IQUANT	11	I/E Range
POSFEEDENABLE	TOGGLE	F	Positive Feedback IR Comp
POSFEEDRESISTANCE	QUANT	0	Positive Feedback Resistance (ohm)
ACHSELECT	IQUANT	0	Ach Select
CABLEID	IQUANT	13	Cable ID
DCCALDATE	LABEL	7/31/2020	DC Calibration Date
ACCALDATE	LABEL	7/31/2020	AC Calibration Date
THERMOSELECT	IQUANT	1	Thermo Select
FRAMEWORKVERSION	QUANT	6.33	Framework Version
INSTRUMENTVERSION	LABEL	3.50	Instrument Version
COMPLIANCEVOLTAGE	IQUANT	0	Compliance Voltage
ZCURVE	TABLE
	Pt	Time	Freq	Zreal	Zimag	Zsig	Zmod	Zphz	Idc	Vdc	IERange
	#	s	Hz	ohm	ohm	V	ohm	°	A	V	#
	0	15	300046.9	1112.969	-1750.309	1	2074.194	-57.54895	4.090825E-006	0.0012303	9
	1	27	238359.4	1481.414	-1913.57	1	2419.987	-52.25432	-2.25138E-005	0.0022086	9
	2	40	189328.1	1884.757	-2008.195	1	2754.116	-46.81614	-8.593084E-008	-0.0003148	9
	3	48	150421.9	2337.867	-2053.4	1	3111.603	-41.29355	-5.756387E-007	-0.0003329	9
	4	55	119484.4	2803.539	-1961.753	1	3421.741	-34.98209	3.404304E-006	-0.0002057	8
	5	63	94921.88	3178.122	-1843.933	1	3674.31	-30.12213	8.669621E-007	0.0006124	8
	6	65	75421.88	3503.447	-1651.716	1	3873.281	-25.24175	-2.695519E-006	0.0006602	8
	7	68	59859.37	3776.3	-1436.793	1	4040.398	-20.83064	8.672265E-007	0.0004861	8
	8	70	47578.12	3987.195	-1210.241	1	4166.822	-16.88472	6.06284E-007	-0.0019851	7
	9	73	37828.12	4135.265	-1030.78	1	4261.798	-13.99664	4.056234E-007	-0.0004602	7
	10	75	30046.88	4248.71	-868.6281	1	4336.594	-11.55461	1.63507E-007	0.0005158	7
	11	78	23859.38	4333.748	-730.9443	1	4394.958	-9.57359	-4.487891E-008	0.0013287	7
	12	80	18984.38	4398.45	-609.301	1	4440.451	-7.886781	-4.865376E-007	0.0024781	7
	13	83	15046.87	4453.489	-523.9837	1	4484.208	-6.710393	6.58066E-007	-0.0015312	7
	14	85	11953.13	4497.138	-441.7096	1	4518.778	-5.609608	-7.682169E-007	0.002712	7
	15	87	9515.62	4526.068	-386.637	1	4542.552	-4.882609	-7.805501E-007	0.0031943	7
	16	89	7546.875	4564.17	-342.2694	1	4576.986	-4.288612	1.470259E-007	-0.001007	7
	17	92	5928.309	4595.166	-315.6329	1	4605.993	-3.929362	-7.601009E-007	0.0023284	7
	18	94	4733.456	4630.01	-295.7916	1	4639.449	-3.655415	-6.880583E-007	0.0030298	7
	19	96	3796.875	4654.791	-290.1171	1	4663.823	-3.566435	-3.325436E-007	0.0022022	7
	20	99	2987.132	4699.873	-287.6019	1	4708.665	-3.501766	6.166028E-007	-0.0017471	7
	21	101	2390.625	4730.779	-298.0795	1	4740.161	-3.605357	-6.625957E-007	0.0020051	7
	22	103	1884.191	4781.753	-320.2278	1	4792.463	-3.831303	5.87054E-007	-0.0011863	7
	23	106	1516.544	4813.037	-339.0807	1	4824.966	-4.029857	-7.235667E-007	0.0023553	7
	24	108	1193.986	4862.964	-372.1379	1	4877.182	-4.376026	-5.646127E-007	0.0013913	7
	25	110	946.5144	4918.051	-415.9285	1	4935.608	-4.834105	7.521774E-008	0.000788	7
	26	113	751.7689	4972.249	-467.3471	1	4994.164	-5.369519	-8.087108E-007	0.0026351	7
	27	115	597.4265	5044.699	-520.3196	1	5071.461	-5.888771	6.050633E-007	-0.0017053	7
	28	117	477.4305	5120.883	-590.1282	1	5154.774	-6.573741	-9.807952E-008	0.0006157	7
	29	120	376.6741	5209.792	-667.0815	1	5252.326	-7.296665	-1.000632E-007	0.000623	7
	30	122	298.2954	5307.077	-751.7472	1	5360.055	-8.062307	-1.014851E-007	0.000618	7
	31	124	237.7717	5411.071	-842.4012	1	5476.251	-8.848834	-9.62195E-008	0.0006234	7
	32	127	189.0121	5524.105	-945.2285	1	5604.391	-9.70983	-1.002081E-007	0.0006266	7
	33	129	150.2404	5643.642	-1061.618	1	5742.624	-10.65334	-1.013666E-007	0.0006355	7
	34	132	119.1737	5770.517	-1197.864	1	5893.534	-11.72711	-9.577141E-008	0.0006233	7
	35	134	95.0169	5901.729	-1355.942	1	6055.493	-12.93934	-1.000433E-007	0.0006302	7
	36	137	75.60484	6043.145	-1546.736	1	6237.947	-14.35659	-1.0107E-007	0.0006287	7
	37	139	54.50582	6257.113	-1889.369	1	6536.144	-16.80197	-9.680462E-008	0.0006187	7
	38	142	45.95588	6389.77	-2109.889	1	6729.101	-18.27312	-1.064202E-007	0.0006306	7
	39	144	37.20238	6563.468	-2429.381	1	6998.643	-20.31137	-1.065471E-007	0.0006298	7
	40	146	30.04808	6760.755	-2812.465	1	7322.416	-22.58725	-9.913803E-008	0.0006258	7
	41	149	23.91582	6997.388	-3304.01	1	7738.211	-25.27563	-1.039763E-007	0.0006287	7
	42	151	18.60119	7298.779	-3965.406	1	8306.421	-28.51511	-6.972346E-008	0.0006219	7
	43	153	15.02404	7594.518	-4634.549	1	8896.952	-31.3936	-8.742591E-008	0.0006325	7
	44	156	12.01923	7967.861	-5475.015	1	9667.61	-34.49441	-1.251929E-007	0.0006319	7
	45	158	9.450605	8446.147	-6578.205	1	10705.61	-37.91291	-1.149936E-007	0.0006338	7
	46	161	7.512019	9006.961	-7840	1	11941.15	-41.03754	-1.184367E-007	0.000633	7
	47	163	5.978954	9710.38	-9351.915	1	13481.46	-43.92268	-1.057908E-007	0.0006281	7
	48	166	4.734848	10621.1	-11157.34	1	15404.35	-46.41049	-9.919577E-008	0.0006181	7
	49	170	3.75601	11748.18	-13268.79	1	17722.31	-48.47834	-9.712441E-008	0.0006318	7
	50	173	3.004808	13077.32	-15602.83	1	20358.41	-50.03235	-8.887028E-008	0.0005994	7
	51	177	2.372217	14807.11	-18465.44	1	23669.03	-51.27449	-9.95698E-008	0.0005918	7
	52	181	1.878005	16925.02	-21696.39	1	27517.08	-52.04275	-9.761551E-008	0.0006256	7
	53	186	1.512097	19264.1	-25102.22	1	31642.17	-52.49642	-9.360262E-008	0.0005199	7
	54	191	1.201923	22155.79	-29281.29	1	36718.84	-52.8869	-9.61285E-008	0.0006469	7
	55	197	0.956633	25582.83	-34006.66	1	42555.07	-53.04626	-1.125051E-008	1.523931E-005	6
