EXPLAIN
TAG	EISPOT
TITLE	LABEL	Potentiostatic EIS	Test Identifier
DATE	LABEL	8/31/2020	Date
TIME	LABEL	13:35:56	Time
NOTES	NOTES	1	Notes...
	
PSTAT	PSTAT	REF3000-16137	Potentiostat
VDC	POTEN	0.00000E+000	T	DC Voltage (V)
FREQINIT	QUANT	3.00000E+005	Initial Freq. (Hz)
FREQFINAL	QUANT	1.00000E+000	Final Freq. (Hz)
PTSPERDEC	QUANT	1.00000E+001	Points/decade
VAC	QUANT	5.00000E+001	AC Voltage (mV rms)
AREA	QUANT	1.00000E+000	Sample Area (cm^2)
SPEED	SELECTOR	2	Optimize for:
ZGUESS	QUANT	1.00000E+003	Estimated Z (ohms)
EOC	QUANT	0	Open Circuit (V)
SEQUENCER	TOGGLE	TRUE	Run as Sequence
PSTATMODEL	IQUANT	5	Pstat Model
PSTATSECTION	LABEL	REF3000-16137	Pstat Section
PSTATSERIALNO	LABEL	16137	Pstat Serial Number
CTRLMODE	IQUANT	1	Control Mode
IESTAB	IQUANT	0	I/E Stability
CASPEED	IQUANT	1	Control Amp Speed
CONVENTION	IQUANT	1	Current Convention
ICHRANGE	IQUANT	2	Ich Range
ICHRANGEMODE	TOGGLE	F	Ich Auto Range
ICHOFFSETENABLE	TOGGLE	T	Ich Offset Enable
ICHOFFSET	QUANT	0	Ich Offset (V)
ICHFILTER	IQUANT	3	Ich Filter
VCHRANGE	IQUANT	2	Vch Range
VCHRANGEMODE	TOGGLE	F	Vch Auto Range
VCHOFFSETENABLE	TOGGLE	T	Vch Offset Enable
VCHOFFSET	QUANT	0	Vch Offset (V)
VCHFILTER	IQUANT	3	Vch Filter
ACHRANGE	IQUANT	2	Ach Range
ACHOFFSETENABLE	TOGGLE	F	Ach Offset Enable
ACHOFFSET	QUANT	0	Ach Offset (V)
ACHFILTER	IQUANT	3	Ach Filter
IERANGELOWERLIMIT	IQUANT	2	I/E Range Lower Limit
IERANGEMODE	TOGGLE	F	I/E AutoRange
IERANGE	IQUANT	11	I/E Range
POSFEEDENABLE	TOGGLE	F	Positive Feedback IR Comp
POSFEEDRESISTANCE	QUANT	0	Positive Feedback Resistance (ohm)
ACHSELECT	IQUANT	0	Ach Select
CABLEID	IQUANT	13	Cable ID
DCCALDATE	LABEL	7/31/2020	DC Calibration Date
ACCALDATE	LABEL	7/31/2020	AC Calibration Date
THERMOSELECT	IQUANT	1	Thermo Select
FRAMEWORKVERSION	QUANT	6.33	Framework Version
INSTRUMENTVERSION	LABEL	3.50	Instrument Version
COMPLIANCEVOLTAGE	IQUANT	0	Compliance Voltage
ZCURVE	TABLE
	Pt	Time	Freq	Zreal	Zimag	Zsig	Zmod	Zphz	Idc	Vdc	IERange
	#	s	Hz	ohm	ohm	V	ohm	°	A	V	#
	0	5	300046.9	463.4418	-89.86297	1	472.0738	-10.97367	9.308382E-006	0.0014268	9
	1	8	238359.4	472.4694	-75.217	1	478.4192	-9.045564	-3.085165E-006	-0.0005403	9
	2	11	189328.1	477.8306	-62.3126	1	481.8765	-7.42986	1.869751E-006	0.0004336	9
	3	14	150421.9	484.2298	-50.7163	1	486.8784	-5.979133	-1.183592E-005	-0.0015718	9
	4	17	119484.4	487.3803	-43.04169	1	489.2771	-5.046831	6.534791E-006	0.0006719	8
	5	19	94921.88	491.1892	-34.09701	1	492.3712	-3.970946	-8.129437E-007	0.0006113	8
	6	22	75421.88	493.5878	-29.28402	1	494.4557	-3.395315	2.277754E-006	0.0005805	8
	7	24	59859.37	495.9598	-26.0966	1	496.6459	-3.012033	-9.556383E-007	0.0005114	8
	8	27	47578.12	498.5919	-23.53664	1	499.1471	-2.702712	2.176461E-006	0.0004963	8
	9	29	37828.12	501.0186	-22.50878	1	501.5239	-2.572342	-3.098127E-006	0.000743	8
	10	32	30046.88	503.7675	-21.50945	1	504.2264	-2.444883	2.121383E-006	0.0005022	8
	11	34	23859.38	506.5041	-21.44967	1	506.9581	-2.424939	-1.835436E-006	0.0007796	8
	12	37	18984.38	509.0411	-22.34038	1	509.5311	-2.512938	-3.510216E-006	0.000747	8
	13	39	15046.87	512.1233	-23.67043	1	512.67	-2.646338	2.36507E-006	0.0005554	8
	14	41	11953.13	515.2076	-25.48501	1	515.8376	-2.831857	-2.745308E-006	0.0006683	8
	15	44	9515.62	519.0377	-28.57811	1	519.8239	-3.151512	-2.535177E-006	0.0006849	8
	16	46	7546.875	523.5936	-31.95635	1	524.5679	-3.492586	2.943455E-007	0.0006699	8
	17	48	5928.309	528.0237	-36.39307	1	529.2764	-3.942771	-2.616937E-006	0.0007791	8
	18	51	4733.456	533.5139	-41.55277	1	535.1296	-4.453496	1.940439E-006	0.0006667	8
	19	53	3796.875	539.4987	-46.91938	1	541.5351	-4.97042	1.247456E-006	0.0005011	8
	20	55	2987.132	545.8113	-53.54207	1	548.4312	-5.602579	-2.505618E-006	0.0006439	8
	21	57	2390.625	553.0541	-60.84232	1	556.3907	-6.27795	2.148204E-006	0.0006226	8
	22	60	1884.191	561.3925	-69.99612	1	565.7393	-7.107134	2.241907E-006	0.0004946	8
	23	62	1516.544	569.5207	-78.82573	1	574.9498	-7.880081	-3.179939E-006	0.0007019	8
	24	64	1193.986	579.4829	-90.85477	1	586.5621	-8.910632	-2.245743E-007	0.0005606	8
	25	67	946.5144	590.1029	-104.5125	1	599.2865	-10.04344	-8.049576E-007	0.0006865	8
	26	69	751.7689	602.1127	-120.3768	1	614.0279	-11.30575	1.823083E-006	0.0005081	8
	27	72	597.4265	615.3318	-138.8179	1	630.7961	-12.71301	1.910668E-006	0.0004951	8
	28	74	477.4305	629.3864	-160.2473	1	649.4663	-14.2845	-4.570329E-007	0.0006498	8
	29	76	376.6741	646.6525	-186.8827	1	673.1156	-16.1193	-4.41071E-007	0.0006419	8
	30	78	298.2954	666.1563	-217.8351	1	700.8683	-18.1079	-4.454194E-007	0.0006477	8
	31	81	237.7717	688.0322	-253.2897	1	733.174	-20.2105	-4.406693E-007	0.0006424	8
	32	83	189.0121	713.4821	-295.4397	1	772.2314	-22.49354	-4.454431E-007	0.0006433	8
	33	86	150.2404	742.9549	-345.081	1	819.1843	-24.9135	-4.360491E-007	0.0006411	8
	34	88	119.1737	777.6675	-403.9268	1	876.3125	-27.44773	-4.325142E-007	0.0006457	8
	35	90	95.0169	817.59	-471.6529	1	943.8802	-29.97987	-4.255526E-007	0.000643	8
	36	93	75.60484	865.2025	-551.2462	1	1025.889	-32.50242	-4.385244E-007	0.0006437	8
	37	95	54.50582	947.8875	-687.6102	1	1171.025	-35.95763	-4.247401E-007	0.000641	8
	38	98	45.95588	1000.728	-770.5629	1	1263.022	-37.59634	-3.780132E-007	0.0006462	8
	39	100	37.20238	1074.178	-886.6754	1	1392.858	-39.53781	-4.142917E-007	0.0006488	8
	40	103	30.04808	1160.693	-1020.679	1	1545.637	-41.32745	-3.724527E-007	0.0006445	8
	41	105	23.91582	1267.33	-1184.162	1	1734.464	-43.05697	-4.111827E-007	0.0006444	8
	42	108	18.60119	1406.021	-1391.777	1	1978.368	-44.7083	-3.985512E-007	0.0006595	8
	43	110	15.02404	1544.782	-1598.386	1	2222.879	-45.97704	-3.947107E-007	0.0006423	8
	44	112	12.01923	1714.294	-1841.227	1	2515.734	-47.0446	-2.895761E-007	0.0006503	8
	45	115	9.450605	1929.97	-2144.746	1	2885.259	-48.01723	-3.181893E-007	0.0006418	8
	46	117	7.512019	2178.285	-2472.8	1	3295.4	-48.62323	-2.785968E-007	0.000632	8
	47	120	5.978954	2468.187	-2838.816	1	3761.758	-48.99492	-2.653646E-007	0.0006487	8
	48	123	4.734848	2836.448	-3272.583	1	4330.732	-49.08352	5.795514E-008	0.0006202	7
	49	126	3.75601	3257.694	-3728.216	1	4950.976	-48.85322	5.61013E-008	0.000637	7
	50	132	3.004808	3744.564	-4204.151	1	5629.978	-48.3091	1.477789E-008	0.0006494	7
	51	138	2.372217	4348.146	-4736.749	1	6429.865	-47.44931	6.742764E-008	0.0006493	7
	52	142	1.878005	5041.325	-5241.868	1	7272.698	-46.11724	2.82656E-008	0.0005983	7
	53	151	1.512097	5771.768	-5770.382	1	8161.533	-44.99312	6.131256E-009	0.0007127	7
	54	162	1.201923	6646.892	-6323.297	1	9174.163	-43.57082	-6.902842E-010	0.000606	7
	55	175	0.956633	7622.074	-6896.035	1	10278.68	-42.13707	-6.557119E-008	-1.63776E-005	7
