EXPLAIN
TAG	EISPOT
TITLE	LABEL	Potentiostatic EIS	Test Identifier
DATE	LABEL	8/23/2020	Date
TIME	LABEL	17:25:38	Time
NOTES	NOTES	1	Notes...
	
PSTAT	PSTAT	REF3000-16137	Potentiostat
VDC	POTEN	0.00000E+000	T	DC Voltage (V)
FREQINIT	QUANT	3.00000E+005	Initial Freq. (Hz)
FREQFINAL	QUANT	1.00000E+000	Final Freq. (Hz)
PTSPERDEC	QUANT	1.00000E+001	Points/decade
VAC	QUANT	5.00000E+001	AC Voltage (mV rms)
AREA	QUANT	1.00000E+000	Sample Area (cm^2)
SPEED	SELECTOR	2	Optimize for:
ZGUESS	QUANT	1.00000E+003	Estimated Z (ohms)
EOC	QUANT	0	Open Circuit (V)
SEQUENCER	TOGGLE	TRUE	Run as Sequence
PSTATMODEL	IQUANT	5	Pstat Model
PSTATSECTION	LABEL	REF3000-16137	Pstat Section
PSTATSERIALNO	LABEL	16137	Pstat Serial Number
CTRLMODE	IQUANT	1	Control Mode
IESTAB	IQUANT	0	I/E Stability
CASPEED	IQUANT	1	Control Amp Speed
CONVENTION	IQUANT	1	Current Convention
ICHRANGE	IQUANT	2	Ich Range
ICHRANGEMODE	TOGGLE	F	Ich Auto Range
ICHOFFSETENABLE	TOGGLE	T	Ich Offset Enable
ICHOFFSET	QUANT	0	Ich Offset (V)
ICHFILTER	IQUANT	3	Ich Filter
VCHRANGE	IQUANT	2	Vch Range
VCHRANGEMODE	TOGGLE	F	Vch Auto Range
VCHOFFSETENABLE	TOGGLE	T	Vch Offset Enable
VCHOFFSET	QUANT	0	Vch Offset (V)
VCHFILTER	IQUANT	3	Vch Filter
ACHRANGE	IQUANT	2	Ach Range
ACHOFFSETENABLE	TOGGLE	F	Ach Offset Enable
ACHOFFSET	QUANT	0	Ach Offset (V)
ACHFILTER	IQUANT	3	Ach Filter
IERANGELOWERLIMIT	IQUANT	2	I/E Range Lower Limit
IERANGEMODE	TOGGLE	F	I/E AutoRange
IERANGE	IQUANT	11	I/E Range
POSFEEDENABLE	TOGGLE	F	Positive Feedback IR Comp
POSFEEDRESISTANCE	QUANT	0	Positive Feedback Resistance (ohm)
ACHSELECT	IQUANT	0	Ach Select
CABLEID	IQUANT	13	Cable ID
DCCALDATE	LABEL	7/31/2020	DC Calibration Date
ACCALDATE	LABEL	7/31/2020	AC Calibration Date
THERMOSELECT	IQUANT	1	Thermo Select
FRAMEWORKVERSION	QUANT	6.33	Framework Version
INSTRUMENTVERSION	LABEL	3.50	Instrument Version
COMPLIANCEVOLTAGE	IQUANT	0	Compliance Voltage
ZCURVE	TABLE
	Pt	Time	Freq	Zreal	Zimag	Zsig	Zmod	Zphz	Idc	Vdc	IERange
	#	s	Hz	ohm	ohm	V	ohm	°	A	V	#
	0	17	300046.9	275.3779	-25.12108	1	276.5214	-5.212325	-2.789789E-005	-0.0137949	9
	1	31	238359.4	259.0755	-47.89435	1	263.4654	-10.47381	-0.0008655	0.0018173	10
	2	57	189328.1	266.6918	-25.15095	1	267.8752	-5.387468	-0.0005178	0.0057794	9
	3	64	150421.9	263.2734	-40.40662	1	266.3561	-8.725544	-0.0008008	0.0018246	10
	4	72	119484.4	268.5526	-39.56544	1	271.4515	-8.381006	-0.0001258	0.0026826	10
	5	79	94921.88	271.6153	-33.52061	1	273.6759	-7.035417	0.0002199	-0.0024038	9
	6	86	75421.88	273.6964	-43.37296	1	277.1117	-9.004844	5.940476E-005	-0.0005669	10
	7	93	59859.37	278.2893	-47.99799	1	282.3982	-9.78582	0.0003047	6.690544E-005	10
	8	101	47578.12	281.6783	-52.3634	1	286.5041	-10.53095	0.0001463	-0.0006347	10
	9	108	37828.12	286.0834	-58.8387	1	292.0714	-11.62195	0.0003022	-0.0001853	10
	10	114	30046.88	291.2762	-64.23436	1	298.2748	-12.43624	0.0002649	-0.0075205	9
	11	119	23859.38	296.6302	-73.39005	1	305.5742	-13.89663	-0.0002153	0.0095033	9
	12	124	18984.38	304.9895	-84.94259	1	316.5973	-15.56305	2.773634E-005	-0.0004925	9
	13	128	15046.87	310.5596	-99.1001	1	325.9879	-17.69797	-1.593685E-005	0.000157	9
	14	130	11953.13	318.7965	-115.2976	1	339.0056	-19.8833	-1.514606E-005	0.0008976	9
	15	133	9515.62	325.6889	-134.7681	1	352.4708	-22.47948	-2.502529E-005	0.0007161	9
	16	135	7546.875	331.9906	-159.0807	1	368.1364	-25.60246	2.134375E-005	-0.0001598	9
	17	137	5928.309	341.2728	-190.9555	1	391.0641	-29.22872	2.150137E-005	-0.0007988	9
	18	139	4733.456	347.7483	-227.3578	1	415.4762	-33.17666	2.251894E-006	0.0025396	8
	19	142	3796.875	355.2938	-270.9308	1	446.8078	-37.32749	1.289545E-005	-0.0022161	8
	20	144	2987.132	364.9084	-333.8278	1	494.5696	-42.4531	-1.147638E-005	0.0042621	8
	21	147	2390.625	375.4923	-405.0132	1	552.2954	-47.16606	9.973451E-006	-0.0007132	8
	22	149	1884.191	388.1261	-502.4484	1	634.8987	-52.31501	1.231896E-005	-0.0036505	8
	23	151	1516.544	405.2308	-610.2181	1	732.515	-56.41285	-1.106885E-005	0.0027821	8
	24	153	1193.986	426.0551	-756.8414	1	868.5228	-60.62317	1.223102E-005	-0.0027712	8
	25	156	946.5144	458.4077	-936.4645	1	1042.642	-63.91784	-1.139884E-005	0.0028864	8
	26	159	751.7689	496.502	-1156.084	1	1258.191	-66.75799	1.009653E-005	-0.0036433	8
	27	161	597.4265	548.0745	-1422.7	1	1524.618	-68.93155	-2.280435E-006	0.0040398	8
	28	164	477.4305	612.3482	-1745.739	1	1850.02	-70.67079	-1.09872E-007	0.0006567	8
	29	166	376.6741	704.3121	-2160.03	1	2271.956	-71.94062	-8.182798E-008	0.0006421	8
	30	168	298.2954	826.0228	-2658.477	1	2783.849	-72.73931	-9.576772E-008	0.000646	8
	31	171	237.7717	981.828	-3246.981	1	3392.178	-73.17564	-7.710241E-008	0.000649	8
	32	173	189.0121	1186.985	-3967.95	1	4141.686	-73.34581	-7.276368E-008	0.0006496	8
	33	176	150.2404	1469.871	-4846.37	1	5064.368	-73.12781	-6.466266E-008	0.0006158	7
	34	178	119.1737	1833.584	-5907.92	1	6185.916	-72.75773	-5.398271E-008	0.000623	7
	35	180	95.0169	2303.604	-7148.072	1	7510.095	-72.13747	-5.503383E-008	0.0006197	7
	36	183	75.60484	2950.073	-8628.074	1	9118.476	-71.12364	-5.688156E-008	0.0006172	7
	37	185	54.50582	4245.467	-11206.54	1	11983.76	-69.25138	-5.060639E-008	0.0006167	7
	38	188	45.95588	5190.917	-12759.68	1	13775.16	-67.86243	-5.652284E-008	0.0006192	7
	39	190	37.20238	6623.685	-14909.58	1	16314.68	-66.04648	-5.428134E-008	0.000618	7
	40	193	30.04808	8485.873	-17263.41	1	19236.3	-63.82345	-5.282036E-008	0.0006324	7
	41	195	23.91582	11008.35	-19885.38	1	22729.11	-61.03151	-5.133201E-008	0.000624	7
	42	197	18.60119	14414.92	-23035.62	1	27174.07	-57.96304	-5.612126E-008	0.0006198	7
	43	200	15.02404	17928.31	-25562.27	1	31222.65	-54.95578	-4.275593E-008	0.0006394	7
	44	202	12.01923	22198.62	-27742.36	1	35530.51	-51.33423	-5.774379E-008	0.0006755	7
	45	205	9.450605	27266.45	-30103.23	1	40616.05	-47.83082	-5.274127E-008	0.0006315	7
	46	207	7.512019	32563.62	-31197.54	1	45096.29	-43.77264	-4.737463E-008	0.0006991	6
	47	210	5.978954	37854.04	-31647.97	1	49340.88	-39.8974	-4.89081E-008	0.0006706	6
	48	214	4.734848	43227.33	-31810.71	1	53670.51	-36.34911	-4.091109E-008	0.0006974	6
	49	218	3.75601	48096.94	-30566.65	1	56988.03	-32.43684	-5.295815E-008	0.0006821	6
	50	223	3.004808	52035.34	-28636.17	1	59394.5	-28.82494	-5.523194E-008	0.0006984	6
	51	230	2.372217	55292.88	-26069.31	1	61130.29	-25.24279	-5.603738E-008	0.0007525	6
	52	237	1.878005	57200.84	-22782.91	1	61571.07	-21.71723	-6.259165E-008	0.0006527	6
	53	246	1.512097	58326.82	-20261.35	1	61745.77	-19.15601	-6.635494E-008	0.0006971	6
	54	257	1.201923	58986.48	-17774.94	1	61606.44	-16.76962	-6.739219E-008	0.0006957	6
	55	270	0.956633	60026.29	-15695.63	1	62044.41	-14.65358	-8.526364E-008	4.511397E-005	6
