EXPLAIN
TAG	EISPOT
TITLE	LABEL	Potentiostatic EIS	Test Identifier
DATE	LABEL	8/23/2020	Date
TIME	LABEL	17:40:59	Time
NOTES	NOTES	1	Notes...
	
PSTAT	PSTAT	REF3000-16137	Potentiostat
VDC	POTEN	0.00000E+000	T	DC Voltage (V)
FREQINIT	QUANT	3.00000E+005	Initial Freq. (Hz)
FREQFINAL	QUANT	1.00000E+000	Final Freq. (Hz)
PTSPERDEC	QUANT	1.00000E+001	Points/decade
VAC	QUANT	5.00000E+001	AC Voltage (mV rms)
AREA	QUANT	1.00000E+000	Sample Area (cm^2)
SPEED	SELECTOR	2	Optimize for:
ZGUESS	QUANT	1.00000E+003	Estimated Z (ohms)
EOC	QUANT	0	Open Circuit (V)
SEQUENCER	TOGGLE	TRUE	Run as Sequence
PSTATMODEL	IQUANT	5	Pstat Model
PSTATSECTION	LABEL	REF3000-16137	Pstat Section
PSTATSERIALNO	LABEL	16137	Pstat Serial Number
CTRLMODE	IQUANT	1	Control Mode
IESTAB	IQUANT	0	I/E Stability
CASPEED	IQUANT	1	Control Amp Speed
CONVENTION	IQUANT	1	Current Convention
ICHRANGE	IQUANT	2	Ich Range
ICHRANGEMODE	TOGGLE	F	Ich Auto Range
ICHOFFSETENABLE	TOGGLE	T	Ich Offset Enable
ICHOFFSET	QUANT	0	Ich Offset (V)
ICHFILTER	IQUANT	3	Ich Filter
VCHRANGE	IQUANT	2	Vch Range
VCHRANGEMODE	TOGGLE	F	Vch Auto Range
VCHOFFSETENABLE	TOGGLE	T	Vch Offset Enable
VCHOFFSET	QUANT	0	Vch Offset (V)
VCHFILTER	IQUANT	3	Vch Filter
ACHRANGE	IQUANT	2	Ach Range
ACHOFFSETENABLE	TOGGLE	F	Ach Offset Enable
ACHOFFSET	QUANT	0	Ach Offset (V)
ACHFILTER	IQUANT	3	Ach Filter
IERANGELOWERLIMIT	IQUANT	2	I/E Range Lower Limit
IERANGEMODE	TOGGLE	F	I/E AutoRange
IERANGE	IQUANT	11	I/E Range
POSFEEDENABLE	TOGGLE	F	Positive Feedback IR Comp
POSFEEDRESISTANCE	QUANT	0	Positive Feedback Resistance (ohm)
ACHSELECT	IQUANT	0	Ach Select
CABLEID	IQUANT	13	Cable ID
DCCALDATE	LABEL	7/31/2020	DC Calibration Date
ACCALDATE	LABEL	7/31/2020	AC Calibration Date
THERMOSELECT	IQUANT	1	Thermo Select
FRAMEWORKVERSION	QUANT	6.33	Framework Version
INSTRUMENTVERSION	LABEL	3.50	Instrument Version
COMPLIANCEVOLTAGE	IQUANT	0	Compliance Voltage
ZCURVE	TABLE
	Pt	Time	Freq	Zreal	Zimag	Zsig	Zmod	Zphz	Idc	Vdc	IERange
	#	s	Hz	ohm	ohm	V	ohm	°	A	V	#
	0	18	300046.9	264.4905	-23.84157	1	265.5629	-5.150807	-6.586179E-005	0.0010265	9
	1	22	238359.4	264.5376	-23.94562	1	265.6191	-5.172248	2.098811E-005	-0.0017259	9
	2	27	189328.1	265.7984	-29.16012	1	267.3931	-6.260749	-1.943341E-005	0.000529	10
	3	31	150421.9	268.099	-29.2692	1	269.692	-6.230482	2.426829E-005	0.0006633	10
	4	36	119484.4	269.79	-29.26276	1	271.3724	-6.190384	-9.047669E-005	0.0032506	9
	5	40	94921.88	272.3578	-31.96462	1	274.2271	-6.693761	-2.20434E-005	0.0005333	9
	6	43	75421.88	275.3964	-36.00134	1	277.7396	-7.447788	1.490984E-005	-0.0007344	9
	7	47	59859.37	278.1638	-41.49262	1	281.2414	-8.484035	2.417451E-005	-0.0002126	9
	8	49	47578.12	281.9649	-47.49238	1	285.9366	-9.5608	-2.092084E-005	0.0010032	9
	9	53	37828.12	286.3578	-54.54273	1	291.5059	-10.78399	6.432822E-006	-0.0005614	9
	10	56	30046.88	291.2101	-63.03922	1	297.9551	-12.21454	-2.023396E-005	0.0004446	9
	11	58	23859.38	296.8423	-72.79201	1	305.6371	-13.77825	2.546747E-005	-0.0007826	9
	12	61	18984.38	302.8935	-84.54657	1	314.4719	-15.596	2.51716E-005	-0.0006709	9
	13	64	15046.87	309.805	-98.6151	1	325.1216	-17.65697	-1.588391E-005	0.0001691	9
	14	66	11953.13	316.0752	-114.5032	1	336.1763	-19.91372	-2.493165E-005	0.0007254	9
	15	68	9515.62	323.3446	-134.4196	1	350.1719	-22.57345	3.226342E-006	0.0005652	9
	16	71	7546.875	331.217	-158.6528	1	367.2539	-25.5944	2.987501E-006	0.0004923	9
	17	73	5928.309	337.6264	-189.236	1	387.0424	-29.27017	-9.309256E-006	0.0018594	8
	18	75	4733.456	345.6866	-226.7171	1	413.4004	-33.25871	4.370392E-007	-0.0021152	8
	19	78	3796.875	353.8823	-272.04	1	446.3613	-37.55057	-1.090911E-005	0.0028046	8
	20	80	2987.132	362.6382	-333.6186	1	492.7553	-42.61332	-6.640417E-006	0.0004971	8
	21	82	2390.625	372.7899	-405.8842	1	551.1028	-47.43366	1.263595E-005	-0.0027509	8
	22	84	1884.191	383.9273	-502.3794	1	632.2857	-52.61229	-6.019462E-006	0.004835	8
	23	87	1516.544	401.5602	-609.3803	1	729.791	-56.61652	4.920068E-006	-0.0031838	8
	24	89	1193.986	423.3843	-761.3348	1	871.1401	-60.92122	6.524325E-006	0.0009303	8
	25	92	946.5144	456.9154	-940.6884	1	1045.785	-64.09302	4.855808E-006	-0.0032293	8
	26	94	751.7689	493.8375	-1162.605	1	1263.141	-66.98576	-6.905083E-006	0.0006083	8
	27	97	597.4265	546.6336	-1432.408	1	1533.167	-69.11221	1.268794E-005	-0.0028278	8
	28	99	477.4305	611.8251	-1752.745	1	1856.461	-70.75761	-1.111393E-007	0.0006618	8
	29	102	376.6741	705.4471	-2168.276	1	2280.148	-71.97774	-1.035363E-007	0.0006476	8
	30	104	298.2954	828.5956	-2668.278	1	2793.972	-72.74857	-1.173198E-007	0.0006546	8
	31	106	237.7717	986.921	-3257.948	1	3404.15	-73.14702	-1.169184E-007	0.0006605	8
	32	109	189.0121	1195.401	-3980.422	1	4156.049	-73.28394	-1.119265E-007	0.0006653	8
	33	111	150.2404	1480.713	-4860.161	1	5080.716	-73.05594	-7.716966E-008	0.0006177	7
	34	114	119.1737	1850.624	-5918.755	1	6201.329	-72.63704	-6.828798E-008	0.0006185	7
	35	116	95.0169	2328.523	-7161.85	1	7530.877	-71.98917	-6.659781E-008	0.0006158	7
	36	119	75.60484	2982.441	-8639.745	1	9140.03	-70.95531	-7.299702E-008	0.0006333	7
	37	121	54.50582	4299.703	-11205.83	1	12002.42	-69.00807	-6.254823E-008	0.000609	7
	38	124	45.95588	5241.577	-12761.89	1	13796.38	-67.67102	-6.554034E-008	0.000628	7
	39	126	37.20238	6701.157	-14880.21	1	16319.5	-65.75604	-6.7942E-008	0.0006406	7
	40	128	30.04808	8573.559	-17214.14	1	19231.03	-63.52425	-6.009537E-008	0.0006144	7
	41	131	23.91582	11081.28	-19799.98	1	22689.95	-60.76595	-6.513253E-008	0.0006408	7
	42	133	18.60119	14525.38	-22810.66	1	27042.8	-57.51182	-5.49845E-008	0.0006322	7
	43	135	15.02404	17997.44	-25354.96	1	31093.11	-54.63213	-6.748276E-008	0.0006365	7
	44	138	12.01923	22252.61	-27487.05	1	35365.47	-51.00751	-6.667302E-008	0.000629	7
	45	140	9.450605	27256.68	-29651.27	1	40275.61	-47.40949	-6.913876E-008	0.0006172	7
	46	143	7.512019	32451.68	-30857.65	1	44780.65	-43.55768	-6.195532E-008	0.0006788	6
	47	146	5.978954	37631.35	-31221.47	1	48896.82	-39.68135	-6.147909E-008	0.0007022	6
	48	150	4.734848	42797.36	-30880.94	1	52775.43	-35.81277	-6.319463E-008	0.0006749	6
	49	155	3.75601	47522.72	-29887.49	1	56139.74	-32.16618	-6.748529E-008	0.0006883	6
	50	161	3.004808	51525.95	-28332.16	1	58801.65	-28.80472	-6.739238E-008	0.0007147	6
	51	167	2.372217	54996.69	-26135.27	1	60890.79	-25.41778	-6.640802E-008	0.0007533	6
	52	175	1.878005	57007.39	-22984.43	1	61466.46	-21.95847	-7.317598E-008	0.0006626	6
	53	184	1.512097	58437.21	-20664.35	1	61983.24	-19.47442	-7.550499E-008	0.0007347	6
	54	194	1.201923	59402.83	-18280.87	1	62152.12	-17.10544	-7.523328E-008	0.000648	6
	55	207	0.956633	60759.39	-16279.01	1	62902.38	-14.99875	-9.687243E-008	4.844297E-005	6
