EXPLAIN
TAG	EISPOT
TITLE	LABEL	Potentiostatic EIS	Test Identifier
DATE	LABEL	8/23/2020	Date
TIME	LABEL	15:05:34	Time
NOTES	NOTES	1	Notes...
	
PSTAT	PSTAT	REF3000-16137	Potentiostat
VDC	POTEN	0.00000E+000	T	DC Voltage (V)
FREQINIT	QUANT	3.00000E+005	Initial Freq. (Hz)
FREQFINAL	QUANT	1.00000E+000	Final Freq. (Hz)
PTSPERDEC	QUANT	1.00000E+001	Points/decade
VAC	QUANT	5.00000E+001	AC Voltage (mV rms)
AREA	QUANT	1.00000E+000	Sample Area (cm^2)
SPEED	SELECTOR	2	Optimize for:
ZGUESS	QUANT	1.00000E+003	Estimated Z (ohms)
EOC	QUANT	0	Open Circuit (V)
SEQUENCER	TOGGLE	TRUE	Run as Sequence
PSTATMODEL	IQUANT	5	Pstat Model
PSTATSECTION	LABEL	REF3000-16137	Pstat Section
PSTATSERIALNO	LABEL	16137	Pstat Serial Number
CTRLMODE	IQUANT	1	Control Mode
IESTAB	IQUANT	0	I/E Stability
CASPEED	IQUANT	1	Control Amp Speed
CONVENTION	IQUANT	1	Current Convention
ICHRANGE	IQUANT	2	Ich Range
ICHRANGEMODE	TOGGLE	F	Ich Auto Range
ICHOFFSETENABLE	TOGGLE	T	Ich Offset Enable
ICHOFFSET	QUANT	0	Ich Offset (V)
ICHFILTER	IQUANT	3	Ich Filter
VCHRANGE	IQUANT	2	Vch Range
VCHRANGEMODE	TOGGLE	F	Vch Auto Range
VCHOFFSETENABLE	TOGGLE	T	Vch Offset Enable
VCHOFFSET	QUANT	0	Vch Offset (V)
VCHFILTER	IQUANT	3	Vch Filter
ACHRANGE	IQUANT	2	Ach Range
ACHOFFSETENABLE	TOGGLE	F	Ach Offset Enable
ACHOFFSET	QUANT	0	Ach Offset (V)
ACHFILTER	IQUANT	3	Ach Filter
IERANGELOWERLIMIT	IQUANT	2	I/E Range Lower Limit
IERANGEMODE	TOGGLE	F	I/E AutoRange
IERANGE	IQUANT	11	I/E Range
POSFEEDENABLE	TOGGLE	F	Positive Feedback IR Comp
POSFEEDRESISTANCE	QUANT	0	Positive Feedback Resistance (ohm)
ACHSELECT	IQUANT	0	Ach Select
CABLEID	IQUANT	13	Cable ID
DCCALDATE	LABEL	7/31/2020	DC Calibration Date
ACCALDATE	LABEL	7/31/2020	AC Calibration Date
THERMOSELECT	IQUANT	1	Thermo Select
FRAMEWORKVERSION	QUANT	6.33	Framework Version
INSTRUMENTVERSION	LABEL	3.50	Instrument Version
COMPLIANCEVOLTAGE	IQUANT	0	Compliance Voltage
ZCURVE	TABLE
	Pt	Time	Freq	Zreal	Zimag	Zsig	Zmod	Zphz	Idc	Vdc	IERange
	#	s	Hz	ohm	ohm	V	ohm	°	A	V	#
	0	15	300046.9	625.7518	-2515.127	1	2591.801	-76.02874	-0.0004936	0.0327737	9
	1	31	238359.4	480.5214	-3012.079	1	3050.168	-80.9359	-0.0006456	0.0080217	10
	2	47	189328.1	620.6108	-3812.896	1	3863.073	-80.75525	4.945282E-005	0.0151064	9
	3	57	150421.9	677.4968	-5202.652	1	5246.579	-82.58061	-0.000824	0.0293648	9
	4	67	119484.4	1261.708	-5740.388	1	5877.411	-77.60379	-0.0008685	0.0034915	10
	5	75	94921.88	1821.901	-7339.941	1	7562.675	-76.05992	-0.000262	0.0045839	9
	6	85	75421.88	2025.461	-8834.457	1	9063.671	-77.08706	0.0003019	-0.0074921	9
	7	95	59859.37	796.4666	-11287.87	1	11315.93	-85.96393	0.0001359	-0.0101982	9
	8	105	47578.12	7181.083	-13471.36	1	15265.83	-61.93958	0.000139	-0.0535334	8
	9	112	37828.12	6158.221	-15870.37	1	17023.29	-68.79213	-0.0002937	0.0094076	9
	10	122	30046.88	13697.43	-42940.82	1	45072.54	-72.30815	-0.0002915	0.0093576	9
	11	133	23859.38	9367.65	-18726.21	1	20938.57	-63.42382	-0.0002231	0.0112175	9
	12	141	18984.38	14472.52	-24776.8	1	28693.97	-59.71012	0.0002983	-0.0095894	9
	13	149	15046.87	15690.74	-31177.26	1	34903.02	-63.28503	4.647323E-005	-0.0083202	9
	14	159	11953.13	15845.74	-38695.09	1	41813.84	-67.73077	-0.0002876	0.009409	9
	15	168	9515.62	31530.01	-28881.95	1	42758.73	-42.49014	0.0002126	-0.0110338	9
	16	177	7546.875	45048.95	-54079.19	1	70384.42	-50.20508	-0.0001426	-0.0021215	9
	17	185	5928.309	36253.34	-28273.09	1	45974.69	-37.94979	-1.22025E-005	-0.0441027	8
	18	191	4733.456	51250.83	-27014.45	1	57934.69	-27.79383	-0.0001397	0.0512339	8
	19	198	3796.875	57994.19	-41334.29	1	71216.92	-35.47868	0.000268	-0.0107832	9
	20	207	2987.132	38702.16	-47701.25	1	61426.92	-50.94604	0.0003007	-0.0097344	9
	21	215	2390.625	17144.58	-39667.18	1	43213.68	-66.62549	4.298129E-005	0.0062227	9
	22	223	1884.191	42323.75	-44761.88	1	61602.96	-46.60369	-2.754689E-005	0.0556561	8
	23	231	1516.544	83403.68	9525.14	1	83945.83	6.515252	-2.894095E-005	0.0560369	8
	24	237	1193.986	93356.13	-37955.46	1	100776.9	-22.12501	-0.0001481	0.0271368	8
	25	244	946.5144	93521.41	-101987.5	1	138375.3	-47.47953	-0.0002194	0.0115327	9
	26	252	751.7689	55891.39	-30216.74	1	63536.59	-28.39713	-0.0000972	-0.0121286	8
	27	258	597.4265	35431.73	-42902.36	1	55641.89	-50.44775	8.143829E-005	-0.0579081	8
	28	264	477.4305	93719.22	-14302.75	1	94804.33	-8.677114	-2.374022E-006	0.00073	8
	29	270	376.6741	129543.3	-18330.34	1	130833.8	-8.053868	-7.676613E-007	0.0005957	7
	30	272	298.2954	137089.9	-5846.444	1	137214.5	-2.442001	-8.326591E-008	0.0006079	6
	31	275	237.7717	141350.2	-9086.625	1	141642	-3.678168	-8.294059E-008	0.0005308	6
	32	278	189.0121	140315.7	-11929.06	1	140821.8	-4.859368	-8.028346E-008	0.0005628	6
	33	281	150.2404	144224.4	-14677.38	1	144969.4	-5.81085	-8.41266E-008	0.0008092	6
	34	283	119.1737	150791.6	-21098.76	1	152260.5	-7.965115	-8.120013E-008	0.0006535	6
	35	286	95.0169	147770.8	-22411.13	1	149460.6	-8.62384	-8.312632E-008	0.0006876	6
	36	289	75.60484	152076	-26889.76	1	154435	-10.02727	-8.515612E-008	0.0007536	6
	37	292	54.50582	155475	-34295.67	1	159212.7	-12.43946	-8.249002E-008	0.0005279	6
	38	295	45.95588	155930.7	-38556.25	1	160626.8	-13.88868	-8.357468E-008	0.000699	6
	39	298	37.20238	163132.6	-46570.83	1	169649.9	-15.9329	-8.404965E-008	0.0007598	6
	40	300	30.04808	164422.3	-53216.29	1	172819.8	-17.93449	-8.315252E-008	0.0008056	6
	41	303	23.91582	169728.2	-64850.81	1	181695.6	-20.91116	-8.650957E-008	0.0008044	6
	42	306	18.60119	173240.2	-76813.83	1	189506	-23.91226	-8.120521E-008	0.0007719	6
	43	308	15.02404	179755.6	-94689.41	1	203170.2	-27.77881	-8.521144E-008	0.0005396	6
	44	311	12.01923	181503	-110050.8	1	212260.5	-31.22971	-8.340341E-008	0.000569	6
	45	313	9.450605	190260.6	-139267.2	1	235784.8	-36.20343	-8.578714E-008	0.0006092	6
	46	316	7.512019	188179.5	-157619.1	1	245469.6	-39.94952	-7.663852E-007	0.0005604	7
	47	320	5.978954	205540.8	-202981.5	1	288874.6	-44.64106	-8.477726E-008	0.0005328	6
	48	326	4.734848	210843	-242195.2	1	321112.6	-48.9588	-7.892389E-007	0.0007282	7
	49	332	3.75601	230638	-304728.4	1	382169.2	-52.87923	-8.405124E-008	0.0006077	6
	50	339	3.004808	247819.5	-372429.3	1	447345.7	-56.35966	-8.570787E-008	0.0007877	6
	51	345	2.372217	268050.2	-457607.1	1	530334.9	-59.63972	-8.549177E-008	0.0006377	6
	52	350	1.878005	296674.4	-562985.3	1	636371.1	-62.21227	-8.603694E-008	0.0006526	6
	53	354	1.512097	350481.8	-719113.5	1	799976.1	-64.01631	-8.787207E-009	0.0007337	5
	54	360	1.201923	392883.2	-868687.3	1	953402	-65.66408	-8.607852E-009	0.0006545	5
	55	366	0.956633	448343.4	-1063011	1	1153692	-67.13157	-8.439626E-009	4.825441E-005	5
