EXPLAIN
TAG	EISPOT
TITLE	LABEL	Potentiostatic EIS	Test Identifier
DATE	LABEL	8/23/2020	Date
TIME	LABEL	15:18:20	Time
NOTES	NOTES	1	Notes...
	
PSTAT	PSTAT	REF3000-16137	Potentiostat
VDC	POTEN	0.00000E+000	T	DC Voltage (V)
FREQINIT	QUANT	3.00000E+005	Initial Freq. (Hz)
FREQFINAL	QUANT	1.00000E+000	Final Freq. (Hz)
PTSPERDEC	QUANT	1.00000E+001	Points/decade
VAC	QUANT	5.00000E+001	AC Voltage (mV rms)
AREA	QUANT	1.00000E+000	Sample Area (cm^2)
SPEED	SELECTOR	2	Optimize for:
ZGUESS	QUANT	1.00000E+003	Estimated Z (ohms)
EOC	QUANT	0	Open Circuit (V)
SEQUENCER	TOGGLE	TRUE	Run as Sequence
PSTATMODEL	IQUANT	5	Pstat Model
PSTATSECTION	LABEL	REF3000-16137	Pstat Section
PSTATSERIALNO	LABEL	16137	Pstat Serial Number
CTRLMODE	IQUANT	1	Control Mode
IESTAB	IQUANT	0	I/E Stability
CASPEED	IQUANT	1	Control Amp Speed
CONVENTION	IQUANT	1	Current Convention
ICHRANGE	IQUANT	2	Ich Range
ICHRANGEMODE	TOGGLE	F	Ich Auto Range
ICHOFFSETENABLE	TOGGLE	T	Ich Offset Enable
ICHOFFSET	QUANT	0	Ich Offset (V)
ICHFILTER	IQUANT	3	Ich Filter
VCHRANGE	IQUANT	2	Vch Range
VCHRANGEMODE	TOGGLE	F	Vch Auto Range
VCHOFFSETENABLE	TOGGLE	T	Vch Offset Enable
VCHOFFSET	QUANT	0	Vch Offset (V)
VCHFILTER	IQUANT	3	Vch Filter
ACHRANGE	IQUANT	2	Ach Range
ACHOFFSETENABLE	TOGGLE	F	Ach Offset Enable
ACHOFFSET	QUANT	0	Ach Offset (V)
ACHFILTER	IQUANT	3	Ach Filter
IERANGELOWERLIMIT	IQUANT	2	I/E Range Lower Limit
IERANGEMODE	TOGGLE	F	I/E AutoRange
IERANGE	IQUANT	11	I/E Range
POSFEEDENABLE	TOGGLE	F	Positive Feedback IR Comp
POSFEEDRESISTANCE	QUANT	0	Positive Feedback Resistance (ohm)
ACHSELECT	IQUANT	0	Ach Select
CABLEID	IQUANT	13	Cable ID
DCCALDATE	LABEL	7/31/2020	DC Calibration Date
ACCALDATE	LABEL	7/31/2020	AC Calibration Date
THERMOSELECT	IQUANT	1	Thermo Select
FRAMEWORKVERSION	QUANT	6.33	Framework Version
INSTRUMENTVERSION	LABEL	3.50	Instrument Version
COMPLIANCEVOLTAGE	IQUANT	0	Compliance Voltage
ZCURVE	TABLE
	Pt	Time	Freq	Zreal	Zimag	Zsig	Zmod	Zphz	Idc	Vdc	IERange
	#	s	Hz	ohm	ohm	V	ohm	°	A	V	#
	0	15	300046.9	379.3206	-2625.948	1	2653.203	-81.78043	-0.0008548	0.0302353	9
	1	31	238359.4	972.133	-2974.799	1	3129.612	-71.90314	0.0007716	-0.0287617	9
	2	48	189328.1	269.4476	-3718.524	1	3728.274	-85.85554	-0.0006666	0.0080793	10
	3	65	150421.9	17.90738	-4934.445	1	4934.478	-89.79207	0.0008384	-0.0011142	10
	4	73	119484.4	763.6249	-6596.207	1	6640.261	-83.39642	0.0007101	-0.0140493	9
	5	82	94921.88	849.0745	-7607.99	1	7655.223	-83.63197	-0.0002667	0.0045494	9
	6	93	75421.88	1069.399	-9608	1	9667.33	-83.64895	4.257018E-005	0.0061951	9
	7	103	59859.37	2121.385	-12467.39	1	12646.58	-80.34334	0.0001422	0.0026001	9
	8	113	47578.12	1564.454	-15111.81	1	15192.58	-84.08949	0.0002699	-0.0109736	9
	9	123	37828.12	2624.915	-17559.01	1	17754.13	-81.49776	-0.0002878	0.0070351	9
	10	134	30046.88	4927.101	-23552.63	1	24062.48	-78.18439	0.0002139	-0.0110517	9
	11	144	23859.38	8913.157	-43157.9	1	44068.68	-78.33109	0.0001211	-0.0053327	8
	12	151	18984.38	11522.97	-33352.07	1	35286.54	-70.94024	0.0001332	0.0028742	9
	13	160	15046.87	10648.29	-56896.93	1	57884.77	-79.39969	0.0001534	-0.0541185	8
	14	166	11953.13	13002.6	-52060.02	1	53659.24	-75.9766	6.031141E-005	0.0337686	8
	15	173	9515.62	23617.42	-66048.34	1	70143.9	-70.32408	0.00013	-0.058986	8
	16	179	7546.875	1261.736	-74414.22	1	74424.91	-89.02861	-0.0002191	0.0014884	9
	17	191	5928.309	-22828.29	-78895.53	1	82131.82	-106.1377	0.0003058	-0.0076512	9
	18	199	4733.456	130549.8	103215.7	1	166423.3	38.33072	-5.934784E-005	0.0090913	9
	19	208	3796.875	148615.4	-45981.87	1	155566.3	-17.19216	-0.0001426	-0.0021119	9
	20	217	2987.132	78605.94	-69938.46	1	105215.4	-41.66061	0.0003059	-0.0076447	9
	21	225	2390.625	15932.31	-36658.35	1	39970.9	-66.50946	-0.0002711	0.0108559	9
	22	235	1884.191	-72178.06	19721.7	1	74823.91	164.7177	0.000216	-0.0111642	9
	23	243	1516.544	47811.74	-89977.75	1	101891.9	-62.01503	-0.0002198	0.0015768	9
	24	252	1193.986	-91842.75	-89337.3	1	128125.9	-135.7923	0.0002705	-0.0109338	9
	25	261	946.5144	-16977.83	-6678.192	1	18244.04	-158.5279	8.749444E-005	-0.0578455	8
	26	269	751.7689	99151.4	46132.65	1	109358.2	24.95137	-0.000148	-0.0021266	9
	27	275	597.4265	-55952.38	48368.57	1	73960.72	139.1579	-6.680645E-006	-0.0438385	8
	28	281	477.4305	523904.3	-217275.1	1	567172.1	-22.5249	-7.859509E-007	0.0007163	7
	29	286	376.6741	600748.7	-111366.8	1	610984.1	-10.50227	-8.338415E-008	0.0006302	6
	30	290	298.2954	972312	359197.5	1	1036539	20.27555	-8.686275E-009	0.0007713	5
	31	293	237.7717	889550.3	298530.2	1	938307	18.55158	-7.804819E-009	0.0005549	5
	32	296	189.0121	860246.4	243474.4	1	894037.9	15.80303	-9.151538E-009	0.0007397	5
	33	298	150.2404	812076.8	200240.6	1	836400	13.85158	-8.582493E-009	0.0007736	5
	34	301	119.1737	877105.2	28663.41	1	877573.4	1.871735	-7.622031E-009	0.00064	5
	35	304	95.0169	822190.4	106981.6	1	829121.3	7.41355	-9.026691E-009	0.000635	5
	36	307	75.60484	798876.1	67774.13	1	801745.8	4.849182	-6.785407E-009	0.0005159	5
	37	310	54.50582	804722.3	20300.13	1	804978.3	1.445052	-7.388209E-009	0.0005119	5
	38	313	45.95588	836394.9	-13580.04	1	836505.2	-0.9301956	-8.715059E-009	0.0008017	5
	39	315	37.20238	816130.1	-28713.27	1	816635	-2.014962	-7.747795E-009	0.0006709	5
	40	318	30.04808	835329.7	-52638.21	1	836986.6	-3.60572	-8.100862E-009	0.0007661	5
	41	321	23.91582	866474.2	-80640.52	1	870218.6	-5.317054	-9.136044E-009	0.0006816	5
	42	324	18.60119	871542.1	-92983.65	1	876488.3	-6.089773	-7.873341E-009	0.0007942	5
	43	326	15.02404	891763.5	-137923.7	1	902366.4	-8.791933	-8.330492E-009	0.0005606	5
	44	329	12.01923	903273.4	-169818.4	1	919098.1	-10.64751	-8.568031E-009	0.0005539	5
	45	331	9.450605	939297.8	-204452.4	1	961291	-12.27975	-8.103378E-009	0.0005867	5
	46	334	7.512019	938738.9	-262597.6	1	974776	-15.62814	-7.444789E-009	0.0008187	5
	47	337	5.978954	968129	-323962.2	1	1020894	-18.50164	-8.333932E-009	0.0007927	5
	48	341	4.734848	990388	-391484.3	1	1064955	-21.56808	-7.932941E-009	0.0006836	5
	49	346	3.75601	1024875	-472999.3	1	1128759	-24.77422	-8.235781E-009	0.0008172	5
	50	352	3.004808	1059375	-578397.6	1	1206987	-28.63367	-8.407377E-009	0.0008172	5
	51	358	2.372217	1108211	-704976.4	1	1313440	-32.46203	-8.095557E-009	0.0006533	5
	52	362	1.878005	1144601	-856570.3	1	1429623	-36.80962	-8.65347E-009	0.0006383	5
	53	367	1.512097	1201220	-1039640	1	1588641	-40.87575	-8.548725E-009	0.0007506	5
	54	372	1.201923	1233616	-1230715	1	1742546	-44.93253	-8.457547E-009	0.0006487	5
	55	378	0.956633	1270071	-1477210	1	1948135	-49.31181	-8.573591E-009	1.08309E-005	5
