EXPLAIN
TAG	EISPOT
TITLE	LABEL	Potentiostatic EIS	Test Identifier
DATE	LABEL	8/23/2020	Date
TIME	LABEL	16:41:30	Time
NOTES	NOTES	1	Notes...
	
PSTAT	PSTAT	REF3000-16137	Potentiostat
VDC	POTEN	0.00000E+000	T	DC Voltage (V)
FREQINIT	QUANT	3.00000E+005	Initial Freq. (Hz)
FREQFINAL	QUANT	1.00000E+000	Final Freq. (Hz)
PTSPERDEC	QUANT	1.00000E+001	Points/decade
VAC	QUANT	5.00000E+001	AC Voltage (mV rms)
AREA	QUANT	1.00000E+000	Sample Area (cm^2)
SPEED	SELECTOR	2	Optimize for:
ZGUESS	QUANT	1.00000E+003	Estimated Z (ohms)
EOC	QUANT	0	Open Circuit (V)
SEQUENCER	TOGGLE	TRUE	Run as Sequence
PSTATMODEL	IQUANT	5	Pstat Model
PSTATSECTION	LABEL	REF3000-16137	Pstat Section
PSTATSERIALNO	LABEL	16137	Pstat Serial Number
CTRLMODE	IQUANT	1	Control Mode
IESTAB	IQUANT	0	I/E Stability
CASPEED	IQUANT	1	Control Amp Speed
CONVENTION	IQUANT	1	Current Convention
ICHRANGE	IQUANT	2	Ich Range
ICHRANGEMODE	TOGGLE	F	Ich Auto Range
ICHOFFSETENABLE	TOGGLE	T	Ich Offset Enable
ICHOFFSET	QUANT	0	Ich Offset (V)
ICHFILTER	IQUANT	3	Ich Filter
VCHRANGE	IQUANT	2	Vch Range
VCHRANGEMODE	TOGGLE	F	Vch Auto Range
VCHOFFSETENABLE	TOGGLE	T	Vch Offset Enable
VCHOFFSET	QUANT	0	Vch Offset (V)
VCHFILTER	IQUANT	3	Vch Filter
ACHRANGE	IQUANT	2	Ach Range
ACHOFFSETENABLE	TOGGLE	F	Ach Offset Enable
ACHOFFSET	QUANT	0	Ach Offset (V)
ACHFILTER	IQUANT	3	Ach Filter
IERANGELOWERLIMIT	IQUANT	2	I/E Range Lower Limit
IERANGEMODE	TOGGLE	F	I/E AutoRange
IERANGE	IQUANT	11	I/E Range
POSFEEDENABLE	TOGGLE	F	Positive Feedback IR Comp
POSFEEDRESISTANCE	QUANT	0	Positive Feedback Resistance (ohm)
ACHSELECT	IQUANT	0	Ach Select
CABLEID	IQUANT	13	Cable ID
DCCALDATE	LABEL	7/31/2020	DC Calibration Date
ACCALDATE	LABEL	7/31/2020	AC Calibration Date
THERMOSELECT	IQUANT	1	Thermo Select
FRAMEWORKVERSION	QUANT	6.33	Framework Version
INSTRUMENTVERSION	LABEL	3.50	Instrument Version
COMPLIANCEVOLTAGE	IQUANT	0	Compliance Voltage
ZCURVE	TABLE
	Pt	Time	Freq	Zreal	Zimag	Zsig	Zmod	Zphz	Idc	Vdc	IERange
	#	s	Hz	ohm	ohm	V	ohm	°	A	V	#
	0	19	300046.9	1009.285	-2083.868	1	2315.418	-64.1576	6.755081E-005	0.015052	9
	1	33	238359.4	1232.757	-2297.738	1	2607.545	-61.78605	-0.0008238	0.0230696	9
	2	47	189328.1	1515.57	-2530.238	1	2949.417	-59.07911	-0.0005908	0.0077054	10
	3	55	150421.9	1673.748	-2711.834	1	3186.766	-58.31705	-0.0006969	0.0007677	10
	4	64	119484.4	2278.711	-3059.87	1	3815.145	-53.32463	0.000823	-0.0010689	10
	5	74	94921.88	2903.761	-3126.176	1	4266.708	-47.1124	0.0001288	-0.0099919	9
	6	84	75421.88	4114.073	-2384.225	1	4755.011	-30.09354	0.0001263	-0.0065056	8
	7	91	59859.37	3969.99	-2923.112	1	4930.051	-36.36429	0.0002989	-0.0077381	9
	8	101	47578.12	4461.686	-2764.044	1	5248.483	-31.77849	0.0002303	-0.0018749	9
	9	111	37828.12	4734.944	-2418.147	1	5316.684	-27.0535	-0.0002143	0.0111734	9
	10	120	30046.88	4957.628	-2108.91	1	5387.539	-23.04427	-0.0002658	0.0048635	9
	11	130	23859.38	5777.004	-1695.467	1	6020.663	-16.3562	-0.0001011	0.0547072	8
	12	137	18984.38	5428.069	-1379.127	1	5600.529	-14.25568	0.0001434	-0.0259171	8
	13	143	15046.87	5142.315	-1352.506	1	5317.206	-14.73591	0.0002814	-0.0056083	9
	14	151	11953.13	5794.875	-1201.346	1	5918.092	-11.71219	-1.569607E-005	0.0535113	8
	15	157	9515.62	5384.903	-1079.609	1	5492.062	-11.33682	-0.0001489	0.0403246	8
	16	162	7546.875	5179.746	-1098.819	1	5295.014	-11.97703	-0.0002686	0.0047651	9
	17	170	5928.309	4934.23	-804.2484	1	4999.345	-9.257442	0.0001458	0.0023619	9
	18	177	4733.456	5118.122	-937.5442	1	5203.284	-10.38043	0.0001509	-0.0414786	8
	19	183	3796.875	4780.96	-886.7954	1	4862.508	-10.50807	0.0002998	-0.009735	9
	20	191	2987.132	4775.286	-861.4138	1	4852.359	-10.22562	4.193309E-005	-0.0081845	9
	21	197	2390.625	4783.829	-658.478	1	4828.935	-7.837323	0.0001461	0.002378	9
	22	204	1884.191	4864.417	-882.251	1	4943.775	-10.27989	9.200584E-005	0.0128332	8
	23	209	1516.544	4743.639	-840.451	1	4817.517	-10.04708	8.56104E-005	-0.0555704	8
	24	215	1193.986	4745.534	-894.8196	1	4829.161	-10.67834	5.421737E-005	0.0301847	8
	25	220	946.5144	4708.816	-1727.084	1	5015.553	-20.14186	-0.0002904	0.0072108	9
	26	225	751.7689	4198.805	-1052.828	1	4328.788	-14.07639	-0.0002181	0.0113633	9
	27	230	597.4265	4645.529	-861.0875	1	4724.66	-10.50107	4.720148E-005	0.0059464	9
	28	235	477.4305	4534.934	-1570.018	1	4799.019	-19.09612	-4.71118E-007	0.0006259	8
	29	238	376.6741	4612.873	-1863.279	1	4974.978	-21.99527	-1.268557E-007	0.0005847	7
	30	241	298.2954	4642.045	-2206.772	1	5139.886	-25.42585	-1.357424E-007	0.0006399	7
	31	243	237.7717	4672.539	-2626.615	1	5360.199	-29.34203	-1.349709E-007	0.0006102	7
	32	245	189.0121	4717.095	-3164.308	1	5680.126	-33.85438	-1.408688E-007	0.0006304	7
	33	248	150.2404	4788.847	-3843.451	1	6140.454	-38.74997	-1.314967E-007	0.0006206	7
	34	250	119.1737	4901.972	-4705.21	1	6794.728	-43.82671	-1.371675E-007	0.000644	7
	35	253	95.0169	5090.69	-5732.82	1	7666.834	-48.39523	-1.386892E-007	0.0006427	7
	36	255	75.60484	5382.115	-7012.874	1	8840.11	-52.49513	-1.453255E-007	0.0006652	7
	37	258	54.50582	6112.574	-9332.161	1	11155.84	-56.77517	-1.462799E-007	0.0006587	7
	38	260	45.95588	6601.912	-10860.46	1	12709.63	-58.7052	-1.526663E-007	0.0006636	7
	39	262	37.20238	7526.905	-12938.8	1	14968.86	-59.8121	-1.446929E-007	0.0005915	7
	40	265	30.04808	8819.283	-15294.58	1	17655.14	-60.03105	-1.534244E-007	0.0006308	7
	41	267	23.91582	10725.77	-18108.99	1	21047.03	-59.36218	-1.574313E-007	0.0006345	7
	42	270	18.60119	13545.6	-21437.45	1	25358.38	-57.71259	-1.624729E-007	0.0006123	7
	43	272	15.02404	16727.26	-24186.84	1	29407.56	-55.33284	-1.623666E-007	0.0006299	7
	44	274	12.01923	20719.38	-26836.02	1	33903.76	-52.32922	-1.760427E-007	0.0006271	7
	45	277	9.450605	25970.49	-28082.77	1	38250.6	-47.23785	-1.891201E-007	0.0006397	7
	46	280	7.512019	31017.74	-27923.89	1	41735.4	-41.9953	-1.991538E-007	0.0007001	7
	47	283	5.978954	35687.94	-26676.55	1	44556.34	-36.77792	-1.260129E-007	0.0007451	6
	48	287	4.734848	41682.64	-23499.98	1	47850.72	-29.41358	-1.895677E-007	0.0006552	6
	49	292	3.75601	47223.18	-21988.84	1	52091.63	-24.96841	-2.012233E-007	0.000641	6
	50	297	3.004808	49165.92	-19587.04	1	52923.91	-21.72167	-2.092711E-007	0.0007498	6
	51	304	2.372217	50291.73	-17355.53	1	53202.19	-19.0394	-2.17345E-007	0.0006241	6
	52	311	1.878005	50520.34	-14930.82	1	52680.49	-16.46456	-2.223394E-007	0.0006895	6
	53	320	1.512097	51272.38	-13639.96	1	53055.68	-14.89732	-2.144775E-007	0.0006666	6
	54	331	1.201923	51524.09	-12320.91	1	52976.75	-13.44855	-2.180817E-007	0.0007118	6
	55	344	0.956633	51801.02	-11101.33	1	52977.21	-12.09594	-2.352259E-007	4.553475E-005	6
