EXPLAIN
TAG	EISPOT
TITLE	LABEL	Potentiostatic EIS	Test Identifier
DATE	LABEL	8/23/2020	Date
TIME	LABEL	14:59:21	Time
NOTES	NOTES	1	Notes...
	
PSTAT	PSTAT	REF3000-16137	Potentiostat
VDC	POTEN	0.00000E+000	T	DC Voltage (V)
FREQINIT	QUANT	3.00000E+005	Initial Freq. (Hz)
FREQFINAL	QUANT	1.00000E+000	Final Freq. (Hz)
PTSPERDEC	QUANT	1.00000E+001	Points/decade
VAC	QUANT	5.00000E+001	AC Voltage (mV rms)
AREA	QUANT	1.00000E+000	Sample Area (cm^2)
SPEED	SELECTOR	2	Optimize for:
ZGUESS	QUANT	1.00000E+003	Estimated Z (ohms)
EOC	QUANT	0	Open Circuit (V)
SEQUENCER	TOGGLE	TRUE	Run as Sequence
PSTATMODEL	IQUANT	5	Pstat Model
PSTATSECTION	LABEL	REF3000-16137	Pstat Section
PSTATSERIALNO	LABEL	16137	Pstat Serial Number
CTRLMODE	IQUANT	1	Control Mode
IESTAB	IQUANT	0	I/E Stability
CASPEED	IQUANT	1	Control Amp Speed
CONVENTION	IQUANT	1	Current Convention
ICHRANGE	IQUANT	2	Ich Range
ICHRANGEMODE	TOGGLE	F	Ich Auto Range
ICHOFFSETENABLE	TOGGLE	T	Ich Offset Enable
ICHOFFSET	QUANT	0	Ich Offset (V)
ICHFILTER	IQUANT	3	Ich Filter
VCHRANGE	IQUANT	2	Vch Range
VCHRANGEMODE	TOGGLE	F	Vch Auto Range
VCHOFFSETENABLE	TOGGLE	T	Vch Offset Enable
VCHOFFSET	QUANT	0	Vch Offset (V)
VCHFILTER	IQUANT	3	Vch Filter
ACHRANGE	IQUANT	2	Ach Range
ACHOFFSETENABLE	TOGGLE	F	Ach Offset Enable
ACHOFFSET	QUANT	0	Ach Offset (V)
ACHFILTER	IQUANT	3	Ach Filter
IERANGELOWERLIMIT	IQUANT	2	I/E Range Lower Limit
IERANGEMODE	TOGGLE	F	I/E AutoRange
IERANGE	IQUANT	11	I/E Range
POSFEEDENABLE	TOGGLE	F	Positive Feedback IR Comp
POSFEEDRESISTANCE	QUANT	0	Positive Feedback Resistance (ohm)
ACHSELECT	IQUANT	0	Ach Select
CABLEID	IQUANT	13	Cable ID
DCCALDATE	LABEL	7/31/2020	DC Calibration Date
ACCALDATE	LABEL	7/31/2020	AC Calibration Date
THERMOSELECT	IQUANT	1	Thermo Select
FRAMEWORKVERSION	QUANT	6.33	Framework Version
INSTRUMENTVERSION	LABEL	3.50	Instrument Version
COMPLIANCEVOLTAGE	IQUANT	0	Compliance Voltage
ZCURVE	TABLE
	Pt	Time	Freq	Zreal	Zimag	Zsig	Zmod	Zphz	Idc	Vdc	IERange
	#	s	Hz	ohm	ohm	V	ohm	°	A	V	#
	0	15	300046.9	330.5474	-2315.025	1	2338.504	-81.87403	-0.0006291	0.0082846	10
	1	30	238359.4	770.2126	-3242.678	1	3332.895	-76.6385	-0.0008232	0.023629	9
	2	45	189328.1	984.855	-3747.943	1	3875.179	-75.27711	0.0008211	-0.0240387	9
	3	55	150421.9	1025.991	-4758.215	1	4867.573	-77.83188	-0.000725	0.000791	10
	4	65	119484.4	1514.925	-4963.867	1	5189.892	-73.02831	-0.0001485	-0.0126425	9
	5	74	94921.88	5413.265	-5600.052	1	7788.711	-45.97165	-0.0001017	0.0571416	8
	6	82	75421.88	4620.003	-7496.639	1	8805.908	-58.35544	0.0001255	-0.0593523	8
	7	90	59859.37	5174.42	-9730.43	1	11020.7	-61.99697	0.0002945	-0.0055286	9
	8	101	47578.12	5895.391	-11048.56	1	12523.04	-61.91611	0.0003086	-0.0078936	9
	9	111	37828.12	7117.498	-12296.66	1	14207.98	-59.93708	0.0002109	-0.011114	9
	10	122	30046.88	9520.25	-13693.33	1	16677.6	-55.19117	-0.0001483	-0.0020215	9
	11	132	23859.38	14740.75	-15673.15	1	21515.98	-46.75598	-0.0001505	0.0298213	8
	12	138	18984.38	15681.04	-15396.65	1	21976.17	-44.4757	0.0001452	0.002535	9
	13	147	15046.87	23062	-18572.08	1	29610.44	-38.84486	0.0001453	-0.0421871	8
	14	154	11953.13	17484.78	-16449.97	1	24006.64	-43.25336	0.0002685	-0.0109358	9
	15	163	9515.62	24819.71	-19438.43	1	31525.71	-38.06752	-0.0002713	0.0047995	9
	16	172	7546.875	34174.2	-17694.89	1	38483.57	-27.37444	-0.0002251	0.0017297	9
	17	180	5928.309	24207.73	-16156.88	1	29104.28	-33.7202	4.477541E-005	-0.0084063	9
	18	189	4733.456	37718.84	-7390.853	1	38436.12	-11.08641	0.0001459	-0.0546586	8
	19	195	3796.875	28702.85	-15773.43	1	32751.4	-28.79066	-0.0001473	0.0108356	9
	20	204	2987.132	32453.45	-695.7812	1	32460.91	-1.228197	-0.0002983	0.0075129	9
	21	213	2390.625	49257.16	-34446.54	1	60106.84	-34.96588	-0.0002265	0.0018041	9
	22	221	1884.191	32243.33	-2492.979	1	32339.56	-4.421179	-0.0001474	0.0271698	8
	23	229	1516.544	46607.32	-13477.16	1	48516.76	-16.12797	0.0000988	0.0153234	8
	24	238	1193.986	69176.91	-4316.664	1	69311.46	-3.570647	-0.0001471	0.0268231	8
	25	246	946.5144	-17877.02	-27233.22	1	32576.62	-123.2826	4.213306E-005	-0.0525306	8
	26	252	751.7689	37743.02	-13498.91	1	40084.37	-19.67975	0.0001482	0.0024768	9
	27	258	597.4265	33718.64	-582.8857	1	33723.68	-0.990359	0.0001493	0.0022393	9
	28	266	477.4305	52894.14	-7178.826	1	53379.07	-7.728993	-2.180661E-006	0.0005632	8
	29	272	376.6741	74809.76	-10412.19	1	75530.88	-7.923653	-7.851161E-007	0.0007286	7
	30	275	298.2954	77262.18	-3712.149	1	77351.3	-2.750725	-7.444439E-008	0.0006018	6
	31	277	237.7717	79056.91	-6060.299	1	79288.86	-4.383574	-7.73645E-008	0.0005445	6
	32	280	189.0121	79791.67	-8701.131	1	80264.69	-6.223405	-7.509697E-008	0.0005607	6
	33	282	150.2404	81812.23	-11376.04	1	82599.36	-7.916253	-7.972481E-008	0.0006993	6
	34	285	119.1737	83693.45	-13528.33	1	84779.77	-9.181956	-7.613269E-008	0.000753	6
	35	288	95.0169	84698.84	-17482.48	1	86484.27	-11.6625	-7.928762E-008	0.0006325	6
	36	290	75.60484	85125.29	-20816.34	1	87633.52	-13.74131	-7.67045E-008	0.0005629	6
	37	293	54.50582	89202.3	-27021.3	1	93205.16	-16.85269	-8.060159E-008	0.0005374	6
	38	296	45.95588	89066.76	-30890.23	1	94271.38	-19.12763	-7.606447E-008	0.000534	6
	39	298	37.20238	93356.18	-37837.57	1	100732.6	-22.06288	-8.259026E-008	0.000823	6
	40	301	30.04808	94660.47	-43477.18	1	104167.5	-24.66913	-8.029829E-008	0.0007759	6
	41	304	23.91582	97002.6	-53411.22	1	110735.1	-28.83791	-8.019869E-008	0.0005242	6
	42	307	18.60119	101673.8	-66354.5	1	121410.4	-33.12934	-8.429483E-008	0.0008121	6
	43	309	15.02404	104560.6	-79720.05	1	131484.6	-37.32296	-8.247834E-008	0.0005593	6
	44	311	12.01923	107302.7	-95563.2	1	143687.8	-41.68807	-8.010399E-008	0.0005567	6
	45	314	9.450605	114126.2	-119411.9	1	165178.6	-46.29655	-8.388169E-008	0.0007775	6
	46	317	7.512019	120196.7	-146114.1	1	189199.8	-50.55853	-8.332409E-008	0.0005138	6
	47	320	5.978954	126860.1	-177240.9	1	217962.9	-54.40683	-8.256176E-008	0.0005889	6
	48	324	4.734848	136892.5	-219170.8	1	258409.4	-58.01141	-8.478032E-008	0.0007685	6
	49	328	3.75601	144846.7	-260240.7	1	297835.1	-60.90024	-7.690478E-007	0.0007473	7
	50	335	3.004808	166325.3	-326906.2	1	366785.8	-63.03364	-8.495643E-008	0.0006375	6
	51	343	2.372217	188939.1	-401496.6	1	443731.3	-64.79893	-8.536683E-008	0.0006784	6
	52	347	1.878005	217513.5	-490914.4	1	536944.2	-66.10291	-8.485071E-008	0.0006626	6
	53	352	1.512097	251141.2	-590320.7	1	641521.9	-66.95356	-8.502163E-008	0.0005726	6
	54	357	1.201923	319554.6	-799295.6	1	860806.9	-68.2087	-8.512739E-009	0.000658	5
	55	363	0.956633	379352.2	-962683	1	1034730	-68.49272	-8.192935E-009	8.768555E-006	5
