EXPLAIN
TAG	EISPOT
TITLE	LABEL	Potentiostatic EIS	Test Identifier
DATE	LABEL	8/23/2020	Date
TIME	LABEL	14:53:16	Time
NOTES	NOTES	1	Notes...
	
PSTAT	PSTAT	REF3000-16137	Potentiostat
VDC	POTEN	0.00000E+000	T	DC Voltage (V)
FREQINIT	QUANT	3.00000E+005	Initial Freq. (Hz)
FREQFINAL	QUANT	1.00000E+000	Final Freq. (Hz)
PTSPERDEC	QUANT	1.00000E+001	Points/decade
VAC	QUANT	5.00000E+001	AC Voltage (mV rms)
AREA	QUANT	1.00000E+000	Sample Area (cm^2)
SPEED	SELECTOR	2	Optimize for:
ZGUESS	QUANT	1.00000E+003	Estimated Z (ohms)
EOC	QUANT	0	Open Circuit (V)
SEQUENCER	TOGGLE	TRUE	Run as Sequence
PSTATMODEL	IQUANT	5	Pstat Model
PSTATSECTION	LABEL	REF3000-16137	Pstat Section
PSTATSERIALNO	LABEL	16137	Pstat Serial Number
CTRLMODE	IQUANT	1	Control Mode
IESTAB	IQUANT	0	I/E Stability
CASPEED	IQUANT	1	Control Amp Speed
CONVENTION	IQUANT	1	Current Convention
ICHRANGE	IQUANT	2	Ich Range
ICHRANGEMODE	TOGGLE	F	Ich Auto Range
ICHOFFSETENABLE	TOGGLE	T	Ich Offset Enable
ICHOFFSET	QUANT	0	Ich Offset (V)
ICHFILTER	IQUANT	3	Ich Filter
VCHRANGE	IQUANT	2	Vch Range
VCHRANGEMODE	TOGGLE	F	Vch Auto Range
VCHOFFSETENABLE	TOGGLE	T	Vch Offset Enable
VCHOFFSET	QUANT	0	Vch Offset (V)
VCHFILTER	IQUANT	3	Vch Filter
ACHRANGE	IQUANT	2	Ach Range
ACHOFFSETENABLE	TOGGLE	F	Ach Offset Enable
ACHOFFSET	QUANT	0	Ach Offset (V)
ACHFILTER	IQUANT	3	Ach Filter
IERANGELOWERLIMIT	IQUANT	2	I/E Range Lower Limit
IERANGEMODE	TOGGLE	F	I/E AutoRange
IERANGE	IQUANT	11	I/E Range
POSFEEDENABLE	TOGGLE	F	Positive Feedback IR Comp
POSFEEDRESISTANCE	QUANT	0	Positive Feedback Resistance (ohm)
ACHSELECT	IQUANT	0	Ach Select
CABLEID	IQUANT	13	Cable ID
DCCALDATE	LABEL	7/31/2020	DC Calibration Date
ACCALDATE	LABEL	7/31/2020	AC Calibration Date
THERMOSELECT	IQUANT	1	Thermo Select
FRAMEWORKVERSION	QUANT	6.33	Framework Version
INSTRUMENTVERSION	LABEL	3.50	Instrument Version
COMPLIANCEVOLTAGE	IQUANT	0	Compliance Voltage
ZCURVE	TABLE
	Pt	Time	Freq	Zreal	Zimag	Zsig	Zmod	Zphz	Idc	Vdc	IERange
	#	s	Hz	ohm	ohm	V	ohm	°	A	V	#
	0	16	300046.9	432.7854	-2328.185	1	2368.069	-79.46951	0.0001215	-0.0021642	10
	1	32	238359.4	522.4053	-2859.703	1	2907.027	-79.64746	-7.106891E-005	-0.0019386	10
	2	47	189328.1	961.986	-3699.374	1	3822.405	-75.42363	-0.0007979	0.0034016	10
	3	56	150421.9	979.632	-4376.516	1	4484.815	-77.38299	-0.0001638	0.0028057	10
	4	64	119484.4	1988.336	-4790.603	1	5186.844	-67.45914	4.38441E-005	0.0149265	9
	5	73	94921.88	4480.983	-4730.609	1	6515.971	-46.55228	4.449712E-005	-0.0534849	8
	6	80	75421.88	5322.027	-5851.584	1	7909.805	-47.71342	0.0000977	0.0149103	8
	7	88	59859.37	6201.381	-6733.654	1	9154.192	-47.35638	0.0001306	-0.0057158	8
	8	95	47578.12	7648.945	-8262.162	1	11259.2	-47.2071	0.0001408	-0.0529687	8
	9	104	37828.12	8107.089	-8766.177	1	11940.3	-47.2369	0.0003003	-0.0097925	9
	10	114	30046.88	10304.28	-9358.169	1	13919.54	-42.24518	-0.0002608	0.004508	9
	11	123	23859.38	13180.72	-8600.919	1	15738.71	-33.12598	0.0001464	-0.0436464	8
	12	131	18984.38	14790.67	-9790.61	1	17737.54	-33.50237	-0.0001399	0.0263313	8
	13	137	15046.87	13966.6	-8886.831	1	16554.21	-32.46825	-0.0001371	-0.0022823	9
	14	145	11953.13	20861.97	-8496.206	1	22525.7	-22.15901	-0.0001073	-0.0086207	8
	15	152	9515.62	20205.26	-8784.615	1	22032.3	-23.49789	-0.0002928	0.0093913	9
	16	160	7546.875	22924.26	-7427.402	1	24097.47	-17.95219	0.0002352	-0.0015198	9
	17	169	5928.309	18095.78	-5558.588	1	18930.27	-17.0757	-0.0001508	0.0108296	9
	18	176	4733.456	24709.95	-11243.75	1	27147.81	-24.46692	0.0002849	-0.005142	9
	19	184	3796.875	24496.29	-4135.383	1	24842.9	-9.58214	-0.000223	0.0114726	9
	20	193	2987.132	22145.35	-4232.991	1	22546.28	-10.82132	0.0003029	-0.0097792	9
	21	200	2390.625	18457.27	-5369.578	1	19222.47	-16.22074	-0.0001423	-0.0021198	9
	22	209	1884.191	31153.53	933.9835	1	31167.53	1.717214	-0.000146	0.0107124	9
	23	221	1516.544	27770.31	-5094.677	1	28233.77	-10.39575	-0.0001394	0.0506421	8
	24	227	1193.986	25475.54	4270.962	1	25831.07	9.51711	0.0002304	-0.0014521	9
	25	235	946.5144	29053.62	-9910.44	1	30697.38	-18.83496	7.453464E-005	-0.0006735	10
	26	243	751.7689	8988.401	-22213.52	1	23963.14	-67.96995	0.0001565	-0.0423196	8
	27	248	597.4265	84655.96	57443.36	1	102305.3	34.15888	-0.0001462	-0.0018441	9
	28	255	477.4305	31986.23	-4725.063	1	32333.35	-8.403061	-2.042796E-006	0.0007649	8
	29	262	376.6741	45931.61	-6906.496	1	46447.95	-8.551206	-7.858238E-007	0.0007578	7
	30	266	298.2954	45819.69	-7626.519	1	46450.06	-9.450038	-7.535623E-007	0.0007581	7
	31	269	237.7717	46842.64	-8675.972	1	47639.33	-10.49314	-7.603775E-007	0.0004882	7
	32	271	189.0121	48071.71	-9943.64	1	49089.36	-11.68682	-7.765844E-007	0.0007303	7
	33	274	150.2404	48058.33	-10869.47	1	49272.19	-12.74431	-7.542516E-007	0.000599	7
	34	277	119.1737	49455.28	-13015.75	1	51139.36	-14.74486	-7.676895E-007	0.0005557	7
	35	280	95.0169	50244.59	-15568.74	1	52601.37	-17.21607	-7.580887E-007	0.0006466	7
	36	283	75.60484	51726.49	-18500.99	1	54935.56	-19.68058	-7.708798E-007	0.0005947	7
	37	285	54.50582	53984.06	-23773.88	1	58987.09	-23.76807	-7.851399E-007	0.0007316	7
	38	289	45.95588	56154.33	-26715.67	1	62185.49	-25.44297	-7.237058E-008	0.000756	6
	39	291	37.20238	58101.89	-32226.72	1	66440.88	-29.01533	-7.729584E-008	0.0005413	6
	40	294	30.04808	59047.58	-38673.23	1	70584.95	-33.22281	-7.288233E-008	0.0005307	6
	41	296	23.91582	61335.66	-46702.23	1	77091.91	-37.28639	-7.871145E-008	0.0007851	6
	42	299	18.60119	63680.63	-57456.8	1	85770.08	-42.05883	-7.677119E-008	0.0007976	6
	43	301	15.02404	66693.44	-70234.54	1	96855.1	-46.4814	-8.034267E-008	0.0006432	6
	44	304	12.01923	68577.57	-83986.05	1	108427.6	-50.76715	-7.844166E-008	0.0007493	6
	45	306	9.450605	75037.59	-106177.1	1	130016.2	-54.75035	-8.227232E-008	0.0007481	6
	46	309	7.512019	80713.14	-129543.2	1	152630.5	-58.07463	-8.197265E-008	0.0005715	6
	47	312	5.978954	88013.44	-158021.4	1	180878.7	-60.88343	-8.251898E-008	0.0005736	6
	48	317	4.734848	98689.5	-195438.3	1	218942.3	-63.20782	-8.508941E-008	0.0007902	6
	49	320	3.75601	111926	-238730.6	1	263666	-64.88102	-8.464595E-008	0.00065	6
	50	326	3.004808	118230.2	-284988.7	1	308540	-67.46842	-7.7628E-007	0.0007406	7
	51	334	2.372217	152141.4	-354917.6	1	386152.2	-66.79679	-8.546053E-008	0.0006397	6
	52	339	1.878005	183658.3	-430483.6	1	468024	-66.89533	-8.514048E-008	0.0006776	6
	53	344	1.512097	218837.9	-514190.6	1	558821.9	-66.94554	-8.517856E-008	0.0006248	6
	54	349	1.201923	265938	-613013.6	1	668213.1	-66.5478	-8.532763E-008	0.0007007	6
	55	356	0.956633	342764.3	-768826.9	1	841773.3	-65.97137	-8.883896E-009	1.576065E-005	5
