EXPLAIN
TAG	EISPOT
TITLE	LABEL	Potentiostatic EIS	Test Identifier
DATE	LABEL	8/23/2020	Date
TIME	LABEL	17:44:36	Time
NOTES	NOTES	1	Notes...
	
PSTAT	PSTAT	REF3000-16137	Potentiostat
VDC	POTEN	0.00000E+000	T	DC Voltage (V)
FREQINIT	QUANT	3.00000E+005	Initial Freq. (Hz)
FREQFINAL	QUANT	1.00000E+000	Final Freq. (Hz)
PTSPERDEC	QUANT	1.00000E+001	Points/decade
VAC	QUANT	5.00000E+001	AC Voltage (mV rms)
AREA	QUANT	1.00000E+000	Sample Area (cm^2)
SPEED	SELECTOR	2	Optimize for:
ZGUESS	QUANT	1.00000E+003	Estimated Z (ohms)
EOC	QUANT	0	Open Circuit (V)
SEQUENCER	TOGGLE	TRUE	Run as Sequence
PSTATMODEL	IQUANT	5	Pstat Model
PSTATSECTION	LABEL	REF3000-16137	Pstat Section
PSTATSERIALNO	LABEL	16137	Pstat Serial Number
CTRLMODE	IQUANT	1	Control Mode
IESTAB	IQUANT	0	I/E Stability
CASPEED	IQUANT	1	Control Amp Speed
CONVENTION	IQUANT	1	Current Convention
ICHRANGE	IQUANT	2	Ich Range
ICHRANGEMODE	TOGGLE	F	Ich Auto Range
ICHOFFSETENABLE	TOGGLE	T	Ich Offset Enable
ICHOFFSET	QUANT	0	Ich Offset (V)
ICHFILTER	IQUANT	3	Ich Filter
VCHRANGE	IQUANT	2	Vch Range
VCHRANGEMODE	TOGGLE	F	Vch Auto Range
VCHOFFSETENABLE	TOGGLE	T	Vch Offset Enable
VCHOFFSET	QUANT	0	Vch Offset (V)
VCHFILTER	IQUANT	3	Vch Filter
ACHRANGE	IQUANT	2	Ach Range
ACHOFFSETENABLE	TOGGLE	F	Ach Offset Enable
ACHOFFSET	QUANT	0	Ach Offset (V)
ACHFILTER	IQUANT	3	Ach Filter
IERANGELOWERLIMIT	IQUANT	2	I/E Range Lower Limit
IERANGEMODE	TOGGLE	F	I/E AutoRange
IERANGE	IQUANT	11	I/E Range
POSFEEDENABLE	TOGGLE	F	Positive Feedback IR Comp
POSFEEDRESISTANCE	QUANT	0	Positive Feedback Resistance (ohm)
ACHSELECT	IQUANT	0	Ach Select
CABLEID	IQUANT	13	Cable ID
DCCALDATE	LABEL	7/31/2020	DC Calibration Date
ACCALDATE	LABEL	7/31/2020	AC Calibration Date
THERMOSELECT	IQUANT	1	Thermo Select
FRAMEWORKVERSION	QUANT	6.33	Framework Version
INSTRUMENTVERSION	LABEL	3.50	Instrument Version
COMPLIANCEVOLTAGE	IQUANT	0	Compliance Voltage
ZCURVE	TABLE
	Pt	Time	Freq	Zreal	Zimag	Zsig	Zmod	Zphz	Idc	Vdc	IERange
	#	s	Hz	ohm	ohm	V	ohm	°	A	V	#
	0	9	300046.9	262.533	-29.17838	1	264.1494	-6.341928	2.719896E-005	0.0006133	10
	1	15	238359.4	264.5536	-23.24866	1	265.5732	-5.022184	-1.323035E-005	-0.0012253	9
	2	19	189328.1	265.9269	-24.59142	1	267.0615	-5.283366	2.000584E-005	-0.0016458	9
	3	24	150421.9	267.9835	-28.85781	1	269.5328	-6.146213	-9.206617E-005	0.0001747	10
	4	29	119484.4	269.4523	-29.09921	1	271.019	-6.163707	-3.449602E-006	0.0012689	9
	5	33	94921.88	272.0468	-32.00535	1	273.923	-6.709804	2.587135E-006	0.0005798	9
	6	35	75421.88	274.917	-36.06322	1	277.2722	-7.473309	-1.08707E-005	-3.725943E-005	9
	7	38	59859.37	277.9211	-41.28067	1	280.9702	-8.448587	-6.157381E-006	0.0008133	9
	8	40	47578.12	281.6472	-47.24991	1	285.583	-9.52342	2.098337E-005	-0.0008075	9
	9	44	37828.12	285.8031	-54.49155	1	290.9514	-10.79452	2.199536E-005	-0.0001082	9
	10	47	30046.88	290.8625	-62.91309	1	297.5887	-12.20497	-2.71318E-006	-0.0003191	9
	11	49	23859.38	296.3263	-72.90874	1	305.1638	-13.82262	-1.968635E-005	0.0003872	9
	12	52	18984.38	302.2596	-84.53298	1	313.8577	-15.62472	-1.029867E-005	-5.319659E-005	9
	13	54	15046.87	309.6163	-97.8103	1	324.6985	-17.53176	5.615843E-006	-0.000555	9
	14	56	11953.13	315.8176	-114.5673	1	335.956	-19.93895	-1.471869E-005	0.0009577	9
	15	59	9515.62	323.028	-134.6155	1	349.9549	-22.62296	2.665653E-005	-0.0004575	9
	16	61	7546.875	328.5695	-158.3537	1	364.7381	-25.73169	-2.438201E-005	0.0005869	9
	17	63	5928.309	337.2596	-191.6443	1	387.9066	-29.60696	2.748152E-005	-0.0005328	9
	18	66	4733.456	345.1445	-228.6436	1	414.008	-33.52278	-2.53754E-005	0.0007577	9
	19	68	3796.875	350.4667	-271.8581	1	443.5468	-37.80085	-1.092996E-005	0.0044823	8
	20	70	2987.132	361.4482	-334.7443	1	492.6445	-42.80338	-9.632372E-006	0.0019963	8
	21	73	2390.625	372.9613	-405.9211	1	551.2459	-47.42313	1.007329E-005	-0.0007957	8
	22	75	1884.191	384.0594	-503.4912	1	633.2496	-52.66388	-6.712023E-006	0.0004996	8
	23	77	1516.544	401.7309	-611.4625	1	731.6243	-56.69508	-1.078489E-005	0.0028117	8
	24	80	1193.986	426.1305	-762.4788	1	873.4764	-60.80025	4.803283E-006	-0.0032376	8
	25	82	946.5144	457.4171	-939.5584	1	1044.988	-64.04121	1.033927E-006	-0.0022063	8
	26	85	751.7689	493.2032	-1159.037	1	1259.609	-66.94887	-1.063843E-005	0.0049333	8
	27	87	597.4265	547.2695	-1429.41	1	1530.594	-69.04996	-9.343403E-006	0.0018338	8
	28	90	477.4305	611.205	-1754.695	1	1858.097	-70.79547	-1.364759E-007	0.0006661	8
	29	92	376.6741	705.3655	-2170.442	1	2282.183	-71.99651	-1.000643E-007	0.0006412	8
	30	95	298.2954	828.558	-2670.844	1	2796.411	-72.76489	-9.182714E-008	0.000644	8
	31	97	237.7717	985.75	-3261.825	1	3407.522	-73.18475	-9.413999E-008	0.000658	8
	32	99	189.0121	1195.258	-3985.122	1	4160.509	-73.30443	-1.165512E-007	0.0006757	8
	33	102	150.2404	1480.161	-4865.898	1	5086.043	-73.08073	-7.328149E-008	0.0006338	7
	34	104	119.1737	1849.525	-5930.057	1	6211.789	-72.67783	-6.663456E-008	0.0006508	7
	35	107	95.0169	2332.18	-7168.364	1	7538.203	-71.97804	-7.337934E-008	0.0006802	7
	36	109	75.60484	2982.005	-8650.36	1	9149.923	-70.97959	-6.769993E-008	0.0006372	7
	37	112	54.50582	4313.107	-11214.58	1	12015.4	-68.96335	-6.547412E-008	0.0006087	7
	38	114	45.95588	5257.517	-12767.44	1	13807.57	-67.61858	-6.390591E-008	0.0006503	7
	39	117	37.20238	6702.03	-14890.08	1	16328.86	-65.76747	-6.272402E-008	0.0006324	7
	40	119	30.04808	8584.476	-17206.38	1	19228.96	-63.48483	-7.406852E-008	0.000684	7
	41	121	23.91582	11116.95	-19847.35	1	22748.71	-60.74581	-6.430906E-008	0.0006129	7
	42	124	18.60119	14479.28	-22868.23	1	27066.68	-57.65959	-6.503956E-008	0.0006372	7
	43	126	15.02404	18031.22	-25328.27	1	31090.93	-54.55289	-6.435972E-008	0.0006273	7
	44	128	12.01923	22266.17	-27504.42	1	35387.5	-51.00814	-6.905194E-008	0.0006201	7
	45	131	9.450605	27284.57	-29691.45	1	40324.06	-47.41895	-6.0956E-008	0.0006372	7
	46	133	7.512019	32488.52	-30843.65	1	44797.71	-43.51224	-5.664707E-008	0.0006792	6
	47	136	5.978954	37677.41	-31336.45	1	49005.72	-39.75043	-5.699593E-008	0.0006932	6
	48	141	4.734848	42802.83	-30928.16	1	52807.52	-35.85085	-5.469794E-008	0.0007079	6
	49	145	3.75601	47561.43	-29905.76	1	56182.24	-32.16093	-5.798527E-008	0.0007252	6
	50	151	3.004808	51623.17	-28450.08	1	58943.7	-28.85963	-5.952657E-008	0.0007135	6
	51	157	2.372217	55149.11	-26305.85	1	61101.73	-25.50091	-5.631347E-008	0.0007354	6
	52	165	1.878005	57055.42	-23043.47	1	61533.1	-21.99274	-6.389963E-008	0.0006549	6
	53	174	1.512097	58617.33	-20809.78	1	62201.59	-19.54541	-6.593968E-008	0.0007772	6
	54	185	1.201923	59611.31	-18417.34	1	62391.56	-17.16891	-6.823632E-008	0.0006566	6
	55	198	0.956633	60961.23	-16401.06	1	63128.96	-15.05834	-9.193901E-008	4.603463E-005	6
