EXPLAIN
TAG	EISPOT
TITLE	LABEL	Potentiostatic EIS	Test Identifier
DATE	LABEL	8/23/2020	Date
TIME	LABEL	15:24:49	Time
NOTES	NOTES	1	Notes...
	
PSTAT	PSTAT	REF3000-16137	Potentiostat
VDC	POTEN	0.00000E+000	T	DC Voltage (V)
FREQINIT	QUANT	3.00000E+005	Initial Freq. (Hz)
FREQFINAL	QUANT	1.00000E+000	Final Freq. (Hz)
PTSPERDEC	QUANT	1.00000E+001	Points/decade
VAC	QUANT	5.00000E+001	AC Voltage (mV rms)
AREA	QUANT	1.00000E+000	Sample Area (cm^2)
SPEED	SELECTOR	2	Optimize for:
ZGUESS	QUANT	1.00000E+003	Estimated Z (ohms)
EOC	QUANT	0	Open Circuit (V)
SEQUENCER	TOGGLE	TRUE	Run as Sequence
PSTATMODEL	IQUANT	5	Pstat Model
PSTATSECTION	LABEL	REF3000-16137	Pstat Section
PSTATSERIALNO	LABEL	16137	Pstat Serial Number
CTRLMODE	IQUANT	1	Control Mode
IESTAB	IQUANT	0	I/E Stability
CASPEED	IQUANT	1	Control Amp Speed
CONVENTION	IQUANT	1	Current Convention
ICHRANGE	IQUANT	2	Ich Range
ICHRANGEMODE	TOGGLE	F	Ich Auto Range
ICHOFFSETENABLE	TOGGLE	T	Ich Offset Enable
ICHOFFSET	QUANT	0	Ich Offset (V)
ICHFILTER	IQUANT	3	Ich Filter
VCHRANGE	IQUANT	2	Vch Range
VCHRANGEMODE	TOGGLE	F	Vch Auto Range
VCHOFFSETENABLE	TOGGLE	T	Vch Offset Enable
VCHOFFSET	QUANT	0	Vch Offset (V)
VCHFILTER	IQUANT	3	Vch Filter
ACHRANGE	IQUANT	2	Ach Range
ACHOFFSETENABLE	TOGGLE	F	Ach Offset Enable
ACHOFFSET	QUANT	0	Ach Offset (V)
ACHFILTER	IQUANT	3	Ach Filter
IERANGELOWERLIMIT	IQUANT	2	I/E Range Lower Limit
IERANGEMODE	TOGGLE	F	I/E AutoRange
IERANGE	IQUANT	11	I/E Range
POSFEEDENABLE	TOGGLE	F	Positive Feedback IR Comp
POSFEEDRESISTANCE	QUANT	0	Positive Feedback Resistance (ohm)
ACHSELECT	IQUANT	0	Ach Select
CABLEID	IQUANT	13	Cable ID
DCCALDATE	LABEL	7/31/2020	DC Calibration Date
ACCALDATE	LABEL	7/31/2020	AC Calibration Date
THERMOSELECT	IQUANT	1	Thermo Select
FRAMEWORKVERSION	QUANT	6.33	Framework Version
INSTRUMENTVERSION	LABEL	3.50	Instrument Version
COMPLIANCEVOLTAGE	IQUANT	0	Compliance Voltage
ZCURVE	TABLE
	Pt	Time	Freq	Zreal	Zimag	Zsig	Zmod	Zphz	Idc	Vdc	IERange
	#	s	Hz	ohm	ohm	V	ohm	°	A	V	#
	0	15	300046.9	318.6966	-2631.463	1	2650.691	-83.09454	-0.0007395	0.0124303	9
	1	31	238359.4	187.6416	-2581.069	1	2587.88	-85.84196	0.0001419	-0.0019629	10
	2	47	189328.1	262.8289	-4039.563	1	4048.105	-86.27737	-0.0001183	0.0179005	9
	3	57	150421.9	593.4533	-5409.163	1	5441.62	-83.73898	-0.000271	-0.0012776	10
	4	68	119484.4	705.8153	-5937.431	1	5979.236	-83.22075	0.0007909	-0.0228942	9
	5	76	94921.88	679.9058	-7384.093	1	7415.329	-84.7392	0.0003046	-0.0076019	9
	6	86	75421.88	741.7995	-9822.99	1	9850.96	-85.68141	0.0003045	-0.0076935	9
	7	95	59859.37	2035.836	-12374.88	1	12541.22	-80.65775	-0.0002853	0.0069989	9
	8	104	47578.12	1254.461	-15190.73	1	15242.43	-85.27918	-0.0001494	0.0107418	9
	9	114	37828.12	2807.379	-18323.47	1	18537.28	-81.28932	-0.000266	0.0046083	9
	10	124	30046.88	3363.611	-24759.72	1	24987.15	-82.26373	0.00013	-0.0590902	8
	11	132	23859.38	-3588.604	-29265.92	1	29485.12	-96.9907	0.0002149	-0.0111198	9
	12	140	18984.38	8017.001	-42247.64	1	43001.57	-79.25519	4.184898E-005	0.006514	9
	13	148	15046.87	14199.69	-56210.58	1	57976.38	-75.82278	0.0002717	-0.0108667	9
	14	156	11953.13	26797.36	-80462.04	1	84807.06	-71.57999	0.0001362	-0.0102508	9
	15	165	9515.62	922.4387	-70742.98	1	70748.99	-89.25294	0.0001302	-0.0591236	8
	16	172	7546.875	21463.17	-75189.95	1	78193.33	-74.06847	0.0001002	0.0150062	8
	17	180	5928.309	79921.35	-89709.88	1	120146.9	-48.30257	0.0001489	-0.0258026	8
	18	187	4733.456	-15990.45	-127413.8	1	128413.3	-97.1532	0.0001	0.0149716	8
	19	196	3796.875	46796.52	-124806.5	1	133291.3	-69.44633	4.75412E-005	-0.0540988	8
	20	203	2987.132	31759.6	-103443.1	1	108208.8	-72.93221	-0.0002706	0.010891	9
	21	215	2390.625	-14128.7	-16839.15	1	21981.29	-129.9979	-0.0001523	-0.0018026	9
	22	224	1884.191	26440.37	73088.94	1	77724.42	70.1121	4.314501E-005	0.0061895	9
	23	233	1516.544	-76669.42	-138115.7	1	157968.8	-119.0351	0.000214	-0.0111325	9
	24	241	1193.986	70275.2	-39534.31	1	80632.28	-29.36055	8.616297E-005	-0.0600245	8
	25	250	946.5144	21987	15609.88	1	26964.73	35.3732	-0.0001544	0.0111278	9
	26	257	751.7689	15561.8	-32373.82	1	35919.82	-64.32683	5.307432E-005	-0.0086513	9
	27	264	597.4265	9653.71	46386.47	1	47380.36	78.24371	0.0001403	0.0024681	9
	28	270	477.4305	619644	-461016.9	1	772331.1	-36.64935	-2.333206E-006	0.0006533	8
	29	276	376.6741	1055025	-781924.6	1	1313196	-36.54374	-7.997301E-007	0.0005234	7
	30	281	298.2954	1412514	-557694.1	1	1518623	-21.54529	-8.682781E-008	0.0007849	6
	31	286	237.7717	2264509	238158.6	1	2276998	6.00373	-8.775766E-009	0.0005357	5
	32	289	189.0121	2292251	235467.9	1	2304313	5.865048	-7.683663E-009	0.0007726	5
	33	292	150.2404	2152298	216935.6	1	2163203	5.755551	-8.501686E-009	0.0006421	5
	34	294	119.1737	1722879	-411383.2	1	1771312	-13.42944	-9.133355E-009	0.0007506	5
	35	297	95.0169	2089592	150123.4	1	2094978	4.109264	-8.916086E-009	0.0007937	5
	36	300	75.60484	2178061	41712.33	1	2178461	1.097145	-8.048803E-009	0.0006734	5
	37	303	54.50582	2174091	-86393	1	2175807	-2.275596	-8.883919E-009	0.0005418	5
	38	306	45.95588	2151756	24446.41	1	2151895	0.6509175	-8.245499E-009	0.0007964	5
	39	309	37.20238	2250559	-140172.8	1	2254920	-3.563981	-9.059788E-009	0.0006329	5
	40	311	30.04808	2177122	-181290.8	1	2184658	-4.760084	-8.530667E-009	0.0007892	5
	41	314	23.91582	2334972	-144265.8	1	2339424	-3.535515	-7.764686E-009	0.0006828	5
	42	317	18.60119	2262228	-110927.8	1	2264946	-2.807235	-8.797432E-009	0.0007736	5
	43	319	15.02404	2343854	-169291.7	1	2349960	-4.131182	-9.234819E-009	0.0006329	5
	44	322	12.01923	2431992	-274198.1	1	2447400	-6.432723	-8.185829E-009	0.0007313	5
	45	324	9.450605	2263893	-398967.9	1	2298779	-9.99466	-8.646531E-008	0.0008252	6
	46	328	7.512019	2528530	-353731.9	1	2553153	-7.963782	-8.605027E-009	0.000638	5
	47	331	5.978954	2352670	-440563.3	1	2393564	-10.60643	-8.639599E-008	0.0005694	6
	48	337	4.734848	2487829	-562256	1	2550573	-12.73505	-8.721135E-008	0.0008021	6
	49	347	3.75601	2739191	-624243.8	1	2809421	-12.83808	-8.577217E-009	0.0005448	5
	50	354	3.004808	2640418	-714493.3	1	2735380	-15.14153	-8.481979E-008	0.0005813	6
	51	361	2.372217	2917272	-874018.4	1	3045388	-16.67828	-8.893893E-009	0.0007484	5
	52	367	1.878005	3023587	-1065025	1	3205676	-19.40425	-8.742802E-009	0.0006427	5
	53	374	1.512097	3154937	-1313447	1	3417421	-22.60268	-8.667488E-009	0.0006109	5
	54	381	1.201923	3231735	-1484553	1	3556404	-24.6725	-8.930406E-009	0.0006357	5
	55	388	0.956633	3446499	-1894518	1	3932881	-28.7973	-8.790857E-009	8.818399E-006	5
