EXPLAIN
TAG	EISPOT
TITLE	LABEL	Potentiostatic EIS	Test Identifier
DATE	LABEL	8/23/2020	Date
TIME	LABEL	17:37:24	Time
NOTES	NOTES	1	Notes...
	
PSTAT	PSTAT	REF3000-16137	Potentiostat
VDC	POTEN	0.00000E+000	T	DC Voltage (V)
FREQINIT	QUANT	3.00000E+005	Initial Freq. (Hz)
FREQFINAL	QUANT	1.00000E+000	Final Freq. (Hz)
PTSPERDEC	QUANT	1.00000E+001	Points/decade
VAC	QUANT	5.00000E+001	AC Voltage (mV rms)
AREA	QUANT	1.00000E+000	Sample Area (cm^2)
SPEED	SELECTOR	2	Optimize for:
ZGUESS	QUANT	1.00000E+003	Estimated Z (ohms)
EOC	QUANT	0	Open Circuit (V)
SEQUENCER	TOGGLE	TRUE	Run as Sequence
PSTATMODEL	IQUANT	5	Pstat Model
PSTATSECTION	LABEL	REF3000-16137	Pstat Section
PSTATSERIALNO	LABEL	16137	Pstat Serial Number
CTRLMODE	IQUANT	1	Control Mode
IESTAB	IQUANT	0	I/E Stability
CASPEED	IQUANT	1	Control Amp Speed
CONVENTION	IQUANT	1	Current Convention
ICHRANGE	IQUANT	2	Ich Range
ICHRANGEMODE	TOGGLE	F	Ich Auto Range
ICHOFFSETENABLE	TOGGLE	T	Ich Offset Enable
ICHOFFSET	QUANT	0	Ich Offset (V)
ICHFILTER	IQUANT	3	Ich Filter
VCHRANGE	IQUANT	2	Vch Range
VCHRANGEMODE	TOGGLE	F	Vch Auto Range
VCHOFFSETENABLE	TOGGLE	T	Vch Offset Enable
VCHOFFSET	QUANT	0	Vch Offset (V)
VCHFILTER	IQUANT	3	Vch Filter
ACHRANGE	IQUANT	2	Ach Range
ACHOFFSETENABLE	TOGGLE	F	Ach Offset Enable
ACHOFFSET	QUANT	0	Ach Offset (V)
ACHFILTER	IQUANT	3	Ach Filter
IERANGELOWERLIMIT	IQUANT	2	I/E Range Lower Limit
IERANGEMODE	TOGGLE	F	I/E AutoRange
IERANGE	IQUANT	11	I/E Range
POSFEEDENABLE	TOGGLE	F	Positive Feedback IR Comp
POSFEEDRESISTANCE	QUANT	0	Positive Feedback Resistance (ohm)
ACHSELECT	IQUANT	0	Ach Select
CABLEID	IQUANT	13	Cable ID
DCCALDATE	LABEL	7/31/2020	DC Calibration Date
ACCALDATE	LABEL	7/31/2020	AC Calibration Date
THERMOSELECT	IQUANT	1	Thermo Select
FRAMEWORKVERSION	QUANT	6.33	Framework Version
INSTRUMENTVERSION	LABEL	3.50	Instrument Version
COMPLIANCEVOLTAGE	IQUANT	0	Compliance Voltage
ZCURVE	TABLE
	Pt	Time	Freq	Zreal	Zimag	Zsig	Zmod	Zphz	Idc	Vdc	IERange
	#	s	Hz	ohm	ohm	V	ohm	°	A	V	#
	0	10	300046.9	264.1303	-23.18119	1	265.1456	-5.015667	1.167971E-005	0.0008802	9
	1	14	238359.4	265.3229	-23.72984	1	266.382	-5.110797	-5.775307E-006	0.0012007	9
	2	19	189328.1	266.4811	-27.84812	1	267.9323	-5.965935	-3.624102E-005	0.0004459	10
	3	23	150421.9	268.5267	-29.14625	1	270.1039	-6.19471	1.362522E-005	0.0006352	10
	4	30	119484.4	270.566	-28.79475	1	272.0939	-6.074788	-8.910695E-005	0.0033263	9
	5	34	94921.88	272.2476	-32.057	1	274.1285	-6.715621	-5.358532E-005	0.0011699	9
	6	38	75421.88	275.6726	-36.32631	1	278.0557	-7.506807	1.554006E-005	-0.0007963	9
	7	42	59859.37	278.8204	-41.39993	1	281.8772	-8.445709	-1.940546E-006	-0.0003556	9
	8	46	47578.12	282.5666	-47.40849	1	286.5161	-9.52427	-1.571626E-005	0.0009063	9
	9	50	37828.12	286.8484	-54.43118	1	291.967	-10.74447	-1.752447E-005	0.0002428	9
	10	54	30046.88	291.6006	-63.31079	1	298.3943	-12.24964	-2.111187E-005	0.0009432	9
	11	56	23859.38	297.4226	-73.29581	1	306.3209	-13.84392	-2.377755E-005	0.0006819	9
	12	58	18984.38	303.329	-84.61748	1	314.9104	-15.58712	-1.009827E-005	-5.665734E-005	9
	13	61	15046.87	309.2901	-98.6062	1	324.6283	-17.68304	-2.210133E-005	0.000955	9
	14	63	11953.13	317.3484	-115.3739	1	337.6701	-19.97904	-3.220549E-006	-0.0002945	9
	15	65	9515.62	324.0399	-134.074	1	350.6817	-22.47771	-2.38656E-005	0.0007835	9
	16	68	7546.875	330.8479	-157.3083	1	366.3417	-25.4297	2.160228E-005	-9.271942E-005	9
	17	70	5928.309	339.2139	-191.0737	1	389.3267	-29.39186	5.823092E-006	-0.0005335	9
	18	73	4733.456	345.496	-226.9299	1	413.3578	-33.29786	1.022892E-005	-0.0008086	8
	19	75	3796.875	353.8625	-271.5092	1	446.0224	-37.49805	2.04405E-006	0.002718	8
	20	77	2987.132	362.9405	-332.937	1	492.5168	-42.53116	-1.049073E-005	0.0047501	8
	21	80	2390.625	373.1896	-405.554	1	551.1302	-47.37983	-1.049455E-005	0.0048286	8
	22	82	1884.191	387.9795	-504.179	1	636.1796	-52.42073	8.268767E-006	-0.0038156	8
	23	84	1516.544	404.2759	-610.4521	1	732.1823	-56.48522	1.188471E-005	-0.0033833	8
	24	86	1193.986	425.7144	-758.4434	1	869.7523	-60.69449	-1.13539E-005	0.0044	8
	25	89	946.5144	456.5945	-940.0995	1	1045.115	-64.09474	1.276051E-005	-0.0028177	8
	26	92	751.7689	497.0767	-1155.768	1	1258.127	-66.72826	-7.072214E-006	0.0006893	8
	27	94	597.4265	542.9191	-1433.151	1	1532.542	-69.25186	1.078907E-005	-0.0038684	8
	28	97	477.4305	612.016	-1750.989	1	1854.866	-70.73416	-1.11417E-007	0.0006587	8
	29	99	376.6741	705.1767	-2166.136	1	2278.03	-71.96755	-7.776576E-008	0.0006395	8
	30	101	298.2954	828.4154	-2665.335	1	2791.108	-72.73418	-8.582051E-008	0.0006438	8
	31	104	237.7717	985.563	-3255.188	1	3401.115	-73.15542	-1.037677E-007	0.000654	8
	32	106	189.0121	1193.658	-3977.692	1	4152.933	-73.29612	-7.719008E-008	0.0006554	8
	33	109	150.2404	1479.596	-4856.324	1	5076.72	-73.05538	-7.305032E-008	0.0006382	7
	34	111	119.1737	1844.627	-5921.227	1	6201.901	-72.69674	-5.930517E-008	0.0006241	7
	35	113	95.0169	2328.554	-7156.089	1	7525.409	-71.97539	-6.660176E-008	0.0006394	7
	36	116	75.60484	2981.707	-8633.259	1	9133.659	-70.9464	-6.263647E-008	0.0006334	7
	37	119	54.50582	4302.257	-11194.01	1	11992.3	-68.97645	-5.788108E-008	0.0006315	7
	38	121	45.95588	5247.39	-12742.03	1	13780.22	-67.61729	-6.253789E-008	0.0006432	7
	39	123	37.20238	6689.939	-14863.75	1	16299.88	-65.76823	-5.224708E-008	0.000616	7
	40	126	30.04808	8560.908	-17191.11	1	19204.78	-63.5274	-5.144009E-008	0.0006167	7
	41	128	23.91582	11109.11	-19777.25	1	22683.74	-60.67657	-5.871823E-008	0.0006308	7
	42	131	18.60119	14511.56	-22788.09	1	27016.33	-57.51083	-4.930069E-008	0.0006384	7
	43	133	15.02404	18019.14	-25262.08	1	31030.02	-54.50018	-5.592505E-008	0.0006505	7
	44	135	12.01923	22259.55	-27426.17	1	35322.55	-50.93661	-6.112158E-008	0.0006298	7
	45	138	9.450605	27262.32	-29646.86	1	40276.18	-47.39934	-5.990444E-008	0.0006422	7
	46	140	7.512019	32445.78	-30712.05	1	44676.15	-43.42759	-5.091367E-008	0.0007326	6
	47	143	5.978954	37648.62	-31119.38	1	48845	-39.57627	-5.111229E-008	0.0006664	6
	48	148	4.734848	42708.67	-30579.79	1	52527.66	-35.603	-5.419956E-008	0.0007046	6
	49	152	3.75601	47358.22	-29547.41	1	55819.8	-31.96057	-5.247517E-008	0.0007002	6
	50	158	3.004808	51320.81	-27994.24	1	58459.42	-28.61138	-5.562621E-008	0.0006913	6
	51	164	2.372217	54712.42	-25785.96	1	60484.42	-25.23449	-5.703427E-008	0.0006597	6
	52	172	1.878005	56614.05	-22538.4	1	60935.46	-21.7078	-5.896114E-008	0.0006667	6
	53	181	1.512097	57969.74	-20345.79	1	61436.48	-19.33967	-6.532769E-008	0.0007253	6
	54	192	1.201923	58929.41	-17944.01	1	61600.83	-16.93549	-7.025611E-008	0.00068	6
	55	205	0.956633	60281.99	-16012.49	1	62372.42	-14.87576	-9.563342E-008	3.98485E-005	6
