EXPLAIN
TAG	EISPOT
TITLE	LABEL	Potentiostatic EIS	Test Identifier
DATE	LABEL	8/23/2020	Date
TIME	LABEL	14:41:37	Time
NOTES	NOTES	1	Notes...
	
PSTAT	PSTAT	REF3000-16137	Potentiostat
VDC	POTEN	0.00000E+000	T	DC Voltage (V)
FREQINIT	QUANT	3.00000E+005	Initial Freq. (Hz)
FREQFINAL	QUANT	1.00000E+000	Final Freq. (Hz)
PTSPERDEC	QUANT	1.00000E+001	Points/decade
VAC	QUANT	5.00000E+001	AC Voltage (mV rms)
AREA	QUANT	1.00000E+000	Sample Area (cm^2)
SPEED	SELECTOR	2	Optimize for:
ZGUESS	QUANT	1.00000E+003	Estimated Z (ohms)
EOC	QUANT	0	Open Circuit (V)
SEQUENCER	TOGGLE	TRUE	Run as Sequence
PSTATMODEL	IQUANT	5	Pstat Model
PSTATSECTION	LABEL	REF3000-16137	Pstat Section
PSTATSERIALNO	LABEL	16137	Pstat Serial Number
CTRLMODE	IQUANT	1	Control Mode
IESTAB	IQUANT	0	I/E Stability
CASPEED	IQUANT	1	Control Amp Speed
CONVENTION	IQUANT	1	Current Convention
ICHRANGE	IQUANT	2	Ich Range
ICHRANGEMODE	TOGGLE	F	Ich Auto Range
ICHOFFSETENABLE	TOGGLE	T	Ich Offset Enable
ICHOFFSET	QUANT	0	Ich Offset (V)
ICHFILTER	IQUANT	3	Ich Filter
VCHRANGE	IQUANT	2	Vch Range
VCHRANGEMODE	TOGGLE	F	Vch Auto Range
VCHOFFSETENABLE	TOGGLE	T	Vch Offset Enable
VCHOFFSET	QUANT	0	Vch Offset (V)
VCHFILTER	IQUANT	3	Vch Filter
ACHRANGE	IQUANT	2	Ach Range
ACHOFFSETENABLE	TOGGLE	F	Ach Offset Enable
ACHOFFSET	QUANT	0	Ach Offset (V)
ACHFILTER	IQUANT	3	Ach Filter
IERANGELOWERLIMIT	IQUANT	2	I/E Range Lower Limit
IERANGEMODE	TOGGLE	F	I/E AutoRange
IERANGE	IQUANT	11	I/E Range
POSFEEDENABLE	TOGGLE	F	Positive Feedback IR Comp
POSFEEDRESISTANCE	QUANT	0	Positive Feedback Resistance (ohm)
ACHSELECT	IQUANT	0	Ach Select
CABLEID	IQUANT	13	Cable ID
DCCALDATE	LABEL	7/31/2020	DC Calibration Date
ACCALDATE	LABEL	7/31/2020	AC Calibration Date
THERMOSELECT	IQUANT	1	Thermo Select
FRAMEWORKVERSION	QUANT	6.33	Framework Version
INSTRUMENTVERSION	LABEL	3.50	Instrument Version
COMPLIANCEVOLTAGE	IQUANT	0	Compliance Voltage
ZCURVE	TABLE
	Pt	Time	Freq	Zreal	Zimag	Zsig	Zmod	Zphz	Idc	Vdc	IERange
	#	s	Hz	ohm	ohm	V	ohm	°	A	V	#
	0	15	300046.9	943.5472	-2060.493	1	2266.255	-65.39587	-0.0007461	0.0361622	9
	1	30	238359.4	1488.668	-2215.39	1	2669.098	-56.10021	0.0004473	0.0027574	9
	2	45	189328.1	1652.487	-2752.009	1	3210.026	-59.01663	-0.0001038	0.017737	9
	3	54	150421.9	1863.268	-3270.389	1	3763.936	-60.32815	-0.0007034	0.0125029	9
	4	64	119484.4	2380.72	-3385.667	1	4138.909	-54.88603	0.0004209	0.0025662	9
	5	73	94921.88	3115.163	-3677.115	1	4819.275	-49.72953	-0.000187	0.0020551	10
	6	81	75421.88	4874.822	-3379.167	1	5931.497	-34.72923	-0.0001249	0.0089126	8
	7	89	59859.37	5425.995	-3646.984	1	6537.73	-33.90631	0.0001281	-0.0573099	8
	8	96	47578.12	5624.483	-4320.59	1	7092.412	-37.53059	0.0001436	0.0024457	9
	9	107	37828.12	6391.843	-4333.234	1	7722.213	-34.1346	0.0002859	-0.0052313	9
	10	118	30046.88	7465.075	-4376.044	1	8653.156	-30.37893	0.0002306	-0.0014388	9
	11	129	23859.38	7821.851	-3566.862	1	8596.735	-24.51358	-0.0002196	0.0016115	9
	12	136	18984.38	8574.504	-3426.69	1	9233.868	-21.78348	0.0002278	-0.0014605	9
	13	144	15046.87	9750.51	-2279.129	1	10013.33	-13.15637	-4.575806E-005	-0.0056007	9
	14	152	11953.13	9938.27	-2413.055	1	10227.03	-13.64756	-0.0001529	0.0409078	8
	15	157	9515.62	10264.76	-2727.395	1	10620.92	-14.87994	-0.0002954	0.0094534	9
	16	165	7546.875	10938.12	-2271.862	1	11171.56	-11.73358	5.625242E-005	0.0324589	8
	17	171	5928.309	11299.09	-1659.209	1	11420.26	-8.353867	-0.0001139	0.0558866	8
	18	177	4733.456	10208.94	-529.8921	1	10222.68	-2.971255	0.000145	0.00244	9
	19	184	3796.875	11772.99	-1763.01	1	11904.26	-8.516779	0.0002801	-0.0049075	9
	20	194	2987.132	13259.67	-465.2889	1	13267.83	-2.009715	0.0001423	0.0025031	9
	21	203	2390.625	12568.29	-2136.396	1	12748.57	-9.6471	-0.0002944	0.0093805	9
	22	210	1884.191	12354.93	-1619.278	1	12460.59	-7.466816	4.404832E-005	-0.0082621	9
	23	219	1516.544	12319.58	-2658.664	1	12603.2	-12.17812	0.0002857	-0.0051378	9
	24	227	1193.986	13705.3	-3466.07	1	14136.79	-14.19252	0.000134	-0.0100586	9
	25	235	946.5144	10271.55	-2704.46	1	10621.62	-14.75097	0.0001409	-0.0104476	9
	26	240	751.7689	13282.23	-3035.952	1	13624.78	-12.87506	0.0003052	0.0001748	10
	27	246	597.4265	14595.26	-1693.109	1	14693.13	-6.616968	-0.0002973	0.0096819	9
	28	252	477.4305	13892.62	-2677.583	1	14148.3	-10.90909	4.78681E-007	8.117921E-005	9
	29	257	376.6741	20258.08	-4124.646	1	20673.71	-11.5084	-7.627179E-007	0.0007195	7
	30	259	298.2954	20258.59	-4712.895	1	20799.56	-13.09617	-7.185982E-007	0.0007199	7
	31	262	237.7717	20642.02	-5666.354	1	21405.62	-15.34992	-7.162915E-007	0.0007334	7
	32	264	189.0121	21373.62	-6745.368	1	22412.75	-17.51534	-7.482901E-007	0.0007606	7
	33	267	150.2404	21553.61	-7751.634	1	22905.15	-19.78084	-7.143831E-007	0.000556	7
	34	269	119.1737	22178.93	-9632.17	1	24180.23	-23.47501	-7.337666E-007	0.0007179	7
	35	272	95.0169	22513.21	-11294.85	1	25187.66	-26.64288	-7.15469E-007	0.0005168	7
	36	276	75.60484	23556.72	-13797.59	1	27300.05	-30.35826	-7.483167E-007	0.000551	7
	37	279	54.50582	24093.59	-17955.73	1	30048.45	-36.6953	-7.171589E-007	0.0007458	7
	38	282	45.95588	25226.09	-21152.52	1	32920.88	-39.98042	-7.506813E-007	0.0005995	7
	39	284	37.20238	25833.4	-24815.91	1	35821.69	-43.84914	-7.265852E-007	0.0007174	7
	40	287	30.04808	26608.09	-30364.22	1	40372.97	-48.772	-7.349543E-007	0.0007343	7
	41	290	23.91582	28740.16	-37298.39	1	47086.8	-52.38406	-7.397398E-007	0.000497	7
	42	292	18.60119	30596.53	-46570.61	1	55722.25	-56.6954	-7.213221E-007	0.0005216	7
	43	295	15.02404	34104.82	-56781.38	1	66236.42	-59.00955	-7.396392E-008	0.0005743	6
	44	297	12.01923	37761.23	-69692.72	1	79265.28	-61.55008	-7.729346E-008	0.0006864	6
	45	300	9.450605	42023.97	-85062.13	1	94876.66	-63.70885	-7.917124E-008	0.0008067	6
	46	303	7.512019	48367.07	-103924.4	1	114628.3	-65.04243	-7.916747E-008	0.0005172	6
	47	306	5.978954	57357.3	-128210.6	1	140455.7	-65.89779	-8.077521E-008	0.0005309	6
	48	310	4.734848	67857.31	-154467.1	1	168714.9	-66.28414	-8.280705E-008	0.0007536	6
	49	313	3.75601	82479.69	-187243.2	1	204604.3	-66.22675	-8.320482E-008	0.0007695	6
	50	319	3.004808	100615.1	-224175.9	1	245719.8	-65.82841	-8.111923E-008	0.000613	6
	51	325	2.372217	124194	-268375.1	1	295718.3	-65.16706	-8.384916E-008	0.0006146	6
	52	330	1.878005	154061.7	-317322.7	1	352744.6	-64.10321	-8.371591E-008	0.0006753	6
	53	334	1.512097	186782.2	-368263.9	1	412923.6	-63.10604	-8.303638E-008	0.0005647	6
	54	340	1.201923	229555.7	-431564.5	1	488818.7	-61.99081	-8.457432E-008	0.0006911	6
	55	346	0.956633	279006.9	-499345.2	1	572005.6	-60.80592	-8.464211E-008	2.097215E-005	6
