EXPLAIN
TAG	EISPOT
TITLE	LABEL	Potentiostatic EIS	Test Identifier
DATE	LABEL	8/23/2020	Date
TIME	LABEL	16:06:16	Time
NOTES	NOTES	1	Notes...
	
PSTAT	PSTAT	REF3000-16137	Potentiostat
VDC	POTEN	0.00000E+000	T	DC Voltage (V)
FREQINIT	QUANT	3.00000E+005	Initial Freq. (Hz)
FREQFINAL	QUANT	1.00000E+000	Final Freq. (Hz)
PTSPERDEC	QUANT	1.00000E+001	Points/decade
VAC	QUANT	5.00000E+001	AC Voltage (mV rms)
AREA	QUANT	1.00000E+000	Sample Area (cm^2)
SPEED	SELECTOR	2	Optimize for:
ZGUESS	QUANT	1.00000E+003	Estimated Z (ohms)
EOC	QUANT	0	Open Circuit (V)
SEQUENCER	TOGGLE	TRUE	Run as Sequence
PSTATMODEL	IQUANT	5	Pstat Model
PSTATSECTION	LABEL	REF3000-16137	Pstat Section
PSTATSERIALNO	LABEL	16137	Pstat Serial Number
CTRLMODE	IQUANT	1	Control Mode
IESTAB	IQUANT	0	I/E Stability
CASPEED	IQUANT	1	Control Amp Speed
CONVENTION	IQUANT	1	Current Convention
ICHRANGE	IQUANT	2	Ich Range
ICHRANGEMODE	TOGGLE	F	Ich Auto Range
ICHOFFSETENABLE	TOGGLE	T	Ich Offset Enable
ICHOFFSET	QUANT	0	Ich Offset (V)
ICHFILTER	IQUANT	3	Ich Filter
VCHRANGE	IQUANT	2	Vch Range
VCHRANGEMODE	TOGGLE	F	Vch Auto Range
VCHOFFSETENABLE	TOGGLE	T	Vch Offset Enable
VCHOFFSET	QUANT	0	Vch Offset (V)
VCHFILTER	IQUANT	3	Vch Filter
ACHRANGE	IQUANT	2	Ach Range
ACHOFFSETENABLE	TOGGLE	F	Ach Offset Enable
ACHOFFSET	QUANT	0	Ach Offset (V)
ACHFILTER	IQUANT	3	Ach Filter
IERANGELOWERLIMIT	IQUANT	2	I/E Range Lower Limit
IERANGEMODE	TOGGLE	F	I/E AutoRange
IERANGE	IQUANT	11	I/E Range
POSFEEDENABLE	TOGGLE	F	Positive Feedback IR Comp
POSFEEDRESISTANCE	QUANT	0	Positive Feedback Resistance (ohm)
ACHSELECT	IQUANT	0	Ach Select
CABLEID	IQUANT	13	Cable ID
DCCALDATE	LABEL	7/31/2020	DC Calibration Date
ACCALDATE	LABEL	7/31/2020	AC Calibration Date
THERMOSELECT	IQUANT	1	Thermo Select
FRAMEWORKVERSION	QUANT	6.33	Framework Version
INSTRUMENTVERSION	LABEL	3.50	Instrument Version
COMPLIANCEVOLTAGE	IQUANT	0	Compliance Voltage
ZCURVE	TABLE
	Pt	Time	Freq	Zreal	Zimag	Zsig	Zmod	Zphz	Idc	Vdc	IERange
	#	s	Hz	ohm	ohm	V	ohm	°	A	V	#
	0	27	300046.9	-110.7436	-4790.864	1	4792.144	-91.32419	-0.0001107	0.0037997	9
	1	41	238359.4	-142.3433	-5896.091	1	5897.809	-91.38297	-6.109605E-005	0.0005306	9
	2	56	189328.1	55.65568	-7488.495	1	7488.702	-89.57417	-0.0001081	0.0038103	9
	3	63	150421.9	294.7548	-9606.99	1	9611.51	-88.24265	-0.0001085	0.0038377	9
	4	74	119484.4	207.5845	-11827.47	1	11829.29	-88.9945	2.670524E-005	-0.0013948	9
	5	85	94921.88	594.317	-14535.85	1	14548	-87.65869	8.46393E-006	0.0042444	8
	6	92	75421.88	623.35	-18224.41	1	18235.06	-88.04101	-2.011648E-005	0.0115172	8
	7	101	59859.37	6.973211	-22471.51	1	22471.52	-89.98222	-2.528826E-005	0.0112177	8
	8	110	47578.12	3128.955	-16655.58	1	16946.94	-79.3603	7.150063E-005	-0.0564207	8
	9	118	37828.12	-276.6248	-20009.33	1	20011.25	-90.79205	-0.0001479	-0.0018579	9
	10	128	30046.88	1150.554	-23116.57	1	23145.19	-87.15063	-0.0002664	0.0107842	9
	11	138	23859.38	-1512.924	-32421.28	1	32456.56	-92.67175	0.0003035	-0.0076962	9
	12	146	18984.38	-1494.703	-38056.33	1	38085.67	-92.2492	0.0002635	-0.0107551	9
	13	155	15046.87	10736.36	-47792.87	1	48983.95	-77.33906	4.572547E-005	0.0061275	9
	14	165	11953.13	18109.43	-63930.8	1	66446.2	-74.18437	0.000138	-0.0535465	8
	15	171	9515.62	7677.419	-75013.8	1	75405.66	-84.15631	-0.0001446	0.0506263	8
	16	180	7546.875	38723.79	-101883.7	1	108994.6	-69.18929	0.0001977	-0.0106941	9
	17	189	5928.309	16877.19	-162766.4	1	163639.1	-84.08018	-0.0002628	0.0049781	9
	18	200	4733.456	-7304	-112255.8	1	112493.1	-93.72274	0.0001552	-0.0427204	8
	19	210	3796.875	-8472.582	-161706.7	1	161928.5	-92.99925	-0.0001317	0.0503497	8
	20	218	2987.132	-94819.71	-608385.9	1	615730.6	-98.8585	-0.0002228	0.0018907	9
	21	229	2390.625	33021.89	-30489.4	1	44944.95	-42.71656	-0.0001384	0.0424645	8
	22	237	1884.191	85017.67	24699.25	1	88532.8	16.19958	-0.0001481	0.0270761	8
	23	245	1516.544	-72808.34	-141696.9	1	159308	-117.1955	-0.0001503	0.0416874	8
	24	253	1193.986	-689597.9	-535854.4	1	873318.5	-142.1509	-0.0002185	0.0113458	9
	25	261	946.5144	20985.21	-10890.1	1	23642.61	-27.42668	5.139465E-005	-0.0085439	9
	26	272	751.7689	200416.7	3297.373	1	200443.8	0.9425785	1.800447E-005	0.0455874	8
	27	278	597.4265	165030.3	310907.3	1	351992	62.04053	9.142518E-006	0.0585436	7
	28	284	477.4305	290020.6	-1890364	1	1912482	-81.27766	-7.59958E-007	0.0005016	7
	29	290	376.6741	355453.9	-2797356	1	2819849	-82.75836	-8.46298E-008	0.0006847	6
	30	295	298.2954	3294589	-4011794	1	5191225	-50.60627	-7.638454E-009	0.0005424	5
	31	299	237.7717	4381920	-5136848	1	6751921	-49.53461	-6.562207E-009	0.0006374	5
	32	303	189.0121	3370390	-6632236	1	7439495	-63.0611	-8.556384E-009	0.0007727	5
	33	307	150.2404	2184175	-8420055	1	8698732	-75.45791	-9.024559E-009	0.000795	5
	34	311	119.1737	-2581098	-3658679	1	4477499	-125.2019	-8.446494E-009	0.0007933	5
	35	314	95.0169	5923615	-1.178725E+007	1	1.319199E+007	-63.31845	-6.138428E-009	0.0006849	5
	36	318	75.60484	2816128	-1.339816E+007	1	1.369092E+007	-78.12992	-8.64261E-009	0.0007945	5
	37	322	54.50582	3525131	-2.62529E+007	1	2.648851E+007	-82.3523	-8.061611E-009	0.0006612	5
	38	327	45.95588	1.050436E+007	-1.696818E+007	1	1.995647E+007	-58.23992	-8.542706E-008	0.0008037	6
	39	331	37.20238	1.689324E+007	-2.233328E+007	1	2.80028E+007	-52.89557	-9.473048E-009	0.0007902	5
	40	336	30.04808	-1.028589E+007	-1.014847E+007	1	1.44496E+007	-135.3853	-8.734675E-008	0.0008053	6
	41	343	23.91582	1.978101E+007	-4.912939E+007	1	5.296212E+007	-68.06876	-7.016117E-009	0.0005233	5
	42	348	18.60119	2.496347E+007	2.150997E+007	1	3.29523E+007	40.75009	-8.499162E-009	0.0005221	5
	43	353	15.02404	-1.159877E+008	-1.711779E+008	1	2.067729E+008	-124.121	-8.503636E-008	0.0006918	6
	44	357	12.01923	-6760193	-3.527562E+007	1	3.591754E+007	-100.8486	-7.70799E-009	0.0005132	5
	45	363	9.450605	-5.134388E+007	-3.726685E+007	1	6.344298E+007	-144.0268	-8.566577E-008	0.0007714	6
	46	370	7.512019	3.936834E+008	4.359896E+008	1	5.874296E+008	47.91907	-7.248377E-009	0.0006196	5
	47	376	5.978954	8.318384E+008	2.147471E+008	1	8.591108E+008	14.4754	-4.506097E-010	0.0007384	4
	48	383	4.734848	-5.007091E+008	-4.251383E+009	1	4.280767E+009	-96.7171	-5.663925E-012	0.0008804	3
	49	389	3.75601	-4.143923E+009	-9.557023E+008	1	4.252701E+009	-167.0131	2.755493E-011	0.0007047	3
	50	397	3.004808	1.157627E+009	-2.900472E+008	1	1.19341E+009	-14.06608	-3.154791E-010	0.0005452	4
	51	410	2.372217	7.287678E+008	-6.592186E+009	1	6.632346E+009	-83.69155	4.120677E-011	0.0007644	3
	52	419	1.878005	1.071623E+010	-6.337139E+009	1	1.244977E+010	-30.59834	2.351093E-011	0.000698	3
	53	430	1.512097	1.982952E+009	-1.995655E+009	1	2.813314E+009	-45.18293	-4.886212E-012	0.0007229	3
	54	451	1.201923	-2.793452E+009	1.159133E+009	1	3.024394E+009	157.4642	1.444074E-011	0.00071	3
	55	466	0.956633	-3.072333E+009	-6.009342E+009	1	6.749179E+009	-117.0788	4.120472E-011	7.311996E-005	3
