EXPLAIN
TAG	EISPOT
TITLE	LABEL	Potentiostatic EIS	Test Identifier
DATE	LABEL	8/23/2020	Date
TIME	LABEL	18:26:45	Time
NOTES	NOTES	1	Notes...
	
PSTAT	PSTAT	REF3000-16137	Potentiostat
VDC	POTEN	0.00000E+000	T	DC Voltage (V)
FREQINIT	QUANT	3.00000E+005	Initial Freq. (Hz)
FREQFINAL	QUANT	1.00000E+000	Final Freq. (Hz)
PTSPERDEC	QUANT	1.00000E+001	Points/decade
VAC	QUANT	5.00000E+001	AC Voltage (mV rms)
AREA	QUANT	1.00000E+000	Sample Area (cm^2)
SPEED	SELECTOR	2	Optimize for:
ZGUESS	QUANT	1.00000E+003	Estimated Z (ohms)
EOC	QUANT	0	Open Circuit (V)
SEQUENCER	TOGGLE	TRUE	Run as Sequence
PSTATMODEL	IQUANT	5	Pstat Model
PSTATSECTION	LABEL	REF3000-16137	Pstat Section
PSTATSERIALNO	LABEL	16137	Pstat Serial Number
CTRLMODE	IQUANT	1	Control Mode
IESTAB	IQUANT	0	I/E Stability
CASPEED	IQUANT	1	Control Amp Speed
CONVENTION	IQUANT	1	Current Convention
ICHRANGE	IQUANT	2	Ich Range
ICHRANGEMODE	TOGGLE	F	Ich Auto Range
ICHOFFSETENABLE	TOGGLE	T	Ich Offset Enable
ICHOFFSET	QUANT	0	Ich Offset (V)
ICHFILTER	IQUANT	3	Ich Filter
VCHRANGE	IQUANT	2	Vch Range
VCHRANGEMODE	TOGGLE	F	Vch Auto Range
VCHOFFSETENABLE	TOGGLE	T	Vch Offset Enable
VCHOFFSET	QUANT	0	Vch Offset (V)
VCHFILTER	IQUANT	3	Vch Filter
ACHRANGE	IQUANT	2	Ach Range
ACHOFFSETENABLE	TOGGLE	F	Ach Offset Enable
ACHOFFSET	QUANT	0	Ach Offset (V)
ACHFILTER	IQUANT	3	Ach Filter
IERANGELOWERLIMIT	IQUANT	2	I/E Range Lower Limit
IERANGEMODE	TOGGLE	F	I/E AutoRange
IERANGE	IQUANT	11	I/E Range
POSFEEDENABLE	TOGGLE	F	Positive Feedback IR Comp
POSFEEDRESISTANCE	QUANT	0	Positive Feedback Resistance (ohm)
ACHSELECT	IQUANT	0	Ach Select
CABLEID	IQUANT	13	Cable ID
DCCALDATE	LABEL	7/31/2020	DC Calibration Date
ACCALDATE	LABEL	7/31/2020	AC Calibration Date
THERMOSELECT	IQUANT	1	Thermo Select
FRAMEWORKVERSION	QUANT	6.33	Framework Version
INSTRUMENTVERSION	LABEL	3.50	Instrument Version
COMPLIANCEVOLTAGE	IQUANT	0	Compliance Voltage
ZCURVE	TABLE
	Pt	Time	Freq	Zreal	Zimag	Zsig	Zmod	Zphz	Idc	Vdc	IERange
	#	s	Hz	ohm	ohm	V	ohm	°	A	V	#
	0	13	300046.9	260.6506	-23.40481	1	261.6993	-5.131045	1.652068E-005	-0.0012443	9
	1	17	238359.4	260.2834	-27.7313	1	261.7565	-6.081506	-0.0001026	0.0003323	10
	2	22	189328.1	262.9488	-25.09806	1	264.1438	-5.452279	-7.295376E-005	0.002877	9
	3	26	150421.9	265.3537	-25.54208	1	266.5802	-5.498165	7.29431E-005	-0.0016173	9
	4	32	119484.4	266.5125	-28.63486	1	268.0464	-6.132494	-1.182775E-005	-0.001054	9
	5	37	94921.88	269.0687	-31.81615	1	270.9432	-6.743653	-2.113617E-005	0.0009052	9
	6	41	75421.88	271.5467	-35.6794	1	273.8807	-7.485398	-2.160559E-005	0.0004454	9
	7	45	59859.37	274.9139	-41.05206	1	277.9621	-8.493048	1.18357E-005	0.0001772	9
	8	47	47578.12	278.67	-47.06679	1	282.6168	-9.58667	-1.578747E-005	0.0010559	9
	9	51	37828.12	282.8195	-54.2911	1	287.9833	-10.86653	-1.515577E-005	0.0009021	9
	10	54	30046.88	287.3251	-62.43235	1	294.0298	-12.25913	-1.696307E-005	0.000197	9
	11	56	23859.38	292.704	-72.22302	1	301.4826	-13.86054	1.300192E-005	0.000239	9
	12	58	18984.38	298.4214	-84.12119	1	310.0511	-15.74247	-6.833029E-006	0.0008485	9
	13	61	15046.87	305.4001	-98.1504	1	320.7846	-17.81652	2.692722E-005	-0.0004573	9
	14	63	11953.13	311.8198	-114.7394	1	332.26	-20.20195	2.896152E-005	-0.0008851	9
	15	66	9515.62	318.3184	-134.6877	1	345.6406	-22.93432	2.494467E-005	-0.0003018	9
	16	68	7546.875	323.8762	-160.2841	1	361.3679	-26.33049	-2.693115E-006	-0.000311	9
	17	70	5928.309	332.4655	-190.4397	1	383.1456	-29.80453	4.508501E-006	-0.0031564	8
	18	73	4733.456	340.2992	-229.007	1	410.1801	-33.9389	4.948342E-006	-0.0031666	8
	19	75	3796.875	346.0151	-274.6408	1	441.7624	-38.4399	1.24242E-005	-0.0027492	8
	20	77	2987.132	356.053	-338.3749	1	491.1938	-43.54173	-1.143702E-005	0.0044034	8
	21	79	2390.625	367.3675	-413.2009	1	552.8959	-48.36044	-1.254062E-005	0.0037245	8
	22	82	1884.191	383.8588	-507.1039	1	636.0047	-52.87563	7.041951E-005	-0.0142353	8
	23	86	1516.544	400.5467	-618.9549	1	737.2536	-57.09172	9.295366E-005	-0.0308668	8
	24	90	1193.986	427.3398	-768.6192	1	879.4286	-60.92665	8.671121E-005	-0.0151452	8
	25	95	946.5144	454.9662	-954.372	1	1057.271	-64.51204	3.633409E-005	-0.0289128	8
	26	97	751.7689	539.7215	-1154.356	1	1274.298	-64.94146	1.380675E-005	0.0181745	8
	27	100	597.4265	558.8014	-1458.717	1	1562.087	-69.0393	-8.463668E-005	0.0171315	8
	28	103	477.4305	630.4495	-1777.294	1	1885.8	-70.46917	-4.966379E-007	0.0006036	8
	29	105	376.6741	731.8053	-2190.504	1	2309.512	-71.52651	-3.732717E-007	0.0006037	8
	30	107	298.2954	864.5045	-2676.383	1	2812.542	-72.09891	-3.387256E-007	0.0006558	8
	31	110	237.7717	1039.893	-3261.413	1	3423.185	-72.31525	-4.001863E-007	0.0006984	8
	32	112	189.0121	1199.72	-4044.104	1	4218.306	-73.47654	-4.134139E-008	0.0006477	8
	33	115	150.2404	1485.497	-4936.835	1	5155.487	-73.25342	-4.733852E-008	0.0006352	7
	34	117	119.1737	1863.382	-6014.68	1	6296.711	-72.78672	-4.815629E-008	0.0006442	7
	35	119	95.0169	2352.516	-7268.461	1	7639.69	-72.06527	-5.161792E-008	0.0006283	7
	36	122	75.60484	3007.666	-8769.042	1	9270.499	-71.0687	-5.082586E-008	0.0006188	7
	37	125	54.50582	4347.832	-11367.04	1	12170.17	-69.06841	-5.266995E-008	0.0006162	7
	38	127	45.95588	5293.214	-12944.68	1	13985.09	-67.75983	-5.08062E-008	0.0006235	7
	39	129	37.20238	6753.561	-15096.48	1	16538.27	-65.89817	-4.980167E-008	0.0006273	7
	40	132	30.04808	8656.713	-17466.55	1	19494.08	-63.63622	-5.856211E-008	0.0006554	7
	41	134	23.91582	11145.91	-20153.35	1	23030.17	-61.055	-5.679003E-008	0.0006335	7
	42	137	18.60119	14624.37	-23200.97	1	27425.48	-57.77536	-4.500758E-008	0.0006328	7
	43	139	15.02404	18176.2	-25744.13	1	31514.03	-54.77665	-5.407716E-008	0.0006253	7
	44	141	12.01923	22415.22	-28121.84	1	35962.2	-51.44252	-4.984265E-008	0.0006337	7
	45	144	9.450605	27531.01	-30321.24	1	40955.27	-47.76125	-3.338596E-008	0.0006692	6
	46	146	7.512019	32750.68	-31734.3	1	45603.43	-44.09702	-4.11476E-008	0.0007076	6
	47	149	5.978954	38096.04	-32346.73	1	49976.19	-40.33404	-4.542568E-008	0.0006701	6
	48	153	4.734848	43373.25	-32004.7	1	53903.06	-36.42326	-4.972848E-008	0.0006935	6
	49	158	3.75601	48147.59	-31008.16	1	57268.64	-32.78247	-4.86185E-008	0.0006947	6
	50	164	3.004808	52273	-29498.79	1	60022.04	-29.43698	-5.048009E-008	0.0006539	6
	51	170	2.372217	56519.16	-28176.78	1	63153.36	-26.49786	-5.621933E-008	0.0006024	6
	52	174	1.878005	58446.52	-24617.38	1	63419.33	-22.84058	-5.358144E-008	0.0006899	6
	53	183	1.512097	59561.52	-21902.96	1	63461.12	-20.19033	-5.810753E-008	0.0006399	6
	54	194	1.201923	60691.88	-19531.56	1	63757.25	-17.83895	-6.365618E-008	0.0007096	6
	55	207	0.956633	62055.71	-17793.84	1	64556.42	-15.9997	-8.316874E-008	3.90918E-005	6
