EXPLAIN
TAG	EISPOT
TITLE	LABEL	Potentiostatic EIS	Test Identifier
DATE	LABEL	8/23/2020	Date
TIME	LABEL	17:48:05	Time
NOTES	NOTES	1	Notes...
	
PSTAT	PSTAT	REF3000-16137	Potentiostat
VDC	POTEN	0.00000E+000	T	DC Voltage (V)
FREQINIT	QUANT	3.00000E+005	Initial Freq. (Hz)
FREQFINAL	QUANT	1.00000E+000	Final Freq. (Hz)
PTSPERDEC	QUANT	1.00000E+001	Points/decade
VAC	QUANT	5.00000E+001	AC Voltage (mV rms)
AREA	QUANT	1.00000E+000	Sample Area (cm^2)
SPEED	SELECTOR	2	Optimize for:
ZGUESS	QUANT	1.00000E+003	Estimated Z (ohms)
EOC	QUANT	0	Open Circuit (V)
SEQUENCER	TOGGLE	TRUE	Run as Sequence
PSTATMODEL	IQUANT	5	Pstat Model
PSTATSECTION	LABEL	REF3000-16137	Pstat Section
PSTATSERIALNO	LABEL	16137	Pstat Serial Number
CTRLMODE	IQUANT	1	Control Mode
IESTAB	IQUANT	0	I/E Stability
CASPEED	IQUANT	1	Control Amp Speed
CONVENTION	IQUANT	1	Current Convention
ICHRANGE	IQUANT	2	Ich Range
ICHRANGEMODE	TOGGLE	F	Ich Auto Range
ICHOFFSETENABLE	TOGGLE	T	Ich Offset Enable
ICHOFFSET	QUANT	0	Ich Offset (V)
ICHFILTER	IQUANT	3	Ich Filter
VCHRANGE	IQUANT	2	Vch Range
VCHRANGEMODE	TOGGLE	F	Vch Auto Range
VCHOFFSETENABLE	TOGGLE	T	Vch Offset Enable
VCHOFFSET	QUANT	0	Vch Offset (V)
VCHFILTER	IQUANT	3	Vch Filter
ACHRANGE	IQUANT	2	Ach Range
ACHOFFSETENABLE	TOGGLE	F	Ach Offset Enable
ACHOFFSET	QUANT	0	Ach Offset (V)
ACHFILTER	IQUANT	3	Ach Filter
IERANGELOWERLIMIT	IQUANT	2	I/E Range Lower Limit
IERANGEMODE	TOGGLE	F	I/E AutoRange
IERANGE	IQUANT	11	I/E Range
POSFEEDENABLE	TOGGLE	F	Positive Feedback IR Comp
POSFEEDRESISTANCE	QUANT	0	Positive Feedback Resistance (ohm)
ACHSELECT	IQUANT	0	Ach Select
CABLEID	IQUANT	13	Cable ID
DCCALDATE	LABEL	7/31/2020	DC Calibration Date
ACCALDATE	LABEL	7/31/2020	AC Calibration Date
THERMOSELECT	IQUANT	1	Thermo Select
FRAMEWORKVERSION	QUANT	6.33	Framework Version
INSTRUMENTVERSION	LABEL	3.50	Instrument Version
COMPLIANCEVOLTAGE	IQUANT	0	Compliance Voltage
ZCURVE	TABLE
	Pt	Time	Freq	Zreal	Zimag	Zsig	Zmod	Zphz	Idc	Vdc	IERange
	#	s	Hz	ohm	ohm	V	ohm	°	A	V	#
	0	10	300046.9	263.5025	-22.94671	1	264.4998	-4.97696	7.703128E-005	-0.0025428	9
	1	14	238359.4	263.8229	-28.25651	1	265.3318	-6.113306	-0.0000962	-9.098488E-006	10
	2	18	189328.1	265.6292	-24.94003	1	266.7974	-5.363799	-3.995893E-005	-0.0002486	9
	3	25	150421.9	266.8136	-29.02864	1	268.3881	-6.209213	-9.029681E-005	0.0001332	10
	4	30	119484.4	269.8524	-28.95495	1	271.4014	-6.124361	1.134675E-005	0.0011553	9
	5	34	94921.88	271.7683	-32.02514	1	273.6487	-6.720732	-1.135182E-005	-2.651357E-005	9
	6	37	75421.88	274.6318	-36.1177	1	276.9966	-7.492154	-2.009279E-005	0.0009649	9
	7	39	59859.37	277.9457	-41.13925	1	280.9738	-8.419326	-2.574572E-005	0.0007511	9
	8	43	47578.12	281.3247	-47.17311	1	285.2523	-9.51892	2.616069E-005	-0.0008047	9
	9	47	37828.12	285.7296	-54.33019	1	290.8491	-10.76601	2.769028E-005	-0.0005398	9
	10	49	30046.88	290.7549	-62.93222	1	297.4876	-12.21295	1.360094E-005	0.0002062	9
	11	52	23859.38	295.808	-72.74689	1	304.6219	-13.81634	-1.697055E-005	0.0001787	9
	12	54	18984.38	301.9324	-84.41742	1	313.5115	-15.62049	2.197319E-005	-0.0008079	9
	13	56	15046.87	308.5454	-97.7538	1	323.6604	-17.57932	-1.166475E-005	-2.093125E-005	9
	14	59	11953.13	315.4585	-114.7517	1	335.6814	-19.98945	-2.143349E-005	0.0009359	9
	15	61	9515.62	322.3235	-134.0556	1	349.0893	-22.58262	-1.157639E-005	-4.548889E-006	9
	16	63	7546.875	329.2137	-159.6239	1	365.8708	-25.86709	-2.057273E-005	0.0004135	9
	17	66	5928.309	338.047	-190.7283	1	388.1405	-29.43197	-2.535142E-005	0.0007671	9
	18	68	4733.456	344.9186	-227.9714	1	413.4486	-33.46241	1.26287E-005	0.000199	9
	19	71	3796.875	351.3699	-272.8219	1	444.8512	-37.82763	-5.087009E-006	-0.0001993	8
	20	73	2987.132	360.3152	-333.2659	1	490.8087	-42.76663	6.473155E-006	0.0010672	8
	21	75	2390.625	371.0781	-406.9201	1	550.7113	-47.63772	9.90966E-006	-0.0007031	8
	22	78	1884.191	385.0775	-502.4108	1	633.0096	-52.5313	6.655021E-006	0.0008689	8
	23	80	1516.544	400.6039	-615.7506	1	734.5967	-56.9522	-9.002831E-006	0.0051626	8
	24	82	1193.986	423.8913	-761.8472	1	871.8342	-60.90846	-9.171337E-006	0.0017867	8
	25	85	946.5144	452.3928	-942.5041	1	1045.454	-64.35944	4.306243E-007	-0.0021019	8
	26	87	751.7689	493.0162	-1164.647	1	1264.701	-67.05618	8.255563E-006	-0.0036793	8
	27	90	597.4265	546.8203	-1434.071	1	1534.788	-69.12784	-1.134258E-005	0.0043844	8
	28	93	477.4305	611.2409	-1756.554	1	1859.865	-70.81326	-1.014959E-007	0.0006577	8
	29	95	376.6741	705.3402	-2173.131	1	2284.732	-72.01795	-1.062357E-007	0.0006548	8
	30	97	298.2954	828.158	-2674.192	1	2799.49	-72.79301	-1.173198E-007	0.0006572	8
	31	100	237.7717	986.622	-3265.3	1	3411.101	-73.18763	-8.496836E-008	0.0006551	8
	32	102	189.0121	1197.127	-3988.911	1	4164.676	-73.29478	-8.509958E-008	0.0006533	8
	33	104	150.2404	1479.76	-4871.816	1	5091.589	-73.10442	-6.472843E-008	0.0006294	7
	34	107	119.1737	1855.391	-5936.616	1	6219.798	-72.64423	-6.430436E-008	0.0006411	7
	35	109	95.0169	2335.055	-7175.148	1	7545.544	-71.97322	-5.694791E-008	0.0006241	7
	36	112	75.60484	2985.671	-8658.502	1	9158.814	-70.97451	-5.852306E-008	0.0006234	7
	37	114	54.50582	4318.354	-11219.16	1	12021.55	-68.94784	-6.114584E-008	0.0006304	7
	38	117	45.95588	5247.669	-12788.39	1	13823.2	-67.68938	-5.756271E-008	0.0006554	7
	39	119	37.20238	6713.864	-14900.16	1	16342.91	-65.74414	-6.038997E-008	0.0006349	7
	40	122	30.04808	8595.796	-17210.11	1	19237.35	-63.45961	-5.781402E-008	0.0006435	7
	41	124	23.91582	11088.43	-19903.44	1	22783.77	-60.87732	-5.901354E-008	0.0006318	7
	42	126	18.60119	14565.25	-22806.88	1	27061.04	-57.43632	-5.32149E-008	0.000625	7
	43	129	15.02404	18075.37	-25271.29	1	31070.2	-54.42564	-5.943768E-008	0.0006216	7
	44	131	12.01923	22272.71	-27646	1	35501.75	-51.14371	-5.645689E-008	0.000637	7
	45	134	9.450605	27282.39	-29620.59	1	40270.43	-47.35301	-5.814783E-008	0.0006581	7
	46	136	7.512019	32469.28	-30978.42	1	44876.68	-43.65394	-4.432669E-008	0.0006823	6
	47	139	5.978954	37726.25	-31341.81	1	49046.71	-39.71876	-5.359554E-008	0.0006778	6
	48	143	4.734848	42894.4	-31040.45	1	52947.51	-35.8913	-5.077739E-008	0.0006888	6
	49	148	3.75601	47663.36	-30005.97	1	56321.88	-32.19204	-5.537878E-008	0.0006808	6
	50	154	3.004808	51634.95	-28419.61	1	58939.31	-28.82816	-5.949535E-008	0.0007286	6
	51	160	2.372217	55065.99	-26191.03	1	60977.32	-25.43716	-5.528038E-008	0.0007024	6
	52	168	1.878005	57016.13	-22916.22	1	61449.1	-21.89644	-5.893988E-008	0.0006636	6
	53	177	1.512097	58506.41	-20712.75	1	62064.63	-19.49525	-6.263295E-008	0.0007675	6
	54	188	1.201923	59534.11	-18359.7	1	62300.79	-17.13922	-6.502359E-008	0.0006594	6
	55	200	0.956633	60978.19	-16480.24	1	63165.96	-15.1237	-8.80572E-008	3.790331E-005	6
