EXPLAIN
TAG	EISPOT
TITLE	LABEL	Potentiostatic EIS	Test Identifier
DATE	LABEL	8/23/2020	Date
TIME	LABEL	16:55:04	Time
NOTES	NOTES	1	Notes...
	
PSTAT	PSTAT	REF3000-16137	Potentiostat
VDC	POTEN	0.00000E+000	T	DC Voltage (V)
FREQINIT	QUANT	3.00000E+005	Initial Freq. (Hz)
FREQFINAL	QUANT	1.00000E+000	Final Freq. (Hz)
PTSPERDEC	QUANT	1.00000E+001	Points/decade
VAC	QUANT	5.00000E+001	AC Voltage (mV rms)
AREA	QUANT	1.00000E+000	Sample Area (cm^2)
SPEED	SELECTOR	2	Optimize for:
ZGUESS	QUANT	1.00000E+003	Estimated Z (ohms)
EOC	QUANT	0	Open Circuit (V)
SEQUENCER	TOGGLE	TRUE	Run as Sequence
PSTATMODEL	IQUANT	5	Pstat Model
PSTATSECTION	LABEL	REF3000-16137	Pstat Section
PSTATSERIALNO	LABEL	16137	Pstat Serial Number
CTRLMODE	IQUANT	1	Control Mode
IESTAB	IQUANT	0	I/E Stability
CASPEED	IQUANT	1	Control Amp Speed
CONVENTION	IQUANT	1	Current Convention
ICHRANGE	IQUANT	2	Ich Range
ICHRANGEMODE	TOGGLE	F	Ich Auto Range
ICHOFFSETENABLE	TOGGLE	T	Ich Offset Enable
ICHOFFSET	QUANT	0	Ich Offset (V)
ICHFILTER	IQUANT	3	Ich Filter
VCHRANGE	IQUANT	2	Vch Range
VCHRANGEMODE	TOGGLE	F	Vch Auto Range
VCHOFFSETENABLE	TOGGLE	T	Vch Offset Enable
VCHOFFSET	QUANT	0	Vch Offset (V)
VCHFILTER	IQUANT	3	Vch Filter
ACHRANGE	IQUANT	2	Ach Range
ACHOFFSETENABLE	TOGGLE	F	Ach Offset Enable
ACHOFFSET	QUANT	0	Ach Offset (V)
ACHFILTER	IQUANT	3	Ach Filter
IERANGELOWERLIMIT	IQUANT	2	I/E Range Lower Limit
IERANGEMODE	TOGGLE	F	I/E AutoRange
IERANGE	IQUANT	11	I/E Range
POSFEEDENABLE	TOGGLE	F	Positive Feedback IR Comp
POSFEEDRESISTANCE	QUANT	0	Positive Feedback Resistance (ohm)
ACHSELECT	IQUANT	0	Ach Select
CABLEID	IQUANT	13	Cable ID
DCCALDATE	LABEL	7/31/2020	DC Calibration Date
ACCALDATE	LABEL	7/31/2020	AC Calibration Date
THERMOSELECT	IQUANT	1	Thermo Select
FRAMEWORKVERSION	QUANT	6.33	Framework Version
INSTRUMENTVERSION	LABEL	3.50	Instrument Version
COMPLIANCEVOLTAGE	IQUANT	0	Compliance Voltage
ZCURVE	TABLE
	Pt	Time	Freq	Zreal	Zimag	Zsig	Zmod	Zphz	Idc	Vdc	IERange
	#	s	Hz	ohm	ohm	V	ohm	°	A	V	#
	0	15	300046.9	261.42	-47.8532	1	265.7637	-10.37321	-8.017612E-006	0.0025649	10
	1	29	238359.4	263.3022	-50.26754	1	268.0576	-10.80839	-0.0005281	-0.0004011	10
	2	43	189328.1	270.6028	-29.94761	1	272.2549	-6.315225	-0.0005837	0.0303556	9
	3	50	150421.9	270.8574	-40.1523	1	273.8173	-8.432202	3.142473E-005	0.0026723	10
	4	58	119484.4	273.0821	-41.93842	1	276.2837	-8.730951	-0.0005042	0.0066895	10
	5	65	94921.88	276.4773	-35.24774	1	278.7151	-7.265373	0.0002214	-0.0026889	9
	6	73	75421.88	280.446	-39.03288	1	283.1493	-7.923606	-0.0002112	0.0027032	9
	7	77	59859.37	283.4587	-45.33213	1	287.0607	-9.086087	0.0002651	-0.0075544	9
	8	82	47578.12	287.057	-51.13703	1	291.5763	-10.10085	0.0002594	-0.0056129	9
	9	87	37828.12	292.1233	-61.00717	1	298.4257	-11.79614	5.394702E-005	-0.0005394	10
	10	94	30046.88	296.904	-66.08053	1	304.1687	-12.54754	-7.944056E-005	-0.0034038	9
	11	100	23859.38	304.1671	-79.02925	1	314.2662	-14.56465	-0.0001525	0.0019978	10
	12	105	18984.38	309.3978	-89.78465	1	322.1619	-16.18229	0.0002173	-0.0005987	10
	13	111	15046.87	317.4796	-101.5107	1	333.3132	-17.73113	-7.928514E-005	-0.003412	9
	14	116	11953.13	324.3508	-118.6175	1	345.36	-20.08784	3.770436E-006	-0.0061255	9
	15	121	9515.62	333.4815	-137.2697	1	360.6284	-22.37334	0.0001587	-0.0093193	9
	16	126	7546.875	341.7119	-161.0385	1	377.7571	-25.23309	-0.0002114	0.0027337	9
	17	132	5928.309	349.1571	-193.5968	1	399.2373	-29.00702	-0.0001656	0.0095791	9
	18	137	4733.456	358.053	-226.7514	1	423.8138	-32.34567	0.0002143	-0.0094976	9
	19	143	3796.875	367.0538	-272.4777	1	457.1352	-36.58787	0.0001542	0.0006503	9
	20	148	2987.132	378.0703	-334.3759	1	504.7221	-41.49044	-0.0002161	0.0095496	9
	21	153	2390.625	388.432	-403.3063	1	559.9423	-46.07628	8.564335E-005	-0.0080413	9
	22	159	1884.191	403.3601	-497.0425	1	640.1176	-50.93997	0.0002183	-0.002647	9
	23	164	1516.544	431.4095	-601.0869	1	739.8781	-54.33241	-0.0002442	0.0086807	9
	24	169	1193.986	447.4411	-743.5096	1	867.7616	-58.96064	0.0002616	-0.0073914	9
	25	176	946.5144	492.0908	-957.15	1	1076.238	-62.79135	0.0002672	-0.0074251	9
	26	181	751.7689	541.1818	-1104.742	1	1230.176	-63.90107	-9.190752E-005	0.0086031	9
	27	186	597.4265	546.8879	-1378.354	1	1482.884	-68.35836	-0.0001604	0.0095359	9
	28	191	477.4305	642.1699	-1708.195	1	1824.914	-69.39701	1.566055E-007	9.280235E-005	9
	29	193	376.6741	743.7047	-2106.14	1	2233.59	-70.55123	-3.617708E-007	0.0005916	8
	30	195	298.2954	878.251	-2591.757	1	2736.518	-71.28037	-4.189449E-007	0.0006267	8
	31	198	237.7717	1046.477	-3160.25	1	3329.008	-71.67836	-3.90893E-007	0.0006023	8
	32	200	189.0121	1266.665	-3840.23	1	4043.737	-71.74533	-3.502737E-007	0.0006132	8
	33	203	150.2404	1627.01	-4747.13	1	5018.207	-71.0816	-1.799046E-007	0.0005637	7
	34	205	119.1737	2031.819	-5698.159	1	6049.57	-70.37505	-1.665436E-007	0.0006608	7
	35	207	95.0169	2549.245	-6872.578	1	7330.142	-69.64867	-1.735555E-007	0.0007056	7
	36	210	75.60484	3276.435	-8264.201	1	8889.997	-68.3736	-1.631957E-007	0.0005782	7
	37	212	54.50582	4704.948	-10520.97	1	11525.07	-65.90594	-1.624895E-007	0.0007029	7
	38	215	45.95588	5732.49	-11941.29	1	13245.97	-64.35638	-1.692215E-007	0.0007124	7
	39	217	37.20238	7202.496	-13621.63	1	15408.59	-62.13215	-1.473092E-007	0.0005615	7
	40	220	30.04808	9184.661	-15608.65	1	18110.44	-59.52599	-1.6785E-007	0.0006796	7
	41	223	23.91582	11584.42	-17497.42	1	20984.72	-56.49287	-1.446876E-007	0.000553	7
	42	225	18.60119	14984.28	-19736.88	1	24780.5	-52.79416	-1.736686E-007	0.0006978	7
	43	228	15.02404	18110.34	-21319.92	1	27973.62	-49.65356	-1.526185E-007	0.0005511	7
	44	230	12.01923	21789.43	-22652.55	1	31431.15	-46.11261	-1.686732E-007	0.0006009	7
	45	233	9.450605	26048.32	-23760.94	1	35257.58	-42.37066	-1.56068E-007	0.0005693	7
	46	235	7.512019	30169.05	-24104.53	1	38616.05	-38.62423	-1.64334E-007	0.0005653	7
	47	238	5.978954	34259.87	-23672.06	1	41642.59	-34.64277	-1.15997E-007	0.0006199	6
	48	243	4.734848	37963.84	-22915.72	1	44343.92	-31.11601	-1.152644E-007	0.0007799	6
	49	246	3.75601	41102.07	-21529.33	1	46399.27	-27.64562	-1.188194E-007	0.0007463	6
	50	252	3.004808	43573.38	-19976.87	1	47934.48	-24.6298	-1.190848E-007	0.0005821	6
	51	258	2.372217	45854.75	-18344.98	1	49388.22	-21.80473	-1.286433E-007	0.0006046	6
	52	266	1.878005	46868.71	-16105.13	1	49558.56	-18.96386	-1.294014E-007	0.0006906	6
	53	275	1.512097	47732.05	-14570.64	1	49906.43	-16.97528	-1.333233E-007	0.0006065	6
	54	285	1.201923	48611.51	-13196.02	1	50370.76	-15.18745	-1.39016E-007	0.0007125	6
	55	298	0.956633	49239.24	-11827.3	1	50639.79	-13.50661	-1.58427E-007	4.569181E-005	6
