EXPLAIN
TAG	EISPOT
TITLE	LABEL	Potentiostatic EIS	Test Identifier
DATE	LABEL	8/23/2020	Date
TIME	LABEL	18:33:49	Time
NOTES	NOTES	1	Notes...
	
PSTAT	PSTAT	REF3000-16137	Potentiostat
VDC	POTEN	0.00000E+000	T	DC Voltage (V)
FREQINIT	QUANT	3.00000E+005	Initial Freq. (Hz)
FREQFINAL	QUANT	1.00000E+000	Final Freq. (Hz)
PTSPERDEC	QUANT	1.00000E+001	Points/decade
VAC	QUANT	5.00000E+001	AC Voltage (mV rms)
AREA	QUANT	1.00000E+000	Sample Area (cm^2)
SPEED	SELECTOR	2	Optimize for:
ZGUESS	QUANT	1.00000E+003	Estimated Z (ohms)
EOC	QUANT	0	Open Circuit (V)
SEQUENCER	TOGGLE	TRUE	Run as Sequence
PSTATMODEL	IQUANT	5	Pstat Model
PSTATSECTION	LABEL	REF3000-16137	Pstat Section
PSTATSERIALNO	LABEL	16137	Pstat Serial Number
CTRLMODE	IQUANT	1	Control Mode
IESTAB	IQUANT	0	I/E Stability
CASPEED	IQUANT	1	Control Amp Speed
CONVENTION	IQUANT	1	Current Convention
ICHRANGE	IQUANT	2	Ich Range
ICHRANGEMODE	TOGGLE	F	Ich Auto Range
ICHOFFSETENABLE	TOGGLE	T	Ich Offset Enable
ICHOFFSET	QUANT	0	Ich Offset (V)
ICHFILTER	IQUANT	3	Ich Filter
VCHRANGE	IQUANT	2	Vch Range
VCHRANGEMODE	TOGGLE	F	Vch Auto Range
VCHOFFSETENABLE	TOGGLE	T	Vch Offset Enable
VCHOFFSET	QUANT	0	Vch Offset (V)
VCHFILTER	IQUANT	3	Vch Filter
ACHRANGE	IQUANT	2	Ach Range
ACHOFFSETENABLE	TOGGLE	F	Ach Offset Enable
ACHOFFSET	QUANT	0	Ach Offset (V)
ACHFILTER	IQUANT	3	Ach Filter
IERANGELOWERLIMIT	IQUANT	2	I/E Range Lower Limit
IERANGEMODE	TOGGLE	F	I/E AutoRange
IERANGE	IQUANT	11	I/E Range
POSFEEDENABLE	TOGGLE	F	Positive Feedback IR Comp
POSFEEDRESISTANCE	QUANT	0	Positive Feedback Resistance (ohm)
ACHSELECT	IQUANT	0	Ach Select
CABLEID	IQUANT	13	Cable ID
DCCALDATE	LABEL	7/31/2020	DC Calibration Date
ACCALDATE	LABEL	7/31/2020	AC Calibration Date
THERMOSELECT	IQUANT	1	Thermo Select
FRAMEWORKVERSION	QUANT	6.33	Framework Version
INSTRUMENTVERSION	LABEL	3.50	Instrument Version
COMPLIANCEVOLTAGE	IQUANT	0	Compliance Voltage
ZCURVE	TABLE
	Pt	Time	Freq	Zreal	Zimag	Zsig	Zmod	Zphz	Idc	Vdc	IERange
	#	s	Hz	ohm	ohm	V	ohm	°	A	V	#
	0	8	300046.9	261.2213	-23.48514	1	262.2749	-5.137373	2.200636E-005	-0.0012914	9
	1	12	238359.4	260.0749	-27.53003	1	261.5279	-6.042499	7.812461E-005	0.000403	10
	2	17	189328.1	262.9596	-28.01897	1	264.4481	-6.082054	-2.277729E-005	0.0005744	10
	3	21	150421.9	264.1512	-28.45262	1	265.6792	-6.147818	2.867273E-005	0.0008365	10
	4	26	119484.4	266.666	-28.25558	1	268.1588	-6.048419	1.860324E-005	-0.0015317	9
	5	30	94921.88	268.2545	-31.78824	1	270.1314	-6.758053	6.018748E-006	-0.0005501	9
	6	33	75421.88	271.3189	-36.12618	1	273.7135	-7.584335	-2.429763E-005	0.00086	9
	7	36	59859.37	274.3936	-40.94567	1	277.4318	-8.487185	2.790929E-005	-0.0006534	9
	8	40	47578.12	278.0688	-47.27313	1	282.0585	-9.64833	1.422599E-005	-0.0007214	9
	9	43	37828.12	282.2723	-54.47621	1	287.481	-10.92332	-1.150598E-005	-1.981826E-005	9
	10	45	30046.88	286.7382	-62.68348	1	293.5098	-12.33137	-1.154232E-005	-1.06621E-005	9
	11	48	23859.38	292.2538	-72.18243	1	301.0358	-13.87357	-2.413892E-005	0.0005366	9
	12	50	18984.38	298.0795	-83.83725	1	309.6451	-15.70906	1.449645E-005	-0.0007348	9
	13	52	15046.87	304.3663	-97.5976	1	319.6312	-17.77888	2.122587E-005	-0.0008065	9
	14	55	11953.13	311.6867	-114.6829	1	332.1156	-20.20074	1.544067E-005	-0.0007755	9
	15	57	9515.62	317.992	-134.5083	1	345.2701	-22.92801	-1.140929E-005	-3.025299E-006	9
	16	59	7546.875	325.0142	-159.3703	1	361.9849	-26.12096	-1.442128E-005	0.000192	9
	17	62	5928.309	332.7372	-191.9751	1	384.1464	-29.9831	-1.10179E-005	-2.60523E-005	9
	18	65	4733.456	338.7605	-229.04	1	408.923	-34.0631	-8.613007E-006	0.0049218	8
	19	67	3796.875	346.0977	-275.2633	1	442.2143	-38.49643	7.538508E-006	-0.0034938	8
	20	69	2987.132	355.8171	-338.2287	1	490.922	-43.54833	-1.170195E-005	0.0037737	8
	21	72	2390.625	366.2553	-413.0773	1	552.0651	-48.43818	1.912965E-006	0.0026599	8
	22	74	1884.191	379.7581	-510.6622	1	636.3899	-53.36337	6.109201E-007	-0.002023	8
	23	76	1516.544	396.9858	-622.0284	1	737.914	-57.45351	4.594601E-006	-0.003157	8
	24	79	1193.986	420.5856	-774.5281	1	881.3547	-61.49708	1.18736E-005	-0.0033596	8
	25	81	946.5144	448.457	-960.947	1	1060.44	-64.98238	-1.127134E-005	0.004329	8
	26	84	751.7689	489.7579	-1181.151	1	1278.664	-67.47893	1.220095E-005	-0.0020313	8
	27	87	597.4265	540.0777	-1458.089	1	1554.898	-69.67532	2.206458E-006	0.002546	8
	28	89	477.4305	610.6073	-1784.461	1	1886.039	-71.11006	-1.071032E-007	0.0006559	8
	29	92	376.6741	706.8487	-2207.375	1	2317.788	-72.24383	-7.987498E-008	0.0006561	8
	30	94	298.2954	832.7535	-2716.052	1	2840.848	-72.95423	-1.039355E-007	0.000665	8
	31	96	237.7717	994.09	-3316.066	1	3461.865	-73.31233	-1.028911E-007	0.0006629	8
	32	99	189.0121	1209.539	-4049.725	1	4226.495	-73.37059	-7.086343E-008	0.0006508	8
	33	101	150.2404	1498.923	-4944.28	1	5166.496	-73.13464	-6.426101E-008	0.0006258	7
	34	104	119.1737	1875.521	-6019.073	1	6304.508	-72.69316	-6.132477E-008	0.0006428	7
	35	106	95.0169	2371.288	-7275.153	1	7651.854	-71.94697	-5.96774E-008	0.0006341	7
	36	109	75.60484	3031.007	-8776.671	1	9285.309	-70.94774	-5.871209E-008	0.0006514	7
	37	111	54.50582	4382.234	-11367.26	1	12182.72	-68.91767	-5.823948E-008	0.0006165	7
	38	114	45.95588	5332.442	-12938.72	1	13994.47	-67.60194	-5.314535E-008	0.000625	7
	39	116	37.20238	6803.906	-15092.4	1	16555.17	-65.73335	-5.083687E-008	0.0006305	7
	40	118	30.04808	8707.9	-17442.43	1	19495.28	-63.46994	-5.289391E-008	0.0006174	7
	41	121	23.91582	11240.42	-20122.73	1	23049.32	-60.81256	-4.773345E-008	0.000622	7
	42	123	18.60119	14714.82	-23165.52	1	27443.89	-57.57613	-5.301178E-008	0.0006432	7
	43	125	15.02404	18248.76	-25628.03	1	31461.29	-54.54675	-6.115179E-008	0.0006651	7
	44	128	12.01923	22507.12	-27931.59	1	35871.22	-51.13833	-5.747869E-008	0.00065	7
	45	130	9.450605	27586.28	-30145.93	1	40862.94	-47.53863	-4.693299E-008	0.0006912	6
	46	133	7.512019	32804.72	-31451.16	1	45445.85	-43.79324	-4.995749E-008	0.0006859	6
	47	136	5.978954	38062.54	-31913.68	1	49671.32	-39.97828	-4.830606E-008	0.0006897	6
	48	140	4.734848	43285.59	-31679.55	1	53639.88	-36.19939	-4.988375E-008	0.0006863	6
	49	145	3.75601	48073.86	-30740.81	1	57062.18	-32.59687	-5.306659E-008	0.0007043	6
	50	150	3.004808	52162.55	-29256.66	1	59807.05	-29.28696	-5.323533E-008	0.0006843	6
	51	157	2.372217	56313.9	-27863.06	1	62829.97	-26.32534	-5.578218E-008	0.0007347	6
	52	161	1.878005	58357.27	-24427.47	1	63263.51	-22.71345	-6.029505E-008	0.0006654	6
	53	170	1.512097	59571.83	-21914.7	1	63474.85	-20.19706	-6.058714E-008	0.0006638	6
	54	181	1.201923	60558.21	-19464.13	1	63609.34	-17.81803	-6.271016E-008	0.0006543	6
	55	194	0.956633	62014.29	-17578.95	1	64457.67	-15.82624	-7.80114E-008	4.123352E-005	6
