EXPLAIN
TAG	EISPOT
TITLE	LABEL	Potentiostatic EIS	Test Identifier
DATE	LABEL	8/23/2020	Date
TIME	LABEL	18:37:13	Time
NOTES	NOTES	1	Notes...
	
PSTAT	PSTAT	REF3000-16137	Potentiostat
VDC	POTEN	0.00000E+000	T	DC Voltage (V)
FREQINIT	QUANT	3.00000E+005	Initial Freq. (Hz)
FREQFINAL	QUANT	1.00000E+000	Final Freq. (Hz)
PTSPERDEC	QUANT	1.00000E+001	Points/decade
VAC	QUANT	5.00000E+001	AC Voltage (mV rms)
AREA	QUANT	1.00000E+000	Sample Area (cm^2)
SPEED	SELECTOR	2	Optimize for:
ZGUESS	QUANT	1.00000E+003	Estimated Z (ohms)
EOC	QUANT	0	Open Circuit (V)
SEQUENCER	TOGGLE	TRUE	Run as Sequence
PSTATMODEL	IQUANT	5	Pstat Model
PSTATSECTION	LABEL	REF3000-16137	Pstat Section
PSTATSERIALNO	LABEL	16137	Pstat Serial Number
CTRLMODE	IQUANT	1	Control Mode
IESTAB	IQUANT	0	I/E Stability
CASPEED	IQUANT	1	Control Amp Speed
CONVENTION	IQUANT	1	Current Convention
ICHRANGE	IQUANT	2	Ich Range
ICHRANGEMODE	TOGGLE	F	Ich Auto Range
ICHOFFSETENABLE	TOGGLE	T	Ich Offset Enable
ICHOFFSET	QUANT	0	Ich Offset (V)
ICHFILTER	IQUANT	3	Ich Filter
VCHRANGE	IQUANT	2	Vch Range
VCHRANGEMODE	TOGGLE	F	Vch Auto Range
VCHOFFSETENABLE	TOGGLE	T	Vch Offset Enable
VCHOFFSET	QUANT	0	Vch Offset (V)
VCHFILTER	IQUANT	3	Vch Filter
ACHRANGE	IQUANT	2	Ach Range
ACHOFFSETENABLE	TOGGLE	F	Ach Offset Enable
ACHOFFSET	QUANT	0	Ach Offset (V)
ACHFILTER	IQUANT	3	Ach Filter
IERANGELOWERLIMIT	IQUANT	2	I/E Range Lower Limit
IERANGEMODE	TOGGLE	F	I/E AutoRange
IERANGE	IQUANT	11	I/E Range
POSFEEDENABLE	TOGGLE	F	Positive Feedback IR Comp
POSFEEDRESISTANCE	QUANT	0	Positive Feedback Resistance (ohm)
ACHSELECT	IQUANT	0	Ach Select
CABLEID	IQUANT	13	Cable ID
DCCALDATE	LABEL	7/31/2020	DC Calibration Date
ACCALDATE	LABEL	7/31/2020	AC Calibration Date
THERMOSELECT	IQUANT	1	Thermo Select
FRAMEWORKVERSION	QUANT	6.33	Framework Version
INSTRUMENTVERSION	LABEL	3.50	Instrument Version
COMPLIANCEVOLTAGE	IQUANT	0	Compliance Voltage
ZCURVE	TABLE
	Pt	Time	Freq	Zreal	Zimag	Zsig	Zmod	Zphz	Idc	Vdc	IERange
	#	s	Hz	ohm	ohm	V	ohm	°	A	V	#
	0	8	300046.9	259.9396	-22.29536	1	260.894	-4.902337	-8.624894E-005	0.0021731	9
	1	14	238359.4	260.2781	-24.7798	1	261.455	-5.438457	1.260213E-005	0.0009393	9
	2	21	189328.1	262.0869	-27.8778	1	263.5654	-6.071638	-2.38822E-005	0.0004464	10
	3	25	150421.9	264.2676	-25.54288	1	265.4992	-5.520795	3.410073E-005	0.000416	9
	4	29	119484.4	266.1673	-28.59578	1	267.699	-6.132072	1.774514E-005	-0.0010086	9
	5	33	94921.88	268.326	-31.67	1	270.1886	-6.731367	-2.167703E-005	0.0006077	9
	6	37	75421.88	270.8947	-35.88032	1	273.2605	-7.544978	2.715744E-005	-0.000563	9
	7	41	59859.37	274.0773	-41.06001	1	277.1359	-8.520217	2.4254E-005	-0.0002199	9
	8	43	47578.12	277.7998	-47.19662	1	281.7805	-9.64216	1.675902E-005	-0.0006929	9
	9	46	37828.12	281.5594	-54.84729	1	286.8517	-11.02308	2.673197E-005	-0.0006044	9
	10	50	30046.88	286.8063	-62.61269	1	293.5613	-12.31503	2.498384E-005	-0.0003337	9
	11	52	23859.38	291.8582	-72.16116	1	300.6467	-13.88771	1.751075E-005	-5.625893E-005	9
	12	55	18984.38	297.7248	-83.9798	1	309.3423	-15.75227	-2.102612E-005	0.0010089	9
	13	57	15046.87	304.962	-97.839	1	320.2722	-17.78746	2.64687E-005	-0.0005189	9
	14	59	11953.13	311.062	-114.857	1	331.5897	-20.26624	-5.443525E-006	0.0007911	9
	15	62	9515.62	317.8003	-134.6242	1	345.1387	-22.95813	2.467385E-005	-0.0003098	9
	16	64	7546.875	324.0819	-159.8234	1	361.3483	-26.25055	-2.285898E-006	-0.0003197	9
	17	66	5928.309	330.9449	-191.2664	1	382.2399	-30.02535	1.182836E-005	-0.0033371	8
	18	69	4733.456	337.9627	-229.2732	1	408.3932	-34.15288	1.175396E-005	-0.0020206	8
	19	71	3796.875	346.069	-275.0027	1	442.0297	-38.47231	1.020391E-005	-0.0037319	8
	20	73	2987.132	355.6715	-338.435	1	490.9587	-43.57748	-3.027051E-006	-0.0010025	8
	21	76	2390.625	366.0927	-412.6134	1	551.61	-48.41885	7.825803E-006	-0.0036336	8
	22	78	1884.191	378.8141	-512.457	1	637.2693	-53.52776	-9.67198E-006	0.0020181	8
	23	80	1516.544	397.295	-623.011	1	738.9086	-57.47429	-1.172133E-005	0.0044125	8
	24	83	1193.986	418.5358	-775.2248	1	880.9913	-61.63585	1.140847E-005	-0.0032543	8
	25	85	946.5144	450.2313	-960.923	1	1061.169	-64.895	6.572643E-006	0.0009547	8
	26	88	751.7689	487.9194	-1182.586	1	1279.287	-67.5796	9.708019E-006	-0.0005974	8
	27	91	597.4265	543.5429	-1461.089	1	1558.916	-69.59418	-1.054254E-005	0.0049234	8
	28	93	477.4305	610.7709	-1786.139	1	1887.679	-71.12186	-9.399661E-008	0.0006634	8
	29	95	376.6741	707.0079	-2209.526	1	2319.885	-72.25628	-1.014792E-007	0.0006536	8
	30	98	298.2954	832.4082	-2718.892	1	2843.462	-72.97765	-8.518695E-008	0.0006473	8
	31	100	237.7717	994.243	-3319.031	1	3464.749	-73.32398	-7.159781E-008	0.0006527	8
	32	103	189.0121	1209.616	-4054.563	1	4231.152	-73.38834	-9.663483E-008	0.0006626	8
	33	105	150.2404	1498.397	-4949.259	1	5171.108	-73.15622	-6.434888E-008	0.0006447	7
	34	107	119.1737	1878.714	-6024.675	1	6310.806	-72.68061	-6.02007E-008	0.0006491	7
	35	110	95.0169	2370.018	-7283.863	1	7659.742	-71.97618	-5.726268E-008	0.0006282	7
	36	112	75.60484	3030.717	-8787.748	1	9295.686	-70.97172	-5.41127E-008	0.0006281	7
	37	115	54.50582	4385.957	-11381.97	1	12197.78	-68.92621	-5.458406E-008	0.0006318	7
	38	117	45.95588	5325.369	-12960.45	1	14011.88	-67.66254	-5.338522E-008	0.0006316	7
	39	120	37.20238	6799.813	-15111.21	1	16570.64	-65.77299	-5.333795E-008	0.0006426	7
	40	122	30.04808	8704.571	-17474.32	1	19522.33	-63.52049	-5.285745E-008	0.0006374	7
	41	125	23.91582	11217.65	-20162.51	1	23072.99	-60.9101	-5.595251E-008	0.0006357	7
	42	127	18.60119	14685.57	-23251.44	1	27500.83	-57.72356	-5.757052E-008	0.0006283	7
	43	129	15.02404	18257.15	-25689.96	1	31516.63	-54.59964	-4.300241E-008	0.0006347	7
	44	131	12.01923	22527.73	-28047.74	1	35974.64	-51.22883	-5.925498E-008	0.0006324	7
	45	134	9.450605	27628.68	-30270.38	1	40983.41	-47.61236	-4.728281E-008	0.0007023	6
	46	137	7.512019	32833.63	-31566.9	1	45546.86	-43.87316	-4.705914E-008	0.0006687	6
	47	140	5.978954	38118.59	-32099.98	1	49834.08	-40.101	-4.798833E-008	0.0006915	6
	48	144	4.734848	43392.14	-31861.84	1	53833.58	-36.28897	-4.636779E-008	0.0006805	6
	49	149	3.75601	48177.26	-30900.68	1	57235.48	-32.67593	-5.132063E-008	0.0007139	6
	50	154	3.004808	52269.23	-29387.92	1	59964.34	-29.34649	-5.155564E-008	0.0007029	6
	51	161	2.372217	55798.52	-27190.04	1	62070.7	-25.97949	-4.931742E-008	0.0007628	6
	52	168	1.878005	57835.93	-24031.86	1	62630.07	-22.56376	-5.667961E-008	0.0006529	6
	53	177	1.512097	59354.83	-21732.94	1	63208.52	-20.11035	-5.87314E-008	0.0007625	6
	54	188	1.201923	60443.14	-19404.52	1	63481.56	-17.79858	-5.92477E-008	0.0006526	6
	55	201	0.956633	61932.49	-17497.06	1	64356.66	-15.77595	-7.97212E-008	4.341692E-005	6
