EXPLAIN
TAG	EISPOT
TITLE	LABEL	Potentiostatic EIS	Test Identifier
DATE	LABEL	8/23/2020	Date
TIME	LABEL	16:47:24	Time
NOTES	NOTES	1	Notes...
	
PSTAT	PSTAT	REF3000-16137	Potentiostat
VDC	POTEN	0.00000E+000	T	DC Voltage (V)
FREQINIT	QUANT	3.00000E+005	Initial Freq. (Hz)
FREQFINAL	QUANT	1.00000E+000	Final Freq. (Hz)
PTSPERDEC	QUANT	1.00000E+001	Points/decade
VAC	QUANT	5.00000E+001	AC Voltage (mV rms)
AREA	QUANT	1.00000E+000	Sample Area (cm^2)
SPEED	SELECTOR	2	Optimize for:
ZGUESS	QUANT	1.00000E+003	Estimated Z (ohms)
EOC	QUANT	0	Open Circuit (V)
SEQUENCER	TOGGLE	TRUE	Run as Sequence
PSTATMODEL	IQUANT	5	Pstat Model
PSTATSECTION	LABEL	REF3000-16137	Pstat Section
PSTATSERIALNO	LABEL	16137	Pstat Serial Number
CTRLMODE	IQUANT	1	Control Mode
IESTAB	IQUANT	0	I/E Stability
CASPEED	IQUANT	1	Control Amp Speed
CONVENTION	IQUANT	1	Current Convention
ICHRANGE	IQUANT	2	Ich Range
ICHRANGEMODE	TOGGLE	F	Ich Auto Range
ICHOFFSETENABLE	TOGGLE	T	Ich Offset Enable
ICHOFFSET	QUANT	0	Ich Offset (V)
ICHFILTER	IQUANT	3	Ich Filter
VCHRANGE	IQUANT	2	Vch Range
VCHRANGEMODE	TOGGLE	F	Vch Auto Range
VCHOFFSETENABLE	TOGGLE	T	Vch Offset Enable
VCHOFFSET	QUANT	0	Vch Offset (V)
VCHFILTER	IQUANT	3	Vch Filter
ACHRANGE	IQUANT	2	Ach Range
ACHOFFSETENABLE	TOGGLE	F	Ach Offset Enable
ACHOFFSET	QUANT	0	Ach Offset (V)
ACHFILTER	IQUANT	3	Ach Filter
IERANGELOWERLIMIT	IQUANT	2	I/E Range Lower Limit
IERANGEMODE	TOGGLE	F	I/E AutoRange
IERANGE	IQUANT	11	I/E Range
POSFEEDENABLE	TOGGLE	F	Positive Feedback IR Comp
POSFEEDRESISTANCE	QUANT	0	Positive Feedback Resistance (ohm)
ACHSELECT	IQUANT	0	Ach Select
CABLEID	IQUANT	13	Cable ID
DCCALDATE	LABEL	7/31/2020	DC Calibration Date
ACCALDATE	LABEL	7/31/2020	AC Calibration Date
THERMOSELECT	IQUANT	1	Thermo Select
FRAMEWORKVERSION	QUANT	6.33	Framework Version
INSTRUMENTVERSION	LABEL	3.50	Instrument Version
COMPLIANCEVOLTAGE	IQUANT	0	Compliance Voltage
ZCURVE	TABLE
	Pt	Time	Freq	Zreal	Zimag	Zsig	Zmod	Zphz	Idc	Vdc	IERange
	#	s	Hz	ohm	ohm	V	ohm	°	A	V	#
	0	17	300046.9	554.2048	-129.4965	1	569.133	-13.15187	-0.0002747	0.0232415	9
	1	30	238359.4	489.5801	-89.41922	1	497.6791	-10.35068	-7.059352E-005	-0.0128525	9
	2	45	189328.1	455.5287	-53.07456	1	458.6102	-6.645682	-0.0000996	0.0056182	9
	3	53	150421.9	432.2463	-44.49448	1	434.5303	-5.877201	-7.641019E-005	0.0029405	9
	4	59	119484.4	422.3371	-44.29159	1	424.6532	-5.986873	-8.33699E-005	0.0021852	9
	5	65	94921.88	417.7079	-45.07469	1	420.1329	-6.158932	-2.171589E-005	0.0009721	9
	6	68	75421.88	418.6408	-39.28031	1	420.4796	-5.360265	-1.320849E-005	0.0056488	8
	7	71	59859.37	424.843	-42.26173	1	426.9398	-5.680872	1.664694E-005	-0.0042005	8
	8	73	47578.12	420.2962	-53.42245	1	423.6777	-7.243832	-7.962697E-006	0.0055753	8
	9	76	37828.12	422.5114	-61.50431	1	426.9645	-8.282281	-1.211354E-005	0.0024122	8
	10	79	30046.88	425.9066	-71.41648	1	431.8527	-9.51886	-1.356426E-005	0.0040023	8
	11	81	23859.38	430.885	-83.15387	1	438.8353	-10.92288	-2.448151E-006	-0.0019766	8
	12	83	18984.38	436.231	-96.3608	1	446.7469	-12.45626	-2.688288E-006	0.0040217	8
	13	86	15046.87	442.3013	-100.4595	1	453.5665	-12.79644	-2.782127E-005	0.0154059	8
	14	89	11953.13	444.3247	-129.8048	1	462.8972	-16.28517	1.410322E-005	-0.0031954	8
	15	91	9515.62	453.0141	-147.9168	1	476.5513	-18.08274	-5.972437E-006	-0.0030447	8
	16	94	7546.875	458.3345	-178.6115	1	491.907	-21.2907	-1.079221E-005	0.0057046	8
	17	96	5928.309	463.2939	-212.3882	1	509.6567	-24.62819	-1.063104E-005	0.0056729	8
	18	99	4733.456	468.1039	-249.072	1	530.2434	-28.01686	9.550751E-006	-0.0043171	8
	19	101	3796.875	475.2445	-295.723	1	559.7405	-31.89212	6.543741E-006	0.0013249	8
	20	103	2987.132	480.9073	-360.4757	1	601.0114	-36.85428	-3.15769E-006	-0.0012702	8
	21	105	2390.625	488.9542	-433.168	1	653.231	-41.53796	3.778182E-006	-0.003323	8
	22	108	1884.191	505.2737	-534.6549	1	735.634	-46.61835	-1.193474E-005	0.0052736	8
	23	110	1516.544	514.2749	-647.8478	1	827.155	-51.55673	6.353058E-006	0.0013247	8
	24	113	1193.986	532.9897	-802.2733	1	963.182	-56.40195	1.055005E-005	-0.0006198	8
	25	115	946.5144	554.3635	-992.109	1	1136.485	-60.80473	6.299797E-006	0.0013451	8
	26	118	751.7689	592.7958	-1224.052	1	1360.041	-64.15957	1.283625E-005	-0.0037038	8
	27	121	597.4265	643.7689	-1500.923	1	1633.159	-66.78477	-2.977387E-006	-0.001229	8
	28	123	477.4305	705.178	-1842.193	1	1972.55	-69.05352	-1.879648E-007	0.0006445	8
	29	125	376.6741	819.0228	-2256.473	1	2400.514	-70.05083	-3.826371E-007	0.0006799	8
	30	128	298.2954	945.0403	-2784.215	1	2940.23	-71.25135	-2.322862E-007	0.0006385	8
	31	130	237.7717	1113.24	-3400.448	1	3578.038	-71.87257	-2.324603E-007	0.000643	8
	32	133	189.0121	1309.928	-4197.986	1	4397.612	-72.67014	-9.732587E-008	0.0006385	7
	33	135	150.2404	1701.949	-5036.251	1	5316.057	-71.32784	-1.283071E-007	0.00063	7
	34	137	119.1737	2016.079	-6229.819	1	6547.917	-72.0675	-9.289434E-008	0.0006217	7
	35	140	95.0169	2559.245	-7515.364	1	7939.17	-71.19449	-1.019937E-007	0.0006343	7
	36	142	75.60484	3294.02	-9034.063	1	9615.86	-69.96703	-1.033512E-007	0.0006223	7
	37	145	54.50582	4793.533	-11621.37	1	12571.17	-67.58504	-1.056534E-007	0.0006353	7
	38	147	45.95588	6015.758	-12889.21	1	14223.96	-64.98021	-1.132835E-007	0.0006204	7
	39	150	37.20238	7448.435	-15222.62	1	16947.2	-63.92748	-9.714135E-008	0.0006363	7
	40	152	30.04808	9509.09	-17385.65	1	19816.24	-61.32353	-1.00453E-007	0.0006398	7
	41	154	23.91582	12231.19	-19774.76	1	23251.73	-58.26216	-9.798064E-008	0.0006242	7
	42	157	18.60119	15817.33	-22378.81	1	27404.37	-54.74735	-9.183743E-008	0.0006741	7
	43	159	15.02404	19417.44	-24478.8	1	31244.98	-51.57731	-9.199105E-008	0.0006188	7
	44	161	12.01923	23674.89	-26120.97	1	35253.45	-47.81223	-9.417265E-008	0.0006144	7
	45	164	9.450605	28621.65	-27318.18	1	39566.17	-43.66518	-1.005281E-007	0.0006379	7
	46	166	7.512019	33516.2	-27566.32	1	43396.28	-39.43653	-8.458348E-008	0.0006746	6
	47	169	5.978954	34736.66	-20681.53	1	40427.23	-30.76874	-1.493744E-007	0.0007599	6
	48	173	4.734848	41254.78	-23828.65	1	47642.02	-30.01061	-1.080697E-007	0.0007199	6
	49	178	3.75601	41775.27	-19219.09	1	45984.2	-24.70522	-1.387117E-007	0.0007273	6
	50	184	3.004808	47006.27	-20223.92	1	51172.23	-23.27925	-1.151016E-007	0.0007161	6
	51	190	2.372217	49160.02	-18192.12	1	52418.14	-20.30746	-1.126637E-007	0.0007036	6
	52	198	1.878005	50387.96	-15866.47	1	52826.99	-17.47849	-1.056275E-007	0.000672	6
	53	207	1.512097	48759.73	-13402.62	1	50568.19	-15.36937	-1.346699E-007	0.0007528	6
	54	217	1.201923	51423.52	-12546.5	1	52931.96	-13.71135	-1.129773E-007	0.0006881	6
	55	230	0.956633	53448.52	-11424.25	1	54655.81	-12.06503	-1.320525E-007	4.933638E-005	6
