EXPLAIN
TAG	EISPOT
TITLE	LABEL	Potentiostatic EIS	Test Identifier
DATE	LABEL	8/23/2020	Date
TIME	LABEL	14:36:00	Time
NOTES	NOTES	1	Notes...
	
PSTAT	PSTAT	REF3000-16137	Potentiostat
VDC	POTEN	0.00000E+000	T	DC Voltage (V)
FREQINIT	QUANT	3.00000E+005	Initial Freq. (Hz)
FREQFINAL	QUANT	1.00000E+000	Final Freq. (Hz)
PTSPERDEC	QUANT	1.00000E+001	Points/decade
VAC	QUANT	5.00000E+001	AC Voltage (mV rms)
AREA	QUANT	1.00000E+000	Sample Area (cm^2)
SPEED	SELECTOR	2	Optimize for:
ZGUESS	QUANT	1.00000E+003	Estimated Z (ohms)
EOC	QUANT	0	Open Circuit (V)
SEQUENCER	TOGGLE	TRUE	Run as Sequence
PSTATMODEL	IQUANT	5	Pstat Model
PSTATSECTION	LABEL	REF3000-16137	Pstat Section
PSTATSERIALNO	LABEL	16137	Pstat Serial Number
CTRLMODE	IQUANT	1	Control Mode
IESTAB	IQUANT	0	I/E Stability
CASPEED	IQUANT	1	Control Amp Speed
CONVENTION	IQUANT	1	Current Convention
ICHRANGE	IQUANT	2	Ich Range
ICHRANGEMODE	TOGGLE	F	Ich Auto Range
ICHOFFSETENABLE	TOGGLE	T	Ich Offset Enable
ICHOFFSET	QUANT	0	Ich Offset (V)
ICHFILTER	IQUANT	3	Ich Filter
VCHRANGE	IQUANT	2	Vch Range
VCHRANGEMODE	TOGGLE	F	Vch Auto Range
VCHOFFSETENABLE	TOGGLE	T	Vch Offset Enable
VCHOFFSET	QUANT	0	Vch Offset (V)
VCHFILTER	IQUANT	3	Vch Filter
ACHRANGE	IQUANT	2	Ach Range
ACHOFFSETENABLE	TOGGLE	F	Ach Offset Enable
ACHOFFSET	QUANT	0	Ach Offset (V)
ACHFILTER	IQUANT	3	Ach Filter
IERANGELOWERLIMIT	IQUANT	2	I/E Range Lower Limit
IERANGEMODE	TOGGLE	F	I/E AutoRange
IERANGE	IQUANT	11	I/E Range
POSFEEDENABLE	TOGGLE	F	Positive Feedback IR Comp
POSFEEDRESISTANCE	QUANT	0	Positive Feedback Resistance (ohm)
ACHSELECT	IQUANT	0	Ach Select
CABLEID	IQUANT	13	Cable ID
DCCALDATE	LABEL	7/31/2020	DC Calibration Date
ACCALDATE	LABEL	7/31/2020	AC Calibration Date
THERMOSELECT	IQUANT	1	Thermo Select
FRAMEWORKVERSION	QUANT	6.33	Framework Version
INSTRUMENTVERSION	LABEL	3.50	Instrument Version
COMPLIANCEVOLTAGE	IQUANT	0	Compliance Voltage
ZCURVE	TABLE
	Pt	Time	Freq	Zreal	Zimag	Zsig	Zmod	Zphz	Idc	Vdc	IERange
	#	s	Hz	ohm	ohm	V	ohm	°	A	V	#
	0	16	300046.9	1261.35	-1278.98	1	1796.328	-45.39763	-0.000569	0.0030218	9
	1	31	238359.4	1352.974	-1303.28	1	1878.584	-43.92823	-0.0005397	0.0029207	9
	2	47	189328.1	1683.544	-1839.575	1	2493.664	-47.53584	-0.000537	0.0033305	9
	3	54	150421.9	1949.614	-2003.222	1	2795.334	-45.77699	-0.0006373	0.0080597	10
	4	63	119484.4	2274.398	-2076.489	1	3079.723	-42.39559	-0.0006969	0.0126309	9
	5	71	94921.88	2856.966	-2222.348	1	3619.542	-37.87828	-5.456605E-005	0.0088231	9
	6	81	75421.88	3841.116	-1621.916	1	4169.507	-22.89195	-9.151009E-005	-0.0099145	8
	7	88	59859.37	4388.032	-1793.977	1	4740.588	-22.23642	0.0001146	-0.0564324	8
	8	96	47578.12	4793.121	-1397.381	1	4992.663	-16.25346	5.471225E-005	0.0316995	8
	9	103	37828.12	5241.378	-1732.242	1	5520.208	-18.28839	0.0001318	-0.0513656	8
	10	111	30046.88	4989.778	-2011.262	1	5379.875	-21.9532	0.0002337	-0.0015832	9
	11	121	23859.38	5441.941	-1643.141	1	5684.597	-16.80118	0.0002875	-0.0052301	9
	12	127	18984.38	5771.629	-1717.697	1	6021.81	-16.57355	0.0002118	-0.0111931	9
	13	134	15046.87	6363.055	-1370.202	1	6508.911	-12.15234	-0.0001494	-0.001871	9
	14	141	11953.13	6575.887	-1154.007	1	6676.378	-9.95353	-0.000143	0.0494574	8
	15	146	9515.62	6648.484	-1315.169	1	6777.315	-11.1895	0.0002863	-0.005346	9
	16	153	7546.875	6582.723	-773.5659	1	6628.02	-6.70235	0.0001446	0.0024458	9
	17	159	5928.309	7310.038	-944.8862	1	7370.853	-7.365142	0.0001537	-0.0413438	8
	18	165	4733.456	7538.454	-849.2147	1	7586.136	-6.427332	0.0001538	-0.0419037	8
	19	171	3796.875	7547.875	-1114.115	1	7629.657	-8.3966	-0.000148	-0.0019253	9
	20	180	2987.132	8138.318	-1036.394	1	8204.044	-7.257405	-0.0002684	0.0108403	9
	21	189	2390.625	7060.267	-2230.614	1	7404.256	-17.53336	4.344341E-005	0.0060762	9
	22	197	1884.191	7989.589	-2139.078	1	8270.984	-14.98845	-0.0002903	0.0071605	9
	23	205	1516.544	8168.732	-866.748	1	8214.587	-6.05674	-5.716278E-005	0.0089221	9
	24	214	1193.986	8754.058	-1107.611	1	8823.85	-7.211058	0.0001448	-0.0522626	8
	25	220	946.5144	10098.44	-2465.306	1	10395.01	-13.71913	-7.475704E-005	0.0590553	8
	26	225	751.7689	9907.92	1271.844	1	9989.22	7.314848	4.928456E-005	-0.0082986	9
	27	231	597.4265	8081.141	-1109.452	1	8156.943	-7.817214	-0.0001497	0.041619	8
	28	236	477.4305	9657.26	-2213.664	1	9907.72	-12.91047	-2.264615E-006	0.000698	8
	29	241	376.6741	12738.23	-3222.469	1	13139.51	-14.19662	-6.837045E-007	0.0007479	7
	30	243	298.2954	13192.02	-3939.034	1	13767.55	-16.62522	-6.919296E-007	0.0006456	7
	31	245	237.7717	13613.78	-4705.88	1	14404.18	-19.06875	-7.317385E-007	0.0007552	7
	32	248	189.0121	13487.29	-5499.101	1	14565.27	-22.18193	-6.86506E-007	0.0007169	7
	33	250	150.2404	14196.33	-6767.324	1	15726.81	-25.48692	-7.31291E-007	0.0007485	7
	34	253	119.1737	14289.55	-8021.586	1	16387.1	-29.30812	-6.810519E-007	0.0005622	7
	35	255	95.0169	14920.72	-9944.9	1	17931.23	-33.68409	-7.085424E-007	0.0005438	7
	36	258	75.60484	15223	-11976.62	1	19369.54	-38.19372	-6.94431E-007	0.00049	7
	37	260	54.50582	16222.96	-16142.04	1	22885.59	-44.85675	-7.296426E-007	0.0006355	7
	38	263	45.95588	16607.88	-18494.68	1	24857.09	-48.07675	-7.077463E-007	0.0007455	7
	39	265	37.20238	17427.23	-22381.61	1	28366.26	-52.09422	-6.990668E-007	0.0007424	7
	40	268	30.04808	18300.96	-26997.08	1	32615.44	-55.86718	-7.061558E-007	0.0004888	7
	41	271	23.91582	20186.41	-33574.33	1	39175.59	-58.98381	-7.101019E-007	0.0005163	7
	42	274	18.60119	22132.37	-41340.52	1	46892.21	-61.83685	-6.965908E-007	0.000511	7
	43	276	15.02404	24688.2	-50529.05	1	56237.82	-63.96013	-6.897256E-007	0.0005	7
	44	278	12.01923	29369.29	-63161.68	1	69655.96	-65.06223	-8.17207E-008	0.0007804	6
	45	281	9.450605	34228.13	-77000.7	1	84265.49	-66.03403	-7.722107E-008	0.0005401	6
	46	284	7.512019	40588.93	-92808.59	1	101296.1	-66.3783	-7.911871E-008	0.000702	6
	47	287	5.978954	49585.54	-113199.7	1	123583.6	-66.34486	-8.148493E-008	0.0006329	6
	48	291	4.734848	61301.36	-136669.6	1	149788	-65.84201	-8.27883E-008	0.0005972	6
	49	295	3.75601	75510.62	-162742	1	179406.8	-65.10918	-8.258691E-008	0.0005853	6
	50	300	3.004808	92918.02	-191606.3	1	212947.8	-64.12929	-8.333651E-008	0.0007951	6
	51	307	2.372217	116456.7	-225770.6	1	254036.5	-62.71447	-8.430037E-008	0.0005852	6
	52	311	1.878005	143165.6	-264500	1	300760.2	-61.5747	-8.363294E-008	0.0006683	6
	53	316	1.512097	172490	-303639.7	1	349213.2	-60.4002	-8.346071E-008	0.0006336	6
	54	321	1.201923	211554.6	-349753	1	408757.3	-58.83157	-8.452685E-008	0.0006898	6
	55	327	0.956633	252726.4	-399990.3	1	473141.5	-57.71402	-8.54013E-008	2.625658E-005	6
