EXPLAIN
TAG	EISPOT
TITLE	LABEL	Potentiostatic EIS	Test Identifier
DATE	LABEL	8/23/2020	Date
TIME	LABEL	14:16:34	Time
NOTES	NOTES	1	Notes...
	
PSTAT	PSTAT	REF3000-16137	Potentiostat
VDC	POTEN	0.00000E+000	T	DC Voltage (V)
FREQINIT	QUANT	3.00000E+005	Initial Freq. (Hz)
FREQFINAL	QUANT	1.00000E+000	Final Freq. (Hz)
PTSPERDEC	QUANT	1.00000E+001	Points/decade
VAC	QUANT	5.00000E+001	AC Voltage (mV rms)
AREA	QUANT	1.00000E+000	Sample Area (cm^2)
SPEED	SELECTOR	2	Optimize for:
ZGUESS	QUANT	1.00000E+003	Estimated Z (ohms)
EOC	QUANT	0	Open Circuit (V)
SEQUENCER	TOGGLE	TRUE	Run as Sequence
PSTATMODEL	IQUANT	5	Pstat Model
PSTATSECTION	LABEL	REF3000-16137	Pstat Section
PSTATSERIALNO	LABEL	16137	Pstat Serial Number
CTRLMODE	IQUANT	1	Control Mode
IESTAB	IQUANT	0	I/E Stability
CASPEED	IQUANT	1	Control Amp Speed
CONVENTION	IQUANT	1	Current Convention
ICHRANGE	IQUANT	2	Ich Range
ICHRANGEMODE	TOGGLE	F	Ich Auto Range
ICHOFFSETENABLE	TOGGLE	T	Ich Offset Enable
ICHOFFSET	QUANT	0	Ich Offset (V)
ICHFILTER	IQUANT	3	Ich Filter
VCHRANGE	IQUANT	2	Vch Range
VCHRANGEMODE	TOGGLE	F	Vch Auto Range
VCHOFFSETENABLE	TOGGLE	T	Vch Offset Enable
VCHOFFSET	QUANT	0	Vch Offset (V)
VCHFILTER	IQUANT	3	Vch Filter
ACHRANGE	IQUANT	2	Ach Range
ACHOFFSETENABLE	TOGGLE	F	Ach Offset Enable
ACHOFFSET	QUANT	0	Ach Offset (V)
ACHFILTER	IQUANT	3	Ach Filter
IERANGELOWERLIMIT	IQUANT	2	I/E Range Lower Limit
IERANGEMODE	TOGGLE	F	I/E AutoRange
IERANGE	IQUANT	11	I/E Range
POSFEEDENABLE	TOGGLE	F	Positive Feedback IR Comp
POSFEEDRESISTANCE	QUANT	0	Positive Feedback Resistance (ohm)
ACHSELECT	IQUANT	0	Ach Select
CABLEID	IQUANT	13	Cable ID
DCCALDATE	LABEL	7/31/2020	DC Calibration Date
ACCALDATE	LABEL	7/31/2020	AC Calibration Date
THERMOSELECT	IQUANT	1	Thermo Select
FRAMEWORKVERSION	QUANT	6.33	Framework Version
INSTRUMENTVERSION	LABEL	3.50	Instrument Version
COMPLIANCEVOLTAGE	IQUANT	0	Compliance Voltage
ZCURVE	TABLE
	Pt	Time	Freq	Zreal	Zimag	Zsig	Zmod	Zphz	Idc	Vdc	IERange
	#	s	Hz	ohm	ohm	V	ohm	°	A	V	#
	0	15	300046.9	302.9655	-61.97882	1	309.2401	-11.56169	2.977862E-005	0.0027813	10
	1	29	238359.4	309.0856	-52.28496	1	313.4767	-9.60127	-0.0006249	0.0075422	10
	2	43	189328.1	314.2786	-54.12141	1	318.9046	-9.77098	-0.0001542	0.0027177	10
	3	50	150421.9	319.5304	-50.09456	1	323.4334	-8.910051	-0.0002968	-0.0011522	10
	4	58	119484.4	323.2983	-50.69822	1	327.2493	-8.912291	0.0005781	0.0015193	10
	5	65	94921.88	328.4486	-42.95274	1	331.2453	-7.450552	0.0002712	-0.0054662	9
	6	73	75421.88	333.446	-47.26367	1	336.779	-8.067538	0.0002376	-0.0100639	9
	7	79	59859.37	339.0258	-58.16182	1	343.9786	-9.73466	-0.0003123	0.0014531	10
	8	86	47578.12	343.8811	-57.50411	1	348.6559	-9.493217	-0.0002134	0.0021727	9
	9	92	37828.12	349.1894	-69.45667	1	356.0301	-11.24978	0.0003181	-0.0002338	10
	10	97	30046.88	355.0037	-75.26199	1	362.894	-11.96967	-3.314152E-005	0.0076134	9
	11	102	23859.38	362.0367	-85.15193	1	371.9158	-13.23555	5.889981E-005	0.0049951	9
	12	107	18984.38	368.7318	-99.2792	1	381.8632	-15.06925	-0.0001513	-0.0012711	9
	13	113	15046.87	377.9973	-116.787	1	395.6275	-17.16919	-0.000118	0.0094479	9
	14	118	11953.13	386.4589	-136.0176	1	409.6965	-19.38997	-3.444427E-005	0.0077503	9
	15	123	9515.62	393.67	-159.366	1	424.7042	-22.03915	0.0002861	-0.0075877	9
	16	129	7546.875	403.1935	-188.5598	1	445.1065	-25.06388	-0.0002398	0.0102271	9
	17	134	5928.309	411.0137	-226.5233	1	469.3028	-28.86061	-6.51464E-005	-0.0043008	9
	18	139	4733.456	422.4395	-273.8	1	503.4099	-32.9489	-0.0001892	0.0103045	9
	19	145	3796.875	431.612	-325.5302	1	540.6096	-37.02431	-0.0002377	0.0100907	9
	20	150	2987.132	439.6293	-402.7332	1	596.2114	-42.49201	-0.0002394	0.0101082	9
	21	155	2390.625	453.8103	-493.1846	1	670.2051	-47.38088	-0.0002698	0.0070783	9
	22	161	1884.191	468.7408	-608.2361	1	767.8992	-52.38014	0.0001489	0.0014727	9
	23	166	1516.544	490.6136	-743.942	1	891.1517	-56.59602	0.0002224	-0.0020625	9
	24	172	1193.986	505.7398	-920.4021	1	1050.197	-61.21222	2.709325E-005	-0.0071741	9
	25	179	946.5144	580.1289	-1146.382	1	1284.812	-63.15822	6.825875E-005	-0.0370512	8
	26	182	751.7689	581.3422	-1418.928	1	1533.4	-67.72083	7.518284E-005	-0.0026111	8
	27	184	597.4265	620.2495	-1733.06	1	1840.708	-70.30808	-2.186472E-005	-0.0172226	8
	28	187	477.4305	716.9833	-2179.902	1	2294.785	-71.79365	-7.272275E-007	0.0005976	8
	29	189	376.6741	812.6075	-2689.985	1	2810.045	-73.19115	-6.756431E-007	0.0006889	8
	30	192	298.2954	945.5312	-3326.537	1	3458.305	-74.13279	-6.942596E-007	0.0007062	8
	31	194	237.7717	1111.178	-4095.83	1	4243.883	-74.8213	-6.678339E-007	0.000599	8
	32	196	189.0121	1374.266	-5073.028	1	5255.875	-74.84255	-1.705612E-007	0.0006662	7
	33	199	150.2404	1681.656	-6266.179	1	6487.91	-74.97749	-2.049408E-007	0.0006852	7
	34	201	119.1737	2015.081	-7630.612	1	7892.198	-75.20712	-1.611576E-007	0.000578	7
	35	203	95.0169	2504.574	-9244.446	1	9577.72	-74.84091	-1.720437E-007	0.0006269	7
	36	206	75.60484	3156.081	-11335.07	1	11766.25	-74.44093	-1.862745E-007	0.0006237	7
	37	209	54.50582	4357.758	-14823.93	1	15451.18	-73.61836	-1.671889E-007	0.0006653	7
	38	211	45.95588	5353.609	-17299.16	1	18108.62	-72.80416	-1.941842E-007	0.0006951	7
	39	213	37.20238	6709.018	-20415.65	1	21489.75	-71.80837	-1.550126E-007	0.0005763	7
	40	216	30.04808	8613.103	-24275.52	1	25758.23	-70.465	-1.708264E-007	0.000542	7
	41	219	23.91582	11094.43	-28831.83	1	30892.73	-68.95338	-1.624254E-007	0.0007107	7
	42	221	18.60119	14998.75	-34894.45	1	37981.37	-66.74042	-1.813165E-007	0.0006368	7
	43	224	15.02404	18850.79	-40529.56	1	44698.96	-65.05629	-1.755405E-007	0.0007156	7
	44	226	12.01923	24321.03	-46853.8	1	52790.07	-62.56693	-7.084755E-008	0.0005922	6
	45	229	9.450605	31256.05	-54416.8	1	62754.51	-60.1277	-6.965725E-008	0.0007561	6
	46	231	7.512019	38898.76	-61498.66	1	72768.12	-57.68607	-6.879417E-008	0.0006043	6
	47	234	5.978954	47943.45	-68976.08	1	84001.63	-55.19786	-6.513797E-008	0.0006487	6
	48	239	4.734848	58513.88	-76958.35	1	96677.1	-52.75312	-6.905246E-008	0.0006527	6
	49	242	3.75601	70083.58	-84529.02	1	109803.8	-50.33765	-6.719794E-008	0.0005777	6
	50	248	3.004808	82466.58	-92096.1	1	123622.1	-48.15745	-6.551306E-008	0.0005676	6
	51	254	2.372217	96477.5	-100190.8	1	139090.2	-46.08168	-6.792659E-008	0.0006908	6
	52	258	1.878005	111856.4	-108117	1	155567.1	-44.02611	-6.828274E-008	0.0006765	6
	53	263	1.512097	126997.6	-115754.6	1	171835.7	-42.34824	-6.738546E-008	0.0005791	6
	54	268	1.201923	143955.5	-123959.4	1	189971.4	-40.73158	-6.745979E-008	0.0006727	6
	55	275	0.956633	162562	-132423.3	1	209671.9	-39.16633	-6.875928E-008	3.447708E-005	6
