EXPLAIN
TAG	EISPOT
TITLE	LABEL	Potentiostatic EIS	Test Identifier
DATE	LABEL	8/23/2020	Date
TIME	LABEL	18:19:42	Time
NOTES	NOTES	1	Notes...
	
PSTAT	PSTAT	REF3000-16137	Potentiostat
VDC	POTEN	0.00000E+000	T	DC Voltage (V)
FREQINIT	QUANT	3.00000E+005	Initial Freq. (Hz)
FREQFINAL	QUANT	1.00000E+000	Final Freq. (Hz)
PTSPERDEC	QUANT	1.00000E+001	Points/decade
VAC	QUANT	5.00000E+001	AC Voltage (mV rms)
AREA	QUANT	1.00000E+000	Sample Area (cm^2)
SPEED	SELECTOR	2	Optimize for:
ZGUESS	QUANT	1.00000E+003	Estimated Z (ohms)
EOC	QUANT	0	Open Circuit (V)
SEQUENCER	TOGGLE	TRUE	Run as Sequence
PSTATMODEL	IQUANT	5	Pstat Model
PSTATSECTION	LABEL	REF3000-16137	Pstat Section
PSTATSERIALNO	LABEL	16137	Pstat Serial Number
CTRLMODE	IQUANT	1	Control Mode
IESTAB	IQUANT	0	I/E Stability
CASPEED	IQUANT	1	Control Amp Speed
CONVENTION	IQUANT	1	Current Convention
ICHRANGE	IQUANT	2	Ich Range
ICHRANGEMODE	TOGGLE	F	Ich Auto Range
ICHOFFSETENABLE	TOGGLE	T	Ich Offset Enable
ICHOFFSET	QUANT	0	Ich Offset (V)
ICHFILTER	IQUANT	3	Ich Filter
VCHRANGE	IQUANT	2	Vch Range
VCHRANGEMODE	TOGGLE	F	Vch Auto Range
VCHOFFSETENABLE	TOGGLE	T	Vch Offset Enable
VCHOFFSET	QUANT	0	Vch Offset (V)
VCHFILTER	IQUANT	3	Vch Filter
ACHRANGE	IQUANT	2	Ach Range
ACHOFFSETENABLE	TOGGLE	F	Ach Offset Enable
ACHOFFSET	QUANT	0	Ach Offset (V)
ACHFILTER	IQUANT	3	Ach Filter
IERANGELOWERLIMIT	IQUANT	2	I/E Range Lower Limit
IERANGEMODE	TOGGLE	F	I/E AutoRange
IERANGE	IQUANT	11	I/E Range
POSFEEDENABLE	TOGGLE	F	Positive Feedback IR Comp
POSFEEDRESISTANCE	QUANT	0	Positive Feedback Resistance (ohm)
ACHSELECT	IQUANT	0	Ach Select
CABLEID	IQUANT	13	Cable ID
DCCALDATE	LABEL	7/31/2020	DC Calibration Date
ACCALDATE	LABEL	7/31/2020	AC Calibration Date
THERMOSELECT	IQUANT	1	Thermo Select
FRAMEWORKVERSION	QUANT	6.33	Framework Version
INSTRUMENTVERSION	LABEL	3.50	Instrument Version
COMPLIANCEVOLTAGE	IQUANT	0	Compliance Voltage
ZCURVE	TABLE
	Pt	Time	Freq	Zreal	Zimag	Zsig	Zmod	Zphz	Idc	Vdc	IERange
	#	s	Hz	ohm	ohm	V	ohm	°	A	V	#
	0	14	300046.9	260.6932	-22.94589	1	261.7011	-5.03014	-1.6183E-005	-0.0013398	9
	1	18	238359.4	261.8055	-22.82514	1	262.7986	-4.982654	1.784756E-005	-0.0017005	9
	2	24	189328.1	263.1944	-24.38914	1	264.322	-5.294244	4.801002E-006	-0.0014503	9
	3	29	150421.9	264.82	-29.251	1	266.4306	-6.30312	2.439046E-005	0.0005732	10
	4	35	119484.4	266.9103	-30.43962	1	268.6404	-6.506152	1.331243E-005	0.0007048	10
	5	39	94921.88	269.1798	-31.75435	1	271.0463	-6.72792	2.50258E-005	-0.000315	9
	6	41	75421.88	271.8889	-36.02983	1	274.2657	-7.54867	-1.96188E-005	0.0004203	9
	7	45	59859.37	275.3261	-41.00045	1	278.3622	-8.470012	1.364116E-005	0.000111	9
	8	49	47578.12	278.6805	-47.17889	1	282.6458	-9.60872	6.026502E-006	-0.000555	9
	9	53	37828.12	283.1928	-53.96803	1	288.2893	-10.78948	-1.5314E-005	0.0009706	9
	10	55	30046.88	287.8287	-62.57763	1	294.5528	-12.26595	-2.315037E-005	0.0005778	9
	11	58	23859.38	293.6358	-72.5202	1	302.4586	-13.87291	2.704618E-006	0.000505	9
	12	60	18984.38	298.9689	-84.04145	1	310.5565	-15.7009	-2.382492E-006	-0.0003183	9
	13	62	15046.87	306.4155	-98.2537	1	321.7829	-17.77872	-2.10036E-005	0.0009538	9
	14	65	11953.13	311.4006	-114.8666	1	331.9106	-20.24755	2.581466E-005	-0.0007452	9
	15	67	9515.62	319.0308	-134.5541	1	346.2448	-22.86803	9.579388E-006	-0.0006129	9
	16	70	7546.875	326.3515	-159.0113	1	363.0287	-25.97716	-3.522188E-006	-0.0002862	9
	17	72	5928.309	332.1543	-189.8188	1	382.5672	-29.74701	-8.796234E-006	0.005119	8
	18	74	4733.456	340.3344	-227.9678	1	409.6301	-33.81554	1.197E-005	-0.0034032	8
	19	77	3796.875	348.2562	-274.2796	1	443.2964	-38.22326	6.58591E-007	-0.0020894	8
	20	79	2987.132	355.6268	-338.1662	1	490.741	-43.55835	1.171459E-005	-0.0034451	8
	21	81	2390.625	367.9167	-411.5213	1	552.0077	-48.202	1.116341E-006	-0.0023265	8
	22	84	1884.191	379.2219	-509.3899	1	635.0491	-53.33368	-2.42271E-006	0.0039376	8
	23	86	1516.544	397.7461	-619.184	1	735.9285	-57.28447	5.771583E-007	-0.0020676	8
	24	88	1193.986	420.5119	-770.3275	1	877.6302	-61.37044	-1.153353E-005	0.0043858	8
	25	91	946.5144	450.7409	-954.702	1	1055.757	-64.72672	-6.16528E-006	0.0046988	8
	26	93	751.7689	490.8274	-1180.688	1	1278.646	-67.4267	-6.970766E-006	0.0006168	8
	27	96	597.4265	544.0819	-1453.639	1	1552.125	-69.47964	9.742849E-006	-0.0005803	8
	28	98	477.4305	610.1831	-1776.377	1	1878.254	-71.04247	-9.933456E-008	0.0006703	8
	29	101	376.6741	705.6688	-2197.335	1	2307.867	-72.1957	-1.253053E-007	0.0006661	8
	30	103	298.2954	831.0959	-2703.788	1	2828.637	-72.91351	-1.305305E-007	0.0007083	8
	31	105	237.7717	990.378	-3301.344	1	3446.698	-73.30116	-1.129075E-007	0.0006794	8
	32	108	189.0121	1203.304	-4032.337	1	4208.049	-73.38418	-7.703191E-008	0.0006556	8
	33	110	150.2404	1491.877	-4923.396	1	5144.465	-73.14226	-7.010305E-008	0.0006226	7
	34	113	119.1737	1865.616	-5998.758	1	6282.167	-72.72429	-6.257387E-008	0.000633	7
	35	115	95.0169	2353.402	-7248.108	1	7620.602	-72.01181	-6.883788E-008	0.0006921	7
	36	118	75.60484	3012.412	-8742.757	1	9247.185	-70.98805	-6.444278E-008	0.0006284	7
	37	120	54.50582	4343.826	-11333.2	1	12137.14	-69.02901	-5.806664E-008	0.0006215	7
	38	123	45.95588	5290.022	-12904.07	1	13946.31	-67.70884	-6.212225E-008	0.0006442	7
	39	125	37.20238	6753.481	-15040.15	1	16486.83	-65.81848	-5.869752E-008	0.0006301	7
	40	127	30.04808	8630.063	-17414.77	1	19435.84	-63.63882	-5.813566E-008	0.0006255	7
	41	130	23.91582	11157.36	-20116.13	1	23003.16	-60.98517	-5.715411E-008	0.0006188	7
	42	132	18.60119	14618.55	-23134.86	1	27366.47	-57.71186	-6.321527E-008	0.0006242	7
	43	134	15.02404	18171.64	-25640.93	1	31427.15	-54.67492	-4.963105E-008	0.0006774	7
	44	137	12.01923	22388.09	-28064.61	1	35900.54	-51.41944	-6.52423E-008	0.0006552	7
	45	139	9.450605	27501.45	-30105.49	1	40775.86	-47.58822	-5.163215E-008	0.0006261	7
	46	142	7.512019	32698.88	-31586.24	1	45463.25	-44.00843	-4.319164E-008	0.0006831	6
	47	145	5.978954	37995	-32122.57	1	49754.19	-40.21259	-4.7958E-008	0.0006873	6
	48	149	4.734848	43313.67	-31946.38	1	53820.49	-36.41096	-5.491231E-008	0.0006709	6
	49	154	3.75601	48177.54	-30986.07	1	57281.87	-32.74767	-5.489514E-008	0.0007312	6
	50	159	3.004808	52105.32	-29273.8	1	59765.54	-29.32814	-5.306335E-008	0.0006416	6
	51	166	2.372217	56491.4	-28061.91	1	63077.33	-26.41573	-6.187678E-008	0.0006304	6
	52	170	1.878005	58413.51	-24521.53	1	63351.74	-22.77228	-6.238483E-008	0.0006878	6
	53	179	1.512097	59514.77	-21825.26	1	63390.46	-20.139	-6.41668E-008	0.0005786	6
	54	190	1.201923	60622.22	-19359.76	1	63638.46	-17.71093	-6.782014E-008	0.0006887	6
	55	203	0.956633	61630.79	-17333.36	1	64021.87	-15.70838	-8.07316E-008	4.367108E-005	6
