EXPLAIN
TAG	EISPOT
TITLE	LABEL	Potentiostatic EIS	Test Identifier
DATE	LABEL	8/23/2020	Date
TIME	LABEL	14:02:11	Time
NOTES	NOTES	1	Notes...
	
PSTAT	PSTAT	REF3000-16137	Potentiostat
VDC	POTEN	0.00000E+000	T	DC Voltage (V)
FREQINIT	QUANT	3.00000E+005	Initial Freq. (Hz)
FREQFINAL	QUANT	1.00000E+000	Final Freq. (Hz)
PTSPERDEC	QUANT	1.00000E+001	Points/decade
VAC	QUANT	5.00000E+001	AC Voltage (mV rms)
AREA	QUANT	1.00000E+000	Sample Area (cm^2)
SPEED	SELECTOR	2	Optimize for:
ZGUESS	QUANT	1.00000E+003	Estimated Z (ohms)
EOC	QUANT	0	Open Circuit (V)
SEQUENCER	TOGGLE	TRUE	Run as Sequence
PSTATMODEL	IQUANT	5	Pstat Model
PSTATSECTION	LABEL	REF3000-16137	Pstat Section
PSTATSERIALNO	LABEL	16137	Pstat Serial Number
CTRLMODE	IQUANT	1	Control Mode
IESTAB	IQUANT	0	I/E Stability
CASPEED	IQUANT	1	Control Amp Speed
CONVENTION	IQUANT	1	Current Convention
ICHRANGE	IQUANT	2	Ich Range
ICHRANGEMODE	TOGGLE	F	Ich Auto Range
ICHOFFSETENABLE	TOGGLE	T	Ich Offset Enable
ICHOFFSET	QUANT	0	Ich Offset (V)
ICHFILTER	IQUANT	3	Ich Filter
VCHRANGE	IQUANT	2	Vch Range
VCHRANGEMODE	TOGGLE	F	Vch Auto Range
VCHOFFSETENABLE	TOGGLE	T	Vch Offset Enable
VCHOFFSET	QUANT	0	Vch Offset (V)
VCHFILTER	IQUANT	3	Vch Filter
ACHRANGE	IQUANT	2	Ach Range
ACHOFFSETENABLE	TOGGLE	F	Ach Offset Enable
ACHOFFSET	QUANT	0	Ach Offset (V)
ACHFILTER	IQUANT	3	Ach Filter
IERANGELOWERLIMIT	IQUANT	2	I/E Range Lower Limit
IERANGEMODE	TOGGLE	F	I/E AutoRange
IERANGE	IQUANT	11	I/E Range
POSFEEDENABLE	TOGGLE	F	Positive Feedback IR Comp
POSFEEDRESISTANCE	QUANT	0	Positive Feedback Resistance (ohm)
ACHSELECT	IQUANT	0	Ach Select
CABLEID	IQUANT	13	Cable ID
DCCALDATE	LABEL	7/31/2020	DC Calibration Date
ACCALDATE	LABEL	7/31/2020	AC Calibration Date
THERMOSELECT	IQUANT	1	Thermo Select
FRAMEWORKVERSION	QUANT	6.33	Framework Version
INSTRUMENTVERSION	LABEL	3.50	Instrument Version
COMPLIANCEVOLTAGE	IQUANT	0	Compliance Voltage
ZCURVE	TABLE
	Pt	Time	Freq	Zreal	Zimag	Zsig	Zmod	Zphz	Idc	Vdc	IERange
	#	s	Hz	ohm	ohm	V	ohm	°	A	V	#
	0	17	300046.9	251.3714	-45.38678	1	255.436	-10.23487	-0.0008699	0.0017656	10
	1	30	238359.4	256.0373	-23.23957	1	257.0898	-5.186318	0.000776	-0.0244791	9
	2	44	189328.1	258.2992	-40.60384	1	261.4711	-8.933614	-0.0001699	0.0028582	10
	3	53	150421.9	263.8582	-27.40421	1	265.2775	-5.929457	0.0005953	-0.0084352	9
	4	60	119484.4	264.5861	-40.15379	1	267.6157	-8.629403	0.000194	0.0027205	10
	5	68	94921.88	267.5875	-33.82126	1	269.7164	-7.203604	0.0002356	-0.0026514	9
	6	73	75421.88	270.9139	-39.07457	1	273.7173	-8.207308	0.0002889	-0.0079912	9
	7	77	59859.37	274.5275	-43.06374	1	277.8846	-8.91505	1.056982E-005	-0.0067737	9
	8	84	47578.12	279.1066	-53.47155	1	284.1826	-10.84538	-0.000179	0.0020553	10
	9	91	37828.12	284.2963	-59.6183	1	290.4801	-11.84358	-0.0001375	-5.579189E-005	10
	10	99	30046.88	289.6348	-65.56578	1	296.9633	-12.75529	0.0001642	0.000943	9
	11	106	23859.38	294.9033	-79.06609	1	305.3185	-15.00852	-0.0003214	0.0015433	10
	12	111	18984.38	300.607	-87.94968	1	313.2087	-16.30808	1.52849E-005	-0.006855	9
	13	116	15046.87	307.7931	-102.5558	1	324.4292	-18.42793	-0.0001574	-0.0007457	9
	14	121	11953.13	314.3647	-120.4024	1	336.6331	-20.95695	0.0002846	-0.007783	9
	15	127	9515.62	321.1501	-142.677	1	351.4173	-23.95409	-0.0002654	0.0072791	9
	16	132	7546.875	328.7719	-170.4706	1	370.3392	-27.40706	-0.0001839	0.0102339	9
	17	137	5928.309	335.9061	-204.6655	1	393.3458	-31.35369	-0.0002171	0.0024281	9
	18	142	4733.456	345.196	-245.5356	1	423.613	-35.42398	0.0001545	0.0012217	9
	19	148	3796.875	353.2981	-297.6593	1	461.9747	-40.11467	0.0002706	-0.0093629	9
	20	153	2987.132	363.986	-367.0663	1	516.9366	-45.24141	-0.0002657	0.0091504	9
	21	158	2390.625	373.3274	-447.7573	1	582.9751	-50.1796	0.0001027	-0.0088133	9
	22	164	1884.191	388.2004	-553.5018	1	676.0649	-54.95597	-0.0002365	0.0101789	9
	23	169	1516.544	409.5294	-675.0195	1	789.5351	-58.75511	-0.0002191	0.0025004	9
	24	175	1193.986	435.8593	-837.5247	1	944.1509	-62.50692	6.786621E-005	0.0046286	9
	25	181	946.5144	468.639	-1052.199	1	1151.844	-65.99229	0.0000997	-0.0263423	8
	26	184	751.7689	501.6446	-1312.548	1	1405.144	-69.08358	6.698051E-005	-0.0353545	8
	27	187	597.4265	557.0699	-1567.952	1	1663.972	-70.44064	-0.0000951	0.0259118	8
	28	189	477.4305	649.0958	-1949.107	1	2054.347	-71.58109	-6.138422E-007	0.0007232	8
	29	191	376.6741	753.3981	-2409.136	1	2524.192	-72.63421	-4.950673E-007	0.0005959	8
	30	194	298.2954	888.2715	-2954.079	1	3084.738	-73.26432	-4.453785E-007	0.0006002	8
	31	196	237.7717	1067.28	-3621.697	1	3775.682	-73.58025	-6.104419E-007	0.0007236	8
	32	199	189.0121	1337.42	-4473.132	1	4668.791	-73.35389	-1.315928E-007	0.0006112	7
	33	201	150.2404	1641.582	-5422.228	1	5665.275	-73.15629	-1.145553E-007	0.0005988	7
	34	203	119.1737	2035.88	-6674.042	1	6977.653	-73.03596	-1.368022E-007	0.0005475	7
	35	206	95.0169	2560.406	-7993.875	1	8393.909	-72.23994	-1.161794E-007	0.0006263	7
	36	208	75.60484	3259.508	-9667	1	10201.73	-71.36698	-1.224128E-007	0.000676	7
	37	211	54.50582	4673.534	-12622.18	1	13459.62	-69.68224	-1.281288E-007	0.0006833	7
	38	213	45.95588	5633.954	-14263.73	1	15336.08	-68.44675	-1.102397E-007	0.0007114	7
	39	216	37.20238	7273.123	-16869.38	1	18370.47	-66.67702	-1.335743E-007	0.0006212	7
	40	218	30.04808	9220.131	-19563.07	1	21626.94	-64.76537	-1.109765E-007	0.0006708	7
	41	221	23.91582	11911.22	-22814.99	1	25737.15	-62.4319	-1.279682E-007	0.0005815	7
	42	224	18.60119	15549.68	-26350.15	1	30596.13	-59.45441	-1.024235E-007	0.0006016	7
	43	226	15.02404	19429.54	-29518.2	1	35338.8	-56.64619	-1.184354E-007	0.0006	7
	44	228	12.01923	24286.97	-33008.92	1	40981.04	-53.65548	-1.323604E-007	0.0007031	7
	45	231	9.450605	30017.34	-36081.4	1	46935.14	-50.24178	-4.873625E-008	0.0006695	6
	46	233	7.512019	36272.59	-39149.04	1	53369.92	-47.1841	-4.707879E-008	0.0007373	6
	47	236	5.978954	42556.46	-41377.15	1	59355.89	-44.19501	-4.447229E-008	0.0007132	6
	48	241	4.734848	49319.21	-43521.74	1	65776.34	-41.42679	-4.95033E-008	0.0007343	6
	49	244	3.75601	56423.18	-45304	1	72360.4	-38.76211	-4.924434E-008	0.0006311	6
	50	250	3.004808	63369.23	-46663.97	1	78696.79	-36.36727	-4.841817E-008	0.0007057	6
	51	256	2.372217	70830.76	-48067.6	1	85600.76	-34.16184	-5.189714E-008	0.0006852	6
	52	260	1.878005	78321.92	-48825.43	1	92294.34	-31.93917	-5.338866E-008	0.0006626	6
	53	265	1.512097	85214.8	-49447.64	1	98522.2	-30.12533	-5.266001E-008	0.0005951	6
	54	271	1.201923	92688.32	-49718.86	1	105181.2	-28.20951	-5.425819E-008	0.0006735	6
	55	277	0.956633	99863.3	-49306.24	1	111372.3	-26.27727	-5.89843E-008	3.143273E-005	6
