EXPLAIN
TAG	EISPOT
TITLE	LABEL	Potentiostatic EIS	Test Identifier
DATE	LABEL	8/23/2020	Date
TIME	LABEL	17:30:18	Time
NOTES	NOTES	1	Notes...
	
PSTAT	PSTAT	REF3000-16137	Potentiostat
VDC	POTEN	0.00000E+000	T	DC Voltage (V)
FREQINIT	QUANT	3.00000E+005	Initial Freq. (Hz)
FREQFINAL	QUANT	1.00000E+000	Final Freq. (Hz)
PTSPERDEC	QUANT	1.00000E+001	Points/decade
VAC	QUANT	5.00000E+001	AC Voltage (mV rms)
AREA	QUANT	1.00000E+000	Sample Area (cm^2)
SPEED	SELECTOR	2	Optimize for:
ZGUESS	QUANT	1.00000E+003	Estimated Z (ohms)
EOC	QUANT	0	Open Circuit (V)
SEQUENCER	TOGGLE	TRUE	Run as Sequence
PSTATMODEL	IQUANT	5	Pstat Model
PSTATSECTION	LABEL	REF3000-16137	Pstat Section
PSTATSERIALNO	LABEL	16137	Pstat Serial Number
CTRLMODE	IQUANT	1	Control Mode
IESTAB	IQUANT	0	I/E Stability
CASPEED	IQUANT	1	Control Amp Speed
CONVENTION	IQUANT	1	Current Convention
ICHRANGE	IQUANT	2	Ich Range
ICHRANGEMODE	TOGGLE	F	Ich Auto Range
ICHOFFSETENABLE	TOGGLE	T	Ich Offset Enable
ICHOFFSET	QUANT	0	Ich Offset (V)
ICHFILTER	IQUANT	3	Ich Filter
VCHRANGE	IQUANT	2	Vch Range
VCHRANGEMODE	TOGGLE	F	Vch Auto Range
VCHOFFSETENABLE	TOGGLE	T	Vch Offset Enable
VCHOFFSET	QUANT	0	Vch Offset (V)
VCHFILTER	IQUANT	3	Vch Filter
ACHRANGE	IQUANT	2	Ach Range
ACHOFFSETENABLE	TOGGLE	F	Ach Offset Enable
ACHOFFSET	QUANT	0	Ach Offset (V)
ACHFILTER	IQUANT	3	Ach Filter
IERANGELOWERLIMIT	IQUANT	2	I/E Range Lower Limit
IERANGEMODE	TOGGLE	F	I/E AutoRange
IERANGE	IQUANT	11	I/E Range
POSFEEDENABLE	TOGGLE	F	Positive Feedback IR Comp
POSFEEDRESISTANCE	QUANT	0	Positive Feedback Resistance (ohm)
ACHSELECT	IQUANT	0	Ach Select
CABLEID	IQUANT	13	Cable ID
DCCALDATE	LABEL	7/31/2020	DC Calibration Date
ACCALDATE	LABEL	7/31/2020	AC Calibration Date
THERMOSELECT	IQUANT	1	Thermo Select
FRAMEWORKVERSION	QUANT	6.33	Framework Version
INSTRUMENTVERSION	LABEL	3.50	Instrument Version
COMPLIANCEVOLTAGE	IQUANT	0	Compliance Voltage
ZCURVE	TABLE
	Pt	Time	Freq	Zreal	Zimag	Zsig	Zmod	Zphz	Idc	Vdc	IERange
	#	s	Hz	ohm	ohm	V	ohm	°	A	V	#
	0	9	300046.9	265.1023	-23.22045	1	266.1173	-5.005791	2.610174E-005	-0.0017083	9
	1	14	238359.4	267.1933	-23.64001	1	268.2371	-5.056095	5.639163E-005	-0.0005271	9
	2	19	189328.1	267.0909	-28.7235	1	268.6309	-6.138114	7.449271E-005	0.0005045	10
	3	23	150421.9	269.3947	-25.81279	1	270.6286	-5.473242	1.814258E-005	-0.0015209	9
	4	27	119484.4	271.6403	-28.7976	1	273.1625	-6.051538	3.488684E-005	0.0004328	9
	5	31	94921.88	273.8124	-32.36742	1	275.7189	-6.741659	-2.509437E-005	0.0007801	9
	6	35	75421.88	276.4013	-36.42853	1	278.7916	-7.50807	2.796733E-005	-0.0006681	9
	7	39	59859.37	277.7223	-42.72328	1	280.9892	-8.745513	0.0001329	-0.0052715	9
	8	43	47578.12	283.5145	-47.68556	1	287.4968	-9.54747	2.210125E-005	-0.0008756	9
	9	47	37828.12	287.6663	-54.45704	1	292.7755	-10.7196	1.208054E-005	0.0001611	9
	10	49	30046.88	292.3857	-62.99096	1	299.094	-12.15786	1.155233E-005	-0.0007133	9
	11	52	23859.38	297.9728	-73.15023	1	306.8204	-13.79294	2.542824E-005	-0.0007787	9
	12	54	18984.38	304.5253	-84.81715	1	316.1165	-15.56372	2.366026E-005	-0.0007748	9
	13	57	15046.87	309.921	-99.657	1	325.5496	-17.82552	-2.25443E-005	0.0005097	9
	14	59	11953.13	318.0692	-115.2061	1	338.2904	-19.91062	2.587407E-005	-0.0007556	9
	15	62	9515.62	325.1741	-134.4162	1	351.8607	-22.45857	-2.468333E-005	0.0007297	9
	16	64	7546.875	333.475	-158.8417	1	369.3728	-25.46952	-2.480109E-005	0.0007573	9
	17	66	5928.309	340.9795	-191.0552	1	390.8569	-29.26247	6.019548E-006	-0.000547	9
	18	69	4733.456	347.9467	-226.6583	1	415.2601	-33.0809	6.817605E-006	0.0008867	8
	19	71	3796.875	354.7594	-273.0766	1	447.6886	-37.58734	1.257142E-005	-0.0035362	8
	20	73	2987.132	363.4565	-333.1885	1	493.0671	-42.51217	1.187558E-005	-0.0019499	8
	21	76	2390.625	374.6231	-404.8503	1	551.5851	-47.22076	-1.168043E-005	0.0043295	8
	22	78	1884.191	390.8943	-500.2506	1	634.8615	-51.99604	-2.412461E-006	0.0040447	8
	23	80	1516.544	405.4278	-609.095	1	731.6888	-56.35135	-3.177587E-006	-0.0008494	8
	24	83	1193.986	426.7693	-758.4011	1	870.2323	-60.63257	1.23744E-005	-0.0027905	8
	25	85	946.5144	457.1843	-936.3909	1	1042.039	-63.97648	1.258392E-005	-0.0027599	8
	26	88	751.7689	497.3386	-1159.46	1	1261.623	-66.78358	-1.096862E-005	0.0028489	8
	27	90	597.4265	548.7422	-1425.791	1	1527.743	-68.94985	-3.015236E-006	-0.0010105	8
	28	93	477.4305	612.7429	-1747.231	1	1851.559	-70.67456	-1.154445E-007	0.0006575	8
	29	95	376.6741	706.2566	-2161.625	1	2274.076	-71.9065	-9.351969E-008	0.0006553	8
	30	98	298.2954	829.1097	-2659.976	1	2786.197	-72.68784	-1.151325E-007	0.0006612	8
	31	100	237.7717	985.348	-3248.875	1	3395.011	-73.12804	-7.927514E-008	0.0006531	8
	32	102	189.0121	1194.294	-3969.269	1	4145.049	-73.25424	-9.488396E-008	0.0006989	8
	33	105	150.2404	1480.121	-4846.922	1	5067.881	-73.01872	-6.631901E-008	0.0006347	7
	34	107	119.1737	1842.339	-5909.998	1	6190.5	-72.68604	-5.480502E-008	0.0006195	7
	35	110	95.0169	2331.577	-7141.916	1	7512.87	-71.92001	-6.346707E-008	0.0006358	7
	36	112	75.60484	2980.219	-8617.673	1	9118.442	-70.92326	-6.162236E-008	0.000639	7
	37	115	54.50582	4304.096	-11176.05	1	11976.2	-68.93742	-6.189688E-008	0.0006352	7
	38	117	45.95588	5249.907	-12713.62	1	13754.91	-67.56252	-6.243008E-008	0.0006427	7
	39	120	37.20238	6694.215	-14841.56	1	16281.41	-65.72247	-5.016692E-008	0.0006158	7
	40	122	30.04808	8593.583	-17151.57	1	19184.01	-63.38741	-5.64279E-008	0.0006265	7
	41	124	23.91582	11091.68	-19744.14	1	22646.33	-60.674	-5.315396E-008	0.0006281	7
	42	127	18.60119	14532.78	-22756.47	1	27001.09	-57.4368	-5.587907E-008	0.0006221	7
	43	129	15.02404	18072.73	-25065.99	1	30901.9	-54.20816	-6.087562E-008	0.0006188	7
	44	131	12.01923	22272.86	-27260.75	1	35202.68	-50.75014	-5.172969E-008	0.0006462	7
	45	134	9.450605	27285.64	-29208.29	1	39970.37	-46.94918	-5.000816E-008	0.0006192	7
	46	137	7.512019	32443.42	-30464.05	1	44504.32	-43.1978	-4.3059E-008	0.0006712	6
	47	140	5.978954	37564.08	-30631.2	1	48469.89	-39.19513	-4.726951E-008	0.0006643	6
	48	144	4.734848	42693.04	-30316.95	1	52362.32	-35.37912	-4.897904E-008	0.0006637	6
	49	149	3.75601	47330.62	-29233.13	1	55630.6	-31.701	-5.358114E-008	0.0006684	6
	50	154	3.004808	51185.68	-27562.71	1	58134.98	-28.30178	-5.300447E-008	0.0006607	6
	51	161	2.372217	54445.04	-25283.68	1	60029.39	-24.90964	-5.604879E-008	0.0007318	6
	52	168	1.878005	56420.75	-22194.28	1	60629.09	-21.47324	-6.135514E-008	0.0006566	6
	53	177	1.512097	57921.81	-20071.67	1	61300.96	-19.11276	-6.243282E-008	0.0006719	6
	54	188	1.201923	58792.95	-17752.98	1	61414.82	-16.80209	-6.42687E-008	0.0006914	6
	55	201	0.956633	59923.95	-15767.18	1	61963.57	-14.74152	-8.251596E-008	8.059639E-005	6
