EXPLAIN
TAG	EISPOT
TITLE	LABEL	Potentiostatic EIS	Test Identifier
DATE	LABEL	8/23/2020	Date
TIME	LABEL	13:47:29	Time
NOTES	NOTES	1	Notes...
	
PSTAT	PSTAT	REF3000-16137	Potentiostat
VDC	POTEN	0.00000E+000	T	DC Voltage (V)
FREQINIT	QUANT	3.00000E+005	Initial Freq. (Hz)
FREQFINAL	QUANT	1.00000E+000	Final Freq. (Hz)
PTSPERDEC	QUANT	1.00000E+001	Points/decade
VAC	QUANT	5.00000E+001	AC Voltage (mV rms)
AREA	QUANT	1.00000E+000	Sample Area (cm^2)
SPEED	SELECTOR	2	Optimize for:
ZGUESS	QUANT	1.00000E+003	Estimated Z (ohms)
EOC	QUANT	0	Open Circuit (V)
SEQUENCER	TOGGLE	TRUE	Run as Sequence
PSTATMODEL	IQUANT	5	Pstat Model
PSTATSECTION	LABEL	REF3000-16137	Pstat Section
PSTATSERIALNO	LABEL	16137	Pstat Serial Number
CTRLMODE	IQUANT	1	Control Mode
IESTAB	IQUANT	0	I/E Stability
CASPEED	IQUANT	1	Control Amp Speed
CONVENTION	IQUANT	1	Current Convention
ICHRANGE	IQUANT	2	Ich Range
ICHRANGEMODE	TOGGLE	F	Ich Auto Range
ICHOFFSETENABLE	TOGGLE	T	Ich Offset Enable
ICHOFFSET	QUANT	0	Ich Offset (V)
ICHFILTER	IQUANT	3	Ich Filter
VCHRANGE	IQUANT	2	Vch Range
VCHRANGEMODE	TOGGLE	F	Vch Auto Range
VCHOFFSETENABLE	TOGGLE	T	Vch Offset Enable
VCHOFFSET	QUANT	0	Vch Offset (V)
VCHFILTER	IQUANT	3	Vch Filter
ACHRANGE	IQUANT	2	Ach Range
ACHOFFSETENABLE	TOGGLE	F	Ach Offset Enable
ACHOFFSET	QUANT	0	Ach Offset (V)
ACHFILTER	IQUANT	3	Ach Filter
IERANGELOWERLIMIT	IQUANT	2	I/E Range Lower Limit
IERANGEMODE	TOGGLE	F	I/E AutoRange
IERANGE	IQUANT	11	I/E Range
POSFEEDENABLE	TOGGLE	F	Positive Feedback IR Comp
POSFEEDRESISTANCE	QUANT	0	Positive Feedback Resistance (ohm)
ACHSELECT	IQUANT	0	Ach Select
CABLEID	IQUANT	13	Cable ID
DCCALDATE	LABEL	7/31/2020	DC Calibration Date
ACCALDATE	LABEL	7/31/2020	AC Calibration Date
THERMOSELECT	IQUANT	1	Thermo Select
FRAMEWORKVERSION	QUANT	6.33	Framework Version
INSTRUMENTVERSION	LABEL	3.50	Instrument Version
COMPLIANCEVOLTAGE	IQUANT	0	Compliance Voltage
ZCURVE	TABLE
	Pt	Time	Freq	Zreal	Zimag	Zsig	Zmod	Zphz	Idc	Vdc	IERange
	#	s	Hz	ohm	ohm	V	ohm	°	A	V	#
	0	16	300046.9	241.9489	-17.2067	1	242.56	-4.067861	7.141279E-005	0.0118193	9
	1	30	238359.4	240.1416	-11.95559	1	240.439	-2.850151	-0.0003741	-0.0029536	9
	2	45	189328.1	232.3873	-34.80672	1	234.9795	-8.518379	-0.0008927	0.0037477	10
	3	53	150421.9	237.3319	-24.55037	1	238.5983	-5.905852	0.0006877	-0.0155424	9
	4	59	119484.4	238.9215	-27.17871	1	240.4624	-6.489829	-0.0002032	-0.0091391	9
	5	66	94921.88	241.2605	-29.8347	1	243.0982	-7.04951	-0.0001068	0.0092196	9
	6	71	75421.88	243.0019	-39.46704	1	246.186	-9.225118	-0.0001305	-8.823657E-005	10
	7	76	59859.37	246.9315	-39.73341	1	250.1078	-9.141029	0.0002616	-0.0091153	9
	8	80	47578.12	250.0447	-48.25622	1	254.6586	-10.92324	0.0002432	-0.000596	10
	9	85	37828.12	254.1502	-54.01439	1	259.8266	-11.99851	1.687334E-005	0.001834	10
	10	93	30046.88	258.5915	-61.19728	1	265.7342	-13.31445	0.0002851	0.0005685	10
	11	97	23859.38	263.225	-67.99349	1	271.8649	-14.48345	0.0002649	-0.0054978	9
	12	102	18984.38	268.3203	-80.13515	1	280.0311	-16.62851	1.918149E-005	-0.0066219	9
	13	106	15046.87	273.9272	-92.66548	1	289.1764	-18.68991	-0.0001449	-0.0009506	9
	14	111	11953.13	280.4161	-110.3502	1	301.3476	-21.48078	-0.0002325	0.0099771	9
	15	117	9515.62	286.4048	-130.0703	1	314.5568	-24.4251	0.000263	-0.0089767	9
	16	122	7546.875	293.1996	-153.3421	1	330.8773	-27.60936	-0.0001797	0.0099987	9
	17	127	5928.309	299.9531	-186.7141	1	353.3185	-31.90134	-0.0001086	0.0091406	9
	18	132	4733.456	310.4865	-223.6877	1	382.6722	-35.77058	-0.0002165	0.0025162	9
	19	138	3796.875	316.8374	-270.029	1	416.2951	-40.43975	6.415797E-005	0.0046002	9
	20	143	2987.132	329.4166	-333.0723	1	468.4576	-45.31616	6.770893E-005	0.0044677	9
	21	148	2390.625	338.1597	-404.6441	1	527.3413	-50.11461	0.0002217	-0.0023528	9
	22	154	1884.191	356.9757	-497.8301	1	612.59	-54.35708	0.0002658	-0.0091728	9
	23	159	1516.544	372.474	-608.8104	1	713.7136	-58.54144	-0.0002618	0.0090452	9
	24	165	1193.986	394.6762	-758.1124	1	854.6951	-62.49834	-0.0002593	0.0090226	9
	25	171	946.5144	392.5564	-932.4636	1	1011.726	-67.16947	0.0001453	0.0012439	9
	26	176	751.7689	447.4787	-1119.635	1	1205.745	-68.21515	0.0002453	-0.0106413	9
	27	181	597.4265	527.385	-1455.118	1	1547.741	-70.07774	9.246557E-005	-0.0086558	9
	28	186	477.4305	615.7921	-1732.839	1	1839.003	-70.43652	-5.386831E-007	0.0006061	8
	29	188	376.6741	720.4686	-2129.351	1	2247.934	-71.30669	-4.658509E-007	0.0007096	8
	30	190	298.2954	856.5053	-2601.163	1	2738.549	-71.77443	-4.526748E-007	0.0007178	8
	31	193	237.7717	1042.407	-3180.22	1	3346.702	-71.85199	-4.816139E-007	0.0006095	8
	32	195	189.0121	1277.585	-3856.86	1	4062.953	-71.67255	-4.959485E-007	0.0007181	8
	33	197	150.2404	1625.773	-4703.703	1	4976.742	-70.93297	-1.262919E-007	0.0006047	7
	34	200	119.1737	2053.769	-5753.857	1	6109.406	-70.3566	-1.414772E-007	0.0005855	7
	35	202	95.0169	2588.948	-6823.717	1	7298.34	-69.22304	-1.249164E-007	0.0006928	7
	36	205	75.60484	3319.002	-8161.592	1	8810.64	-67.87034	-1.216519E-007	0.0005536	7
	37	207	54.50582	4812.525	-10415.81	1	11473.87	-65.20116	-1.30166E-007	0.0006896	7
	38	210	45.95588	5761.435	-11659.12	1	13004.97	-63.7034	-1.109749E-007	0.0005622	7
	39	212	37.20238	7328.104	-13452.95	1	15319.37	-61.42195	-1.280986E-007	0.0005816	7
	40	214	30.04808	9207.482	-15260.88	1	17823.36	-58.89579	-1.242504E-007	0.0006108	7
	41	217	23.91582	11666.41	-17163.93	1	20753.45	-55.79585	-1.370774E-007	0.0006066	7
	42	220	18.60119	14920.26	-19320.38	1	24410.88	-52.32271	-1.35981E-007	0.0006281	7
	43	222	15.02404	17967.69	-20724.87	1	27429.15	-49.07593	-1.097319E-007	0.0005528	7
	44	224	12.01923	21508.28	-22003.2	1	30769.25	-45.65168	-1.18669E-007	0.0006412	7
	45	227	9.450605	25735.8	-23107.64	1	34587.49	-41.92001	-1.341066E-007	0.00063	7
	46	230	7.512019	29504.86	-23471.02	1	37701.8	-38.50213	-1.384721E-007	0.0007074	7
	47	233	5.978954	33462.16	-23227.77	1	40733.84	-34.76646	-8.1979E-008	0.0007169	6
	48	237	4.734848	36953.14	-22410.95	1	43217.89	-31.23553	-8.111654E-008	0.0007708	6
	49	242	3.75601	40067.52	-21433.02	1	45439.86	-28.14333	-8.877996E-008	0.0007436	6
	50	247	3.004808	42731.04	-20336.71	1	47323.61	-25.45088	-9.219537E-008	0.0006231	6
	51	254	2.372217	45077.64	-18858.7	1	48863.53	-22.70251	-9.414182E-008	0.0007279	6
	52	261	1.878005	46701.79	-16943.28	1	49680.3	-19.94063	-1.025962E-007	0.0006712	6
	53	270	1.512097	48406.32	-15906.31	1	50952.75	-18.19051	-1.006003E-007	0.0006335	6
	54	281	1.201923	50018.76	-14775.27	1	52155.39	-16.45685	-9.95189E-008	0.0006624	6
	55	294	0.956633	51497.14	-13640.04	1	53272.94	-14.83526	-1.153568E-007	4.248999E-005	6
