EXPLAIN
TAG	EISPOT
TITLE	LABEL	Potentiostatic EIS	Test Identifier
DATE	LABEL	8/23/2020	Date
TIME	LABEL	16:14:23	Time
NOTES	NOTES	1	Notes...
	
PSTAT	PSTAT	REF3000-16137	Potentiostat
VDC	POTEN	0.00000E+000	T	DC Voltage (V)
FREQINIT	QUANT	3.00000E+005	Initial Freq. (Hz)
FREQFINAL	QUANT	1.00000E+000	Final Freq. (Hz)
PTSPERDEC	QUANT	1.00000E+001	Points/decade
VAC	QUANT	5.00000E+001	AC Voltage (mV rms)
AREA	QUANT	1.00000E+000	Sample Area (cm^2)
SPEED	SELECTOR	2	Optimize for:
ZGUESS	QUANT	1.00000E+003	Estimated Z (ohms)
EOC	QUANT	0	Open Circuit (V)
SEQUENCER	TOGGLE	TRUE	Run as Sequence
PSTATMODEL	IQUANT	5	Pstat Model
PSTATSECTION	LABEL	REF3000-16137	Pstat Section
PSTATSERIALNO	LABEL	16137	Pstat Serial Number
CTRLMODE	IQUANT	1	Control Mode
IESTAB	IQUANT	0	I/E Stability
CASPEED	IQUANT	1	Control Amp Speed
CONVENTION	IQUANT	1	Current Convention
ICHRANGE	IQUANT	2	Ich Range
ICHRANGEMODE	TOGGLE	F	Ich Auto Range
ICHOFFSETENABLE	TOGGLE	T	Ich Offset Enable
ICHOFFSET	QUANT	0	Ich Offset (V)
ICHFILTER	IQUANT	3	Ich Filter
VCHRANGE	IQUANT	2	Vch Range
VCHRANGEMODE	TOGGLE	F	Vch Auto Range
VCHOFFSETENABLE	TOGGLE	T	Vch Offset Enable
VCHOFFSET	QUANT	0	Vch Offset (V)
VCHFILTER	IQUANT	3	Vch Filter
ACHRANGE	IQUANT	2	Ach Range
ACHOFFSETENABLE	TOGGLE	F	Ach Offset Enable
ACHOFFSET	QUANT	0	Ach Offset (V)
ACHFILTER	IQUANT	3	Ach Filter
IERANGELOWERLIMIT	IQUANT	2	I/E Range Lower Limit
IERANGEMODE	TOGGLE	F	I/E AutoRange
IERANGE	IQUANT	11	I/E Range
POSFEEDENABLE	TOGGLE	F	Positive Feedback IR Comp
POSFEEDRESISTANCE	QUANT	0	Positive Feedback Resistance (ohm)
ACHSELECT	IQUANT	0	Ach Select
CABLEID	IQUANT	13	Cable ID
DCCALDATE	LABEL	7/31/2020	DC Calibration Date
ACCALDATE	LABEL	7/31/2020	AC Calibration Date
THERMOSELECT	IQUANT	1	Thermo Select
FRAMEWORKVERSION	QUANT	6.33	Framework Version
INSTRUMENTVERSION	LABEL	3.50	Instrument Version
COMPLIANCEVOLTAGE	IQUANT	0	Compliance Voltage
ZCURVE	TABLE
	Pt	Time	Freq	Zreal	Zimag	Zsig	Zmod	Zphz	Idc	Vdc	IERange
	#	s	Hz	ohm	ohm	V	ohm	°	A	V	#
	0	20	300046.9	346.7437	-2798.857	1	2820.254	-82.93774	-0.0008007	0.0363814	9
	1	35	238359.4	-460.4631	-3236.765	1	3269.354	-98.0966	-0.0002587	-0.001458	10
	2	51	189328.1	325.8009	-4187.592	1	4200.247	-85.55126	-0.0008872	0.003547	10
	3	60	150421.9	314.2695	-5037.696	1	5047.489	-86.43031	-0.0008144	0.029166	9
	4	70	119484.4	346.312	-6047.645	1	6057.552	-86.7226	-0.0005271	0.0024687	9
	5	79	94921.88	266.9404	-7777.909	1	7782.488	-88.03436	0.0002284	-0.0014308	9
	6	88	75421.88	410.3744	-9411.576	1	9420.519	-87.5033	-5.723376E-005	0.0090204	9
	7	98	59859.37	-1559.719	-12541.64	1	12638.25	-97.0891	-0.0002908	0.0092809	9
	8	110	47578.12	396.4077	-15596.83	1	15601.87	-88.54409	4.306292E-005	0.0062885	9
	9	120	37828.12	95.7082	-19410.07	1	19410.31	-89.71748	-5.645183E-005	0.0089992	9
	10	130	30046.88	2738.302	-25578.67	1	25724.83	-83.88953	-6.562172E-006	-0.0436228	8
	11	139	23859.38	-2145.88	-30981.02	1	31055.25	-93.96223	0.000145	0.0023153	9
	12	147	18984.38	2770.4	-36690.49	1	36794.93	-85.68195	0.0000994	0.0149621	8
	13	154	15046.87	3068.884	-37942.68	1	38066.59	-85.37586	0.0003046	-0.0076649	9
	14	163	11953.13	-10221.77	-59618.34	1	60488.27	-99.729	-0.0001522	-0.0017762	9
	15	171	9515.62	18268.61	-73988.04	1	76210.05	-76.13034	-0.0001472	0.0107104	9
	16	180	7546.875	-21057.74	-92012.05	1	94390.92	-102.8906	-5.271286E-005	-0.0054368	9
	17	190	5928.309	11059.61	-64248.93	1	65193.86	-80.233	0.0002686	-0.0108197	9
	18	199	4733.456	-135831.8	-70597.97	1	153082.8	-152.537	0.000229	-0.0014402	9
	19	209	3796.875	2627.114	-76019.4	1	76064.78	-88.02074	4.589224E-005	-0.0083019	9
	20	219	2987.132	173106.3	148529.5	1	228093.8	40.63041	-4.878748E-005	-0.0055998	9
	21	228	2390.625	-126097.8	91790.64	1	155968.5	143.9479	-0.0001429	0.0521264	8
	22	234	1884.191	528154.5	-63469.69	1	531954.5	-6.852521	-5.59898E-005	0.0089542	9
	23	244	1516.544	494940	-58127.68	1	498341.7	-6.698355	-7.298631E-005	0.0592585	8
	24	253	1193.986	-80921.04	-932.4093	1	80926.41	-179.3398	-0.0002739	0.0109411	9
	25	266	946.5144	67943.67	25909.3	1	72716.13	20.8736	0.0002749	-0.0108561	9
	26	273	751.7689	18373.28	-18780.18	1	26273.04	-45.62748	-0.0002743	0.0111286	9
	27	281	597.4265	31081.22	3304.519	1	31256.4	6.06882	-0.0002241	0.0116008	9
	28	288	477.4305	271488.9	-1476206	1	1500964	-79.57919	-1.913431E-006	0.0006905	8
	29	294	376.6741	431198.8	-2849858	1	2882295	-81.3961	-8.402282E-008	0.0005381	6
	30	299	298.2954	3258720	-4714002	1	5730713	-55.34447	-8.462251E-009	0.0005131	5
	31	303	237.7717	4280369	-5643910	1	7083451	-52.82314	-8.885801E-009	0.0007881	5
	32	307	189.0121	3587018	-7021802	1	7884948	-62.94023	-8.887998E-009	0.0005134	5
	33	311	150.2404	5965122	-9301979	1	1.105032E+007	-57.32898	-8.892372E-009	0.0005075	5
	34	315	119.1737	4826003	5000768	1	6949675	46.01888	-8.985904E-009	0.0005535	5
	35	319	95.0169	4972553	-1.411593E+007	1	1.496616E+007	-70.59441	-8.514674E-009	0.0006131	5
	36	323	75.60484	789023.4	-1.47258E+007	1	1.474693E+007	-86.93297	-9.126016E-009	0.0007366	5
	37	327	54.50582	4434027	-1.888545E+007	1	1.939899E+007	-76.7871	-8.305786E-009	0.0007572	5
	38	331	45.95588	2.609951E+007	-7.179099E+007	1	7.638803E+007	-70.02134	-7.278275E-010	0.0005725	4
	39	334	37.20238	1.130728E+008	-2.439245E+008	1	2.68858E+008	-65.12962	-5.648644E-010	0.0005279	4
	40	337	30.04808	2.583763E+007	-3.697466E+007	1	4.510774E+007	-55.05442	-8.484825E-008	0.0005377	6
	41	345	23.91582	-1.93906E+007	-4.161202E+007	1	4.590812E+007	-114.9848	-8.534573E-008	0.0008038	6
	42	350	18.60119	-2.862427E+007	2838479	1	2.876466E+007	174.3369	-7.330989E-009	0.0007879	5
	43	356	15.02404	1.688692E+007	-4.367432E+007	1	4.682536E+007	-68.86073	-8.467603E-008	0.0007866	6
	44	362	12.01923	2.316639E+007	-7.916878E+007	1	8.248866E+007	-73.68945	-9.44417E-009	0.0005494	5
	45	367	9.450605	1.46142E+007	-3.87183E+007	1	4.138456E+007	-69.32101	-8.712743E-008	0.0007764	6
	46	374	7.512019	4.447637E+007	-8.364586E+007	1	9.47353E+007	-61.99943	-8.91619E-009	0.0007796	5
	47	380	5.978954	7.031966E+007	-8.551535E+007	1	1.107146E+008	-50.56938	-8.654455E-008	0.0007789	6
	48	390	4.734848	7317164	-3.579347E+008	1	3.580095E+008	-88.82888	-8.360528E-009	0.0007331	5
	49	398	3.75601	3.091009E+007	-1.796926E+008	1	1.823317E+008	-80.2397	-8.698804E-008	0.0007985	6
	50	409	3.004808	1.394804E+009	-5.450706E+009	1	5.626338E+009	-75.64635	-8.528791E-009	0.0006048	5
	51	419	2.372217	-4.258202E+008	-2.064879E+008	1	4.732442E+008	-154.1304	-4.342385E-010	0.0005844	4
	52	435	1.878005	1.708714E+009	-5.551357E+009	1	5.808379E+009	-72.89158	-1.742186E-011	0.0007263	3
	53	445	1.512097	-1.502981E+010	-5.773367E+009	1	1.610052E+010	-158.9868	1.045153E-011	0.0006455	3
	54	461	1.201923	9.818049E+008	5.647212E+008	1	1.13263E+009	29.90694	8.123038E-012	0.0007338	3
	55	479	0.956633	-2.585864E+009	-3.478796E+008	1	2.60916E+009	-172.3379	1.056008E-011	7.49552E-005	3
