EXPLAIN
TAG	EISPOT
TITLE	LABEL	Potentiostatic EIS	Test Identifier
DATE	LABEL	8/23/2020	Date
TIME	LABEL	13:52:33	Time
NOTES	NOTES	1	Notes...
	
PSTAT	PSTAT	REF3000-16137	Potentiostat
VDC	POTEN	0.00000E+000	T	DC Voltage (V)
FREQINIT	QUANT	3.00000E+005	Initial Freq. (Hz)
FREQFINAL	QUANT	1.00000E+000	Final Freq. (Hz)
PTSPERDEC	QUANT	1.00000E+001	Points/decade
VAC	QUANT	5.00000E+001	AC Voltage (mV rms)
AREA	QUANT	1.00000E+000	Sample Area (cm^2)
SPEED	SELECTOR	2	Optimize for:
ZGUESS	QUANT	1.00000E+003	Estimated Z (ohms)
EOC	QUANT	0	Open Circuit (V)
SEQUENCER	TOGGLE	TRUE	Run as Sequence
PSTATMODEL	IQUANT	5	Pstat Model
PSTATSECTION	LABEL	REF3000-16137	Pstat Section
PSTATSERIALNO	LABEL	16137	Pstat Serial Number
CTRLMODE	IQUANT	1	Control Mode
IESTAB	IQUANT	0	I/E Stability
CASPEED	IQUANT	1	Control Amp Speed
CONVENTION	IQUANT	1	Current Convention
ICHRANGE	IQUANT	2	Ich Range
ICHRANGEMODE	TOGGLE	F	Ich Auto Range
ICHOFFSETENABLE	TOGGLE	T	Ich Offset Enable
ICHOFFSET	QUANT	0	Ich Offset (V)
ICHFILTER	IQUANT	3	Ich Filter
VCHRANGE	IQUANT	2	Vch Range
VCHRANGEMODE	TOGGLE	F	Vch Auto Range
VCHOFFSETENABLE	TOGGLE	T	Vch Offset Enable
VCHOFFSET	QUANT	0	Vch Offset (V)
VCHFILTER	IQUANT	3	Vch Filter
ACHRANGE	IQUANT	2	Ach Range
ACHOFFSETENABLE	TOGGLE	F	Ach Offset Enable
ACHOFFSET	QUANT	0	Ach Offset (V)
ACHFILTER	IQUANT	3	Ach Filter
IERANGELOWERLIMIT	IQUANT	2	I/E Range Lower Limit
IERANGEMODE	TOGGLE	F	I/E AutoRange
IERANGE	IQUANT	11	I/E Range
POSFEEDENABLE	TOGGLE	F	Positive Feedback IR Comp
POSFEEDRESISTANCE	QUANT	0	Positive Feedback Resistance (ohm)
ACHSELECT	IQUANT	0	Ach Select
CABLEID	IQUANT	13	Cable ID
DCCALDATE	LABEL	7/31/2020	DC Calibration Date
ACCALDATE	LABEL	7/31/2020	AC Calibration Date
THERMOSELECT	IQUANT	1	Thermo Select
FRAMEWORKVERSION	QUANT	6.33	Framework Version
INSTRUMENTVERSION	LABEL	3.50	Instrument Version
COMPLIANCEVOLTAGE	IQUANT	0	Compliance Voltage
ZCURVE	TABLE
	Pt	Time	Freq	Zreal	Zimag	Zsig	Zmod	Zphz	Idc	Vdc	IERange
	#	s	Hz	ohm	ohm	V	ohm	°	A	V	#
	0	16	300046.9	247.5877	-17.85333	1	248.2305	-4.124409	0.0005413	-0.0012954	9
	1	29	238359.4	233.6957	-37.37813	1	236.666	-9.087125	6.011883E-005	-0.0022104	10
	2	43	189328.1	239.3876	-21.70582	1	240.3696	-5.180971	-0.0003956	-0.0020441	9
	3	51	150421.9	238.1033	-34.69011	1	240.6171	-8.289303	0.0002392	-0.0018238	10
	4	58	119484.4	242.943	-27.63466	1	244.5097	-6.489475	0.0001216	0.0116721	9
	5	65	94921.88	244.3878	-37.30666	1	247.2189	-8.679399	0.0003073	0.0005176	10
	6	70	75421.88	247.8678	-35.48767	1	250.3954	-8.147768	0.0002754	-0.0096631	9
	7	75	59859.37	251.4427	-44.17554	1	255.2937	-9.96451	0.0003342	-0.000249	10
	8	79	47578.12	255.5634	-45.96712	1	259.6644	-10.19653	-0.0001843	0.0103548	9
	9	86	37828.12	260.1057	-52.55477	1	265.3619	-11.42292	9.672279E-006	-0.006739	9
	10	91	30046.88	264.3165	-60.12275	1	271.0682	-12.81474	-7.856644E-005	-0.0039328	9
	11	99	23859.38	269.9821	-70.6033	1	279.0612	-14.65528	0.0002347	-0.0026552	9
	12	103	18984.38	274.5325	-83.44633	1	286.9345	-16.90706	0.0001671	-0.0007265	10
	13	108	15046.87	280.5859	-95.8775	1	296.5146	-18.86553	-0.0002609	0.0091918	9
	14	114	11953.13	287.2331	-112.7623	1	308.5745	-21.43404	0.0001751	-0.01	9
	15	118	9515.62	293.5409	-132.9918	1	322.2625	-24.3734	7.229894E-005	0.0044256	9
	16	124	7546.875	300.3639	-158.9753	1	339.8406	-27.89118	-0.0002213	0.0026025	9
	17	129	5928.309	308.728	-193.3865	1	364.2957	-32.06293	0.0002862	-0.00794	9
	18	134	4733.456	315.5705	-232.0386	1	391.6971	-36.327	0.0001603	0.0010189	9
	19	140	3796.875	323.2506	-278.0219	1	426.365	-40.69823	0.0001589	0.0010379	9
	20	145	2987.132	334.0307	-341.5463	1	477.7346	-45.63737	0.0002352	-0.0102228	9
	21	150	2390.625	343.8718	-418.7241	1	541.8281	-50.60589	0.0002758	-0.0058277	9
	22	156	1884.191	360.2774	-517.1893	1	630.3052	-55.13868	-0.0002595	0.0053746	9
	23	161	1516.544	375.7717	-634.8193	1	737.699	-59.37723	-0.0002347	0.0101931	9
	24	166	1193.986	413.4363	-782.964	1	885.4164	-62.16415	0.0002777	-0.0076478	9
	25	173	946.5144	389.7827	-916.2214	1	995.687	-66.95393	-0.0002307	0.0096465	9
	26	178	751.7689	506.3989	-1179.375	1	1283.497	-66.76232	0.0002742	-0.0093707	9
	27	183	597.4265	517.6523	-1545.443	1	1629.833	-71.48151	0.0002273	-0.0099002	9
	28	188	477.4305	616.9065	-1793.961	1	1897.069	-71.02296	7.987525E-007	6.231693E-005	9
	29	190	376.6741	724.4283	-2214.287	1	2329.778	-71.88393	-4.75772E-007	0.0007139	8
	30	192	298.2954	862.2051	-2714.539	1	2848.178	-72.37886	-4.676823E-007	0.0007078	8
	31	194	237.7717	1044.554	-3320.865	1	3481.27	-72.53941	-4.756479E-007	0.0006254	8
	32	197	189.0121	1274.831	-4027.718	1	4224.655	-72.43666	-4.439819E-007	0.0007081	8
	33	199	150.2404	1622.807	-4937.696	1	5197.533	-71.80655	-1.30436E-007	0.000694	7
	34	202	119.1737	2060.095	-6014.028	1	6357.085	-71.09119	-1.408228E-007	0.0006894	7
	35	204	95.0169	2575.328	-7189.447	1	7636.784	-70.29199	-1.141867E-007	0.0006961	7
	36	207	75.60484	3302.33	-8660.865	1	9269.087	-69.12849	-1.329125E-007	0.0006976	7
	37	209	54.50582	4785.392	-11114.6	1	12101.01	-66.7057	-1.238689E-007	0.0006952	7
	38	212	45.95588	5723.104	-12495.6	1	13743.87	-65.39178	-1.040285E-007	0.0005593	7
	39	214	37.20238	7318.878	-14565.54	1	16300.95	-63.32143	-1.24823E-007	0.0006297	7
	40	216	30.04808	9233.963	-16557.53	1	18958.32	-60.85204	-1.123818E-007	0.0007041	7
	41	219	23.91582	11815.34	-18996.37	1	22371.06	-58.11926	-1.37879E-007	0.0006567	7
	42	222	18.60119	15285.62	-21469.79	1	26355.31	-54.55068	-1.183254E-007	0.0006967	7
	43	224	15.02404	18515.99	-23425.37	1	29859.5	-51.67629	-1.070422E-007	0.0006638	7
	44	227	12.01923	22615.78	-25511.85	1	34092.93	-48.4436	-1.270115E-007	0.0006267	7
	45	229	9.450605	27084.96	-26973.25	1	38225.01	-44.8816	-1.108929E-007	0.000602	7
	46	232	7.512019	32115.6	-28439.26	1	42897.59	-41.52579	-5.642015E-008	0.000738	6
	47	235	5.978954	36612.11	-28962.77	1	46682.85	-38.34649	-5.518329E-008	0.0007452	6
	48	239	4.734848	41412.81	-29519.99	1	50857.16	-35.48214	-6.168361E-008	0.0006865	6
	49	242	3.75601	46038.96	-29429.91	1	54641.61	-32.58831	-6.187317E-008	0.0006049	6
	50	248	3.004808	50313.45	-29015.87	1	58080.67	-29.97213	-6.11315E-008	0.0006282	6
	51	254	2.372217	54866.54	-28772.87	1	61953.33	-27.67322	-6.778622E-008	0.0006579	6
	52	259	1.878005	58867.68	-27735.73	1	65074.37	-25.22765	-7.041981E-008	0.000668	6
	53	263	1.512097	61916.99	-26321.67	1	67279.59	-23.03094	-6.852711E-008	0.0005745	6
	54	274	1.201923	64975.98	-24804.68	1	69549.63	-20.89443	-7.051226E-008	0.0006822	6
	55	287	0.956633	67868.68	-23453.23	1	71806.77	-19.06351	-8.123668E-008	3.822161E-005	6
