EXPLAIN
TAG	EISPOT
TITLE	LABEL	Potentiostatic EIS	Test Identifier
DATE	LABEL	8/23/2020	Date
TIME	LABEL	16:51:25	Time
NOTES	NOTES	1	Notes...
	
PSTAT	PSTAT	REF3000-16137	Potentiostat
VDC	POTEN	0.00000E+000	T	DC Voltage (V)
FREQINIT	QUANT	3.00000E+005	Initial Freq. (Hz)
FREQFINAL	QUANT	1.00000E+000	Final Freq. (Hz)
PTSPERDEC	QUANT	1.00000E+001	Points/decade
VAC	QUANT	5.00000E+001	AC Voltage (mV rms)
AREA	QUANT	1.00000E+000	Sample Area (cm^2)
SPEED	SELECTOR	2	Optimize for:
ZGUESS	QUANT	1.00000E+003	Estimated Z (ohms)
EOC	QUANT	0	Open Circuit (V)
SEQUENCER	TOGGLE	TRUE	Run as Sequence
PSTATMODEL	IQUANT	5	Pstat Model
PSTATSECTION	LABEL	REF3000-16137	Pstat Section
PSTATSERIALNO	LABEL	16137	Pstat Serial Number
CTRLMODE	IQUANT	1	Control Mode
IESTAB	IQUANT	0	I/E Stability
CASPEED	IQUANT	1	Control Amp Speed
CONVENTION	IQUANT	1	Current Convention
ICHRANGE	IQUANT	2	Ich Range
ICHRANGEMODE	TOGGLE	F	Ich Auto Range
ICHOFFSETENABLE	TOGGLE	T	Ich Offset Enable
ICHOFFSET	QUANT	0	Ich Offset (V)
ICHFILTER	IQUANT	3	Ich Filter
VCHRANGE	IQUANT	2	Vch Range
VCHRANGEMODE	TOGGLE	F	Vch Auto Range
VCHOFFSETENABLE	TOGGLE	T	Vch Offset Enable
VCHOFFSET	QUANT	0	Vch Offset (V)
VCHFILTER	IQUANT	3	Vch Filter
ACHRANGE	IQUANT	2	Ach Range
ACHOFFSETENABLE	TOGGLE	F	Ach Offset Enable
ACHOFFSET	QUANT	0	Ach Offset (V)
ACHFILTER	IQUANT	3	Ach Filter
IERANGELOWERLIMIT	IQUANT	2	I/E Range Lower Limit
IERANGEMODE	TOGGLE	F	I/E AutoRange
IERANGE	IQUANT	11	I/E Range
POSFEEDENABLE	TOGGLE	F	Positive Feedback IR Comp
POSFEEDRESISTANCE	QUANT	0	Positive Feedback Resistance (ohm)
ACHSELECT	IQUANT	0	Ach Select
CABLEID	IQUANT	13	Cable ID
DCCALDATE	LABEL	7/31/2020	DC Calibration Date
ACCALDATE	LABEL	7/31/2020	AC Calibration Date
THERMOSELECT	IQUANT	1	Thermo Select
FRAMEWORKVERSION	QUANT	6.33	Framework Version
INSTRUMENTVERSION	LABEL	3.50	Instrument Version
COMPLIANCEVOLTAGE	IQUANT	0	Compliance Voltage
ZCURVE	TABLE
	Pt	Time	Freq	Zreal	Zimag	Zsig	Zmod	Zphz	Idc	Vdc	IERange
	#	s	Hz	ohm	ohm	V	ohm	°	A	V	#
	0	14	300046.9	281.5809	-26.27414	1	282.804	-5.330798	3.556493E-005	0.0002132	9
	1	18	238359.4	281.7647	-30.20495	1	283.379	-6.118696	6.986102E-005	0.0004873	10
	2	24	189328.1	283.9142	-28.17869	1	285.3092	-5.668083	-1.043274E-005	-0.0011908	9
	3	28	150421.9	285.7963	-28.50428	1	287.2143	-5.695635	7.498736E-005	-0.0021533	9
	4	34	119484.4	286.8366	-32.01754	1	288.618	-6.369155	-8.141524E-005	0.0022032	9
	5	38	94921.88	289.4425	-35.08982	1	291.5618	-6.912374	-2.071234E-005	0.0008902	9
	6	42	75421.88	291.7785	-39.61288	1	294.4553	-7.731408	-1.936639E-005	0.0004121	9
	7	46	59859.37	295.3225	-45.00661	1	298.7323	-8.6651	-1.623897E-005	0.0001716	9
	8	48	47578.12	299.0836	-51.62326	1	303.5061	-9.79304	2.053131E-005	-0.0001336	9
	9	51	37828.12	303.2047	-58.62372	1	308.82	-10.94294	6.651372E-006	-0.000505	9
	10	55	30046.88	309.3953	-68.94397	1	316.9838	-12.56224	-1.95133E-005	0.0006112	10
	11	59	23859.38	314.82	-78.72909	1	324.5149	-14.04037	6.418823E-006	-0.0005511	9
	12	61	18984.38	321.5814	-90.8396	1	334.1652	-15.77381	1.989131E-005	-3.779822E-005	9
	13	63	15046.87	328.9506	-105.6403	1	345.4973	-17.80407	-1.682854E-005	0.0002343	9
	14	65	11953.13	337.8828	-122.2905	1	359.3323	-19.89679	-1.630226E-005	0.0009415	9
	15	68	9515.62	345.7576	-141.977	1	373.7724	-22.32431	1.289127E-005	0.0001423	9
	16	70	7546.875	353.3866	-164.4118	1	389.7606	-24.95003	-8.985258E-006	0.0051015	8
	17	73	5928.309	362.7999	-196.902	1	412.7883	-28.48996	8.018142E-006	-0.0036837	8
	18	75	4733.456	370.9418	-233.2202	1	438.166	-32.15858	-6.435503E-006	0.0003797	8
	19	77	3796.875	379.6075	-276.0179	1	469.3482	-36.02142	-9.450081E-006	0.0018823	8
	20	80	2987.132	389.4299	-339.849	1	516.8684	-41.11066	-6.810224E-006	0.0005018	8
	21	82	2390.625	398.8607	-409.8978	1	571.9319	-45.78186	6.518767E-006	0.0009974	8
	22	84	1884.191	414.5281	-503.4287	1	652.1304	-50.53163	-1.095104E-005	0.0028211	8
	23	86	1516.544	432.1228	-614.253	1	751.0239	-54.87387	9.883583E-006	-0.0006409	8
	24	89	1193.986	453.7039	-761.2925	1	886.2356	-59.20653	-6.749179E-006	0.000516	8
	25	91	946.5144	481.5906	-941.8931	1	1057.871	-62.91931	-2.509995E-006	0.0039769	8
	26	94	751.7689	522.1395	-1156.659	1	1269.051	-65.70462	4.882301E-006	-0.0031699	8
	27	97	597.4265	574.0234	-1428.591	1	1539.602	-68.1092	-2.449742E-006	0.0040024	8
	28	99	477.4305	640.2955	-1747.592	1	1861.198	-69.87781	-1.511622E-007	0.0006553	8
	29	101	376.6741	733.3751	-2160.834	1	2281.894	-71.25307	-1.302268E-007	0.0006507	8
	30	104	298.2954	854.9626	-2658.501	1	2792.595	-72.17243	-1.750582E-007	0.0006973	8
	31	106	237.7717	1012.72	-3245.918	1	3400.233	-72.67218	-1.219693E-007	0.0006461	8
	32	109	189.0121	1221.448	-3965.665	1	4149.51	-72.88086	-1.391412E-007	0.0006523	8
	33	111	150.2404	1506.566	-4843.267	1	5072.177	-72.72095	-7.309264E-008	0.0006451	7
	34	113	119.1737	1884.495	-5898.314	1	6192.046	-72.28146	-6.712676E-008	0.000633	7
	35	116	95.0169	2374.449	-7130.057	1	7515.033	-71.58123	-6.657496E-008	0.0006255	7
	36	118	75.60484	3042.801	-8591.484	1	9114.397	-70.49765	-6.645145E-008	0.0006172	7
	37	121	54.50582	4399.393	-11112.46	1	11951.63	-68.40153	-6.565772E-008	0.000646	7
	38	123	45.95588	5964.383	-11970.89	1	13374.46	-63.51565	-2.162085E-007	0.0006389	7
	39	126	37.20238	7518.226	-13653.5	1	15586.58	-61.16085	-1.928598E-007	0.0006826	7
	40	128	30.04808	9526.95	-15458.51	1	18158.42	-58.35481	-1.839883E-007	0.000583	7
	41	131	23.91582	12034.74	-17303.46	1	21077.11	-55.18097	-1.847083E-007	0.0006246	7
	42	134	18.60119	15317.72	-19294.71	1	24635.71	-51.55458	-1.820817E-007	0.0006065	7
	43	136	15.02404	18507.54	-20670.9	1	27745.54	-48.16056	-1.7815E-007	0.0005939	7
	44	138	12.01923	22120.14	-21775.16	1	31039.62	-44.54971	-1.834049E-007	0.000601	7
	45	141	9.450605	26163.23	-22294.35	1	34373.72	-40.43515	-1.7922E-007	0.0006546	7
	46	144	7.512019	30040.91	-22329.01	1	37430.48	-36.62294	-1.862338E-007	0.0005759	7
	47	147	5.978954	33468.87	-21493.04	1	39775.83	-32.70776	-1.923624E-007	0.000707	7
	48	151	4.734848	36990.58	-20508.65	1	42295.48	-29.00526	-1.407567E-007	0.0007012	6
	49	156	3.75601	39708.2	-19118.68	1	44071.13	-25.70985	-1.415383E-007	0.0006079	6
	50	162	3.004808	41786.06	-17665.71	1	45366.86	-22.91698	-1.424317E-007	0.0006473	6
	51	168	2.372217	43783.98	-16173.98	1	46675.85	-20.27444	-1.493002E-007	0.0006801	6
	52	176	1.878005	44748.7	-14231.27	1	46957.17	-17.64204	-1.5423E-007	0.0006878	6
	53	185	1.512097	45657.5	-13021.36	1	47478.03	-15.91797	-1.552004E-007	0.0005783	6
	54	195	1.201923	46573.6	-11829.68	1	48052.49	-14.25173	-1.591744E-007	0.0006863	6
	55	208	0.956633	47259.66	-10730.28	1	48462.51	-12.7921	-1.759712E-007	5.09288E-005	6
