EXPLAIN
TAG	EISPOT
TITLE	LABEL	Potentiostatic EIS	Test Identifier
DATE	LABEL	8/23/2020	Date
TIME	LABEL	14:31:11	Time
NOTES	NOTES	1	Notes...
	
PSTAT	PSTAT	REF3000-16137	Potentiostat
VDC	POTEN	0.00000E+000	T	DC Voltage (V)
FREQINIT	QUANT	3.00000E+005	Initial Freq. (Hz)
FREQFINAL	QUANT	1.00000E+000	Final Freq. (Hz)
PTSPERDEC	QUANT	1.00000E+001	Points/decade
VAC	QUANT	5.00000E+001	AC Voltage (mV rms)
AREA	QUANT	1.00000E+000	Sample Area (cm^2)
SPEED	SELECTOR	2	Optimize for:
ZGUESS	QUANT	1.00000E+003	Estimated Z (ohms)
EOC	QUANT	0	Open Circuit (V)
SEQUENCER	TOGGLE	TRUE	Run as Sequence
PSTATMODEL	IQUANT	5	Pstat Model
PSTATSECTION	LABEL	REF3000-16137	Pstat Section
PSTATSERIALNO	LABEL	16137	Pstat Serial Number
CTRLMODE	IQUANT	1	Control Mode
IESTAB	IQUANT	0	I/E Stability
CASPEED	IQUANT	1	Control Amp Speed
CONVENTION	IQUANT	1	Current Convention
ICHRANGE	IQUANT	2	Ich Range
ICHRANGEMODE	TOGGLE	F	Ich Auto Range
ICHOFFSETENABLE	TOGGLE	T	Ich Offset Enable
ICHOFFSET	QUANT	0	Ich Offset (V)
ICHFILTER	IQUANT	3	Ich Filter
VCHRANGE	IQUANT	2	Vch Range
VCHRANGEMODE	TOGGLE	F	Vch Auto Range
VCHOFFSETENABLE	TOGGLE	T	Vch Offset Enable
VCHOFFSET	QUANT	0	Vch Offset (V)
VCHFILTER	IQUANT	3	Vch Filter
ACHRANGE	IQUANT	2	Ach Range
ACHOFFSETENABLE	TOGGLE	F	Ach Offset Enable
ACHOFFSET	QUANT	0	Ach Offset (V)
ACHFILTER	IQUANT	3	Ach Filter
IERANGELOWERLIMIT	IQUANT	2	I/E Range Lower Limit
IERANGEMODE	TOGGLE	F	I/E AutoRange
IERANGE	IQUANT	11	I/E Range
POSFEEDENABLE	TOGGLE	F	Positive Feedback IR Comp
POSFEEDRESISTANCE	QUANT	0	Positive Feedback Resistance (ohm)
ACHSELECT	IQUANT	0	Ach Select
CABLEID	IQUANT	13	Cable ID
DCCALDATE	LABEL	7/31/2020	DC Calibration Date
ACCALDATE	LABEL	7/31/2020	AC Calibration Date
THERMOSELECT	IQUANT	1	Thermo Select
FRAMEWORKVERSION	QUANT	6.33	Framework Version
INSTRUMENTVERSION	LABEL	3.50	Instrument Version
COMPLIANCEVOLTAGE	IQUANT	0	Compliance Voltage
ZCURVE	TABLE
	Pt	Time	Freq	Zreal	Zimag	Zsig	Zmod	Zphz	Idc	Vdc	IERange
	#	s	Hz	ohm	ohm	V	ohm	°	A	V	#
	0	15	300046.9	448.9955	-56.67851	1	452.5587	-7.194623	0.0001142	-0.0179699	9
	1	29	238359.4	450.5491	-61.88284	1	454.779	-7.820632	0.0002425	-0.0178908	9
	2	43	189328.1	439.8459	-53.04022	1	443.0324	-6.875992	-0.0006894	0.0132038	9
	3	51	150421.9	448.9337	-54.92825	1	452.2815	-6.975623	0.0001324	-0.0170027	9
	4	58	119484.4	456.9509	-55.97367	1	460.3663	-6.983591	0.0006797	-0.026709	9
	5	66	94921.88	462.3271	-56.17835	1	465.7278	-6.928166	-0.0002604	0.0049679	9
	6	73	75421.88	467.1863	-59.52183	1	470.9627	-7.260647	-0.0002184	0.0020385	9
	7	80	59859.37	476.8882	-63.6701	1	481.1197	-7.604679	-6.124218E-005	-0.0046343	9
	8	88	47578.12	482.7706	-72.06105	1	488.1191	-8.48961	-0.0002188	0.0022	9
	9	95	37828.12	488.2897	-81.83971	1	495.1006	-9.51461	0.0002494	-0.0104225	9
	10	103	30046.88	497.86	-90.51812	1	506.0219	-10.30464	-0.0002757	0.009188	9
	11	110	23859.38	503.2383	-98.2722	1	512.7438	-11.04964	0.0001964	-0.0104074	9
	12	115	18984.38	516.6252	-116.7153	1	529.6453	-12.73047	-0.0002561	0.0048117	9
	13	120	15046.87	527.5901	-135.4646	1	544.7036	-14.40026	0.0002883	-0.0075339	9
	14	126	11953.13	539.0003	-157.022	1	561.4065	-16.24194	5.055825E-005	0.0052541	9
	15	131	9515.62	557.233	-169.556	1	582.4585	-16.92406	-8.04323E-005	0.0422577	8
	16	135	7546.875	567.793	-202.2883	1	602.7515	-19.60952	-5.307522E-005	0.0398874	8
	17	140	5928.309	571.1248	-251.0996	1	623.8866	-23.73308	-0.0002751	0.0070831	9
	18	145	4733.456	588.4699	-304.6942	1	662.6729	-27.37393	-0.000249	0.0102935	9
	19	151	3796.875	602.2748	-360.1434	1	701.7394	-30.87824	-5.814276E-005	-0.0047458	9
	20	156	2987.132	619.8851	-440.5082	1	760.4637	-35.3987	-0.0001142	0.0301586	8
	21	160	2390.625	644.754	-515.6506	1	825.5927	-38.65154	-0.0001486	-0.0014936	9
	22	166	1884.191	631.3648	-658.8161	1	912.5021	-46.2189	-3.96108E-005	0.0080377	9
	23	172	1516.544	661.2593	-795.8968	1	1034.754	-50.27899	1.296772E-005	-0.0312529	8
	24	176	1193.986	672.3182	-939.8962	1	1155.602	-54.42344	0.0001183	-0.0305167	8
	25	181	946.5144	693.0072	-1069.99	1	1274.809	-57.06983	7.958221E-005	-0.0414529	8
	26	184	751.7689	830.1913	-1284.287	1	1529.252	-57.12049	4.665153E-005	0.0056041	9
	27	189	597.4265	825.9429	-1589.475	1	1791.26	-62.54214	0.0000995	-0.0430326	8
	28	191	477.4305	952.552	-1942.502	1	2163.486	-63.87788	-9.70411E-007	0.000654	8
	29	194	376.6741	1027.821	-2386.26	1	2598.201	-66.69727	-8.363506E-007	0.0006035	8
	30	196	298.2954	1134.267	-2958.31	1	3168.305	-69.02231	-9.719439E-007	0.0005716	8
	31	198	237.7717	1261.902	-3629.093	1	3842.228	-70.82651	-8.993806E-007	0.0005886	8
	32	201	189.0121	1537.451	-4749.965	1	4992.586	-72.06447	-3.286071E-007	0.0006004	7
	33	203	150.2404	1742.71	-5827.464	1	6082.465	-73.35065	-3.082214E-007	0.0005256	7
	34	206	119.1737	2022.122	-7116.055	1	7397.785	-74.1368	-3.08919E-007	0.000631	7
	35	208	95.0169	2334.78	-8711.574	1	9019.021	-74.9968	-2.995283E-007	0.0005912	7
	36	211	75.60484	2708.993	-10503.46	1	10847.18	-75.53778	-2.556412E-007	0.0006974	7
	37	213	54.50582	3550.376	-14129.24	1	14568.48	-75.89483	-2.843202E-007	0.0006218	7
	38	216	45.95588	4072.803	-16156.1	1	16661.55	-75.85107	-2.252697E-007	0.000539	7
	39	218	37.20238	4963.863	-19499.16	1	20121.06	-75.71768	-2.526716E-007	0.0006569	7
	40	221	30.04808	6183.29	-23541.66	1	24340.14	-75.28349	-2.638982E-007	0.0007025	7
	41	224	23.91582	7804.002	-28938.11	1	29971.93	-74.90756	-3.029749E-007	0.0007245	7
	42	226	18.60119	10140.41	-35222.65	1	36653.28	-73.93918	-2.540168E-007	0.000582	7
	43	229	15.02404	12830.35	-42120.11	1	44030.91	-73.05856	-2.646179E-007	0.0005426	7
	44	231	12.01923	18045.93	-53820.85	1	56765.66	-71.46389	-6.133565E-008	0.0006215	6
	45	234	9.450605	23117.23	-63413	1	67495.29	-69.97065	-5.607928E-008	0.0007791	6
	46	237	7.512019	29430.43	-74145.73	1	79773.05	-68.35055	-5.539298E-008	0.000766	6
	47	240	5.978954	37134.11	-86982.47	1	94577.44	-66.88165	-5.655252E-008	0.000564	6
	48	244	4.734848	47228.43	-101645.2	1	112081.5	-65.07853	-5.517526E-008	0.0007829	6
	49	247	3.75601	59053.28	-117306.4	1	131332	-63.27884	-5.503981E-008	0.0006967	6
	50	253	3.004808	72572.55	-134221.2	1	152584.7	-61.60019	-5.586483E-008	0.000649	6
	51	259	2.372217	90488.41	-155553.3	1	179958.3	-59.81259	-5.892296E-008	0.0007384	6
	52	264	1.878005	111874.7	-178622	1	210764.8	-57.94022	-6.053819E-008	0.0006379	6
	53	268	1.512097	135708.5	-202776.9	1	243998.4	-56.20758	-6.300158E-008	0.0007398	6
	54	274	1.201923	162654.2	-232294.3	1	283579	-55	-6.608005E-008	0.0006307	6
	55	280	0.956633	197523	-268351.8	1	333208.7	-53.6447	-7.183058E-008	5.229989E-005	6
