EXPLAIN
TAG	EISPOT
TITLE	LABEL	Potentiostatic EIS	Test Identifier
DATE	LABEL	8/23/2020	Date
TIME	LABEL	14:06:57	Time
NOTES	NOTES	1	Notes...
	
PSTAT	PSTAT	REF3000-16137	Potentiostat
VDC	POTEN	0.00000E+000	T	DC Voltage (V)
FREQINIT	QUANT	3.00000E+005	Initial Freq. (Hz)
FREQFINAL	QUANT	1.00000E+000	Final Freq. (Hz)
PTSPERDEC	QUANT	1.00000E+001	Points/decade
VAC	QUANT	5.00000E+001	AC Voltage (mV rms)
AREA	QUANT	1.00000E+000	Sample Area (cm^2)
SPEED	SELECTOR	2	Optimize for:
ZGUESS	QUANT	1.00000E+003	Estimated Z (ohms)
EOC	QUANT	0	Open Circuit (V)
SEQUENCER	TOGGLE	TRUE	Run as Sequence
PSTATMODEL	IQUANT	5	Pstat Model
PSTATSECTION	LABEL	REF3000-16137	Pstat Section
PSTATSERIALNO	LABEL	16137	Pstat Serial Number
CTRLMODE	IQUANT	1	Control Mode
IESTAB	IQUANT	0	I/E Stability
CASPEED	IQUANT	1	Control Amp Speed
CONVENTION	IQUANT	1	Current Convention
ICHRANGE	IQUANT	2	Ich Range
ICHRANGEMODE	TOGGLE	F	Ich Auto Range
ICHOFFSETENABLE	TOGGLE	T	Ich Offset Enable
ICHOFFSET	QUANT	0	Ich Offset (V)
ICHFILTER	IQUANT	3	Ich Filter
VCHRANGE	IQUANT	2	Vch Range
VCHRANGEMODE	TOGGLE	F	Vch Auto Range
VCHOFFSETENABLE	TOGGLE	T	Vch Offset Enable
VCHOFFSET	QUANT	0	Vch Offset (V)
VCHFILTER	IQUANT	3	Vch Filter
ACHRANGE	IQUANT	2	Ach Range
ACHOFFSETENABLE	TOGGLE	F	Ach Offset Enable
ACHOFFSET	QUANT	0	Ach Offset (V)
ACHFILTER	IQUANT	3	Ach Filter
IERANGELOWERLIMIT	IQUANT	2	I/E Range Lower Limit
IERANGEMODE	TOGGLE	F	I/E AutoRange
IERANGE	IQUANT	11	I/E Range
POSFEEDENABLE	TOGGLE	F	Positive Feedback IR Comp
POSFEEDRESISTANCE	QUANT	0	Positive Feedback Resistance (ohm)
ACHSELECT	IQUANT	0	Ach Select
CABLEID	IQUANT	13	Cable ID
DCCALDATE	LABEL	7/31/2020	DC Calibration Date
ACCALDATE	LABEL	7/31/2020	AC Calibration Date
THERMOSELECT	IQUANT	1	Thermo Select
FRAMEWORKVERSION	QUANT	6.33	Framework Version
INSTRUMENTVERSION	LABEL	3.50	Instrument Version
COMPLIANCEVOLTAGE	IQUANT	0	Compliance Voltage
ZCURVE	TABLE
	Pt	Time	Freq	Zreal	Zimag	Zsig	Zmod	Zphz	Idc	Vdc	IERange
	#	s	Hz	ohm	ohm	V	ohm	°	A	V	#
	0	17	300046.9	283.1772	-28.3214	1	284.59	-5.711329	-0.0006635	0.014075	9
	1	30	238359.4	277.7906	-28.50528	1	279.2493	-5.85886	0.0002712	0.0070213	9
	2	45	189328.1	274.5351	-31.76934	1	276.3672	-6.600936	-0.0003642	0.026847	9
	3	54	150421.9	275.1165	-42.4583	1	278.3735	-8.773152	-0.000518	-0.0004843	10
	4	61	119484.4	281.8545	-33.83676	1	283.8783	-6.845623	-0.0007246	0.0274808	9
	5	69	94921.88	284.8185	-36.19711	1	287.1094	-7.242798	-0.0002535	0.0050536	9
	6	74	75421.88	287.416	-46.76534	1	291.1957	-9.241587	-8.517855E-005	0.0019663	10
	7	82	59859.37	292.4545	-45.968	1	296.0451	-8.932668	-0.0002394	0.0101573	9
	8	89	47578.12	295.8358	-53.01258	1	300.5481	-10.15934	0.0002363	-0.0100546	9
	9	94	37828.12	301.4166	-59.75594	1	307.2828	-11.21351	6.462257E-005	0.0047003	9
	10	100	30046.88	306.1693	-68.15364	1	313.6631	-12.5495	-0.0002168	0.0023976	9
	11	105	23859.38	313.6339	-78.75423	1	323.3705	-14.09568	-0.0001529	-0.0008676	9
	12	109	18984.38	318.4957	-92.93549	1	331.7778	-16.26698	-0.0002972	0.0017637	10
	13	115	15046.87	324.9671	-106.5308	1	341.9831	-18.1502	0.000267	-0.0091127	9
	14	120	11953.13	332.3174	-124.6664	1	354.9318	-20.5632	-7.01932E-005	-0.0040957	9
	15	125	9515.62	340.1308	-147.3181	1	370.6637	-23.4185	0.0002262	-0.0023601	9
	16	130	7546.875	347.8873	-176.1895	1	389.9594	-26.8602	0.0002296	-0.0099873	9
	17	136	5928.309	356.3986	-213.0546	1	415.2255	-30.87092	0.0002259	-0.0023395	9
	18	141	4733.456	365.0772	-255.6452	1	445.6858	-35.00161	-0.0002195	0.0025343	9
	19	146	3796.875	372.5128	-308.889	1	483.9196	-39.66565	0.0002842	-0.0078312	9
	20	152	2987.132	384.6741	-379.4408	1	540.3235	-44.6076	-0.0002692	0.0073057	9
	21	157	2390.625	396.0377	-467.7119	1	612.8624	-49.74355	0.0001532	0.0012293	9
	22	162	1884.191	411.3722	-574.8476	1	706.8782	-54.41175	-0.0002204	0.0025342	9
	23	168	1516.544	426.5968	-700.1187	1	819.8481	-58.64518	0.0002304	-0.0024094	9
	24	173	1193.986	460.0648	-876.7352	1	990.113	-62.31186	-0.0001767	0.0021048	10
	25	180	946.5144	451.7554	-1044.016	1	1137.564	-66.60142	0.000172	-0.0098039	9
	26	185	751.7689	531.4606	-1337.163	1	1438.907	-68.32446	-0.0002507	0.0050396	9
	27	190	597.4265	603.0565	-1611.786	1	1720.91	-69.48646	-0.0002729	0.0072361	9
	28	195	477.4305	662.4778	-2016.108	1	2122.161	-71.80987	2.181389E-007	0.0000954	9
	29	197	376.6741	771.3409	-2506.949	1	2622.929	-72.89786	-6.670152E-007	0.0007179	8
	30	199	298.2954	905.6953	-3088.852	1	3218.896	-73.65811	-5.400132E-007	0.0005887	8
	31	202	237.7717	1074.946	-3759.307	1	3909.974	-74.04252	-5.540752E-007	0.0007204	8
	32	204	189.0121	1361.225	-4700.073	1	4893.222	-73.84805	-1.590636E-007	0.0006649	7
	33	207	150.2404	1639.922	-5697.108	1	5928.439	-73.94145	-1.222196E-007	0.0007067	7
	34	209	119.1737	2050.997	-6957.184	1	7253.206	-73.57434	-1.247197E-007	0.000669	7
	35	211	95.0169	2571.379	-8460.685	1	8842.804	-73.09488	-1.343988E-007	0.0005542	7
	36	214	75.60484	3223.784	-10144.8	1	10644.71	-72.37094	-1.077396E-007	0.0006613	7
	37	216	54.50582	4656.32	-13357.95	1	14146.24	-70.78245	-1.385618E-007	0.0006894	7
	38	219	45.95588	5589.125	-15224.25	1	16217.77	-69.84081	-1.002916E-007	0.0005813	7
	39	221	37.20238	7114.059	-17931.5	1	19291.15	-68.36003	-1.107903E-007	0.0005475	7
	40	224	30.04808	9106.962	-21080.47	1	22963.52	-66.63521	-1.215384E-007	0.0005932	7
	41	227	23.91582	11812.82	-24681.53	1	27362.76	-64.42377	-1.247545E-007	0.0005462	7
	42	229	18.60119	15713.67	-28894.49	1	32890.89	-61.46136	-1.173506E-007	0.000701	7
	43	232	15.02404	19597.43	-32713.14	1	38134.09	-59.07547	-1.021555E-007	0.0005708	7
	44	234	12.01923	25121.6	-37325.29	1	44991.91	-56.05767	-4.604365E-008	0.0006443	6
	45	237	9.450605	31066.12	-41077.06	1	51501.73	-52.9002	-4.562348E-008	0.0007072	6
	46	239	7.512019	37980.46	-45246.03	1	59073.84	-49.9892	-4.434244E-008	0.0006266	6
	47	242	5.978954	45161.5	-48562.7	1	66316.64	-47.07832	-4.021694E-008	0.000602	6
	48	246	4.734848	52999.2	-51733.02	1	74062.27	-44.30735	-4.404749E-008	0.0007312	6
	49	250	3.75601	61366.92	-54753.96	1	82242.9	-41.74059	-4.48426E-008	0.0006506	6
	50	256	3.004808	69731.25	-57252.57	1	90223.63	-39.38757	-4.183071E-008	0.0005691	6
	51	262	2.372217	78881.46	-59880.05	1	99034.9	-37.20266	-4.585421E-008	0.0006682	6
	52	266	1.878005	88205.55	-61878.9	1	107746.1	-35.05084	-4.673699E-008	0.00067	6
	53	271	1.512097	97024.8	-63761.34	1	116100.5	-33.31152	-4.558099E-008	0.0005793	6
	54	276	1.201923	106862.8	-65518.25	1	125348.7	-31.51272	-4.687767E-008	0.0006779	6
	55	282	0.956633	116483.6	-66462.63	1	134110.8	-29.70799	-5.042693E-008	3.383033E-005	6
