EXPLAIN
TAG	EISPOT
TITLE	LABEL	Potentiostatic EIS	Test Identifier
DATE	LABEL	8/23/2020	Date
TIME	LABEL	13:57:30	Time
NOTES	NOTES	1	Notes...
	
PSTAT	PSTAT	REF3000-16137	Potentiostat
VDC	POTEN	0.00000E+000	T	DC Voltage (V)
FREQINIT	QUANT	3.00000E+005	Initial Freq. (Hz)
FREQFINAL	QUANT	1.00000E+000	Final Freq. (Hz)
PTSPERDEC	QUANT	1.00000E+001	Points/decade
VAC	QUANT	5.00000E+001	AC Voltage (mV rms)
AREA	QUANT	1.00000E+000	Sample Area (cm^2)
SPEED	SELECTOR	2	Optimize for:
ZGUESS	QUANT	1.00000E+003	Estimated Z (ohms)
EOC	QUANT	0	Open Circuit (V)
SEQUENCER	TOGGLE	TRUE	Run as Sequence
PSTATMODEL	IQUANT	5	Pstat Model
PSTATSECTION	LABEL	REF3000-16137	Pstat Section
PSTATSERIALNO	LABEL	16137	Pstat Serial Number
CTRLMODE	IQUANT	1	Control Mode
IESTAB	IQUANT	0	I/E Stability
CASPEED	IQUANT	1	Control Amp Speed
CONVENTION	IQUANT	1	Current Convention
ICHRANGE	IQUANT	2	Ich Range
ICHRANGEMODE	TOGGLE	F	Ich Auto Range
ICHOFFSETENABLE	TOGGLE	T	Ich Offset Enable
ICHOFFSET	QUANT	0	Ich Offset (V)
ICHFILTER	IQUANT	3	Ich Filter
VCHRANGE	IQUANT	2	Vch Range
VCHRANGEMODE	TOGGLE	F	Vch Auto Range
VCHOFFSETENABLE	TOGGLE	T	Vch Offset Enable
VCHOFFSET	QUANT	0	Vch Offset (V)
VCHFILTER	IQUANT	3	Vch Filter
ACHRANGE	IQUANT	2	Ach Range
ACHOFFSETENABLE	TOGGLE	F	Ach Offset Enable
ACHOFFSET	QUANT	0	Ach Offset (V)
ACHFILTER	IQUANT	3	Ach Filter
IERANGELOWERLIMIT	IQUANT	2	I/E Range Lower Limit
IERANGEMODE	TOGGLE	F	I/E AutoRange
IERANGE	IQUANT	11	I/E Range
POSFEEDENABLE	TOGGLE	F	Positive Feedback IR Comp
POSFEEDRESISTANCE	QUANT	0	Positive Feedback Resistance (ohm)
ACHSELECT	IQUANT	0	Ach Select
CABLEID	IQUANT	13	Cable ID
DCCALDATE	LABEL	7/31/2020	DC Calibration Date
ACCALDATE	LABEL	7/31/2020	AC Calibration Date
THERMOSELECT	IQUANT	1	Thermo Select
FRAMEWORKVERSION	QUANT	6.33	Framework Version
INSTRUMENTVERSION	LABEL	3.50	Instrument Version
COMPLIANCEVOLTAGE	IQUANT	0	Compliance Voltage
ZCURVE	TABLE
	Pt	Time	Freq	Zreal	Zimag	Zsig	Zmod	Zphz	Idc	Vdc	IERange
	#	s	Hz	ohm	ohm	V	ohm	°	A	V	#
	0	16	300046.9	257.4882	-19.84157	1	258.2515	-4.4064	-0.0006629	0.0322251	9
	1	30	238359.4	241.457	-43.45349	1	245.3358	-10.20196	-0.0005244	-0.0006824	10
	2	43	189328.1	245.2784	-37.49804	1	248.1282	-8.692049	0.0001979	0.0025767	10
	3	51	150421.9	251.0229	-26.11284	1	252.3774	-5.938876	-0.000737	0.0224096	9
	4	58	119484.4	253.2298	-29.7083	1	254.9665	-6.691216	-0.0007421	0.0226922	9
	5	66	94921.88	255.0424	-32.21018	1	257.0684	-7.197972	7.488338E-005	0.0044939	9
	6	71	75421.88	258.5238	-42.29774	1	261.9612	-9.29198	0.0001695	-0.0008267	10
	7	78	59859.37	262.3234	-41.47568	1	265.582	-8.984602	0.0002878	-0.006118	9
	8	84	47578.12	265.9438	-50.81438	1	270.7549	-10.81723	-0.0001438	-0.0001017	10
	9	88	37828.12	270.8142	-53.85772	1	276.1177	-11.24785	-0.0002359	0.0028413	9
	10	93	30046.88	275.4912	-62.94568	1	282.5909	-12.87031	-0.000285	0.0079331	9
	11	100	23859.38	280.5883	-73.56998	1	290.073	-14.69217	0.0002468	-0.0027851	9
	12	105	18984.38	286.3401	-84.94997	1	298.6757	-16.52431	0.0002437	-0.0106907	9
	13	109	15046.87	292.6043	-98.7505	1	308.8186	-18.64894	0.0002918	-0.006246	9
	14	114	11953.13	299.3559	-117.5976	1	321.6258	-21.44666	-0.0002749	0.0058559	9
	15	119	9515.62	305.6022	-137.8835	1	335.2679	-24.28424	-8.28387E-005	-0.0040174	9
	16	125	7546.875	312.7095	-163.6557	1	352.9453	-27.62519	0.0001653	0.0009699	9
	17	130	5928.309	318.9244	-200.5336	1	376.7313	-32.1609	1.131196E-005	-0.006894	9
	18	135	4733.456	326.4748	-238.5771	1	404.3573	-36.15812	0.0002399	-0.0104678	9
	19	141	3796.875	336.9443	-284.6112	1	441.0612	-40.18722	-0.0002756	0.0097334	9
	20	147	2987.132	347.4958	-353.4937	1	495.6926	-45.49023	0.000241	-0.0105208	9
	21	152	2390.625	358.3266	-433.5828	1	562.4873	-50.4286	0.0002388	-0.0104628	9
	22	157	1884.191	375.841	-535.7681	1	654.4493	-54.95036	1.141612E-005	-0.0068868	9
	23	163	1516.544	396.2598	-651.7693	1	762.7747	-58.70142	-4.9445E-005	-0.0047422	8
	24	167	1193.986	402.3893	-817.0294	1	910.7437	-63.77962	-0.0002702	0.0094335	9
	25	174	946.5144	458.4895	-949.0091	1	1053.96	-64.21368	-0.0001025	0.0091186	9
	26	178	751.7689	517.7486	-1285.334	1	1385.694	-68.05981	1.057414E-005	-0.0250525	8
	27	181	597.4265	574.6772	-1523.007	1	1627.822	-69.32697	-5.038955E-005	-0.0039323	8
	28	184	477.4305	632.5345	-1872.749	1	1976.687	-71.33723	-5.876936E-007	0.0007259	8
	29	186	376.6741	740.5801	-2317.928	1	2433.362	-72.28127	-4.916213E-007	0.0006455	8
	30	188	298.2954	872.0157	-2836.42	1	2967.439	-72.91072	-5.040483E-007	0.0007073	8
	31	190	237.7717	1052.12	-3463.418	1	3619.699	-73.10223	-4.626936E-007	0.0006124	8
	32	193	189.0121	1335.579	-4299.57	1	4502.23	-72.74359	-1.388743E-007	0.0006372	7
	33	195	150.2404	1630.98	-5172.887	1	5423.916	-72.50025	-1.181922E-007	0.0006226	7
	34	198	119.1737	2033.263	-6355.545	1	6672.864	-72.25951	-1.501045E-007	0.0007059	7
	35	200	95.0169	2580.982	-7624.988	1	8049.964	-71.29955	-1.214648E-007	0.0006876	7
	36	203	75.60484	3269.203	-9127.439	1	9695.25	-70.29385	-1.074741E-007	0.0006008	7
	37	205	54.50582	4749.859	-11916.09	1	12827.87	-68.26733	-1.370852E-007	0.0006954	7
	38	208	45.95588	5699.479	-13418.07	1	14578.36	-66.98608	-1.035035E-007	0.0005518	7
	39	210	37.20238	7245.645	-15630.49	1	17228.22	-65.12953	-1.108547E-007	0.0005573	7
	40	212	30.04808	9239.201	-18120.61	1	20340.09	-62.98421	-1.219391E-007	0.0005993	7
	41	215	23.91582	11803.36	-20781.24	1	23899.36	-60.40422	-1.252754E-007	0.0006755	7
	42	218	18.60119	15552.07	-24103.6	1	28685.37	-57.16919	-1.333784E-007	0.000696	7
	43	220	15.02404	19092.36	-26521.21	1	32678.63	-54.25025	-1.003145E-007	0.000588	7
	44	222	12.01923	23363.82	-28975.71	1	37221.77	-51.11992	-1.100451E-007	0.0006833	7
	45	225	9.450605	29064.97	-31718.94	1	43021.66	-47.50008	-5.705566E-008	0.000621	6
	46	227	7.512019	34126.3	-33408.67	1	47757.13	-44.3912	-5.556869E-008	0.0007252	6
	47	230	5.978954	39731.26	-34977.16	1	52933.68	-41.35886	-5.237978E-008	0.000651	6
	48	235	4.734848	45600.94	-36212.6	1	58230.56	-38.45378	-5.435914E-008	0.0007467	6
	49	238	3.75601	51359.74	-36969.39	1	63281.58	-35.74681	-5.463337E-008	0.0007024	6
	50	244	3.004808	56983.76	-37456.11	1	68191.7	-33.3174	-5.569977E-008	0.0006298	6
	51	250	2.372217	62969.55	-37748.28	1	73417.28	-30.94137	-5.541039E-008	0.0007441	6
	52	254	1.878005	68669.05	-37696.3	1	78335.5	-28.76486	-6.036643E-008	0.000653	6
	53	259	1.512097	73766.45	-37455.25	1	82730.8	-26.91939	-6.156119E-008	0.0006997	6
	54	265	1.201923	79018.06	-36681.78	1	87117.2	-24.90168	-6.049333E-008	0.0006395	6
	55	271	0.956633	83874.7	-35385.23	1	91033.4	-22.874	-6.994025E-008	3.37221E-005	6
