EXPLAIN
TAG	EISPOT
TITLE	LABEL	Potentiostatic EIS	Test Identifier
DATE	LABEL	8/23/2020	Date
TIME	LABEL	15:53:42	Time
NOTES	NOTES	1	Notes...
	
PSTAT	PSTAT	REF3000-16137	Potentiostat
VDC	POTEN	0.00000E+000	T	DC Voltage (V)
FREQINIT	QUANT	3.00000E+005	Initial Freq. (Hz)
FREQFINAL	QUANT	1.00000E+000	Final Freq. (Hz)
PTSPERDEC	QUANT	1.00000E+001	Points/decade
VAC	QUANT	5.00000E+001	AC Voltage (mV rms)
AREA	QUANT	1.00000E+000	Sample Area (cm^2)
SPEED	SELECTOR	2	Optimize for:
ZGUESS	QUANT	1.00000E+003	Estimated Z (ohms)
EOC	QUANT	0	Open Circuit (V)
SEQUENCER	TOGGLE	TRUE	Run as Sequence
PSTATMODEL	IQUANT	5	Pstat Model
PSTATSECTION	LABEL	REF3000-16137	Pstat Section
PSTATSERIALNO	LABEL	16137	Pstat Serial Number
CTRLMODE	IQUANT	1	Control Mode
IESTAB	IQUANT	0	I/E Stability
CASPEED	IQUANT	1	Control Amp Speed
CONVENTION	IQUANT	1	Current Convention
ICHRANGE	IQUANT	2	Ich Range
ICHRANGEMODE	TOGGLE	F	Ich Auto Range
ICHOFFSETENABLE	TOGGLE	T	Ich Offset Enable
ICHOFFSET	QUANT	0	Ich Offset (V)
ICHFILTER	IQUANT	3	Ich Filter
VCHRANGE	IQUANT	2	Vch Range
VCHRANGEMODE	TOGGLE	F	Vch Auto Range
VCHOFFSETENABLE	TOGGLE	T	Vch Offset Enable
VCHOFFSET	QUANT	0	Vch Offset (V)
VCHFILTER	IQUANT	3	Vch Filter
ACHRANGE	IQUANT	2	Ach Range
ACHOFFSETENABLE	TOGGLE	F	Ach Offset Enable
ACHOFFSET	QUANT	0	Ach Offset (V)
ACHFILTER	IQUANT	3	Ach Filter
IERANGELOWERLIMIT	IQUANT	2	I/E Range Lower Limit
IERANGEMODE	TOGGLE	F	I/E AutoRange
IERANGE	IQUANT	11	I/E Range
POSFEEDENABLE	TOGGLE	F	Positive Feedback IR Comp
POSFEEDRESISTANCE	QUANT	0	Positive Feedback Resistance (ohm)
ACHSELECT	IQUANT	0	Ach Select
CABLEID	IQUANT	13	Cable ID
DCCALDATE	LABEL	7/31/2020	DC Calibration Date
ACCALDATE	LABEL	7/31/2020	AC Calibration Date
THERMOSELECT	IQUANT	1	Thermo Select
FRAMEWORKVERSION	QUANT	6.33	Framework Version
INSTRUMENTVERSION	LABEL	3.50	Instrument Version
COMPLIANCEVOLTAGE	IQUANT	0	Compliance Voltage
ZCURVE	TABLE
	Pt	Time	Freq	Zreal	Zimag	Zsig	Zmod	Zphz	Idc	Vdc	IERange
	#	s	Hz	ohm	ohm	V	ohm	°	A	V	#
	0	17	300046.9	-18.1989	-4802.905	1	4802.94	-90.2171	-2.182129E-005	0.0015572	9
	1	36	238359.4	-43.24417	-6099.92	1	6100.073	-90.40618	2.150003E-005	-0.0010651	9
	2	49	189328.1	69.20789	-7263.579	1	7263.909	-89.4541	5.127215E-005	0.0001465	9
	3	57	150421.9	-339.3414	-9210.812	1	9217.062	-92.10992	5.05582E-005	0.0002143	9
	4	64	119484.4	440.739	-11698.62	1	11706.92	-87.84244	2.67874E-005	-0.0013866	9
	5	73	94921.88	603.7816	-14482.44	1	14495.02	-87.61269	-2.026548E-005	0.0115404	8
	6	82	75421.88	635.0677	-18090.86	1	18102	-87.98949	-2.524194E-005	0.011247	8
	7	90	59859.37	534.1249	-23001.08	1	23007.28	-88.66973	-2.520377E-005	0.0112407	8
	8	99	47578.12	3826.959	-29936.89	1	30180.5	-82.71515	-6.705219E-006	0.0263166	7
	9	106	37828.12	4036.401	-37118.29	1	37337.11	-83.7938	6.699614E-006	-0.0102867	7
	10	114	30046.88	4463.969	-45935.62	1	46152.01	-84.44949	3.595051E-006	-0.0251157	7
	11	121	23859.38	3795.651	-57470.54	1	57595.75	-86.22138	6.965209E-006	-0.0275179	7
	12	127	18984.38	5762.809	-72423.82	1	72652.73	-85.45052	-1.861051E-006	0.0223955	7
	13	132	15046.87	3276.021	-91916.65	1	91975.01	-87.95877	-5.465525E-006	0.0038057	7
	14	138	11953.13	704.308	-106622.8	1	106625.1	-89.62153	-2.042261E-006	0.0077543	8
	15	146	9515.62	4516.789	-146734.5	1	146804	-88.23688	2.801314E-005	-0.0075455	8
	16	154	7546.875	2685.19	-183174.8	1	183194.5	-89.16015	-9.771203E-006	-0.0022507	8
	17	163	5928.309	804.8124	-220778.7	1	220780.2	-89.79114	-6.865645E-006	0.012451	7
	18	169	4733.456	16702.46	-275493.4	1	275999.3	-86.53055	-3.530876E-006	-0.0049982	7
	19	174	3796.875	-14909.8	-356899.4	1	357210.7	-92.3922	-7.241606E-006	0.0232041	7
	20	181	2987.132	13895.87	-381696.8	1	381949.7	-87.91504	7.738291E-006	-0.0189311	7
	21	188	2390.625	-136562.4	-488495	1	507224.5	-105.6187	2.615911E-005	-0.00516	8
	22	197	1884.191	-251407.4	-192254.5	1	316492.5	-142.5944	1.650653E-005	-0.0094315	8
	23	206	1516.544	138905.5	-847937.6	1	859239.8	-80.69669	6.684638E-006	-0.0102549	7
	24	213	1193.986	-1972657	805773.7	1	2130880	157.7814	-1.590383E-005	0.0005258	8
	25	224	946.5144	-245573.5	-885064.4	1	918501.7	-105.5074	-7.06104E-006	0.0126757	7
	26	232	751.7689	215859.6	133698.6	1	253910.8	31.77316	-2.070758E-006	-0.0048317	8
	27	240	597.4265	4823572	1309802	1	4998243	15.19189	-3.74746E-006	0.0251205	7
	28	245	477.4305	71484.25	-2783089	1	2784007	-88.52867	-8.913496E-008	0.0005737	7
	29	251	376.6741	496127.5	-3650018	1	3683581	-82.25953	-1.086303E-009	0.0007057	5
	30	255	298.2954	549739.5	-4553101	1	4586169	-83.11546	-1.037639E-009	0.0007011	5
	31	257	237.7717	529851.3	-5754752	1	5779093	-84.73949	-9.799729E-010	0.0006924	5
	32	260	189.0121	617697.8	-7032907	1	7059981	-84.98061	-9.856815E-010	0.0006113	5
	33	263	150.2404	720402.2	-8830047	1	8859385	-85.33584	-1.011975E-009	0.0007111	5
	34	266	119.1737	5234966	-1.308549E+007	1	1.409379E+007	-68.19569	-1.095354E-009	0.0006801	5
	35	268	95.0169	689670.7	-1.38895E+007	1	1.390661E+007	-87.15736	-9.975942E-010	0.0006106	5
	36	271	75.60484	1607494	-1.798141E+007	1	1.805312E+007	-84.89148	-9.305494E-010	0.0006176	5
	37	274	54.50582	464502.8	-2.361243E+007	1	2.3617E+007	-88.87302	-9.558387E-010	0.0006238	5
	38	277	45.95588	1868837	-2.672455E+007	1	2.678982E+007	-85.99984	-1.041092E-009	0.0007378	5
	39	281	37.20238	2911283	-3.331211E+007	1	3.343909E+007	-85.00538	-9.58558E-010	0.0006393	5
	40	285	30.04808	3164196	-4.368638E+007	1	4.380082E+007	-85.85732	-1.042431E-009	0.0006353	5
	41	289	23.91582	1.090562E+007	-5.870872E+007	1	5.971304E+007	-79.47679	-5.421275E-011	0.0007001	4
	42	293	18.60119	-1.27568E+007	-7.158034E+007	1	7.270819E+007	-100.105	-2.385154E-010	0.0007509	4
	43	296	15.02404	1.105898E+007	-8.233762E+007	1	8.307698E+007	-82.35024	-1.120508E-010	0.0006149	4
	44	300	12.01923	1.33052E+007	-1.048089E+008	1	1.056501E+008	-82.76516	-1.134239E-010	0.000744	4
	45	303	9.450605	1.730142E+007	-1.339296E+008	1	1.350425E+008	-82.63913	-1.105329E-010	0.0006955	4
	46	308	7.512019	1.50173E+007	-1.66192E+008	1	1.668691E+008	-84.83671	-1.220328E-010	0.0007242	4
	47	312	5.978954	3.432251E+007	-1.946331E+008	1	1.976362E+008	-79.99902	-1.011253E-010	0.0007077	4
	48	317	4.734848	7.494814E+007	-2.670272E+008	1	2.773459E+008	-74.32184	-2.12804E-011	0.0006834	3
	49	322	3.75601	7.671923E+007	-3.037053E+008	1	3.132455E+008	-75.82305	-1.006481E-009	0.0006683	5
	50	331	3.004808	6.521292E+007	-3.632026E+008	1	3.690106E+008	-79.82101	-1.074514E-009	0.0006728	5
	51	340	2.372217	1.452357E+008	-4.905776E+008	1	5.116247E+008	-73.50859	-2.199448E-011	0.0008527	3
	52	345	1.878005	1.892623E+008	-6.052348E+008	1	6.341367E+008	-72.63508	-2.168697E-011	0.000714	3
	53	356	1.512097	2.456283E+008	-7.298352E+008	1	7.700602E+008	-71.39918	-2.139493E-011	0.0007562	3
	54	363	1.201923	3.309051E+008	-8.888241E+008	1	9.484232E+008	-69.57993	-2.134081E-011	0.0007018	3
	55	375	0.956633	4.477778E+008	-1.072735E+009	1	1.162439E+009	-67.34351	-2.156613E-011	0.0000974	3
