EXPLAIN
TAG	EISPOT
TITLE	LABEL	Potentiostatic EIS	Test Identifier
DATE	LABEL	8/23/2020	Date
TIME	LABEL	14:21:18	Time
NOTES	NOTES	1	Notes...
	
PSTAT	PSTAT	REF3000-16137	Potentiostat
VDC	POTEN	0.00000E+000	T	DC Voltage (V)
FREQINIT	QUANT	3.00000E+005	Initial Freq. (Hz)
FREQFINAL	QUANT	1.00000E+000	Final Freq. (Hz)
PTSPERDEC	QUANT	1.00000E+001	Points/decade
VAC	QUANT	5.00000E+001	AC Voltage (mV rms)
AREA	QUANT	1.00000E+000	Sample Area (cm^2)
SPEED	SELECTOR	2	Optimize for:
ZGUESS	QUANT	1.00000E+003	Estimated Z (ohms)
EOC	QUANT	0	Open Circuit (V)
SEQUENCER	TOGGLE	TRUE	Run as Sequence
PSTATMODEL	IQUANT	5	Pstat Model
PSTATSECTION	LABEL	REF3000-16137	Pstat Section
PSTATSERIALNO	LABEL	16137	Pstat Serial Number
CTRLMODE	IQUANT	1	Control Mode
IESTAB	IQUANT	0	I/E Stability
CASPEED	IQUANT	1	Control Amp Speed
CONVENTION	IQUANT	1	Current Convention
ICHRANGE	IQUANT	2	Ich Range
ICHRANGEMODE	TOGGLE	F	Ich Auto Range
ICHOFFSETENABLE	TOGGLE	T	Ich Offset Enable
ICHOFFSET	QUANT	0	Ich Offset (V)
ICHFILTER	IQUANT	3	Ich Filter
VCHRANGE	IQUANT	2	Vch Range
VCHRANGEMODE	TOGGLE	F	Vch Auto Range
VCHOFFSETENABLE	TOGGLE	T	Vch Offset Enable
VCHOFFSET	QUANT	0	Vch Offset (V)
VCHFILTER	IQUANT	3	Vch Filter
ACHRANGE	IQUANT	2	Ach Range
ACHOFFSETENABLE	TOGGLE	F	Ach Offset Enable
ACHOFFSET	QUANT	0	Ach Offset (V)
ACHFILTER	IQUANT	3	Ach Filter
IERANGELOWERLIMIT	IQUANT	2	I/E Range Lower Limit
IERANGEMODE	TOGGLE	F	I/E AutoRange
IERANGE	IQUANT	11	I/E Range
POSFEEDENABLE	TOGGLE	F	Positive Feedback IR Comp
POSFEEDRESISTANCE	QUANT	0	Positive Feedback Resistance (ohm)
ACHSELECT	IQUANT	0	Ach Select
CABLEID	IQUANT	13	Cable ID
DCCALDATE	LABEL	7/31/2020	DC Calibration Date
ACCALDATE	LABEL	7/31/2020	AC Calibration Date
THERMOSELECT	IQUANT	1	Thermo Select
FRAMEWORKVERSION	QUANT	6.33	Framework Version
INSTRUMENTVERSION	LABEL	3.50	Instrument Version
COMPLIANCEVOLTAGE	IQUANT	0	Compliance Voltage
ZCURVE	TABLE
	Pt	Time	Freq	Zreal	Zimag	Zsig	Zmod	Zphz	Idc	Vdc	IERange
	#	s	Hz	ohm	ohm	V	ohm	°	A	V	#
	0	15	300046.9	354.0612	-34.81436	1	355.7687	-5.615765	-2.063861E-006	-0.0155053	9
	1	29	238359.4	348.168	-36.64912	1	350.0916	-6.008983	-0.000664	0.0323701	9
	2	43	189328.1	341.4669	-55.23348	1	345.9052	-9.188211	-0.0002783	-0.0013006	10
	3	51	150421.9	353.3408	-37.57863	1	355.3335	-6.070722	0.0006709	-0.0145235	9
	4	58	119484.4	355.3083	-53.56741	1	359.3236	-8.573525	-0.0008016	0.0033819	10
	5	70	94921.88	360.8305	-44.04475	1	363.5087	-6.959376	-0.0001206	0.0096047	9
	6	76	75421.88	365.2036	-49.69469	1	368.5692	-7.748869	0.0002751	-0.0092995	9
	7	81	59859.37	371.6941	-61.12983	1	376.6873	-9.339417	0.0003194	-0.0002171	10
	8	88	47578.12	377.53	-61.04314	1	382.4332	-9.184711	-0.0001926	0.0104317	9
	9	95	37828.12	382.8282	-68.98617	1	388.9943	-10.21515	-6.378457E-005	-0.0044133	9
	10	100	30046.88	390.0551	-79.60998	1	398.0963	-11.53559	0.0002838	-0.0075723	9
	11	107	23859.38	397.089	-90.57824	1	407.2887	-12.84964	-6.993817E-005	-0.0043228	9
	12	113	18984.38	405.765	-103.7982	1	418.8308	-14.34904	-0.0001947	0.0104308	9
	13	118	15046.87	413.1546	-121.9256	1	430.7698	-16.4418	-0.0002696	0.0090646	9
	14	123	11953.13	420.3992	-139.979	1	443.091	-18.41604	0.0001517	0.0016772	9
	15	129	9515.62	431.4438	-165.4282	1	462.0717	-20.97828	-0.000242	0.0100927	9
	16	134	7546.875	440.964	-196.6119	1	482.81	-24.03058	0.0002428	-0.0101182	9
	17	139	5928.309	451.3996	-236.5279	1	509.6146	-27.65399	0.0001475	0.0016412	9
	18	145	4733.456	458.494	-287.9046	1	541.3925	-32.12617	0.0002719	-0.0053319	9
	19	150	3796.875	470.8102	-341.5604	1	581.6577	-35.9599	-0.0001228	0.0096551	9
	20	155	2987.132	484.6402	-422.0764	1	642.6699	-41.05282	-0.0002702	0.0090145	9
	21	161	2390.625	494.4066	-510.6214	1	710.7546	-45.92431	-0.0002157	0.0021557	9
	22	166	1884.191	504.0761	-630.1323	1	806.9445	-51.34184	0.0002827	-0.0074515	9
	23	171	1516.544	526.2579	-760.9769	1	925.2206	-55.33398	0.0002775	-0.0092897	9
	24	178	1193.986	544.3979	-956.708	1	1100.754	-60.35873	0.0001131	-0.0091859	9
	25	185	946.5144	536.5964	-1264.89	1	1374.003	-67.01219	0.0001856	-0.0103522	9
	26	190	751.7689	647.9473	-1452.86	1	1590.798	-65.96405	2.10966E-005	-0.0069069	9
	27	194	597.4265	691.4603	-1826.539	1	1953.039	-69.26517	8.174972E-005	-0.0030045	8
	28	197	477.4305	747.4538	-2242.335	1	2363.632	-71.56485	-6.25109E-007	0.0005901	8
	29	199	376.6741	846.6985	-2801.771	1	2926.913	-73.18512	-7.539935E-007	0.0005972	8
	30	202	298.2954	983.488	-3479.862	1	3616.171	-74.2185	-7.344239E-007	0.0005846	8
	31	204	237.7717	1192.586	-4348.375	1	4508.95	-74.66316	-2.072993E-007	0.0006675	7
	32	206	189.0121	1419.253	-5373.162	1	5557.44	-75.20396	-2.024756E-007	0.0005548	7
	33	209	150.2404	1685.495	-6525.213	1	6739.385	-75.51678	-1.776592E-007	0.0006856	7
	34	211	119.1737	2076.7	-7994.152	1	8259.488	-75.43774	-1.692702E-007	0.0005421	7
	35	214	95.0169	2532.449	-9812.36	1	10133.89	-75.52846	-1.971305E-007	0.0006211	7
	36	216	75.60484	3111.236	-11828.45	1	12230.78	-75.26329	-1.548874E-007	0.0005722	7
	37	219	54.50582	4375.469	-15814.41	1	16408.54	-74.53451	-1.957759E-007	0.0005978	7
	38	221	45.95588	5209.173	-18173.96	1	18905.78	-74.0062	-1.526077E-007	0.0006995	7
	39	223	37.20238	6593.632	-21671.6	1	22652.46	-73.0775	-1.635852E-007	0.0005721	7
	40	226	30.04808	8405.119	-26089.02	1	27409.54	-72.14258	-1.744235E-007	0.0006967	7
	41	229	23.91582	10916.44	-31175.82	1	33031.8	-70.70193	-1.733222E-007	0.0005384	7
	42	231	18.60119	14500.63	-37789.68	1	40476.27	-69.00723	-1.541512E-007	0.0005411	7
	43	234	15.02404	18974.08	-44454.53	1	48334.47	-66.88625	-5.507753E-008	0.0007695	6
	44	236	12.01923	24486.88	-52292.59	1	57741.86	-64.90788	-5.788474E-008	0.0007647	6
	45	239	9.450605	31174.41	-60246.45	1	67834.2	-62.64078	-4.941932E-008	0.0005794	6
	46	241	7.512019	39755.21	-69883.95	1	80400.52	-60.36555	-5.071163E-008	0.0006135	6
	47	244	5.978954	49351.41	-79018.86	1	93164.06	-58.01307	-5.163814E-008	0.0006898	6
	48	249	4.734848	60864.48	-88836.08	1	107686.3	-55.58369	-4.984926E-008	0.0006085	6
	49	252	3.75601	73968.67	-99171.8	1	123719.1	-53.28207	-5.009188E-008	0.0007254	6
	50	258	3.004808	88034.04	-109376.8	1	140403.9	-51.17046	-4.996284E-008	0.0006499	6
	51	264	2.372217	104678.8	-120598.3	1	159692.2	-49.04217	-5.139399E-008	0.0005938	6
	52	268	1.878005	122111.5	-131889.3	1	179738.7	-47.20454	-4.986805E-008	0.0006799	6
	53	273	1.512097	139765.2	-142787	1	199806	-45.61273	-4.928562E-008	0.000599	6
	54	278	1.201923	160759	-155364.6	1	223565.6	-44.0224	-5.060348E-008	0.0006957	6
	55	285	0.956633	183054.6	-168185.1	1	248586.4	-42.57587	-5.24481E-008	2.581149E-005	6
