EXPLAIN
TAG	EISPOT
TITLE	LABEL	Potentiostatic EIS	Test Identifier
DATE	LABEL	8/23/2020	Date
TIME	LABEL	16:29:36	Time
NOTES	NOTES	1	Notes...
	
PSTAT	PSTAT	REF3000-16137	Potentiostat
VDC	POTEN	0.00000E+000	T	DC Voltage (V)
FREQINIT	QUANT	3.00000E+005	Initial Freq. (Hz)
FREQFINAL	QUANT	1.00000E+000	Final Freq. (Hz)
PTSPERDEC	QUANT	1.00000E+001	Points/decade
VAC	QUANT	5.00000E+001	AC Voltage (mV rms)
AREA	QUANT	1.00000E+000	Sample Area (cm^2)
SPEED	SELECTOR	2	Optimize for:
ZGUESS	QUANT	1.00000E+003	Estimated Z (ohms)
EOC	QUANT	0	Open Circuit (V)
SEQUENCER	TOGGLE	TRUE	Run as Sequence
PSTATMODEL	IQUANT	5	Pstat Model
PSTATSECTION	LABEL	REF3000-16137	Pstat Section
PSTATSERIALNO	LABEL	16137	Pstat Serial Number
CTRLMODE	IQUANT	1	Control Mode
IESTAB	IQUANT	0	I/E Stability
CASPEED	IQUANT	1	Control Amp Speed
CONVENTION	IQUANT	1	Current Convention
ICHRANGE	IQUANT	2	Ich Range
ICHRANGEMODE	TOGGLE	F	Ich Auto Range
ICHOFFSETENABLE	TOGGLE	T	Ich Offset Enable
ICHOFFSET	QUANT	0	Ich Offset (V)
ICHFILTER	IQUANT	3	Ich Filter
VCHRANGE	IQUANT	2	Vch Range
VCHRANGEMODE	TOGGLE	F	Vch Auto Range
VCHOFFSETENABLE	TOGGLE	T	Vch Offset Enable
VCHOFFSET	QUANT	0	Vch Offset (V)
VCHFILTER	IQUANT	3	Vch Filter
ACHRANGE	IQUANT	2	Ach Range
ACHOFFSETENABLE	TOGGLE	F	Ach Offset Enable
ACHOFFSET	QUANT	0	Ach Offset (V)
ACHFILTER	IQUANT	3	Ach Filter
IERANGELOWERLIMIT	IQUANT	2	I/E Range Lower Limit
IERANGEMODE	TOGGLE	F	I/E AutoRange
IERANGE	IQUANT	11	I/E Range
POSFEEDENABLE	TOGGLE	F	Positive Feedback IR Comp
POSFEEDRESISTANCE	QUANT	0	Positive Feedback Resistance (ohm)
ACHSELECT	IQUANT	0	Ach Select
CABLEID	IQUANT	13	Cable ID
DCCALDATE	LABEL	7/31/2020	DC Calibration Date
ACCALDATE	LABEL	7/31/2020	AC Calibration Date
THERMOSELECT	IQUANT	1	Thermo Select
FRAMEWORKVERSION	QUANT	6.33	Framework Version
INSTRUMENTVERSION	LABEL	3.50	Instrument Version
COMPLIANCEVOLTAGE	IQUANT	0	Compliance Voltage
ZCURVE	TABLE
	Pt	Time	Freq	Zreal	Zimag	Zsig	Zmod	Zphz	Idc	Vdc	IERange
	#	s	Hz	ohm	ohm	V	ohm	°	A	V	#
	0	15	300046.9	-101.3261	-4826.385	1	4827.448	-91.20271	1.165553E-006	-0.0021398	9
	1	29	238359.4	73.78111	-6017.505	1	6017.958	-89.29752	1.181644E-006	0.0016054	9
	2	42	189328.1	105.6319	-7555.663	1	7556.401	-89.19903	2.472195E-005	0.0010834	9
	3	50	150421.9	256.6896	-9454.172	1	9457.656	-88.44475	2.116795E-005	-0.0009272	9
	4	57	119484.4	596.0417	-11477.25	1	11492.71	-87.02716	-7.98557E-005	0.0364116	8
	5	65	94921.88	426.8698	-14566.1	1	14572.36	-88.32139	2.757997E-005	-0.0074369	8
	6	73	75421.88	532.8992	-18186.19	1	18193.99	-88.32158	1.747682E-005	0.0002542	8
	7	82	59859.37	2059.109	-22287.26	1	22382.18	-84.72146	-2.645709E-005	0.0076464	8
	8	91	47578.12	976.859	-28767.58	1	28784.16	-88.05516	-9.605184E-006	-0.0021313	8
	9	100	37828.12	4174.397	-37147.56	1	37381.37	-83.58838	6.961225E-006	-0.0273352	7
	10	108	30046.88	4621.483	-46597.63	1	46826.24	-84.33601	1.19918E-006	-0.0201088	7
	11	115	23859.38	4193.038	-57544.42	1	57696.98	-85.83244	3.988879E-007	0.0165447	7
	12	121	18984.38	4340.599	-73264.98	1	73393.45	-86.60947	-3.818598E-006	0.0258633	7
	13	126	15046.87	5652.407	-92364.73	1	92537.52	-86.49806	6.746182E-006	-0.01037	7
	14	132	11953.13	5085.753	-116261.3	1	116372.5	-87.49524	-1.272951E-006	-0.0051452	8
	15	140	9515.62	6561.72	-141680.7	1	141832.6	-87.34833	-5.405995E-006	0.0035093	7
	16	146	7546.875	4896.249	-175756.2	1	175824.4	-88.40426	7.705926E-006	-0.0188024	7
	17	153	5928.309	-24367.53	-244143.5	1	245356.6	-95.6997	-1.109692E-006	-0.0134902	7
	18	159	4733.456	26109.08	-390484.2	1	391356.1	-86.17471	2.630331E-005	-0.0090544	8
	19	167	3796.875	-84124.79	-434282.9	1	442355.8	-100.963	2.253924E-005	-0.0097236	8
	20	175	2987.132	176772.5	-478872	1	510457.5	-69.73871	-9.706177E-006	-0.0020983	8
	21	183	2390.625	-12995.43	-440148.3	1	440340.1	-91.69117	6.64637E-007	0.016414	7
	22	191	1884.191	56318.23	-728346.9	1	730521	-85.5785	7.339004E-007	-0.027478	6
	23	196	1516.544	37929.42	-897401.9	1	898203.1	-87.57979	-7.599164E-007	0.0236812	6
	24	203	1193.986	1567351	-968475	1	1842426	-31.71214	-5.456607E-006	0.0037123	7
	25	211	946.5144	895986.8	-486103.4	1	1019357	-28.48134	1.223399E-006	-0.019871	7
	26	216	751.7689	166837.7	-1953899	1	1961009	-85.11951	2.237119E-007	0.0105321	6
	27	221	597.4265	235600.4	-2496143	1	2507236	-84.60806	-4.989794E-007	0.0015557	6
	28	225	477.4305	86093.37	-2804102	1	2805424	-88.24142	-9.081758E-009	0.0006313	6
	29	230	376.6741	475449.6	-3661407	1	3692148	-82.6013	-9.444873E-010	0.0006564	5
	30	234	298.2954	515605.7	-4554759	1	4583850	-83.54153	-1.042432E-009	0.0006998	5
	31	237	237.7717	661493.8	-5638457	1	5677127	-83.30875	-9.338598E-010	0.0006037	5
	32	239	189.0121	580366.8	-7057989	1	7081810	-85.29924	-9.774758E-010	0.0006045	5
	33	242	150.2404	365141.8	-8657714	1	8665411	-87.58496	-1.040276E-009	0.0006924	5
	34	245	119.1737	4129012	-9.725635E+006	1	1.056583E+007	-66.99638	-1.005786E-009	0.0007049	5
	35	248	95.0169	557711.4	-1.359966E+007	1	1.361109E+007	-87.65166	-9.655242E-010	0.0006073	5
	36	250	75.60484	103526.2	-1.739578E+007	1	1.739609E+007	-89.65903	-1.019433E-009	0.0006538	5
	37	253	54.50582	605565.3	-2.400014E+007	1	2.400778E+007	-88.55463	-1.022048E-009	0.0006902	5
	38	257	45.95588	-75321.7	-2.852433E+007	1	2.852443E+007	-90.1513	-9.828182E-010	0.0006069	5
	39	260	37.20238	2558143	-3.781926E+007	1	3.790568E+007	-86.13033	-1.023233E-009	0.000606	5
	40	264	30.04808	5512602	-4.394999E+007	1	4.429436E+007	-82.85078	-1.116511E-010	0.0007042	4
	41	268	23.91582	1.04069E+007	-5.497482E+007	1	5.595118E+007	-79.28058	-1.326913E-010	0.0006781	4
	42	272	18.60119	2.579531E+007	-5.294051E+007	1	5.889054E+007	-64.02231	-2.748351E-010	0.0006165	4
	43	275	15.02404	1.403205E+007	-8.335028E+007	1	8.452318E+007	-80.44384	-9.751931E-011	0.0006316	4
	44	279	12.01923	1.609068E+007	-1.062718E+008	1	1.074831E+008	-81.39021	-8.801845E-011	0.0006264	4
	45	283	9.450605	1.905612E+007	-1.286864E+008	1	1.300897E+008	-81.57674	-8.693803E-011	0.0006211	4
	46	287	7.512019	4.700985E+007	-1.501481E+008	1	1.573352E+008	-72.61519	-1.162469E-010	0.000677	4
	47	291	5.978954	7.558658E+007	-1.819046E+008	1	1.969838E+008	-67.43571	-9.336436E-011	0.0006268	4
	48	297	4.734848	1.285142E+008	-1.874628E+008	1	2.272844E+008	-55.5676	-2.086516E-011	0.0007087	3
	49	302	3.75601	1.622977E+008	-1.823197E+008	1	2.440922E+008	-48.32511	-1.924847E-011	0.0007065	3
	50	307	3.004808	1.443601E+008	-1.390895E+008	1	2.004638E+008	-43.93475	-1.069976E-009	0.0006991	5
	51	316	2.372217	1.764136E+008	-9.966113E+007	1	2.026181E+008	-29.46336	-2.476845E-011	0.0008057	3
	52	321	1.878005	1.622844E+008	-6.979483E+007	1	1.766566E+008	-23.27143	-2.757554E-011	0.0007163	3
	53	328	1.512097	1.37441E+008	-4.763571E+007	1	1.45462E+008	-19.11582	-3.13332E-011	0.0007687	3
	54	333	1.201923	1.152333E+008	-3.550609E+007	1	1.205795E+008	-17.12529	-2.7238E-011	0.0006956	3
	55	340	0.956633	9.516814E+007	-2.761147E+007	1	9.909273E+007	-16.17922	-4.541042E-011	9.475947E-005	3
