EXPLAIN
TAG	EISPOT
TITLE	LABEL	Potentiostatic EIS	Test Identifier
DATE	LABEL	8/23/2020	Date
TIME	LABEL	17:10:27	Time
NOTES	NOTES	1	Notes...
	
PSTAT	PSTAT	REF3000-16137	Potentiostat
VDC	POTEN	0.00000E+000	T	DC Voltage (V)
FREQINIT	QUANT	3.00000E+005	Initial Freq. (Hz)
FREQFINAL	QUANT	1.00000E+000	Final Freq. (Hz)
PTSPERDEC	QUANT	1.00000E+001	Points/decade
VAC	QUANT	5.00000E+001	AC Voltage (mV rms)
AREA	QUANT	1.00000E+000	Sample Area (cm^2)
SPEED	SELECTOR	2	Optimize for:
ZGUESS	QUANT	1.00000E+003	Estimated Z (ohms)
EOC	QUANT	0	Open Circuit (V)
SEQUENCER	TOGGLE	TRUE	Run as Sequence
PSTATMODEL	IQUANT	5	Pstat Model
PSTATSECTION	LABEL	REF3000-16137	Pstat Section
PSTATSERIALNO	LABEL	16137	Pstat Serial Number
CTRLMODE	IQUANT	1	Control Mode
IESTAB	IQUANT	0	I/E Stability
CASPEED	IQUANT	1	Control Amp Speed
CONVENTION	IQUANT	1	Current Convention
ICHRANGE	IQUANT	2	Ich Range
ICHRANGEMODE	TOGGLE	F	Ich Auto Range
ICHOFFSETENABLE	TOGGLE	T	Ich Offset Enable
ICHOFFSET	QUANT	0	Ich Offset (V)
ICHFILTER	IQUANT	3	Ich Filter
VCHRANGE	IQUANT	2	Vch Range
VCHRANGEMODE	TOGGLE	F	Vch Auto Range
VCHOFFSETENABLE	TOGGLE	T	Vch Offset Enable
VCHOFFSET	QUANT	0	Vch Offset (V)
VCHFILTER	IQUANT	3	Vch Filter
ACHRANGE	IQUANT	2	Ach Range
ACHOFFSETENABLE	TOGGLE	F	Ach Offset Enable
ACHOFFSET	QUANT	0	Ach Offset (V)
ACHFILTER	IQUANT	3	Ach Filter
IERANGELOWERLIMIT	IQUANT	2	I/E Range Lower Limit
IERANGEMODE	TOGGLE	F	I/E AutoRange
IERANGE	IQUANT	11	I/E Range
POSFEEDENABLE	TOGGLE	F	Positive Feedback IR Comp
POSFEEDRESISTANCE	QUANT	0	Positive Feedback Resistance (ohm)
ACHSELECT	IQUANT	0	Ach Select
CABLEID	IQUANT	13	Cable ID
DCCALDATE	LABEL	7/31/2020	DC Calibration Date
ACCALDATE	LABEL	7/31/2020	AC Calibration Date
THERMOSELECT	IQUANT	1	Thermo Select
FRAMEWORKVERSION	QUANT	6.33	Framework Version
INSTRUMENTVERSION	LABEL	3.50	Instrument Version
COMPLIANCEVOLTAGE	IQUANT	0	Compliance Voltage
ZCURVE	TABLE
	Pt	Time	Freq	Zreal	Zimag	Zsig	Zmod	Zphz	Idc	Vdc	IERange
	#	s	Hz	ohm	ohm	V	ohm	°	A	V	#
	0	15	300046.9	276.8932	-26.02977	1	278.114	-5.370394	-3.397765E-005	-0.014136	9
	1	29	238359.4	261.0999	-44.25273	1	264.8235	-9.61941	-0.0003042	-0.0012737	10
	2	43	189328.1	264.8279	-41.37164	1	268.0399	-8.87903	-0.000781	0.0032738	10
	3	50	150421.9	269.911	-29.42064	1	271.5097	-6.220753	-0.0007137	0.0218061	9
	4	58	119484.4	270.6049	-32.88858	1	272.5962	-6.929585	-0.0003375	0.0252366	9
	5	65	94921.88	274.1107	-33.8403	1	276.1917	-7.037831	-0.0001051	0.0088965	9
	6	70	75421.88	277.3413	-37.58632	1	279.8767	-7.717913	-0.0002106	0.0024062	9
	7	75	59859.37	280.2461	-42.65636	1	283.4739	-8.654581	1.485199E-005	-0.00653	9
	8	80	47578.12	283.3911	-53.01587	1	288.3075	-10.59622	0.0003047	7.949133E-005	10
	9	85	37828.12	287.9701	-56.59269	1	293.4783	-11.11824	0.0002596	-0.0089686	9
	10	90	30046.88	294.2267	-63.94558	1	301.0953	-12.26166	-0.0001081	0.0089206	9
	11	95	23859.38	300.5649	-73.60465	1	309.4462	-13.76023	-0.0001758	0.0098569	9
	12	100	18984.38	305.5189	-86.04733	1	317.405	-15.72951	-0.0001488	-0.0007163	9
	13	105	15046.87	312.8195	-99.3177	1	328.2073	-17.61422	6.326038E-005	0.0044741	9
	14	110	11953.13	319.9349	-118.4432	1	341.1556	-20.31507	-0.0001775	0.0020002	10
	15	115	9515.62	327.3087	-135.8354	1	354.3758	-22.53879	0.00017	-0.0095301	9
	16	121	7546.875	335.2321	-159.3144	1	371.1625	-25.41875	-0.0002621	0.0071775	9
	17	126	5928.309	343.798	-191.6022	1	393.5841	-29.13138	0.000148	0.0011031	9
	18	131	4733.456	354.2914	-224.229	1	419.2863	-32.32949	1.357204E-005	-0.0064446	9
	19	137	3796.875	361.9857	-268.9242	1	450.9478	-36.60917	1.269455E-005	-0.0240663	8
	20	140	2987.132	373.2904	-330.5915	1	498.6346	-41.52858	-9.089505E-005	0.0305894	8
	21	145	2390.625	379.0735	-405.7125	1	555.2471	-46.94412	0.000271	-0.0074768	9
	22	150	1884.191	392.0509	-494.4181	1	630.9938	-51.58719	0.0000973	-0.0085284	9
	23	155	1516.544	410.8802	-600.8275	1	727.8847	-55.63345	-0.0002605	0.0070859	9
	24	161	1193.986	438.1834	-763.0303	1	879.8976	-60.13266	-2.191489E-005	0.0070469	9
	25	167	946.5144	460.6685	-928.5212	1	1036.517	-63.61255	9.460943E-005	-0.0240286	8
	26	170	751.7689	539.5981	-1118.996	1	1242.304	-64.25588	-1.320072E-005	0.0265503	8
	27	173	597.4265	560.329	-1434.658	1	1540.199	-68.66607	8.084781E-005	-0.0327018	8
	28	175	477.4305	632.1978	-1728.464	1	1840.452	-69.90966	-5.581173E-007	0.0007225	8
	29	178	376.6741	733.254	-2144.431	1	2266.329	-71.1227	-4.985566E-007	0.0005897	8
	30	180	298.2954	859.2085	-2619.453	1	2756.769	-71.83996	-4.35671E-007	0.0006381	8
	31	182	237.7717	1027.324	-3200.553	1	3361.388	-72.20423	-4.459059E-007	0.0006264	8
	32	185	189.0121	1256.826	-3914.619	1	4111.43	-72.20027	-4.44933E-007	0.0006143	8
	33	187	150.2404	1581.359	-4775.975	1	5030.967	-71.67993	-1.640342E-007	0.0006632	7
	34	189	119.1737	1990.608	-5836.095	1	6166.241	-71.16623	-1.822697E-007	0.0006056	7
	35	192	95.0169	2518.693	-7003.303	1	7442.451	-70.21921	-1.565197E-007	0.0006285	7
	36	194	75.60484	3219.403	-8400.018	1	8995.824	-69.0301	-1.63916E-007	0.0006207	7
	37	197	54.50582	4648.546	-10827.53	1	11783.23	-66.76487	-1.581075E-007	0.0005911	7
	38	199	45.95588	5617.36	-12131.04	1	13368.5	-65.15318	-1.467645E-007	0.0006956	7
	39	202	37.20238	7217.68	-14128.39	1	15865.26	-62.93917	-1.739762E-007	0.0006767	7
	40	204	30.04808	9064.084	-16073.82	1	18453.33	-60.58119	-1.415766E-007	0.0005623	7
	41	207	23.91582	11717.06	-18379.07	1	21796.32	-57.48158	-1.806275E-007	0.0007104	7
	42	209	18.60119	14952.2	-20629.07	1	25477.96	-54.06495	-1.484633E-007	0.0006867	7
	43	212	15.02404	18180.93	-22309.76	1	28779.71	-50.82231	-1.427514E-007	0.0006813	7
	44	214	12.01923	22245.71	-24099.89	1	32797.5	-47.29105	-1.552024E-007	0.0005572	7
	45	217	9.450605	26429.27	-25080.75	1	36435.56	-43.50035	-1.422895E-007	0.0006997	7
	46	219	7.512019	31063.19	-25999.44	1	40507.93	-39.92884	-1.661902E-007	0.0007179	7
	47	222	5.978954	35443.75	-25819.18	1	43850.77	-36.07166	-1.041663E-007	0.0007386	6
	48	227	4.734848	39480.11	-25246.62	1	46862.26	-32.59798	-9.847888E-008	0.0006585	6
	49	230	3.75601	43115.05	-23965.29	1	49327.92	-29.06728	-1.035233E-007	0.0007524	6
	50	236	3.004808	45970.68	-22359.94	1	51120.15	-25.93809	-1.054798E-007	0.000663	6
	51	242	2.372217	48557.57	-20561.78	1	52731.62	-22.9503	-1.140939E-007	0.0006015	6
	52	250	1.878005	49741.8	-18043.08	1	52913.13	-19.93747	-1.153913E-007	0.0006894	6
	53	259	1.512097	50600.51	-16237.29	1	53141.9	-17.79101	-1.187679E-007	0.0005849	6
	54	269	1.201923	51564.04	-14706.73	1	53620.32	-15.91883	-1.242579E-007	0.0007037	6
	55	282	0.956633	52187.27	-13153.44	1	53819.36	-14.14636	-1.427832E-007	-5.420022E-006	6
