EXPLAIN
TAG	EISPOT
TITLE	LABEL	Potentiostatic EIS	Test Identifier
DATE	LABEL	8/23/2020	Date
TIME	LABEL	15:11:49	Time
NOTES	NOTES	1	Notes...
	
PSTAT	PSTAT	REF3000-16137	Potentiostat
VDC	POTEN	0.00000E+000	T	DC Voltage (V)
FREQINIT	QUANT	3.00000E+005	Initial Freq. (Hz)
FREQFINAL	QUANT	1.00000E+000	Final Freq. (Hz)
PTSPERDEC	QUANT	1.00000E+001	Points/decade
VAC	QUANT	5.00000E+001	AC Voltage (mV rms)
AREA	QUANT	1.00000E+000	Sample Area (cm^2)
SPEED	SELECTOR	2	Optimize for:
ZGUESS	QUANT	1.00000E+003	Estimated Z (ohms)
EOC	QUANT	0	Open Circuit (V)
SEQUENCER	TOGGLE	TRUE	Run as Sequence
PSTATMODEL	IQUANT	5	Pstat Model
PSTATSECTION	LABEL	REF3000-16137	Pstat Section
PSTATSERIALNO	LABEL	16137	Pstat Serial Number
CTRLMODE	IQUANT	1	Control Mode
IESTAB	IQUANT	0	I/E Stability
CASPEED	IQUANT	1	Control Amp Speed
CONVENTION	IQUANT	1	Current Convention
ICHRANGE	IQUANT	2	Ich Range
ICHRANGEMODE	TOGGLE	F	Ich Auto Range
ICHOFFSETENABLE	TOGGLE	T	Ich Offset Enable
ICHOFFSET	QUANT	0	Ich Offset (V)
ICHFILTER	IQUANT	3	Ich Filter
VCHRANGE	IQUANT	2	Vch Range
VCHRANGEMODE	TOGGLE	F	Vch Auto Range
VCHOFFSETENABLE	TOGGLE	T	Vch Offset Enable
VCHOFFSET	QUANT	0	Vch Offset (V)
VCHFILTER	IQUANT	3	Vch Filter
ACHRANGE	IQUANT	2	Ach Range
ACHOFFSETENABLE	TOGGLE	F	Ach Offset Enable
ACHOFFSET	QUANT	0	Ach Offset (V)
ACHFILTER	IQUANT	3	Ach Filter
IERANGELOWERLIMIT	IQUANT	2	I/E Range Lower Limit
IERANGEMODE	TOGGLE	F	I/E AutoRange
IERANGE	IQUANT	11	I/E Range
POSFEEDENABLE	TOGGLE	F	Positive Feedback IR Comp
POSFEEDRESISTANCE	QUANT	0	Positive Feedback Resistance (ohm)
ACHSELECT	IQUANT	0	Ach Select
CABLEID	IQUANT	13	Cable ID
DCCALDATE	LABEL	7/31/2020	DC Calibration Date
ACCALDATE	LABEL	7/31/2020	AC Calibration Date
THERMOSELECT	IQUANT	1	Thermo Select
FRAMEWORKVERSION	QUANT	6.33	Framework Version
INSTRUMENTVERSION	LABEL	3.50	Instrument Version
COMPLIANCEVOLTAGE	IQUANT	0	Compliance Voltage
ZCURVE	TABLE
	Pt	Time	Freq	Zreal	Zimag	Zsig	Zmod	Zphz	Idc	Vdc	IERange
	#	s	Hz	ohm	ohm	V	ohm	°	A	V	#
	0	16	300046.9	48.82452	-2427.611	1	2428.102	-88.84782	-0.0001967	0.0028294	10
	1	31	238359.4	-465.6532	-2960.029	1	2996.432	-98.9401	0.000161	0.0026719	10
	2	47	189328.1	415.2003	-3882.078	1	3904.218	-83.89525	-0.0008359	0.0294261	9
	3	56	150421.9	430.9147	-5005.874	1	5024.386	-85.08	0.0005688	0.0016841	10
	4	66	119484.4	281.5813	-5955.458	1	5962.111	-87.293	-0.0003357	-0.0061502	9
	5	75	94921.88	1302.097	-7375.523	1	7489.58	-79.988	0.0003053	-0.0077616	9
	6	83	75421.88	1575.971	-9466.261	1	9596.55	-80.54792	-0.0002664	0.0045979	9
	7	94	59859.37	1098.449	-11021.12	1	11075.73	-84.30827	-0.0002713	0.0108527	9
	8	104	47578.12	2995.7	-14811.84	1	15111.74	-78.56614	-0.0002895	0.0070944	9
	9	114	37828.12	3492.524	-18256.21	1	18587.28	-79.16982	-5.673075E-005	0.0089497	9
	10	125	30046.88	9926.23	-22838.21	1	24902.09	-66.50866	-6.914043E-005	0.0598293	8
	11	132	23859.38	13782.97	-25401.35	1	28899.81	-61.5154	-0.0001016	0.0569321	8
	12	139	18984.38	7887.968	-30979.68	1	31968.12	-75.71503	-0.0002253	0.0115511	9
	13	146	15046.87	16524.8	-32826.4	1	36751.07	-63.27933	-0.0002154	0.0015799	9
	14	154	11953.13	21342.98	-35971.79	1	41826.94	-59.31826	-0.0002648	0.004671	9
	15	163	9515.62	19505.09	-61450.25	1	64471.56	-72.3899	0.0001424	0.0025282	9
	16	172	7546.875	21685.99	-47435.04	1	52157.12	-65.43143	4.209832E-005	0.0061492	9
	17	181	5928.309	52886.98	-81569.82	1	97214.5	-57.04205	-0.000114	0.0576477	8
	18	188	4733.456	74462.69	170135.8	1	185717.2	66.36263	0.0002171	-0.0111669	9
	19	196	3796.875	152051.7	-36650.32	1	156406.4	-13.55198	0.0002268	-0.0013088	9
	20	205	2987.132	116487.3	42929.82	1	124146.2	20.23067	0.0001307	-0.0054946	8
	21	214	2390.625	60042.91	-61388.75	1	85870.42	-45.63499	0.0001534	-0.053783	8
	22	221	1884.191	-1806.918	-106552.7	1	106568	-90.97153	0.0001476	-0.0538477	8
	23	230	1516.544	108156.1	-9061.906	1	108535.1	-4.789365	0.0001305	-0.0053373	8
	24	239	1193.986	50794.8	-25611.29	1	56886.29	-26.75774	0.0001438	0.0025293	9
	25	248	946.5144	-4749.299	-25832.48	1	26265.43	-100.4175	4.401241E-005	-0.0552462	8
	26	254	751.7689	43046.52	22598.34	1	48617.77	27.69834	-0.000289	0.0093596	9
	27	260	597.4265	5357.94	-75823.77	1	76012.84	-85.95802	-0.0002889	0.0094277	9
	28	267	477.4305	162987.6	-35769.64	1	166866.5	-12.37804	4.338225E-007	9.35693E-005	9
	29	274	376.6741	265809.9	-14481.57	1	266204.1	-3.118444	-8.280454E-008	0.0005469	6
	30	277	298.2954	270919.1	-16317.09	1	271410	-3.446684	-8.334261E-008	0.0006435	6
	31	281	237.7717	278382.6	-22677.6	1	279304.7	-4.657145	-8.672396E-008	0.0007833	6
	32	285	189.0121	269508.1	-37333.47	1	272081.6	-7.88668	-7.916777E-007	0.0005595	7
	33	288	150.2404	281281.7	-26155.88	1	282495.1	-5.312554	-8.442238E-008	0.0007505	6
	34	292	119.1737	274261.5	-29838.34	1	275879.9	-6.209085	-8.587866E-008	0.0007805	6
	35	297	95.0169	285650.8	-43668.32	1	288969.4	-8.691689	-7.959289E-007	0.0004967	7
	36	301	75.60484	300018	-37408.02	1	302341.2	-7.107296	-8.584884E-008	0.00078	6
	37	305	54.50582	309503.9	-46953.47	1	313045.2	-8.626315	-8.610449E-008	0.000747	6
	38	309	45.95588	311331.2	-58540.78	1	316787.2	-10.6492	-7.851936E-007	0.0004957	7
	39	313	37.20238	315524.2	-60275.66	1	321229.9	-10.8151	-8.422375E-008	0.0005395	6
	40	317	30.04808	318680.5	-70746.91	1	326438.9	-12.51665	-8.56279E-008	0.0007736	6
	41	321	23.91582	336162.2	-81731.22	1	345955.2	-13.6652	-8.647105E-008	0.000683	6
	42	325	18.60119	346398.6	-103704.6	1	361589	-16.66662	-8.598489E-008	0.0007905	6
	43	328	15.02404	344188.1	-114020.9	1	362582.7	-18.32874	-8.316128E-008	0.0007901	6
	44	332	12.01923	361823.8	-138900.1	1	387568.9	-21.00124	-8.589269E-008	0.0005379	6
	45	335	9.450605	361764.1	-166220.9	1	398123.9	-24.67752	-8.346526E-008	0.0005475	6
	46	338	7.512019	382736.4	-200276.7	1	431969.8	-27.62197	-8.587616E-008	0.0006917	6
	47	341	5.978954	392361.1	-239779.9	1	459827.8	-31.42995	-8.477068E-008	0.0006848	6
	48	345	4.734848	405111.9	-290936.5	1	498758.1	-35.68452	-8.410134E-008	0.0006171	6
	49	350	3.75601	422796.3	-355562.7	1	552432.4	-40.06311	-8.581218E-008	0.0008317	6
	50	355	3.004808	443128.3	-430226.8	1	617622.8	-44.15367	-8.455919E-008	0.0005803	6
	51	362	2.372217	499040.2	-559851.4	1	749983.1	-48.28683	-8.262331E-009	0.0006356	5
	52	366	1.878005	528759.6	-683619.7	1	864246.8	-52.27911	-7.955079E-009	0.0006382	5
	53	371	1.512097	558216.9	-823535.3	1	994895	-55.8694	-8.180762E-009	0.0007347	5
	54	376	1.201923	607073.1	-1008541	1	1177154	-58.95491	-8.585043E-009	0.0006515	5
	55	382	0.956633	656254.3	-1232964	1	1396736	-61.97553	-8.791057E-009	8.734101E-006	5
