EXPLAIN
TAG	EISPOT
TITLE	LABEL	Potentiostatic EIS	Test Identifier
DATE	LABEL	8/23/2020	Date
TIME	LABEL	17:15:20	Time
NOTES	NOTES	1	Notes...
	
PSTAT	PSTAT	REF3000-16137	Potentiostat
VDC	POTEN	0.00000E+000	T	DC Voltage (V)
FREQINIT	QUANT	3.00000E+005	Initial Freq. (Hz)
FREQFINAL	QUANT	1.00000E+000	Final Freq. (Hz)
PTSPERDEC	QUANT	1.00000E+001	Points/decade
VAC	QUANT	5.00000E+001	AC Voltage (mV rms)
AREA	QUANT	1.00000E+000	Sample Area (cm^2)
SPEED	SELECTOR	2	Optimize for:
ZGUESS	QUANT	1.00000E+003	Estimated Z (ohms)
EOC	QUANT	0	Open Circuit (V)
SEQUENCER	TOGGLE	TRUE	Run as Sequence
PSTATMODEL	IQUANT	5	Pstat Model
PSTATSECTION	LABEL	REF3000-16137	Pstat Section
PSTATSERIALNO	LABEL	16137	Pstat Serial Number
CTRLMODE	IQUANT	1	Control Mode
IESTAB	IQUANT	0	I/E Stability
CASPEED	IQUANT	1	Control Amp Speed
CONVENTION	IQUANT	1	Current Convention
ICHRANGE	IQUANT	2	Ich Range
ICHRANGEMODE	TOGGLE	F	Ich Auto Range
ICHOFFSETENABLE	TOGGLE	T	Ich Offset Enable
ICHOFFSET	QUANT	0	Ich Offset (V)
ICHFILTER	IQUANT	3	Ich Filter
VCHRANGE	IQUANT	2	Vch Range
VCHRANGEMODE	TOGGLE	F	Vch Auto Range
VCHOFFSETENABLE	TOGGLE	T	Vch Offset Enable
VCHOFFSET	QUANT	0	Vch Offset (V)
VCHFILTER	IQUANT	3	Vch Filter
ACHRANGE	IQUANT	2	Ach Range
ACHOFFSETENABLE	TOGGLE	F	Ach Offset Enable
ACHOFFSET	QUANT	0	Ach Offset (V)
ACHFILTER	IQUANT	3	Ach Filter
IERANGELOWERLIMIT	IQUANT	2	I/E Range Lower Limit
IERANGEMODE	TOGGLE	F	I/E AutoRange
IERANGE	IQUANT	11	I/E Range
POSFEEDENABLE	TOGGLE	F	Positive Feedback IR Comp
POSFEEDRESISTANCE	QUANT	0	Positive Feedback Resistance (ohm)
ACHSELECT	IQUANT	0	Ach Select
CABLEID	IQUANT	13	Cable ID
DCCALDATE	LABEL	7/31/2020	DC Calibration Date
ACCALDATE	LABEL	7/31/2020	AC Calibration Date
THERMOSELECT	IQUANT	1	Thermo Select
FRAMEWORKVERSION	QUANT	6.33	Framework Version
INSTRUMENTVERSION	LABEL	3.50	Instrument Version
COMPLIANCEVOLTAGE	IQUANT	0	Compliance Voltage
ZCURVE	TABLE
	Pt	Time	Freq	Zreal	Zimag	Zsig	Zmod	Zphz	Idc	Vdc	IERange
	#	s	Hz	ohm	ohm	V	ohm	°	A	V	#
	0	15	300046.9	274.7036	-26.22943	1	275.953	-5.454219	-0.0003477	-0.002973	9
	1	29	238359.4	260.1216	-44.60553	1	263.9184	-9.73042	0.0007926	-0.0023149	10
	2	43	189328.1	263.5488	-40.80247	1	266.6886	-8.800627	-0.0005805	0.0072231	10
	3	50	150421.9	265.3029	-38.70303	1	268.1111	-8.299896	-0.0005594	0.0071354	10
	4	58	119484.4	269.5967	-40.09657	1	272.5622	-8.459472	-0.0002858	-0.0009838	10
	5	65	94921.88	273.7046	-33.34327	1	275.7281	-6.945668	-0.0002537	0.008797	9
	6	70	75421.88	275.4549	-43.83322	1	278.9207	-9.041685	0.0002139	0.0010154	10
	7	75	59859.37	278.2414	-44.07287	1	281.7103	-9.000754	0.000214	-0.0022515	9
	8	82	47578.12	282.9463	-49.26648	1	287.2034	-9.87729	0.000221	-0.0095973	9
	9	88	37828.12	287.5396	-55.90523	1	292.9239	-11.00253	-7.25623E-005	-0.0037972	9
	10	96	30046.88	292.5451	-66.53174	1	300.0152	-12.8125	0.0003053	-0.0002217	10
	11	102	23859.38	298.7942	-75.01421	1	308.0667	-14.0932	0.0002237	-0.0097068	9
	12	107	18984.38	305.2518	-85.45204	1	316.9869	-15.63903	-0.0001065	0.0088594	9
	13	112	15046.87	311.2015	-98.8227	1	326.5154	-17.61736	0.0001494	0.0011116	9
	14	117	11953.13	318.8925	-116.3366	1	339.4505	-20.04271	0.0002704	-0.0074553	9
	15	122	9515.62	326.1408	-135.0888	1	353.011	-22.49953	0.0001684	-0.0094409	9
	16	127	7546.875	333.6569	-159.2216	1	369.7005	-25.51056	-0.0002308	0.0099035	9
	17	133	5928.309	341.6721	-188.0067	1	389.9825	-28.822	0.0002189	-0.0023324	9
	18	138	4733.456	348.2279	-227.2759	1	415.8329	-33.13105	0.0001498	0.0010941	9
	19	144	3796.875	357.7797	-272.1146	1	449.5027	-37.25534	0.0002243	-0.0096514	9
	20	149	2987.132	367.2568	-329.0985	1	493.1363	-41.86349	-0.0001767	0.0098343	9
	21	154	2390.625	380.1507	-405.3466	1	555.7161	-46.83721	-0.0002094	0.0024039	9
	22	160	1884.191	390.0256	-496.8813	1	631.6732	-51.86996	0.0002691	-0.0073515	9
	23	165	1516.544	413.2069	-609.6931	1	736.5226	-55.87335	-0.0002255	0.0096926	9
	24	170	1193.986	425.9997	-765.8041	1	876.3171	-60.91379	-2.518775E-005	0.0071263	9
	25	177	946.5144	465.1975	-923.1561	1	1033.744	-63.25552	1.581555E-005	0.0172645	8
	26	180	751.7689	503.3038	-1150.394	1	1255.675	-66.37035	0.0000969	-0.0321841	8
	27	182	597.4265	568.7546	-1410.551	1	1520.9	-68.03999	-0.000106	0.0090876	9
	28	187	477.4305	630.4254	-1733.482	1	1844.558	-70.01489	-3.976693E-007	0.000619	8
	29	190	376.6741	727.5504	-2137.33	1	2257.766	-71.20135	-4.146225E-007	0.0005957	8
	30	192	298.2954	861.9982	-2638.681	1	2775.91	-71.90894	-5.913095E-007	0.0007259	8
	31	194	237.7717	1029.057	-3212.21	1	3373.018	-72.23672	-5.124753E-007	0.0007017	8
	32	197	189.0121	1249.504	-3908.386	1	4103.26	-72.27102	-4.812943E-007	0.0007199	8
	33	199	150.2404	1605.366	-4835.542	1	5095.063	-71.63419	-1.788648E-007	0.0007054	7
	34	202	119.1737	2008.8	-5821.253	1	6158.105	-70.96146	-1.544181E-007	0.0006878	7
	35	204	95.0169	2521.159	-7036.345	1	7474.382	-70.28713	-1.583959E-007	0.0005552	7
	36	206	75.60484	3228.072	-8450.427	1	9046.003	-69.09309	-1.53089E-007	0.0006366	7
	37	209	54.50582	4669.827	-10806.62	1	11772.44	-66.62955	-1.46945E-007	0.0005786	7
	38	212	45.95588	5670.902	-12301.69	1	13545.87	-65.25098	-1.529694E-007	0.0005572	7
	39	214	37.20238	7170.674	-14087.75	1	15807.7	-63.02388	-1.363469E-007	0.0005738	7
	40	216	30.04808	9087.1	-16179.34	1	18556.58	-60.67934	-1.565615E-007	0.0005461	7
	41	219	23.91582	11595.27	-18269.25	1	21638.3	-57.59719	-1.49331E-007	0.0006951	7
	42	222	18.60119	15043.15	-20711.84	1	25598.37	-54.00885	-1.638063E-007	0.0005588	7
	43	224	15.02404	18322.46	-22526.95	1	29037.49	-50.87658	-1.375484E-007	0.0006463	7
	44	227	12.01923	22152.55	-24086.56	1	32724.58	-47.39506	-1.514269E-007	0.0005567	7
	45	229	9.450605	26656.39	-25413.17	1	36829.23	-43.63225	-1.544311E-007	0.000667	7
	46	232	7.512019	31142.95	-26171.44	1	40679.57	-40.04251	-1.679692E-007	0.0005657	7
	47	235	5.978954	35562.5	-26058.11	1	44087.6	-36.23177	-1.014879E-007	0.0006581	6
	48	239	4.734848	39789.47	-25645.89	1	47338.29	-32.80338	-1.059794E-007	0.0007208	6
	49	243	3.75601	43464.54	-24431.45	1	49860.43	-29.34037	-1.061501E-007	0.0006312	6
	50	249	3.004808	46426.29	-22875.96	1	51756.25	-26.23119	-1.133612E-007	0.0007873	6
	51	255	2.372217	48921.14	-20947.36	1	53217.2	-23.17994	-1.103119E-007	0.0007475	6
	52	262	1.878005	50249.28	-18477.08	1	53538.7	-20.1889	-1.195306E-007	0.0006547	6
	53	271	1.512097	51225.31	-16708.21	1	53881.32	-18.06483	-1.202609E-007	0.0007859	6
	54	282	1.201923	51866.82	-14945.48	1	53977.16	-16.0744	-1.216259E-007	0.0006571	6
	55	295	0.956633	52781.84	-13460.56	1	54471.18	-14.30677	-1.478437E-007	4.920611E-005	6
