EXPLAIN
TAG	EISPOT
TITLE	LABEL	Potentiostatic EIS	Test Identifier
DATE	LABEL	2/25/2021	Date
TIME	LABEL	0:40:21	Time
NOTES	NOTES	1	Notes...
	
PSTAT	PSTAT	REF3000-16137	Potentiostat
VDC	POTEN	0.00000E+000	T	DC Voltage (V)
FREQINIT	QUANT	3.00000E+005	Initial Freq. (Hz)
FREQFINAL	QUANT	1.00000E+000	Final Freq. (Hz)
PTSPERDEC	QUANT	1.00000E+001	Points/decade
VAC	QUANT	5.00000E+001	AC Voltage (mV rms)
AREA	QUANT	1.00000E+000	Sample Area (cm^2)
SPEED	SELECTOR	2	Optimize for:
ZGUESS	QUANT	1.00000E+003	Estimated Z (ohms)
EOC	QUANT	0	Open Circuit (V)
SEQUENCER	TOGGLE	TRUE	Run as Sequence
PSTATMODEL	IQUANT	5	Pstat Model
PSTATSECTION	LABEL	REF3000-16137	Pstat Section
PSTATSERIALNO	LABEL	16137	Pstat Serial Number
CTRLMODE	IQUANT	1	Control Mode
IESTAB	IQUANT	0	I/E Stability
CASPEED	IQUANT	1	Control Amp Speed
CONVENTION	IQUANT	1	Current Convention
ICHRANGE	IQUANT	2	Ich Range
ICHRANGEMODE	TOGGLE	F	Ich Auto Range
ICHOFFSETENABLE	TOGGLE	T	Ich Offset Enable
ICHOFFSET	QUANT	0	Ich Offset (V)
ICHFILTER	IQUANT	3	Ich Filter
VCHRANGE	IQUANT	2	Vch Range
VCHRANGEMODE	TOGGLE	F	Vch Auto Range
VCHOFFSETENABLE	TOGGLE	T	Vch Offset Enable
VCHOFFSET	QUANT	0	Vch Offset (V)
VCHFILTER	IQUANT	3	Vch Filter
ACHRANGE	IQUANT	2	Ach Range
ACHOFFSETENABLE	TOGGLE	F	Ach Offset Enable
ACHOFFSET	QUANT	0	Ach Offset (V)
ACHFILTER	IQUANT	1	Ach Filter
IERANGELOWERLIMIT	IQUANT	2	I/E Range Lower Limit
IERANGEMODE	TOGGLE	F	I/E AutoRange
IERANGE	IQUANT	11	I/E Range
POSFEEDENABLE	TOGGLE	F	Positive Feedback IR Comp
POSFEEDRESISTANCE	QUANT	0	Positive Feedback Resistance (ohm)
ACHSELECT	IQUANT	0	Ach Select
CABLEID	IQUANT	13	Cable ID
DCCALDATE	LABEL	7/31/2020	DC Calibration Date
ACCALDATE	LABEL	7/31/2020	AC Calibration Date
THERMOSELECT	IQUANT	1	Thermo Select
FRAMEWORKVERSION	QUANT	6.33	Framework Version
INSTRUMENTVERSION	LABEL	3.50	Instrument Version
COMPLIANCEVOLTAGE	IQUANT	0	Compliance Voltage
ZCURVE	TABLE
	Pt	Time	Freq	Zreal	Zimag	Zsig	Zmod	Zphz	Idc	Vdc	IERange
	#	s	Hz	ohm	ohm	V	ohm	°	A	V	#
	0	11	300046.9	2.783168	2.246767	1	3.576869	38.91288	-1.744206E-005	-0.0001363	10
	1	14	238359.4	2.769365	1.78815	1	3.296492	32.84991	-1.035358E-005	-0.0006203	10
	2	17	189328.1	2.82805	1.190903	1	3.068569	22.83615	-0.0002364	-0.0001778	12
	3	20	150421.9	2.733714	1.077037	1	2.938231	21.5036	5.24182E-005	0.0004402	11
	4	23	119484.4	2.719334	0.8382086	1	2.845588	17.13141	-3.178465E-005	0.0004254	11
	5	25	94921.88	2.714448	0.638674	1	2.788572	13.24013	9.640906E-006	0.0005916	11
	6	28	75421.88	2.71205	0.4700311	1	2.752479	9.83238	-4.339744E-005	0.0006384	11
	7	31	59859.37	2.709746	0.325581	1	2.729235	6.85135	-4.521172E-005	0.00059	11
	8	33	47578.12	2.711251	0.2007307	1	2.718671	4.234237	-6.530886E-005	0.0006101	11
	9	36	37828.12	2.714297	0.0868718	1	2.715686	1.833142	9.338897E-006	0.0007109	11
	10	38	30046.88	2.718198	-0.0218201	1	2.718286	-0.4599278	1.233912E-005	0.0007189	11
	11	41	23859.38	2.722571	-0.1305723	1	2.725701	-2.745754	-3.692297E-005	0.00066	11
	12	43	18984.38	2.729906	-0.2437051	1	2.740763	-5.101404	1.552746E-005	0.0007356	11
	13	45	15046.87	2.737404	-0.3698238	1	2.762273	-7.694087	-5.484337E-005	0.0006669	11
	14	48	11953.13	2.748159	-0.5122764	1	2.795497	-10.55915	-6.498321E-005	0.0006762	11
	15	50	9515.62	2.761161	-0.6765891	1	2.842848	-13.76835	2.550445E-006	0.0007219	11
	16	52	7546.875	2.778345	-0.8772979	1	2.913563	-17.52418	9.971704E-006	0.0007457	11
	17	55	5928.309	2.80039	-1.130209	1	3.01986	-21.97851	7.111018E-006	0.0007328	11
	18	57	4733.456	2.827368	-1.418947	1	3.163451	-26.65031	-1.661987E-005	0.0007099	11
	19	59	3796.875	2.860193	-1.764437	1	3.360646	-31.6702	-6.635412E-005	0.0006691	11
	20	61	2987.132	2.90649	-2.226047	1	3.661006	-37.44809	-2.011334E-005	0.0007018	11
	21	64	2390.625	2.9663	-2.758074	1	4.05042	-42.91677	-1.976102E-005	0.0006984	10
	22	66	1884.191	3.040899	-3.458939	1	4.605576	-48.67994	-5.021525E-006	0.0006611	10
	23	68	1516.544	3.127117	-4.247165	1	5.274208	-53.6364	2.658297E-006	0.0006875	10
	24	71	1193.986	3.249516	-5.319011	1	6.233075	-58.57821	-2.17094E-005	0.0006929	10
	25	73	946.5144	3.406538	-6.607937	1	7.434335	-62.72789	1.581498E-005	0.0006677	10
	26	76	751.7689	3.598884	-8.198041	1	8.953203	-66.29885	3.262021E-006	0.0006542	10
	27	78	597.4265	3.840335	-10.15541	1	10.85728	-69.28556	-2.224461E-005	0.0006944	10
	28	80	477.4305	4.145605	-12.49871	1	13.16829	-71.65022	-3.334082E-006	0.0006822	10
	29	82	376.6741	4.551075	-15.56307	1	16.21485	-73.69961	-3.065031E-006	0.000682	10
	30	85	298.2954	5.055601	-19.30068	1	19.95182	-75.32177	-4.196937E-006	0.0006856	10
	31	87	237.7717	5.672934	-23.77867	1	24.446	-76.58163	-4.058785E-006	0.000682	10
	32	90	189.0121	6.454768	-29.36509	1	30.06614	-77.60291	-3.692984E-006	0.0006835	10
	33	92	150.2404	7.429935	-36.23935	1	36.99316	-78.41355	-3.692568E-006	0.0006851	10
	34	94	119.1737	8.648765	-44.75066	1	45.57876	-79.06155	-1.6087E-007	8.651889E-005	9
	35	97	95.0169	10.14561	-55.04758	1	55.97472	-79.55723	-3.776033E-007	8.687752E-005	9
	36	99	75.60484	12.03104	-67.83992	1	68.89848	-79.94346	-3.633263E-007	8.332972E-005	9
	37	102	54.50582	15.60032	-91.48717	1	92.80772	-80.32304	-4.283237E-007	8.202671E-005	9
	38	104	45.95588	18.01518	-106.9988	1	108.5048	-80.44286	-2.009997E-007	8.665739E-005	9
	39	107	37.20238	21.6801	-129.8061	1	131.6041	-80.51803	-2.177931E-007	8.365733E-005	9
	40	109	30.04808	26.42027	-157.8262	1	160.0224	-80.49675	-2.708501E-007	8.187358E-005	9
	41	112	23.91582	32.99396	-194.5661	1	197.3437	-80.3755	-2.298239E-007	8.438423E-005	9
	42	114	18.60119	42.58699	-244.6095	1	248.289	-80.12369	-2.357619E-007	8.967341E-005	9
	43	116	15.02404	53.53699	-297.1511	1	301.9354	-79.78673	-4.810947E-008	8.275913E-005	9
	44	118	12.01923	68.93554	-363.6024	1	370.0794	-79.26468	-6.291394E-008	8.343627E-005	9
	45	121	9.450605	91.21954	-449.7352	1	458.8929	-78.53427	-6.342467E-007	0.0006527	8
	46	123	7.512019	120.6983	-551.9166	1	564.9602	-77.66422	-6.207749E-007	0.0006534	8
	47	126	5.978954	161.4949	-674.2455	1	693.3163	-76.5303	-5.553001E-007	0.0006774	8
	48	129	4.734848	218.6781	-825.4415	1	853.9167	-75.16192	-6.196798E-007	0.0006612	8
	49	132	3.75601	297.5545	-1002.434	1	1045.664	-73.46743	-4.607839E-007	0.0006902	8
	50	136	3.004808	401.03	-1202.185	1	1267.31	-71.55212	-5.712191E-007	0.000694	8
	51	140	2.372217	551.0637	-1442.401	1	1544.083	-69.09084	-5.422755E-007	0.0006629	8
	52	144	1.878005	754.0932	-1712.674	1	1871.339	-66.23602	-4.658812E-007	0.000657	8
	53	149	1.512097	994.594	-1979.482	1	2215.303	-63.32267	-5.178791E-007	0.0007467	8
	54	154	1.201923	1326.631	-2268.05	1	2627.547	-59.67572	-4.56801E-007	0.000665	8
	55	160	0.956633	1727.315	-2544.443	1	3075.355	-55.82907	-6.949423E-007	2.114725E-005	8
