EXPLAIN
TAG	EISPOT
TITLE	LABEL	Potentiostatic EIS	Test Identifier
DATE	LABEL	2/25/2021	Date
TIME	LABEL	2:29:38	Time
NOTES	NOTES	1	Notes...
	
PSTAT	PSTAT	REF3000-16137	Potentiostat
VDC	POTEN	0.00000E+000	T	DC Voltage (V)
FREQINIT	QUANT	3.00000E+005	Initial Freq. (Hz)
FREQFINAL	QUANT	1.00000E+000	Final Freq. (Hz)
PTSPERDEC	QUANT	1.00000E+001	Points/decade
VAC	QUANT	5.00000E+001	AC Voltage (mV rms)
AREA	QUANT	1.00000E+000	Sample Area (cm^2)
SPEED	SELECTOR	2	Optimize for:
ZGUESS	QUANT	1.00000E+003	Estimated Z (ohms)
EOC	QUANT	0	Open Circuit (V)
SEQUENCER	TOGGLE	TRUE	Run as Sequence
PSTATMODEL	IQUANT	5	Pstat Model
PSTATSECTION	LABEL	REF3000-16137	Pstat Section
PSTATSERIALNO	LABEL	16137	Pstat Serial Number
CTRLMODE	IQUANT	1	Control Mode
IESTAB	IQUANT	0	I/E Stability
CASPEED	IQUANT	1	Control Amp Speed
CONVENTION	IQUANT	1	Current Convention
ICHRANGE	IQUANT	2	Ich Range
ICHRANGEMODE	TOGGLE	F	Ich Auto Range
ICHOFFSETENABLE	TOGGLE	T	Ich Offset Enable
ICHOFFSET	QUANT	0	Ich Offset (V)
ICHFILTER	IQUANT	3	Ich Filter
VCHRANGE	IQUANT	2	Vch Range
VCHRANGEMODE	TOGGLE	F	Vch Auto Range
VCHOFFSETENABLE	TOGGLE	T	Vch Offset Enable
VCHOFFSET	QUANT	0	Vch Offset (V)
VCHFILTER	IQUANT	3	Vch Filter
ACHRANGE	IQUANT	2	Ach Range
ACHOFFSETENABLE	TOGGLE	F	Ach Offset Enable
ACHOFFSET	QUANT	0	Ach Offset (V)
ACHFILTER	IQUANT	3	Ach Filter
IERANGELOWERLIMIT	IQUANT	2	I/E Range Lower Limit
IERANGEMODE	TOGGLE	F	I/E AutoRange
IERANGE	IQUANT	11	I/E Range
POSFEEDENABLE	TOGGLE	F	Positive Feedback IR Comp
POSFEEDRESISTANCE	QUANT	0	Positive Feedback Resistance (ohm)
ACHSELECT	IQUANT	0	Ach Select
CABLEID	IQUANT	13	Cable ID
DCCALDATE	LABEL	7/31/2020	DC Calibration Date
ACCALDATE	LABEL	7/31/2020	AC Calibration Date
THERMOSELECT	IQUANT	1	Thermo Select
FRAMEWORKVERSION	QUANT	6.33	Framework Version
INSTRUMENTVERSION	LABEL	3.50	Instrument Version
COMPLIANCEVOLTAGE	IQUANT	0	Compliance Voltage
ZCURVE	TABLE
	Pt	Time	Freq	Zreal	Zimag	Zsig	Zmod	Zphz	Idc	Vdc	IERange
	#	s	Hz	ohm	ohm	V	ohm	°	A	V	#
	0	15	300046.9	237.5381	-4168.165	1	4174.928	-86.73832	-2.26996E-005	0.0014175	9
	1	35	238359.4	434.0074	-5145.381	1	5163.653	-85.17857	-6.022923E-005	0.0003697	9
	2	49	189328.1	403.1287	-6315.77	1	6328.623	-86.34782	-9.241464E-005	0.0022468	9
	3	60	150421.9	1321.561	-7305.047	1	7423.627	-79.7455	-1.89618E-005	0.001636	9
	4	68	119484.4	1357.497	-9690.07	1	9784.7	-82.02525	-6.261683E-006	-0.0142789	8
	5	75	94921.88	2040.066	-11954.14	1	12126.96	-80.31533	-2.43388E-005	0.0110453	8
	6	83	75421.88	2982.657	-14832.36	1	15129.28	-78.62996	2.738728E-005	-0.0074178	8
	7	92	59859.37	3489.862	-18427.68	1	18755.23	-79.27624	-2.619986E-005	0.0076994	8
	8	100	47578.12	7657.816	-23564.51	1	24777.58	-71.99727	6.464944E-006	-0.0101809	7
	9	108	37828.12	9790.78	-28730.18	1	30352.63	-71.18171	-6.57322E-006	0.0120925	7
	10	115	30046.88	9104.71	-34952.21	1	36118.59	-75.39948	2.610326E-005	-0.0089408	8
	11	124	23859.38	12366.09	-41715.46	1	43509.77	-73.48811	-2.060123E-005	0.0030303	8
	12	130	18984.38	17346.1	-51291.45	1	54145.18	-71.31513	-1.930525E-005	0.011277	8
	13	137	15046.87	28625.15	-66246.59	1	72166.54	-66.63083	-1.695263E-006	0.0076714	8
	14	143	11953.13	37239.87	-72749.36	1	81726.84	-62.89243	2.837732E-006	0.0078427	7
	15	148	9515.62	50118.33	-84162.9	1	97955.3	-59.22654	-7.220542E-006	0.0189396	7
	16	155	7546.875	62278.27	-96299.2	1	114682.7	-57.10859	6.499041E-006	-0.010179	7
	17	161	5928.309	87403.57	-105217.7	1	136785.1	-50.28385	-5.256113E-006	0.0039697	7
	18	168	4733.456	100006.7	-109465.5	1	148270.1	-47.58547	-3.528399E-006	0.024598	7
	19	173	3796.875	128641.1	-123344.7	1	178220.2	-43.79589	-5.276685E-006	0.0040605	7
	20	178	2987.132	140726.3	-134272.8	1	194507.3	-43.65566	-6.32644E-006	0.0253885	7
	21	185	2390.625	188596.2	-115336.7	1	221068	-31.44802	2.785134E-006	0.007825	7
	22	191	1884.191	211782.4	-122631.7	1	244725	-30.0728	5.94983E-007	0.0154417	7
	23	198	1516.544	251501	-103141.2	1	271828.8	-22.29866	-7.278351E-007	0.0228871	6
	24	203	1193.986	275906.8	-95899.5	1	292098.1	-19.1664	-2.841014E-007	-0.0066305	6
	25	209	946.5144	337111.8	-6234.044	1	337169.5	-1.059422	-3.577736E-006	0.0243972	7
	26	214	751.7689	338147	-60720.52	1	343555.5	-10.18002	-6.627436E-006	0.0120838	7
	27	219	597.4265	217809.9	-52523.46	1	224053.2	-13.55767	8.906611E-006	0.0040847	8
	28	225	477.4305	346197.1	-62917.26	1	351867.9	-10.30041	-6.65958E-008	0.0006784	7
	29	229	376.6741	357019.9	-48595.44	1	360312	-7.751128	-7.525082E-009	0.0006404	6
	30	231	298.2954	364033.6	-42382.94	1	366492.6	-6.640814	-7.307273E-009	0.0006321	6
	31	234	237.7717	380637.2	-8240.535	1	380726.4	-1.240221	-1.203525E-009	0.0007129	5
	32	236	189.0121	385080.3	-7554.12	1	385154.4	-1.123827	-1.349319E-009	0.0007021	5
	33	239	150.2404	389725.1	-6302.451	1	389776.1	-0.9264796	-1.279732E-009	0.0006175	5
	34	241	119.1737	393779.8	-6365.832	1	393831.2	-0.9261611	-1.46639E-009	0.0007051	5
	35	244	95.0169	400645.9	-4492.563	1	400671.1	-0.642448	-1.28602E-009	0.0006356	5
	36	247	75.60484	406454.2	-3489.647	1	406469.1	-0.4919058	-1.069229E-009	0.0006185	5
	37	249	54.50582	407940.8	-5432.837	1	407977	-0.7630033	-1.307194E-009	0.0007014	5
	38	252	45.95588	419934.7	-3099.427	1	419946.2	-0.4228772	-1.23734E-009	0.0007098	5
	39	254	37.20238	424777.5	-3946.842	1	424795.8	-0.5323514	-1.112132E-009	0.0006462	5
	40	256	30.04808	431185.7	-3201.456	1	431197.6	-0.4254004	-1.048947E-009	0.0006125	5
	41	259	23.91582	437900.7	-3054.566	1	437911.4	-0.3996588	-1.41014E-009	0.0006486	5
	42	262	18.60119	445228.7	-900.7019	1	445229.6	-0.1159098	-9.520417E-010	0.0007003	5
	43	264	15.02404	450708.8	-3067.072	1	450719.3	-0.3898915	-9.152079E-010	0.0006575	5
	44	267	12.01923	457608.4	-3227.319	1	457619.8	-0.4040762	-5.045057E-010	0.0006533	5
	45	269	9.450605	464352.8	-3548.306	1	464366.3	-0.4378116	-5.713492E-010	0.0006328	5
	46	272	7.512019	472558.2	-4036.234	1	472575.4	-0.4893653	-4.019712E-010	0.0006423	5
	47	275	5.978954	482801.1	-4494.412	1	482822	-0.533353	-6.462972E-010	0.0006841	5
	48	279	4.734848	494063.5	-5468.074	1	494093.7	-0.6340982	-6.213288E-010	0.0007093	5
	49	283	3.75601	507571.9	-6454.326	1	507612.9	-0.7285386	-1.146349E-010	0.0007159	5
	50	288	3.004808	525921.5	-7848.741	1	525980.1	-0.8550066	2.778227E-010	0.0005952	5
	51	295	2.372217	543144.4	-8921.23	1	543217.6	-0.9410074	-1.114197E-009	0.0005966	5
	52	299	1.878005	557945.2	-11260.72	1	558058.8	-1.156214	2.305306E-010	0.0006728	5
	53	304	1.512097	575512.3	-13876.06	1	575679.6	-1.381179	7.440367E-010	0.0005777	5
	54	309	1.201923	596572.6	-16610.94	1	596803.8	-1.594929	-7.853458E-010	0.0006883	5
	55	315	0.956633	620610.1	-20970.85	1	620964.3	-1.935328	-2.586658E-009	2.063496E-005	5
