EXPLAIN
TAG	EISPOT
TITLE	LABEL	Potentiostatic EIS	Test Identifier
DATE	LABEL	2/25/2021	Date
TIME	LABEL	1:33:29	Time
NOTES	NOTES	1	Notes...
	
PSTAT	PSTAT	REF3000-16137	Potentiostat
VDC	POTEN	0.00000E+000	T	DC Voltage (V)
FREQINIT	QUANT	3.00000E+005	Initial Freq. (Hz)
FREQFINAL	QUANT	1.00000E+000	Final Freq. (Hz)
PTSPERDEC	QUANT	1.00000E+001	Points/decade
VAC	QUANT	5.00000E+001	AC Voltage (mV rms)
AREA	QUANT	1.00000E+000	Sample Area (cm^2)
SPEED	SELECTOR	2	Optimize for:
ZGUESS	QUANT	1.00000E+003	Estimated Z (ohms)
EOC	QUANT	0	Open Circuit (V)
SEQUENCER	TOGGLE	TRUE	Run as Sequence
PSTATMODEL	IQUANT	5	Pstat Model
PSTATSECTION	LABEL	REF3000-16137	Pstat Section
PSTATSERIALNO	LABEL	16137	Pstat Serial Number
CTRLMODE	IQUANT	1	Control Mode
IESTAB	IQUANT	0	I/E Stability
CASPEED	IQUANT	1	Control Amp Speed
CONVENTION	IQUANT	1	Current Convention
ICHRANGE	IQUANT	2	Ich Range
ICHRANGEMODE	TOGGLE	F	Ich Auto Range
ICHOFFSETENABLE	TOGGLE	T	Ich Offset Enable
ICHOFFSET	QUANT	0	Ich Offset (V)
ICHFILTER	IQUANT	3	Ich Filter
VCHRANGE	IQUANT	2	Vch Range
VCHRANGEMODE	TOGGLE	F	Vch Auto Range
VCHOFFSETENABLE	TOGGLE	T	Vch Offset Enable
VCHOFFSET	QUANT	0	Vch Offset (V)
VCHFILTER	IQUANT	3	Vch Filter
ACHRANGE	IQUANT	2	Ach Range
ACHOFFSETENABLE	TOGGLE	F	Ach Offset Enable
ACHOFFSET	QUANT	0	Ach Offset (V)
ACHFILTER	IQUANT	3	Ach Filter
IERANGELOWERLIMIT	IQUANT	2	I/E Range Lower Limit
IERANGEMODE	TOGGLE	F	I/E AutoRange
IERANGE	IQUANT	11	I/E Range
POSFEEDENABLE	TOGGLE	F	Positive Feedback IR Comp
POSFEEDRESISTANCE	QUANT	0	Positive Feedback Resistance (ohm)
ACHSELECT	IQUANT	0	Ach Select
CABLEID	IQUANT	13	Cable ID
DCCALDATE	LABEL	7/31/2020	DC Calibration Date
ACCALDATE	LABEL	7/31/2020	AC Calibration Date
THERMOSELECT	IQUANT	1	Thermo Select
FRAMEWORKVERSION	QUANT	6.33	Framework Version
INSTRUMENTVERSION	LABEL	3.50	Instrument Version
COMPLIANCEVOLTAGE	IQUANT	0	Compliance Voltage
ZCURVE	TABLE
	Pt	Time	Freq	Zreal	Zimag	Zsig	Zmod	Zphz	Idc	Vdc	IERange
	#	s	Hz	ohm	ohm	V	ohm	°	A	V	#
	0	8	300046.9	18.42738	1.992978	1	18.53484	6.17272	-8.217262E-006	0.0001808	10
	1	12	238359.4	18.43395	1.566834	1	18.50042	4.858303	3.28416E-005	0.0003588	10
	2	15	189328.1	18.48299	1.234051	1	18.52415	3.819789	-3.050535E-005	0.0003929	10
	3	17	150421.9	18.53026	0.9406114	1	18.55412	2.905888	1.272026E-005	0.0005349	10
	4	20	119484.4	18.58111	0.7212368	1	18.59511	2.222853	2.699868E-005	0.0006226	10
	5	22	94921.88	18.62984	0.5471648	1	18.63788	1.682313	-2.909011E-005	0.0006453	10
	6	25	75421.88	18.68826	0.3755126	1	18.69203	1.151118	2.494964E-005	0.0006669	10
	7	27	59859.37	18.74593	0.2288169	1	18.74733	0.6993298	3.19088E-006	0.0006439	10
	8	30	47578.12	18.80672	0.0978977	1	18.80697	0.2982485	2.255455E-005	0.0006879	10
	9	32	37828.12	18.86835	-0.0265151	1	18.86837	-0.0805159	-1.207429E-005	0.0007273	10
	10	35	30046.88	18.92994	-0.1489916	1	18.93052	-0.4509477	-7.129758E-006	0.0006504	10
	11	38	23859.38	18.98944	-0.2771612	1	18.99147	-0.8362036	2.125817E-005	0.0006429	10
	12	40	18984.38	19.05527	-0.4177337	1	19.05985	-1.255849	2.125269E-005	0.0007018	10
	13	42	15046.87	19.11686	-0.5749847	1	19.12551	-1.722786	-1.92198E-005	0.0006618	10
	14	44	11953.13	19.18616	-0.7640922	1	19.20136	-2.28061	-2.757537E-005	0.0006675	10
	15	47	9515.62	19.25961	-0.978141	1	19.28443	-2.907393	-1.324215E-005	0.0007375	10
	16	49	7546.875	19.33947	-1.244661	1	19.37948	-3.682396	-3.007044E-006	0.0006448	10
	17	51	5928.309	19.42011	-1.587069	1	19.48486	-4.671999	-1.875499E-005	0.0006706	10
	18	54	4733.456	19.50846	-1.978171	1	19.60849	-5.790041	2.099179E-005	0.0006759	10
	19	56	3796.875	19.60636	-2.44869	1	19.75868	-7.11896	1.911851E-005	0.0006479	10
	20	58	2987.132	19.72082	-3.07418	1	19.95899	-8.860243	-2.311165E-005	0.0007233	10
	21	61	2390.625	19.85279	-3.79919	1	20.21304	-10.8336	-2.436702E-005	0.0007423	10
	22	63	1884.191	20.00635	-4.762688	1	20.56544	-13.39052	2.355098E-005	0.0006721	10
	23	65	1516.544	20.17536	-5.840802	1	21.00381	-16.14582	2.457199E-005	0.0006607	10
	24	68	1193.986	20.39799	-7.311697	1	21.66885	-19.72031	-1.246586E-005	0.0006688	10
	25	70	946.5144	20.66402	-9.080986	1	22.57135	-23.72351	5.081414E-006	0.0006331	10
	26	72	751.7689	20.97923	-11.27459	1	23.8169	-28.25433	2.039259E-005	0.0006826	10
	27	75	597.4265	21.37867	-13.94975	1	25.5273	-33.12476	-1.724339E-005	0.0006791	10
	28	77	477.4305	21.85038	-17.1704	1	27.7896	-38.16087	-2.394853E-006	0.0006806	10
	29	79	376.6741	22.45922	-21.36327	1	30.99686	-43.56739	-2.086989E-006	0.0006781	10
	30	82	298.2954	23.19145	-26.47214	1	35.194	-48.77937	-2.207033E-006	0.0006847	10
	31	84	237.7717	24.0294	-32.55711	1	40.46452	-53.57011	1.294412E-006	8.187236E-005	9
	32	86	189.0121	25.08873	-40.18858	1	47.37685	-58.0245	1.173594E-006	8.410695E-005	9
	33	89	150.2404	26.37635	-49.61489	1	56.1903	-62.00392	1.290546E-006	7.693905E-005	9
	34	91	119.1737	27.96513	-61.38356	1	67.45361	-65.50693	1.299855E-006	8.416537E-005	9
	35	94	95.0169	29.8713	-75.60142	1	81.2888	-68.44025	1.190295E-006	8.32226E-005	9
	36	96	75.60484	32.24969	-93.30096	1	98.7173	-70.93217	1.102407E-006	8.565759E-005	9
	37	99	54.50582	36.65304	-126.0897	1	131.309	-73.79137	1.15514E-006	7.739766E-005	9
	38	101	45.95588	39.59822	-147.5463	1	152.7676	-74.97707	1.259977E-006	8.559499E-005	9
	39	104	37.20238	43.98257	-179.2027	1	184.5212	-76.2102	1.208652E-006	8.065959E-005	9
	40	106	30.04808	49.41039	-218.0521	1	223.5802	-77.23244	1.241985E-006	8.30586E-005	9
	41	108	23.91582	56.61819	-268.8953	1	274.7914	-78.10957	1.220214E-006	8.669657E-005	9
	42	111	18.60119	66.67933	-338.5887	1	345.0919	-78.85913	1.27134E-006	8.697769E-005	9
	43	113	15.02404	77.3847	-411.4945	1	418.7077	-79.34948	1.355929E-006	9.357943E-005	9
	44	115	12.01923	90.75469	-502.4847	1	510.6146	-79.76207	4.65402E-007	0.0006605	8
	45	118	9.450605	109.1341	-625.4985	1	634.9477	-80.10292	5.212856E-007	0.0006745	8
	46	120	7.512019	130.78	-771.2098	1	782.2198	-80.37547	5.427651E-007	0.0006703	8
	47	123	5.978954	157.224	-948.6297	1	961.57	-80.58945	5.211371E-007	0.0006642	8
	48	126	4.734848	190.8449	-1172.703	1	1188.131	-80.75676	5.139433E-007	0.0006279	8
	49	129	3.75601	232.2158	-1448.077	1	1466.578	-80.88953	5.456084E-007	0.0006885	8
	50	133	3.004808	281.5025	-1773.072	1	1795.28	-80.97871	5.378035E-007	0.0006468	8
	51	136	2.372217	349.9915	-2199.03	1	2226.708	-80.95681	5.28171E-007	0.000606	8
	52	141	1.878005	429.4561	-2725.514	1	2759.141	-81.04559	5.621605E-007	0.0006546	8
	53	145	1.512097	520.2905	-3315.375	1	3355.952	-81.08117	5.358804E-007	0.0007005	8
	54	151	1.201923	653.316	-4099.352	1	4151.085	-80.94489	5.681623E-007	0.0006743	8
	55	157	0.956633	819.7881	-5055.739	1	5121.772	-80.78965	2.022254E-008	-1.110833E-005	7
