EXPLAIN
TAG	EISPOT
TITLE	LABEL	Potentiostatic EIS	Test Identifier
DATE	LABEL	2/25/2021	Date
TIME	LABEL	1:25:10	Time
NOTES	NOTES	1	Notes...
	
PSTAT	PSTAT	REF3000-16137	Potentiostat
VDC	POTEN	0.00000E+000	T	DC Voltage (V)
FREQINIT	QUANT	3.00000E+005	Initial Freq. (Hz)
FREQFINAL	QUANT	1.00000E+000	Final Freq. (Hz)
PTSPERDEC	QUANT	1.00000E+001	Points/decade
VAC	QUANT	5.00000E+001	AC Voltage (mV rms)
AREA	QUANT	1.00000E+000	Sample Area (cm^2)
SPEED	SELECTOR	2	Optimize for:
ZGUESS	QUANT	1.00000E+003	Estimated Z (ohms)
EOC	QUANT	0	Open Circuit (V)
SEQUENCER	TOGGLE	TRUE	Run as Sequence
PSTATMODEL	IQUANT	5	Pstat Model
PSTATSECTION	LABEL	REF3000-16137	Pstat Section
PSTATSERIALNO	LABEL	16137	Pstat Serial Number
CTRLMODE	IQUANT	1	Control Mode
IESTAB	IQUANT	0	I/E Stability
CASPEED	IQUANT	1	Control Amp Speed
CONVENTION	IQUANT	1	Current Convention
ICHRANGE	IQUANT	2	Ich Range
ICHRANGEMODE	TOGGLE	F	Ich Auto Range
ICHOFFSETENABLE	TOGGLE	T	Ich Offset Enable
ICHOFFSET	QUANT	0	Ich Offset (V)
ICHFILTER	IQUANT	3	Ich Filter
VCHRANGE	IQUANT	2	Vch Range
VCHRANGEMODE	TOGGLE	F	Vch Auto Range
VCHOFFSETENABLE	TOGGLE	T	Vch Offset Enable
VCHOFFSET	QUANT	0	Vch Offset (V)
VCHFILTER	IQUANT	3	Vch Filter
ACHRANGE	IQUANT	2	Ach Range
ACHOFFSETENABLE	TOGGLE	F	Ach Offset Enable
ACHOFFSET	QUANT	0	Ach Offset (V)
ACHFILTER	IQUANT	3	Ach Filter
IERANGELOWERLIMIT	IQUANT	2	I/E Range Lower Limit
IERANGEMODE	TOGGLE	F	I/E AutoRange
IERANGE	IQUANT	11	I/E Range
POSFEEDENABLE	TOGGLE	F	Positive Feedback IR Comp
POSFEEDRESISTANCE	QUANT	0	Positive Feedback Resistance (ohm)
ACHSELECT	IQUANT	0	Ach Select
CABLEID	IQUANT	13	Cable ID
DCCALDATE	LABEL	7/31/2020	DC Calibration Date
ACCALDATE	LABEL	7/31/2020	AC Calibration Date
THERMOSELECT	IQUANT	1	Thermo Select
FRAMEWORKVERSION	QUANT	6.33	Framework Version
INSTRUMENTVERSION	LABEL	3.50	Instrument Version
COMPLIANCEVOLTAGE	IQUANT	0	Compliance Voltage
ZCURVE	TABLE
	Pt	Time	Freq	Zreal	Zimag	Zsig	Zmod	Zphz	Idc	Vdc	IERange
	#	s	Hz	ohm	ohm	V	ohm	°	A	V	#
	0	8	300046.9	11.09558	2.11706	1	11.29575	10.80231	8.647608E-006	0.0001484	10
	1	11	238359.4	11.08462	1.686595	1	11.2122	8.651557	7.776733E-005	3.273572E-005	10
	2	15	189328.1	11.09397	1.328126	1	11.17319	6.826734	5.738194E-005	0.0003011	10
	3	17	150421.9	11.12071	1.024441	1	11.16779	5.263241	9.556248E-006	0.0004569	10
	4	20	119484.4	11.1304	0.7912946	1	11.1585	4.066492	1.686947E-005	0.0005319	10
	5	22	94921.88	11.15276	0.6139878	1	11.16965	3.151097	2.511603E-005	0.000628	10
	6	25	75421.88	11.1735	0.4313669	1	11.18182	2.210878	2.022857E-005	0.0005976	10
	7	27	59859.37	11.20423	0.2742367	1	11.20759	1.402101	-1.713952E-005	0.0006538	10
	8	30	47578.12	11.2356	0.1393745	1	11.23647	0.7107016	2.464963E-005	0.0006638	10
	9	32	37828.12	11.26526	0.0153269	1	11.26527	0.0779533	2.188384E-005	0.0006229	10
	10	35	30046.88	11.29891	-0.1066182	1	11.29941	-0.5406354	-2.921436E-005	0.0006595	10
	11	37	23859.38	11.33312	-0.232248	1	11.3355	-1.17399	2.451877E-005	0.0006776	10
	12	42	18984.38	11.38626	-0.3659967	1	11.39215	-1.841064	1.332987E-005	0.0006245	10
	13	44	15046.87	11.42338	-0.5184031	1	11.43514	-2.59835	2.095344E-005	0.000648	10
	14	46	11953.13	11.46221	-0.6931288	1	11.48315	-3.460506	-1.862225E-005	0.0007323	10
	15	48	9515.62	11.50541	-0.8994292	1	11.54052	-4.469974	8.296665E-006	0.0007105	10
	16	51	7546.875	11.55428	-1.150857	1	11.61145	-5.688151	1.776308E-005	0.0007081	10
	17	53	5928.309	11.6071	-1.468262	1	11.6996	-7.209446	2.261425E-005	0.0006678	10
	18	55	4733.456	11.66694	-1.834254	1	11.81025	-8.934795	1.77865E-005	0.0006339	10
	19	58	3796.875	11.73563	-2.273719	1	11.95387	-10.96491	2.032537E-005	0.0007	10
	20	60	2987.132	11.81886	-2.86233	1	12.16053	-13.61395	2.384697E-005	0.0006625	10
	21	62	2390.625	11.91401	-3.540666	1	12.42899	-16.55117	-1.339377E-005	0.0006588	10
	22	65	1884.191	12.03483	-4.433703	1	12.82556	-20.22409	-2.270315E-005	0.0007286	10
	23	67	1516.544	12.17403	-5.438331	1	13.33351	-24.07108	-2.437332E-005	0.0007272	10
	24	69	1193.986	12.3584	-6.807203	1	14.10915	-28.84666	-2.849852E-005	0.000701	10
	25	72	946.5144	12.5818	-8.451096	1	15.15661	-33.88894	2.25924E-005	0.0006517	10
	26	74	751.7689	12.85169	-10.47775	1	16.58159	-39.18975	-2.166484E-005	0.0007121	10
	27	76	597.4265	13.18727	-12.96433	1	18.49264	-44.51157	1.937706E-005	0.0006755	10
	28	79	477.4305	13.58375	-15.94537	1	20.94691	-49.57256	-2.550392E-006	0.0006835	10
	29	81	376.6741	14.09771	-19.84777	1	24.34501	-54.61413	-2.803003E-006	0.0006778	10
	30	83	298.2954	14.72182	-24.62151	1	28.68712	-59.12373	-3.453368E-006	0.0006793	10
	31	86	237.7717	15.46714	-30.35705	1	34.07026	-63.00083	-2.574395E-006	0.0006795	10
	32	88	189.0121	16.39824	-37.52698	1	40.95335	-66.39601	-2.577468E-006	0.0006801	10
	33	90	150.2404	17.53419	-46.33626	1	49.54288	-69.27277	1.240616E-006	8.257033E-005	9
	34	93	119.1737	18.9911	-57.39216	1	60.45264	-71.69059	1.280129E-006	8.601118E-005	9
	35	95	95.0169	20.77748	-70.73457	1	73.72302	-73.63044	1.242302E-006	8.217298E-005	9
	36	98	75.60484	23.03173	-87.32478	1	90.311	-75.22482	1.177248E-006	8.964209E-005	9
	37	100	54.50582	27.27855	-117.9969	1	121.109	-76.98302	1.196055E-006	7.469272E-005	9
	38	103	45.95588	30.12297	-138.0247	1	141.2735	-77.68862	1.163343E-006	8.603243E-005	9
	39	105	37.20238	34.36052	-167.5139	1	171.0016	-78.40825	1.164417E-006	9.049325E-005	9
	40	107	30.04808	39.64563	-203.6808	1	207.5034	-78.98534	1.205202E-006	8.43998E-005	9
	41	110	23.91582	46.59426	-250.9714	1	255.26	-79.48246	1.152252E-006	8.077481E-005	9
	42	112	18.60119	56.12489	-315.5161	1	320.469	-79.91357	1.275481E-006	8.201726E-005	9
	43	114	15.02404	66.14212	-383.2179	1	388.884	-80.20742	1.159695E-006	7.723834E-005	9
	44	117	12.01923	78.62965	-467.5479	1	474.1136	-80.45364	5.621254E-007	0.0006707	8
	45	119	9.450605	95.7578	-581.9183	1	589.7444	-80.65541	5.154757E-007	0.0006652	8
	46	122	7.512019	116.0756	-717.1989	1	726.5314	-80.80664	5.167448E-007	0.0006629	8
	47	125	5.978954	140.7521	-882.5686	1	893.7217	-80.93877	5.330559E-007	0.0006595	8
	48	128	4.734848	172.7902	-1092.746	1	1106.323	-81.01452	5.880913E-007	0.0006566	8
	49	131	3.75601	212.2869	-1349.215	1	1365.814	-81.05833	5.318973E-007	0.0006508	8
	50	134	3.004808	260.5856	-1653.322	1	1673.731	-81.04311	5.900221E-007	0.0006354	8
	51	138	2.372217	326.5968	-2048.625	1	2074.496	-80.94199	5.834606E-007	0.0006337	8
	52	142	1.878005	414.9658	-2538.098	1	2571.797	-80.71459	5.560174E-007	0.0006665	8
	53	147	1.512097	518.0885	-3091.959	1	3135.064	-80.48788	5.664687E-007	0.0005548	8
	54	152	1.201923	658.1566	-3810.036	1	3866.464	-80.19928	5.6543E-007	0.0006831	8
	55	158	0.956633	840.827	-4693.845	1	4768.561	-79.84409	-4.118322E-009	-9.669766E-006	7
