EXPLAIN
TAG	EISPOT
TITLE	LABEL	Potentiostatic EIS	Test Identifier
DATE	LABEL	2/25/2021	Date
TIME	LABEL	1:00:03	Time
NOTES	NOTES	1	Notes...
	
PSTAT	PSTAT	REF3000-16137	Potentiostat
VDC	POTEN	0.00000E+000	T	DC Voltage (V)
FREQINIT	QUANT	3.00000E+005	Initial Freq. (Hz)
FREQFINAL	QUANT	1.00000E+000	Final Freq. (Hz)
PTSPERDEC	QUANT	1.00000E+001	Points/decade
VAC	QUANT	5.00000E+001	AC Voltage (mV rms)
AREA	QUANT	1.00000E+000	Sample Area (cm^2)
SPEED	SELECTOR	2	Optimize for:
ZGUESS	QUANT	1.00000E+003	Estimated Z (ohms)
EOC	QUANT	0	Open Circuit (V)
SEQUENCER	TOGGLE	TRUE	Run as Sequence
PSTATMODEL	IQUANT	5	Pstat Model
PSTATSECTION	LABEL	REF3000-16137	Pstat Section
PSTATSERIALNO	LABEL	16137	Pstat Serial Number
CTRLMODE	IQUANT	1	Control Mode
IESTAB	IQUANT	0	I/E Stability
CASPEED	IQUANT	1	Control Amp Speed
CONVENTION	IQUANT	1	Current Convention
ICHRANGE	IQUANT	2	Ich Range
ICHRANGEMODE	TOGGLE	F	Ich Auto Range
ICHOFFSETENABLE	TOGGLE	T	Ich Offset Enable
ICHOFFSET	QUANT	0	Ich Offset (V)
ICHFILTER	IQUANT	3	Ich Filter
VCHRANGE	IQUANT	2	Vch Range
VCHRANGEMODE	TOGGLE	F	Vch Auto Range
VCHOFFSETENABLE	TOGGLE	T	Vch Offset Enable
VCHOFFSET	QUANT	0	Vch Offset (V)
VCHFILTER	IQUANT	3	Vch Filter
ACHRANGE	IQUANT	2	Ach Range
ACHOFFSETENABLE	TOGGLE	F	Ach Offset Enable
ACHOFFSET	QUANT	0	Ach Offset (V)
ACHFILTER	IQUANT	3	Ach Filter
IERANGELOWERLIMIT	IQUANT	2	I/E Range Lower Limit
IERANGEMODE	TOGGLE	F	I/E AutoRange
IERANGE	IQUANT	11	I/E Range
POSFEEDENABLE	TOGGLE	F	Positive Feedback IR Comp
POSFEEDRESISTANCE	QUANT	0	Positive Feedback Resistance (ohm)
ACHSELECT	IQUANT	0	Ach Select
CABLEID	IQUANT	13	Cable ID
DCCALDATE	LABEL	7/31/2020	DC Calibration Date
ACCALDATE	LABEL	7/31/2020	AC Calibration Date
THERMOSELECT	IQUANT	1	Thermo Select
FRAMEWORKVERSION	QUANT	6.33	Framework Version
INSTRUMENTVERSION	LABEL	3.50	Instrument Version
COMPLIANCEVOLTAGE	IQUANT	0	Compliance Voltage
ZCURVE	TABLE
	Pt	Time	Freq	Zreal	Zimag	Zsig	Zmod	Zphz	Idc	Vdc	IERange
	#	s	Hz	ohm	ohm	V	ohm	°	A	V	#
	0	11	300046.9	4.131805	2.225324	1	4.692961	28.3062	1.770032E-005	2.263536E-005	10
	1	14	238359.4	4.093813	1.769719	1	4.459956	23.3784	-3.589232E-006	-0.0003437	10
	2	17	189328.1	4.075989	1.396722	1	4.308656	18.91509	-8.582226E-005	-5.836772E-006	10
	3	19	150421.9	4.058127	1.088044	1	4.201457	15.00885	-0.000108	0.0001979	10
	4	22	119484.4	4.059265	0.8426023	1	4.145794	11.72665	-1.496067E-005	0.0003653	10
	5	24	94921.88	4.060881	0.6513149	1	4.112781	9.111929	2.753085E-005	0.0004463	10
	6	27	75421.88	4.063674	0.4765051	1	4.091516	6.687943	3.279064E-005	0.0005175	10
	7	30	59859.37	4.067131	0.3247272	1	4.080073	4.564917	2.438704E-005	0.0005382	10
	8	32	47578.12	4.073003	0.1934558	1	4.077595	2.719339	2.061347E-005	0.0006058	10
	9	35	37828.12	4.079681	0.0725747	1	4.080327	1.019145	-2.546947E-005	0.0006195	10
	10	37	30046.88	4.089968	-0.0433405	1	4.090198	-0.607128	-2.204907E-005	0.0006808	10
	11	40	23859.38	4.099685	-0.1601739	1	4.102812	-2.237397	1.440818E-005	0.0006381	10
	12	42	18984.38	4.111765	-0.2820786	1	4.121429	-3.924502	1.08319E-005	0.0006409	10
	13	44	15046.87	4.125166	-0.4180352	1	4.146293	-5.786474	-2.902035E-005	0.0006707	10
	14	47	11953.13	4.140656	-0.5719026	1	4.179964	-7.863873	1.160367E-005	0.0006638	10
	15	49	9515.62	4.160621	-0.7506039	1	4.227786	-10.22654	-2.277081E-005	0.0007106	10
	16	51	7546.875	4.183497	-0.968046	1	4.294038	-13.02873	-2.350523E-005	0.0007169	10
	17	53	5928.309	4.211858	-1.24422	1	4.391792	-16.45761	-1.484499E-005	0.000698	10
	18	56	4733.456	4.24507	-1.558863	1	4.522242	-20.16411	3.624637E-006	0.0006904	10
	19	58	3796.875	4.285381	-1.935986	1	4.702396	-24.3118	-3.599874E-005	0.0006782	10
	20	60	2987.132	4.340166	-2.440331	1	4.979182	-29.3476	-6.421445E-006	0.0006877	10
	21	63	2390.625	4.403598	-3.019093	1	5.339157	-34.43441	-2.708462E-005	0.0006832	10
	22	65	1884.191	4.489484	-3.783593	1	5.871205	-40.12312	4.170653E-006	0.0006868	10
	23	67	1516.544	4.587819	-4.642472	1	6.526916	-45.33925	1.644853E-005	0.0006541	10
	24	70	1193.986	4.721293	-5.814135	1	7.489645	-50.92212	-2.158007E-005	0.0006993	10
	25	72	946.5144	4.888285	-7.224323	1	8.722739	-55.91605	-2.28655E-005	0.0007107	10
	26	75	751.7689	5.095337	-8.964376	1	10.31128	-60.38617	-2.871632E-005	0.0006946	10
	27	77	597.4265	5.358452	-11.10408	1	12.32938	-64.23962	-1.16767E-005	0.0006723	10
	28	79	477.4305	5.679971	-13.68061	1	14.81287	-67.45255	-2.40796E-006	0.000684	10
	29	81	376.6741	6.11459	-17.04816	1	18.11155	-70.26884	-2.806405E-006	0.0006835	10
	30	84	298.2954	6.658334	-21.1605	1	22.18333	-72.53337	-2.64329E-006	0.0006839	10
	31	86	237.7717	7.328965	-26.08977	1	27.09963	-74.30923	-3.077849E-006	0.0006879	10
	32	89	189.0121	8.183707	-32.2396	1	33.26206	-75.75686	-2.801349E-006	0.000684	10
	33	91	150.2404	9.257448	-39.80524	1	40.86757	-76.90754	-3.014636E-006	0.0006834	10
	34	93	119.1737	10.60385	-49.16472	1	50.29524	-77.82889	9.641391E-007	8.376493E-005	9
	35	96	95.0169	12.26028	-60.4674	1	61.69782	-78.53818	8.458465E-007	8.653187E-005	9
	36	98	75.60484	14.3369	-74.4819	1	75.8492	-79.10449	7.227541E-007	8.947777E-005	9
	37	101	54.50582	18.19673	-100.3438	1	101.9804	-79.72147	6.544978E-007	8.901876E-005	9
	38	103	45.95588	20.73925	-117.2164	1	119.037	-79.96642	9.410959E-007	9.0173E-005	9
	39	106	37.20238	24.5139	-142.0725	1	144.1719	-80.2103	8.659072E-007	8.807169E-005	9
	40	108	30.04808	29.15683	-172.5947	1	175.0401	-80.41142	8.675997E-007	9.050643E-005	9
	41	111	23.91582	35.33501	-212.296	1	215.2165	-80.55019	8.539939E-007	8.722788E-005	9
	42	113	18.60119	44.13009	-267.1416	1	270.7621	-80.61981	1.036401E-006	8.635288E-005	9
	43	115	15.02404	53.71311	-324.7021	1	329.1148	-80.60704	9.284772E-007	9.140481E-005	9
	44	117	12.01923	66.41547	-397.911	1	403.4156	-80.52409	9.637607E-007	8.977739E-005	9
	45	120	9.450605	83.89201	-493.2673	1	500.3504	-80.34782	3.729565E-007	0.0006521	8
	46	122	7.512019	106.5115	-607.8478	1	617.1091	-80.06112	3.690027E-007	0.0006694	8
	47	125	5.978954	135.9334	-746.8971	1	759.1661	-79.68521	3.895764E-007	0.0006626	8
	48	128	4.734848	176.6564	-922.3358	1	939.1011	-79.15736	3.425824E-007	0.0006626	8
	49	131	3.75601	230.7471	-1134.552	1	1157.779	-78.50388	4.024334E-007	0.0006685	8
	50	135	3.004808	301.4708	-1382.703	1	1415.186	-77.70029	3.547912E-007	0.0007037	8
	51	139	2.372217	402.7867	-1702.073	1	1749.083	-76.68618	3.412474E-007	0.0007267	8
	52	143	1.878005	542.7252	-2083.323	1	2152.855	-75.39845	3.548674E-007	0.0006351	8
	53	147	1.512097	718.6115	-2503.303	1	2604.406	-73.98306	3.666627E-007	0.0007553	8
	54	153	1.201923	968.207	-3035.324	1	3186.003	-72.30837	3.63375E-007	0.0006316	8
	55	159	0.956633	1307.403	-3649.062	1	3876.204	-70.28817	2.955306E-007	2.044643E-005	8
