EXPLAIN
TAG	EISPOT
TITLE	LABEL	Potentiostatic EIS	Test Identifier
DATE	LABEL	2/25/2021	Date
TIME	LABEL	1:27:58	Time
NOTES	NOTES	1	Notes...
	
PSTAT	PSTAT	REF3000-16137	Potentiostat
VDC	POTEN	0.00000E+000	T	DC Voltage (V)
FREQINIT	QUANT	3.00000E+005	Initial Freq. (Hz)
FREQFINAL	QUANT	1.00000E+000	Final Freq. (Hz)
PTSPERDEC	QUANT	1.00000E+001	Points/decade
VAC	QUANT	5.00000E+001	AC Voltage (mV rms)
AREA	QUANT	1.00000E+000	Sample Area (cm^2)
SPEED	SELECTOR	2	Optimize for:
ZGUESS	QUANT	1.00000E+003	Estimated Z (ohms)
EOC	QUANT	0	Open Circuit (V)
SEQUENCER	TOGGLE	TRUE	Run as Sequence
PSTATMODEL	IQUANT	5	Pstat Model
PSTATSECTION	LABEL	REF3000-16137	Pstat Section
PSTATSERIALNO	LABEL	16137	Pstat Serial Number
CTRLMODE	IQUANT	1	Control Mode
IESTAB	IQUANT	0	I/E Stability
CASPEED	IQUANT	1	Control Amp Speed
CONVENTION	IQUANT	1	Current Convention
ICHRANGE	IQUANT	2	Ich Range
ICHRANGEMODE	TOGGLE	F	Ich Auto Range
ICHOFFSETENABLE	TOGGLE	T	Ich Offset Enable
ICHOFFSET	QUANT	0	Ich Offset (V)
ICHFILTER	IQUANT	3	Ich Filter
VCHRANGE	IQUANT	2	Vch Range
VCHRANGEMODE	TOGGLE	F	Vch Auto Range
VCHOFFSETENABLE	TOGGLE	T	Vch Offset Enable
VCHOFFSET	QUANT	0	Vch Offset (V)
VCHFILTER	IQUANT	3	Vch Filter
ACHRANGE	IQUANT	2	Ach Range
ACHOFFSETENABLE	TOGGLE	F	Ach Offset Enable
ACHOFFSET	QUANT	0	Ach Offset (V)
ACHFILTER	IQUANT	3	Ach Filter
IERANGELOWERLIMIT	IQUANT	2	I/E Range Lower Limit
IERANGEMODE	TOGGLE	F	I/E AutoRange
IERANGE	IQUANT	11	I/E Range
POSFEEDENABLE	TOGGLE	F	Positive Feedback IR Comp
POSFEEDRESISTANCE	QUANT	0	Positive Feedback Resistance (ohm)
ACHSELECT	IQUANT	0	Ach Select
CABLEID	IQUANT	13	Cable ID
DCCALDATE	LABEL	7/31/2020	DC Calibration Date
ACCALDATE	LABEL	7/31/2020	AC Calibration Date
THERMOSELECT	IQUANT	1	Thermo Select
FRAMEWORKVERSION	QUANT	6.33	Framework Version
INSTRUMENTVERSION	LABEL	3.50	Instrument Version
COMPLIANCEVOLTAGE	IQUANT	0	Compliance Voltage
ZCURVE	TABLE
	Pt	Time	Freq	Zreal	Zimag	Zsig	Zmod	Zphz	Idc	Vdc	IERange
	#	s	Hz	ohm	ohm	V	ohm	°	A	V	#
	0	8	300046.9	13.00256	2.099	1	13.17089	9.170134	1.719978E-005	0.0001643	10
	1	11	238359.4	12.98785	1.662197	1	13.09379	7.293119	7.081011E-005	-9.358135E-006	10
	2	14	189328.1	13.00827	1.301459	1	13.07321	5.71335	7.308535E-005	0.0001999	10
	3	17	150421.9	13.04652	1.032232	1	13.08729	4.523782	-6.266232E-007	0.0006806	10
	4	19	119484.4	13.06031	0.7766625	1	13.08338	3.403223	-1.09312E-005	0.0004957	10
	5	22	94921.88	13.08742	0.5975316	1	13.10106	2.614134	1.308886E-005	0.000585	10
	6	24	75421.88	13.12089	0.4189006	1	13.12758	1.828617	-2.319061E-005	0.0006884	10
	7	27	59859.37	13.15629	0.2620142	1	13.1589	1.140924	1.256819E-005	0.0006071	10
	8	29	47578.12	13.19345	0.1279979	1	13.19407	0.5558448	1.668818E-005	0.0006139	10
	9	32	37828.12	13.23274	0.00437	1	13.23274	0.0189212	-2.510376E-005	0.0007044	10
	10	34	30046.88	13.27295	-0.1185488	1	13.27347	-0.5117303	4.512984E-006	0.0006249	10
	11	37	23859.38	13.31301	-0.2452763	1	13.31527	-1.055487	-2.520402E-006	0.0006395	10
	12	39	18984.38	13.35462	-0.3802679	1	13.36004	-1.631035	-1.903782E-005	0.000741	10
	13	41	15046.87	13.39783	-0.5357527	1	13.40854	-2.289925	7.988873E-006	0.0007201	10
	14	44	11953.13	13.44207	-0.7150263	1	13.46107	-3.044875	-2.392416E-005	0.0007018	10
	15	46	9515.62	13.49236	-0.9237595	1	13.52394	-3.916666	-2.866594E-005	0.0006835	10
	16	48	7546.875	13.54836	-1.179052	1	13.59956	-4.97366	-3.639856E-006	0.0006496	10
	17	51	5928.309	13.6089	-1.504939	1	13.69186	-6.310408	-4.007819E-006	0.0006552	10
	18	53	4733.456	13.67654	-1.879359	1	13.80506	-7.824285	1.481256E-005	0.0006875	10
	19	55	3796.875	13.74944	-2.32522	1	13.94467	-9.59869	1.234399E-005	0.0006582	10
	20	58	2987.132	13.84439	-2.928021	1	14.15063	-11.9418	-1.304533E-005	0.0006716	10
	21	60	2390.625	13.94836	-3.621181	1	14.41075	-14.55347	4.807906E-006	0.000642	10
	22	62	1884.191	14.08028	-4.535035	1	14.79259	-17.85293	-2.479986E-005	0.000693	10
	23	65	1516.544	14.22583	-5.563344	1	15.27498	-21.35915	-2.479514E-005	0.000694	10
	24	67	1193.986	14.42026	-6.962395	1	16.01308	-25.7722	-2.437991E-005	0.0007337	10
	25	69	946.5144	14.65083	-8.657274	1	17.01749	-30.57913	-2.41452E-005	0.0006865	10
	26	72	751.7689	14.93575	-10.72485	1	18.38747	-35.68082	-2.068053E-005	0.0007117	10
	27	74	597.4265	15.29331	-13.26133	1	20.24224	-40.92963	4.910306E-006	0.0006362	10
	28	76	477.4305	15.71084	-16.31608	1	22.6505	-46.08264	-2.533924E-006	0.0006903	10
	29	79	376.6741	16.25223	-20.30259	1	26.00634	-51.32272	-3.093775E-006	0.0006868	10
	30	81	298.2954	16.9057	-25.17666	1	30.32601	-56.11931	-2.253812E-006	0.0006894	10
	31	83	237.7717	17.68098	-31.02734	1	35.71152	-60.32327	-2.238497E-006	0.0006866	10
	32	86	189.0121	18.61945	-38.2939	1	42.58059	-64.06982	1.205428E-006	8.433133E-005	9
	33	88	150.2404	19.80513	-47.32412	1	51.30122	-67.2907	1.214576E-006	7.982941E-005	9
	34	91	119.1737	21.29075	-58.6055	1	62.35303	-70.03446	1.209337E-006	8.83841E-005	9
	35	93	95.0169	23.10302	-72.22505	1	75.83012	-72.2618	1.25558E-006	8.115207E-005	9
	36	95	75.60484	25.38659	-89.16984	1	92.71321	-74.10838	1.190528E-006	8.239187E-005	9
	37	98	54.50582	29.6726	-120.5162	1	124.1154	-76.16818	1.173985E-006	8.038623E-005	9
	38	101	45.95588	32.54291	-140.998	1	144.7048	-77.00349	1.196934E-006	8.879809E-005	9
	39	103	37.20238	36.81845	-171.1861	1	175.1008	-77.86182	1.162465E-006	8.782736E-005	9
	40	105	30.04808	42.15119	-208.1994	1	212.4234	-78.55483	1.222844E-006	8.275916E-005	9
	41	108	23.91582	49.1916	-256.4504	1	261.1257	-79.14157	1.271304E-006	7.189981E-005	9
	42	110	18.60119	58.98137	-322.7409	1	328.0861	-79.6434	1.325242E-006	8.467334E-005	9
	43	112	15.02404	69.24148	-392.1165	1	398.183	-79.98573	1.333835E-006	9.032368E-005	9
	44	115	12.01923	82.03079	-478.3452	1	485.3279	-80.26907	5.537137E-007	0.0006549	8
	45	117	9.450605	99.5294	-595.3552	1	603.6174	-80.50926	5.155729E-007	0.0006626	8
	46	120	7.512019	120.1422	-733.459	1	743.2336	-80.69744	5.321867E-007	0.0006647	8
	47	122	5.978954	145.2803	-902.7957	1	914.4105	-80.85818	5.508836E-007	0.0006645	8
	48	125	4.734848	177.1219	-1116.668	1	1130.628	-80.98703	5.429255E-007	0.0006362	8
	49	129	3.75601	217.4939	-1379.188	1	1396.231	-81.03842	5.90885E-007	0.0006813	8
	50	132	3.004808	265.8397	-1689.275	1	1710.064	-81.05676	5.562877E-007	0.0006633	8
	51	136	2.372217	334.561	-2095.958	1	2122.492	-80.93084	5.475526E-007	0.0005891	8
	52	140	1.878005	415.7774	-2597.19	1	2630.26	-80.90484	5.848279E-007	0.0006607	8
	53	145	1.512097	510.483	-3157.667	1	3198.665	-80.81676	5.520089E-007	0.0006964	8
	54	150	1.201923	649.2524	-3902.114	1	3955.758	-80.55339	5.959832E-007	0.0006804	8
	55	156	0.956633	827.2208	-4808.334	1	4878.973	-80.23845	5.713561E-009	-3.187995E-006	7
