EXPLAIN
TAG	EISPOT
TITLE	LABEL	Potentiostatic EIS	Test Identifier
DATE	LABEL	2/25/2021	Date
TIME	LABEL	1:58:24	Time
NOTES	NOTES	1	Notes...
	
PSTAT	PSTAT	REF3000-16137	Potentiostat
VDC	POTEN	0.00000E+000	T	DC Voltage (V)
FREQINIT	QUANT	3.00000E+005	Initial Freq. (Hz)
FREQFINAL	QUANT	1.00000E+000	Final Freq. (Hz)
PTSPERDEC	QUANT	1.00000E+001	Points/decade
VAC	QUANT	5.00000E+001	AC Voltage (mV rms)
AREA	QUANT	1.00000E+000	Sample Area (cm^2)
SPEED	SELECTOR	2	Optimize for:
ZGUESS	QUANT	1.00000E+003	Estimated Z (ohms)
EOC	QUANT	0	Open Circuit (V)
SEQUENCER	TOGGLE	TRUE	Run as Sequence
PSTATMODEL	IQUANT	5	Pstat Model
PSTATSECTION	LABEL	REF3000-16137	Pstat Section
PSTATSERIALNO	LABEL	16137	Pstat Serial Number
CTRLMODE	IQUANT	1	Control Mode
IESTAB	IQUANT	0	I/E Stability
CASPEED	IQUANT	1	Control Amp Speed
CONVENTION	IQUANT	1	Current Convention
ICHRANGE	IQUANT	2	Ich Range
ICHRANGEMODE	TOGGLE	F	Ich Auto Range
ICHOFFSETENABLE	TOGGLE	T	Ich Offset Enable
ICHOFFSET	QUANT	0	Ich Offset (V)
ICHFILTER	IQUANT	3	Ich Filter
VCHRANGE	IQUANT	2	Vch Range
VCHRANGEMODE	TOGGLE	F	Vch Auto Range
VCHOFFSETENABLE	TOGGLE	T	Vch Offset Enable
VCHOFFSET	QUANT	0	Vch Offset (V)
VCHFILTER	IQUANT	3	Vch Filter
ACHRANGE	IQUANT	2	Ach Range
ACHOFFSETENABLE	TOGGLE	F	Ach Offset Enable
ACHOFFSET	QUANT	0	Ach Offset (V)
ACHFILTER	IQUANT	3	Ach Filter
IERANGELOWERLIMIT	IQUANT	2	I/E Range Lower Limit
IERANGEMODE	TOGGLE	F	I/E AutoRange
IERANGE	IQUANT	11	I/E Range
POSFEEDENABLE	TOGGLE	F	Positive Feedback IR Comp
POSFEEDRESISTANCE	QUANT	0	Positive Feedback Resistance (ohm)
ACHSELECT	IQUANT	0	Ach Select
CABLEID	IQUANT	13	Cable ID
DCCALDATE	LABEL	7/31/2020	DC Calibration Date
ACCALDATE	LABEL	7/31/2020	AC Calibration Date
THERMOSELECT	IQUANT	1	Thermo Select
FRAMEWORKVERSION	QUANT	6.33	Framework Version
INSTRUMENTVERSION	LABEL	3.50	Instrument Version
COMPLIANCEVOLTAGE	IQUANT	0	Compliance Voltage
ZCURVE	TABLE
	Pt	Time	Freq	Zreal	Zimag	Zsig	Zmod	Zphz	Idc	Vdc	IERange
	#	s	Hz	ohm	ohm	V	ohm	°	A	V	#
	0	6	300046.9	194.8196	-8.220343	1	194.993	-2.416141	6.94729E-005	-0.0018171	9
	1	11	238359.4	197.1332	-7.202403	1	197.2648	-2.092411	-3.376042E-005	-0.0007346	9
	2	14	189328.1	199.5059	-6.734144	1	199.6195	-1.933234	-9.126687E-005	0.0032064	9
	3	17	150421.9	200.3225	-4.876093	1	200.3819	-1.394373	7.149064E-005	-0.0016325	9
	4	19	119484.4	201.6991	-4.314424	1	201.7453	-1.225392	9.895326E-006	-0.0015121	9
	5	22	94921.88	202.928	-3.687807	1	202.9615	-1.041121	-8.350727E-006	0.0007881	9
	6	25	75421.88	204.3814	-3.227998	1	204.4069	-0.9048537	-1.36692E-006	-0.0003657	9
	7	27	59859.37	205.7808	-2.712785	1	205.7987	-0.75528	-1.235849E-005	9.458666E-005	9
	8	30	47578.12	206.8122	-2.197008	1	206.8239	-0.6086418	-2.318253E-005	0.0008276	9
	9	32	37828.12	208.1565	-2.188902	1	208.168	-0.6024804	1.298098E-006	0.000632	9
	10	35	30046.88	209.4054	-1.804785	1	209.4132	-0.4937981	-1.792284E-005	0.0003602	9
	11	37	23859.38	210.6495	-1.710672	1	210.6564	-0.4652852	2.518522E-005	-0.0007295	9
	12	41	18984.38	212.178	-1.801986	1	212.1857	-0.48659	-1.536922E-005	0.0009856	9
	13	43	15046.87	213.053	-1.840776	1	213.061	-0.4950226	1.093146E-005	0.0002673	9
	14	45	11953.13	214.4265	-1.600789	1	214.4324	-0.4277305	-1.040603E-005	-1.268912E-005	9
	15	47	9515.62	215.5674	-1.990107	1	215.5766	-0.5289366	6.866785E-006	-0.0005529	9
	16	50	7546.875	216.4912	-2.59973	1	216.5069	-0.688002	-1.174709E-005	0.0008283	9
	17	52	5928.309	218.0169	-2.783885	1	218.0347	-0.7315772	2.662682E-005	-0.0004454	9
	18	54	4733.456	219.2181	-3.071558	1	219.2397	-0.8027427	7.71078E-006	-0.000584	9
	19	57	3796.875	220.8544	-4.163728	1	220.8936	-1.080059	-1.210652E-005	0.0008027	9
	20	59	2987.132	221.455	-4.638386	1	221.5036	-1.199887	1.600574E-006	0.0006044	9
	21	61	2390.625	222.8801	-5.584163	1	222.95	-1.435221	9.753036E-006	0.0002972	9
	22	64	1884.191	224.1841	-6.732191	1	224.2852	-1.72006	-9.105198E-006	-5.018072E-005	9
	23	66	1516.544	225.4061	-8.439974	1	225.564	-2.144348	2.02546E-005	-6.693056E-005	9
	24	68	1193.986	226.5097	-9.92766	1	226.7272	-2.509601	-2.366372E-005	0.0008686	9
	25	71	946.5144	228.2344	-12.83697	1	228.5951	-3.219192	-9.77358E-006	-3.143134E-005	9
	26	73	751.7689	229.4697	-15.41957	1	229.9872	-3.8443	2.566105E-005	-0.0007494	9
	27	76	597.4265	231.3962	-19.14302	1	232.1867	-4.729215	8.335102E-006	-0.0006247	9
	28	78	477.4305	233.117	-23.55358	1	234.3039	-5.769448	1.272192E-006	8.019835E-005	9
	29	80	376.6741	234.9954	-29.37858	1	236.8247	-7.126014	1.274273E-006	8.367922E-005	9
	30	83	298.2954	237.0752	-36.52515	1	239.8724	-8.758446	1.309029E-006	8.530241E-005	9
	31	85	237.7717	239.3634	-45.13828	1	243.5822	-10.67922	1.325779E-006	7.364075E-005	9
	32	87	189.0121	241.9711	-55.91708	1	248.348	-13.01206	1.292394E-006	8.089394E-005	9
	33	90	150.2404	244.969	-69.26643	1	254.5735	-15.78856	1.271796E-006	7.773331E-005	9
	34	92	119.1737	248.4974	-85.91444	1	262.9301	-19.0721	1.334217E-006	8.070845E-005	9
	35	95	95.0169	252.6517	-105.9766	1	273.9779	-22.75597	1.257056E-006	9.066079E-005	9
	36	97	75.60484	257.717	-130.8365	1	289.0264	-26.91577	1.377121E-006	8.094653E-005	9
	37	100	54.50582	266.2973	-176.4843	1	319.4698	-33.5338	1.285597E-006	7.546454E-005	9
	38	102	45.95588	272.4793	-206.1375	1	341.6689	-37.10843	1.25806E-006	8.247E-005	9
	39	105	37.20238	281.0252	-249.5289	1	375.8188	-41.60262	1.196834E-006	7.822805E-005	9
	40	107	30.04808	290.0536	-301.1841	1	418.1422	-46.07851	8.533372E-008	0.0006652	8
	41	109	23.91582	302.9286	-369.4942	1	477.7989	-50.6535	5.701243E-008	0.000653	8
	42	112	18.60119	319.7123	-462.5541	1	562.292	-55.34819	7.390925E-008	0.0006683	8
	43	114	15.02404	336.8413	-559.884	1	653.4005	-58.96775	1.355972E-007	0.0006523	8
	44	116	12.01923	357.8336	-683.4801	1	771.4855	-62.36585	8.758041E-008	0.0006529	8
	45	119	9.450605	384.8157	-848.1247	1	931.3424	-65.59499	6.647915E-008	0.0006621	8
	46	121	7.512019	415.193	-1042.533	1	1122.168	-68.28488	7.708837E-008	0.0006388	8
	47	124	5.978954	451.5158	-1281.367	1	1358.591	-70.58906	4.961362E-008	0.0006626	8
	48	127	4.734848	496.5093	-1584.74	1	1660.699	-72.60389	8.94459E-008	0.0006738	8
	49	130	3.75601	550.4072	-1956.228	1	2032.185	-74.28545	7.972417E-008	0.0006518	8
	50	134	3.004808	614.2523	-2397.154	1	2474.602	-75.62763	8.943797E-008	0.0006199	8
	51	138	2.372217	694.72	-2975.5	1	3055.525	-76.858	9.064731E-008	0.0006032	8
	52	142	1.878005	799.7693	-3687.844	1	3773.569	-77.76395	8.038934E-008	0.0006647	8
	53	147	1.512097	920.3409	-4510.429	1	4603.368	-78.46727	-4.504928E-009	0.0005233	7
	54	152	1.201923	1072.705	-5575.301	1	5677.56	-79.1092	-8.977687E-009	0.0006519	7
	55	158	0.956633	1257.809	-6877.687	1	6991.756	-79.63613	-6.332426E-009	-2.726229E-005	7
