EXPLAIN
TAG	EISPOT
TITLE	LABEL	Potentiostatic EIS	Test Identifier
DATE	LABEL	2/25/2021	Date
TIME	LABEL	1:19:39	Time
NOTES	NOTES	1	Notes...
	
PSTAT	PSTAT	REF3000-16137	Potentiostat
VDC	POTEN	0.00000E+000	T	DC Voltage (V)
FREQINIT	QUANT	3.00000E+005	Initial Freq. (Hz)
FREQFINAL	QUANT	1.00000E+000	Final Freq. (Hz)
PTSPERDEC	QUANT	1.00000E+001	Points/decade
VAC	QUANT	5.00000E+001	AC Voltage (mV rms)
AREA	QUANT	1.00000E+000	Sample Area (cm^2)
SPEED	SELECTOR	2	Optimize for:
ZGUESS	QUANT	1.00000E+003	Estimated Z (ohms)
EOC	QUANT	0	Open Circuit (V)
SEQUENCER	TOGGLE	TRUE	Run as Sequence
PSTATMODEL	IQUANT	5	Pstat Model
PSTATSECTION	LABEL	REF3000-16137	Pstat Section
PSTATSERIALNO	LABEL	16137	Pstat Serial Number
CTRLMODE	IQUANT	1	Control Mode
IESTAB	IQUANT	0	I/E Stability
CASPEED	IQUANT	1	Control Amp Speed
CONVENTION	IQUANT	1	Current Convention
ICHRANGE	IQUANT	2	Ich Range
ICHRANGEMODE	TOGGLE	F	Ich Auto Range
ICHOFFSETENABLE	TOGGLE	T	Ich Offset Enable
ICHOFFSET	QUANT	0	Ich Offset (V)
ICHFILTER	IQUANT	3	Ich Filter
VCHRANGE	IQUANT	2	Vch Range
VCHRANGEMODE	TOGGLE	F	Vch Auto Range
VCHOFFSETENABLE	TOGGLE	T	Vch Offset Enable
VCHOFFSET	QUANT	0	Vch Offset (V)
VCHFILTER	IQUANT	3	Vch Filter
ACHRANGE	IQUANT	2	Ach Range
ACHOFFSETENABLE	TOGGLE	F	Ach Offset Enable
ACHOFFSET	QUANT	0	Ach Offset (V)
ACHFILTER	IQUANT	3	Ach Filter
IERANGELOWERLIMIT	IQUANT	2	I/E Range Lower Limit
IERANGEMODE	TOGGLE	F	I/E AutoRange
IERANGE	IQUANT	11	I/E Range
POSFEEDENABLE	TOGGLE	F	Positive Feedback IR Comp
POSFEEDRESISTANCE	QUANT	0	Positive Feedback Resistance (ohm)
ACHSELECT	IQUANT	0	Ach Select
CABLEID	IQUANT	13	Cable ID
DCCALDATE	LABEL	7/31/2020	DC Calibration Date
ACCALDATE	LABEL	7/31/2020	AC Calibration Date
THERMOSELECT	IQUANT	1	Thermo Select
FRAMEWORKVERSION	QUANT	6.33	Framework Version
INSTRUMENTVERSION	LABEL	3.50	Instrument Version
COMPLIANCEVOLTAGE	IQUANT	0	Compliance Voltage
ZCURVE	TABLE
	Pt	Time	Freq	Zreal	Zimag	Zsig	Zmod	Zphz	Idc	Vdc	IERange
	#	s	Hz	ohm	ohm	V	ohm	°	A	V	#
	0	8	300046.9	8.403023	2.169466	1	8.678558	14.47633	1.600461E-005	4.640866E-005	10
	1	11	238359.4	8.376409	1.725646	1	8.552314	11.64079	-1.654055E-005	0.0001609	10
	2	14	189328.1	8.375816	1.359615	1	8.48545	9.220187	-4.905007E-005	0.0003687	10
	3	17	150421.9	8.373269	1.066396	1	8.440903	7.257955	2.910983E-005	0.0004755	10
	4	19	119484.4	8.388727	0.8125473	1	8.427988	5.532514	1.612358E-005	0.000503	10
	5	22	94921.88	8.40121	0.6331957	1	8.425038	4.31021	1.888893E-005	0.0005769	10
	6	24	75421.88	8.415156	0.4524564	1	8.427311	3.07765	2.275306E-005	0.0006001	10
	7	27	59859.37	8.43185	0.2954579	1	8.437025	2.006863	-3.019339E-005	0.0006348	10
	8	29	47578.12	8.452403	0.157843	1	8.453876	1.069836	-2.849004E-005	0.000651	10
	9	32	37828.12	8.475844	0.0329799	1	8.475908	0.2229396	-2.137345E-005	0.0006995	10
	10	35	30046.88	8.497214	-0.0880126	1	8.49767	-0.5934383	2.118681E-005	0.0006446	10
	11	37	23859.38	8.521781	-0.2108425	1	8.524389	-1.4173	2.079422E-005	0.0006611	10
	12	39	18984.38	8.546412	-0.3418113	1	8.553245	-2.290308	-2.148593E-005	0.000664	10
	13	42	15046.87	8.571877	-0.4904117	1	8.585894	-3.27442	2.098717E-005	0.0006501	10
	14	44	11953.13	8.602829	-0.6591583	1	8.628045	-4.381505	-1.884241E-005	0.0006735	10
	15	46	9515.62	8.635169	-0.8568434	1	8.677576	-5.666748	1.08216E-005	0.00064	10
	16	49	7546.875	8.673166	-1.098986	1	8.742516	-7.221525	1.109578E-005	0.0006437	10
	17	51	5928.309	8.717348	-1.406343	1	8.83006	-9.16439	2.115823E-005	0.0006743	10
	18	53	4733.456	8.767067	-1.758512	1	8.94169	-11.34197	1.057785E-005	0.0006461	10
	19	56	3796.875	8.824367	-2.181175	1	9.089938	-13.88388	-2.454272E-005	0.0006709	10
	20	58	2987.132	8.897888	-2.745641	1	9.311872	-17.14878	-6.70279E-006	0.0006946	10
	21	60	2390.625	8.982328	-3.396062	1	9.60289	-20.71074	2.159413E-005	0.0007008	10
	22	63	1884.191	9.092024	-4.251472	1	10.03693	-25.061	-1.298667E-005	0.0006763	10
	23	65	1516.544	9.215141	-5.217549	1	10.58969	-29.51824	2.234478E-005	0.0006816	10
	24	67	1193.986	9.384504	-6.52504	1	11.43001	-34.81086	1.088197E-005	0.0006437	10
	25	70	946.5144	9.58179	-8.111392	1	12.5541	-40.24933	-3.143839E-005	0.0006782	10
	26	72	751.7689	9.83245	-10.04128	1	14.05362	-45.60205	2.242878E-005	0.0006728	10
	27	74	597.4265	10.13298	-12.42859	1	16.0358	-50.80976	1.363764E-005	0.0006873	10
	28	77	477.4305	10.50211	-15.2992	1	18.55694	-55.53242	-2.754336E-006	0.0006912	10
	29	79	376.6741	10.97636	-19.05572	1	21.99093	-60.05745	-2.460142E-006	0.0006884	10
	30	81	298.2954	11.55889	-23.65395	1	26.32712	-63.9568	-2.296088E-006	0.0006917	10
	31	84	237.7717	12.26731	-29.18735	1	31.66051	-67.2032	-2.740955E-006	0.0006911	10
	32	86	189.0121	13.16164	-36.09657	1	38.42123	-69.96699	-1.981811E-006	0.0006896	10
	33	88	150.2404	14.26619	-44.58001	1	46.80707	-72.25464	1.148952E-006	8.213398E-005	9
	34	91	119.1737	15.69183	-55.21589	1	57.40234	-74.13535	1.221641E-006	8.818863E-005	9
	35	93	95.0169	17.44194	-68.03878	1	70.23885	-75.62168	1.097113E-006	8.647566E-005	9
	36	96	75.60484	19.6601	-83.96593	1	86.23687	-76.82195	1.096552E-006	8.418122E-005	9
	37	98	54.50582	23.8379	-113.3565	1	115.8359	-78.12423	1.098996E-006	8.377485E-005	9
	38	101	45.95588	26.61415	-132.5408	1	135.1865	-78.64602	1.15631E-006	8.917318E-005	9
	39	103	37.20238	30.73128	-160.7565	1	163.6676	-79.17754	1.199473E-006	9.391143E-005	9
	40	105	30.04808	35.83364	-195.3174	1	198.5773	-79.60392	1.191728E-006	8.551277E-005	9
	41	108	23.91582	42.56013	-240.485	1	244.222	-79.96392	1.106786E-006	8.854025E-005	9
	42	110	18.60119	51.69215	-302.2846	1	306.6726	-80.29601	1.126899E-006	9.424335E-005	9
	43	112	15.02404	61.35926	-367.1439	1	372.2359	-80.51208	1.275011E-006	0.0000975	9
	44	115	12.01923	73.31431	-448.0741	1	454.0323	-80.70755	5.604198E-007	0.0006676	8
	45	117	9.450605	89.68365	-557.8376	1	565.0009	-80.8667	5.498378E-007	0.0006557	8
	46	120	7.512019	109.6264	-687.5994	1	696.2836	-80.94137	5.929432E-007	0.0006809	8
	47	122	5.978954	133.9971	-846.7714	1	857.308	-81.00781	5.555206E-007	0.0006658	8
	48	125	4.734848	165.8034	-1047.864	1	1060.9	-81.00864	6.10129E-007	0.0006884	8
	49	129	3.75601	206.9963	-1293.955	1	1310.407	-80.9113	5.370024E-007	0.0006456	8
	50	132	3.004808	257.4506	-1584.66	1	1605.437	-80.77211	5.662089E-007	0.0006605	8
	51	136	2.372217	329.0916	-1962.632	1	1990.031	-80.48127	5.797891E-007	0.0006862	8
	52	140	1.878005	420.753	-2431.431	1	2467.567	-80.18233	5.279403E-007	0.0006652	8
	53	145	1.512097	530.0457	-2958.549	1	3005.655	-79.8428	5.577624E-007	0.0005516	8
	54	150	1.201923	686.3378	-3639.992	1	3704.134	-79.32198	5.512804E-007	0.000679	8
	55	156	0.956633	889.1907	-4474.787	1	4562.278	-78.76109	-3.764362E-008	-8.726336E-006	7
