EXPLAIN
TAG	EISPOT
TITLE	LABEL	Potentiostatic EIS	Test Identifier
DATE	LABEL	2/25/2021	Date
TIME	LABEL	1:47:21	Time
NOTES	NOTES	1	Notes...
	
PSTAT	PSTAT	REF3000-16137	Potentiostat
VDC	POTEN	0.00000E+000	T	DC Voltage (V)
FREQINIT	QUANT	3.00000E+005	Initial Freq. (Hz)
FREQFINAL	QUANT	1.00000E+000	Final Freq. (Hz)
PTSPERDEC	QUANT	1.00000E+001	Points/decade
VAC	QUANT	5.00000E+001	AC Voltage (mV rms)
AREA	QUANT	1.00000E+000	Sample Area (cm^2)
SPEED	SELECTOR	2	Optimize for:
ZGUESS	QUANT	1.00000E+003	Estimated Z (ohms)
EOC	QUANT	0	Open Circuit (V)
SEQUENCER	TOGGLE	TRUE	Run as Sequence
PSTATMODEL	IQUANT	5	Pstat Model
PSTATSECTION	LABEL	REF3000-16137	Pstat Section
PSTATSERIALNO	LABEL	16137	Pstat Serial Number
CTRLMODE	IQUANT	1	Control Mode
IESTAB	IQUANT	0	I/E Stability
CASPEED	IQUANT	1	Control Amp Speed
CONVENTION	IQUANT	1	Current Convention
ICHRANGE	IQUANT	2	Ich Range
ICHRANGEMODE	TOGGLE	F	Ich Auto Range
ICHOFFSETENABLE	TOGGLE	T	Ich Offset Enable
ICHOFFSET	QUANT	0	Ich Offset (V)
ICHFILTER	IQUANT	3	Ich Filter
VCHRANGE	IQUANT	2	Vch Range
VCHRANGEMODE	TOGGLE	F	Vch Auto Range
VCHOFFSETENABLE	TOGGLE	T	Vch Offset Enable
VCHOFFSET	QUANT	0	Vch Offset (V)
VCHFILTER	IQUANT	3	Vch Filter
ACHRANGE	IQUANT	2	Ach Range
ACHOFFSETENABLE	TOGGLE	F	Ach Offset Enable
ACHOFFSET	QUANT	0	Ach Offset (V)
ACHFILTER	IQUANT	3	Ach Filter
IERANGELOWERLIMIT	IQUANT	2	I/E Range Lower Limit
IERANGEMODE	TOGGLE	F	I/E AutoRange
IERANGE	IQUANT	11	I/E Range
POSFEEDENABLE	TOGGLE	F	Positive Feedback IR Comp
POSFEEDRESISTANCE	QUANT	0	Positive Feedback Resistance (ohm)
ACHSELECT	IQUANT	0	Ach Select
CABLEID	IQUANT	13	Cable ID
DCCALDATE	LABEL	7/31/2020	DC Calibration Date
ACCALDATE	LABEL	7/31/2020	AC Calibration Date
THERMOSELECT	IQUANT	1	Thermo Select
FRAMEWORKVERSION	QUANT	6.33	Framework Version
INSTRUMENTVERSION	LABEL	3.50	Instrument Version
COMPLIANCEVOLTAGE	IQUANT	0	Compliance Voltage
ZCURVE	TABLE
	Pt	Time	Freq	Zreal	Zimag	Zsig	Zmod	Zphz	Idc	Vdc	IERange
	#	s	Hz	ohm	ohm	V	ohm	°	A	V	#
	0	7	300046.9	56.77543	1.964601	1	56.80941	1.981816	-6.195128E-005	0.0018518	9
	1	10	238359.4	57.10078	1.404139	1	57.11805	1.40865	2.875144E-005	-0.000215	9
	2	14	189328.1	57.45524	1.044355	1	57.46473	1.041342	-6.561E-005	0.0020161	9
	3	16	150421.9	57.67792	0.6934414	1	57.68209	0.6888139	1.756489E-005	-0.0004881	9
	4	19	119484.4	57.95324	0.5551893	1	57.95589	0.5488741	8.9365E-006	-0.000979	9
	5	21	94921.88	58.2729	0.6121072	1	58.27612	0.6018212	-1.118623E-006	-0.0002223	9
	6	24	75421.88	58.46178	0.4167433	1	58.46326	0.4084246	1.130106E-005	-0.000601	9
	7	26	59859.37	58.72829	0.1967459	1	58.72862	0.1919461	-9.33663E-006	0.0006707	9
	8	29	47578.12	58.97118	0.0313841	1	58.97119	0.0304925	4.116304E-006	-0.0003686	9
	9	31	37828.12	59.23341	-0.1106495	1	59.23351	-0.1070298	1.611939E-005	-0.0001489	9
	10	34	30046.88	59.50374	-0.2618273	1	59.50431	-0.2521103	2.514209E-006	0.0003437	9
	11	37	23859.38	59.78225	-0.3922108	1	59.78353	-0.3758926	4.305664E-006	-0.0003167	9
	12	39	18984.38	60.00826	-0.5507664	1	60.01079	-0.525856	-1.305433E-005	0.0002438	9
	13	41	15046.87	60.30496	-0.7325183	1	60.30941	-0.6959319	-1.565982E-005	0.0004191	9
	14	43	11953.13	60.55076	-0.9138021	1	60.55765	-0.864614	-1.146336E-005	0.0006762	9
	15	46	9515.62	60.77114	-1.188325	1	60.78275	-1.120225	2.00297E-005	-0.0003794	9
	16	48	7546.875	61.06395	-1.487308	1	61.08205	-1.395252	1.54378E-005	-0.000535	9
	17	50	5928.309	61.32948	-1.860141	1	61.35769	-1.737265	-1.501729E-005	0.0003813	9
	18	53	4733.456	61.59409	-2.34837	1	61.63884	-2.183433	1.675168E-005	-0.0001042	9
	19	55	3796.875	61.91726	-2.856355	1	61.98311	-2.641285	-1.494066E-005	0.0007007	9
	20	57	2987.132	62.20514	-3.583632	1	62.30828	-3.297159	2.158731E-005	-0.000387	9
	21	60	2390.625	62.53289	-4.417453	1	62.68873	-4.04078	-1.498526E-005	0.000416	9
	22	62	1884.191	62.91283	-5.489625	1	63.15188	-4.986864	-1.634594E-005	0.0006748	9
	23	64	1516.544	63.24259	-6.748147	1	63.6016	-6.090562	-3.072956E-006	-0.000142	9
	24	67	1193.986	63.71118	-8.484249	1	64.27361	-7.585299	-1.97104E-006	-0.0001727	9
	25	69	946.5144	64.17596	-10.54998	1	65.03735	-9.335443	-1.73875E-005	0.0005601	9
	26	71	751.7689	64.74647	-13.07576	1	66.05362	-11.4175	1.795907E-005	-0.0001249	9
	27	74	597.4265	65.30527	-16.26052	1	67.29921	-13.9819	1.981698E-005	-0.000225	9
	28	76	477.4305	66.01739	-20.02479	1	68.98759	-16.87392	1.350133E-006	8.196068E-005	9
	29	78	376.6741	66.89368	-24.98007	1	71.40566	-20.47711	1.341456E-006	7.997283E-005	9
	30	81	298.2954	67.93947	-31.02977	1	74.69015	-24.54744	1.363412E-006	8.531976E-005	9
	31	83	237.7717	69.19902	-38.27686	1	79.07985	-28.94881	1.343629E-006	8.301035E-005	9
	32	86	189.0121	70.75186	-47.28721	1	85.09939	-33.7569	1.348486E-006	8.896022E-005	9
	33	88	150.2404	72.64574	-58.35404	1	93.18046	-38.77382	1.318346E-006	8.614455E-005	9
	34	90	119.1737	74.96648	-72.07461	1	103.9939	-43.8733	1.351021E-006	8.349145E-005	9
	35	93	95.0169	77.70921	-88.53321	1	117.8	-48.72526	1.327502E-006	8.467303E-005	9
	36	95	75.60484	81.03295	-108.9004	1	135.7411	-53.34702	1.356217E-006	8.67198E-005	9
	37	98	54.50582	86.80316	-146.4184	1	170.215	-59.33871	1.373775E-006	8.008349E-005	9
	38	100	45.95588	90.59839	-170.9425	1	193.4668	-62.07671	1.336766E-006	8.271245E-005	9
	39	103	37.20238	95.9483	-207.0923	1	228.2395	-65.14116	1.335204E-006	8.394059E-005	9
	40	105	30.04808	102.4004	-251.5441	1	271.5885	-67.84939	1.327458E-006	8.191283E-005	9
	41	108	23.91582	110.6783	-309.7891	1	328.9666	-70.33972	1.468793E-006	8.030602E-005	9
	42	110	18.60119	121.8603	-389.8083	1	408.412	-72.63992	1.361762E-006	8.330583E-005	9
	43	112	15.02404	133.0689	-472.0115	1	490.4103	-74.25586	3.301781E-007	0.0006572	8
	44	115	12.01923	147.9161	-579.2089	1	597.7977	-75.67422	3.693414E-007	0.0006624	8
	45	117	9.450605	167.921	-722.2473	1	741.511	-76.91138	3.049561E-007	0.0006726	8
	46	120	7.512019	191.508	-891.6451	1	911.9794	-77.87814	3.672918E-007	0.0006781	8
	47	122	5.978954	221.193	-1098.961	1	1121	-78.61986	3.649955E-007	0.0006611	8
	48	125	4.734848	259.6161	-1361.174	1	1385.711	-79.2017	3.717977E-007	0.0006832	8
	49	129	3.75601	306.4102	-1682.62	1	1710.292	-79.67936	3.585285E-007	0.0006581	8
	50	132	3.004808	363.181	-2062.511	1	2094.243	-80.01334	3.701902E-007	0.0006881	8
	51	136	2.372217	436.9707	-2561.426	1	2598.432	-80.31873	3.66747E-007	0.0007266	8
	52	140	1.878005	530.5941	-3169.937	1	3214.037	-80.49774	3.790892E-007	0.0006304	8
	53	145	1.512097	634.0048	-3863.796	1	3915.467	-80.68146	3.683796E-007	0.0007561	8
	54	150	1.201923	775.2292	-4777.32	1	4839.811	-80.78279	4.171092E-008	0.0006233	7
	55	156	0.956633	941.5737	-5880.606	1	5955.509	-80.9033	1.890704E-008	-9.410704E-006	7
