EXPLAIN
TAG	EISPOT
TITLE	LABEL	Potentiostatic EIS	Test Identifier
DATE	LABEL	2/25/2021	Date
TIME	LABEL	2:20:08	Time
NOTES	NOTES	1	Notes...
	
PSTAT	PSTAT	REF3000-16137	Potentiostat
VDC	POTEN	0.00000E+000	T	DC Voltage (V)
FREQINIT	QUANT	3.00000E+005	Initial Freq. (Hz)
FREQFINAL	QUANT	1.00000E+000	Final Freq. (Hz)
PTSPERDEC	QUANT	1.00000E+001	Points/decade
VAC	QUANT	5.00000E+001	AC Voltage (mV rms)
AREA	QUANT	1.00000E+000	Sample Area (cm^2)
SPEED	SELECTOR	2	Optimize for:
ZGUESS	QUANT	1.00000E+003	Estimated Z (ohms)
EOC	QUANT	0	Open Circuit (V)
SEQUENCER	TOGGLE	TRUE	Run as Sequence
PSTATMODEL	IQUANT	5	Pstat Model
PSTATSECTION	LABEL	REF3000-16137	Pstat Section
PSTATSERIALNO	LABEL	16137	Pstat Serial Number
CTRLMODE	IQUANT	1	Control Mode
IESTAB	IQUANT	0	I/E Stability
CASPEED	IQUANT	1	Control Amp Speed
CONVENTION	IQUANT	1	Current Convention
ICHRANGE	IQUANT	2	Ich Range
ICHRANGEMODE	TOGGLE	F	Ich Auto Range
ICHOFFSETENABLE	TOGGLE	T	Ich Offset Enable
ICHOFFSET	QUANT	0	Ich Offset (V)
ICHFILTER	IQUANT	3	Ich Filter
VCHRANGE	IQUANT	2	Vch Range
VCHRANGEMODE	TOGGLE	F	Vch Auto Range
VCHOFFSETENABLE	TOGGLE	T	Vch Offset Enable
VCHOFFSET	QUANT	0	Vch Offset (V)
VCHFILTER	IQUANT	3	Vch Filter
ACHRANGE	IQUANT	2	Ach Range
ACHOFFSETENABLE	TOGGLE	F	Ach Offset Enable
ACHOFFSET	QUANT	0	Ach Offset (V)
ACHFILTER	IQUANT	3	Ach Filter
IERANGELOWERLIMIT	IQUANT	2	I/E Range Lower Limit
IERANGEMODE	TOGGLE	F	I/E AutoRange
IERANGE	IQUANT	11	I/E Range
POSFEEDENABLE	TOGGLE	F	Positive Feedback IR Comp
POSFEEDRESISTANCE	QUANT	0	Positive Feedback Resistance (ohm)
ACHSELECT	IQUANT	0	Ach Select
CABLEID	IQUANT	13	Cable ID
DCCALDATE	LABEL	7/31/2020	DC Calibration Date
ACCALDATE	LABEL	7/31/2020	AC Calibration Date
THERMOSELECT	IQUANT	1	Thermo Select
FRAMEWORKVERSION	QUANT	6.33	Framework Version
INSTRUMENTVERSION	LABEL	3.50	Instrument Version
COMPLIANCEVOLTAGE	IQUANT	0	Compliance Voltage
ZCURVE	TABLE
	Pt	Time	Freq	Zreal	Zimag	Zsig	Zmod	Zphz	Idc	Vdc	IERange
	#	s	Hz	ohm	ohm	V	ohm	°	A	V	#
	0	14	300046.9	1468.517	-3014.247	1	3352.943	-64.02503	1.794988E-005	-0.0021913	9
	1	28	238359.4	1948.24	-3476.717	1	3985.373	-60.73514	2.491081E-005	-0.0015534	9
	2	42	189328.1	2590.067	-3942.967	1	4717.567	-56.69978	2.084452E-005	-0.0003669	9
	3	49	150421.9	3023.733	-4292.942	1	5250.934	-54.84105	2.453942E-005	0.0010169	9
	4	57	119484.4	4485.187	-4663.996	1	6470.685	-46.11963	2.630775E-005	0.0072643	8
	5	64	94921.88	5354.876	-4926.57	1	7276.386	-42.61454	2.306568E-005	-0.0029798	8
	6	72	75421.88	6552.668	-5073.233	1	8287.048	-37.74789	-1.742274E-006	-0.0046398	8
	7	80	59859.37	7755.271	-5078.698	1	9270.242	-33.21961	7.234066E-006	-0.0072231	8
	8	89	47578.12	9722.98	-4141.317	1	10568.2	-23.07066	-5.945774E-006	0.0232269	7
	9	93	37828.12	10461.87	-3712.575	1	11101.08	-19.53811	4.291331E-006	3.999352E-005	7
	10	97	30046.88	11138.28	-3338.606	1	11627.88	-16.68566	6.825386E-006	-0.0162559	7
	11	102	23859.38	11757.7	-2925.383	1	12116.16	-13.97183	-6.64657E-006	0.0213036	7
	12	106	18984.38	12278.66	-2558.617	1	12542.41	-11.77081	4.305901E-006	6.371929E-005	7
	13	110	15046.87	12684.94	-2214.306	1	12876.75	-9.90189	-6.002221E-006	0.0234321	7
	14	115	11953.13	13086.34	-1873.58	1	13219.78	-8.147705	-7.760083E-007	-0.0124288	7
	15	119	9515.62	13513.97	-1624.35	1	13611.25	-6.853947	1.243226E-006	-0.0183708	7
	16	123	7546.875	13865.43	-1358.339	1	13931.81	-5.595178	6.393836E-006	-0.0245256	7
	17	127	5928.309	14145.25	-1185.86	1	14194.87	-4.792158	-6.038031E-006	0.010678	7
	18	132	4733.456	14482.65	-994.222	1	14516.73	-3.927149	6.344387E-006	-0.0244418	7
	19	136	3796.875	14692.6	-775.4689	1	14713.05	-3.021243	-6.625563E-006	0.0214317	7
	20	140	2987.132	14905.21	-776.0602	1	14925.4	-2.980492	6.344931E-006	-0.024509	7
	21	144	2390.625	15296	-559.5428	1	15306.23	-2.095002	-4.732232E-006	0.0029408	7
	22	149	1884.191	15639.99	-459.6782	1	15646.74	-1.683508	6.365255E-006	-0.0246188	7
	23	153	1516.544	15846.2	-391.0119	1	15851.02	-1.413512	5.020598E-006	-0.0244375	7
	24	157	1193.986	16170.89	-379.1777	1	16175.34	-1.343235	2.418524E-006	0.0081714	7
	25	162	946.5144	16432.89	-392.2466	1	16437.57	-1.367368	3.206083E-007	0.0155032	7
	26	164	751.7689	16340.98	-281.6934	1	16343.4	-0.987593	2.481353E-006	0.0077323	7
	27	167	597.4265	16954.29	-365.3047	1	16958.23	-1.234329	5.991354E-006	-0.008533	7
	28	169	477.4305	16980.56	-196.4745	1	16981.69	-0.6629146	-6.842726E-008	0.0006606	7
	29	172	376.6741	17152.89	-177.86	1	17153.81	-0.5940844	-5.929846E-008	0.0006225	7
	30	174	298.2954	17332.48	-165.6078	1	17333.27	-0.547431	-6.200516E-008	0.0005973	7
	31	176	237.7717	17505.5	-166.2743	1	17506.29	-0.5442021	-6.42181E-008	0.0006843	7
	32	179	189.0121	17693.12	-170.9633	1	17693.94	-0.5536147	-6.285295E-008	0.0006826	7
	33	181	150.2404	17886.34	-180.5902	1	17887.25	-0.5784698	-6.927083E-008	0.0006928	7
	34	184	119.1737	18062.5	-203.9932	1	18063.65	-0.6470561	-6.039778E-008	0.0006592	7
	35	186	95.0169	18261.43	-226.6755	1	18262.84	-0.7111645	-7.361019E-008	0.0006747	7
	36	189	75.60484	18465.52	-262.6835	1	18467.39	-0.8150131	-6.623412E-008	0.0006636	7
	37	191	54.50582	18691.32	-333.0645	1	18694.29	-1.020857	-5.546302E-008	0.0006372	7
	38	194	45.95588	18872.08	-386.976	1	18876.04	-1.174698	-8.383712E-008	0.0006616	7
	39	196	37.20238	19074.26	-463.7542	1	19079.89	-1.392763	-6.257462E-008	0.000678	7
	40	198	30.04808	19286.42	-550.8928	1	19294.29	-1.636138	-8.949359E-008	0.000686	7
	41	201	23.91582	19498.94	-674.4222	1	19510.6	-1.980936	-5.549623E-008	0.0006684	7
	42	203	18.60119	19740.44	-845.1891	1	19758.52	-2.451628	-1.201588E-007	0.0005907	7
	43	206	15.02404	19948.52	-1043.876	1	19975.81	-2.99547	-9.150278E-008	0.0006106	7
	44	208	12.01923	20120.31	-1234.208	1	20158.13	-3.510206	-1.233047E-007	0.0006392	7
	45	210	9.450605	20372.09	-1583.292	1	20433.52	-4.444019	-7.67316E-009	0.0006227	7
	46	213	7.512019	20633.64	-1980.184	1	20728.45	-5.481814	1.090467E-008	0.0006059	7
	47	216	5.978954	20994.19	-2448.896	1	21136.53	-6.653278	-1.192904E-008	0.0005968	7
	48	219	4.734848	21339.9	-2996.616	1	21549.27	-7.993388	-3.31408E-008	0.0006207	7
	49	222	3.75601	21819.34	-3734.697	1	22136.66	-9.71288	-3.219036E-008	0.0006923	7
	50	225	3.004808	22248.92	-4544.318	1	22708.26	-11.54382	-6.225183E-008	0.0007002	7
	51	229	2.372217	22824.5	-5681.444	1	23520.98	-13.97792	-4.038689E-008	0.0005923	7
	52	233	1.878005	23502.13	-7031.828	1	24531.54	-16.65717	-3.86824E-008	0.0006245	7
	53	238	1.512097	24255.85	-8547.84	1	25717.93	-19.41262	-4.740942E-008	0.0007054	7
	54	243	1.201923	25175.28	-10618.34	1	27322.95	-22.86886	-5.01001E-008	0.0006419	7
	55	250	0.956633	26304.96	-13094.96	1	29384.16	-26.46474	-7.475616E-008	-8.218803E-006	7
