EXPLAIN
TAG	EISPOT
TITLE	LABEL	Potentiostatic EIS	Test Identifier
DATE	LABEL	2/25/2021	Date
TIME	LABEL	1:08:29	Time
NOTES	NOTES	1	Notes...
	
PSTAT	PSTAT	REF3000-16137	Potentiostat
VDC	POTEN	0.00000E+000	T	DC Voltage (V)
FREQINIT	QUANT	3.00000E+005	Initial Freq. (Hz)
FREQFINAL	QUANT	1.00000E+000	Final Freq. (Hz)
PTSPERDEC	QUANT	1.00000E+001	Points/decade
VAC	QUANT	5.00000E+001	AC Voltage (mV rms)
AREA	QUANT	1.00000E+000	Sample Area (cm^2)
SPEED	SELECTOR	2	Optimize for:
ZGUESS	QUANT	1.00000E+003	Estimated Z (ohms)
EOC	QUANT	0	Open Circuit (V)
SEQUENCER	TOGGLE	TRUE	Run as Sequence
PSTATMODEL	IQUANT	5	Pstat Model
PSTATSECTION	LABEL	REF3000-16137	Pstat Section
PSTATSERIALNO	LABEL	16137	Pstat Serial Number
CTRLMODE	IQUANT	1	Control Mode
IESTAB	IQUANT	0	I/E Stability
CASPEED	IQUANT	1	Control Amp Speed
CONVENTION	IQUANT	1	Current Convention
ICHRANGE	IQUANT	2	Ich Range
ICHRANGEMODE	TOGGLE	F	Ich Auto Range
ICHOFFSETENABLE	TOGGLE	T	Ich Offset Enable
ICHOFFSET	QUANT	0	Ich Offset (V)
ICHFILTER	IQUANT	3	Ich Filter
VCHRANGE	IQUANT	2	Vch Range
VCHRANGEMODE	TOGGLE	F	Vch Auto Range
VCHOFFSETENABLE	TOGGLE	T	Vch Offset Enable
VCHOFFSET	QUANT	0	Vch Offset (V)
VCHFILTER	IQUANT	3	Vch Filter
ACHRANGE	IQUANT	2	Ach Range
ACHOFFSETENABLE	TOGGLE	F	Ach Offset Enable
ACHOFFSET	QUANT	0	Ach Offset (V)
ACHFILTER	IQUANT	3	Ach Filter
IERANGELOWERLIMIT	IQUANT	2	I/E Range Lower Limit
IERANGEMODE	TOGGLE	F	I/E AutoRange
IERANGE	IQUANT	11	I/E Range
POSFEEDENABLE	TOGGLE	F	Positive Feedback IR Comp
POSFEEDRESISTANCE	QUANT	0	Positive Feedback Resistance (ohm)
ACHSELECT	IQUANT	0	Ach Select
CABLEID	IQUANT	13	Cable ID
DCCALDATE	LABEL	7/31/2020	DC Calibration Date
ACCALDATE	LABEL	7/31/2020	AC Calibration Date
THERMOSELECT	IQUANT	1	Thermo Select
FRAMEWORKVERSION	QUANT	6.33	Framework Version
INSTRUMENTVERSION	LABEL	3.50	Instrument Version
COMPLIANCEVOLTAGE	IQUANT	0	Compliance Voltage
ZCURVE	TABLE
	Pt	Time	Freq	Zreal	Zimag	Zsig	Zmod	Zphz	Idc	Vdc	IERange
	#	s	Hz	ohm	ohm	V	ohm	°	A	V	#
	0	10	300046.9	5.328014	2.219576	1	5.77185	22.61592	-2.061215E-005	0.000119	10
	1	13	238359.4	5.315435	1.753716	1	5.597264	18.25922	7.351387E-005	-0.0003192	10
	2	16	189328.1	5.309849	1.383766	1	5.487195	14.6066	-7.384564E-006	8.390927E-005	10
	3	19	150421.9	5.300414	1.071553	1	5.407644	11.42911	3.538225E-005	0.0003848	10
	4	21	119484.4	5.301625	0.83491	1	5.366964	8.949548	-0.0001036	0.0003884	10
	5	24	94921.88	5.308638	0.649444	1	5.348216	6.97475	-1.119677E-005	0.0005712	10
	6	26	75421.88	5.310999	0.4701726	1	5.33177	5.059096	2.385266E-005	0.0005339	10
	7	29	59859.37	5.318177	0.3178445	1	5.327666	3.420254	-4.207182E-006	0.0005768	10
	8	31	47578.12	5.328204	0.1821594	1	5.331317	1.958053	-2.023091E-005	0.0006939	10
	9	34	37828.12	5.338445	0.0588489	1	5.338769	0.6315802	-3.118271E-005	0.0006368	10
	10	36	30046.88	5.351343	-0.0600323	1	5.351679	-0.6427273	2.034941E-005	0.0006364	10
	11	39	23859.38	5.366467	-0.1787901	1	5.369445	-1.90817	-1.479969E-005	0.000682	10
	12	41	18984.38	5.38043	-0.3039172	1	5.389007	-3.232955	7.764921E-006	0.0006538	10
	13	44	15046.87	5.398366	-0.4444958	1	5.416635	-4.707056	5.353347E-006	0.0006514	10
	14	46	11953.13	5.418199	-0.6045966	1	5.451827	-6.367083	-2.075936E-005	0.0006629	10
	15	48	9515.62	5.440935	-0.7909834	1	5.498129	-8.271507	1.741878E-005	0.0006515	10
	16	50	7546.875	5.467567	-1.017243	1	5.561391	-10.53939	-1.735263E-005	0.0006736	10
	17	53	5928.309	5.501567	-1.305121	1	5.654253	-13.34542	-2.739241E-005	0.0007001	10
	18	55	4733.456	5.5402	-1.633927	1	5.776117	-16.43195	-2.22405E-005	0.0007033	10
	19	57	3796.875	5.584938	-2.02652	1	5.941238	-19.94353	-1.008599E-005	0.000663	10
	20	60	2987.132	5.645697	-2.554312	1	6.196644	-24.34366	5.099498E-006	0.0006847	10
	21	62	2390.625	5.716274	-3.161098	1	6.5321	-28.94258	-2.887197E-005	0.0007098	10
	22	64	1884.191	5.809439	-3.957209	1	7.02916	-34.26147	-3.963065E-006	0.00066	10
	23	67	1516.544	5.916328	-4.854839	1	7.653261	-39.37173	-1.232024E-005	0.0006726	10
	24	69	1193.986	6.058488	-6.077543	1	8.58148	-45.08996	-1.508583E-005	0.0006965	10
	25	72	946.5144	6.23207	-7.554585	1	9.79339	-50.47945	3.258889E-006	0.0006464	10
	26	74	751.7689	6.452946	-9.363161	1	11.37142	-55.42599	-2.705506E-005	0.0007014	10
	27	76	597.4265	6.717563	-11.59558	1	13.40086	-59.91539	-2.193369E-005	0.0007063	10
	28	78	477.4305	7.05328	-14.28711	1	15.9333	-63.7253	-2.409712E-006	0.0006908	10
	29	81	376.6741	7.4952	-17.80752	1	19.3206	-67.17373	-2.884528E-006	0.0006893	10
	30	83	298.2954	8.048358	-22.11332	1	23.53242	-70.00053	-2.467096E-006	0.0006892	10
	31	85	237.7717	8.726377	-27.28157	1	28.64322	-72.26243	-3.031533E-006	0.0006867	10
	32	88	189.0121	9.59393	-33.73417	1	35.07189	-74.12436	-2.930939E-006	0.000687	10
	33	90	150.2404	10.67222	-41.63655	1	42.98254	-75.62354	1.007624E-006	7.960847E-005	9
	34	93	119.1737	12.05888	-51.52632	1	52.9186	-76.82794	1.018241E-006	8.06889E-005	9
	35	95	95.0169	13.75961	-63.4241	1	64.89949	-77.75958	9.440559E-007	8.519768E-005	9
	36	98	75.60484	15.90016	-78.18091	1	79.78139	-78.50417	8.760261E-007	8.646233E-005	9
	37	100	54.50582	19.89535	-105.3878	1	107.2493	-79.30939	8.861202E-007	8.022973E-005	9
	38	103	45.95588	22.52215	-123.1417	1	125.1844	-79.63538	1.083662E-006	9.011834E-005	9
	39	105	37.20238	26.41451	-149.2389	1	151.5585	-79.9629	1.050754E-006	9.113819E-005	9
	40	107	30.04808	31.18077	-181.2429	1	183.9055	-80.23847	9.448065E-007	8.45106E-005	9
	41	110	23.91582	37.38191	-223.0193	1	226.1306	-80.48469	8.83679E-007	0.0001066	9
	42	112	18.60119	46.11383	-280.5821	1	284.3463	-80.66684	1.102411E-006	8.158736E-005	9
	43	114	15.02404	55.376	-340.8837	1	345.3523	-80.77299	1.193938E-006	8.960806E-005	9
	44	117	12.01923	67.48141	-417.8547	1	423.2686	-80.82623	1.236615E-006	8.557137E-005	9
	45	119	9.450605	83.78771	-518.3771	1	525.105	-80.81843	4.932797E-007	0.0006568	8
	46	122	7.512019	104.4373	-638.9525	1	647.4315	-80.71705	5.178583E-007	0.0006817	8
	47	124	5.978954	130.5913	-786.5505	1	797.3179	-80.57315	4.913592E-007	0.0006605	8
	48	127	4.734848	166.6279	-972.462	1	986.634	-80.27699	4.951503E-007	0.0006783	8
	49	131	3.75601	213.0391	-1199.686	1	1218.454	-79.93044	4.847021E-007	0.0006543	8
	50	134	3.004808	272.1118	-1466.831	1	1491.857	-79.49053	4.767135E-007	0.0006991	8
	51	138	2.372217	355.0157	-1813.778	1	1848.195	-78.92535	4.671625E-007	0.0007256	8
	52	142	1.878005	469.6341	-2233.596	1	2282.434	-78.126	5.004466E-007	0.0006291	8
	53	147	1.512097	610.3802	-2704.971	1	2772.982	-77.2841	4.762923E-007	0.0007683	8
	54	152	1.201923	809.0513	-3310.488	1	3407.917	-76.26665	4.879559E-007	0.0006336	8
	55	158	0.956633	1076.125	-4032.321	1	4173.447	-75.05745	4.36187E-007	2.037988E-005	8
