EXPLAIN
TAG	EISPOT
TITLE	LABEL	Potentiostatic EIS	Test Identifier
DATE	LABEL	2/25/2021	Date
TIME	LABEL	1:52:52	Time
NOTES	NOTES	1	Notes...
	
PSTAT	PSTAT	REF3000-16137	Potentiostat
VDC	POTEN	0.00000E+000	T	DC Voltage (V)
FREQINIT	QUANT	3.00000E+005	Initial Freq. (Hz)
FREQFINAL	QUANT	1.00000E+000	Final Freq. (Hz)
PTSPERDEC	QUANT	1.00000E+001	Points/decade
VAC	QUANT	5.00000E+001	AC Voltage (mV rms)
AREA	QUANT	1.00000E+000	Sample Area (cm^2)
SPEED	SELECTOR	2	Optimize for:
ZGUESS	QUANT	1.00000E+003	Estimated Z (ohms)
EOC	QUANT	0	Open Circuit (V)
SEQUENCER	TOGGLE	TRUE	Run as Sequence
PSTATMODEL	IQUANT	5	Pstat Model
PSTATSECTION	LABEL	REF3000-16137	Pstat Section
PSTATSERIALNO	LABEL	16137	Pstat Serial Number
CTRLMODE	IQUANT	1	Control Mode
IESTAB	IQUANT	0	I/E Stability
CASPEED	IQUANT	1	Control Amp Speed
CONVENTION	IQUANT	1	Current Convention
ICHRANGE	IQUANT	2	Ich Range
ICHRANGEMODE	TOGGLE	F	Ich Auto Range
ICHOFFSETENABLE	TOGGLE	T	Ich Offset Enable
ICHOFFSET	QUANT	0	Ich Offset (V)
ICHFILTER	IQUANT	3	Ich Filter
VCHRANGE	IQUANT	2	Vch Range
VCHRANGEMODE	TOGGLE	F	Vch Auto Range
VCHOFFSETENABLE	TOGGLE	T	Vch Offset Enable
VCHOFFSET	QUANT	0	Vch Offset (V)
VCHFILTER	IQUANT	3	Vch Filter
ACHRANGE	IQUANT	2	Ach Range
ACHOFFSETENABLE	TOGGLE	F	Ach Offset Enable
ACHOFFSET	QUANT	0	Ach Offset (V)
ACHFILTER	IQUANT	3	Ach Filter
IERANGELOWERLIMIT	IQUANT	2	I/E Range Lower Limit
IERANGEMODE	TOGGLE	F	I/E AutoRange
IERANGE	IQUANT	11	I/E Range
POSFEEDENABLE	TOGGLE	F	Positive Feedback IR Comp
POSFEEDRESISTANCE	QUANT	0	Positive Feedback Resistance (ohm)
ACHSELECT	IQUANT	0	Ach Select
CABLEID	IQUANT	13	Cable ID
DCCALDATE	LABEL	7/31/2020	DC Calibration Date
ACCALDATE	LABEL	7/31/2020	AC Calibration Date
THERMOSELECT	IQUANT	1	Thermo Select
FRAMEWORKVERSION	QUANT	6.33	Framework Version
INSTRUMENTVERSION	LABEL	3.50	Instrument Version
COMPLIANCEVOLTAGE	IQUANT	0	Compliance Voltage
ZCURVE	TABLE
	Pt	Time	Freq	Zreal	Zimag	Zsig	Zmod	Zphz	Idc	Vdc	IERange
	#	s	Hz	ohm	ohm	V	ohm	°	A	V	#
	0	7	300046.9	100.8407	-0.0029244	1	100.8407	-0.0016616	-1.285741E-005	-0.0013564	9
	1	10	238359.4	101.3608	-0.2047019	1	101.361	-0.1157108	1.215841E-005	-0.0010104	9
	2	13	189328.1	102.0608	-0.4637336	1	102.0618	-0.2603331	-6.820811E-005	0.0026377	9
	3	16	150421.9	102.6228	-0.4007488	1	102.6236	-0.2237426	2.021839E-005	-0.0004538	9
	4	18	119484.4	103.2457	-0.4044767	1	103.2465	-0.2244616	-2.779044E-005	-0.0003191	9
	5	21	94921.88	103.818	-0.1280718	1	103.8181	-0.0706811	-1.735062E-005	0.0007664	9
	6	23	75421.88	104.301	-0.317282	1	104.3015	-0.1742923	2.413597E-005	-0.0004618	9
	7	26	59859.37	104.8087	-0.4055331	1	104.8095	-0.2216918	-1.785913E-005	0.0007583	9
	8	28	47578.12	105.4102	-0.4767158	1	105.4113	-0.2591174	2.26214E-005	-0.0006582	9
	9	31	37828.12	105.9566	-0.4845238	1	105.9577	-0.2620033	-1.438594E-005	0.000168	9
	10	33	30046.88	106.4751	-0.6054026	1	106.4768	-0.3257724	6.165944E-006	-0.0004739	9
	11	36	23859.38	106.9843	-0.7015327	1	106.9865	-0.3757029	3.97952E-006	-0.0004027	9
	12	38	18984.38	107.4833	-0.7801642	1	107.4861	-0.4158724	-1.930085E-005	0.0006394	9
	13	41	15046.87	107.9261	-0.996092	1	107.9307	-0.5287902	2.250372E-005	-0.000609	9
	14	43	11953.13	108.4281	-1.029009	1	108.433	-0.5437346	-1.343531E-005	0.000259	9
	15	45	9515.62	109.0223	-1.408969	1	109.0314	-0.7404312	-1.301246E-005	0.000801	9
	16	48	7546.875	109.5507	-1.852979	1	109.5663	-0.969029	5.389952E-006	-0.0004652	9
	17	50	5928.309	110.0781	-2.106375	1	110.0982	-1.096237	1.361538E-005	-0.0006396	9
	18	52	4733.456	110.6284	-2.619351	1	110.6594	-1.35634	1.266069E-005	-0.0006133	9
	19	54	3796.875	111.1395	-3.190229	1	111.1852	-1.644209	2.209406E-005	-0.0002776	9
	20	57	2987.132	111.705	-3.915683	1	111.7736	-2.007612	1.092755E-005	0.0002247	9
	21	59	2390.625	112.3914	-4.786387	1	112.4933	-2.438569	1.083873E-005	0.0001768	9
	22	61	1884.191	112.971	-5.986262	1	113.1295	-3.03323	1.883722E-005	-0.000098	9
	23	64	1516.544	113.5916	-7.357232	1	113.8296	-3.705823	2.409962E-006	0.0004963	9
	24	66	1193.986	114.3758	-9.168806	1	114.7427	-4.583251	-1.779718E-005	0.0008517	9
	25	69	946.5144	115.0383	-11.38581	1	115.6004	-5.652386	-1.213011E-005	0.0008708	9
	26	71	751.7689	115.9254	-14.16936	1	116.7881	-6.968602	2.260053E-005	-0.0002444	9
	27	73	597.4265	116.8539	-17.46259	1	118.1515	-8.499352	-8.958727E-006	-1.973592E-005	9
	28	76	477.4305	117.7828	-21.58024	1	119.7434	-10.38262	1.341541E-006	8.36013E-005	9
	29	78	376.6741	118.9417	-26.92864	1	121.952	-12.75682	1.229571E-006	9.133526E-005	9
	30	80	298.2954	120.2714	-33.48423	1	124.8455	-15.5575	1.295192E-006	8.518126E-005	9
	31	82	237.7717	121.8235	-41.36647	1	128.6552	-18.75546	1.198328E-006	8.703883E-005	9
	32	85	189.0121	123.6914	-51.19862	1	133.8688	-22.48575	1.191466E-006	8.578636E-005	9
	33	87	150.2404	125.9535	-63.31386	1	140.9713	-26.68761	1.336833E-006	7.995938E-005	9
	34	90	119.1737	128.7175	-78.36972	1	150.6984	-31.33516	1.133757E-006	0.0001165	9
	35	92	95.0169	132.0485	-96.3987	1	163.4916	-36.13037	1.341175E-006	8.014209E-005	9
	36	95	75.60484	136.1372	-118.6745	1	180.6017	-41.07954	1.330361E-006	7.864202E-005	9
	37	97	54.50582	143.2332	-159.4936	1	214.3687	-48.07457	1.321631E-006	7.836449E-005	9
	38	100	45.95588	148.021	-186.0347	1	237.7375	-51.49201	1.221855E-006	8.743891E-005	9
	39	102	37.20238	154.677	-225.0191	1	273.0541	-55.49556	1.328661E-006	8.048376E-005	9
	40	104	30.04808	162.6141	-272.7434	1	317.541	-59.19591	1.339226E-006	8.184104E-005	9
	41	107	23.91582	172.5127	-335.0037	1	376.8131	-62.75345	1.33121E-006	7.704066E-005	9
	42	109	18.60119	184.7175	-418.5843	1	457.5296	-66.18855	1.755022E-007	0.0006604	8
	43	112	15.02404	198.0933	-507.981	1	545.2391	-68.6961	2.727992E-007	0.0006693	8
	44	114	12.01923	214.7434	-622.176	1	658.1927	-70.95794	1.63668E-007	0.0006627	8
	45	116	9.450605	236.4536	-774.5226	1	809.812	-73.02312	2.459563E-007	0.000665	8
	46	119	7.512019	261.6419	-955.364	1	990.544	-74.68416	2.477245E-007	0.0006731	8
	47	122	5.978954	293.0832	-1177.079	1	1213.018	-76.01813	2.189919E-007	0.0006628	8
	48	125	4.734848	332.0464	-1458.723	1	1496.038	-77.17638	2.582802E-007	0.0006824	8
	49	128	3.75601	380.8362	-1802.97	1	1842.752	-78.0729	1.963572E-007	0.0006561	8
	50	131	3.004808	438.5971	-2211.282	1	2254.359	-78.78127	2.532293E-007	0.0006516	8
	51	135	2.372217	519.5143	-2744.228	1	2792.97	-79.2801	2.473354E-007	0.0006958	8
	52	139	1.878005	613.5045	-3407.626	1	3462.413	-79.79388	2.263946E-007	0.0006474	8
	53	144	1.512097	724.8728	-4144.534	1	4207.446	-80.0794	2.515933E-007	0.0006881	8
	54	149	1.201923	870.7058	-5141.317	1	5214.525	-80.38789	1.220303E-008	0.0006045	7
	55	156	0.956633	1051.466	-6337.447	1	6424.081	-80.57969	6.692591E-009	-6.334299E-006	7
