EXPLAIN
TAG	EISPOT
TITLE	LABEL	Potentiostatic EIS	Test Identifier
DATE	LABEL	2/25/2021	Date
TIME	LABEL	0:51:38	Time
NOTES	NOTES	1	Notes...
	
PSTAT	PSTAT	REF3000-16137	Potentiostat
VDC	POTEN	0.00000E+000	T	DC Voltage (V)
FREQINIT	QUANT	3.00000E+005	Initial Freq. (Hz)
FREQFINAL	QUANT	1.00000E+000	Final Freq. (Hz)
PTSPERDEC	QUANT	1.00000E+001	Points/decade
VAC	QUANT	5.00000E+001	AC Voltage (mV rms)
AREA	QUANT	1.00000E+000	Sample Area (cm^2)
SPEED	SELECTOR	2	Optimize for:
ZGUESS	QUANT	1.00000E+003	Estimated Z (ohms)
EOC	QUANT	0	Open Circuit (V)
SEQUENCER	TOGGLE	TRUE	Run as Sequence
PSTATMODEL	IQUANT	5	Pstat Model
PSTATSECTION	LABEL	REF3000-16137	Pstat Section
PSTATSERIALNO	LABEL	16137	Pstat Serial Number
CTRLMODE	IQUANT	1	Control Mode
IESTAB	IQUANT	0	I/E Stability
CASPEED	IQUANT	1	Control Amp Speed
CONVENTION	IQUANT	1	Current Convention
ICHRANGE	IQUANT	2	Ich Range
ICHRANGEMODE	TOGGLE	F	Ich Auto Range
ICHOFFSETENABLE	TOGGLE	T	Ich Offset Enable
ICHOFFSET	QUANT	0	Ich Offset (V)
ICHFILTER	IQUANT	3	Ich Filter
VCHRANGE	IQUANT	2	Vch Range
VCHRANGEMODE	TOGGLE	F	Vch Auto Range
VCHOFFSETENABLE	TOGGLE	T	Vch Offset Enable
VCHOFFSET	QUANT	0	Vch Offset (V)
VCHFILTER	IQUANT	3	Vch Filter
ACHRANGE	IQUANT	2	Ach Range
ACHOFFSETENABLE	TOGGLE	F	Ach Offset Enable
ACHOFFSET	QUANT	0	Ach Offset (V)
ACHFILTER	IQUANT	3	Ach Filter
IERANGELOWERLIMIT	IQUANT	2	I/E Range Lower Limit
IERANGEMODE	TOGGLE	F	I/E AutoRange
IERANGE	IQUANT	11	I/E Range
POSFEEDENABLE	TOGGLE	F	Positive Feedback IR Comp
POSFEEDRESISTANCE	QUANT	0	Positive Feedback Resistance (ohm)
ACHSELECT	IQUANT	0	Ach Select
CABLEID	IQUANT	13	Cable ID
DCCALDATE	LABEL	7/31/2020	DC Calibration Date
ACCALDATE	LABEL	7/31/2020	AC Calibration Date
THERMOSELECT	IQUANT	1	Thermo Select
FRAMEWORKVERSION	QUANT	6.33	Framework Version
INSTRUMENTVERSION	LABEL	3.50	Instrument Version
COMPLIANCEVOLTAGE	IQUANT	0	Compliance Voltage
ZCURVE	TABLE
	Pt	Time	Freq	Zreal	Zimag	Zsig	Zmod	Zphz	Idc	Vdc	IERange
	#	s	Hz	ohm	ohm	V	ohm	°	A	V	#
	0	10	300046.9	3.351713	2.240088	1	4.031374	33.75645	-3.689585E-006	-3.063447E-005	10
	1	13	238359.4	3.331318	1.772156	1	3.773356	28.01156	2.811374E-005	-0.0004301	10
	2	17	189328.1	3.316516	1.401222	1	3.600375	22.90397	2.801789E-005	-9.723148E-006	10
	3	19	150421.9	3.301724	1.089567	1	3.476857	18.26287	-1.642109E-005	0.0001264	10
	4	22	119484.4	3.325961	0.6847157	1	3.395711	11.63296	-8.141709E-005	0.0003878	12
	5	25	94921.88	3.297568	0.6289363	1	3.357009	10.79818	-8.044884E-006	0.0006225	11
	6	28	75421.88	3.297153	0.4598925	1	3.329071	7.940485	-1.323659E-005	0.0006203	11
	7	30	59859.37	3.298845	0.3141115	1	3.313766	5.439226	5.230684E-006	0.0006512	11
	8	33	47578.12	3.302759	0.1876947	1	3.308089	3.252601	-2.455418E-006	0.0006731	11
	9	35	37828.12	3.307986	0.0722434	1	3.308774	1.251089	1.88175E-005	0.0007257	11
	10	38	30046.88	3.314903	-0.0388339	1	3.315131	-0.6711861	6.873417E-006	0.0007178	11
	11	41	23859.38	3.323169	-0.1506028	1	3.32658	-2.594814	-3.120386E-005	0.0006989	11
	12	43	18984.38	3.331713	-0.2678663	1	3.342464	-4.596634	-5.588001E-005	0.0006561	11
	13	45	15046.87	3.342737	-0.3992543	1	3.366496	-6.811103	-5.783524E-005	0.000657	11
	14	47	11953.13	3.355653	-0.5478125	1	3.400074	-9.271785	-2.312793E-005	0.0006754	11
	15	50	9515.62	3.372154	-0.7207109	1	3.448311	-12.06399	-5.813291E-005	0.0006638	11
	16	52	7546.875	3.392283	-0.9296246	1	3.517355	-15.32516	1.252621E-005	0.0007294	11
	17	54	5928.309	3.422126	-1.19699	1	3.625429	-19.27879	-2.572528E-005	0.0006967	10
	18	57	4733.456	3.452698	-1.50145	1	3.765033	-23.50243	-2.559328E-005	0.0006939	10
	19	59	3796.875	3.489809	-1.865186	1	3.956979	-28.12301	-2.692835E-005	0.0007232	10
	20	61	2987.132	3.540797	-2.352237	1	4.250913	-33.59706	1.995845E-005	0.0006763	10
	21	64	2390.625	3.600018	-2.912195	1	4.630444	-38.97075	5.952559E-006	0.0006515	10
	22	66	1884.191	3.681069	-3.649865	1	5.183801	-44.75612	1.450265E-005	0.0006833	10
	23	68	1516.544	3.774405	-4.480479	1	5.858397	-49.88884	-2.596522E-005	0.0006969	10
	24	71	1193.986	3.904093	-5.609451	1	6.834317	-55.16267	1.459797E-005	0.0006853	10
	25	73	946.5144	4.064903	-6.977482	1	8.07519	-59.77601	-9.697032E-006	0.0007139	10
	26	75	751.7689	4.271413	-8.647784	1	9.64516	-63.71378	1.012257E-005	0.0006578	10
	27	78	597.4265	4.527281	-10.72045	1	11.6372	-67.10551	-2.659739E-005	0.0006972	10
	28	80	477.4305	4.851724	-13.19733	1	14.06089	-69.81509	-2.257796E-006	0.0006875	10
	29	82	376.6741	5.283633	-16.43769	1	17.26599	-72.18082	-2.106788E-006	0.00069	10
	30	85	298.2954	5.824879	-20.38932	1	21.20504	-74.05627	-2.001819E-006	0.0006861	10
	31	87	237.7717	6.489958	-25.12068	1	25.94549	-75.51431	-2.018777E-006	0.0006857	10
	32	89	189.0121	7.334756	-31.02087	1	31.87622	-76.69697	-2.625885E-006	0.0006894	10
	33	92	150.2404	8.392806	-38.27225	1	39.18169	-77.63127	-2.526059E-006	0.0006846	10
	34	94	119.1737	9.71793	-47.24201	1	48.23117	-78.3761	7.719708E-007	0.0000973	9
	35	97	95.0169	11.34314	-58.06954	1	59.16703	-78.94718	5.159104E-007	0.000121	9
	36	99	75.60484	13.37717	-71.50021	1	72.74084	-79.40289	7.116611E-007	8.583726E-005	9
	37	102	54.50582	17.17579	-96.2807	1	97.8007	-79.88524	4.778518E-007	8.581593E-005	9
	38	104	45.95588	19.70202	-112.4944	1	114.2067	-80.0661	7.815779E-007	9.165763E-005	9
	39	107	37.20238	23.48162	-136.368	1	138.3749	-80.22987	7.089872E-007	8.547383E-005	9
	40	109	30.04808	28.24346	-165.5986	1	167.9899	-80.32112	6.513422E-007	8.863141E-005	9
	41	111	23.91582	34.6937	-203.8785	1	206.8093	-80.34257	6.922875E-007	8.11342E-005	9
	42	114	18.60119	43.96392	-256.317	1	260.0601	-80.26724	7.071316E-007	0.0000954	9
	43	116	15.02404	54.22532	-311.3233	1	316.0104	-80.11952	9.227876E-007	0.0001008	9
	44	118	12.01923	68.28642	-381.2799	1	387.3466	-79.8461	7.162025E-007	8.723812E-005	9
	45	121	9.450605	88.01271	-471.9572	1	480.0936	-79.43656	2.17453E-007	0.000658	8
	46	123	7.512019	113.7677	-580.2946	1	591.3416	-78.90776	1.864002E-007	0.0006571	8
	47	126	5.978954	148.3288	-711.3005	1	726.6016	-78.22081	2.077273E-007	0.0006644	8
	48	129	4.734848	196.3948	-875.1435	1	896.9097	-77.35155	1.461396E-007	0.0006491	8
	49	132	3.75601	262.0697	-1071.13	1	1102.724	-76.25172	2.192152E-007	0.0006922	8
	50	136	3.004808	347.3464	-1297.843	1	1343.52	-75.01688	1.823544E-007	0.0006833	8
	51	139	2.372217	471.9272	-1583.019	1	1651.867	-73.39971	1.6341E-007	0.0006834	8
	52	144	1.878005	645.9861	-1918.501	1	2024.338	-71.3909	2.019573E-007	0.0006417	8
	53	148	1.512097	858.7482	-2276.783	1	2433.35	-69.33472	1.762332E-007	0.0007605	8
	54	154	1.201923	1165.49	-2702.953	1	2943.522	-66.67471	1.966752E-007	0.0006425	8
	55	160	0.956633	1563.962	-3164.996	1	3530.322	-63.70403	6.00702E-008	1.666842E-005	8
