EXPLAIN
TAG	EISPOT
TITLE	LABEL	Potentiostatic EIS	Test Identifier
DATE	LABEL	2/25/2021	Date
TIME	LABEL	2:15:28	Time
NOTES	NOTES	1	Notes...
	
PSTAT	PSTAT	REF3000-16137	Potentiostat
VDC	POTEN	0.00000E+000	T	DC Voltage (V)
FREQINIT	QUANT	3.00000E+005	Initial Freq. (Hz)
FREQFINAL	QUANT	1.00000E+000	Final Freq. (Hz)
PTSPERDEC	QUANT	1.00000E+001	Points/decade
VAC	QUANT	5.00000E+001	AC Voltage (mV rms)
AREA	QUANT	1.00000E+000	Sample Area (cm^2)
SPEED	SELECTOR	2	Optimize for:
ZGUESS	QUANT	1.00000E+003	Estimated Z (ohms)
EOC	QUANT	0	Open Circuit (V)
SEQUENCER	TOGGLE	TRUE	Run as Sequence
PSTATMODEL	IQUANT	5	Pstat Model
PSTATSECTION	LABEL	REF3000-16137	Pstat Section
PSTATSERIALNO	LABEL	16137	Pstat Serial Number
CTRLMODE	IQUANT	1	Control Mode
IESTAB	IQUANT	0	I/E Stability
CASPEED	IQUANT	1	Control Amp Speed
CONVENTION	IQUANT	1	Current Convention
ICHRANGE	IQUANT	2	Ich Range
ICHRANGEMODE	TOGGLE	F	Ich Auto Range
ICHOFFSETENABLE	TOGGLE	T	Ich Offset Enable
ICHOFFSET	QUANT	0	Ich Offset (V)
ICHFILTER	IQUANT	3	Ich Filter
VCHRANGE	IQUANT	2	Vch Range
VCHRANGEMODE	TOGGLE	F	Vch Auto Range
VCHOFFSETENABLE	TOGGLE	T	Vch Offset Enable
VCHOFFSET	QUANT	0	Vch Offset (V)
VCHFILTER	IQUANT	3	Vch Filter
ACHRANGE	IQUANT	2	Ach Range
ACHOFFSETENABLE	TOGGLE	F	Ach Offset Enable
ACHOFFSET	QUANT	0	Ach Offset (V)
ACHFILTER	IQUANT	3	Ach Filter
IERANGELOWERLIMIT	IQUANT	2	I/E Range Lower Limit
IERANGEMODE	TOGGLE	F	I/E AutoRange
IERANGE	IQUANT	11	I/E Range
POSFEEDENABLE	TOGGLE	F	Positive Feedback IR Comp
POSFEEDRESISTANCE	QUANT	0	Positive Feedback Resistance (ohm)
ACHSELECT	IQUANT	0	Ach Select
CABLEID	IQUANT	13	Cable ID
DCCALDATE	LABEL	7/31/2020	DC Calibration Date
ACCALDATE	LABEL	7/31/2020	AC Calibration Date
THERMOSELECT	IQUANT	1	Thermo Select
FRAMEWORKVERSION	QUANT	6.33	Framework Version
INSTRUMENTVERSION	LABEL	3.50	Instrument Version
COMPLIANCEVOLTAGE	IQUANT	0	Compliance Voltage
ZCURVE	TABLE
	Pt	Time	Freq	Zreal	Zimag	Zsig	Zmod	Zphz	Idc	Vdc	IERange
	#	s	Hz	ohm	ohm	V	ohm	°	A	V	#
	0	15	300046.9	1720.78	-1512.782	1	2291.199	-41.31954	2.774409E-005	-0.0019997	9
	1	27	238359.4	2049.669	-1531.436	1	2558.601	-36.76571	2.462039E-005	-0.0015987	9
	2	40	189328.1	2345.315	-1537.873	1	2804.56	-33.25371	8.864324E-005	-0.0024933	9
	3	48	150421.9	2751.997	-1478.661	1	3124.088	-28.24934	-9.055451E-005	0.0022718	9
	4	57	119484.4	3050.212	-1415.677	1	3362.727	-24.89715	2.56844E-005	-0.0017364	9
	5	66	94921.88	3316.018	-1278.28	1	3553.867	-21.08097	-1.544195E-005	8.006585E-005	9
	6	74	75421.88	3577.094	-1058.001	1	3730.278	-16.4767	2.457191E-005	-0.0050272	8
	7	79	59859.37	3797.027	-927.7361	1	3908.722	-13.7302	-2.395909E-005	0.0073041	8
	8	87	47578.12	3971.157	-829.6056	1	4056.887	-11.79983	2.46409E-005	-0.0050222	8
	9	94	37828.12	4158.133	-719.2433	1	4219.879	-9.8135	1.730075E-005	-0.0001856	8
	10	102	30046.88	4325.68	-621.8374	1	4370.147	-8.180502	2.030951E-005	-0.0088721	8
	11	109	23859.38	4494.748	-528.3065	1	4525.69	-6.703708	-1.725555E-005	0.0105192	8
	12	115	18984.38	4584.29	-456.2611	1	4606.939	-5.683766	-9.935791E-006	-0.0014258	8
	13	120	15046.87	4703.476	-380.1028	1	4718.809	-4.620214	-1.706033E-005	0.0103554	8
	14	125	11953.13	4809.009	-306.3432	1	4818.757	-3.644927	-1.5836E-005	0.0011493	8
	15	131	9515.62	4927.746	-271.5955	1	4935.225	-3.154698	2.418269E-005	-0.0084171	8
	16	136	7546.875	5047.822	-231.2843	1	5053.118	-2.62338	2.497528E-005	-0.0051462	8
	17	141	5928.309	5126.987	-201.4697	1	5130.944	-2.250333	-2.441083E-005	0.0092206	8
	18	147	4733.456	5179.944	-178.1333	1	5183.006	-1.969571	-2.221769E-005	0.0103701	8
	19	152	3796.875	5374.432	-147.8745	1	5376.466	-1.576064	-9.53515E-006	-0.0015589	8
	20	158	2987.132	5480.934	-95.0881	1	5481.758	-0.993919	2.49762E-005	-0.0050925	8
	21	163	2390.625	5576.934	-74.57795	1	5577.433	-0.7661462	9.168773E-006	0.0034492	8
	22	168	1884.191	5710.385	-235.2712	1	5715.23	-2.359285	-1.981648E-006	-0.0043799	8
	23	174	1516.544	5803.846	-33.38211	1	5803.942	-0.3295458	-3.516451E-006	0.0218341	7
	24	178	1193.986	5877.051	-49.55074	1	5877.26	-0.4830621	3.343384E-006	-0.0210944	7
	25	183	946.5144	5963.911	-20.74759	1	5963.947	-0.199323	-2.259931E-006	-0.0061355	7
	26	185	751.7689	6057.86	-36.36295	1	6057.969	-0.3439199	-5.168729E-007	-0.0121919	7
	27	188	597.4265	6100.534	-54.04625	1	6100.773	-0.5075852	6.428366E-006	-0.0192895	7
	28	191	477.4305	6144.236	-52.64709	1	6144.462	-0.4909288	-5.012142E-008	0.0006131	7
	29	193	376.6741	6200.171	-58.67836	1	6200.449	-0.5422305	-4.874014E-008	0.0005917	7
	30	195	298.2954	6252.952	-67.22263	1	6253.313	-0.6159371	-5.623606E-008	0.0005997	7
	31	197	237.7717	6311.805	-78.42245	1	6312.292	-0.7118477	-5.467001E-008	0.0006636	7
	32	200	189.0121	6372.716	-93.75093	1	6373.406	-0.8428345	-5.192794E-008	0.000634	7
	33	202	150.2404	6431.646	-113.1093	1	6432.641	-1.007521	-6.072778E-008	0.0006635	7
	34	205	119.1737	6493.822	-136.729	1	6495.262	-1.206198	-6.230137E-008	0.000658	7
	35	207	95.0169	6556.7	-166.2546	1	6558.808	-1.452506	-6.809965E-008	0.0006752	7
	36	210	75.60484	6624.408	-203.5521	1	6627.535	-1.760007	-3.964034E-008	0.0005891	7
	37	212	54.50582	6695.02	-274.278	1	6700.636	-2.345951	-6.109234E-008	0.0005961	7
	38	215	45.95588	6762.403	-317.8694	1	6769.87	-2.69123	-5.593793E-009	0.0006255	7
	39	217	37.20238	6832.323	-389.5458	1	6843.419	-3.263194	-8.26205E-008	0.0006027	7
	40	219	30.04808	6902.675	-469.0334	1	6918.592	-3.887245	-1.361206E-008	0.0006693	7
	41	222	23.91582	6974.877	-586.4917	1	6999.492	-4.806484	1.642811E-008	0.0006644	7
	42	224	18.60119	7056.615	-742.5576	1	7095.577	-6.007046	-1.254014E-007	0.0006196	7
	43	227	15.02404	7140.089	-892.766	1	7195.687	-7.12703	-6.281571E-008	0.000586	7
	44	229	12.01923	7239.946	-1096.021	1	7322.437	-8.60837	-1.127746E-007	0.0006382	7
	45	231	9.450605	7315.839	-1363.175	1	7441.757	-10.55499	6.1798E-008	0.0006743	7
	46	234	7.512019	7430.015	-1710.895	1	7624.453	-12.96735	4.025456E-008	0.0006526	7
	47	237	5.978954	7581.05	-2108.671	1	7868.851	-15.54392	5.550506E-009	0.000604	7
	48	240	4.734848	7764.567	-2609.19	1	8191.238	-18.5743	-7.758466E-008	0.0006391	7
	49	243	3.75601	7963.831	-3232.746	1	8594.955	-22.09363	-2.258062E-008	0.0006865	7
	50	246	3.004808	8188.725	-3949.843	1	9091.561	-25.7504	-6.219974E-008	0.0006921	7
	51	250	2.372217	8486.054	-4897.281	1	9797.78	-29.98914	-3.811204E-008	0.0006613	7
	52	254	1.878005	8844.487	-6044.232	1	10712.5	-34.3483	-4.159318E-008	0.0006175	7
	53	259	1.512097	9259.138	-7339.449	1	11815.21	-38.40284	-4.759327E-008	0.0007303	7
	54	264	1.201923	9775.06	-9022.537	1	13302.56	-42.70749	-4.702538E-008	0.0006163	7
	55	271	0.956633	10390.16	-11064.24	1	15178.04	-46.79958	-6.48964E-008	-1.373012E-005	7
