EXPLAIN
TAG	EISPOT
TITLE	LABEL	Potentiostatic EIS	Test Identifier
DATE	LABEL	2/25/2021	Date
TIME	LABEL	1:41:50	Time
NOTES	NOTES	1	Notes...
	
PSTAT	PSTAT	REF3000-16137	Potentiostat
VDC	POTEN	0.00000E+000	T	DC Voltage (V)
FREQINIT	QUANT	3.00000E+005	Initial Freq. (Hz)
FREQFINAL	QUANT	1.00000E+000	Final Freq. (Hz)
PTSPERDEC	QUANT	1.00000E+001	Points/decade
VAC	QUANT	5.00000E+001	AC Voltage (mV rms)
AREA	QUANT	1.00000E+000	Sample Area (cm^2)
SPEED	SELECTOR	2	Optimize for:
ZGUESS	QUANT	1.00000E+003	Estimated Z (ohms)
EOC	QUANT	0	Open Circuit (V)
SEQUENCER	TOGGLE	TRUE	Run as Sequence
PSTATMODEL	IQUANT	5	Pstat Model
PSTATSECTION	LABEL	REF3000-16137	Pstat Section
PSTATSERIALNO	LABEL	16137	Pstat Serial Number
CTRLMODE	IQUANT	1	Control Mode
IESTAB	IQUANT	0	I/E Stability
CASPEED	IQUANT	1	Control Amp Speed
CONVENTION	IQUANT	1	Current Convention
ICHRANGE	IQUANT	2	Ich Range
ICHRANGEMODE	TOGGLE	F	Ich Auto Range
ICHOFFSETENABLE	TOGGLE	T	Ich Offset Enable
ICHOFFSET	QUANT	0	Ich Offset (V)
ICHFILTER	IQUANT	3	Ich Filter
VCHRANGE	IQUANT	2	Vch Range
VCHRANGEMODE	TOGGLE	F	Vch Auto Range
VCHOFFSETENABLE	TOGGLE	T	Vch Offset Enable
VCHOFFSET	QUANT	0	Vch Offset (V)
VCHFILTER	IQUANT	3	Vch Filter
ACHRANGE	IQUANT	2	Ach Range
ACHOFFSETENABLE	TOGGLE	F	Ach Offset Enable
ACHOFFSET	QUANT	0	Ach Offset (V)
ACHFILTER	IQUANT	3	Ach Filter
IERANGELOWERLIMIT	IQUANT	2	I/E Range Lower Limit
IERANGEMODE	TOGGLE	F	I/E AutoRange
IERANGE	IQUANT	11	I/E Range
POSFEEDENABLE	TOGGLE	F	Positive Feedback IR Comp
POSFEEDRESISTANCE	QUANT	0	Positive Feedback Resistance (ohm)
ACHSELECT	IQUANT	0	Ach Select
CABLEID	IQUANT	13	Cable ID
DCCALDATE	LABEL	7/31/2020	DC Calibration Date
ACCALDATE	LABEL	7/31/2020	AC Calibration Date
THERMOSELECT	IQUANT	1	Thermo Select
FRAMEWORKVERSION	QUANT	6.33	Framework Version
INSTRUMENTVERSION	LABEL	3.50	Instrument Version
COMPLIANCEVOLTAGE	IQUANT	0	Compliance Voltage
ZCURVE	TABLE
	Pt	Time	Freq	Zreal	Zimag	Zsig	Zmod	Zphz	Idc	Vdc	IERange
	#	s	Hz	ohm	ohm	V	ohm	°	A	V	#
	0	7	300046.9	34.467	1.01905	1	34.48206	1.693511	3.274133E-005	0.00017	11
	1	11	238359.4	34.70971	1.18922	1	34.73008	1.962294	6.817398E-005	0.0003728	10
	2	14	189328.1	34.87555	0.9180531	1	34.88763	1.507888	-1.442376E-005	0.0006266	10
	3	17	150421.9	35.0392	0.6425847	1	35.04509	1.050631	-8.755297E-005	0.0007897	10
	4	19	119484.4	35.14373	0.520183	1	35.14758	0.8480066	-8.665508E-005	0.0008344	10
	5	22	94921.88	35.25663	0.3725948	1	35.2586	0.6054838	2.524863E-005	0.0006549	10
	6	24	75421.88	35.37164	0.5055677	1	35.37525	0.8188742	3.380355E-006	-0.0002399	9
	7	27	59859.37	35.50029	0.3187833	1	35.50172	0.5144872	9.632724E-006	-0.0004231	9
	8	29	47578.12	35.6236	0.156764	1	35.62394	0.2521322	1.797556E-005	-0.0004152	9
	9	32	37828.12	35.75554	-0.000535	1	35.75554	-0.0008573	-1.503917E-005	0.0005223	9
	10	34	30046.88	35.8905	-0.1523829	1	35.89082	-0.2432635	1.546773E-005	-0.0004307	9
	11	37	23859.38	36.03913	-0.3003328	1	36.04039	-0.4774643	-1.408162E-005	0.00036	9
	12	39	18984.38	36.16756	-0.4581577	1	36.17046	-0.7257637	-1.20486E-005	0.000338	9
	13	42	15046.87	36.30645	-0.6304724	1	36.31192	-0.994858	-1.201586E-005	0.0005462	9
	14	44	11953.13	36.44857	-0.8327043	1	36.45808	-1.308752	-2.663882E-006	-6.105589E-005	9
	15	46	9515.62	36.59339	-1.07286	1	36.60912	-1.67934	-1.449676E-005	0.0004705	9
	16	49	7546.875	36.7524	-1.368162	1	36.77785	-2.131935	-2.683804E-006	-5.925096E-005	9
	17	51	5928.309	36.91112	-1.725264	1	36.95142	-2.676116	1.484719E-005	-0.0001168	9
	18	53	4733.456	37.07591	-2.145096	1	37.13792	-3.311263	-8.248586E-006	0.0005508	9
	19	55	3796.875	37.25314	-2.662299	1	37.34815	-4.087698	7.841037E-006	0.000172	9
	20	58	2987.132	37.44241	-3.339786	1	37.59106	-5.097177	-1.342106E-005	0.0005518	9
	21	60	2390.625	37.65032	-4.131929	1	37.87637	-6.262855	-1.183048E-005	0.0005427	9
	22	62	1884.191	37.8882	-5.172344	1	38.23962	-7.773736	-1.39957E-005	0.0004032	9
	23	65	1516.544	38.12678	-6.348294	1	38.65168	-9.453301	-1.336677E-005	0.0005448	9
	24	67	1193.986	38.44969	-7.955331	1	39.26406	-11.68969	-7.964034E-006	0.0005497	9
	25	70	946.5144	38.79437	-9.90177	1	40.03808	-14.31832	3.412734E-006	-0.0002477	9
	26	72	751.7689	39.17527	-12.27786	1	41.0542	-17.40143	1.672293E-005	-0.0002061	9
	27	74	597.4265	39.67897	-15.20802	1	42.49359	-20.97066	-1.323482E-005	0.0003772	9
	28	77	477.4305	40.2541	-18.7385	1	44.40184	-24.96224	1.295883E-006	8.804561E-005	9
	29	79	376.6741	40.99548	-23.34744	1	47.17767	-29.66206	1.339544E-006	8.399194E-005	9
	30	81	298.2954	41.8942	-28.95934	1	50.92904	-34.65414	1.411846E-006	7.904379E-005	9
	31	84	237.7717	42.97184	-35.66891	1	55.84667	-39.69448	1.336491E-006	8.123546E-005	9
	32	86	189.0121	44.29387	-44.00737	1	62.43873	-44.8141	1.352293E-006	0.0001065	9
	33	88	150.2404	45.89405	-54.2559	1	71.06312	-49.77275	1.361311E-006	8.186071E-005	9
	34	91	119.1737	47.83265	-67.00359	1	82.32523	-54.47764	1.394866E-006	9.007346E-005	9
	35	93	95.0169	50.1184	-82.3513	1	96.4033	-58.67561	1.334369E-006	7.928235E-005	9
	36	96	75.60484	52.88682	-101.4255	1	114.3859	-62.46087	1.327862E-006	8.584482E-005	9
	37	98	54.50582	57.81068	-136.7341	1	148.453	-67.08154	1.371238E-006	8.162621E-005	9
	38	101	45.95588	61.06261	-159.8658	1	171.1307	-69.09506	1.459335E-006	8.514972E-005	9
	39	103	37.20238	65.7808	-193.9994	1	204.8484	-71.26936	1.459413E-006	7.811078E-005	9
	40	106	30.04808	71.57568	-236.0221	1	246.6364	-73.12964	1.408768E-006	7.945173E-005	9
	41	108	23.91582	79.13637	-291.0491	1	301.6159	-74.78899	1.398455E-006	8.141539E-005	9
	42	110	18.60119	89.56105	-366.5794	1	377.3614	-76.2707	1.302041E-006	8.70168E-005	9
	43	113	15.02404	100.2851	-444.2526	1	455.4311	-77.27932	3.954062E-007	0.0006497	8
	44	115	12.01923	114.6506	-545.1038	1	557.0305	-78.12223	4.654403E-007	0.0006598	8
	45	117	9.450605	134.0152	-679.6456	1	692.7324	-78.8453	4.147609E-007	0.0006595	8
	46	120	7.512019	156.9038	-838.5168	1	853.0705	-79.40134	4.389913E-007	0.0006452	8
	47	123	5.978954	185.7509	-1032.93	1	1049.499	-79.80551	4.582161E-007	0.0006669	8
	48	126	4.734848	221.7913	-1278.143	1	1297.243	-80.15571	4.207348E-007	0.000639	8
	49	129	3.75601	267.6059	-1578.359	1	1600.884	-80.37718	4.626594E-007	0.0006824	8
	50	132	3.004808	321.2539	-1932.326	1	1958.848	-80.56077	4.546798E-007	0.0006475	8
	51	136	2.372217	392.5056	-2398.593	1	2430.495	-80.70649	4.579874E-007	0.0005855	8
	52	140	1.878005	478.213	-2966.709	1	3005.005	-80.84309	4.632107E-007	0.0006707	8
	53	145	1.512097	580.77	-3612.561	1	3658.947	-80.86704	4.54562E-007	0.0005644	8
	54	151	1.201923	709.6241	-4468.902	1	4524.893	-80.97724	2.956769E-008	0.0006536	7
	55	157	0.956633	867.8183	-5503.964	1	5571.959	-81.03986	2.819476E-008	-1.249336E-005	7
