EXPLAIN
TAG	EISPOT
TITLE	LABEL	Potentiostatic EIS	Test Identifier
DATE	LABEL	2/25/2021	Date
TIME	LABEL	1:14:05	Time
NOTES	NOTES	1	Notes...
	
PSTAT	PSTAT	REF3000-16137	Potentiostat
VDC	POTEN	0.00000E+000	T	DC Voltage (V)
FREQINIT	QUANT	3.00000E+005	Initial Freq. (Hz)
FREQFINAL	QUANT	1.00000E+000	Final Freq. (Hz)
PTSPERDEC	QUANT	1.00000E+001	Points/decade
VAC	QUANT	5.00000E+001	AC Voltage (mV rms)
AREA	QUANT	1.00000E+000	Sample Area (cm^2)
SPEED	SELECTOR	2	Optimize for:
ZGUESS	QUANT	1.00000E+003	Estimated Z (ohms)
EOC	QUANT	0	Open Circuit (V)
SEQUENCER	TOGGLE	TRUE	Run as Sequence
PSTATMODEL	IQUANT	5	Pstat Model
PSTATSECTION	LABEL	REF3000-16137	Pstat Section
PSTATSERIALNO	LABEL	16137	Pstat Serial Number
CTRLMODE	IQUANT	1	Control Mode
IESTAB	IQUANT	0	I/E Stability
CASPEED	IQUANT	1	Control Amp Speed
CONVENTION	IQUANT	1	Current Convention
ICHRANGE	IQUANT	2	Ich Range
ICHRANGEMODE	TOGGLE	F	Ich Auto Range
ICHOFFSETENABLE	TOGGLE	T	Ich Offset Enable
ICHOFFSET	QUANT	0	Ich Offset (V)
ICHFILTER	IQUANT	3	Ich Filter
VCHRANGE	IQUANT	2	Vch Range
VCHRANGEMODE	TOGGLE	F	Vch Auto Range
VCHOFFSETENABLE	TOGGLE	T	Vch Offset Enable
VCHOFFSET	QUANT	0	Vch Offset (V)
VCHFILTER	IQUANT	3	Vch Filter
ACHRANGE	IQUANT	2	Ach Range
ACHOFFSETENABLE	TOGGLE	F	Ach Offset Enable
ACHOFFSET	QUANT	0	Ach Offset (V)
ACHFILTER	IQUANT	3	Ach Filter
IERANGELOWERLIMIT	IQUANT	2	I/E Range Lower Limit
IERANGEMODE	TOGGLE	F	I/E AutoRange
IERANGE	IQUANT	11	I/E Range
POSFEEDENABLE	TOGGLE	F	Positive Feedback IR Comp
POSFEEDRESISTANCE	QUANT	0	Positive Feedback Resistance (ohm)
ACHSELECT	IQUANT	0	Ach Select
CABLEID	IQUANT	13	Cable ID
DCCALDATE	LABEL	7/31/2020	DC Calibration Date
ACCALDATE	LABEL	7/31/2020	AC Calibration Date
THERMOSELECT	IQUANT	1	Thermo Select
FRAMEWORKVERSION	QUANT	6.33	Framework Version
INSTRUMENTVERSION	LABEL	3.50	Instrument Version
COMPLIANCEVOLTAGE	IQUANT	0	Compliance Voltage
ZCURVE	TABLE
	Pt	Time	Freq	Zreal	Zimag	Zsig	Zmod	Zphz	Idc	Vdc	IERange
	#	s	Hz	ohm	ohm	V	ohm	°	A	V	#
	0	10	300046.9	6.589824	2.184089	1	6.942336	18.33693	7.481844E-005	-2.44097E-006	10
	1	13	238359.4	6.572016	1.741402	1	6.798814	14.84074	7.519968E-005	-0.0001776	10
	2	17	189328.1	6.566842	1.375277	1	6.709307	11.82835	-1.494686E-005	0.0002853	10
	3	19	150421.9	6.57505	1.070213	1	6.661579	9.244887	-4.001856E-006	0.0003404	10
	4	22	119484.4	6.568678	0.8263015	1	6.620446	7.169816	-1.456372E-005	0.0005482	10
	5	24	94921.88	6.578414	0.6447558	1	6.609935	5.597729	-1.925912E-005	0.0005934	10
	6	27	75421.88	6.582524	0.4640387	1	6.59886	4.032427	1.27766E-005	0.0005676	10
	7	29	59859.37	6.5944	0.3082422	1	6.601601	2.67623	-1.509616E-005	0.0006337	10
	8	32	47578.12	6.606517	0.1713423	1	6.608738	1.485653	2.132748E-005	0.000618	10
	9	34	37828.12	6.622914	0.0467918	1	6.623079	0.4047958	-1.863214E-005	0.0006487	10
	10	37	30046.88	6.641418	-0.0725082	1	6.641814	-0.6255066	-1.69136E-005	0.0007075	10
	11	39	23859.38	6.658905	-0.1935977	1	6.661719	-1.66532	-1.090785E-005	0.0007104	10
	12	42	18984.38	6.677734	-0.3209595	1	6.685443	-2.751754	-2.024305E-005	0.0007042	10
	13	44	15046.87	6.697326	-0.4649467	1	6.713445	-3.971258	1.48752E-005	0.000646	10
	14	46	11953.13	6.723124	-0.6297092	1	6.75255	-5.350894	-2.306464E-005	0.000713	10
	15	49	9515.62	6.748869	-0.8222499	1	6.798774	-6.946408	-5.230939E-006	0.0006513	10
	16	51	7546.875	6.78051	-1.056035	1	6.862254	-8.852445	7.835177E-006	0.0007102	10
	17	53	5928.309	6.817753	-1.352507	1	6.950614	-11.22066	2.025992E-005	0.0006599	10
	18	55	4733.456	6.860348	-1.692419	1	7.066021	-13.85792	2.16356E-005	0.0006706	10
	19	58	3796.875	6.910863	-2.09873	1	7.222513	-16.89278	2.037586E-007	0.0006645	10
	20	60	2987.132	6.976936	-2.643765	1	7.46104	-20.75316	2.197307E-005	0.0006672	10
	21	62	2390.625	7.052719	-3.270648	1	7.774187	-24.87918	-2.631988E-005	0.0006821	10
	22	65	1884.191	7.153625	-4.096305	1	8.243426	-29.79629	1.863738E-005	0.0006778	10
	23	67	1516.544	7.267692	-5.025487	1	8.835999	-34.66321	1.411428E-005	0.0006805	10
	24	69	1193.986	7.423163	-6.285717	1	9.72695	-40.25695	-1.260389E-005	0.0006743	10
	25	72	946.5144	7.611868	-7.805425	1	10.90253	-45.71928	-2.379919E-005	0.000712	10
	26	74	751.7689	7.837481	-9.67438	1	12.45069	-50.98812	3.029317E-006	0.000645	10
	27	76	597.4265	8.121358	-11.98367	1	14.47635	-55.87443	1.448522E-005	0.0006742	10
	28	79	477.4305	8.464978	-14.75804	1	17.01339	-60.1621	-2.821138E-006	0.0006794	10
	29	81	376.6741	8.918139	-18.39117	1	20.43938	-64.13059	-3.282088E-006	0.0006833	10
	30	83	298.2954	9.480455	-22.83966	1	24.72911	-67.45728	-2.459275E-006	0.0006815	10
	31	86	237.7717	10.17047	-28.18608	1	29.96488	-70.15888	-2.925527E-006	0.000682	10
	32	88	189.0121	11.04767	-34.85733	1	36.56617	-72.41454	-2.870406E-006	0.0006824	10
	33	91	150.2404	12.13598	-43.03972	1	44.718	-74.25306	1.023315E-006	8.101468E-005	9
	34	93	119.1737	13.54046	-53.28931	1	54.98267	-75.74323	1.096743E-006	8.314943E-005	9
	35	95	95.0169	15.26786	-65.63461	1	67.38701	-76.90479	1.03026E-006	8.044887E-005	9
	36	98	75.60484	17.44695	-80.94958	1	82.8084	-77.83717	8.276731E-007	0.000118	9
	37	100	54.50582	21.538	-109.2	1	111.3037	-78.84251	9.799614E-007	8.066904E-005	9
	38	103	45.95588	24.2479	-127.6338	1	129.9167	-79.24313	1.157641E-006	8.654803E-005	9
	39	105	37.20238	28.24296	-154.7459	1	157.3021	-79.65668	1.100165E-006	8.714396E-005	9
	40	108	30.04808	33.19887	-187.987	1	190.896	-79.98472	1.09473E-006	8.577983E-005	9
	41	110	23.91582	39.61841	-231.3473	1	234.7151	-80.28232	1.018512E-006	8.647787E-005	9
	42	112	18.60119	48.43377	-290.7898	1	294.7958	-80.54366	1.149282E-006	8.779837E-005	9
	43	115	15.02404	57.72343	-353.3227	1	358.0069	-80.72138	1.108892E-006	8.088427E-005	9
	44	117	12.01923	69.50898	-431.241	1	436.807	-80.84361	5.071031E-007	0.0006674	8
	45	120	9.450605	85.94822	-537.0635	1	543.8973	-80.90784	4.644929E-007	0.0006656	8
	46	122	7.512019	105.9088	-662.2232	1	670.6387	-80.91368	5.075274E-007	0.0006686	8
	47	125	5.978954	130.7601	-815.2255	1	825.6456	-80.88752	5.244011E-007	0.0006665	8
	48	128	4.734848	163.7352	-1008.705	1	1021.907	-80.78004	5.074351E-007	0.0006442	8
	49	131	3.75601	206.9015	-1245.239	1	1262.31	-80.56625	5.670259E-007	0.0006856	8
	50	134	3.004808	261.1505	-1523.562	1	1545.781	-80.27357	5.251744E-007	0.0006558	8
	51	138	2.372217	339.4247	-1885.786	1	1916.09	-79.79652	4.896524E-007	0.0006128	8
	52	142	1.878005	438.1169	-2332.04	1	2372.837	-79.35995	5.449359E-007	0.0006598	8
	53	147	1.512097	556.0291	-2827.14	1	2881.3	-78.87334	5.15121E-007	0.0007012	8
	54	153	1.201923	732.9427	-3477.92	1	3554.312	-78.09953	5.477767E-007	0.0006741	8
	55	159	0.956633	964.539	-4253.678	1	4361.664	-77.22399	4.951206E-007	2.047521E-005	8
