EXPLAIN
TAG	EISPOT
TITLE	LABEL	Potentiostatic EIS	Test Identifier
DATE	LABEL	2/25/2021	Date
TIME	LABEL	2:11:12	Time
NOTES	NOTES	1	Notes...
	
PSTAT	PSTAT	REF3000-16137	Potentiostat
VDC	POTEN	0.00000E+000	T	DC Voltage (V)
FREQINIT	QUANT	3.00000E+005	Initial Freq. (Hz)
FREQFINAL	QUANT	1.00000E+000	Final Freq. (Hz)
PTSPERDEC	QUANT	1.00000E+001	Points/decade
VAC	QUANT	5.00000E+001	AC Voltage (mV rms)
AREA	QUANT	1.00000E+000	Sample Area (cm^2)
SPEED	SELECTOR	2	Optimize for:
ZGUESS	QUANT	1.00000E+003	Estimated Z (ohms)
EOC	QUANT	0	Open Circuit (V)
SEQUENCER	TOGGLE	TRUE	Run as Sequence
PSTATMODEL	IQUANT	5	Pstat Model
PSTATSECTION	LABEL	REF3000-16137	Pstat Section
PSTATSERIALNO	LABEL	16137	Pstat Serial Number
CTRLMODE	IQUANT	1	Control Mode
IESTAB	IQUANT	0	I/E Stability
CASPEED	IQUANT	1	Control Amp Speed
CONVENTION	IQUANT	1	Current Convention
ICHRANGE	IQUANT	2	Ich Range
ICHRANGEMODE	TOGGLE	F	Ich Auto Range
ICHOFFSETENABLE	TOGGLE	T	Ich Offset Enable
ICHOFFSET	QUANT	0	Ich Offset (V)
ICHFILTER	IQUANT	3	Ich Filter
VCHRANGE	IQUANT	2	Vch Range
VCHRANGEMODE	TOGGLE	F	Vch Auto Range
VCHOFFSETENABLE	TOGGLE	T	Vch Offset Enable
VCHOFFSET	QUANT	0	Vch Offset (V)
VCHFILTER	IQUANT	3	Vch Filter
ACHRANGE	IQUANT	2	Ach Range
ACHOFFSETENABLE	TOGGLE	F	Ach Offset Enable
ACHOFFSET	QUANT	0	Ach Offset (V)
ACHFILTER	IQUANT	3	Ach Filter
IERANGELOWERLIMIT	IQUANT	2	I/E Range Lower Limit
IERANGEMODE	TOGGLE	F	I/E AutoRange
IERANGE	IQUANT	11	I/E Range
POSFEEDENABLE	TOGGLE	F	Positive Feedback IR Comp
POSFEEDRESISTANCE	QUANT	0	Positive Feedback Resistance (ohm)
ACHSELECT	IQUANT	0	Ach Select
CABLEID	IQUANT	13	Cable ID
DCCALDATE	LABEL	7/31/2020	DC Calibration Date
ACCALDATE	LABEL	7/31/2020	AC Calibration Date
THERMOSELECT	IQUANT	1	Thermo Select
FRAMEWORKVERSION	QUANT	6.33	Framework Version
INSTRUMENTVERSION	LABEL	3.50	Instrument Version
COMPLIANCEVOLTAGE	IQUANT	0	Compliance Voltage
ZCURVE	TABLE
	Pt	Time	Freq	Zreal	Zimag	Zsig	Zmod	Zphz	Idc	Vdc	IERange
	#	s	Hz	ohm	ohm	V	ohm	°	A	V	#
	0	15	300046.9	1213.428	-521.6491	1	1320.805	-23.26272	2.409787E-005	-0.001647	9
	1	37	238359.4	1344.337	-501.7817	1	1434.931	-20.46839	-1.742328E-006	-0.0018673	9
	2	56	189328.1	1461.533	-471.5727	1	1535.728	-17.88262	7.827709E-005	-0.0016298	9
	3	67	150421.9	1527.529	-390.1595	1	1576.569	-14.32807	4.946329E-005	0.0000997	9
	4	73	119484.4	1635.496	-310.23	1	1664.66	-10.74057	1.32625E-005	-0.010784	8
	5	81	94921.88	1699.031	-266.8503	1	1719.859	-8.925974	1.812487E-005	-0.0079581	8
	6	85	75421.88	1728.593	-222.3549	1	1742.835	-7.329904	1.829023E-007	0.0059829	8
	7	88	59859.37	1763.947	-185.9877	1	1773.725	-6.018933	-2.561273E-006	-0.0036176	8
	8	91	47578.12	1792.196	-161.4226	1	1799.451	-5.146729	2.071399E-005	-0.0029675	8
	9	94	37828.12	1820.475	-134.0864	1	1825.407	-4.212491	-1.497168E-005	0.0014262	8
	10	100	30046.88	1859.867	-111.7548	1	1863.221	-3.438627	1.810673E-005	-0.0079378	8
	11	104	23859.38	1884.865	-91.96475	1	1887.107	-2.793313	1.634403E-005	-0.0003766	8
	12	107	18984.38	1909.128	-75.81245	1	1910.632	-2.27405	1.823343E-005	-0.0079742	8
	13	111	15046.87	1934.656	-61.71814	1	1935.641	-1.827193	-2.219714E-005	0.0069625	8
	14	115	11953.13	1956.025	-47.81659	1	1956.609	-1.400362	8.906948E-006	0.0029486	8
	15	118	9515.62	1983.312	-44.39025	1	1983.809	-1.282173	5.441059E-006	-0.0060232	8
	16	121	7546.875	2007.25	-38.68472	1	2007.622	-1.104096	1.269713E-005	-0.0074685	8
	17	125	5928.309	2039.991	-34.02718	1	2040.274	-0.955609	1.271933E-005	-0.007528	8
	18	129	4733.456	2049.978	-23.05774	1	2050.107	-0.6444245	-2.22729E-005	0.0069533	8
	19	133	3796.875	2086.791	-25.83842	1	2086.951	-0.709394	-2.211285E-005	0.0085777	8
	20	137	2987.132	2110.445	-18.5127	1	2110.526	-0.5025824	2.354245E-005	-0.0065432	8
	21	141	2390.625	2149.956	-18.29804	1	2150.034	-0.4876264	2.188844E-005	-0.0075736	8
	22	146	1884.191	2178.446	-12.69452	1	2178.483	-0.3338775	-2.224108E-005	0.0085924	8
	23	150	1516.544	2204.042	-25.78082	1	2204.193	-0.6701617	-2.430101E-006	-0.0037709	8
	24	154	1193.986	2237.974	-11.73508	1	2238.005	-0.3004344	2.120126E-005	-0.0029045	8
	25	159	946.5144	2265.339	-12.28039	1	2265.372	-0.3105972	-2.91683E-006	-0.003702	8
	26	161	751.7689	2286.693	-8.180824	1	2286.708	-0.2049793	-2.838853E-007	0.0062937	8
	27	164	597.4265	2313.857	-9.78122	1	2313.878	-0.2422013	2.43763E-005	-0.0067783	8
	28	167	477.4305	2322.787	-35.77757	1	2323.062	-0.8824494	-9.792038E-008	0.0006461	8
	29	169	376.6741	2341.683	-42.63831	1	2342.071	-1.043149	-1.1916E-007	0.0006456	8
	30	171	298.2954	2360.756	-51.52383	1	2361.318	-1.25029	-9.509946E-008	0.000649	8
	31	174	237.7717	2381.37	-62.59104	1	2382.192	-1.505594	-1.131675E-007	0.0006524	8
	32	176	189.0121	2402.24	-76.75646	1	2403.466	-1.830094	-1.226103E-007	0.0006628	8
	33	178	150.2404	2423.329	-94.07347	1	2425.154	-2.223102	-9.446309E-008	0.0006491	8
	34	181	119.1737	2445.388	-116.1359	1	2448.144	-2.719037	-1.178842E-007	0.000642	8
	35	183	95.0169	2468.108	-142.8038	1	2472.236	-3.31142	-9.255429E-008	0.0006398	8
	36	186	75.60484	2492.741	-176.0355	1	2498.949	-4.039477	-1.629843E-007	0.0006719	8
	37	188	54.50582	2521.423	-237.9126	1	2532.622	-5.390269	-1.511705E-007	0.00068	8
	38	191	45.95588	2546.861	-278.8067	1	2562.076	-6.247334	-1.711711E-007	0.0006709	8
	39	193	37.20238	2572.999	-339.4392	1	2595.292	-7.515265	-1.547591E-007	0.0006596	8
	40	196	30.04808	2603.984	-413.3749	1	2636.591	-9.020267	-1.182197E-007	0.0006811	8
	41	198	23.91582	2636.244	-512.5432	1	2685.607	-11.00229	-4.898232E-008	0.0006651	8
	42	201	18.60119	2679.487	-646.6559	1	2756.413	-13.56807	-2.296906E-007	0.0006462	8
	43	203	15.02404	2715.745	-787.5852	1	2827.643	-16.17253	-8.497167E-008	0.0006446	8
	44	205	12.01923	2763.991	-962.004	1	2926.619	-19.19039	-2.656613E-008	0.0006685	8
	45	208	9.450605	2825.329	-1202.683	1	3070.656	-23.05842	-2.173663E-007	0.0006608	8
	46	210	7.512019	2891.639	-1485.272	1	3250.786	-27.18701	-2.300278E-007	0.0006669	8
	47	213	5.978954	2980.805	-1828.109	1	3496.738	-31.52052	-1.519797E-007	0.0006664	8
	48	216	4.734848	3090.284	-2260.206	1	3828.627	-36.1814	-7.191115E-008	0.0006795	8
	49	219	3.75601	3228.949	-2786.689	1	4265.178	-40.79527	-6.466574E-008	0.0006139	7
	50	223	3.004808	3382.027	-3394.859	1	4791.991	-45.10848	-4.162159E-008	0.0006513	7
	51	226	2.372217	3575.541	-4177.276	1	5498.557	-49.43812	-4.328378E-008	0.0006609	7
	52	231	1.878005	3812.59	-5144.357	1	6403.144	-53.45709	-5.62297E-008	0.0006282	7
	53	235	1.512097	4064.98	-6228.217	1	7437.389	-56.86866	-4.306557E-008	0.0005858	7
	54	241	1.201923	4398.759	-7639.057	1	8815.003	-60.06559	-5.174846E-008	0.000627	7
	55	247	0.956633	4779.767	-9346.261	1	10497.56	-62.91436	-4.932375E-008	-9.909357E-006	7
