EXPLAIN
TAG	EISPOT
TITLE	LABEL	Potentiostatic EIS	Test Identifier
DATE	LABEL	2/25/2021	Date
TIME	LABEL	0:57:15	Time
NOTES	NOTES	1	Notes...
	
PSTAT	PSTAT	REF3000-16137	Potentiostat
VDC	POTEN	0.00000E+000	T	DC Voltage (V)
FREQINIT	QUANT	3.00000E+005	Initial Freq. (Hz)
FREQFINAL	QUANT	1.00000E+000	Final Freq. (Hz)
PTSPERDEC	QUANT	1.00000E+001	Points/decade
VAC	QUANT	5.00000E+001	AC Voltage (mV rms)
AREA	QUANT	1.00000E+000	Sample Area (cm^2)
SPEED	SELECTOR	2	Optimize for:
ZGUESS	QUANT	1.00000E+003	Estimated Z (ohms)
EOC	QUANT	0	Open Circuit (V)
SEQUENCER	TOGGLE	TRUE	Run as Sequence
PSTATMODEL	IQUANT	5	Pstat Model
PSTATSECTION	LABEL	REF3000-16137	Pstat Section
PSTATSERIALNO	LABEL	16137	Pstat Serial Number
CTRLMODE	IQUANT	1	Control Mode
IESTAB	IQUANT	0	I/E Stability
CASPEED	IQUANT	1	Control Amp Speed
CONVENTION	IQUANT	1	Current Convention
ICHRANGE	IQUANT	2	Ich Range
ICHRANGEMODE	TOGGLE	F	Ich Auto Range
ICHOFFSETENABLE	TOGGLE	T	Ich Offset Enable
ICHOFFSET	QUANT	0	Ich Offset (V)
ICHFILTER	IQUANT	3	Ich Filter
VCHRANGE	IQUANT	2	Vch Range
VCHRANGEMODE	TOGGLE	F	Vch Auto Range
VCHOFFSETENABLE	TOGGLE	T	Vch Offset Enable
VCHOFFSET	QUANT	0	Vch Offset (V)
VCHFILTER	IQUANT	3	Vch Filter
ACHRANGE	IQUANT	2	Ach Range
ACHOFFSETENABLE	TOGGLE	F	Ach Offset Enable
ACHOFFSET	QUANT	0	Ach Offset (V)
ACHFILTER	IQUANT	3	Ach Filter
IERANGELOWERLIMIT	IQUANT	2	I/E Range Lower Limit
IERANGEMODE	TOGGLE	F	I/E AutoRange
IERANGE	IQUANT	11	I/E Range
POSFEEDENABLE	TOGGLE	F	Positive Feedback IR Comp
POSFEEDRESISTANCE	QUANT	0	Positive Feedback Resistance (ohm)
ACHSELECT	IQUANT	0	Ach Select
CABLEID	IQUANT	13	Cable ID
DCCALDATE	LABEL	7/31/2020	DC Calibration Date
ACCALDATE	LABEL	7/31/2020	AC Calibration Date
THERMOSELECT	IQUANT	1	Thermo Select
FRAMEWORKVERSION	QUANT	6.33	Framework Version
INSTRUMENTVERSION	LABEL	3.50	Instrument Version
COMPLIANCEVOLTAGE	IQUANT	0	Compliance Voltage
ZCURVE	TABLE
	Pt	Time	Freq	Zreal	Zimag	Zsig	Zmod	Zphz	Idc	Vdc	IERange
	#	s	Hz	ohm	ohm	V	ohm	°	A	V	#
	0	10	300046.9	3.838192	2.224506	1	4.43623	30.09535	2.608908E-005	2.293561E-006	10
	1	14	238359.4	3.794365	1.775243	1	4.189116	25.07316	1.277793E-006	-0.0003189	10
	2	17	189328.1	3.783791	1.399396	1	4.034276	20.2964	-0.0000953	-3.684936E-005	10
	3	19	150421.9	3.779718	1.088305	1	3.933278	16.06285	1.460988E-005	0.0001869	10
	4	22	119484.4	3.768568	0.8442855	1	3.861984	12.62766	2.187466E-005	0.0003449	10
	5	24	94921.88	3.766264	0.6526607	1	3.822396	9.83122	1.929341E-005	0.0004257	10
	6	27	75421.88	3.768974	0.4785189	1	3.799229	7.235711	4.426516E-006	0.0005156	10
	7	29	59859.37	3.772279	0.3277671	1	3.786492	4.965865	-1.097851E-005	0.0005703	10
	8	32	47578.12	3.777179	0.1960393	1	3.782263	2.971041	-1.563359E-005	0.0006566	10
	9	35	37828.12	3.783031	0.0761684	1	3.783798	1.15345	-4.643754E-006	0.00059	10
	10	37	30046.88	3.791216	-0.0392028	1	3.791419	-0.5924412	1.805983E-005	0.000644	10
	11	40	23859.38	3.800188	-0.155346	1	3.803362	-2.340863	1.993739E-005	0.0006398	10
	12	42	18984.38	3.811654	-0.2758639	1	3.821624	-4.139495	-2.899538E-005	0.0006579	10
	13	44	15046.87	3.824448	-0.4104711	1	3.846413	-6.126001	-1.556191E-006	0.0006403	10
	14	47	11953.13	3.83912	-0.5627081	1	3.880139	-8.338592	-1.32113E-007	0.0006564	10
	15	49	9515.62	3.857601	-0.7392616	1	3.927798	-10.8485	-5.625532E-007	0.0006697	10
	16	51	7546.875	3.879691	-0.954451	1	3.99537	-13.821	-2.17655E-005	0.000709	10
	17	54	5928.309	3.906983	-1.227069	1	4.095145	-17.43598	-1.887427E-005	0.0006817	10
	18	56	4733.456	3.939296	-1.538475	1	4.229061	-21.33291	-2.570278E-005	0.0006927	10
	19	58	3796.875	3.978402	-1.910884	1	4.41352	-25.65565	2.015999E-005	0.0006866	10
	20	60	2987.132	4.031821	-2.408821	1	4.696595	-30.85631	-2.370131E-005	0.0007339	10
	21	63	2390.625	4.093666	-2.981228	1	5.06417	-36.06413	1.653528E-005	0.000692	10
	22	65	1884.191	4.178306	-3.735	1	5.604326	-41.79363	1.110603E-005	0.0006507	10
	23	67	1516.544	4.274125	-4.584248	1	6.267653	-47.00505	-4.907542E-006	0.0006625	10
	24	70	1193.986	4.405416	-5.74114	1	7.2366	-52.49947	-2.672506E-005	0.0006907	10
	25	72	946.5144	4.575429	-7.131129	1	8.472754	-57.31522	6.670368E-006	0.0006576	10
	26	75	751.7689	4.770291	-8.849815	1	10.0536	-61.67413	-2.458992E-005	0.000698	10
	27	77	597.4265	5.033762	-10.96356	1	12.06393	-65.33846	2.022537E-005	0.0006653	10
	28	79	477.4305	5.358481	-13.50919	1	14.53312	-68.36402	-2.794222E-006	0.0006795	10
	29	82	376.6741	5.791977	-16.83182	1	17.80048	-71.01121	-2.9036E-006	0.0006798	10
	30	84	298.2954	6.335615	-20.88743	1	21.82716	-73.1263	-2.86897E-006	0.0006857	10
	31	86	237.7717	7.002816	-25.74663	1	26.68199	-74.78423	-3.011439E-006	0.0006833	10
	32	89	189.0121	7.853754	-31.80737	1	32.76263	-76.13017	-2.455585E-006	0.000683	10
	33	91	150.2404	8.92366	-39.26161	1	40.26295	-77.19495	-2.511618E-006	0.0006854	10
	34	93	119.1737	10.26189	-48.48122	1	49.55537	-78.04875	8.501848E-007	8.307167E-005	9
	35	96	95.0169	11.90816	-59.61496	1	60.79266	-78.70377	8.051751E-007	8.768083E-005	9
	36	98	75.60484	13.96448	-73.41837	1	74.73462	-79.23074	7.033068E-007	8.197011E-005	9
	37	101	54.50582	17.79939	-98.8829	1	100.4721	-79.79576	6.410245E-007	7.676291E-005	9
	38	103	45.95588	20.31666	-115.5261	1	117.2989	-80.02583	8.267302E-007	8.844653E-005	9
	39	106	37.20238	24.07352	-140.0003	1	142.055	-80.24322	8.355383E-007	9.160659E-005	9
	40	108	30.04808	28.74324	-170.0739	1	172.4857	-80.40741	7.629849E-007	8.117729E-005	9
	41	111	23.91582	35.00652	-209.5303	1	212.4344	-80.51511	6.46355E-007	8.357168E-005	9
	42	113	18.60119	43.90757	-263.2792	1	266.9153	-80.53181	9.422686E-007	8.147018E-005	9
	43	115	15.02404	53.66365	-319.9672	1	324.4361	-80.47919	1.03179E-006	9.257696E-005	9
	44	118	12.01923	66.68863	-392.046	1	397.6775	-80.34616	8.526629E-007	8.68475E-005	9
	45	120	9.450605	84.92984	-485.6545	1	493.0247	-80.08059	3.166628E-007	0.0006557	8
	46	122	7.512019	108.5367	-598.3215	1	608.0862	-79.71824	3.250411E-007	0.0006634	8
	47	125	5.978954	139.5666	-734.6111	1	747.7515	-79.24274	3.271846E-007	0.0006648	8
	48	128	4.734848	182.0795	-905.8953	1	924.0126	-78.63532	2.795663E-007	0.0006431	8
	49	131	3.75601	240.2219	-1112.925	1	1138.556	-77.81973	3.451626E-007	0.0006841	8
	50	135	3.004808	315.3315	-1353.861	1	1390.098	-76.88883	3.255436E-007	0.0006598	8
	51	139	2.372217	426.5649	-1661.639	1	1715.518	-75.60232	2.861827E-007	0.0006052	8
	52	143	1.878005	574.2974	-2031.514	1	2111.129	-74.21471	3.454964E-007	0.0006607	8
	53	148	1.512097	757.1889	-2431.334	1	2546.511	-72.70187	3.106774E-007	0.0007035	8
	54	153	1.201923	1032.057	-2934.098	1	3110.318	-70.62088	3.432109E-007	0.0006695	8
	55	159	0.956633	1395.904	-3499.533	1	3767.662	-68.25378	2.297806E-007	2.513251E-005	8
