EXPLAIN
TAG	EISPOT
TITLE	LABEL	Potentiostatic EIS	Test Identifier
DATE	LABEL	2/25/2021	Date
TIME	LABEL	0:48:49	Time
NOTES	NOTES	1	Notes...
	
PSTAT	PSTAT	REF3000-16137	Potentiostat
VDC	POTEN	0.00000E+000	T	DC Voltage (V)
FREQINIT	QUANT	3.00000E+005	Initial Freq. (Hz)
FREQFINAL	QUANT	1.00000E+000	Final Freq. (Hz)
PTSPERDEC	QUANT	1.00000E+001	Points/decade
VAC	QUANT	5.00000E+001	AC Voltage (mV rms)
AREA	QUANT	1.00000E+000	Sample Area (cm^2)
SPEED	SELECTOR	2	Optimize for:
ZGUESS	QUANT	1.00000E+003	Estimated Z (ohms)
EOC	QUANT	0	Open Circuit (V)
SEQUENCER	TOGGLE	TRUE	Run as Sequence
PSTATMODEL	IQUANT	5	Pstat Model
PSTATSECTION	LABEL	REF3000-16137	Pstat Section
PSTATSERIALNO	LABEL	16137	Pstat Serial Number
CTRLMODE	IQUANT	1	Control Mode
IESTAB	IQUANT	0	I/E Stability
CASPEED	IQUANT	1	Control Amp Speed
CONVENTION	IQUANT	1	Current Convention
ICHRANGE	IQUANT	2	Ich Range
ICHRANGEMODE	TOGGLE	F	Ich Auto Range
ICHOFFSETENABLE	TOGGLE	T	Ich Offset Enable
ICHOFFSET	QUANT	0	Ich Offset (V)
ICHFILTER	IQUANT	3	Ich Filter
VCHRANGE	IQUANT	2	Vch Range
VCHRANGEMODE	TOGGLE	F	Vch Auto Range
VCHOFFSETENABLE	TOGGLE	T	Vch Offset Enable
VCHOFFSET	QUANT	0	Vch Offset (V)
VCHFILTER	IQUANT	3	Vch Filter
ACHRANGE	IQUANT	2	Ach Range
ACHOFFSETENABLE	TOGGLE	F	Ach Offset Enable
ACHOFFSET	QUANT	0	Ach Offset (V)
ACHFILTER	IQUANT	3	Ach Filter
IERANGELOWERLIMIT	IQUANT	2	I/E Range Lower Limit
IERANGEMODE	TOGGLE	F	I/E AutoRange
IERANGE	IQUANT	11	I/E Range
POSFEEDENABLE	TOGGLE	F	Positive Feedback IR Comp
POSFEEDRESISTANCE	QUANT	0	Positive Feedback Resistance (ohm)
ACHSELECT	IQUANT	0	Ach Select
CABLEID	IQUANT	13	Cable ID
DCCALDATE	LABEL	7/31/2020	DC Calibration Date
ACCALDATE	LABEL	7/31/2020	AC Calibration Date
THERMOSELECT	IQUANT	1	Thermo Select
FRAMEWORKVERSION	QUANT	6.33	Framework Version
INSTRUMENTVERSION	LABEL	3.50	Instrument Version
COMPLIANCEVOLTAGE	IQUANT	0	Compliance Voltage
ZCURVE	TABLE
	Pt	Time	Freq	Zreal	Zimag	Zsig	Zmod	Zphz	Idc	Vdc	IERange
	#	s	Hz	ohm	ohm	V	ohm	°	A	V	#
	0	10	300046.9	3.174681	2.258236	1	3.895925	35.42527	-5.255592E-005	-6.313736E-005	10
	1	13	238359.4	3.141093	1.781954	1	3.611347	29.56641	-9.846297E-006	-0.0004522	10
	2	16	189328.1	3.119285	1.405723	1	3.421403	24.25897	-1.380646E-005	-0.0001595	10
	3	19	150421.9	3.168206	0.9079281	1	3.295734	15.99097	-0.0001458	0.0000985	12
	4	22	119484.4	3.108833	0.8311676	1	3.218024	14.96833	6.552628E-005	0.0004793	11
	5	25	94921.88	3.101961	0.6305816	1	3.165406	11.49078	-5.7864E-006	0.0005667	11
	6	28	75421.88	3.10265	0.4624379	1	3.136923	8.477306	1.753976E-005	0.0006458	11
	7	30	59859.37	3.103549	0.3169272	1	3.119689	5.830699	2.148675E-005	0.0006696	11
	8	33	47578.12	3.107525	0.1910805	1	3.113394	3.518665	-5.8809E-006	0.0006631	11
	9	35	37828.12	3.112879	0.0763231	1	3.113815	1.404524	-4.208542E-005	0.0006708	11
	10	38	30046.88	3.118363	-0.0346266	1	3.118555	-0.6361922	-5.658723E-006	0.0006875	11
	11	40	23859.38	3.124919	-0.1457034	1	3.128314	-2.669557	1.071462E-005	0.0007031	11
	12	43	18984.38	3.135141	-0.2616268	1	3.146038	-4.770268	-3.19382E-005	0.000693	11
	13	45	15046.87	3.145752	-0.3915639	1	3.170028	-7.095333	-3.433885E-005	0.0007006	11
	14	47	11953.13	3.157027	-0.5388209	1	3.202678	-9.68555	-2.884003E-005	0.0006652	11
	15	49	9515.62	3.172957	-0.7097359	1	3.251366	-12.60853	-5.867429E-005	0.0006542	11
	16	52	7546.875	3.192416	-0.9173235	1	3.321596	-16.03172	-4.45903E-005	0.0006728	11
	17	54	5928.309	3.218023	-1.180215	1	3.42762	-20.14059	-3.990004E-005	0.0006868	11
	18	56	4733.456	3.247943	-1.480248	1	3.569351	-24.50111	-2.837673E-005	0.0007042	11
	19	59	3796.875	3.287412	-1.840431	1	3.767527	-29.24193	-2.23475E-005	0.0006745	10
	20	61	2987.132	3.337261	-2.321767	1	4.065454	-34.82674	-2.097417E-005	0.0006979	10
	21	63	2390.625	3.395863	-2.87442	1	4.449065	-40.24616	2.496598E-006	0.000654	10
	22	66	1884.191	3.476264	-3.602951	1	5.006563	-46.02523	-2.594248E-005	0.0006849	10
	23	68	1516.544	3.568199	-4.422376	1	5.682381	-51.10163	2.30402E-005	0.0006722	10
	24	70	1193.986	3.69719	-5.538105	1	6.658816	-56.27328	2.100586E-005	0.0006827	10
	25	73	946.5144	3.855278	-6.885471	1	7.891317	-60.75488	-1.853774E-005	0.0006819	10
	26	75	751.7689	4.058434	-8.539147	1	9.454518	-64.57948	-2.603594E-005	0.0006916	10
	27	77	597.4265	4.321297	-10.57262	1	11.42164	-67.76892	1.117612E-005	0.0006524	10
	28	80	477.4305	4.638221	-13.02577	1	13.82693	-70.40019	-2.619755E-006	0.0006851	10
	29	82	376.6741	5.067606	-16.22095	1	16.99411	-72.6506	-2.552069E-006	0.0007066	10
	30	84	298.2954	5.605547	-20.11683	1	20.88322	-74.42952	-2.117253E-006	0.0006903	10
	31	87	237.7717	6.264695	-24.7812	1	25.5608	-75.81285	-2.702873E-006	0.0006862	10
	32	89	189.0121	7.102917	-30.59743	1	31.41105	-76.93079	-1.835036E-006	0.0006917	10
	33	91	150.2404	8.152463	-37.74512	1	38.61551	-77.81207	-1.967511E-006	0.0006848	10
	34	94	119.1737	9.465869	-46.58814	1	47.54006	-78.51488	6.911174E-007	8.437067E-005	9
	35	96	95.0169	11.07626	-57.26145	1	58.32287	-79.05231	5.049706E-007	8.277037E-005	9
	36	99	75.60484	13.09732	-70.5097	1	71.71581	-79.47712	4.648836E-007	8.243895E-005	9
	37	101	54.50582	16.87842	-94.95972	1	96.4481	-79.92134	5.147637E-007	7.81105E-005	9
	38	104	45.95588	19.3982	-110.9235	1	112.6069	-80.08047	7.185341E-007	8.284527E-005	9
	39	106	37.20238	23.1741	-134.4375	1	136.4203	-80.21957	6.196394E-007	8.203665E-005	9
	40	109	30.04808	27.96028	-163.2295	1	165.6069	-80.2799	5.821427E-007	7.673079E-005	9
	41	111	23.91582	34.59009	-201.2668	1	204.2175	-80.24831	4.81992E-007	8.066543E-005	9
	42	113	18.60119	44.02182	-252.7955	1	256.5999	-80.12157	6.516664E-007	8.311077E-005	9
	43	116	15.02404	54.62814	-306.9425	1	311.7658	-79.90844	6.419129E-007	7.626192E-005	9
	44	118	12.01923	69.20387	-375.7076	1	382.028	-79.56332	6.815697E-007	8.518114E-005	9
	45	121	9.450605	89.82645	-464.799	1	473.3993	-79.06194	3.503509E-008	0.0006583	8
	46	123	7.512019	117.0265	-571.2308	1	583.095	-78.42217	1.081445E-007	0.0006574	8
	47	126	5.978954	153.3604	-699.2714	1	715.891	-77.63004	9.915292E-008	0.0006624	8
	48	129	4.734848	203.9591	-858.8869	1	882.7718	-76.64146	5.206955E-008	0.0006409	8
	49	132	3.75601	273.5257	-1049.716	1	1084.767	-75.39513	1.525408E-007	0.0006803	8
	50	135	3.004808	364.5928	-1267.864	1	1319.245	-73.95664	7.949825E-008	0.0006874	8
	51	139	2.372217	498.1272	-1539.409	1	1617.996	-72.06928	5.506041E-008	0.0006573	8
	52	143	1.878005	681.0714	-1857.605	1	1978.523	-69.86507	1.242894E-007	0.000656	8
	53	148	1.512097	902.9642	-2189.064	1	2367.984	-67.58441	7.518468E-008	0.000742	8
	54	154	1.201923	1223.989	-2576.798	1	2852.724	-64.59211	1.145531E-007	0.0006756	8
	55	160	0.956633	1632.925	-2982.047	1	3399.86	-61.29553	-5.363194E-008	2.148731E-005	8
