EXPLAIN
TAG	EISPOT
TITLE	LABEL	Potentiostatic EIS	Test Identifier
DATE	LABEL	2/25/2021	Date
TIME	LABEL	2:40:56	Time
NOTES	NOTES	1	Notes...
	
PSTAT	PSTAT	REF3000-16137	Potentiostat
VDC	POTEN	0.00000E+000	T	DC Voltage (V)
FREQINIT	QUANT	3.00000E+005	Initial Freq. (Hz)
FREQFINAL	QUANT	1.00000E+000	Final Freq. (Hz)
PTSPERDEC	QUANT	1.00000E+001	Points/decade
VAC	QUANT	5.00000E+001	AC Voltage (mV rms)
AREA	QUANT	1.00000E+000	Sample Area (cm^2)
SPEED	SELECTOR	2	Optimize for:
ZGUESS	QUANT	1.00000E+003	Estimated Z (ohms)
EOC	QUANT	0	Open Circuit (V)
SEQUENCER	TOGGLE	TRUE	Run as Sequence
PSTATMODEL	IQUANT	5	Pstat Model
PSTATSECTION	LABEL	REF3000-16137	Pstat Section
PSTATSERIALNO	LABEL	16137	Pstat Serial Number
CTRLMODE	IQUANT	1	Control Mode
IESTAB	IQUANT	0	I/E Stability
CASPEED	IQUANT	1	Control Amp Speed
CONVENTION	IQUANT	1	Current Convention
ICHRANGE	IQUANT	2	Ich Range
ICHRANGEMODE	TOGGLE	F	Ich Auto Range
ICHOFFSETENABLE	TOGGLE	T	Ich Offset Enable
ICHOFFSET	QUANT	0	Ich Offset (V)
ICHFILTER	IQUANT	3	Ich Filter
VCHRANGE	IQUANT	2	Vch Range
VCHRANGEMODE	TOGGLE	F	Vch Auto Range
VCHOFFSETENABLE	TOGGLE	T	Vch Offset Enable
VCHOFFSET	QUANT	0	Vch Offset (V)
VCHFILTER	IQUANT	3	Vch Filter
ACHRANGE	IQUANT	2	Ach Range
ACHOFFSETENABLE	TOGGLE	F	Ach Offset Enable
ACHOFFSET	QUANT	0	Ach Offset (V)
ACHFILTER	IQUANT	3	Ach Filter
IERANGELOWERLIMIT	IQUANT	2	I/E Range Lower Limit
IERANGEMODE	TOGGLE	F	I/E AutoRange
IERANGE	IQUANT	11	I/E Range
POSFEEDENABLE	TOGGLE	F	Positive Feedback IR Comp
POSFEEDRESISTANCE	QUANT	0	Positive Feedback Resistance (ohm)
ACHSELECT	IQUANT	0	Ach Select
CABLEID	IQUANT	13	Cable ID
DCCALDATE	LABEL	7/31/2020	DC Calibration Date
ACCALDATE	LABEL	7/31/2020	AC Calibration Date
THERMOSELECT	IQUANT	1	Thermo Select
FRAMEWORKVERSION	QUANT	6.33	Framework Version
INSTRUMENTVERSION	LABEL	3.50	Instrument Version
COMPLIANCEVOLTAGE	IQUANT	0	Compliance Voltage
ZCURVE	TABLE
	Pt	Time	Freq	Zreal	Zimag	Zsig	Zmod	Zphz	Idc	Vdc	IERange
	#	s	Hz	ohm	ohm	V	ohm	°	A	V	#
	0	14	300046.9	-36.11971	-4403.468	1	4403.616	-90.46996	2.62221E-005	-0.0016463	9
	1	28	238359.4	82.92014	-5459.79	1	5460.419	-89.12989	5.027543E-005	6.706484E-005	9
	2	45	189328.1	-57.14032	-7003.939	1	7004.172	-90.46743	8.839784E-005	-0.0024872	9
	3	52	150421.9	805.001	-8229.602	1	8268.88	-84.41323	-1.378195E-005	0.0018456	9
	4	61	119484.4	549.3126	-10694.37	1	10708.47	-87.05961	2.174844E-005	-0.0139964	8
	5	68	94921.88	702.6378	-13334.82	1	13353.32	-86.98376	-1.597481E-005	0.0007173	8
	6	76	75421.88	600.3807	-16569.1	1	16579.97	-87.9248	2.719022E-005	-0.0073411	8
	7	85	59859.37	994.098	-20818.82	1	20842.54	-87.2662	-9.605274E-006	-0.0019661	8
	8	93	47578.12	3891.925	-27169.21	1	27446.54	-81.84797	6.684339E-006	-0.026643	7
	9	100	37828.12	4164.128	-33837.1	1	34092.36	-82.98423	6.782414E-006	-0.0268189	7
	10	107	30046.88	2020.484	-42350.33	1	42398.5	-87.26855	-1.138326E-006	-0.0049605	8
	11	116	23859.38	5190.551	-52478.81	1	52734.88	-84.35139	-5.275E-006	0.0039136	7
	12	121	18984.38	4814.699	-65378.12	1	65555.16	-85.78812	7.535512E-006	-0.0186141	7
	13	126	15046.87	6937.303	-82266.75	1	82558.73	-85.17982	-3.394821E-006	-0.0046592	7
	14	132	11953.13	6683.852	-103368.6	1	103584.5	-86.30038	6.589231E-006	-0.0104552	7
	15	137	9515.62	3385.021	-121069.5	1	121116.8	-88.39847	-2.39419E-005	0.0053556	8
	16	144	7546.875	-4039.672	-169025.7	1	169074	-91.36909	2.243741E-005	-0.0095116	8
	17	152	5928.309	2839.076	-213525.2	1	213544.1	-89.23823	2.865052E-006	0.0079432	7
	18	158	4733.456	43204.74	-272008.3	1	275418.2	-80.97475	-5.878235E-008	-0.014387	6
	19	164	3796.875	50227.69	-329663.6	1	333468	-81.33701	3.920302E-007	-0.0249308	6
	20	169	2987.132	553762.3	-340508.9	1	650076.1	-31.58739	1.620994E-005	-0.0091518	8
	21	177	2390.625	28810.9	-515556.1	1	516360.5	-86.80146	5.748238E-007	0.0157165	7
	22	186	1884.191	32549.99	-640653.4	1	641479.8	-87.09145	4.349889E-007	0.0015489	6
	23	191	1516.544	46158.63	-817377.8	1	818680.1	-86.76785	-1.978132E-007	0.0217792	6
	24	196	1193.986	180423.1	-908881.4	1	926616.4	-78.77211	5.752194E-007	0.0157335	7
	25	204	946.5144	112556.7	-1185277	1	1190609	-84.57533	-5.013547E-007	0.0023045	6
	26	208	751.7689	-64304.54	-1728740	1	1729936	-92.13027	-5.224355E-008	-0.0142017	6
	27	212	597.4265	480448.4	-1897073	1	1956966	-75.78822	1.84688E-007	-0.0211476	6
	28	215	477.4305	329983.5	-2415164	1	2437603	-82.21986	-7.065507E-009	0.000683	6
	29	218	376.6741	782013.8	-3082171	1	3179831	-75.76324	-8.035087E-010	0.0006119	5
	30	222	298.2954	641676	-3793242	1	3847133	-80.39857	-7.203885E-009	0.0006961	6
	31	226	237.7717	1183452	-4668010	1	4815691	-75.77389	-7.495841E-010	0.0007108	5
	32	230	189.0121	1600454	-5763860	1	5981934	-74.4816	-6.90165E-010	0.0006833	5
	33	233	150.2404	2113345	-7057612	1	7367232	-73.33009	-6.7266E-010	0.0006158	5
	34	238	119.1737	3825597	-8474958	1	9298393	-65.70557	-5.42867E-010	0.0006276	5
	35	240	95.0169	3581488	-1.045128E+007	1	1.104791E+007	-71.08422	-7.397302E-010	0.0007062	5
	36	243	75.60484	5844169	-1.369661E+007	1	1.489132E+007	-66.89268	-6.471924E-010	0.0006811	5
	37	246	54.50582	8114778	-1.605138E+007	1	1.7986E+007	-63.18111	-7.460431E-010	0.0007105	5
	38	249	45.95588	1.490867E+007	-1.634568E+007	1	2.212351E+007	-47.63248	-5.832759E-011	0.0006407	4
	39	252	37.20238	1.454632E+007	-1.839784E+007	1	2.34537E+007	-51.66821	-6.799058E-011	0.0006948	4
	40	255	30.04808	2.040484E+007	-2.051009E+007	1	2.893132E+007	-45.14739	-5.386536E-011	0.0007172	4
	41	257	23.91582	1.974194E+007	-2.371916E+007	1	3.086005E+007	-50.22869	-6.207811E-010	0.0006067	5
	42	261	18.60119	2.426752E+007	-1.635573E+007	1	2.92647E+007	-33.97903	-5.43512E-010	0.0006739	5
	43	265	15.02404	3.259333E+007	-2.405515E+007	1	4.050895E+007	-36.42877	-6.672993E-010	0.0006078	5
	44	268	12.01923	3.826545E+007	-2.07905E+007	1	4.35487E+007	-28.51625	-6.50599E-011	0.0007134	4
	45	272	9.450605	4.554913E+007	-2.174522E+007	1	5.047354E+007	-25.51988	-3.704434E-011	0.0006874	4
	46	276	7.512019	4.94686E+007	-1.842237E+007	1	5.278755E+007	-20.4256	-9.298372E-011	0.0007061	4
	47	281	5.978954	5.211083E+007	-1.678804E+007	1	5.47483E+007	-17.85687	-7.573366E-011	0.000682	4
	48	286	4.734848	5.74331E+007	-1.504421E+007	1	5.937078E+007	-14.67846	-8.544188E-011	0.0007263	4
	49	292	3.75601	6.15262E+007	-1.457951E+007	1	6.323002E+007	-13.33116	-7.603772E-011	0.0007355	4
	50	299	3.004808	6.775949E+007	-1.384818E+007	1	6.91601E+007	-11.55062	-7.072205E-011	0.0006737	4
	51	307	2.372217	7.463549E+007	-7358203	1	7.499733E+007	-5.630511	-1.227791E-011	0.0006783	3
	52	311	1.878005	7.843483E+007	-6709178	1	7.872126E+007	-4.88908	-1.122498E-011	0.0007435	3
	53	318	1.512097	8.271938E+007	-6285384	1	8.295783E+007	-4.345237	-1.176724E-011	0.0006479	3
	54	324	1.201923	8.740538E+007	-5924325	1	8.760593E+007	-3.877569	-9.512739E-012	0.0007403	3
	55	331	0.956633	9.269893E+007	-5425040	1	9.285754E+007	-3.349313	-1.665005E-011	0.0000989	3
