EXPLAIN
TAG	EISPOT
TITLE	LABEL	Potentiostatic EIS	Test Identifier
DATE	LABEL	2/25/2021	Date
TIME	LABEL	1:44:36	Time
NOTES	NOTES	1	Notes...
	
PSTAT	PSTAT	REF3000-16137	Potentiostat
VDC	POTEN	0.00000E+000	T	DC Voltage (V)
FREQINIT	QUANT	3.00000E+005	Initial Freq. (Hz)
FREQFINAL	QUANT	1.00000E+000	Final Freq. (Hz)
PTSPERDEC	QUANT	1.00000E+001	Points/decade
VAC	QUANT	5.00000E+001	AC Voltage (mV rms)
AREA	QUANT	1.00000E+000	Sample Area (cm^2)
SPEED	SELECTOR	2	Optimize for:
ZGUESS	QUANT	1.00000E+003	Estimated Z (ohms)
EOC	QUANT	0	Open Circuit (V)
SEQUENCER	TOGGLE	TRUE	Run as Sequence
PSTATMODEL	IQUANT	5	Pstat Model
PSTATSECTION	LABEL	REF3000-16137	Pstat Section
PSTATSERIALNO	LABEL	16137	Pstat Serial Number
CTRLMODE	IQUANT	1	Control Mode
IESTAB	IQUANT	0	I/E Stability
CASPEED	IQUANT	1	Control Amp Speed
CONVENTION	IQUANT	1	Current Convention
ICHRANGE	IQUANT	2	Ich Range
ICHRANGEMODE	TOGGLE	F	Ich Auto Range
ICHOFFSETENABLE	TOGGLE	T	Ich Offset Enable
ICHOFFSET	QUANT	0	Ich Offset (V)
ICHFILTER	IQUANT	3	Ich Filter
VCHRANGE	IQUANT	2	Vch Range
VCHRANGEMODE	TOGGLE	F	Vch Auto Range
VCHOFFSETENABLE	TOGGLE	T	Vch Offset Enable
VCHOFFSET	QUANT	0	Vch Offset (V)
VCHFILTER	IQUANT	3	Vch Filter
ACHRANGE	IQUANT	2	Ach Range
ACHOFFSETENABLE	TOGGLE	F	Ach Offset Enable
ACHOFFSET	QUANT	0	Ach Offset (V)
ACHFILTER	IQUANT	3	Ach Filter
IERANGELOWERLIMIT	IQUANT	2	I/E Range Lower Limit
IERANGEMODE	TOGGLE	F	I/E AutoRange
IERANGE	IQUANT	11	I/E Range
POSFEEDENABLE	TOGGLE	F	Positive Feedback IR Comp
POSFEEDRESISTANCE	QUANT	0	Positive Feedback Resistance (ohm)
ACHSELECT	IQUANT	0	Ach Select
CABLEID	IQUANT	13	Cable ID
DCCALDATE	LABEL	7/31/2020	DC Calibration Date
ACCALDATE	LABEL	7/31/2020	AC Calibration Date
THERMOSELECT	IQUANT	1	Thermo Select
FRAMEWORKVERSION	QUANT	6.33	Framework Version
INSTRUMENTVERSION	LABEL	3.50	Instrument Version
COMPLIANCEVOLTAGE	IQUANT	0	Compliance Voltage
ZCURVE	TABLE
	Pt	Time	Freq	Zreal	Zimag	Zsig	Zmod	Zphz	Idc	Vdc	IERange
	#	s	Hz	ohm	ohm	V	ohm	°	A	V	#
	0	7	300046.9	43.91628	2.255289	1	43.97416	2.939801	-5.687859E-005	0.0010715	9
	1	10	238359.4	44.12195	1.689412	1	44.15429	2.192761	2.819808E-005	-0.0004171	9
	2	13	189328.1	44.3072	1.310928	1	44.32659	1.69473	4.832729E-005	-0.0015725	9
	3	16	150421.9	44.50549	1.021883	1	44.51722	1.315328	7.663547E-006	-0.0009021	9
	4	18	119484.4	44.69624	0.7380871	1	44.70233	0.9460624	-7.361599E-006	0.0005223	9
	5	21	94921.88	44.92171	0.6867744	1	44.92696	0.875884	1.491235E-005	-0.0005841	9
	6	24	75421.88	45.08389	0.476851	1	45.08641	0.6059932	1.802245E-005	-0.0005458	9
	7	26	59859.37	45.2476	0.2871501	1	45.24852	0.3636052	-9.246592E-006	0.0005223	9
	8	29	47578.12	45.42935	0.1191956	1	45.4295	0.1503299	-1.596107E-005	0.000473	9
	9	31	37828.12	45.60514	-0.0336916	1	45.60515	-0.0423283	1.03514E-005	0.0001046	9
	10	34	30046.88	45.80505	-0.1902483	1	45.80544	-0.2379729	-1.599623E-005	0.0004883	9
	11	36	23859.38	45.99289	-0.3414004	1	45.99416	-0.4252928	1.707226E-005	-0.0004897	9
	12	39	18984.38	46.17558	-0.4965626	1	46.17825	-0.6161232	-1.497186E-005	0.0006394	9
	13	41	15046.87	46.36082	-0.6520519	1	46.3654	-0.8057959	-9.736576E-006	0.0006304	9
	14	43	11953.13	46.54616	-0.8814293	1	46.5545	-1.084862	-1.549447E-005	0.0005915	9
	15	45	9515.62	46.73445	-1.123634	1	46.74796	-1.377293	-1.435536E-006	-0.0001196	9
	16	48	7546.875	46.91678	-1.413369	1	46.93806	-1.725515	-2.255315E-006	-0.0001102	9
	17	50	5928.309	47.14007	-1.800093	1	47.17442	-2.186837	-1.574171E-005	0.0004487	9
	18	52	4733.456	47.37231	-2.219769	1	47.42429	-2.6828	-1.494725E-005	0.0004287	9
	19	55	3796.875	47.57061	-2.760866	1	47.65066	-3.321562	-1.445979E-005	0.0003709	9
	20	57	2987.132	47.82083	-3.47366	1	47.94683	-4.154614	-3.326551E-006	0.0005127	9
	21	59	2390.625	48.0907	-4.277472	1	48.28056	-5.082851	6.509759E-006	-0.0003494	9
	22	62	1884.191	48.34368	-5.348877	1	48.63868	-6.313683	-1.209185E-005	0.0002227	9
	23	64	1516.544	48.67817	-6.56023	1	49.11823	-7.675359	1.898899E-005	-0.0002428	9
	24	66	1193.986	49.02666	-8.199011	1	49.70752	-9.494044	-1.609969E-005	0.0005404	9
	25	69	946.5144	49.42915	-10.18918	1	50.46841	-11.64764	1.867034E-005	-0.0004302	9
	26	71	751.7689	49.87981	-12.67892	1	51.46601	-14.26194	-1.530343E-005	0.0006346	9
	27	74	597.4265	50.44124	-15.68991	1	52.82511	-17.27848	9.806144E-006	-0.0004349	9
	28	76	477.4305	51.0504	-19.35455	1	54.59618	-20.76303	1.214898E-006	9.183011E-005	9
	29	78	376.6741	51.84799	-24.12976	1	57.18793	-24.957	1.312462E-006	8.064126E-005	9
	30	81	298.2954	52.81633	-29.95242	1	60.7183	-29.5578	1.375304E-006	8.63786E-005	9
	31	83	237.7717	53.97679	-36.91828	1	65.3946	-34.3708	1.273877E-006	8.233492E-005	9
	32	85	189.0121	55.40906	-45.56984	1	71.74102	-39.43476	1.312449E-006	8.69681E-005	9
	33	88	150.2404	57.14931	-56.19604	1	80.1501	-44.51813	1.469637E-006	8.216663E-005	9
	34	90	119.1737	59.2703	-69.38615	1	91.25462	-49.49574	1.295169E-006	8.550333E-005	9
	35	93	95.0169	61.76582	-85.23636	1	105.2628	-54.07135	1.302901E-006	8.346232E-005	9
	36	95	75.60484	64.78098	-104.9008	1	123.2913	-58.3028	1.275364E-006	8.525912E-005	9
	37	98	54.50582	70.06547	-141.2163	1	157.6427	-63.61136	1.168716E-006	0.0001125	9
	38	100	45.95588	73.52947	-164.9982	1	180.6405	-65.98043	1.369967E-006	8.632154E-005	9
	39	103	37.20238	78.5032	-200.0987	1	214.9471	-68.57881	1.311964E-006	9.052263E-005	9
	40	105	30.04808	84.52999	-243.2543	1	257.5228	-70.83785	1.38813E-006	8.014206E-005	9
	41	107	23.91582	92.40393	-299.8751	1	313.789	-72.87376	1.416829E-006	7.280608E-005	9
	42	110	18.60119	103.1142	-377.5799	1	391.4066	-74.72541	1.339615E-006	8.107926E-005	9
	43	112	15.02404	113.9948	-457.2991	1	471.2932	-76.00268	3.981148E-007	0.000663	8
	44	114	12.01923	128.5606	-561.4379	1	575.9691	-77.1025	3.526501E-007	0.000656	8
	45	117	9.450605	148.236	-700.0648	1	715.5869	-78.04443	4.353063E-007	0.0006633	8
	46	119	7.512019	171.4873	-864.3544	1	881.2017	-78.77828	4.084275E-007	0.0006737	8
	47	122	5.978954	200.7396	-1064.829	1	1083.585	-79.324	4.075563E-007	0.0006669	8
	48	125	4.734848	238.2944	-1318.121	1	1339.488	-79.75256	4.35998E-007	0.0006922	8
	49	128	3.75601	284.5857	-1628.859	1	1653.532	-80.08961	4.045325E-007	0.000651	8
	50	132	3.004808	339.8033	-1995.793	1	2024.514	-80.33749	4.085948E-007	0.0006918	8
	51	136	2.372217	413.712	-2476.668	1	2510.984	-80.51665	4.181141E-007	0.0007381	8
	52	140	1.878005	500.9977	-3064.06	1	3104.748	-80.71387	4.019768E-007	0.000637	8
	53	144	1.512097	606.5065	-3724.954	1	3774.008	-80.75211	4.409658E-007	0.0007219	8
	54	150	1.201923	737.5255	-4612.57	1	4671.161	-80.9156	3.494937E-008	0.0005957	7
	55	156	0.956633	900.5396	-5681.959	1	5752.88	-80.99404	2.351409E-008	-9.49708E-006	7
