EXPLAIN
TAG	EISPOT
TITLE	LABEL	Potentiostatic EIS	Test Identifier
DATE	LABEL	2/25/2021	Date
TIME	LABEL	2:35:02	Time
NOTES	NOTES	1	Notes...
	
PSTAT	PSTAT	REF3000-16137	Potentiostat
VDC	POTEN	0.00000E+000	T	DC Voltage (V)
FREQINIT	QUANT	3.00000E+005	Initial Freq. (Hz)
FREQFINAL	QUANT	1.00000E+000	Final Freq. (Hz)
PTSPERDEC	QUANT	1.00000E+001	Points/decade
VAC	QUANT	5.00000E+001	AC Voltage (mV rms)
AREA	QUANT	1.00000E+000	Sample Area (cm^2)
SPEED	SELECTOR	2	Optimize for:
ZGUESS	QUANT	1.00000E+003	Estimated Z (ohms)
EOC	QUANT	0	Open Circuit (V)
SEQUENCER	TOGGLE	TRUE	Run as Sequence
PSTATMODEL	IQUANT	5	Pstat Model
PSTATSECTION	LABEL	REF3000-16137	Pstat Section
PSTATSERIALNO	LABEL	16137	Pstat Serial Number
CTRLMODE	IQUANT	1	Control Mode
IESTAB	IQUANT	0	I/E Stability
CASPEED	IQUANT	1	Control Amp Speed
CONVENTION	IQUANT	1	Current Convention
ICHRANGE	IQUANT	2	Ich Range
ICHRANGEMODE	TOGGLE	F	Ich Auto Range
ICHOFFSETENABLE	TOGGLE	T	Ich Offset Enable
ICHOFFSET	QUANT	0	Ich Offset (V)
ICHFILTER	IQUANT	3	Ich Filter
VCHRANGE	IQUANT	2	Vch Range
VCHRANGEMODE	TOGGLE	F	Vch Auto Range
VCHOFFSETENABLE	TOGGLE	T	Vch Offset Enable
VCHOFFSET	QUANT	0	Vch Offset (V)
VCHFILTER	IQUANT	3	Vch Filter
ACHRANGE	IQUANT	2	Ach Range
ACHOFFSETENABLE	TOGGLE	F	Ach Offset Enable
ACHOFFSET	QUANT	0	Ach Offset (V)
ACHFILTER	IQUANT	3	Ach Filter
IERANGELOWERLIMIT	IQUANT	2	I/E Range Lower Limit
IERANGEMODE	TOGGLE	F	I/E AutoRange
IERANGE	IQUANT	11	I/E Range
POSFEEDENABLE	TOGGLE	F	Positive Feedback IR Comp
POSFEEDRESISTANCE	QUANT	0	Positive Feedback Resistance (ohm)
ACHSELECT	IQUANT	0	Ach Select
CABLEID	IQUANT	13	Cable ID
DCCALDATE	LABEL	7/31/2020	DC Calibration Date
ACCALDATE	LABEL	7/31/2020	AC Calibration Date
THERMOSELECT	IQUANT	1	Thermo Select
FRAMEWORKVERSION	QUANT	6.33	Framework Version
INSTRUMENTVERSION	LABEL	3.50	Instrument Version
COMPLIANCEVOLTAGE	IQUANT	0	Compliance Voltage
ZCURVE	TABLE
	Pt	Time	Freq	Zreal	Zimag	Zsig	Zmod	Zphz	Idc	Vdc	IERange
	#	s	Hz	ohm	ohm	V	ohm	°	A	V	#
	0	14	300046.9	77.42395	-4306.81	1	4307.506	-88.9701	-0.0001151	0.0037051	9
	1	31	238359.4	184.5655	-5369.918	1	5373.089	-88.0315	-9.070599E-005	0.0021758	9
	2	50	189328.1	-61.90577	-6381.446	1	6381.746	-90.5558	2.317037E-006	0.0016956	9
	3	58	150421.9	463.461	-8462.91	1	8475.591	-86.86539	3.735803E-007	-0.0018152	9
	4	66	119484.4	720.2945	-10327.58	1	10352.66	-86.01038	-1.768148E-005	0.0169702	8
	5	73	94921.88	946.8955	-12986.52	1	13020.99	-85.82973	-2.06219E-005	0.0029849	8
	6	81	75421.88	1139.731	-15825.2	1	15866.18	-85.88067	-1.939573E-005	0.0112249	8
	7	90	59859.37	1438.073	-20051.78	1	20103.28	-85.89789	-2.420312E-005	0.0109428	8
	8	98	47578.12	4829.692	-26306.43	1	26746.11	-79.59672	-7.126215E-006	0.0235021	7
	9	106	37828.12	2454.166	-31246.06	1	31342.29	-85.50903	-1.290049E-006	-0.0049696	8
	10	114	30046.88	6558.921	-40137.07	1	40669.45	-80.71915	-6.406683E-006	0.0256361	7
	11	122	23859.38	7483.364	-50195.7	1	50750.46	-81.52058	-3.56378E-006	-0.0040565	7
	12	127	18984.38	9073.336	-61710.45	1	62373.91	-81.63569	6.552157E-006	-0.010318	7
	13	133	15046.87	10437.33	-77032.25	1	77736.13	-82.28381	6.003961E-007	0.0155848	7
	14	138	11953.13	10271.27	-94295.81	1	94853.57	-83.78351	2.341738E-005	-0.002896	8
	15	145	9515.62	13052.73	-125244.2	1	125922.5	-84.05022	-1.184996E-005	0.001074	9
	16	153	7546.875	21231.37	-157919.4	1	159340.3	-82.34283	2.945864E-006	0.0080665	7
	17	158	5928.309	32618.14	-189034.2	1	191827.7	-80.20993	-7.281958E-006	0.0190817	7
	18	165	4733.456	73587.03	-235211.6	1	246453.9	-72.62746	1.189395E-006	-0.0192739	7
	19	171	3796.875	93092.21	-288047.2	1	302716.6	-72.09	-4.804653E-008	-0.014285	6
	20	177	2987.132	155392.8	-285402.7	1	324964.1	-61.4331	-1.157159E-005	0.0101752	8
	21	184	2390.625	132103.9	-421935.7	1	442132.6	-72.61517	1.211764E-006	-0.0193645	7
	22	192	1884.191	175569.9	-493192.2	1	523510.5	-70.40495	-5.427589E-007	0.0262065	6
	23	197	1516.544	259333	-617040.5	1	669322.5	-67.2037	7.612605E-007	-0.0227845	6
	24	203	1193.986	343517.7	-739249.4	1	815165	-65.07644	-7.321725E-007	0.0230954	6
	25	208	946.5144	298636.7	-1045955	1	1087752	-74.06511	6.60252E-006	-0.0100368	7
	26	214	751.7689	424436	21908.84	1	425001	2.954912	-2.507503E-005	0.011257	8
	27	221	597.4265	-145900.9	-676104.8	1	691668.1	-102.1775	5.213327E-006	-0.0267032	7
	28	227	477.4305	1087927	-1247253	1	1655061	-48.90317	-6.157623E-008	0.0005942	7
	29	232	376.6741	1575407	-1189729	1	1974174	-37.05969	-7.994314E-010	0.0006991	5
	30	235	298.2954	1845426	-1180351	1	2190623	-32.60335	-7.609026E-010	0.0006208	5
	31	238	237.7717	2076355	-1133798	1	2365745	-28.63685	-7.849307E-010	0.0007144	5
	32	240	189.0121	2239362	-1193820	1	2537705	-28.06241	-6.336573E-009	0.0006408	6
	33	244	150.2404	2508237	-1109573	1	2742701	-23.86324	-6.250499E-009	0.0006426	6
	34	248	119.1737	2624843	-1045690	1	2825468	-21.72144	-7.185126E-009	0.0006999	6
	35	252	95.0169	2904008	-865516.8	1	3030244	-16.59628	-7.55905E-009	0.0007373	6
	36	256	75.60484	3133317	-798459.6	1	3233452	-14.29634	-7.191961E-009	0.0007153	6
	37	260	54.50582	3287105	-660970.7	1	3352900	-11.36941	-7.358949E-009	0.0007071	6
	38	264	45.95588	3413531	-621896.4	1	3469718	-10.32523	-6.680877E-009	0.0006985	6
	39	268	37.20238	3473874	-525012.9	1	3513323	-8.594176	-7.441841E-009	0.0007253	6
	40	272	30.04808	3655297	-422440.1	1	3679627	-6.592387	-6.695198E-009	0.0006834	6
	41	276	23.91582	3798155	-275335	1	3808122	-4.14622	-7.150295E-010	0.0006923	5
	42	280	18.60119	3983977	-345573.9	1	3998937	-4.957481	-8.769434E-010	0.0006167	5
	43	284	15.02404	4019046	-237363.2	1	4026050	-3.379938	-7.409456E-010	0.0006147	5
	44	287	12.01923	4113080	-215578.8	1	4118726	-3.000297	-8.678687E-010	0.0007035	5
	45	291	9.450605	4245143	-174688.9	1	4248736	-2.356409	-8.036616E-010	0.0007111	5
	46	295	7.512019	4379489	-159549	1	4382395	-2.086417	-7.358851E-010	0.0006148	5
	47	299	5.978954	4515156	-142808.4	1	4517414	-1.811585	-7.779373E-010	0.0006752	5
	48	305	4.734848	4735367	-122515.3	1	4736952	-1.482049	-7.198396E-010	0.0006266	5
	49	311	3.75601	4925946	-39446.67	1	4926104	-0.4588112	-1.180328E-010	0.0006892	4
	50	317	3.004808	5139661	-55156.63	1	5139957	-0.6148501	-1.183434E-010	0.000738	4
	51	323	2.372217	5351299	-43219.58	1	5351473	-0.4627374	-1.181631E-010	0.0007423	4
	52	327	1.878005	5524289	-43937.79	1	5524464	-0.4556961	-1.565468E-010	0.0006521	4
	53	332	1.512097	5732046	-46820.46	1	5732237	-0.4679927	-1.534435E-010	0.00073	4
	54	337	1.201923	5980092	-46390.8	1	5980272	-0.4444654	-1.538955E-010	0.0006398	4
	55	344	0.956633	6264945	-54810.03	1	6265185	-0.5012499	-2.716287E-010	2.840485E-005	4
