EXPLAIN
TAG	EISPOT
TITLE	LABEL	Potentiostatic EIS	Test Identifier
DATE	LABEL	2/25/2021	Date
TIME	LABEL	2:07:32	Time
NOTES	NOTES	1	Notes...
	
PSTAT	PSTAT	REF3000-16137	Potentiostat
VDC	POTEN	0.00000E+000	T	DC Voltage (V)
FREQINIT	QUANT	3.00000E+005	Initial Freq. (Hz)
FREQFINAL	QUANT	1.00000E+000	Final Freq. (Hz)
PTSPERDEC	QUANT	1.00000E+001	Points/decade
VAC	QUANT	5.00000E+001	AC Voltage (mV rms)
AREA	QUANT	1.00000E+000	Sample Area (cm^2)
SPEED	SELECTOR	2	Optimize for:
ZGUESS	QUANT	1.00000E+003	Estimated Z (ohms)
EOC	QUANT	0	Open Circuit (V)
SEQUENCER	TOGGLE	TRUE	Run as Sequence
PSTATMODEL	IQUANT	5	Pstat Model
PSTATSECTION	LABEL	REF3000-16137	Pstat Section
PSTATSERIALNO	LABEL	16137	Pstat Serial Number
CTRLMODE	IQUANT	1	Control Mode
IESTAB	IQUANT	0	I/E Stability
CASPEED	IQUANT	1	Control Amp Speed
CONVENTION	IQUANT	1	Current Convention
ICHRANGE	IQUANT	2	Ich Range
ICHRANGEMODE	TOGGLE	F	Ich Auto Range
ICHOFFSETENABLE	TOGGLE	T	Ich Offset Enable
ICHOFFSET	QUANT	0	Ich Offset (V)
ICHFILTER	IQUANT	3	Ich Filter
VCHRANGE	IQUANT	2	Vch Range
VCHRANGEMODE	TOGGLE	F	Vch Auto Range
VCHOFFSETENABLE	TOGGLE	T	Vch Offset Enable
VCHOFFSET	QUANT	0	Vch Offset (V)
VCHFILTER	IQUANT	3	Vch Filter
ACHRANGE	IQUANT	2	Ach Range
ACHOFFSETENABLE	TOGGLE	F	Ach Offset Enable
ACHOFFSET	QUANT	0	Ach Offset (V)
ACHFILTER	IQUANT	3	Ach Filter
IERANGELOWERLIMIT	IQUANT	2	I/E Range Lower Limit
IERANGEMODE	TOGGLE	F	I/E AutoRange
IERANGE	IQUANT	11	I/E Range
POSFEEDENABLE	TOGGLE	F	Positive Feedback IR Comp
POSFEEDRESISTANCE	QUANT	0	Positive Feedback Resistance (ohm)
ACHSELECT	IQUANT	0	Ach Select
CABLEID	IQUANT	13	Cable ID
DCCALDATE	LABEL	7/31/2020	DC Calibration Date
ACCALDATE	LABEL	7/31/2020	AC Calibration Date
THERMOSELECT	IQUANT	1	Thermo Select
FRAMEWORKVERSION	QUANT	6.33	Framework Version
INSTRUMENTVERSION	LABEL	3.50	Instrument Version
COMPLIANCEVOLTAGE	IQUANT	0	Compliance Voltage
ZCURVE	TABLE
	Pt	Time	Freq	Zreal	Zimag	Zsig	Zmod	Zphz	Idc	Vdc	IERange
	#	s	Hz	ohm	ohm	V	ohm	°	A	V	#
	0	22	300046.9	732.7336	-170.8079	1	752.3788	-13.12191	8.467157E-006	0.0014374	9
	1	32	238359.4	766.0409	-150.784	1	780.7397	-11.13549	2.391882E-005	-0.0014642	9
	2	44	189328.1	798.8963	-129.5808	1	809.337	-9.213125	-2.207022E-006	-0.0017187	9
	3	52	150421.9	829.7819	-116.5514	1	837.9274	-7.995474	1.675582E-005	-0.0018466	9
	4	61	119484.4	852.9578	-71.73887	1	855.9693	-4.807604	-9.076223E-007	0.0109263	8
	5	65	94921.88	867.9124	-56.08415	1	869.7226	-3.697289	-1.805929E-005	0.0072535	8
	6	68	75421.88	874.856	-46.86596	1	876.1104	-3.066399	-1.852847E-005	0.0060104	8
	7	70	59859.37	881.588	-38.69981	1	882.437	-2.513547	8.508163E-007	0.0049769	8
	8	73	47578.12	890.1414	-32.07397	1	890.7191	-2.063614	-1.889108E-005	0.00621	8
	9	75	37828.12	897.2379	-30.57951	1	897.7588	-1.951989	-1.800606E-005	0.0072255	8
	10	78	30046.88	905.3358	-24.27334	1	905.6611	-1.535813	9.760269E-006	-0.006064	8
	11	82	23859.38	914.4674	-18.7687	1	914.66	-1.175784	-1.876357E-005	0.0073357	8
	12	84	18984.38	924.2673	-16.01149	1	924.406	-0.992461	6.568674E-007	0.0050972	8
	13	87	15046.87	932.465	-12.85178	1	932.5535	-0.7896342	1.455475E-005	-0.0004025	8
	14	90	11953.13	939.7481	-12.81057	1	939.8354	-0.7810029	1.957694E-005	-0.0041256	8
	15	94	9515.62	950.415	-11.84691	1	950.489	-0.7141541	1.525725E-005	-0.0067791	8
	16	96	7546.875	956.67	-12.83064	1	956.756	-0.7683915	1.511321E-005	-0.0067786	8
	17	99	5928.309	966.652	-8.429259	1	966.688	-0.4996099	4.107607E-006	-0.0048913	8
	18	102	4733.456	974.985	-8.707133	1	975.024	-0.511668	-1.659035E-005	0.0082189	8
	19	105	3796.875	979.146	-3.911874	1	979.154	-0.2289062	-1.840344E-005	0.0073631	8
	20	107	2987.132	989.107	-10.62226	1	989.164	-0.6152894	-2.862723E-006	-0.002873	8
	21	111	2390.625	999.862	-9.04493	1	999.903	-0.5182936	1.865215E-005	-0.0026936	8
	22	113	1884.191	1010.712	-11.82036	1	1010.781	-0.6700479	-6.65143E-006	0.0072341	8
	23	116	1516.544	1016.641	-10.80624	1	1016.699	-0.6089942	1.889108E-005	-0.0066568	8
	24	119	1193.986	1025.436	-11.99703	1	1025.506	-0.6702983	-1.656882E-005	0.0031746	8
	25	123	946.5144	1035.654	-13.93024	1	1035.748	-0.77062	4.67851E-006	-0.0051385	8
	26	126	751.7689	1046.679	-19.83385	1	1046.867	-1.085586	-1.95248E-005	0.0063849	8
	27	128	597.4265	1051.462	-25.3643	1	1051.768	-1.381872	-1.336616E-005	0.0014734	8
	28	131	477.4305	1061.38	-29.40559	1	1061.788	-1.586976	-9.88943E-008	0.0006727	8
	29	133	376.6741	1069.516	-36.20875	1	1070.128	-1.939024	-4.92605E-008	0.0006477	8
	30	136	298.2954	1077.845	-44.70892	1	1078.772	-2.375262	-4.063228E-008	0.0006435	8
	31	138	237.7717	1086.651	-54.91819	1	1088.038	-2.893206	-4.913071E-008	0.000643	8
	32	140	189.0121	1095.775	-67.85046	1	1097.873	-3.543235	-9.259854E-008	0.0006674	8
	33	143	150.2404	1105.384	-83.84999	1	1108.56	-4.33792	-6.645483E-008	0.0006457	8
	34	145	119.1737	1115.55	-103.9387	1	1120.381	-5.323028	-6.956338E-008	0.0006421	8
	35	148	95.0169	1126.332	-128.2655	1	1133.612	-6.496794	-6.823102E-008	0.0006548	8
	36	150	75.60484	1138.24	-158.6599	1	1149.245	-7.935359	-8.600529E-008	0.0006682	8
	37	153	54.50582	1153.844	-215.0211	1	1173.708	-10.5561	-7.728746E-008	0.0006657	8
	38	155	45.95588	1166.743	-251.9716	1	1193.641	-12.18652	-8.84349E-008	0.0006546	8
	39	158	37.20238	1182.061	-306.8004	1	1221.227	-14.5499	-1.364915E-007	0.0006871	8
	40	160	30.04808	1199.937	-373.8954	1	1256.84	-17.30681	-9.412852E-008	0.0006657	8
	41	162	23.91582	1221.183	-461.5085	1	1305.48	-20.70254	-9.719196E-008	0.000647	8
	42	165	18.60119	1248.592	-582.1067	1	1377.617	-24.99543	-1.574374E-007	0.0006424	8
	43	167	15.02404	1276.9	-707.0423	1	1459.583	-28.97408	-9.61794E-008	0.0006605	8
	44	169	12.01923	1312.323	-864.8225	1	1571.658	-33.38493	-1.062697E-007	0.0006629	8
	45	172	9.450605	1359.859	-1074.767	1	1733.304	-38.32114	-1.018853E-007	0.000675	8
	46	174	7.512019	1414.62	-1320.121	1	1934.909	-43.02093	-7.758084E-008	0.0006661	8
	47	177	5.978954	1480.535	-1616.177	1	2191.806	-47.50808	-8.59707E-008	0.0006538	8
	48	180	4.734848	1561.179	-1989.486	1	2528.9	-51.87819	-3.151287E-008	0.0006845	8
	49	183	3.75601	1657.734	-2440.835	1	2950.552	-55.81697	-7.281101E-008	0.0006399	8
	50	187	3.004808	1767.71	-2971.434	1	3457.487	-59.25153	-8.05906E-008	0.0006684	8
	51	190	2.372217	1908.128	-3656.679	1	4124.592	-62.44355	-7.500602E-008	0.0006954	8
	52	195	1.878005	2076.733	-4519.073	1	4973.414	-65.31893	-4.101894E-008	0.0006289	7
	53	199	1.512097	2249.632	-5482	1	5925.637	-67.68837	-2.71792E-008	0.0005471	7
	54	205	1.201923	2481.461	-6743.408	1	7185.486	-69.79723	-3.877856E-008	0.000624	7
	55	211	0.956633	2745.052	-8279.121	1	8722.337	-71.65638	-3.638036E-008	-8.881638E-006	7
