EXPLAIN
TAG	EISPOT
TITLE	LABEL	Potentiostatic EIS	Test Identifier
DATE	LABEL	2/25/2021	Date
TIME	LABEL	1:22:25	Time
NOTES	NOTES	1	Notes...
	
PSTAT	PSTAT	REF3000-16137	Potentiostat
VDC	POTEN	0.00000E+000	T	DC Voltage (V)
FREQINIT	QUANT	3.00000E+005	Initial Freq. (Hz)
FREQFINAL	QUANT	1.00000E+000	Final Freq. (Hz)
PTSPERDEC	QUANT	1.00000E+001	Points/decade
VAC	QUANT	5.00000E+001	AC Voltage (mV rms)
AREA	QUANT	1.00000E+000	Sample Area (cm^2)
SPEED	SELECTOR	2	Optimize for:
ZGUESS	QUANT	1.00000E+003	Estimated Z (ohms)
EOC	QUANT	0	Open Circuit (V)
SEQUENCER	TOGGLE	TRUE	Run as Sequence
PSTATMODEL	IQUANT	5	Pstat Model
PSTATSECTION	LABEL	REF3000-16137	Pstat Section
PSTATSERIALNO	LABEL	16137	Pstat Serial Number
CTRLMODE	IQUANT	1	Control Mode
IESTAB	IQUANT	0	I/E Stability
CASPEED	IQUANT	1	Control Amp Speed
CONVENTION	IQUANT	1	Current Convention
ICHRANGE	IQUANT	2	Ich Range
ICHRANGEMODE	TOGGLE	F	Ich Auto Range
ICHOFFSETENABLE	TOGGLE	T	Ich Offset Enable
ICHOFFSET	QUANT	0	Ich Offset (V)
ICHFILTER	IQUANT	3	Ich Filter
VCHRANGE	IQUANT	2	Vch Range
VCHRANGEMODE	TOGGLE	F	Vch Auto Range
VCHOFFSETENABLE	TOGGLE	T	Vch Offset Enable
VCHOFFSET	QUANT	0	Vch Offset (V)
VCHFILTER	IQUANT	3	Vch Filter
ACHRANGE	IQUANT	2	Ach Range
ACHOFFSETENABLE	TOGGLE	F	Ach Offset Enable
ACHOFFSET	QUANT	0	Ach Offset (V)
ACHFILTER	IQUANT	3	Ach Filter
IERANGELOWERLIMIT	IQUANT	2	I/E Range Lower Limit
IERANGEMODE	TOGGLE	F	I/E AutoRange
IERANGE	IQUANT	11	I/E Range
POSFEEDENABLE	TOGGLE	F	Positive Feedback IR Comp
POSFEEDRESISTANCE	QUANT	0	Positive Feedback Resistance (ohm)
ACHSELECT	IQUANT	0	Ach Select
CABLEID	IQUANT	13	Cable ID
DCCALDATE	LABEL	7/31/2020	DC Calibration Date
ACCALDATE	LABEL	7/31/2020	AC Calibration Date
THERMOSELECT	IQUANT	1	Thermo Select
FRAMEWORKVERSION	QUANT	6.33	Framework Version
INSTRUMENTVERSION	LABEL	3.50	Instrument Version
COMPLIANCEVOLTAGE	IQUANT	0	Compliance Voltage
ZCURVE	TABLE
	Pt	Time	Freq	Zreal	Zimag	Zsig	Zmod	Zphz	Idc	Vdc	IERange
	#	s	Hz	ohm	ohm	V	ohm	°	A	V	#
	0	7	300046.9	9.60259	2.143277	1	9.83887	12.58206	1.128568E-005	0.0001047	10
	1	11	238359.4	9.58344	1.705416	1	9.734	10.09041	2.766559E-005	0.000196	10
	2	14	189328.1	9.58819	1.347535	1	9.68242	8.000013	-2.637751E-005	0.0003177	10
	3	16	150421.9	9.6082	1.056154	1	9.66607	6.27289	-8.095742E-006	0.0005634	10
	4	19	119484.4	9.61432	0.8041695	1	9.6479	4.781253	-3.13685E-005	0.0004962	10
	5	21	94921.88	9.63103	0.6252213	1	9.65131	3.714279	2.391387E-005	0.000585	10
	6	24	75421.88	9.64653	0.4438674	1	9.65673	2.634503	2.210185E-006	0.0005992	10
	7	27	59859.37	9.67049	0.2866195	1	9.67474	1.697667	-2.296709E-005	0.0006912	10
	8	29	47578.12	9.6947	0.1491929	1	9.69585	0.8816618	2.636288E-006	0.0006331	10
	9	32	37828.12	9.72188	0.0245671	1	9.72192	0.1447856	4.177201E-006	0.0006171	10
	10	34	30046.88	9.74858	-0.0962336	1	9.74905	-0.56558	1.075507E-006	0.0006275	10
	11	37	23859.38	9.77751	-0.2201779	1	9.77999	-1.290015	-2.486148E-005	0.0007049	10
	12	39	18984.38	9.80559	-0.3526709	1	9.81193	-2.059829	-2.636996E-005	0.0007159	10
	13	41	15046.87	9.83549	-0.5032253	1	9.84836	-2.92894	-7.048866E-006	0.000657	10
	14	44	11953.13	9.87034	-0.675469	1	9.89342	-3.91489	-2.422404E-005	0.0007131	10
	15	46	9515.62	9.90594	-0.8765637	1	9.94465	-5.056858	1.72382E-005	0.000639	10
	16	48	7546.875	9.94879	-1.124662	1	10.01216	-6.449626	-6.013023E-006	0.000652	10
	17	50	5928.309	9.99736	-1.436462	1	10.10003	-8.176535	2.165191E-005	0.000655	10
	18	53	4733.456	10.05154	-1.796023	1	10.21074	-10.13077	-2.641685E-005	0.0007002	10
	19	55	3796.875	10.11267	-2.224493	1	10.35444	-12.40583	-2.37991E-005	0.0007272	10
	20	57	2987.132	10.19079	-2.802111	1	10.56901	-15.37439	-4.971758E-006	0.0006865	10
	21	60	2390.625	10.28081	-3.46577	1	10.84927	-18.6295	-3.992184E-006	0.000649	10
	22	62	1884.191	10.39666	-4.339062	1	11.26579	-22.6533	-2.591464E-005	0.0006958	10
	23	64	1516.544	10.52611	-5.322343	1	11.79519	-26.82263	2.240723E-005	0.000666	10
	24	67	1193.986	10.6999	-6.661664	1	12.60419	-31.90604	1.568973E-005	0.0006812	10
	25	69	946.5144	10.91236	-8.279588	1	13.69786	-37.18885	-3.918741E-006	0.0006506	10
	26	71	751.7689	11.17425	-10.24549	1	15.16028	-42.51722	-3.041378E-006	0.0006622	10
	27	74	597.4265	11.49069	-12.68131	1	17.11291	-47.8199	-2.578491E-005	0.0006892	10
	28	76	477.4305	11.86887	-15.60513	1	19.60587	-52.7443	-3.007799E-006	0.0006876	10
	29	78	376.6741	12.36124	-19.42996	1	23.02876	-57.53569	-2.495734E-006	0.0006849	10
	30	81	298.2954	12.95973	-24.11047	1	27.37278	-61.74131	-2.232735E-006	0.0006865	10
	31	83	237.7717	13.68421	-29.74209	1	32.73911	-65.29304	-2.264706E-006	0.0006809	10
	32	85	189.0121	14.595	-36.77702	1	39.5672	-68.35429	-2.438895E-006	0.0006804	10
	33	88	150.2404	15.71199	-45.41829	1	48.05921	-70.91747	1.166985E-006	7.991428E-005	9
	34	90	119.1737	17.15021	-56.25819	1	58.81424	-73.04625	1.17887E-006	8.648957E-005	9
	35	93	95.0169	18.91831	-69.33251	1	71.86723	-74.73762	1.150119E-006	8.065534E-005	9
	36	95	75.60484	21.15451	-85.58084	1	88.15665	-76.11552	1.066082E-006	8.601652E-005	9
	37	98	54.50582	25.36318	-115.5934	1	118.3433	-77.62444	1.106513E-006	8.148993E-005	9
	38	100	45.95588	28.18499	-135.1898	1	138.0966	-78.22341	1.255446E-006	8.318892E-005	9
	39	103	37.20238	32.34958	-164.0027	1	167.1627	-78.84164	1.241559E-006	8.270052E-005	9
	40	105	30.04808	37.57067	-199.408	1	202.9165	-79.32993	1.179228E-006	8.421103E-005	9
	41	107	23.91582	44.32893	-245.3801	1	249.3521	-79.75973	1.189747E-006	7.900918E-005	9
	42	110	18.60119	53.7181	-308.6229	1	313.2631	-80.12617	1.286535E-006	8.061049E-005	9
	43	112	15.02404	63.59207	-374.7975	1	380.1541	-80.37031	1.313055E-006	8.962107E-005	9
	44	114	12.01923	75.83164	-457.3	1	463.5448	-80.58463	4.717555E-007	0.0006587	8
	45	117	9.450605	92.48529	-569.083	1	576.5492	-80.7692	5.448088E-007	0.0006817	8
	46	119	7.512019	112.4041	-701.7497	1	710.6949	-80.89983	5.305659E-007	0.0006628	8
	47	122	5.978954	137.0448	-863.7247	1	874.5294	-80.98419	5.362253E-007	0.0006662	8
	48	125	4.734848	168.3525	-1068.908	1	1082.085	-81.04947	6.04741E-007	0.0006936	8
	49	128	3.75601	209.022	-1320.08	1	1336.526	-81.00246	5.359838E-007	0.0006474	8
	50	132	3.004808	258.5413	-1617.106	1	1637.643	-80.91648	5.690576E-007	0.0006764	8
	51	135	2.372217	329.5584	-2005.086	1	2031.989	-80.66625	5.694218E-007	0.000717	8
	52	140	1.878005	415.2927	-2483.418	1	2517.903	-80.50648	5.301431E-007	0.0006466	8
	53	144	1.512097	516.0839	-3018.606	1	3062.406	-80.29808	5.780192E-007	0.0006117	8
	54	150	1.201923	667.3923	-3724.497	1	3783.82	-79.84099	5.491476E-007	0.0006493	8
	55	156	0.956633	861.5229	-4581.872	1	4662.164	-79.35109	-2.14091E-008	-4.338428E-006	7
