EXPLAIN
TAG	EISPOT
TITLE	LABEL	Potentiostatic EIS	Test Identifier
DATE	LABEL	2/25/2021	Date
TIME	LABEL	1:02:51	Time
NOTES	NOTES	1	Notes...
	
PSTAT	PSTAT	REF3000-16137	Potentiostat
VDC	POTEN	0.00000E+000	T	DC Voltage (V)
FREQINIT	QUANT	3.00000E+005	Initial Freq. (Hz)
FREQFINAL	QUANT	1.00000E+000	Final Freq. (Hz)
PTSPERDEC	QUANT	1.00000E+001	Points/decade
VAC	QUANT	5.00000E+001	AC Voltage (mV rms)
AREA	QUANT	1.00000E+000	Sample Area (cm^2)
SPEED	SELECTOR	2	Optimize for:
ZGUESS	QUANT	1.00000E+003	Estimated Z (ohms)
EOC	QUANT	0	Open Circuit (V)
SEQUENCER	TOGGLE	TRUE	Run as Sequence
PSTATMODEL	IQUANT	5	Pstat Model
PSTATSECTION	LABEL	REF3000-16137	Pstat Section
PSTATSERIALNO	LABEL	16137	Pstat Serial Number
CTRLMODE	IQUANT	1	Control Mode
IESTAB	IQUANT	0	I/E Stability
CASPEED	IQUANT	1	Control Amp Speed
CONVENTION	IQUANT	1	Current Convention
ICHRANGE	IQUANT	2	Ich Range
ICHRANGEMODE	TOGGLE	F	Ich Auto Range
ICHOFFSETENABLE	TOGGLE	T	Ich Offset Enable
ICHOFFSET	QUANT	0	Ich Offset (V)
ICHFILTER	IQUANT	3	Ich Filter
VCHRANGE	IQUANT	2	Vch Range
VCHRANGEMODE	TOGGLE	F	Vch Auto Range
VCHOFFSETENABLE	TOGGLE	T	Vch Offset Enable
VCHOFFSET	QUANT	0	Vch Offset (V)
VCHFILTER	IQUANT	3	Vch Filter
ACHRANGE	IQUANT	2	Ach Range
ACHOFFSETENABLE	TOGGLE	F	Ach Offset Enable
ACHOFFSET	QUANT	0	Ach Offset (V)
ACHFILTER	IQUANT	3	Ach Filter
IERANGELOWERLIMIT	IQUANT	2	I/E Range Lower Limit
IERANGEMODE	TOGGLE	F	I/E AutoRange
IERANGE	IQUANT	11	I/E Range
POSFEEDENABLE	TOGGLE	F	Positive Feedback IR Comp
POSFEEDRESISTANCE	QUANT	0	Positive Feedback Resistance (ohm)
ACHSELECT	IQUANT	0	Ach Select
CABLEID	IQUANT	13	Cable ID
DCCALDATE	LABEL	7/31/2020	DC Calibration Date
ACCALDATE	LABEL	7/31/2020	AC Calibration Date
THERMOSELECT	IQUANT	1	Thermo Select
FRAMEWORKVERSION	QUANT	6.33	Framework Version
INSTRUMENTVERSION	LABEL	3.50	Instrument Version
COMPLIANCEVOLTAGE	IQUANT	0	Compliance Voltage
ZCURVE	TABLE
	Pt	Time	Freq	Zreal	Zimag	Zsig	Zmod	Zphz	Idc	Vdc	IERange
	#	s	Hz	ohm	ohm	V	ohm	°	A	V	#
	0	11	300046.9	4.451094	2.21521	1	4.97186	26.45851	3.19691E-005	0.0001768	10
	1	14	238359.4	4.437107	1.772066	1	4.77788	21.77049	-9.382219E-005	-0.0001567	10
	2	17	189328.1	4.421151	1.392784	1	4.635345	17.48586	2.288411E-005	3.662466E-005	10
	3	19	150421.9	4.408506	1.097149	1	4.542979	13.97534	4.279698E-005	0.0003438	10
	4	22	119484.4	4.406054	0.8379827	1	4.485033	10.76842	2.600147E-005	0.0003912	10
	5	26	94921.88	4.411944	0.6514348	1	4.459778	8.399181	3.404093E-005	0.0004791	10
	6	28	75421.88	4.413699	0.4750589	1	4.439191	6.143257	2.437238E-006	0.0004995	10
	7	31	59859.37	4.418776	0.3234965	1	4.430602	4.187127	-1.703262E-005	0.0006135	10
	8	33	47578.12	4.424788	0.1904711	1	4.428885	2.464854	2.400202E-005	0.0006109	10
	9	36	37828.12	4.433465	0.0683569	1	4.433992	0.8833385	7.002478E-006	0.000611	10
	10	38	30046.88	4.44303	-0.0488187	1	4.443298	-0.6295242	1.071157E-005	0.0006303	10
	11	41	23859.38	4.456002	-0.165916	1	4.45909	-2.132381	-2.069369E-005	0.0006979	10
	12	43	18984.38	4.467715	-0.2885528	1	4.477024	-3.695385	2.013111E-005	0.0006519	10
	13	45	15046.87	4.483366	-0.4258494	1	4.503545	-5.425921	-1.481917E-005	0.0006865	10
	14	48	11953.13	4.499938	-0.5820652	1	4.537426	-7.370265	1.581193E-005	0.0006494	10
	15	50	9515.62	4.519726	-0.7633713	1	4.583738	-9.58665	2.966088E-006	0.0006438	10
	16	52	7546.875	4.544012	-0.983743	1	4.649279	-12.21557	7.822751E-006	0.0006463	10
	17	55	5928.309	4.573787	-1.262533	1	4.744842	-15.43146	1.196069E-005	0.0006561	10
	18	57	4733.456	4.608794	-1.581741	1	4.872667	-18.94225	1.585489E-005	0.0006593	10
	19	59	3796.875	4.651671	-1.963405	1	5.04906	-22.88392	-2.086476E-005	0.0007112	10
	20	62	2987.132	4.707168	-2.475752	1	5.318531	-27.74229	-2.620972E-005	0.0007	10
	21	64	2390.625	4.774649	-3.060212	1	5.67117	-32.65699	-9.002535E-006	0.0006862	10
	22	66	1884.191	4.860696	-3.836654	1	6.192438	-38.28481	-1.278585E-005	0.0006754	10
	23	69	1516.544	4.959811	-4.708698	1	6.838974	-43.51223	4.257311E-006	0.0006895	10
	24	71	1193.986	5.097897	-5.89416	1	7.792925	-49.14326	-2.73791E-005	0.000694	10
	25	73	946.5144	5.261723	-7.328343	1	9.02166	-54.3218	-3.135001E-005	0.0006791	10
	26	76	751.7689	5.477705	-9.085809	1	10.6093	-58.91482	3.997996E-006	0.0006575	10
	27	78	597.4265	5.739411	-11.25437	1	12.63336	-62.97971	-1.847927E-005	0.0006848	10
	28	80	477.4305	6.063873	-13.8695	1	15.13716	-66.38461	-2.840224E-006	0.00069	10
	29	83	376.6741	6.500683	-17.28585	1	18.4678	-69.39024	-3.135381E-006	0.0006839	10
	30	85	298.2954	7.046481	-21.46012	1	22.58737	-71.82228	-3.18403E-006	0.0006885	10
	31	87	237.7717	7.719298	-26.46592	1	27.56869	-73.73965	-2.298327E-006	0.0006857	10
	32	90	189.0121	8.577156	-32.71175	1	33.81754	-75.30756	-2.582437E-006	0.0006923	10
	33	92	150.2404	9.65684	-40.39973	1	41.53784	-76.55671	-2.724036E-006	0.0006862	10
	34	95	119.1737	11.01218	-49.91211	1	51.11249	-77.55807	1.015019E-006	8.724171E-005	9
	35	97	95.0169	12.68296	-61.4045	1	62.70064	-78.3298	9.256455E-007	8.345092E-005	9
	36	99	75.60484	14.77793	-75.65514	1	77.08494	-78.94742	9.499194E-007	8.294667E-005	9
	37	102	54.50582	18.67801	-101.9247	1	103.6219	-79.61559	5.985455E-007	0.0001179	9
	38	105	45.95588	21.24028	-119.0874	1	120.9667	-79.88714	1.053432E-006	8.382161E-005	9
	39	107	37.20238	25.05335	-144.3582	1	146.5161	-80.1544	9.275233E-007	8.421423E-005	9
	40	109	30.04808	29.71454	-175.2567	1	177.7579	-80.37709	9.108909E-007	7.591039E-005	9
	41	112	23.91582	35.8943	-215.7695	1	218.7347	-80.55506	9.319571E-007	7.927504E-005	9
	42	114	18.60119	44.57068	-271.4344	1	275.0695	-80.675	1.052025E-006	8.19389E-005	9
	43	116	15.02404	53.99307	-329.7721	1	334.1629	-80.70155	1.156388E-006	8.442569E-005	9
	44	119	12.01923	66.4772	-404.2413	1	409.6709	-80.66133	1.038885E-006	8.020724E-005	9
	45	121	9.450605	83.53677	-501.3411	1	508.2532	-80.53991	4.296916E-007	0.0006535	8
	46	124	7.512019	105.2629	-617.5177	1	626.4251	-80.32627	4.258928E-007	0.0006834	8
	47	126	5.978954	133.7204	-759.6107	1	771.2908	-80.01605	4.379542E-007	0.0006641	8
	48	129	4.734848	172.6642	-938.4211	1	954.174	-79.5745	4.230856E-007	0.0006829	8
	49	133	3.75601	223.5804	-1156.055	1	1177.476	-79.05416	4.476543E-007	0.0006675	8
	50	136	3.004808	289.9966	-1410.325	1	1439.832	-78.38057	3.860479E-007	0.0006977	8
	51	140	2.372217	386.3732	-1739.488	1	1781.882	-77.47683	3.953095E-007	0.0007409	8
	52	144	1.878005	514.6375	-2134.043	1	2195.22	-76.44165	3.763997E-007	0.0006363	8
	53	149	1.512097	676.924	-2568.836	1	2656.528	-75.23736	4.080467E-007	0.0007219	8
	54	154	1.201923	908.8561	-3131.215	1	3260.449	-73.81428	4.126184E-007	0.0006305	8
	55	160	0.956633	1223.962	-3785.547	1	3978.499	-72.08269	3.579737E-007	4.261047E-006	8
