EXPLAIN
TAG	EISPOT
TITLE	LABEL	Potentiostatic EIS	Test Identifier
DATE	LABEL	8/29/2020	Date
TIME	LABEL	22:31:59	Time
NOTES	NOTES	1	Notes...
	
PSTAT	PSTAT	REF3000-16137	Potentiostat
VDC	POTEN	0.00000E+000	T	DC Voltage (V)
FREQINIT	QUANT	3.00000E+005	Initial Freq. (Hz)
FREQFINAL	QUANT	1.00000E+000	Final Freq. (Hz)
PTSPERDEC	QUANT	1.00000E+001	Points/decade
VAC	QUANT	5.00000E+001	AC Voltage (mV rms)
AREA	QUANT	1.00000E+000	Sample Area (cm^2)
SPEED	SELECTOR	2	Optimize for:
ZGUESS	QUANT	1.00000E+003	Estimated Z (ohms)
EOC	QUANT	0	Open Circuit (V)
SEQUENCER	TOGGLE	TRUE	Run as Sequence
PSTATMODEL	IQUANT	5	Pstat Model
PSTATSECTION	LABEL	REF3000-16137	Pstat Section
PSTATSERIALNO	LABEL	16137	Pstat Serial Number
CTRLMODE	IQUANT	1	Control Mode
IESTAB	IQUANT	0	I/E Stability
CASPEED	IQUANT	1	Control Amp Speed
CONVENTION	IQUANT	1	Current Convention
ICHRANGE	IQUANT	2	Ich Range
ICHRANGEMODE	TOGGLE	F	Ich Auto Range
ICHOFFSETENABLE	TOGGLE	T	Ich Offset Enable
ICHOFFSET	QUANT	0	Ich Offset (V)
ICHFILTER	IQUANT	3	Ich Filter
VCHRANGE	IQUANT	2	Vch Range
VCHRANGEMODE	TOGGLE	F	Vch Auto Range
VCHOFFSETENABLE	TOGGLE	T	Vch Offset Enable
VCHOFFSET	QUANT	0	Vch Offset (V)
VCHFILTER	IQUANT	3	Vch Filter
ACHRANGE	IQUANT	2	Ach Range
ACHOFFSETENABLE	TOGGLE	F	Ach Offset Enable
ACHOFFSET	QUANT	0	Ach Offset (V)
ACHFILTER	IQUANT	1	Ach Filter
IERANGELOWERLIMIT	IQUANT	2	I/E Range Lower Limit
IERANGEMODE	TOGGLE	F	I/E AutoRange
IERANGE	IQUANT	11	I/E Range
POSFEEDENABLE	TOGGLE	F	Positive Feedback IR Comp
POSFEEDRESISTANCE	QUANT	0	Positive Feedback Resistance (ohm)
ACHSELECT	IQUANT	0	Ach Select
CABLEID	IQUANT	13	Cable ID
DCCALDATE	LABEL	7/31/2020	DC Calibration Date
ACCALDATE	LABEL	7/31/2020	AC Calibration Date
THERMOSELECT	IQUANT	1	Thermo Select
FRAMEWORKVERSION	QUANT	6.33	Framework Version
INSTRUMENTVERSION	LABEL	3.50	Instrument Version
COMPLIANCEVOLTAGE	IQUANT	0	Compliance Voltage
ZCURVE	TABLE
	Pt	Time	Freq	Zreal	Zimag	Zsig	Zmod	Zphz	Idc	Vdc	IERange
	#	s	Hz	ohm	ohm	V	ohm	°	A	V	#
	0	10	300046.9	3.388242	1.870586	1	3.870306	28.90228	3.156103E-005	-3.352236E-005	10
	1	14	238359.4	3.363626	1.494905	1	3.680859	23.96192	5.071925E-005	-0.0004888	10
	2	17	189328.1	3.347526	1.185956	1	3.551397	19.50813	9.133038E-006	-0.0001415	10
	3	19	150421.9	3.333932	0.9251531	1	3.459915	15.50913	6.235499E-005	-6.354679E-005	10
	4	22	119484.4	3.340287	0.5623792	1	3.387298	9.55684	1.267218E-005	0.0002405	12
	5	25	94921.88	3.310629	0.539107	1	3.354236	9.248937	-2.939393E-005	0.0006066	11
	6	28	75421.88	3.303277	0.3983097	1	3.327204	6.875541	-5.223999E-005	0.0006349	11
	7	30	59859.37	3.298526	0.2759666	1	3.31005	4.782435	-6.076745E-005	0.0005986	11
	8	33	47578.12	3.295391	0.168035	1	3.299672	2.919036	-4.539805E-005	0.0006168	11
	9	36	37828.12	3.29386	0.0682066	1	3.294566	1.186265	-4.15216E-006	0.0006521	11
	10	38	30046.88	3.295901	-0.0281934	1	3.296021	-0.4901009	-4.316499E-005	0.0006778	11
	11	41	23859.38	3.29823	-0.1262404	1	3.300645	-2.191936	-1.671519E-005	0.0007087	11
	12	43	18984.38	3.302913	-0.2293615	1	3.310867	-3.972368	-4.986472E-006	0.0007201	11
	13	45	15046.87	3.309314	-0.3447436	1	3.327223	-5.947263	-5.670723E-005	0.0006434	11
	14	48	11953.13	3.318999	-0.4746516	1	3.352767	-8.138713	1.661565E-005	0.0007224	11
	15	50	9515.62	3.331507	-0.625908	1	3.389793	-10.64043	9.239236E-007	0.0006974	11
	16	52	7546.875	3.349195	-0.8083099	1	3.445356	-13.56855	6.480536E-006	0.0007065	11
	17	54	5928.309	3.371948	-1.040403	1	3.528806	-17.14743	-2.37217E-005	0.0006949	11
	18	57	4733.456	3.403064	-1.304268	1	3.644442	-20.96997	-2.981171E-005	0.0006882	10
	19	59	3796.875	3.437583	-1.618348	1	3.799477	-25.21015	-9.378939E-006	0.000676	10
	20	61	2987.132	3.484598	-2.040161	1	4.037906	-30.3481	-2.789155E-005	0.0007363	10
	21	64	2390.625	3.541931	-2.521639	1	4.347866	-35.44854	1.368788E-005	0.0006538	10
	22	66	1884.191	3.620781	-3.160671	1	4.806235	-41.11853	-2.408019E-005	0.0006923	10
	23	68	1516.544	3.715569	-3.87559	1	5.368953	-46.2076	-2.731745E-005	0.0007324	10
	24	71	1193.986	3.851679	-4.84586	1	6.190137	-51.52095	-7.989991E-006	0.0006451	10
	25	73	946.5144	4.025332	-6.013107	1	7.236073	-56.20061	-1.343811E-005	0.0006723	10
	26	75	751.7689	4.251727	-7.438639	1	8.567994	-60.24887	-3.007899E-005	0.0006848	10
	27	78	597.4265	4.545525	-9.184978	1	10.2482	-63.6698	1.120195E-005	0.0006591	10
	28	80	477.4305	4.914893	-11.25957	1	12.28552	-66.41833	-6.022247E-006	0.0006788	10
	29	82	376.6741	5.416535	-13.95022	1	14.96488	-68.78001	-5.161219E-006	0.0006673	10
	30	85	298.2954	6.047628	-17.20401	1	18.236	-70.63218	-6.412008E-006	0.0006765	10
	31	87	237.7717	6.828046	-21.07	1	22.14875	-72.04432	-5.713804E-006	0.0006738	10
	32	89	189.0121	7.832326	-25.84427	1	27.00503	-73.14012	-6.348497E-006	0.0006837	10
	33	92	150.2404	9.115509	-31.68312	1	32.96835	-73.94901	-5.072402E-006	0.0006755	10
	34	94	119.1737	10.77927	-38.86707	1	40.33412	-74.49934	-5.562772E-006	0.0006755	10
	35	97	95.0169	12.85593	-47.35837	1	49.0723	-74.81245	-2.518728E-006	7.527023E-005	9
	36	99	75.60484	15.5686	-57.79707	1	59.85718	-74.92426	-2.509167E-006	6.68454E-005	9
	37	102	54.50582	20.88871	-76.65721	1	79.45229	-74.75727	-2.592503E-006	7.052284E-005	9
	38	104	45.95588	24.53853	-88.69572	1	92.02756	-74.53538	-2.504874E-006	0.0001258	9
	39	107	37.20238	30.10833	-106.0588	1	110.2496	-74.15164	-2.338913E-006	7.982946E-005	9
	40	109	30.04808	37.2567	-126.8919	1	132.2483	-73.63725	-2.879882E-006	0.000126	9
	41	111	23.91582	46.85709	-153.1186	1	160.1277	-72.98493	-2.258565E-006	7.060289E-005	9
	42	114	18.60119	60.79602	-188.0101	1	197.5954	-72.08057	-2.50628E-006	7.822783E-005	9
	43	116	15.02404	76.07573	-223.2029	1	235.8114	-71.179	-1.968954E-006	8.476408E-005	9
	44	118	12.01923	96.325	-266.3189	1	283.2036	-70.11543	-1.994149E-006	7.795461E-005	9
	45	121	9.450605	124.5223	-320.722	1	344.0471	-68.78098	-2.371098E-006	6.255458E-005	9
	46	123	7.512019	159.6529	-381.7018	1	413.7455	-67.3021	-2.119817E-006	5.966075E-005	9
	47	126	5.978954	204.019	-448.9264	1	493.1112	-65.56012	-2.695955E-006	0.000661	8
	48	129	4.734848	264.0189	-528.5723	1	590.8423	-63.45813	-2.661016E-006	0.0006817	8
	49	132	3.75601	340.5759	-615.9299	1	703.8192	-61.05978	-2.829685E-006	0.0006532	8
	50	136	3.004808	433.5486	-705.0071	1	827.6469	-58.4103	-3.045709E-006	0.0006921	8
	51	139	2.372217	557.7469	-800.5486	1	975.684	-55.13485	-2.742912E-006	0.0007312	8
	52	143	1.878005	704.7484	-889.0615	1	1134.505	-51.59656	-2.984917E-006	0.0006316	8
	53	148	1.512097	861.9045	-959.966	1	1290.122	-48.08096	-2.955097E-006	0.0007338	8
	54	154	1.201923	1049.793	-1019.93	1	1463.668	-44.17338	-2.768126E-006	0.0006189	8
	55	160	0.956633	1247.706	-1060.624	1	1637.588	-40.36651	-3.247255E-006	1.774434E-005	8
