EXPLAIN
TAG	EISPOT
TITLE	LABEL	Potentiostatic EIS	Test Identifier
DATE	LABEL	8/29/2020	Date
TIME	LABEL	22:51:32	Time
NOTES	NOTES	1	Notes...
	
PSTAT	PSTAT	REF3000-16137	Potentiostat
VDC	POTEN	0.00000E+000	T	DC Voltage (V)
FREQINIT	QUANT	3.00000E+005	Initial Freq. (Hz)
FREQFINAL	QUANT	1.00000E+000	Final Freq. (Hz)
PTSPERDEC	QUANT	1.00000E+001	Points/decade
VAC	QUANT	5.00000E+001	AC Voltage (mV rms)
AREA	QUANT	1.00000E+000	Sample Area (cm^2)
SPEED	SELECTOR	2	Optimize for:
ZGUESS	QUANT	1.00000E+003	Estimated Z (ohms)
EOC	QUANT	0	Open Circuit (V)
SEQUENCER	TOGGLE	TRUE	Run as Sequence
PSTATMODEL	IQUANT	5	Pstat Model
PSTATSECTION	LABEL	REF3000-16137	Pstat Section
PSTATSERIALNO	LABEL	16137	Pstat Serial Number
CTRLMODE	IQUANT	1	Control Mode
IESTAB	IQUANT	0	I/E Stability
CASPEED	IQUANT	1	Control Amp Speed
CONVENTION	IQUANT	1	Current Convention
ICHRANGE	IQUANT	2	Ich Range
ICHRANGEMODE	TOGGLE	F	Ich Auto Range
ICHOFFSETENABLE	TOGGLE	T	Ich Offset Enable
ICHOFFSET	QUANT	0	Ich Offset (V)
ICHFILTER	IQUANT	3	Ich Filter
VCHRANGE	IQUANT	2	Vch Range
VCHRANGEMODE	TOGGLE	F	Vch Auto Range
VCHOFFSETENABLE	TOGGLE	T	Vch Offset Enable
VCHOFFSET	QUANT	0	Vch Offset (V)
VCHFILTER	IQUANT	3	Vch Filter
ACHRANGE	IQUANT	2	Ach Range
ACHOFFSETENABLE	TOGGLE	F	Ach Offset Enable
ACHOFFSET	QUANT	0	Ach Offset (V)
ACHFILTER	IQUANT	3	Ach Filter
IERANGELOWERLIMIT	IQUANT	2	I/E Range Lower Limit
IERANGEMODE	TOGGLE	F	I/E AutoRange
IERANGE	IQUANT	11	I/E Range
POSFEEDENABLE	TOGGLE	F	Positive Feedback IR Comp
POSFEEDRESISTANCE	QUANT	0	Positive Feedback Resistance (ohm)
ACHSELECT	IQUANT	0	Ach Select
CABLEID	IQUANT	13	Cable ID
DCCALDATE	LABEL	7/31/2020	DC Calibration Date
ACCALDATE	LABEL	7/31/2020	AC Calibration Date
THERMOSELECT	IQUANT	1	Thermo Select
FRAMEWORKVERSION	QUANT	6.33	Framework Version
INSTRUMENTVERSION	LABEL	3.50	Instrument Version
COMPLIANCEVOLTAGE	IQUANT	0	Compliance Voltage
ZCURVE	TABLE
	Pt	Time	Freq	Zreal	Zimag	Zsig	Zmod	Zphz	Idc	Vdc	IERange
	#	s	Hz	ohm	ohm	V	ohm	°	A	V	#
	0	7	300046.9	24.18726	1.17699	1	24.21588	2.785906	-3.9689E-005	-0.0003691	11
	1	11	238359.4	24.64111	1.18589	1	24.66963	2.75532	-5.107519E-005	0.0005656	10
	2	16	189328.1	24.94521	0.7131767	1	24.9554	1.637625	1.105736E-005	0.0006251	11
	3	19	150421.9	25.31736	0.7239758	1	25.32771	1.637985	-5.08081E-006	0.0004423	10
	4	23	119484.4	25.65219	0.5433573	1	25.65795	1.213441	7.159455E-005	0.0003042	10
	5	27	94921.88	25.88318	0.4073431	1	25.88638	0.9016324	-2.909745E-006	0.0007124	10
	6	29	75421.88	26.12101	0.2738314	1	26.12244	0.6006204	4.687014E-007	0.0005919	10
	7	32	59859.37	26.36957	0.1559432	1	26.37003	0.3388293	2.466418E-005	0.000631	10
	8	34	47578.12	26.61394	0.0523842	1	26.61399	0.1127751	2.384749E-005	0.0006241	10
	9	37	37828.12	26.86638	-0.048843	1	26.86643	-0.1041635	2.076943E-005	0.0006307	10
	10	39	30046.88	27.12326	-0.1533972	1	27.12369	-0.3240362	6.911412E-006	0.000597	10
	11	42	23859.38	27.37349	-0.2646292	1	27.37477	-0.5538813	6.267189E-006	0.0006064	10
	12	44	18984.38	27.61663	-0.3848503	1	27.61931	-0.7983912	-6.589404E-006	0.0006665	10
	13	46	15046.87	27.87493	-0.5324959	1	27.88002	-1.09439	2.221614E-005	0.0006759	10
	14	49	11953.13	28.12798	-0.6904247	1	28.13645	-1.40609	-2.803727E-005	0.000735	10
	15	51	9515.62	28.38367	-0.8833535	1	28.39741	-1.782578	1.447209E-005	0.0007161	10
	16	53	7546.875	28.65667	-1.119945	1	28.67854	-2.238065	-2.380982E-005	0.0006563	10
	17	56	5928.309	28.93425	-1.420348	1	28.96909	-2.810326	-2.058594E-005	0.0007325	10
	18	58	4733.456	29.21923	-1.774493	1	29.27307	-3.475322	2.429143E-005	0.0006408	10
	19	60	3796.875	29.52461	-2.191076	1	29.6058	-4.244247	-2.283027E-005	0.0006838	10
	20	63	2987.132	29.84542	-2.758475	1	29.97263	-5.280583	1.358528E-005	0.0006091	10
	21	65	2390.625	30.17877	-3.408293	1	30.37062	-6.443497	2.244651E-005	0.0006435	10
	22	67	1884.191	30.53266	-4.27733	1	30.83081	-7.974687	-5.094771E-006	0.0007075	10
	23	69	1516.544	30.91464	-5.227522	1	31.3535	-9.59766	-5.095396E-006	0.0007096	10
	24	72	1193.986	31.35969	-6.541253	1	32.03464	-11.78227	-1.526033E-005	0.0007105	10
	25	74	946.5144	31.8418	-8.130553	1	32.86345	-14.32396	-1.185554E-005	0.0006485	10
	26	77	751.7689	32.35939	-10.06743	1	33.88929	-17.2816	2.372857E-005	0.0006416	10
	27	79	597.4265	32.95802	-12.46253	1	35.23557	-20.71329	-2.7431E-005	0.0007104	10
	28	81	477.4305	33.62933	-15.33098	1	36.95904	-24.50735	-1.524714E-006	0.0006763	10
	29	84	376.6741	34.38606	-19.0554	1	39.31297	-28.9935	1.192419E-006	7.621392E-005	9
	30	86	298.2954	35.30215	-23.62245	1	42.4766	-33.78848	1.279655E-006	7.749019E-005	9
	31	88	237.7717	36.36934	-29.10472	1	46.58125	-38.66869	1.147718E-006	8.059951E-005	9
	32	91	189.0121	37.63404	-35.94502	1	52.04196	-43.685	1.198693E-006	7.589388E-005	9
	33	93	150.2404	39.14452	-44.39582	1	59.18854	-48.59685	1.247126E-006	7.387256E-005	9
	34	95	119.1737	40.9798	-54.94157	1	68.54137	-53.28149	1.211289E-006	7.706596E-005	9
	35	98	95.0169	43.19118	-67.66386	1	80.27375	-57.4491	1.127353E-006	7.616339E-005	9
	36	100	75.60484	45.95695	-83.46834	1	95.2838	-61.1632	1.229743E-006	7.7681E-005	9
	37	103	54.50582	50.97093	-112.5634	1	123.566	-65.63804	1.116181E-006	8.396029E-005	9
	38	105	45.95588	54.48	-131.5564	1	142.3908	-67.50462	1.229823E-006	7.852475E-005	9
	39	108	37.20238	59.56046	-159.3992	1	170.1633	-69.5115	1.219784E-006	7.938989E-005	9
	40	110	30.04808	65.86577	-193.4497	1	204.3553	-71.19732	1.191272E-006	7.381369E-005	9
	41	113	23.91582	74.1515	-237.6746	1	248.9732	-72.67273	1.269429E-006	7.374353E-005	9
	42	115	18.60119	85.49077	-298.0058	1	310.026	-73.99307	1.214197E-006	7.592356E-005	9
	43	117	15.02404	97.601	-360.9624	1	373.9249	-74.86954	1.216071E-006	0.0001141	9
	44	119	12.01923	112.635	-439.157	1	453.3712	-75.61485	3.941308E-007	0.0006614	8
	45	122	9.450605	133.6903	-544.801	1	560.9645	-76.21246	5.023609E-007	0.0006519	8
	46	124	7.512019	158.7729	-668.7684	1	687.3572	-76.64462	4.712736E-007	0.000672	8
	47	127	5.978954	190.8639	-819.8303	1	841.7545	-76.89447	4.728987E-007	0.0006557	8
	48	130	4.734848	232.8519	-1009.114	1	1035.631	-77.00649	4.521943E-007	0.0006884	8
	49	133	3.75601	285.2337	-1238.916	1	1271.327	-77.03481	4.050209E-007	0.0006421	8
	50	137	3.004808	349.5223	-1508.117	1	1548.09	-76.95145	4.008891E-007	0.0006876	8
	51	141	2.372217	436.5787	-1857.036	1	1907.664	-76.77032	4.406059E-007	0.000733	8
	52	145	1.878005	544.4234	-2276.6	1	2340.791	-76.55093	4.141164E-007	0.0006282	8
	53	150	1.512097	672.498	-2742.164	1	2823.423	-76.22054	4.436713E-007	0.0007197	8
	54	155	1.201923	837.6654	-3353.342	1	3456.384	-75.97453	4.319724E-007	0.000624	8
	55	161	0.956633	1043.513	-4082.922	1	4214.163	-75.66325	4.010263E-007	2.006049E-005	8
