EXPLAIN
TAG	EISPOT
TITLE	LABEL	Potentiostatic EIS	Test Identifier
DATE	LABEL	8/29/2020	Date
TIME	LABEL	23:07:33	Time
NOTES	NOTES	1	Notes...
	
PSTAT	PSTAT	REF3000-16137	Potentiostat
VDC	POTEN	0.00000E+000	T	DC Voltage (V)
FREQINIT	QUANT	3.00000E+005	Initial Freq. (Hz)
FREQFINAL	QUANT	1.00000E+000	Final Freq. (Hz)
PTSPERDEC	QUANT	1.00000E+001	Points/decade
VAC	QUANT	5.00000E+001	AC Voltage (mV rms)
AREA	QUANT	1.00000E+000	Sample Area (cm^2)
SPEED	SELECTOR	2	Optimize for:
ZGUESS	QUANT	1.00000E+003	Estimated Z (ohms)
EOC	QUANT	0	Open Circuit (V)
SEQUENCER	TOGGLE	TRUE	Run as Sequence
PSTATMODEL	IQUANT	5	Pstat Model
PSTATSECTION	LABEL	REF3000-16137	Pstat Section
PSTATSERIALNO	LABEL	16137	Pstat Serial Number
CTRLMODE	IQUANT	1	Control Mode
IESTAB	IQUANT	0	I/E Stability
CASPEED	IQUANT	1	Control Amp Speed
CONVENTION	IQUANT	1	Current Convention
ICHRANGE	IQUANT	2	Ich Range
ICHRANGEMODE	TOGGLE	F	Ich Auto Range
ICHOFFSETENABLE	TOGGLE	T	Ich Offset Enable
ICHOFFSET	QUANT	0	Ich Offset (V)
ICHFILTER	IQUANT	3	Ich Filter
VCHRANGE	IQUANT	2	Vch Range
VCHRANGEMODE	TOGGLE	F	Vch Auto Range
VCHOFFSETENABLE	TOGGLE	T	Vch Offset Enable
VCHOFFSET	QUANT	0	Vch Offset (V)
VCHFILTER	IQUANT	3	Vch Filter
ACHRANGE	IQUANT	2	Ach Range
ACHOFFSETENABLE	TOGGLE	F	Ach Offset Enable
ACHOFFSET	QUANT	0	Ach Offset (V)
ACHFILTER	IQUANT	3	Ach Filter
IERANGELOWERLIMIT	IQUANT	2	I/E Range Lower Limit
IERANGEMODE	TOGGLE	F	I/E AutoRange
IERANGE	IQUANT	11	I/E Range
POSFEEDENABLE	TOGGLE	F	Positive Feedback IR Comp
POSFEEDRESISTANCE	QUANT	0	Positive Feedback Resistance (ohm)
ACHSELECT	IQUANT	0	Ach Select
CABLEID	IQUANT	13	Cable ID
DCCALDATE	LABEL	7/31/2020	DC Calibration Date
ACCALDATE	LABEL	7/31/2020	AC Calibration Date
THERMOSELECT	IQUANT	1	Thermo Select
FRAMEWORKVERSION	QUANT	6.33	Framework Version
INSTRUMENTVERSION	LABEL	3.50	Instrument Version
COMPLIANCEVOLTAGE	IQUANT	0	Compliance Voltage
ZCURVE	TABLE
	Pt	Time	Freq	Zreal	Zimag	Zsig	Zmod	Zphz	Idc	Vdc	IERange
	#	s	Hz	ohm	ohm	V	ohm	°	A	V	#
	0	14	300046.9	871.0671	-3809.46	1	3907.78	-77.12023	-6.286128E-005	0.0004899	9
	1	28	238359.4	1125.161	-4534.363	1	4671.877	-76.06406	2.236103E-005	-0.0004219	9
	2	46	189328.1	1480.652	-5609.299	1	5801.428	-75.21326	-2.089586E-005	0.0016461	9
	3	59	150421.9	1905.962	-7054.448	1	7307.388	-74.88087	2.05415E-005	-0.000822	9
	4	66	119484.4	2718.93	-8722.604	1	9136.543	-72.68718	2.670283E-005	0.0078252	8
	5	74	94921.88	3665.276	-10813.93	1	11418.2	-71.27641	2.614504E-005	-0.0090076	8
	6	82	75421.88	4793.718	-13302.29	1	14139.69	-70.18247	2.632457E-005	-0.0052405	8
	7	91	59859.37	6247.36	-16597.62	1	17734.45	-69.37361	2.233761E-005	-0.0095695	8
	8	99	47578.12	8537.656	-19969.69	1	21718.2	-66.8518	-2.071179E-005	0.0029579	8
	9	108	37828.12	10998.04	-24236.39	1	26615.03	-65.59231	-1.692445E-006	0.007698	8
	10	116	30046.88	17246.22	-29003.79	1	33743.92	-59.26346	-3.648629E-006	0.0248077	7
	11	123	23859.38	21989.71	-34682.54	1	41066.12	-57.62416	-5.216445E-006	0.0260018	7
	12	129	18984.38	28124.18	-40765.84	1	49525.98	-55.39837	6.505144E-006	-0.0100219	7
	13	134	15046.87	32748.1	-48187.64	1	58262.23	-55.80015	-2.686753E-005	0.009831	8
	14	140	11953.13	49702.91	-58843.27	1	77025.38	-49.81336	-1.169266E-005	0.0101837	8
	15	147	9515.62	54033	-63468.54	1	83353.59	-49.59108	-2.479584E-005	0.011124	8
	16	154	7546.875	70214.63	-81198.73	1	107346.8	-49.14919	2.62211E-005	-0.0090702	8
	17	162	5928.309	89847.63	-98653.6	1	133435.8	-47.67466	2.764756E-005	-0.0074965	8
	18	169	4733.456	106295.6	-63460.95	1	123798.4	-30.83818	2.364206E-005	-0.00292	8
	19	177	3796.875	124540.1	-107688	1	164641.9	-40.84948	1.770108E-005	0.0002204	8
	20	184	2987.132	171124.5	-118802.3	1	208320.9	-34.77011	1.182092E-006	-0.0193302	7
	21	191	2390.625	219504.2	-111960.7	1	246408.8	-27.0244	-2.86863E-007	-0.0067759	6
	22	195	1884.191	246716.8	-111917.8	1	270914.7	-24.4004	6.054553E-007	-0.0073486	6
	23	201	1516.544	242539.1	-76194.09	1	254225.8	-17.4402	-2.418199E-005	0.0054184	8
	24	208	1193.986	545018.2	-102301.5	1	554536.2	-10.63088	-2.037572E-005	0.0027934	8
	25	217	946.5144	372229.4	-466660.8	1	596931.4	-51.42258	1.295766E-006	-0.0199685	7
	26	223	751.7689	422288	-123665.1	1	440022.9	-16.32243	7.123935E-007	-0.0266792	6
	27	227	597.4265	423216.7	15710.07	1	423508.2	2.125879	5.13859E-006	-0.0259681	7
	28	231	477.4305	524828.1	-140713.2	1	543364.3	-15.00876	-7.246354E-008	0.0006406	7
	29	236	376.6741	596463.8	-62539.88	1	599733.6	-5.985654	-1.2507E-009	0.0006052	5
	30	238	298.2954	619678.9	-53319.7	1	621968.6	-4.917849	-1.323836E-009	0.0006408	5
	31	241	237.7717	646178.9	-49587.13	1	648078.7	-4.388221	-1.25594E-009	0.0006933	5
	32	243	189.0121	673983.3	-45759.81	1	675534.9	-3.884112	-1.306542E-009	0.0006513	5
	33	246	150.2404	707643.3	-40017.32	1	708773.9	-3.236636	-1.185625E-009	0.0006892	5
	34	248	119.1737	730470.9	-59571.4	1	732896	-4.662271	-1.278273E-009	0.0007305	5
	35	251	95.0169	776056.4	-34208.17	1	776809.9	-2.523935	-1.201323E-009	0.0006925	5
	36	253	75.60484	815396.3	-33485.93	1	816083.6	-2.351648	-1.08898E-009	0.0006089	5
	37	256	54.50582	856594.2	-35752.31	1	857340	-2.390009	-1.218375E-009	0.0006869	5
	38	259	45.95588	893429.3	-24065.3	1	893753.3	-1.542939	-1.105806E-009	0.0006592	5
	39	261	37.20238	934247.6	-23308.46	1	934538.3	-1.429171	-1.100054E-009	0.0006164	5
	40	263	30.04808	978781	-21297.66	1	979013	-1.246523	-1.0407E-009	0.0006489	5
	41	266	23.91582	1031612	-19591.31	1	1031798	-1.087972	-1.093546E-009	0.0006714	5
	42	269	18.60119	1081425	-22706.14	1	1081664	-1.202834	-1.1063E-009	0.0006089	5
	43	271	15.02404	1131834	-16490.9	1	1131954	-0.834745	-1.01328E-009	0.0006943	5
	44	274	12.01923	1186829	-15926.14	1	1186936	-0.7688095	-1.102836E-009	0.0006038	5
	45	276	9.450605	1250301	-14775.79	1	1250388	-0.6770778	-1.138429E-009	0.0006037	5
	46	279	7.512019	1321662	-14663.08	1	1321743	-0.6356377	-1.036559E-009	0.0006337	5
	47	282	5.978954	1417050	-14562.31	1	1417125	-0.5887792	-1.11299E-009	0.0006918	5
	48	286	4.734848	1528026	-14392.06	1	1528094	-0.5396374	-9.822558E-010	0.0006787	5
	49	290	3.75601	1670965	-15756.79	1	1671039	-0.5402694	-9.052366E-010	0.0006872	5
	50	295	3.004808	1875775	-18193.31	1	1875863	-0.5556995	-8.947403E-010	0.0006935	5
	51	302	2.372217	2080791	-17971.48	1	2080869	-0.4948427	-9.264679E-010	0.0005992	5
	52	306	1.878005	2276077	-21931.28	1	2276183	-0.5520598	-8.557814E-010	0.0006459	5
	53	311	1.512097	2523511	-25273.12	1	2523637	-0.5738017	-8.519681E-010	0.0006807	5
	54	316	1.201923	2837288	-28517.12	1	2837431	-0.5758513	-8.797949E-010	0.0006653	5
	55	322	0.956633	3236632	-37111.17	1	3236845	-0.6569237	-1.119912E-009	9.650599E-006	5
