EXPLAIN
TAG	EISPOT
TITLE	LABEL	Potentiostatic EIS	Test Identifier
DATE	LABEL	8/29/2020	Date
TIME	LABEL	22:59:52	Time
NOTES	NOTES	1	Notes...
	
PSTAT	PSTAT	REF3000-16137	Potentiostat
VDC	POTEN	0.00000E+000	T	DC Voltage (V)
FREQINIT	QUANT	3.00000E+005	Initial Freq. (Hz)
FREQFINAL	QUANT	1.00000E+000	Final Freq. (Hz)
PTSPERDEC	QUANT	1.00000E+001	Points/decade
VAC	QUANT	5.00000E+001	AC Voltage (mV rms)
AREA	QUANT	1.00000E+000	Sample Area (cm^2)
SPEED	SELECTOR	2	Optimize for:
ZGUESS	QUANT	1.00000E+003	Estimated Z (ohms)
EOC	QUANT	0	Open Circuit (V)
SEQUENCER	TOGGLE	TRUE	Run as Sequence
PSTATMODEL	IQUANT	5	Pstat Model
PSTATSECTION	LABEL	REF3000-16137	Pstat Section
PSTATSERIALNO	LABEL	16137	Pstat Serial Number
CTRLMODE	IQUANT	1	Control Mode
IESTAB	IQUANT	0	I/E Stability
CASPEED	IQUANT	1	Control Amp Speed
CONVENTION	IQUANT	1	Current Convention
ICHRANGE	IQUANT	2	Ich Range
ICHRANGEMODE	TOGGLE	F	Ich Auto Range
ICHOFFSETENABLE	TOGGLE	T	Ich Offset Enable
ICHOFFSET	QUANT	0	Ich Offset (V)
ICHFILTER	IQUANT	3	Ich Filter
VCHRANGE	IQUANT	2	Vch Range
VCHRANGEMODE	TOGGLE	F	Vch Auto Range
VCHOFFSETENABLE	TOGGLE	T	Vch Offset Enable
VCHOFFSET	QUANT	0	Vch Offset (V)
VCHFILTER	IQUANT	3	Vch Filter
ACHRANGE	IQUANT	2	Ach Range
ACHOFFSETENABLE	TOGGLE	F	Ach Offset Enable
ACHOFFSET	QUANT	0	Ach Offset (V)
ACHFILTER	IQUANT	3	Ach Filter
IERANGELOWERLIMIT	IQUANT	2	I/E Range Lower Limit
IERANGEMODE	TOGGLE	F	I/E AutoRange
IERANGE	IQUANT	11	I/E Range
POSFEEDENABLE	TOGGLE	F	Positive Feedback IR Comp
POSFEEDRESISTANCE	QUANT	0	Positive Feedback Resistance (ohm)
ACHSELECT	IQUANT	0	Ach Select
CABLEID	IQUANT	13	Cable ID
DCCALDATE	LABEL	7/31/2020	DC Calibration Date
ACCALDATE	LABEL	7/31/2020	AC Calibration Date
THERMOSELECT	IQUANT	1	Thermo Select
FRAMEWORKVERSION	QUANT	6.33	Framework Version
INSTRUMENTVERSION	LABEL	3.50	Instrument Version
COMPLIANCEVOLTAGE	IQUANT	0	Compliance Voltage
ZCURVE	TABLE
	Pt	Time	Freq	Zreal	Zimag	Zsig	Zmod	Zphz	Idc	Vdc	IERange
	#	s	Hz	ohm	ohm	V	ohm	°	A	V	#
	0	9	300046.9	289.3159	-19.91484	1	290.0005	-3.937699	8.315664E-005	-0.0026852	9
	1	17	238359.4	305.0085	-18.66764	1	305.5792	-3.502343	-1.44422E-005	0.0013977	9
	2	23	189328.1	315.2669	-21.12113	1	315.9736	-3.832772	8.161959E-005	0.0002353	10
	3	27	150421.9	326.2374	-15.04514	1	326.5841	-2.640447	-1.770599E-005	0.0012063	9
	4	32	119484.4	341.8588	-16.0215	1	342.234	-2.683251	2.464227E-005	0.0005703	10
	5	40	94921.88	352.5942	-11.38311	1	352.7779	-1.849088	-2.442273E-005	0.0007189	9
	6	42	75421.88	360.1786	-9.215033	1	360.2965	-1.465571	2.758986E-005	-0.0006418	9
	7	45	59859.37	366.095	-8.445346	1	366.1924	-1.321506	-9.689332E-006	-0.0001146	9
	8	47	47578.12	371.8306	-1.681077	1	371.8344	-0.2590372	-6.865088E-006	-8.878963E-006	8
	9	50	37828.12	378.9207	-2.0221	1	378.9261	-0.3057545	-2.509504E-006	-0.0017356	8
	10	52	30046.88	385.6901	-2.086755	1	385.6957	-0.3099927	7.161507E-006	-0.0043303	8
	11	55	23859.38	392.4877	-2.420889	1	392.4952	-0.3533995	6.540472E-006	0.001811	8
	12	57	18984.38	398.8573	-2.082455	1	398.8628	-0.2991415	1.468775E-005	-0.0040921	8
	13	59	15046.87	406.5578	-2.429353	1	406.5651	-0.3423622	1.362677E-005	-0.004712	8
	14	62	11953.13	413.5811	-1.711949	1	413.5847	-0.2371648	1.452982E-005	-0.0022475	8
	15	64	9515.62	420.3419	-2.313689	1	420.3483	-0.3153701	-1.433139E-005	0.0049606	8
	16	66	7546.875	427.0443	-2.510588	1	427.0517	-0.3368374	-4.211845E-006	0.0052914	8
	17	69	5928.309	435.382	-2.719321	1	435.3905	-0.3578548	-1.471021E-005	0.0050168	8
	18	71	4733.456	441.5132	-3.655565	1	441.5283	-0.4743769	1.530589E-005	-0.0032302	8
	19	73	3796.875	449.5856	-2.394976	1	449.5919	-0.305216	6.611082E-006	0.0019947	8
	20	76	2987.132	457.3688	-5.404113	1	457.4008	-0.6769558	-2.517615E-006	-0.0019148	8
	21	78	2390.625	465.1099	-4.898714	1	465.1357	-0.6034386	-1.435372E-005	0.005896	8
	22	80	1884.191	475.2185	-8.248471	1	475.2901	-0.994395	1.163955E-005	-0.0003069	8
	23	83	1516.544	481.2213	-7.179535	1	481.2749	-0.8547554	-1.28774E-005	0.00664	8
	24	85	1193.986	490.5473	-9.308984	1	490.6356	-1.087156	6.939181E-006	0.001948	8
	25	87	946.5144	499.5683	-12.04263	1	499.7135	-1.380908	-1.157616E-005	0.0015956	8
	26	90	751.7689	510.7137	-14.22759	1	510.9119	-1.595747	1.613261E-005	-0.0033567	8
	27	92	597.4265	520.2371	-16.76662	1	520.5073	-1.845935	-7.885435E-006	-0.0001858	8
	28	94	477.4305	527.4413	-21.43878	1	527.8769	-2.327606	-4.900182E-008	0.0006418	8
	29	97	376.6741	537.3794	-26.65965	1	538.0403	-2.840142	-8.304414E-008	0.0006642	8
	30	99	298.2954	547.6015	-33.08225	1	548.5999	-3.457208	-5.650989E-008	0.000657	8
	31	101	237.7717	558.594	-40.86571	1	560.0869	-4.184199	-8.778542E-008	0.0006597	8
	32	104	189.0121	570.0411	-50.59072	1	572.2816	-5.071671	-5.782842E-008	0.0006437	8
	33	106	150.2404	582.2087	-62.66134	1	585.571	-6.142923	-7.066875E-008	0.0006517	8
	34	109	119.1737	594.9023	-77.75746	1	599.9625	-7.446702	-8.903666E-008	0.0006571	8
	35	111	95.0169	608.4879	-95.9652	1	616.0088	-8.962351	-9.694227E-008	0.0006626	8
	36	113	75.60484	623.6063	-118.6001	1	634.7841	-10.76815	-7.789879E-008	0.0006502	8
	37	116	54.50582	642.3559	-160.2653	1	662.0469	-14.00907	-7.855868E-008	0.0006575	8
	38	119	45.95588	658.598	-187.5633	1	684.7856	-15.89652	-1.021935E-007	0.0006454	8
	39	121	37.20238	676.7658	-227.6205	1	714.0189	-18.58963	-3.526127E-008	0.0006553	8
	40	123	30.04808	697.5852	-276.4558	1	750.3685	-21.61862	-1.37955E-007	0.0006601	8
	41	126	23.91582	721.3911	-339.9002	1	797.4568	-25.22856	-1.590637E-007	0.0006545	8
	42	128	18.60119	749.239	-426.1726	1	861.9641	-29.63154	-1.449787E-007	0.0006464	8
	43	130	15.02404	777.6095	-516.3399	1	933.4257	-33.58453	-1.479339E-007	0.0006385	8
	44	133	12.01923	811.1119	-630.3923	1	1027.276	-37.85418	-1.046685E-007	0.0006495	8
	45	135	9.450605	852.2621	-781.5887	1	1156.387	-42.52317	-1.608257E-007	0.0006617	8
	46	138	7.512019	898.1005	-960.031	1	1314.627	-46.90893	-1.553802E-007	0.0006563	8
	47	140	5.978954	952.74	-1179.345	1	1516.103	-51.06681	-1.252412E-007	0.0006448	8
	48	143	4.734848	1018.949	-1456.359	1	1777.425	-55.02125	-1.460409E-007	0.0006351	8
	49	148	3.75601	1107.668	-1798.778	1	2112.47	-58.37568	-1.023236E-007	0.0006681	8
	50	151	3.004808	1200.895	-2201.354	1	2507.61	-61.38639	-1.387731E-007	0.0007005	8
	51	155	2.372217	1320.258	-2729.833	1	3032.337	-64.1897	-1.152756E-007	0.0007178	8
	52	159	1.878005	1468.962	-3375.907	1	3681.657	-66.48464	-1.191809E-007	0.0006235	8
	53	164	1.512097	1648.8	-4116.576	1	4434.495	-68.17256	-2.437898E-008	0.0007034	7
	54	169	1.201923	1866.957	-5088.619	1	5420.292	-69.85249	-3.32896E-008	0.0005879	7
	55	175	0.956633	2139.104	-6273.624	1	6628.282	-71.17227	-4.964806E-008	-9.087355E-006	7
