EXPLAIN
TAG	EISPOT
TITLE	LABEL	Potentiostatic EIS	Test Identifier
DATE	LABEL	2/26/2021	Date
TIME	LABEL	12:22:47	Time
NOTES	NOTES	1	Notes...
	
PSTAT	PSTAT	REF3000-16137	Potentiostat
VDC	POTEN	0.00000E+000	T	DC Voltage (V)
FREQINIT	QUANT	3.00000E+005	Initial Freq. (Hz)
FREQFINAL	QUANT	1.00000E+000	Final Freq. (Hz)
PTSPERDEC	QUANT	1.00000E+001	Points/decade
VAC	QUANT	5.00000E+001	AC Voltage (mV rms)
AREA	QUANT	1.00000E+000	Sample Area (cm^2)
SPEED	SELECTOR	2	Optimize for:
ZGUESS	QUANT	1.00000E+003	Estimated Z (ohms)
EOC	QUANT	0	Open Circuit (V)
SEQUENCER	TOGGLE	TRUE	Run as Sequence
PSTATMODEL	IQUANT	5	Pstat Model
PSTATSECTION	LABEL	REF3000-16137	Pstat Section
PSTATSERIALNO	LABEL	16137	Pstat Serial Number
CTRLMODE	IQUANT	1	Control Mode
IESTAB	IQUANT	0	I/E Stability
CASPEED	IQUANT	1	Control Amp Speed
CONVENTION	IQUANT	1	Current Convention
ICHRANGE	IQUANT	2	Ich Range
ICHRANGEMODE	TOGGLE	F	Ich Auto Range
ICHOFFSETENABLE	TOGGLE	T	Ich Offset Enable
ICHOFFSET	QUANT	0	Ich Offset (V)
ICHFILTER	IQUANT	3	Ich Filter
VCHRANGE	IQUANT	2	Vch Range
VCHRANGEMODE	TOGGLE	F	Vch Auto Range
VCHOFFSETENABLE	TOGGLE	T	Vch Offset Enable
VCHOFFSET	QUANT	0	Vch Offset (V)
VCHFILTER	IQUANT	3	Vch Filter
ACHRANGE	IQUANT	2	Ach Range
ACHOFFSETENABLE	TOGGLE	F	Ach Offset Enable
ACHOFFSET	QUANT	0	Ach Offset (V)
ACHFILTER	IQUANT	3	Ach Filter
IERANGELOWERLIMIT	IQUANT	2	I/E Range Lower Limit
IERANGEMODE	TOGGLE	F	I/E AutoRange
IERANGE	IQUANT	11	I/E Range
POSFEEDENABLE	TOGGLE	F	Positive Feedback IR Comp
POSFEEDRESISTANCE	QUANT	0	Positive Feedback Resistance (ohm)
ACHSELECT	IQUANT	0	Ach Select
CABLEID	IQUANT	13	Cable ID
DCCALDATE	LABEL	7/31/2020	DC Calibration Date
ACCALDATE	LABEL	7/31/2020	AC Calibration Date
THERMOSELECT	IQUANT	1	Thermo Select
FRAMEWORKVERSION	QUANT	6.33	Framework Version
INSTRUMENTVERSION	LABEL	3.50	Instrument Version
COMPLIANCEVOLTAGE	IQUANT	0	Compliance Voltage
ZCURVE	TABLE
	Pt	Time	Freq	Zreal	Zimag	Zsig	Zmod	Zphz	Idc	Vdc	IERange
	#	s	Hz	ohm	ohm	V	ohm	°	A	V	#
	0	18	300046.9	2092.45	-3628.093	1	4188.246	-60.02642	2.214182E-005	-0.001615	9
	1	36	238359.4	2827.057	-3929.631	1	4840.894	-54.26799	7.82642E-005	-0.0016646	9
	2	51	189328.1	4171.266	-4210.805	1	5927.084	-45.27027	2.51945E-005	0.0010378	9
	3	62	150421.9	4690.483	-4117.83	1	6241.567	-41.28027	7.733444E-005	-0.0015062	9
	4	69	119484.4	5786.447	-4229.479	1	7167.389	-36.16413	4.000724E-005	-0.0183564	8
	5	77	94921.88	6595.676	-4032.946	1	7730.951	-31.44383	2.547245E-005	-0.0049765	8
	6	85	75421.88	7491.698	-3728.864	1	8368.391	-26.46104	-1.888476E-005	0.0109224	8
	7	94	59859.37	8168.818	-3582.026	1	8919.669	-23.67744	-2.662116E-005	0.0009261	9
	8	103	47578.12	8745.317	-3071.8	1	9269.117	-19.35387	-2.299999E-005	0.0050612	8
	9	110	37828.12	9328.904	-2744.903	1	9724.35	-16.3958	2.537862E-005	-0.0085978	8
	10	118	30046.88	9807.38	-2385.113	1	10093.24	-13.66873	1.582215E-005	-0.0089193	8
	11	127	23859.38	10286	-2113.902	1	10500.97	-11.61331	-1.913693E-006	0.0074633	8
	12	133	18984.38	10678.36	-1361.166	1	10764.77	-7.26429	5.936306E-006	-0.0078811	7
	13	137	15046.87	10853.61	-1241.284	1	10924.36	-6.524346	5.39011E-006	-0.0252554	7
	14	141	11953.13	11024.18	-1183.164	1	11087.49	-6.125789	-6.085973E-006	0.0099453	7
	15	146	9515.62	11199.63	-1163.706	1	11259.93	-5.932074	-5.35908E-006	0.0250076	7
	16	150	7546.875	11420.57	-1169.421	1	11480.29	-5.84648	-6.394426E-007	-0.0137222	7
	17	154	5928.309	11582.56	-1272.653	1	11652.27	-6.270315	-2.770237E-006	-0.0062414	7
	18	158	4733.456	11796.17	-1327.511	1	11870.64	-6.420903	-6.882874E-006	0.0214921	7
	19	163	3796.875	11968.82	-1503.508	1	12062.88	-7.159924	7.090217E-006	-0.0162771	7
	20	167	2987.132	12198.46	-1797.065	1	12330.12	-8.380476	1.806948E-008	0.0166118	7
	21	171	2390.625	12488.16	-1986.243	1	12645.13	-9.037202	-1.920188E-006	0.0212477	7
	22	175	1884.191	12760.49	-2380.656	1	12980.66	-10.56788	3.677838E-006	-0.0236393	7
	23	180	1516.544	13033.11	-2704.118	1	13310.68	-11.72146	-2.796446E-006	-0.0062224	7
	24	184	1193.986	13459.71	-3183.926	1	13831.16	-13.30881	5.380563E-006	-0.0253482	7
	25	188	946.5144	13850.02	-3780.491	1	14356.71	-15.26749	7.3184E-006	-0.0225861	7
	26	191	751.7689	14055.37	-4464.364	1	14747.34	-17.62124	-6.24096E-008	0.0169978	7
	27	194	597.4265	14463.15	-5144.319	1	15350.79	-19.57969	6.644655E-006	-0.0252533	7
	28	196	477.4305	15129.78	-6219.523	1	16358.26	-22.3465	-5.817256E-008	0.0005733	7
	29	198	376.6741	15658.6	-7383.077	1	17311.89	-25.24401	-6.120911E-008	0.0005858	7
	30	201	298.2954	16207.31	-8766.596	1	18426.34	-28.40912	-6.15251E-008	0.0006045	7
	31	203	237.7717	16760.13	-10387.21	1	19717.91	-31.78887	-5.647451E-008	0.0005768	7
	32	206	189.0121	17336.98	-12420.56	1	21327	-35.61857	-5.824731E-008	0.0005657	7
	33	208	150.2404	17929.21	-14957.44	1	23349.12	-39.83654	-5.648455E-008	0.0005814	7
	34	210	119.1737	18547.36	-18153.01	1	25952.58	-44.38438	-5.501381E-008	0.0006066	7
	35	213	95.0169	19203.94	-22065.67	1	29252.1	-48.96666	-5.610308E-008	0.0005806	7
	36	215	75.60484	19933.3	-27010.06	1	33569.03	-53.57285	-6.523337E-008	0.0006569	7
	37	218	54.50582	21147.9	-36336.84	1	42042.83	-59.80075	-5.574519E-008	0.0005763	7
	38	220	45.95588	22006.69	-42452.45	1	47817.41	-62.59848	-7.383469E-009	0.0007014	6
	39	223	37.20238	23129.23	-51589.89	1	56537.41	-65.85194	-7.022694E-009	0.0006941	6
	40	225	30.04808	24428.78	-62861.66	1	67441.48	-68.76329	-6.256048E-009	0.0006532	6
	41	228	23.91582	26119.74	-77747.89	1	82018.14	-71.43	-6.408093E-009	0.0006368	6
	42	230	18.60119	28568.95	-98248.8	1	102318.2	-73.78654	-5.876872E-009	0.0006637	6
	43	232	15.02404	30900.07	-119971.5	1	123887	-75.55672	-6.573272E-009	0.0006334	6
	44	235	12.01923	33993.86	-147784.3	1	151643.6	-77.04596	-7.033792E-009	0.0007126	6
	45	237	9.450605	38197.9	-185110.5	1	189010.5	-78.34056	-6.062725E-009	0.0006334	6
	46	240	7.512019	42977.62	-229504.4	1	233493.8	-79.39348	-6.899624E-009	0.0006813	6
	47	243	5.978954	49005.04	-284104	1	288299.5	-80.21336	-6.239716E-009	0.0006209	6
	48	247	4.734848	56694.1	-353899.9	1	358412.3	-80.89865	-6.125451E-009	0.0006596	6
	49	251	3.75601	66016.74	-439608.4	1	444537.7	-81.45961	-6.982387E-009	0.0007003	6
	50	256	3.004808	77888.73	-542699.4	1	548260.2	-81.83263	-7.71265E-010	0.0007091	5
	51	263	2.372217	93024.3	-677853.9	1	684207.1	-82.18591	-7.355413E-010	0.0007209	5
	52	267	1.878005	110361.4	-844398.2	1	851579.7	-82.55375	-7.980842E-010	0.0006317	5
	53	272	1.512097	130264.3	-1032587	1	1040772	-82.80993	-6.263121E-010	0.0005968	5
	54	277	1.201923	157447.8	-1286133	1	1295735	-83.02061	-7.858799E-010	0.0006324	5
	55	283	0.956633	191100.5	-1594077	1	1605491	-83.16392	-7.127641E-010	-5.283378E-005	5
