EXPLAIN
TAG	EISPOT
TITLE	LABEL	Potentiostatic EIS	Test Identifier
DATE	LABEL	2/26/2021	Date
TIME	LABEL	13:09:01	Time
NOTES	NOTES	1	Notes...
	
PSTAT	PSTAT	REF3000-16137	Potentiostat
VDC	POTEN	0.00000E+000	T	DC Voltage (V)
FREQINIT	QUANT	3.00000E+005	Initial Freq. (Hz)
FREQFINAL	QUANT	1.00000E+000	Final Freq. (Hz)
PTSPERDEC	QUANT	1.00000E+001	Points/decade
VAC	QUANT	5.00000E+001	AC Voltage (mV rms)
AREA	QUANT	1.00000E+000	Sample Area (cm^2)
SPEED	SELECTOR	2	Optimize for:
ZGUESS	QUANT	1.00000E+003	Estimated Z (ohms)
EOC	QUANT	0	Open Circuit (V)
SEQUENCER	TOGGLE	TRUE	Run as Sequence
PSTATMODEL	IQUANT	5	Pstat Model
PSTATSECTION	LABEL	REF3000-16137	Pstat Section
PSTATSERIALNO	LABEL	16137	Pstat Serial Number
CTRLMODE	IQUANT	1	Control Mode
IESTAB	IQUANT	0	I/E Stability
CASPEED	IQUANT	1	Control Amp Speed
CONVENTION	IQUANT	1	Current Convention
ICHRANGE	IQUANT	2	Ich Range
ICHRANGEMODE	TOGGLE	F	Ich Auto Range
ICHOFFSETENABLE	TOGGLE	T	Ich Offset Enable
ICHOFFSET	QUANT	0	Ich Offset (V)
ICHFILTER	IQUANT	3	Ich Filter
VCHRANGE	IQUANT	2	Vch Range
VCHRANGEMODE	TOGGLE	F	Vch Auto Range
VCHOFFSETENABLE	TOGGLE	T	Vch Offset Enable
VCHOFFSET	QUANT	0	Vch Offset (V)
VCHFILTER	IQUANT	3	Vch Filter
ACHRANGE	IQUANT	2	Ach Range
ACHOFFSETENABLE	TOGGLE	F	Ach Offset Enable
ACHOFFSET	QUANT	0	Ach Offset (V)
ACHFILTER	IQUANT	3	Ach Filter
IERANGELOWERLIMIT	IQUANT	2	I/E Range Lower Limit
IERANGEMODE	TOGGLE	F	I/E AutoRange
IERANGE	IQUANT	11	I/E Range
POSFEEDENABLE	TOGGLE	F	Positive Feedback IR Comp
POSFEEDRESISTANCE	QUANT	0	Positive Feedback Resistance (ohm)
ACHSELECT	IQUANT	0	Ach Select
CABLEID	IQUANT	13	Cable ID
DCCALDATE	LABEL	7/31/2020	DC Calibration Date
ACCALDATE	LABEL	7/31/2020	AC Calibration Date
THERMOSELECT	IQUANT	1	Thermo Select
FRAMEWORKVERSION	QUANT	6.33	Framework Version
INSTRUMENTVERSION	LABEL	3.50	Instrument Version
COMPLIANCEVOLTAGE	IQUANT	0	Compliance Voltage
ZCURVE	TABLE
	Pt	Time	Freq	Zreal	Zimag	Zsig	Zmod	Zphz	Idc	Vdc	IERange
	#	s	Hz	ohm	ohm	V	ohm	°	A	V	#
	0	17	300046.9	-19.04409	-4862.21	1	4862.248	-90.22441	8.650059E-005	-0.0036696	9
	1	31	238359.4	32.84671	-6113.016	1	6113.104	-89.69214	-2.210082E-005	0.0011785	9
	2	46	189328.1	423.7228	-7223.165	1	7235.583	-86.64278	2.027137E-006	-0.00191	9
	3	56	150421.9	0.6854947	-9055.402	1	9055.402	-89.99567	1.99297E-005	-0.0019948	9
	4	63	119484.4	258.2622	-11707.25	1	11710.1	-88.73626	-2.002583E-005	0.0011866	9
	5	75	94921.88	749.9647	-14878.59	1	14897.48	-87.11441	-1.593964E-005	0.0006504	8
	6	83	75421.88	1365.084	-19158.25	1	19206.82	-85.92439	-2.351149E-005	0.0051212	8
EXPERIMENTABORTED	TOGGLE	T	Experiment Aborted
FRACURVE	TABLE	128
	Pt	V	I	Over
	#	V	A	bits
	0	6.40302E-002	2.80606E-005	......
	1	6.11276E-002	2.89075E-005	......
	2	5.71582E-002	2.86964E-005	......
	3	5.11693E-002	2.95936E-005	......
	4	4.44543E-002	2.96836E-005	......
	5	3.62088E-002	3.02726E-005	......
	6	2.72758E-002	3.01779E-005	......
	7	1.76887E-002	3.00165E-005	......
	8	7.16695E-003	3.05312E-005	......
	9	-3.14073E-003	3.01191E-005	......
	10	-1.43219E-002	3.07438E-005	......
	11	-2.45291E-002	3.03495E-005	......
	12	-3.47290E-002	2.96886E-005	......
	13	-4.43350E-002	2.98789E-005	......
	14	-5.31861E-002	2.96775E-005	......
	15	-6.11715E-002	2.94924E-005	......
	16	-6.75279E-002	2.86509E-005	......
	17	-7.30257E-002	2.85221E-005	......
	18	-7.68278E-002	2.81751E-005	......
	19	-7.92741E-002	2.75200E-005	......
	20	-8.01126E-002	2.73204E-005	......
	21	-7.93475E-002	2.67391E-005	......
	22	-7.69793E-002	2.61160E-005	......
	23	-7.31233E-002	2.57544E-005	......
	24	-6.80157E-002	2.55049E-005	......
	25	-6.13737E-002	2.52901E-005	......
	26	-5.36791E-002	2.47339E-005	......
	27	-4.49399E-002	2.45277E-005	......
	28	-3.53620E-002	2.41507E-005	......
	29	-2.54338E-002	2.46473E-005	......
	30	-1.48383E-002	2.44213E-005	......
	31	-4.11777E-003	2.42648E-005	......
	32	6.65362E-003	2.40266E-005	......
	33	1.69902E-002	2.42893E-005	......
	34	2.65715E-002	2.47694E-005	......
	35	3.57016E-002	2.49441E-005	......
	36	4.38099E-002	2.51679E-005	......
	37	5.08795E-002	2.55950E-005	......
	38	5.67004E-002	2.58246E-005	......
	39	6.07934E-002	2.65660E-005	......
	40	6.37698E-002	2.69996E-005	......
	41	6.51291E-002	2.73339E-005	......
	42	6.49913E-002	2.81484E-005	......
	43	6.33047E-002	2.79952E-005	......
	44	5.99826E-002	2.87814E-005	......
	45	5.51963E-002	2.92402E-005	......
	46	4.91395E-002	2.94060E-005	......
	47	4.19111E-002	2.97180E-005	......
	48	3.34357E-002	2.99109E-005	......
	49	2.42266E-002	3.03211E-005	......
	50	1.41429E-002	3.01828E-005	......
	51	3.70139E-003	3.07807E-005	......
	52	-6.75068E-003	2.99035E-005	......
	53	-1.76357E-002	3.06582E-005	......
	54	-2.81000E-002	3.05092E-005	......
	55	-3.82138E-002	3.02427E-005	......
	56	-4.73946E-002	2.97692E-005	......
	57	-5.59353E-002	2.94133E-005	......
	58	-6.34254E-002	2.95412E-005	......
	59	-6.93877E-002	2.83168E-005	......
	60	-7.44579E-002	2.82662E-005	......
	61	-7.78356E-002	2.78491E-005	......
	62	-7.95467E-002	2.72031E-005	......
	63	-8.00078E-002	2.71436E-005	......
	64	-7.87550E-002	2.64682E-005	......
	65	-7.59284E-002	2.62145E-005	......
	66	-7.15760E-002	2.56550E-005	......
	67	-6.59495E-002	2.54192E-005	......
	68	-5.89649E-002	2.50834E-005	......
	69	-5.09606E-002	2.48373E-005	......
	70	-4.19793E-002	2.47454E-005	......
	71	-3.21745E-002	2.43693E-005	......
	72	-2.16693E-002	2.38578E-005	......
	73	-1.11450E-002	2.41082E-005	......
	74	-5.27827E-004	2.41066E-005	......
	75	1.01211E-002	2.40914E-005	......
	76	2.01943E-002	2.44872E-005	......
	77	2.98460E-002	2.47170E-005	......
	78	3.86106E-002	2.49847E-005	......
	79	4.62156E-002	2.53742E-005	......
	80	5.28195E-002	2.57630E-005	......
	81	5.82548E-002	2.57226E-005	......
	82	6.18471E-002	2.72562E-005	......
	83	6.45274E-002	2.66216E-005	......
	84	6.52725E-002	2.76405E-005	......
	85	6.45541E-002	2.79845E-005	......
	86	6.24796E-002	2.80119E-005	......
	87	5.85702E-002	2.89492E-005	......
	88	5.35570E-002	2.87749E-005	......
	89	4.67918E-002	2.98190E-005	......
	90	3.92461E-002	2.95264E-005	......
	91	3.02459E-002	3.05627E-005	......
	92	2.10920E-002	2.99293E-005	......
	93	1.06739E-002	3.08453E-005	......
	94	1.18219E-004	3.06830E-005	......
	95	-1.05106E-002	3.04270E-005	......
	96	-2.11440E-002	3.04510E-005	......
	97	-3.12404E-002	2.96534E-005	......
	98	-4.15344E-002	3.06259E-005	......
	99	-5.01417E-002	2.92834E-005	......
	100	-5.86054E-002	2.95215E-005	......
	101	-6.54128E-002	2.88353E-005	......
	102	-7.12595E-002	2.85138E-005	......
	103	-7.58076E-002	2.84742E-005	......
	104	-7.85782E-002	2.75630E-005	......
	105	-8.00452E-002	2.74950E-005	......
	106	-7.96709E-002	2.67234E-005	......
	107	-7.80947E-002	2.66305E-005	......
	108	-7.46009E-002	2.61267E-005	......
	109	-6.98642E-002	2.55457E-005	......
	110	-6.37048E-002	2.51385E-005	......
	111	-5.62913E-002	2.47494E-005	......
	112	-4.80134E-002	2.47184E-005	......
	113	-3.86459E-002	2.44509E-005	......
	114	-2.87591E-002	2.42325E-005	......
	115	-1.82179E-002	2.40469E-005	......
	116	-7.69694E-003	2.41941E-005	......
	117	2.93884E-003	2.46040E-005	......
	118	1.34151E-002	2.46334E-005	......
	119	2.34339E-002	2.44741E-005	......
	120	3.27964E-002	2.47432E-005	......
	121	4.13522E-002	2.47940E-005	......
	122	4.83500E-002	2.60504E-005	......
	123	5.48469E-002	2.56778E-005	......
	124	5.95365E-002	2.63502E-005	......
	125	6.31220E-002	2.64866E-005	......
	126	6.50499E-002	2.69176E-005	......
	127	6.51628E-002	2.78141E-005	......
