EXPLAIN
TAG	EISPOT
TITLE	LABEL	Potentiostatic EIS	Test Identifier
DATE	LABEL	2/26/2021	Date
TIME	LABEL	12:13:19	Time
NOTES	NOTES	1	Notes...
	
PSTAT	PSTAT	REF3000-16137	Potentiostat
VDC	POTEN	0.00000E+000	T	DC Voltage (V)
FREQINIT	QUANT	3.00000E+005	Initial Freq. (Hz)
FREQFINAL	QUANT	1.00000E+000	Final Freq. (Hz)
PTSPERDEC	QUANT	1.00000E+001	Points/decade
VAC	QUANT	5.00000E+001	AC Voltage (mV rms)
AREA	QUANT	1.00000E+000	Sample Area (cm^2)
SPEED	SELECTOR	2	Optimize for:
ZGUESS	QUANT	1.00000E+003	Estimated Z (ohms)
EOC	QUANT	0	Open Circuit (V)
SEQUENCER	TOGGLE	TRUE	Run as Sequence
PSTATMODEL	IQUANT	5	Pstat Model
PSTATSECTION	LABEL	REF3000-16137	Pstat Section
PSTATSERIALNO	LABEL	16137	Pstat Serial Number
CTRLMODE	IQUANT	1	Control Mode
IESTAB	IQUANT	0	I/E Stability
CASPEED	IQUANT	1	Control Amp Speed
CONVENTION	IQUANT	1	Current Convention
ICHRANGE	IQUANT	2	Ich Range
ICHRANGEMODE	TOGGLE	F	Ich Auto Range
ICHOFFSETENABLE	TOGGLE	T	Ich Offset Enable
ICHOFFSET	QUANT	0	Ich Offset (V)
ICHFILTER	IQUANT	3	Ich Filter
VCHRANGE	IQUANT	2	Vch Range
VCHRANGEMODE	TOGGLE	F	Vch Auto Range
VCHOFFSETENABLE	TOGGLE	T	Vch Offset Enable
VCHOFFSET	QUANT	0	Vch Offset (V)
VCHFILTER	IQUANT	3	Vch Filter
ACHRANGE	IQUANT	2	Ach Range
ACHOFFSETENABLE	TOGGLE	F	Ach Offset Enable
ACHOFFSET	QUANT	0	Ach Offset (V)
ACHFILTER	IQUANT	3	Ach Filter
IERANGELOWERLIMIT	IQUANT	2	I/E Range Lower Limit
IERANGEMODE	TOGGLE	F	I/E AutoRange
IERANGE	IQUANT	11	I/E Range
POSFEEDENABLE	TOGGLE	F	Positive Feedback IR Comp
POSFEEDRESISTANCE	QUANT	0	Positive Feedback Resistance (ohm)
ACHSELECT	IQUANT	0	Ach Select
CABLEID	IQUANT	13	Cable ID
DCCALDATE	LABEL	7/31/2020	DC Calibration Date
ACCALDATE	LABEL	7/31/2020	AC Calibration Date
THERMOSELECT	IQUANT	1	Thermo Select
FRAMEWORKVERSION	QUANT	6.33	Framework Version
INSTRUMENTVERSION	LABEL	3.50	Instrument Version
COMPLIANCEVOLTAGE	IQUANT	0	Compliance Voltage
ZCURVE	TABLE
	Pt	Time	Freq	Zreal	Zimag	Zsig	Zmod	Zphz	Idc	Vdc	IERange
	#	s	Hz	ohm	ohm	V	ohm	°	A	V	#
	0	16	300046.9	1781.544	-786.4631	1	1947.415	-23.81907	2.053035E-005	-0.0005637	9
	1	30	238359.4	1927.246	-715.8264	1	2055.891	-20.37623	2.475825E-005	-0.0015527	9
	2	42	189328.1	2014.578	-665.0991	1	2121.528	-18.27028	2.446695E-005	0.0010669	9
	3	54	150421.9	2110.481	-554.6982	1	2182.159	-14.726	7.618891E-005	-0.0015374	9
	4	62	119484.4	2250.485	-422.9758	1	2289.889	-10.64449	-1.272447E-005	0.0138252	8
	5	68	94921.88	2294.618	-361.5744	1	2322.931	-8.954752	2.088973E-005	-0.0026683	8
	6	75	75421.88	2338.859	-314.1422	1	2359.862	-7.649858	8.087763E-006	0.0034896	8
	7	79	59859.37	2386.594	-292.3856	1	2404.437	-6.984597	-1.478377E-005	0.0010545	8
	8	86	47578.12	2438.281	-316.5811	1	2458.748	-7.397773	1.875323E-005	-0.000895	9
	9	92	37828.12	2478.284	-288.2833	1	2494.995	-6.63504	-1.163548E-005	0.0010552	9
	10	99	30046.88	2525.736	-298.7527	1	2543.343	-6.745797	-2.621665E-005	0.0008829	9
	11	107	23859.38	2564.442	-286.4139	1	2580.386	-6.372764	-2.114121E-005	0.0097444	8
	12	111	18984.38	2615.442	-326.4295	1	2635.734	-7.114215	2.000201E-005	6.019323E-005	9
	13	117	15046.87	2661.006	-360.7404	1	2685.346	-7.720263	1.019204E-005	0.0004632	9
	14	122	11953.13	2698.22	-393.4785	1	2726.759	-8.296896	-9.153564E-006	-0.0014643	8
	15	127	9515.62	2761.7	-451.2366	1	2798.322	-9.279609	-2.136999E-005	0.0098073	8
	16	132	7546.875	2824.958	-520.4481	1	2872.5	-10.43867	-2.108933E-005	0.0098663	8
	17	138	5928.309	2875.385	-608.2709	1	2939.019	-11.94449	-1.681385E-005	0.0099944	8
	18	143	4733.456	2966.044	-724.8314	1	3053.325	-13.7326	-2.280096E-005	0.0004671	9
	19	149	3796.875	3055.157	-859.9954	1	3173.89	-15.72137	1.983173E-005	-1.122201E-005	9
	20	154	2987.132	3154.779	-1020.004	1	3315.575	-17.91708	-1.491985E-005	0.0010209	8
	21	159	2390.625	3267.431	-1192.887	1	3478.374	-20.05633	-1.496716E-005	0.0010325	8
	22	165	1884.191	3365.764	-1394.767	1	3643.315	-22.50903	-1.694301E-005	0.0100564	8
	23	170	1516.544	3492.936	-1672.52	1	3872.715	-25.58647	-1.003258E-005	0.0090823	8
	24	175	1193.986	3605.778	-1981.035	1	4114.139	-28.78464	2.452428E-005	-0.0065905	8
	25	181	946.5144	3747.004	-2323.3	1	4408.828	-31.80065	-2.294994E-005	0.0069789	8
	26	185	751.7689	3932.717	-2718.075	1	4780.606	-34.65007	2.376282E-005	-0.0045864	8
	27	188	597.4265	4077.638	-3453.345	1	5343.475	-40.2612	-1.915219E-006	-0.0040882	8
	28	193	477.4305	4205.251	-4104.897	1	5876.591	-44.30813	-5.506069E-008	0.0006779	7
	29	195	376.6741	4351.953	-5039.965	1	6658.885	-49.18976	-5.255884E-008	0.0006184	7
	30	198	298.2954	4514.435	-6195.689	1	7665.943	-53.92137	-4.871574E-008	0.0006501	7
	31	200	237.7717	4696.074	-7601.974	1	8935.498	-58.29455	-5.252694E-008	0.000622	7
	32	202	189.0121	4912.786	-9372.23	1	10581.79	-62.33713	-5.303819E-008	0.0006263	7
	33	205	150.2404	5173.616	-11577.35	1	12680.74	-65.92137	-4.986058E-008	0.0006025	7
	34	207	119.1737	5488.358	-14346.33	1	15360.32	-69.06506	-5.271195E-008	0.0006763	7
	35	210	95.0169	5872.667	-17712.44	1	18660.62	-71.65675	-5.041177E-008	0.000599	7
	36	212	75.60484	6341.772	-21914.66	1	22813.82	-73.86036	-5.286645E-008	0.00067	7
	37	215	54.50582	7230.832	-29742.39	1	30608.74	-76.33561	-4.77606E-008	0.0005879	7
	38	217	45.95588	7772.392	-34876.21	1	35731.78	-77.43656	-5.399874E-008	0.0006105	7
	39	219	37.20238	8610.217	-42495.07	1	43358.59	-78.54597	-4.851161E-008	0.0006448	7
	40	222	30.04808	9680.15	-51905.5	1	52800.44	-79.43594	-5.986453E-009	0.0006627	6
	41	224	23.91582	11060.49	-64244.98	1	65190.12	-80.23165	-5.59458E-009	0.0006523	6
	42	227	18.60119	12842	-81321.34	1	82329.08	-81.02615	-5.454424E-009	0.0006521	6
	43	229	15.02404	14711.05	-99245.5	1	100329.9	-81.5685	-5.868672E-009	0.000702	6
	44	231	12.01923	17172.01	-122288.6	1	123488.4	-82.00668	-6.251756E-009	0.0006969	6
	45	234	9.450605	20476	-153254.5	1	154616.4	-82.38991	-5.810308E-009	0.0006508	6
	46	236	7.512019	24363	-190043.5	1	191598.8	-82.6947	-5.715568E-009	0.0006794	6
	47	239	5.978954	29311.67	-235417.4	1	237235.1	-82.90266	-5.330884E-009	0.0006329	6
	48	244	4.734848	35558.48	-293351.3	1	295498.6	-83.08863	-5.925402E-009	0.0007215	6
	49	247	3.75601	43482.45	-364501.1	1	367085.5	-83.19716	-6.009515E-009	0.0007133	6
	50	253	3.004808	53433.66	-449896.6	1	453058.6	-83.22678	-7.667839E-010	0.0007313	5
	51	259	2.372217	66227.03	-561739.3	1	565629.8	-83.27608	-7.469885E-010	0.0007335	5
	52	263	1.878005	82227.01	-699280.3	1	704098.2	-83.2935	-7.651241E-010	0.0006355	5
	53	268	1.512097	101209.8	-854783.3	1	860754.3	-83.24738	-6.03988E-010	0.0006501	5
	54	273	1.201923	125269.6	-1063452	1	1070805	-83.28178	-7.51429E-010	0.000632	5
	55	280	0.956633	156986.8	-1317707	1	1327026	-83.20602	-7.654451E-010	1.988748E-005	5
