EXPLAIN
TAG	EISPOT
TITLE	LABEL	Potentiostatic EIS	Test Identifier
DATE	LABEL	2/26/2021	Date
TIME	LABEL	12:44:19	Time
NOTES	NOTES	1	Notes...
	
PSTAT	PSTAT	REF3000-16137	Potentiostat
VDC	POTEN	0.00000E+000	T	DC Voltage (V)
FREQINIT	QUANT	3.00000E+005	Initial Freq. (Hz)
FREQFINAL	QUANT	1.00000E+000	Final Freq. (Hz)
PTSPERDEC	QUANT	1.00000E+001	Points/decade
VAC	QUANT	5.00000E+001	AC Voltage (mV rms)
AREA	QUANT	1.00000E+000	Sample Area (cm^2)
SPEED	SELECTOR	2	Optimize for:
ZGUESS	QUANT	1.00000E+003	Estimated Z (ohms)
EOC	QUANT	0	Open Circuit (V)
SEQUENCER	TOGGLE	TRUE	Run as Sequence
PSTATMODEL	IQUANT	5	Pstat Model
PSTATSECTION	LABEL	REF3000-16137	Pstat Section
PSTATSERIALNO	LABEL	16137	Pstat Serial Number
CTRLMODE	IQUANT	1	Control Mode
IESTAB	IQUANT	0	I/E Stability
CASPEED	IQUANT	1	Control Amp Speed
CONVENTION	IQUANT	1	Current Convention
ICHRANGE	IQUANT	2	Ich Range
ICHRANGEMODE	TOGGLE	F	Ich Auto Range
ICHOFFSETENABLE	TOGGLE	T	Ich Offset Enable
ICHOFFSET	QUANT	0	Ich Offset (V)
ICHFILTER	IQUANT	3	Ich Filter
VCHRANGE	IQUANT	2	Vch Range
VCHRANGEMODE	TOGGLE	F	Vch Auto Range
VCHOFFSETENABLE	TOGGLE	T	Vch Offset Enable
VCHOFFSET	QUANT	0	Vch Offset (V)
VCHFILTER	IQUANT	3	Vch Filter
ACHRANGE	IQUANT	2	Ach Range
ACHOFFSETENABLE	TOGGLE	F	Ach Offset Enable
ACHOFFSET	QUANT	0	Ach Offset (V)
ACHFILTER	IQUANT	3	Ach Filter
IERANGELOWERLIMIT	IQUANT	2	I/E Range Lower Limit
IERANGEMODE	TOGGLE	F	I/E AutoRange
IERANGE	IQUANT	11	I/E Range
POSFEEDENABLE	TOGGLE	F	Positive Feedback IR Comp
POSFEEDRESISTANCE	QUANT	0	Positive Feedback Resistance (ohm)
ACHSELECT	IQUANT	0	Ach Select
CABLEID	IQUANT	13	Cable ID
DCCALDATE	LABEL	7/31/2020	DC Calibration Date
ACCALDATE	LABEL	7/31/2020	AC Calibration Date
THERMOSELECT	IQUANT	1	Thermo Select
FRAMEWORKVERSION	QUANT	6.33	Framework Version
INSTRUMENTVERSION	LABEL	3.50	Instrument Version
COMPLIANCEVOLTAGE	IQUANT	0	Compliance Voltage
ZCURVE	TABLE
	Pt	Time	Freq	Zreal	Zimag	Zsig	Zmod	Zphz	Idc	Vdc	IERange
	#	s	Hz	ohm	ohm	V	ohm	°	A	V	#
	0	14	300046.9	-19.39361	-4809.657	1	4809.696	-90.23103	8.054581E-005	-0.001717	9
	1	28	238359.4	89.02227	-5926.369	1	5927.037	-89.1394	1.936249E-005	-0.0004701	9
	2	43	189328.1	-22.53437	-7032.089	1	7032.125	-90.1836	7.787645E-005	-0.0015662	9
	3	50	150421.9	585.1189	-9788.74	1	9806.21	-86.57923	-2.67309E-005	-0.0010191	9
	4	60	119484.4	651.2838	-11264.6	1	11283.42	-86.69102	2.498874E-005	-0.0003247	9
	5	70	94921.88	982.234	-14558.87	1	14591.97	-86.14031	8.404821E-006	0.0042507	8
	6	79	75421.88	1134.385	-18531.22	1	18565.91	-86.49702	-9.419631E-006	-0.0020839	8
	7	87	59859.37	1034.479	-22777.3	1	22800.78	-87.39958	1.660394E-005	-0.0092438	8
	8	96	47578.12	4758.307	-29832.85	1	30209.94	-80.93772	1.402928E-006	-0.0200148	7
	9	104	37828.12	2033.914	-34796.17	1	34855.56	-86.65474	2.60411E-005	-0.0088093	8
	10	112	30046.88	1356.731	-45060.5	1	45080.92	-88.2754	-9.270905E-006	-0.0021277	8
	11	122	23859.38	6194.28	-57363.85	1	57697.32	-83.83695	1.233956E-006	-0.0199259	7
	12	127	18984.38	7579.041	-71509.6	1	71910.12	-83.95001	-6.637134E-006	0.0119185	7
	13	133	15046.87	2789.91	-94710.45	1	94751.54	-88.31271	-1.235177E-005	0.0102946	8
	14	140	11953.13	15682.48	-111975.9	1	113068.7	-82.02745	2.749798E-006	0.0086108	7
	15	147	9515.62	13074.11	-137736.9	1	138356	-84.57768	4.896634E-006	-0.0005282	7
	16	153	7546.875	16740.67	-177578	1	178365.3	-84.61452	3.504942E-006	-0.0245349	7
	17	159	5928.309	47320.7	-223102.9	1	228066.2	-78.02489	-1.745271E-006	0.0219573	7
	18	165	4733.456	35080.31	-258667.5	1	261035.5	-82.27671	-5.313103E-006	0.0265828	7
	19	171	3796.875	65152.16	-342716.3	1	348854.2	-79.23621	-3.303927E-006	-0.005288	7
	20	178	2987.132	149624.8	-231347.4	1	275516.2	-57.10708	-2.024788E-005	0.0028157	8
	21	185	2390.625	109709.8	-543722.1	1	554680.1	-78.59229	6.935818E-006	-0.0272051	7
	22	193	1884.191	196292.8	-546527	1	580708.8	-70.24354	-6.700535E-006	0.0119469	7
	23	199	1516.544	462745.2	-820466.1	1	941964.8	-60.57688	-5.341863E-006	0.0265825	7
	24	207	1193.986	421884.4	-1030921	1	1113905	-67.74412	-3.715205E-006	0.0253158	7
	25	216	946.5144	701040.2	-606333.8	1	926875.4	-40.85672	7.73075E-006	-0.0187251	7
	26	221	751.7689	-235324.5	-757934	1	793625.6	-107.2486	4.262564E-007	0.0161255	7
	27	227	597.4265	983645	-1292782	1	1624451	-52.73341	6.210146E-007	-0.0071878	6
	28	232	477.4305	1415023	-1360352	1	1962867	-43.87149	-6.410779E-009	0.0006242	6
	29	237	376.6741	1930355	-1218063	1	2282531	-32.25211	-7.551069E-010	0.0006374	5
	30	240	298.2954	2185180	-1144935	1	2466959	-27.6525	-6.974094E-010	0.0006476	5
	31	242	237.7717	2294234	-1199485	1	2588875	-27.60173	-7.279408E-009	0.0007	6
	32	246	189.0121	2515707	-1091097	1	2742129	-23.44705	-6.818981E-009	0.0006867	6
	33	250	150.2404	2723548	-968292	1	2890554	-19.57163	-6.404645E-009	0.0006296	6
	34	254	119.1737	2824802	-777596.6	1	2929874	-15.39089	-7.306231E-009	0.0006702	6
	35	258	95.0169	2992275	-746792.6	1	3084057	-14.01324	-6.386611E-009	0.0006422	6
	36	262	75.60484	3060321	-678487.7	1	3134631	-12.50055	-6.942049E-009	0.0006361	6
	37	266	54.50582	3313993	-559557.4	1	3360901	-9.58382	-7.060744E-009	0.0006458	6
	38	270	45.95588	3429497	-545729.9	1	3472646	-9.041571	-6.998888E-010	0.0006084	5
	39	274	37.20238	3449248	-521723.4	1	3488482	-8.601196	-8.695384E-010	0.0006253	5
	40	277	30.04808	3559275	-488014.8	1	3592575	-7.807186	-7.154727E-009	0.0007064	6
	41	281	23.91582	3688678	-516762.5	1	3724699	-7.974906	-8.755057E-010	0.0006176	5
	42	285	18.60119	3607494	-594515.3	1	3656154	-9.358235	-5.242768E-010	0.0006395	5
	43	289	15.02404	3883652	-557800.2	1	3923505	-8.173368	-9.351223E-010	0.0006663	5
	44	292	12.01923	4000930	-604174.2	1	4046291	-8.587264	-8.234062E-010	0.0006265	5
	45	296	9.450605	4125498	-684559.6	1	4181908	-9.421463	-6.538952E-010	0.0006502	5
	46	300	7.512019	4262099	-793795.4	1	4335389	-10.55019	-7.420153E-010	0.0006973	5
	47	304	5.978954	4414053	-941270.6	1	4513297	-12.03768	-8.388168E-010	0.0007053	5
	48	310	4.734848	4655254	-1104377	1	4784458	-13.3457	-8.602208E-010	0.0006831	5
	49	316	3.75601	4905499	-1251350	1	5062587	-14.31046	-1.187668E-010	0.000694	4
	50	322	3.004808	5160626	-1476796	1	5367773	-15.96932	-7.369106E-011	0.0006738	4
	51	328	2.372217	5449942	-1786069	1	5735147	-18.14514	-1.748267E-010	0.0006283	4
	52	332	1.878005	5714440	-2135490	1	6100421	-20.49075	-1.067887E-010	0.0006707	4
	53	337	1.512097	6013708	-2525857	1	6522625	-22.78321	-6.739555E-011	0.000554	4
	54	342	1.201923	6389843	-3018392	1	7066880	-25.28481	-1.00678E-010	0.0006855	4
	55	349	0.956633	6807199	-3619778	1	7709783	-28.00214	-1.205955E-010	2.798837E-005	4
