EXPLAIN
TAG	EISPOT
TITLE	LABEL	Potentiostatic EIS	Test Identifier
DATE	LABEL	2/26/2021	Date
TIME	LABEL	11:27:14	Time
NOTES	NOTES	1	Notes...
	
PSTAT	PSTAT	REF3000-16137	Potentiostat
VDC	POTEN	0.00000E+000	T	DC Voltage (V)
FREQINIT	QUANT	3.00000E+005	Initial Freq. (Hz)
FREQFINAL	QUANT	1.00000E+000	Final Freq. (Hz)
PTSPERDEC	QUANT	1.00000E+001	Points/decade
VAC	QUANT	5.00000E+001	AC Voltage (mV rms)
AREA	QUANT	1.00000E+000	Sample Area (cm^2)
SPEED	SELECTOR	2	Optimize for:
ZGUESS	QUANT	1.00000E+003	Estimated Z (ohms)
EOC	QUANT	0	Open Circuit (V)
SEQUENCER	TOGGLE	TRUE	Run as Sequence
PSTATMODEL	IQUANT	5	Pstat Model
PSTATSECTION	LABEL	REF3000-16137	Pstat Section
PSTATSERIALNO	LABEL	16137	Pstat Serial Number
CTRLMODE	IQUANT	1	Control Mode
IESTAB	IQUANT	0	I/E Stability
CASPEED	IQUANT	1	Control Amp Speed
CONVENTION	IQUANT	1	Current Convention
ICHRANGE	IQUANT	2	Ich Range
ICHRANGEMODE	TOGGLE	F	Ich Auto Range
ICHOFFSETENABLE	TOGGLE	T	Ich Offset Enable
ICHOFFSET	QUANT	0	Ich Offset (V)
ICHFILTER	IQUANT	3	Ich Filter
VCHRANGE	IQUANT	2	Vch Range
VCHRANGEMODE	TOGGLE	F	Vch Auto Range
VCHOFFSETENABLE	TOGGLE	T	Vch Offset Enable
VCHOFFSET	QUANT	0	Vch Offset (V)
VCHFILTER	IQUANT	3	Vch Filter
ACHRANGE	IQUANT	2	Ach Range
ACHOFFSETENABLE	TOGGLE	F	Ach Offset Enable
ACHOFFSET	QUANT	0	Ach Offset (V)
ACHFILTER	IQUANT	3	Ach Filter
IERANGELOWERLIMIT	IQUANT	2	I/E Range Lower Limit
IERANGEMODE	TOGGLE	F	I/E AutoRange
IERANGE	IQUANT	11	I/E Range
POSFEEDENABLE	TOGGLE	F	Positive Feedback IR Comp
POSFEEDRESISTANCE	QUANT	0	Positive Feedback Resistance (ohm)
ACHSELECT	IQUANT	0	Ach Select
CABLEID	IQUANT	13	Cable ID
DCCALDATE	LABEL	7/31/2020	DC Calibration Date
ACCALDATE	LABEL	7/31/2020	AC Calibration Date
THERMOSELECT	IQUANT	1	Thermo Select
FRAMEWORKVERSION	QUANT	6.33	Framework Version
INSTRUMENTVERSION	LABEL	3.50	Instrument Version
COMPLIANCEVOLTAGE	IQUANT	0	Compliance Voltage
ZCURVE	TABLE
	Pt	Time	Freq	Zreal	Zimag	Zsig	Zmod	Zphz	Idc	Vdc	IERange
	#	s	Hz	ohm	ohm	V	ohm	°	A	V	#
	0	7	300046.9	78.65718	-8.112523	1	79.07442	-5.888536	8.882769E-006	-0.0014	9
	1	10	238359.4	79.65477	-10.51857	1	80.34627	-7.522499	6.664767E-005	-0.0023798	9
	2	13	189328.1	80.73824	-13.37646	1	81.83883	-9.407136	-8.482558E-006	0.0007722	9
	3	16	150421.9	81.98927	-16.41102	1	83.61556	-11.31878	1.048863E-005	-0.0009918	9
	4	18	119484.4	83.82501	-20.08577	1	86.19786	-13.4749	5.14399E-005	-0.0012103	9
	5	21	94921.88	85.67715	-23.75314	1	88.90886	-15.49551	-1.731394E-005	0.0007186	9
	6	23	75421.88	87.7824	-28.52645	1	92.30119	-18.00249	-5.688169E-006	0.0006097	9
	7	26	59859.37	90.12141	-33.90811	1	96.2893	-20.61877	1.66058E-005	-0.0006322	9
	8	29	47578.12	92.7175	-40.14822	1	101.0367	-23.41341	2.297767E-005	-0.0005511	9
	9	31	37828.12	95.5427	-47.50312	1	106.7003	-26.43621	1.053852E-005	-0.000563	9
	10	34	30046.88	98.4169	-56.38247	1	113.4234	-29.80813	-9.429974E-006	5.009894E-005	9
	11	36	23859.38	101.4334	-67.63945	1	121.9173	-33.69678	2.371815E-005	-0.0003511	9
	12	38	18984.38	104.5238	-80.95861	1	132.2102	-37.75946	-5.862571E-006	0.0007388	9
	13	41	15046.87	107.789	-97.7747	1	145.5279	-42.21096	-1.016886E-005	0.0007801	9
	14	43	11953.13	111.6292	-119.5007	1	163.5282	-46.95056	-4.210283E-006	0.0006737	9
	15	45	9515.62	115.5477	-145.4812	1	185.785	-51.54183	-1.612338E-005	0.000791	9
	16	48	7546.875	120.6287	-178.3302	1	215.2973	-55.92422	2.344653E-005	-0.0006254	9
	17	50	5928.309	126.7744	-221.1566	1	254.9156	-60.1772	-4.91882E-006	0.0006541	9
	18	52	4733.456	133.6834	-270.8602	1	302.0538	-63.7313	-1.555109E-005	0.0003241	9
	19	55	3796.875	141.7277	-332.1071	1	361.0843	-66.88948	4.783957E-006	-0.000438	9
	20	57	2987.132	153.3492	-410.0104	1	437.7494	-69.49356	-1.068441E-006	6.303387E-005	8
	21	59	2390.625	166.0052	-502.6688	1	529.371	-71.72431	3.13957E-006	0.0007921	8
	22	62	1884.191	184.9488	-625.3705	1	652.1459	-73.5248	2.779067E-006	-0.0009578	8
	23	64	1516.544	203.3731	-762.2329	1	788.8977	-75.06079	6.012824E-006	-0.0008487	8
	24	66	1193.986	231.1232	-948.7822	1	976.527	-76.3094	-4.392003E-006	0.0024364	8
	25	69	946.5144	261.1326	-1173.157	1	1201.869	-77.45113	2.728472E-006	-0.0009978	8
	26	71	751.7689	303.7108	-1442.415	1	1474.043	-78.10965	-4.475741E-006	0.0024113	8
	27	73	597.4265	359.8897	-1788.131	1	1823.988	-78.62035	5.767844E-006	-0.0011181	8
	28	76	477.4305	420.1309	-2186.373	1	2226.373	-79.1227	2.853821E-007	0.0006547	8
	29	78	376.6741	504.464	-2712.44	1	2758.952	-79.46441	3.021603E-007	0.0006387	8
	30	81	298.2954	609.9215	-3352.655	1	3407.683	-79.6894	3.048129E-007	0.0006033	8
	31	83	237.7717	738.1016	-4116.894	1	4182.536	-79.83566	3.023225E-007	0.0006578	8
	32	85	189.0121	905.6125	-5075.262	1	5155.426	-79.88281	-1.200937E-008	0.0006281	7
	33	88	150.2404	1111.241	-6241.566	1	6339.716	-79.9049	-1.119271E-008	0.0006283	7
	34	90	119.1737	1371.338	-7687.122	1	7808.483	-79.88517	-1.114712E-008	0.0006252	7
	35	92	95.0169	1692.104	-9417.834	1	9568.64	-79.81433	-1.142103E-008	0.0006209	7
	36	95	75.60484	2097.084	-11551.75	1	11740.56	-79.71068	-1.227586E-008	0.0006294	7
	37	98	54.50582	2855.934	-15455.95	1	15717.6	-79.53104	-1.009414E-008	0.0006185	7
	38	100	45.95588	3363.572	-17992.91	1	18304.6	-79.41142	-1.032344E-008	0.0006275	7
	39	102	37.20238	4116.7	-21692.74	1	22079.9	-79.25458	-1.199949E-008	0.0006264	7
	40	105	30.04808	5063.417	-26230.74	1	26714.97	-79.07436	-1.309362E-008	0.0006205	7
	41	107	23.91582	6299.926	-32040.24	1	32653.73	-78.8761	-9.837253E-009	0.0006247	7
	42	110	18.60119	8094.148	-40053.08	1	40862.75	-78.57522	-1.355887E-008	0.0006345	7
	43	112	15.02404	10021.22	-48334.58	1	49362.5	-78.2868	-4.028503E-008	0.0006784	6
	44	114	12.01923	12537.96	-58784.17	1	60106.39	-77.95991	-4.120371E-008	0.0006764	6
	45	117	9.450605	16040.23	-72590.84	1	74341.91	-77.5397	-4.112345E-008	0.0006916	6
	46	119	7.512019	20416.24	-88653.75	1	90974.23	-77.03136	-4.067965E-008	0.0006603	6
	47	122	5.978954	26035.7	-108138.2	1	111228.3	-76.46294	-4.020444E-008	0.0006789	6
	48	126	4.734848	33761.72	-132289.9	1	136530.1	-75.68314	-4.025379E-008	0.0006529	6
	49	130	3.75601	43927.47	-161373.7	1	167245.6	-74.77249	-3.978418E-008	0.0006787	6
	50	135	3.004808	57008.86	-194911.6	1	203077.7	-73.69656	-3.942261E-008	0.0006401	6
	51	142	2.372217	75766.98	-237375.4	1	249174.1	-72.29763	-3.9653E-008	0.0005966	6
	52	146	1.878005	100775.9	-286650.3	1	303849	-70.63017	-3.911463E-008	0.0006763	6
	53	151	1.512097	131580.4	-338702.2	1	363362.9	-68.76964	-3.911103E-008	0.0006208	6
	54	156	1.201923	175006.7	-402972	1	439333.3	-66.52517	-3.87207E-008	0.0006981	6
	55	162	0.956633	231234.1	-472707.7	1	526233.6	-63.93354	-4.217593E-008	5.650054E-005	5
