EXPLAIN
TAG	EISPOT
TITLE	LABEL	Potentiostatic EIS	Test Identifier
DATE	LABEL	2/26/2021	Date
TIME	LABEL	11:53:42	Time
NOTES	NOTES	1	Notes...
	
PSTAT	PSTAT	REF3000-16137	Potentiostat
VDC	POTEN	0.00000E+000	T	DC Voltage (V)
FREQINIT	QUANT	3.00000E+005	Initial Freq. (Hz)
FREQFINAL	QUANT	1.00000E+000	Final Freq. (Hz)
PTSPERDEC	QUANT	1.00000E+001	Points/decade
VAC	QUANT	5.00000E+001	AC Voltage (mV rms)
AREA	QUANT	1.00000E+000	Sample Area (cm^2)
SPEED	SELECTOR	2	Optimize for:
ZGUESS	QUANT	1.00000E+003	Estimated Z (ohms)
EOC	QUANT	0	Open Circuit (V)
SEQUENCER	TOGGLE	TRUE	Run as Sequence
PSTATMODEL	IQUANT	5	Pstat Model
PSTATSECTION	LABEL	REF3000-16137	Pstat Section
PSTATSERIALNO	LABEL	16137	Pstat Serial Number
CTRLMODE	IQUANT	1	Control Mode
IESTAB	IQUANT	0	I/E Stability
CASPEED	IQUANT	1	Control Amp Speed
CONVENTION	IQUANT	1	Current Convention
ICHRANGE	IQUANT	2	Ich Range
ICHRANGEMODE	TOGGLE	F	Ich Auto Range
ICHOFFSETENABLE	TOGGLE	T	Ich Offset Enable
ICHOFFSET	QUANT	0	Ich Offset (V)
ICHFILTER	IQUANT	3	Ich Filter
VCHRANGE	IQUANT	2	Vch Range
VCHRANGEMODE	TOGGLE	F	Vch Auto Range
VCHOFFSETENABLE	TOGGLE	T	Vch Offset Enable
VCHOFFSET	QUANT	0	Vch Offset (V)
VCHFILTER	IQUANT	3	Vch Filter
ACHRANGE	IQUANT	2	Ach Range
ACHOFFSETENABLE	TOGGLE	F	Ach Offset Enable
ACHOFFSET	QUANT	0	Ach Offset (V)
ACHFILTER	IQUANT	3	Ach Filter
IERANGELOWERLIMIT	IQUANT	2	I/E Range Lower Limit
IERANGEMODE	TOGGLE	F	I/E AutoRange
IERANGE	IQUANT	11	I/E Range
POSFEEDENABLE	TOGGLE	F	Positive Feedback IR Comp
POSFEEDRESISTANCE	QUANT	0	Positive Feedback Resistance (ohm)
ACHSELECT	IQUANT	0	Ach Select
CABLEID	IQUANT	13	Cable ID
DCCALDATE	LABEL	7/31/2020	DC Calibration Date
ACCALDATE	LABEL	7/31/2020	AC Calibration Date
THERMOSELECT	IQUANT	1	Thermo Select
FRAMEWORKVERSION	QUANT	6.33	Framework Version
INSTRUMENTVERSION	LABEL	3.50	Instrument Version
COMPLIANCEVOLTAGE	IQUANT	0	Compliance Voltage
ZCURVE	TABLE
	Pt	Time	Freq	Zreal	Zimag	Zsig	Zmod	Zphz	Idc	Vdc	IERange
	#	s	Hz	ohm	ohm	V	ohm	°	A	V	#
	0	11	300046.9	326.0617	-37.12559	1	328.1685	-6.495759	-6.051798E-005	0.0004778	10
	1	19	238359.4	330.0744	-30.74945	1	331.5036	-5.322264	-3.048737E-005	-0.0008331	9
	2	23	189328.1	332.5867	-37.44909	1	334.6885	-6.424414	-2.225105E-005	0.0005052	10
	3	28	150421.9	337.4303	-38.39246	1	339.6074	-6.491138	-2.191681E-005	0.0006941	10
	4	32	119484.4	341.0839	-42.15418	1	343.6789	-7.045397	3.398025E-005	0.0006057	10
	5	37	94921.88	345.3468	-44.50977	1	348.2033	-7.34404	-1.475765E-005	7.609077E-005	9
	6	39	75421.88	349.2711	-50.94056	1	352.9663	-8.297978	-1.29609E-005	4.116673E-005	9
	7	42	59859.37	354.3021	-59.10575	1	359.1984	-9.471039	-8.838651E-006	0.0009388	9
	8	44	47578.12	360.0118	-69.89336	1	366.7336	-10.98684	-2.157391E-005	0.0004433	9
	9	47	37828.12	366.3418	-81.25247	1	375.2443	-12.50543	-2.457693E-005	0.0009133	9
	10	49	30046.88	373.9284	-95.5648	1	385.947	-14.3362	-2.139327E-005	0.0004805	9
	11	52	23859.38	382.4061	-112.6739	1	398.66	-16.41732	-2.304256E-005	0.0006532	9
	12	54	18984.38	391.4614	-130.5361	1	412.652	-18.4414	1.443274E-005	-0.0029723	8
	13	57	15046.87	403.301	-154.0447	1	431.7192	-20.90484	-3.733521E-006	-0.0013836	8
	14	59	11953.13	415.8412	-182.4498	1	454.1056	-23.6894	-1.357403E-005	0.0049911	8
	15	61	9515.62	427.5206	-215.5363	1	478.7795	-26.75515	-1.264867E-005	0.0061548	8
	16	64	7546.875	440.4146	-256.6378	1	509.7333	-30.23015	1.25408E-005	-0.0031366	8
	17	66	5928.309	454.9356	-309.3865	1	550.1695	-34.21831	-1.233743E-005	0.0053015	8
	18	68	4733.456	467.4421	-369.2423	1	595.6862	-38.30595	-1.022875E-005	0.0016585	8
	19	71	3796.875	480.484	-446.3847	1	655.8386	-42.89305	-1.127203E-005	0.002439	8
	20	73	2987.132	499.0994	-546.0369	1	739.7679	-47.57145	2.370057E-006	-0.0029833	8
	21	76	2390.625	516.6481	-661.9318	1	839.6898	-52.0274	-6.741691E-006	4.585833E-005	8
	22	78	1884.191	540.384	-816.5917	1	979.202	-56.50518	1.040528E-005	-0.0002186	8
	23	81	1516.544	561.2654	-996.017	1	1143.271	-60.59831	1.361164E-005	-0.0020226	8
	24	83	1193.986	591.1784	-1236.067	1	1370.165	-64.43943	-1.082224E-005	0.0057109	8
	25	86	946.5144	635.3755	-1527.481	1	1654.358	-67.4145	-1.189869E-005	0.0026791	8
	26	89	751.7689	669.3195	-1900.585	1	2014.997	-70.59953	-1.285653E-005	0.0045318	8
	27	91	597.4265	729.7782	-2336.249	1	2447.577	-72.65266	-1.008496E-005	0.00159	8
	28	94	477.4305	794.5834	-2885.765	1	2993.159	-74.60533	4.18949E-008	0.0006352	8
	29	97	376.6741	880.272	-3594.256	1	3700.48	-76.23852	2.749931E-008	0.0006395	8
	30	100	298.2954	989.673	-4469.433	1	4577.694	-77.51437	-8.585636E-009	0.0005898	7
	31	102	237.7717	1113.91	-5514.085	1	5625.472	-78.57928	-9.302237E-009	0.0006143	7
	32	106	189.0121	1269.148	-6823.714	1	6940.735	-79.4639	-1.326734E-008	0.0006244	7
	33	108	150.2404	1459.536	-8443.856	1	8569.07	-80.19322	-1.293357E-008	0.0006153	7
	34	110	119.1737	1696.422	-10473.48	1	10609.97	-80.79952	-9.870549E-009	0.0006118	7
	35	113	95.0169	1985.593	-12924.73	1	13076.36	-81.26608	-1.164806E-008	0.0006369	7
	36	115	75.60484	2347.818	-15986.13	1	16157.62	-81.64494	-1.12571E-008	0.0006072	7
	37	118	54.50582	3038.201	-21659.03	1	21871.09	-82.01499	-1.475447E-008	0.0006368	7
	38	120	45.95588	3475.131	-25389.75	1	25626.46	-82.20627	-1.425719E-008	0.0006311	7
	39	123	37.20238	4161.091	-30901.95	1	31180.84	-82.33099	-1.121192E-008	0.0006151	7
	40	125	30.04808	5001.879	-37688.16	1	38018.62	-82.44003	-9.998645E-009	0.0006109	7
	41	127	23.91582	6218.262	-46611.92	1	47024.86	-82.40132	-5.716088E-009	0.0006514	6
	42	130	18.60119	7752.098	-58785.47	1	59294.4	-82.48769	-4.562875E-009	0.0006502	6
	43	132	15.02404	9506.37	-71705.21	1	72332.63	-82.44801	-4.715203E-009	0.0006841	6
	44	134	12.01923	11779.42	-88178.13	1	88961.44	-82.3911	-4.727636E-009	0.0006625	6
	45	137	9.450605	14913.17	-110137.2	1	111142.3	-82.28874	-4.519438E-009	0.0006246	6
	46	139	7.512019	18870.21	-136170.1	1	137471.4	-82.11031	-4.899666E-009	0.0006914	6
	47	142	5.978954	23783.81	-168003.9	1	169679	-81.94235	-4.456861E-009	0.0006549	6
	48	147	4.734848	30603.39	-208466	1	210700.3	-81.64847	-4.356864E-009	0.000677	6
	49	150	3.75601	39114.78	-257838.7	1	260788.8	-81.37386	-4.642728E-009	0.000683	6
	50	156	3.004808	49909.8	-316366.5	1	320279.2	-81.03493	-4.631298E-009	0.0006896	6
	51	162	2.372217	65510.39	-392779.1	1	398204.8	-80.53098	-4.653732E-009	0.0007436	6
	52	166	1.878005	85308.62	-486058.2	1	493487.8	-80.04534	-3.750966E-009	0.0006398	5
	53	171	1.512097	109527.4	-590027.9	1	600107.6	-79.48383	-3.507967E-009	0.0006563	5
	54	176	1.201923	144853.7	-728151.5	1	742419.8	-78.74884	-3.633955E-009	0.0006397	5
	55	182	0.956633	191976.2	-892968.4	1	913371.4	-77.86686	-3.655847E-009	1.456204E-005	5
