EXPLAIN
TAG	EISPOT
TITLE	LABEL	Potentiostatic EIS	Test Identifier
DATE	LABEL	2/26/2021	Date
TIME	LABEL	10:49:59	Time
NOTES	NOTES	1	Notes...
	
PSTAT	PSTAT	REF3000-16137	Potentiostat
VDC	POTEN	0.00000E+000	T	DC Voltage (V)
FREQINIT	QUANT	3.00000E+005	Initial Freq. (Hz)
FREQFINAL	QUANT	1.00000E+000	Final Freq. (Hz)
PTSPERDEC	QUANT	1.00000E+001	Points/decade
VAC	QUANT	5.00000E+001	AC Voltage (mV rms)
AREA	QUANT	1.00000E+000	Sample Area (cm^2)
SPEED	SELECTOR	2	Optimize for:
ZGUESS	QUANT	1.00000E+003	Estimated Z (ohms)
EOC	QUANT	0	Open Circuit (V)
SEQUENCER	TOGGLE	TRUE	Run as Sequence
PSTATMODEL	IQUANT	5	Pstat Model
PSTATSECTION	LABEL	REF3000-16137	Pstat Section
PSTATSERIALNO	LABEL	16137	Pstat Serial Number
CTRLMODE	IQUANT	1	Control Mode
IESTAB	IQUANT	0	I/E Stability
CASPEED	IQUANT	1	Control Amp Speed
CONVENTION	IQUANT	1	Current Convention
ICHRANGE	IQUANT	2	Ich Range
ICHRANGEMODE	TOGGLE	F	Ich Auto Range
ICHOFFSETENABLE	TOGGLE	T	Ich Offset Enable
ICHOFFSET	QUANT	0	Ich Offset (V)
ICHFILTER	IQUANT	3	Ich Filter
VCHRANGE	IQUANT	2	Vch Range
VCHRANGEMODE	TOGGLE	F	Vch Auto Range
VCHOFFSETENABLE	TOGGLE	T	Vch Offset Enable
VCHOFFSET	QUANT	0	Vch Offset (V)
VCHFILTER	IQUANT	3	Vch Filter
ACHRANGE	IQUANT	2	Ach Range
ACHOFFSETENABLE	TOGGLE	F	Ach Offset Enable
ACHOFFSET	QUANT	0	Ach Offset (V)
ACHFILTER	IQUANT	3	Ach Filter
IERANGELOWERLIMIT	IQUANT	2	I/E Range Lower Limit
IERANGEMODE	TOGGLE	F	I/E AutoRange
IERANGE	IQUANT	11	I/E Range
POSFEEDENABLE	TOGGLE	F	Positive Feedback IR Comp
POSFEEDRESISTANCE	QUANT	0	Positive Feedback Resistance (ohm)
ACHSELECT	IQUANT	0	Ach Select
CABLEID	IQUANT	13	Cable ID
DCCALDATE	LABEL	7/31/2020	DC Calibration Date
ACCALDATE	LABEL	7/31/2020	AC Calibration Date
THERMOSELECT	IQUANT	1	Thermo Select
FRAMEWORKVERSION	QUANT	6.33	Framework Version
INSTRUMENTVERSION	LABEL	3.50	Instrument Version
COMPLIANCEVOLTAGE	IQUANT	0	Compliance Voltage
ZCURVE	TABLE
	Pt	Time	Freq	Zreal	Zimag	Zsig	Zmod	Zphz	Idc	Vdc	IERange
	#	s	Hz	ohm	ohm	V	ohm	°	A	V	#
	0	7	300046.9	29.0479	-5.88592	1	29.63823	-11.45464	3.531379E-006	-5.005821E-005	11
	1	11	238359.4	29.81336	-7.242698	1	30.6805	-13.65461	5.076258E-005	0.0006305	10
	2	14	189328.1	30.6165	-9.066819	1	31.93082	-16.49621	1.793264E-005	0.0005125	10
	3	17	150421.9	31.458	-11.15672	1	33.37781	-19.52727	2.781095E-005	0.000874	10
	4	19	119484.4	32.38502	-13.496	1	35.08463	-22.62324	-9.412241E-005	0.0006593	10
	5	22	94921.88	33.40628	-16.24553	1	37.14696	-25.93374	-2.693936E-005	0.0006584	10
	6	24	75421.88	34.68384	-19.24114	1	39.66346	-29.01968	-1.142673E-005	0.0003266	9
	7	27	59859.37	35.96026	-23.15103	1	42.7681	-32.77323	1.593491E-005	-0.000391	9
	8	29	47578.12	37.30183	-27.91698	1	46.59167	-36.81146	1.433006E-005	-0.0003477	9
	9	32	37828.12	38.90728	-33.74821	1	51.50454	-40.9384	-1.001655E-005	0.0005044	9
	10	34	30046.88	40.82101	-40.76689	1	57.69137	-44.96199	-8.969036E-006	0.0005876	9
	11	37	23859.38	43.17273	-49.40462	1	65.61022	-48.85109	-1.110894E-005	0.0005712	9
	12	39	18984.38	45.94601	-59.92178	1	75.50931	-52.52022	-3.738368E-006	-9.236257E-006	9
	13	41	15046.87	49.51718	-72.75844	1	88.0099	-55.76199	1.073592E-005	-0.000344	9
	14	44	11953.13	53.90882	-88.05069	1	103.2428	-58.52305	-1.006364E-005	0.0005425	9
	15	46	9515.62	59.37048	-106.3419	1	121.7927	-60.82547	-1.175514E-005	0.0005061	9
	16	48	7546.875	65.58601	-129.2693	1	144.9555	-63.09861	1.541827E-006	-0.0001622	9
	17	51	5928.309	74.14474	-157.4736	1	174.0556	-64.7871	1.576263E-005	-0.0003688	9
	18	53	4733.456	83.64456	-189.683	1	207.3066	-66.20394	1.030729E-005	5.738912E-009	9
	19	55	3796.875	94.06908	-227.3051	1	246.0012	-67.51803	-1.396012E-005	0.0004227	9
	20	58	2987.132	109.0022	-276.2239	1	296.9531	-68.46505	-1.310534E-005	0.0005041	9
	21	60	2390.625	124.429	-331.7579	1	354.3245	-69.44096	1.68814E-005	-0.0003735	9
	22	62	1884.191	145.0616	-402.5124	1	427.8541	-70.18133	-1.127772E-005	0.0005175	9
	23	65	1516.544	167.5486	-479.4834	1	507.9142	-70.73876	-2.187759E-006	0.0013331	8
	24	67	1193.986	197.0956	-583.3026	1	615.7017	-71.33009	-2.000867E-006	0.0010356	8
	25	69	946.5144	231.6651	-707.2375	1	744.2134	-71.8631	-2.174425E-006	0.0013692	8
	26	72	751.7689	271.6361	-855.0225	1	897.1341	-72.37522	2.457504E-006	-8.248992E-005	8
	27	74	597.4265	318.3349	-1037.591	1	1085.326	-72.94388	5.921274E-007	0.0009211	8
	28	76	477.4305	374.7659	-1248.219	1	1303.265	-73.28812	3.929352E-007	0.0006605	8
	29	79	376.6741	445.6795	-1521.372	1	1585.308	-73.67227	3.910949E-007	0.0006571	8
	30	81	298.2954	529.7687	-1850.014	1	1924.372	-74.02044	4.03828E-007	0.0006586	8
	31	83	237.7717	628.0052	-2238.995	1	2325.401	-74.33197	3.889855E-007	0.0006619	8
	32	86	189.0121	748.1514	-2716.853	1	2817.982	-74.60381	3.922541E-007	0.0006607	8
	33	88	150.2404	893.3222	-3299.8	1	3418.582	-74.85197	3.999939E-007	0.0006553	8
	34	91	119.1737	1072.271	-4015.153	1	4155.865	-75.04776	3.928992E-007	0.0006628	8
	35	93	95.0169	1288.479	-4877.035	1	5044.368	-75.20098	-9.11433E-008	0.0006362	7
	36	95	75.60484	1551.14	-5923.543	1	6123.267	-75.326	-9.078138E-008	0.0006326	7
	37	98	54.50582	2033.034	-7824.111	1	8083.932	-75.43425	-8.900349E-008	0.0006299	7
	38	100	45.95588	2352.797	-9052.366	1	9353.127	-75.43063	-9.104767E-008	0.0006411	7
	39	103	37.20238	2823.201	-10834.47	1	11196.25	-75.39487	-9.25728E-008	0.0006438	7
	40	105	30.04808	3406.536	-13004.74	1	13443.5	-75.32141	-9.121045E-008	0.0006263	7
	41	108	23.91582	4172.39	-15779.49	1	16321.8	-75.1889	-8.898029E-008	0.0006295	7
	42	110	18.60119	5266.41	-19535.19	1	20232.62	-74.91254	-9.493912E-008	0.0006367	7
	43	112	15.02404	6434.824	-23411.2	1	24279.44	-74.63116	-9.045068E-008	0.0006296	7
	44	115	12.01923	7997.493	-28257.05	1	29367	-74.19708	-9.039724E-008	0.0006306	7
	45	117	9.450605	10129.07	-34535.9	1	35990.65	-73.65406	-9.107649E-008	0.0006225	7
	46	120	7.512019	12843.4	-41827.12	1	43754.55	-72.93042	-8.813474E-008	0.000632	7
	47	122	5.978954	16274.89	-50415.07	1	52976.89	-72.10899	-1.404099E-007	0.0006917	6
	48	126	4.734848	20895.79	-60894.53	1	64379.95	-71.06049	-1.393137E-007	0.0007199	6
	49	129	3.75601	26929.86	-73135.8	1	77936.27	-69.78543	-1.409448E-007	0.0006756	6
	50	134	3.004808	34474.78	-86862.76	1	93453.99	-68.35247	-1.397459E-007	0.0006807	6
	51	141	2.372217	45048.83	-103476.1	1	112857	-66.47385	-1.403917E-007	0.0007354	6
	52	145	1.878005	58490.74	-122289.2	1	135557.4	-64.43828	-1.416823E-007	0.0006761	6
	53	150	1.512097	74901.6	-138743.7	1	157670.7	-61.63735	-1.462265E-007	0.0006698	6
	54	160	1.201923	96708.7	-157998	1	185245.6	-58.5297	-1.484197E-007	0.0006713	6
	55	173	0.956633	122270.6	-178711.7	1	216536.3	-55.62094	-1.495789E-007	4.482046E-005	6
