EXPLAIN
TAG	EISPOT
TITLE	LABEL	Potentiostatic EIS	Test Identifier
DATE	LABEL	2/26/2021	Date
TIME	LABEL	12:50:17	Time
NOTES	NOTES	1	Notes...
	
PSTAT	PSTAT	REF3000-16137	Potentiostat
VDC	POTEN	0.00000E+000	T	DC Voltage (V)
FREQINIT	QUANT	3.00000E+005	Initial Freq. (Hz)
FREQFINAL	QUANT	1.00000E+000	Final Freq. (Hz)
PTSPERDEC	QUANT	1.00000E+001	Points/decade
VAC	QUANT	5.00000E+001	AC Voltage (mV rms)
AREA	QUANT	1.00000E+000	Sample Area (cm^2)
SPEED	SELECTOR	2	Optimize for:
ZGUESS	QUANT	1.00000E+003	Estimated Z (ohms)
EOC	QUANT	0	Open Circuit (V)
SEQUENCER	TOGGLE	TRUE	Run as Sequence
PSTATMODEL	IQUANT	5	Pstat Model
PSTATSECTION	LABEL	REF3000-16137	Pstat Section
PSTATSERIALNO	LABEL	16137	Pstat Serial Number
CTRLMODE	IQUANT	1	Control Mode
IESTAB	IQUANT	0	I/E Stability
CASPEED	IQUANT	1	Control Amp Speed
CONVENTION	IQUANT	1	Current Convention
ICHRANGE	IQUANT	2	Ich Range
ICHRANGEMODE	TOGGLE	F	Ich Auto Range
ICHOFFSETENABLE	TOGGLE	T	Ich Offset Enable
ICHOFFSET	QUANT	0	Ich Offset (V)
ICHFILTER	IQUANT	3	Ich Filter
VCHRANGE	IQUANT	2	Vch Range
VCHRANGEMODE	TOGGLE	F	Vch Auto Range
VCHOFFSETENABLE	TOGGLE	T	Vch Offset Enable
VCHOFFSET	QUANT	0	Vch Offset (V)
VCHFILTER	IQUANT	3	Vch Filter
ACHRANGE	IQUANT	2	Ach Range
ACHOFFSETENABLE	TOGGLE	F	Ach Offset Enable
ACHOFFSET	QUANT	0	Ach Offset (V)
ACHFILTER	IQUANT	3	Ach Filter
IERANGELOWERLIMIT	IQUANT	2	I/E Range Lower Limit
IERANGEMODE	TOGGLE	F	I/E AutoRange
IERANGE	IQUANT	11	I/E Range
POSFEEDENABLE	TOGGLE	F	Positive Feedback IR Comp
POSFEEDRESISTANCE	QUANT	0	Positive Feedback Resistance (ohm)
ACHSELECT	IQUANT	0	Ach Select
CABLEID	IQUANT	13	Cable ID
DCCALDATE	LABEL	7/31/2020	DC Calibration Date
ACCALDATE	LABEL	7/31/2020	AC Calibration Date
THERMOSELECT	IQUANT	1	Thermo Select
FRAMEWORKVERSION	QUANT	6.33	Framework Version
INSTRUMENTVERSION	LABEL	3.50	Instrument Version
COMPLIANCEVOLTAGE	IQUANT	0	Compliance Voltage
ZCURVE	TABLE
	Pt	Time	Freq	Zreal	Zimag	Zsig	Zmod	Zphz	Idc	Vdc	IERange
	#	s	Hz	ohm	ohm	V	ohm	°	A	V	#
	0	14	300046.9	-50.30473	-4802.732	1	4802.996	-90.60011	1.396288E-006	-0.0021076	9
	1	28	238359.4	5.349326	-6015.226	1	6015.229	-89.94904	2.025619E-005	-0.0021311	9
	2	55	189328.1	1270.096	-6980.748	1	7095.349	-79.68825	1.818451E-005	-0.0008809	9
	3	62	150421.9	288.9489	-8670.986	1	8675.8	-88.0914	2.654095E-005	-0.0017858	9
	4	77	119484.4	611.1689	-11502.75	1	11518.98	-86.9586	-1.120635E-005	0.0179574	8
	5	85	94921.88	524.1082	-14480.07	1	14489.55	-87.92708	-1.977249E-005	0.0113274	8
	6	93	75421.88	835.765	-17757.81	1	17777.46	-87.30538	-9.795502E-007	-0.005062	8
	7	102	59859.37	905.04	-23070.57	1	23088.32	-87.75349	-2.609903E-005	0.0075367	8
	8	111	47578.12	4381.55	-30270.92	1	30586.38	-81.76395	-7.167195E-006	0.0234497	7
	9	118	37828.12	4155.233	-36652.86	1	36887.64	-83.53215	-3.740343E-006	0.0252771	7
	10	127	30046.88	551.9508	-44233.48	1	44236.93	-89.2851	2.625011E-005	-0.0088462	8
	11	135	23859.38	432.5557	-57253.46	1	57255.09	-89.56713	2.286005E-005	-0.0025665	8
	12	142	18984.38	2961.347	-70967.23	1	71028.99	-87.61053	-1.59953E-005	0.0007028	8
	13	149	15046.87	6364.018	-91372.67	1	91594.03	-86.01584	-1.681669E-006	0.0215521	7
	14	155	11953.13	2151.362	-118047.5	1	118067.1	-88.95592	6.635732E-006	-0.0102773	7
	15	162	9515.62	6629.068	-143740.9	1	143893.7	-87.3595	3.438972E-006	-0.0244971	7
	16	167	7546.875	-33.75003	-186009.9	1	186009.9	-90.0104	7.555051E-006	-0.0183619	7
	17	174	5928.309	-3845.132	-221956.6	1	221989.9	-90.99249	-6.70893E-006	0.0120412	7
	18	180	4733.456	11434.27	-339816.9	1	340009.2	-88.07282	-6.730238E-006	0.0120631	7
	19	185	3796.875	-5627.48	-350581.4	1	350626.5	-90.91962	4.327672E-007	0.0163847	7
	20	192	2987.132	3269.873	-520693.6	1	520703.9	-89.6402	-1.026334E-006	-0.0133832	7
	21	198	2390.625	52945.18	-587892.6	1	590271.9	-84.85387	-5.575231E-007	0.0267816	6
	22	204	1884.191	66971.98	-706182.1	1	709350.6	-84.58246	7.738481E-007	-0.0229117	6
	23	209	1516.544	86678.01	-901051.9	1	905211.3	-84.50526	2.20369E-007	0.0103968	6
	24	215	1193.986	122033.9	-1137140	1	1143669	-83.87466	-5.604383E-007	0.026651	6
	25	222	946.5144	411995.1	-513682.4	1	658490.4	-51.26891	4.849662E-006	-0.0001439	7
	26	228	751.7689	283286.5	-680873.4	1	737455	-67.40959	-7.426338E-006	0.0193109	7
	27	233	597.4265	197837.9	64477.96	1	208079.9	18.05147	-2.62542E-005	0.0094736	8
	28	240	477.4305	309851.5	-2675808	1	2693688	-83.39471	-2.749944E-007	0.0006609	8
	29	245	376.6741	528778.8	-3487267	1	3527129	-81.37785	-6.7755E-009	0.0006508	6
	30	249	298.2954	1153555	-4354161	1	4504376	-75.16144	-7.540079E-010	0.0007083	5
	31	252	237.7717	1553755	-5359093	1	5579789	-73.83161	-8.232425E-010	0.0006711	5
	32	256	189.0121	2081962	-6605954	1	6926268	-72.507	-7.567091E-010	0.0006593	5
	33	260	150.2404	2601025	-7953326	1	8367839	-71.89038	-6.987647E-010	0.0006659	5
	34	264	119.1737	5232513	-1.00494E+007	1	1.133003E+007	-62.49495	-6.380419E-010	0.0006584	5
	35	267	95.0169	5701625	-1.179097E+007	1	1.309715E+007	-64.1935	-8.757047E-010	0.0006885	5
	36	270	75.60484	8679488	-1.43581E+007	1	1.677762E+007	-58.84698	-8.87146E-010	0.0007051	5
	37	273	54.50582	1.292406E+007	-1.534373E+007	1	2.006143E+007	-49.89249	-7.732479E-010	0.0006624	5
	38	276	45.95588	1.513917E+007	-1.45399E+007	1	2.099055E+007	-43.84327	-1.712758E-011	0.0006821	4
	39	278	37.20238	2.34623E+007	-1.520583E+007	1	2.795884E+007	-32.94711	2.761049E-011	0.0006243	4
	40	281	30.04808	2.074725E+007	-1.738608E+007	1	2.706888E+007	-39.96281	-7.420592E-010	0.0006581	5
	41	285	23.91582	2.996737E+007	-1.761674E+007	1	3.476194E+007	-30.44974	-8.099085E-010	0.0006171	5
	42	289	18.60119	1.817586E+007	-1.289705E+007	1	2.228667E+007	-35.35836	-1.16569E-009	0.0006355	5
	43	292	15.02404	3.352894E+007	-1.339063E+007	1	3.6104E+007	-21.77054	-8.162668E-011	0.0006668	4
	44	295	12.01923	3.5673E+007	-1.192694E+007	1	3.761403E+007	-18.48688	-6.748887E-011	0.0007168	4
	45	299	9.450605	3.730732E+007	-9.584781E+006	1	3.851888E+007	-14.40848	-5.58764E-011	0.0007104	4
	46	303	7.512019	3.971984E+007	-9.9328E+006	1	4.094296E+007	-14.0401	-8.63682E-011	0.0006075	4
	47	307	5.978954	4.218061E+007	-8863785	1	4.310186E+007	-11.8674	-6.884187E-011	0.000694	4
	48	313	4.734848	4.431451E+007	-8190445	1	4.506505E+007	-10.47154	-6.41343E-011	0.0006501	4
	49	319	3.75601	4.694984E+007	-8967769	1	4.779862E+007	-10.81367	-9.623186E-011	0.0006114	4
	50	326	3.004808	4.943636E+007	-6617963	1	4.987736E+007	-7.62476	-6.793413E-011	0.00072	4
	51	333	2.372217	5.491432E+007	-3984101	1	5.505866E+007	-4.149608	-2.846218E-012	0.000751	3
	52	338	1.878005	5.663352E+007	-4590356	1	5.681925E+007	-4.633904	-8.410156E-012	0.0007136	3
	53	342	1.512097	5.870162E+007	-5388796	1	5.894845E+007	-5.245039	-1.812817E-011	0.0008333	3
	54	348	1.201923	6.142173E+007	-6333856	1	6.174744E+007	-5.887575	-3.719712E-012	0.0007121	3
	55	354	0.956633	6.465454E+007	-7566961	1	6.509584E+007	-6.675347	-3.921039E-011	9.341913E-005	3
