EXPLAIN
TAG	EISPOT
TITLE	LABEL	Potentiostatic EIS	Test Identifier
DATE	LABEL	2/26/2021	Date
TIME	LABEL	10:53:03	Time
NOTES	NOTES	1	Notes...
	
PSTAT	PSTAT	REF3000-16137	Potentiostat
VDC	POTEN	0.00000E+000	T	DC Voltage (V)
FREQINIT	QUANT	3.00000E+005	Initial Freq. (Hz)
FREQFINAL	QUANT	1.00000E+000	Final Freq. (Hz)
PTSPERDEC	QUANT	1.00000E+001	Points/decade
VAC	QUANT	5.00000E+001	AC Voltage (mV rms)
AREA	QUANT	1.00000E+000	Sample Area (cm^2)
SPEED	SELECTOR	2	Optimize for:
ZGUESS	QUANT	1.00000E+003	Estimated Z (ohms)
EOC	QUANT	0	Open Circuit (V)
SEQUENCER	TOGGLE	TRUE	Run as Sequence
PSTATMODEL	IQUANT	5	Pstat Model
PSTATSECTION	LABEL	REF3000-16137	Pstat Section
PSTATSERIALNO	LABEL	16137	Pstat Serial Number
CTRLMODE	IQUANT	1	Control Mode
IESTAB	IQUANT	0	I/E Stability
CASPEED	IQUANT	1	Control Amp Speed
CONVENTION	IQUANT	1	Current Convention
ICHRANGE	IQUANT	2	Ich Range
ICHRANGEMODE	TOGGLE	F	Ich Auto Range
ICHOFFSETENABLE	TOGGLE	T	Ich Offset Enable
ICHOFFSET	QUANT	0	Ich Offset (V)
ICHFILTER	IQUANT	3	Ich Filter
VCHRANGE	IQUANT	2	Vch Range
VCHRANGEMODE	TOGGLE	F	Vch Auto Range
VCHOFFSETENABLE	TOGGLE	T	Vch Offset Enable
VCHOFFSET	QUANT	0	Vch Offset (V)
VCHFILTER	IQUANT	3	Vch Filter
ACHRANGE	IQUANT	2	Ach Range
ACHOFFSETENABLE	TOGGLE	F	Ach Offset Enable
ACHOFFSET	QUANT	0	Ach Offset (V)
ACHFILTER	IQUANT	3	Ach Filter
IERANGELOWERLIMIT	IQUANT	2	I/E Range Lower Limit
IERANGEMODE	TOGGLE	F	I/E AutoRange
IERANGE	IQUANT	11	I/E Range
POSFEEDENABLE	TOGGLE	F	Positive Feedback IR Comp
POSFEEDRESISTANCE	QUANT	0	Positive Feedback Resistance (ohm)
ACHSELECT	IQUANT	0	Ach Select
CABLEID	IQUANT	13	Cable ID
DCCALDATE	LABEL	7/31/2020	DC Calibration Date
ACCALDATE	LABEL	7/31/2020	AC Calibration Date
THERMOSELECT	IQUANT	1	Thermo Select
FRAMEWORKVERSION	QUANT	6.33	Framework Version
INSTRUMENTVERSION	LABEL	3.50	Instrument Version
COMPLIANCEVOLTAGE	IQUANT	0	Compliance Voltage
ZCURVE	TABLE
	Pt	Time	Freq	Zreal	Zimag	Zsig	Zmod	Zphz	Idc	Vdc	IERange
	#	s	Hz	ohm	ohm	V	ohm	°	A	V	#
	0	7	300046.9	30.7135	-6.146686	1	31.32253	-11.31708	-3.640557E-005	-0.0001466	11
	1	11	238359.4	31.57744	-7.51823	1	32.46011	-13.39214	1.783029E-005	0.0003806	10
	2	14	189328.1	32.37577	-9.460032	1	33.72956	-16.28809	5.231508E-005	0.0007113	10
	3	17	150421.9	33.22277	-11.5131	1	35.16111	-19.11338	4.209648E-005	0.0005754	10
	4	19	119484.4	34.20812	-14.01479	1	36.96769	-22.27851	-2.202348E-005	0.0006115	10
	5	22	94921.88	35.52782	-16.45348	1	39.15282	-24.84958	1.799303E-005	-0.0002883	9
	6	24	75421.88	36.63108	-19.78475	1	41.63258	-28.37385	-1.050942E-005	0.0002495	9
	7	27	59859.37	37.91148	-23.90125	1	44.81685	-32.22934	9.877641E-006	-1.512682E-005	9
	8	29	47578.12	39.27586	-28.76921	1	48.68532	-36.22244	1.780767E-005	-0.0002308	9
	9	32	37828.12	40.88768	-34.78467	1	53.68217	-40.38905	-9.971428E-006	0.0005197	9
	10	34	30046.88	42.77742	-42.07588	1	60.0024	-44.5263	1.125241E-005	-0.0003678	9
	11	37	23859.38	45.15786	-50.95674	1	68.08687	-48.45264	-3.438474E-006	4.388586E-006	9
	12	39	18984.38	47.99294	-61.8026	1	78.24886	-52.1688	1.096997E-005	-0.0003759	9
	13	41	15046.87	51.39946	-75.26703	1	91.14291	-55.67104	1.722696E-005	-0.0003859	9
	14	44	11953.13	55.95895	-91.30605	1	107.0897	-58.49702	1.416713E-005	-0.0004001	9
	15	46	9515.62	61.28387	-110.498	1	126.3548	-60.98659	6.667113E-006	-0.0002876	9
	16	48	7546.875	67.54678	-134.477	1	150.4879	-63.32996	-1.264007E-005	0.0005096	9
	17	51	5928.309	76.14626	-164.1736	1	180.973	-65.1174	-1.277185E-005	0.0004907	9
	18	53	4733.456	85.79972	-198.0976	1	215.8802	-66.58167	-8.269639E-007	0.0003716	9
	19	55	3796.875	96.5753	-238.0353	1	256.8805	-67.91671	4.089356E-006	0.0001705	9
	20	58	2987.132	111.8504	-289.4321	1	310.2925	-68.87109	-7.43352E-007	0.0003725	9
	21	60	2390.625	131.4879	-346.0566	1	370.1949	-69.19518	-3.612119E-006	1.911865E-006	9
	22	62	1884.191	149.7611	-421.5898	1	447.3995	-70.44346	9.940876E-007	0.0002033	8
	23	65	1516.544	172.6136	-504.1872	1	532.9167	-71.10084	-2.22668E-007	0.0011698	8
	24	67	1193.986	203.0811	-614.6042	1	647.2869	-71.71511	3.318536E-006	3.750122E-006	8
	25	69	946.5144	238.2463	-745.3718	1	782.5219	-72.27435	-2.668276E-006	0.0012195	8
	26	72	751.7689	281.0924	-902.7186	1	945.4701	-72.70423	5.871764E-007	0.0009507	8
	27	74	597.4265	330.9812	-1092.817	1	1141.84	-73.15003	3.223752E-006	2.999543E-005	8
	28	76	477.4305	390.1356	-1316.193	1	1372.796	-73.48953	3.956694E-007	0.0006586	8
	29	79	376.6741	464.4138	-1604.723	1	1670.574	-73.85933	3.88838E-007	0.0006535	8
	30	81	298.2954	552.4667	-1951.749	1	2028.433	-74.19518	3.83083E-007	0.0006556	8
	31	83	237.7717	654.9832	-2362.711	1	2451.817	-74.50573	4.006253E-007	0.0006539	8
	32	86	189.0121	780.4211	-2868.563	1	2972.829	-74.78048	3.95103E-007	0.0006593	8
	33	88	150.2404	931.5753	-3484.632	1	3607.006	-75.03267	3.933037E-007	0.0006529	8
	34	91	119.1737	1120.56	-4251.038	1	4396.246	-75.23293	-9.025329E-008	0.000596	7
	35	93	95.0169	1341.862	-5155.627	1	5327.39	-75.41122	-9.480417E-008	0.0006363	7
	36	95	75.60484	1614.91	-6266.395	1	6471.139	-75.54877	-9.420493E-008	0.0006258	7
	37	98	54.50582	2116.801	-8283.365	1	8549.561	-75.66495	-9.443045E-008	0.000628	7
	38	100	45.95588	2446.415	-9585.84	1	9893.1	-75.68309	-9.401885E-008	0.0006303	7
	39	103	37.20238	2941.31	-11497.25	1	11867.52	-75.64995	-9.711789E-008	0.0006338	7
	40	105	30.04808	3546.563	-13798.7	1	14247.18	-75.58575	-9.676597E-008	0.0006339	7
	41	108	23.91582	4367.006	-16784.62	1	17343.42	-75.41618	-9.332263E-008	0.0006275	7
	42	110	18.60119	5504.75	-20754.56	1	21472.17	-75.14542	-9.561492E-008	0.0006315	7
	43	112	15.02404	6729.174	-24889.62	1	25783.23	-74.87116	-9.373203E-008	0.0006388	7
	44	115	12.01923	8369.226	-30067.1	1	31210.17	-74.44537	-9.25932E-008	0.0006316	7
	45	117	9.450605	10655.04	-36802.73	1	38314.11	-73.85334	-9.542568E-008	0.0006388	7
	46	120	7.512019	13487.55	-44579.69	1	46575.35	-73.16685	-1.438937E-007	0.0007075	6
	47	122	5.978954	17193.04	-53787.58	1	56468.61	-72.27367	-1.439506E-007	0.0006912	6
	48	125	4.734848	22101.51	-65018.29	1	68672.08	-71.22569	-1.418298E-007	0.0007118	6
	49	129	3.75601	28560.29	-78078.11	1	83137.73	-69.90792	-1.431201E-007	0.0006753	6
	50	134	3.004808	36618.21	-92785.9	1	99750.3	-68.46319	-1.422066E-007	0.0006874	6
	51	140	2.372217	47837.41	-110612.6	1	120513.8	-66.61263	-1.42872E-007	0.0007075	6
	52	145	1.878005	62470.69	-130699.1	1	144861.4	-64.45344	-1.434654E-007	0.0006968	6
	53	149	1.512097	79397.2	-150969.2	1	170574.4	-62.25938	-1.428251E-007	0.0005907	6
	54	155	1.201923	102264.3	-173931.5	1	201767.6	-59.5463	-1.423812E-007	0.0007024	6
	55	168	0.956633	130032.1	-198022.9	1	236899.6	-56.70903	-1.430186E-007	5.55216E-005	6
