EXPLAIN
TAG	EISPOT
TITLE	LABEL	Potentiostatic EIS	Test Identifier
DATE	LABEL	2/26/2021	Date
TIME	LABEL	11:10:11	Time
NOTES	NOTES	1	Notes...
	
PSTAT	PSTAT	REF3000-16137	Potentiostat
VDC	POTEN	0.00000E+000	T	DC Voltage (V)
FREQINIT	QUANT	3.00000E+005	Initial Freq. (Hz)
FREQFINAL	QUANT	1.00000E+000	Final Freq. (Hz)
PTSPERDEC	QUANT	1.00000E+001	Points/decade
VAC	QUANT	5.00000E+001	AC Voltage (mV rms)
AREA	QUANT	1.00000E+000	Sample Area (cm^2)
SPEED	SELECTOR	2	Optimize for:
ZGUESS	QUANT	1.00000E+003	Estimated Z (ohms)
EOC	QUANT	0	Open Circuit (V)
SEQUENCER	TOGGLE	TRUE	Run as Sequence
PSTATMODEL	IQUANT	5	Pstat Model
PSTATSECTION	LABEL	REF3000-16137	Pstat Section
PSTATSERIALNO	LABEL	16137	Pstat Serial Number
CTRLMODE	IQUANT	1	Control Mode
IESTAB	IQUANT	0	I/E Stability
CASPEED	IQUANT	1	Control Amp Speed
CONVENTION	IQUANT	1	Current Convention
ICHRANGE	IQUANT	2	Ich Range
ICHRANGEMODE	TOGGLE	F	Ich Auto Range
ICHOFFSETENABLE	TOGGLE	T	Ich Offset Enable
ICHOFFSET	QUANT	0	Ich Offset (V)
ICHFILTER	IQUANT	3	Ich Filter
VCHRANGE	IQUANT	2	Vch Range
VCHRANGEMODE	TOGGLE	F	Vch Auto Range
VCHOFFSETENABLE	TOGGLE	T	Vch Offset Enable
VCHOFFSET	QUANT	0	Vch Offset (V)
VCHFILTER	IQUANT	3	Vch Filter
ACHRANGE	IQUANT	2	Ach Range
ACHOFFSETENABLE	TOGGLE	F	Ach Offset Enable
ACHOFFSET	QUANT	0	Ach Offset (V)
ACHFILTER	IQUANT	3	Ach Filter
IERANGELOWERLIMIT	IQUANT	2	I/E Range Lower Limit
IERANGEMODE	TOGGLE	F	I/E AutoRange
IERANGE	IQUANT	11	I/E Range
POSFEEDENABLE	TOGGLE	F	Positive Feedback IR Comp
POSFEEDRESISTANCE	QUANT	0	Positive Feedback Resistance (ohm)
ACHSELECT	IQUANT	0	Ach Select
CABLEID	IQUANT	13	Cable ID
DCCALDATE	LABEL	7/31/2020	DC Calibration Date
ACCALDATE	LABEL	7/31/2020	AC Calibration Date
THERMOSELECT	IQUANT	1	Thermo Select
FRAMEWORKVERSION	QUANT	6.33	Framework Version
INSTRUMENTVERSION	LABEL	3.50	Instrument Version
COMPLIANCEVOLTAGE	IQUANT	0	Compliance Voltage
ZCURVE	TABLE
	Pt	Time	Freq	Zreal	Zimag	Zsig	Zmod	Zphz	Idc	Vdc	IERange
	#	s	Hz	ohm	ohm	V	ohm	°	A	V	#
	0	7	300046.9	45.50574	-6.431314	1	45.95796	-8.044319	-5.781383E-006	0.0001527	9
	1	10	238359.4	46.5288	-8.638713	1	47.32396	-10.51799	5.579384E-005	-0.0023738	9
	2	13	189328.1	47.47858	-11.06403	1	48.75067	-13.11765	-3.092718E-006	-0.0009163	9
	3	16	150421.9	48.6427	-13.63529	1	50.51766	-15.65899	-1.267918E-006	0.0006926	9
	4	18	119484.4	49.84511	-16.67227	1	52.55949	-18.49414	-3.362103E-005	0.0006638	9
	5	21	94921.88	51.39624	-19.72099	1	55.04989	-20.99205	-1.340616E-005	0.0006048	9
	6	23	75421.88	52.88345	-23.56865	1	57.89767	-24.02117	-1.501902E-005	0.0005476	9
	7	26	59859.37	54.46063	-28.20258	1	61.32981	-27.3775	1.964777E-005	-0.0002623	9
	8	28	47578.12	56.164	-33.70343	1	65.5005	-30.96753	1.675407E-005	-0.0001239	9
	9	31	37828.12	57.94178	-40.43047	1	70.65318	-34.90646	1.779555E-005	-0.0004786	9
	10	33	30046.88	59.9365	-48.64104	1	77.19025	-39.06081	-6.843077E-006	0.00063	9
	11	36	23859.38	62.08524	-58.97421	1	85.63022	-43.52792	-1.204011E-005	0.0006114	9
	12	38	18984.38	64.66192	-71.44387	1	96.3607	-47.8526	8.100201E-006	-0.0003987	9
	13	41	15046.87	67.67847	-87.23159	1	110.4071	-52.19397	-3.064828E-006	-9.350813E-005	9
	14	43	11953.13	70.98667	-107.0092	1	128.4137	-56.4409	-1.526626E-005	0.0006116	9
	15	45	9515.62	75.79259	-130.4352	1	150.8571	-59.84022	-1.578528E-005	0.0005142	9
	16	48	7546.875	81.24107	-159.9361	1	179.3869	-63.07127	-1.519236E-005	0.0005884	9
	17	50	5928.309	88.55496	-198.5676	1	217.4191	-65.96462	1.385114E-005	-0.0005001	9
	18	52	4733.456	96.9835	-242.764	1	261.4195	-68.22343	1.890065E-005	-0.0002674	9
	19	55	3796.875	108.2319	-294.6925	1	313.9392	-69.8332	4.780285E-006	0.0003235	9
	20	57	2987.132	121.3604	-364.7606	1	384.4198	-71.59708	1.740807E-005	-0.0001719	9
	21	59	2390.625	138.0094	-440.8	1	461.8996	-72.61526	2.161283E-006	0.0006582	8
	22	61	1884.191	159.9037	-543.0923	1	566.1435	-73.59389	7.698609E-007	0.0011225	8
	23	64	1516.544	184.7439	-656.8965	1	682.3807	-74.29203	2.926524E-006	-0.0004448	8
	24	66	1193.986	217.6115	-808.6457	1	837.4142	-74.93817	4.341211E-006	-0.00037	8
	25	69	946.5144	257.4836	-989.627	1	1022.575	-75.41599	2.017067E-006	0.0006503	8
	26	71	751.7689	306.543	-1207.196	1	1245.508	-75.75204	3.034053E-006	-0.0004853	8
	27	73	597.4265	366.1834	-1472.032	1	1516.894	-76.03062	-3.088327E-006	0.0016538	8
	28	76	477.4305	438.5134	-1788.629	1	1841.599	-76.22466	3.708619E-007	0.0006471	8
	29	78	376.6741	531.0807	-2194.441	1	2257.791	-76.39532	3.707311E-007	0.0006455	8
	30	80	298.2954	642.6022	-2683.146	1	2759.024	-76.53159	3.615393E-007	0.0006484	8
	31	83	237.7717	774.9845	-3262.294	1	3353.082	-76.63663	3.686889E-007	0.0006125	8
	32	85	189.0121	937.3779	-3974.557	1	4083.599	-76.7296	3.69065E-007	0.0006521	8
	33	87	150.2404	1138.284	-4852.749	1	4984.462	-76.79908	-5.804911E-008	0.0006248	7
	34	90	119.1737	1380.325	-5925.694	1	6084.336	-76.88741	-5.318194E-008	0.0005951	7
	35	92	95.0169	1668.236	-7202.926	1	7393.588	-76.95992	-5.745352E-008	0.0006298	7
	36	95	75.60484	2022.268	-8776.424	1	9006.396	-77.02435	-5.618233E-008	0.0006259	7
	37	97	54.50582	2666.714	-11640.07	1	11941.63	-77.09634	-5.523253E-008	0.0006225	7
	38	100	45.95588	3089.739	-13502.61	1	13851.6	-77.11118	-5.720566E-008	0.0006304	7
	39	102	37.20238	3717.214	-16223.75	1	16644.15	-77.09504	-5.908523E-008	0.0006255	7
	40	104	30.04808	4483.245	-19515.4	1	20023.74	-77.062	-5.54461E-008	0.0005965	7
	41	107	23.91582	5498.68	-23777.76	1	24405.28	-76.97906	-5.512747E-008	0.0006255	7
	42	109	18.60119	6954.357	-29634.5	1	30439.56	-76.79332	-5.935395E-008	0.0006264	7
	43	112	15.02404	8515.308	-35633.36	1	36636.69	-76.56007	-5.495755E-008	0.0006309	7
	44	114	12.01923	10599.66	-43240.27	1	44520.48	-76.22646	-9.780273E-008	0.0006865	6
	45	116	9.450605	13516.6	-53226.91	1	54916.32	-75.75133	-9.743795E-008	0.0006831	6
	46	119	7.512019	17174.16	-64786.86	1	67024.54	-75.15311	-9.683747E-008	0.0006517	6
	47	122	5.978954	21943.52	-78669.3	1	81672.38	-74.41442	-9.704846E-008	0.0006843	6
	48	125	4.734848	28492.58	-95709.5	1	99860.6	-73.42181	-9.686226E-008	0.000713	6
	49	128	3.75601	37131.34	-115946.2	1	121746.7	-72.24253	-9.71864E-008	0.0006845	6
	50	133	3.004808	48185.8	-138894.1	1	147015.1	-70.86707	-9.686774E-008	0.0007151	6
	51	140	2.372217	63722.8	-167325.3	1	179048.4	-69.15157	-9.667362E-008	0.0007452	6
	52	144	1.878005	84313.43	-199238.6	1	216344.1	-67.06298	-9.668845E-008	0.000655	6
	53	149	1.512097	108978.9	-232066.1	1	256380.7	-64.84511	-9.612307E-008	0.0007581	6
	54	154	1.201923	142324.6	-270927.6	1	306036.1	-62.286	-9.578035E-008	0.0006495	6
	55	160	0.956633	184075.7	-311367.4	1	361709.2	-59.40907	-9.653413E-008	3.858087E-005	6
