EXPLAIN
TAG	EISPOT
TITLE	LABEL	Potentiostatic EIS	Test Identifier
DATE	LABEL	2/26/2021	Date
TIME	LABEL	11:13:01	Time
NOTES	NOTES	1	Notes...
	
PSTAT	PSTAT	REF3000-16137	Potentiostat
VDC	POTEN	0.00000E+000	T	DC Voltage (V)
FREQINIT	QUANT	3.00000E+005	Initial Freq. (Hz)
FREQFINAL	QUANT	1.00000E+000	Final Freq. (Hz)
PTSPERDEC	QUANT	1.00000E+001	Points/decade
VAC	QUANT	5.00000E+001	AC Voltage (mV rms)
AREA	QUANT	1.00000E+000	Sample Area (cm^2)
SPEED	SELECTOR	2	Optimize for:
ZGUESS	QUANT	1.00000E+003	Estimated Z (ohms)
EOC	QUANT	0	Open Circuit (V)
SEQUENCER	TOGGLE	TRUE	Run as Sequence
PSTATMODEL	IQUANT	5	Pstat Model
PSTATSECTION	LABEL	REF3000-16137	Pstat Section
PSTATSERIALNO	LABEL	16137	Pstat Serial Number
CTRLMODE	IQUANT	1	Control Mode
IESTAB	IQUANT	0	I/E Stability
CASPEED	IQUANT	1	Control Amp Speed
CONVENTION	IQUANT	1	Current Convention
ICHRANGE	IQUANT	2	Ich Range
ICHRANGEMODE	TOGGLE	F	Ich Auto Range
ICHOFFSETENABLE	TOGGLE	T	Ich Offset Enable
ICHOFFSET	QUANT	0	Ich Offset (V)
ICHFILTER	IQUANT	3	Ich Filter
VCHRANGE	IQUANT	2	Vch Range
VCHRANGEMODE	TOGGLE	F	Vch Auto Range
VCHOFFSETENABLE	TOGGLE	T	Vch Offset Enable
VCHOFFSET	QUANT	0	Vch Offset (V)
VCHFILTER	IQUANT	3	Vch Filter
ACHRANGE	IQUANT	2	Ach Range
ACHOFFSETENABLE	TOGGLE	F	Ach Offset Enable
ACHOFFSET	QUANT	0	Ach Offset (V)
ACHFILTER	IQUANT	3	Ach Filter
IERANGELOWERLIMIT	IQUANT	2	I/E Range Lower Limit
IERANGEMODE	TOGGLE	F	I/E AutoRange
IERANGE	IQUANT	11	I/E Range
POSFEEDENABLE	TOGGLE	F	Positive Feedback IR Comp
POSFEEDRESISTANCE	QUANT	0	Positive Feedback Resistance (ohm)
ACHSELECT	IQUANT	0	Ach Select
CABLEID	IQUANT	13	Cable ID
DCCALDATE	LABEL	7/31/2020	DC Calibration Date
ACCALDATE	LABEL	7/31/2020	AC Calibration Date
THERMOSELECT	IQUANT	1	Thermo Select
FRAMEWORKVERSION	QUANT	6.33	Framework Version
INSTRUMENTVERSION	LABEL	3.50	Instrument Version
COMPLIANCEVOLTAGE	IQUANT	0	Compliance Voltage
ZCURVE	TABLE
	Pt	Time	Freq	Zreal	Zimag	Zsig	Zmod	Zphz	Idc	Vdc	IERange
	#	s	Hz	ohm	ohm	V	ohm	°	A	V	#
	0	7	300046.9	49.29139	-6.643102	1	49.73703	-7.675621	-1.611414E-005	-0.0010209	9
	1	10	238359.4	50.09591	-8.873685	1	50.87575	-10.04484	5.76858E-005	-0.0024309	9
	2	13	189328.1	51.10564	-11.3659	1	52.35428	-12.53852	-1.815117E-006	-0.0009452	9
	3	16	150421.9	52.29419	-14.14188	1	54.17265	-15.1325	-2.159797E-006	-0.0008384	9
	4	18	119484.4	53.56886	-17.00526	1	56.20322	-17.61187	5.50143E-005	-0.0017063	9
	5	21	94921.88	55.2261	-20.23203	1	58.81545	-20.12027	8.533368E-006	-0.0004828	9
	6	23	75421.88	56.75756	-24.18953	1	61.69728	-23.08324	-1.542386E-005	0.0004613	9
	7	26	59859.37	58.4631	-28.89219	1	65.21268	-26.29837	1.700296E-005	-0.0005327	9
	8	28	47578.12	60.20957	-34.55072	1	69.41862	-29.84897	-1.355351E-005	0.0006525	9
	9	31	37828.12	62.06821	-41.29473	1	74.55009	-33.6363	2.68802E-006	-0.000285	9
	10	33	30046.88	64.13059	-49.66391	1	81.1125	-37.75486	1.681075E-005	-0.0001777	9
	11	36	23859.38	66.34719	-60.08914	1	89.51343	-42.16642	-1.480583E-005	0.0005846	9
	12	38	18984.38	68.84209	-72.68582	1	100.1122	-46.55571	1.431352E-005	-0.0005267	9
	13	40	15046.87	71.64217	-88.93833	1	114.2043	-51.14764	-1.593378E-005	0.0003993	9
	14	43	11953.13	75.20816	-108.5306	1	132.0422	-55.2793	1.430391E-005	1.095104E-005	9
	15	45	9515.62	79.50432	-132.9216	1	154.8841	-59.11512	1.980355E-005	-0.0004066	9
	16	47	7546.875	84.54551	-163.6588	1	184.2068	-62.6793	-1.699878E-005	0.0006575	9
	17	50	5928.309	91.8047	-202.6754	1	222.4981	-65.63117	1.765185E-005	-0.0005227	9
	18	52	4733.456	99.4723	-247.5998	1	266.8341	-68.11239	-7.785148E-006	0.0006219	9
	19	54	3796.875	111.1995	-300.8594	1	320.7518	-69.71537	-9.517764E-006	0.0001266	9
	20	57	2987.132	123.5527	-373.1083	1	393.0332	-71.67801	-1.293446E-005	0.0006954	9
	21	59	2390.625	140.0722	-452.2945	1	473.4876	-72.79264	-3.308786E-006	0.0016217	8
	22	61	1884.191	160.2717	-558.5924	1	581.1304	-73.99072	3.856348E-006	-0.0005994	8
	23	64	1516.544	184.1717	-677.1394	1	701.7385	-74.78448	-3.261129E-007	0.0014744	8
	24	66	1193.986	217.5285	-835.4788	1	863.3327	-75.40626	-3.019899E-006	0.0018599	8
	25	68	946.5144	253.2921	-1025.445	1	1056.265	-76.12527	9.087971E-007	-0.0001167	8
	26	71	751.7689	303.9641	-1253.701	1	1290.023	-76.37143	-1.445958E-006	0.0017089	8
	27	73	597.4265	365.2475	-1529.749	1	1572.749	-76.5713	4.383385E-006	-0.0002776	8
	28	75	477.4305	436.3526	-1862.744	1	1913.17	-76.81604	3.61262E-007	0.0006567	8
	29	78	376.6741	529.6871	-2289.436	1	2349.912	-76.97318	3.491183E-007	0.000652	8
	30	80	298.2954	642.6002	-2803.797	1	2876.493	-77.09136	3.613744E-007	0.000649	8
	31	82	237.7717	776.8029	-3413.585	1	3500.855	-77.17996	3.64096E-007	0.000646	8
	32	85	189.0121	942.5522	-4165.299	1	4270.611	-77.24946	3.704546E-007	0.0006545	8
	33	87	150.2404	1148.928	-5091.683	1	5219.7	-77.28428	-5.066022E-008	0.0006317	7
	34	90	119.1737	1399.571	-6223.98	1	6379.398	-77.32684	-4.906458E-008	0.0006293	7
	35	92	95.0169	1697.817	-7573.231	1	7761.212	-77.36398	-4.953418E-008	0.0006294	7
	36	94	75.60484	2066.496	-9234.408	1	9462.806	-77.38605	-4.833047E-008	0.0006278	7
	37	97	54.50582	2739.703	-12258.35	1	12560.77	-77.40161	-4.746761E-008	0.0006217	7
	38	100	45.95588	3180.574	-14219.06	1	14570.44	-77.39141	-4.700686E-008	0.0006312	7
	39	102	37.20238	3839.336	-17099.13	1	17524.86	-77.34503	-4.89237E-008	0.0006262	7
	40	104	30.04808	4633.211	-20571.99	1	21087.28	-77.30766	-4.985215E-008	0.000638	7
	41	107	23.91582	5718.34	-25107.79	1	25750.73	-77.16964	-4.679591E-008	0.0006174	7
	42	109	18.60119	7211.264	-31228.51	1	32050.31	-76.99722	-4.837189E-008	0.0006327	7
	43	111	15.02404	8822.614	-37615.72	1	38636.52	-76.8001	-4.896383E-008	0.0006295	7
	44	114	12.01923	11003.66	-45645.3	1	46952.89	-76.44638	-8.753645E-008	0.0006901	6
	45	116	9.450605	14011.93	-56215.4	1	57935.35	-76.00398	-8.790339E-008	0.0006757	6
	46	119	7.512019	17828.38	-68461.51	1	70744.82	-75.40353	-8.731352E-008	0.0007015	6
	47	121	5.978954	22800.58	-83178.35	1	86246.77	-74.67081	-8.742771E-008	0.0006788	6
	48	124	4.734848	29573.38	-101288	1	105517	-73.72361	-8.654563E-008	0.0006636	6
	49	128	3.75601	38614.93	-122829.5	1	128756.3	-72.54798	-8.737796E-008	0.0006717	6
	50	133	3.004808	50160.76	-147274.9	1	155582.8	-71.19154	-8.68417E-008	0.0007116	6
	51	140	2.372217	66593.55	-177747.9	1	189813.1	-69.46145	-8.663301E-008	0.0007588	6
	52	144	1.878005	88115.09	-211991.3	1	229574.8	-67.42958	-8.653046E-008	0.0006577	6
	53	148	1.512097	114259.6	-247432.1	1	272539.7	-65.21338	-8.615419E-008	0.0007731	6
	54	154	1.201923	149509	-289215.3	1	325574	-62.66343	-8.573479E-008	0.0006493	6
	55	160	0.956633	193860.1	-332938.3	1	385265.7	-59.78902	-8.63855E-008	3.350836E-005	6
