EXPLAIN
TAG	EISPOT
TITLE	LABEL	Potentiostatic EIS	Test Identifier
DATE	LABEL	2/26/2021	Date
TIME	LABEL	11:24:22	Time
NOTES	NOTES	1	Notes...
	
PSTAT	PSTAT	REF3000-16137	Potentiostat
VDC	POTEN	0.00000E+000	T	DC Voltage (V)
FREQINIT	QUANT	3.00000E+005	Initial Freq. (Hz)
FREQFINAL	QUANT	1.00000E+000	Final Freq. (Hz)
PTSPERDEC	QUANT	1.00000E+001	Points/decade
VAC	QUANT	5.00000E+001	AC Voltage (mV rms)
AREA	QUANT	1.00000E+000	Sample Area (cm^2)
SPEED	SELECTOR	2	Optimize for:
ZGUESS	QUANT	1.00000E+003	Estimated Z (ohms)
EOC	QUANT	0	Open Circuit (V)
SEQUENCER	TOGGLE	TRUE	Run as Sequence
PSTATMODEL	IQUANT	5	Pstat Model
PSTATSECTION	LABEL	REF3000-16137	Pstat Section
PSTATSERIALNO	LABEL	16137	Pstat Serial Number
CTRLMODE	IQUANT	1	Control Mode
IESTAB	IQUANT	0	I/E Stability
CASPEED	IQUANT	1	Control Amp Speed
CONVENTION	IQUANT	1	Current Convention
ICHRANGE	IQUANT	2	Ich Range
ICHRANGEMODE	TOGGLE	F	Ich Auto Range
ICHOFFSETENABLE	TOGGLE	T	Ich Offset Enable
ICHOFFSET	QUANT	0	Ich Offset (V)
ICHFILTER	IQUANT	3	Ich Filter
VCHRANGE	IQUANT	2	Vch Range
VCHRANGEMODE	TOGGLE	F	Vch Auto Range
VCHOFFSETENABLE	TOGGLE	T	Vch Offset Enable
VCHOFFSET	QUANT	0	Vch Offset (V)
VCHFILTER	IQUANT	3	Vch Filter
ACHRANGE	IQUANT	2	Ach Range
ACHOFFSETENABLE	TOGGLE	F	Ach Offset Enable
ACHOFFSET	QUANT	0	Ach Offset (V)
ACHFILTER	IQUANT	3	Ach Filter
IERANGELOWERLIMIT	IQUANT	2	I/E Range Lower Limit
IERANGEMODE	TOGGLE	F	I/E AutoRange
IERANGE	IQUANT	11	I/E Range
POSFEEDENABLE	TOGGLE	F	Positive Feedback IR Comp
POSFEEDRESISTANCE	QUANT	0	Positive Feedback Resistance (ohm)
ACHSELECT	IQUANT	0	Ach Select
CABLEID	IQUANT	13	Cable ID
DCCALDATE	LABEL	7/31/2020	DC Calibration Date
ACCALDATE	LABEL	7/31/2020	AC Calibration Date
THERMOSELECT	IQUANT	1	Thermo Select
FRAMEWORKVERSION	QUANT	6.33	Framework Version
INSTRUMENTVERSION	LABEL	3.50	Instrument Version
COMPLIANCEVOLTAGE	IQUANT	0	Compliance Voltage
ZCURVE	TABLE
	Pt	Time	Freq	Zreal	Zimag	Zsig	Zmod	Zphz	Idc	Vdc	IERange
	#	s	Hz	ohm	ohm	V	ohm	°	A	V	#
	0	7	300046.9	70.54587	-7.551734	1	70.94891	-6.110083	-6.420051E-005	0.0023602	9
	1	10	238359.4	71.52221	-10.16195	1	72.24051	-8.086521	6.160288E-005	-0.0018879	9
	2	14	189328.1	72.52376	-12.83298	1	73.6504	-10.03454	1.08306E-005	-0.0014443	9
	3	16	150421.9	74.09169	-15.80428	1	75.75852	-12.04113	1.412076E-005	0.0006292	9
	4	19	119484.4	75.56786	-19.22404	1	77.97477	-14.27297	-3.332198E-005	-5.452267E-005	9
	5	21	94921.88	77.47776	-22.88668	1	80.7874	-16.45697	2.030112E-005	-0.0006562	9
	6	24	75421.88	79.43787	-27.43995	1	84.04359	-19.05627	-1.04688E-005	0.0006786	9
	7	26	59859.37	81.64181	-32.61279	1	87.91461	-21.77482	1.588839E-005	-0.0006262	9
	8	29	47578.12	84.00257	-38.63886	1	92.46293	-24.70112	-7.828035E-006	0.0007295	9
	9	31	37828.12	86.51762	-45.83989	1	97.9112	-27.91612	-1.75258E-005	0.0005114	9
	10	34	30046.88	89.06297	-54.70739	1	104.5233	-31.56054	2.095549E-005	-0.0006128	9
	11	36	23859.38	91.90033	-65.43107	1	112.8135	-35.45005	-3.296999E-006	-0.0001662	9
	12	39	18984.38	94.76652	-78.68916	1	123.1774	-39.70446	-3.043972E-006	-0.000165	9
	13	41	15046.87	97.6221	-95.8822	1	136.8337	-44.48483	-1.802549E-005	0.0006897	9
	14	43	11953.13	101.1542	-116.54	1	154.317	-49.04274	2.266847E-005	-0.0005401	9
	15	46	9515.62	105.2895	-142.318	1	177.0319	-53.50528	-2.523155E-006	-0.0001906	9
	16	48	7546.875	110.59	-174.3327	1	206.451	-57.61053	-9.782018E-006	0.0007765	9
	17	50	5928.309	116.8133	-216.8456	1	246.3074	-61.68895	-3.180132E-006	-0.0001847	9
	18	53	4733.456	123.0325	-265.8681	1	292.9554	-65.16729	-4.154747E-006	0.0006241	9
	19	55	3796.875	132.5473	-325.2418	1	351.2137	-67.82741	1.804343E-005	-0.000166	9
	20	57	2987.132	144.2896	-403.424	1	428.4512	-70.31978	-1.430611E-005	0.0002266	9
	21	60	2390.625	156.3462	-492.7646	1	516.973	-72.39661	-3.85004E-006	0.001221	8
	22	62	1884.191	175.2546	-611.6252	1	636.2386	-74.01092	-7.504618E-007	8.118973E-005	8
	23	64	1516.544	195.9832	-745.1793	1	770.5203	-75.26482	-3.778507E-006	0.0012521	8
	24	67	1193.986	223.4564	-927.2569	1	953.802	-76.45084	4.835585E-006	-0.0010871	8
	25	69	946.5144	261.5191	-1143.621	1	1173.142	-77.11929	5.581039E-006	-0.0010327	8
	26	72	751.7689	300.2435	-1407.154	1	1438.829	-77.95545	-3.321528E-006	0.0023208	8
	27	74	597.4265	356.5469	-1738.564	1	1774.748	-78.41041	2.490871E-006	-0.0007732	8
	28	76	477.4305	419.2254	-2127.81	1	2168.715	-78.85423	3.066478E-007	0.0006531	8
	29	79	376.6741	506.4852	-2635.522	1	2683.748	-79.12173	3.125155E-007	0.0006469	8
	30	81	298.2954	614.8566	-3252.178	1	3309.79	-79.29403	3.301313E-007	0.0006478	8
	31	83	237.7717	747.0647	-3987.466	1	4056.845	-79.38847	3.177857E-007	0.0006324	8
	32	86	189.0121	918.5938	-4906.948	1	4992.189	-79.3968	-2.129874E-008	0.0006314	7
	33	88	150.2404	1127.632	-6023.934	1	6128.567	-79.3974	-1.974124E-008	0.0006322	7
	34	91	119.1737	1393.345	-7406.23	1	7536.157	-79.3454	-1.768834E-008	0.0006219	7
	35	93	95.0169	1714.833	-9057.468	1	9218.371	-79.2792	-1.696478E-008	0.0006077	7
	36	96	75.60484	2119.029	-11090.2	1	11290.83	-79.18275	-1.875737E-008	0.0006246	7
	37	98	54.50582	2874.109	-14820.2	1	15096.32	-79.02476	-1.907103E-008	0.0006221	7
	38	101	45.95588	3381.8	-17232.74	1	17561.43	-78.89721	-1.727839E-008	0.0006299	7
	39	103	37.20238	4128.904	-20762.49	1	21169.06	-78.75269	-1.819993E-008	0.0006296	7
	40	105	30.04808	5046.077	-25026.1	1	25529.76	-78.60016	-1.744208E-008	0.0006226	7
	41	108	23.91582	6309.264	-30623.23	1	31266.42	-78.35832	-1.593622E-008	0.0006254	7
	42	110	18.60119	8013.605	-38189.45	1	39021.17	-78.1491	-2.029583E-008	0.000638	7
	43	112	15.02404	9881.6	-46036.52	1	47085.11	-77.88545	-4.880998E-008	0.0006843	6
	44	115	12.01923	12339.76	-55959.18	1	57303.57	-77.56451	-4.921773E-008	0.0006847	6
	45	117	9.450605	15752.67	-69062.39	1	70836.16	-77.15103	-4.962697E-008	0.000685	6
	46	120	7.512019	20010.93	-84312.77	1	86654.95	-76.64837	-4.909221E-008	0.0006968	6
	47	123	5.978954	25576.57	-102719.3	1	105855.7	-76.01797	-4.912125E-008	0.0006858	6
	48	127	4.734848	33133.84	-125540.7	1	129839.6	-75.21513	-4.817957E-008	0.0007038	6
	49	130	3.75601	43122.6	-152941.5	1	158904.5	-74.25394	-4.865366E-008	0.0006605	6
	50	136	3.004808	55992.44	-184381.7	1	192696.1	-73.10768	-4.80516E-008	0.0006753	6
	51	142	2.372217	74700.98	-223746.2	1	235886.8	-71.53764	-4.802251E-008	0.0007308	6
	52	146	1.878005	99251.9	-270015.7	1	287679.3	-69.81767	-4.824897E-008	0.0006574	6
	53	151	1.512097	128900.8	-318334.2	1	343441.5	-67.95585	-4.759352E-008	0.0006421	6
	54	156	1.201923	171753.6	-376746.6	1	414049.8	-65.49242	-4.755085E-008	0.000662	6
	55	163	0.956633	226115.8	-439381.7	1	494150.4	-62.76862	-4.768653E-008	3.162752E-005	6
