EXPLAIN
TAG	EISPOT
TITLE	LABEL	Potentiostatic EIS	Test Identifier
DATE	LABEL	2/26/2021	Date
TIME	LABEL	11:21:31	Time
NOTES	NOTES	1	Notes...
	
PSTAT	PSTAT	REF3000-16137	Potentiostat
VDC	POTEN	0.00000E+000	T	DC Voltage (V)
FREQINIT	QUANT	3.00000E+005	Initial Freq. (Hz)
FREQFINAL	QUANT	1.00000E+000	Final Freq. (Hz)
PTSPERDEC	QUANT	1.00000E+001	Points/decade
VAC	QUANT	5.00000E+001	AC Voltage (mV rms)
AREA	QUANT	1.00000E+000	Sample Area (cm^2)
SPEED	SELECTOR	2	Optimize for:
ZGUESS	QUANT	1.00000E+003	Estimated Z (ohms)
EOC	QUANT	0	Open Circuit (V)
SEQUENCER	TOGGLE	TRUE	Run as Sequence
PSTATMODEL	IQUANT	5	Pstat Model
PSTATSECTION	LABEL	REF3000-16137	Pstat Section
PSTATSERIALNO	LABEL	16137	Pstat Serial Number
CTRLMODE	IQUANT	1	Control Mode
IESTAB	IQUANT	0	I/E Stability
CASPEED	IQUANT	1	Control Amp Speed
CONVENTION	IQUANT	1	Current Convention
ICHRANGE	IQUANT	2	Ich Range
ICHRANGEMODE	TOGGLE	F	Ich Auto Range
ICHOFFSETENABLE	TOGGLE	T	Ich Offset Enable
ICHOFFSET	QUANT	0	Ich Offset (V)
ICHFILTER	IQUANT	3	Ich Filter
VCHRANGE	IQUANT	2	Vch Range
VCHRANGEMODE	TOGGLE	F	Vch Auto Range
VCHOFFSETENABLE	TOGGLE	T	Vch Offset Enable
VCHOFFSET	QUANT	0	Vch Offset (V)
VCHFILTER	IQUANT	3	Vch Filter
ACHRANGE	IQUANT	2	Ach Range
ACHOFFSETENABLE	TOGGLE	F	Ach Offset Enable
ACHOFFSET	QUANT	0	Ach Offset (V)
ACHFILTER	IQUANT	3	Ach Filter
IERANGELOWERLIMIT	IQUANT	2	I/E Range Lower Limit
IERANGEMODE	TOGGLE	F	I/E AutoRange
IERANGE	IQUANT	11	I/E Range
POSFEEDENABLE	TOGGLE	F	Positive Feedback IR Comp
POSFEEDRESISTANCE	QUANT	0	Positive Feedback Resistance (ohm)
ACHSELECT	IQUANT	0	Ach Select
CABLEID	IQUANT	13	Cable ID
DCCALDATE	LABEL	7/31/2020	DC Calibration Date
ACCALDATE	LABEL	7/31/2020	AC Calibration Date
THERMOSELECT	IQUANT	1	Thermo Select
FRAMEWORKVERSION	QUANT	6.33	Framework Version
INSTRUMENTVERSION	LABEL	3.50	Instrument Version
COMPLIANCEVOLTAGE	IQUANT	0	Compliance Voltage
ZCURVE	TABLE
	Pt	Time	Freq	Zreal	Zimag	Zsig	Zmod	Zphz	Idc	Vdc	IERange
	#	s	Hz	ohm	ohm	V	ohm	°	A	V	#
	0	7	300046.9	63.89613	-7.274427	1	64.30888	-6.495028	-3.124981E-005	-0.000407	9
	1	10	238359.4	64.82741	-9.72892	1	65.55338	-8.534923	9.994251E-006	-0.0014076	9
	2	14	189328.1	65.94898	-12.42331	1	67.10892	-10.66822	3.179282E-006	-0.0012211	9
	3	16	150421.9	67.0983	-15.14184	1	68.78558	-12.71672	6.238497E-006	-0.0006737	9
	4	19	119484.4	68.69991	-18.69351	1	71.19779	-15.22187	-6.972928E-006	0.0007338	9
	5	21	94921.88	70.47884	-22.08888	1	73.85923	-17.40159	1.165588E-005	0.0001031	9
	6	24	75421.88	72.3633	-26.41247	1	77.03289	-20.05199	-1.380849E-005	0.0002127	9
	7	26	59859.37	74.38008	-31.47408	1	80.76518	-22.93575	-1.369428E-005	0.0007557	9
	8	29	47578.12	76.59264	-37.3718	1	85.22372	-26.00911	-1.794057E-005	0.0006397	9
	9	31	37828.12	78.92552	-44.40641	1	90.5603	-29.36371	-1.699257E-005	0.0007575	9
	10	34	30046.88	81.30384	-53.07785	1	97.0957	-33.13784	-3.088072E-006	0.000619	9
	11	36	23859.38	83.82087	-63.82899	1	105.3569	-37.28901	1.554788E-005	-0.00057	9
	12	39	18984.38	86.54299	-76.84463	1	115.7358	-41.60302	-9.935208E-006	0.0006416	9
	13	41	15046.87	89.56767	-93.53699	1	129.505	-46.24186	-9.481572E-006	0.0007559	9
	14	43	11953.13	93.01511	-114.3845	1	147.4301	-50.8827	-4.104902E-006	0.0005498	9
	15	46	9515.62	96.7931	-139.7776	1	170.0196	-55.29819	-9.740849E-006	0.0006741	9
	16	48	7546.875	101.5758	-171.8029	1	199.5842	-59.40696	-1.153148E-005	0.0007333	9
	17	50	5928.309	108.1158	-212.892	1	238.7719	-63.07657	-1.477083E-005	0.0003505	9
	18	53	4733.456	115.8513	-261.5467	1	286.0563	-66.10919	1.565384E-005	-0.00059	9
	19	55	3796.875	124.1856	-319.2545	1	342.5573	-68.74464	1.752699E-005	-0.0001625	9
	20	57	2987.132	135.3307	-396.4231	1	418.8862	-71.15115	1.188305E-005	0.0001044	9
	21	59	2390.625	150.1525	-482.8268	1	505.6357	-72.72503	5.103874E-006	-0.0004235	8
	22	62	1884.191	168.8264	-599.7867	1	623.0942	-74.27929	5.092701E-006	-0.0004153	8
	23	64	1516.544	190.4261	-729.1157	1	753.5726	-75.36279	3.55649E-006	-0.0008585	8
	24	66	1193.986	219.1908	-905.4612	1	931.614	-76.39183	4.558563E-006	-0.0009567	8
	25	69	946.5144	255.0165	-1114.756	1	1143.553	-77.11449	-2.854307E-006	0.0021684	8
	26	71	751.7689	298.629	-1371.377	1	1403.515	-77.71514	8.807735E-007	-0.0003142	8
	27	74	597.4265	353.8453	-1690.284	1	1726.924	-78.17641	-4.296965E-006	0.0016186	8
	28	76	477.4305	421.759	-2066.41	1	2109.012	-78.46424	3.37444E-007	0.0006541	8
	29	78	376.6741	511.5626	-2554.838	1	2605.55	-78.67724	3.389196E-007	0.0006555	8
	30	81	298.2954	622.9982	-3147.459	1	3208.524	-78.80378	3.415053E-007	0.0006503	8
	31	83	237.7717	757.4309	-3851.795	1	3925.561	-78.8751	3.365413E-007	0.0006473	8
	32	86	189.0121	930.9681	-4731.921	1	4822.632	-78.86966	-2.73116E-008	0.0006278	7
	33	88	150.2404	1141.799	-5798.882	1	5910.224	-78.86096	-2.509104E-008	0.000624	7
	34	90	119.1737	1406.39	-7118.002	1	7255.611	-78.82333	-2.686062E-008	0.0006303	7
	35	93	95.0169	1727.076	-8691.878	1	8861.802	-78.76171	-2.480493E-008	0.0006256	7
	36	95	75.60484	2127.664	-10631.25	1	10842.07	-78.68274	-2.492556E-008	0.0006262	7
	37	98	54.50582	2869.392	-14169.58	1	14457.19	-78.5522	-2.392474E-008	0.0006286	7
	38	100	45.95588	3356.446	-16454.14	1	16792.99	-78.47054	-2.605996E-008	0.0006305	7
	39	103	37.20238	4081.208	-19801.39	1	20217.6	-78.35401	-2.781844E-008	0.0006304	7
	40	105	30.04808	4993.195	-23914.9	1	24430.6	-78.20663	-2.437919E-008	0.0006183	7
	41	107	23.91582	6190.637	-29234.48	1	29882.75	-78.04378	-2.245647E-008	0.0006271	7
	42	110	18.60119	7868.783	-36345.35	1	37187.39	-77.78398	-2.696678E-008	0.0006288	7
	43	112	15.02404	9662.92	-43823.27	1	44875.95	-77.5654	-5.834669E-008	0.000686	6
	44	114	12.01923	12057.08	-53257.3	1	54605.07	-77.24368	-5.866515E-008	0.0006361	6
	45	117	9.450605	15393.2	-65643.65	1	67424.32	-76.8028	-5.806841E-008	0.0006793	6
	46	119	7.512019	19535.07	-80133.06	1	82479.86	-76.29951	-5.825887E-008	0.0006849	6
	47	122	5.978954	24968.11	-97571.4	1	100715.3	-75.64626	-5.826634E-008	0.000673	6
	48	126	4.734848	32433.62	-119199	1	123532.7	-74.77853	-5.790915E-008	0.0006898	6
	49	129	3.75601	42259.51	-145033.5	1	151064.9	-73.75507	-5.769851E-008	0.0006821	6
	50	135	3.004808	54938.78	-174614.1	1	183052.9	-72.53488	-5.771513E-008	0.0007132	6
	51	141	2.372217	72896.95	-211557.9	1	223764.9	-70.98748	-5.741603E-008	0.000718	6
	52	146	1.878005	97390.4	-254081.9	1	272107.5	-69.02801	-5.715458E-008	0.0006504	6
	53	150	1.512097	127085.8	-298929.3	1	324822.3	-66.96787	-5.679868E-008	0.0007746	6
	54	156	1.201923	168019.6	-351942.5	1	389992.5	-64.47989	-5.634992E-008	0.0006519	6
	55	162	0.956633	219930.1	-408721.5	1	464136.3	-61.71562	-5.705396E-008	3.266204E-005	6
