EXPLAIN
TAG	EISPOT
TITLE	LABEL	Potentiostatic EIS	Test Identifier
DATE	LABEL	2/26/2021	Date
TIME	LABEL	12:18:08	Time
NOTES	NOTES	1	Notes...
	
PSTAT	PSTAT	REF3000-16137	Potentiostat
VDC	POTEN	0.00000E+000	T	DC Voltage (V)
FREQINIT	QUANT	3.00000E+005	Initial Freq. (Hz)
FREQFINAL	QUANT	1.00000E+000	Final Freq. (Hz)
PTSPERDEC	QUANT	1.00000E+001	Points/decade
VAC	QUANT	5.00000E+001	AC Voltage (mV rms)
AREA	QUANT	1.00000E+000	Sample Area (cm^2)
SPEED	SELECTOR	2	Optimize for:
ZGUESS	QUANT	1.00000E+003	Estimated Z (ohms)
EOC	QUANT	0	Open Circuit (V)
SEQUENCER	TOGGLE	TRUE	Run as Sequence
PSTATMODEL	IQUANT	5	Pstat Model
PSTATSECTION	LABEL	REF3000-16137	Pstat Section
PSTATSERIALNO	LABEL	16137	Pstat Serial Number
CTRLMODE	IQUANT	1	Control Mode
IESTAB	IQUANT	0	I/E Stability
CASPEED	IQUANT	1	Control Amp Speed
CONVENTION	IQUANT	1	Current Convention
ICHRANGE	IQUANT	2	Ich Range
ICHRANGEMODE	TOGGLE	F	Ich Auto Range
ICHOFFSETENABLE	TOGGLE	T	Ich Offset Enable
ICHOFFSET	QUANT	0	Ich Offset (V)
ICHFILTER	IQUANT	3	Ich Filter
VCHRANGE	IQUANT	2	Vch Range
VCHRANGEMODE	TOGGLE	F	Vch Auto Range
VCHOFFSETENABLE	TOGGLE	T	Vch Offset Enable
VCHOFFSET	QUANT	0	Vch Offset (V)
VCHFILTER	IQUANT	3	Vch Filter
ACHRANGE	IQUANT	2	Ach Range
ACHOFFSETENABLE	TOGGLE	F	Ach Offset Enable
ACHOFFSET	QUANT	0	Ach Offset (V)
ACHFILTER	IQUANT	3	Ach Filter
IERANGELOWERLIMIT	IQUANT	2	I/E Range Lower Limit
IERANGEMODE	TOGGLE	F	I/E AutoRange
IERANGE	IQUANT	11	I/E Range
POSFEEDENABLE	TOGGLE	F	Positive Feedback IR Comp
POSFEEDRESISTANCE	QUANT	0	Positive Feedback Resistance (ohm)
ACHSELECT	IQUANT	0	Ach Select
CABLEID	IQUANT	13	Cable ID
DCCALDATE	LABEL	7/31/2020	DC Calibration Date
ACCALDATE	LABEL	7/31/2020	AC Calibration Date
THERMOSELECT	IQUANT	1	Thermo Select
FRAMEWORKVERSION	QUANT	6.33	Framework Version
INSTRUMENTVERSION	LABEL	3.50	Instrument Version
COMPLIANCEVOLTAGE	IQUANT	0	Compliance Voltage
ZCURVE	TABLE
	Pt	Time	Freq	Zreal	Zimag	Zsig	Zmod	Zphz	Idc	Vdc	IERange
	#	s	Hz	ohm	ohm	V	ohm	°	A	V	#
	0	14	300046.9	2368.616	-1949.561	1	3067.757	-39.45712	2.818783E-005	-0.0016288	9
	1	28	238359.4	2769.105	-1904.883	1	3361.031	-34.5243	8.439248E-005	-0.0035	9
	2	42	189328.1	3183.026	-1766.046	1	3640.133	-29.02294	2.569732E-005	-0.0018507	9
	3	50	150421.9	3376.083	-1735.199	1	3795.9	-27.20172	-1.471197E-005	0.0018279	9
	4	58	119484.4	3820.682	-1312.222	1	4039.745	-18.95514	7.406659E-005	-0.0223007	8
	5	65	94921.88	4020.663	-1146.853	1	4181.029	-15.92026	8.24657E-006	0.0036993	8
	6	73	75421.88	4242.164	-1031.823	1	4365.846	-13.67062	-1.927527E-005	0.0028785	8
	7	80	59859.37	4403.114	-893.1947	1	4492.795	-11.46715	-1.533135E-005	0.0009066	8
	8	88	47578.12	4520.015	-788.1617	1	4588.217	-9.8913	-1.937803E-005	0.0029086	8
	9	95	37828.12	4644.947	-691.7314	1	4696.171	-8.470308	2.073693E-005	-0.0088654	8
	10	103	30046.88	4787.438	-657.9152	1	4832.434	-7.824876	8.12332E-006	0.0038997	8
	11	110	23859.38	4877.504	-612.1565	1	4915.769	-7.153566	-2.433729E-005	0.0071519	8
	12	117	18984.38	4981.995	-596.1538	1	5017.537	-6.823662	-1.473841E-006	0.0073143	8
	13	122	15046.87	5141.699	-389.9843	1	5156.467	-4.33743	5.337583E-006	-0.0059576	7
	14	125	11953.13	5182.392	-444.8608	1	5201.45	-4.90629	1.538833E-006	0.0105841	7
	15	127	9515.62	5243.494	-522.6437	1	5269.477	-5.69214	-4.051873E-006	0.0006274	7
	16	130	7546.875	5337.776	-630.8564	1	5374.926	-6.740356	1.9356E-006	-0.0194612	7
	17	133	5928.309	5413.333	-721.0401	1	5461.142	-7.586973	-4.090156E-007	0.0166476	7
	18	138	4733.456	5510.899	-888.2256	1	5582.021	-9.155972	-5.147929E-006	0.023331	7
	19	142	3796.875	5622.665	-1073.952	1	5724.311	-10.81348	8.279583E-006	0.0038882	8
	20	148	2987.132	5783.182	-1306.056	1	5928.826	-12.72601	2.458058E-005	-0.0083772	8
	21	153	2390.625	5915.847	-1491.564	1	6100.984	-14.15106	-1.816666E-005	0.0105915	8
	22	158	1884.191	6156.467	-1808.908	1	6416.715	-16.37397	-1.538166E-005	0.0008617	8
	23	164	1516.544	6298.338	-2159.014	1	6658.108	-18.92126	-2.491146E-005	0.0091348	8
	24	169	1193.986	6675.292	-2576.558	1	7155.291	-21.10581	-9.295589E-006	-0.0017802	8
	25	175	946.5144	6841.539	-2916.443	1	7437.223	-23.08781	-6.259056E-006	0.0147709	7
	26	177	751.7689	7072.376	-3395.75	1	7845.357	-25.64765	3.811101E-006	-0.0228839	7
	27	180	597.4265	7325.425	-4115.687	1	8402.425	-29.32884	1.672295E-006	0.0102426	7
	28	182	477.4305	7558.855	-4838.348	1	8974.737	-32.62291	-5.318897E-008	0.0005927	7
	29	185	376.6741	7814.65	-5832.756	1	9751.4	-36.73719	-5.386694E-008	0.0005742	7
	30	187	298.2954	8075.364	-7060.38	1	10726.62	-41.16356	-5.600669E-008	0.0005939	7
	31	189	237.7717	8342.514	-8555.466	1	11949.62	-45.72202	-5.439966E-008	0.0005829	7
	32	192	189.0121	8636.136	-10447.13	1	13554.53	-50.42112	-6.158044E-008	0.0006527	7
	33	194	150.2404	8972.177	-12820.37	1	15648.06	-55.01422	-5.999704E-008	0.000667	7
	34	197	119.1737	9354.992	-15806.04	1	18367	-59.38033	-6.07435E-008	0.0006414	7
	35	199	95.0169	9800.8	-19443.74	1	21774.17	-63.24917	-5.698736E-008	0.0006595	7
	36	202	75.60484	10339.78	-24010.29	1	26142.02	-66.70138	-6.103942E-008	0.0006363	7
	37	204	54.50582	11346.87	-32520.28	1	34443	-70.76526	-5.95434E-008	0.0006063	7
	38	207	45.95588	11930.68	-38138.13	1	39960.7	-72.62885	-5.216756E-008	0.000582	7
	39	209	37.20238	12950.11	-46495.95	1	48265.7	-74.43635	-7.188434E-009	0.0007176	6
	40	211	30.04808	14095.49	-56748.73	1	58473.09	-76.05093	-6.086206E-009	0.0006664	6
	41	214	23.91582	15602.63	-70162.21	1	71876.13	-77.46261	-6.66359E-009	0.0006271	6
	42	216	18.60119	17595.29	-88885.6	1	90610.4	-78.80281	-6.416578E-009	0.0006687	6
	43	219	15.02404	19739.62	-108419.7	1	110202	-79.68137	-6.54295E-009	0.0007124	6
	44	221	12.01923	22434.03	-133637.1	1	135507	-80.47045	-6.619283E-009	0.0006643	6
	45	224	9.450605	26128.39	-167401.7	1	169428.5	-81.12874	-5.960169E-009	0.0006677	6
	46	226	7.512019	30314.8	-207482.4	1	209685.3	-81.68745	-6.504785E-009	0.0006491	6
	47	229	5.978954	35642.76	-257080.9	1	259539.9	-82.10659	-6.218541E-009	0.0006928	6
	48	234	4.734848	42307.21	-320068.3	1	322852.3	-82.47019	-6.67486E-009	0.0006309	6
	49	237	3.75601	50565.84	-397999.6	1	401198.9	-82.75936	-6.707066E-009	0.0006987	6
	50	243	3.004808	60950.89	-491192	1	494959.2	-82.92645	-6.438144E-010	0.0006155	5
	51	249	2.372217	74777.71	-612703.1	1	617249.3	-83.04172	-6.532581E-010	0.0006629	5
	52	253	1.878005	91470.48	-764904.2	1	770354	-83.18071	-7.830128E-010	0.0006553	5
	53	258	1.512097	109914.8	-937754.4	1	944174	-83.31483	-7.223913E-010	0.000546	5
	54	263	1.201923	135860	-1164862	1	1172758	-83.34754	-7.666983E-010	0.0006565	5
	55	270	0.956633	166813	-1442992	1	1452602	-83.40575	-7.481512E-010	1.056596E-007	5
