EXPLAIN
TAG	EISPOT
TITLE	LABEL	Potentiostatic EIS	Test Identifier
DATE	LABEL	2/26/2021	Date
TIME	LABEL	12:04:15	Time
NOTES	NOTES	1	Notes...
	
PSTAT	PSTAT	REF3000-16137	Potentiostat
VDC	POTEN	0.00000E+000	T	DC Voltage (V)
FREQINIT	QUANT	3.00000E+005	Initial Freq. (Hz)
FREQFINAL	QUANT	1.00000E+000	Final Freq. (Hz)
PTSPERDEC	QUANT	1.00000E+001	Points/decade
VAC	QUANT	5.00000E+001	AC Voltage (mV rms)
AREA	QUANT	1.00000E+000	Sample Area (cm^2)
SPEED	SELECTOR	2	Optimize for:
ZGUESS	QUANT	1.00000E+003	Estimated Z (ohms)
EOC	QUANT	0	Open Circuit (V)
SEQUENCER	TOGGLE	TRUE	Run as Sequence
PSTATMODEL	IQUANT	5	Pstat Model
PSTATSECTION	LABEL	REF3000-16137	Pstat Section
PSTATSERIALNO	LABEL	16137	Pstat Serial Number
CTRLMODE	IQUANT	1	Control Mode
IESTAB	IQUANT	0	I/E Stability
CASPEED	IQUANT	1	Control Amp Speed
CONVENTION	IQUANT	1	Current Convention
ICHRANGE	IQUANT	2	Ich Range
ICHRANGEMODE	TOGGLE	F	Ich Auto Range
ICHOFFSETENABLE	TOGGLE	T	Ich Offset Enable
ICHOFFSET	QUANT	0	Ich Offset (V)
ICHFILTER	IQUANT	3	Ich Filter
VCHRANGE	IQUANT	2	Vch Range
VCHRANGEMODE	TOGGLE	F	Vch Auto Range
VCHOFFSETENABLE	TOGGLE	T	Vch Offset Enable
VCHOFFSET	QUANT	0	Vch Offset (V)
VCHFILTER	IQUANT	3	Vch Filter
ACHRANGE	IQUANT	2	Ach Range
ACHOFFSETENABLE	TOGGLE	F	Ach Offset Enable
ACHOFFSET	QUANT	0	Ach Offset (V)
ACHFILTER	IQUANT	3	Ach Filter
IERANGELOWERLIMIT	IQUANT	2	I/E Range Lower Limit
IERANGEMODE	TOGGLE	F	I/E AutoRange
IERANGE	IQUANT	11	I/E Range
POSFEEDENABLE	TOGGLE	F	Positive Feedback IR Comp
POSFEEDRESISTANCE	QUANT	0	Positive Feedback Resistance (ohm)
ACHSELECT	IQUANT	0	Ach Select
CABLEID	IQUANT	13	Cable ID
DCCALDATE	LABEL	7/31/2020	DC Calibration Date
ACCALDATE	LABEL	7/31/2020	AC Calibration Date
THERMOSELECT	IQUANT	1	Thermo Select
FRAMEWORKVERSION	QUANT	6.33	Framework Version
INSTRUMENTVERSION	LABEL	3.50	Instrument Version
COMPLIANCEVOLTAGE	IQUANT	0	Compliance Voltage
ZCURVE	TABLE
	Pt	Time	Freq	Zreal	Zimag	Zsig	Zmod	Zphz	Idc	Vdc	IERange
	#	s	Hz	ohm	ohm	V	ohm	°	A	V	#
	0	32	300046.9	810.3481	-145.0751	1	823.232	-10.15003	7.910283E-007	-0.0019902	9
	1	53	238359.4	850.2833	-135.1891	1	860.9633	-9.034014	1.507494E-006	0.0015187	9
	2	80	189328.1	868.5095	-117.3451	1	876.4009	-7.694686	-8.051234E-007	-0.0018174	9
	3	86	150421.9	897.154	-113.5527	1	904.3116	-7.213566	2.524211E-005	0.0009491	9
	4	93	119484.4	904.7522	-75.97678	1	907.9367	-4.800165	2.054208E-005	0.0048781	8
	5	99	94921.88	914.4038	-76.46648	1	917.5955	-4.780204	1.572925E-005	-0.0069528	8
	6	101	75421.88	919.8159	-79.27891	1	923.2261	-4.926147	-1.868599E-005	0.0070992	8
	7	104	59859.37	925.599	-90.37394	1	930.0005	-5.576588	2.044749E-005	-0.0055507	8
	8	106	47578.12	940.2057	-101.303	1	945.6474	-6.149644	-1.702079E-005	0.0081324	8
	9	109	37828.12	948.5868	-115.5121	1	955.594	-6.942889	-8.931703E-006	-0.0006326	8
	10	111	30046.88	956.673	-135.446	1	966.214	-8.058386	-1.876015E-006	-0.0032545	8
	11	114	23859.38	971.037	-158.173	1	983.836	-9.251698	1.522472E-005	-0.0066631	8
	12	116	18984.38	987.866	-183.3678	1	1004.741	-10.51556	-1.729439E-005	0.0044386	8
	13	119	15046.87	1007.406	-219.3571	1	1031.012	-12.28409	1.068355E-005	-0.0065308	8
	14	122	11953.13	1030.054	-258.8645	1	1062.083	-14.10695	-1.89584E-005	0.0059726	8
	15	126	9515.62	1056.455	-305.0374	1	1099.611	-16.10537	1.403137E-005	-0.0001516	8
	16	129	7546.875	1080.672	-356.5511	1	1137.972	-18.25952	2.66522E-007	0.0052687	8
	17	131	5928.309	1114.533	-428.969	1	1194.236	-21.05105	-1.612595E-005	0.0029489	8
	18	135	4733.456	1148.962	-504.856	1	1254.987	-23.72078	1.901072E-005	-0.0065279	8
	19	138	3796.875	1187.434	-590.9807	1	1326.37	-26.45933	1.441236E-005	-0.0001371	8
	20	141	2987.132	1227.591	-707.8911	1	1417.071	-29.96992	2.04289E-005	-0.0055943	8
	21	144	2390.625	1270.406	-838.6412	1	1522.252	-33.43025	-7.238072E-006	0.007388	8
	22	149	1884.191	1304.414	-1016.73	1	1653.855	-37.93477	-7.380459E-006	0.0073753	8
	23	153	1516.544	1354.113	-1216.103	1	1820.036	-41.92641	-1.321744E-005	0.0082852	8
	24	157	1193.986	1411.053	-1488.14	1	2050.763	-46.52307	-1.618346E-005	0.002937	8
	25	162	946.5144	1479.073	-1817.368	1	2343.178	-50.85943	1.462976E-005	-0.0001475	8
	26	164	751.7689	1509.314	-2246.854	1	2706.729	-56.10894	1.60907E-005	-0.0069425	8
	27	167	597.4265	1541.363	-2747.137	1	3150.01	-60.70409	-1.726443E-007	0.0056124	8
	28	170	477.4305	1658.558	-3391.359	1	3775.2	-63.93886	-1.107005E-007	0.0006672	8
	29	173	376.6741	1764.008	-4225.258	1	4578.704	-67.33989	-2.827995E-008	0.000626	7
	30	175	298.2954	1881.743	-5244.115	1	5571.507	-70.26052	-3.447571E-008	0.0006332	7
	31	177	237.7717	2022.147	-6473.5	1	6781.982	-72.6526	-3.51971E-008	0.0006551	7
	32	180	189.0121	2196.574	-8014.802	1	8310.354	-74.67358	-3.064975E-008	0.0005992	7
	33	182	150.2404	2411.59	-9923.97	1	10212.78	-76.34149	-2.968804E-008	0.0005917	7
	34	185	119.1737	2680.516	-12318.48	1	12606.75	-77.72375	-2.913392E-008	0.000613	7
	35	187	95.0169	3000.862	-15208.49	1	15501.72	-78.83807	-2.931055E-008	0.0006155	7
	36	192	75.60484	3402.773	-18830.36	1	19135.34	-79.75681	-3.088515E-008	0.0005979	7
	37	194	54.50582	4117.78	-25568.54	1	25898	-80.85114	-3.253151E-008	0.00063	7
	38	197	45.95588	4622.452	-29985.35	1	30339.55	-81.23644	-3.161619E-008	0.0005999	7
	39	199	37.20238	5325.547	-36540.96	1	36927	-81.70798	-2.905378E-008	0.0006093	7
	40	201	30.04808	6257.217	-44603.55	1	45040.31	-82.01437	-4.397263E-009	0.00068	6
	41	204	23.91582	7427.422	-55262.05	1	55758.96	-82.34511	-4.300228E-009	0.0006484	6
	42	206	18.60119	9021.688	-69804.38	1	70384.95	-82.63577	-4.124804E-009	0.0006636	6
	43	208	15.02404	10779.63	-85304.89	1	85983.28	-82.79794	-3.979433E-009	0.0006453	6
	44	211	12.01923	13052.82	-105092	1	105899.5	-82.91991	-4.518756E-009	0.0006356	6
	45	213	9.450605	16132.97	-131567.9	1	132553.4	-83.00924	-3.983279E-009	0.0006379	6
	46	216	7.512019	19914.67	-163110	1	164321.3	-83.03901	-4.751192E-009	0.0007052	6
	47	219	5.978954	24623.11	-201797.1	1	203293.8	-83.04321	-4.080383E-009	0.0006396	6
	48	223	4.734848	30674.36	-250929.5	1	252797.4	-83.03058	-4.462904E-009	0.0007293	6
	49	227	3.75601	38487.06	-311484.9	1	313853.6	-82.95624	-4.554589E-009	0.0006828	6
	50	232	3.004808	47671.81	-383435.3	1	386387.4	-82.91289	-4.852497E-009	0.000707	6
	51	239	2.372217	61359.8	-477232.8	1	481161.2	-82.67344	-1.143177E-009	0.0006512	5
	52	243	1.878005	78113.82	-594475.1	1	599585.2	-82.51424	-9.708387E-010	0.0006427	5
	53	249	1.512097	97928.1	-725550.1	1	732129	-82.31319	-9.344037E-010	0.0006904	5
	54	255	1.201923	124210.3	-900576.1	1	909101.4	-82.14713	-1.043435E-009	0.000625	5
	55	261	0.956633	159268.4	-1113020	1	1124357	-81.8565	-1.079277E-009	1.31012E-005	5
