EXPLAIN
TAG	EISPOT
TITLE	LABEL	Potentiostatic EIS	Test Identifier
DATE	LABEL	2/26/2021	Date
TIME	LABEL	11:15:50	Time
NOTES	NOTES	1	Notes...
	
PSTAT	PSTAT	REF3000-16137	Potentiostat
VDC	POTEN	0.00000E+000	T	DC Voltage (V)
FREQINIT	QUANT	3.00000E+005	Initial Freq. (Hz)
FREQFINAL	QUANT	1.00000E+000	Final Freq. (Hz)
PTSPERDEC	QUANT	1.00000E+001	Points/decade
VAC	QUANT	5.00000E+001	AC Voltage (mV rms)
AREA	QUANT	1.00000E+000	Sample Area (cm^2)
SPEED	SELECTOR	2	Optimize for:
ZGUESS	QUANT	1.00000E+003	Estimated Z (ohms)
EOC	QUANT	0	Open Circuit (V)
SEQUENCER	TOGGLE	TRUE	Run as Sequence
PSTATMODEL	IQUANT	5	Pstat Model
PSTATSECTION	LABEL	REF3000-16137	Pstat Section
PSTATSERIALNO	LABEL	16137	Pstat Serial Number
CTRLMODE	IQUANT	1	Control Mode
IESTAB	IQUANT	0	I/E Stability
CASPEED	IQUANT	1	Control Amp Speed
CONVENTION	IQUANT	1	Current Convention
ICHRANGE	IQUANT	2	Ich Range
ICHRANGEMODE	TOGGLE	F	Ich Auto Range
ICHOFFSETENABLE	TOGGLE	T	Ich Offset Enable
ICHOFFSET	QUANT	0	Ich Offset (V)
ICHFILTER	IQUANT	3	Ich Filter
VCHRANGE	IQUANT	2	Vch Range
VCHRANGEMODE	TOGGLE	F	Vch Auto Range
VCHOFFSETENABLE	TOGGLE	T	Vch Offset Enable
VCHOFFSET	QUANT	0	Vch Offset (V)
VCHFILTER	IQUANT	3	Vch Filter
ACHRANGE	IQUANT	2	Ach Range
ACHOFFSETENABLE	TOGGLE	F	Ach Offset Enable
ACHOFFSET	QUANT	0	Ach Offset (V)
ACHFILTER	IQUANT	3	Ach Filter
IERANGELOWERLIMIT	IQUANT	2	I/E Range Lower Limit
IERANGEMODE	TOGGLE	F	I/E AutoRange
IERANGE	IQUANT	11	I/E Range
POSFEEDENABLE	TOGGLE	F	Positive Feedback IR Comp
POSFEEDRESISTANCE	QUANT	0	Positive Feedback Resistance (ohm)
ACHSELECT	IQUANT	0	Ach Select
CABLEID	IQUANT	13	Cable ID
DCCALDATE	LABEL	7/31/2020	DC Calibration Date
ACCALDATE	LABEL	7/31/2020	AC Calibration Date
THERMOSELECT	IQUANT	1	Thermo Select
FRAMEWORKVERSION	QUANT	6.33	Framework Version
INSTRUMENTVERSION	LABEL	3.50	Instrument Version
COMPLIANCEVOLTAGE	IQUANT	0	Compliance Voltage
ZCURVE	TABLE
	Pt	Time	Freq	Zreal	Zimag	Zsig	Zmod	Zphz	Idc	Vdc	IERange
	#	s	Hz	ohm	ohm	V	ohm	°	A	V	#
	0	7	300046.9	53.40081	-6.772432	1	53.82855	-7.227816	-4.608294E-005	0.0004435	9
	1	10	238359.4	54.24531	-9.188673	1	55.01805	-9.61413	1.960245E-005	-0.000895	9
	2	14	189328.1	55.3093	-11.62486	1	56.51775	-11.86961	6.474697E-006	-0.0008088	9
	3	16	150421.9	56.38665	-14.38475	1	58.19257	-14.31142	7.725209E-006	-0.0010265	9
	4	19	119484.4	57.87212	-17.4885	1	60.45685	-16.81441	-3.647768E-005	0.000762	9
	5	21	94921.88	59.51591	-20.84328	1	63.06017	-19.30095	-9.094339E-006	3.369294E-005	9
	6	24	75421.88	61.18031	-24.91034	1	66.05721	-22.15432	-1.751584E-005	0.0005554	9
	7	26	59859.37	62.97205	-29.7162	1	69.63139	-25.26239	-1.453628E-005	0.0002266	9
	8	29	47578.12	64.88597	-35.34202	1	73.88672	-28.5762	1.56317E-005	-0.0005391	9
	9	31	37828.12	66.88856	-42.12711	1	79.04918	-32.20315	-1.300679E-005	0.0002538	9
	10	34	30046.88	68.95403	-50.70642	1	85.59089	-36.32948	-1.06191E-005	0.000684	9
	11	36	23859.38	71.22016	-61.0675	1	93.81658	-40.61133	1.193012E-005	0.0001107	9
	12	39	18984.38	73.81161	-73.97095	1	104.4981	-45.06178	1.407761E-005	-0.0005377	9
	13	41	15046.87	76.68068	-90.18558	1	118.3781	-49.627	9.18058E-006	-0.0004695	9
	14	43	11953.13	79.97713	-110.3768	1	136.3062	-54.07356	2.06052E-005	-0.0005882	9
	15	46	9515.62	83.99295	-135.2305	1	159.192	-58.15519	3.288327E-006	0.0002932	9
	16	48	7546.875	89.235	-165.8638	1	188.3446	-61.71968	4.177785E-006	0.0003662	9
	17	50	5928.309	95.8669	-205.9994	1	227.214	-65.04394	-1.290887E-005	0.0006905	9
	18	53	4733.456	103.7869	-251.8953	1	272.4389	-67.60716	-1.374224E-005	0.0002537	9
	19	55	3796.875	113.0329	-307.3099	1	327.4383	-69.80577	2.092588E-005	-0.0002763	9
	20	57	2987.132	126.576	-381.9098	1	402.3389	-71.66331	4.260789E-006	0.0003267	9
	21	60	2390.625	141.5309	-463.3237	1	484.4583	-73.01373	4.979392E-006	-0.000593	8
	22	62	1884.191	161.9036	-573.845	1	596.2474	-74.24421	4.02442E-006	-0.0007034	8
	23	64	1516.544	184.5352	-696.309	1	720.3468	-75.15675	1.011397E-006	0.0011711	8
	24	67	1193.986	216.255	-861.2907	1	888.0247	-75.9054	4.620463E-006	-0.0006791	8
	25	69	946.5144	252.7158	-1059.6	1	1089.32	-76.58549	8.268197E-007	-0.0001352	8
	26	71	751.7689	302.5132	-1297.292	1	1332.096	-76.87386	-1.995272E-006	0.0007668	8
	27	74	597.4265	362.1068	-1588.372	1	1629.125	-77.15756	-2.024061E-006	0.0007681	8
	28	76	477.4305	432.1021	-1935.749	1	1983.39	-77.4166	3.414805E-007	0.0006522	8
	29	78	376.6741	525.2949	-2383.816	1	2441.007	-77.57298	3.530503E-007	0.0006518	8
	30	81	298.2954	639.0083	-2925.255	1	2994.236	-77.67757	3.530487E-007	0.00065	8
	31	83	237.7717	774.9855	-3566.898	1	3650.119	-77.74178	3.637523E-007	0.0006426	8
	32	85	189.0121	947.949	-4366.489	1	4468.202	-77.75136	-4.118802E-008	0.0006201	7
	33	88	150.2404	1155.86	-5334.56	1	5458.346	-77.77448	-4.093213E-008	0.0006227	7
	34	90	119.1737	1414.161	-6527.293	1	6678.728	-77.7756	-4.058182E-008	0.0006195	7
	35	93	95.0169	1722.05	-7950.35	1	8134.711	-77.7785	-3.901474E-008	0.0006124	7
	36	95	75.60484	2104.963	-9702.42	1	9928.14	-77.75925	-4.067936E-008	0.0006238	7
	37	98	54.50582	2809.598	-12898.41	1	13200.87	-77.71149	-3.854441E-008	0.0006136	7
	38	100	45.95588	3268.893	-14965.43	1	15318.28	-77.67844	-4.078396E-008	0.0006273	7
	39	103	37.20238	3947.625	-17985.97	1	18414.09	-77.6208	-4.136777E-008	0.0006121	7
	40	105	30.04808	4794.953	-21682.13	1	22205.99	-77.52988	-4.018058E-008	0.000615	7
	41	107	23.91582	5883.946	-26389.95	1	27037.94	-77.43083	-3.896282E-008	0.0006201	7
	42	110	18.60119	7443.499	-32912.15	1	33743.37	-77.25623	-4.20787E-008	0.0006234	7
	43	112	15.02404	9136.293	-39598.52	1	40638.84	-77.0079	-3.782773E-008	0.0006214	7
	44	114	12.01923	11371.5	-48076.22	1	49402.78	-76.69237	-7.77375E-008	0.0006558	6
	45	117	9.450605	14526.84	-59217.2	1	60972.99	-76.2167	-7.745689E-008	0.0006819	6
	46	119	7.512019	18406.6	-72172.98	1	74483.16	-75.69259	-7.727108E-008	0.0006943	6
	47	122	5.978954	23561.28	-87768.38	1	90875.87	-74.97331	-7.718111E-008	0.0006818	6
	48	126	4.734848	30524.55	-107020.5	1	111288.5	-74.0807	-7.777053E-008	0.0006544	6
	49	129	3.75601	39814.23	-129933.7	1	135896.7	-72.96391	-7.66041E-008	0.0006986	6
	50	135	3.004808	51788.86	-156021.7	1	164392.4	-71.63725	-7.66004E-008	0.0007134	6
	51	141	2.372217	68681.27	-188402.7	1	200531.1	-69.97092	-7.635176E-008	0.0007285	6
	52	145	1.878005	91369.73	-225214.6	1	243043.3	-67.91757	-7.577454E-008	0.000623	6
	53	150	1.512097	118781	-263698.8	1	289216.1	-65.7512	-7.572525E-008	0.0007812	6
	54	155	1.201923	156064.5	-308681.9	1	345891.1	-63.17958	-7.520894E-008	0.0006617	6
	55	161	0.956633	202853	-356192.7	1	409905.5	-60.33833	-7.607682E-008	4.126416E-005	6
