EXPLAIN
TAG	EISPOT
TITLE	LABEL	Potentiostatic EIS	Test Identifier
DATE	LABEL	2/26/2021	Date
TIME	LABEL	12:32:55	Time
NOTES	NOTES	1	Notes...
	
PSTAT	PSTAT	REF3000-16137	Potentiostat
VDC	POTEN	0.00000E+000	T	DC Voltage (V)
FREQINIT	QUANT	3.00000E+005	Initial Freq. (Hz)
FREQFINAL	QUANT	1.00000E+000	Final Freq. (Hz)
PTSPERDEC	QUANT	1.00000E+001	Points/decade
VAC	QUANT	5.00000E+001	AC Voltage (mV rms)
AREA	QUANT	1.00000E+000	Sample Area (cm^2)
SPEED	SELECTOR	2	Optimize for:
ZGUESS	QUANT	1.00000E+003	Estimated Z (ohms)
EOC	QUANT	0	Open Circuit (V)
SEQUENCER	TOGGLE	TRUE	Run as Sequence
PSTATMODEL	IQUANT	5	Pstat Model
PSTATSECTION	LABEL	REF3000-16137	Pstat Section
PSTATSERIALNO	LABEL	16137	Pstat Serial Number
CTRLMODE	IQUANT	1	Control Mode
IESTAB	IQUANT	0	I/E Stability
CASPEED	IQUANT	1	Control Amp Speed
CONVENTION	IQUANT	1	Current Convention
ICHRANGE	IQUANT	2	Ich Range
ICHRANGEMODE	TOGGLE	F	Ich Auto Range
ICHOFFSETENABLE	TOGGLE	T	Ich Offset Enable
ICHOFFSET	QUANT	0	Ich Offset (V)
ICHFILTER	IQUANT	3	Ich Filter
VCHRANGE	IQUANT	2	Vch Range
VCHRANGEMODE	TOGGLE	F	Vch Auto Range
VCHOFFSETENABLE	TOGGLE	T	Vch Offset Enable
VCHOFFSET	QUANT	0	Vch Offset (V)
VCHFILTER	IQUANT	3	Vch Filter
ACHRANGE	IQUANT	2	Ach Range
ACHOFFSETENABLE	TOGGLE	F	Ach Offset Enable
ACHOFFSET	QUANT	0	Ach Offset (V)
ACHFILTER	IQUANT	3	Ach Filter
IERANGELOWERLIMIT	IQUANT	2	I/E Range Lower Limit
IERANGEMODE	TOGGLE	F	I/E AutoRange
IERANGE	IQUANT	11	I/E Range
POSFEEDENABLE	TOGGLE	F	Positive Feedback IR Comp
POSFEEDRESISTANCE	QUANT	0	Positive Feedback Resistance (ohm)
ACHSELECT	IQUANT	0	Ach Select
CABLEID	IQUANT	13	Cable ID
DCCALDATE	LABEL	7/31/2020	DC Calibration Date
ACCALDATE	LABEL	7/31/2020	AC Calibration Date
THERMOSELECT	IQUANT	1	Thermo Select
FRAMEWORKVERSION	QUANT	6.33	Framework Version
INSTRUMENTVERSION	LABEL	3.50	Instrument Version
COMPLIANCEVOLTAGE	IQUANT	0	Compliance Voltage
ZCURVE	TABLE
	Pt	Time	Freq	Zreal	Zimag	Zsig	Zmod	Zphz	Idc	Vdc	IERange
	#	s	Hz	ohm	ohm	V	ohm	°	A	V	#
	0	27	300046.9	388.6917	-4778.754	1	4794.536	-85.34995	-1.085043E-005	0.0017672	9
	1	43	238359.4	604.066	-5872.602	1	5903.587	-84.12711	-9.226517E-005	0.0021071	9
	2	57	189328.1	894.527	-7115.682	1	7171.688	-82.83482	2.52616E-005	0.0010609	9
	3	65	150421.9	1334.619	-8512.234	1	8616.226	-81.08923	-2.032426E-005	0.0011479	9
	4	73	119484.4	2433.818	-11078.31	1	11342.5	-77.6094	-1.912367E-005	0.0011676	9
	5	81	94921.88	3827.028	-13743.75	1	14266.63	-74.43983	-2.352337E-005	0.005065	8
	6	90	75421.88	5083.84	-16646.04	1	17405.06	-73.01689	1.64329E-005	-0.0092054	8
	7	98	59859.37	7403.88	-20188.35	1	21503.18	-69.85998	8.281223E-006	0.0042137	8
	8	106	47578.12	13658.3	-23995.63	1	27610.5	-60.35149	7.451323E-006	-0.0177539	7
	9	112	37828.12	18011.43	-27750.73	1	33083.45	-57.01468	-5.365807E-006	0.0263876	7
	10	120	30046.88	23398.14	-31176.94	1	38980.45	-53.11195	6.529595E-006	-0.0096632	7
	11	127	23859.38	30153.88	-34351.47	1	45708.64	-48.72319	-9.900203E-007	-0.01298	7
	12	132	18984.38	38059.38	-35873.94	1	52301.59	-43.30685	3.56752E-007	0.0163776	7
	13	138	15046.87	47473.58	-38151.31	1	60903.72	-38.78649	2.660142E-006	0.0088939	7
	14	143	11953.13	54034.66	-35968.59	1	64911.35	-33.65003	-9.255683E-007	-0.01352	7
	15	148	9515.62	61578.07	-34152.8	1	70415	-29.0139	-9.172031E-007	-0.0134727	7
	16	154	7546.875	67907.55	-30813.4	1	74571.45	-24.40642	-7.240191E-006	0.0233125	7
	17	159	5928.309	77737.22	-30431.55	1	83481.46	-21.3787	-1.580102E-005	0.0006665	8
	18	167	4733.456	76485.36	-23371.3	1	79976.42	-16.99136	-7.302117E-006	0.01868	7
	19	173	3796.875	82125.31	-21307.91	1	84844.53	-14.54502	-6.483127E-006	0.0255604	7
	20	178	2987.132	88929.36	-18103.49	1	90753.34	-11.50656	4.847427E-006	-0.0003857	7
	21	186	2390.625	92029.02	-16928.68	1	93573.07	-10.423	2.701767E-006	0.0086564	7
	22	191	1884.191	95635.8	-13218.12	1	96544.9	-7.869172	6.887298E-006	-0.0268174	7
	23	197	1516.544	98731.2	-15932.37	1	100008.4	-9.166863	-5.221779E-006	0.0033634	7
	24	202	1193.986	100894.8	-9124.776	1	101306.5	-5.167688	4.836418E-006	-0.0003574	7
	25	208	946.5144	95466.8	-17850.81	1	97121.4	-10.59112	6.649452E-006	-0.0102377	7
	26	212	751.7689	111574.7	-17421.44	1	112926.6	-8.874588	-5.138058E-006	0.0032287	7
	27	217	597.4265	100444.7	-20272.49	1	102470.1	-11.41057	-7.457478E-006	0.0190746	7
	28	222	477.4305	109705.5	-15046.21	1	110732.5	-7.809443	-6.66781E-008	0.0006203	7
	29	226	376.6741	111794.8	-15443.05	1	112856.3	-7.864923	-6.447209E-009	0.0006183	6
	30	229	298.2954	113773.4	-18105.47	1	115205	-9.042014	-7.181047E-009	0.0006452	6
	31	231	237.7717	116174.5	-20853.21	1	118031.2	-10.17617	-7.280254E-009	0.0007129	6
	32	233	189.0121	118675.2	-24547.28	1	121187.3	-11.68649	-6.451982E-009	0.0006204	6
	33	236	150.2404	121643.8	-28925.96	1	125035.7	-13.37607	-6.444986E-009	0.0006228	6
	34	239	119.1737	125002.2	-34375.77	1	129642.7	-15.37633	-6.950172E-009	0.0007055	6
	35	241	95.0169	128707.5	-40344.12	1	134882.4	-17.40391	-7.107296E-009	0.0006924	6
	36	243	75.60484	133040.6	-47717.27	1	141339.1	-19.73123	-7.383866E-009	0.0007099	6
	37	246	54.50582	140184.1	-60145.46	1	152542	-23.22157	-6.664866E-009	0.0006261	6
	38	249	45.95588	143479.5	-68366.8	1	158935.2	-25.47741	-6.26887E-009	0.0006176	6
	39	251	37.20238	148811.1	-79872.58	1	168891.6	-28.22414	-6.869845E-009	0.0006313	6
	40	253	30.04808	154241.5	-93904.32	1	180578.1	-31.33363	-6.302904E-009	0.0006246	6
	41	256	23.91582	159990.7	-111742.8	1	195149.9	-34.93173	-6.60488E-009	0.000614	6
	42	258	18.60119	166612.1	-137662.7	1	216126.3	-39.5651	-7.176113E-009	0.0006244	6
	43	261	15.02404	172472.5	-163543.9	1	237683.3	-43.47789	-6.972113E-009	0.000677	6
	44	263	12.01923	178883.5	-197742.7	1	266648.6	-47.86665	-6.388055E-009	0.0006252	6
	45	266	9.450605	186686.3	-244339.7	1	307495.8	-52.61858	-7.343331E-009	0.0006553	6
	46	268	7.512019	195057.2	-300328.2	1	358112.1	-56.99708	-6.365448E-009	0.0006174	6
	47	271	5.978954	205338.2	-369634	1	422839.2	-60.94706	-7.299231E-009	0.0007095	6
	48	277	4.734848	219539	-459161.9	1	508947	-64.44615	-8.240444E-010	0.0006282	5
	49	280	3.75601	234844.9	-569230	1	615771.8	-67.58062	-8.179956E-010	0.0006996	5
	50	286	3.004808	253362.5	-700839.4	1	745230.5	-70.12443	-7.901846E-010	0.0006481	5
	51	292	2.372217	276585.1	-874558.6	1	917252.4	-72.45009	-7.881188E-010	0.000588	5
	52	296	1.878005	302989.8	-1088780	1	1130152	-74.44897	-7.551382E-010	0.0006575	5
	53	301	1.512097	334771.5	-1330694	1	1372159	-75.87877	-7.823406E-010	0.0005758	5
	54	306	1.201923	373916.4	-1656353	1	1698034	-77.27889	-7.542145E-010	0.0006873	5
	55	313	0.956633	423764.3	-2051775	1	2095079	-78.33047	-7.843882E-010	1.06792E-005	5
