EXPLAIN
TAG	EISPOT
TITLE	LABEL	Potentiostatic EIS	Test Identifier
DATE	LABEL	2/26/2021	Date
TIME	LABEL	11:44:27	Time
NOTES	NOTES	1	Notes...
	
PSTAT	PSTAT	REF3000-16137	Potentiostat
VDC	POTEN	0.00000E+000	T	DC Voltage (V)
FREQINIT	QUANT	3.00000E+005	Initial Freq. (Hz)
FREQFINAL	QUANT	1.00000E+000	Final Freq. (Hz)
PTSPERDEC	QUANT	1.00000E+001	Points/decade
VAC	QUANT	5.00000E+001	AC Voltage (mV rms)
AREA	QUANT	1.00000E+000	Sample Area (cm^2)
SPEED	SELECTOR	2	Optimize for:
ZGUESS	QUANT	1.00000E+003	Estimated Z (ohms)
EOC	QUANT	0	Open Circuit (V)
SEQUENCER	TOGGLE	TRUE	Run as Sequence
PSTATMODEL	IQUANT	5	Pstat Model
PSTATSECTION	LABEL	REF3000-16137	Pstat Section
PSTATSERIALNO	LABEL	16137	Pstat Serial Number
CTRLMODE	IQUANT	1	Control Mode
IESTAB	IQUANT	0	I/E Stability
CASPEED	IQUANT	1	Control Amp Speed
CONVENTION	IQUANT	1	Current Convention
ICHRANGE	IQUANT	2	Ich Range
ICHRANGEMODE	TOGGLE	F	Ich Auto Range
ICHOFFSETENABLE	TOGGLE	T	Ich Offset Enable
ICHOFFSET	QUANT	0	Ich Offset (V)
ICHFILTER	IQUANT	3	Ich Filter
VCHRANGE	IQUANT	2	Vch Range
VCHRANGEMODE	TOGGLE	F	Vch Auto Range
VCHOFFSETENABLE	TOGGLE	T	Vch Offset Enable
VCHOFFSET	QUANT	0	Vch Offset (V)
VCHFILTER	IQUANT	3	Vch Filter
ACHRANGE	IQUANT	2	Ach Range
ACHOFFSETENABLE	TOGGLE	F	Ach Offset Enable
ACHOFFSET	QUANT	0	Ach Offset (V)
ACHFILTER	IQUANT	3	Ach Filter
IERANGELOWERLIMIT	IQUANT	2	I/E Range Lower Limit
IERANGEMODE	TOGGLE	F	I/E AutoRange
IERANGE	IQUANT	11	I/E Range
POSFEEDENABLE	TOGGLE	F	Positive Feedback IR Comp
POSFEEDRESISTANCE	QUANT	0	Positive Feedback Resistance (ohm)
ACHSELECT	IQUANT	0	Ach Select
CABLEID	IQUANT	13	Cable ID
DCCALDATE	LABEL	7/31/2020	DC Calibration Date
ACCALDATE	LABEL	7/31/2020	AC Calibration Date
THERMOSELECT	IQUANT	1	Thermo Select
FRAMEWORKVERSION	QUANT	6.33	Framework Version
INSTRUMENTVERSION	LABEL	3.50	Instrument Version
COMPLIANCEVOLTAGE	IQUANT	0	Compliance Voltage
ZCURVE	TABLE
	Pt	Time	Freq	Zreal	Zimag	Zsig	Zmod	Zphz	Idc	Vdc	IERange
	#	s	Hz	ohm	ohm	V	ohm	°	A	V	#
	0	8	300046.9	178.2506	-14.29163	1	178.8226	-4.58401	5.104455E-005	-0.0003976	9
	1	11	238359.4	179.8343	-16.96797	1	180.633	-5.390092	2.59986E-005	0.0003897	9
	2	14	189328.1	181.914	-19.73423	1	182.9813	-6.191295	4.973581E-005	-0.0003549	9
	3	17	150421.9	183.3214	-23.25356	1	184.7903	-7.229124	1.919099E-005	-0.00135	9
	4	19	119484.4	185.7186	-27.85323	1	187.7956	-8.529392	-1.37972E-005	0.0012622	9
	5	22	94921.88	188.5366	-32.67022	1	191.3463	-9.83077	2.516217E-005	-0.0004856	9
	6	24	75421.88	191.5435	-38.81208	1	195.4362	-11.45464	-2.038467E-005	0.0009309	9
	7	27	59859.37	195.1373	-46.14858	1	200.5199	-13.30559	7.148755E-006	-0.0006133	9
	8	30	47578.12	199.3648	-54.60151	1	206.7067	-15.31643	-1.836929E-005	0.0002605	9
	9	32	37828.12	204.2565	-64.36153	1	214.1568	-17.48972	1.522853E-005	-0.0007532	9
	10	35	30046.88	209.826	-75.7148	1	223.0688	-19.84176	2.626111E-005	-0.0006511	9
	11	37	23859.38	215.8703	-89.31767	1	233.6185	-22.47763	1.511924E-005	-0.0007387	9
	12	39	18984.38	222.3929	-105.1802	1	246.0111	-25.31171	-1.985354E-005	0.0009278	9
	13	42	15046.87	228.861	-123.9761	1	260.2834	-28.44481	2.545426E-005	-0.0007878	9
	14	45	11953.13	236.4319	-148.518	1	279.209	-32.13555	-1.808853E-005	0.0003177	9
	15	49	9515.62	243.4382	-177.8145	1	301.4633	-36.1455	1.910664E-005	-3.306514E-006	9
	16	51	7546.875	251.2431	-214.4503	1	330.3211	-40.48265	6.30488E-006	-0.0004748	9
	17	53	5928.309	259.771	-262.6502	1	369.4132	-45.31577	1.143523E-005	0.0002526	9
	18	56	4733.456	268.1334	-318.4276	1	416.2831	-49.9008	5.126186E-006	0.0010419	8
	19	58	3796.875	277.924	-386.0909	1	475.7183	-54.25211	1.049554E-005	-0.0015802	8
	20	60	2987.132	290.8507	-478.3162	1	559.804	-58.69738	-4.922447E-006	0.0003643	8
	21	64	2390.625	303.5876	-586.1213	1	660.0784	-62.61764	8.882737E-007	0.0026276	8
	22	66	1884.191	323.6119	-730.4141	1	798.8926	-66.10413	1.027684E-006	0.0024906	8
	23	68	1516.544	342.3781	-888.5422	1	952.224	-68.92705	1.038253E-005	-0.0020376	8
	24	71	1193.986	370.1926	-1106.017	1	1166.326	-71.4942	-8.508221E-006	0.0038976	8
	25	73	946.5144	399.7321	-1370.505	1	1427.61	-73.73974	-4.833753E-006	0.0039566	8
	26	76	751.7689	438.3917	-1695.175	1	1750.944	-75.50033	4.776878E-006	0.0012439	8
	27	78	597.4265	492.6324	-2087.888	1	2145.219	-76.72401	4.797918E-006	0.0011641	8
	28	81	477.4305	553.1501	-2577.64	1	2636.324	-77.88828	1.564169E-007	0.0006517	8
	29	83	376.6741	631.1013	-3209.654	1	3271.111	-78.87607	1.323094E-007	0.0006499	8
	30	86	298.2954	726.426	-3982.873	1	4048.577	-79.66358	1.445785E-007	0.0006044	8
	31	88	237.7717	845.4037	-4922.209	1	4994.282	-80.25437	-3.129923E-009	0.0006338	7
	32	90	189.0121	989.651	-6088.452	1	6168.359	-80.76757	-1.110667E-009	0.0006421	7
	33	93	150.2404	1169.837	-7530.681	1	7621.002	-81.17009	-4.203516E-009	0.0006518	7
	34	95	119.1737	1399.732	-9335.265	1	9439.619	-81.47258	-4.030555E-009	0.000634	7
	35	97	95.0169	1678.116	-11513.92	1	11635.56	-81.70771	-4.792873E-009	0.0006323	7
	36	100	75.60484	2033.828	-14227.02	1	14371.66	-81.86439	-1.185591E-009	0.0006204	7
	37	102	54.50582	2725.345	-19251.69	1	19443.64	-81.94253	-1.502025E-009	0.0006131	7
	38	105	45.95588	3169.918	-22543.62	1	22765.39	-81.99596	-4.367771E-009	0.000634	7
	39	107	37.20238	3864.506	-27389.32	1	27660.61	-81.96885	-4.594932E-009	0.0006256	7
	40	110	30.04808	4751.348	-33339.46	1	33676.33	-81.88915	-3.278025E-009	0.000629	7
	41	112	23.91582	5961.875	-41187.43	1	41616.68	-81.76365	-2.41758E-009	0.0006095	7
	42	114	18.60119	7622.982	-51895.29	1	52452.18	-81.64349	-1.136557E-008	0.0006668	6
	43	117	15.02404	9508.39	-62980.68	1	63694.39	-81.41472	-9.488176E-009	0.0006734	6
	44	119	12.01923	11968.56	-77226.66	1	78148.59	-81.19041	-9.992352E-009	0.0006653	6
	45	122	9.450605	15535.17	-96064.3	1	97312.4	-80.81387	-9.57202E-009	0.0006693	6
	46	124	7.512019	19746.43	-118417.1	1	120052.2	-80.53285	-9.669815E-009	0.0006609	6
	47	127	5.978954	25321.18	-145497.2	1	147684.1	-80.12758	-9.736745E-009	0.0006816	6
	48	131	4.734848	32833.9	-179587.8	1	182564.7	-79.63909	-9.39346E-009	0.0006852	6
	49	135	3.75601	42702.27	-221040.6	1	225127.6	-79.06587	-9.486414E-009	0.0006626	6
	50	140	3.004808	55199.67	-269598.5	1	275191.5	-78.42875	-9.466755E-009	0.0006873	6
	51	147	2.372217	73398.23	-332423.2	1	340429.8	-77.549	-9.383168E-009	0.0007289	6
	52	151	1.878005	96873.5	-408635.5	1	419961.2	-76.66334	-9.62439E-009	0.0006507	6
	53	156	1.512097	125589.3	-492367	1	508131.8	-75.69054	-9.969655E-009	0.0006097	5
	54	161	1.201923	168508.2	-600457.2	1	623653.6	-74.32412	-1.005038E-008	0.0006515	5
	55	167	0.956633	224984.4	-726554.1	1	760591.1	-72.79436	-1.005185E-008	2.658055E-005	5
