EXPLAIN
TAG	EISPOT
TITLE	LABEL	Potentiostatic EIS	Test Identifier
DATE	LABEL	2/26/2021	Date
TIME	LABEL	10:56:01	Time
NOTES	NOTES	1	Notes...
	
PSTAT	PSTAT	REF3000-16137	Potentiostat
VDC	POTEN	0.00000E+000	T	DC Voltage (V)
FREQINIT	QUANT	3.00000E+005	Initial Freq. (Hz)
FREQFINAL	QUANT	1.00000E+000	Final Freq. (Hz)
PTSPERDEC	QUANT	1.00000E+001	Points/decade
VAC	QUANT	5.00000E+001	AC Voltage (mV rms)
AREA	QUANT	1.00000E+000	Sample Area (cm^2)
SPEED	SELECTOR	2	Optimize for:
ZGUESS	QUANT	1.00000E+003	Estimated Z (ohms)
EOC	QUANT	0	Open Circuit (V)
SEQUENCER	TOGGLE	TRUE	Run as Sequence
PSTATMODEL	IQUANT	5	Pstat Model
PSTATSECTION	LABEL	REF3000-16137	Pstat Section
PSTATSERIALNO	LABEL	16137	Pstat Serial Number
CTRLMODE	IQUANT	1	Control Mode
IESTAB	IQUANT	0	I/E Stability
CASPEED	IQUANT	1	Control Amp Speed
CONVENTION	IQUANT	1	Current Convention
ICHRANGE	IQUANT	2	Ich Range
ICHRANGEMODE	TOGGLE	F	Ich Auto Range
ICHOFFSETENABLE	TOGGLE	T	Ich Offset Enable
ICHOFFSET	QUANT	0	Ich Offset (V)
ICHFILTER	IQUANT	3	Ich Filter
VCHRANGE	IQUANT	2	Vch Range
VCHRANGEMODE	TOGGLE	F	Vch Auto Range
VCHOFFSETENABLE	TOGGLE	T	Vch Offset Enable
VCHOFFSET	QUANT	0	Vch Offset (V)
VCHFILTER	IQUANT	3	Vch Filter
ACHRANGE	IQUANT	2	Ach Range
ACHOFFSETENABLE	TOGGLE	F	Ach Offset Enable
ACHOFFSET	QUANT	0	Ach Offset (V)
ACHFILTER	IQUANT	3	Ach Filter
IERANGELOWERLIMIT	IQUANT	2	I/E Range Lower Limit
IERANGEMODE	TOGGLE	F	I/E AutoRange
IERANGE	IQUANT	11	I/E Range
POSFEEDENABLE	TOGGLE	F	Positive Feedback IR Comp
POSFEEDRESISTANCE	QUANT	0	Positive Feedback Resistance (ohm)
ACHSELECT	IQUANT	0	Ach Select
CABLEID	IQUANT	13	Cable ID
DCCALDATE	LABEL	7/31/2020	DC Calibration Date
ACCALDATE	LABEL	7/31/2020	AC Calibration Date
THERMOSELECT	IQUANT	1	Thermo Select
FRAMEWORKVERSION	QUANT	6.33	Framework Version
INSTRUMENTVERSION	LABEL	3.50	Instrument Version
COMPLIANCEVOLTAGE	IQUANT	0	Compliance Voltage
ZCURVE	TABLE
	Pt	Time	Freq	Zreal	Zimag	Zsig	Zmod	Zphz	Idc	Vdc	IERange
	#	s	Hz	ohm	ohm	V	ohm	°	A	V	#
	0	7	300046.9	32.65952	-6.493037	1	33.29871	-11.24435	-0.0001109	-0.000112	11
	1	11	238359.4	33.54276	-7.882542	1	34.45651	-13.22454	2.667822E-005	0.0004049	10
	2	14	189328.1	34.31684	-9.86408	1	35.70638	-16.03685	-2.599371E-005	0.0005123	10
	3	17	150421.9	35.38905	-11.6894	1	37.26965	-18.27896	4.042912E-006	-0.0005908	9
	4	19	119484.4	36.44454	-14.24707	1	39.13034	-21.35175	1.315071E-005	0.0001517	9
	5	22	94921.88	37.62169	-17.03594	1	41.29909	-24.36208	-1.062875E-005	0.0001783	9
	6	24	75421.88	38.84198	-20.50999	1	43.92447	-27.8357	-9.575039E-006	0.0004754	9
	7	27	59859.37	40.12767	-24.66617	1	47.10255	-31.57873	-1.394495E-005	0.0004913	9
	8	29	47578.12	41.56646	-29.61405	1	51.03688	-35.468	-1.171759E-005	0.0003764	9
	9	32	37828.12	43.19191	-35.80349	1	56.10197	-39.65669	8.876466E-006	3.011863E-005	9
	10	34	30046.88	45.08147	-43.28118	1	62.4948	-43.83282	-4.659819E-006	0.0005265	9
	11	37	23859.38	47.33151	-52.55149	1	70.72433	-47.99161	1.791183E-005	-0.0003975	9
	12	39	18984.38	50.07969	-63.82609	1	81.12795	-51.88131	-3.925072E-006	0.0004044	9
	13	42	15046.87	53.46203	-77.69778	1	94.31402	-55.46904	-7.768121E-006	0.0001527	9
	14	44	11953.13	57.64772	-94.55949	1	110.7464	-58.63163	6.249492E-006	-0.0002931	9
	15	46	9515.62	63.22064	-114.5561	1	130.8432	-61.1068	1.142485E-005	-0.0004093	9
	16	49	7546.875	69.95739	-139.6098	1	156.1567	-63.3849	1.33579E-005	-0.00047	9
	17	51	5928.309	77.84971	-171.224	1	188.091	-65.55033	-1.749389E-006	0.0004071	9
	18	53	4733.456	87.5937	-206.554	1	224.3595	-67.01957	-1.352585E-005	0.0005132	9
	19	56	3796.875	98.501	-249.2307	1	267.9895	-68.43507	-1.210081E-005	0.0003284	9
	20	58	2987.132	114.0387	-303.9577	1	324.6461	-69.43494	5.22114E-006	0.000201	9
	21	60	2390.625	129.877	-366.5302	1	388.8604	-70.48864	1.547517E-005	-0.0004311	9
	22	62	1884.191	152.7829	-443.7834	1	469.3467	-71.00278	3.378037E-006	-7.800981E-006	8
	23	65	1516.544	176.6785	-532.0253	1	560.5945	-71.62936	-1.124745E-006	0.0013921	8
	24	67	1193.986	208.5101	-648.9869	1	681.6601	-72.18855	-1.650527E-006	0.0014546	8
	25	70	946.5144	243.9912	-788.0392	1	824.947	-72.79653	-2.263371E-006	0.001048	8
	26	72	751.7689	289.5677	-954.317	1	997.281	-73.12066	-2.455695E-006	0.0013	8
	27	74	597.4265	340.1305	-1155.2	1	1204.233	-73.59377	2.553853E-006	0.0003096	8
	28	77	477.4305	403.6309	-1394.617	1	1451.853	-73.85847	3.765822E-007	0.0006575	8
	29	79	376.6741	481.5329	-1701.454	1	1768.281	-74.19781	3.671645E-007	0.0006565	8
	30	81	298.2954	573.7356	-2070.547	1	2148.566	-74.51228	3.693251E-007	0.0006585	8
	31	84	237.7717	681.283	-2507.195	1	2598.11	-74.79802	3.942642E-007	0.0006516	8
	32	86	189.0121	812.1899	-3045.486	1	3151.926	-75.06752	3.834897E-007	0.0006579	8
	33	88	150.2404	969.805	-3701.025	1	3825.978	-75.31653	3.831261E-007	0.0006556	8
	34	91	119.1737	1166.454	-4517.704	1	4665.861	-75.52263	-8.972403E-008	0.0006343	7
	35	93	95.0169	1395.88	-5481.953	1	5656.88	-75.71426	-8.953737E-008	0.0006316	7
	36	96	75.60484	1678.95	-6667.123	1	6875.274	-75.86537	-8.975785E-008	0.0006337	7
	37	98	54.50582	2201.005	-8828.111	1	9098.35	-76.00055	-8.97652E-008	0.0006263	7
	38	101	45.95588	2538.708	-10219.13	1	10529.75	-76.04861	-8.751308E-008	0.0006311	7
	39	103	37.20238	3043.65	-12252.93	1	12625.29	-76.04996	-9.187649E-008	0.0006369	7
	40	105	30.04808	3681.917	-14746.55	1	15199.25	-75.98102	-9.053855E-008	0.0006229	7
	41	108	23.91582	4512.65	-17927.5	1	18486.73	-75.87122	-8.881466E-008	0.0006364	7
	42	110	18.60119	5685.787	-22242.13	1	22957.37	-75.66048	-9.172417E-008	0.0006272	7
	43	112	15.02404	6983.701	-26703.01	1	27601.14	-75.34357	-8.641535E-008	0.0006409	7
	44	115	12.01923	8689.322	-32309.03	1	33457.11	-74.94683	-9.060119E-008	0.0006265	7
	45	117	9.450605	11093.53	-39616.48	1	41140.4	-74.35653	-8.990301E-008	0.0006489	7
	46	120	7.512019	14048.38	-48014.58	1	50027.56	-73.69128	-1.392387E-007	0.0006801	6
	47	122	5.978954	17867.7	-58028.13	1	60716.71	-72.88564	-1.38628E-007	0.0006892	6
	48	125	4.734848	23079.39	-70250.82	1	73944.82	-71.81318	-1.37457E-007	0.0006892	6
	49	129	3.75601	29850.86	-84625.41	1	89735.91	-70.57016	-1.366578E-007	0.000705	6
	50	134	3.004808	38398.75	-100753.4	1	107822.5	-69.13734	-1.355978E-007	0.000622	6
	51	141	2.372217	50454.94	-120474.4	1	130613.1	-67.27595	-1.362871E-007	0.0006285	6
	52	145	1.878005	65809.56	-142810.5	1	157244.2	-65.25892	-1.352213E-007	0.0006813	6
	53	150	1.512097	83711.86	-165408.8	1	185385.4	-63.15646	-1.354324E-007	0.0007275	6
	54	155	1.201923	108369.5	-191517.1	1	220051.7	-60.49675	-1.346431E-007	0.0006937	6
	55	161	0.956633	138214	-218201.6	1	258292.6	-57.64887	-1.366931E-007	4.171224E-005	6
