June 16, 2026   07:41:49
A.C. Impedance
File: e:\chi_data\6.13Data Source:  Experiment
Instrument Model:  CHI660E
Header: 
Note: 

Init E (V) = 0
High Frequency (Hz) = 1e+6
Low Frequency (Hz) = 0.1
Imp SF
Amplitude (V) = 0.005
Quiet Time (sec) = 2
Cycles (.1-1Hz) = 1

Freq/Hz, Z'/ohm, Z"/ohm, Z/ohm, Phase/deg

8.252e+5, 1.067e+1, 1.327e+1, 1.703e+1, 51.2
6.816e+5, 1.008e+1, 1.076e+1, 1.475e+1, 46.9
5.625e+5, 9.576e+0, 8.906e+0, 1.308e+1, 42.9
4.639e+5, 9.318e+0, 7.229e+0, 1.179e+1, 37.8
3.828e+5, 9.185e+0, 5.965e+0, 1.095e+1, 33.0
3.164e+5, 9.108e+0, 4.866e+0, 1.033e+1, 28.1
2.607e+5, 9.047e+0, 3.986e+0, 9.886e+0, 23.8
2.158e+5, 9.005e+0, 3.228e+0, 9.566e+0, 19.7
1.777e+5, 9.007e+0, 2.543e+0, 9.359e+0, 15.8
1.465e+5, 9.020e+0, 1.955e+0, 9.229e+0, 12.2
1.211e+5, 9.018e+0, 1.502e+0, 9.142e+0, 9.5
9.961e+4, 9.034e+0, 1.121e+0, 9.103e+0, 7.1
8.252e+4, 9.065e+0, 7.942e-1, 9.100e+0, 5.0
6.812e+4, 9.109e+0, 4.926e-1, 9.122e+0, 3.1
5.625e+4, 9.162e+0, 2.173e-1, 9.165e+0, 1.4
4.644e+4, 9.228e+0, -5.889e-2, 9.229e+0, -0.4
3.833e+4, 9.313e+0, -3.199e-1, 9.318e+0, -2.0
3.164e+4, 9.413e+0, -5.567e-1, 9.429e+0, -3.4
2.612e+4, 9.513e+0, -7.746e-1, 9.544e+0, -4.7
2.153e+4, 9.617e+0, -9.913e-1, 9.668e+0, -5.9
1.777e+4, 9.742e+0, -1.215e+0, 9.818e+0, -7.1
1.470e+4, 9.876e+0, -1.446e+0, 9.982e+0, -8.3
1.211e+4, 1.002e+1, -1.697e+0, 1.016e+1, -9.6
1.001e+4, 1.018e+1, -1.972e+0, 1.037e+1, -11.0
8.252e+3, 1.036e+1, -2.278e+0, 1.060e+1, -12.4
6.812e+3, 1.054e+1, -2.617e+0, 1.086e+1, -13.9
5.625e+3, 1.075e+1, -2.998e+0, 1.116e+1, -15.6
4.643e+3, 1.097e+1, -3.435e+0, 1.150e+1, -17.4
3.833e+3, 1.122e+1, -3.937e+0, 1.189e+1, -19.3
3.164e+3, 1.148e+1, -4.513e+0, 1.233e+1, -21.5
2.612e+3, 1.176e+1, -5.178e+0, 1.285e+1, -23.8
2.153e+3, 1.207e+1, -5.956e+0, 1.346e+1, -26.3
1.777e+3, 1.241e+1, -6.861e+0, 1.418e+1, -28.9
1.470e+3, 1.279e+1, -7.922e+0, 1.505e+1, -31.8
1.211e+3, 1.321e+1, -9.163e+0, 1.608e+1, -34.7
1.001e+3, 1.367e+1, -1.061e+1, 1.731e+1, -37.8
8.252e+2, 1.418e+1, -1.230e+1, 1.878e+1, -40.9
6.836e+2, 1.479e+1, -1.433e+1, 2.059e+1, -44.1
5.615e+2, 1.550e+1, -1.675e+1, 2.282e+1, -47.2
4.639e+2, 1.630e+1, -1.963e+1, 2.552e+1, -50.3
3.809e+2, 1.721e+1, -2.300e+1, 2.872e+1, -53.2
3.174e+2, 1.825e+1, -2.698e+1, 3.257e+1, -55.9
2.588e+2, 1.946e+1, -3.169e+1, 3.719e+1, -58.4
2.148e+2, 2.089e+1, -3.728e+1, 4.274e+1, -60.7
1.758e+2, 2.252e+1, -4.380e+1, 4.926e+1, -62.8
1.465e+2, 2.437e+1, -5.122e+1, 5.672e+1, -64.6
1.221e+2, 2.661e+1, -6.037e+1, 6.597e+1, -66.2
9.766e+1, 2.939e+1, -7.099e+1, 7.683e+1, -67.5
8.254e+1, 3.263e+1, -8.308e+1, 8.926e+1, -68.6
6.813e+1, 3.625e+1, -9.756e+1, 1.041e+2, -69.6
5.623e+1, 4.030e+1, -1.147e+2, 1.216e+2, -70.6
4.642e+1, 4.502e+1, -1.352e+2, 1.425e+2, -71.6
3.831e+1, 5.057e+1, -1.597e+2, 1.675e+2, -72.4
3.162e+1, 5.711e+1, -1.886e+2, 1.970e+2, -73.2
2.610e+1, 6.502e+1, -2.226e+2, 2.319e+2, -73.7
2.154e+1, 7.451e+1, -2.627e+2, 2.731e+2, -74.2
1.778e+1, 8.603e+1, -3.101e+2, 3.218e+2, -74.5
1.468e+1, 1.000e+2, -3.659e+2, 3.793e+2, -74.7
1.212e+1, 1.169e+2, -4.312e+2, 4.468e+2, -74.8
1.000e+1, 1.377e+2, -5.078e+2, 5.261e+2, -74.8
8.254e+0, 1.629e+2, -5.974e+2, 6.193e+2, -74.7
6.813e+0, 1.924e+2, -7.023e+2, 7.281e+2, -74.7
5.623e+0, 2.265e+2, -8.246e+2, 8.551e+2, -74.6
4.642e+0, 2.655e+2, -9.679e+2, 1.004e+3, -74.7
3.831e+0, 3.105e+2, -1.135e+3, 1.177e+3, -74.7
3.162e+0, 3.610e+2, -1.332e+3, 1.380e+3, -74.8
2.610e+0, 4.185e+2, -1.565e+3, 1.620e+3, -75.0
2.154e+0, 4.758e+2, -1.848e+3, 1.909e+3, -75.6
1.778e+0, 5.333e+2, -2.186e+3, 2.251e+3, -76.3
1.468e+0, 6.024e+2, -2.574e+3, 2.643e+3, -76.8
1.212e+0, 6.861e+2, -3.022e+3, 3.099e+3, -77.2
1.000e+0, 7.862e+2, -3.546e+3, 3.632e+3, -77.5
8.254e-1, 9.016e+2, -4.158e+3, 4.255e+3, -77.8
6.813e-1, 1.031e+3, -4.877e+3, 4.984e+3, -78.1
5.623e-1, 1.175e+3, -5.730e+3, 5.850e+3, -78.4
4.642e-1, 1.337e+3, -6.748e+3, 6.879e+3, -78.8
3.831e-1, 1.526e+3, -7.959e+3, 8.104e+3, -79.1
3.162e-1, 1.749e+3, -9.401e+3, 9.562e+3, -79.5
2.610e-1, 2.010e+3, -1.112e+4, 1.130e+4, -79.8
2.154e-1, 2.318e+3, -1.316e+4, 1.337e+4, -80.0
1.778e-1, 2.686e+3, -1.557e+4, 1.580e+4, -80.2
1.468e-1, 3.114e+3, -1.838e+4, 1.864e+4, -80.4
1.212e-1, 3.640e+3, -2.176e+4, 2.206e+4, -80.5
1.000e-1, 4.283e+3, -2.579e+4, 2.614e+4, -80.6
