June 16, 2026   02:32:18
A.C. Impedance
File: e:\chi_data\6.13Data Source:  Experiment
Instrument Model:  CHI660E
Header: 
Note: 

Init E (V) = 0
High Frequency (Hz) = 1e+6
Low Frequency (Hz) = 0.1
Imp SF
Amplitude (V) = 0.005
Quiet Time (sec) = 2
Cycles (.1-1Hz) = 1

Freq/Hz, Z'/ohm, Z"/ohm, Z/ohm, Phase/deg

8.252e+5, 4.823e+0, 1.418e+1, 1.498e+1, 71.2
6.816e+5, 4.175e+0, 1.138e+1, 1.213e+1, 69.9
5.625e+5, 3.640e+0, 9.539e+0, 1.021e+1, 69.1
4.639e+5, 3.379e+0, 7.790e+0, 8.491e+0, 66.5
3.828e+5, 3.213e+0, 6.525e+0, 7.273e+0, 63.8
3.164e+5, 3.109e+0, 5.395e+0, 6.227e+0, 60.0
2.607e+5, 3.007e+0, 4.490e+0, 5.404e+0, 56.2
2.158e+5, 2.921e+0, 3.695e+0, 4.710e+0, 51.7
1.777e+5, 2.864e+0, 3.028e+0, 4.168e+0, 46.6
1.465e+5, 2.827e+0, 2.465e+0, 3.751e+0, 41.1
1.211e+5, 2.793e+0, 2.010e+0, 3.441e+0, 35.7
9.961e+4, 2.772e+0, 1.630e+0, 3.216e+0, 30.5
8.252e+4, 2.760e+0, 1.315e+0, 3.057e+0, 25.5
6.812e+4, 2.755e+0, 1.040e+0, 2.945e+0, 20.7
5.625e+4, 2.753e+0, 8.057e-1, 2.868e+0, 16.3
4.644e+4, 2.753e+0, 5.976e-1, 2.817e+0, 12.2
3.833e+4, 2.757e+0, 4.105e-1, 2.788e+0, 8.5
3.164e+4, 2.768e+0, 2.454e-1, 2.779e+0, 5.1
2.612e+4, 2.785e+0, 9.421e-2, 2.786e+0, 1.9
2.153e+4, 2.804e+0, -5.054e-2, 2.804e+0, -1.0
1.777e+4, 2.821e+0, -1.923e-1, 2.828e+0, -3.9
1.470e+4, 2.840e+0, -3.363e-1, 2.860e+0, -6.8
1.211e+4, 2.861e+0, -4.883e-1, 2.903e+0, -9.7
1.001e+4, 2.887e+0, -6.521e-1, 2.959e+0, -12.7
8.252e+3, 2.917e+0, -8.309e-1, 3.033e+0, -15.9
6.812e+3, 2.954e+0, -1.031e+0, 3.128e+0, -19.2
5.625e+3, 2.995e+0, -1.260e+0, 3.250e+0, -22.8
4.643e+3, 3.045e+0, -1.524e+0, 3.405e+0, -26.6
3.833e+3, 3.104e+0, -1.831e+0, 3.604e+0, -30.5
3.164e+3, 3.175e+0, -2.190e+0, 3.857e+0, -34.6
2.612e+3, 3.260e+0, -2.612e+0, 4.177e+0, -38.7
2.153e+3, 3.362e+0, -3.109e+0, 4.579e+0, -42.8
1.777e+3, 3.486e+0, -3.692e+0, 5.078e+0, -46.6
1.470e+3, 3.636e+0, -4.378e+0, 5.691e+0, -50.3
1.211e+3, 3.819e+0, -5.185e+0, 6.439e+0, -53.6
1.001e+3, 4.044e+0, -6.132e+0, 7.346e+0, -56.6
8.252e+2, 4.319e+0, -7.242e+0, 8.433e+0, -59.2
6.836e+2, 4.654e+0, -8.552e+0, 9.736e+0, -61.4
5.615e+2, 5.061e+0, -1.009e+1, 1.129e+1, -63.4
4.639e+2, 5.551e+0, -1.189e+1, 1.312e+1, -65.0
3.809e+2, 6.128e+0, -1.396e+1, 1.524e+1, -66.3
3.174e+2, 6.812e+0, -1.637e+1, 1.773e+1, -67.4
2.588e+2, 7.627e+0, -1.920e+1, 2.066e+1, -68.3
2.148e+2, 8.584e+0, -2.254e+1, 2.412e+1, -69.2
1.758e+2, 9.662e+0, -2.641e+1, 2.812e+1, -69.9
1.465e+2, 1.083e+1, -3.076e+1, 3.261e+1, -70.6
1.221e+2, 1.219e+1, -3.609e+1, 3.810e+1, -71.3
9.766e+1, 1.381e+1, -4.228e+1, 4.448e+1, -71.9
8.254e+1, 1.561e+1, -4.932e+1, 5.173e+1, -72.4
6.813e+1, 1.751e+1, -5.777e+1, 6.037e+1, -73.1
5.623e+1, 1.954e+1, -6.783e+1, 7.059e+1, -73.9
4.642e+1, 2.176e+1, -7.991e+1, 8.282e+1, -74.8
3.831e+1, 2.424e+1, -9.437e+1, 9.743e+1, -75.6
3.162e+1, 2.706e+1, -1.116e+2, 1.148e+2, -76.4
2.610e+1, 3.030e+1, -1.322e+2, 1.357e+2, -77.1
2.154e+1, 3.398e+1, -1.569e+2, 1.605e+2, -77.8
1.778e+1, 3.822e+1, -1.863e+2, 1.902e+2, -78.4
1.468e+1, 4.317e+1, -2.214e+2, 2.256e+2, -79.0
1.212e+1, 4.893e+1, -2.634e+2, 2.679e+2, -79.5
1.000e+1, 5.593e+1, -3.135e+2, 3.185e+2, -79.9
8.254e+0, 6.421e+1, -3.733e+2, 3.788e+2, -80.2
6.813e+0, 7.375e+1, -4.449e+2, 4.510e+2, -80.6
5.623e+0, 8.475e+1, -5.303e+2, 5.371e+2, -80.9
4.642e+0, 9.740e+1, -6.326e+2, 6.401e+2, -81.2
3.831e+0, 1.126e+2, -7.546e+2, 7.630e+2, -81.5
3.162e+0, 1.305e+2, -9.010e+2, 9.104e+2, -81.8
2.610e+0, 1.514e+2, -1.076e+3, 1.087e+3, -82.0
2.154e+0, 1.729e+2, -1.288e+3, 1.300e+3, -82.4
1.778e+0, 1.967e+2, -1.544e+3, 1.556e+3, -82.7
1.468e+0, 2.288e+2, -1.849e+3, 1.864e+3, -82.9
1.212e+0, 2.709e+2, -2.207e+3, 2.223e+3, -83.0
1.000e+0, 3.258e+2, -2.624e+3, 2.644e+3, -82.9
8.254e-1, 3.943e+2, -3.118e+3, 3.143e+3, -82.8
6.813e-1, 4.757e+2, -3.706e+3, 3.737e+3, -82.7
5.623e-1, 5.713e+2, -4.412e+3, 4.449e+3, -82.6
4.642e-1, 6.871e+2, -5.255e+3, 5.300e+3, -82.6
3.831e-1, 8.293e+2, -6.256e+3, 6.311e+3, -82.4
3.162e-1, 1.005e+3, -7.447e+3, 7.514e+3, -82.3
2.610e-1, 1.221e+3, -8.859e+3, 8.943e+3, -82.2
2.154e-1, 1.485e+3, -1.053e+4, 1.063e+4, -82.0
1.778e-1, 1.803e+3, -1.250e+4, 1.263e+4, -81.8
1.468e-1, 2.184e+3, -1.477e+4, 1.493e+4, -81.6
1.212e-1, 2.677e+3, -1.753e+4, 1.774e+4, -81.3
1.000e-1, 3.302e+3, -2.088e+4, 2.114e+4, -81.0
