EXPLAIN
TAG	EISPOT
TITLE	LABEL	Potentiostatic EIS	Test Identifier
DATE	LABEL	2/26/2021	Date
TIME	LABEL	18:51:23	Time
NOTES	NOTES	1	Notes...
	
PSTAT	PSTAT	REF3000-16137	Potentiostat
VDC	POTEN	0.00000E+000	T	DC Voltage (V)
FREQINIT	QUANT	3.00000E+005	Initial Freq. (Hz)
FREQFINAL	QUANT	1.00000E+000	Final Freq. (Hz)
PTSPERDEC	QUANT	1.00000E+001	Points/decade
VAC	QUANT	5.00000E+001	AC Voltage (mV rms)
AREA	QUANT	1.00000E+000	Sample Area (cm^2)
SPEED	SELECTOR	2	Optimize for:
ZGUESS	QUANT	1.00000E+003	Estimated Z (ohms)
EOC	QUANT	0	Open Circuit (V)
SEQUENCER	TOGGLE	TRUE	Run as Sequence
PSTATMODEL	IQUANT	5	Pstat Model
PSTATSECTION	LABEL	REF3000-16137	Pstat Section
PSTATSERIALNO	LABEL	16137	Pstat Serial Number
CTRLMODE	IQUANT	1	Control Mode
IESTAB	IQUANT	0	I/E Stability
CASPEED	IQUANT	1	Control Amp Speed
CONVENTION	IQUANT	1	Current Convention
ICHRANGE	IQUANT	2	Ich Range
ICHRANGEMODE	TOGGLE	F	Ich Auto Range
ICHOFFSETENABLE	TOGGLE	T	Ich Offset Enable
ICHOFFSET	QUANT	0	Ich Offset (V)
ICHFILTER	IQUANT	3	Ich Filter
VCHRANGE	IQUANT	2	Vch Range
VCHRANGEMODE	TOGGLE	F	Vch Auto Range
VCHOFFSETENABLE	TOGGLE	T	Vch Offset Enable
VCHOFFSET	QUANT	0	Vch Offset (V)
VCHFILTER	IQUANT	3	Vch Filter
ACHRANGE	IQUANT	2	Ach Range
ACHOFFSETENABLE	TOGGLE	F	Ach Offset Enable
ACHOFFSET	QUANT	0	Ach Offset (V)
ACHFILTER	IQUANT	3	Ach Filter
IERANGELOWERLIMIT	IQUANT	2	I/E Range Lower Limit
IERANGEMODE	TOGGLE	F	I/E AutoRange
IERANGE	IQUANT	11	I/E Range
POSFEEDENABLE	TOGGLE	F	Positive Feedback IR Comp
POSFEEDRESISTANCE	QUANT	0	Positive Feedback Resistance (ohm)
ACHSELECT	IQUANT	0	Ach Select
CABLEID	IQUANT	13	Cable ID
DCCALDATE	LABEL	7/31/2020	DC Calibration Date
ACCALDATE	LABEL	7/31/2020	AC Calibration Date
THERMOSELECT	IQUANT	1	Thermo Select
FRAMEWORKVERSION	QUANT	6.33	Framework Version
INSTRUMENTVERSION	LABEL	3.50	Instrument Version
COMPLIANCEVOLTAGE	IQUANT	0	Compliance Voltage
ZCURVE	TABLE
	Pt	Time	Freq	Zreal	Zimag	Zsig	Zmod	Zphz	Idc	Vdc	IERange
	#	s	Hz	ohm	ohm	V	ohm	°	A	V	#
	0	7	300046.9	109.2383	-18.27619	1	110.7566	-9.497948	6.770844E-005	-0.0028327	9
	1	10	238359.4	111.5916	-22.06705	1	113.7525	-11.18583	1.297086E-005	-0.0013895	9
	2	14	189328.1	114.0842	-26.2677	1	117.0692	-12.96628	-3.456396E-005	-0.0002845	9
	3	16	150421.9	117.1542	-31.32155	1	121.2689	-14.96814	-6.883822E-005	0.003071	9
	4	19	119484.4	120.5194	-36.83737	1	126.0235	-16.99604	-2.827753E-005	-0.0002517	9
	5	21	94921.88	124.6221	-43.27873	1	131.9232	-19.15107	2.511555E-006	0.0004555	9
	6	24	75421.88	129.3547	-50.67257	1	138.9257	-21.39194	1.18308E-005	0.0001545	9
	7	26	59859.37	135.0584	-59.34029	1	147.5196	-23.71914	3.292545E-006	0.0004453	9
	8	29	47578.12	141.7119	-68.76958	1	157.5167	-25.88625	1.392945E-005	-0.0006869	9
	9	31	37828.12	149.7979	-79.66421	1	169.6638	-28.00455	2.317054E-005	-0.0007193	9
	10	34	30046.88	159.1308	-91.92023	1	183.7714	-30.01242	-5.0392E-006	0.0007612	9
	11	36	23859.38	169.9581	-105.0981	1	199.8283	-31.73167	5.390108E-006	-0.0004624	9
	12	39	18984.38	181.9057	-120.2819	1	218.0766	-33.47396	2.531911E-005	-0.0004363	9
	13	41	15046.87	195.7087	-136.6589	1	238.6997	-34.92571	2.360175E-005	-0.0004468	9
	14	43	11953.13	210.4344	-156.3141	1	262.1387	-36.60556	-1.993768E-005	0.000643	9
	15	47	9515.62	224.7835	-177.2842	1	286.2819	-38.26245	2.414132E-005	-0.0004657	9
	16	51	7546.875	239.8454	-203.8732	1	314.7858	-40.36518	-1.588176E-005	0.0002227	9
	17	53	5928.309	256.4759	-235.5765	1	348.2473	-42.56789	-1.227746E-005	0.0008648	9
	18	55	4733.456	272.7638	-273.3551	1	386.1646	-45.06203	1.998824E-005	-0.0001083	9
	19	58	3796.875	289.0506	-316.2025	1	428.409	-47.5686	5.840433E-007	-0.0008381	8
	20	60	2987.132	308.145	-377.4158	1	487.233	-50.76973	7.522367E-006	-0.0010153	8
	21	62	2390.625	329.109	-446.5741	1	554.7442	-53.61113	7.88508E-007	-0.0008404	8
	22	65	1884.191	353.7026	-539.6043	1	645.1964	-56.75575	7.796742E-006	-0.0011133	8
	23	67	1516.544	380.3032	-644.9478	1	748.7243	-59.47363	-2.955597E-006	0.0029262	8
	24	69	1193.986	412.813	-783.6391	1	885.7228	-62.2202	3.01189E-006	-0.0014111	8
	25	72	946.5144	450.7545	-952.967	1	1054.194	-64.6858	7.753817E-006	-0.0013872	8
	26	74	751.7689	499.9939	-1157.151	1	1260.552	-66.63128	-1.780263E-006	-6.110982E-005	8
	27	76	597.4265	554.8403	-1409.126	1	1514.425	-68.50806	-4.629227E-006	0.0031007	8
	28	79	477.4305	618.9067	-1704.839	1	1813.704	-70.04762	2.872662E-007	0.0006682	8
	29	81	376.6741	702.2422	-2091.205	1	2205.965	-71.43757	3.088786E-007	0.000643	8
	30	84	298.2954	802.5406	-2558.108	1	2681.042	-72.58209	2.926299E-007	0.000664	8
	31	86	237.7717	921.3948	-3113.832	1	3247.293	-73.51631	2.769323E-007	0.0006726	8
	32	88	189.0121	1067.333	-3800.148	1	3947.192	-74.31174	2.773088E-007	0.0006661	8
	33	91	150.2404	1249.533	-4648.305	1	4813.323	-74.95374	1.943813E-008	0.0006434	7
	34	93	119.1737	1469.135	-5686.079	1	5872.806	-75.51308	1.83442E-008	0.0006468	7
	35	95	95.0169	1730.922	-6926.959	1	7139.948	-75.97012	1.764303E-008	0.0006458	7
	36	98	75.60484	2054.243	-8454.828	1	8700.807	-76.34364	1.939315E-008	0.0006359	7
	37	101	54.50582	2649.634	-11248.29	1	11556.15	-76.74512	1.886398E-008	0.0006382	7
	38	103	45.95588	3031.438	-13055.51	1	13402.83	-76.92779	2.044801E-008	0.0006381	7
	39	105	37.20238	3602.523	-15703.19	1	16111.13	-77.07916	1.757583E-008	0.0006385	7
	40	108	30.04808	4291.777	-18908.1	1	19389.05	-77.21163	1.90951E-008	0.0006403	7
	41	110	23.91582	5199.372	-23065.6	1	23644.35	-77.29689	1.843464E-008	0.0006337	7
	42	113	18.60119	6504.166	-28758.02	1	29484.37	-77.25589	1.548244E-008	0.0006446	7
	43	115	15.02404	7820.378	-34665.6	1	35536.77	-77.28719	1.875236E-008	0.0006532	7
	44	117	12.01923	9566.27	-42098.07	1	43171.3	-77.19764	-4.111983E-009	0.00068	6
	45	120	9.450605	11933.1	-51921.46	1	53275.11	-77.0565	-3.657849E-009	0.0006915	6
	46	122	7.512019	14812.09	-63423.7	1	65130.36	-76.85464	-3.802432E-009	0.0007036	6
	47	125	5.978954	18506.06	-77315.36	1	79499.3	-76.53905	-4.196607E-009	0.0006895	6
	48	129	4.734848	23332.74	-94776.8	1	97606.7	-76.1696	-2.844641E-009	0.0007122	6
	49	133	3.75601	29665.33	-115620.9	1	119365.9	-75.60979	-4.059315E-009	0.0006693	6
	50	138	3.004808	37579.18	-140033.3	1	144988	-74.9781	-3.578834E-009	0.0006739	6
	51	145	2.372217	48880.38	-170926.4	1	177778.3	-74.04089	-4.005273E-009	0.0007185	6
	52	149	1.878005	63592.77	-208196.1	1	217691.7	-73.01489	-4.547374E-009	0.0006708	6
	53	154	1.512097	81317.38	-248702.2	1	261658.7	-71.89397	-3.842231E-009	0.000585	6
	54	159	1.201923	106722.1	-298917.9	1	317398	-70.35201	-4.249946E-009	0.0006764	6
	55	165	0.956633	139270.6	-356216.8	1	382474.4	-68.64592	-4.482433E-009	3.882223E-005	6
