EXPLAIN
TAG	EISPOT
TITLE	LABEL	Potentiostatic EIS	Test Identifier
DATE	LABEL	2/26/2021	Date
TIME	LABEL	18:42:47	Time
NOTES	NOTES	1	Notes...
	
PSTAT	PSTAT	REF3000-16137	Potentiostat
VDC	POTEN	0.00000E+000	T	DC Voltage (V)
FREQINIT	QUANT	3.00000E+005	Initial Freq. (Hz)
FREQFINAL	QUANT	1.00000E+000	Final Freq. (Hz)
PTSPERDEC	QUANT	1.00000E+001	Points/decade
VAC	QUANT	5.00000E+001	AC Voltage (mV rms)
AREA	QUANT	1.00000E+000	Sample Area (cm^2)
SPEED	SELECTOR	2	Optimize for:
ZGUESS	QUANT	1.00000E+003	Estimated Z (ohms)
EOC	QUANT	0	Open Circuit (V)
SEQUENCER	TOGGLE	TRUE	Run as Sequence
PSTATMODEL	IQUANT	5	Pstat Model
PSTATSECTION	LABEL	REF3000-16137	Pstat Section
PSTATSERIALNO	LABEL	16137	Pstat Serial Number
CTRLMODE	IQUANT	1	Control Mode
IESTAB	IQUANT	0	I/E Stability
CASPEED	IQUANT	1	Control Amp Speed
CONVENTION	IQUANT	1	Current Convention
ICHRANGE	IQUANT	2	Ich Range
ICHRANGEMODE	TOGGLE	F	Ich Auto Range
ICHOFFSETENABLE	TOGGLE	T	Ich Offset Enable
ICHOFFSET	QUANT	0	Ich Offset (V)
ICHFILTER	IQUANT	3	Ich Filter
VCHRANGE	IQUANT	2	Vch Range
VCHRANGEMODE	TOGGLE	F	Vch Auto Range
VCHOFFSETENABLE	TOGGLE	T	Vch Offset Enable
VCHOFFSET	QUANT	0	Vch Offset (V)
VCHFILTER	IQUANT	3	Vch Filter
ACHRANGE	IQUANT	2	Ach Range
ACHOFFSETENABLE	TOGGLE	F	Ach Offset Enable
ACHOFFSET	QUANT	0	Ach Offset (V)
ACHFILTER	IQUANT	3	Ach Filter
IERANGELOWERLIMIT	IQUANT	2	I/E Range Lower Limit
IERANGEMODE	TOGGLE	F	I/E AutoRange
IERANGE	IQUANT	11	I/E Range
POSFEEDENABLE	TOGGLE	F	Positive Feedback IR Comp
POSFEEDRESISTANCE	QUANT	0	Positive Feedback Resistance (ohm)
ACHSELECT	IQUANT	0	Ach Select
CABLEID	IQUANT	13	Cable ID
DCCALDATE	LABEL	7/31/2020	DC Calibration Date
ACCALDATE	LABEL	7/31/2020	AC Calibration Date
THERMOSELECT	IQUANT	1	Thermo Select
FRAMEWORKVERSION	QUANT	6.33	Framework Version
INSTRUMENTVERSION	LABEL	3.50	Instrument Version
COMPLIANCEVOLTAGE	IQUANT	0	Compliance Voltage
ZCURVE	TABLE
	Pt	Time	Freq	Zreal	Zimag	Zsig	Zmod	Zphz	Idc	Vdc	IERange
	#	s	Hz	ohm	ohm	V	ohm	°	A	V	#
	0	7	300046.9	78.20594	-14.88352	1	79.6096	-10.77521	4.777449E-005	-0.0008339	9
	1	10	238359.4	80.17065	-18.34078	1	82.24182	-12.88591	6.325838E-005	-0.0023589	9
	2	13	189328.1	82.37038	-22.20904	1	85.3119	-15.0895	5.122678E-007	0.0008706	9
	3	15	150421.9	84.97758	-26.32684	1	88.96231	-17.21346	-6.203796E-005	0.0026791	9
	4	18	119484.4	87.8596	-31.08824	1	93.19757	-19.48582	1.185939E-005	-0.0011025	9
	5	20	94921.88	91.59245	-36.33979	1	98.5381	-21.64096	-1.010398E-005	6.601255E-005	9
	6	23	75421.88	95.7044	-42.70591	1	104.8004	-24.04773	-4.420539E-006	0.0006024	9
	7	26	59859.37	100.7367	-49.76998	1	112.3607	-26.29213	-4.435655E-006	0.0006136	9
	8	28	47578.12	106.6725	-57.45226	1	121.1602	-28.30626	2.090021E-005	-0.0006389	9
	9	31	37828.12	113.5284	-66.02802	1	131.3331	-30.18225	2.286709E-005	-0.00058	9
	10	33	30046.88	121.2265	-75.37348	1	142.7482	-31.87158	-1.302617E-005	0.0001987	9
	11	36	23859.38	130.138	-85.77175	1	155.8611	-33.3882	1.736164E-005	-0.0006481	9
	12	38	18984.38	139.3745	-97.4758	1	170.0788	-34.96819	-1.86113E-005	0.0007451	9
	13	40	15046.87	149.4352	-110.5784	1	185.899	-36.50054	1.3988E-005	-0.0005864	9
	14	43	11953.13	160.2534	-125.9546	1	203.8277	-38.16634	-1.384051E-005	0.0001804	9
	15	45	9515.62	170.6619	-143.4797	1	222.9617	-40.0546	-1.032963E-005	8.887154E-005	9
	16	47	7546.875	182.4192	-165.8709	1	246.5562	-42.27975	-1.038525E-005	0.0008196	9
	17	50	5928.309	193.985	-194.8526	1	274.9504	-45.12783	3.642409E-006	-0.0003863	9
	18	52	4733.456	206.9213	-227.4566	1	307.4946	-47.70665	1.112194E-005	-0.0005597	9
	19	54	3796.875	220.0715	-266.2229	1	345.4072	-50.42138	-3.344468E-006	0.0006817	9
	20	56	2987.132	235.8402	-321.605	1	398.8112	-53.74657	4.058844E-006	0.0004207	9
	21	59	2390.625	252.1224	-380.8413	1	456.7339	-56.49487	-2.189336E-006	0.0022905	8
	22	61	1884.191	274.1779	-460.8099	1	536.2083	-59.24773	5.072047E-006	-0.0012688	8
	23	63	1516.544	296.2453	-549.9211	1	624.6395	-61.68843	-4.333659E-006	0.0025097	8
	24	66	1193.986	326.009	-671.1632	1	746.1514	-64.09242	-4.854835E-006	0.0020649	8
	25	68	946.5144	360.709	-815.42	1	891.6394	-66.13733	-4.408715E-006	0.0014487	8
	26	71	751.7689	400.3755	-987.88	1	1065.931	-67.93791	1.636537E-006	0.0013362	8
	27	73	597.4265	452.0822	-1202.406	1	1284.585	-69.39468	5.154589E-006	-0.0001158	8
	28	75	477.4305	510.4602	-1454.031	1	1541.031	-70.65558	3.491714E-007	0.0006675	8
	29	77	376.6741	585.0551	-1780.215	1	1873.888	-71.80726	3.374879E-007	0.0006716	8
	30	80	298.2954	674.167	-2174.117	1	2276.243	-72.77197	3.872055E-007	0.0006464	8
	31	82	237.7717	778.9889	-2640.797	1	2753.295	-73.56487	3.434424E-007	0.0006702	8
	32	85	189.0121	907.1118	-3217.922	1	3343.333	-74.25719	3.523857E-007	0.0006792	8
	33	87	150.2404	1062.018	-3921.391	1	4062.658	-74.84628	3.524659E-007	0.0006651	8
	34	89	119.1737	1256.334	-4799.877	1	4961.572	-75.33228	2.137373E-008	0.0006496	7
	35	92	95.0169	1481.81	-5838.203	1	6023.319	-75.75834	2.150752E-008	0.0006455	7
	36	94	75.60484	1758.62	-7117.723	1	7331.761	-76.12154	2.173146E-008	0.0006406	7
	37	97	54.50582	2267.02	-9456.674	1	9724.61	-76.51906	2.144012E-008	0.000639	7
	38	99	45.95588	2590.376	-10965.79	1	11267.59	-76.70904	2.227856E-008	0.0006442	7
	39	102	37.20238	3075.754	-13186.83	1	13540.78	-76.8708	2.17801E-008	0.0006385	7
	40	104	30.04808	3665.457	-15877.03	1	16294.65	-77.00014	2.169156E-008	0.0006384	7
	41	106	23.91582	4437.351	-19365.77	1	19867.64	-77.09438	1.971751E-008	0.0006351	7
	42	109	18.60119	5509.377	-24103.68	1	24725.3	-77.12508	1.957297E-008	0.0006382	7
	43	111	15.02404	6670.974	-29082.47	1	29837.77	-77.08091	2.195939E-008	0.0006041	7
	44	113	12.01923	8166.721	-35331.98	1	36263.54	-76.98508	2.115766E-008	0.0006331	7
	45	116	9.450605	10245.79	-43580.54	1	44768.73	-76.77	-8.905351E-009	0.0006934	6
	46	118	7.512019	12837.24	-53221.86	1	54748.16	-76.43914	-9.353414E-009	0.0007043	6
	47	121	5.978954	16117.49	-64872.7	1	66844.9	-76.04748	-9.541413E-009	0.0006798	6
	48	126	4.734848	20542.77	-79366.09	1	81981.59	-75.4883	-1.064982E-008	0.0006698	6
	49	129	3.75601	26407.56	-96751	1	100290.1	-74.73335	-9.010957E-009	0.0007008	6
	50	135	3.004808	33831.96	-116783.3	1	121585.2	-73.84377	-9.617944E-009	0.0006875	6
	51	141	2.372217	44555.48	-142093.9	1	148915.6	-72.59047	-9.530127E-009	0.0006349	6
	52	145	1.878005	58395.46	-172061	1	181700.3	-71.2534	-8.544134E-009	0.0006789	6
	53	150	1.512097	74960.58	-203606	1	216966.6	-69.78807	-9.142798E-009	0.0007201	6
	54	155	1.201923	98603.4	-242315.5	1	261609.3	-67.85754	-8.822733E-009	0.0006989	6
	55	162	0.956633	128026.5	-284895.8	1	312340.2	-65.8018	-1.066695E-008	3.681689E-005	6
