EXPLAIN
TAG	EISPOT
TITLE	LABEL	Potentiostatic EIS	Test Identifier
DATE	LABEL	2/26/2021	Date
TIME	LABEL	18:39:55	Time
NOTES	NOTES	1	Notes...
	
PSTAT	PSTAT	REF3000-16137	Potentiostat
VDC	POTEN	0.00000E+000	T	DC Voltage (V)
FREQINIT	QUANT	3.00000E+005	Initial Freq. (Hz)
FREQFINAL	QUANT	1.00000E+000	Final Freq. (Hz)
PTSPERDEC	QUANT	1.00000E+001	Points/decade
VAC	QUANT	5.00000E+001	AC Voltage (mV rms)
AREA	QUANT	1.00000E+000	Sample Area (cm^2)
SPEED	SELECTOR	2	Optimize for:
ZGUESS	QUANT	1.00000E+003	Estimated Z (ohms)
EOC	QUANT	0	Open Circuit (V)
SEQUENCER	TOGGLE	TRUE	Run as Sequence
PSTATMODEL	IQUANT	5	Pstat Model
PSTATSECTION	LABEL	REF3000-16137	Pstat Section
PSTATSERIALNO	LABEL	16137	Pstat Serial Number
CTRLMODE	IQUANT	1	Control Mode
IESTAB	IQUANT	0	I/E Stability
CASPEED	IQUANT	1	Control Amp Speed
CONVENTION	IQUANT	1	Current Convention
ICHRANGE	IQUANT	2	Ich Range
ICHRANGEMODE	TOGGLE	F	Ich Auto Range
ICHOFFSETENABLE	TOGGLE	T	Ich Offset Enable
ICHOFFSET	QUANT	0	Ich Offset (V)
ICHFILTER	IQUANT	3	Ich Filter
VCHRANGE	IQUANT	2	Vch Range
VCHRANGEMODE	TOGGLE	F	Vch Auto Range
VCHOFFSETENABLE	TOGGLE	T	Vch Offset Enable
VCHOFFSET	QUANT	0	Vch Offset (V)
VCHFILTER	IQUANT	3	Vch Filter
ACHRANGE	IQUANT	2	Ach Range
ACHOFFSETENABLE	TOGGLE	F	Ach Offset Enable
ACHOFFSET	QUANT	0	Ach Offset (V)
ACHFILTER	IQUANT	3	Ach Filter
IERANGELOWERLIMIT	IQUANT	2	I/E Range Lower Limit
IERANGEMODE	TOGGLE	F	I/E AutoRange
IERANGE	IQUANT	11	I/E Range
POSFEEDENABLE	TOGGLE	F	Positive Feedback IR Comp
POSFEEDRESISTANCE	QUANT	0	Positive Feedback Resistance (ohm)
ACHSELECT	IQUANT	0	Ach Select
CABLEID	IQUANT	13	Cable ID
DCCALDATE	LABEL	7/31/2020	DC Calibration Date
ACCALDATE	LABEL	7/31/2020	AC Calibration Date
THERMOSELECT	IQUANT	1	Thermo Select
FRAMEWORKVERSION	QUANT	6.33	Framework Version
INSTRUMENTVERSION	LABEL	3.50	Instrument Version
COMPLIANCEVOLTAGE	IQUANT	0	Compliance Voltage
ZCURVE	TABLE
	Pt	Time	Freq	Zreal	Zimag	Zsig	Zmod	Zphz	Idc	Vdc	IERange
	#	s	Hz	ohm	ohm	V	ohm	°	A	V	#
	0	7	300046.9	71.08552	-13.80229	1	72.41308	-10.98809	-6.390777E-005	0.0023116	9
	1	10	238359.4	72.98888	-17.25037	1	74.99967	-13.29742	6.424792E-005	-0.0025849	9
	2	14	189328.1	74.9349	-20.97577	1	77.81531	-15.63799	1.346024E-005	0.0004433	9
	3	16	150421.9	77.52386	-25.06713	1	81.47583	-17.91847	-1.411616E-006	0.0007086	9
	4	19	119484.4	80.44137	-29.59011	1	85.71107	-20.19589	5.863944E-005	-0.0021611	9
	5	21	94921.88	83.89461	-34.45036	1	90.69252	-22.32495	-1.481149E-005	0.0002813	9
	6	24	75421.88	87.8536	-40.47808	1	96.7302	-24.73764	-1.908106E-005	0.0006271	9
	7	26	59859.37	92.68072	-46.99354	1	103.9139	-26.88718	-9.689566E-006	0.0007906	9
	8	29	47578.12	98.2174	-54.17836	1	112.1693	-28.88187	-1.543429E-005	0.000775	9
	9	31	37828.12	104.9198	-62.0814	1	121.9109	-30.61294	-3.805902E-006	-0.0001248	9
	10	34	30046.88	112.2383	-70.83418	1	132.7212	-32.25624	-1.461838E-005	0.0008332	9
	11	36	23859.38	120.4557	-80.46976	1	144.8619	-33.74467	1.696636E-005	-0.0006862	9
	12	39	18984.38	128.9798	-91.06048	1	157.8854	-35.22232	1.915376E-005	-0.0001112	9
	13	41	15046.87	138.247	-103.3993	1	172.6373	-36.79397	1.913305E-005	-0.0005891	9
	14	43	11953.13	147.7861	-117.9114	1	189.0603	-38.58468	2.230467E-005	-0.0004429	9
	15	46	9515.62	157.5886	-134.6949	1	207.3087	-40.52135	-1.507643E-005	0.0004083	9
	16	48	7546.875	167.7978	-156.0388	1	229.138	-42.92042	-4.014752E-006	0.0007531	9
	17	50	5928.309	179.0563	-184.1206	1	256.8298	-45.79891	-3.862654E-006	0.0006429	9
	18	53	4733.456	190.5462	-215.7254	1	287.8286	-48.54644	2.26468E-005	-0.0004147	9
	19	55	3796.875	203.5394	-252.2617	1	324.1361	-51.10139	6.716824E-006	-0.0004207	9
	20	57	2987.132	217.7157	-304.9311	1	374.6773	-54.47379	1.294631E-005	0.0001172	9
	21	60	2390.625	233.6869	-361.8131	1	430.7184	-57.1425	2.208725E-006	-0.0007164	8
	22	62	1884.191	254.9273	-437.8421	1	506.6494	-59.79051	-2.678813E-006	0.0008045	8
	23	64	1516.544	276.2248	-523.4233	1	591.8378	-62.17817	-1.832336E-006	0.002155	8
	24	67	1193.986	305.4349	-636.9021	1	706.3531	-64.37933	-4.12291E-006	0.0014351	8
	25	69	946.5144	338.743	-772.4359	1	843.4477	-66.32069	5.606192E-006	-0.0010788	8
	26	71	751.7689	376.0957	-938.6517	1	1011.195	-68.16518	-2.649326E-006	0.0008028	8
	27	74	597.4265	426.1835	-1139.136	1	1216.249	-69.48772	-2.741222E-006	0.0008696	8
	28	76	477.4305	481.7975	-1379.868	1	1461.563	-70.75274	3.682061E-007	0.0006762	8
	29	78	376.6741	553.067	-1688.538	1	1776.807	-71.8642	3.677113E-007	0.0006775	8
	30	81	298.2954	637.8267	-2061.078	1	2157.514	-72.80466	3.834647E-007	0.0006689	8
	31	83	237.7717	737.3052	-2502.982	1	2609.317	-73.58657	3.96524E-007	0.0006534	8
	32	85	189.0121	858.5893	-3048.894	1	3167.48	-74.27242	3.68776E-007	0.0006715	8
	33	88	150.2404	1005.398	-3715.354	1	3848.984	-74.85806	3.702677E-007	0.0006673	8
	34	90	119.1737	1188.007	-4545.893	1	4698.564	-75.35409	2.002025E-008	0.0006513	7
	35	93	95.0169	1400.828	-5530.039	1	5704.704	-75.78527	2.174861E-008	0.0006494	7
	36	95	75.60484	1662.545	-6742.176	1	6944.134	-76.14785	1.933837E-008	0.0006515	7
	37	98	54.50582	2140.006	-8957.776	1	9209.853	-76.56391	2.031215E-008	0.0006442	7
	38	100	45.95588	2444.397	-10394.99	1	10678.52	-76.76722	2.125815E-008	0.0006514	7
	39	103	37.20238	2900.264	-12494.81	1	12826.99	-76.93206	1.827117E-008	0.0006564	7
	40	105	30.04808	3459.849	-15054.51	1	15446.97	-77.05695	2.000922E-008	0.0006397	7
	41	107	23.91582	4190.929	-18390.67	1	18862.15	-77.16247	2.103944E-008	0.0006407	7
	42	110	18.60119	5219.091	-22905.82	1	23492.89	-77.16429	2.098318E-008	0.0006534	7
	43	112	15.02404	6309.272	-27604.04	1	28315.9	-77.12544	2.117588E-008	0.0006481	7
	44	114	12.01923	7770.441	-33570.05	1	34457.62	-76.96729	2.102119E-008	0.0006498	7
	45	117	9.450605	9803.31	-41362.03	1	42507.91	-76.66624	1.8227E-008	0.0006434	7
	46	119	7.512019	12282.64	-50501	1	51973.21	-76.33018	-1.374124E-008	0.0006814	6
	47	122	5.978954	15502.15	-61562.46	1	63484.28	-75.8661	-1.290796E-008	0.000693	6
	48	127	4.734848	19878.43	-75312.5	1	77891.75	-75.21422	-1.22412E-008	0.0007029	6
	49	130	3.75601	25623.5	-91707.07	1	95219.5	-74.38932	-1.339207E-008	0.0007002	6
	50	135	3.004808	32983.67	-110642.1	1	115453.9	-73.40008	-1.189867E-008	0.0006386	6
	51	142	2.372217	43243.22	-134292.7	1	141083.3	-72.15107	-1.323393E-008	0.0006461	6
	52	146	1.878005	57224.84	-161865.2	1	171682.9	-70.52977	-1.31888E-008	0.0006991	6
	53	151	1.512097	73972.04	-191078.4	1	204897.1	-68.83712	-1.245307E-008	0.0005832	6
	54	156	1.201923	96581.1	-226213.9	1	245968.8	-66.88013	-1.294229E-008	0.0007172	6
	55	162	0.956633	124682.5	-264964.2	1	292834	-64.80004	-1.347117E-008	5.324208E-005	6
