EXPLAIN
TAG	EISPOT
TITLE	LABEL	Potentiostatic EIS	Test Identifier
DATE	LABEL	2/26/2021	Date
TIME	LABEL	19:03:03	Time
NOTES	NOTES	1	Notes...
	
PSTAT	PSTAT	REF3000-16137	Potentiostat
VDC	POTEN	0.00000E+000	T	DC Voltage (V)
FREQINIT	QUANT	3.00000E+005	Initial Freq. (Hz)
FREQFINAL	QUANT	1.00000E+000	Final Freq. (Hz)
PTSPERDEC	QUANT	1.00000E+001	Points/decade
VAC	QUANT	5.00000E+001	AC Voltage (mV rms)
AREA	QUANT	1.00000E+000	Sample Area (cm^2)
SPEED	SELECTOR	2	Optimize for:
ZGUESS	QUANT	1.00000E+003	Estimated Z (ohms)
EOC	QUANT	0	Open Circuit (V)
SEQUENCER	TOGGLE	TRUE	Run as Sequence
PSTATMODEL	IQUANT	5	Pstat Model
PSTATSECTION	LABEL	REF3000-16137	Pstat Section
PSTATSERIALNO	LABEL	16137	Pstat Serial Number
CTRLMODE	IQUANT	1	Control Mode
IESTAB	IQUANT	0	I/E Stability
CASPEED	IQUANT	1	Control Amp Speed
CONVENTION	IQUANT	1	Current Convention
ICHRANGE	IQUANT	2	Ich Range
ICHRANGEMODE	TOGGLE	F	Ich Auto Range
ICHOFFSETENABLE	TOGGLE	T	Ich Offset Enable
ICHOFFSET	QUANT	0	Ich Offset (V)
ICHFILTER	IQUANT	3	Ich Filter
VCHRANGE	IQUANT	2	Vch Range
VCHRANGEMODE	TOGGLE	F	Vch Auto Range
VCHOFFSETENABLE	TOGGLE	T	Vch Offset Enable
VCHOFFSET	QUANT	0	Vch Offset (V)
VCHFILTER	IQUANT	3	Vch Filter
ACHRANGE	IQUANT	2	Ach Range
ACHOFFSETENABLE	TOGGLE	F	Ach Offset Enable
ACHOFFSET	QUANT	0	Ach Offset (V)
ACHFILTER	IQUANT	3	Ach Filter
IERANGELOWERLIMIT	IQUANT	2	I/E Range Lower Limit
IERANGEMODE	TOGGLE	F	I/E AutoRange
IERANGE	IQUANT	11	I/E Range
POSFEEDENABLE	TOGGLE	F	Positive Feedback IR Comp
POSFEEDRESISTANCE	QUANT	0	Positive Feedback Resistance (ohm)
ACHSELECT	IQUANT	0	Ach Select
CABLEID	IQUANT	13	Cable ID
DCCALDATE	LABEL	7/31/2020	DC Calibration Date
ACCALDATE	LABEL	7/31/2020	AC Calibration Date
THERMOSELECT	IQUANT	1	Thermo Select
FRAMEWORKVERSION	QUANT	6.33	Framework Version
INSTRUMENTVERSION	LABEL	3.50	Instrument Version
COMPLIANCEVOLTAGE	IQUANT	0	Compliance Voltage
ZCURVE	TABLE
	Pt	Time	Freq	Zreal	Zimag	Zsig	Zmod	Zphz	Idc	Vdc	IERange
	#	s	Hz	ohm	ohm	V	ohm	°	A	V	#
	0	11	300046.9	196.9666	-27.53859	1	198.8825	-7.959128	7.596846E-005	-0.0031615	9
	1	14	238359.4	200.2497	-31.75642	1	202.7521	-9.011158	8.154258E-006	-0.0018137	9
	2	17	189328.1	204.362	-36.53136	1	207.6015	-10.13504	1.681367E-005	-0.0012534	9
	3	20	150421.9	207.4527	-41.73812	1	211.6098	-11.37567	-5.695369E-005	0.0007701	9
	4	23	119484.4	212.3146	-49.30207	1	217.9637	-13.07309	2.246397E-005	-0.0003963	9
	5	25	94921.88	217.6114	-57.04482	1	224.9641	-14.68904	-1.778715E-005	0.0003239	9
	6	28	75421.88	223.6616	-66.88537	1	233.4485	-16.64914	1.627149E-005	-1.573265E-005	9
	7	31	59859.37	230.6647	-77.59878	1	243.3676	-18.59365	1.134099E-005	0.0003029	9
	8	33	47578.12	239.2568	-90.63558	1	255.8488	-20.74776	-1.703471E-005	0.0002469	9
	9	37	37828.12	249.3117	-105.2649	1	270.6234	-22.89054	2.165316E-005	-0.0008298	9
	10	40	30046.88	260.8771	-122.7769	1	288.3245	-25.20314	2.540477E-005	-0.000774	9
	11	43	23859.38	274.7629	-142.3428	1	309.4449	-27.38671	7.230946E-006	-0.0005517	9
	12	45	18984.38	290.8509	-165.0295	1	334.4084	-29.57068	-2.260247E-005	0.0005288	9
	13	47	15046.87	310.3571	-188.9359	1	363.3433	-31.33178	-1.521829E-005	0.0001674	9
	14	50	11953.13	332.2469	-217.2712	1	396.9821	-33.18248	-2.332932E-005	0.0010709	9
	15	52	9515.62	355.8339	-246.6376	1	432.9525	-34.72683	-2.860938E-006	0.0038643	8
	16	55	7546.875	381.8256	-282.2512	1	474.8226	-36.47236	1.040014E-006	-0.0017558	8
	17	57	5928.309	410.8687	-323.5125	1	522.9469	-38.21642	-9.496157E-006	0.0037779	8
	18	59	4733.456	439.2754	-368.3122	1	573.251	-39.97828	1.096836E-005	-0.0017095	8
	19	62	3796.875	466.5565	-423.4457	1	630.0645	-42.22682	9.423401E-006	-0.0030925	8
	20	64	2987.132	498.6626	-494.0178	1	701.9387	-44.73191	9.157367E-006	-0.002992	8
	21	66	2390.625	527.9515	-576.8109	1	781.9486	-47.53232	8.341449E-006	-0.0002938	8
	22	69	1884.191	559.2846	-684.3873	1	883.8469	-50.74414	-7.367485E-006	0.0044051	8
	23	71	1516.544	597.3517	-809.1321	1	1005.745	-53.56295	-5.685767E-006	0.0005257	8
	24	73	1193.986	639.9617	-980.056	1	1170.496	-56.85607	-7.961025E-006	0.0017136	8
	25	76	946.5144	690.0448	-1181.063	1	1367.872	-59.70409	7.526076E-006	-0.003174	8
	26	78	751.7689	743.0496	-1432.06	1	1613.356	-62.57666	-5.605283E-006	0.0005243	8
	27	81	597.4265	809.3582	-1738.962	1	1918.085	-65.0415	-9.817271E-006	0.0038152	8
	28	84	477.4305	882.7361	-2108.886	1	2286.181	-67.28682	1.289623E-007	0.0006756	8
	29	86	376.6741	978.474	-2588.065	1	2766.856	-69.28981	1.288062E-007	0.0006615	8
	30	88	298.2954	1092.749	-3171.039	1	3354.041	-70.9859	1.559439E-007	0.0006573	8
	31	91	237.7717	1227.297	-3866.566	1	4056.672	-72.38991	1.374346E-007	0.0006554	8
	32	93	189.0121	1397.54	-4738.967	1	4940.741	-73.569	4.543044E-009	0.0006473	7
	33	95	150.2404	1599.092	-5799.917	1	6016.322	-74.58596	3.13138E-009	0.0006447	7
	34	98	119.1737	1847.829	-7115.261	1	7351.286	-75.44192	3.582954E-009	0.0006405	7
	35	100	95.0169	2143.18	-8693.254	1	8953.54	-76.15083	5.765391E-009	0.0006261	7
	36	103	75.60484	2510.516	-10641.23	1	10933.36	-76.72531	4.14584E-009	0.0006292	7
	37	105	54.50582	3186.768	-14214.17	1	14567.02	-77.36343	4.267748E-009	0.0006416	7
	38	108	45.95588	3626.076	-16544.97	1	16937.66	-77.63823	5.024787E-009	0.0006481	7
	39	110	37.20238	4273.708	-19953.46	1	20406.01	-77.91083	4.551916E-009	0.0006457	7
	40	112	30.04808	5075.833	-24113.07	1	24641.51	-78.11271	4.899247E-009	0.0006291	7
	41	115	23.91582	6161.919	-29552.59	1	30188.16	-78.22218	2.874946E-009	0.0006419	7
	42	117	18.60119	7585.632	-36921.39	1	37692.59	-78.38994	3.201132E-009	0.0006446	7
	43	120	15.02404	9190.182	-44589.43	1	45526.66	-78.35403	-1.618419E-009	0.000683	6
	44	122	12.01923	11216.46	-54345.29	1	55490.72	-78.33833	-9.272929E-010	0.0006408	6
	45	125	9.450605	13913.82	-67224.51	1	68649.32	-78.3063	-1.492118E-009	0.0007105	6
	46	127	7.512019	17286.02	-82317.87	1	84113.24	-78.14071	-1.17253E-009	0.0007046	6
	47	130	5.978954	21506.15	-100650.2	1	102922.2	-77.93886	-1.5409E-009	0.0006847	6
	48	134	4.734848	26985	-123685.9	1	126595.3	-77.69243	-7.603684E-010	0.0006833	6
	49	138	3.75601	34029.48	-151565.2	1	155338.4	-77.34577	-1.36208E-009	0.0006287	6
	50	143	3.004808	42773.85	-184316.2	1	189214.3	-76.93476	-1.37022E-009	0.000652	6
	51	150	2.372217	54675.33	-226137.6	1	232653.4	-76.40793	-1.528761E-009	0.0006521	6
	52	154	1.878005	70745.95	-277172.1	1	286058.3	-75.68143	-1.404315E-009	0.0006394	6
	53	159	1.512097	89493.14	-333983.3	1	345765.6	-74.99958	-1.482263E-009	0.0005741	6
	54	164	1.201923	116390.6	-406009.6	1	422363.1	-74.00401	-1.774628E-009	0.0006739	6
	55	170	0.956633	151234.1	-490993	1	513756.7	-72.88029	-2.313173E-009	1.967113E-005	5
