EXPLAIN
TAG	EISPOT
TITLE	LABEL	Potentiostatic EIS	Test Identifier
DATE	LABEL	2/26/2021	Date
TIME	LABEL	20:26:14	Time
NOTES	NOTES	1	Notes...
	
PSTAT	PSTAT	REF3000-16137	Potentiostat
VDC	POTEN	0.00000E+000	T	DC Voltage (V)
FREQINIT	QUANT	3.00000E+005	Initial Freq. (Hz)
FREQFINAL	QUANT	1.00000E+000	Final Freq. (Hz)
PTSPERDEC	QUANT	1.00000E+001	Points/decade
VAC	QUANT	5.00000E+001	AC Voltage (mV rms)
AREA	QUANT	1.00000E+000	Sample Area (cm^2)
SPEED	SELECTOR	2	Optimize for:
ZGUESS	QUANT	1.00000E+003	Estimated Z (ohms)
EOC	QUANT	0	Open Circuit (V)
SEQUENCER	TOGGLE	TRUE	Run as Sequence
PSTATMODEL	IQUANT	5	Pstat Model
PSTATSECTION	LABEL	REF3000-16137	Pstat Section
PSTATSERIALNO	LABEL	16137	Pstat Serial Number
CTRLMODE	IQUANT	1	Control Mode
IESTAB	IQUANT	0	I/E Stability
CASPEED	IQUANT	1	Control Amp Speed
CONVENTION	IQUANT	1	Current Convention
ICHRANGE	IQUANT	2	Ich Range
ICHRANGEMODE	TOGGLE	F	Ich Auto Range
ICHOFFSETENABLE	TOGGLE	T	Ich Offset Enable
ICHOFFSET	QUANT	0	Ich Offset (V)
ICHFILTER	IQUANT	3	Ich Filter
VCHRANGE	IQUANT	2	Vch Range
VCHRANGEMODE	TOGGLE	F	Vch Auto Range
VCHOFFSETENABLE	TOGGLE	T	Vch Offset Enable
VCHOFFSET	QUANT	0	Vch Offset (V)
VCHFILTER	IQUANT	3	Vch Filter
ACHRANGE	IQUANT	2	Ach Range
ACHOFFSETENABLE	TOGGLE	F	Ach Offset Enable
ACHOFFSET	QUANT	0	Ach Offset (V)
ACHFILTER	IQUANT	3	Ach Filter
IERANGELOWERLIMIT	IQUANT	2	I/E Range Lower Limit
IERANGEMODE	TOGGLE	F	I/E AutoRange
IERANGE	IQUANT	11	I/E Range
POSFEEDENABLE	TOGGLE	F	Positive Feedback IR Comp
POSFEEDRESISTANCE	QUANT	0	Positive Feedback Resistance (ohm)
ACHSELECT	IQUANT	0	Ach Select
CABLEID	IQUANT	13	Cable ID
DCCALDATE	LABEL	7/31/2020	DC Calibration Date
ACCALDATE	LABEL	7/31/2020	AC Calibration Date
THERMOSELECT	IQUANT	1	Thermo Select
FRAMEWORKVERSION	QUANT	6.33	Framework Version
INSTRUMENTVERSION	LABEL	3.50	Instrument Version
COMPLIANCEVOLTAGE	IQUANT	0	Compliance Voltage
ZCURVE	TABLE
	Pt	Time	Freq	Zreal	Zimag	Zsig	Zmod	Zphz	Idc	Vdc	IERange
	#	s	Hz	ohm	ohm	V	ohm	°	A	V	#
	0	14	300046.9	-50.14528	-4886.087	1	4886.344	-90.588	-8.916842E-005	0.0021212	9
	1	28	238359.4	5.633613	-5982.043	1	5982.045	-89.94604	-8.960825E-005	0.0021874	9
	2	44	189328.1	-1.928751	-7417.107	1	7417.108	-90.0149	-8.968772E-005	0.0043312	9
	3	51	150421.9	-90.37331	-9598.27	1	9598.7	-90.53946	8.733297E-005	-0.0023563	9
	4	64	119484.4	-204.2239	-11552.09	1	11553.89	-91.0128	7.585077E-005	-0.0013931	9
	5	72	94921.88	529.9068	-14763.7	1	14773.2	-87.94439	-2.609E-005	0.0075304	8
	6	81	75421.88	565.6146	-18283.43	1	18292.17	-88.22807	-2.446568E-005	0.0109835	8
	7	89	59859.37	701.3354	-23134.33	1	23144.96	-88.26357	-2.654849E-005	0.0096019	8
	8	98	47578.12	1166.649	-28768.52	1	28792.16	-87.67776	8.177493E-006	0.0042058	8
	9	108	37828.12	4033.569	-37346.39	1	37563.58	-83.83571	-5.231895E-006	0.0264083	7
	10	115	30046.88	1829.221	-45648.06	1	45684.7	-87.70525	-2.017347E-005	0.0028006	8
	11	124	23859.38	907.782	-56118.23	1	56125.57	-89.07325	-2.457439E-005	0.010945	8
	12	130	18984.38	-900.9589	-74952.94	1	74958.35	-90.68868	8.331266E-006	0.0042464	8
	13	137	15046.87	-4813.733	-91247.88	1	91374.76	-93.01981	-1.207477E-005	0.0102906	8
	14	144	11953.13	4034.25	-114757.2	1	114828.1	-87.98662	7.607743E-006	-0.0184402	7
	15	151	9515.62	6308.793	-143521.5	1	143660	-87.48306	7.701169E-006	-0.024415	7
	16	156	7546.875	6354.477	-180991.5	1	181103	-87.98921	-7.285272E-006	0.0236944	7
	17	162	5928.309	-23854.42	-236831.2	1	238029.5	-95.7516	5.417803E-006	-0.0268101	7
	18	169	4733.456	-55782.29	-205183.3	1	212630.8	-105.2092	-2.647283E-005	0.0095585	8
	19	178	3796.875	3631.385	-413553.6	1	413569.6	-89.4969	-2.59241E-005	0.0074335	8
	20	184	2987.132	-139473.1	-492297.6	1	511673.4	-105.818	-9.252012E-006	-0.0020848	8
	21	192	2390.625	30921.55	-582350.6	1	583171	-86.96057	-6.533649E-006	0.0259121	7
	22	199	1884.191	277411.7	-765078.3	1	813819.4	-70.06973	-6.542281E-006	0.0258709	7
	23	206	1516.544	-358936.9	271583.3	1	450103.6	142.8877	2.312934E-005	-0.0026929	8
	24	214	1193.986	-216188	-1716429	1	1729990	-97.1787	2.758619E-006	0.0086236	7
	25	222	946.5144	-174646.1	-1249129	1	1261279	-97.9592	7.646951E-006	-0.0244416	7
	26	227	751.7689	673227.4	-486902.6	1	830848.5	-35.87583	-1.871387E-006	0.0220531	7
	27	233	597.4265	203337.1	-2095250	1	2105094	-84.45699	7.474649E-007	-0.0165049	6
	28	237	477.4305	75487.57	-2837796	1	2838800	-88.47625	-6.739609E-009	0.000647	6
	29	242	376.6741	464111.8	-3722965	1	3751783	-82.89406	-5.617607E-010	0.0006174	5
	30	246	298.2954	511063.3	-4592431	1	4620780	-83.65003	-6.931911E-010	0.0006262	5
	31	250	237.7717	548955.6	-5710455	1	5736780	-84.50893	-7.031778E-010	0.0006494	5
	32	254	189.0121	522799.9	-7222489	1	7241386	-85.85986	-7.973699E-010	0.0007184	5
	33	258	150.2404	628772.1	-9080382	1	9102126	-86.03887	-8.079746E-010	0.0007147	5
	34	261	119.1737	1662558	-1.062757E+007	1	1.075683E+007	-81.10882	-6.1846E-010	0.0006531	5
	35	264	95.0169	569776.9	-1.474481E+007	1	1.475582E+007	-87.78705	-7.701954E-010	0.0007037	5
	36	266	75.60484	1241369	-2.002395E+007	1	2.006239E+007	-86.45253	-8.243437E-010	0.0007182	5
	37	269	54.50582	2114370	-2.372796E+007	1	2.382198E+007	-84.90789	-6.955074E-010	0.0006171	5
	38	272	45.95588	5297033	-2.968842E+007	1	3.015727E+007	-79.88369	-6.594446E-010	0.000718	5
	39	276	37.20238	836586.8	-4.166531E+007	1	4.167371E+007	-88.84973	-7.581325E-010	0.0006533	5
	40	280	30.04808	2636330	-4.559362E+007	1	4.566978E+007	-86.69071	-4.442443E-011	0.0006282	4
	41	284	23.91582	2297286	-4.986582E+007	1	4.991871E+007	-87.36229	-5.568773E-012	0.0007029	4
	42	288	18.60119	-3713688	-1.238989E+008	1	1.239546E+008	-91.71684	6.067882E-011	0.0006866	4
	43	291	15.02404	9.67868E+006	-8.997928E+007	1	9.049833E+007	-83.86055	-5.266239E-011	0.0006778	4
	44	295	12.01923	1.020941E+007	-1.064007E+008	1	1.068894E+008	-84.51911	-5.106612E-011	0.0006271	4
	45	299	9.450605	-1.133719E+007	-1.458641E+008	1	1.463041E+008	-94.44434	-9.78593E-011	0.0006128	4
	46	303	7.512019	-2852659	-1.789783E+008	1	1.79001E+008	-90.91314	-8.423729E-011	0.0007018	4
	47	307	5.978954	-2.638622E+007	-2.148916E+008	1	2.165055E+008	-97.0002	-4.828184E-011	0.0006676	4
	48	312	4.734848	4.185556E+007	-2.946515E+008	1	2.976094E+008	-81.91516	-5.180351E-012	0.000727	3
	49	317	3.75601	5.117779E+007	-3.323212E+008	1	3.362388E+008	-81.24517	-7.225541E-010	0.0006352	5
	50	325	3.004808	9.234748E+007	-4.878401E+008	1	4.965038E+008	-79.28082	-7.550082E-010	0.0006567	5
	51	335	2.372217	4.897532E+007	-5.658016E+008	1	5.679172E+008	-85.05286	-6.065279E-012	0.0007654	3
	52	342	1.878005	5.119015E+007	-7.10703E+008	1	7.125441E+008	-85.88024	-5.698366E-012	0.000719	3
	53	351	1.512097	4.996926E+007	-8.804303E+008	1	8.818472E+008	-86.75163	-5.738174E-012	0.0008442	3
	54	357	1.201923	5.03578E+007	-1.101145E+009	1	1.102296E+009	-87.38156	-5.501861E-012	0.0007125	3
	55	370	0.956633	4.089693E+007	-1.36668E+009	1	1.367292E+009	-88.28597	-5.598176E-012	0.0001012	3
