EXPLAIN
TAG	EISPOT
TITLE	LABEL	Potentiostatic EIS	Test Identifier
DATE	LABEL	2/26/2021	Date
TIME	LABEL	18:57:11	Time
NOTES	NOTES	1	Notes...
	
PSTAT	PSTAT	REF3000-16137	Potentiostat
VDC	POTEN	0.00000E+000	T	DC Voltage (V)
FREQINIT	QUANT	3.00000E+005	Initial Freq. (Hz)
FREQFINAL	QUANT	1.00000E+000	Final Freq. (Hz)
PTSPERDEC	QUANT	1.00000E+001	Points/decade
VAC	QUANT	5.00000E+001	AC Voltage (mV rms)
AREA	QUANT	1.00000E+000	Sample Area (cm^2)
SPEED	SELECTOR	2	Optimize for:
ZGUESS	QUANT	1.00000E+003	Estimated Z (ohms)
EOC	QUANT	0	Open Circuit (V)
SEQUENCER	TOGGLE	TRUE	Run as Sequence
PSTATMODEL	IQUANT	5	Pstat Model
PSTATSECTION	LABEL	REF3000-16137	Pstat Section
PSTATSERIALNO	LABEL	16137	Pstat Serial Number
CTRLMODE	IQUANT	1	Control Mode
IESTAB	IQUANT	0	I/E Stability
CASPEED	IQUANT	1	Control Amp Speed
CONVENTION	IQUANT	1	Current Convention
ICHRANGE	IQUANT	2	Ich Range
ICHRANGEMODE	TOGGLE	F	Ich Auto Range
ICHOFFSETENABLE	TOGGLE	T	Ich Offset Enable
ICHOFFSET	QUANT	0	Ich Offset (V)
ICHFILTER	IQUANT	3	Ich Filter
VCHRANGE	IQUANT	2	Vch Range
VCHRANGEMODE	TOGGLE	F	Vch Auto Range
VCHOFFSETENABLE	TOGGLE	T	Vch Offset Enable
VCHOFFSET	QUANT	0	Vch Offset (V)
VCHFILTER	IQUANT	3	Vch Filter
ACHRANGE	IQUANT	2	Ach Range
ACHOFFSETENABLE	TOGGLE	F	Ach Offset Enable
ACHOFFSET	QUANT	0	Ach Offset (V)
ACHFILTER	IQUANT	3	Ach Filter
IERANGELOWERLIMIT	IQUANT	2	I/E Range Lower Limit
IERANGEMODE	TOGGLE	F	I/E AutoRange
IERANGE	IQUANT	11	I/E Range
POSFEEDENABLE	TOGGLE	F	Positive Feedback IR Comp
POSFEEDRESISTANCE	QUANT	0	Positive Feedback Resistance (ohm)
ACHSELECT	IQUANT	0	Ach Select
CABLEID	IQUANT	13	Cable ID
DCCALDATE	LABEL	7/31/2020	DC Calibration Date
ACCALDATE	LABEL	7/31/2020	AC Calibration Date
THERMOSELECT	IQUANT	1	Thermo Select
FRAMEWORKVERSION	QUANT	6.33	Framework Version
INSTRUMENTVERSION	LABEL	3.50	Instrument Version
COMPLIANCEVOLTAGE	IQUANT	0	Compliance Voltage
ZCURVE	TABLE
	Pt	Time	Freq	Zreal	Zimag	Zsig	Zmod	Zphz	Idc	Vdc	IERange
	#	s	Hz	ohm	ohm	V	ohm	°	A	V	#
	0	6	300046.9	142.9464	-21.93066	1	144.6189	-8.722238	5.192494E-005	-0.0005356	9
	1	10	238359.4	145.8078	-25.71077	1	148.0573	-10.00035	7.007483E-005	-0.0028784	9
	2	13	189328.1	148.5343	-30.55841	1	151.6451	-11.62543	9.769824E-006	0.0009132	9
	3	15	150421.9	152.3074	-35.56318	1	156.4043	-13.14286	-7.115436E-005	0.0031789	9
	4	19	119484.4	155.8654	-42.04911	1	161.4377	-15.09774	7.664177E-005	-0.0022976	9
	5	21	94921.88	160.5453	-49.05893	1	167.8737	-16.99194	1.359831E-005	-0.000716	9
	6	24	75421.88	165.6792	-57.70354	1	175.4403	-19.20245	-1.031428E-005	-3.511842E-005	9
	7	27	59859.37	172.1363	-67.42929	1	184.8719	-21.39129	2.519658E-005	-0.0004883	9
	8	29	47578.12	179.2045	-78.78336	1	195.7577	-23.73165	5.581343E-006	-0.0005171	9
	9	32	37828.12	188.256	-91.32268	1	209.237	-25.87795	-7.259762E-006	0.000759	9
	10	34	30046.88	198.6429	-105.5837	1	224.9598	-27.99177	-2.218011E-005	0.0007401	9
	11	37	23859.38	211.046	-122.3887	1	243.966	-30.11009	1.504018E-006	0.0005387	9
	12	39	18984.38	225.2506	-139.9884	1	265.2067	-31.86005	-1.941264E-005	0.0009719	9
	13	43	15046.87	242.3873	-159.6836	1	290.2593	-33.3767	1.979964E-005	-3.284502E-005	9
	14	46	11953.13	259.1772	-182.5083	1	316.9891	-35.15258	-1.863398E-005	0.0009468	9
	15	49	9515.62	278.4707	-207.7541	1	347.4301	-36.72491	1.327725E-005	-0.0006759	9
	16	51	7546.875	299.0716	-236.1016	1	381.0351	-38.28928	-1.712755E-005	0.0009631	9
	17	53	5928.309	318.5812	-271.5329	1	418.5978	-40.44159	-2.087485E-006	-0.0003537	8
	18	56	4733.456	339.7502	-311.8983	1	461.2058	-42.55262	3.688676E-006	-0.0019551	8
	19	58	3796.875	360.7797	-361.424	1	510.6754	-45.05112	3.93908E-007	-0.0011774	8
	20	60	2987.132	384.6191	-427.535	1	575.0809	-48.02482	-4.746923E-006	0.0007413	8
	21	63	2390.625	407.9911	-500.483	1	645.7089	-50.81326	3.228508E-006	-0.0021746	8
	22	65	1884.191	439.8768	-605.0923	1	748.0831	-53.98442	-2.110735E-006	-0.000331	8
	23	67	1516.544	465.6783	-718.2589	1	856.0094	-57.04291	1.004054E-006	-0.0013302	8
	24	70	1193.986	503.7695	-871.2383	1	1006.399	-59.96254	-6.721733E-006	0.0016698	8
	25	72	946.5144	544.9444	-1061.563	1	1193.264	-62.82668	-2.155792E-006	-0.0003348	8
	26	75	751.7689	594.7764	-1284.187	1	1415.237	-65.14859	3.667255E-006	-0.0019484	8
	27	77	597.4265	658.3364	-1561.711	1	1694.8	-67.14223	-7.673293E-006	0.002307	8
	28	80	477.4305	724.8176	-1895.339	1	2029.205	-69.0721	2.35508E-007	0.0006612	8
	29	82	376.6741	813.7819	-2326.628	1	2464.841	-70.72176	2.340755E-007	0.0006542	8
	30	84	298.2954	921.2289	-2849.209	1	2994.437	-72.08253	2.112406E-007	0.0006627	8
	31	87	237.7717	1047.53	-3471.482	1	3626.087	-73.20866	2.078619E-007	0.0006738	8
	32	89	189.0121	1207.839	-4250.539	1	4418.818	-74.1369	1.195745E-008	0.0006388	7
	33	92	150.2404	1397.953	-5196.252	1	5381.014	-74.94218	1.39879E-008	0.0006327	7
	34	94	119.1737	1633.259	-6366.774	1	6572.926	-75.61224	1.187324E-008	0.00064	7
	35	96	95.0169	1913.871	-7767.75	1	8000.052	-76.15876	1.147202E-008	0.0006494	7
	36	99	75.60484	2261	-9495.157	1	9760.64	-76.60609	1.424925E-008	0.0006303	7
	37	101	54.50582	2897.114	-12649.14	1	12976.68	-77.09969	1.400148E-008	0.0006247	7
	38	104	45.95588	3321.448	-14711.12	1	15081.42	-77.2772	1.402276E-008	0.0006376	7
	39	106	37.20238	3934.13	-17709.15	1	18140.87	-77.47501	1.522028E-008	0.0006032	7
	40	109	30.04808	4699.786	-21370.45	1	21881.14	-77.59696	1.240864E-008	0.0006476	7
	41	111	23.91582	5706.04	-26112.88	1	26729.03	-77.6738	1.395166E-008	0.000629	7
	42	114	18.60119	7081.029	-32598.37	1	33358.57	-77.74458	1.147917E-008	0.0006508	7
	43	116	15.02404	8564.646	-39294.7	1	40217.24	-77.70415	1.364411E-008	0.0006115	7
	44	118	12.01923	10472.62	-47761.14	1	48895.84	-77.63244	-2.529307E-009	0.000679	6
	45	121	9.450605	13052.09	-58993.42	1	60420.04	-77.52447	-2.359362E-009	0.0006988	6
	46	123	7.512019	16234.33	-72071.33	1	73877.13	-77.30579	-2.438745E-009	0.0006934	6
	47	126	5.978954	20190.03	-87974.95	1	90262	-77.07458	-2.20773E-009	0.000694	6
	48	130	4.734848	25515.07	-107899.6	1	110875.3	-76.69563	-1.847439E-009	0.0006816	6
	49	134	3.75601	32209.73	-131896.7	1	135772.6	-76.27672	-2.125256E-009	0.0006801	6
	50	139	3.004808	40603.29	-160044.6	1	165114.8	-75.76441	-1.475554E-009	0.000645	6
	51	146	2.372217	52178.71	-195908.1	1	202737.7	-75.08591	-2.231692E-009	0.0006342	6
	52	150	1.878005	67893.63	-238965.2	1	248422.8	-74.13935	-2.283087E-009	0.0006896	6
	53	155	1.512097	86807.2	-286572.1	1	299431.2	-73.14761	-1.934165E-009	0.0005752	6
	54	160	1.201923	112940.2	-346275.6	1	364228.3	-71.93591	-2.318576E-009	0.0007012	6
	55	166	0.956633	146971.1	-415750.1	1	440963.3	-70.53107	-3.964643E-009	2.882746E-005	5
