EXPLAIN
TAG	EISPOT
TITLE	LABEL	Potentiostatic EIS	Test Identifier
DATE	LABEL	2/26/2021	Date
TIME	LABEL	18:03:15	Time
NOTES	NOTES	1	Notes...
	
PSTAT	PSTAT	REF3000-16137	Potentiostat
VDC	POTEN	0.00000E+000	T	DC Voltage (V)
FREQINIT	QUANT	3.00000E+005	Initial Freq. (Hz)
FREQFINAL	QUANT	1.00000E+000	Final Freq. (Hz)
PTSPERDEC	QUANT	1.00000E+001	Points/decade
VAC	QUANT	5.00000E+001	AC Voltage (mV rms)
AREA	QUANT	1.00000E+000	Sample Area (cm^2)
SPEED	SELECTOR	2	Optimize for:
ZGUESS	QUANT	1.00000E+003	Estimated Z (ohms)
EOC	QUANT	0	Open Circuit (V)
SEQUENCER	TOGGLE	TRUE	Run as Sequence
PSTATMODEL	IQUANT	5	Pstat Model
PSTATSECTION	LABEL	REF3000-16137	Pstat Section
PSTATSERIALNO	LABEL	16137	Pstat Serial Number
CTRLMODE	IQUANT	1	Control Mode
IESTAB	IQUANT	0	I/E Stability
CASPEED	IQUANT	1	Control Amp Speed
CONVENTION	IQUANT	1	Current Convention
ICHRANGE	IQUANT	2	Ich Range
ICHRANGEMODE	TOGGLE	F	Ich Auto Range
ICHOFFSETENABLE	TOGGLE	T	Ich Offset Enable
ICHOFFSET	QUANT	0	Ich Offset (V)
ICHFILTER	IQUANT	3	Ich Filter
VCHRANGE	IQUANT	2	Vch Range
VCHRANGEMODE	TOGGLE	F	Vch Auto Range
VCHOFFSETENABLE	TOGGLE	T	Vch Offset Enable
VCHOFFSET	QUANT	0	Vch Offset (V)
VCHFILTER	IQUANT	3	Vch Filter
ACHRANGE	IQUANT	2	Ach Range
ACHOFFSETENABLE	TOGGLE	F	Ach Offset Enable
ACHOFFSET	QUANT	0	Ach Offset (V)
ACHFILTER	IQUANT	3	Ach Filter
IERANGELOWERLIMIT	IQUANT	2	I/E Range Lower Limit
IERANGEMODE	TOGGLE	F	I/E AutoRange
IERANGE	IQUANT	11	I/E Range
POSFEEDENABLE	TOGGLE	F	Positive Feedback IR Comp
POSFEEDRESISTANCE	QUANT	0	Positive Feedback Resistance (ohm)
ACHSELECT	IQUANT	0	Ach Select
CABLEID	IQUANT	13	Cable ID
DCCALDATE	LABEL	7/31/2020	DC Calibration Date
ACCALDATE	LABEL	7/31/2020	AC Calibration Date
THERMOSELECT	IQUANT	1	Thermo Select
FRAMEWORKVERSION	QUANT	6.33	Framework Version
INSTRUMENTVERSION	LABEL	3.50	Instrument Version
COMPLIANCEVOLTAGE	IQUANT	0	Compliance Voltage
ZCURVE	TABLE
	Pt	Time	Freq	Zreal	Zimag	Zsig	Zmod	Zphz	Idc	Vdc	IERange
	#	s	Hz	ohm	ohm	V	ohm	°	A	V	#
	0	7	300046.9	31.93609	-9.158954	1	33.22349	-16.00237	3.066014E-006	0.0002399	11
	1	11	238359.4	33.44703	-10.77275	1	35.13909	-17.85291	7.897777E-005	0.0002454	10
	2	15	189328.1	34.97216	-12.88576	1	37.27056	-20.22671	-0.000107	0.0004921	10
	3	17	150421.9	36.99625	-14.73361	1	39.82213	-21.71472	3.804936E-006	0.0005849	9
	4	20	119484.4	39.04197	-17.1669	1	42.64947	-23.73527	2.412211E-006	-0.0005826	9
	5	22	94921.88	41.56044	-19.55826	1	45.93251	-25.20158	-1.179119E-005	0.0005003	9
	6	25	75421.88	44.24508	-22.22717	1	49.51438	-26.67335	1.104247E-005	-0.0004107	9
	7	27	59859.37	47.12565	-25.09865	1	53.39259	-28.03932	-1.16761E-005	0.000524	9
	8	30	47578.12	50.2125	-28.02718	1	57.50494	-29.169	-2.331218E-006	-1.423604E-005	9
	9	32	37828.12	53.40461	-31.35846	1	61.93065	-30.42087	-2.545455E-006	0.0004931	9
	10	35	30046.88	56.78801	-35.17629	1	66.80007	-31.77538	-1.012215E-005	0.0005413	9
	11	37	23859.38	60.21767	-39.47308	1	72.00203	-33.24511	6.223791E-006	-0.0002892	9
	12	40	18984.38	63.73008	-44.84304	1	77.92574	-35.13176	4.379332E-006	0.0001799	9
	13	42	15046.87	67.41586	-51.3839	1	84.76558	-37.3144	-1.435415E-005	0.0004521	9
	14	44	11953.13	71.18362	-59.30977	1	92.65396	-39.80086	-8.716403E-006	0.0005486	9
	15	46	9515.62	75.35528	-68.80923	1	102.0447	-42.40017	1.438922E-005	-0.0004307	9
	16	49	7546.875	79.84379	-80.82636	1	113.6131	-45.35039	-4.967877E-006	0.0005373	9
	17	51	5928.309	85.14706	-96.4885	1	128.6859	-48.57294	6.097239E-006	-0.0002862	9
	18	53	4733.456	90.59118	-114.406	1	145.9298	-51.62643	-1.273217E-005	0.000313	9
	19	56	3796.875	96.7701	-135.5656	1	166.5608	-54.47981	1.138462E-005	-0.0003904	9
	20	58	2987.132	104.2172	-164.3502	1	194.6079	-57.62054	-1.205386E-005	0.00057	9
	21	60	2390.625	112.7433	-196.6345	1	226.6632	-60.17155	1.459569E-005	-0.0004238	9
	22	63	1884.191	122.0292	-239.5397	1	268.8315	-63.00426	1.583465E-007	0.0003569	9
	23	65	1516.544	133.2056	-286.9257	1	316.3385	-65.09686	1.526421E-005	-0.0004344	9
	24	67	1193.986	147.2794	-351.9832	1	381.554	-67.29423	-1.232821E-005	0.0005804	9
	25	70	946.5144	162.2357	-427.991	1	457.7081	-69.24012	1.559901E-006	3.618269E-005	8
	26	72	751.7689	182.1683	-521.2244	1	552.1415	-70.73544	-1.285174E-006	0.0008432	8
	27	74	597.4265	204.9376	-636.495	1	668.6743	-72.15257	-7.785958E-008	0.0011752	8
	28	77	477.4305	232.9029	-773.8919	1	808.1785	-73.25082	3.795925E-007	0.0006673	8
	29	79	376.6741	268.7269	-952.451	1	989.635	-74.244	3.852439E-007	0.0006625	8
	30	81	298.2954	312.4593	-1169.253	1	1210.283	-75.03847	3.799502E-007	0.0006707	8
	31	84	237.7717	365.4007	-1427.64	1	1473.66	-75.6435	3.878203E-007	0.0006642	8
	32	86	189.0121	432.4382	-1747.763	1	1800.466	-76.10276	3.912195E-007	0.000664	8
	33	88	150.2404	516.627	-2139.126	1	2200.628	-76.42232	3.975954E-007	0.0006633	8
	34	91	119.1737	624.5441	-2622.102	1	2695.454	-76.60266	3.854578E-007	0.0006692	8
	35	93	95.0169	758.603	-3199.278	1	3287.987	-76.66056	3.964701E-007	0.0006721	8
	36	96	75.60484	930.3754	-3906.554	1	4015.814	-76.60413	3.932837E-007	0.0006676	8
	37	98	54.50582	1263.411	-5201.25	1	5352.496	-76.34698	-1.016622E-007	0.0006341	7
	38	101	45.95588	1490.147	-6030.701	1	6212.077	-76.1206	-9.176657E-008	0.0006428	7
	39	103	37.20238	1831.766	-7229.743	1	7458.187	-75.78242	-1.024679E-007	0.0006475	7
	40	105	30.04808	2270.26	-8680.357	1	8972.329	-75.34317	-1.072164E-007	0.0006449	7
	41	108	23.91582	2869.595	-10537.77	1	10921.5	-74.76685	-1.095733E-007	0.000644	7
	42	110	18.60119	3724.563	-13012.21	1	13534.77	-74.02697	-9.461097E-008	0.0006445	7
	43	112	15.02404	4685.918	-15534.69	1	16226.04	-73.21447	-9.877648E-008	0.0006398	7
	44	115	12.01923	5932.915	-18683.53	1	19602.9	-72.38287	-1.062455E-007	0.000638	7
	45	117	9.450605	7856.519	-22549.46	1	23878.92	-70.79101	-1.08006E-007	0.0006506	7
	46	120	7.512019	10173.94	-26950.31	1	28806.74	-69.3181	-9.988317E-008	0.0006342	7
	47	122	5.978954	13122.32	-31894.47	1	34488.45	-67.63629	-9.953342E-008	0.0006478	7
	48	125	4.734848	16949.72	-37572.84	1	41219.06	-65.71909	-9.789225E-008	0.000618	7
	49	129	3.75601	21676.17	-43755.32	1	48830.16	-63.64642	-1.45448E-007	0.0007222	6
	50	132	3.004808	27062.38	-50283.19	1	57103.16	-61.71089	-1.480745E-007	0.0007142	6
	51	136	2.372217	33712.04	-57595.14	1	66736.06	-59.65838	-1.506451E-007	0.0006927	6
	52	140	1.878005	41234.68	-65526.39	1	77420.97	-57.81847	-1.497062E-007	0.0006831	6
	53	145	1.512097	48409.22	-72694.09	1	87337.76	-56.33914	-1.508164E-007	0.0008049	6
	54	150	1.201923	56884.6	-82088.25	1	99871.6	-55.27925	-1.488287E-007	0.0006864	6
	55	156	0.956633	66093.96	-93066.5	1	114148.1	-54.61839	-1.512567E-007	6.03904E-005	6
