EXPLAIN
TAG	EISPOT
TITLE	LABEL	Potentiostatic EIS	Test Identifier
DATE	LABEL	2/26/2021	Date
TIME	LABEL	18:25:39	Time
NOTES	NOTES	1	Notes...
	
PSTAT	PSTAT	REF3000-16137	Potentiostat
VDC	POTEN	0.00000E+000	T	DC Voltage (V)
FREQINIT	QUANT	3.00000E+005	Initial Freq. (Hz)
FREQFINAL	QUANT	1.00000E+000	Final Freq. (Hz)
PTSPERDEC	QUANT	1.00000E+001	Points/decade
VAC	QUANT	5.00000E+001	AC Voltage (mV rms)
AREA	QUANT	1.00000E+000	Sample Area (cm^2)
SPEED	SELECTOR	2	Optimize for:
ZGUESS	QUANT	1.00000E+003	Estimated Z (ohms)
EOC	QUANT	0	Open Circuit (V)
SEQUENCER	TOGGLE	TRUE	Run as Sequence
PSTATMODEL	IQUANT	5	Pstat Model
PSTATSECTION	LABEL	REF3000-16137	Pstat Section
PSTATSERIALNO	LABEL	16137	Pstat Serial Number
CTRLMODE	IQUANT	1	Control Mode
IESTAB	IQUANT	0	I/E Stability
CASPEED	IQUANT	1	Control Amp Speed
CONVENTION	IQUANT	1	Current Convention
ICHRANGE	IQUANT	2	Ich Range
ICHRANGEMODE	TOGGLE	F	Ich Auto Range
ICHOFFSETENABLE	TOGGLE	T	Ich Offset Enable
ICHOFFSET	QUANT	0	Ich Offset (V)
ICHFILTER	IQUANT	3	Ich Filter
VCHRANGE	IQUANT	2	Vch Range
VCHRANGEMODE	TOGGLE	F	Vch Auto Range
VCHOFFSETENABLE	TOGGLE	T	Vch Offset Enable
VCHOFFSET	QUANT	0	Vch Offset (V)
VCHFILTER	IQUANT	3	Vch Filter
ACHRANGE	IQUANT	2	Ach Range
ACHOFFSETENABLE	TOGGLE	F	Ach Offset Enable
ACHOFFSET	QUANT	0	Ach Offset (V)
ACHFILTER	IQUANT	3	Ach Filter
IERANGELOWERLIMIT	IQUANT	2	I/E Range Lower Limit
IERANGEMODE	TOGGLE	F	I/E AutoRange
IERANGE	IQUANT	11	I/E Range
POSFEEDENABLE	TOGGLE	F	Positive Feedback IR Comp
POSFEEDRESISTANCE	QUANT	0	Positive Feedback Resistance (ohm)
ACHSELECT	IQUANT	0	Ach Select
CABLEID	IQUANT	13	Cable ID
DCCALDATE	LABEL	7/31/2020	DC Calibration Date
ACCALDATE	LABEL	7/31/2020	AC Calibration Date
THERMOSELECT	IQUANT	1	Thermo Select
FRAMEWORKVERSION	QUANT	6.33	Framework Version
INSTRUMENTVERSION	LABEL	3.50	Instrument Version
COMPLIANCEVOLTAGE	IQUANT	0	Compliance Voltage
ZCURVE	TABLE
	Pt	Time	Freq	Zreal	Zimag	Zsig	Zmod	Zphz	Idc	Vdc	IERange
	#	s	Hz	ohm	ohm	V	ohm	°	A	V	#
	0	7	300046.9	48.20289	-10.85157	1	49.40926	-12.68708	-6.262123E-005	0.0018269	9
	1	10	238359.4	49.6692	-13.7036	1	51.52493	-15.42404	-5.547593E-005	0.0014104	9
	2	13	189328.1	51.50576	-16.75879	1	54.16365	-18.0237	-1.572439E-005	-0.0004404	9
	3	15	150421.9	53.53852	-20.10033	1	57.18738	-20.57799	5.660825E-005	-0.0016613	9
	4	18	119484.4	56.06298	-23.65304	1	60.84837	-22.87494	6.382479E-006	-0.0007636	9
	5	21	94921.88	59.2058	-27.51034	1	65.28511	-24.92223	-7.819834E-006	0.000576	9
	6	23	75421.88	62.64862	-31.76836	1	70.243	-26.88902	2.133736E-006	-0.0002579	9
	7	26	59859.37	66.5856	-36.62057	1	75.9915	-28.80979	2.279582E-006	-0.0002132	9
	8	28	47578.12	71.10976	-41.75823	1	82.46423	-30.423	-1.699268E-005	0.0005346	9
	9	31	37828.12	76.12693	-47.1476	1	89.54443	-31.77112	-7.15145E-006	0.000691	9
	10	33	30046.88	81.60381	-53.32159	1	97.4801	-33.16142	1.953833E-005	-0.0005162	9
	11	36	23859.38	87.34682	-59.98844	1	105.9626	-34.48068	-1.008277E-005	0.0001642	9
	12	38	18984.38	93.3265	-67.95544	1	115.446	-36.06013	2.04956E-005	-0.0004937	9
	13	40	15046.87	99.4652	-77.2966	1	125.9686	-37.85158	-6.187935E-006	0.000623	9
	14	43	11953.13	106.0648	-88.92458	1	138.41	-39.97643	3.899136E-006	0.000288	9
	15	45	9515.62	112.5514	-102.3693	1	152.1423	-42.28757	2.039662E-005	-0.0004539	9
	16	47	7546.875	119.8786	-119.4706	1	169.2457	-44.90235	1.082178E-005	-0.0004803	9
	17	50	5928.309	128.3137	-141.4219	1	190.9569	-47.78218	-1.466225E-005	0.0004313	9
	18	52	4733.456	137.0312	-167.0399	1	216.0552	-50.63626	2.093424E-005	-0.0004076	9
	19	54	3796.875	146.5095	-196.2283	1	244.889	-53.25396	-5.111382E-006	-2.268923E-005	9
	20	57	2987.132	158.542	-237.3745	1	285.4509	-56.26111	-1.575628E-006	0.0005115	9
	21	59	2390.625	171.3546	-283.6309	1	331.3742	-58.86187	2.062357E-005	-0.0004722	9
	22	61	1884.191	188.4562	-342.8775	1	391.2553	-61.20543	-1.619679E-005	0.0005233	9
	23	64	1516.544	204.7401	-408.1261	1	456.6021	-63.35896	4.621616E-006	-0.0004671	8
	24	66	1193.986	227.3284	-496.713	1	546.2618	-65.40807	1.21952E-006	0.0010548	8
	25	68	946.5144	254.3287	-602.0158	1	653.5336	-67.0978	-2.870198E-006	0.0012533	8
	26	71	751.7689	283.0431	-730.9419	1	783.83	-68.83207	2.508054E-006	0.0005612	8
	27	73	597.4265	320.6692	-887.1717	1	943.3464	-70.12756	-1.18345E-006	0.0017042	8
	28	75	477.4305	362.0357	-1072.853	1	1132.291	-71.35297	4.292605E-007	0.0006733	8
	29	78	376.6741	414.7845	-1313.13	1	1377.083	-72.46999	4.046964E-007	0.0006775	8
	30	80	298.2954	476.929	-1604.121	1	1673.519	-73.442	4.272639E-007	0.0006708	8
	31	82	237.7717	549.4194	-1950.312	1	2026.223	-74.26702	4.264773E-007	0.0006775	8
	32	85	189.0121	637.3483	-2379.503	1	2463.381	-75.00534	4.027902E-007	0.0006822	8
	33	87	150.2404	743.8588	-2906.05	1	2999.742	-75.64233	4.330882E-007	0.0006694	8
	34	90	119.1737	874.4417	-3558.02	1	3663.898	-76.19228	4.394012E-007	0.000672	8
	35	92	95.0169	1033.056	-4347.405	1	4468.46	-76.63296	-2.57178E-009	0.0006491	7
	36	94	75.60484	1226.432	-5315.284	1	5454.941	-77.00715	-1.778079E-009	0.0006514	7
	37	97	54.50582	1585.002	-7089.212	1	7264.238	-77.39711	-1.772781E-009	0.0006427	7
	38	100	45.95588	1823.006	-8243.946	1	8443.104	-77.53069	1.097909E-009	0.0006524	7
	39	102	37.20238	2180.417	-9938.73	1	10175.09	-77.62614	-6.358775E-010	0.0006495	7
	40	104	30.04808	2624.314	-11989.89	1	12273.73	-77.65395	-2.507908E-009	0.0006581	7
	41	107	23.91582	3223.476	-14663.54	1	15013.67	-77.60191	-3.300528E-009	0.0006519	7
	42	109	18.60119	4088.944	-18307.75	1	18758.82	-77.4099	-2.494257E-009	0.0006517	7
	43	111	15.02404	5047.387	-22085.48	1	22654.9	-77.12679	3.526801E-009	0.0006024	7
	44	114	12.01923	6329.364	-26826.81	1	27563.36	-76.72473	-5.710182E-010	0.0006241	7
	45	116	9.450605	8159.402	-33086.15	1	34077.4	-76.14667	-1.311842E-009	0.0006617	7
	46	119	7.512019	10483.02	-40340.71	1	41680.53	-75.43318	1.481373E-009	0.0006524	7
	47	122	5.978954	13553.06	-48963.53	1	50804.65	-74.52796	-4.324074E-008	0.0007043	6
	48	126	4.734848	17770.02	-59550.25	1	62145.04	-73.3847	-3.965355E-008	0.0007198	6
	49	129	3.75601	23324.79	-71916.58	1	75604.5	-72.0305	-4.241908E-008	0.0006858	6
	50	135	3.004808	30371.6	-85802.09	1	91018.86	-70.50742	-4.13885E-008	0.0006952	6
	51	141	2.372217	40298.87	-102554.1	1	110187.8	-68.54754	-4.200821E-008	0.0007566	6
	52	145	1.878005	52713.92	-121434.7	1	132382.6	-66.53468	-4.284339E-008	0.0006792	6
	53	150	1.512097	66866.47	-140292	1	155412.2	-64.51643	-4.151391E-008	0.0006691	6
	54	155	1.201923	85527.27	-162019	1	183207.7	-62.17113	-4.143612E-008	0.0006767	6
	55	162	0.956633	106973	-184768.1	1	213500.6	-59.93095	-4.324593E-008	5.46572E-005	6
