EXPLAIN
TAG	EISPOT
TITLE	LABEL	Potentiostatic EIS	Test Identifier
DATE	LABEL	2/26/2021	Date
TIME	LABEL	18:28:30	Time
NOTES	NOTES	1	Notes...
	
PSTAT	PSTAT	REF3000-16137	Potentiostat
VDC	POTEN	0.00000E+000	T	DC Voltage (V)
FREQINIT	QUANT	3.00000E+005	Initial Freq. (Hz)
FREQFINAL	QUANT	1.00000E+000	Final Freq. (Hz)
PTSPERDEC	QUANT	1.00000E+001	Points/decade
VAC	QUANT	5.00000E+001	AC Voltage (mV rms)
AREA	QUANT	1.00000E+000	Sample Area (cm^2)
SPEED	SELECTOR	2	Optimize for:
ZGUESS	QUANT	1.00000E+003	Estimated Z (ohms)
EOC	QUANT	0	Open Circuit (V)
SEQUENCER	TOGGLE	TRUE	Run as Sequence
PSTATMODEL	IQUANT	5	Pstat Model
PSTATSECTION	LABEL	REF3000-16137	Pstat Section
PSTATSERIALNO	LABEL	16137	Pstat Serial Number
CTRLMODE	IQUANT	1	Control Mode
IESTAB	IQUANT	0	I/E Stability
CASPEED	IQUANT	1	Control Amp Speed
CONVENTION	IQUANT	1	Current Convention
ICHRANGE	IQUANT	2	Ich Range
ICHRANGEMODE	TOGGLE	F	Ich Auto Range
ICHOFFSETENABLE	TOGGLE	T	Ich Offset Enable
ICHOFFSET	QUANT	0	Ich Offset (V)
ICHFILTER	IQUANT	3	Ich Filter
VCHRANGE	IQUANT	2	Vch Range
VCHRANGEMODE	TOGGLE	F	Vch Auto Range
VCHOFFSETENABLE	TOGGLE	T	Vch Offset Enable
VCHOFFSET	QUANT	0	Vch Offset (V)
VCHFILTER	IQUANT	3	Vch Filter
ACHRANGE	IQUANT	2	Ach Range
ACHOFFSETENABLE	TOGGLE	F	Ach Offset Enable
ACHOFFSET	QUANT	0	Ach Offset (V)
ACHFILTER	IQUANT	3	Ach Filter
IERANGELOWERLIMIT	IQUANT	2	I/E Range Lower Limit
IERANGEMODE	TOGGLE	F	I/E AutoRange
IERANGE	IQUANT	11	I/E Range
POSFEEDENABLE	TOGGLE	F	Positive Feedback IR Comp
POSFEEDRESISTANCE	QUANT	0	Positive Feedback Resistance (ohm)
ACHSELECT	IQUANT	0	Ach Select
CABLEID	IQUANT	13	Cable ID
DCCALDATE	LABEL	7/31/2020	DC Calibration Date
ACCALDATE	LABEL	7/31/2020	AC Calibration Date
THERMOSELECT	IQUANT	1	Thermo Select
FRAMEWORKVERSION	QUANT	6.33	Framework Version
INSTRUMENTVERSION	LABEL	3.50	Instrument Version
COMPLIANCEVOLTAGE	IQUANT	0	Compliance Voltage
ZCURVE	TABLE
	Pt	Time	Freq	Zreal	Zimag	Zsig	Zmod	Zphz	Idc	Vdc	IERange
	#	s	Hz	ohm	ohm	V	ohm	°	A	V	#
	0	7	300046.9	51.51754	-11.38097	1	52.75968	-12.45739	-4.015035E-006	0.0003273	9
	1	10	238359.4	53.13207	-14.32436	1	55.02913	-15.08817	-1.678218E-006	-0.0011839	9
	2	13	189328.1	54.9772	-17.43575	1	57.6758	-17.59618	-6.033067E-005	0.0021573	9
	3	16	150421.9	57.12531	-20.77443	1	60.78551	-19.98451	6.689503E-006	0.0007228	9
	4	18	119484.4	59.69926	-24.65767	1	64.59104	-22.44217	4.429633E-006	-0.0005708	9
	5	21	94921.88	62.81699	-28.70114	1	69.06323	-24.5557	-1.715478E-005	0.0005717	9
	6	23	75421.88	66.35674	-33.24485	1	74.21885	-26.61095	-1.482969E-005	0.0004209	9
	7	26	59859.37	70.50626	-38.43255	1	80.30065	-28.59454	-1.612952E-006	0.0004394	9
	8	28	47578.12	75.20113	-43.82674	1	87.04018	-30.23336	-1.441879E-006	0.0005736	9
	9	31	37828.12	80.53176	-49.75385	1	94.66155	-31.70846	2.237076E-005	-0.000499	9
	10	34	30046.88	86.29948	-56.18686	1	102.9785	-33.06688	1.746032E-006	-0.0002372	9
	11	36	23859.38	92.40459	-63.58607	1	112.1686	-34.5329	-1.029963E-005	0.0001428	9
	12	38	18984.38	98.7706	-71.81355	1	122.118	-36.01994	2.126835E-005	-0.0003819	9
	13	41	15046.87	105.5113	-81.92481	1	133.5826	-37.82774	2.090877E-005	-0.0003301	9
	14	43	11953.13	112.4709	-93.31361	1	146.1408	-39.68145	-1.207332E-005	0.0002969	9
	15	45	9515.62	119.5559	-107.7199	1	160.9261	-42.01888	6.297614E-006	0.0003262	9
	16	48	7546.875	127.3254	-125.331	1	178.6606	-44.54773	-1.575895E-005	0.0007553	9
	17	50	5928.309	136.079	-148.7844	1	201.6291	-47.5538	-1.651928E-005	0.0005259	9
	18	52	4733.456	144.9062	-175.4192	1	227.5295	-50.44137	2.013594E-005	-0.0004837	9
	19	55	3796.875	155.2498	-207.5967	1	259.2275	-53.20928	7.70531E-006	-0.0004025	9
	20	57	2987.132	168.2876	-248.8426	1	300.4054	-55.93024	-1.03573E-005	0.0001522	9
	21	59	2390.625	182.0778	-296.8798	1	348.267	-58.47901	-7.897567E-006	0.0007265	9
	22	61	1884.191	198.5925	-360.8619	1	411.8984	-61.17477	-1.661687E-005	0.0006274	9
	23	64	1516.544	216.6253	-428.6826	1	480.3074	-63.19125	3.853741E-006	-0.0006474	8
	24	66	1193.986	240.2961	-521.6492	1	574.3345	-65.26698	1.31499E-006	0.00108	8
	25	69	946.5144	267.7942	-633.8344	1	688.0842	-67.09601	6.941957E-007	-5.262864E-005	8
	26	71	751.7689	300.3266	-767.7221	1	824.3745	-68.63497	-2.902509E-006	0.0019185	8
	27	73	597.4265	339.5363	-931.3785	1	991.338	-69.97055	-1.225306E-006	0.0017504	8
	28	76	477.4305	383.9254	-1125.982	1	1189.636	-71.1722	4.234363E-007	0.0006712	8
	29	78	376.6741	440.4307	-1377.508	1	1446.205	-72.26936	4.121958E-007	0.0006711	8
	30	80	298.2954	506.9728	-1681.658	1	1756.416	-73.22341	4.254845E-007	0.0006744	8
	31	83	237.7717	584.4048	-2043.299	1	2125.229	-74.03892	4.293341E-007	0.0006682	8
	32	85	189.0121	678.3492	-2491.126	1	2581.834	-74.76733	4.093912E-007	0.0006738	8
	33	87	150.2404	791.7711	-3039.921	1	3141.341	-75.40122	4.170439E-007	0.000683	8
	34	90	119.1737	930.5958	-3719.198	1	3833.854	-75.95221	4.2903E-007	0.0006758	8
	35	92	95.0169	1098.624	-4540.926	1	4671.936	-76.3993	5.475968E-009	0.0006507	7
	36	95	75.60484	1301.908	-5547.783	1	5698.496	-76.79327	4.851124E-009	0.0006405	7
	37	97	54.50582	1679.77	-7392.714	1	7581.151	-77.19862	4.289024E-009	0.0006436	7
	38	100	45.95588	1926.714	-8597.749	1	8810.988	-77.36897	7.303615E-009	0.000652	7
	39	102	37.20238	2298.597	-10355.09	1	10607.14	-77.48456	6.356648E-009	0.000647	7
	40	104	30.04808	2755.448	-12495.13	1	12795.34	-77.56406	4.78142E-009	0.0006491	7
	41	107	23.91582	3370.782	-15271.71	1	15639.28	-77.5532	4.513809E-009	0.0006391	7
	42	109	18.60119	4253.706	-19082.75	1	19551.09	-77.43373	7.607676E-009	0.0006496	7
	43	111	15.02404	5228.498	-23000.4	1	23587.19	-77.19305	5.770372E-009	0.0006454	7
	44	114	12.01923	6547.595	-27994.23	1	28749.75	-76.83569	9.176746E-009	0.0006553	7
	45	116	9.450605	8399.654	-34466.13	1	35474.89	-76.30358	4.970922E-009	0.0006479	7
	46	119	7.512019	10714.95	-42056.43	1	43399.92	-75.70653	-3.494463E-008	0.0006757	6
	47	122	5.978954	13816.08	-51142.9	1	52976.22	-74.88259	-3.334042E-008	0.0006972	6
	48	126	4.734848	17988.85	-62224.6	1	64772.68	-73.87566	-3.59121E-008	0.0006752	6
	49	129	3.75601	23649.27	-75380.73	1	79003.44	-72.58174	-3.316579E-008	0.0007213	6
	50	135	3.004808	30763.56	-90148.34	1	95252.9	-71.15755	-3.367578E-008	0.000706	6
	51	141	2.372217	40919.97	-108204.1	1	115683	-69.28468	-3.329904E-008	0.0006294	6
	52	146	1.878005	53658.96	-128621.1	1	139365.2	-67.35477	-3.200978E-008	0.0006937	6
	53	150	1.512097	68394.59	-149160.3	1	164093.3	-65.3671	-3.243457E-008	0.0006922	6
	54	156	1.201923	88001.37	-173108.1	1	194192.3	-63.05301	-3.222464E-008	0.0007145	6
	55	162	0.956633	110730.6	-198397.8	1	227206.8	-60.83307	-3.398568E-008	4.29461E-005	6
