EXPLAIN
TAG	EISPOT
TITLE	LABEL	Potentiostatic EIS	Test Identifier
DATE	LABEL	2/26/2021	Date
TIME	LABEL	18:14:16	Time
NOTES	NOTES	1	Notes...
	
PSTAT	PSTAT	REF3000-16137	Potentiostat
VDC	POTEN	0.00000E+000	T	DC Voltage (V)
FREQINIT	QUANT	3.00000E+005	Initial Freq. (Hz)
FREQFINAL	QUANT	1.00000E+000	Final Freq. (Hz)
PTSPERDEC	QUANT	1.00000E+001	Points/decade
VAC	QUANT	5.00000E+001	AC Voltage (mV rms)
AREA	QUANT	1.00000E+000	Sample Area (cm^2)
SPEED	SELECTOR	2	Optimize for:
ZGUESS	QUANT	1.00000E+003	Estimated Z (ohms)
EOC	QUANT	0	Open Circuit (V)
SEQUENCER	TOGGLE	TRUE	Run as Sequence
PSTATMODEL	IQUANT	5	Pstat Model
PSTATSECTION	LABEL	REF3000-16137	Pstat Section
PSTATSERIALNO	LABEL	16137	Pstat Serial Number
CTRLMODE	IQUANT	1	Control Mode
IESTAB	IQUANT	0	I/E Stability
CASPEED	IQUANT	1	Control Amp Speed
CONVENTION	IQUANT	1	Current Convention
ICHRANGE	IQUANT	2	Ich Range
ICHRANGEMODE	TOGGLE	F	Ich Auto Range
ICHOFFSETENABLE	TOGGLE	T	Ich Offset Enable
ICHOFFSET	QUANT	0	Ich Offset (V)
ICHFILTER	IQUANT	3	Ich Filter
VCHRANGE	IQUANT	2	Vch Range
VCHRANGEMODE	TOGGLE	F	Vch Auto Range
VCHOFFSETENABLE	TOGGLE	T	Vch Offset Enable
VCHOFFSET	QUANT	0	Vch Offset (V)
VCHFILTER	IQUANT	3	Vch Filter
ACHRANGE	IQUANT	2	Ach Range
ACHOFFSETENABLE	TOGGLE	F	Ach Offset Enable
ACHOFFSET	QUANT	0	Ach Offset (V)
ACHFILTER	IQUANT	3	Ach Filter
IERANGELOWERLIMIT	IQUANT	2	I/E Range Lower Limit
IERANGEMODE	TOGGLE	F	I/E AutoRange
IERANGE	IQUANT	11	I/E Range
POSFEEDENABLE	TOGGLE	F	Positive Feedback IR Comp
POSFEEDRESISTANCE	QUANT	0	Positive Feedback Resistance (ohm)
ACHSELECT	IQUANT	0	Ach Select
CABLEID	IQUANT	13	Cable ID
DCCALDATE	LABEL	7/31/2020	DC Calibration Date
ACCALDATE	LABEL	7/31/2020	AC Calibration Date
THERMOSELECT	IQUANT	1	Thermo Select
FRAMEWORKVERSION	QUANT	6.33	Framework Version
INSTRUMENTVERSION	LABEL	3.50	Instrument Version
COMPLIANCEVOLTAGE	IQUANT	0	Compliance Voltage
ZCURVE	TABLE
	Pt	Time	Freq	Zreal	Zimag	Zsig	Zmod	Zphz	Idc	Vdc	IERange
	#	s	Hz	ohm	ohm	V	ohm	°	A	V	#
	0	7	300046.9	38.2764	-9.386169	1	39.41044	-13.77823	4.183775E-005	-0.0012331	9
	1	10	238359.4	39.70317	-11.84375	1	41.43207	-16.61024	3.94891E-005	-0.0011978	9
	2	14	189328.1	41.2891	-14.37534	1	43.72002	-19.19623	-5.419195E-005	0.0014109	9
	3	16	150421.9	43.24545	-17.29823	1	46.5768	-21.80147	1.545148E-005	-0.000475	9
	4	19	119484.4	45.61388	-20.15191	1	49.86708	-23.83553	-3.816057E-005	0.0009798	9
	5	21	94921.88	48.41754	-23.18303	1	53.68157	-25.58578	-1.208052E-005	0.0006149	9
	6	24	75421.88	51.44753	-26.59376	1	57.91439	-27.33492	-5.562412E-006	0.0005667	9
	7	26	59859.37	54.92674	-30.30811	1	62.73379	-28.88954	1.835527E-005	-0.0003871	9
	8	29	47578.12	58.70235	-34.22206	1	67.94936	-30.24116	1.865137E-005	-0.0003235	9
	9	31	37828.12	62.68103	-38.44913	1	73.53399	-31.52534	-4.631422E-006	-1.862267E-005	9
	10	34	30046.88	67.04248	-43.08844	1	79.69509	-32.729	7.534854E-006	-0.0003287	9
	11	36	23859.38	71.44748	-48.47925	1	86.34222	-34.15806	-1.075108E-005	0.0002422	9
	12	39	18984.38	75.94537	-54.85966	1	93.68714	-35.84272	1.735078E-005	-0.0001424	9
	13	41	15046.87	80.69264	-62.47791	1	102.0529	-37.74955	-1.29177E-005	0.0003251	9
	14	43	11953.13	85.6112	-72.07864	1	111.9134	-40.09504	1.991533E-005	-0.0003777	9
	15	46	9515.62	90.88866	-83.28614	1	123.2775	-42.50069	-1.054243E-005	0.0002238	9
	16	48	7546.875	96.5191	-98.0174	1	137.5622	-45.44128	-1.55321E-005	0.0003646	9
	17	50	5928.309	103.2135	-116.2385	1	155.4491	-48.39666	-1.506854E-005	0.0004998	9
	18	53	4733.456	110.1601	-137.6013	1	176.2651	-51.32013	1.919906E-005	-0.0003776	9
	19	55	3796.875	117.9068	-163.3144	1	201.4289	-54.17216	-3.98663E-006	-6.275347E-006	9
	20	57	2987.132	127.6121	-196.3967	1	234.2146	-56.98552	-1.344164E-005	0.0006334	9
	21	60	2390.625	138.7687	-233.5276	1	271.6466	-59.28003	-9.697962E-006	0.0001837	9
	22	62	1884.191	150.3981	-284.7664	1	322.0427	-62.15942	-1.33568E-005	0.0006152	9
	23	64	1516.544	164.7264	-340.2388	1	378.0175	-64.16609	1.213485E-005	-0.0004278	9
	24	66	1193.986	181.4848	-413.4355	1	451.5149	-66.30008	-2.576674E-006	0.0012016	8
	25	69	946.5144	201.1938	-502.2555	1	541.0541	-68.16992	-8.62336E-007	0.0014976	8
	26	71	751.7689	225.145	-611.2004	1	651.3495	-69.77795	3.711864E-006	-0.0003474	8
	27	74	597.4265	252.8129	-743.1281	1	784.9546	-71.21165	-2.223359E-006	0.0016126	8
	28	76	477.4305	285.1927	-901.9657	1	945.9794	-72.45356	4.309957E-007	0.0006641	8
	29	78	376.6741	326.3044	-1107.773	1	1154.831	-73.5872	4.222384E-007	0.0006646	8
	30	81	298.2954	375.2869	-1357.715	1	1408.627	-74.54864	4.143396E-007	0.0006659	8
	31	83	237.7717	433.039	-1655.941	1	1711.626	-75.34498	4.176446E-007	0.0006616	8
	32	85	189.0121	504.3184	-2026.074	1	2087.896	-76.02233	4.137466E-007	0.0006696	8
	33	88	150.2404	592.2856	-2480.688	1	2550.414	-76.57153	4.269485E-007	0.0006606	8
	34	90	119.1737	702.0382	-3045.456	1	3125.325	-77.01894	4.285867E-007	0.0006645	8
	35	93	95.0169	835.9371	-3721.623	1	3814.35	-77.34055	4.233062E-007	0.0006678	8
	36	95	75.60484	1007.507	-4567.291	1	4677.095	-77.56024	-4.183638E-008	0.0006418	7
	37	98	54.50582	1330.416	-6103.365	1	6246.685	-77.70299	-4.097053E-008	0.000636	7
	38	100	45.95588	1549.296	-7100.626	1	7267.683	-77.69146	-3.664259E-008	0.0006442	7
	39	102	37.20238	1883.15	-8556.048	1	8760.834	-77.58735	-3.774765E-008	0.0006359	7
	40	105	30.04808	2313.731	-10334.77	1	10590.6	-77.3808	-4.206282E-008	0.0006388	7
	41	107	23.91582	2887.785	-12609.14	1	12935.6	-77.1004	-4.118787E-008	0.000635	7
	42	110	18.60119	3755.289	-15732.77	1	16174.74	-76.57514	-3.44798E-008	0.0006369	7
	43	112	15.02404	4711.842	-18904.46	1	19482.82	-76.00448	-3.754115E-008	0.0006476	7
	44	114	12.01923	6028.835	-22901.72	1	23681.97	-75.2516	-3.195369E-008	0.0006248	7
	45	117	9.450605	7894.957	-28016.01	1	29107.17	-74.26208	-4.14271E-008	0.0006387	7
	46	119	7.512019	10268.23	-33942.5	1	35461.67	-73.16847	-3.723787E-008	0.0006322	7
	47	122	5.978954	13365.63	-40799.37	1	42932.84	-71.86151	-3.763767E-008	0.0006357	7
	48	125	4.734848	17620.24	-48996.96	1	52068.94	-70.22044	-8.536344E-008	0.0006726	6
	49	128	3.75601	23031.94	-58348.98	1	62730.16	-68.4595	-8.384336E-008	0.0007053	6
	50	134	3.004808	29644.22	-68486.02	1	74626.5	-66.59459	-8.217214E-008	0.0006601	6
	51	140	2.372217	38519.03	-80282.44	1	89044.85	-64.36859	-8.673521E-008	0.000619	6
	52	144	1.878005	48955.27	-92837.97	1	104954.8	-62.19645	-8.549117E-008	0.0006991	6
	53	149	1.512097	60202.44	-105140.5	1	121156.4	-60.20498	-8.517658E-008	0.0006314	6
	54	155	1.201923	73804.13	-119519.4	1	140470.4	-58.30436	-8.469186E-008	0.0007201	6
	55	161	0.956633	88540.63	-135054.3	1	161490.2	-56.75143	-8.534381E-008	4.954827E-005	6
