EXPLAIN
TAG	EISPOT
TITLE	LABEL	Potentiostatic EIS	Test Identifier
DATE	LABEL	2/26/2021	Date
TIME	LABEL	19:00:06	Time
NOTES	NOTES	1	Notes...
	
PSTAT	PSTAT	REF3000-16137	Potentiostat
VDC	POTEN	0.00000E+000	T	DC Voltage (V)
FREQINIT	QUANT	3.00000E+005	Initial Freq. (Hz)
FREQFINAL	QUANT	1.00000E+000	Final Freq. (Hz)
PTSPERDEC	QUANT	1.00000E+001	Points/decade
VAC	QUANT	5.00000E+001	AC Voltage (mV rms)
AREA	QUANT	1.00000E+000	Sample Area (cm^2)
SPEED	SELECTOR	2	Optimize for:
ZGUESS	QUANT	1.00000E+003	Estimated Z (ohms)
EOC	QUANT	0	Open Circuit (V)
SEQUENCER	TOGGLE	TRUE	Run as Sequence
PSTATMODEL	IQUANT	5	Pstat Model
PSTATSECTION	LABEL	REF3000-16137	Pstat Section
PSTATSERIALNO	LABEL	16137	Pstat Serial Number
CTRLMODE	IQUANT	1	Control Mode
IESTAB	IQUANT	0	I/E Stability
CASPEED	IQUANT	1	Control Amp Speed
CONVENTION	IQUANT	1	Current Convention
ICHRANGE	IQUANT	2	Ich Range
ICHRANGEMODE	TOGGLE	F	Ich Auto Range
ICHOFFSETENABLE	TOGGLE	T	Ich Offset Enable
ICHOFFSET	QUANT	0	Ich Offset (V)
ICHFILTER	IQUANT	3	Ich Filter
VCHRANGE	IQUANT	2	Vch Range
VCHRANGEMODE	TOGGLE	F	Vch Auto Range
VCHOFFSETENABLE	TOGGLE	T	Vch Offset Enable
VCHOFFSET	QUANT	0	Vch Offset (V)
VCHFILTER	IQUANT	3	Vch Filter
ACHRANGE	IQUANT	2	Ach Range
ACHOFFSETENABLE	TOGGLE	F	Ach Offset Enable
ACHOFFSET	QUANT	0	Ach Offset (V)
ACHFILTER	IQUANT	3	Ach Filter
IERANGELOWERLIMIT	IQUANT	2	I/E Range Lower Limit
IERANGEMODE	TOGGLE	F	I/E AutoRange
IERANGE	IQUANT	11	I/E Range
POSFEEDENABLE	TOGGLE	F	Positive Feedback IR Comp
POSFEEDRESISTANCE	QUANT	0	Positive Feedback Resistance (ohm)
ACHSELECT	IQUANT	0	Ach Select
CABLEID	IQUANT	13	Cable ID
DCCALDATE	LABEL	7/31/2020	DC Calibration Date
ACCALDATE	LABEL	7/31/2020	AC Calibration Date
THERMOSELECT	IQUANT	1	Thermo Select
FRAMEWORKVERSION	QUANT	6.33	Framework Version
INSTRUMENTVERSION	LABEL	3.50	Instrument Version
COMPLIANCEVOLTAGE	IQUANT	0	Compliance Voltage
ZCURVE	TABLE
	Pt	Time	Freq	Zreal	Zimag	Zsig	Zmod	Zphz	Idc	Vdc	IERange
	#	s	Hz	ohm	ohm	V	ohm	°	A	V	#
	0	8	300046.9	167.0108	-24.18306	1	168.7525	-8.239131	9.794609E-006	-0.0016894	9
	1	12	238359.4	169.565	-28.55026	1	171.9517	-9.55745	-8.376628E-006	-0.0014433	9
	2	15	189328.1	172.83	-33.89577	1	176.1225	-11.09613	1.808903E-005	-0.0015611	9
	3	19	150421.9	176.8081	-38.82067	1	181.0198	-12.38358	7.312701E-005	-0.0027643	9
	4	21	119484.4	181.15	-45.57401	1	186.7949	-14.1215	7.388598E-006	-0.0014265	9
	5	24	94921.88	185.6497	-52.78646	1	193.0083	-15.87223	2.046017E-005	-0.0007542	9
	6	26	75421.88	191.4258	-61.84386	1	201.1678	-17.90407	-7.057279E-006	0.0007559	9
	7	29	59859.37	197.9651	-72.03445	1	210.6636	-19.99515	1.970637E-005	-2.202529E-005	9
	8	31	47578.12	205.6003	-84.37784	1	222.241	-22.31313	-1.540039E-005	0.000152	9
	9	34	37828.12	214.9479	-97.7016	1	236.1105	-24.44351	-9.621796E-006	-3.981772E-005	9
	10	36	30046.88	226.423	-113.3473	1	253.2094	-26.59253	-1.822176E-005	0.0003035	9
	11	40	23859.38	239.5096	-132.2865	1	273.614	-28.91285	-2.144834E-005	0.0008959	9
	12	42	18984.38	254.8575	-151.4603	1	296.4669	-30.72277	-2.299492E-005	0.0007466	9
	13	45	15046.87	272.9034	-173.8947	1	323.5979	-32.50537	-1.864878E-005	0.0003909	9
	14	47	11953.13	291.937	-198.2012	1	352.8611	-34.17327	-1.494697E-006	-0.0003103	9
	15	49	9515.62	313.0384	-224.6237	1	385.2906	-35.6617	3.900668E-006	-0.0021675	8
	16	52	7546.875	335.4856	-256.8905	1	422.5439	-37.44227	-8.78119E-006	0.0034931	8
	17	54	5928.309	361.0221	-295.4385	1	466.4985	-39.29481	9.760399E-006	-0.001419	8
	18	56	4733.456	383.7202	-338.1281	1	511.4409	-41.38598	6.610409E-006	-0.0026147	8
	19	59	3796.875	408.8259	-389.8923	1	564.9377	-43.64206	8.570751E-006	-0.0024414	8
	20	61	2987.132	434.5517	-458.5161	1	631.7216	-46.53709	6.347538E-006	-0.0026269	8
	21	63	2390.625	461.1805	-538.1721	1	708.743	-49.40545	-4.577654E-006	0.003844	8
	22	65	1884.191	494.7976	-643.4667	1	811.7106	-52.4413	1.221693E-006	-0.0016197	8
	23	68	1516.544	523.9194	-761.2633	1	924.1285	-55.46333	6.601191E-006	-0.0026199	8
	24	70	1193.986	562.8624	-922.1151	1	1080.329	-58.59996	9.894879E-006	-0.0019786	8
	25	73	946.5144	608.4483	-1117.638	1	1272.527	-61.43589	8.164105E-006	-0.0003261	8
	26	75	751.7689	660.8482	-1359.135	1	1511.28	-64.06972	8.333097E-006	-0.0026819	8
	27	78	597.4265	723.347	-1651.049	1	1802.552	-66.34113	-4.614736E-006	0.0039055	8
	28	80	477.4305	794.8746	-1998.831	1	2151.082	-68.31379	2.030189E-007	0.0006616	8
	29	83	376.6741	887.3179	-2453.603	1	2609.119	-70.11805	1.6593E-007	0.0006709	8
	30	85	298.2954	997.893	-3005.768	1	3167.086	-71.63422	1.768189E-007	0.0006678	8
	31	87	237.7717	1128.154	-3664.076	1	3833.821	-72.88662	1.878195E-007	0.0006588	8
	32	90	189.0121	1293.343	-4488.743	1	4671.354	-73.9267	7.99639E-009	0.0006462	7
	33	92	150.2404	1488.872	-5491.182	1	5689.448	-74.82963	7.757202E-009	0.0006459	7
	34	95	119.1737	1730.819	-6731.925	1	6950.867	-75.5812	1.057244E-008	0.0006349	7
	35	97	95.0169	2019.365	-8220.055	1	8464.463	-76.19786	1.003225E-008	0.0006314	7
	36	99	75.60484	2377.653	-10056.29	1	10333.55	-76.69759	7.396688E-009	0.0006431	7
	37	102	54.50582	3034.906	-13412.52	1	13751.59	-77.25015	9.88511E-009	0.0006197	7
	38	105	45.95588	3465.475	-15604.36	1	15984.54	-77.47875	1.131721E-008	0.0006443	7
	39	107	37.20238	4102.483	-18810.23	1	19252.41	-77.69654	8.766906E-009	0.000638	7
	40	109	30.04808	4885.828	-22700.59	1	23220.43	-77.85358	1.028878E-008	0.0006289	7
	41	112	23.91582	5907.682	-27760.02	1	28381.67	-77.98596	6.943587E-009	0.0006443	7
	42	114	18.60119	7338.251	-34635.11	1	35403.96	-78.03747	1.077876E-008	0.0006338	7
	43	116	15.02404	8892.112	-41846.71	1	42781.04	-78.00351	-1.593826E-009	0.0006793	6
	44	119	12.01923	10868.14	-50942	1	52088.42	-77.95686	-1.543066E-009	0.0006816	6
	45	121	9.450605	13537.73	-62907.14	1	64347.32	-77.85506	-5.632804E-010	0.000687	6
	46	124	7.512019	16818.32	-76991.56	1	78807.09	-77.67767	-1.254868E-009	0.0007153	6
	47	127	5.978954	20927.02	-94036.02	1	96336.5	-77.4537	-1.85935E-009	0.0006895	6
	48	131	4.734848	26357.07	-115416.8	1	118388.1	-77.13628	-1.091477E-009	0.000694	6
	49	134	3.75601	33253.03	-141284.9	1	145145.4	-76.75582	-1.315498E-009	0.0006728	6
	50	140	3.004808	41885.41	-171505.1	1	176545.7	-76.27573	-1.775967E-009	0.0007105	6
	51	146	2.372217	53688.65	-210592.1	1	217328.1	-75.6976	-1.254285E-009	0.0007027	6
	52	150	1.878005	69542.79	-257142.4	1	266380.2	-74.86668	-1.581611E-009	0.0006573	6
	53	155	1.512097	88580.96	-309029.6	1	321474.6	-74.00546	-1.711169E-009	0.0007835	6
	54	161	1.201923	115167.3	-374718.6	1	392017.3	-72.91553	-1.395543E-009	0.0006536	6
	55	167	0.956633	149528	-451422.4	1	475542.7	-71.67319	-3.277741E-009	2.505974E-005	5
