EXPLAIN
TAG	EISPOT
TITLE	LABEL	Potentiostatic EIS	Test Identifier
DATE	LABEL	2/26/2021	Date
TIME	LABEL	20:13:59	Time
NOTES	NOTES	1	Notes...
	
PSTAT	PSTAT	REF3000-16137	Potentiostat
VDC	POTEN	0.00000E+000	T	DC Voltage (V)
FREQINIT	QUANT	3.00000E+005	Initial Freq. (Hz)
FREQFINAL	QUANT	1.00000E+000	Final Freq. (Hz)
PTSPERDEC	QUANT	1.00000E+001	Points/decade
VAC	QUANT	5.00000E+001	AC Voltage (mV rms)
AREA	QUANT	1.00000E+000	Sample Area (cm^2)
SPEED	SELECTOR	2	Optimize for:
ZGUESS	QUANT	1.00000E+003	Estimated Z (ohms)
EOC	QUANT	0	Open Circuit (V)
SEQUENCER	TOGGLE	TRUE	Run as Sequence
PSTATMODEL	IQUANT	5	Pstat Model
PSTATSECTION	LABEL	REF3000-16137	Pstat Section
PSTATSERIALNO	LABEL	16137	Pstat Serial Number
CTRLMODE	IQUANT	1	Control Mode
IESTAB	IQUANT	0	I/E Stability
CASPEED	IQUANT	1	Control Amp Speed
CONVENTION	IQUANT	1	Current Convention
ICHRANGE	IQUANT	2	Ich Range
ICHRANGEMODE	TOGGLE	F	Ich Auto Range
ICHOFFSETENABLE	TOGGLE	T	Ich Offset Enable
ICHOFFSET	QUANT	0	Ich Offset (V)
ICHFILTER	IQUANT	3	Ich Filter
VCHRANGE	IQUANT	2	Vch Range
VCHRANGEMODE	TOGGLE	F	Vch Auto Range
VCHOFFSETENABLE	TOGGLE	T	Vch Offset Enable
VCHOFFSET	QUANT	0	Vch Offset (V)
VCHFILTER	IQUANT	3	Vch Filter
ACHRANGE	IQUANT	2	Ach Range
ACHOFFSETENABLE	TOGGLE	F	Ach Offset Enable
ACHOFFSET	QUANT	0	Ach Offset (V)
ACHFILTER	IQUANT	3	Ach Filter
IERANGELOWERLIMIT	IQUANT	2	I/E Range Lower Limit
IERANGEMODE	TOGGLE	F	I/E AutoRange
IERANGE	IQUANT	11	I/E Range
POSFEEDENABLE	TOGGLE	F	Positive Feedback IR Comp
POSFEEDRESISTANCE	QUANT	0	Positive Feedback Resistance (ohm)
ACHSELECT	IQUANT	0	Ach Select
CABLEID	IQUANT	13	Cable ID
DCCALDATE	LABEL	7/31/2020	DC Calibration Date
ACCALDATE	LABEL	7/31/2020	AC Calibration Date
THERMOSELECT	IQUANT	1	Thermo Select
FRAMEWORKVERSION	QUANT	6.33	Framework Version
INSTRUMENTVERSION	LABEL	3.50	Instrument Version
COMPLIANCEVOLTAGE	IQUANT	0	Compliance Voltage
ZCURVE	TABLE
	Pt	Time	Freq	Zreal	Zimag	Zsig	Zmod	Zphz	Idc	Vdc	IERange
	#	s	Hz	ohm	ohm	V	ohm	°	A	V	#
	0	14	300046.9	-70.84474	-4846.714	1	4847.232	-90.83743	-2.21172E-005	0.001019	9
	1	28	238359.4	-9.363044	-6040.286	1	6040.293	-90.08881	2.030058E-005	-0.0021917	9
	2	42	189328.1	-405.4918	-7475.832	1	7486.82	-93.1047	-2.805259E-005	-0.0010117	9
	3	53	150421.9	-170.7461	-9082.35	1	9083.954	-91.07702	2.165997E-005	-0.0003475	9
	4	60	119484.4	500.9149	-11672.54	1	11683.29	-87.54272	2.167142E-005	-0.0138318	8
	5	67	94921.88	341.1895	-14383.67	1	14387.72	-88.64117	2.594891E-005	-0.0050212	8
	6	76	75421.88	231.9566	-18562	1	18563.45	-89.28405	8.31696E-006	-0.0075877	8
	7	85	59859.37	434.7753	-23321.46	1	23325.51	-88.93198	2.742801E-005	-0.0073459	8
	8	93	47578.12	3843.123	-30257.63	1	30500.72	-82.76143	7.607406E-006	-0.018348	7
	9	101	37828.12	4128.329	-37126.96	1	37355.79	-83.65507	-1.819968E-006	0.0220059	7
	10	108	30046.88	515.423	-45284.25	1	45287.19	-89.34789	-1.203179E-005	0.0101957	8
	11	117	23859.38	849.0272	-57658.41	1	57664.66	-89.15637	-1.586796E-005	0.0006627	8
	12	123	18984.38	5156.174	-72228.03	1	72411.84	-85.91673	-7.274617E-006	0.0237256	7
	13	129	15046.87	2995.806	-88621.66	1	88672.29	-88.06389	-2.447884E-005	0.0109692	8
	14	136	11953.13	6466.967	-106267	1	106463.6	-86.51751	3.250928E-007	-0.0004895	9
	15	144	9515.62	-1690.802	-138044	1	138054.4	-90.70174	2.627422E-005	-0.0088344	8
	16	151	7546.875	-8245.631	-179613.7	1	179802.8	-92.62846	-2.380877E-005	0.0051753	8
	17	159	5928.309	-23254.55	-248550.5	1	249636	-95.3451	-1.573879E-005	0.0006527	8
	18	167	4733.456	32019.73	-304187.2	1	305867.8	-83.99099	4.827658E-007	0.0162602	7
	19	175	3796.875	43450.06	-369644.8	1	372189.7	-83.29591	-2.07932E-007	0.0220154	6
	20	180	2987.132	38448.84	-460928.7	1	462529.6	-85.23165	-4.019078E-007	0.0255342	6
	21	186	2390.625	47051.3	-578321.9	1	580232.8	-85.34875	4.336252E-007	0.0019743	6
	22	191	1884.191	41052.92	-729965.2	1	731118.7	-86.78111	-6.842695E-007	0.0263083	6
	23	196	1516.544	65875.84	-865284.3	1	867788.3	-85.64635	1.869466E-007	-0.0212355	6
	24	203	1193.986	36880.56	-1114352	1	1114962	-88.10443	7.270447E-007	-0.0269555	6
	25	208	946.5144	-971644	-858130.4	1	1296333	-138.5499	-1.18017E-006	-0.0132333	7
	26	214	751.7689	52108.91	-2072429	1	2073084	-88.55966	7.634981E-007	-0.0226743	6
	27	219	597.4265	-36454.61	-3080715	1	3080931	-90.67796	-2.22299E-007	0.0230201	6
	28	223	477.4305	89969.37	-2831350	1	2832779	-88.17998	-6.515527E-009	0.0006399	6
	29	227	376.6741	486365.7	-3696161	1	3728024	-82.50371	-7.825357E-010	0.0006078	5
	30	230	298.2954	538411	-4576334	1	4607897	-83.28993	-6.801915E-010	0.0006172	5
	31	234	237.7717	585764.2	-5748980	1	5778745	-84.18221	-7.279154E-010	0.0007094	5
	32	238	189.0121	585285.6	-7125223	1	7149220	-85.30411	-6.942369E-010	0.0006453	5
	33	242	150.2404	643787.5	-8974509	1	8997570	-85.89691	-7.993547E-010	0.0007014	5
	34	245	119.1737	-702834.6	-1.218207E+007	1	1.220233E+007	-93.30197	-7.066521E-010	0.0006232	5
	35	248	95.0169	1401824	-1.395223E+007	1	1.402248E+007	-84.26257	-6.626413E-010	0.0006138	5
	36	251	75.60484	958701	-1.604417E+007	1	1.607279E+007	-86.58042	-7.928009E-010	0.0006102	5
	37	254	54.50582	584328.7	-2.334819E+007	1	2.33555E+007	-88.56638	-7.217354E-010	0.0006717	5
	38	257	45.95588	1770327	-3.378543E+007	1	3.383178E+007	-87.0005	-1.334954E-010	0.0006206	4
	39	259	37.20238	-456851.8	-3.162469E+007	1	3.162799E+007	-90.82764	-7.52894E-010	0.0006197	5
	40	263	30.04808	4765637	-4.525016E+007	1	4.550042E+007	-83.98791	-6.884297E-010	0.000611	5
	41	267	23.91582	-745350.5	-6.875972E+007	1	6.876376E+007	-90.62106	5.273754E-011	0.0006353	4
	42	271	18.60119	1.982978E+007	-3.844236E+007	1	4.325547E+007	-62.71389	2.750982E-010	0.0006988	4
	43	275	15.02404	1.843111E+007	-8.606136E+007	1	8.801286E+007	-77.91199	-3.935166E-011	0.0006704	4
	44	278	12.01923	1.919692E+007	-1.009466E+008	1	1.027558E+008	-79.23269	-4.420529E-011	0.0006294	4
	45	282	9.450605	9363947	-1.444072E+008	1	1.447105E+008	-86.2899	-9.698916E-011	0.0006317	4
	46	286	7.512019	9.723959E+006	-1.768058E+008	1	1.77073E+008	-86.85202	-9.957248E-011	0.0007073	4
	47	290	5.978954	5.310053E+007	-2.023574E+008	1	2.092084E+008	-75.29654	-8.092993E-011	0.0007199	4
	48	296	4.734848	1.024431E+008	-2.691827E+008	1	2.880172E+008	-69.16463	-5.525567E-012	0.0007069	3
	49	301	3.75601	1.002981E+008	-3.289702E+008	1	3.439202E+008	-73.04433	-7.060092E-010	0.0006539	5
	50	309	3.004808	1.097785E+008	-5.338906E+008	1	5.450601E+008	-78.3808	-7.725332E-010	0.0006549	5
	51	318	2.372217	2.219403E+008	-4.80411E+008	1	5.291996E+008	-65.204	-5.889956E-012	0.0006642	3
	52	325	1.878005	2.941241E+008	-5.752828E+008	1	6.461109E+008	-62.92076	-5.679819E-012	0.0007467	3
	53	334	1.512097	3.844301E+008	-6.764346E+008	1	7.780426E+008	-60.38964	-5.613434E-012	0.0007234	3
	54	341	1.201923	5.050993E+008	-7.981066E+008	1	9.445101E+008	-57.67143	-5.515188E-012	0.0007613	3
	55	354	0.956633	6.575497E+008	-9.413178E+008	1	1.148238E+009	-55.06409	-5.925401E-012	0.0000964	3
