EXPLAIN
TAG	EISPOT
TITLE	LABEL	Potentiostatic EIS	Test Identifier
DATE	LABEL	2/26/2021	Date
TIME	LABEL	20:20:03	Time
NOTES	NOTES	1	Notes...
	
PSTAT	PSTAT	REF3000-16137	Potentiostat
VDC	POTEN	0.00000E+000	T	DC Voltage (V)
FREQINIT	QUANT	3.00000E+005	Initial Freq. (Hz)
FREQFINAL	QUANT	1.00000E+000	Final Freq. (Hz)
PTSPERDEC	QUANT	1.00000E+001	Points/decade
VAC	QUANT	5.00000E+001	AC Voltage (mV rms)
AREA	QUANT	1.00000E+000	Sample Area (cm^2)
SPEED	SELECTOR	2	Optimize for:
ZGUESS	QUANT	1.00000E+003	Estimated Z (ohms)
EOC	QUANT	0	Open Circuit (V)
SEQUENCER	TOGGLE	TRUE	Run as Sequence
PSTATMODEL	IQUANT	5	Pstat Model
PSTATSECTION	LABEL	REF3000-16137	Pstat Section
PSTATSERIALNO	LABEL	16137	Pstat Serial Number
CTRLMODE	IQUANT	1	Control Mode
IESTAB	IQUANT	0	I/E Stability
CASPEED	IQUANT	1	Control Amp Speed
CONVENTION	IQUANT	1	Current Convention
ICHRANGE	IQUANT	2	Ich Range
ICHRANGEMODE	TOGGLE	F	Ich Auto Range
ICHOFFSETENABLE	TOGGLE	T	Ich Offset Enable
ICHOFFSET	QUANT	0	Ich Offset (V)
ICHFILTER	IQUANT	3	Ich Filter
VCHRANGE	IQUANT	2	Vch Range
VCHRANGEMODE	TOGGLE	F	Vch Auto Range
VCHOFFSETENABLE	TOGGLE	T	Vch Offset Enable
VCHOFFSET	QUANT	0	Vch Offset (V)
VCHFILTER	IQUANT	3	Vch Filter
ACHRANGE	IQUANT	2	Ach Range
ACHOFFSETENABLE	TOGGLE	F	Ach Offset Enable
ACHOFFSET	QUANT	0	Ach Offset (V)
ACHFILTER	IQUANT	3	Ach Filter
IERANGELOWERLIMIT	IQUANT	2	I/E Range Lower Limit
IERANGEMODE	TOGGLE	F	I/E AutoRange
IERANGE	IQUANT	11	I/E Range
POSFEEDENABLE	TOGGLE	F	Positive Feedback IR Comp
POSFEEDRESISTANCE	QUANT	0	Positive Feedback Resistance (ohm)
ACHSELECT	IQUANT	0	Ach Select
CABLEID	IQUANT	13	Cable ID
DCCALDATE	LABEL	7/31/2020	DC Calibration Date
ACCALDATE	LABEL	7/31/2020	AC Calibration Date
THERMOSELECT	IQUANT	1	Thermo Select
FRAMEWORKVERSION	QUANT	6.33	Framework Version
INSTRUMENTVERSION	LABEL	3.50	Instrument Version
COMPLIANCEVOLTAGE	IQUANT	0	Compliance Voltage
ZCURVE	TABLE
	Pt	Time	Freq	Zreal	Zimag	Zsig	Zmod	Zphz	Idc	Vdc	IERange
	#	s	Hz	ohm	ohm	V	ohm	°	A	V	#
	0	14	300046.9	-76.60735	-4859.06	1	4859.664	-90.90324	-0.000107	0.0036545	9
	1	28	238359.4	8.567979	-6022.268	1	6022.273	-89.91849	-2.469033E-005	-0.0011118	9
	2	43	189328.1	-546.3733	-7021.221	1	7042.448	-94.44965	1.253303E-006	0.0016504	9
	3	51	150421.9	597.7509	-9964.01	1	9981.92	-86.56689	2.545176E-005	-0.0014026	9
	4	58	119484.4	404.1057	-11746.4	1	11753.35	-88.02966	-4.884668E-006	-0.0148621	8
	5	66	94921.88	609.0063	-14274.54	1	14287.53	-87.55702	-2.361969E-006	0.0078029	8
	6	74	75421.88	420.442	-18407.68	1	18412.48	-88.69156	-2.003088E-005	0.0027427	8
	7	83	59859.37	594.8491	-23404.55	1	23412.11	-88.54408	-8.445239E-007	-0.0050573	8
	8	91	47578.12	3950.476	-30044.33	1	30302.94	-82.50925	1.344828E-006	-0.0200909	7
	9	98	37828.12	1261.898	-35595.66	1	35618.02	-87.96967	-2.65792E-005	0.0095648	8
	10	106	30046.88	1462.942	-46369.53	1	46392.6	-88.19294	8.433722E-006	-0.0076777	8
	11	116	23859.38	4696.347	-57282.49	1	57474.69	-85.31305	-5.286914E-006	0.0035402	7
	12	121	18984.38	5149.795	-72616.98	1	72799.35	-85.94353	-6.713288E-006	0.0120357	7
	13	126	15046.87	818.0309	-86473.93	1	86477.8	-89.45801	-2.603551E-005	0.0074825	8
	14	134	11953.13	-2831.861	-109597.6	1	109634.1	-91.48012	1.726047E-005	0.0003978	8
	15	141	9515.62	3148.572	-147253.2	1	147286.8	-88.77509	6.64091E-006	-0.0098671	7
	16	148	7546.875	3456.938	-185588.3	1	185620.5	-88.93288	-3.620809E-006	0.0253842	7
	17	153	5928.309	17755.73	-240956.7	1	241610	-85.78558	4.913309E-006	-0.000525	7
	18	160	4733.456	-144455.5	-185664.9	1	235242.2	-127.8845	1.650673E-005	-0.0091855	8
	19	169	3796.875	17697.89	-352616.2	1	353060	-87.12672	-1.131125E-006	-0.0129723	7
	20	176	2987.132	39825.41	-466870.8	1	468566.3	-85.12431	-2.139855E-007	0.0224656	6
	21	181	2390.625	41742.7	-563586.9	1	565130.6	-85.76406	1.900489E-007	-0.0211953	6
	22	187	1884.191	38027.28	-740697.6	1	741673.1	-87.06103	1.864924E-007	-0.0212425	6
	23	192	1516.544	105715	755223.2	1	762586.2	82.0316	2.860287E-005	-0.0008039	9
	24	201	1193.986	311977.3	-592160.5	1	669316	-62.21768	2.264294E-005	-0.0095887	8
	25	210	946.5144	81558.52	-545858.4	1	551917.7	-81.50211	5.438466E-006	-0.0264421	7
	26	217	751.7689	-311110.2	-1042885	1	1088301	-106.6107	5.03353E-006	-0.0006667	7
	27	222	597.4265	556883.9	-1437204	1	1541322	-68.81978	-6.669534E-006	0.0123081	7
	28	229	477.4305	41024.94	-2853045	1	2853341	-89.17618	-6.059373E-008	0.0006122	7
	29	235	376.6741	453957.2	-3707471	1	3735160	-83.01923	-7.721921E-010	0.0006445	5
	30	238	298.2954	516189.1	-4644788	1	4673383	-83.65857	-6.916026E-010	0.000687	5
	31	242	237.7717	513287.3	-5694409	1	5717496	-84.84935	-6.333993E-010	0.0006247	5
	32	246	189.0121	505123.9	-7195892	1	7213600	-85.98464	-6.733956E-010	0.000643	5
	33	251	150.2404	584569.4	-9004464	1	9023419	-86.28558	-8.073301E-010	0.0007207	5
	34	254	119.1737	2005518	-1.223901E+007	1	1.240224E+007	-80.69406	-8.345326E-010	0.0006752	5
	35	256	95.0169	727476.8	-1.383952E+007	1	1.385862E+007	-86.991	-5.976029E-010	0.0006631	5
	36	259	75.60484	1528023	-1.965548E+007	1	1.971478E+007	-85.55475	-7.695529E-010	0.0006265	5
	37	262	54.50582	1179667	-2.317289E+007	1	2.32029E+007	-87.08575	-7.244577E-010	0.0006225	5
	38	265	45.95588	1604705	-2.871446E+007	1	2.875927E+007	-86.80136	-8.68605E-011	0.000698	4
	39	268	37.20238	5726548	-3.311788E+007	1	3.360933E+007	-80.18976	-8.133217E-010	0.00064	5
	40	272	30.04808	3176457	-4.526844E+007	1	4.537975E+007	-85.98618	-8.130414E-010	0.0007245	5
	41	276	23.91582	1.717769E+007	-6.28456E+007	1	6.515092E+007	-74.71265	3.552367E-011	0.0006425	4
	42	279	18.60119	-2.081739E+008	-2.376361E+008	1	3.159229E+008	-131.219	2.982692E-010	0.0007072	4
	43	283	15.02404	439377.2	-9.352723E+007	1	9.352826E+007	-89.73083	-7.274285E-010	0.0006259	5
	44	288	12.01923	3656368	-1.178492E+008	1	1.179059E+008	-88.22292	-8.065653E-011	0.0006422	4
	45	291	9.450605	1.869367E+007	-1.292966E+008	1	1.306409E+008	-81.77319	-3.748574E-011	0.0006158	4
	46	295	7.512019	1.213417E+007	-1.742085E+008	1	1.746306E+008	-86.0156	-6.441794E-011	0.0006267	4
	47	300	5.978954	1.846507E+007	-2.012191E+008	1	2.020645E+008	-84.75688	-8.521882E-011	0.000685	4
	48	305	4.734848	4.311764E+007	-2.946176E+008	1	2.97756E+008	-81.67381	-5.35286E-012	0.0008026	3
	49	310	3.75601	-3.068597E+007	-4.632486E+008	1	4.642638E+008	-93.78978	-6.923741E-010	0.0006197	5
	50	318	3.004808	1.034911E+008	-3.976632E+008	1	4.109093E+008	-75.41248	-9.112427E-011	0.0006793	4
	51	327	2.372217	5.57471E+007	-5.641855E+008	1	5.669331E+008	-84.35693	-6.145922E-012	0.0006601	3
	52	333	1.878005	5.743722E+007	-7.094906E+008	1	7.118117E+008	-85.37168	-5.932204E-012	0.0007502	3
	53	342	1.512097	6.609294E+007	-8.733395E+008	1	8.758369E+008	-85.6722	-5.955696E-012	0.0006478	3
	54	349	1.201923	7.216951E+007	-1.097414E+009	1	1.099784E+009	-86.23746	-5.678212E-012	0.0007651	3
	55	361	0.956633	6.91292E+007	-1.385318E+009	1	1.387042E+009	-87.14323	-5.62917E-012	8.949523E-005	3
