EXPLAIN
TAG	EISPOT
TITLE	LABEL	Potentiostatic EIS	Test Identifier
DATE	LABEL	2/26/2021	Date
TIME	LABEL	18:37:04	Time
NOTES	NOTES	1	Notes...
	
PSTAT	PSTAT	REF3000-16137	Potentiostat
VDC	POTEN	0.00000E+000	T	DC Voltage (V)
FREQINIT	QUANT	3.00000E+005	Initial Freq. (Hz)
FREQFINAL	QUANT	1.00000E+000	Final Freq. (Hz)
PTSPERDEC	QUANT	1.00000E+001	Points/decade
VAC	QUANT	5.00000E+001	AC Voltage (mV rms)
AREA	QUANT	1.00000E+000	Sample Area (cm^2)
SPEED	SELECTOR	2	Optimize for:
ZGUESS	QUANT	1.00000E+003	Estimated Z (ohms)
EOC	QUANT	0	Open Circuit (V)
SEQUENCER	TOGGLE	TRUE	Run as Sequence
PSTATMODEL	IQUANT	5	Pstat Model
PSTATSECTION	LABEL	REF3000-16137	Pstat Section
PSTATSERIALNO	LABEL	16137	Pstat Serial Number
CTRLMODE	IQUANT	1	Control Mode
IESTAB	IQUANT	0	I/E Stability
CASPEED	IQUANT	1	Control Amp Speed
CONVENTION	IQUANT	1	Current Convention
ICHRANGE	IQUANT	2	Ich Range
ICHRANGEMODE	TOGGLE	F	Ich Auto Range
ICHOFFSETENABLE	TOGGLE	T	Ich Offset Enable
ICHOFFSET	QUANT	0	Ich Offset (V)
ICHFILTER	IQUANT	3	Ich Filter
VCHRANGE	IQUANT	2	Vch Range
VCHRANGEMODE	TOGGLE	F	Vch Auto Range
VCHOFFSETENABLE	TOGGLE	T	Vch Offset Enable
VCHOFFSET	QUANT	0	Vch Offset (V)
VCHFILTER	IQUANT	3	Vch Filter
ACHRANGE	IQUANT	2	Ach Range
ACHOFFSETENABLE	TOGGLE	F	Ach Offset Enable
ACHOFFSET	QUANT	0	Ach Offset (V)
ACHFILTER	IQUANT	3	Ach Filter
IERANGELOWERLIMIT	IQUANT	2	I/E Range Lower Limit
IERANGEMODE	TOGGLE	F	I/E AutoRange
IERANGE	IQUANT	11	I/E Range
POSFEEDENABLE	TOGGLE	F	Positive Feedback IR Comp
POSFEEDRESISTANCE	QUANT	0	Positive Feedback Resistance (ohm)
ACHSELECT	IQUANT	0	Ach Select
CABLEID	IQUANT	13	Cable ID
DCCALDATE	LABEL	7/31/2020	DC Calibration Date
ACCALDATE	LABEL	7/31/2020	AC Calibration Date
THERMOSELECT	IQUANT	1	Thermo Select
FRAMEWORKVERSION	QUANT	6.33	Framework Version
INSTRUMENTVERSION	LABEL	3.50	Instrument Version
COMPLIANCEVOLTAGE	IQUANT	0	Compliance Voltage
ZCURVE	TABLE
	Pt	Time	Freq	Zreal	Zimag	Zsig	Zmod	Zphz	Idc	Vdc	IERange
	#	s	Hz	ohm	ohm	V	ohm	°	A	V	#
	0	7	300046.9	64.98981	-13.25517	1	66.32779	-11.5278	1.535333E-005	0.0002794	9
	1	10	238359.4	66.75243	-16.40492	1	68.7387	-13.80724	-6.651507E-005	0.0016802	9
	2	13	189328.1	68.85132	-19.97953	1	71.6916	-16.18187	-3.111779E-006	0.000821	9
	3	16	150421.9	71.19884	-23.73174	1	75.04978	-18.43408	1.038094E-005	-0.000978	9
	4	18	119484.4	73.9977	-28.20548	1	79.19096	-20.86519	3.197209E-005	0.0001096	9
	5	21	94921.88	77.42342	-32.87286	1	84.11308	-23.00537	-1.256324E-005	0.0007142	9
	6	23	75421.88	81.23705	-38.37288	1	89.84395	-25.28403	-2.624123E-006	0.0006149	9
	7	26	59859.37	85.92018	-44.59353	1	96.8032	-27.42981	1.546187E-005	-0.000584	9
	8	28	47578.12	91.32269	-51.26118	1	104.726	-29.30633	-1.496562E-005	0.0003341	9
	9	31	37828.12	97.4072	-58.72816	1	113.7417	-31.08635	-1.555292E-005	0.0003838	9
	10	33	30046.88	104.3875	-66.81302	1	123.9384	-32.6212	-9.388026E-006	0.0007414	9
	11	36	23859.38	111.9293	-75.51714	1	135.0222	-34.00699	-8.81202E-006	0.0007663	9
	12	38	18984.38	119.7411	-85.77792	1	147.2949	-35.61635	-1.945662E-005	0.0005254	9
	13	41	15046.87	128.2299	-97.5943	1	161.1445	-37.27433	1.79137E-005	-0.0001469	9
	14	43	11953.13	136.7133	-111.3734	1	176.3365	-39.16796	-1.981081E-005	0.0006004	9
	15	45	9515.62	145.9566	-127.396	1	193.7345	-41.11559	2.249481E-005	-0.0003148	9
	16	48	7546.875	155.6068	-147.8043	1	214.615	-43.52691	-1.385778E-005	0.0008162	9
	17	50	5928.309	166.2405	-174.0832	1	240.7091	-46.32015	-1.401597E-005	0.0002639	9
	18	52	4733.456	177.089	-204.3304	1	270.3912	-49.08519	-9.950892E-006	0.0001059	9
	19	54	3796.875	189.0979	-240.2377	1	305.7322	-51.79272	-1.417367E-005	0.0008288	9
	20	57	2987.132	203.0294	-289.1249	1	353.2905	-54.92269	-1.617072E-005	0.000406	9
	21	59	2390.625	218.8599	-345.5791	1	409.0532	-57.65337	2.180373E-005	-0.0002443	9
	22	61	1884.191	238.3088	-415.7224	1	479.1828	-60.17693	5.155581E-006	-0.0009257	8
	23	64	1516.544	259.0661	-496.8862	1	560.3669	-62.46341	-3.991498E-006	0.0020694	8
	24	66	1193.986	286.7301	-606.0005	1	670.4109	-64.67876	-1.852581E-007	0.001718	8
	25	69	946.5144	320.1818	-735.3661	1	802.0472	-66.47147	3.573957E-006	-0.0008825	8
	26	71	751.7689	357.0928	-892.456	1	961.246	-68.19248	-2.803906E-006	0.0022089	8
	27	73	597.4265	401.0403	-1082.101	1	1154.026	-69.66467	-2.736801E-006	0.0021818	8
	28	75	477.4305	455.5272	-1309.755	1	1386.71	-70.82255	3.88708E-007	0.0006807	8
	29	78	376.6741	523.1713	-1602.502	1	1685.74	-71.91962	4.179417E-007	0.0006352	8
	30	80	298.2954	603.4427	-1955.099	1	2046.107	-72.84712	4.020486E-007	0.0006713	8
	31	82	237.7717	697.4756	-2373.866	1	2474.209	-73.62646	3.744165E-007	0.0006752	8
	32	85	189.0121	811.9624	-2891.41	1	3003.254	-74.31425	4.002559E-007	0.0006684	8
	33	87	150.2404	949.9402	-3523.156	1	3648.975	-74.91032	3.854059E-007	0.0006755	8
	34	90	119.1737	1121.839	-4311.873	1	4455.42	-75.41642	2.014626E-008	0.0006443	7
	35	92	95.0169	1321.147	-5246.156	1	5409.953	-75.86504	1.775234E-008	0.0006474	7
	36	95	75.60484	1565.951	-6397.667	1	6586.527	-76.24619	1.781798E-008	0.0006553	7
	37	97	54.50582	2011.479	-8506.905	1	8741.48	-76.69661	1.728859E-008	0.0006468	7
	38	100	45.95588	2300.727	-9870.38	1	10134.98	-76.87898	1.967056E-008	0.0006461	7
	39	102	37.20238	2725.758	-11869.62	1	12178.57	-77.06674	1.75348E-008	0.0006517	7
	40	104	30.04808	3259.756	-14315.27	1	14681.72	-77.17181	1.927154E-008	0.0006464	7
	41	107	23.91582	3947.196	-17467.22	1	17907.66	-77.26633	1.58955E-008	0.000645	7
	42	109	18.60119	4924.384	-21790.13	1	22339.64	-77.26556	1.551031E-008	0.0006515	7
	43	111	15.02404	5976.344	-26260.02	1	26931.49	-77.17881	2.248843E-008	0.0006155	7
	44	114	12.01923	7375.69	-31963.01	1	32802.97	-77.00605	2.074124E-008	0.0006478	7
	45	116	9.450605	9318.181	-39394.87	1	40481.91	-76.69225	1.792483E-008	0.000658	7
	46	119	7.512019	11747.01	-48114.77	1	49528	-76.27988	-1.699081E-008	0.00071	6
	47	122	5.978954	14915.07	-58596.2	1	60464.64	-75.71921	-1.760476E-008	0.0007002	6
	48	126	4.734848	19191.29	-71665.72	1	74190.84	-75.00856	-1.535286E-008	0.0007218	6
	49	129	3.75601	24866.8	-87124.18	1	90603.42	-74.0703	-1.737421E-008	0.0006756	6
	50	135	3.004808	32110.74	-104921.8	1	109725.5	-72.98356	-1.654396E-008	0.0006942	6
	51	141	2.372217	42381.25	-127016.9	1	133900.9	-71.54788	-1.724114E-008	0.0007206	6
	52	146	1.878005	55924.95	-152938.2	1	162842.5	-69.91403	-1.779494E-008	0.0006749	6
	53	150	1.512097	72077.14	-179570	1	193495.5	-68.13009	-1.697568E-008	0.0006411	6
	54	156	1.201923	94395.14	-211497.3	1	231606.4	-65.94791	-1.727662E-008	0.0006713	6
	55	162	0.956633	121577.9	-246025.8	1	274426.5	-63.70292	-1.778114E-008	5.203213E-005	6
