EXPLAIN
TAG	EISPOT
TITLE	LABEL	Potentiostatic EIS	Test Identifier
DATE	LABEL	2/26/2021	Date
TIME	LABEL	18:34:13	Time
NOTES	NOTES	1	Notes...
	
PSTAT	PSTAT	REF3000-16137	Potentiostat
VDC	POTEN	0.00000E+000	T	DC Voltage (V)
FREQINIT	QUANT	3.00000E+005	Initial Freq. (Hz)
FREQFINAL	QUANT	1.00000E+000	Final Freq. (Hz)
PTSPERDEC	QUANT	1.00000E+001	Points/decade
VAC	QUANT	5.00000E+001	AC Voltage (mV rms)
AREA	QUANT	1.00000E+000	Sample Area (cm^2)
SPEED	SELECTOR	2	Optimize for:
ZGUESS	QUANT	1.00000E+003	Estimated Z (ohms)
EOC	QUANT	0	Open Circuit (V)
SEQUENCER	TOGGLE	TRUE	Run as Sequence
PSTATMODEL	IQUANT	5	Pstat Model
PSTATSECTION	LABEL	REF3000-16137	Pstat Section
PSTATSERIALNO	LABEL	16137	Pstat Serial Number
CTRLMODE	IQUANT	1	Control Mode
IESTAB	IQUANT	0	I/E Stability
CASPEED	IQUANT	1	Control Amp Speed
CONVENTION	IQUANT	1	Current Convention
ICHRANGE	IQUANT	2	Ich Range
ICHRANGEMODE	TOGGLE	F	Ich Auto Range
ICHOFFSETENABLE	TOGGLE	T	Ich Offset Enable
ICHOFFSET	QUANT	0	Ich Offset (V)
ICHFILTER	IQUANT	3	Ich Filter
VCHRANGE	IQUANT	2	Vch Range
VCHRANGEMODE	TOGGLE	F	Vch Auto Range
VCHOFFSETENABLE	TOGGLE	T	Vch Offset Enable
VCHOFFSET	QUANT	0	Vch Offset (V)
VCHFILTER	IQUANT	3	Vch Filter
ACHRANGE	IQUANT	2	Ach Range
ACHOFFSETENABLE	TOGGLE	F	Ach Offset Enable
ACHOFFSET	QUANT	0	Ach Offset (V)
ACHFILTER	IQUANT	3	Ach Filter
IERANGELOWERLIMIT	IQUANT	2	I/E Range Lower Limit
IERANGEMODE	TOGGLE	F	I/E AutoRange
IERANGE	IQUANT	11	I/E Range
POSFEEDENABLE	TOGGLE	F	Positive Feedback IR Comp
POSFEEDRESISTANCE	QUANT	0	Positive Feedback Resistance (ohm)
ACHSELECT	IQUANT	0	Ach Select
CABLEID	IQUANT	13	Cable ID
DCCALDATE	LABEL	7/31/2020	DC Calibration Date
ACCALDATE	LABEL	7/31/2020	AC Calibration Date
THERMOSELECT	IQUANT	1	Thermo Select
FRAMEWORKVERSION	QUANT	6.33	Framework Version
INSTRUMENTVERSION	LABEL	3.50	Instrument Version
COMPLIANCEVOLTAGE	IQUANT	0	Compliance Voltage
ZCURVE	TABLE
	Pt	Time	Freq	Zreal	Zimag	Zsig	Zmod	Zphz	Idc	Vdc	IERange
	#	s	Hz	ohm	ohm	V	ohm	°	A	V	#
	0	7	300046.9	59.8417	-12.54366	1	61.14223	-11.83859	2.816343E-006	0.0005244	9
	1	10	238359.4	61.5423	-15.64645	1	63.50013	-14.2646	-3.235988E-005	-0.0002428	9
	2	13	189328.1	63.49373	-19.04195	1	66.28763	-16.69414	5.671749E-005	-0.0016114	9
	3	16	150421.9	65.7598	-22.7945	1	69.59842	-19.11799	1.703469E-006	0.0008467	9
	4	18	119484.4	68.46227	-27.02358	1	73.60269	-21.54025	-4.352128E-006	0.000846	9
	5	21	94921.88	71.80894	-31.29195	1	78.33078	-23.54597	-1.297945E-005	0.0007522	9
	6	23	75421.88	75.56924	-36.61623	1	83.97295	-25.85199	1.248637E-005	2.243503E-005	9
	7	26	59859.37	80.05375	-42.35653	1	90.56863	-27.88337	1.481602E-005	-0.0005722	9
	8	28	47578.12	85.115	-48.63678	1	98.0311	-29.7447	2.261101E-005	-0.0004176	9
	9	31	37828.12	91.08748	-55.47609	1	106.6514	-31.34316	1.918996E-005	-0.0005953	9
	10	33	30046.88	97.4834	-62.95237	1	116.0432	-32.85336	2.098826E-005	-0.0001719	9
	11	36	23859.38	104.6686	-71.46255	1	126.7375	-34.32334	-9.336663E-006	0.0006697	9
	12	38	18984.38	111.9851	-80.48296	1	137.9064	-35.70457	-1.618946E-005	0.0007521	9
	13	40	15046.87	119.72	-91.51366	1	150.6905	-37.3942	-4.220204E-006	-9.316441E-005	9
	14	43	11953.13	127.7067	-105.0136	1	165.3387	-39.43057	-9.754989E-006	0.0001141	9
	15	45	9515.62	136.0014	-120.383	1	181.6272	-41.51397	1.937202E-005	-0.0005455	9
	16	47	7546.875	145.1002	-139.7226	1	201.436	-43.91834	-6.636336E-006	1.999783E-005	9
	17	50	5928.309	154.9921	-164.9652	1	226.3539	-46.78534	-1.772879E-005	0.0005425	9
	18	52	4733.456	165.1737	-193.8131	1	254.6485	-49.56131	-1.777317E-005	0.0006486	9
	19	54	3796.875	177.0564	-228.2033	1	288.8351	-52.19314	-1.291359E-005	0.0008032	9
	20	57	2987.132	190.0149	-274.9067	1	334.1846	-55.34786	-1.738558E-005	0.0006383	9
	21	59	2390.625	204.5338	-329.4641	1	387.7894	-58.16768	-1.408312E-005	0.0002579	9
	22	61	1884.191	223.4842	-396.2027	1	454.8866	-60.57416	1.995038E-006	-0.0004854	8
	23	63	1516.544	243.7304	-472.9172	1	532.0293	-62.73449	3.320071E-006	-0.0007526	8
	24	66	1193.986	269.7122	-576.4907	1	636.4637	-64.92738	1.325336E-006	0.0012014	8
	25	68	946.5144	301.5865	-698.8755	1	761.1711	-66.6583	4.860432E-006	-0.0008015	8
	26	71	751.7689	337.1783	-847.6712	1	912.2695	-68.30882	-1.014414E-006	0.0003763	8
	27	73	597.4265	380.8615	-1027.425	1	1095.745	-69.66049	-3.654594E-006	0.0013671	8
	28	75	477.4305	430.3992	-1244.353	1	1316.684	-70.92042	3.999573E-007	0.0006747	8
	29	78	376.6741	494.4367	-1521.896	1	1600.199	-72.00195	3.976308E-007	0.0006729	8
	30	80	298.2954	570.1906	-1856.962	1	1942.531	-72.9306	3.988285E-007	0.0006727	8
	31	82	237.7717	658.5721	-2254.865	1	2349.071	-73.71864	3.955867E-007	0.0006739	8
	32	85	189.0121	765.7941	-2746.359	1	2851.127	-74.41941	3.982302E-007	0.000679	8
	33	87	150.2404	895.4277	-3347.426	1	3465.119	-75.02415	4.00363E-007	0.0006726	8
	34	89	119.1737	1053.199	-4090.759	1	4224.161	-75.56229	3.978587E-007	0.0006766	8
	35	92	95.0169	1243.622	-4988.021	1	5140.715	-76.00034	1.38154E-008	0.0006488	7
	36	94	75.60484	1472.118	-6085.536	1	6261.061	-76.40114	1.372334E-008	0.000647	7
	37	97	54.50582	1891.309	-8097.44	1	8315.382	-76.85319	1.425129E-008	0.0006454	7
	38	99	45.95588	2167.375	-9404.389	1	9650.91	-77.02198	1.731419E-008	0.0006405	7
	39	102	37.20238	2569.006	-11312.6	1	11600.63	-77.20555	1.575547E-008	0.0006484	7
	40	104	30.04808	3073.139	-13652.47	1	13994.07	-77.31429	1.553572E-008	0.0006446	7
	41	107	23.91582	3742.919	-16680.86	1	17095.63	-77.35321	1.74143E-008	0.0006419	7
	42	109	18.60119	4690.137	-20796.14	1	21318.46	-77.29076	1.497515E-008	0.0006441	7
	43	111	15.02404	5689.673	-25092.05	1	25729.04	-77.22411	1.857162E-008	0.000666	7
	44	114	12.01923	7044.892	-30481.17	1	31284.69	-76.98615	1.403057E-008	0.0006498	7
	45	116	9.450605	8943.425	-37643.16	1	38690.98	-76.63521	1.826508E-008	0.0006436	7
	46	119	7.512019	11335.8	-45918.54	1	47297.07	-76.1328	-2.147132E-008	0.0007081	6
	47	122	5.978954	14433.27	-55894.75	1	57728.17	-75.52123	-2.316834E-008	0.000703	6
	48	126	4.734848	18663.06	-68287.3	1	70791.71	-74.71423	-2.053436E-008	0.0007261	6
	49	129	3.75601	24330.39	-82934.05	1	86429.3	-73.64988	-2.25539E-008	0.0006783	6
	50	135	3.004808	31475.48	-99679.5	1	104530.9	-72.47561	-2.21501E-008	0.0006958	6
	51	141	2.372217	41815.88	-120515.9	1	127564.3	-70.86456	-2.241863E-008	0.0007659	6
	52	145	1.878005	54970.98	-144417.2	1	154525.5	-69.16117	-2.297817E-008	0.000671	6
	53	150	1.512097	70675.05	-168985.5	1	183169.5	-67.30379	-2.237223E-008	0.0007208	6
	54	155	1.201923	92129.04	-198514.7	1	218851.2	-65.10437	-2.197166E-008	0.000665	6
	55	162	0.956633	117946.5	-230104.5	1	258572	-62.86133	-2.284065E-008	5.039236E-005	6
