EXPLAIN
TAG	EISPOT
TITLE	LABEL	Potentiostatic EIS	Test Identifier
DATE	LABEL	2/26/2021	Date
TIME	LABEL	18:54:18	Time
NOTES	NOTES	1	Notes...
	
PSTAT	PSTAT	REF3000-16137	Potentiostat
VDC	POTEN	0.00000E+000	T	DC Voltage (V)
FREQINIT	QUANT	3.00000E+005	Initial Freq. (Hz)
FREQFINAL	QUANT	1.00000E+000	Final Freq. (Hz)
PTSPERDEC	QUANT	1.00000E+001	Points/decade
VAC	QUANT	5.00000E+001	AC Voltage (mV rms)
AREA	QUANT	1.00000E+000	Sample Area (cm^2)
SPEED	SELECTOR	2	Optimize for:
ZGUESS	QUANT	1.00000E+003	Estimated Z (ohms)
EOC	QUANT	0	Open Circuit (V)
SEQUENCER	TOGGLE	TRUE	Run as Sequence
PSTATMODEL	IQUANT	5	Pstat Model
PSTATSECTION	LABEL	REF3000-16137	Pstat Section
PSTATSERIALNO	LABEL	16137	Pstat Serial Number
CTRLMODE	IQUANT	1	Control Mode
IESTAB	IQUANT	0	I/E Stability
CASPEED	IQUANT	1	Control Amp Speed
CONVENTION	IQUANT	1	Current Convention
ICHRANGE	IQUANT	2	Ich Range
ICHRANGEMODE	TOGGLE	F	Ich Auto Range
ICHOFFSETENABLE	TOGGLE	T	Ich Offset Enable
ICHOFFSET	QUANT	0	Ich Offset (V)
ICHFILTER	IQUANT	3	Ich Filter
VCHRANGE	IQUANT	2	Vch Range
VCHRANGEMODE	TOGGLE	F	Vch Auto Range
VCHOFFSETENABLE	TOGGLE	T	Vch Offset Enable
VCHOFFSET	QUANT	0	Vch Offset (V)
VCHFILTER	IQUANT	3	Vch Filter
ACHRANGE	IQUANT	2	Ach Range
ACHOFFSETENABLE	TOGGLE	F	Ach Offset Enable
ACHOFFSET	QUANT	0	Ach Offset (V)
ACHFILTER	IQUANT	3	Ach Filter
IERANGELOWERLIMIT	IQUANT	2	I/E Range Lower Limit
IERANGEMODE	TOGGLE	F	I/E AutoRange
IERANGE	IQUANT	11	I/E Range
POSFEEDENABLE	TOGGLE	F	Positive Feedback IR Comp
POSFEEDRESISTANCE	QUANT	0	Positive Feedback Resistance (ohm)
ACHSELECT	IQUANT	0	Ach Select
CABLEID	IQUANT	13	Cable ID
DCCALDATE	LABEL	7/31/2020	DC Calibration Date
ACCALDATE	LABEL	7/31/2020	AC Calibration Date
THERMOSELECT	IQUANT	1	Thermo Select
FRAMEWORKVERSION	QUANT	6.33	Framework Version
INSTRUMENTVERSION	LABEL	3.50	Instrument Version
COMPLIANCEVOLTAGE	IQUANT	0	Compliance Voltage
ZCURVE	TABLE
	Pt	Time	Freq	Zreal	Zimag	Zsig	Zmod	Zphz	Idc	Vdc	IERange
	#	s	Hz	ohm	ohm	V	ohm	°	A	V	#
	0	6	300046.9	124.3736	-19.92466	1	125.9595	-9.101452	7.394257E-006	0.000745	9
	1	10	238359.4	126.747	-23.98718	1	128.9968	-10.71662	2.975436E-005	0.0001643	9
	2	13	189328.1	129.5296	-28.56388	1	132.6417	-12.43584	7.705095E-006	0.0009042	9
	3	15	150421.9	132.5753	-33.75262	1	136.8045	-14.2836	6.660453E-005	-0.0015882	9
	4	18	119484.4	136.3805	-39.22727	1	141.9099	-16.04688	6.954011E-005	-0.0025123	9
	5	20	94921.88	140.67	-46.01609	1	148.0052	-18.11399	1.43327E-005	0.0001013	9
	6	23	75421.88	145.6891	-53.84703	1	155.3216	-20.28444	-1.203566E-005	8.576631E-005	9
	7	26	59859.37	151.6161	-63.0141	1	164.1895	-22.56857	-1.581875E-005	0.0002236	9
	8	28	47578.12	158.5998	-73.50093	1	174.8035	-24.86473	2.260976E-005	-0.0007956	9
	9	31	37828.12	167.0229	-85.46054	1	187.617	-27.09745	-1.103034E-006	-0.0003211	9
	10	33	30046.88	176.9298	-98.4892	1	202.4951	-29.10279	1.703108E-005	-0.0006345	9
	11	36	23859.38	188.547	-113.6092	1	220.1296	-31.07112	-2.051122E-005	0.0007939	9
	12	38	18984.38	201.8085	-129.6043	1	239.8415	-32.70917	1.33261E-005	-0.0006708	9
	13	40	15046.87	217.4382	-148.0174	1	263.0371	-34.24441	2.355061E-005	-0.000285	9
	14	43	11953.13	232.5972	-168.3237	1	287.1138	-35.89214	2.709358E-005	-0.0006627	9
	15	46	9515.62	249.179	-191.4102	1	314.2102	-37.53015	2.280852E-005	-0.0006985	9
	16	49	7546.875	266.7098	-218.1825	1	344.5835	-39.28495	-2.117675E-005	0.0007934	9
	17	51	5928.309	285.1384	-252.8422	1	381.0946	-41.56453	-5.770186E-006	0.0007629	9
	18	53	4733.456	302.5574	-290.5537	1	419.4787	-43.84058	-6.897059E-006	0.0029794	8
	19	56	3796.875	321.3615	-337.5191	1	466.039	-46.40477	7.732429E-006	-0.0010827	8
	20	58	2987.132	342.6008	-401.0034	1	527.4268	-49.49078	-6.819224E-006	0.0029392	8
	21	60	2390.625	364.1492	-474.9028	1	598.4458	-52.51949	-6.406133E-006	0.0032481	8
	22	63	1884.191	390.2132	-571.7375	1	692.2067	-55.68631	-6.952472E-006	0.0030061	8
	23	65	1516.544	417.906	-678.3237	1	796.7236	-58.36334	4.427122E-006	0.000819	8
	24	67	1193.986	453.337	-825.8979	1	942.1369	-61.23753	-6.051379E-006	0.001585	8
	25	70	946.5144	490.614	-1003.708	1	1117.198	-63.95053	-6.247113E-006	0.0032065	8
	26	72	751.7689	540.2062	-1217.642	1	1332.094	-66.07555	1.72048E-006	0.001873	8
	27	74	597.4265	598.421	-1485.356	1	1601.371	-68.05646	1.593969E-006	0.0019249	8
	28	77	477.4305	666.867	-1797.122	1	1916.862	-69.64137	2.535449E-007	0.0006635	8
	29	79	376.6741	753.2666	-2205.116	1	2330.225	-71.13986	2.487357E-007	0.0006579	8
	30	81	298.2954	856.7892	-2698.893	1	2831.627	-72.38747	2.409587E-007	0.0006682	8
	31	84	237.7717	979.598	-3287.529	1	3430.373	-73.40733	2.423592E-007	0.0006686	8
	32	86	189.0121	1130.089	-4014.681	1	4170.703	-74.27866	2.654709E-007	0.0006581	8
	33	89	150.2404	1318.974	-4914.425	1	5088.346	-74.97653	1.725577E-008	0.0006307	7
	34	91	119.1737	1547.259	-6016.679	1	6212.442	-75.57822	1.809321E-008	0.0006373	7
	35	93	95.0169	1818.4	-7333.91	1	7555.979	-76.07467	1.671892E-008	0.0006409	7
	36	96	75.60484	2153.885	-8956.775	1	9212.114	-76.47851	1.631722E-008	0.0006301	7
	37	98	54.50582	2769.226	-11929.6	1	12246.8	-76.93135	1.463433E-008	0.0006359	7
	38	101	45.95588	3176.291	-13853.09	1	14212.56	-77.08621	1.754478E-008	0.0006478	7
	39	103	37.20238	3769.273	-16663.97	1	17084.95	-77.25458	1.480032E-008	0.000646	7
	40	106	30.04808	4504.429	-20104.02	1	20602.46	-77.3711	1.59895E-008	0.0006452	7
	41	108	23.91582	5459.449	-24538.16	1	25138.16	-77.45668	1.277819E-008	0.000649	7
	42	111	18.60119	6785.908	-30606.57	1	31349.81	-77.49894	1.467811E-008	0.000634	7
	43	113	15.02404	8201.93	-36863.08	1	37764.51	-77.45618	1.856617E-008	0.0006292	7
	44	115	12.01923	10034.46	-44793.27	1	45903.45	-77.37322	-4.030386E-009	0.0006783	6
	45	118	9.450605	12505.56	-55255.87	1	56653.34	-77.2476	-2.142966E-009	0.0006962	6
	46	120	7.512019	15516.81	-67525.2	1	69285.09	-77.05851	-2.322216E-009	0.000697	6
	47	123	5.978954	19366.13	-82371.95	1	84617.88	-76.76971	-2.694008E-009	0.0006791	6
	48	127	4.734848	24453.82	-100933.1	1	103853.2	-76.38095	-2.51191E-009	0.0007058	6
	49	131	3.75601	30971.06	-123362.8	1	127191.1	-75.90678	-2.398294E-009	0.0006875	6
	50	136	3.004808	39153.45	-149457	1	154500.4	-75.32003	-2.99633E-009	0.0007383	6
	51	143	2.372217	50451.25	-182893.5	1	189724.5	-74.57846	-2.488391E-009	0.0007184	6
	52	147	1.878005	65851.34	-222815.5	1	232342.7	-73.53538	-2.298023E-009	0.000662	6
	53	152	1.512097	84005.85	-266611.7	1	279533.1	-72.51104	-2.657011E-009	0.0007739	6
	54	157	1.201923	110125.8	-321409.9	1	339752.9	-71.08682	-2.174126E-009	0.0006707	6
	55	163	0.956633	143270.3	-384108.3	1	409958	-69.54475	-3.675015E-009	3.593945E-005	6
