EXPLAIN
TAG	EISPOT
TITLE	LABEL	Potentiostatic EIS	Test Identifier
DATE	LABEL	2/26/2021	Date
TIME	LABEL	19:45:52	Time
NOTES	NOTES	1	Notes...
	
PSTAT	PSTAT	REF3000-16137	Potentiostat
VDC	POTEN	0.00000E+000	T	DC Voltage (V)
FREQINIT	QUANT	3.00000E+005	Initial Freq. (Hz)
FREQFINAL	QUANT	1.00000E+000	Final Freq. (Hz)
PTSPERDEC	QUANT	1.00000E+001	Points/decade
VAC	QUANT	5.00000E+001	AC Voltage (mV rms)
AREA	QUANT	1.00000E+000	Sample Area (cm^2)
SPEED	SELECTOR	2	Optimize for:
ZGUESS	QUANT	1.00000E+003	Estimated Z (ohms)
EOC	QUANT	0	Open Circuit (V)
SEQUENCER	TOGGLE	TRUE	Run as Sequence
PSTATMODEL	IQUANT	5	Pstat Model
PSTATSECTION	LABEL	REF3000-16137	Pstat Section
PSTATSERIALNO	LABEL	16137	Pstat Serial Number
CTRLMODE	IQUANT	1	Control Mode
IESTAB	IQUANT	0	I/E Stability
CASPEED	IQUANT	1	Control Amp Speed
CONVENTION	IQUANT	1	Current Convention
ICHRANGE	IQUANT	2	Ich Range
ICHRANGEMODE	TOGGLE	F	Ich Auto Range
ICHOFFSETENABLE	TOGGLE	T	Ich Offset Enable
ICHOFFSET	QUANT	0	Ich Offset (V)
ICHFILTER	IQUANT	3	Ich Filter
VCHRANGE	IQUANT	2	Vch Range
VCHRANGEMODE	TOGGLE	F	Vch Auto Range
VCHOFFSETENABLE	TOGGLE	T	Vch Offset Enable
VCHOFFSET	QUANT	0	Vch Offset (V)
VCHFILTER	IQUANT	3	Vch Filter
ACHRANGE	IQUANT	2	Ach Range
ACHOFFSETENABLE	TOGGLE	F	Ach Offset Enable
ACHOFFSET	QUANT	0	Ach Offset (V)
ACHFILTER	IQUANT	3	Ach Filter
IERANGELOWERLIMIT	IQUANT	2	I/E Range Lower Limit
IERANGEMODE	TOGGLE	F	I/E AutoRange
IERANGE	IQUANT	11	I/E Range
POSFEEDENABLE	TOGGLE	F	Positive Feedback IR Comp
POSFEEDRESISTANCE	QUANT	0	Positive Feedback Resistance (ohm)
ACHSELECT	IQUANT	0	Ach Select
CABLEID	IQUANT	13	Cable ID
DCCALDATE	LABEL	7/31/2020	DC Calibration Date
ACCALDATE	LABEL	7/31/2020	AC Calibration Date
THERMOSELECT	IQUANT	1	Thermo Select
FRAMEWORKVERSION	QUANT	6.33	Framework Version
INSTRUMENTVERSION	LABEL	3.50	Instrument Version
COMPLIANCEVOLTAGE	IQUANT	0	Compliance Voltage
ZCURVE	TABLE
	Pt	Time	Freq	Zreal	Zimag	Zsig	Zmod	Zphz	Idc	Vdc	IERange
	#	s	Hz	ohm	ohm	V	ohm	°	A	V	#
	0	15	300046.9	809.3977	-4664.218	1	4733.926	-80.1553	-1.69115E-005	0.0016509	9
	1	28	238359.4	1220.553	-5728.568	1	5857.153	-77.97217	-2.591535E-006	0.0015729	9
	2	45	189328.1	1749.877	-6923.066	1	7140.792	-75.81499	2.61595E-005	0.0011232	9
	3	55	150421.9	2934.039	-8512.15	1	9003.626	-70.98153	-2.715693E-005	-0.0009665	9
	4	65	119484.4	4205.299	-10071.46	1	10914.16	-67.33722	4.26716E-006	0.0148703	8
	5	72	94921.88	6131.423	-11607.55	1	13127.43	-62.15577	1.726438E-005	0.0003786	8
	6	81	75421.88	7534.293	-13783.1	1	15707.94	-61.33754	-1.950121E-005	0.0111231	8
	7	89	59859.37	10822.85	-15425.51	1	18843.58	-54.94574	-1.58275E-005	0.0007017	8
	8	98	47578.12	16734.36	-16277.25	1	23344.97	-44.20668	-5.138113E-006	0.0030075	7
	9	104	37828.12	20150.64	-16489.34	1	26037.41	-39.29358	-5.103349E-006	0.0030504	7
	10	110	30046.88	22029.26	-18106.12	1	28515.25	-39.41721	2.700698E-005	-0.0072361	8
	11	119	23859.38	25802.76	-17320.25	1	31076.9	-33.87172	1.729355E-005	0.0003382	8
	12	125	18984.38	29652.34	-16542.3	1	33954.51	-29.15606	2.262594E-005	-0.0095979	8
	13	133	15046.87	32025.7	-15522.9	1	35589.4	-25.85953	-1.043431E-006	-0.0049835	8
	14	140	11953.13	35278.37	-13752.01	1	37863.98	-21.29655	2.240747E-005	-0.0094708	8
	15	147	9515.62	37930.49	-13300.28	1	40194.77	-19.32315	2.265313E-005	-0.0026422	8
	16	154	7546.875	40383.42	-11677.32	1	42037.85	-16.12782	2.308644E-005	-0.0027368	8
	17	161	5928.309	41010.48	-7334.329	1	41661.15	-10.1396	2.594384E-005	-0.0050154	8
	18	167	4733.456	47496.75	-11602.78	1	48893.41	-13.72768	8.221723E-006	-0.007577	8
	19	175	3796.875	46862.67	-8195.513	1	47573.9	-9.91978	-7.180328E-006	0.0181157	7
	20	180	2987.132	51274.21	-12434.39	1	52760.39	-13.63151	-2.349167E-005	0.0051903	8
	21	187	2390.625	48998.16	-7753.3	1	49607.79	-8.991735	-1.583286E-005	0.0007334	8
	22	193	1884.191	51483.4	-9060.191	1	52274.54	-9.98087	1.402551E-006	-0.0198406	7
	23	198	1516.544	53032.25	-8911.418	1	53775.77	-9.53874	1.424117E-006	-0.0199365	7
	24	204	1193.986	52993.74	-8512.076	1	53673.01	-9.125144	-9.279257E-007	-0.0133866	7
	25	209	946.5144	55621	-7575.789	1	56134.55	-7.756172	6.454733E-006	-0.0095225	7
	26	213	751.7689	56027.55	-13244.53	1	57571.73	-13.30017	2.656358E-006	0.0088162	7
	27	217	597.4265	56255.74	-13059.78	1	57751.77	-13.06971	-3.207823E-006	-0.0053581	7
	28	221	477.4305	60026.72	-14568.96	1	61769.43	-13.64235	-6.416067E-008	0.0006167	7
	29	224	376.6741	62076.93	-16202.74	1	64156.64	-14.62844	-7.17011E-009	0.0006739	6
	30	226	298.2954	63992.28	-19037.34	1	66764	-16.56744	-7.677765E-009	0.0007356	6
	31	229	237.7717	66185.87	-22407.04	1	69875.92	-18.70339	-7.146221E-009	0.0007309	6
	32	231	189.0121	68745.13	-26401.86	1	73640.69	-21.0095	-7.159146E-009	0.0007113	6
	33	233	150.2404	71744.38	-31066.41	1	78181.7	-23.41335	-6.518739E-009	0.0006788	6
	34	236	119.1737	75231.73	-36549.36	1	83640.11	-25.91158	-6.789898E-009	0.0006981	6
	35	239	95.0169	79482.11	-42892.47	1	90317.05	-28.35349	-7.125196E-009	0.0007325	6
	36	241	75.60484	84493.34	-50180.64	1	98271.2	-30.7061	-6.353823E-009	0.0006442	6
	37	244	54.50582	92290.97	-62462.2	1	111441.2	-34.09	-6.520601E-009	0.0006687	6
	38	246	45.95588	98020.6	-69747.38	1	120302.7	-35.43408	-6.311813E-009	0.0006397	6
	39	248	37.20238	104846.3	-79848.89	1	131789.9	-37.2922	-7.17887E-009	0.0006803	6
	40	251	30.04808	112646.5	-91237.05	1	144960.1	-39.00543	-6.513248E-009	0.0006501	6
	41	254	23.91582	121095.8	-105193.5	1	160405.3	-40.98019	-6.173527E-009	0.0006817	6
	42	256	18.60119	131281.8	-123185.6	1	180026.7	-43.17768	-6.047757E-009	0.0006485	6
	43	258	15.02404	139962.3	-142677.2	1	199865.5	-45.55035	-7.538237E-009	0.0006929	6
	44	261	12.01923	149348.7	-166724.3	1	223834.9	-48.14658	-6.439823E-009	0.0006467	6
	45	263	9.450605	159601.3	-198778	1	254922	-51.23859	-7.091066E-009	0.0007469	6
	46	266	7.512019	170395.7	-237445	1	292258.2	-54.33595	-7.336883E-009	0.0007006	6
	47	269	5.978954	182193.3	-285369.7	1	338571	-57.44394	-6.570962E-009	0.0006409	6
	48	273	4.734848	195891.3	-346828.1	1	398325.4	-60.54189	-6.8659E-009	0.0006882	6
	49	277	3.75601	212637.9	-423411	1	473805.6	-63.3341	-7.850618E-010	0.000611	5
	50	282	3.004808	231518.5	-514572.9	1	564257.1	-65.77589	-7.093666E-010	0.0006598	5
	51	289	2.372217	254128.7	-633270.5	1	682358.4	-68.13462	-7.52541E-010	0.0006653	5
	52	293	1.878005	281659.7	-780739.8	1	829992.1	-70.16258	-8.137815E-010	0.0006721	5
	53	297	1.512097	311974.2	-948239.8	1	998242	-71.78861	-7.849721E-010	0.0005638	5
	54	303	1.201923	350857.7	-1166712	1	1218326	-73.26274	-8.048927E-010	0.0006912	5
	55	309	0.956633	397008.8	-1434430	1	1488357	-74.52945	-8.143489E-010	2.626816E-005	5
