EXPLAIN
TAG	EISPOT
TITLE	LABEL	Potentiostatic EIS	Test Identifier
DATE	LABEL	2/26/2021	Date
TIME	LABEL	19:15:39	Time
NOTES	NOTES	1	Notes...
	
PSTAT	PSTAT	REF3000-16137	Potentiostat
VDC	POTEN	0.00000E+000	T	DC Voltage (V)
FREQINIT	QUANT	3.00000E+005	Initial Freq. (Hz)
FREQFINAL	QUANT	1.00000E+000	Final Freq. (Hz)
PTSPERDEC	QUANT	1.00000E+001	Points/decade
VAC	QUANT	5.00000E+001	AC Voltage (mV rms)
AREA	QUANT	1.00000E+000	Sample Area (cm^2)
SPEED	SELECTOR	2	Optimize for:
ZGUESS	QUANT	1.00000E+003	Estimated Z (ohms)
EOC	QUANT	0	Open Circuit (V)
SEQUENCER	TOGGLE	TRUE	Run as Sequence
PSTATMODEL	IQUANT	5	Pstat Model
PSTATSECTION	LABEL	REF3000-16137	Pstat Section
PSTATSERIALNO	LABEL	16137	Pstat Serial Number
CTRLMODE	IQUANT	1	Control Mode
IESTAB	IQUANT	0	I/E Stability
CASPEED	IQUANT	1	Control Amp Speed
CONVENTION	IQUANT	1	Current Convention
ICHRANGE	IQUANT	2	Ich Range
ICHRANGEMODE	TOGGLE	F	Ich Auto Range
ICHOFFSETENABLE	TOGGLE	T	Ich Offset Enable
ICHOFFSET	QUANT	0	Ich Offset (V)
ICHFILTER	IQUANT	3	Ich Filter
VCHRANGE	IQUANT	2	Vch Range
VCHRANGEMODE	TOGGLE	F	Vch Auto Range
VCHOFFSETENABLE	TOGGLE	T	Vch Offset Enable
VCHOFFSET	QUANT	0	Vch Offset (V)
VCHFILTER	IQUANT	3	Vch Filter
ACHRANGE	IQUANT	2	Ach Range
ACHOFFSETENABLE	TOGGLE	F	Ach Offset Enable
ACHOFFSET	QUANT	0	Ach Offset (V)
ACHFILTER	IQUANT	3	Ach Filter
IERANGELOWERLIMIT	IQUANT	2	I/E Range Lower Limit
IERANGEMODE	TOGGLE	F	I/E AutoRange
IERANGE	IQUANT	11	I/E Range
POSFEEDENABLE	TOGGLE	F	Positive Feedback IR Comp
POSFEEDRESISTANCE	QUANT	0	Positive Feedback Resistance (ohm)
ACHSELECT	IQUANT	0	Ach Select
CABLEID	IQUANT	13	Cable ID
DCCALDATE	LABEL	7/31/2020	DC Calibration Date
ACCALDATE	LABEL	7/31/2020	AC Calibration Date
THERMOSELECT	IQUANT	1	Thermo Select
FRAMEWORKVERSION	QUANT	6.33	Framework Version
INSTRUMENTVERSION	LABEL	3.50	Instrument Version
COMPLIANCEVOLTAGE	IQUANT	0	Compliance Voltage
ZCURVE	TABLE
	Pt	Time	Freq	Zreal	Zimag	Zsig	Zmod	Zphz	Idc	Vdc	IERange
	#	s	Hz	ohm	ohm	V	ohm	°	A	V	#
	0	22	300046.9	484.7493	-71.68723	1	490.0213	-8.412225	-1.395536E-005	0.0009489	9
	1	36	238359.4	496.894	-73.79504	1	502.3439	-8.447403	2.332508E-005	-0.0014867	9
	2	43	189328.1	507.1652	-75.4995	1	512.754	-8.467195	2.509857E-005	-0.0016901	9
	3	53	150421.9	518.8265	-78.15748	1	524.6804	-8.566781	2.250402E-005	-0.0016886	9
	4	58	119484.4	529.046	-68.66072	1	533.4829	-7.394636	7.852313E-006	0.0070893	8
	5	61	94921.88	538.6096	-78.56156	1	544.3089	-8.298638	1.595385E-005	-0.003517	8
	6	64	75421.88	544.0437	-91.59224	1	551.6998	-9.55639	7.920121E-006	-0.0052603	8
	7	67	59859.37	555.5097	-108.5817	1	566.0221	-11.05977	-2.458344E-006	-0.0020976	8
	8	69	47578.12	566.7392	-126.5771	1	580.7022	-12.58997	-1.45107E-005	0.0032076	8
	9	72	37828.12	580.559	-146.7203	1	598.8118	-14.18296	-1.143062E-005	0.0012687	8
	10	74	30046.88	598.2228	-173.6412	1	622.914	-16.186	-1.472343E-005	0.003994	8
	11	77	23859.38	614.9113	-203.3476	1	647.662	-18.29875	1.252792E-005	-0.0053584	8
	12	79	18984.38	637.3555	-238.1783	1	680.405	-20.4906	1.634505E-005	-0.0035911	8
	13	82	15046.87	662.2276	-280.0218	1	718.9976	-22.92098	1.508511E-005	-0.0021718	8
	14	84	11953.13	692.5941	-326.0158	1	765.4886	-25.20717	-9.945887E-006	0.0068163	8
	15	87	9515.62	730.6105	-380.3806	1	823.6996	-27.50301	-2.781709E-006	-0.0022313	8
	16	89	7546.875	774.9583	-443.1896	1	892.7359	-29.76474	-1.485559E-005	0.0040279	8
	17	92	5928.309	830.3531	-513.8462	1	976.486	-31.7504	-1.017089E-005	0.0068332	8
	18	95	4733.456	885.1898	-588.4276	1	1062.924	-33.61387	-1.576205E-005	0.0053545	8
	19	98	3796.875	951.598	-674.0204	1	1166.123	-35.31009	-1.508976E-005	0.0040541	8
	20	101	2987.132	1023.817	-775.5876	1	1284.421	-37.14556	-1.185878E-005	0.001681	8
	21	104	2390.625	1098.05	-885.3761	1	1410.533	-38.87982	1.29826E-005	-0.0003394	8
	22	107	1884.191	1184.224	-1014.576	1	1559.407	-40.58809	6.871789E-007	0.0044234	8
	23	111	1516.544	1254.324	-1165.175	1	1712.005	-42.88982	1.705381E-005	-0.003569	8
	24	115	1193.986	1338.3	-1364.892	1	1911.538	-45.56362	7.193566E-007	0.0044141	8
	25	119	946.5144	1412.578	-1605.868	1	2138.735	-48.66401	1.6862E-005	-0.0047189	8
	26	122	751.7689	1507.649	-1909.32	1	2432.799	-51.70445	1.598909E-005	-0.0055056	8
	27	125	597.4265	1615.6	-2267.895	1	2784.512	-54.53474	8.4903E-006	-0.0051247	8
	28	128	477.4305	1715.303	-2736.643	1	3229.78	-57.92089	-6.884235E-009	0.0006474	8
	29	130	376.6741	1841.907	-3330.41	1	3805.818	-61.05489	-3.161492E-008	0.0006672	8
	30	133	298.2954	1995.244	-4064.104	1	4527.465	-63.85159	-1.890458E-008	0.0006351	7
	31	135	237.7717	2162.089	-4939.234	1	5391.722	-66.35918	-1.587391E-008	0.0006412	7
	32	138	189.0121	2362.9	-6030.655	1	6477.044	-68.60401	-1.482695E-008	0.0006216	7
	33	140	150.2404	2603.308	-7375.772	1	7821.715	-70.55931	-1.481067E-008	0.0006234	7
	34	143	119.1737	2893.274	-9051.096	1	9502.28	-72.27299	-1.507394E-008	0.000618	7
	35	145	95.0169	3240.199	-11067.69	1	11532.25	-73.68198	-1.688371E-008	0.0006169	7
	36	147	75.60484	3661.142	-13569.64	1	14054.86	-74.90089	-1.722451E-008	0.0006112	7
	37	150	54.50582	4432.031	-18165.82	1	18698.66	-76.28904	-2.198034E-008	0.0006536	7
	38	152	45.95588	4926.588	-21186.83	1	21752.08	-76.9096	-1.936051E-008	0.0006288	7
	39	155	37.20238	5651.325	-25611.06	1	26227.16	-77.55654	-1.584828E-008	0.0006373	7
	40	157	30.04808	6545.604	-31050.96	1	31733.38	-78.09622	-2.129022E-008	0.0006623	7
	41	160	23.91582	7736.822	-38146.18	1	38922.86	-78.53477	-1.528057E-008	0.0006201	7
	42	162	18.60119	9305.162	-47887.83	1	48783.51	-79.00379	-1.161228E-009	0.0007009	6
	43	164	15.02404	11006.79	-57951.32	1	58987.33	-79.24581	-2.911273E-009	0.000675	6
	44	167	12.01923	13147.89	-70888.84	1	72097.81	-79.49264	-2.571279E-009	0.0006593	6
	45	169	9.450605	16030.67	-88038.31	1	89485.9	-79.68022	-2.897772E-009	0.0006918	6
	46	172	7.512019	19490.89	-108379.1	1	110117.8	-79.80492	-2.754695E-009	0.0006978	6
	47	175	5.978954	23846.12	-133152.6	1	135271	-79.84661	-2.52767E-009	0.0006815	6
	48	179	4.734848	29409.88	-164520.5	1	167128.5	-79.86478	-2.490222E-009	0.0006291	6
	49	182	3.75601	36419.81	-202711.6	1	205957.3	-79.81472	-2.747903E-009	0.0007179	6
	50	188	3.004808	44897.5	-247889	1	251922.1	-79.73392	-2.500031E-009	0.0006748	6
	51	194	2.372217	56836.02	-306544.4	1	311768.8	-79.49614	-2.847957E-009	0.0006569	6
	52	199	1.878005	71627.71	-379186.9	1	385892.8	-79.30298	-2.548138E-009	0.0006754	6
	53	203	1.512097	88799.02	-460258.6	1	468746.4	-79.07993	-7.207452E-010	0.0007413	5
	54	209	1.201923	113716.5	-566514.1	1	577814.6	-78.64984	-5.379814E-010	0.0006666	5
	55	215	0.956633	144992.2	-694352.9	1	709329.7	-78.20519	-8.804411E-010	1.146058E-005	5
