EXPLAIN
TAG	EISPOT
TITLE	LABEL	Potentiostatic EIS	Test Identifier
DATE	LABEL	2/26/2021	Date
TIME	LABEL	19:56:42	Time
NOTES	NOTES	1	Notes...
	
PSTAT	PSTAT	REF3000-16137	Potentiostat
VDC	POTEN	0.00000E+000	T	DC Voltage (V)
FREQINIT	QUANT	3.00000E+005	Initial Freq. (Hz)
FREQFINAL	QUANT	1.00000E+000	Final Freq. (Hz)
PTSPERDEC	QUANT	1.00000E+001	Points/decade
VAC	QUANT	5.00000E+001	AC Voltage (mV rms)
AREA	QUANT	1.00000E+000	Sample Area (cm^2)
SPEED	SELECTOR	2	Optimize for:
ZGUESS	QUANT	1.00000E+003	Estimated Z (ohms)
EOC	QUANT	0	Open Circuit (V)
SEQUENCER	TOGGLE	TRUE	Run as Sequence
PSTATMODEL	IQUANT	5	Pstat Model
PSTATSECTION	LABEL	REF3000-16137	Pstat Section
PSTATSERIALNO	LABEL	16137	Pstat Serial Number
CTRLMODE	IQUANT	1	Control Mode
IESTAB	IQUANT	0	I/E Stability
CASPEED	IQUANT	1	Control Amp Speed
CONVENTION	IQUANT	1	Current Convention
ICHRANGE	IQUANT	2	Ich Range
ICHRANGEMODE	TOGGLE	F	Ich Auto Range
ICHOFFSETENABLE	TOGGLE	T	Ich Offset Enable
ICHOFFSET	QUANT	0	Ich Offset (V)
ICHFILTER	IQUANT	3	Ich Filter
VCHRANGE	IQUANT	2	Vch Range
VCHRANGEMODE	TOGGLE	F	Vch Auto Range
VCHOFFSETENABLE	TOGGLE	T	Vch Offset Enable
VCHOFFSET	QUANT	0	Vch Offset (V)
VCHFILTER	IQUANT	3	Vch Filter
ACHRANGE	IQUANT	2	Ach Range
ACHOFFSETENABLE	TOGGLE	F	Ach Offset Enable
ACHOFFSET	QUANT	0	Ach Offset (V)
ACHFILTER	IQUANT	3	Ach Filter
IERANGELOWERLIMIT	IQUANT	2	I/E Range Lower Limit
IERANGEMODE	TOGGLE	F	I/E AutoRange
IERANGE	IQUANT	11	I/E Range
POSFEEDENABLE	TOGGLE	F	Positive Feedback IR Comp
POSFEEDRESISTANCE	QUANT	0	Positive Feedback Resistance (ohm)
ACHSELECT	IQUANT	0	Ach Select
CABLEID	IQUANT	13	Cable ID
DCCALDATE	LABEL	7/31/2020	DC Calibration Date
ACCALDATE	LABEL	7/31/2020	AC Calibration Date
THERMOSELECT	IQUANT	1	Thermo Select
FRAMEWORKVERSION	QUANT	6.33	Framework Version
INSTRUMENTVERSION	LABEL	3.50	Instrument Version
COMPLIANCEVOLTAGE	IQUANT	0	Compliance Voltage
ZCURVE	TABLE
	Pt	Time	Freq	Zreal	Zimag	Zsig	Zmod	Zphz	Idc	Vdc	IERange
	#	s	Hz	ohm	ohm	V	ohm	°	A	V	#
	0	14	300046.9	-15.10156	-4837.981	1	4838.004	-90.17885	-9.122949E-005	0.0021498	9
	1	28	238359.4	100.0732	-5982.387	1	5983.224	-89.04165	4.559397E-006	-0.0019645	9
	2	45	189328.1	570.3043	-7783.471	1	7804.336	-85.80936	2.335253E-005	0.0010417	9
	3	53	150421.9	630.5883	-9353.299	1	9374.531	-86.14302	2.426726E-005	0.0010464	9
	4	60	119484.4	793.9016	-11693.25	1	11720.17	-86.11592	-4.635981E-006	-0.015	8
	5	68	94921.88	833.2347	-14653.92	1	14677.59	-86.74561	-9.148831E-006	-0.0021496	8
	6	76	75421.88	1579.021	-17959.29	1	18028.57	-84.97535	2.250565E-005	-0.0095182	8
	7	85	59859.37	1461.132	-22592.41	1	22639.61	-86.29963	-1.191627E-005	0.0102066	8
	8	92	47578.12	5591.29	-29436.74	1	29963.05	-79.24521	5.478634E-006	-0.0268484	7
	9	99	37828.12	6700.715	-36560.81	1	37169.78	-79.61433	5.420104E-006	-0.0267866	7
	10	106	30046.88	8154.095	-45382.48	1	46109.21	-79.81406	4.070828E-007	0.0163113	7
	11	114	23859.38	10261.38	-56501.78	1	57426.02	-79.7066	-6.547528E-006	0.0258643	7
	12	119	18984.38	13621.41	-70267.56	1	71575.65	-79.02925	6.970104E-006	-0.0269898	7
	13	124	15046.87	18396.55	-86975.21	1	88899.49	-78.05712	-7.267571E-006	0.0188411	7
	14	131	11953.13	18039.73	-116349.2	1	117739.4	-81.18657	1.636513E-005	-0.009157	8
	15	138	9515.62	35405.62	-131874.2	1	136544.3	-74.97161	7.667383E-006	-0.0241869	7
	16	145	7546.875	53776.59	-162242.9	1	170923	-71.66184	6.514889E-006	-0.0093666	7
	17	150	5928.309	74596.21	-199886.9	1	213352.7	-69.53482	7.675653E-006	-0.0242461	7
	18	156	4733.456	128247.1	-236713.6	1	269222.3	-61.55197	-7.251306E-006	0.0235448	7
	19	163	3796.875	140660.4	-282471.3	1	315555.6	-63.52837	5.45953E-006	-0.026864	7
	20	170	2987.132	204545.4	-320261.7	1	380008.3	-57.43436	-1.035741E-006	-0.0133112	7
	21	176	2390.625	303144.8	-385667.4	1	490546.8	-51.83172	-7.178829E-006	0.0233511	7
	22	182	1884.191	125765.9	-436548.5	1	454303.4	-73.92876	6.592653E-006	-0.0099326	7
	23	190	1516.544	334678.2	-305381.1	1	453064.1	-42.37926	-7.352776E-006	0.0189152	7
	24	196	1193.986	583903.5	-420097	1	719322.4	-35.73362	1.339627E-006	-0.0198848	7
	25	204	946.5144	-1734738	2006546	1	2652459	130.8447	1.685024E-005	-0.0092035	8
	26	211	751.7689	307003.2	-412988.7	1	514597.5	-53.37402	3.581825E-006	-0.0248916	7
	27	219	597.4265	549402	-757715.1	1	935935.3	-54.05499	7.518416E-006	-0.0239485	7
	28	224	477.4305	819390.4	-291452.8	1	869681.1	-19.5802	-6.874068E-008	0.0006395	7
	29	231	376.6741	920269.8	-167075.3	1	935313.1	-10.28999	-6.290649E-010	0.0006258	5
	30	234	298.2954	931919.9	-148294.5	1	943645.1	-9.041555	-9.471597E-010	0.0006229	5
	31	236	237.7717	952523	-137926.2	1	962458	-8.239209	-7.754422E-010	0.0006697	5
	32	239	189.0121	972441	-134108.1	1	981645	-7.852056	-8.304958E-010	0.0007214	5
	33	242	150.2404	993577	-132792.3	1	1002412	-7.612509	-7.978621E-010	0.0007067	5
	34	245	119.1737	1016663	-120231.5	1	1023748	-6.744526	-6.968347E-010	0.0006858	5
	35	247	95.0169	1031731	-143720.9	1	1041693	-7.930311	-6.901994E-010	0.0006347	5
	36	250	75.60484	1059909	-148405.1	1	1070248	-7.970557	-8.48196E-010	0.000618	5
	37	252	54.50582	1097397	-183075.5	1	1112563	-9.471259	-8.042869E-010	0.0006545	5
	38	255	45.95588	1110564	-200674.9	1	1128549	-10.24262	-6.726648E-010	0.0006631	5
	39	258	37.20238	1144603	-215901.4	1	1164787	-10.68195	-7.851915E-010	0.0006733	5
	40	260	30.04808	1173303	-250903.3	1	1199830	-12.07053	-7.959243E-010	0.0007199	5
	41	263	23.91582	1217953	-290716.2	1	1252168	-13.42488	-9.281738E-010	0.0007039	5
	42	266	18.60119	1230253	-347831.2	1	1278479	-15.78727	-6.669736E-010	0.0007163	5
	43	268	15.02404	1295079	-394499.7	1	1353831	-16.94149	-9.754706E-010	0.0007118	5
	44	271	12.01923	1342603	-460640.3	1	1419427	-18.93683	-7.281404E-010	0.000727	5
	45	273	9.450605	1401944	-547880.3	1	1505197	-21.34559	-6.281355E-010	0.0007051	5
	46	276	7.512019	1470944	-640742.2	1	1604439	-23.53791	-8.703445E-010	0.0006926	5
	47	279	5.978954	1551645	-758511.9	1	1727120	-26.0514	-8.44389E-010	0.0006247	5
	48	283	4.734848	1658023	-894697.9	1	1884018	-28.35207	-6.87993E-010	0.0007313	5
	49	288	3.75601	1782190	-1054516	1	2070798	-30.61266	-7.669692E-010	0.0006746	5
	50	294	3.004808	1927137	-1234078	1	2288407	-32.63422	-8.151293E-010	0.0007474	5
	51	300	2.372217	2099997	-1456051	1	2555401	-34.73584	-6.946858E-010	0.0007272	5
	52	304	1.878005	2281061	-1703990	1	2847248	-36.76032	-7.604013E-010	0.0006364	5
	53	309	1.512097	2473922	-1971316	1	3163286	-38.54918	-8.081002E-010	0.0007437	5
	54	314	1.201923	2710950	-2307866	1	3560266	-40.40816	-7.608593E-010	0.0006284	5
	55	321	0.956633	2968059	-2705352	1	4016006	-42.34881	-8.643353E-010	1.790923E-005	5
