EXPLAIN
TAG	EISPOT
TITLE	LABEL	Potentiostatic EIS	Test Identifier
DATE	LABEL	2/26/2021	Date
TIME	LABEL	18:45:38	Time
NOTES	NOTES	1	Notes...
	
PSTAT	PSTAT	REF3000-16137	Potentiostat
VDC	POTEN	0.00000E+000	T	DC Voltage (V)
FREQINIT	QUANT	3.00000E+005	Initial Freq. (Hz)
FREQFINAL	QUANT	1.00000E+000	Final Freq. (Hz)
PTSPERDEC	QUANT	1.00000E+001	Points/decade
VAC	QUANT	5.00000E+001	AC Voltage (mV rms)
AREA	QUANT	1.00000E+000	Sample Area (cm^2)
SPEED	SELECTOR	2	Optimize for:
ZGUESS	QUANT	1.00000E+003	Estimated Z (ohms)
EOC	QUANT	0	Open Circuit (V)
SEQUENCER	TOGGLE	TRUE	Run as Sequence
PSTATMODEL	IQUANT	5	Pstat Model
PSTATSECTION	LABEL	REF3000-16137	Pstat Section
PSTATSERIALNO	LABEL	16137	Pstat Serial Number
CTRLMODE	IQUANT	1	Control Mode
IESTAB	IQUANT	0	I/E Stability
CASPEED	IQUANT	1	Control Amp Speed
CONVENTION	IQUANT	1	Current Convention
ICHRANGE	IQUANT	2	Ich Range
ICHRANGEMODE	TOGGLE	F	Ich Auto Range
ICHOFFSETENABLE	TOGGLE	T	Ich Offset Enable
ICHOFFSET	QUANT	0	Ich Offset (V)
ICHFILTER	IQUANT	3	Ich Filter
VCHRANGE	IQUANT	2	Vch Range
VCHRANGEMODE	TOGGLE	F	Vch Auto Range
VCHOFFSETENABLE	TOGGLE	T	Vch Offset Enable
VCHOFFSET	QUANT	0	Vch Offset (V)
VCHFILTER	IQUANT	3	Vch Filter
ACHRANGE	IQUANT	2	Ach Range
ACHOFFSETENABLE	TOGGLE	F	Ach Offset Enable
ACHOFFSET	QUANT	0	Ach Offset (V)
ACHFILTER	IQUANT	3	Ach Filter
IERANGELOWERLIMIT	IQUANT	2	I/E Range Lower Limit
IERANGEMODE	TOGGLE	F	I/E AutoRange
IERANGE	IQUANT	11	I/E Range
POSFEEDENABLE	TOGGLE	F	Positive Feedback IR Comp
POSFEEDRESISTANCE	QUANT	0	Positive Feedback Resistance (ohm)
ACHSELECT	IQUANT	0	Ach Select
CABLEID	IQUANT	13	Cable ID
DCCALDATE	LABEL	7/31/2020	DC Calibration Date
ACCALDATE	LABEL	7/31/2020	AC Calibration Date
THERMOSELECT	IQUANT	1	Thermo Select
FRAMEWORKVERSION	QUANT	6.33	Framework Version
INSTRUMENTVERSION	LABEL	3.50	Instrument Version
COMPLIANCEVOLTAGE	IQUANT	0	Compliance Voltage
ZCURVE	TABLE
	Pt	Time	Freq	Zreal	Zimag	Zsig	Zmod	Zphz	Idc	Vdc	IERange
	#	s	Hz	ohm	ohm	V	ohm	°	A	V	#
	0	7	300046.9	86.83298	-15.63381	1	88.22915	-10.20645	6.912198E-005	-0.0028206	9
	1	10	238359.4	88.7695	-19.32313	1	90.84827	-12.28043	1.085835E-006	-0.0014297	9
	2	13	189328.1	91.16045	-23.09006	1	94.03925	-14.21354	1.916149E-005	-0.0012675	9
	3	16	150421.9	93.64406	-28.04659	1	97.7539	-16.67307	5.020583E-006	-0.0006495	9
	4	18	119484.4	96.9355	-33.01753	1	102.4044	-18.80953	1.124861E-005	0.0008736	9
	5	21	94921.88	100.5415	-38.38772	1	107.6207	-20.89734	-4.72317E-006	-0.000151	9
	6	23	75421.88	104.8623	-45.04565	1	114.128	-23.24689	1.183842E-005	-0.0005993	9
	7	26	59859.37	110.0814	-52.61802	1	122.0105	-25.54743	-1.898697E-005	0.0004999	9
	8	28	47578.12	116.2372	-60.92681	1	131.2371	-27.66169	-2.624474E-006	-0.0002192	9
	9	31	37828.12	123.5813	-70.20583	1	142.1309	-29.60065	2.204099E-005	-0.0002921	9
	10	33	30046.88	131.7898	-80.47569	1	154.4179	-31.40978	-1.718677E-005	0.0007476	9
	11	36	23859.38	141.2152	-91.54616	1	168.2927	-32.95429	-1.770051E-005	0.0004713	9
	12	38	18984.38	151.5462	-103.9987	1	183.7987	-34.45988	1.761552E-005	-0.0006712	9
	13	40	15046.87	162.6496	-117.8988	1	200.8855	-35.93699	4.064278E-006	0.0004796	9
	14	43	11953.13	174.1915	-134.4064	1	220.0177	-37.65382	2.058825E-005	-0.0006582	9
	15	45	9515.62	185.8051	-153.9086	1	241.2704	-39.6361	-1.915602E-005	0.0007592	9
	16	47	7546.875	198.084	-177.0082	1	265.6487	-41.78403	-1.506971E-005	0.0002304	9
	17	51	5928.309	211.7322	-206.797	1	295.9654	-44.32442	-1.840874E-005	0.0007607	9
	18	53	4733.456	224.6911	-241.8132	1	330.0905	-47.10199	1.266734E-005	0.0001484	9
	19	56	3796.875	239.5569	-283.9272	1	371.4864	-49.84479	-2.057455E-005	0.0007169	9
	20	58	2987.132	256.6904	-338.9576	1	425.185	-52.86359	1.21356E-005	0.0001729	9
	21	61	2390.625	273.9184	-400.7345	1	485.4065	-55.64581	-5.090987E-006	0.0024733	8
	22	63	1884.191	296.1711	-484.5847	1	567.9257	-58.56733	-4.623729E-006	0.002645	8
	23	65	1516.544	319.5182	-579.122	1	661.4183	-61.11322	6.756568E-006	-0.0011001	8
	24	68	1193.986	350.8463	-705.5005	1	787.9239	-63.55878	-5.335392E-006	0.0018752	8
	25	70	946.5144	388.5525	-857.2088	1	941.1589	-65.61633	4.045435E-006	-0.0012784	8
	26	72	751.7689	430.6679	-1042.52	1	1127.973	-67.55435	5.491237E-006	-0.0014456	8
	27	75	597.4265	483.8025	-1266.32	1	1355.593	-69.09045	6.680896E-006	-0.0008269	8
	28	77	477.4305	542.3428	-1533.363	1	1626.45	-70.52158	3.232184E-007	0.000671	8
	29	79	376.6741	620.1592	-1878.315	1	1978.046	-71.72844	3.221679E-007	0.0006715	8
	30	82	298.2954	713.2016	-2295	1	2403.264	-72.73667	3.146593E-007	0.000666	8
	31	84	237.7717	823.1196	-2789.991	1	2908.879	-73.56258	3.424018E-007	0.000667	8
	32	87	189.0121	957.808	-3400.303	1	3532.628	-74.26838	3.264288E-007	0.0006715	8
	33	89	150.2404	1120.89	-4145.904	1	4294.754	-74.87116	3.223491E-007	0.0006727	8
	34	91	119.1737	1325.878	-5075.946	1	5246.254	-75.36097	2.093421E-008	0.0006507	7
	35	94	95.0169	1563.902	-6176.457	1	6371.374	-75.79113	2.081163E-008	0.0006453	7
	36	96	75.60484	1857.38	-7531.326	1	7756.979	-76.14613	2.105251E-008	0.0006413	7
	37	99	54.50582	2396.397	-10007.11	1	10290.05	-76.53302	2.122238E-008	0.0006359	7
	38	101	45.95588	2739.781	-11608.28	1	11927.22	-76.7201	2.101054E-008	0.0006383	7
	39	104	37.20238	3251.562	-13951.56	1	14325.45	-76.88078	1.888155E-008	0.000642	7
	40	106	30.04808	3883.06	-16813.05	1	17255.64	-76.99528	2.213036E-008	0.000632	7
	41	108	23.91582	4705.311	-20504.45	1	21037.4	-77.07567	2.19426E-008	0.0006322	7
	42	111	18.60119	5812.269	-25522.29	1	26175.74	-77.17065	2.282699E-008	0.0006343	7
	43	113	15.02404	7044.357	-30767.94	1	31564.05	-77.10432	2.435036E-008	0.000643	7
	44	115	12.01923	8626.394	-37345.57	1	38328.93	-76.99346	2.12147E-008	0.0006401	7
	45	118	9.450605	10774.26	-46084.34	1	47327.07	-76.84093	-7.829224E-009	0.0006959	6
	46	120	7.512019	13446.14	-56244.71	1	57829.63	-76.55493	-7.718128E-009	0.0006849	6
	47	123	5.978954	16841.68	-68590.81	1	70628.2	-76.20461	-6.888949E-009	0.0006855	6
	48	128	4.734848	21453.01	-83967.27	1	86664.48	-75.66795	-6.784433E-009	0.0006829	6
	49	131	3.75601	27375.75	-102432.9	1	106027.9	-75.03709	-7.317982E-009	0.0006971	6
	50	136	3.004808	34977.82	-123861.6	1	128705.6	-74.23061	-6.730137E-009	0.0006603	6
	51	143	2.372217	45590.45	-151056	1	157785.9	-73.20558	-7.412959E-009	0.0006187	6
	52	147	1.878005	59864.71	-182885.2	1	192433.9	-71.87492	-7.246176E-009	0.0006913	6
	53	152	1.512097	77282.39	-217284.6	1	230619.1	-70.42088	-6.842131E-009	0.0005788	6
	54	157	1.201923	101090.1	-259485	1	278481	-68.71513	-7.402629E-009	0.0007077	6
	55	163	0.956633	131469.4	-306897.8	1	333871.9	-66.8106	-7.809622E-009	4.228814E-005	6
