EXPLAIN
TAG	EISPOT
TITLE	LABEL	Potentiostatic EIS	Test Identifier
DATE	LABEL	2/26/2021	Date
TIME	LABEL	20:02:12	Time
NOTES	NOTES	1	Notes...
	
PSTAT	PSTAT	REF3000-16137	Potentiostat
VDC	POTEN	0.00000E+000	T	DC Voltage (V)
FREQINIT	QUANT	3.00000E+005	Initial Freq. (Hz)
FREQFINAL	QUANT	1.00000E+000	Final Freq. (Hz)
PTSPERDEC	QUANT	1.00000E+001	Points/decade
VAC	QUANT	5.00000E+001	AC Voltage (mV rms)
AREA	QUANT	1.00000E+000	Sample Area (cm^2)
SPEED	SELECTOR	2	Optimize for:
ZGUESS	QUANT	1.00000E+003	Estimated Z (ohms)
EOC	QUANT	0	Open Circuit (V)
SEQUENCER	TOGGLE	TRUE	Run as Sequence
PSTATMODEL	IQUANT	5	Pstat Model
PSTATSECTION	LABEL	REF3000-16137	Pstat Section
PSTATSERIALNO	LABEL	16137	Pstat Serial Number
CTRLMODE	IQUANT	1	Control Mode
IESTAB	IQUANT	0	I/E Stability
CASPEED	IQUANT	1	Control Amp Speed
CONVENTION	IQUANT	1	Current Convention
ICHRANGE	IQUANT	2	Ich Range
ICHRANGEMODE	TOGGLE	F	Ich Auto Range
ICHOFFSETENABLE	TOGGLE	T	Ich Offset Enable
ICHOFFSET	QUANT	0	Ich Offset (V)
ICHFILTER	IQUANT	3	Ich Filter
VCHRANGE	IQUANT	2	Vch Range
VCHRANGEMODE	TOGGLE	F	Vch Auto Range
VCHOFFSETENABLE	TOGGLE	T	Vch Offset Enable
VCHOFFSET	QUANT	0	Vch Offset (V)
VCHFILTER	IQUANT	3	Vch Filter
ACHRANGE	IQUANT	2	Ach Range
ACHOFFSETENABLE	TOGGLE	F	Ach Offset Enable
ACHOFFSET	QUANT	0	Ach Offset (V)
ACHFILTER	IQUANT	3	Ach Filter
IERANGELOWERLIMIT	IQUANT	2	I/E Range Lower Limit
IERANGEMODE	TOGGLE	F	I/E AutoRange
IERANGE	IQUANT	11	I/E Range
POSFEEDENABLE	TOGGLE	F	Positive Feedback IR Comp
POSFEEDRESISTANCE	QUANT	0	Positive Feedback Resistance (ohm)
ACHSELECT	IQUANT	0	Ach Select
CABLEID	IQUANT	13	Cable ID
DCCALDATE	LABEL	7/31/2020	DC Calibration Date
ACCALDATE	LABEL	7/31/2020	AC Calibration Date
THERMOSELECT	IQUANT	1	Thermo Select
FRAMEWORKVERSION	QUANT	6.33	Framework Version
INSTRUMENTVERSION	LABEL	3.50	Instrument Version
COMPLIANCEVOLTAGE	IQUANT	0	Compliance Voltage
ZCURVE	TABLE
	Pt	Time	Freq	Zreal	Zimag	Zsig	Zmod	Zphz	Idc	Vdc	IERange
	#	s	Hz	ohm	ohm	V	ohm	°	A	V	#
	0	14	300046.9	-66.06784	-4819.786	1	4820.238	-90.78534	-0.00011	0.0037177	9
	1	37	238359.4	-72.33469	-5962.908	1	5963.347	-90.69501	-2.767043E-005	-0.0011022	9
	2	53	189328.1	207.9995	-7689.522	1	7692.334	-88.45055	-0.0001058	0.0036422	9
	3	61	150421.9	-485.3164	-9023.376	1	9036.418	-93.07865	2.046756E-005	-0.0019606	9
	4	71	119484.4	622.3905	-11630.5	1	11647.14	-86.93681	6.932012E-005	-0.0133344	8
	5	79	94921.88	265.1128	-14580.64	1	14583.05	-88.95834	8.131631E-006	0.0043032	8
	6	87	75421.88	926.8734	-18184.26	1	18207.86	-87.08209	-1.197444E-005	0.0101785	8
	7	96	59859.37	896.3043	-22960.78	1	22978.27	-87.76452	2.610409E-005	-0.0050105	8
	8	104	47578.12	4258.572	-29906.59	1	30208.27	-81.89581	-7.367975E-006	0.0189288	7
	9	112	37828.12	2256.342	-36054.69	1	36125.22	-86.41904	-2.358771E-005	0.0051484	8
	10	120	30046.88	1034.021	-45739	1	45750.68	-88.70493	2.615178E-005	-0.0088525	8
	11	130	23859.38	2779.571	-55794.69	1	55863.88	-87.148	2.316933E-005	-0.0026836	8
	12	138	18984.38	4696.575	-72369.84	1	72522.08	-86.28689	1.733726E-005	0.0004155	8
	13	145	15046.87	6732.423	-89026.35	1	89280.55	-85.67536	-5.28397E-006	0.0035788	7
	14	151	11953.13	9753.85	-113268.4	1	113687.6	-85.07825	3.596838E-006	-0.0246672	7
	15	157	9515.62	10342.47	-140778.4	1	141157.8	-85.79824	1.36886E-006	-0.0199916	7
	16	163	7546.875	21158.4	-172107.7	1	173403.4	-82.99139	6.10586E-007	0.0162801	7
	17	169	5928.309	39161.63	-248990.1	1	252051	-81.06164	1.351457E-006	-0.0199347	7
	18	175	4733.456	59553.09	-292911.8	1	298904.5	-78.50761	-3.994153E-007	0.0254463	6
	19	180	3796.875	43709.54	-381701.1	1	384195.6	-83.46737	-1.154656E-006	-0.0131702	7
	20	186	2987.132	93192.3	-449456.1	1	459015.8	-78.28601	7.2586E-007	-0.0270141	6
	21	192	2390.625	118103.7	-558243.8	1	570600.2	-78.05448	4.294186E-007	0.0020258	6
	22	197	1884.191	182400.4	-704667.1	1	727891.3	-75.48772	1.882571E-007	-0.021233	6
	23	202	1516.544	211766.1	-867043	1	892529.3	-76.27482	4.322145E-007	0.0019849	6
	24	208	1193.986	318589.5	-1067398	1	1113929	-73.38105	7.308581E-007	-0.0270812	6
	25	214	946.5144	579173.6	-1360392	1	1478550	-66.93859	7.201304E-007	-0.0271738	6
	26	219	751.7689	390388.8	-1605117	1	1651909	-76.33022	-2.686656E-007	-0.0076104	6
	27	223	597.4265	626490.6	-1758103	1	1866391	-70.38674	-7.605615E-007	0.023795	6
	28	228	477.4305	1183869	-2196053	1	2494834	-61.67137	-6.912527E-009	0.0006474	6
	29	233	376.6741	1633998	-2501183	1	2987619	-56.84381	-7.599766E-009	0.0007289	6
	30	236	298.2954	2468239	-2607003	1	3590080	-46.56615	-7.055685E-010	0.0006187	5
	31	240	237.7717	3054513	-2769425	1	4123077	-42.19754	-7.542451E-010	0.0006829	5
	32	244	189.0121	3648861	-2786426	1	4591117	-37.36691	-8.302642E-010	0.0006684	5
	33	248	150.2404	4235430	-2718133	1	5032605	-32.69075	-8.370151E-010	0.0006966	5
	34	252	119.1737	4589512	-2353908	1	5157955	-27.15276	-8.240278E-010	0.0006361	5
	35	256	95.0169	5230208	-2352624	1	5734973	-24.21892	-7.6385E-010	0.0007169	5
	36	260	75.60484	5776521	-1928401	1	6089904	-18.46078	-7.072946E-010	0.0006353	5
	37	264	54.50582	6253909	-1903109	1	6537064	-16.92538	-8.039468E-010	0.0006768	5
	38	268	45.95588	7236479	-1106028	1	7320514	-8.689876	-7.536416E-011	0.0007271	4
	39	271	37.20238	6951102	-1071957	1	7033272	-8.766747	-1.808875E-010	0.0006989	4
	40	274	30.04808	7293393	-861845.3	1	7344137	-6.739273	-4.39432E-011	0.0007115	4
	41	276	23.91582	7533766	-1081007	1	7610927	-8.165539	-2.228077E-010	0.0006435	4
	42	279	18.60119	7256961	-1599687	1	7431183	-12.43118	-4.916622E-010	0.0007305	4
	43	281	15.02404	7699620	-995620	1	7763724	-7.367897	-1.557035E-010	0.0006853	4
	44	284	12.01923	7896867	-1014047	1	7961709	-7.317383	-1.140327E-010	0.0006228	4
	45	286	9.450605	8069134	-1139923	1	8149254	-8.04094	-2.526579E-011	0.0006191	4
	46	289	7.512019	8345491	-1289293	1	8444495	-8.782182	-6.000507E-011	0.000705	4
	47	292	5.978954	8588030	-1515840	1	8720781	-10.00995	-1.211822E-010	0.0006348	4
	48	297	4.734848	8909415	-1735576	1	9076888	-11.02331	-5.498643E-011	0.0006492	4
	49	301	3.75601	9308291	-2032161	1	9.527537E+006	-12.31543	-9.395026E-011	0.0006348	4
	50	306	3.004808	9.834121E+006	-2322356	1	1.010462E+007	-13.28713	-1.16346E-010	0.0006423	4
	51	313	2.372217	1.029867E+007	-2765410	1	1.06635E+007	-15.03056	-1.149302E-010	0.0007298	4
	52	317	1.878005	1.082173E+007	-3262071	1	1.13027E+007	-16.77475	-1.400849E-010	0.0006638	4
	53	322	1.512097	1.140712E+007	-3800025	1	1.202342E+007	-18.42434	-1.274601E-010	0.0006585	4
	54	327	1.201923	1.210025E+007	-4496020	1	1.290854E+007	-20.38326	-1.085809E-010	0.0006534	4
	55	333	0.956633	1.293464E+007	-5313466	1	1.398348E+007	-22.33254	-1.249395E-010	3.620639E-005	4
