EXPLAIN
TAG	EISPOT
TITLE	LABEL	Potentiostatic EIS	Test Identifier
DATE	LABEL	2/26/2021	Date
TIME	LABEL	18:31:21	Time
NOTES	NOTES	1	Notes...
	
PSTAT	PSTAT	REF3000-16137	Potentiostat
VDC	POTEN	0.00000E+000	T	DC Voltage (V)
FREQINIT	QUANT	3.00000E+005	Initial Freq. (Hz)
FREQFINAL	QUANT	1.00000E+000	Final Freq. (Hz)
PTSPERDEC	QUANT	1.00000E+001	Points/decade
VAC	QUANT	5.00000E+001	AC Voltage (mV rms)
AREA	QUANT	1.00000E+000	Sample Area (cm^2)
SPEED	SELECTOR	2	Optimize for:
ZGUESS	QUANT	1.00000E+003	Estimated Z (ohms)
EOC	QUANT	0	Open Circuit (V)
SEQUENCER	TOGGLE	TRUE	Run as Sequence
PSTATMODEL	IQUANT	5	Pstat Model
PSTATSECTION	LABEL	REF3000-16137	Pstat Section
PSTATSERIALNO	LABEL	16137	Pstat Serial Number
CTRLMODE	IQUANT	1	Control Mode
IESTAB	IQUANT	0	I/E Stability
CASPEED	IQUANT	1	Control Amp Speed
CONVENTION	IQUANT	1	Current Convention
ICHRANGE	IQUANT	2	Ich Range
ICHRANGEMODE	TOGGLE	F	Ich Auto Range
ICHOFFSETENABLE	TOGGLE	T	Ich Offset Enable
ICHOFFSET	QUANT	0	Ich Offset (V)
ICHFILTER	IQUANT	3	Ich Filter
VCHRANGE	IQUANT	2	Vch Range
VCHRANGEMODE	TOGGLE	F	Vch Auto Range
VCHOFFSETENABLE	TOGGLE	T	Vch Offset Enable
VCHOFFSET	QUANT	0	Vch Offset (V)
VCHFILTER	IQUANT	3	Vch Filter
ACHRANGE	IQUANT	2	Ach Range
ACHOFFSETENABLE	TOGGLE	F	Ach Offset Enable
ACHOFFSET	QUANT	0	Ach Offset (V)
ACHFILTER	IQUANT	3	Ach Filter
IERANGELOWERLIMIT	IQUANT	2	I/E Range Lower Limit
IERANGEMODE	TOGGLE	F	I/E AutoRange
IERANGE	IQUANT	11	I/E Range
POSFEEDENABLE	TOGGLE	F	Positive Feedback IR Comp
POSFEEDRESISTANCE	QUANT	0	Positive Feedback Resistance (ohm)
ACHSELECT	IQUANT	0	Ach Select
CABLEID	IQUANT	13	Cable ID
DCCALDATE	LABEL	7/31/2020	DC Calibration Date
ACCALDATE	LABEL	7/31/2020	AC Calibration Date
THERMOSELECT	IQUANT	1	Thermo Select
FRAMEWORKVERSION	QUANT	6.33	Framework Version
INSTRUMENTVERSION	LABEL	3.50	Instrument Version
COMPLIANCEVOLTAGE	IQUANT	0	Compliance Voltage
ZCURVE	TABLE
	Pt	Time	Freq	Zreal	Zimag	Zsig	Zmod	Zphz	Idc	Vdc	IERange
	#	s	Hz	ohm	ohm	V	ohm	°	A	V	#
	0	7	300046.9	55.33494	-11.92322	1	56.60493	-12.15982	-1.530024E-006	0.0004279	9
	1	10	238359.4	57.01667	-14.93872	1	58.94121	-14.68183	-6.195055E-005	0.0014803	9
	2	13	189328.1	58.95003	-18.12899	1	61.67468	-17.09431	1.219978E-005	-0.0013364	9
	3	16	150421.9	61.07241	-21.86042	1	64.86692	-19.69445	5.92584E-005	-0.0020109	9
	4	19	119484.4	63.7082	-25.76331	1	68.72032	-22.01819	-1.413604E-005	-0.0005142	9
	5	21	94921.88	66.96696	-29.95409	1	73.36089	-24.0988	-4.311643E-006	-0.0001086	9
	6	24	75421.88	70.68359	-34.88651	1	78.8241	-26.26904	2.093627E-005	-0.0004499	9
	7	26	59859.37	74.92588	-40.23526	1	85.04565	-28.23583	-1.695253E-005	0.0005599	9
	8	29	47578.12	79.88197	-46.09094	1	92.2253	-29.98443	-1.672091E-005	0.0005596	9
	9	31	37828.12	85.46194	-52.43367	1	100.2648	-31.53046	-1.053903E-005	0.0001494	9
	10	34	30046.88	91.51385	-59.53556	1	109.1754	-33.04655	-4.42593E-006	-8.387178E-005	9
	11	36	23859.38	98.1945	-67.37872	1	119.0885	-34.45697	1.166007E-005	5.592682E-005	9
	12	39	18984.38	104.8921	-76.04047	1	129.5551	-35.93985	-5.6479E-006	-2.229073E-005	9
	13	41	15046.87	112.2115	-86.57484	1	141.7272	-37.65137	1.528556E-005	-0.0005362	9
	14	43	11953.13	119.5942	-98.8468	1	155.1563	-39.57436	-1.575817E-005	0.0004138	9
	15	46	9515.62	127.347	-113.6488	1	170.6848	-41.7468	4.436515E-006	-0.0003172	9
	16	48	7546.875	135.449	-132.7414	1	189.6489	-44.42156	-1.71347E-005	0.0005052	9
	17	50	5928.309	144.848	-156.82	1	213.4794	-47.27265	5.11224E-006	0.000335	9
	18	52	4733.456	154.4462	-184.2606	1	240.4279	-50.03046	-8.52751E-006	0.0006908	9
	19	55	3796.875	165.4382	-217.0423	1	272.905	-52.68393	-1.418083E-005	0.0003072	9
	20	57	2987.132	178.3031	-261.9414	1	316.868	-55.75694	2.088311E-005	-0.0005075	9
	21	59	2390.625	192.6605	-311.717	1	366.45	-58.28136	1.924716E-005	-0.0006126	9
	22	62	1884.191	209.5414	-380.2503	1	434.1634	-61.14252	-8.607232E-006	0.0006964	9
	23	64	1516.544	229.542	-450.2065	1	505.3468	-62.98481	4.046928E-006	-0.0007387	8
	24	67	1193.986	254.3816	-548.4711	1	604.5912	-65.11807	4.659466E-006	-0.0007345	8
	25	69	946.5144	282.4939	-665.9512	1	723.3905	-67.01353	5.120606E-006	-0.0005989	8
	26	71	751.7689	317.3748	-806.1633	1	866.3867	-68.51115	-3.70254E-006	0.0017768	8
	27	74	597.4265	358.5182	-978.094	1	1041.731	-69.86971	-3.656149E-006	0.001759	8
	28	76	477.4305	406.5867	-1182.891	1	1250.817	-71.03098	4.236793E-007	0.0006675	8
	29	78	376.6741	466.7538	-1446.81	1	1520.237	-72.11984	4.222121E-007	0.0006639	8
	30	81	298.2954	537.7603	-1765.683	1	1845.758	-73.06125	4.122562E-007	0.0006709	8
	31	83	237.7717	620.6266	-2144.416	1	2232.42	-73.85876	3.987114E-007	0.0006761	8
	32	85	189.0121	721.1459	-2612.771	1	2710.466	-74.57006	4.060029E-007	0.0006764	8
	33	88	150.2404	842.0419	-3186.537	1	3295.915	-75.19794	4.184586E-007	0.0006632	8
	34	90	119.1737	990.142	-3895.705	1	4019.565	-75.73952	4.10135E-007	0.0006724	8
	35	93	95.0169	1168.626	-4754.361	1	4895.88	-76.19042	1.079917E-008	0.0006454	7
	36	95	75.60484	1384.232	-5803.813	1	5966.602	-76.58535	1.170057E-008	0.000638	7
	37	98	54.50582	1780.645	-7725.472	1	7928.027	-77.02057	1.028433E-008	0.0006394	7
	38	100	45.95588	2038.543	-8977.087	1	9205.637	-77.20608	1.229992E-008	0.0006532	7
	39	103	37.20238	2424.446	-10805.37	1	11074.02	-77.35375	1.062245E-008	0.0006497	7
	40	105	30.04808	2911.563	-13054.13	1	13374.88	-77.42667	1.118466E-008	0.000645	7
	41	107	23.91582	3539.535	-15935.85	1	16324.21	-77.47724	1.002966E-008	0.0006451	7
	42	110	18.60119	4466.204	-19879.69	1	20375.21	-77.33807	9.951526E-009	0.0006533	7
	43	112	15.02404	5436.455	-23985.6	1	24593.98	-77.22939	1.094114E-008	0.0006452	7
	44	114	12.01923	6780.75	-29192.99	1	29970.14	-76.9236	1.379176E-008	0.0006459	7
	45	117	9.450605	8642.062	-35989.4	1	37012.46	-76.49734	1.358169E-008	0.0006418	7
	46	119	7.512019	11011.08	-43949.6	1	45307.96	-75.9347	-2.628648E-008	0.0006938	6
	47	122	5.978954	14085.49	-53451.4	1	55276.16	-75.23705	-2.723259E-008	0.0006937	6
	48	127	4.734848	18309.52	-65211.37	1	67733.02	-74.31676	-2.781199E-008	0.0006863	6
	49	130	3.75601	23932.23	-79122.84	1	82663.03	-73.17104	-2.634688E-008	0.0006987	6
	50	136	3.004808	31079.59	-94857.21	1	99819	-71.85883	-2.764094E-008	0.0007233	6
	51	142	2.372217	41162.11	-114250.1	1	121438.9	-70.18689	-2.657232E-008	0.0006842	6
	52	146	1.878005	54512.94	-136414.6	1	146903.3	-68.21774	-2.612471E-008	0.0006667	6
	53	151	1.512097	69974.61	-159069.5	1	173780.2	-66.25532	-2.690099E-008	0.000784	6
	54	156	1.201923	90477.16	-185402.7	1	206301.5	-63.98747	-2.599985E-008	0.0006677	6
	55	162	0.956633	114544.1	-213428.7	1	242223.3	-61.77819	-2.823952E-008	4.911083E-005	6
