EXPLAIN
TAG	EISPOT
TITLE	LABEL	Potentiostatic EIS	Test Identifier
DATE	LABEL	2/26/2021	Date
TIME	LABEL	18:11:30	Time
NOTES	NOTES	1	Notes...
	
PSTAT	PSTAT	REF3000-16137	Potentiostat
VDC	POTEN	0.00000E+000	T	DC Voltage (V)
FREQINIT	QUANT	3.00000E+005	Initial Freq. (Hz)
FREQFINAL	QUANT	1.00000E+000	Final Freq. (Hz)
PTSPERDEC	QUANT	1.00000E+001	Points/decade
VAC	QUANT	5.00000E+001	AC Voltage (mV rms)
AREA	QUANT	1.00000E+000	Sample Area (cm^2)
SPEED	SELECTOR	2	Optimize for:
ZGUESS	QUANT	1.00000E+003	Estimated Z (ohms)
EOC	QUANT	0	Open Circuit (V)
SEQUENCER	TOGGLE	TRUE	Run as Sequence
PSTATMODEL	IQUANT	5	Pstat Model
PSTATSECTION	LABEL	REF3000-16137	Pstat Section
PSTATSERIALNO	LABEL	16137	Pstat Serial Number
CTRLMODE	IQUANT	1	Control Mode
IESTAB	IQUANT	0	I/E Stability
CASPEED	IQUANT	1	Control Amp Speed
CONVENTION	IQUANT	1	Current Convention
ICHRANGE	IQUANT	2	Ich Range
ICHRANGEMODE	TOGGLE	F	Ich Auto Range
ICHOFFSETENABLE	TOGGLE	T	Ich Offset Enable
ICHOFFSET	QUANT	0	Ich Offset (V)
ICHFILTER	IQUANT	3	Ich Filter
VCHRANGE	IQUANT	2	Vch Range
VCHRANGEMODE	TOGGLE	F	Vch Auto Range
VCHOFFSETENABLE	TOGGLE	T	Vch Offset Enable
VCHOFFSET	QUANT	0	Vch Offset (V)
VCHFILTER	IQUANT	3	Vch Filter
ACHRANGE	IQUANT	2	Ach Range
ACHOFFSETENABLE	TOGGLE	F	Ach Offset Enable
ACHOFFSET	QUANT	0	Ach Offset (V)
ACHFILTER	IQUANT	3	Ach Filter
IERANGELOWERLIMIT	IQUANT	2	I/E Range Lower Limit
IERANGEMODE	TOGGLE	F	I/E AutoRange
IERANGE	IQUANT	11	I/E Range
POSFEEDENABLE	TOGGLE	F	Positive Feedback IR Comp
POSFEEDRESISTANCE	QUANT	0	Positive Feedback Resistance (ohm)
ACHSELECT	IQUANT	0	Ach Select
CABLEID	IQUANT	13	Cable ID
DCCALDATE	LABEL	7/31/2020	DC Calibration Date
ACCALDATE	LABEL	7/31/2020	AC Calibration Date
THERMOSELECT	IQUANT	1	Thermo Select
FRAMEWORKVERSION	QUANT	6.33	Framework Version
INSTRUMENTVERSION	LABEL	3.50	Instrument Version
COMPLIANCEVOLTAGE	IQUANT	0	Compliance Voltage
ZCURVE	TABLE
	Pt	Time	Freq	Zreal	Zimag	Zsig	Zmod	Zphz	Idc	Vdc	IERange
	#	s	Hz	ohm	ohm	V	ohm	°	A	V	#
	0	7	300046.9	36.49916	-8.969027	1	37.585	-13.80588	1.695374E-005	-0.0002953	9
	1	10	238359.4	37.96473	-11.38529	1	39.63515	-16.69353	4.979215E-005	-0.0021857	9
	2	14	189328.1	39.6052	-13.85773	1	41.9596	-19.28477	4.982548E-005	-0.0018784	9
	3	16	150421.9	41.48265	-16.56197	1	44.66665	-21.76438	4.965547E-005	-0.0017639	9
	4	19	119484.4	43.73293	-19.47026	1	47.87128	-23.99902	2.766451E-005	-0.0001953	9
	5	21	94921.88	46.43616	-22.25449	1	51.49349	-25.60603	3.684989E-007	0.0003983	9
	6	24	75421.88	49.43518	-25.48576	1	55.61799	-27.27287	1.588384E-005	-0.0005002	9
	7	26	59859.37	52.70779	-28.87617	1	60.09946	-28.7163	-1.215217E-005	0.0003054	9
	8	29	47578.12	56.28608	-32.59073	1	65.04059	-30.07167	5.321131E-006	-0.0002584	9
	9	31	37828.12	60.10556	-36.54389	1	70.34297	-31.2994	1.697522E-005	-0.000152	9
	10	34	30046.88	64.20205	-41.03572	1	76.19602	-32.5853	1.068752E-005	-1.087858E-006	9
	11	36	23859.38	68.38295	-46.10121	1	82.4715	-33.98637	1.871528E-005	-0.0004737	9
	12	39	18984.38	72.58762	-52.21062	1	89.41426	-35.7266	4.311131E-006	0.0002155	9
	13	41	15046.87	77.08992	-59.36921	1	97.3014	-37.60093	6.194107E-006	-0.0003239	9
	14	43	11953.13	81.70705	-68.45782	1	106.5951	-39.95778	-9.79436E-006	0.0002126	9
	15	46	9515.62	86.53223	-79.67118	1	117.6236	-42.63611	1.582058E-006	0.0002671	9
	16	48	7546.875	91.81088	-93.46886	1	131.0178	-45.5127	1.750717E-006	-0.000199	9
	17	50	5928.309	98.132	-111.0119	1	148.1673	-48.52406	-1.481427E-005	0.0005064	9
	18	52	4733.456	104.6825	-131.3391	1	167.9535	-51.44378	1.831257E-005	-0.0004367	9
	19	55	3796.875	112.1917	-155.523	1	191.7665	-54.19395	1.501104E-005	-0.0004496	9
	20	57	2987.132	121.18	-187.6959	1	223.4152	-57.15294	-1.261812E-005	0.0006024	9
	21	59	2390.625	130.4	-224.9326	1	259.9977	-59.89788	1.243821E-005	-0.0004319	9
	22	62	1884.191	143.3409	-272.6969	1	308.075	-62.27171	-1.47586E-005	0.0005845	9
	23	64	1516.544	155.7612	-326.0777	1	361.3699	-64.46706	-1.461878E-005	0.0004977	9
	24	66	1193.986	172.858	-398.3987	1	434.2827	-66.54485	6.955214E-006	-0.0003303	9
	25	69	946.5144	190.8067	-481.9466	1	518.3433	-68.40098	-1.539694E-006	0.0015786	8
	26	71	751.7689	212.6906	-587.0328	1	624.3755	-70.0838	3.928183E-006	-0.0002384	8
	27	73	597.4265	238.9601	-715.4678	1	754.3183	-71.53113	3.711266E-006	-0.0000993	8
	28	76	477.4305	270.0342	-868.1672	1	909.1934	-72.72225	4.070213E-007	0.0006701	8
	29	78	376.6741	309.3172	-1067.036	1	1110.965	-73.83395	4.112845E-007	0.0006637	8
	30	80	298.2954	356.1968	-1308.57	1	1356.183	-74.77284	4.046008E-007	0.0006688	8
	31	83	237.7717	411.9795	-1596.984	1	1649.269	-75.5346	4.115849E-007	0.0006645	8
	32	85	189.0121	481.2057	-1955.084	1	2013.433	-76.17262	4.019998E-007	0.000671	8
	33	88	150.2404	566.8159	-2394.787	1	2460.952	-76.68386	4.162071E-007	0.0006687	8
	34	90	119.1737	674.7474	-2940.364	1	3016.79	-77.07567	4.197466E-007	0.0006672	8
	35	92	95.0169	806.9472	-3593.276	1	3682.77	-77.34299	4.266462E-007	0.0006613	8
	36	95	75.60484	977.217	-4409.216	1	4516.209	-77.5035	-5.506417E-008	0.0006421	7
	37	97	54.50582	1299.806	-5890.193	1	6031.905	-77.55582	-5.473273E-008	0.0006412	7
	38	100	45.95588	1520.213	-6851.428	1	7018.056	-77.48974	-4.799928E-008	0.000638	7
	39	102	37.20238	1854.849	-8246.741	1	8452.763	-77.32404	-5.035265E-008	0.0006132	7
	40	105	30.04808	2285.016	-9942.66	1	10201.85	-77.05707	-5.588434E-008	0.0006485	7
	41	107	23.91582	2893.36	-12160.73	1	12500.2	-76.61665	-4.978664E-008	0.0006437	7
	42	109	18.60119	3757.42	-15100.55	1	15561	-76.02704	-4.692166E-008	0.0006411	7
	43	112	15.02404	4735.609	-18125.45	1	18733.88	-75.35773	-5.119269E-008	0.0006488	7
	44	114	12.01923	6090.246	-21898.91	1	22730.01	-74.45836	-5.003511E-008	0.0006379	7
	45	116	9.450605	7968.754	-26704.97	1	27868.55	-73.38491	-5.921512E-008	0.0006394	7
	46	119	7.512019	10366.32	-32241.91	1	33867.41	-72.17652	-4.887834E-008	0.0006298	7
	47	122	5.978954	13478.44	-38620	1	40904.44	-70.76093	-5.422882E-008	0.0006371	7
	48	125	4.734848	17701.31	-46089.77	1	49372.09	-68.99014	-1.056119E-007	0.0006722	6
	49	128	3.75601	23040.28	-54600.9	1	59263.08	-67.12141	-1.028597E-007	0.000706	6
	50	132	3.004808	29441.41	-63595.9	1	70080.2	-65.15845	-1.002992E-007	0.0006646	6
	51	136	2.372217	37830.83	-74037.34	1	83142.65	-62.93435	-1.014567E-007	0.0006201	6
	52	141	1.878005	47453.95	-85060.92	1	97402.5	-60.84364	-9.983975E-008	0.0007088	6
	53	145	1.512097	57571.7	-95847.7	1	111809.1	-59.00853	-9.952329E-008	0.0006441	6
	54	151	1.201923	69625.55	-108608.2	1	129009.6	-57.33726	-9.834178E-008	0.0007249	6
	55	157	0.956633	82589.16	-122612.4	1	147833.6	-56.03661	-9.971044E-008	5.134576E-005	6
