EXPLAIN
TAG	EISPOT
TITLE	LABEL	Potentiostatic EIS	Test Identifier
DATE	LABEL	8/3/2020	Date
TIME	LABEL	13:12:13	Time
NOTES	NOTES	1	Notes...
	
PSTAT	PSTAT	REF3000-16137	Potentiostat
VDC	POTEN	0.00000E+000	T	DC Voltage (V)
FREQINIT	QUANT	3.00000E+005	Initial Freq. (Hz)
FREQFINAL	QUANT	1.00000E+000	Final Freq. (Hz)
PTSPERDEC	QUANT	1.00000E+001	Points/decade
VAC	QUANT	5.00000E+001	AC Voltage (mV rms)
AREA	QUANT	1.00000E+000	Sample Area (cm^2)
SPEED	SELECTOR	2	Optimize for:
ZGUESS	QUANT	1.00000E+003	Estimated Z (ohms)
EOC	QUANT	0	Open Circuit (V)
SEQUENCER	TOGGLE	TRUE	Run as Sequence
PSTATMODEL	IQUANT	5	Pstat Model
PSTATSECTION	LABEL	REF3000-16137	Pstat Section
PSTATSERIALNO	LABEL	16137	Pstat Serial Number
CTRLMODE	IQUANT	1	Control Mode
IESTAB	IQUANT	0	I/E Stability
CASPEED	IQUANT	1	Control Amp Speed
CONVENTION	IQUANT	1	Current Convention
ICHRANGE	IQUANT	2	Ich Range
ICHRANGEMODE	TOGGLE	F	Ich Auto Range
ICHOFFSETENABLE	TOGGLE	T	Ich Offset Enable
ICHOFFSET	QUANT	0	Ich Offset (V)
ICHFILTER	IQUANT	3	Ich Filter
VCHRANGE	IQUANT	2	Vch Range
VCHRANGEMODE	TOGGLE	F	Vch Auto Range
VCHOFFSETENABLE	TOGGLE	T	Vch Offset Enable
VCHOFFSET	QUANT	0	Vch Offset (V)
VCHFILTER	IQUANT	3	Vch Filter
ACHRANGE	IQUANT	2	Ach Range
ACHOFFSETENABLE	TOGGLE	F	Ach Offset Enable
ACHOFFSET	QUANT	0	Ach Offset (V)
ACHFILTER	IQUANT	3	Ach Filter
IERANGELOWERLIMIT	IQUANT	2	I/E Range Lower Limit
IERANGEMODE	TOGGLE	F	I/E AutoRange
IERANGE	IQUANT	11	I/E Range
POSFEEDENABLE	TOGGLE	F	Positive Feedback IR Comp
POSFEEDRESISTANCE	QUANT	0	Positive Feedback Resistance (ohm)
ACHSELECT	IQUANT	0	Ach Select
CABLEID	IQUANT	13	Cable ID
DCCALDATE	LABEL	7/31/2020	DC Calibration Date
ACCALDATE	LABEL	7/31/2020	AC Calibration Date
THERMOSELECT	IQUANT	1	Thermo Select
FRAMEWORKVERSION	QUANT	6.33	Framework Version
INSTRUMENTVERSION	LABEL	3.50	Instrument Version
COMPLIANCEVOLTAGE	IQUANT	0	Compliance Voltage
ZCURVE	TABLE
	Pt	Time	Freq	Zreal	Zimag	Zsig	Zmod	Zphz	Idc	Vdc	IERange
	#	s	Hz	ohm	ohm	V	ohm	°	A	V	#
	0	10	300046.9	4.546987	1.241245	1	4.713362	15.26869	-2.51815E-005	2.619161E-005	10
	1	13	238359.4	4.584149	0.967749	1	4.685185	11.92055	-1.928743E-005	-0.0002808	10
	2	16	189328.1	4.607557	0.7474262	1	4.667786	9.214114	2.188011E-005	6.078891E-005	10
	3	19	150421.9	4.628015	0.5710884	1	4.663117	7.034631	9.375333E-006	0.0002604	10
	4	21	119484.4	4.664313	0.4186684	1	4.683065	5.12912	-1.692238E-005	0.000426	10
	5	24	94921.88	4.699014	0.3066174	1	4.709007	3.73334	-1.627917E-005	0.0005328	10
	6	26	75421.88	4.73836	0.1886597	1	4.742115	2.28005	-2.159356E-005	0.0005136	10
	7	29	59859.37	4.772005	0.0814425	1	4.772699	0.977756	-1.621052E-005	0.0005976	10
	8	32	47578.12	4.80812	-0.020208	1	4.808163	-0.2408069	-1.825446E-005	0.0005849	10
	9	34	37828.12	4.847794	-0.1204799	1	4.84929	-1.423652	-2.006717E-005	0.0006401	10
	10	37	30046.88	4.889389	-0.2250289	1	4.894564	-2.635118	2.446118E-005	0.0006413	10
	11	39	23859.38	4.932442	-0.337339	1	4.943964	-3.912474	-2.125461E-005	0.0006737	10
	12	42	18984.38	4.975795	-0.4632083	1	4.997309	-5.31847	1.099776E-006	0.0006311	10
	13	44	15046.87	5.024863	-0.6110373	1	5.061879	-6.933285	-2.786736E-005	0.000686	10
	14	46	11953.13	5.078228	-0.7845222	1	5.13847	-8.78205	2.244183E-005	0.0006619	10
	15	48	9515.62	5.138591	-0.990816	1	5.233243	-10.91375	1.280277E-005	0.0006453	10
	16	51	7546.875	5.207211	-1.243777	1	5.353693	-13.43378	-1.245928E-005	0.0006862	10
	17	53	5928.309	5.286807	-1.565887	1	5.513831	-16.49864	-2.154601E-006	0.0006552	10
	18	55	4733.456	5.375886	-1.934172	1	5.713245	-19.78805	-2.379816E-005	0.0006656	10
	19	58	3796.875	5.475513	-2.369582	1	5.966251	-23.40103	2.174266E-005	0.0006589	10
	20	60	2987.132	5.598407	-2.953988	1	6.329945	-27.81827	-2.442881E-006	0.0006555	10
	21	62	2390.625	5.732517	-3.616533	1	6.777984	-32.24702	1.926392E-005	0.0006576	10
	22	65	1884.191	5.893754	-4.493784	1	7.411507	-37.32427	-1.537469E-005	0.0006701	10
	23	67	1516.544	6.068171	-5.473446	1	8.171983	-42.05023	-2.483562E-005	0.0006732	10
	24	69	1193.986	6.289914	-6.803234	1	9.265366	-47.24514	1.483834E-005	0.0006622	10
	25	72	946.5144	6.538687	-8.412788	1	10.65502	-52.14451	2.163545E-005	0.0006746	10
	26	74	751.7689	6.838385	-10.38597	1	12.43511	-56.63809	-2.109201E-005	0.0006645	10
	27	76	597.4265	7.185989	-12.82247	1	14.69878	-60.73279	-1.513345E-005	0.0006655	10
	28	79	477.4305	7.602561	-15.76342	1	17.50098	-64.2524	-1.457561E-006	0.0006685	10
	29	81	376.6741	8.134069	-19.61629	1	21.23586	-67.47822	-1.389028E-006	0.0006655	10
	30	83	298.2954	8.777961	-24.34011	1	25.87457	-70.16879	-1.62167E-006	0.0006644	10
	31	86	237.7717	9.55537	-30.02845	1	31.51211	-72.34838	-1.115248E-006	0.0006637	10
	32	88	189.0121	10.53534	-37.14113	1	38.60643	-74.16365	-1.245242E-006	0.000662	10
	33	90	150.2404	11.72755	-45.87804	1	47.35325	-75.66086	1.035103E-006	6.00771E-005	9
	34	93	119.1737	13.24542	-56.85193	1	58.37451	-76.88512	1.086882E-006	6.421433E-005	9
	35	95	95.0169	15.0948	-70.08704	1	71.69412	-77.84573	1.031877E-006	5.979089E-005	9
	36	98	75.60484	17.42147	-86.56139	1	88.29712	-78.62059	9.971089E-007	5.838443E-005	9
	37	100	54.50582	21.76017	-116.9798	1	118.9864	-79.46248	9.226383E-007	6.942897E-005	9
	38	103	45.95588	24.6745	-136.9839	1	139.1885	-79.78898	1.174905E-006	7.024389E-005	9
	39	105	37.20238	29.00314	-166.345	1	168.8545	-80.1096	1.040697E-006	6.981014E-005	9
	40	108	30.04808	34.32995	-202.3592	1	205.2505	-80.37152	1.035749E-006	6.223848E-005	9
	41	110	23.91582	41.40476	-249.4582	1	252.871	-80.57603	1.06882E-006	6.530638E-005	9
	42	112	18.60119	51.33451	-314.3608	1	318.5247	-80.72557	1.17791E-006	6.057215E-005	9
	43	115	15.02404	61.74384	-382.0078	1	386.9655	-80.8187	1.186347E-006	6.205666E-005	9
	44	117	12.01923	75.01846	-466.4079	1	472.4025	-80.86263	3.243185E-007	0.0006433	8
	45	119	9.450605	93.03133	-580.9629	1	588.3644	-80.90229	3.877217E-007	0.0006575	8
	46	122	7.512019	114.5491	-716.0706	1	725.1749	-80.91145	4.236084E-007	0.0006652	8
	47	125	5.978954	141.1444	-881.1931	1	892.4253	-80.89999	3.846916E-007	0.0006534	8
	48	128	4.734848	174.3602	-1090.106	1	1103.962	-80.91263	4.630424E-007	0.0006857	8
	49	131	3.75601	216.3456	-1345.282	1	1362.567	-80.86404	3.990675E-007	0.0006372	8
	50	134	3.004808	266.0276	-1647.015	1	1668.361	-80.82477	4.174787E-007	0.0006617	8
	51	138	2.372217	333.3059	-2043.13	1	2070.138	-80.73467	4.083667E-007	0.0007133	8
	52	142	1.878005	410.1833	-2529.929	1	2562.965	-80.79063	3.732458E-007	0.0006255	8
	53	147	1.512097	501.5872	-3077.808	1	3118.412	-80.74393	4.200117E-007	0.0006716	8
	54	153	1.201923	619.7391	-3811.886	1	3861.937	-80.76561	3.907661E-007	0.0006123	8
	55	159	0.956633	770.235	-4712.197	1	4774.731	-80.71678	4.920054E-008	-1.312368E-005	7
