EXPLAIN
TAG	EISPOT
TITLE	LABEL	Potentiostatic EIS	Test Identifier
DATE	LABEL	8/3/2020	Date
TIME	LABEL	13:17:49	Time
NOTES	NOTES	1	Notes...
	
PSTAT	PSTAT	REF3000-16137	Potentiostat
VDC	POTEN	0.00000E+000	T	DC Voltage (V)
FREQINIT	QUANT	3.00000E+005	Initial Freq. (Hz)
FREQFINAL	QUANT	1.00000E+000	Final Freq. (Hz)
PTSPERDEC	QUANT	1.00000E+001	Points/decade
VAC	QUANT	5.00000E+001	AC Voltage (mV rms)
AREA	QUANT	1.00000E+000	Sample Area (cm^2)
SPEED	SELECTOR	2	Optimize for:
ZGUESS	QUANT	1.00000E+003	Estimated Z (ohms)
EOC	QUANT	0	Open Circuit (V)
SEQUENCER	TOGGLE	TRUE	Run as Sequence
PSTATMODEL	IQUANT	5	Pstat Model
PSTATSECTION	LABEL	REF3000-16137	Pstat Section
PSTATSERIALNO	LABEL	16137	Pstat Serial Number
CTRLMODE	IQUANT	1	Control Mode
IESTAB	IQUANT	0	I/E Stability
CASPEED	IQUANT	1	Control Amp Speed
CONVENTION	IQUANT	1	Current Convention
ICHRANGE	IQUANT	2	Ich Range
ICHRANGEMODE	TOGGLE	F	Ich Auto Range
ICHOFFSETENABLE	TOGGLE	T	Ich Offset Enable
ICHOFFSET	QUANT	0	Ich Offset (V)
ICHFILTER	IQUANT	3	Ich Filter
VCHRANGE	IQUANT	2	Vch Range
VCHRANGEMODE	TOGGLE	F	Vch Auto Range
VCHOFFSETENABLE	TOGGLE	T	Vch Offset Enable
VCHOFFSET	QUANT	0	Vch Offset (V)
VCHFILTER	IQUANT	3	Vch Filter
ACHRANGE	IQUANT	2	Ach Range
ACHOFFSETENABLE	TOGGLE	F	Ach Offset Enable
ACHOFFSET	QUANT	0	Ach Offset (V)
ACHFILTER	IQUANT	3	Ach Filter
IERANGELOWERLIMIT	IQUANT	2	I/E Range Lower Limit
IERANGEMODE	TOGGLE	F	I/E AutoRange
IERANGE	IQUANT	11	I/E Range
POSFEEDENABLE	TOGGLE	F	Positive Feedback IR Comp
POSFEEDRESISTANCE	QUANT	0	Positive Feedback Resistance (ohm)
ACHSELECT	IQUANT	0	Ach Select
CABLEID	IQUANT	13	Cable ID
DCCALDATE	LABEL	7/31/2020	DC Calibration Date
ACCALDATE	LABEL	7/31/2020	AC Calibration Date
THERMOSELECT	IQUANT	1	Thermo Select
FRAMEWORKVERSION	QUANT	6.33	Framework Version
INSTRUMENTVERSION	LABEL	3.50	Instrument Version
COMPLIANCEVOLTAGE	IQUANT	0	Compliance Voltage
ZCURVE	TABLE
	Pt	Time	Freq	Zreal	Zimag	Zsig	Zmod	Zphz	Idc	Vdc	IERange
	#	s	Hz	ohm	ohm	V	ohm	°	A	V	#
	0	8	300046.9	13.94701	1.062118	1	13.98739	4.354886	7.42081E-005	1.039901E-005	10
	1	11	238359.4	14.16507	0.841256	1	14.19003	3.398774	-2.815589E-005	0.0002006	10
	2	14	189328.1	14.36978	0.6424678	1	14.38414	2.559968	-9.358705E-005	0.0003692	10
	3	17	150421.9	14.54107	0.4626544	1	14.54843	1.822369	3.071289E-005	0.0006311	10
	4	20	119484.4	14.75336	0.3297531	1	14.75705	1.280407	1.32181E-005	0.0005404	10
	5	22	94921.88	14.94447	0.2239483	1	14.94615	0.8585339	5.084434E-006	0.0005832	10
	6	25	75421.88	15.15143	0.1000364	1	15.15176	0.3782864	5.628552E-006	0.0005858	10
	7	27	59859.37	15.36369	-0.0120823	1	15.36369	-0.0450586	-1.606774E-005	0.0006115	10
	8	30	47578.12	15.58128	-0.1185213	1	15.58173	-0.4358202	-2.782813E-005	0.0006147	10
	9	32	37828.12	15.8057	-0.2280567	1	15.80735	-0.8266495	1.886886E-005	0.0006648	10
	10	35	30046.88	16.03525	-0.3476943	1	16.03902	-1.242156	2.602924E-005	0.0006441	10
	11	37	23859.38	16.2627	-0.4810221	1	16.26982	-1.694214	-2.637003E-005	0.0006339	10
	12	40	18984.38	16.48769	-0.6351406	1	16.49992	-2.206064	9.828604E-006	0.0006738	10
	13	42	15046.87	16.72066	-0.8211074	1	16.74081	-2.811385	2.169326E-005	0.0006786	10
	14	44	11953.13	16.96594	-1.045033	1	16.9981	-3.524733	2.591479E-005	0.0006761	10
	15	47	9515.62	17.22813	-1.313358	1	17.27812	-4.359417	1.608514E-005	0.0006835	10
	16	49	7546.875	17.50648	-1.647354	1	17.58381	-5.375684	-1.919664E-006	0.0007004	10
	17	51	5928.309	17.79826	-2.078413	1	17.9192	-6.660615	-2.698167E-005	0.0006677	10
	18	53	4733.456	18.11576	-2.573402	1	18.29762	-8.08496	-2.561616E-005	0.0006753	10
	19	56	3796.875	18.45357	-3.166997	1	18.72335	-9.73822	-2.787066E-005	0.0006485	10
	20	58	2987.132	18.83347	-3.966978	1	19.24673	-11.89459	-1.475531E-005	0.0006681	10
	21	60	2390.625	19.25135	-4.876417	1	19.85935	-14.2142	2.37939E-005	0.0006364	10
	22	63	1884.191	19.74081	-6.076424	1	20.65484	-17.1089	-2.737927E-005	0.0006694	10
	23	65	1516.544	20.2713	-7.41433	1	21.58467	-20.09025	1.648829E-005	0.0006603	10
	24	67	1193.986	20.92111	-9.204676	1	22.85649	-23.74809	-1.65519E-005	0.0006599	10
	25	70	946.5144	21.65992	-11.34311	1	24.45032	-27.64064	2.440875E-005	0.0006294	10
	26	72	751.7689	22.47997	-13.95143	1	26.45736	-31.8244	-4.890119E-006	0.0006684	10
	27	74	597.4265	23.41809	-17.09794	1	28.99563	-36.1338	-2.150187E-005	0.0006777	10
	28	77	477.4305	24.48898	-20.84059	1	32.1565	-40.39841	-5.66449E-007	0.0006663	10
	29	79	376.6741	25.7597	-25.68395	1	36.37619	-44.91563	-8.154796E-007	0.0006693	10
	30	81	298.2954	27.15895	-31.52076	1	41.6073	-49.25111	1.148933E-006	6.855783E-005	9
	31	84	237.7717	28.76446	-38.53832	1	48.08946	-53.26285	1.042144E-006	6.813888E-005	9
	32	86	189.0121	30.61531	-47.28208	1	56.32843	-57.0768	1.097723E-006	6.441958E-005	9
	33	89	150.2404	32.72615	-58.07218	1	66.65868	-60.59688	1.092838E-006	6.253779E-005	9
	34	91	119.1737	35.17053	-71.57278	1	79.74728	-63.83072	1.077509E-006	6.566956E-005	9
	35	93	95.0169	37.96071	-87.89949	1	95.7462	-66.64217	1.066534E-006	5.990259E-005	9
	36	96	75.60484	41.28318	-108.3118	1	115.9127	-69.13559	1.05788E-006	6.486076E-005	9
	37	98	54.50582	46.85034	-146.1471	1	153.4729	-72.22572	1.087374E-006	6.147029E-005	9
	38	101	45.95588	50.71104	-171.1912	1	178.5442	-73.49941	1.022651E-006	7.305606E-005	9
	39	103	37.20238	56.10247	-208.1119	1	215.5413	-74.91294	1.08708E-006	6.464414E-005	9
	40	106	30.04808	62.637	-253.644	1	261.2636	-76.12843	1.158136E-006	6.104083E-005	9
	41	108	23.91582	71.15572	-313.5331	1	321.5061	-77.21342	1.160631E-006	5.735345E-005	9
	42	111	18.60119	82.53575	-395.768	1	404.2826	-78.22005	1.125922E-006	6.994685E-005	9
	43	113	15.02404	94.26748	-480.5809	1	489.739	-78.90215	2.968731E-007	0.0006395	8
	44	115	12.01923	109.7967	-591.0139	1	601.1263	-79.47575	3.476763E-007	0.0006455	8
	45	118	9.450605	130.5456	-738.5928	1	750.041	-79.97655	3.330879E-007	0.0006563	8
	46	120	7.512019	155.2937	-913.946	1	927.0456	-80.35665	3.598769E-007	0.0006583	8
	47	123	5.978954	186.2932	-1128.896	1	1144.164	-80.62936	3.45282E-007	0.0006449	8
	48	126	4.734848	225.2891	-1402.523	1	1420.502	-80.87446	3.833767E-007	0.0006633	8
	49	129	3.75601	274.203	-1737.344	1	1758.85	-81.03106	3.199916E-007	0.0006292	8
	50	133	3.004808	332.2615	-2135.59	1	2161.283	-81.15665	3.593447E-007	0.0006361	8
	51	136	2.372217	413.9322	-2656.312	1	2688.37	-81.14285	3.586042E-007	0.0006786	8
	52	141	1.878005	509.1703	-3306.731	1	3345.702	-81.24635	3.232175E-007	0.0006862	8
	53	145	1.512097	616.5858	-4037.804	1	4084.61	-81.31782	3.574546E-007	0.0006049	8
	54	151	1.201923	770.9927	-5026.831	1	5085.613	-81.28018	2.982524E-008	0.0005919	7
	55	157	0.956633	957.928	-6221	1	6294.321	-81.24619	3.044354E-008	-2.708346E-005	7
