EXPLAIN
TAG	EISPOT
TITLE	LABEL	Potentiostatic EIS	Test Identifier
DATE	LABEL	8/3/2020	Date
TIME	LABEL	13:15:01	Time
NOTES	NOTES	1	Notes...
	
PSTAT	PSTAT	REF3000-16137	Potentiostat
VDC	POTEN	0.00000E+000	T	DC Voltage (V)
FREQINIT	QUANT	3.00000E+005	Initial Freq. (Hz)
FREQFINAL	QUANT	1.00000E+000	Final Freq. (Hz)
PTSPERDEC	QUANT	1.00000E+001	Points/decade
VAC	QUANT	5.00000E+001	AC Voltage (mV rms)
AREA	QUANT	1.00000E+000	Sample Area (cm^2)
SPEED	SELECTOR	2	Optimize for:
ZGUESS	QUANT	1.00000E+003	Estimated Z (ohms)
EOC	QUANT	0	Open Circuit (V)
SEQUENCER	TOGGLE	TRUE	Run as Sequence
PSTATMODEL	IQUANT	5	Pstat Model
PSTATSECTION	LABEL	REF3000-16137	Pstat Section
PSTATSERIALNO	LABEL	16137	Pstat Serial Number
CTRLMODE	IQUANT	1	Control Mode
IESTAB	IQUANT	0	I/E Stability
CASPEED	IQUANT	1	Control Amp Speed
CONVENTION	IQUANT	1	Current Convention
ICHRANGE	IQUANT	2	Ich Range
ICHRANGEMODE	TOGGLE	F	Ich Auto Range
ICHOFFSETENABLE	TOGGLE	T	Ich Offset Enable
ICHOFFSET	QUANT	0	Ich Offset (V)
ICHFILTER	IQUANT	3	Ich Filter
VCHRANGE	IQUANT	2	Vch Range
VCHRANGEMODE	TOGGLE	F	Vch Auto Range
VCHOFFSETENABLE	TOGGLE	T	Vch Offset Enable
VCHOFFSET	QUANT	0	Vch Offset (V)
VCHFILTER	IQUANT	3	Vch Filter
ACHRANGE	IQUANT	2	Ach Range
ACHOFFSETENABLE	TOGGLE	F	Ach Offset Enable
ACHOFFSET	QUANT	0	Ach Offset (V)
ACHFILTER	IQUANT	3	Ach Filter
IERANGELOWERLIMIT	IQUANT	2	I/E Range Lower Limit
IERANGEMODE	TOGGLE	F	I/E AutoRange
IERANGE	IQUANT	11	I/E Range
POSFEEDENABLE	TOGGLE	F	Positive Feedback IR Comp
POSFEEDRESISTANCE	QUANT	0	Positive Feedback Resistance (ohm)
ACHSELECT	IQUANT	0	Ach Select
CABLEID	IQUANT	13	Cable ID
DCCALDATE	LABEL	7/31/2020	DC Calibration Date
ACCALDATE	LABEL	7/31/2020	AC Calibration Date
THERMOSELECT	IQUANT	1	Thermo Select
FRAMEWORKVERSION	QUANT	6.33	Framework Version
INSTRUMENTVERSION	LABEL	3.50	Instrument Version
COMPLIANCEVOLTAGE	IQUANT	0	Compliance Voltage
ZCURVE	TABLE
	Pt	Time	Freq	Zreal	Zimag	Zsig	Zmod	Zphz	Idc	Vdc	IERange
	#	s	Hz	ohm	ohm	V	ohm	°	A	V	#
	0	10	300046.9	7.444997	1.210467	1	7.542759	9.234794	-0.0001055	0.0001614	10
	1	13	238359.4	7.511152	0.933754	1	7.56897	7.086408	6.418739E-005	2.450602E-005	10
	2	17	189328.1	7.583213	0.7201869	1	7.617335	5.425178	7.80578E-005	0.0001895	10
	3	19	150421.9	7.645987	0.5342891	1	7.664631	3.997238	2.377317E-005	0.0004979	10
	4	22	119484.4	7.715566	0.3935977	1	7.725599	2.920324	2.188059E-005	0.0005536	10
	5	24	94921.88	7.783812	0.2899593	1	7.789211	2.133372	7.150033E-006	0.0005433	10
	6	27	75421.88	7.845257	0.1675957	1	7.847047	1.223805	1.198962E-006	0.0005759	10
	7	29	59859.37	7.910219	0.053776	1	7.910402	0.3895079	1.49502E-005	0.0005882	10
	8	32	47578.12	7.978911	-0.0519778	1	7.97908	-0.3732422	4.165173E-006	0.000593	10
	9	34	37828.12	8.055326	-0.1564614	1	8.056845	-1.112736	2.662545E-005	0.0006511	10
	10	37	30046.88	8.130081	-0.2646853	1	8.134389	-1.86468	-1.29905E-005	0.0006229	10
	11	39	23859.38	8.205866	-0.3837608	1	8.214834	-2.67758	1.79765E-005	0.0006319	10
	12	42	18984.38	8.282074	-0.5186953	1	8.298301	-3.583678	-2.409042E-005	0.0006835	10
	13	44	15046.87	8.363706	-0.6790913	1	8.39123	-4.641949	6.782108E-006	0.0006395	10
	14	46	11953.13	8.450682	-0.868049	1	8.495148	-5.864819	-2.132188E-005	0.0007172	10
	15	49	9515.62	8.542913	-1.094594	1	8.612753	-7.301465	-1.89166E-005	0.000669	10
	16	51	7546.875	8.64453	-1.375846	1	8.753334	-9.043232	1.808586E-005	0.0006738	10
	17	53	5928.309	8.760147	-1.733634	1	8.930043	-11.1942	1.906932E-005	0.0006352	10
	18	55	4733.456	8.886784	-2.142686	1	9.141445	-13.55581	2.035908E-005	0.0006534	10
	19	58	3796.875	9.027503	-2.633042	1	9.403655	-16.26032	1.258471E-005	0.000638	10
	20	60	2987.132	9.196254	-3.284294	1	9.76513	-19.65337	1.377209E-005	0.0006311	10
	21	62	2390.625	9.378817	-4.028661	1	10.20746	-23.24589	1.838106E-005	0.0006415	10
	22	65	1884.191	9.5982	-5.004653	1	10.8246	-27.53825	1.843724E-005	0.0006433	10
	23	67	1516.544	9.8376	-6.09902	1	11.57482	-31.7977	1.655147E-005	0.0006566	10
	24	69	1193.986	10.13514	-7.573637	1	12.65231	-36.76949	-2.676689E-005	0.0006658	10
	25	72	946.5144	10.46883	-9.353734	1	14.03883	-41.78028	-1.116111E-005	0.0006457	10
	26	74	751.7689	10.84467	-11.52701	1	15.82652	-46.74698	-2.587805E-005	0.0006717	10
	27	76	597.4265	11.29165	-14.20542	1	18.1465	-51.51939	1.932004E-005	0.0006449	10
	28	79	477.4305	11.78936	-17.43816	1	21.04943	-55.93869	-1.922828E-006	0.0006726	10
	29	81	376.6741	12.41574	-21.67171	1	24.97626	-60.19157	-1.365609E-006	0.000665	10
	30	83	298.2954	13.15575	-26.86967	1	29.91743	-63.91301	-9.721441E-007	0.0006613	10
	31	86	237.7717	14.02824	-33.12753	1	35.97534	-67.04919	-1.492231E-006	0.0006657	10
	32	88	189.0121	15.07969	-40.92457	1	43.61442	-69.77241	1.130532E-006	6.727107E-005	9
	33	91	150.2404	16.38513	-50.62354	1	53.20917	-72.06499	1.038737E-006	6.31761E-005	9
	34	93	119.1737	18.00655	-62.76759	1	65.29936	-73.99306	1.071657E-006	6.806193E-005	9
	35	95	95.0169	19.97057	-77.44392	1	79.97739	-75.54008	1.054315E-006	6.359639E-005	9
	36	98	75.60484	22.42244	-95.7481	1	98.3385	-76.81989	9.680475E-007	6.139997E-005	9
	37	100	54.50582	26.97525	-129.6396	1	132.4163	-78.24569	9.106305E-007	5.851132E-005	9
	38	103	45.95588	30.00648	-151.9212	1	154.8562	-78.82713	1.165219E-006	6.095472E-005	9
	39	105	37.20238	34.49078	-184.7493	1	187.9412	-79.4252	1.163343E-006	5.72811E-005	9
	40	108	30.04808	40.11588	-225.2176	1	228.7625	-79.90037	1.026963E-006	5.957588E-005	9
	41	110	23.91582	47.45152	-277.9347	1	281.9563	-80.31136	1.03101E-006	6.110315E-005	9
	42	113	18.60119	57.69631	-350.7633	1	355.4768	-80.65918	1.041398E-006	6.092342E-005	9
	43	115	15.02404	68.27899	-425.2451	1	430.6918	-80.87823	4.014995E-007	0.0006368	8
	44	117	12.01923	82.38122	-522.4701	1	528.925	-81.03958	3.045675E-007	0.0006399	8
	45	120	9.450605	101.1629	-651.6997	1	659.5047	-81.17644	3.587594E-007	0.0006607	8
	46	122	7.512019	123.8314	-805.3552	1	814.8197	-81.25866	3.722258E-007	0.0006609	8
	47	125	5.978954	152.0744	-992.8	1	1004.38	-81.29128	3.659461E-007	0.000645	8
	48	128	4.734848	187.3919	-1230.375	1	1244.563	-81.34013	4.200447E-007	0.0006757	8
	49	131	3.75601	232.2371	-1521.637	1	1539.258	-81.3223	3.165724E-007	0.0006906	8
	50	134	3.004808	285.08	-1866.243	1	1887.891	-81.31486	3.939491E-007	0.0006447	8
	51	138	2.372217	359.0809	-2316.789	1	2344.451	-81.18978	3.813417E-007	0.0006982	8
	52	142	1.878005	443.5998	-2875.771	1	2909.784	-81.231	3.544892E-007	0.0006306	8
	53	147	1.512097	537.7388	-3505.939	1	3546.938	-81.27997	3.965862E-007	0.000581	8
	54	153	1.201923	672.6724	-4342.748	1	4394.536	-81.19511	3.69521E-007	0.0006269	8
	55	159	0.956633	834.8732	-5369.67	1	5434.186	-81.16245	4.333967E-008	-2.836034E-005	7
