EXPLAIN
TAG	EISPOT
TITLE	LABEL	Potentiostatic EIS	Test Identifier
DATE	LABEL	8/3/2020	Date
TIME	LABEL	13:00:59	Time
NOTES	NOTES	1	Notes...
	
PSTAT	PSTAT	REF3000-16137	Potentiostat
VDC	POTEN	0.00000E+000	T	DC Voltage (V)
FREQINIT	QUANT	3.00000E+005	Initial Freq. (Hz)
FREQFINAL	QUANT	1.00000E+000	Final Freq. (Hz)
PTSPERDEC	QUANT	1.00000E+001	Points/decade
VAC	QUANT	5.00000E+001	AC Voltage (mV rms)
AREA	QUANT	1.00000E+000	Sample Area (cm^2)
SPEED	SELECTOR	2	Optimize for:
ZGUESS	QUANT	1.00000E+003	Estimated Z (ohms)
EOC	QUANT	0	Open Circuit (V)
SEQUENCER	TOGGLE	TRUE	Run as Sequence
PSTATMODEL	IQUANT	5	Pstat Model
PSTATSECTION	LABEL	REF3000-16137	Pstat Section
PSTATSERIALNO	LABEL	16137	Pstat Serial Number
CTRLMODE	IQUANT	1	Control Mode
IESTAB	IQUANT	0	I/E Stability
CASPEED	IQUANT	1	Control Amp Speed
CONVENTION	IQUANT	1	Current Convention
ICHRANGE	IQUANT	2	Ich Range
ICHRANGEMODE	TOGGLE	F	Ich Auto Range
ICHOFFSETENABLE	TOGGLE	T	Ich Offset Enable
ICHOFFSET	QUANT	0	Ich Offset (V)
ICHFILTER	IQUANT	3	Ich Filter
VCHRANGE	IQUANT	2	Vch Range
VCHRANGEMODE	TOGGLE	F	Vch Auto Range
VCHOFFSETENABLE	TOGGLE	T	Vch Offset Enable
VCHOFFSET	QUANT	0	Vch Offset (V)
VCHFILTER	IQUANT	3	Vch Filter
ACHRANGE	IQUANT	2	Ach Range
ACHOFFSETENABLE	TOGGLE	F	Ach Offset Enable
ACHOFFSET	QUANT	0	Ach Offset (V)
ACHFILTER	IQUANT	3	Ach Filter
IERANGELOWERLIMIT	IQUANT	2	I/E Range Lower Limit
IERANGEMODE	TOGGLE	F	I/E AutoRange
IERANGE	IQUANT	11	I/E Range
POSFEEDENABLE	TOGGLE	F	Positive Feedback IR Comp
POSFEEDRESISTANCE	QUANT	0	Positive Feedback Resistance (ohm)
ACHSELECT	IQUANT	0	Ach Select
CABLEID	IQUANT	13	Cable ID
DCCALDATE	LABEL	7/31/2020	DC Calibration Date
ACCALDATE	LABEL	7/31/2020	AC Calibration Date
THERMOSELECT	IQUANT	1	Thermo Select
FRAMEWORKVERSION	QUANT	6.33	Framework Version
INSTRUMENTVERSION	LABEL	3.50	Instrument Version
COMPLIANCEVOLTAGE	IQUANT	0	Compliance Voltage
ZCURVE	TABLE
	Pt	Time	Freq	Zreal	Zimag	Zsig	Zmod	Zphz	Idc	Vdc	IERange
	#	s	Hz	ohm	ohm	V	ohm	°	A	V	#
	0	9	300046.9	1.532042	1.254461	1	1.980107	39.31119	-7.038566E-005	0.0009368	11
	1	12	238359.4	1.513921	0.986043	1	1.80672	33.0769	9.093538E-005	-0.000557	11
	2	16	189328.1	1.501503	0.7725805	1	1.688607	27.22754	-0.000112	-0.0004177	11
	3	18	150421.9	1.491837	0.5955151	1	1.606305	21.76102	-1.09908E-005	0.0001422	11
	4	21	119484.4	1.492288	0.4484987	1	1.558228	16.72785	-5.893873E-005	0.0002206	11
	5	23	94921.88	1.49188	0.3265135	1	1.527192	12.34513	-2.783826E-005	0.0003763	11
	6	26	75421.88	1.494843	0.2192151	1	1.510831	8.342823	-8.50642E-005	0.0004801	11
	7	28	59859.37	1.500023	0.1241369	1	1.505151	4.730826	-3.940389E-005	0.0005138	11
	8	31	47578.12	1.506677	0.0377628	1	1.50715	1.435738	-1.782374E-005	0.0005723	11
	9	33	37828.12	1.514889	-0.0449062	1	1.515555	-1.697935	-4.124753E-005	0.0006034	11
	10	36	30046.88	1.525239	-0.1283805	1	1.530632	-4.811289	-1.676503E-005	0.000636	11
	11	38	23859.38	1.537263	-0.2163277	1	1.55241	-8.010215	-2.079233E-005	0.0006572	11
	12	41	18984.38	1.551253	-0.3118659	1	1.582292	-11.36728	-1.034002E-005	0.0006776	11
	13	43	15046.87	1.56883	-0.421446	1	1.624452	-15.03677	-1.801912E-005	0.0006839	11
	14	45	11953.13	1.588859	-0.5478338	1	1.680653	-19.02404	-3.968157E-005	0.000667	11
	15	48	9515.62	1.613254	-0.6954437	1	1.756767	-23.31997	-1.947217E-005	0.0006884	11
	16	50	7546.875	1.641578	-0.8753343	1	1.860374	-28.06775	1.500923E-005	0.0006819	11
	17	52	5928.309	1.677156	-1.10422	1	2.008022	-33.36044	-3.465094E-005	0.00067	11
	18	55	4733.456	1.716976	-1.365095	1	2.193511	-38.48674	-1.934026E-005	0.000668	11
	19	57	3796.875	1.763541	-1.676981	1	2.433586	-43.55881	-4.122909E-005	0.0006597	11
	20	59	2987.132	1.82581	-2.094202	1	2.778357	-48.91676	-2.196011E-005	0.0006755	11
	21	62	2390.625	1.89522	-2.572979	1	3.195635	-53.62517	-1.910922E-006	0.0006913	11
	22	64	1884.191	1.990245	-3.201869	1	3.770019	-58.13539	4.104025E-005	0.0007249	11
	23	66	1516.544	2.097834	-3.913089	1	4.439951	-61.80393	8.687437E-006	0.0006587	10
	24	68	1193.986	2.245267	-4.873094	1	5.36547	-65.26222	-2.009883E-005	0.0007171	10
	25	71	946.5144	2.420953	-6.029596	1	6.497464	-68.12396	2.646178E-005	0.0006721	10
	26	73	751.7689	2.647116	-7.436728	1	7.893804	-70.40672	-5.441209E-006	0.0006577	10
	27	76	597.4265	2.931664	-9.175267	1	9.63225	-72.28038	2.449621E-005	0.0006683	10
	28	78	477.4305	3.266934	-11.24597	1	11.71088	-73.80151	-2.371437E-007	0.0006732	10
	29	80	376.6741	3.716716	-13.94144	1	14.42836	-75.07242	2.272532E-007	0.0006695	10
	30	83	298.2954	4.270089	-17.21668	1	17.73831	-76.07056	3.192121E-007	0.0006741	10
	31	85	237.7717	4.93887	-21.12685	1	21.69646	-76.84213	-1.669312E-008	0.0006736	10
	32	87	189.0121	5.775696	-25.98389	1	26.61806	-77.46805	4.439125E-007	0.0006644	10
	33	90	150.2404	6.815408	-31.9496	1	32.66844	-77.9583	5.534355E-007	0.0006672	10
	34	92	119.1737	8.114377	-39.35033	1	40.17825	-78.34843	1.449681E-007	0.0006668	10
	35	95	95.0169	9.6755	-48.17565	1	49.13765	-78.64391	1.633333E-006	6.969582E-005	9
	36	97	75.60484	11.63125	-59.15103	1	60.28375	-78.87549	1.409724E-006	6.825947E-005	9
	37	100	54.50582	15.275	-79.27922	1	80.73735	-79.09427	1.445741E-006	6.500542E-005	9
	38	102	45.95588	17.72061	-92.47123	1	94.15385	-79.15172	1.96234E-006	7.2478E-005	9
	39	105	37.20238	21.34113	-111.7636	1	113.7829	-79.18958	1.734878E-006	6.634355E-005	9
	40	107	30.04808	25.8401	-135.2667	1	137.7127	-79.18504	1.579521E-006	6.239527E-005	9
	41	109	23.91582	31.80018	-165.8951	1	168.9154	-79.14869	1.356296E-006	7.061855E-005	9
	42	112	18.60119	40.34423	-207.5398	1	211.4247	-78.99931	1.36528E-006	6.900949E-005	9
	43	114	15.02404	49.52837	-251.1166	1	255.9543	-78.84261	1.641951E-006	5.820256E-005	9
	44	116	12.01923	61.61982	-305.9172	1	312.0614	-78.6115	1.745651E-006	6.317605E-005	9
	45	119	9.450605	78.22198	-377.9107	1	385.9212	-78.30575	1.519162E-006	6.205658E-005	9
	46	121	7.512019	97.7199	-460.3582	1	470.6154	-78.01575	9.899157E-007	0.0006369	8
	47	124	5.978954	122.3747	-561.5779	1	574.7567	-77.70673	1.042612E-006	0.0006531	8
	48	127	4.734848	154.1876	-687.4586	1	704.5375	-77.35854	1.081181E-006	0.0006318	8
	49	130	3.75601	192.6702	-839.8207	1	861.6383	-77.0789	1.051627E-006	0.0006526	8
	50	134	3.004808	238.0846	-1017.251	1	1044.741	-76.82721	1.115036E-006	0.0006182	8
	51	138	2.372217	296.414	-1244.641	1	1279.45	-76.60442	1.032254E-006	0.000613	8
	52	142	1.878005	370.4779	-1523.342	1	1567.745	-76.33099	9.674466E-007	0.000649	8
	53	146	1.512097	452.3044	-1838.454	1	1893.276	-76.17834	9.872774E-007	0.0005445	8
	54	152	1.201923	561.2443	-2244.731	1	2313.831	-75.96228	9.462205E-007	0.0006671	8
	55	158	0.956633	694.9611	-2738.561	1	2825.365	-75.7607	9.316005E-007	7.342553E-006	8
