EXPLAIN
TAG	EISPOT
TITLE	LABEL	Potentiostatic EIS	Test Identifier
DATE	LABEL	8/3/2020	Date
TIME	LABEL	13:09:25	Time
NOTES	NOTES	1	Notes...
	
PSTAT	PSTAT	REF3000-16137	Potentiostat
VDC	POTEN	0.00000E+000	T	DC Voltage (V)
FREQINIT	QUANT	3.00000E+005	Initial Freq. (Hz)
FREQFINAL	QUANT	1.00000E+000	Final Freq. (Hz)
PTSPERDEC	QUANT	1.00000E+001	Points/decade
VAC	QUANT	5.00000E+001	AC Voltage (mV rms)
AREA	QUANT	1.00000E+000	Sample Area (cm^2)
SPEED	SELECTOR	2	Optimize for:
ZGUESS	QUANT	1.00000E+003	Estimated Z (ohms)
EOC	QUANT	0	Open Circuit (V)
SEQUENCER	TOGGLE	TRUE	Run as Sequence
PSTATMODEL	IQUANT	5	Pstat Model
PSTATSECTION	LABEL	REF3000-16137	Pstat Section
PSTATSERIALNO	LABEL	16137	Pstat Serial Number
CTRLMODE	IQUANT	1	Control Mode
IESTAB	IQUANT	0	I/E Stability
CASPEED	IQUANT	1	Control Amp Speed
CONVENTION	IQUANT	1	Current Convention
ICHRANGE	IQUANT	2	Ich Range
ICHRANGEMODE	TOGGLE	F	Ich Auto Range
ICHOFFSETENABLE	TOGGLE	T	Ich Offset Enable
ICHOFFSET	QUANT	0	Ich Offset (V)
ICHFILTER	IQUANT	3	Ich Filter
VCHRANGE	IQUANT	2	Vch Range
VCHRANGEMODE	TOGGLE	F	Vch Auto Range
VCHOFFSETENABLE	TOGGLE	T	Vch Offset Enable
VCHOFFSET	QUANT	0	Vch Offset (V)
VCHFILTER	IQUANT	3	Vch Filter
ACHRANGE	IQUANT	2	Ach Range
ACHOFFSETENABLE	TOGGLE	F	Ach Offset Enable
ACHOFFSET	QUANT	0	Ach Offset (V)
ACHFILTER	IQUANT	3	Ach Filter
IERANGELOWERLIMIT	IQUANT	2	I/E Range Lower Limit
IERANGEMODE	TOGGLE	F	I/E AutoRange
IERANGE	IQUANT	11	I/E Range
POSFEEDENABLE	TOGGLE	F	Positive Feedback IR Comp
POSFEEDRESISTANCE	QUANT	0	Positive Feedback Resistance (ohm)
ACHSELECT	IQUANT	0	Ach Select
CABLEID	IQUANT	13	Cable ID
DCCALDATE	LABEL	7/31/2020	DC Calibration Date
ACCALDATE	LABEL	7/31/2020	AC Calibration Date
THERMOSELECT	IQUANT	1	Thermo Select
FRAMEWORKVERSION	QUANT	6.33	Framework Version
INSTRUMENTVERSION	LABEL	3.50	Instrument Version
COMPLIANCEVOLTAGE	IQUANT	0	Compliance Voltage
ZCURVE	TABLE
	Pt	Time	Freq	Zreal	Zimag	Zsig	Zmod	Zphz	Idc	Vdc	IERange
	#	s	Hz	ohm	ohm	V	ohm	°	A	V	#
	0	10	300046.9	3.128656	1.216902	1	3.356984	21.25373	-5.211335E-005	-0.0001884	11
	1	13	238359.4	3.12765	0.9497538	1	3.268674	16.89163	-0.0001172	-0.0002667	11
	2	16	189328.1	3.132585	0.7375228	1	3.218234	13.24821	-0.0001386	-4.442866E-005	11
	3	19	150421.9	3.146015	0.564389	1	3.19624	10.17056	-0.0001159	0.0001513	11
	4	21	119484.4	3.155244	0.4128781	1	3.182142	7.455057	9.056894E-005	0.0005114	11
	5	24	94921.88	3.170985	0.2895806	1	3.18418	5.217889	1.383664E-005	0.0005628	11
	6	26	75421.88	3.189986	0.1797453	1	3.195046	3.225021	3.560549E-005	0.000639	11
	7	29	59859.37	3.210512	0.0804979	1	3.211521	1.436289	1.950099E-005	0.0006534	11
	8	31	47578.12	3.232501	-0.0124517	1	3.232525	-0.2207035	-6.311759E-006	0.0006382	11
	9	34	37828.12	3.25631	-0.1043164	1	3.25798	-1.834852	-3.654719E-005	0.0006186	11
	10	37	30046.88	3.282572	-0.2000897	1	3.288665	-3.488157	8.005097E-006	0.0006933	11
	11	39	23859.38	3.310012	-0.3039013	1	3.323934	-5.245776	-1.173828E-005	0.0006755	11
	12	41	18984.38	3.339456	-0.4195276	1	3.365705	-7.160416	3.887247E-005	0.0007391	11
	13	44	15046.87	3.372772	-0.5554404	1	3.418201	-9.351741	2.158483E-005	0.0007154	11
	14	46	11953.13	3.409932	-0.7133745	1	3.483753	-11.81614	3.225503E-005	0.0007286	11
	15	48	9515.62	3.453061	-0.9017025	1	3.568851	-14.63492	6.96571E-006	0.0006995	11
	16	51	7546.875	3.506847	-1.131276	1	3.684801	-17.87922	-3.279428E-006	0.000649	10
	17	53	5928.309	3.567039	-1.423018	1	3.84041	-21.74881	2.365503E-005	0.0006637	10
	18	55	4733.456	3.634216	-1.755782	1	4.036124	-25.78636	2.43855E-005	0.000667	10
	19	58	3796.875	3.709272	-2.152525	1	4.288597	-30.12699	-1.840719E-005	0.0006485	10
	20	60	2987.132	3.803844	-2.680198	1	4.653245	-35.16862	-2.270371E-005	0.0007162	10
	21	62	2390.625	3.905748	-3.285235	1	5.103688	-40.06814	-1.249974E-006	0.0006771	10
	22	64	1884.191	4.032966	-4.07983	1	5.736709	-45.33097	1.420968E-005	0.0006478	10
	23	67	1516.544	4.172545	-4.975627	1	6.493612	-50.01691	6.495469E-006	0.0006506	10
	24	69	1193.986	4.350129	-6.196136	1	7.570714	-54.92841	-2.535406E-005	0.0006644	10
	25	72	946.5144	4.559056	-7.671045	1	8.92356	-59.27613	-2.495675E-005	0.0006471	10
	26	74	751.7689	4.814588	-9.480539	1	10.63301	-63.07676	2.415869E-005	0.0006632	10
	27	76	597.4265	5.127926	-11.72128	1	12.79391	-66.37118	2.308454E-005	0.0006642	10
	28	78	477.4305	5.497856	-14.4128	1	15.4258	-69.12032	-7.32779E-007	0.0006711	10
	29	81	376.6741	5.986459	-17.93783	1	18.9104	-71.5444	-6.225479E-007	0.000666	10
	30	83	298.2954	6.588923	-22.25188	1	23.2069	-73.50565	-3.596215E-007	0.000668	10
	31	85	237.7717	7.324382	-27.43264	1	28.3936	-75.05101	-1.188481E-006	0.0006717	10
	32	88	189.0121	8.250405	-33.90737	1	34.89669	-76.32444	-1.352554E-006	0.0007187	10
	33	90	150.2404	9.394858	-41.84274	1	42.88448	-77.34538	1.061657E-006	7.421141E-005	9
	34	93	119.1737	10.85287	-51.78945	1	52.91439	-78.16451	1.128679E-006	7.415576E-005	9
	35	95	95.0169	12.63673	-63.76223	1	65.00238	-78.79008	1.035117E-006	7.109097E-005	9
	36	98	75.60484	14.88434	-78.63902	1	80.03524	-79.28217	9.903118E-007	7.79543E-005	9
	37	100	54.50582	19.0878	-106.042	1	107.7462	-79.7959	9.410975E-007	6.953641E-005	9
	38	103	45.95588	21.89259	-123.9807	1	125.8988	-79.98591	1.249588E-006	7.851704E-005	9
	39	105	37.20238	26.05391	-150.3521	1	152.5927	-80.16907	1.100067E-006	6.85112E-005	9
	40	107	30.04808	31.22822	-182.6425	1	185.293	-80.29739	1.031585E-006	6.995963E-005	9
	41	110	23.91582	38.12443	-225.0674	1	228.2735	-80.38586	9.583605E-007	6.741571E-005	9
	42	112	18.60119	47.45336	-282.5072	1	286.4649	-80.46491	9.262546E-007	6.861869E-005	9
	43	114	15.02404	57.35936	-342.8883	1	347.6529	-80.50333	1.229989E-006	8.63397E-005	9
	44	117	12.01923	70.22887	-419.7224	1	425.5573	-80.50114	1.080755E-006	7.100191E-005	9
	45	119	9.450605	86.97098	-519.433	1	526.6636	-80.49488	4.403536E-007	0.0006586	8
	46	122	7.512019	107.0232	-639.2119	1	648.1094	-80.49513	4.869169E-007	0.0006738	8
	47	124	5.978954	131.9315	-785.8184	1	796.8164	-80.46946	4.668614E-007	0.0006565	8
	48	127	4.734848	162.7921	-970.877	1	984.43	-80.48145	5.369725E-007	0.0006714	8
	49	131	3.75601	202.2458	-1197.285	1	1214.246	-80.41208	4.366088E-007	0.0006342	8
	50	134	3.004808	248.9039	-1464.995	1	1485.989	-80.35748	4.50695E-007	0.0006731	8
	51	138	2.372217	312.333	-1816.891	1	1843.542	-80.2459	4.2689E-007	0.0007224	8
	52	142	1.878005	388.3197	-2246.042	1	2279.363	-80.19106	4.036232E-007	0.0006259	8
	53	147	1.512097	481.0431	-2730.435	1	2772.486	-80.00827	4.414853E-007	0.0007026	8
	54	152	1.201923	599.5385	-3375.418	1	3428.25	-79.92822	4.178646E-007	0.0006164	8
	55	158	0.956633	751.7021	-4156.667	1	4224.09	-79.74928	4.081202E-007	4.134481E-006	8
