EXPLAIN
TAG	EISPOT
TITLE	LABEL	Potentiostatic EIS	Test Identifier
DATE	LABEL	8/3/2020	Date
TIME	LABEL	12:58:12	Time
NOTES	NOTES	1	Notes...
	
PSTAT	PSTAT	REF3000-16137	Potentiostat
VDC	POTEN	0.00000E+000	T	DC Voltage (V)
FREQINIT	QUANT	3.00000E+005	Initial Freq. (Hz)
FREQFINAL	QUANT	1.00000E+000	Final Freq. (Hz)
PTSPERDEC	QUANT	1.00000E+001	Points/decade
VAC	QUANT	5.00000E+001	AC Voltage (mV rms)
AREA	QUANT	1.00000E+000	Sample Area (cm^2)
SPEED	SELECTOR	2	Optimize for:
ZGUESS	QUANT	1.00000E+003	Estimated Z (ohms)
EOC	QUANT	0	Open Circuit (V)
SEQUENCER	TOGGLE	TRUE	Run as Sequence
PSTATMODEL	IQUANT	5	Pstat Model
PSTATSECTION	LABEL	REF3000-16137	Pstat Section
PSTATSERIALNO	LABEL	16137	Pstat Serial Number
CTRLMODE	IQUANT	1	Control Mode
IESTAB	IQUANT	0	I/E Stability
CASPEED	IQUANT	1	Control Amp Speed
CONVENTION	IQUANT	1	Current Convention
ICHRANGE	IQUANT	2	Ich Range
ICHRANGEMODE	TOGGLE	F	Ich Auto Range
ICHOFFSETENABLE	TOGGLE	T	Ich Offset Enable
ICHOFFSET	QUANT	0	Ich Offset (V)
ICHFILTER	IQUANT	3	Ich Filter
VCHRANGE	IQUANT	2	Vch Range
VCHRANGEMODE	TOGGLE	F	Vch Auto Range
VCHOFFSETENABLE	TOGGLE	T	Vch Offset Enable
VCHOFFSET	QUANT	0	Vch Offset (V)
VCHFILTER	IQUANT	3	Vch Filter
ACHRANGE	IQUANT	2	Ach Range
ACHOFFSETENABLE	TOGGLE	F	Ach Offset Enable
ACHOFFSET	QUANT	0	Ach Offset (V)
ACHFILTER	IQUANT	3	Ach Filter
IERANGELOWERLIMIT	IQUANT	2	I/E Range Lower Limit
IERANGEMODE	TOGGLE	F	I/E AutoRange
IERANGE	IQUANT	11	I/E Range
POSFEEDENABLE	TOGGLE	F	Positive Feedback IR Comp
POSFEEDRESISTANCE	QUANT	0	Positive Feedback Resistance (ohm)
ACHSELECT	IQUANT	0	Ach Select
CABLEID	IQUANT	13	Cable ID
DCCALDATE	LABEL	7/31/2020	DC Calibration Date
ACCALDATE	LABEL	7/31/2020	AC Calibration Date
THERMOSELECT	IQUANT	1	Thermo Select
FRAMEWORKVERSION	QUANT	6.33	Framework Version
INSTRUMENTVERSION	LABEL	3.50	Instrument Version
COMPLIANCEVOLTAGE	IQUANT	0	Compliance Voltage
ZCURVE	TABLE
	Pt	Time	Freq	Zreal	Zimag	Zsig	Zmod	Zphz	Idc	Vdc	IERange
	#	s	Hz	ohm	ohm	V	ohm	°	A	V	#
	0	9	300046.9	1.384776	1.259695	1	1.872014	42.29198	3.993155E-005	0.0010186	11
	1	12	238359.4	1.363779	0.993872	1	1.687505	36.08317	-0.000109	0.0007708	11
	2	16	189328.1	1.347402	0.7771142	1	1.555442	29.9742	-9.968003E-006	-0.0003372	11
	3	18	150421.9	1.342002	0.5963446	1	1.468536	23.95889	-3.702857E-005	-5.101931E-005	11
	4	21	119484.4	1.338857	0.4522789	1	1.413186	18.66547	2.034653E-005	0.0002108	11
	5	23	94921.88	1.33813	0.3328743	1	1.378912	13.9694	-3.249021E-005	0.0003305	11
	6	26	75421.88	1.340498	0.2265943	1	1.359515	9.59443	-1.346054E-005	0.0004182	11
	7	28	59859.37	1.344061	0.1328107	1	1.350607	5.643248	-1.544092E-005	0.0004938	11
	8	31	47578.12	1.349262	0.0480188	1	1.350117	2.038236	2.564172E-005	0.0005873	11
	9	33	37828.12	1.356102	-0.0323911	1	1.356488	-1.368277	3.212169E-005	0.0006354	11
	10	36	30046.88	1.364659	-0.1129069	1	1.369322	-4.729672	2.870776E-005	0.0006648	11
	11	38	23859.38	1.374955	-0.1971741	1	1.389021	-8.160805	1.937658E-005	0.0006449	11
	12	41	18984.38	1.387779	-0.2880062	1	1.417349	-11.72419	-8.535197E-006	0.0006732	11
	13	43	15046.87	1.403186	-0.3918171	1	1.456864	-15.60153	5.463597E-006	0.0006963	11
	14	45	11953.13	1.421495	-0.5111644	1	1.510608	-19.7784	-1.994842E-005	0.0006871	11
	15	48	9515.62	1.442645	-0.6507114	1	1.582609	-24.27796	4.150728E-005	0.0007396	11
	16	50	7546.875	1.46859	-0.8198475	1	1.681936	-29.17265	3.117223E-005	0.0007114	11
	17	52	5928.309	1.501323	-1.035548	1	1.823823	-34.59623	-2.656548E-005	0.0006838	11
	18	55	4733.456	1.538163	-1.281174	1	2.001837	-39.79174	-1.880849E-005	0.0006775	11
	19	57	3796.875	1.58311	-1.573507	1	2.232075	-44.8257	5.337443E-006	0.0007023	11
	20	59	2987.132	1.641545	-1.96614	1	2.561323	-50.14124	-2.614441E-005	0.0006711	11
	21	62	2390.625	1.709444	-2.415065	1	2.95884	-54.70818	5.014739E-005	0.0007212	11
	22	64	1884.191	1.802819	-3.003057	1	3.502643	-59.02242	3.633283E-005	0.000721	11
	23	66	1516.544	1.908414	-3.666802	1	4.133701	-62.50494	-8.67971E-007	0.0006697	10
	24	68	1193.986	2.052916	-4.560373	1	5.001147	-65.76444	2.74078E-005	0.000676	10
	25	71	946.5144	2.227762	-5.632297	1	6.056871	-68.41955	-2.4602E-005	0.000653	10
	26	73	751.7689	2.448822	-6.940341	1	7.359692	-70.56518	2.583926E-005	0.0006732	10
	27	76	597.4265	2.719958	-8.545997	1	8.968402	-72.34514	-1.711678E-005	0.0006658	10
	28	78	477.4305	3.051106	-10.45817	1	10.89415	-73.73573	1.11868E-006	0.0006752	10
	29	80	376.6741	3.484525	-12.94444	1	13.40524	-74.93365	1.095229E-006	0.0006743	10
	30	83	298.2954	4.013978	-15.96474	1	16.46162	-75.8868	8.790751E-007	0.0006769	10
	31	85	237.7717	4.651002	-19.56799	1	20.11313	-76.62979	8.894993E-007	0.0006695	10
	32	87	189.0121	5.447258	-24.04376	1	24.65309	-77.23479	-4.349118E-007	0.0006786	10
	33	90	150.2404	6.434021	-29.54195	1	30.23447	-77.71326	9.169523E-007	0.000672	10
	34	92	119.1737	7.671699	-36.35904	1	37.15958	-78.08544	1.521231E-006	0.0006774	10
	35	95	95.0169	9.165089	-44.48592	1	45.42022	-78.35868	2.29266E-006	7.846249E-005	9
	36	97	75.60484	11.05578	-54.58765	1	55.69598	-78.55061	2.174983E-006	6.841534E-005	9
	37	100	54.50582	14.61899	-73.09618	1	74.54372	-78.69025	2.209351E-006	6.572818E-005	9
	38	102	45.95588	17.01466	-85.16578	1	86.84877	-78.70203	2.550495E-006	7.289975E-005	9
	39	104	37.20238	20.59807	-102.7926	1	104.836	-78.66887	2.326627E-006	7.728062E-005	9
	40	107	30.04808	25.0922	-124.245	1	126.7535	-78.58227	2.059949E-006	7.749879E-005	9
	41	109	23.91582	31.22359	-152.2753	1	155.4435	-78.41229	2.278565E-006	6.665007E-005	9
	42	112	18.60119	39.78388	-189.8421	1	193.9659	-78.1642	2.480423E-006	7.58845E-005	9
	43	114	15.02404	49.06769	-228.9548	1	234.1536	-77.90382	2.673116E-006	8.88918E-005	9
	44	116	12.01923	61.104	-277.8528	1	284.4924	-77.59723	2.09517E-006	6.700393E-005	9
	45	119	9.450605	77.31371	-341.9774	1	350.6079	-77.26082	2.424108E-006	7.709524E-005	9
	46	121	7.512019	96.5113	-416.7706	1	427.7992	-76.96187	2.506766E-006	8.691911E-005	9
	47	124	5.978954	119.34	-504.1591	1	518.0911	-76.68259	1.843139E-006	0.0006524	8
	48	127	4.734848	148.2719	-615.414	1	633.0237	-76.45388	1.940854E-006	0.0006782	8
	49	130	3.75601	183.748	-749.3793	1	771.5781	-76.22288	1.740481E-006	0.0006362	8
	50	134	3.004808	225.6917	-906.5586	1	934.2297	-76.02016	1.794764E-006	0.000654	8
	51	137	2.372217	282.0144	-1109.09	1	1144.383	-75.73344	1.747036E-006	0.000681	8
	52	142	1.878005	351.7998	-1358.909	1	1403.708	-75.48569	1.642729E-006	0.0006418	8
	53	146	1.512097	431.4246	-1638.771	1	1694.609	-75.25092	1.683399E-006	0.0005646	8
	54	152	1.201923	545.9943	-2000.143	1	2073.327	-74.73154	1.566621E-006	0.0007067	8
	55	158	0.956633	690.5295	-2433.722	1	2529.789	-74.15956	1.569425E-006	7.619934E-006	8
