EXPLAIN
TAG	EISPOT
TITLE	LABEL	Potentiostatic EIS	Test Identifier
DATE	LABEL	8/3/2020	Date
TIME	LABEL	13:23:20	Time
NOTES	NOTES	1	Notes...
	
PSTAT	PSTAT	REF3000-16137	Potentiostat
VDC	POTEN	0.00000E+000	T	DC Voltage (V)
FREQINIT	QUANT	3.00000E+005	Initial Freq. (Hz)
FREQFINAL	QUANT	1.00000E+000	Final Freq. (Hz)
PTSPERDEC	QUANT	1.00000E+001	Points/decade
VAC	QUANT	5.00000E+001	AC Voltage (mV rms)
AREA	QUANT	1.00000E+000	Sample Area (cm^2)
SPEED	SELECTOR	2	Optimize for:
ZGUESS	QUANT	1.00000E+003	Estimated Z (ohms)
EOC	QUANT	0	Open Circuit (V)
SEQUENCER	TOGGLE	TRUE	Run as Sequence
PSTATMODEL	IQUANT	5	Pstat Model
PSTATSECTION	LABEL	REF3000-16137	Pstat Section
PSTATSERIALNO	LABEL	16137	Pstat Serial Number
CTRLMODE	IQUANT	1	Control Mode
IESTAB	IQUANT	0	I/E Stability
CASPEED	IQUANT	1	Control Amp Speed
CONVENTION	IQUANT	1	Current Convention
ICHRANGE	IQUANT	2	Ich Range
ICHRANGEMODE	TOGGLE	F	Ich Auto Range
ICHOFFSETENABLE	TOGGLE	T	Ich Offset Enable
ICHOFFSET	QUANT	0	Ich Offset (V)
ICHFILTER	IQUANT	3	Ich Filter
VCHRANGE	IQUANT	2	Vch Range
VCHRANGEMODE	TOGGLE	F	Vch Auto Range
VCHOFFSETENABLE	TOGGLE	T	Vch Offset Enable
VCHOFFSET	QUANT	0	Vch Offset (V)
VCHFILTER	IQUANT	3	Vch Filter
ACHRANGE	IQUANT	2	Ach Range
ACHOFFSETENABLE	TOGGLE	F	Ach Offset Enable
ACHOFFSET	QUANT	0	Ach Offset (V)
ACHFILTER	IQUANT	3	Ach Filter
IERANGELOWERLIMIT	IQUANT	2	I/E Range Lower Limit
IERANGEMODE	TOGGLE	F	I/E AutoRange
IERANGE	IQUANT	11	I/E Range
POSFEEDENABLE	TOGGLE	F	Positive Feedback IR Comp
POSFEEDRESISTANCE	QUANT	0	Positive Feedback Resistance (ohm)
ACHSELECT	IQUANT	0	Ach Select
CABLEID	IQUANT	13	Cable ID
DCCALDATE	LABEL	7/31/2020	DC Calibration Date
ACCALDATE	LABEL	7/31/2020	AC Calibration Date
THERMOSELECT	IQUANT	1	Thermo Select
FRAMEWORKVERSION	QUANT	6.33	Framework Version
INSTRUMENTVERSION	LABEL	3.50	Instrument Version
COMPLIANCEVOLTAGE	IQUANT	0	Compliance Voltage
ZCURVE	TABLE
	Pt	Time	Freq	Zreal	Zimag	Zsig	Zmod	Zphz	Idc	Vdc	IERange
	#	s	Hz	ohm	ohm	V	ohm	°	A	V	#
	0	8	300046.9	273.7355	-21.36451	1	274.5679	-4.462775	-6.396021E-005	0.0006357	9
	1	14	238359.4	291.4048	-20.66322	1	292.1365	-4.055997	5.082139E-005	-0.000305	9
	2	19	189328.1	304.5005	-22.49975	1	305.3306	-4.225945	7.989322E-005	0.0003822	10
	3	23	150421.9	318.9315	-16.49923	1	319.3579	-2.961433	1.454767E-005	-0.0017121	9
	4	27	119484.4	336.267	-15.04545	1	336.6034	-2.561852	-5.255715E-006	-0.0014604	9
	5	33	94921.88	349.7683	-13.08353	1	350.0129	-2.142223	-1.742691E-005	0.0009587	9
	6	36	75421.88	359.1465	-11.5798	1	359.3331	-1.846723	2.266926E-005	-0.0008569	9
	7	38	59859.37	369.0415	-10.02898	1	369.1777	-1.556672	2.036902E-005	-4.136473E-005	9
	8	41	47578.12	378.5406	-8.853479	1	378.6442	-1.339815	-9.884535E-006	0.0009224	9
	9	43	37828.12	388.5433	-4.20734	1	388.5661	-0.6204029	1.086014E-005	-0.0046101	8
	10	46	30046.88	397.8183	-3.41481	1	397.8329	-0.4918059	-1.06149E-005	0.0020026	8
	11	48	23859.38	406.7179	-3.737702	1	406.735	-0.5265285	-1.683097E-005	0.0054648	8
	12	51	18984.38	417.3981	-4.946584	1	417.4274	-0.6789805	1.462721E-005	-0.0040406	8
	13	53	15046.87	428.5232	-4.238261	1	428.5442	-0.566659	1.502396E-005	-0.0031575	8
	14	55	11953.13	437.6483	-5.046644	1	437.6774	-0.6606643	1.463629E-005	-0.0039293	8
	15	58	9515.62	448.4059	-6.61069	1	448.4546	-0.8446302	-1.125355E-005	0.0018689	8
	16	60	7546.875	460.5647	-7.0411	1	460.6185	-0.875868	-1.292332E-005	0.0027722	8
	17	62	5928.309	471.3476	-8.416411	1	471.4227	-1.022968	-1.358209E-005	0.0029961	8
	18	65	4733.456	483.3277	-10.51832	1	483.4421	-1.246691	-1.281087E-005	0.0065784	8
	19	67	3796.875	495.0193	-11.73094	1	495.1582	-1.357539	7.005456E-006	0.0018781	8
	20	69	2987.132	506.4133	-15.09835	1	506.6383	-1.707727	1.629142E-005	-0.0034407	8
	21	72	2390.625	517.7905	-17.44604	1	518.0844	-1.929751	6.987547E-006	-0.0042809	8
	22	74	1884.191	534.3576	-21.48832	1	534.7895	-2.302816	2.760068E-006	-0.0037441	8
	23	76	1516.544	548.017	-25.91686	1	548.6295	-2.707619	2.581512E-006	-0.0037778	8
	24	79	1193.986	563.9015	-32.71295	1	564.8495	-3.320111	7.370142E-006	0.0019192	8
	25	81	946.5144	577.7693	-41.07121	1	579.2272	-4.066078	1.712376E-005	-0.0036259	8
	26	84	751.7689	596.257	-48.78823	1	598.2496	-4.677759	1.707519E-005	-0.0047957	8
	27	86	597.4265	612.7162	-60.63302	1	615.709	-5.651462	-2.680229E-006	-0.0022664	8
	28	88	477.4305	632.3284	-73.91184	1	636.6335	-6.666957	-2.153514E-007	0.0006659	8
	29	91	376.6741	653.1195	-90.92979	1	659.4189	-7.925988	-2.113153E-007	0.0006403	8
	30	93	298.2954	675.668	-111.2423	1	684.7642	-9.34933	-2.049529E-007	0.0006567	8
	31	95	237.7717	701.4203	-135.0499	1	714.3031	-10.89824	-2.380688E-007	0.0006617	8
	32	98	189.0121	730.5082	-163.6891	1	748.623	-12.62997	-1.939693E-007	0.0006395	8
	33	100	150.2404	763.507	-197.5813	1	788.658	-14.50879	-1.91883E-007	0.0006381	8
	34	103	119.1737	801.3495	-237.7399	1	835.8716	-16.52428	-2.423929E-007	0.0006607	8
	35	105	95.0169	844.0923	-283.5532	1	890.446	-18.56858	-2.272265E-007	0.0006517	8
	36	108	75.60484	894.3744	-337.1701	1	955.819	-20.65593	-2.233548E-007	0.0006339	8
	37	110	54.50582	969.283	-425.6075	1	1058.608	-23.70605	-2.208015E-007	0.0006429	8
	38	113	45.95588	1024.825	-481.7479	1	1132.408	-25.17719	-1.711236E-007	0.0006459	8
	39	115	37.20238	1093.746	-557.9566	1	1227.842	-27.02765	-2.022481E-007	0.0006422	8
	40	117	30.04808	1172.139	-645.1519	1	1337.958	-28.82863	-3.029592E-007	0.000666	8
	41	120	23.91582	1262.817	-751.1588	1	1469.335	-30.74537	-3.371571E-007	0.0006603	8
	42	122	18.60119	1369.597	-885.6202	1	1630.987	-32.88786	-3.060583E-007	0.0006314	8
	43	124	15.02404	1471.388	-1019.848	1	1790.272	-34.72659	-1.650541E-007	0.0006417	8
	44	127	12.01923	1586.524	-1186.256	1	1980.975	-36.78574	-3.460552E-007	0.0006524	8
	45	129	9.450605	1715.405	-1398.707	1	2213.367	-39.19312	-1.76714E-007	0.000627	8
	46	132	7.512019	1849.211	-1650.456	1	2478.626	-41.74951	-1.922987E-007	0.000652	8
	47	135	5.978954	2000.732	-1958.736	1	2799.924	-44.39232	-2.482769E-007	0.0006455	8
	48	138	4.734848	2171.26	-2347.507	1	3197.68	-47.23359	-2.784614E-007	0.0006688	8
	49	141	3.75601	2361.774	-2830.976	1	3686.787	-50.16306	-2.92545E-007	0.0006466	8
	50	144	3.004808	2573.399	-3413.359	1	4274.74	-52.98664	-6.255623E-008	0.0006173	7
	51	148	2.372217	2826.458	-4174.445	1	5041.315	-55.89862	-5.552343E-008	0.0006926	7
	52	152	1.878005	3113.025	-5126.533	1	5997.688	-58.73229	-7.020292E-008	0.0005897	7
	53	157	1.512097	3450.142	-6211.757	1	7105.589	-60.95128	-5.707052E-008	0.0006628	7
	54	162	1.201923	3871.052	-7684.659	1	8604.593	-63.26388	-7.072376E-008	0.0005872	7
	55	169	0.956633	4385.231	-9485.821	1	10450.41	-65.18922	-7.337431E-008	-1.542785E-005	7
