Z60W Data File: Version 1.1
CorrTest for Windows: SN CS310H1805157  V5.2.1111.9  2.5H6.220118
Sweep Frequency: Control Voltage
  Date:5-1-2026   Time:09:23:27
  Begin Information:            Cell Information
      Surface Area:           1
      Density:                7.8
      Weight:                 28
  End Information:              Cell Information
  Freq (Hz)     Ampl(mV)       Bias(V)      Time(Sec)       Z'(Ohm.cm^2)    Z''(Ohm.cm^2)        GD       Err      Range
End Comments
  3.07200E+05,	1.00000E+01,	1.86355E-03,	2.70691E-02,	7.00336E-01,	4.72406E+00,	0.00000E+00,	0,	0
  2.76480E+05,	1.00000E+01,	1.86355E-03,	1.65913E+00,	1.26352E+00,	3.56416E+00,	0.00000E+00,	0,	0
  1.97486E+05,	1.00000E+01,	1.86355E-03,	2.60889E+00,	2.10973E+00,	2.53422E+00,	0.00000E+00,	0,	0
  1.53600E+05,	1.00000E+01,	1.86355E-03,	3.51950E+00,	2.47215E+00,	1.87297E+00,	0.00000E+00,	0,	0
  1.25673E+05,	1.00000E+01,	1.86355E-03,	4.42831E+00,	2.66159E+00,	1.44246E+00,	0.00000E+00,	0,	0
  9.87429E+04,	1.00000E+01,	1.86355E-03,	5.34843E+00,	2.83302E+00,	1.07055E+00,	0.00000E+00,	0,	0
  7.68000E+04,	1.00000E+01,	1.86355E-03,	6.24831E+00,	2.95093E+00,	7.49507E-01,	0.00000E+00,	0,	0
  6.01043E+04,	1.00000E+01,	1.86355E-03,	9.45200E+00,	3.03914E+00,	4.50040E-01,	0.00000E+00,	0,	0
  4.93714E+04,	1.00000E+01,	1.86355E-03,	1.10343E+01,	3.06872E+00,	2.73852E-01,	0.00000E+00,	0,	0
  3.84000E+04,	1.00000E+01,	1.86355E-03,	1.19406E+01,	3.09146E+00,	7.26681E-02,	0.00000E+00,	0,	0
  3.00522E+04,	1.00000E+01,	1.86355E-03,	1.28205E+01,	3.12181E+00,	-1.20356E-01,	0.00000E+00,	0,	0
  2.38345E+04,	1.00000E+01,	1.86355E-03,	1.36823E+01,	3.14761E+00,	-2.95790E-01,	0.00000E+00,	0,	0
  1.86811E+04,	1.00000E+01,	1.86355E-03,	1.45242E+01,	3.18087E+00,	-4.95248E-01,	0.00000E+00,	0,	0
  1.47064E+04,	1.00000E+01,	1.86355E-03,	1.55005E+01,	3.21962E+00,	-7.09223E-01,	0.00000E+00,	0,	0
  1.15200E+04,	1.00000E+01,	1.86355E-03,	1.65063E+01,	3.26866E+00,	-9.50400E-01,	0.00000E+00,	0,	0
  9.60000E+03,	1.00000E+01,	1.86355E-03,	1.80991E+01,	3.31184E+00,	-1.15778E+00,	0.00000E+00,	0,	0
  7.51304E+03,	1.00000E+01,	1.86355E-03,	1.89721E+01,	3.37930E+00,	-1.48059E+00,	0.00000E+00,	0,	0
  5.76000E+03,	1.00000E+01,	1.86355E-03,	1.99285E+01,	3.46419E+00,	-1.90137E+00,	0.00000E+00,	0,	0
  4.54737E+03,	1.00000E+01,	1.86355E-03,	2.07827E+01,	3.55319E+00,	-2.36257E+00,	0.00000E+00,	0,	0
  3.60000E+03,	1.00000E+01,	1.86355E-03,	2.18102E+01,	3.66085E+00,	-2.91110E+00,	0.00000E+00,	0,	0
  2.88000E+03,	1.00000E+01,	1.86355E-03,	2.27089E+01,	3.78104E+00,	-3.56145E+00,	0.00000E+00,	0,	0
  2.27368E+03,	1.00000E+01,	1.86355E-03,	2.50329E+01,	3.88953E+00,	-4.35434E+00,	0.00000E+00,	0,	0
  1.78144E+03,	1.00000E+01,	1.86355E-03,	2.58263E+01,	4.06283E+00,	-5.39919E+00,	0.00000E+00,	0,	0
  1.41639E+03,	1.00000E+01,	1.86355E-03,	2.67224E+01,	4.25429E+00,	-6.62745E+00,	0.00000E+00,	0,	0
  1.12208E+03,	1.00000E+01,	1.86355E-03,	2.77720E+01,	4.49533E+00,	-8.16736E+00,	0.00000E+00,	0,	0
  9.00000E+02,	1.00000E+01,	1.86355E-03,	3.27828E+01,	4.77872E+00,	-9.99099E+00,	0.00000E+00,	0,	0
  7.20000E+02,	1.00000E+01,	1.86355E-03,	3.41525E+01,	5.10314E+00,	-1.22041E+01,	0.00000E+00,	0,	0
  5.68421E+02,	1.00000E+01,	1.86355E-03,	3.55483E+01,	5.52184E+00,	-1.51180E+01,	0.00000E+00,	0,	0
  4.40816E+02,	1.00000E+01,	1.86355E-03,	3.86147E+01,	6.09454E+00,	-1.90806E+01,	0.00000E+00,	0,	0
  3.54098E+02,	1.00000E+01,	1.86355E-03,	4.09886E+01,	6.67526E+00,	-2.32624E+01,	0.00000E+00,	0,	0
  2.76923E+02,	1.00000E+01,	1.86355E-03,	4.36312E+01,	7.50171E+00,	-2.90961E+01,	0.00000E+00,	0,	0
  2.20408E+02,	1.00000E+01,	1.86355E-03,	4.65910E+01,	8.44067E+00,	-3.58284E+01,	0.00000E+00,	0,	0
  1.74194E+02,	1.00000E+01,	1.86355E-03,	4.98722E+01,	9.63163E+00,	-4.43772E+01,	0.00000E+00,	0,	0
  1.37580E+02,	1.00000E+01,	1.86355E-03,	5.35353E+01,	1.11149E+01,	-5.50316E+01,	0.00000E+00,	0,	0
  1.09091E+02,	1.00000E+01,	1.86355E-03,	5.76193E+01,	1.28917E+01,	-6.80291E+01,	0.00000E+00,	0,	0
  8.70968E+01,	1.00000E+01,	1.86355E-03,	6.33410E+01,	1.49614E+01,	-8.36703E+01,	0.00000E+00,	0,	0
  6.83544E+01,	1.00000E+01,	1.86355E-03,	6.83607E+01,	1.76928E+01,	-1.05010E+02,	0.00000E+00,	0,	0
  5.45455E+01,	1.00000E+01,	1.86355E-03,	7.38315E+01,	2.15922E+01,	-1.27234E+02,	0.00000E+00,	0,	0
  4.28571E+01,	1.00000E+01,	1.86355E-03,	7.73900E+01,	2.61252E+01,	-1.58395E+02,	0.00000E+00,	0,	0
  3.39623E+01,	1.00000E+01,	1.86355E-03,	8.11282E+01,	3.03261E+01,	-1.95260E+02,	0.00000E+00,	0,	0
  2.68657E+01,	1.00000E+01,	1.86355E-03,	8.49890E+01,	3.73579E+01,	-2.42489E+02,	0.00000E+00,	0,	0
  2.13439E+01,	1.00000E+01,	1.86355E-03,	8.88181E+01,	4.58177E+01,	-2.99278E+02,	0.00000E+00,	0,	0
  1.73077E+01,	1.00000E+01,	1.86355E-03,	9.55264E+01,	5.53030E+01,	-3.62892E+02,	0.00000E+00,	0,	0
  1.36364E+01,	1.00000E+01,	1.86355E-03,	1.00554E+02,	6.82506E+01,	-4.50638E+02,	0.00000E+00,	0,	0
  1.07143E+01,	1.00000E+01,	1.86355E-03,	1.03489E+02,	8.44779E+01,	-5.60816E+02,	0.00000E+00,	0,	0
  8.49057E+00,	1.00000E+01,	1.86355E-03,	1.07720E+02,	1.03924E+02,	-6.93214E+02,	0.00000E+00,	0,	0
  6.71642E+00,	1.00000E+01,	1.86355E-03,	1.10240E+02,	1.28082E+02,	-8.57340E+02,	0.00000E+00,	0,	0
  5.29412E+00,	1.00000E+01,	1.86355E-03,	1.13185E+02,	1.59011E+02,	-1.06418E+03,	0.00000E+00,	0,	0
  4.16667E+00,	1.00000E+01,	1.86355E-03,	1.16644E+02,	1.97633E+02,	-1.32294E+03,	0.00000E+00,	0,	0
  3.30882E+00,	1.00000E+01,	1.86355E-03,	1.23179E+02,	2.43878E+02,	-1.62909E+03,	0.00000E+00,	0,	0
  2.61628E+00,	1.00000E+01,	1.86355E-03,	1.27142E+02,	3.03471E+02,	-2.01615E+03,	0.00000E+00,	0,	0
  2.07373E+00,	1.00000E+01,	1.86355E-03,	1.31936E+02,	3.76618E+02,	-2.48988E+03,	0.00000E+00,	0,	0
  1.64234E+00,	1.00000E+01,	1.86355E-03,	1.37746E+02,	4.68613E+02,	-3.07612E+03,	0.00000E+00,	0,	0
  1.30058E+00,	1.00000E+01,	1.86355E-03,	1.41924E+02,	5.86607E+02,	-3.80074E+03,	0.00000E+00,	0,	0
  1.03211E+00,	1.00000E+01,	1.86355E-03,	1.46367E+02,	7.33745E+02,	-4.68730E+03,	0.00000E+00,	0,	0
  8.15217E-01,	1.00000E+01,	1.86355E-03,	1.53333E+02,	9.20513E+02,	-5.79790E+03,	0.00000E+00,	0,	0
  6.46552E-01,	1.00000E+01,	1.86355E-03,	1.58149E+02,	1.15796E+03,	-7.14151E+03,	0.00000E+00,	0,	0
  5.11364E-01,	1.00000E+01,	1.86355E-03,	1.63160E+02,	1.41946E+03,	-8.82364E+03,	0.00000E+00,	0,	0
  4.07609E-01,	1.00000E+01,	1.86355E-03,	1.69204E+02,	1.78979E+03,	-1.08229E+04,	0.00000E+00,	0,	0
  3.21429E-01,	1.00000E+01,	1.86355E-03,	1.76358E+02,	2.26594E+03,	-1.34775E+04,	0.00000E+00,	0,	0
  2.54525E-01,	1.00000E+01,	1.86355E-03,	1.85150E+02,	2.90338E+03,	-1.65968E+04,	0.00000E+00,	0,	0
  2.01613E-01,	1.00000E+01,	1.86355E-03,	1.96011E+02,	3.71884E+03,	-2.04304E+04,	0.00000E+00,	0,	0
  1.59574E-01,	1.00000E+01,	1.86355E-03,	2.09472E+02,	4.77832E+03,	-2.51461E+04,	0.00000E+00,	0,	0
  1.26689E-01,	1.00000E+01,	1.86355E-03,	2.43354E+02,	6.22421E+03,	-3.05854E+04,	0.00000E+00,	0,	0
  1.00446E-01,	1.00000E+01,	1.86355E-03,	2.64246E+02,	7.84160E+03,	-3.79867E+04,	0.00000E+00,	0,	0