Z60W Data File: Version 1.1
CorrTest for Windows: SN CS310H1805157  V5.2.1111.9  2.5H6.220118
Sweep Frequency: Control Voltage
  Date:5-1-2026   Time:09:11:54
  Begin Information:            Cell Information
      Surface Area:           1
      Density:                7.8
      Weight:                 28
  End Information:              Cell Information
  Freq (Hz)     Ampl(mV)       Bias(V)      Time(Sec)       Z'(Ohm.cm^2)    Z''(Ohm.cm^2)        GD       Err      Range
End Comments
  3.07200E+05,	1.00000E+01,	-1.59963E-02,	2.85709E-02,	-2.38739E-01,	4.26216E+00,	0.00000E+00,	0,	0
  2.76480E+05,	1.00000E+01,	-1.59963E-02,	1.65193E+00,	3.84773E-01,	3.22086E+00,	0.00000E+00,	0,	0
  1.97486E+05,	1.00000E+01,	-1.59963E-02,	2.56807E+00,	1.29341E+00,	2.27201E+00,	0.00000E+00,	0,	0
  1.53600E+05,	1.00000E+01,	-1.59963E-02,	3.47771E+00,	1.59900E+00,	1.71010E+00,	0.00000E+00,	0,	0
  1.25673E+05,	1.00000E+01,	-1.59963E-02,	4.37602E+00,	1.82970E+00,	1.33797E+00,	0.00000E+00,	0,	0
  9.87429E+04,	1.00000E+01,	-1.59963E-02,	5.26878E+00,	2.00364E+00,	1.02068E+00,	0.00000E+00,	0,	0
  7.68000E+04,	1.00000E+01,	-1.59963E-02,	6.19206E+00,	2.10239E+00,	7.60326E-01,	0.00000E+00,	0,	0
  6.01043E+04,	1.00000E+01,	-1.59963E-02,	9.38946E+00,	2.18369E+00,	5.19827E-01,	0.00000E+00,	0,	0
  4.93714E+04,	1.00000E+01,	-1.59963E-02,	1.09780E+01,	2.20051E+00,	3.84084E-01,	0.00000E+00,	0,	0
  3.84000E+04,	1.00000E+01,	-1.59963E-02,	1.18921E+01,	2.20986E+00,	2.31520E-01,	0.00000E+00,	0,	0
  3.00522E+04,	1.00000E+01,	-1.59963E-02,	1.27499E+01,	2.22734E+00,	9.75831E-02,	0.00000E+00,	0,	0
  2.38345E+04,	1.00000E+01,	-1.59963E-02,	1.36359E+01,	2.23989E+00,	-1.95687E-02,	0.00000E+00,	0,	0
  1.86811E+04,	1.00000E+01,	-1.59963E-02,	1.44993E+01,	2.24991E+00,	-1.44344E-01,	0.00000E+00,	0,	0
  1.47064E+04,	1.00000E+01,	-1.59963E-02,	1.54774E+01,	2.26983E+00,	-2.69105E-01,	0.00000E+00,	0,	0
  1.15200E+04,	1.00000E+01,	-1.59963E-02,	1.64508E+01,	2.29275E+00,	-4.07282E-01,	0.00000E+00,	0,	0
  9.60000E+03,	1.00000E+01,	-1.59963E-02,	1.80499E+01,	2.31514E+00,	-5.18345E-01,	0.00000E+00,	0,	0
  7.51304E+03,	1.00000E+01,	-1.59963E-02,	1.89033E+01,	2.34289E+00,	-6.93930E-01,	0.00000E+00,	0,	0
  5.76000E+03,	1.00000E+01,	-1.59963E-02,	1.99798E+01,	2.39023E+00,	-9.14834E-01,	0.00000E+00,	0,	0
  4.54737E+03,	1.00000E+01,	-1.59963E-02,	2.08343E+01,	2.43082E+00,	-1.15184E+00,	0.00000E+00,	0,	0
  3.60000E+03,	1.00000E+01,	-1.59963E-02,	2.18489E+01,	2.47889E+00,	-1.43707E+00,	0.00000E+00,	0,	0
  2.88000E+03,	1.00000E+01,	-1.59963E-02,	2.27460E+01,	2.54027E+00,	-1.76661E+00,	0.00000E+00,	0,	0
  2.27368E+03,	1.00000E+01,	-1.59963E-02,	2.50235E+01,	2.52775E+00,	-2.17366E+00,	0.00000E+00,	0,	0
  1.78144E+03,	1.00000E+01,	-1.59963E-02,	2.58188E+01,	2.65172E+00,	-2.70818E+00,	0.00000E+00,	0,	0
  1.41639E+03,	1.00000E+01,	-1.59963E-02,	2.67310E+01,	2.79154E+00,	-3.32316E+00,	0.00000E+00,	0,	0
  1.12208E+03,	1.00000E+01,	-1.59963E-02,	2.77785E+01,	2.98064E+00,	-4.07875E+00,	0.00000E+00,	0,	0
  9.00000E+02,	1.00000E+01,	-1.59963E-02,	3.27806E+01,	3.22341E+00,	-4.96519E+00,	0.00000E+00,	0,	0
  7.20000E+02,	1.00000E+01,	-1.59963E-02,	3.41848E+01,	3.51299E+00,	-6.02335E+00,	0.00000E+00,	0,	0
  5.68421E+02,	1.00000E+01,	-1.59963E-02,	3.55709E+01,	3.90733E+00,	-7.37049E+00,	0.00000E+00,	0,	0
  4.40816E+02,	1.00000E+01,	-1.59963E-02,	3.70400E+01,	4.45742E+00,	-9.11463E+00,	0.00000E+00,	0,	0
  3.54098E+02,	1.00000E+01,	-1.59963E-02,	3.93828E+01,	5.04737E+00,	-1.09154E+01,	0.00000E+00,	0,	0
  2.76923E+02,	1.00000E+01,	-1.59963E-02,	4.20412E+01,	5.85432E+00,	-1.32950E+01,	0.00000E+00,	0,	0
  2.20408E+02,	1.00000E+01,	-1.59963E-02,	4.49525E+01,	6.74027E+00,	-1.59365E+01,	0.00000E+00,	0,	0
  1.74194E+02,	1.00000E+01,	-1.59963E-02,	4.82275E+01,	7.79058E+00,	-1.91754E+01,	0.00000E+00,	0,	0
  1.37580E+02,	1.00000E+01,	-1.59963E-02,	5.19108E+01,	8.98356E+00,	-2.30894E+01,	0.00000E+00,	0,	0
  1.09091E+02,	1.00000E+01,	-1.59963E-02,	5.60066E+01,	1.02911E+01,	-2.77621E+01,	0.00000E+00,	0,	0
  8.70968E+01,	1.00000E+01,	-1.59963E-02,	6.41837E+01,	1.17404E+01,	-3.34216E+01,	0.00000E+00,	0,	0
  6.83544E+01,	1.00000E+01,	-1.59963E-02,	6.92494E+01,	1.34715E+01,	-4.09610E+01,	0.00000E+00,	0,	0
  5.45455E+01,	1.00000E+01,	-1.59963E-02,	7.47061E+01,	1.54507E+01,	-4.86255E+01,	0.00000E+00,	0,	0
  4.28571E+01,	1.00000E+01,	-1.59963E-02,	7.82265E+01,	1.77400E+01,	-5.94559E+01,	0.00000E+00,	0,	0
  3.39623E+01,	1.00000E+01,	-1.59963E-02,	8.19845E+01,	1.98029E+01,	-7.22610E+01,	0.00000E+00,	0,	0
  2.68657E+01,	1.00000E+01,	-1.59963E-02,	8.58198E+01,	2.28495E+01,	-8.85965E+01,	0.00000E+00,	0,	0
  2.13439E+01,	1.00000E+01,	-1.59963E-02,	8.96491E+01,	2.62632E+01,	-1.08247E+02,	0.00000E+00,	0,	0
  1.73077E+01,	1.00000E+01,	-1.59963E-02,	9.63275E+01,	2.98643E+01,	-1.30294E+02,	0.00000E+00,	0,	0
  1.36364E+01,	1.00000E+01,	-1.59963E-02,	1.01362E+02,	3.44179E+01,	-1.60766E+02,	0.00000E+00,	0,	0
  1.07143E+01,	1.00000E+01,	-1.59963E-02,	1.04294E+02,	3.97738E+01,	-1.99197E+02,	0.00000E+00,	0,	0
  8.49057E+00,	1.00000E+01,	-1.59963E-02,	1.08528E+02,	4.57385E+01,	-2.45512E+02,	0.00000E+00,	0,	0
  6.71642E+00,	1.00000E+01,	-1.59963E-02,	1.11077E+02,	5.27518E+01,	-3.03479E+02,	0.00000E+00,	0,	0
  5.29412E+00,	1.00000E+01,	-1.59963E-02,	1.14031E+02,	6.12808E+01,	-3.76911E+02,	0.00000E+00,	0,	0
  4.16667E+00,	1.00000E+01,	-1.59963E-02,	1.17507E+02,	7.13384E+01,	-4.69687E+02,	0.00000E+00,	0,	0
  3.30882E+00,	1.00000E+01,	-1.59963E-02,	1.21762E+02,	8.30529E+01,	-5.81210E+02,	0.00000E+00,	0,	0
  2.61628E+00,	1.00000E+01,	-1.59963E-02,	1.25752E+02,	9.81058E+01,	-7.22583E+02,	0.00000E+00,	0,	0
  2.07373E+00,	1.00000E+01,	-1.59963E-02,	1.30549E+02,	1.16454E+02,	-8.97537E+02,	0.00000E+00,	0,	0
  1.64234E+00,	1.00000E+01,	-1.59963E-02,	1.36350E+02,	1.39163E+02,	-1.11618E+03,	0.00000E+00,	0,	0
  1.30058E+00,	1.00000E+01,	-1.59963E-02,	1.40507E+02,	1.69575E+02,	-1.38885E+03,	0.00000E+00,	0,	0
  1.03211E+00,	1.00000E+01,	-1.59963E-02,	1.44928E+02,	2.07706E+02,	-1.72528E+03,	0.00000E+00,	0,	0
  8.15217E-01,	1.00000E+01,	-1.59963E-02,	1.51904E+02,	2.58364E+02,	-2.15091E+03,	0.00000E+00,	0,	0
  6.46552E-01,	1.00000E+01,	-1.59963E-02,	1.61008E+02,	3.22511E+02,	-2.66956E+03,	0.00000E+00,	0,	0
  5.11364E-01,	1.00000E+01,	-1.59963E-02,	1.66035E+02,	3.99595E+02,	-3.32375E+03,	0.00000E+00,	0,	0
  4.07609E-01,	1.00000E+01,	-1.59963E-02,	1.72127E+02,	5.08996E+02,	-4.10822E+03,	0.00000E+00,	0,	0
  3.21429E-01,	1.00000E+01,	-1.59963E-02,	1.79257E+02,	6.58077E+02,	-5.14508E+03,	0.00000E+00,	0,	0
  2.54525E-01,	1.00000E+01,	-1.59963E-02,	1.88038E+02,	8.66807E+02,	-6.38618E+03,	0.00000E+00,	0,	0
  2.01613E-01,	1.00000E+01,	-1.59963E-02,	1.98897E+02,	1.14609E+03,	-7.92120E+03,	0.00000E+00,	0,	0
  1.59574E-01,	1.00000E+01,	-1.59963E-02,	2.12376E+02,	1.53133E+03,	-9.82009E+03,	0.00000E+00,	0,	0
  1.26689E-01,	1.00000E+01,	-1.59963E-02,	2.46288E+02,	2.07363E+03,	-1.20295E+04,	0.00000E+00,	0,	0
  1.00446E-01,	1.00000E+01,	-1.59963E-02,	2.67184E+02,	2.75348E+03,	-1.49536E+04,	0.00000E+00,	0,	0