Z60W Data File: Version 1.1
CorrTest for Windows: SN CS310H1805157  V5.2.1111.9  2.5H6.220118
Sweep Frequency: Control Voltage
  Date:5-1-2026   Time:10:47:42
  Begin Information:            Cell Information
      Surface Area:           1
      Density:                7.8
      Weight:                 28
  End Information:              Cell Information
  Freq (Hz)     Ampl(mV)       Bias(V)      Time(Sec)       Z'(Ohm.cm^2)    Z''(Ohm.cm^2)        GD       Err      Range
End Comments
  3.07200E+05,	1.00000E+01,	-1.61893E-02,	2.75770E-02,	-5.46271E-02,	4.04424E+00,	0.00000E+00,	0,	0
  2.76480E+05,	1.00000E+01,	-1.61893E-02,	1.63110E+00,	5.70306E-01,	3.09602E+00,	0.00000E+00,	0,	0
  1.97486E+05,	1.00000E+01,	-1.61893E-02,	2.57135E+00,	1.38085E+00,	2.17283E+00,	0.00000E+00,	0,	0
  1.53600E+05,	1.00000E+01,	-1.61893E-02,	3.48970E+00,	1.76029E+00,	1.63809E+00,	0.00000E+00,	0,	0
  1.25673E+05,	1.00000E+01,	-1.61893E-02,	4.39164E+00,	1.96851E+00,	1.27357E+00,	0.00000E+00,	0,	0
  9.87429E+04,	1.00000E+01,	-1.61893E-02,	5.30593E+00,	2.13494E+00,	9.72782E-01,	0.00000E+00,	0,	0
  7.68000E+04,	1.00000E+01,	-1.61893E-02,	6.20033E+00,	2.23829E+00,	7.21291E-01,	0.00000E+00,	0,	0
  6.01043E+04,	1.00000E+01,	-1.61893E-02,	9.40883E+00,	2.32265E+00,	4.83340E-01,	0.00000E+00,	0,	0
  4.93714E+04,	1.00000E+01,	-1.61893E-02,	1.09801E+01,	2.33571E+00,	3.52641E-01,	0.00000E+00,	0,	0
  3.84000E+04,	1.00000E+01,	-1.61893E-02,	1.18794E+01,	2.34851E+00,	1.97722E-01,	0.00000E+00,	0,	0
  3.00522E+04,	1.00000E+01,	-1.61893E-02,	1.27327E+01,	2.36044E+00,	6.34367E-02,	0.00000E+00,	0,	0
  2.38345E+04,	1.00000E+01,	-1.61893E-02,	1.36291E+01,	2.36984E+00,	-5.85497E-02,	0.00000E+00,	0,	0
  1.86811E+04,	1.00000E+01,	-1.61893E-02,	1.44926E+01,	2.38676E+00,	-1.84461E-01,	0.00000E+00,	0,	0
  1.47064E+04,	1.00000E+01,	-1.61893E-02,	1.54616E+01,	2.40179E+00,	-3.15808E-01,	0.00000E+00,	0,	0
  1.15200E+04,	1.00000E+01,	-1.61893E-02,	1.64442E+01,	2.42877E+00,	-4.62181E-01,	0.00000E+00,	0,	0
  9.60000E+03,	1.00000E+01,	-1.61893E-02,	1.80232E+01,	2.44563E+00,	-5.85589E-01,	0.00000E+00,	0,	0
  7.51304E+03,	1.00000E+01,	-1.61893E-02,	1.88986E+01,	2.48198E+00,	-7.70535E-01,	0.00000E+00,	0,	0
  5.76000E+03,	1.00000E+01,	-1.61893E-02,	1.98028E+01,	2.52607E+00,	-1.01329E+00,	0.00000E+00,	0,	0
  4.54737E+03,	1.00000E+01,	-1.61893E-02,	2.06761E+01,	2.57886E+00,	-1.27165E+00,	0.00000E+00,	0,	0
  3.60000E+03,	1.00000E+01,	-1.61893E-02,	2.16762E+01,	2.63539E+00,	-1.58192E+00,	0.00000E+00,	0,	0
  2.88000E+03,	1.00000E+01,	-1.61893E-02,	2.25870E+01,	2.70672E+00,	-1.93799E+00,	0.00000E+00,	0,	0
  2.27368E+03,	1.00000E+01,	-1.61893E-02,	2.49077E+01,	2.78120E+00,	-2.38098E+00,	0.00000E+00,	0,	0
  1.78144E+03,	1.00000E+01,	-1.61893E-02,	2.56930E+01,	2.90223E+00,	-2.96055E+00,	0.00000E+00,	0,	0
  1.41639E+03,	1.00000E+01,	-1.61893E-02,	2.66206E+01,	3.05018E+00,	-3.63628E+00,	0.00000E+00,	0,	0
  1.12208E+03,	1.00000E+01,	-1.61893E-02,	2.76562E+01,	3.24502E+00,	-4.46651E+00,	0.00000E+00,	0,	0
  9.00000E+02,	1.00000E+01,	-1.61893E-02,	3.26276E+01,	3.48615E+00,	-5.43920E+00,	0.00000E+00,	0,	0
  7.20000E+02,	1.00000E+01,	-1.61893E-02,	3.40013E+01,	3.79088E+00,	-6.60662E+00,	0.00000E+00,	0,	0
  5.68421E+02,	1.00000E+01,	-1.61893E-02,	3.53809E+01,	4.20960E+00,	-8.09681E+00,	0.00000E+00,	0,	0
  4.40816E+02,	1.00000E+01,	-1.61893E-02,	3.68792E+01,	4.79812E+00,	-1.00396E+01,	0.00000E+00,	0,	0
  3.54098E+02,	1.00000E+01,	-1.61893E-02,	3.92304E+01,	5.44012E+00,	-1.20474E+01,	0.00000E+00,	0,	0
  2.76923E+02,	1.00000E+01,	-1.61893E-02,	4.18909E+01,	6.33685E+00,	-1.47037E+01,	0.00000E+00,	0,	0
  2.20408E+02,	1.00000E+01,	-1.61893E-02,	4.48712E+01,	7.34546E+00,	-1.76503E+01,	0.00000E+00,	0,	0
  1.74194E+02,	1.00000E+01,	-1.61893E-02,	4.81342E+01,	8.56317E+00,	-2.12343E+01,	0.00000E+00,	0,	0
  1.37580E+02,	1.00000E+01,	-1.61893E-02,	5.18127E+01,	9.96286E+00,	-2.55332E+01,	0.00000E+00,	0,	0
  1.09091E+02,	1.00000E+01,	-1.61893E-02,	5.58830E+01,	1.15014E+01,	-3.06380E+01,	0.00000E+00,	0,	0
  8.70968E+01,	1.00000E+01,	-1.61893E-02,	6.40238E+01,	1.31945E+01,	-3.67778E+01,	0.00000E+00,	0,	0
  6.83544E+01,	1.00000E+01,	-1.61893E-02,	6.90391E+01,	1.52159E+01,	-4.49476E+01,	0.00000E+00,	0,	0
  5.45455E+01,	1.00000E+01,	-1.61893E-02,	7.44840E+01,	1.74783E+01,	-5.32207E+01,	0.00000E+00,	0,	0
  4.28571E+01,	1.00000E+01,	-1.61893E-02,	7.80311E+01,	2.00885E+01,	-6.49130E+01,	0.00000E+00,	0,	0
  3.39623E+01,	1.00000E+01,	-1.61893E-02,	8.17877E+01,	2.24663E+01,	-7.87286E+01,	0.00000E+00,	0,	0
  2.68657E+01,	1.00000E+01,	-1.61893E-02,	8.56572E+01,	2.59193E+01,	-9.63670E+01,	0.00000E+00,	0,	0
  2.13439E+01,	1.00000E+01,	-1.61893E-02,	8.94951E+01,	2.97744E+01,	-1.17538E+02,	0.00000E+00,	0,	0
  1.73077E+01,	1.00000E+01,	-1.61893E-02,	9.61771E+01,	3.38283E+01,	-1.41289E+02,	0.00000E+00,	0,	0
  1.36364E+01,	1.00000E+01,	-1.61893E-02,	1.01230E+02,	3.89640E+01,	-1.74088E+02,	0.00000E+00,	0,	0
  1.07143E+01,	1.00000E+01,	-1.61893E-02,	1.04143E+02,	4.49930E+01,	-2.15430E+02,	0.00000E+00,	0,	0
  8.49057E+00,	1.00000E+01,	-1.61893E-02,	1.08348E+02,	5.16441E+01,	-2.65224E+02,	0.00000E+00,	0,	0
  6.71642E+00,	1.00000E+01,	-1.61893E-02,	1.10866E+02,	5.93836E+01,	-3.27264E+02,	0.00000E+00,	0,	0
  5.29412E+00,	1.00000E+01,	-1.61893E-02,	1.13836E+02,	6.87095E+01,	-4.06170E+02,	0.00000E+00,	0,	0
  4.16667E+00,	1.00000E+01,	-1.61893E-02,	1.17308E+02,	7.95998E+01,	-5.05631E+02,	0.00000E+00,	0,	0
  3.30882E+00,	1.00000E+01,	-1.61893E-02,	1.21557E+02,	9.19588E+01,	-6.25217E+02,	0.00000E+00,	0,	0
  2.61628E+00,	1.00000E+01,	-1.61893E-02,	1.25547E+02,	1.07479E+02,	-7.76986E+02,	0.00000E+00,	0,	0
  2.07373E+00,	1.00000E+01,	-1.61893E-02,	1.30345E+02,	1.25624E+02,	-9.64848E+02,	0.00000E+00,	0,	0
  1.64234E+00,	1.00000E+01,	-1.61893E-02,	1.36127E+02,	1.48480E+02,	-1.19995E+03,	0.00000E+00,	0,	0
  1.30058E+00,	1.00000E+01,	-1.61893E-02,	1.40294E+02,	1.77805E+02,	-1.49392E+03,	0.00000E+00,	0,	0
  1.03211E+00,	1.00000E+01,	-1.61893E-02,	1.44705E+02,	2.13580E+02,	-1.85679E+03,	0.00000E+00,	0,	0
  8.15217E-01,	1.00000E+01,	-1.61893E-02,	1.51647E+02,	2.61045E+02,	-2.31766E+03,	0.00000E+00,	0,	0
  6.46552E-01,	1.00000E+01,	-1.61893E-02,	1.60744E+02,	3.18797E+02,	-2.88035E+03,	0.00000E+00,	0,	0
  5.11364E-01,	1.00000E+01,	-1.61893E-02,	1.65760E+02,	3.87332E+02,	-3.59054E+03,	0.00000E+00,	0,	0
  4.07609E-01,	1.00000E+01,	-1.61893E-02,	1.71847E+02,	4.83098E+02,	-4.44549E+03,	0.00000E+00,	0,	0
  3.21429E-01,	1.00000E+01,	-1.61893E-02,	1.78976E+02,	6.08279E+02,	-5.57848E+03,	0.00000E+00,	0,	0
  2.54525E-01,	1.00000E+01,	-1.61893E-02,	1.87755E+02,	7.80863E+02,	-6.94170E+03,	0.00000E+00,	0,	0
  2.01613E-01,	1.00000E+01,	-1.61893E-02,	1.98613E+02,	1.00654E+03,	-8.63451E+03,	0.00000E+00,	0,	0
  1.59574E-01,	1.00000E+01,	-1.61893E-02,	2.12072E+02,	1.30709E+03,	-1.07445E+04,	0.00000E+00,	0,	0
  1.26689E-01,	1.00000E+01,	-1.61893E-02,	2.45970E+02,	1.72221E+03,	-1.32463E+04,	0.00000E+00,	0,	0
  1.00446E-01,	1.00000E+01,	-1.61893E-02,	2.66888E+02,	2.19222E+03,	-1.65543E+04,	0.00000E+00,	0,	0