Z60W Data File: Version 1.1
CorrTest for Windows: SN CS310H1805157  V5.2.1111.9  2.5H6.220118
Sweep Frequency: Control Voltage
  Date:5-1-2026   Time:17:28:56
  Begin Information:            Cell Information
      Surface Area:           1
      Density:                7.8
      Weight:                 28
  End Information:              Cell Information
  Freq (Hz)     Ampl(mV)       Bias(V)      Time(Sec)       Z'(Ohm.cm^2)    Z''(Ohm.cm^2)        GD       Err      Range
End Comments
  3.07200E+05,	1.00000E+01,	-1.43059E-02,	3.65556E-02,	3.44918E+00,	6.04014E+00,	0.00000E+00,	0,	0
  2.76480E+05,	1.00000E+01,	-1.43059E-02,	1.64258E+00,	3.94229E+00,	4.80672E+00,	0.00000E+00,	0,	0
  1.97486E+05,	1.00000E+01,	-1.43059E-02,	2.53428E+00,	4.76937E+00,	3.37517E+00,	0.00000E+00,	0,	0
  1.53600E+05,	1.00000E+01,	-1.43059E-02,	3.44318E+00,	5.04408E+00,	2.56001E+00,	0.00000E+00,	0,	0
  1.25673E+05,	1.00000E+01,	-1.43059E-02,	4.33838E+00,	5.21321E+00,	2.04379E+00,	0.00000E+00,	0,	0
  9.87429E+04,	1.00000E+01,	-1.43059E-02,	5.23367E+00,	5.37734E+00,	1.54592E+00,	0.00000E+00,	0,	0
  7.68000E+04,	1.00000E+01,	-1.43059E-02,	6.16010E+00,	5.47446E+00,	1.14603E+00,	0.00000E+00,	0,	0
  6.01043E+04,	1.00000E+01,	-1.43059E-02,	8.26504E+00,	5.52873E+00,	8.15478E-01,	0.00000E+00,	0,	0
  4.93714E+04,	1.00000E+01,	-1.43059E-02,	9.85938E+00,	5.54932E+00,	6.02254E-01,	0.00000E+00,	0,	0
  3.84000E+04,	1.00000E+01,	-1.43059E-02,	1.07590E+01,	5.57218E+00,	3.69521E-01,	0.00000E+00,	0,	0
  3.00522E+04,	1.00000E+01,	-1.43059E-02,	1.16259E+01,	5.57885E+00,	1.62316E-01,	0.00000E+00,	0,	0
  2.38345E+04,	1.00000E+01,	-1.43059E-02,	1.24905E+01,	5.59347E+00,	-2.12556E-02,	0.00000E+00,	0,	0
  1.86811E+04,	1.00000E+01,	-1.43059E-02,	1.33322E+01,	5.61688E+00,	-2.07706E-01,	0.00000E+00,	0,	0
  1.47064E+04,	1.00000E+01,	-1.43059E-02,	1.43378E+01,	5.63704E+00,	-3.97548E-01,	0.00000E+00,	0,	0
  1.15200E+04,	1.00000E+01,	-1.43059E-02,	1.53034E+01,	5.66586E+00,	-6.06192E-01,	0.00000E+00,	0,	0
  9.60000E+03,	1.00000E+01,	-1.43059E-02,	1.68666E+01,	5.69557E+00,	-7.74033E-01,	0.00000E+00,	0,	0
  7.51304E+03,	1.00000E+01,	-1.43059E-02,	1.77402E+01,	5.74265E+00,	-1.03309E+00,	0.00000E+00,	0,	0
  5.76000E+03,	1.00000E+01,	-1.43059E-02,	1.86589E+01,	5.80522E+00,	-1.35730E+00,	0.00000E+00,	0,	0
  4.54737E+03,	1.00000E+01,	-1.43059E-02,	1.95541E+01,	5.87098E+00,	-1.70580E+00,	0.00000E+00,	0,	0
  3.60000E+03,	1.00000E+01,	-1.43059E-02,	2.05340E+01,	5.95494E+00,	-2.12606E+00,	0.00000E+00,	0,	0
  2.88000E+03,	1.00000E+01,	-1.43059E-02,	2.14302E+01,	6.04830E+00,	-2.60578E+00,	0.00000E+00,	0,	0
  2.27368E+03,	1.00000E+01,	-1.43059E-02,	2.25691E+01,	6.17516E+00,	-3.22021E+00,	0.00000E+00,	0,	0
  1.78144E+03,	1.00000E+01,	-1.43059E-02,	2.33585E+01,	6.33229E+00,	-4.01194E+00,	0.00000E+00,	0,	0
  1.41639E+03,	1.00000E+01,	-1.43059E-02,	2.42540E+01,	6.52400E+00,	-4.91159E+00,	0.00000E+00,	0,	0
  1.12208E+03,	1.00000E+01,	-1.43059E-02,	2.53305E+01,	6.76422E+00,	-6.03754E+00,	0.00000E+00,	0,	0
  9.00000E+02,	1.00000E+01,	-1.43059E-02,	3.03200E+01,	7.09591E+00,	-7.40982E+00,	0.00000E+00,	0,	0
  7.20000E+02,	1.00000E+01,	-1.43059E-02,	3.17139E+01,	7.46377E+00,	-9.04716E+00,	0.00000E+00,	0,	0
  5.68421E+02,	1.00000E+01,	-1.43059E-02,	3.30831E+01,	7.96391E+00,	-1.11699E+01,	0.00000E+00,	0,	0
  4.40816E+02,	1.00000E+01,	-1.43059E-02,	3.61080E+01,	8.74332E+00,	-1.41055E+01,	0.00000E+00,	0,	0
  3.54098E+02,	1.00000E+01,	-1.43059E-02,	3.84345E+01,	9.60055E+00,	-1.71914E+01,	0.00000E+00,	0,	0
  2.76923E+02,	1.00000E+01,	-1.43059E-02,	4.11044E+01,	1.09040E+01,	-2.14541E+01,	0.00000E+00,	0,	0
  2.20408E+02,	1.00000E+01,	-1.43059E-02,	4.40323E+01,	1.25660E+01,	-2.63377E+01,	0.00000E+00,	0,	0
  1.74194E+02,	1.00000E+01,	-1.43059E-02,	4.73159E+01,	1.48543E+01,	-3.24814E+01,	0.00000E+00,	0,	0
  1.37580E+02,	1.00000E+01,	-1.43059E-02,	5.09810E+01,	1.78569E+01,	-4.00371E+01,	0.00000E+00,	0,	0
  1.09091E+02,	1.00000E+01,	-1.43059E-02,	5.50527E+01,	2.16229E+01,	-4.90734E+01,	0.00000E+00,	0,	0
  8.70968E+01,	1.00000E+01,	-1.43059E-02,	6.07379E+01,	2.64986E+01,	-5.98512E+01,	0.00000E+00,	0,	0
  6.83544E+01,	1.00000E+01,	-1.43059E-02,	6.57941E+01,	3.22880E+01,	-7.39281E+01,	0.00000E+00,	0,	0
  5.45455E+01,	1.00000E+01,	-1.43059E-02,	7.12591E+01,	3.87872E+01,	-8.82747E+01,	0.00000E+00,	0,	0
  4.28571E+01,	1.00000E+01,	-1.43059E-02,	7.48072E+01,	4.57159E+01,	-1.08276E+02,	0.00000E+00,	0,	0
  3.39623E+01,	1.00000E+01,	-1.43059E-02,	7.85646E+01,	5.29999E+01,	-1.31916E+02,	0.00000E+00,	0,	0
  2.68657E+01,	1.00000E+01,	-1.43059E-02,	8.24152E+01,	6.33525E+01,	-1.61490E+02,	0.00000E+00,	0,	0
  2.13439E+01,	1.00000E+01,	-1.43059E-02,	8.62239E+01,	7.53357E+01,	-1.95851E+02,	0.00000E+00,	0,	0
  1.73077E+01,	1.00000E+01,	-1.43059E-02,	9.29056E+01,	8.95315E+01,	-2.33537E+02,	0.00000E+00,	0,	0
  1.36364E+01,	1.00000E+01,	-1.43059E-02,	9.79306E+01,	1.07069E+02,	-2.83753E+02,	0.00000E+00,	0,	0
  1.07143E+01,	1.00000E+01,	-1.43059E-02,	1.00849E+02,	1.26736E+02,	-3.44716E+02,	0.00000E+00,	0,	0
  8.49057E+00,	1.00000E+01,	-1.43059E-02,	1.05031E+02,	1.49082E+02,	-4.16336E+02,	0.00000E+00,	0,	0
  6.71642E+00,	1.00000E+01,	-1.43059E-02,	1.07600E+02,	1.73522E+02,	-5.03586E+02,	0.00000E+00,	0,	0
  5.29412E+00,	1.00000E+01,	-1.43059E-02,	1.10559E+02,	2.02031E+02,	-6.11885E+02,	0.00000E+00,	0,	0
  4.16667E+00,	1.00000E+01,	-1.43059E-02,	1.14068E+02,	2.34902E+02,	-7.46862E+02,	0.00000E+00,	0,	0
  3.30882E+00,	1.00000E+01,	-1.43059E-02,	1.18384E+02,	2.71363E+02,	-9.07057E+02,	0.00000E+00,	0,	0
  2.61628E+00,	1.00000E+01,	-1.43059E-02,	1.22357E+02,	3.14548E+02,	-1.10776E+03,	0.00000E+00,	0,	0
  2.07373E+00,	1.00000E+01,	-1.43059E-02,	1.27127E+02,	3.64807E+02,	-1.35462E+03,	0.00000E+00,	0,	0
  1.64234E+00,	1.00000E+01,	-1.43059E-02,	1.32915E+02,	4.22505E+02,	-1.66091E+03,	0.00000E+00,	0,	0
  1.30058E+00,	1.00000E+01,	-1.43059E-02,	1.37068E+02,	4.89229E+02,	-2.03771E+03,	0.00000E+00,	0,	0
  1.03211E+00,	1.00000E+01,	-1.43059E-02,	1.41489E+02,	5.66345E+02,	-2.50164E+03,	0.00000E+00,	0,	0
  8.15217E-01,	1.00000E+01,	-1.43059E-02,	1.48460E+02,	6.60441E+02,	-3.08698E+03,	0.00000E+00,	0,	0
  6.46552E-01,	1.00000E+01,	-1.43059E-02,	1.57604E+02,	7.68811E+02,	-3.80164E+03,	0.00000E+00,	0,	0
  5.11364E-01,	1.00000E+01,	-1.43059E-02,	1.62605E+02,	8.71989E+02,	-4.69813E+03,	0.00000E+00,	0,	0
  4.07609E-01,	1.00000E+01,	-1.43059E-02,	1.68680E+02,	1.01456E+03,	-5.77231E+03,	0.00000E+00,	0,	0
  3.21429E-01,	1.00000E+01,	-1.43059E-02,	1.75806E+02,	1.18120E+03,	-7.22394E+03,	0.00000E+00,	0,	0
  2.54525E-01,	1.00000E+01,	-1.43059E-02,	1.84581E+02,	1.39340E+03,	-8.94282E+03,	0.00000E+00,	0,	0
  2.01613E-01,	1.00000E+01,	-1.43059E-02,	1.95479E+02,	1.64202E+03,	-1.10905E+04,	0.00000E+00,	0,	0
  1.59574E-01,	1.00000E+01,	-1.43059E-02,	2.08951E+02,	1.94358E+03,	-1.37828E+04,	0.00000E+00,	0,	0
  1.26689E-01,	1.00000E+01,	-1.43059E-02,	2.42845E+02,	2.36660E+03,	-1.69969E+04,	0.00000E+00,	0,	0
  1.00446E-01,	1.00000E+01,	-1.43059E-02,	2.63741E+02,	2.72271E+03,	-2.13719E+04,	0.00000E+00,	0,	0