Z60W Data File: Version 1.1
CorrTest for Windows: SN CS310H1805157  V5.2.1111.9  2.5H6.220118
Sweep Frequency: Control Voltage
  Date:5-1-2026   Time:19:27:18
  Begin Information:            Cell Information
      Surface Area:           1
      Density:                7.8
      Weight:                 28
  End Information:              Cell Information
  Freq (Hz)     Ampl(mV)       Bias(V)      Time(Sec)       Z'(Ohm.cm^2)    Z''(Ohm.cm^2)        GD       Err      Range
End Comments
  3.07200E+05,	1.00000E+01,	-2.55877E-02,	4.12341E-02,	6.44766E+02,	-3.50877E+02,	0.00000E+00,	0,	0
  2.76480E+05,	1.00000E+01,	-2.55877E-02,	1.64025E+00,	6.66545E+02,	-3.71526E+02,	0.00000E+00,	0,	0
  1.97486E+05,	1.00000E+01,	-2.55877E-02,	2.53597E+00,	7.41912E+02,	-4.53943E+02,	0.00000E+00,	0,	0
  1.53600E+05,	1.00000E+01,	-2.55877E-02,	3.48143E+00,	8.38558E+02,	-5.10525E+02,	0.00000E+00,	0,	0
  1.25673E+05,	1.00000E+01,	-2.55877E-02,	4.42794E+00,	8.99970E+02,	-5.56824E+02,	0.00000E+00,	0,	0
  9.87429E+04,	1.00000E+01,	-2.55877E-02,	5.36598E+00,	1.03161E+03,	-5.85927E+02,	0.00000E+00,	0,	0
  7.68000E+04,	1.00000E+01,	-2.55877E-02,	6.26595E+00,	1.17589E+03,	-6.13057E+02,	0.00000E+00,	0,	0
  6.01043E+04,	1.00000E+01,	-2.55877E-02,	8.37381E+00,	1.29526E+03,	-5.93961E+02,	0.00000E+00,	0,	0
  4.93714E+04,	1.00000E+01,	-2.55877E-02,	9.95409E+00,	1.39649E+03,	-5.75724E+02,	0.00000E+00,	0,	0
  3.84000E+04,	1.00000E+01,	-2.55877E-02,	1.08426E+01,	1.51734E+03,	-5.17197E+02,	0.00000E+00,	0,	0
  3.00522E+04,	1.00000E+01,	-2.55877E-02,	1.16948E+01,	1.55481E+03,	-5.85444E+02,	0.00000E+00,	0,	0
  2.38345E+04,	1.00000E+01,	-2.55877E-02,	1.25736E+01,	1.67944E+03,	-4.02778E+02,	0.00000E+00,	0,	0
  1.86811E+04,	1.00000E+01,	-2.55877E-02,	1.34366E+01,	1.67478E+03,	-2.66564E+02,	0.00000E+00,	0,	0
  1.47064E+04,	1.00000E+01,	-2.55877E-02,	1.44287E+01,	1.75828E+03,	-2.75655E+02,	0.00000E+00,	0,	0
  1.15200E+04,	1.00000E+01,	-2.55877E-02,	1.54014E+01,	1.79930E+03,	-2.48537E+02,	0.00000E+00,	0,	0
  9.60000E+03,	1.00000E+01,	-2.55877E-02,	1.70048E+01,	1.80518E+03,	-2.07208E+02,	0.00000E+00,	0,	0
  7.51304E+03,	1.00000E+01,	-2.55877E-02,	1.79173E+01,	1.82680E+03,	-1.97598E+02,	0.00000E+00,	0,	0
  5.76000E+03,	1.00000E+01,	-2.55877E-02,	1.88202E+01,	1.84206E+03,	-1.91088E+02,	0.00000E+00,	0,	0
  4.54737E+03,	1.00000E+01,	-2.55877E-02,	1.97014E+01,	1.86357E+03,	-1.80796E+02,	0.00000E+00,	0,	0
  3.60000E+03,	1.00000E+01,	-2.55877E-02,	2.06866E+01,	1.86638E+03,	-1.71282E+02,	0.00000E+00,	0,	0
  2.88000E+03,	1.00000E+01,	-2.55877E-02,	2.16123E+01,	1.89379E+03,	-1.58327E+02,	0.00000E+00,	0,	0
  2.27368E+03,	1.00000E+01,	-2.55877E-02,	2.27544E+01,	1.89571E+03,	-1.76628E+02,	0.00000E+00,	0,	0
  1.78144E+03,	1.00000E+01,	-2.55877E-02,	2.35632E+01,	1.94330E+03,	-1.73690E+02,	0.00000E+00,	0,	0
  1.41639E+03,	1.00000E+01,	-2.55877E-02,	2.44709E+01,	1.96753E+03,	-1.59197E+02,	0.00000E+00,	0,	0
  1.12208E+03,	1.00000E+01,	-2.55877E-02,	2.55551E+01,	2.02640E+03,	-1.30025E+02,	0.00000E+00,	0,	0
  9.00000E+02,	1.00000E+01,	-2.55877E-02,	3.05378E+01,	2.03378E+03,	-1.45816E+02,	0.00000E+00,	0,	0
  7.20000E+02,	1.00000E+01,	-2.55877E-02,	3.19159E+01,	2.05751E+03,	-1.35864E+02,	0.00000E+00,	0,	0
  5.68421E+02,	1.00000E+01,	-2.55877E-02,	3.32829E+01,	2.07758E+03,	-1.21678E+02,	0.00000E+00,	0,	0
  4.40816E+02,	1.00000E+01,	-2.55877E-02,	3.63322E+01,	2.09560E+03,	-1.10033E+02,	0.00000E+00,	0,	0
  3.54098E+02,	1.00000E+01,	-2.55877E-02,	3.86745E+01,	2.10948E+03,	-1.02524E+02,	0.00000E+00,	0,	0
  2.76923E+02,	1.00000E+01,	-2.55877E-02,	4.13131E+01,	2.12258E+03,	-9.67388E+01,	0.00000E+00,	0,	0
  2.20408E+02,	1.00000E+01,	-2.55877E-02,	4.42393E+01,	2.13288E+03,	-9.55404E+01,	0.00000E+00,	0,	0
  1.74194E+02,	1.00000E+01,	-2.55877E-02,	4.74849E+01,	2.14433E+03,	-9.85946E+01,	0.00000E+00,	0,	0
  1.37580E+02,	1.00000E+01,	-2.55877E-02,	5.11566E+01,	2.15474E+03,	-1.04585E+02,	0.00000E+00,	0,	0
  1.09091E+02,	1.00000E+01,	-2.55877E-02,	5.52073E+01,	2.16694E+03,	-1.16019E+02,	0.00000E+00,	0,	0
  8.70968E+01,	1.00000E+01,	-2.55877E-02,	6.09143E+01,	2.18537E+03,	-1.32195E+02,	0.00000E+00,	0,	0
  6.83544E+01,	1.00000E+01,	-2.55877E-02,	6.59536E+01,	2.21241E+03,	-1.57470E+02,	0.00000E+00,	0,	0
  5.45455E+01,	1.00000E+01,	-2.55877E-02,	7.13979E+01,	2.20293E+03,	-1.64054E+02,	0.00000E+00,	0,	0
  4.28571E+01,	1.00000E+01,	-2.55877E-02,	7.49128E+01,	2.21661E+03,	-1.94488E+02,	0.00000E+00,	0,	0
  3.39623E+01,	1.00000E+01,	-2.55877E-02,	7.86349E+01,	2.22451E+03,	-2.43242E+02,	0.00000E+00,	0,	0
  2.68657E+01,	1.00000E+01,	-2.55877E-02,	8.24877E+01,	2.25176E+03,	-2.86648E+02,	0.00000E+00,	0,	0
  2.13439E+01,	1.00000E+01,	-2.55877E-02,	8.63133E+01,	2.27642E+03,	-3.41365E+02,	0.00000E+00,	0,	0
  1.73077E+01,	1.00000E+01,	-2.55877E-02,	9.00006E+01,	2.29919E+03,	-4.02132E+02,	0.00000E+00,	0,	0
  1.36364E+01,	1.00000E+01,	-2.55877E-02,	9.50229E+01,	2.33144E+03,	-4.87339E+02,	0.00000E+00,	0,	0
  1.07143E+01,	1.00000E+01,	-2.55877E-02,	9.79302E+01,	2.36368E+03,	-5.95177E+02,	0.00000E+00,	0,	0
  8.49057E+00,	1.00000E+01,	-2.55877E-02,	1.02157E+02,	2.40291E+03,	-7.20022E+02,	0.00000E+00,	0,	0
  6.71642E+00,	1.00000E+01,	-2.55877E-02,	1.04680E+02,	2.44322E+03,	-8.74389E+02,	0.00000E+00,	0,	0
  5.29412E+00,	1.00000E+01,	-2.55877E-02,	1.07603E+02,	2.49117E+03,	-1.06830E+03,	0.00000E+00,	0,	0
  4.16667E+00,	1.00000E+01,	-2.55877E-02,	1.11092E+02,	2.54908E+03,	-1.31021E+03,	0.00000E+00,	0,	0
  3.30882E+00,	1.00000E+01,	-2.55877E-02,	1.15338E+02,	2.61862E+03,	-1.59655E+03,	0.00000E+00,	0,	0
  2.61628E+00,	1.00000E+01,	-2.55877E-02,	1.19305E+02,	2.70016E+03,	-1.95613E+03,	0.00000E+00,	0,	0
  2.07373E+00,	1.00000E+01,	-2.55877E-02,	1.24089E+02,	2.80021E+03,	-2.39469E+03,	0.00000E+00,	0,	0
  1.64234E+00,	1.00000E+01,	-2.55877E-02,	1.29895E+02,	2.92670E+03,	-2.93741E+03,	0.00000E+00,	0,	0
  1.30058E+00,	1.00000E+01,	-2.55877E-02,	1.34059E+02,	3.08179E+03,	-3.59990E+03,	0.00000E+00,	0,	0
  1.03211E+00,	1.00000E+01,	-2.55877E-02,	1.38456E+02,	3.28693E+03,	-4.40675E+03,	0.00000E+00,	0,	0
  8.15217E-01,	1.00000E+01,	-2.55877E-02,	1.45436E+02,	3.53513E+03,	-5.40179E+03,	0.00000E+00,	0,	0
  6.46552E-01,	1.00000E+01,	-2.55877E-02,	1.50232E+02,	3.85876E+03,	-6.59026E+03,	0.00000E+00,	0,	0
  5.11364E-01,	1.00000E+01,	-2.55877E-02,	1.55236E+02,	4.17935E+03,	-8.12064E+03,	0.00000E+00,	0,	0
  4.07609E-01,	1.00000E+01,	-2.55877E-02,	1.61283E+02,	4.66497E+03,	-9.81901E+03,	0.00000E+00,	0,	0
  3.21429E-01,	1.00000E+01,	-2.55877E-02,	1.68414E+02,	5.34524E+03,	-1.21695E+04,	0.00000E+00,	0,	0
  2.54525E-01,	1.00000E+01,	-2.55877E-02,	1.77193E+02,	6.07987E+03,	-1.46881E+04,	0.00000E+00,	0,	0
  2.01613E-01,	1.00000E+01,	-2.55877E-02,	1.88035E+02,	6.92011E+03,	-1.77646E+04,	0.00000E+00,	0,	0
  1.59574E-01,	1.00000E+01,	-2.55877E-02,	2.01513E+02,	7.88825E+03,	-2.15172E+04,	0.00000E+00,	0,	0
  1.26689E-01,	1.00000E+01,	-2.55877E-02,	2.35430E+02,	9.02996E+03,	-2.56345E+04,	0.00000E+00,	0,	0
  1.00446E-01,	1.00000E+01,	-2.55877E-02,	2.56313E+02,	1.01911E+04,	-3.21793E+04,	0.00000E+00,	0,	0