Z60W Data File: Version 1.1
CorrTest for Windows: SN CS310H1805157  V5.2.1111.9  2.5H6.220118
Sweep Frequency: Control Voltage
  Date:5-1-2026   Time:18:30:39
  Begin Information:            Cell Information
      Surface Area:           1
      Density:                7.8
      Weight:                 28
  End Information:              Cell Information
  Freq (Hz)     Ampl(mV)       Bias(V)      Time(Sec)       Z'(Ohm.cm^2)    Z''(Ohm.cm^2)        GD       Err      Range
End Comments
  3.07200E+05,	1.00000E+01,	-2.17604E-02,	5.71014E-02,	3.25028E+02,	-4.77870E+01,	0.00000E+00,	0,	0
  2.76480E+05,	1.00000E+01,	-2.17604E-02,	1.67002E+00,	3.27244E+02,	-5.69493E+01,	0.00000E+00,	0,	0
  1.97486E+05,	1.00000E+01,	-2.17604E-02,	2.59757E+00,	3.51218E+02,	-7.35657E+01,	0.00000E+00,	0,	0
  1.53600E+05,	1.00000E+01,	-2.17604E-02,	3.50190E+00,	3.72455E+02,	-8.61999E+01,	0.00000E+00,	0,	0
  1.25673E+05,	1.00000E+01,	-2.17604E-02,	4.40019E+00,	3.89352E+02,	-8.93822E+01,	0.00000E+00,	0,	0
  9.87429E+04,	1.00000E+01,	-2.17604E-02,	5.31637E+00,	4.09056E+02,	-8.59130E+01,	0.00000E+00,	0,	0
  7.68000E+04,	1.00000E+01,	-2.17604E-02,	6.21922E+00,	4.31170E+02,	-7.63094E+01,	0.00000E+00,	0,	0
  6.01043E+04,	1.00000E+01,	-2.17604E-02,	7.22058E+00,	4.46292E+02,	-7.15016E+01,	0.00000E+00,	0,	0
  4.93714E+04,	1.00000E+01,	-2.17604E-02,	8.78898E+00,	4.55441E+02,	-6.51463E+01,	0.00000E+00,	0,	0
  3.84000E+04,	1.00000E+01,	-2.17604E-02,	9.71520E+00,	4.68707E+02,	-5.67498E+01,	0.00000E+00,	0,	0
  3.00522E+04,	1.00000E+01,	-2.17604E-02,	1.05728E+01,	4.61709E+02,	-5.63111E+01,	0.00000E+00,	0,	0
  2.38345E+04,	1.00000E+01,	-2.17604E-02,	1.14394E+01,	4.74403E+02,	-4.38139E+01,	0.00000E+00,	0,	0
  1.86811E+04,	1.00000E+01,	-2.17604E-02,	1.22988E+01,	4.77788E+02,	-3.38202E+01,	0.00000E+00,	0,	0
  1.47064E+04,	1.00000E+01,	-2.17604E-02,	1.32530E+01,	4.79929E+02,	-3.89009E+01,	0.00000E+00,	0,	0
  1.15200E+04,	1.00000E+01,	-2.17604E-02,	1.42200E+01,	4.86568E+02,	-3.45864E+01,	0.00000E+00,	0,	0
  9.60000E+03,	1.00000E+01,	-2.17604E-02,	1.58181E+01,	4.86538E+02,	-3.28188E+01,	0.00000E+00,	0,	0
  7.51304E+03,	1.00000E+01,	-2.17604E-02,	1.67283E+01,	4.92495E+02,	-3.16408E+01,	0.00000E+00,	0,	0
  5.76000E+03,	1.00000E+01,	-2.17604E-02,	1.76378E+01,	4.97345E+02,	-3.47009E+01,	0.00000E+00,	0,	0
  4.54737E+03,	1.00000E+01,	-2.17604E-02,	1.85219E+01,	5.01609E+02,	-3.70407E+01,	0.00000E+00,	0,	0
  3.60000E+03,	1.00000E+01,	-2.17604E-02,	1.95357E+01,	5.09032E+02,	-3.56690E+01,	0.00000E+00,	0,	0
  2.88000E+03,	1.00000E+01,	-2.17604E-02,	2.04365E+01,	5.13817E+02,	-3.54948E+01,	0.00000E+00,	0,	0
  2.27368E+03,	1.00000E+01,	-2.17604E-02,	2.27231E+01,	5.18205E+02,	-3.53502E+01,	0.00000E+00,	0,	0
  1.78144E+03,	1.00000E+01,	-2.17604E-02,	2.35307E+01,	5.25454E+02,	-3.46767E+01,	0.00000E+00,	0,	0
  1.41639E+03,	1.00000E+01,	-2.17604E-02,	2.44281E+01,	5.24111E+02,	-3.05859E+01,	0.00000E+00,	0,	0
  1.12208E+03,	1.00000E+01,	-2.17604E-02,	2.54888E+01,	5.30719E+02,	-2.42239E+01,	0.00000E+00,	0,	0
  9.00000E+02,	1.00000E+01,	-2.17604E-02,	3.04908E+01,	5.38477E+02,	-2.81884E+01,	0.00000E+00,	0,	0
  7.20000E+02,	1.00000E+01,	-2.17604E-02,	3.18699E+01,	5.40992E+02,	-2.76351E+01,	0.00000E+00,	0,	0
  5.68421E+02,	1.00000E+01,	-2.17604E-02,	3.32394E+01,	5.43428E+02,	-2.80293E+01,	0.00000E+00,	0,	0
  4.40816E+02,	1.00000E+01,	-2.17604E-02,	3.47049E+01,	5.45572E+02,	-2.93669E+01,	0.00000E+00,	0,	0
  3.54098E+02,	1.00000E+01,	-2.17604E-02,	3.70720E+01,	5.46890E+02,	-3.18659E+01,	0.00000E+00,	0,	0
  2.76923E+02,	1.00000E+01,	-2.17604E-02,	3.97186E+01,	5.49569E+02,	-3.57909E+01,	0.00000E+00,	0,	0
  2.20408E+02,	1.00000E+01,	-2.17604E-02,	4.26520E+01,	5.51881E+02,	-4.08817E+01,	0.00000E+00,	0,	0
  1.74194E+02,	1.00000E+01,	-2.17604E-02,	4.59117E+01,	5.54596E+02,	-4.77733E+01,	0.00000E+00,	0,	0
  1.37580E+02,	1.00000E+01,	-2.17604E-02,	4.95857E+01,	5.57752E+02,	-5.64274E+01,	0.00000E+00,	0,	0
  1.09091E+02,	1.00000E+01,	-2.17604E-02,	5.36668E+01,	5.61025E+02,	-6.74308E+01,	0.00000E+00,	0,	0
  8.70968E+01,	1.00000E+01,	-2.17604E-02,	5.93665E+01,	5.66101E+02,	-8.09305E+01,	0.00000E+00,	0,	0
  6.83544E+01,	1.00000E+01,	-2.17604E-02,	6.44140E+01,	5.74285E+02,	-9.96719E+01,	0.00000E+00,	0,	0
  5.45455E+01,	1.00000E+01,	-2.17604E-02,	6.98951E+01,	5.73043E+02,	-1.13767E+02,	0.00000E+00,	0,	0
  4.28571E+01,	1.00000E+01,	-2.17604E-02,	7.34353E+01,	5.79267E+02,	-1.38901E+02,	0.00000E+00,	0,	0
  3.39623E+01,	1.00000E+01,	-2.17604E-02,	7.71699E+01,	5.83474E+02,	-1.71120E+02,	0.00000E+00,	0,	0
  2.68657E+01,	1.00000E+01,	-2.17604E-02,	8.10229E+01,	5.94312E+02,	-2.07994E+02,	0.00000E+00,	0,	0
  2.13439E+01,	1.00000E+01,	-2.17604E-02,	8.48767E+01,	6.05149E+02,	-2.52205E+02,	0.00000E+00,	0,	0
  1.73077E+01,	1.00000E+01,	-2.17604E-02,	8.85568E+01,	6.16194E+02,	-3.01669E+02,	0.00000E+00,	0,	0
  1.36364E+01,	1.00000E+01,	-2.17604E-02,	9.35774E+01,	6.31105E+02,	-3.70444E+02,	0.00000E+00,	0,	0
  1.07143E+01,	1.00000E+01,	-2.17604E-02,	9.64882E+01,	6.49511E+02,	-4.56980E+02,	0.00000E+00,	0,	0
  8.49057E+00,	1.00000E+01,	-2.17604E-02,	1.00686E+02,	6.72561E+02,	-5.58995E+02,	0.00000E+00,	0,	0
  6.71642E+00,	1.00000E+01,	-2.17604E-02,	1.03198E+02,	7.00170E+02,	-6.87109E+02,	0.00000E+00,	0,	0
  5.29412E+00,	1.00000E+01,	-2.17604E-02,	1.06156E+02,	7.36828E+02,	-8.46097E+02,	0.00000E+00,	0,	0
  4.16667E+00,	1.00000E+01,	-2.17604E-02,	1.09623E+02,	7.85271E+02,	-1.04193E+03,	0.00000E+00,	0,	0
  3.30882E+00,	1.00000E+01,	-2.17604E-02,	1.16164E+02,	8.44041E+02,	-1.26956E+03,	0.00000E+00,	0,	0
  2.61628E+00,	1.00000E+01,	-2.17604E-02,	1.20122E+02,	9.21151E+02,	-1.54944E+03,	0.00000E+00,	0,	0
  2.07373E+00,	1.00000E+01,	-2.17604E-02,	1.24899E+02,	1.01589E+03,	-1.88280E+03,	0.00000E+00,	0,	0
  1.64234E+00,	1.00000E+01,	-2.17604E-02,	1.30687E+02,	1.13042E+03,	-2.28317E+03,	0.00000E+00,	0,	0
  1.30058E+00,	1.00000E+01,	-2.17604E-02,	1.34859E+02,	1.26701E+03,	-2.76208E+03,	0.00000E+00,	0,	0
  1.03211E+00,	1.00000E+01,	-2.17604E-02,	1.39255E+02,	1.42534E+03,	-3.33693E+03,	0.00000E+00,	0,	0
  8.15217E-01,	1.00000E+01,	-2.17604E-02,	1.46206E+02,	1.60238E+03,	-4.04139E+03,	0.00000E+00,	0,	0
  6.46552E-01,	1.00000E+01,	-2.17604E-02,	1.51060E+02,	1.80441E+03,	-4.88896E+03,	0.00000E+00,	0,	0
  5.11364E-01,	1.00000E+01,	-2.17604E-02,	1.56073E+02,	1.97996E+03,	-5.97075E+03,	0.00000E+00,	0,	0
  4.07609E-01,	1.00000E+01,	-2.17604E-02,	1.62148E+02,	2.23020E+03,	-7.23376E+03,	0.00000E+00,	0,	0
  3.21429E-01,	1.00000E+01,	-2.17604E-02,	1.69297E+02,	2.53578E+03,	-8.97939E+03,	0.00000E+00,	0,	0
  2.54525E-01,	1.00000E+01,	-2.17604E-02,	1.78083E+02,	2.89112E+03,	-1.09606E+04,	0.00000E+00,	0,	0
  2.01613E-01,	1.00000E+01,	-2.17604E-02,	1.88924E+02,	3.29679E+03,	-1.34207E+04,	0.00000E+00,	0,	0
  1.59574E-01,	1.00000E+01,	-2.17604E-02,	2.02395E+02,	3.77787E+03,	-1.64753E+04,	0.00000E+00,	0,	0
  1.26689E-01,	1.00000E+01,	-2.17604E-02,	2.36270E+02,	4.36988E+03,	-1.99377E+04,	0.00000E+00,	0,	0
  1.00446E-01,	1.00000E+01,	-2.17604E-02,	2.57151E+02,	4.90920E+03,	-2.49972E+04,	0.00000E+00,	0,	0