Z60W Data File: Version 1.1
CorrTest for Windows: SN CS310H1805157  V5.2.1111.9  2.5H6.220118
Sweep Frequency: Control Voltage
  Date:5-1-2026   Time:16:40:08
  Begin Information:            Cell Information
      Surface Area:           1
      Density:                7.8
      Weight:                 28
  End Information:              Cell Information
  Freq (Hz)     Ampl(mV)       Bias(V)      Time(Sec)       Z'(Ohm.cm^2)    Z''(Ohm.cm^2)        GD       Err      Range
End Comments
  3.07200E+05,	1.00000E+01,	-1.35042E-02,	3.41352E-02,	1.89555E+00,	5.09389E+00,	0.00000E+00,	0,	0
  2.76480E+05,	1.00000E+01,	-1.35042E-02,	1.63958E+00,	2.37994E+00,	4.02412E+00,	0.00000E+00,	0,	0
  1.97486E+05,	1.00000E+01,	-1.35042E-02,	2.53197E+00,	3.18870E+00,	2.84265E+00,	0.00000E+00,	0,	0
  1.53600E+05,	1.00000E+01,	-1.35042E-02,	3.45455E+00,	3.52473E+00,	2.14309E+00,	0.00000E+00,	0,	0
  1.25673E+05,	1.00000E+01,	-1.35042E-02,	4.38710E+00,	3.71181E+00,	1.68387E+00,	0.00000E+00,	0,	0
  9.87429E+04,	1.00000E+01,	-1.35042E-02,	5.31317E+00,	3.87917E+00,	1.27736E+00,	0.00000E+00,	0,	0
  7.68000E+04,	1.00000E+01,	-1.35042E-02,	6.22070E+00,	3.98487E+00,	9.56725E-01,	0.00000E+00,	0,	0
  6.01043E+04,	1.00000E+01,	-1.35042E-02,	8.35487E+00,	4.03801E+00,	6.62285E-01,	0.00000E+00,	0,	0
  4.93714E+04,	1.00000E+01,	-1.35042E-02,	9.96107E+00,	4.05735E+00,	4.84618E-01,	0.00000E+00,	0,	0
  3.84000E+04,	1.00000E+01,	-1.35042E-02,	1.08617E+01,	4.07804E+00,	2.83341E-01,	0.00000E+00,	0,	0
  3.00522E+04,	1.00000E+01,	-1.35042E-02,	1.17190E+01,	4.09002E+00,	1.09891E-01,	0.00000E+00,	0,	0
  2.38345E+04,	1.00000E+01,	-1.35042E-02,	1.26125E+01,	4.10266E+00,	-5.38507E-02,	0.00000E+00,	0,	0
  1.86811E+04,	1.00000E+01,	-1.35042E-02,	1.34447E+01,	4.12428E+00,	-2.14778E-01,	0.00000E+00,	0,	0
  1.47064E+04,	1.00000E+01,	-1.35042E-02,	1.44144E+01,	4.14626E+00,	-3.83803E-01,	0.00000E+00,	0,	0
  1.15200E+04,	1.00000E+01,	-1.35042E-02,	1.65093E+01,	4.21240E+00,	-5.82836E-01,	0.00000E+00,	0,	0
  9.60000E+03,	1.00000E+01,	-1.35042E-02,	1.81145E+01,	4.24083E+00,	-7.33891E-01,	0.00000E+00,	0,	0
  7.51304E+03,	1.00000E+01,	-1.35042E-02,	1.89878E+01,	4.28648E+00,	-9.70343E-01,	0.00000E+00,	0,	0
  5.76000E+03,	1.00000E+01,	-1.35042E-02,	1.98736E+01,	4.33873E+00,	-1.26889E+00,	0.00000E+00,	0,	0
  4.54737E+03,	1.00000E+01,	-1.35042E-02,	2.07376E+01,	4.40242E+00,	-1.59232E+00,	0.00000E+00,	0,	0
  3.60000E+03,	1.00000E+01,	-1.35042E-02,	2.17247E+01,	4.47974E+00,	-1.97373E+00,	0.00000E+00,	0,	0
  2.88000E+03,	1.00000E+01,	-1.35042E-02,	2.26369E+01,	4.57458E+00,	-2.42337E+00,	0.00000E+00,	0,	0
  2.27368E+03,	1.00000E+01,	-1.35042E-02,	2.49526E+01,	4.62003E+00,	-2.96280E+00,	0.00000E+00,	0,	0
  1.78144E+03,	1.00000E+01,	-1.35042E-02,	2.57429E+01,	4.76653E+00,	-3.67823E+00,	0.00000E+00,	0,	0
  1.41639E+03,	1.00000E+01,	-1.35042E-02,	2.66604E+01,	4.93634E+00,	-4.50294E+00,	0.00000E+00,	0,	0
  1.12208E+03,	1.00000E+01,	-1.35042E-02,	2.76835E+01,	5.15052E+00,	-5.53927E+00,	0.00000E+00,	0,	0
  9.00000E+02,	1.00000E+01,	-1.35042E-02,	3.26872E+01,	5.42135E+00,	-6.75479E+00,	0.00000E+00,	0,	0
  7.20000E+02,	1.00000E+01,	-1.35042E-02,	3.40537E+01,	5.75232E+00,	-8.22228E+00,	0.00000E+00,	0,	0
  5.68421E+02,	1.00000E+01,	-1.35042E-02,	3.54255E+01,	6.19727E+00,	-1.01234E+01,	0.00000E+00,	0,	0
  4.40816E+02,	1.00000E+01,	-1.35042E-02,	3.84544E+01,	6.84562E+00,	-1.26735E+01,	0.00000E+00,	0,	0
  3.54098E+02,	1.00000E+01,	-1.35042E-02,	4.08384E+01,	7.55388E+00,	-1.53143E+01,	0.00000E+00,	0,	0
  2.76923E+02,	1.00000E+01,	-1.35042E-02,	4.34671E+01,	8.59256E+00,	-1.88913E+01,	0.00000E+00,	0,	0
  2.20408E+02,	1.00000E+01,	-1.35042E-02,	4.63984E+01,	9.83542E+00,	-2.28980E+01,	0.00000E+00,	0,	0
  1.74194E+02,	1.00000E+01,	-1.35042E-02,	4.96571E+01,	1.14474E+01,	-2.77997E+01,	0.00000E+00,	0,	0
  1.37580E+02,	1.00000E+01,	-1.35042E-02,	5.33211E+01,	1.34502E+01,	-3.36423E+01,	0.00000E+00,	0,	0
  1.09091E+02,	1.00000E+01,	-1.35042E-02,	5.74038E+01,	1.58129E+01,	-4.04629E+01,	0.00000E+00,	0,	0
  8.70968E+01,	1.00000E+01,	-1.35042E-02,	6.31150E+01,	1.84693E+01,	-4.83580E+01,	0.00000E+00,	0,	0
  6.83544E+01,	1.00000E+01,	-1.35042E-02,	6.81426E+01,	2.17728E+01,	-5.87707E+01,	0.00000E+00,	0,	0
  5.45455E+01,	1.00000E+01,	-1.35042E-02,	7.36143E+01,	2.53755E+01,	-6.90330E+01,	0.00000E+00,	0,	0
  4.28571E+01,	1.00000E+01,	-1.35042E-02,	7.71449E+01,	2.95229E+01,	-8.34038E+01,	0.00000E+00,	0,	0
  3.39623E+01,	1.00000E+01,	-1.35042E-02,	8.08608E+01,	3.33472E+01,	-1.00289E+02,	0.00000E+00,	0,	0
  2.68657E+01,	1.00000E+01,	-1.35042E-02,	8.46961E+01,	3.86140E+01,	-1.21670E+02,	0.00000E+00,	0,	0
  2.13439E+01,	1.00000E+01,	-1.35042E-02,	8.84982E+01,	4.43917E+01,	-1.47220E+02,	0.00000E+00,	0,	0
  1.73077E+01,	1.00000E+01,	-1.35042E-02,	9.51809E+01,	5.04292E+01,	-1.75844E+02,	0.00000E+00,	0,	0
  1.36364E+01,	1.00000E+01,	-1.35042E-02,	1.00254E+02,	5.80199E+01,	-2.15201E+02,	0.00000E+00,	0,	0
  1.07143E+01,	1.00000E+01,	-1.35042E-02,	1.03204E+02,	6.68376E+01,	-2.64654E+02,	0.00000E+00,	0,	0
  8.49057E+00,	1.00000E+01,	-1.35042E-02,	1.07408E+02,	7.66327E+01,	-3.23825E+02,	0.00000E+00,	0,	0
  6.71642E+00,	1.00000E+01,	-1.35042E-02,	1.09979E+02,	8.79765E+01,	-3.97815E+02,	0.00000E+00,	0,	0
  5.29412E+00,	1.00000E+01,	-1.35042E-02,	1.12907E+02,	1.01330E+02,	-4.90739E+02,	0.00000E+00,	0,	0
  4.16667E+00,	1.00000E+01,	-1.35042E-02,	1.16398E+02,	1.16737E+02,	-6.07891E+02,	0.00000E+00,	0,	0
  3.30882E+00,	1.00000E+01,	-1.35042E-02,	1.20654E+02,	1.33792E+02,	-7.48362E+02,	0.00000E+00,	0,	0
  2.61628E+00,	1.00000E+01,	-1.35042E-02,	1.24624E+02,	1.54391E+02,	-9.26015E+02,	0.00000E+00,	0,	0
  2.07373E+00,	1.00000E+01,	-1.35042E-02,	1.29436E+02,	1.77911E+02,	-1.14554E+03,	0.00000E+00,	0,	0
  1.64234E+00,	1.00000E+01,	-1.35042E-02,	1.35214E+02,	2.06212E+02,	-1.42032E+03,	0.00000E+00,	0,	0
  1.30058E+00,	1.00000E+01,	-1.35042E-02,	1.39376E+02,	2.40368E+02,	-1.76349E+03,	0.00000E+00,	0,	0
  1.03211E+00,	1.00000E+01,	-1.35042E-02,	1.43788E+02,	2.80502E+02,	-2.18775E+03,	0.00000E+00,	0,	0
  8.15217E-01,	1.00000E+01,	-1.35042E-02,	1.50769E+02,	3.31251E+02,	-2.72693E+03,	0.00000E+00,	0,	0
  6.46552E-01,	1.00000E+01,	-1.35042E-02,	1.59868E+02,	3.91792E+02,	-3.38718E+03,	0.00000E+00,	0,	0
  5.11364E-01,	1.00000E+01,	-1.35042E-02,	1.64902E+02,	4.58301E+02,	-4.22295E+03,	0.00000E+00,	0,	0
  4.07609E-01,	1.00000E+01,	-1.35042E-02,	1.70949E+02,	5.51044E+02,	-5.23061E+03,	0.00000E+00,	0,	0
  3.21429E-01,	1.00000E+01,	-1.35042E-02,	1.78070E+02,	6.65993E+02,	-6.57082E+03,	0.00000E+00,	0,	0
  2.54525E-01,	1.00000E+01,	-1.35042E-02,	1.86843E+02,	8.23869E+02,	-8.18680E+03,	0.00000E+00,	0,	0
  2.01613E-01,	1.00000E+01,	-1.35042E-02,	1.97701E+02,	1.02002E+03,	-1.02012E+04,	0.00000E+00,	0,	0
  1.59574E-01,	1.00000E+01,	-1.35042E-02,	2.11166E+02,	1.27331E+03,	-1.27206E+04,	0.00000E+00,	0,	0
  1.26689E-01,	1.00000E+01,	-1.35042E-02,	2.45068E+02,	1.62181E+03,	-1.57340E+04,	0.00000E+00,	0,	0
  1.00446E-01,	1.00000E+01,	-1.35042E-02,	2.65950E+02,	1.96303E+03,	-1.97154E+04,	0.00000E+00,	0,	0