Z60W Data File: Version 1.1
CorrTest for Windows: SN CS310H1805157  V5.2.1111.9  2.5H6.220118
Sweep Frequency: Control Voltage
  Date:5-1-2026   Time:17:41:16
  Begin Information:            Cell Information
      Surface Area:           1
      Density:                7.8
      Weight:                 28
  End Information:              Cell Information
  Freq (Hz)     Ampl(mV)       Bias(V)      Time(Sec)       Z'(Ohm.cm^2)    Z''(Ohm.cm^2)        GD       Err      Range
End Comments
  3.07200E+05,	1.00000E+01,	-1.75051E-02,	2.55827E-02,	1.37794E+02,	1.20013E+01,	0.00000E+00,	0,	0
  2.76480E+05,	1.00000E+01,	-1.75051E-02,	1.65088E+00,	1.37982E+02,	8.85843E+00,	0.00000E+00,	0,	0
  1.97486E+05,	1.00000E+01,	-1.75051E-02,	2.55722E+00,	1.40124E+02,	2.52074E+00,	0.00000E+00,	0,	0
  1.53600E+05,	1.00000E+01,	-1.75051E-02,	3.46769E+00,	1.42397E+02,	-3.61981E-01,	0.00000E+00,	0,	0
  1.25673E+05,	1.00000E+01,	-1.75051E-02,	4.37171E+00,	1.44402E+02,	-1.57237E+00,	0.00000E+00,	0,	0
  9.87429E+04,	1.00000E+01,	-1.75051E-02,	5.28166E+00,	1.45223E+02,	-2.97468E+00,	0.00000E+00,	0,	0
  7.68000E+04,	1.00000E+01,	-1.75051E-02,	6.18658E+00,	1.47039E+02,	-3.91860E+00,	0.00000E+00,	0,	0
  6.01043E+04,	1.00000E+01,	-1.75051E-02,	7.20049E+00,	1.48620E+02,	-4.88283E+00,	0.00000E+00,	0,	0
  4.93714E+04,	1.00000E+01,	-1.75051E-02,	8.78405E+00,	1.49490E+02,	-5.42073E+00,	0.00000E+00,	0,	0
  3.84000E+04,	1.00000E+01,	-1.75051E-02,	9.71399E+00,	1.50702E+02,	-5.59889E+00,	0.00000E+00,	0,	0
  3.00522E+04,	1.00000E+01,	-1.75051E-02,	1.05615E+01,	1.50188E+02,	-5.26657E+00,	0.00000E+00,	0,	0
  2.38345E+04,	1.00000E+01,	-1.75051E-02,	1.14228E+01,	1.52722E+02,	-6.41214E+00,	0.00000E+00,	0,	0
  1.86811E+04,	1.00000E+01,	-1.75051E-02,	1.22714E+01,	1.53771E+02,	-6.68969E+00,	0.00000E+00,	0,	0
  1.47064E+04,	1.00000E+01,	-1.75051E-02,	1.32586E+01,	1.55051E+02,	-7.83786E+00,	0.00000E+00,	0,	0
  1.15200E+04,	1.00000E+01,	-1.75051E-02,	1.42307E+01,	1.56135E+02,	-8.56533E+00,	0.00000E+00,	0,	0
  9.60000E+03,	1.00000E+01,	-1.75051E-02,	1.58280E+01,	1.57637E+02,	-9.11891E+00,	0.00000E+00,	0,	0
  7.51304E+03,	1.00000E+01,	-1.75051E-02,	1.67485E+01,	1.59323E+02,	-1.01810E+01,	0.00000E+00,	0,	0
  5.76000E+03,	1.00000E+01,	-1.75051E-02,	1.76548E+01,	1.61828E+02,	-1.05804E+01,	0.00000E+00,	0,	0
  4.54737E+03,	1.00000E+01,	-1.75051E-02,	1.85385E+01,	1.63535E+02,	-1.13036E+01,	0.00000E+00,	0,	0
  3.60000E+03,	1.00000E+01,	-1.75051E-02,	1.95341E+01,	1.65642E+02,	-1.11289E+01,	0.00000E+00,	0,	0
  2.88000E+03,	1.00000E+01,	-1.75051E-02,	2.04306E+01,	1.66879E+02,	-1.17303E+01,	0.00000E+00,	0,	0
  2.27368E+03,	1.00000E+01,	-1.75051E-02,	2.27159E+01,	1.69103E+02,	-1.12840E+01,	0.00000E+00,	0,	0
  1.78144E+03,	1.00000E+01,	-1.75051E-02,	2.35186E+01,	1.70861E+02,	-1.19557E+01,	0.00000E+00,	0,	0
  1.41639E+03,	1.00000E+01,	-1.75051E-02,	2.44166E+01,	1.71900E+02,	-1.22035E+01,	0.00000E+00,	0,	0
  1.12208E+03,	1.00000E+01,	-1.75051E-02,	2.54497E+01,	1.72757E+02,	-1.27526E+01,	0.00000E+00,	0,	0
  9.00000E+02,	1.00000E+01,	-1.75051E-02,	3.04606E+01,	1.76105E+02,	-1.35049E+01,	0.00000E+00,	0,	0
  7.20000E+02,	1.00000E+01,	-1.75051E-02,	3.18234E+01,	1.77317E+02,	-1.48067E+01,	0.00000E+00,	0,	0
  5.68421E+02,	1.00000E+01,	-1.75051E-02,	3.31821E+01,	1.78551E+02,	-1.66634E+01,	0.00000E+00,	0,	0
  4.40816E+02,	1.00000E+01,	-1.75051E-02,	3.46173E+01,	1.80022E+02,	-1.93793E+01,	0.00000E+00,	0,	0
  3.54098E+02,	1.00000E+01,	-1.75051E-02,	3.70068E+01,	1.81438E+02,	-2.23908E+01,	0.00000E+00,	0,	0
  2.76923E+02,	1.00000E+01,	-1.75051E-02,	3.96422E+01,	1.83220E+02,	-2.66337E+01,	0.00000E+00,	0,	0
  2.20408E+02,	1.00000E+01,	-1.75051E-02,	4.25616E+01,	1.85206E+02,	-3.16021E+01,	0.00000E+00,	0,	0
  1.74194E+02,	1.00000E+01,	-1.75051E-02,	4.58151E+01,	1.87497E+02,	-3.79215E+01,	0.00000E+00,	0,	0
  1.37580E+02,	1.00000E+01,	-1.75051E-02,	4.94860E+01,	1.90110E+02,	-4.58421E+01,	0.00000E+00,	0,	0
  1.09091E+02,	1.00000E+01,	-1.75051E-02,	5.36077E+01,	1.93116E+02,	-5.55454E+01,	0.00000E+00,	0,	0
  8.70968E+01,	1.00000E+01,	-1.75051E-02,	5.93297E+01,	1.97078E+02,	-6.72198E+01,	0.00000E+00,	0,	0
  6.83544E+01,	1.00000E+01,	-1.75051E-02,	6.43421E+01,	2.02318E+02,	-8.32352E+01,	0.00000E+00,	0,	0
  5.45455E+01,	1.00000E+01,	-1.75051E-02,	6.98315E+01,	2.05185E+02,	-9.79961E+01,	0.00000E+00,	0,	0
  4.28571E+01,	1.00000E+01,	-1.75051E-02,	7.33733E+01,	2.10583E+02,	-1.20508E+02,	0.00000E+00,	0,	0
  3.39623E+01,	1.00000E+01,	-1.75051E-02,	7.70843E+01,	2.15474E+02,	-1.47992E+02,	0.00000E+00,	0,	0
  2.68657E+01,	1.00000E+01,	-1.75051E-02,	8.09227E+01,	2.24369E+02,	-1.81639E+02,	0.00000E+00,	0,	0
  2.13439E+01,	1.00000E+01,	-1.75051E-02,	8.47656E+01,	2.34448E+02,	-2.21933E+02,	0.00000E+00,	0,	0
  1.73077E+01,	1.00000E+01,	-1.75051E-02,	8.84312E+01,	2.45604E+02,	-2.66464E+02,	0.00000E+00,	0,	0
  1.36364E+01,	1.00000E+01,	-1.75051E-02,	9.34500E+01,	2.61634E+02,	-3.27723E+02,	0.00000E+00,	0,	0
  1.07143E+01,	1.00000E+01,	-1.75051E-02,	9.63603E+01,	2.81829E+02,	-4.03372E+02,	0.00000E+00,	0,	0
  8.49057E+00,	1.00000E+01,	-1.75051E-02,	1.00563E+02,	3.06548E+02,	-4.91982E+02,	0.00000E+00,	0,	0
  6.71642E+00,	1.00000E+01,	-1.75051E-02,	1.03076E+02,	3.37914E+02,	-5.99340E+02,	0.00000E+00,	0,	0
  5.29412E+00,	1.00000E+01,	-1.75051E-02,	1.06045E+02,	3.76428E+02,	-7.29660E+02,	0.00000E+00,	0,	0
  4.16667E+00,	1.00000E+01,	-1.75051E-02,	1.09520E+02,	4.22846E+02,	-8.87794E+02,	0.00000E+00,	0,	0
  3.30882E+00,	1.00000E+01,	-1.75051E-02,	1.16070E+02,	4.74956E+02,	-1.07066E+03,	0.00000E+00,	0,	0
  2.61628E+00,	1.00000E+01,	-1.75051E-02,	1.20041E+02,	5.35827E+02,	-1.29627E+03,	0.00000E+00,	0,	0
  2.07373E+00,	1.00000E+01,	-1.75051E-02,	1.24839E+02,	6.04447E+02,	-1.56892E+03,	0.00000E+00,	0,	0
  1.64234E+00,	1.00000E+01,	-1.75051E-02,	1.30625E+02,	6.81844E+02,	-1.90370E+03,	0.00000E+00,	0,	0
  1.30058E+00,	1.00000E+01,	-1.75051E-02,	1.34790E+02,	7.70834E+02,	-2.31483E+03,	0.00000E+00,	0,	0
  1.03211E+00,	1.00000E+01,	-1.75051E-02,	1.39199E+02,	8.72378E+02,	-2.81856E+03,	0.00000E+00,	0,	0
  8.15217E-01,	1.00000E+01,	-1.75051E-02,	1.46143E+02,	9.90938E+02,	-3.44937E+03,	0.00000E+00,	0,	0
  6.46552E-01,	1.00000E+01,	-1.75051E-02,	1.50948E+02,	1.12919E+03,	-4.21682E+03,	0.00000E+00,	0,	0
  5.11364E-01,	1.00000E+01,	-1.75051E-02,	1.55965E+02,	1.25588E+03,	-5.18738E+03,	0.00000E+00,	0,	0
  4.07609E-01,	1.00000E+01,	-1.75051E-02,	1.62046E+02,	1.43660E+03,	-6.34040E+03,	0.00000E+00,	0,	0
  3.21429E-01,	1.00000E+01,	-1.75051E-02,	1.69195E+02,	1.65373E+03,	-7.90731E+03,	0.00000E+00,	0,	0
  2.54525E-01,	1.00000E+01,	-1.75051E-02,	1.77962E+02,	1.92324E+03,	-9.73247E+03,	0.00000E+00,	0,	0
  2.01613E-01,	1.00000E+01,	-1.75051E-02,	1.88830E+02,	2.23591E+03,	-1.19999E+04,	0.00000E+00,	0,	0
  1.59574E-01,	1.00000E+01,	-1.75051E-02,	2.02305E+02,	2.60834E+03,	-1.48282E+04,	0.00000E+00,	0,	0
  1.26689E-01,	1.00000E+01,	-1.75051E-02,	2.36194E+02,	3.09994E+03,	-1.81328E+04,	0.00000E+00,	0,	0
  1.00446E-01,	1.00000E+01,	-1.75051E-02,	2.57074E+02,	3.50515E+03,	-2.27546E+04,	0.00000E+00,	0,	0