Z60W Data File: Version 1.1
CorrTest for Windows: SN CS310H1805157  V5.2.1111.9  2.5H6.220118
Sweep Frequency: Control Voltage
  Date:5-1-2026   Time:10:34:41
  Begin Information:            Cell Information
      Surface Area:           1
      Density:                7.8
      Weight:                 28
  End Information:              Cell Information
  Freq (Hz)     Ampl(mV)       Bias(V)      Time(Sec)       Z'(Ohm.cm^2)    Z''(Ohm.cm^2)        GD       Err      Range
End Comments
  3.07200E+05,	1.00000E+01,	-1.64147E-02,	2.86979E-02,	-1.62192E-01,	4.15365E+00,	0.00000E+00,	0,	0
  2.76480E+05,	1.00000E+01,	-1.64147E-02,	1.64608E+00,	4.88507E-01,	3.07495E+00,	0.00000E+00,	0,	0
  1.97486E+05,	1.00000E+01,	-1.64147E-02,	2.59062E+00,	1.35070E+00,	2.14337E+00,	0.00000E+00,	0,	0
  1.53600E+05,	1.00000E+01,	-1.64147E-02,	3.51032E+00,	1.69263E+00,	1.61036E+00,	0.00000E+00,	0,	0
  1.25673E+05,	1.00000E+01,	-1.64147E-02,	4.44101E+00,	1.90030E+00,	1.26338E+00,	0.00000E+00,	0,	0
  9.87429E+04,	1.00000E+01,	-1.64147E-02,	5.35274E+00,	2.06549E+00,	9.61848E-01,	0.00000E+00,	0,	0
  7.68000E+04,	1.00000E+01,	-1.64147E-02,	6.30093E+00,	2.17757E+00,	7.10865E-01,	0.00000E+00,	0,	0
  6.01043E+04,	1.00000E+01,	-1.64147E-02,	9.54919E+00,	2.26138E+00,	4.77782E-01,	0.00000E+00,	0,	0
  4.93714E+04,	1.00000E+01,	-1.64147E-02,	1.11295E+01,	2.27594E+00,	3.47417E-01,	0.00000E+00,	0,	0
  3.84000E+04,	1.00000E+01,	-1.64147E-02,	1.20189E+01,	2.29250E+00,	1.98271E-01,	0.00000E+00,	0,	0
  3.00522E+04,	1.00000E+01,	-1.64147E-02,	1.28773E+01,	2.30375E+00,	6.27117E-02,	0.00000E+00,	0,	0
  2.38345E+04,	1.00000E+01,	-1.64147E-02,	1.37471E+01,	2.31130E+00,	-5.63022E-02,	0.00000E+00,	0,	0
  1.86811E+04,	1.00000E+01,	-1.64147E-02,	1.46224E+01,	2.32478E+00,	-1.77898E-01,	0.00000E+00,	0,	0
  1.47064E+04,	1.00000E+01,	-1.64147E-02,	1.56169E+01,	2.34383E+00,	-3.10804E-01,	0.00000E+00,	0,	0
  1.15200E+04,	1.00000E+01,	-1.64147E-02,	1.66009E+01,	2.36736E+00,	-4.56128E-01,	0.00000E+00,	0,	0
  9.60000E+03,	1.00000E+01,	-1.64147E-02,	1.81813E+01,	2.38596E+00,	-5.74258E-01,	0.00000E+00,	0,	0
  7.51304E+03,	1.00000E+01,	-1.64147E-02,	1.90712E+01,	2.41930E+00,	-7.59668E-01,	0.00000E+00,	0,	0
  5.76000E+03,	1.00000E+01,	-1.64147E-02,	1.99748E+01,	2.46609E+00,	-9.95741E-01,	0.00000E+00,	0,	0
  4.54737E+03,	1.00000E+01,	-1.64147E-02,	2.08324E+01,	2.51434E+00,	-1.25371E+00,	0.00000E+00,	0,	0
  3.60000E+03,	1.00000E+01,	-1.64147E-02,	2.18449E+01,	2.57330E+00,	-1.55597E+00,	0.00000E+00,	0,	0
  2.88000E+03,	1.00000E+01,	-1.64147E-02,	2.27732E+01,	2.64475E+00,	-1.91237E+00,	0.00000E+00,	0,	0
  2.27368E+03,	1.00000E+01,	-1.64147E-02,	2.50802E+01,	2.71697E+00,	-2.34609E+00,	0.00000E+00,	0,	0
  1.78144E+03,	1.00000E+01,	-1.64147E-02,	2.58727E+01,	2.83523E+00,	-2.92017E+00,	0.00000E+00,	0,	0
  1.41639E+03,	1.00000E+01,	-1.64147E-02,	2.67774E+01,	2.98641E+00,	-3.58485E+00,	0.00000E+00,	0,	0
  1.12208E+03,	1.00000E+01,	-1.64147E-02,	2.78264E+01,	3.16651E+00,	-4.40499E+00,	0.00000E+00,	0,	0
  9.00000E+02,	1.00000E+01,	-1.64147E-02,	3.28547E+01,	3.41556E+00,	-5.36496E+00,	0.00000E+00,	0,	0
  7.20000E+02,	1.00000E+01,	-1.64147E-02,	3.42428E+01,	3.71708E+00,	-6.51145E+00,	0.00000E+00,	0,	0
  5.68421E+02,	1.00000E+01,	-1.64147E-02,	3.56420E+01,	4.13406E+00,	-7.98041E+00,	0.00000E+00,	0,	0
  4.40816E+02,	1.00000E+01,	-1.64147E-02,	3.71130E+01,	4.71621E+00,	-9.89007E+00,	0.00000E+00,	0,	0
  3.54098E+02,	1.00000E+01,	-1.64147E-02,	3.94647E+01,	5.35119E+00,	-1.18566E+01,	0.00000E+00,	0,	0
  2.76923E+02,	1.00000E+01,	-1.64147E-02,	4.20917E+01,	6.23645E+00,	-1.44740E+01,	0.00000E+00,	0,	0
  2.20408E+02,	1.00000E+01,	-1.64147E-02,	4.50216E+01,	7.22396E+00,	-1.73575E+01,	0.00000E+00,	0,	0
  1.74194E+02,	1.00000E+01,	-1.64147E-02,	4.83132E+01,	8.41102E+00,	-2.08775E+01,	0.00000E+00,	0,	0
  1.37580E+02,	1.00000E+01,	-1.64147E-02,	5.19770E+01,	9.77563E+00,	-2.51117E+01,	0.00000E+00,	0,	0
  1.09091E+02,	1.00000E+01,	-1.64147E-02,	5.60616E+01,	1.12757E+01,	-3.01393E+01,	0.00000E+00,	0,	0
  8.70968E+01,	1.00000E+01,	-1.64147E-02,	6.42138E+01,	1.29209E+01,	-3.61904E+01,	0.00000E+00,	0,	0
  6.83544E+01,	1.00000E+01,	-1.64147E-02,	6.92367E+01,	1.48850E+01,	-4.42475E+01,	0.00000E+00,	0,	0
  5.45455E+01,	1.00000E+01,	-1.64147E-02,	7.47048E+01,	1.70919E+01,	-5.24188E+01,	0.00000E+00,	0,	0
  4.28571E+01,	1.00000E+01,	-1.64147E-02,	7.82537E+01,	1.96350E+01,	-6.39644E+01,	0.00000E+00,	0,	0
  3.39623E+01,	1.00000E+01,	-1.64147E-02,	8.20081E+01,	2.19468E+01,	-7.76208E+01,	0.00000E+00,	0,	0
  2.68657E+01,	1.00000E+01,	-1.64147E-02,	8.58760E+01,	2.53225E+01,	-9.50418E+01,	0.00000E+00,	0,	0
  2.13439E+01,	1.00000E+01,	-1.64147E-02,	8.97060E+01,	2.91035E+01,	-1.15957E+02,	0.00000E+00,	0,	0
  1.73077E+01,	1.00000E+01,	-1.64147E-02,	9.63914E+01,	3.30797E+01,	-1.39455E+02,	0.00000E+00,	0,	0
  1.36364E+01,	1.00000E+01,	-1.64147E-02,	1.01430E+02,	3.81095E+01,	-1.71858E+02,	0.00000E+00,	0,	0
  1.07143E+01,	1.00000E+01,	-1.64147E-02,	1.04360E+02,	4.40248E+01,	-2.12739E+02,	0.00000E+00,	0,	0
  8.49057E+00,	1.00000E+01,	-1.64147E-02,	1.08551E+02,	5.05628E+01,	-2.61957E+02,	0.00000E+00,	0,	0
  6.71642E+00,	1.00000E+01,	-1.64147E-02,	1.11062E+02,	5.82156E+01,	-3.23528E+02,	0.00000E+00,	0,	0
  5.29412E+00,	1.00000E+01,	-1.64147E-02,	1.14000E+02,	6.74279E+01,	-4.01271E+02,	0.00000E+00,	0,	0
  4.16667E+00,	1.00000E+01,	-1.64147E-02,	1.17490E+02,	7.81283E+01,	-4.99654E+02,	0.00000E+00,	0,	0
  3.30882E+00,	1.00000E+01,	-1.64147E-02,	1.21736E+02,	9.03277E+01,	-6.17853E+02,	0.00000E+00,	0,	0
  2.61628E+00,	1.00000E+01,	-1.64147E-02,	1.25750E+02,	1.05667E+02,	-7.67986E+02,	0.00000E+00,	0,	0
  2.07373E+00,	1.00000E+01,	-1.64147E-02,	1.30538E+02,	1.23836E+02,	-9.53733E+02,	0.00000E+00,	0,	0
  1.64234E+00,	1.00000E+01,	-1.64147E-02,	1.36354E+02,	1.46427E+02,	-1.18627E+03,	0.00000E+00,	0,	0
  1.30058E+00,	1.00000E+01,	-1.64147E-02,	1.40527E+02,	1.75690E+02,	-1.47669E+03,	0.00000E+00,	0,	0
  1.03211E+00,	1.00000E+01,	-1.64147E-02,	1.44922E+02,	2.11881E+02,	-1.83552E+03,	0.00000E+00,	0,	0
  8.15217E-01,	1.00000E+01,	-1.64147E-02,	1.51874E+02,	2.59266E+02,	-2.29069E+03,	0.00000E+00,	0,	0
  6.46552E-01,	1.00000E+01,	-1.64147E-02,	1.60999E+02,	3.18167E+02,	-2.84650E+03,	0.00000E+00,	0,	0
  5.11364E-01,	1.00000E+01,	-1.64147E-02,	1.66012E+02,	3.87021E+02,	-3.54817E+03,	0.00000E+00,	0,	0
  4.07609E-01,	1.00000E+01,	-1.64147E-02,	1.72066E+02,	4.84401E+02,	-4.39160E+03,	0.00000E+00,	0,	0
  3.21429E-01,	1.00000E+01,	-1.64147E-02,	1.79191E+02,	6.11799E+02,	-5.51040E+03,	0.00000E+00,	0,	0
  2.54525E-01,	1.00000E+01,	-1.64147E-02,	1.87997E+02,	7.88375E+02,	-6.85519E+03,	0.00000E+00,	0,	0
  2.01613E-01,	1.00000E+01,	-1.64147E-02,	1.98847E+02,	1.01864E+03,	-8.52627E+03,	0.00000E+00,	0,	0
  1.59574E-01,	1.00000E+01,	-1.64147E-02,	2.12328E+02,	1.32761E+03,	-1.06032E+04,	0.00000E+00,	0,	0
  1.26689E-01,	1.00000E+01,	-1.64147E-02,	2.46217E+02,	1.75567E+03,	-1.30659E+04,	0.00000E+00,	0,	0
  1.00446E-01,	1.00000E+01,	-1.64147E-02,	2.67118E+02,	2.24430E+03,	-1.63210E+04,	0.00000E+00,	0,	0