Z60W Data File: Version 1.1
CorrTest for Windows: SN CS310H1805157  V5.2.1111.9  2.5H6.220118
Sweep Frequency: Control Voltage
  Date:5-1-2026   Time:19:51:51
  Begin Information:            Cell Information
      Surface Area:           1
      Density:                7.8
      Weight:                 28
  End Information:              Cell Information
  Freq (Hz)     Ampl(mV)       Bias(V)      Time(Sec)       Z'(Ohm.cm^2)    Z''(Ohm.cm^2)        GD       Err      Range
End Comments
  3.07200E+05,	1.00000E+01,	-2.75511E-02,	5.45222E-02,	6.64918E+02,	-6.35824E+02,	0.00000E+00,	0,	0
  2.76480E+05,	1.00000E+01,	-2.75511E-02,	1.66629E+00,	6.84214E+02,	-6.90798E+02,	0.00000E+00,	0,	0
  1.97486E+05,	1.00000E+01,	-2.75511E-02,	2.58731E+00,	7.93569E+02,	-9.23906E+02,	0.00000E+00,	0,	0
  1.53600E+05,	1.00000E+01,	-2.75511E-02,	3.58834E+00,	9.19364E+02,	-1.10019E+03,	0.00000E+00,	0,	0
  1.25673E+05,	1.00000E+01,	-2.75511E-02,	4.52135E+00,	1.04597E+03,	-1.24004E+03,	0.00000E+00,	0,	0
  9.87429E+04,	1.00000E+01,	-2.75511E-02,	5.43670E+00,	1.26756E+03,	-1.47472E+03,	0.00000E+00,	0,	0
  7.68000E+04,	1.00000E+01,	-2.75511E-02,	6.32830E+00,	1.54160E+03,	-1.75551E+03,	0.00000E+00,	0,	0
  6.01043E+04,	1.00000E+01,	-2.75511E-02,	8.46581E+00,	1.84753E+03,	-1.85649E+03,	0.00000E+00,	0,	0
  4.93714E+04,	1.00000E+01,	-2.75511E-02,	1.00464E+01,	2.21852E+03,	-1.99726E+03,	0.00000E+00,	0,	0
  3.84000E+04,	1.00000E+01,	-2.75511E-02,	1.09470E+01,	2.66657E+03,	-2.05800E+03,	0.00000E+00,	0,	0
  3.00522E+04,	1.00000E+01,	-2.75511E-02,	1.18224E+01,	2.86892E+03,	-2.66455E+03,	0.00000E+00,	0,	0
  2.38345E+04,	1.00000E+01,	-2.75511E-02,	1.26921E+01,	3.61235E+03,	-1.91751E+03,	0.00000E+00,	0,	0
  1.86811E+04,	1.00000E+01,	-2.75511E-02,	1.35359E+01,	3.49402E+03,	-1.29623E+03,	0.00000E+00,	0,	0
  1.47064E+04,	1.00000E+01,	-2.75511E-02,	1.45147E+01,	4.31596E+03,	-1.61183E+03,	0.00000E+00,	0,	0
  1.15200E+04,	1.00000E+01,	-2.75511E-02,	1.54744E+01,	4.52929E+03,	-1.36659E+03,	0.00000E+00,	0,	0
  9.60000E+03,	1.00000E+01,	-2.75511E-02,	1.70449E+01,	4.64079E+03,	-1.19480E+03,	0.00000E+00,	0,	0
  7.51304E+03,	1.00000E+01,	-2.75511E-02,	1.79294E+01,	4.78107E+03,	-1.03906E+03,	0.00000E+00,	0,	0
  5.76000E+03,	1.00000E+01,	-2.75511E-02,	1.88413E+01,	4.89672E+03,	-8.50557E+02,	0.00000E+00,	0,	0
  4.54737E+03,	1.00000E+01,	-2.75511E-02,	1.97208E+01,	4.95904E+03,	-6.90827E+02,	0.00000E+00,	0,	0
  3.60000E+03,	1.00000E+01,	-2.75511E-02,	2.07147E+01,	4.99848E+03,	-6.20235E+02,	0.00000E+00,	0,	0
  2.88000E+03,	1.00000E+01,	-2.75511E-02,	2.16253E+01,	5.04495E+03,	-5.40929E+02,	0.00000E+00,	0,	0
  2.27368E+03,	1.00000E+01,	-2.75511E-02,	2.27583E+01,	5.16346E+03,	-5.61778E+02,	0.00000E+00,	0,	0
  1.78144E+03,	1.00000E+01,	-2.75511E-02,	2.35678E+01,	5.17451E+03,	-3.74378E+02,	0.00000E+00,	0,	0
  1.41639E+03,	1.00000E+01,	-2.75511E-02,	2.44664E+01,	5.18763E+03,	-4.92973E+02,	0.00000E+00,	0,	0
  1.12208E+03,	1.00000E+01,	-2.75511E-02,	2.54832E+01,	5.44136E+03,	-5.52931E+02,	0.00000E+00,	0,	0
  9.00000E+02,	1.00000E+01,	-2.75511E-02,	3.04900E+01,	5.39903E+03,	-4.70844E+02,	0.00000E+00,	0,	0
  7.20000E+02,	1.00000E+01,	-2.75511E-02,	3.18543E+01,	5.47350E+03,	-4.62798E+02,	0.00000E+00,	0,	0
  5.68421E+02,	1.00000E+01,	-2.75511E-02,	3.32260E+01,	5.55552E+03,	-4.32092E+02,	0.00000E+00,	0,	0
  4.40816E+02,	1.00000E+01,	-2.75511E-02,	3.62851E+01,	5.63310E+03,	-3.96589E+02,	0.00000E+00,	0,	0
  3.54098E+02,	1.00000E+01,	-2.75511E-02,	3.86595E+01,	5.70175E+03,	-3.55178E+02,	0.00000E+00,	0,	0
  2.76923E+02,	1.00000E+01,	-2.75511E-02,	4.13131E+01,	5.75712E+03,	-3.18533E+02,	0.00000E+00,	0,	0
  2.20408E+02,	1.00000E+01,	-2.75511E-02,	4.42698E+01,	5.79869E+03,	-2.89112E+02,	0.00000E+00,	0,	0
  1.74194E+02,	1.00000E+01,	-2.75511E-02,	4.75286E+01,	5.84336E+03,	-2.66345E+02,	0.00000E+00,	0,	0
  1.37580E+02,	1.00000E+01,	-2.75511E-02,	5.12226E+01,	5.87738E+03,	-2.49851E+02,	0.00000E+00,	0,	0
  1.09091E+02,	1.00000E+01,	-2.75511E-02,	5.52914E+01,	5.90866E+03,	-2.40853E+02,	0.00000E+00,	0,	0
  8.70968E+01,	1.00000E+01,	-2.75511E-02,	6.09953E+01,	5.95826E+03,	-2.55119E+02,	0.00000E+00,	0,	0
  6.83544E+01,	1.00000E+01,	-2.75511E-02,	6.60342E+01,	6.03178E+03,	-2.81509E+02,	0.00000E+00,	0,	0
  5.45455E+01,	1.00000E+01,	-2.75511E-02,	7.14912E+01,	5.99502E+03,	-2.55536E+02,	0.00000E+00,	0,	0
  4.28571E+01,	1.00000E+01,	-2.75511E-02,	7.50155E+01,	6.02660E+03,	-2.84204E+02,	0.00000E+00,	0,	0
  3.39623E+01,	1.00000E+01,	-2.75511E-02,	7.87387E+01,	6.03433E+03,	-3.55298E+02,	0.00000E+00,	0,	0
  2.68657E+01,	1.00000E+01,	-2.75511E-02,	8.25923E+01,	6.09353E+03,	-3.98318E+02,	0.00000E+00,	0,	0
  2.13439E+01,	1.00000E+01,	-2.75511E-02,	8.64041E+01,	6.14103E+03,	-4.58551E+02,	0.00000E+00,	0,	0
  1.73077E+01,	1.00000E+01,	-2.75511E-02,	9.00892E+01,	6.18379E+03,	-5.29555E+02,	0.00000E+00,	0,	0
  1.36364E+01,	1.00000E+01,	-2.75511E-02,	9.51190E+01,	6.24053E+03,	-6.31209E+02,	0.00000E+00,	0,	0
  1.07143E+01,	1.00000E+01,	-2.75511E-02,	9.80509E+01,	6.29598E+03,	-7.59978E+02,	0.00000E+00,	0,	0
  8.49057E+00,	1.00000E+01,	-2.75511E-02,	1.02261E+02,	6.36243E+03,	-9.07402E+02,	0.00000E+00,	0,	0
  6.71642E+00,	1.00000E+01,	-2.75511E-02,	1.04804E+02,	6.42752E+03,	-1.09908E+03,	0.00000E+00,	0,	0
  5.29412E+00,	1.00000E+01,	-2.75511E-02,	1.07734E+02,	6.50417E+03,	-1.33355E+03,	0.00000E+00,	0,	0
  4.16667E+00,	1.00000E+01,	-2.75511E-02,	1.11211E+02,	6.60000E+03,	-1.62036E+03,	0.00000E+00,	0,	0
  3.30882E+00,	1.00000E+01,	-2.75511E-02,	1.15460E+02,	6.70750E+03,	-1.95549E+03,	0.00000E+00,	0,	0
  2.61628E+00,	1.00000E+01,	-2.75511E-02,	1.19440E+02,	6.83334E+03,	-2.37279E+03,	0.00000E+00,	0,	0
  2.07373E+00,	1.00000E+01,	-2.75511E-02,	1.24201E+02,	6.97797E+03,	-2.88167E+03,	0.00000E+00,	0,	0
  1.64234E+00,	1.00000E+01,	-2.75511E-02,	1.29999E+02,	7.14812E+03,	-3.50311E+03,	0.00000E+00,	0,	0
  1.30058E+00,	1.00000E+01,	-2.75511E-02,	1.34168E+02,	7.33102E+03,	-4.26724E+03,	0.00000E+00,	0,	0
  1.03211E+00,	1.00000E+01,	-2.75511E-02,	1.38579E+02,	7.58064E+03,	-5.18114E+03,	0.00000E+00,	0,	0
  8.15217E-01,	1.00000E+01,	-2.75511E-02,	1.45516E+02,	7.83457E+03,	-6.36712E+03,	0.00000E+00,	0,	0
  6.46552E-01,	1.00000E+01,	-2.75511E-02,	1.50329E+02,	8.15301E+03,	-7.76558E+03,	0.00000E+00,	0,	0
  5.11364E-01,	1.00000E+01,	-2.75511E-02,	1.55342E+02,	8.48736E+03,	-9.83000E+03,	0.00000E+00,	0,	0
  4.07609E-01,	1.00000E+01,	-2.75511E-02,	1.61392E+02,	8.99871E+03,	-1.19126E+04,	0.00000E+00,	0,	0
  3.21429E-01,	1.00000E+01,	-2.75511E-02,	1.68516E+02,	9.98834E+03,	-1.49951E+04,	0.00000E+00,	0,	0
  2.54525E-01,	1.00000E+01,	-2.75511E-02,	1.77287E+02,	1.08258E+04,	-1.81855E+04,	0.00000E+00,	0,	0
  2.01613E-01,	1.00000E+01,	-2.75511E-02,	1.88117E+02,	1.18978E+04,	-2.21196E+04,	0.00000E+00,	0,	0
  1.59574E-01,	1.00000E+01,	-2.75511E-02,	2.01579E+02,	1.32537E+04,	-2.69013E+04,	0.00000E+00,	0,	0
  1.26689E-01,	1.00000E+01,	-2.75511E-02,	2.35483E+02,	1.47859E+04,	-3.18993E+04,	0.00000E+00,	0,	0
  1.00446E-01,	1.00000E+01,	-2.75511E-02,	2.56344E+02,	1.70341E+04,	-4.02499E+04,	0.00000E+00,	0,	0