Z60W Data File: Version 1.1
CorrTest for Windows: SN CS310H1805157  V5.2.1111.9  2.5H6.220118
Sweep Frequency: Control Voltage
  Date:5-1-2026   Time:09:30:31
  Begin Information:            Cell Information
      Surface Area:           1
      Density:                7.8
      Weight:                 28
  End Information:              Cell Information
  Freq (Hz)     Ampl(mV)       Bias(V)      Time(Sec)       Z'(Ohm.cm^2)    Z''(Ohm.cm^2)        GD       Err      Range
End Comments
  3.07200E+05,	1.00000E+01,	-1.70258E-02,	3.79205E-02,	1.43139E-01,	4.23600E+00,	0.00000E+00,	0,	0
  2.76480E+05,	1.00000E+01,	-1.70258E-02,	1.66023E+00,	7.19167E-01,	3.19807E+00,	0.00000E+00,	0,	0
  1.97486E+05,	1.00000E+01,	-1.70258E-02,	2.60242E+00,	1.55843E+00,	2.25202E+00,	0.00000E+00,	0,	0
  1.53600E+05,	1.00000E+01,	-1.70258E-02,	3.52247E+00,	1.92638E+00,	1.68582E+00,	0.00000E+00,	0,	0
  1.25673E+05,	1.00000E+01,	-1.70258E-02,	4.44820E+00,	2.11824E+00,	1.33653E+00,	0.00000E+00,	0,	0
  9.87429E+04,	1.00000E+01,	-1.70258E-02,	5.35477E+00,	2.28988E+00,	1.01649E+00,	0.00000E+00,	0,	0
  7.68000E+04,	1.00000E+01,	-1.70258E-02,	6.25880E+00,	2.39862E+00,	7.53903E-01,	0.00000E+00,	0,	0
  6.01043E+04,	1.00000E+01,	-1.70258E-02,	9.46046E+00,	2.47646E+00,	5.19053E-01,	0.00000E+00,	0,	0
  4.93714E+04,	1.00000E+01,	-1.70258E-02,	1.10414E+01,	2.49789E+00,	3.81003E-01,	0.00000E+00,	0,	0
  3.84000E+04,	1.00000E+01,	-1.70258E-02,	1.19566E+01,	2.50667E+00,	2.31432E-01,	0.00000E+00,	0,	0
  3.00522E+04,	1.00000E+01,	-1.70258E-02,	1.28216E+01,	2.51364E+00,	1.00704E-01,	0.00000E+00,	0,	0
  2.38345E+04,	1.00000E+01,	-1.70258E-02,	1.37329E+01,	2.52655E+00,	-1.90785E-02,	0.00000E+00,	0,	0
  1.86811E+04,	1.00000E+01,	-1.70258E-02,	1.45922E+01,	2.53844E+00,	-1.41085E-01,	0.00000E+00,	0,	0
  1.47064E+04,	1.00000E+01,	-1.70258E-02,	1.55608E+01,	2.55308E+00,	-2.62750E-01,	0.00000E+00,	0,	0
  1.15200E+04,	1.00000E+01,	-1.70258E-02,	1.65525E+01,	2.57454E+00,	-4.02536E-01,	0.00000E+00,	0,	0
  9.60000E+03,	1.00000E+01,	-1.70258E-02,	1.81294E+01,	2.59492E+00,	-5.11932E-01,	0.00000E+00,	0,	0
  7.51304E+03,	1.00000E+01,	-1.70258E-02,	1.90297E+01,	2.62296E+00,	-6.83008E-01,	0.00000E+00,	0,	0
  5.76000E+03,	1.00000E+01,	-1.70258E-02,	1.99486E+01,	2.66546E+00,	-9.02236E-01,	0.00000E+00,	0,	0
  4.54737E+03,	1.00000E+01,	-1.70258E-02,	2.08529E+01,	2.70901E+00,	-1.13747E+00,	0.00000E+00,	0,	0
  3.60000E+03,	1.00000E+01,	-1.70258E-02,	2.18546E+01,	2.76196E+00,	-1.42096E+00,	0.00000E+00,	0,	0
  2.88000E+03,	1.00000E+01,	-1.70258E-02,	2.27799E+01,	2.83003E+00,	-1.74542E+00,	0.00000E+00,	0,	0
  2.27368E+03,	1.00000E+01,	-1.70258E-02,	2.50738E+01,	2.42859E+00,	-2.14982E+00,	0.00000E+00,	0,	0
  1.78144E+03,	1.00000E+01,	-1.70258E-02,	2.58788E+01,	2.54076E+00,	-2.67667E+00,	0.00000E+00,	0,	0
  1.41639E+03,	1.00000E+01,	-1.70258E-02,	2.68163E+01,	2.68266E+00,	-3.28623E+00,	0.00000E+00,	0,	0
  1.12208E+03,	1.00000E+01,	-1.70258E-02,	2.78681E+01,	2.86051E+00,	-4.03427E+00,	0.00000E+00,	0,	0
  9.00000E+02,	1.00000E+01,	-1.70258E-02,	3.28761E+01,	3.09197E+00,	-4.90449E+00,	0.00000E+00,	0,	0
  7.20000E+02,	1.00000E+01,	-1.70258E-02,	3.42708E+01,	3.38039E+00,	-5.94911E+00,	0.00000E+00,	0,	0
  5.68421E+02,	1.00000E+01,	-1.70258E-02,	3.56580E+01,	3.77030E+00,	-7.27730E+00,	0.00000E+00,	0,	0
  4.40816E+02,	1.00000E+01,	-1.70258E-02,	3.71252E+01,	4.31473E+00,	-8.99824E+00,	0.00000E+00,	0,	0
  3.54098E+02,	1.00000E+01,	-1.70258E-02,	3.94940E+01,	4.89893E+00,	-1.07699E+01,	0.00000E+00,	0,	0
  2.76923E+02,	1.00000E+01,	-1.70258E-02,	4.21723E+01,	5.69687E+00,	-1.31126E+01,	0.00000E+00,	0,	0
  2.20408E+02,	1.00000E+01,	-1.70258E-02,	4.51251E+01,	6.57586E+00,	-1.57195E+01,	0.00000E+00,	0,	0
  1.74194E+02,	1.00000E+01,	-1.70258E-02,	4.83950E+01,	7.61453E+00,	-1.89083E+01,	0.00000E+00,	0,	0
  1.37580E+02,	1.00000E+01,	-1.70258E-02,	5.21054E+01,	8.79489E+00,	-2.27590E+01,	0.00000E+00,	0,	0
  1.09091E+02,	1.00000E+01,	-1.70258E-02,	5.61849E+01,	1.00837E+01,	-2.73596E+01,	0.00000E+00,	0,	0
  8.70968E+01,	1.00000E+01,	-1.70258E-02,	6.43477E+01,	1.15104E+01,	-3.29396E+01,	0.00000E+00,	0,	0
  6.83544E+01,	1.00000E+01,	-1.70258E-02,	6.93789E+01,	1.32149E+01,	-4.03783E+01,	0.00000E+00,	0,	0
  5.45455E+01,	1.00000E+01,	-1.70258E-02,	7.48797E+01,	1.51601E+01,	-4.79562E+01,	0.00000E+00,	0,	0
  4.28571E+01,	1.00000E+01,	-1.70258E-02,	7.84370E+01,	1.74024E+01,	-5.86538E+01,	0.00000E+00,	0,	0
  3.39623E+01,	1.00000E+01,	-1.70258E-02,	8.21623E+01,	1.94323E+01,	-7.13105E+01,	0.00000E+00,	0,	0
  2.68657E+01,	1.00000E+01,	-1.70258E-02,	8.60332E+01,	2.24352E+01,	-8.74857E+01,	0.00000E+00,	0,	0
  2.13439E+01,	1.00000E+01,	-1.70258E-02,	8.98859E+01,	2.57945E+01,	-1.06918E+02,	0.00000E+00,	0,	0
  1.73077E+01,	1.00000E+01,	-1.70258E-02,	9.65763E+01,	2.93343E+01,	-1.28768E+02,	0.00000E+00,	0,	0
  1.36364E+01,	1.00000E+01,	-1.70258E-02,	1.01631E+02,	3.38399E+01,	-1.59014E+02,	0.00000E+00,	0,	0
  1.07143E+01,	1.00000E+01,	-1.70258E-02,	1.04552E+02,	3.91345E+01,	-1.97086E+02,	0.00000E+00,	0,	0
  8.49057E+00,	1.00000E+01,	-1.70258E-02,	1.08794E+02,	4.50167E+01,	-2.42931E+02,	0.00000E+00,	0,	0
  6.71642E+00,	1.00000E+01,	-1.70258E-02,	1.11300E+02,	5.20070E+01,	-3.00482E+02,	0.00000E+00,	0,	0
  5.29412E+00,	1.00000E+01,	-1.70258E-02,	1.14241E+02,	6.05584E+01,	-3.73325E+02,	0.00000E+00,	0,	0
  4.16667E+00,	1.00000E+01,	-1.70258E-02,	1.17717E+02,	7.06817E+01,	-4.65345E+02,	0.00000E+00,	0,	0
  3.30882E+00,	1.00000E+01,	-1.70258E-02,	1.21942E+02,	8.24358E+01,	-5.76022E+02,	0.00000E+00,	0,	0
  2.61628E+00,	1.00000E+01,	-1.70258E-02,	1.25935E+02,	9.75927E+01,	-7.16259E+02,	0.00000E+00,	0,	0
  2.07373E+00,	1.00000E+01,	-1.70258E-02,	1.30746E+02,	1.15908E+02,	-8.89905E+02,	0.00000E+00,	0,	0
  1.64234E+00,	1.00000E+01,	-1.70258E-02,	1.36544E+02,	1.38957E+02,	-1.10705E+03,	0.00000E+00,	0,	0
  1.30058E+00,	1.00000E+01,	-1.70258E-02,	1.40716E+02,	1.69254E+02,	-1.37773E+03,	0.00000E+00,	0,	0
  1.03211E+00,	1.00000E+01,	-1.70258E-02,	1.45152E+02,	2.07392E+02,	-1.71190E+03,	0.00000E+00,	0,	0
  8.15217E-01,	1.00000E+01,	-1.70258E-02,	1.52124E+02,	2.58530E+02,	-2.13554E+03,	0.00000E+00,	0,	0
  6.46552E-01,	1.00000E+01,	-1.70258E-02,	1.61207E+02,	3.22996E+02,	-2.65177E+03,	0.00000E+00,	0,	0
  5.11364E-01,	1.00000E+01,	-1.70258E-02,	1.66250E+02,	4.00962E+02,	-3.30255E+03,	0.00000E+00,	0,	0
  4.07609E-01,	1.00000E+01,	-1.70258E-02,	1.72326E+02,	5.11112E+02,	-4.08395E+03,	0.00000E+00,	0,	0
  3.21429E-01,	1.00000E+01,	-1.70258E-02,	1.79466E+02,	6.60984E+02,	-5.11743E+03,	0.00000E+00,	0,	0
  2.54525E-01,	1.00000E+01,	-1.70258E-02,	1.88274E+02,	8.69596E+02,	-6.35672E+03,	0.00000E+00,	0,	0
  2.01613E-01,	1.00000E+01,	-1.70258E-02,	1.99138E+02,	1.14805E+03,	-7.89194E+03,	0.00000E+00,	0,	0
  1.59574E-01,	1.00000E+01,	-1.70258E-02,	2.12630E+02,	1.53115E+03,	-9.79198E+03,	0.00000E+00,	0,	0
  1.26689E-01,	1.00000E+01,	-1.70258E-02,	2.46518E+02,	2.05589E+03,	-1.20395E+04,	0.00000E+00,	0,	0
  1.00446E-01,	1.00000E+01,	-1.70258E-02,	2.67380E+02,	2.70696E+03,	-1.50004E+04,	0.00000E+00,	0,	0