Z60W Data File: Version 1.1
CorrTest for Windows: SN CS310H1805157  V5.2.1111.9  2.5H6.220118
Sweep Frequency: Control Voltage
  Date:5-1-2026   Time:20:08:37
  Begin Information:            Cell Information
      Surface Area:           1
      Density:                7.8
      Weight:                 28
  End Information:              Cell Information
  Freq (Hz)     Ampl(mV)       Bias(V)      Time(Sec)       Z'(Ohm.cm^2)    Z''(Ohm.cm^2)        GD       Err      Range
End Comments
  3.07200E+05,	1.00000E+01,	-2.85746E-02,	2.70722E-02,	6.45206E+02,	-7.32678E+02,	0.00000E+00,	0,	0
  2.76480E+05,	1.00000E+01,	-2.85746E-02,	1.62550E+00,	6.43766E+02,	-8.04507E+02,	0.00000E+00,	0,	0
  1.97486E+05,	1.00000E+01,	-2.85746E-02,	2.53444E+00,	7.52940E+02,	-1.08633E+03,	0.00000E+00,	0,	0
  1.53600E+05,	1.00000E+01,	-2.85746E-02,	3.42788E+00,	8.31326E+02,	-1.34325E+03,	0.00000E+00,	0,	0
  1.25673E+05,	1.00000E+01,	-2.85746E-02,	4.31826E+00,	9.12008E+02,	-1.61981E+03,	0.00000E+00,	0,	0
  9.87429E+04,	1.00000E+01,	-2.85746E-02,	5.22220E+00,	1.09795E+03,	-1.94719E+03,	0.00000E+00,	0,	0
  7.68000E+04,	1.00000E+01,	-2.85746E-02,	6.11452E+00,	1.38632E+03,	-2.39167E+03,	0.00000E+00,	0,	0
  6.01043E+04,	1.00000E+01,	-2.85746E-02,	8.24961E+00,	1.74070E+03,	-2.70547E+03,	0.00000E+00,	0,	0
  4.93714E+04,	1.00000E+01,	-2.85746E-02,	9.83769E+00,	2.10504E+03,	-3.16111E+03,	0.00000E+00,	0,	0
  3.84000E+04,	1.00000E+01,	-2.85746E-02,	1.07302E+01,	2.76197E+03,	-3.65074E+03,	0.00000E+00,	0,	0
  3.00522E+04,	1.00000E+01,	-2.85746E-02,	1.15827E+01,	5.09177E+03,	-2.90212E+03,	0.00000E+00,	0,	0
  2.38345E+04,	1.00000E+01,	-2.85746E-02,	1.24501E+01,	4.47963E+03,	-4.10926E+03,	0.00000E+00,	0,	0
  1.86811E+04,	1.00000E+01,	-2.85746E-02,	1.33106E+01,	5.06690E+03,	-4.33353E+03,	0.00000E+00,	0,	0
  1.47064E+04,	1.00000E+01,	-2.85746E-02,	1.42793E+01,	6.34992E+03,	-4.20781E+03,	0.00000E+00,	0,	0
  1.15200E+04,	1.00000E+01,	-2.85746E-02,	1.52550E+01,	7.12279E+03,	-3.79921E+03,	0.00000E+00,	0,	0
  9.60000E+03,	1.00000E+01,	-2.85746E-02,	1.68382E+01,	7.71158E+03,	-3.60963E+03,	0.00000E+00,	0,	0
  7.51304E+03,	1.00000E+01,	-2.85746E-02,	1.77602E+01,	8.27411E+03,	-3.17581E+03,	0.00000E+00,	0,	0
  5.76000E+03,	1.00000E+01,	-2.85746E-02,	1.86684E+01,	8.86133E+03,	-2.50405E+03,	0.00000E+00,	0,	0
  4.54737E+03,	1.00000E+01,	-2.85746E-02,	1.95769E+01,	9.09191E+03,	-2.24099E+03,	0.00000E+00,	0,	0
  3.60000E+03,	1.00000E+01,	-2.85746E-02,	2.05676E+01,	9.42450E+03,	-2.16256E+03,	0.00000E+00,	0,	0
  2.88000E+03,	1.00000E+01,	-2.85746E-02,	2.14454E+01,	9.04425E+03,	-1.51985E+03,	0.00000E+00,	0,	0
  2.27368E+03,	1.00000E+01,	-2.85746E-02,	2.25871E+01,	9.31568E+03,	-1.52551E+03,	0.00000E+00,	0,	0
  1.78144E+03,	1.00000E+01,	-2.85746E-02,	2.34007E+01,	9.22220E+03,	-7.35074E+02,	0.00000E+00,	0,	0
  1.41639E+03,	1.00000E+01,	-2.85746E-02,	2.43127E+01,	1.03767E+04,	-9.70468E+02,	0.00000E+00,	0,	0
  1.12208E+03,	1.00000E+01,	-2.85746E-02,	2.53844E+01,	9.62325E+03,	-8.34691E+02,	0.00000E+00,	0,	0
  9.00000E+02,	1.00000E+01,	-2.85746E-02,	3.04220E+01,	1.00597E+04,	-1.04613E+03,	0.00000E+00,	0,	0
  7.20000E+02,	1.00000E+01,	-2.85746E-02,	3.18337E+01,	1.01647E+04,	-9.66647E+02,	0.00000E+00,	0,	0
  5.68421E+02,	1.00000E+01,	-2.85746E-02,	3.32142E+01,	1.03558E+04,	-9.19641E+02,	0.00000E+00,	0,	0
  4.40816E+02,	1.00000E+01,	-2.85746E-02,	3.62416E+01,	1.04981E+04,	-8.67715E+02,	0.00000E+00,	0,	0
  3.54098E+02,	1.00000E+01,	-2.85746E-02,	3.86107E+01,	1.06357E+04,	-8.02859E+02,	0.00000E+00,	0,	0
  2.76923E+02,	1.00000E+01,	-2.85746E-02,	4.12481E+01,	1.07816E+04,	-7.29588E+02,	0.00000E+00,	0,	0
  2.20408E+02,	1.00000E+01,	-2.85746E-02,	4.41763E+01,	1.08962E+04,	-6.48215E+02,	0.00000E+00,	0,	0
  1.74194E+02,	1.00000E+01,	-2.85746E-02,	4.74326E+01,	1.09974E+04,	-5.72125E+02,	0.00000E+00,	0,	0
  1.37580E+02,	1.00000E+01,	-2.85746E-02,	5.11012E+01,	1.10825E+04,	-5.22549E+02,	0.00000E+00,	0,	0
  1.09091E+02,	1.00000E+01,	-2.85746E-02,	5.51797E+01,	1.11514E+04,	-4.89396E+02,	0.00000E+00,	0,	0
  8.70968E+01,	1.00000E+01,	-2.85746E-02,	6.33136E+01,	1.12611E+04,	-4.54779E+02,	0.00000E+00,	0,	0
  6.83544E+01,	1.00000E+01,	-2.85746E-02,	6.83559E+01,	1.13982E+04,	-4.68367E+02,	0.00000E+00,	0,	0
  5.45455E+01,	1.00000E+01,	-2.85746E-02,	7.38457E+01,	1.13255E+04,	-3.90926E+02,	0.00000E+00,	0,	0
  4.28571E+01,	1.00000E+01,	-2.85746E-02,	7.74187E+01,	1.13786E+04,	-4.01743E+02,	0.00000E+00,	0,	0
  3.39623E+01,	1.00000E+01,	-2.85746E-02,	8.11648E+01,	1.13871E+04,	-4.95180E+02,	0.00000E+00,	0,	0
  2.68657E+01,	1.00000E+01,	-2.85746E-02,	8.50468E+01,	1.14835E+04,	-5.24737E+02,	0.00000E+00,	0,	0
  2.13439E+01,	1.00000E+01,	-2.85746E-02,	8.88621E+01,	1.15617E+04,	-5.81745E+02,	0.00000E+00,	0,	0
  1.73077E+01,	1.00000E+01,	-2.85746E-02,	9.25418E+01,	1.16199E+04,	-6.53215E+02,	0.00000E+00,	0,	0
  1.36364E+01,	1.00000E+01,	-2.85746E-02,	9.75805E+01,	1.17078E+04,	-7.63235E+02,	0.00000E+00,	0,	0
  1.07143E+01,	1.00000E+01,	-2.85746E-02,	1.00542E+02,	1.17785E+04,	-9.04434E+02,	0.00000E+00,	0,	0
  8.49057E+00,	1.00000E+01,	-2.85746E-02,	1.04739E+02,	1.18756E+04,	-1.07380E+03,	0.00000E+00,	0,	0
  6.71642E+00,	1.00000E+01,	-2.85746E-02,	1.07269E+02,	1.19526E+04,	-1.28911E+03,	0.00000E+00,	0,	0
  5.29412E+00,	1.00000E+01,	-2.85746E-02,	1.10229E+02,	1.20555E+04,	-1.54904E+03,	0.00000E+00,	0,	0
  4.16667E+00,	1.00000E+01,	-2.85746E-02,	1.13703E+02,	1.21860E+04,	-1.87611E+03,	0.00000E+00,	0,	0
  3.30882E+00,	1.00000E+01,	-2.85746E-02,	1.17947E+02,	1.23315E+04,	-2.25354E+03,	0.00000E+00,	0,	0
  2.61628E+00,	1.00000E+01,	-2.85746E-02,	1.21903E+02,	1.24942E+04,	-2.72465E+03,	0.00000E+00,	0,	0
  2.07373E+00,	1.00000E+01,	-2.85746E-02,	1.26658E+02,	1.26888E+04,	-3.28884E+03,	0.00000E+00,	0,	0
  1.64234E+00,	1.00000E+01,	-2.85746E-02,	1.32440E+02,	1.29154E+04,	-3.97871E+03,	0.00000E+00,	0,	0
  1.30058E+00,	1.00000E+01,	-2.85746E-02,	1.36627E+02,	1.31339E+04,	-4.82447E+03,	0.00000E+00,	0,	0
  1.03211E+00,	1.00000E+01,	-2.85746E-02,	1.41029E+02,	1.34747E+04,	-5.76131E+03,	0.00000E+00,	0,	0
  8.15217E-01,	1.00000E+01,	-2.85746E-02,	1.47966E+02,	1.37197E+04,	-7.11279E+03,	0.00000E+00,	0,	0
  6.46552E-01,	1.00000E+01,	-2.85746E-02,	1.52788E+02,	1.40636E+04,	-8.60076E+03,	0.00000E+00,	0,	0
  5.11364E-01,	1.00000E+01,	-2.85746E-02,	1.57777E+02,	1.45702E+04,	-1.11838E+04,	0.00000E+00,	0,	0
  4.07609E-01,	1.00000E+01,	-2.85746E-02,	1.63833E+02,	1.51134E+04,	-1.34362E+04,	0.00000E+00,	0,	0
  3.21429E-01,	1.00000E+01,	-2.85746E-02,	1.70953E+02,	1.64878E+04,	-1.68137E+04,	0.00000E+00,	0,	0
  2.54525E-01,	1.00000E+01,	-2.85746E-02,	1.79712E+02,	1.72711E+04,	-2.02970E+04,	0.00000E+00,	0,	0
  2.01613E-01,	1.00000E+01,	-2.85746E-02,	1.90560E+02,	1.83436E+04,	-2.47369E+04,	0.00000E+00,	0,	0
  1.59574E-01,	1.00000E+01,	-2.85746E-02,	2.04028E+02,	1.97096E+04,	-3.01693E+04,	0.00000E+00,	0,	0
  1.26689E-01,	1.00000E+01,	-2.85746E-02,	2.20930E+02,	2.14051E+04,	-3.66698E+04,	0.00000E+00,	0,	0
  1.00446E-01,	1.00000E+01,	-2.85746E-02,	2.41840E+02,	2.36227E+04,	-4.47360E+04,	0.00000E+00,	0,	0