Z60W Data File: Version 1.1
CorrTest for Windows: SN CS310H1805157  V5.2.1111.9  2.5H6.220118
Sweep Frequency: Control Voltage
  Date:5-1-2026   Time:18:43:42
  Begin Information:            Cell Information
      Surface Area:           1
      Density:                7.8
      Weight:                 28
  End Information:              Cell Information
  Freq (Hz)     Ampl(mV)       Bias(V)      Time(Sec)       Z'(Ohm.cm^2)    Z''(Ohm.cm^2)        GD       Err      Range
End Comments
  3.07200E+05,	1.00000E+01,	-2.26647E-02,	3.27662E-02,	3.60822E+02,	-6.18969E+01,	0.00000E+00,	0,	0
  2.76480E+05,	1.00000E+01,	-2.26647E-02,	1.63338E+00,	3.62183E+02,	-7.14247E+01,	0.00000E+00,	0,	0
  1.97486E+05,	1.00000E+01,	-2.26647E-02,	2.58971E+00,	3.90485E+02,	-9.52367E+01,	0.00000E+00,	0,	0
  1.53600E+05,	1.00000E+01,	-2.26647E-02,	3.49232E+00,	4.15874E+02,	-1.08742E+02,	0.00000E+00,	0,	0
  1.25673E+05,	1.00000E+01,	-2.26647E-02,	4.38733E+00,	4.36352E+02,	-1.16175E+02,	0.00000E+00,	0,	0
  9.87429E+04,	1.00000E+01,	-2.26647E-02,	5.31337E+00,	4.66816E+02,	-1.10042E+02,	0.00000E+00,	0,	0
  7.68000E+04,	1.00000E+01,	-2.26647E-02,	6.22905E+00,	4.89446E+02,	-1.02228E+02,	0.00000E+00,	0,	0
  6.01043E+04,	1.00000E+01,	-2.26647E-02,	7.22546E+00,	5.11315E+02,	-9.26210E+01,	0.00000E+00,	0,	0
  4.93714E+04,	1.00000E+01,	-2.26647E-02,	8.80408E+00,	5.26283E+02,	-8.31349E+01,	0.00000E+00,	0,	0
  3.84000E+04,	1.00000E+01,	-2.26647E-02,	9.70732E+00,	5.34721E+02,	-6.77034E+01,	0.00000E+00,	0,	0
  3.00522E+04,	1.00000E+01,	-2.26647E-02,	1.05799E+01,	5.48619E+02,	-8.26840E+01,	0.00000E+00,	0,	0
  2.38345E+04,	1.00000E+01,	-2.26647E-02,	1.14481E+01,	5.49493E+02,	-5.81665E+01,	0.00000E+00,	0,	0
  1.86811E+04,	1.00000E+01,	-2.26647E-02,	1.22905E+01,	5.60365E+02,	-5.26993E+01,	0.00000E+00,	0,	0
  1.47064E+04,	1.00000E+01,	-2.26647E-02,	1.32558E+01,	5.57197E+02,	-4.20766E+01,	0.00000E+00,	0,	0
  1.15200E+04,	1.00000E+01,	-2.26647E-02,	1.42302E+01,	5.63851E+02,	-4.16262E+01,	0.00000E+00,	0,	0
  9.60000E+03,	1.00000E+01,	-2.26647E-02,	1.58117E+01,	5.65906E+02,	-3.56305E+01,	0.00000E+00,	0,	0
  7.51304E+03,	1.00000E+01,	-2.26647E-02,	1.67150E+01,	5.73227E+02,	-3.47673E+01,	0.00000E+00,	0,	0
  5.76000E+03,	1.00000E+01,	-2.26647E-02,	1.76192E+01,	5.78613E+02,	-4.23991E+01,	0.00000E+00,	0,	0
  4.54737E+03,	1.00000E+01,	-2.26647E-02,	1.84820E+01,	5.82467E+02,	-3.82655E+01,	0.00000E+00,	0,	0
  3.60000E+03,	1.00000E+01,	-2.26647E-02,	1.95107E+01,	5.90583E+02,	-4.00644E+01,	0.00000E+00,	0,	0
  2.88000E+03,	1.00000E+01,	-2.26647E-02,	2.04282E+01,	5.96334E+02,	-3.86842E+01,	0.00000E+00,	0,	0
  2.27368E+03,	1.00000E+01,	-2.26647E-02,	2.27077E+01,	6.02552E+02,	-4.36153E+01,	0.00000E+00,	0,	0
  1.78144E+03,	1.00000E+01,	-2.26647E-02,	2.34998E+01,	6.10121E+02,	-3.96547E+01,	0.00000E+00,	0,	0
  1.41639E+03,	1.00000E+01,	-2.26647E-02,	2.43904E+01,	6.15984E+02,	-3.87465E+01,	0.00000E+00,	0,	0
  1.12208E+03,	1.00000E+01,	-2.26647E-02,	2.54267E+01,	6.22760E+02,	-2.79756E+01,	0.00000E+00,	0,	0
  9.00000E+02,	1.00000E+01,	-2.26647E-02,	3.04290E+01,	6.29497E+02,	-3.27564E+01,	0.00000E+00,	0,	0
  7.20000E+02,	1.00000E+01,	-2.26647E-02,	3.17967E+01,	6.32960E+02,	-3.18846E+01,	0.00000E+00,	0,	0
  5.68421E+02,	1.00000E+01,	-2.26647E-02,	3.31582E+01,	6.36049E+02,	-3.16679E+01,	0.00000E+00,	0,	0
  4.40816E+02,	1.00000E+01,	-2.26647E-02,	3.45975E+01,	6.39169E+02,	-3.24313E+01,	0.00000E+00,	0,	0
  3.54098E+02,	1.00000E+01,	-2.26647E-02,	3.69479E+01,	6.41693E+02,	-3.45676E+01,	0.00000E+00,	0,	0
  2.76923E+02,	1.00000E+01,	-2.26647E-02,	3.96095E+01,	6.45016E+02,	-3.82542E+01,	0.00000E+00,	0,	0
  2.20408E+02,	1.00000E+01,	-2.26647E-02,	4.25470E+01,	6.48195E+02,	-4.31460E+01,	0.00000E+00,	0,	0
  1.74194E+02,	1.00000E+01,	-2.26647E-02,	4.58318E+01,	6.51848E+02,	-4.97956E+01,	0.00000E+00,	0,	0
  1.37580E+02,	1.00000E+01,	-2.26647E-02,	4.94982E+01,	6.56436E+02,	-5.90534E+01,	0.00000E+00,	0,	0
  1.09091E+02,	1.00000E+01,	-2.26647E-02,	5.35642E+01,	6.61486E+02,	-7.08090E+01,	0.00000E+00,	0,	0
  8.70968E+01,	1.00000E+01,	-2.26647E-02,	5.92749E+01,	6.68214E+02,	-8.44152E+01,	0.00000E+00,	0,	0
  6.83544E+01,	1.00000E+01,	-2.26647E-02,	6.43053E+01,	6.78748E+02,	-1.03559E+02,	0.00000E+00,	0,	0
  5.45455E+01,	1.00000E+01,	-2.26647E-02,	6.97597E+01,	6.78268E+02,	-1.17463E+02,	0.00000E+00,	0,	0
  4.28571E+01,	1.00000E+01,	-2.26647E-02,	7.32975E+01,	6.85772E+02,	-1.43293E+02,	0.00000E+00,	0,	0
  3.39623E+01,	1.00000E+01,	-2.26647E-02,	7.70161E+01,	6.91120E+02,	-1.76707E+02,	0.00000E+00,	0,	0
  2.68657E+01,	1.00000E+01,	-2.26647E-02,	8.08597E+01,	7.04135E+02,	-2.14420E+02,	0.00000E+00,	0,	0
  2.13439E+01,	1.00000E+01,	-2.26647E-02,	8.46943E+01,	7.16727E+02,	-2.59763E+02,	0.00000E+00,	0,	0
  1.73077E+01,	1.00000E+01,	-2.26647E-02,	8.83786E+01,	7.29724E+02,	-3.10342E+02,	0.00000E+00,	0,	0
  1.36364E+01,	1.00000E+01,	-2.26647E-02,	9.34091E+01,	7.46712E+02,	-3.80581E+02,	0.00000E+00,	0,	0
  1.07143E+01,	1.00000E+01,	-2.26647E-02,	9.63441E+01,	7.66497E+02,	-4.68921E+02,	0.00000E+00,	0,	0
  8.49057E+00,	1.00000E+01,	-2.26647E-02,	1.00556E+02,	7.90344E+02,	-5.74733E+02,	0.00000E+00,	0,	0
  6.71642E+00,	1.00000E+01,	-2.26647E-02,	1.03072E+02,	8.19088E+02,	-7.05893E+02,	0.00000E+00,	0,	0
  5.29412E+00,	1.00000E+01,	-2.26647E-02,	1.06055E+02,	8.56783E+02,	-8.69034E+02,	0.00000E+00,	0,	0
  4.16667E+00,	1.00000E+01,	-2.26647E-02,	1.09521E+02,	9.05355E+02,	-1.07183E+03,	0.00000E+00,	0,	0
  3.30882E+00,	1.00000E+01,	-2.26647E-02,	1.16062E+02,	9.65546E+02,	-1.30865E+03,	0.00000E+00,	0,	0
  2.61628E+00,	1.00000E+01,	-2.26647E-02,	1.20046E+02,	1.04331E+03,	-1.60212E+03,	0.00000E+00,	0,	0
  2.07373E+00,	1.00000E+01,	-2.26647E-02,	1.24805E+02,	1.14156E+03,	-1.95270E+03,	0.00000E+00,	0,	0
  1.64234E+00,	1.00000E+01,	-2.26647E-02,	1.30589E+02,	1.26283E+03,	-2.37532E+03,	0.00000E+00,	0,	0
  1.30058E+00,	1.00000E+01,	-2.26647E-02,	1.34755E+02,	1.41015E+03,	-2.88017E+03,	0.00000E+00,	0,	0
  1.03211E+00,	1.00000E+01,	-2.26647E-02,	1.39191E+02,	1.58455E+03,	-3.48380E+03,	0.00000E+00,	0,	0
  8.15217E-01,	1.00000E+01,	-2.26647E-02,	1.46160E+02,	1.78356E+03,	-4.21992E+03,	0.00000E+00,	0,	0
  6.46552E-01,	1.00000E+01,	-2.26647E-02,	1.50992E+02,	2.01225E+03,	-5.09929E+03,	0.00000E+00,	0,	0
  5.11364E-01,	1.00000E+01,	-2.26647E-02,	1.55993E+02,	2.20855E+03,	-6.22357E+03,	0.00000E+00,	0,	0
  4.07609E-01,	1.00000E+01,	-2.26647E-02,	1.62048E+02,	2.48886E+03,	-7.52421E+03,	0.00000E+00,	0,	0
  3.21429E-01,	1.00000E+01,	-2.26647E-02,	1.69241E+02,	2.83514E+03,	-9.33270E+03,	0.00000E+00,	0,	0
  2.54525E-01,	1.00000E+01,	-2.26647E-02,	1.78019E+02,	3.23052E+03,	-1.13749E+04,	0.00000E+00,	0,	0
  2.01613E-01,	1.00000E+01,	-2.26647E-02,	1.88893E+02,	3.67953E+03,	-1.39103E+04,	0.00000E+00,	0,	0
  1.59574E-01,	1.00000E+01,	-2.26647E-02,	2.02362E+02,	4.21008E+03,	-1.70645E+04,	0.00000E+00,	0,	0
  1.26689E-01,	1.00000E+01,	-2.26647E-02,	2.36253E+02,	4.87989E+03,	-2.06534E+04,	0.00000E+00,	0,	0
  1.00446E-01,	1.00000E+01,	-2.26647E-02,	2.57136E+02,	5.49581E+03,	-2.59465E+04,	0.00000E+00,	0,	0