Z60W Data File: Version 1.1
CorrTest for Windows: SN CS310H1805157  V5.2.1111.9  2.5H6.220118
Sweep Frequency: Control Voltage
  Date:5-1-2026   Time:16:10:24
  Begin Information:            Cell Information
      Surface Area:           1
      Density:                7.8
      Weight:                 28
  End Information:              Cell Information
  Freq (Hz)     Ampl(mV)       Bias(V)      Time(Sec)       Z'(Ohm.cm^2)    Z''(Ohm.cm^2)        GD       Err      Range
End Comments
  3.07200E+05,	1.00000E+01,	-1.31451E-02,	5.62935E-02,	1.26142E+00,	4.85935E+00,	0.00000E+00,	0,	0
  2.76480E+05,	1.00000E+01,	-1.31451E-02,	1.65508E+00,	1.74079E+00,	3.67772E+00,	0.00000E+00,	0,	0
  1.97486E+05,	1.00000E+01,	-1.31451E-02,	2.55253E+00,	2.64737E+00,	2.62209E+00,	0.00000E+00,	0,	0
  1.53600E+05,	1.00000E+01,	-1.31451E-02,	3.46085E+00,	2.97417E+00,	2.00779E+00,	0.00000E+00,	0,	0
  1.25673E+05,	1.00000E+01,	-1.31451E-02,	4.37316E+00,	3.15836E+00,	1.56430E+00,	0.00000E+00,	0,	0
  9.87429E+04,	1.00000E+01,	-1.31451E-02,	5.27809E+00,	3.35838E+00,	1.17576E+00,	0.00000E+00,	0,	0
  7.68000E+04,	1.00000E+01,	-1.31451E-02,	6.17990E+00,	3.43898E+00,	8.68002E-01,	0.00000E+00,	0,	0
  6.01043E+04,	1.00000E+01,	-1.31451E-02,	9.39708E+00,	3.53333E+00,	5.89629E-01,	0.00000E+00,	0,	0
  4.93714E+04,	1.00000E+01,	-1.31451E-02,	1.09745E+01,	3.55011E+00,	4.24719E-01,	0.00000E+00,	0,	0
  3.84000E+04,	1.00000E+01,	-1.31451E-02,	1.19007E+01,	3.56724E+00,	2.34919E-01,	0.00000E+00,	0,	0
  3.00522E+04,	1.00000E+01,	-1.31451E-02,	1.28019E+01,	3.57894E+00,	7.90435E-02,	0.00000E+00,	0,	0
  2.38345E+04,	1.00000E+01,	-1.31451E-02,	1.36756E+01,	3.59247E+00,	-6.74877E-02,	0.00000E+00,	0,	0
  1.86811E+04,	1.00000E+01,	-1.31451E-02,	1.45296E+01,	3.60978E+00,	-2.17989E-01,	0.00000E+00,	0,	0
  1.47064E+04,	1.00000E+01,	-1.31451E-02,	1.54927E+01,	3.62784E+00,	-3.80824E-01,	0.00000E+00,	0,	0
  1.15200E+04,	1.00000E+01,	-1.31451E-02,	1.64681E+01,	3.66148E+00,	-5.59078E-01,	0.00000E+00,	0,	0
  9.60000E+03,	1.00000E+01,	-1.31451E-02,	1.80390E+01,	3.68707E+00,	-6.98741E-01,	0.00000E+00,	0,	0
  7.51304E+03,	1.00000E+01,	-1.31451E-02,	1.89062E+01,	3.72629E+00,	-9.21824E-01,	0.00000E+00,	0,	0
  5.76000E+03,	1.00000E+01,	-1.31451E-02,	1.98446E+01,	3.78461E+00,	-1.20639E+00,	0.00000E+00,	0,	0
  4.54737E+03,	1.00000E+01,	-1.31451E-02,	2.07100E+01,	3.84370E+00,	-1.51294E+00,	0.00000E+00,	0,	0
  3.60000E+03,	1.00000E+01,	-1.31451E-02,	2.17139E+01,	3.91769E+00,	-1.88257E+00,	0.00000E+00,	0,	0
  2.88000E+03,	1.00000E+01,	-1.31451E-02,	2.26134E+01,	3.99806E+00,	-2.30080E+00,	0.00000E+00,	0,	0
  2.27368E+03,	1.00000E+01,	-1.31451E-02,	2.49192E+01,	4.06990E+00,	-2.82708E+00,	0.00000E+00,	0,	0
  1.78144E+03,	1.00000E+01,	-1.31451E-02,	2.57023E+01,	4.21673E+00,	-3.51207E+00,	0.00000E+00,	0,	0
  1.41639E+03,	1.00000E+01,	-1.31451E-02,	2.66050E+01,	4.38005E+00,	-4.29761E+00,	0.00000E+00,	0,	0
  1.12208E+03,	1.00000E+01,	-1.31451E-02,	2.76516E+01,	4.59016E+00,	-5.29420E+00,	0.00000E+00,	0,	0
  9.00000E+02,	1.00000E+01,	-1.31451E-02,	3.26437E+01,	4.85471E+00,	-6.44623E+00,	0.00000E+00,	0,	0
  7.20000E+02,	1.00000E+01,	-1.31451E-02,	3.40456E+01,	5.17610E+00,	-7.84795E+00,	0.00000E+00,	0,	0
  5.68421E+02,	1.00000E+01,	-1.31451E-02,	3.54435E+01,	5.62095E+00,	-9.65431E+00,	0.00000E+00,	0,	0
  4.40816E+02,	1.00000E+01,	-1.31451E-02,	3.84709E+01,	6.26433E+00,	-1.20720E+01,	0.00000E+00,	0,	0
  3.54098E+02,	1.00000E+01,	-1.31451E-02,	4.08136E+01,	6.96929E+00,	-1.45705E+01,	0.00000E+00,	0,	0
  2.76923E+02,	1.00000E+01,	-1.31451E-02,	4.34663E+01,	7.99881E+00,	-1.79381E+01,	0.00000E+00,	0,	0
  2.20408E+02,	1.00000E+01,	-1.31451E-02,	4.64224E+01,	9.21011E+00,	-2.16840E+01,	0.00000E+00,	0,	0
  1.74194E+02,	1.00000E+01,	-1.31451E-02,	4.96793E+01,	1.07590E+01,	-2.62523E+01,	0.00000E+00,	0,	0
  1.37580E+02,	1.00000E+01,	-1.31451E-02,	5.33355E+01,	1.26453E+01,	-3.16855E+01,	0.00000E+00,	0,	0
  1.09091E+02,	1.00000E+01,	-1.31451E-02,	5.74078E+01,	1.48278E+01,	-3.80449E+01,	0.00000E+00,	0,	0
  8.70968E+01,	1.00000E+01,	-1.31451E-02,	6.31510E+01,	1.72268E+01,	-4.54298E+01,	0.00000E+00,	0,	0
  6.83544E+01,	1.00000E+01,	-1.31451E-02,	6.82227E+01,	2.01765E+01,	-5.52370E+01,	0.00000E+00,	0,	0
  5.45455E+01,	1.00000E+01,	-1.31451E-02,	7.36705E+01,	2.33921E+01,	-6.49796E+01,	0.00000E+00,	0,	0
  4.28571E+01,	1.00000E+01,	-1.31451E-02,	7.72065E+01,	2.70774E+01,	-7.86852E+01,	0.00000E+00,	0,	0
  3.39623E+01,	1.00000E+01,	-1.31451E-02,	8.09362E+01,	3.04649E+01,	-9.48249E+01,	0.00000E+00,	0,	0
  2.68657E+01,	1.00000E+01,	-1.31451E-02,	8.47720E+01,	3.52025E+01,	-1.15335E+02,	0.00000E+00,	0,	0
  2.13439E+01,	1.00000E+01,	-1.31451E-02,	8.85761E+01,	4.04391E+01,	-1.39884E+02,	0.00000E+00,	0,	0
  1.73077E+01,	1.00000E+01,	-1.31451E-02,	9.52794E+01,	4.59252E+01,	-1.67391E+02,	0.00000E+00,	0,	0
  1.36364E+01,	1.00000E+01,	-1.31451E-02,	1.00294E+02,	5.28214E+01,	-2.05255E+02,	0.00000E+00,	0,	0
  1.07143E+01,	1.00000E+01,	-1.31451E-02,	1.03242E+02,	6.08563E+01,	-2.52827E+02,	0.00000E+00,	0,	0
  8.49057E+00,	1.00000E+01,	-1.31451E-02,	1.07462E+02,	6.97910E+01,	-3.10025E+02,	0.00000E+00,	0,	0
  6.71642E+00,	1.00000E+01,	-1.31451E-02,	1.09958E+02,	8.00595E+01,	-3.81162E+02,	0.00000E+00,	0,	0
  5.29412E+00,	1.00000E+01,	-1.31451E-02,	1.12891E+02,	9.23015E+01,	-4.71075E+02,	0.00000E+00,	0,	0
  4.16667E+00,	1.00000E+01,	-1.31451E-02,	1.16374E+02,	1.06360E+02,	-5.84308E+02,	0.00000E+00,	0,	0
  3.30882E+00,	1.00000E+01,	-1.31451E-02,	1.20610E+02,	1.21951E+02,	-7.20276E+02,	0.00000E+00,	0,	0
  2.61628E+00,	1.00000E+01,	-1.31451E-02,	1.24617E+02,	1.41086E+02,	-8.92479E+02,	0.00000E+00,	0,	0
  2.07373E+00,	1.00000E+01,	-1.31451E-02,	1.29406E+02,	1.62997E+02,	-1.10539E+03,	0.00000E+00,	0,	0
  1.64234E+00,	1.00000E+01,	-1.31451E-02,	1.35197E+02,	1.89167E+02,	-1.37190E+03,	0.00000E+00,	0,	0
  1.30058E+00,	1.00000E+01,	-1.31451E-02,	1.39382E+02,	2.21535E+02,	-1.70474E+03,	0.00000E+00,	0,	0
  1.03211E+00,	1.00000E+01,	-1.31451E-02,	1.43790E+02,	2.60179E+02,	-2.11666E+03,	0.00000E+00,	0,	0
  8.15217E-01,	1.00000E+01,	-1.31451E-02,	1.50727E+02,	3.08863E+02,	-2.64053E+03,	0.00000E+00,	0,	0
  6.46552E-01,	1.00000E+01,	-1.31451E-02,	1.59819E+02,	3.67126E+02,	-3.28107E+03,	0.00000E+00,	0,	0
  5.11364E-01,	1.00000E+01,	-1.31451E-02,	1.64831E+02,	4.32940E+02,	-4.09151E+03,	0.00000E+00,	0,	0
  4.07609E-01,	1.00000E+01,	-1.31451E-02,	1.70897E+02,	5.24218E+02,	-5.06985E+03,	0.00000E+00,	0,	0
  3.21429E-01,	1.00000E+01,	-1.31451E-02,	1.78030E+02,	6.39945E+02,	-6.36753E+03,	0.00000E+00,	0,	0
  2.54525E-01,	1.00000E+01,	-1.31451E-02,	1.86802E+02,	7.97430E+02,	-7.93312E+03,	0.00000E+00,	0,	0
  2.01613E-01,	1.00000E+01,	-1.31451E-02,	1.97650E+02,	9.95140E+02,	-9.88411E+03,	0.00000E+00,	0,	0
  1.59574E-01,	1.00000E+01,	-1.31451E-02,	2.11106E+02,	1.25412E+03,	-1.23234E+04,	0.00000E+00,	0,	0
  1.26689E-01,	1.00000E+01,	-1.31451E-02,	2.44994E+02,	1.60677E+03,	-1.52362E+04,	0.00000E+00,	0,	0
  1.00446E-01,	1.00000E+01,	-1.31451E-02,	2.65863E+02,	1.96385E+03,	-1.90832E+04,	0.00000E+00,	0,	0