Z60W Data File: Version 1.1
CorrTest for Windows: SN CS310H1805157  V5.2.1111.9  2.5H6.220118
Sweep Frequency: Control Voltage
  Date:5-1-2026   Time:19:17:06
  Begin Information:            Cell Information
      Surface Area:           1
      Density:                7.8
      Weight:                 28
  End Information:              Cell Information
  Freq (Hz)     Ampl(mV)       Bias(V)      Time(Sec)       Z'(Ohm.cm^2)    Z''(Ohm.cm^2)        GD       Err      Range
End Comments
  3.07200E+05,	1.00000E+01,	-2.46071E-02,	2.74006E-02,	5.72616E+02,	-2.27633E+02,	0.00000E+00,	0,	0
  2.76480E+05,	1.00000E+01,	-2.46071E-02,	1.63176E+00,	5.84966E+02,	-2.41571E+02,	0.00000E+00,	0,	0
  1.97486E+05,	1.00000E+01,	-2.46071E-02,	2.54398E+00,	6.44463E+02,	-2.95587E+02,	0.00000E+00,	0,	0
  1.53600E+05,	1.00000E+01,	-2.46071E-02,	3.48586E+00,	7.02061E+02,	-3.23752E+02,	0.00000E+00,	0,	0
  1.25673E+05,	1.00000E+01,	-2.46071E-02,	4.41971E+00,	7.67946E+02,	-3.43801E+02,	0.00000E+00,	0,	0
  9.87429E+04,	1.00000E+01,	-2.46071E-02,	5.33762E+00,	8.34670E+02,	-3.54694E+02,	0.00000E+00,	0,	0
  7.68000E+04,	1.00000E+01,	-2.46071E-02,	6.24057E+00,	9.22190E+02,	-3.52254E+02,	0.00000E+00,	0,	0
  6.01043E+04,	1.00000E+01,	-2.46071E-02,	8.36312E+00,	9.93166E+02,	-3.33248E+02,	0.00000E+00,	0,	0
  4.93714E+04,	1.00000E+01,	-2.46071E-02,	9.94246E+00,	1.04456E+03,	-3.04617E+02,	0.00000E+00,	0,	0
  3.84000E+04,	1.00000E+01,	-2.46071E-02,	1.08733E+01,	1.10771E+03,	-2.64933E+02,	0.00000E+00,	0,	0
  3.00522E+04,	1.00000E+01,	-2.46071E-02,	1.17761E+01,	1.10065E+03,	-2.78494E+02,	0.00000E+00,	0,	0
  2.38345E+04,	1.00000E+01,	-2.46071E-02,	1.26334E+01,	1.17543E+03,	-2.02777E+02,	0.00000E+00,	0,	0
  1.86811E+04,	1.00000E+01,	-2.46071E-02,	1.35038E+01,	1.14437E+03,	-1.69441E+02,	0.00000E+00,	0,	0
  1.47064E+04,	1.00000E+01,	-2.46071E-02,	1.45044E+01,	1.20838E+03,	-1.44234E+02,	0.00000E+00,	0,	0
  1.15200E+04,	1.00000E+01,	-2.46071E-02,	1.54637E+01,	1.22059E+03,	-1.23955E+02,	0.00000E+00,	0,	0
  9.60000E+03,	1.00000E+01,	-2.46071E-02,	1.70176E+01,	1.23185E+03,	-1.20590E+02,	0.00000E+00,	0,	0
  7.51304E+03,	1.00000E+01,	-2.46071E-02,	1.79187E+01,	1.23257E+03,	-1.03754E+02,	0.00000E+00,	0,	0
  5.76000E+03,	1.00000E+01,	-2.46071E-02,	1.88144E+01,	1.25401E+03,	-9.95100E+01,	0.00000E+00,	0,	0
  4.54737E+03,	1.00000E+01,	-2.46071E-02,	1.96871E+01,	1.25512E+03,	-9.37980E+01,	0.00000E+00,	0,	0
  3.60000E+03,	1.00000E+01,	-2.46071E-02,	2.06700E+01,	1.27243E+03,	-1.00019E+02,	0.00000E+00,	0,	0
  2.88000E+03,	1.00000E+01,	-2.46071E-02,	2.15668E+01,	1.28591E+03,	-1.16939E+02,	0.00000E+00,	0,	0
  2.27368E+03,	1.00000E+01,	-2.46071E-02,	2.27005E+01,	1.31399E+03,	-9.97718E+01,	0.00000E+00,	0,	0
  1.78144E+03,	1.00000E+01,	-2.46071E-02,	2.35293E+01,	1.30948E+03,	-1.02465E+02,	0.00000E+00,	0,	0
  1.41639E+03,	1.00000E+01,	-2.46071E-02,	2.44334E+01,	1.34040E+03,	-1.02326E+02,	0.00000E+00,	0,	0
  1.12208E+03,	1.00000E+01,	-2.46071E-02,	2.54645E+01,	1.35385E+03,	-1.03562E+02,	0.00000E+00,	0,	0
  9.00000E+02,	1.00000E+01,	-2.46071E-02,	3.04474E+01,	1.37680E+03,	-8.41975E+01,	0.00000E+00,	0,	0
  7.20000E+02,	1.00000E+01,	-2.46071E-02,	3.18275E+01,	1.38881E+03,	-7.84091E+01,	0.00000E+00,	0,	0
  5.68421E+02,	1.00000E+01,	-2.46071E-02,	3.31943E+01,	1.39931E+03,	-7.15963E+01,	0.00000E+00,	0,	0
  4.40816E+02,	1.00000E+01,	-2.46071E-02,	3.62122E+01,	1.40647E+03,	-6.58486E+01,	0.00000E+00,	0,	0
  3.54098E+02,	1.00000E+01,	-2.46071E-02,	3.85508E+01,	1.41385E+03,	-6.40039E+01,	0.00000E+00,	0,	0
  2.76923E+02,	1.00000E+01,	-2.46071E-02,	4.12095E+01,	1.42022E+03,	-6.43292E+01,	0.00000E+00,	0,	0
  2.20408E+02,	1.00000E+01,	-2.46071E-02,	4.41309E+01,	1.42609E+03,	-6.66905E+01,	0.00000E+00,	0,	0
  1.74194E+02,	1.00000E+01,	-2.46071E-02,	4.73914E+01,	1.43289E+03,	-7.32511E+01,	0.00000E+00,	0,	0
  1.37580E+02,	1.00000E+01,	-2.46071E-02,	5.10555E+01,	1.43896E+03,	-8.12136E+01,	0.00000E+00,	0,	0
  1.09091E+02,	1.00000E+01,	-2.46071E-02,	5.51212E+01,	1.44734E+03,	-9.43824E+01,	0.00000E+00,	0,	0
  8.70968E+01,	1.00000E+01,	-2.46071E-02,	6.08312E+01,	1.45894E+03,	-1.09249E+02,	0.00000E+00,	0,	0
  6.83544E+01,	1.00000E+01,	-2.46071E-02,	6.58413E+01,	1.47765E+03,	-1.32430E+02,	0.00000E+00,	0,	0
  5.45455E+01,	1.00000E+01,	-2.46071E-02,	7.12981E+01,	1.47154E+03,	-1.43035E+02,	0.00000E+00,	0,	0
  4.28571E+01,	1.00000E+01,	-2.46071E-02,	7.48321E+01,	1.48248E+03,	-1.72338E+02,	0.00000E+00,	0,	0
  3.39623E+01,	1.00000E+01,	-2.46071E-02,	7.85989E+01,	1.48859E+03,	-2.14650E+02,	0.00000E+00,	0,	0
  2.68657E+01,	1.00000E+01,	-2.46071E-02,	8.24630E+01,	1.50903E+03,	-2.56445E+02,	0.00000E+00,	0,	0
  2.13439E+01,	1.00000E+01,	-2.46071E-02,	8.62934E+01,	1.52792E+03,	-3.07325E+02,	0.00000E+00,	0,	0
  1.73077E+01,	1.00000E+01,	-2.46071E-02,	8.99628E+01,	1.54666E+03,	-3.64337E+02,	0.00000E+00,	0,	0
  1.36364E+01,	1.00000E+01,	-2.46071E-02,	9.49794E+01,	1.57037E+03,	-4.42907E+02,	0.00000E+00,	0,	0
  1.07143E+01,	1.00000E+01,	-2.46071E-02,	9.79174E+01,	1.59600E+03,	-5.41805E+02,	0.00000E+00,	0,	0
  8.49057E+00,	1.00000E+01,	-2.46071E-02,	1.02120E+02,	1.62637E+03,	-6.59708E+02,	0.00000E+00,	0,	0
  6.71642E+00,	1.00000E+01,	-2.46071E-02,	1.04635E+02,	1.66086E+03,	-8.05234E+02,	0.00000E+00,	0,	0
  5.29412E+00,	1.00000E+01,	-2.46071E-02,	1.07588E+02,	1.70109E+03,	-9.87855E+02,	0.00000E+00,	0,	0
  4.16667E+00,	1.00000E+01,	-2.46071E-02,	1.11092E+02,	1.75146E+03,	-1.21563E+03,	0.00000E+00,	0,	0
  3.30882E+00,	1.00000E+01,	-2.46071E-02,	1.15349E+02,	1.81287E+03,	-1.48696E+03,	0.00000E+00,	0,	0
  2.61628E+00,	1.00000E+01,	-2.46071E-02,	1.19329E+02,	1.88886E+03,	-1.82675E+03,	0.00000E+00,	0,	0
  2.07373E+00,	1.00000E+01,	-2.46071E-02,	1.24101E+02,	1.98512E+03,	-2.24001E+03,	0.00000E+00,	0,	0
  1.64234E+00,	1.00000E+01,	-2.46071E-02,	1.29894E+02,	2.10859E+03,	-2.74805E+03,	0.00000E+00,	0,	0
  1.30058E+00,	1.00000E+01,	-2.46071E-02,	1.34110E+02,	2.26541E+03,	-3.36416E+03,	0.00000E+00,	0,	0
  1.03211E+00,	1.00000E+01,	-2.46071E-02,	1.38514E+02,	2.47015E+03,	-4.10858E+03,	0.00000E+00,	0,	0
  8.15217E-01,	1.00000E+01,	-2.46071E-02,	1.45459E+02,	2.71867E+03,	-5.01367E+03,	0.00000E+00,	0,	0
  6.46552E-01,	1.00000E+01,	-2.46071E-02,	1.50304E+02,	3.03286E+03,	-6.08567E+03,	0.00000E+00,	0,	0
  5.11364E-01,	1.00000E+01,	-2.46071E-02,	1.55318E+02,	3.33093E+03,	-7.44792E+03,	0.00000E+00,	0,	0
  4.07609E-01,	1.00000E+01,	-2.46071E-02,	1.61375E+02,	3.75960E+03,	-8.97143E+03,	0.00000E+00,	0,	0
  3.21429E-01,	1.00000E+01,	-2.46071E-02,	1.68514E+02,	4.31780E+03,	-1.10779E+04,	0.00000E+00,	0,	0
  2.54525E-01,	1.00000E+01,	-2.46071E-02,	1.77290E+02,	4.92408E+03,	-1.33724E+04,	0.00000E+00,	0,	0
  2.01613E-01,	1.00000E+01,	-2.46071E-02,	1.88147E+02,	5.59353E+03,	-1.62077E+04,	0.00000E+00,	0,	0
  1.59574E-01,	1.00000E+01,	-2.46071E-02,	2.01609E+02,	6.36777E+03,	-1.97076E+04,	0.00000E+00,	0,	0
  1.26689E-01,	1.00000E+01,	-2.46071E-02,	2.35489E+02,	7.29686E+03,	-2.35960E+04,	0.00000E+00,	0,	0
  1.00446E-01,	1.00000E+01,	-2.46071E-02,	2.56364E+02,	8.20486E+03,	-2.96787E+04,	0.00000E+00,	0,	0