June 14, 2026   02:29:33
A.C. Impedance
File: e:\chi_data\6.13Data Source:  Experiment
Instrument Model:  CHI660E
Ref. Electrode: 
Header: 
Note: 

Init E (V) = 0
High Frequency (Hz) = 1e+6
Low Frequency (Hz) = 0.1
Imp SF
Amplitude (V) = 0.005
Quiet Time (sec) = 2
Cycles (.1-1Hz) = 1

Freq/Hz	Z'/ohm	Z"/ohm	Z/ohm	Phase/deg

8.252e+5	3.249e+0	1.419e+1	1.456e+1	77.1
6.816e+5	2.607e+0	1.156e+1	1.185e+1	77.3
5.625e+5	2.023e+0	9.589e+0	9.800e+0	78.1
4.639e+5	1.728e+0	7.871e+0	8.058e+0	77.6
3.828e+5	1.535e+0	6.554e+0	6.731e+0	76.8
3.164e+5	1.427e+0	5.428e+0	5.612e+0	75.3
2.607e+5	1.333e+0	4.510e+0	4.702e+0	73.5
2.158e+5	1.262e+0	3.719e+0	3.928e+0	71.3
1.777e+5	1.208e+0	3.047e+0	3.278e+0	68.4
1.465e+5	1.171e+0	2.480e+0	2.742e+0	64.7
1.211e+5	1.134e+0	1.881e+0	2.197e+0	58.9
9.961e+4	1.107e+0	1.302e+0	1.709e+0	49.6
8.252e+4	1.091e+0	9.001e-1	1.415e+0	39.5
6.812e+4	1.087e+0	6.358e-1	1.259e+0	30.3
5.625e+4	1.089e+0	4.672e-1	1.185e+0	23.2
4.644e+4	1.096e+0	3.321e-1	1.145e+0	16.9
3.833e+4	1.107e+0	2.102e-1	1.126e+0	10.8
3.164e+4	1.120e+0	8.645e-2	1.123e+0	4.4
2.612e+4	1.136e+0	-3.521e-2	1.136e+0	-1.8
2.153e+4	1.153e+0	-1.557e-1	1.164e+0	-7.7
1.777e+4	1.175e+0	-2.744e-1	1.206e+0	-13.1
1.470e+4	1.198e+0	-3.967e-1	1.262e+0	-18.3
1.211e+4	1.222e+0	-5.274e-1	1.331e+0	-23.3
1.001e+4	1.251e+0	-6.697e-1	1.419e+0	-28.2
8.252e+3	1.284e+0	-8.284e-1	1.528e+0	-32.8
6.812e+3	1.322e+0	-1.007e+0	1.662e+0	-37.3
5.625e+3	1.366e+0	-1.211e+0	1.826e+0	-41.5
4.643e+3	1.417e+0	-1.446e+0	2.024e+0	-45.6
3.833e+3	1.476e+0	-1.720e+0	2.266e+0	-49.4
3.164e+3	1.552e+0	-2.045e+0	2.568e+0	-52.8
2.612e+3	1.647e+0	-2.433e+0	2.938e+0	-55.9
2.153e+3	1.754e+0	-2.888e+0	3.379e+0	-58.7
1.777e+3	1.875e+0	-3.422e+0	3.902e+0	-61.3
1.470e+3	2.017e+0	-4.050e+0	4.525e+0	-63.5
1.211e+3	2.185e+0	-4.789e+0	5.264e+0	-65.5
1.001e+3	2.390e+0	-5.657e+0	6.141e+0	-67.1
8.252e+2	2.639e+0	-6.674e+0	7.177e+0	-68.4
6.836e+2	2.945e+0	-7.878e+0	8.410e+0	-69.5
5.615e+2	3.317e+0	-9.297e+0	9.871e+0	-70.4
4.639e+2	3.769e+0	-1.097e+1	1.160e+1	-71.0
3.809e+2	4.305e+0	-1.289e+1	1.359e+1	-71.5
3.174e+2	4.950e+0	-1.513e+1	1.592e+1	-71.9
2.588e+2	5.714e+0	-1.774e+1	1.863e+1	-72.1
2.148e+2	6.623e+0	-2.081e+1	2.183e+1	-72.3
1.758e+2	7.674e+0	-2.437e+1	2.555e+1	-72.5
1.465e+2	8.827e+0	-2.837e+1	2.971e+1	-72.7
1.221e+2	1.018e+1	-3.326e+1	3.478e+1	-73.0
9.766e+1	1.177e+1	-3.890e+1	4.065e+1	-73.2
8.254e+1	1.353e+1	-4.529e+1	4.727e+1	-73.4
6.813e+1	1.541e+1	-5.293e+1	5.513e+1	-73.8
5.623e+1	1.741e+1	-6.201e+1	6.441e+1	-74.3
4.642e+1	1.963e+1	-7.289e+1	7.549e+1	-74.9
3.831e+1	2.216e+1	-8.591e+1	8.872e+1	-75.5
3.162e+1	2.500e+1	-1.014e+2	1.044e+2	-76.1
2.610e+1	2.825e+1	-1.197e+2	1.230e+2	-76.7
2.154e+1	3.200e+1	-1.416e+2	1.452e+2	-77.3
1.778e+1	3.637e+1	-1.679e+2	1.718e+2	-77.8
1.468e+1	4.148e+1	-1.991e+2	2.034e+2	-78.2
1.212e+1	4.733e+1	-2.362e+2	2.409e+2	-78.7
1.000e+1	5.437e+1	-2.803e+2	2.855e+2	-79.0
8.254e+0	6.277e+1	-3.330e+2	3.389e+2	-79.3
6.813e+0	7.237e+1	-3.960e+2	4.025e+2	-79.6
5.623e+0	8.343e+1	-4.710e+2	4.783e+2	-80.0
4.642e+0	9.603e+1	-5.606e+2	5.687e+2	-80.3
3.831e+0	1.113e+2	-6.672e+2	6.765e+2	-80.5
3.162e+0	1.293e+2	-7.950e+2	8.054e+2	-80.8
2.610e+0	1.512e+2	-9.479e+2	9.599e+2	-80.9
2.154e+0	1.738e+2	-1.133e+3	1.146e+3	-81.3
1.778e+0	1.985e+2	-1.355e+3	1.370e+3	-81.7
1.468e+0	2.331e+2	-1.620e+3	1.637e+3	-81.8
1.212e+0	2.799e+2	-1.941e+3	1.961e+3	-81.8
1.000e+0	3.385e+2	-2.305e+3	2.330e+3	-81.6
8.254e-1	4.091e+2	-2.717e+3	2.748e+3	-81.4
6.813e-1	4.921e+2	-3.206e+3	3.244e+3	-81.3
5.623e-1	5.879e+2	-3.792e+3	3.837e+3	-81.2
4.642e-1	6.981e+2	-4.494e+3	4.547e+3	-81.2
3.831e-1	8.285e+2	-5.324e+3	5.388e+3	-81.2
3.162e-1	9.821e+2	-6.308e+3	6.384e+3	-81.2
2.610e-1	1.165e+3	-7.477e+3	7.567e+3	-81.1
2.154e-1	1.382e+3	-8.859e+3	8.966e+3	-81.1
1.778e-1	1.636e+3	-1.049e+4	1.061e+4	-81.1
1.468e-1	1.928e+3	-1.238e+4	1.253e+4	-81.1
1.212e-1	2.296e+3	-1.467e+4	1.485e+4	-81.1
1.000e-1	2.755e+3	-1.742e+4	1.763e+4	-81.0
