EXPLAIN
TAG	EISPOT
TITLE	LABEL	Potentiostatic EIS	Test Identifier
DATE	LABEL	8/6/2020	Date
TIME	LABEL	10:58:31	Time
NOTES	NOTES	1	Notes...
	
PSTAT	PSTAT	REF3000-16137	Potentiostat
VDC	POTEN	0.00000E+000	T	DC Voltage (V)
FREQINIT	QUANT	3.00000E+005	Initial Freq. (Hz)
FREQFINAL	QUANT	1.00000E+000	Final Freq. (Hz)
PTSPERDEC	QUANT	1.00000E+001	Points/decade
VAC	QUANT	5.00000E+001	AC Voltage (mV rms)
AREA	QUANT	1.00000E+000	Sample Area (cm^2)
SPEED	SELECTOR	2	Optimize for:
ZGUESS	QUANT	1.00000E+003	Estimated Z (ohms)
EOC	QUANT	0	Open Circuit (V)
SEQUENCER	TOGGLE	TRUE	Run as Sequence
PSTATMODEL	IQUANT	5	Pstat Model
PSTATSECTION	LABEL	REF3000-16137	Pstat Section
PSTATSERIALNO	LABEL	16137	Pstat Serial Number
CTRLMODE	IQUANT	1	Control Mode
IESTAB	IQUANT	0	I/E Stability
CASPEED	IQUANT	1	Control Amp Speed
CONVENTION	IQUANT	1	Current Convention
ICHRANGE	IQUANT	2	Ich Range
ICHRANGEMODE	TOGGLE	F	Ich Auto Range
ICHOFFSETENABLE	TOGGLE	T	Ich Offset Enable
ICHOFFSET	QUANT	0	Ich Offset (V)
ICHFILTER	IQUANT	3	Ich Filter
VCHRANGE	IQUANT	2	Vch Range
VCHRANGEMODE	TOGGLE	F	Vch Auto Range
VCHOFFSETENABLE	TOGGLE	T	Vch Offset Enable
VCHOFFSET	QUANT	0	Vch Offset (V)
VCHFILTER	IQUANT	3	Vch Filter
ACHRANGE	IQUANT	2	Ach Range
ACHOFFSETENABLE	TOGGLE	F	Ach Offset Enable
ACHOFFSET	QUANT	0	Ach Offset (V)
ACHFILTER	IQUANT	3	Ach Filter
IERANGELOWERLIMIT	IQUANT	2	I/E Range Lower Limit
IERANGEMODE	TOGGLE	F	I/E AutoRange
IERANGE	IQUANT	11	I/E Range
POSFEEDENABLE	TOGGLE	F	Positive Feedback IR Comp
POSFEEDRESISTANCE	QUANT	0	Positive Feedback Resistance (ohm)
ACHSELECT	IQUANT	0	Ach Select
CABLEID	IQUANT	13	Cable ID
DCCALDATE	LABEL	7/31/2020	DC Calibration Date
ACCALDATE	LABEL	7/31/2020	AC Calibration Date
THERMOSELECT	IQUANT	1	Thermo Select
FRAMEWORKVERSION	QUANT	6.33	Framework Version
INSTRUMENTVERSION	LABEL	3.50	Instrument Version
COMPLIANCEVOLTAGE	IQUANT	0	Compliance Voltage
ZCURVE	TABLE
	Pt	Time	Freq	Zreal	Zimag	Zsig	Zmod	Zphz	Idc	Vdc	IERange
	#	s	Hz	ohm	ohm	V	ohm	°	A	V	#
	0	7	300046.9	88.73901	-8.33634	1	89.12971	-5.366743	2.00361E-006	-0.0016487	9
	1	10	238359.4	89.50584	-10.29213	1	90.09563	-6.559536	4.312699E-006	-0.0015227	9
	2	13	189328.1	90.83361	-12.59641	1	91.70286	-7.895173	1.477184E-005	-0.0014983	9
	3	16	150421.9	91.98593	-15.17343	1	93.22899	-9.366807	-6.191138E-005	0.0025818	9
	4	18	119484.4	93.49183	-18.28706	1	95.2635	-11.06736	1.418623E-005	-0.0010533	9
	5	21	94921.88	95.4781	-21.45018	1	97.858	-12.66188	-1.868649E-005	0.0008074	9
	6	23	75421.88	97.6455	-25.61108	1	100.9484	-14.69685	-2.043736E-005	0.0007925	9
	7	26	59859.37	100.2301	-30.36135	1	104.7277	-16.85243	-1.495827E-005	0.0003507	9
	8	28	47578.12	103.4263	-35.9232	1	109.4873	-19.15372	-1.646108E-005	0.0008253	9
	9	31	37828.12	107.1474	-42.08012	1	115.1143	-21.44149	2.687915E-005	-0.0005339	9
	10	33	30046.88	111.5081	-49.2134	1	121.8853	-23.81396	2.129995E-005	-0.0001863	9
	11	36	23859.38	116.5458	-57.3906	1	129.91	-26.217	-1.546906E-005	0.0008776	9
	12	38	18984.38	122.4185	-66.70612	1	139.4131	-28.58607	7.508453E-006	-0.0004627	9
	13	40	15046.87	128.8931	-77.83944	1	150.5736	-31.12807	-1.918406E-005	0.0007737	9
	14	43	11953.13	136.3579	-90.63424	1	163.7316	-33.61115	2.683259E-005	-0.0005894	9
	15	45	9515.62	144.9739	-105.2701	1	179.1626	-35.98457	2.661471E-005	-0.000635	9
	16	47	7546.875	154.6045	-123.2821	1	197.7398	-38.56897	2.154551E-005	-0.0001764	9
	17	50	5928.309	166.695	-145.0341	1	220.9573	-41.02511	2.645183E-005	-0.0004832	9
	18	52	4733.456	179.0937	-169.345	1	246.4798	-43.39739	1.451991E-005	0.0001247	9
	19	54	3796.875	193.9457	-196.8858	1	276.3674	-45.43102	2.399891E-005	-0.0008404	9
	20	58	2987.132	212.9642	-233.5952	1	316.102	-47.64518	6.853211E-006	-0.0004771	9
	21	60	2390.625	232.9632	-273.8626	1	359.545	-49.61362	2.332203E-005	-0.0003667	9
	22	63	1884.191	259.4852	-322.5831	1	413.9957	-51.18687	2.490443E-005	-0.0006952	9
	23	65	1516.544	288.1294	-375.0135	1	472.9203	-52.4643	7.715603E-006	-0.0011073	8
	24	67	1193.986	326.9405	-443.6299	1	551.0876	-53.61102	6.692042E-006	-0.0015682	8
	25	70	946.5144	371.1855	-521.7206	1	640.2899	-54.56951	-4.506872E-006	0.0027198	8
	26	72	751.7689	425.1682	-611.1418	1	744.488	-55.17387	-1.977862E-006	0.0026305	8
	27	74	597.4265	489.8911	-711.8228	1	864.1094	-55.46345	1.722496E-006	-0.0007338	8
	28	77	477.4305	563.0135	-825.8483	1	999.505	-55.71619	1.073635E-006	0.0006521	8
	29	79	376.6741	654.9907	-963.709	1	1165.225	-55.79778	1.062578E-006	0.0006488	8
	30	81	298.2954	761.0891	-1119.608	1	1353.801	-55.79284	1.049271E-006	0.0006597	8
	31	84	237.7717	881.1225	-1292.784	1	1564.503	-55.72285	1.060205E-006	0.0006435	8
	32	86	189.0121	1022.366	-1493.661	1	1810.043	-55.60954	1.049419E-006	0.0006482	8
	33	89	150.2404	1185.877	-1723.471	1	2092.046	-55.46912	1.044686E-006	0.0006483	8
	34	91	119.1737	1378.142	-1989.673	1	2420.345	-55.29169	1.057601E-006	0.0006436	8
	35	93	95.0169	1596.4	-2288.591	1	2790.366	-55.10241	1.037159E-006	0.0006466	8
	36	96	75.60484	1852.014	-2633.124	1	3219.207	-54.87927	1.027636E-006	0.000655	8
	37	98	54.50582	2290.128	-3209.6	1	3942.869	-54.49121	1.035517E-006	0.0006425	8
	38	101	45.95588	2568.143	-3567.334	1	4395.592	-54.24969	7.531465E-007	0.0006106	7
	39	103	37.20238	2947.574	-4048.094	1	5007.52	-53.94019	7.442171E-007	0.0006122	7
	40	106	30.04808	3387.083	-4594.89	1	5708.357	-53.60453	7.428263E-007	0.0006048	7
	41	108	23.91582	3928.033	-5252.72	1	6559.002	-53.21052	7.276062E-007	0.0006145	7
	42	110	18.60119	4628.152	-6078.023	1	7639.513	-52.71229	7.057273E-007	0.0006209	7
	43	113	15.02404	5322.68	-6865.063	1	8686.772	-52.21255	7.169282E-007	0.0006111	7
	44	115	12.01923	6159.69	-7785.156	1	9927.26	-51.64862	7.351803E-007	0.0006179	7
	45	118	9.450605	7195.746	-8893.007	1	11439.59	-51.02207	7.04908E-007	0.0006098	7
	46	120	7.512019	8366.848	-10077.6	1	13098.17	-50.29912	7.067998E-007	0.0006141	7
	47	123	5.978954	9707.82	-11360.37	1	14943.22	-49.48501	7.037327E-007	0.0006166	7
	48	126	4.734848	11301.15	-12800.3	1	17075.23	-48.55931	6.825894E-007	0.0005917	7
	49	129	3.75601	13152.81	-14344.48	1	19461.78	-47.48151	6.917754E-007	0.000634	7
	50	132	3.004808	15197.19	-15942.53	1	22025.41	-46.37114	6.841148E-007	0.0006143	7
	51	136	2.372217	17713.53	-17649.12	1	25005.21	-44.89565	6.753341E-007	0.0005626	7
	52	140	1.878005	20593.32	-19410.88	1	28299.6	-43.30696	6.731919E-007	0.0006222	7
	53	145	1.512097	23597.92	-21033.13	1	31610.99	-41.71103	6.61197E-007	0.0006412	7
	54	150	1.201923	27252.17	-22658.02	1	35441.03	-39.74084	6.506258E-007	0.0006302	7
	55	157	0.956633	31236.03	-24046.65	1	39419.93	-37.59041	6.184801E-007	-2.197677E-005	7
