EXPLAIN
TAG	EISPOT
TITLE	LABEL	Potentiostatic EIS	Test Identifier
DATE	LABEL	8/6/2020	Date
TIME	LABEL	11:01:17	Time
NOTES	NOTES	1	Notes...
	
PSTAT	PSTAT	REF3000-16137	Potentiostat
VDC	POTEN	0.00000E+000	T	DC Voltage (V)
FREQINIT	QUANT	3.00000E+005	Initial Freq. (Hz)
FREQFINAL	QUANT	1.00000E+000	Final Freq. (Hz)
PTSPERDEC	QUANT	1.00000E+001	Points/decade
VAC	QUANT	5.00000E+001	AC Voltage (mV rms)
AREA	QUANT	1.00000E+000	Sample Area (cm^2)
SPEED	SELECTOR	2	Optimize for:
ZGUESS	QUANT	1.00000E+003	Estimated Z (ohms)
EOC	QUANT	0	Open Circuit (V)
SEQUENCER	TOGGLE	TRUE	Run as Sequence
PSTATMODEL	IQUANT	5	Pstat Model
PSTATSECTION	LABEL	REF3000-16137	Pstat Section
PSTATSERIALNO	LABEL	16137	Pstat Serial Number
CTRLMODE	IQUANT	1	Control Mode
IESTAB	IQUANT	0	I/E Stability
CASPEED	IQUANT	1	Control Amp Speed
CONVENTION	IQUANT	1	Current Convention
ICHRANGE	IQUANT	2	Ich Range
ICHRANGEMODE	TOGGLE	F	Ich Auto Range
ICHOFFSETENABLE	TOGGLE	T	Ich Offset Enable
ICHOFFSET	QUANT	0	Ich Offset (V)
ICHFILTER	IQUANT	3	Ich Filter
VCHRANGE	IQUANT	2	Vch Range
VCHRANGEMODE	TOGGLE	F	Vch Auto Range
VCHOFFSETENABLE	TOGGLE	T	Vch Offset Enable
VCHOFFSET	QUANT	0	Vch Offset (V)
VCHFILTER	IQUANT	3	Vch Filter
ACHRANGE	IQUANT	2	Ach Range
ACHOFFSETENABLE	TOGGLE	F	Ach Offset Enable
ACHOFFSET	QUANT	0	Ach Offset (V)
ACHFILTER	IQUANT	3	Ach Filter
IERANGELOWERLIMIT	IQUANT	2	I/E Range Lower Limit
IERANGEMODE	TOGGLE	F	I/E AutoRange
IERANGE	IQUANT	11	I/E Range
POSFEEDENABLE	TOGGLE	F	Positive Feedback IR Comp
POSFEEDRESISTANCE	QUANT	0	Positive Feedback Resistance (ohm)
ACHSELECT	IQUANT	0	Ach Select
CABLEID	IQUANT	13	Cable ID
DCCALDATE	LABEL	7/31/2020	DC Calibration Date
ACCALDATE	LABEL	7/31/2020	AC Calibration Date
THERMOSELECT	IQUANT	1	Thermo Select
FRAMEWORKVERSION	QUANT	6.33	Framework Version
INSTRUMENTVERSION	LABEL	3.50	Instrument Version
COMPLIANCEVOLTAGE	IQUANT	0	Compliance Voltage
ZCURVE	TABLE
	Pt	Time	Freq	Zreal	Zimag	Zsig	Zmod	Zphz	Idc	Vdc	IERange
	#	s	Hz	ohm	ohm	V	ohm	°	A	V	#
	0	7	300046.9	111.9845	-9.60924	1	112.396	-4.904459	1.069598E-005	-0.0011599	9
	1	10	238359.4	113.4038	-11.30461	1	113.9659	-5.692698	-1.155027E-005	-0.0013365	9
	2	13	189328.1	115.1156	-13.60157	1	115.9164	-6.738581	8.097995E-005	-0.0025477	9
	3	16	150421.9	116.9243	-16.42621	1	118.0725	-7.996911	1.608557E-005	-0.0012629	9
	4	18	119484.4	118.9	-19.36159	1	120.4661	-9.248826	7.111941E-005	-0.0016333	9
	5	21	94921.88	121.1496	-22.69688	1	123.2574	-10.61112	-1.451876E-006	-0.0002941	9
	6	23	75421.88	123.8157	-27.10137	1	126.747	-12.34646	-1.52588E-005	0.0001987	9
	7	26	59859.37	126.9187	-32.26548	1	130.9558	-14.26367	-2.083374E-005	0.0008046	9
	8	29	47578.12	130.596	-38.02282	1	136.0185	-16.23284	-1.466361E-005	0.0001931	9
	9	31	37828.12	134.8578	-44.75478	1	142.0902	-18.35928	-1.598437E-005	0.000887	9
	10	34	30046.88	139.7191	-52.56226	1	149.279	-20.61628	2.399688E-005	-0.0005987	9
	11	36	23859.38	145.3354	-61.78942	1	157.925	-23.0328	2.61046E-005	-0.0007259	9
	12	38	18984.38	151.707	-72.33191	1	168.0682	-25.4912	2.349161E-005	-0.0002562	9
	13	41	15046.87	159.134	-85.10088	1	180.4599	-28.13676	3.124043E-006	0.0005007	9
	14	43	11953.13	167.437	-98.9124	1	194.4706	-30.57222	-2.094119E-005	0.0008887	9
	15	45	9515.62	176.5857	-115.9325	1	211.2412	-33.2858	6.118096E-006	0.0004491	9
	16	48	7546.875	187.1345	-136.1158	1	231.4019	-36.03098	1.460475E-005	0.0002133	9
	17	50	5928.309	200.1829	-161.4701	1	257.1882	-38.89009	-1.827351E-005	0.0009182	9
	18	52	4733.456	215.0918	-190.2626	1	287.166	-41.49484	-1.775801E-005	0.0008901	9
	19	56	3796.875	230.4269	-223.0079	1	320.6697	-44.06262	-1.436966E-005	0.0001365	9
	20	58	2987.132	251.6876	-265.5116	1	365.8457	-46.53107	-1.782085E-005	0.0004069	9
	21	61	2390.625	273.8485	-312.6391	1	415.6155	-48.78406	2.910437E-005	-0.0006656	9
	22	63	1884.191	301.9983	-371.4494	1	478.725	-50.88797	-5.0338E-006	0.0034208	8
	23	65	1516.544	335.4181	-435.0767	1	549.3606	-52.36993	-1.040532E-006	-0.0003262	8
	24	68	1193.986	378.5874	-517.4319	1	641.1429	-53.80833	-3.625646E-006	0.0006366	8
	25	70	946.5144	429.7509	-613.9042	1	749.3759	-55.00686	-7.795141E-007	0.0027917	8
	26	72	751.7689	489.8922	-722.2034	1	872.681	-55.84978	-5.092498E-006	0.0033975	8
	27	75	597.4265	566.9869	-848.2468	1	1020.292	-56.24036	4.200564E-006	-0.001822	8
	28	77	477.4305	651.6407	-992.647	1	1187.427	-56.71639	6.656825E-007	0.0006623	8
	29	79	376.6741	761.1879	-1166.031	1	1392.493	-56.8634	6.649186E-007	0.0006495	8
	30	82	298.2954	889.676	-1362.518	1	1627.261	-56.85689	6.649532E-007	0.0006555	8
	31	84	237.7717	1036.42	-1581.389	1	1890.756	-56.75975	6.78098E-007	0.000649	8
	32	86	189.0121	1210.46	-1834.725	1	2198.051	-56.58516	6.453878E-007	0.0006546	8
	33	89	150.2404	1413.166	-2124.784	1	2551.812	-56.37265	6.459609E-007	0.0006476	8
	34	91	119.1737	1651.764	-2461.561	1	2964.389	-56.13748	6.447949E-007	0.0006519	8
	35	94	95.0169	1923.172	-2837.439	1	3427.776	-55.87119	6.358303E-007	0.0006577	8
	36	96	75.60484	2240.761	-3272.523	1	3966.16	-55.59978	6.517769E-007	0.0006586	8
	37	99	54.50582	2790.937	-4009.204	1	4884.981	-55.15697	4.31726E-007	0.0006182	7
	38	101	45.95588	3129.851	-4456.181	1	5445.504	-54.91726	4.2702E-007	0.0006491	7
	39	104	37.20238	3602.468	-5068.616	1	6218.412	-54.59707	4.328196E-007	0.0006172	7
	40	106	30.04808	4150.889	-5768.276	1	7106.538	-54.26096	4.112996E-007	0.0006398	7
	41	108	23.91582	4821.143	-6611.015	1	8182.232	-53.89826	4.102413E-007	0.0006139	7
	42	111	18.60119	5685.473	-7674.059	1	9550.7	-53.4664	3.945283E-007	0.0006204	7
	43	113	15.02404	6536.477	-8699.283	1	10881.32	-53.07949	4.094963E-007	0.0006199	7
	44	115	12.01923	7563.083	-9909.34	1	12465.76	-52.64812	3.952406E-007	0.0006104	7
	45	118	9.450605	8847.013	-11371.01	1	14407.27	-52.11593	4.102946E-007	0.0006242	7
	46	120	7.512019	10274.7	-12957.64	1	16536.93	-51.58752	4.044805E-007	0.0006327	7
	47	123	5.978954	11913.78	-14739.73	1	18952.52	-51.0522	3.951841E-007	0.0006228	7
	48	126	4.734848	13898.2	-16779.83	1	21788.13	-50.36614	3.829585E-007	0.0006325	7
	49	129	3.75601	16162.23	-19051	1	24983.16	-49.68983	3.848503E-007	0.0006317	7
	50	133	3.004808	18712.39	-21424.2	1	28445.56	-48.86528	3.709042E-007	0.0006414	7
	51	136	2.372217	21828.7	-24186.72	1	32580.51	-47.9335	3.707253E-007	0.0006158	7
	52	141	1.878005	25492.39	-27146.9	1	37239.98	-46.80028	3.647414E-007	0.0006005	7
	53	145	1.512097	29410.51	-30110.2	1	42090.4	-45.6735	3.545771E-007	0.0007172	7
	54	151	1.201923	34200.72	-33549.01	1	47908.51	-44.44887	3.483056E-007	0.0006001	7
	55	157	0.956633	39670.64	-36971.16	1	54227.54	-42.98276	3.154122E-007	-1.215908E-005	6
