EXPLAIN
TAG	EISPOT
TITLE	LABEL	Potentiostatic EIS	Test Identifier
DATE	LABEL	8/6/2020	Date
TIME	LABEL	10:52:23	Time
NOTES	NOTES	1	Notes...
	
PSTAT	PSTAT	REF3000-16137	Potentiostat
VDC	POTEN	0.00000E+000	T	DC Voltage (V)
FREQINIT	QUANT	3.00000E+005	Initial Freq. (Hz)
FREQFINAL	QUANT	1.00000E+000	Final Freq. (Hz)
PTSPERDEC	QUANT	1.00000E+001	Points/decade
VAC	QUANT	5.00000E+001	AC Voltage (mV rms)
AREA	QUANT	1.00000E+000	Sample Area (cm^2)
SPEED	SELECTOR	2	Optimize for:
ZGUESS	QUANT	1.00000E+003	Estimated Z (ohms)
EOC	QUANT	0	Open Circuit (V)
SEQUENCER	TOGGLE	TRUE	Run as Sequence
PSTATMODEL	IQUANT	5	Pstat Model
PSTATSECTION	LABEL	REF3000-16137	Pstat Section
PSTATSERIALNO	LABEL	16137	Pstat Serial Number
CTRLMODE	IQUANT	1	Control Mode
IESTAB	IQUANT	0	I/E Stability
CASPEED	IQUANT	1	Control Amp Speed
CONVENTION	IQUANT	1	Current Convention
ICHRANGE	IQUANT	2	Ich Range
ICHRANGEMODE	TOGGLE	F	Ich Auto Range
ICHOFFSETENABLE	TOGGLE	T	Ich Offset Enable
ICHOFFSET	QUANT	0	Ich Offset (V)
ICHFILTER	IQUANT	3	Ich Filter
VCHRANGE	IQUANT	2	Vch Range
VCHRANGEMODE	TOGGLE	F	Vch Auto Range
VCHOFFSETENABLE	TOGGLE	T	Vch Offset Enable
VCHOFFSET	QUANT	0	Vch Offset (V)
VCHFILTER	IQUANT	3	Vch Filter
ACHRANGE	IQUANT	2	Ach Range
ACHOFFSETENABLE	TOGGLE	F	Ach Offset Enable
ACHOFFSET	QUANT	0	Ach Offset (V)
ACHFILTER	IQUANT	3	Ach Filter
IERANGELOWERLIMIT	IQUANT	2	I/E Range Lower Limit
IERANGEMODE	TOGGLE	F	I/E AutoRange
IERANGE	IQUANT	11	I/E Range
POSFEEDENABLE	TOGGLE	F	Positive Feedback IR Comp
POSFEEDRESISTANCE	QUANT	0	Positive Feedback Resistance (ohm)
ACHSELECT	IQUANT	0	Ach Select
CABLEID	IQUANT	13	Cable ID
DCCALDATE	LABEL	7/31/2020	DC Calibration Date
ACCALDATE	LABEL	7/31/2020	AC Calibration Date
THERMOSELECT	IQUANT	1	Thermo Select
FRAMEWORKVERSION	QUANT	6.33	Framework Version
INSTRUMENTVERSION	LABEL	3.50	Instrument Version
COMPLIANCEVOLTAGE	IQUANT	0	Compliance Voltage
ZCURVE	TABLE
	Pt	Time	Freq	Zreal	Zimag	Zsig	Zmod	Zphz	Idc	Vdc	IERange
	#	s	Hz	ohm	ohm	V	ohm	°	A	V	#
	0	7	300046.9	83.69997	-10.49799	1	84.35576	-7.14894	-7.594765E-005	0.0018375	9
	1	10	238359.4	120.6879	-19.05118	1	122.1823	-8.970399	3.564263E-005	7.902121E-005	9
	2	13	189328.1	120.9582	-22.62339	1	123.0557	-10.5939	-7.771286E-005	0.0021659	9
	3	16	150421.9	88.4716	-16.18195	1	89.93931	-10.36514	-2.906789E-005	-0.0001528	9
	4	19	119484.4	89.5105	-26.77661	1	93.42974	-16.65429	6.90298E-005	-0.0017063	9
	5	21	94921.88	100.9935	-36.16941	1	107.2749	-19.70428	5.349761E-006	0.0004603	9
	6	24	75421.88	113.5422	-48.81241	1	123.59	-23.26313	-1.640257E-005	0.0008911	9
	7	26	59859.37	121.6636	-59.10307	1	135.2597	-25.91007	-1.631395E-005	0.0002139	9
	8	29	47578.12	129.4141	-69.35515	1	146.8269	-28.18759	-1.01009E-005	1.318502E-006	9
	9	31	37828.12	137.7033	-79.67517	1	159.0922	-30.05369	2.259297E-005	-0.0001471	9
	10	34	30046.88	146.734	-90.34574	1	172.3172	-31.62106	-9.490754E-006	4.212858E-006	9
	11	36	23859.38	156.959	-102.1788	1	187.2876	-33.06374	1.449312E-005	0.0000964	9
	12	39	18984.38	168.0782	-114.8545	1	203.5727	-34.34633	-1.094942E-005	0.0008945	9
	13	41	15046.87	180.9085	-129.564	1	222.519	-35.60968	-2.1215E-005	0.0007352	9
	14	43	11953.13	194.415	-146.2852	1	243.3034	-36.95918	2.801218E-005	-0.0004906	9
	15	46	9515.62	209.6173	-164.6529	1	266.5521	-38.14938	1.446572E-005	0.0001937	9
	16	48	7546.875	226.4254	-186.3925	1	293.2756	-39.46108	2.597864E-005	-0.0005032	9
	17	50	5928.309	245.862	-213.0881	1	325.3531	-40.9154	1.472222E-005	0.0001497	9
	18	53	4733.456	265.8431	-242.2174	1	359.6413	-42.33757	4.797503E-006	0.000484	9
	19	55	3796.875	285.6813	-273.8025	1	395.7039	-43.7837	-5.440996E-006	0.0027644	8
	20	57	2987.132	312.3549	-316.5642	1	444.7229	-45.38347	7.007324E-006	-0.0002559	8
	21	59	2390.625	340.4627	-362.5571	1	497.3555	-46.80009	-4.822852E-006	0.0029669	8
	22	62	1884.191	375.6433	-420.3167	1	563.7145	-48.21237	7.059497E-006	-0.0018379	8
	23	64	1516.544	399.9257	-477.7301	1	623.0302	-50.06604	3.750363E-006	-0.0014172	8
	24	66	1193.986	425.8366	-551.9948	1	697.1622	-52.35159	3.629895E-006	-0.0013462	8
	25	69	946.5144	461.0393	-637.2482	1	786.5383	-54.11484	-4.753328E-006	0.0029382	8
	26	71	751.7689	509.5542	-739.0314	1	897.6708	-55.41415	4.376368E-006	0.0007895	8
	27	74	597.4265	581.6414	-858.3499	1	1036.856	-55.87736	-2.751925E-006	0.000739	8
	28	76	477.4305	667.3362	-988.587	1	1192.745	-55.97905	1.032268E-006	0.00064	8
	29	78	376.6741	776.7144	-1145.934	1	1384.359	-55.87056	1.026773E-006	0.0006412	8
	30	81	298.2954	904.497	-1321.473	1	1601.376	-55.60987	1.019803E-006	0.0006625	8
	31	83	237.7717	1049.55	-1512.75	1	1841.187	-55.24699	1.04452E-006	0.0006383	8
	32	85	189.0121	1220.354	-1730.269	1	2117.332	-54.80478	1.046626E-006	0.0006412	8
	33	88	150.2404	1417.997	-1973.195	1	2429.859	-54.29784	1.027219E-006	0.0006527	8
	34	90	119.1737	1648.691	-2248.27	1	2787.992	-53.74683	1.061174E-006	0.0006486	8
	35	92	95.0169	1907.211	-2545.534	1	3180.754	-53.15805	1.045845E-006	0.000648	8
	36	95	75.60484	2202.143	-2877.77	1	3623.671	-52.57586	1.044657E-006	0.0006447	8
	37	98	54.50582	2710.42	-3425.287	1	4367.948	-51.64553	1.063595E-006	0.0006343	8
	38	100	45.95588	3019.927	-3749.67	1	4814.56	-51.15257	7.689009E-007	0.0006114	7
	39	102	37.20238	3440.154	-4175.014	1	5409.75	-50.51195	7.699143E-007	0.000607	7
	40	105	30.04808	3922.478	-4636.723	1	6073.305	-49.77015	7.863455E-007	0.0006045	7
	41	107	23.91582	4514.002	-5178.602	1	6869.798	-48.9225	7.964025E-007	0.0006075	7
	42	110	18.60119	5252.979	-5843.639	1	7857.602	-48.04691	8.09946E-007	0.0006186	7
	43	112	15.02404	5974.266	-6421.707	1	8770.985	-47.06723	8.138304E-007	0.0006295	7
	44	114	12.01923	6811.182	-7038.891	1	9794.8	-45.94191	7.763446E-007	0.0006174	7
	45	117	9.450605	7826.73	-7720.04	1	10993.49	-44.60681	7.830106E-007	0.0006319	7
	46	119	7.512019	8898.587	-8371.432	1	12217.43	-43.25163	7.953109E-007	0.0005977	7
	47	122	5.978954	10090.08	-8965.293	1	13497.64	-41.62189	8.211737E-007	0.0006131	7
	48	125	4.734848	11372.32	-9393.668	1	14750.27	-39.55711	8.281266E-007	0.0005988	7
	49	130	3.75601	12734.31	-9786.5	1	16060.46	-37.54281	8.497856E-007	0.0006228	7
	50	135	3.004808	14122.39	-10169.85	1	17403.09	-35.7585	8.700428E-007	0.0005856	7
	51	142	2.372217	15790.16	-10638.24	1	19039.46	-33.96918	8.712958E-007	0.0005346	7
	52	146	1.878005	17335.65	-10665.41	1	20353.77	-31.60107	8.958523E-007	0.0006212	7
	53	155	1.512097	18946.28	-10927.71	1	21871.82	-29.9752	9.107678E-007	0.0005304	7
	54	165	1.201923	20797.44	-11160.27	1	23602.65	-28.21879	9.283315E-007	0.0006338	7
	55	178	0.956633	22712.29	-11249.05	1	25345.4	-26.3485	9.182738E-007	-2.810817E-005	7
