EXPLAIN
TAG	EISPOT
TITLE	LABEL	Potentiostatic EIS	Test Identifier
DATE	LABEL	8/6/2020	Date
TIME	LABEL	11:24:01	Time
NOTES	NOTES	1	Notes...
	
PSTAT	PSTAT	REF3000-16137	Potentiostat
VDC	POTEN	0.00000E+000	T	DC Voltage (V)
FREQINIT	QUANT	3.00000E+005	Initial Freq. (Hz)
FREQFINAL	QUANT	1.00000E+000	Final Freq. (Hz)
PTSPERDEC	QUANT	1.00000E+001	Points/decade
VAC	QUANT	5.00000E+001	AC Voltage (mV rms)
AREA	QUANT	1.00000E+000	Sample Area (cm^2)
SPEED	SELECTOR	2	Optimize for:
ZGUESS	QUANT	1.00000E+003	Estimated Z (ohms)
EOC	QUANT	0	Open Circuit (V)
SEQUENCER	TOGGLE	TRUE	Run as Sequence
PSTATMODEL	IQUANT	5	Pstat Model
PSTATSECTION	LABEL	REF3000-16137	Pstat Section
PSTATSERIALNO	LABEL	16137	Pstat Serial Number
CTRLMODE	IQUANT	1	Control Mode
IESTAB	IQUANT	0	I/E Stability
CASPEED	IQUANT	1	Control Amp Speed
CONVENTION	IQUANT	1	Current Convention
ICHRANGE	IQUANT	2	Ich Range
ICHRANGEMODE	TOGGLE	F	Ich Auto Range
ICHOFFSETENABLE	TOGGLE	T	Ich Offset Enable
ICHOFFSET	QUANT	0	Ich Offset (V)
ICHFILTER	IQUANT	3	Ich Filter
VCHRANGE	IQUANT	2	Vch Range
VCHRANGEMODE	TOGGLE	F	Vch Auto Range
VCHOFFSETENABLE	TOGGLE	T	Vch Offset Enable
VCHOFFSET	QUANT	0	Vch Offset (V)
VCHFILTER	IQUANT	3	Vch Filter
ACHRANGE	IQUANT	2	Ach Range
ACHOFFSETENABLE	TOGGLE	F	Ach Offset Enable
ACHOFFSET	QUANT	0	Ach Offset (V)
ACHFILTER	IQUANT	3	Ach Filter
IERANGELOWERLIMIT	IQUANT	2	I/E Range Lower Limit
IERANGEMODE	TOGGLE	F	I/E AutoRange
IERANGE	IQUANT	11	I/E Range
POSFEEDENABLE	TOGGLE	F	Positive Feedback IR Comp
POSFEEDRESISTANCE	QUANT	0	Positive Feedback Resistance (ohm)
ACHSELECT	IQUANT	0	Ach Select
CABLEID	IQUANT	13	Cable ID
DCCALDATE	LABEL	7/31/2020	DC Calibration Date
ACCALDATE	LABEL	7/31/2020	AC Calibration Date
THERMOSELECT	IQUANT	1	Thermo Select
FRAMEWORKVERSION	QUANT	6.33	Framework Version
INSTRUMENTVERSION	LABEL	3.50	Instrument Version
COMPLIANCEVOLTAGE	IQUANT	0	Compliance Voltage
ZCURVE	TABLE
	Pt	Time	Freq	Zreal	Zimag	Zsig	Zmod	Zphz	Idc	Vdc	IERange
	#	s	Hz	ohm	ohm	V	ohm	°	A	V	#
	0	25	300046.9	105.4511	-4393.368	1	4394.633	-88.62503	-3.168628E-005	-0.0012383	9
	1	39	238359.4	182.8861	-5591.648	1	5594.639	-88.12669	8.188927E-005	-0.0017438	9
	2	69	189328.1	308.7747	-6747.224	1	6754.285	-87.37979	9.077594E-005	-0.0025542	9
	3	77	150421.9	555.7014	-8332.866	1	8351.375	-86.18472	1.856457E-005	-0.002073	9
	4	85	119484.4	453.1262	-10636.53	1	10646.17	-87.56062	2.934042E-005	-0.001901	9
	5	93	94921.88	1176.439	-12935.45	1	12988.84	-84.80342	-1.203771E-005	0.0103789	8
	6	102	75421.88	1342.902	-16342.89	1	16397.97	-85.30254	2.793282E-005	-0.0076203	8
	7	111	59859.37	2058.738	-20517.94	1	20620.97	-84.27021	-2.453552E-005	0.0053508	8
	8	118	47578.12	5263.162	-26660.5	1	27175.04	-78.8326	5.393876E-006	-0.0270247	7
	9	126	37828.12	3074.926	-31902.51	1	32050.36	-84.49455	1.643526E-005	-0.0094386	8
	10	134	30046.88	6940.013	-40970.4	1	41554.03	-80.38588	-1.737582E-006	0.022098	7
	11	142	23859.38	8058.744	-50627.21	1	51264.59	-80.95564	-7.363827E-006	0.0239942	7
	12	147	18984.38	10092.15	-62711.31	1	63518.19	-80.85776	-3.538488E-006	-0.0047746	7
	13	152	15046.87	11280.05	-80534.33	1	81320.46	-82.02673	-5.515437E-006	0.0275175	7
	14	158	11953.13	14322.85	-99162.3	1	100191.3	-81.78113	4.933998E-006	-0.0007308	7
	15	164	9515.62	21580.82	-120444.9	1	122363	-79.84177	-1.763645E-006	0.021996	7
	16	171	7546.875	26974.91	-152482.6	1	154850.3	-79.9679	5.305057E-006	-0.0266808	7
	17	176	5928.309	40990.92	-206120.6	1	210157	-78.75241	5.855192E-007	0.016036	7
	18	182	4733.456	77953.24	-249223.6	1	261130.5	-72.63113	3.97341E-007	-0.0254815	6
	19	187	3796.875	94182.91	-299489.3	1	313949.5	-72.54277	-7.593983E-007	0.0236661	6
	20	192	2987.132	119226.2	-375895.2	1	394350.2	-72.40205	-2.913234E-007	-0.0071042	6
	21	197	2390.625	102568.1	-439542.9	1	451351.5	-76.86498	-1.126257E-006	-0.0131764	7
	22	204	1884.191	421653	-659490.4	1	782763.6	-57.4067	6.705055E-006	-0.0104611	7
	23	210	1516.544	391208.9	-832825.2	1	920131.6	-64.83881	-6.507163E-006	0.0260722	7
	24	218	1193.986	293914.6	-840072.7	1	890004.4	-70.71669	-5.359528E-006	0.0269253	7
	25	226	946.5144	-139144.8	-739508.5	1	752485.3	-100.6561	5.384833E-006	-0.0271476	7
	26	231	751.7689	1345240	-602266.5	1	1473905	-24.11815	-1.226745E-006	-0.0132931	7
	27	235	597.4265	754441.1	603630.4	1	966205	38.6634	2.865331E-006	0.00806	7
	28	241	477.4305	1042633	-1739396	1	2027950	-59.06059	-8.625839E-008	0.0006254	7
	29	246	376.6741	1688250	-1877713	1	2525073	-48.04132	-1.06472E-009	0.0006981	5
	30	249	298.2954	1851935	-2193470	1	2870709	-49.82578	-8.960726E-009	0.0006567	6
	31	253	237.7717	2496778	-2247031	1	3359025	-41.98634	-1.062766E-009	0.0006772	5
	32	257	189.0121	3037958	-2338311	1	3833652	-37.58541	-1.042727E-009	0.0006904	5
	33	259	150.2404	3568836	-2283612	1	4236918	-32.6142	-1.073773E-009	0.0006895	5
	34	262	119.1737	4033586	-3079433	1	5074714	-37.35984	-9.334904E-010	0.0006401	5
	35	265	95.0169	4689130	-2261810	1	5206123	-25.75042	-9.769214E-010	0.0006576	5
	36	268	75.60484	5197081	-2131344	1	5617142	-22.29873	-9.979139E-010	0.0006237	5
	37	271	54.50582	5808143	-1904950	1	6112558	-18.15841	-9.492327E-010	0.0006087	5
	38	274	45.95588	6774311	-1124016	1	6866928	-9.420878	-1.408724E-010	0.0007468	4
	39	276	37.20238	7086201	-1054367	1	7164212	-8.463038	-1.654311E-010	0.0007069	4
	40	279	30.04808	7349961	-1020467	1	7420463	-7.904406	-1.051624E-010	0.000707	4
	41	282	23.91582	7674182	-952506	1	7733068	-7.07527	-9.1064E-011	0.000706	4
	42	285	18.60119	7979245	-1113735	1	8056597	-7.945951	-1.323755E-010	0.0006465	4
	43	287	15.02404	8320050	-923924.9	1	8371193	-6.336619	-2.726221E-011	0.0007209	4
	44	290	12.01923	8681906	-930597.8	1	8731638	-6.118072	-1.832377E-010	0.0006145	4
	45	292	9.450605	9081345	-976896	1	9133737	-6.139799	-8.302912E-011	0.0006803	4
	46	295	7.512019	9.542712E+006	-1043818	1	9.599631E+006	-6.242411	-4.465439E-011	0.0006269	4
	47	298	5.978954	1.012873E+007	-1161818	1	1.019515E+007	-6.543526	-1.322452E-010	0.0007428	4
	48	302	4.734848	1.091564E+007	-1290042	1	1.099161E+007	-6.740115	-8.981568E-011	0.0006607	4
	49	307	3.75601	1.185614E+007	-1475217	1	1.194756E+007	-7.092656	-6.160596E-011	0.0007223	4
	50	313	3.004808	1.306879E+007	-1722848	1	1.318186E+007	-7.509951	-9.787676E-011	0.0007177	4
	51	319	2.372217	1.426898E+007	-2006565	1	1.440937E+007	-8.004689	-4.76805E-011	0.0006342	4
	52	323	1.878005	1.53999E+007	-2331180	1	1.557534E+007	-8.607874	-4.634585E-011	0.0006408	4
	53	328	1.512097	1.67459E+007	-2710699	1	1.696387E+007	-9.194852	-8.021255E-011	0.0007456	4
	54	333	1.201923	1.84596E+007	-3270738	1	1.874713E+007	-10.04759	-6.537006E-011	0.0006622	4
	55	340	0.956633	2.055969E+007	-3910768	1	2.092833E+007	-10.76987	-1.683757E-010	2.586023E-005	4
