EXPLAIN
TAG	EISPOT
TITLE	LABEL	Potentiostatic EIS	Test Identifier
DATE	LABEL	8/6/2020	Date
TIME	LABEL	11:06:53	Time
NOTES	NOTES	1	Notes...
	
PSTAT	PSTAT	REF3000-16137	Potentiostat
VDC	POTEN	0.00000E+000	T	DC Voltage (V)
FREQINIT	QUANT	3.00000E+005	Initial Freq. (Hz)
FREQFINAL	QUANT	1.00000E+000	Final Freq. (Hz)
PTSPERDEC	QUANT	1.00000E+001	Points/decade
VAC	QUANT	5.00000E+001	AC Voltage (mV rms)
AREA	QUANT	1.00000E+000	Sample Area (cm^2)
SPEED	SELECTOR	2	Optimize for:
ZGUESS	QUANT	1.00000E+003	Estimated Z (ohms)
EOC	QUANT	0	Open Circuit (V)
SEQUENCER	TOGGLE	TRUE	Run as Sequence
PSTATMODEL	IQUANT	5	Pstat Model
PSTATSECTION	LABEL	REF3000-16137	Pstat Section
PSTATSERIALNO	LABEL	16137	Pstat Serial Number
CTRLMODE	IQUANT	1	Control Mode
IESTAB	IQUANT	0	I/E Stability
CASPEED	IQUANT	1	Control Amp Speed
CONVENTION	IQUANT	1	Current Convention
ICHRANGE	IQUANT	2	Ich Range
ICHRANGEMODE	TOGGLE	F	Ich Auto Range
ICHOFFSETENABLE	TOGGLE	T	Ich Offset Enable
ICHOFFSET	QUANT	0	Ich Offset (V)
ICHFILTER	IQUANT	3	Ich Filter
VCHRANGE	IQUANT	2	Vch Range
VCHRANGEMODE	TOGGLE	F	Vch Auto Range
VCHOFFSETENABLE	TOGGLE	T	Vch Offset Enable
VCHOFFSET	QUANT	0	Vch Offset (V)
VCHFILTER	IQUANT	3	Vch Filter
ACHRANGE	IQUANT	2	Ach Range
ACHOFFSETENABLE	TOGGLE	F	Ach Offset Enable
ACHOFFSET	QUANT	0	Ach Offset (V)
ACHFILTER	IQUANT	3	Ach Filter
IERANGELOWERLIMIT	IQUANT	2	I/E Range Lower Limit
IERANGEMODE	TOGGLE	F	I/E AutoRange
IERANGE	IQUANT	11	I/E Range
POSFEEDENABLE	TOGGLE	F	Positive Feedback IR Comp
POSFEEDRESISTANCE	QUANT	0	Positive Feedback Resistance (ohm)
ACHSELECT	IQUANT	0	Ach Select
CABLEID	IQUANT	13	Cable ID
DCCALDATE	LABEL	7/31/2020	DC Calibration Date
ACCALDATE	LABEL	7/31/2020	AC Calibration Date
THERMOSELECT	IQUANT	1	Thermo Select
FRAMEWORKVERSION	QUANT	6.33	Framework Version
INSTRUMENTVERSION	LABEL	3.50	Instrument Version
COMPLIANCEVOLTAGE	IQUANT	0	Compliance Voltage
ZCURVE	TABLE
	Pt	Time	Freq	Zreal	Zimag	Zsig	Zmod	Zphz	Idc	Vdc	IERange
	#	s	Hz	ohm	ohm	V	ohm	°	A	V	#
	0	8	300046.9	291.7095	-26.34323	1	292.8965	-5.160178	-3.662351E-005	-0.0008785	9
	1	13	238359.4	297.17	-31.28245	1	298.812	-6.009273	3.012126E-005	0.0003734	10
	2	17	189328.1	303.0123	-26.37361	1	304.1579	-4.974379	-0.0001006	0.0037662	9
	3	21	150421.9	311.1787	-28.53446	1	312.4843	-5.239255	-3.0829E-006	-0.0015121	9
	4	28	119484.4	320.2627	-30.11686	1	321.6756	-5.372181	7.57007E-006	0.0014033	9
	5	35	94921.88	326.4819	-32.76903	1	328.1223	-5.73159	1.242179E-005	0.0003223	9
	6	38	75421.88	331.7498	-37.285	1	333.8385	-6.4125	-1.410192E-005	0.000965	9
	7	40	59859.37	337.4081	-42.58924	1	340.0854	-7.194097	3.010505E-005	-0.0006666	9
	8	43	47578.12	343.3841	-48.83576	1	346.8394	-8.094271	-6.429305E-007	-0.0003506	9
	9	45	37828.12	350.2026	-58.07676	1	354.9856	-9.416098	-2.272359E-005	0.0010114	9
	10	48	30046.88	357.5663	-68.13915	1	364.0009	-10.78913	2.56263E-005	-0.0009305	9
	11	50	23859.38	365.3625	-80.68692	1	374.166	-12.45335	-9.329542E-007	-0.0004053	9
	12	53	18984.38	373.2711	-93.91012	1	384.9031	-14.12179	1.467143E-005	-0.0023057	8
	13	55	15046.87	384.6483	-112.0451	1	400.6351	-16.24043	-1.306422E-005	0.0032194	8
	14	57	11953.13	394.0976	-135.7674	1	416.8281	-19.00893	1.483996E-005	-0.0040635	8
	15	59	9515.62	408.5019	-161.3931	1	439.2283	-21.55825	1.098723E-005	-0.0003762	8
	16	62	7546.875	423.3001	-191.1689	1	464.4659	-24.30468	-2.619419E-006	-0.0015849	8
	17	64	5928.309	442.1298	-232.6468	1	499.6031	-27.75315	-1.289909E-005	0.0055158	8
	18	66	4733.456	463.9241	-278.6678	1	541.1851	-30.9922	6.801526E-006	-0.0041167	8
	19	69	3796.875	485.6242	-330.6994	1	587.5313	-34.25401	1.522218E-005	-0.0041569	8
	20	71	2987.132	517.0074	-397.1776	1	651.9561	-37.53234	-1.024878E-005	0.0016351	8
	21	73	2390.625	554.9832	-474.4954	1	730.1727	-40.52954	5.294408E-006	-0.0038772	8
	22	76	1884.191	592.7328	-573.3145	1	824.6343	-44.04593	1.511957E-005	-0.0031139	8
	23	78	1516.544	641.3519	-678.7436	1	933.8228	-46.62247	1.525754E-006	0.0036567	8
	24	81	1193.986	702.5682	-820.1536	1	1079.932	-49.41565	1.522809E-005	-0.0041671	8
	25	83	946.5144	778.3375	-978.168	1	1250.049	-51.49041	-7.581317E-006	0.0001596	8
	26	86	751.7689	867.2646	-1171.713	1	1457.758	-53.49233	1.395423E-005	-0.0047817	8
	27	89	597.4265	980.649	-1401.784	1	1710.751	-55.02444	-1.445494E-005	0.0050727	8
	28	91	477.4305	1102.769	-1660.517	1	1993.343	-56.4114	1.011265E-007	0.000645	8
	29	94	376.6741	1266.239	-1986.499	1	2355.746	-57.48566	9.719416E-008	0.0006379	8
	30	96	298.2954	1462.615	-2365.469	1	2781.131	-58.27069	9.345318E-008	0.0006462	8
	31	98	237.7717	1694.406	-2797.801	1	3270.887	-58.80004	9.169099E-008	0.0006495	8
	32	101	189.0121	1977.255	-3308.054	1	3853.927	-59.13284	5.293623E-008	0.0006586	8
	33	103	150.2404	2323.429	-3909.139	1	4547.493	-59.27451	6.096191E-008	0.0006433	7
	34	105	119.1737	2734.221	-4608.6	1	5358.652	-59.3199	6.111046E-008	0.000631	7
	35	108	95.0169	3217.236	-5402.879	1	6288.22	-59.2276	6.467152E-008	0.0006088	7
	36	110	75.60484	3797.385	-6332.204	1	7383.559	-59.04913	5.61265E-008	0.0006284	7
	37	113	54.50582	4816.354	-7899.062	1	9251.619	-58.62777	6.104703E-008	0.0006181	7
	38	115	45.95588	5468.887	-8871.571	1	10421.78	-58.34821	5.51133E-008	0.0006461	7
	39	118	37.20238	6392.275	-10207.26	1	12043.64	-57.94322	5.231442E-008	0.0006277	7
	40	120	30.04808	7476.009	-11739.19	1	13917.59	-57.5093	5.57104E-008	0.0006255	7
	41	123	23.91582	8842.409	-13598.67	1	16220.73	-56.96644	5.746735E-008	0.0006198	7
	42	125	18.60119	10598.45	-15950.24	1	19150.38	-56.39715	6.244175E-008	0.000612	7
	43	127	15.02404	12364.36	-18203.11	1	22005.24	-55.81392	5.192054E-008	0.0006538	7
	44	130	12.01923	14473.23	-20896.89	1	25419.57	-55.29345	4.668856E-008	0.000642	7
	45	132	9.450605	17140.12	-24167.4	1	29628.49	-54.65479	4.029736E-008	0.0006401	7
	46	134	7.512019	20069.83	-27741.38	1	34240.07	-54.11569	4.286856E-008	0.0006092	7
	47	137	5.978954	23469.75	-31789.17	1	39514.3	-53.56178	3.724217E-008	0.0006593	7
	48	140	4.734848	27518.54	-36484.12	1	45698.59	-52.97419	5.841062E-008	0.0006343	6
	49	144	3.75601	32134.8	-41855.73	1	52768.81	-52.4847	5.815152E-008	0.0006667	6
	50	147	3.004808	37190.45	-47715.84	1	60497.36	-52.06661	6.002905E-008	0.0006174	6
	51	151	2.372217	43447.79	-54901.19	1	70013.23	-51.64256	5.420094E-008	0.0006196	6
	52	155	1.878005	50646.48	-63021.98	1	80850.7	-51.21353	5.290313E-008	0.000669	6
	53	160	1.512097	58435.61	-71854.77	1	92616.56	-50.8804	5.230799E-008	0.0005611	6
	54	165	1.201923	68077.45	-82816.91	1	107206.2	-50.57899	4.95142E-008	0.0006856	6
	55	171	0.956633	79405.2	-95456	1	124165.3	-50.24458	4.537942E-008	1.908616E-005	6
