EXPLAIN
TAG	EISPOT
TITLE	LABEL	Potentiostatic EIS	Test Identifier
DATE	LABEL	8/6/2020	Date
TIME	LABEL	11:04:03	Time
NOTES	NOTES	1	Notes...
	
PSTAT	PSTAT	REF3000-16137	Potentiostat
VDC	POTEN	0.00000E+000	T	DC Voltage (V)
FREQINIT	QUANT	3.00000E+005	Initial Freq. (Hz)
FREQFINAL	QUANT	1.00000E+000	Final Freq. (Hz)
PTSPERDEC	QUANT	1.00000E+001	Points/decade
VAC	QUANT	5.00000E+001	AC Voltage (mV rms)
AREA	QUANT	1.00000E+000	Sample Area (cm^2)
SPEED	SELECTOR	2	Optimize for:
ZGUESS	QUANT	1.00000E+003	Estimated Z (ohms)
EOC	QUANT	0	Open Circuit (V)
SEQUENCER	TOGGLE	TRUE	Run as Sequence
PSTATMODEL	IQUANT	5	Pstat Model
PSTATSECTION	LABEL	REF3000-16137	Pstat Section
PSTATSERIALNO	LABEL	16137	Pstat Serial Number
CTRLMODE	IQUANT	1	Control Mode
IESTAB	IQUANT	0	I/E Stability
CASPEED	IQUANT	1	Control Amp Speed
CONVENTION	IQUANT	1	Current Convention
ICHRANGE	IQUANT	2	Ich Range
ICHRANGEMODE	TOGGLE	F	Ich Auto Range
ICHOFFSETENABLE	TOGGLE	T	Ich Offset Enable
ICHOFFSET	QUANT	0	Ich Offset (V)
ICHFILTER	IQUANT	3	Ich Filter
VCHRANGE	IQUANT	2	Vch Range
VCHRANGEMODE	TOGGLE	F	Vch Auto Range
VCHOFFSETENABLE	TOGGLE	T	Vch Offset Enable
VCHOFFSET	QUANT	0	Vch Offset (V)
VCHFILTER	IQUANT	3	Vch Filter
ACHRANGE	IQUANT	2	Ach Range
ACHOFFSETENABLE	TOGGLE	F	Ach Offset Enable
ACHOFFSET	QUANT	0	Ach Offset (V)
ACHFILTER	IQUANT	3	Ach Filter
IERANGELOWERLIMIT	IQUANT	2	I/E Range Lower Limit
IERANGEMODE	TOGGLE	F	I/E AutoRange
IERANGE	IQUANT	11	I/E Range
POSFEEDENABLE	TOGGLE	F	Positive Feedback IR Comp
POSFEEDRESISTANCE	QUANT	0	Positive Feedback Resistance (ohm)
ACHSELECT	IQUANT	0	Ach Select
CABLEID	IQUANT	13	Cable ID
DCCALDATE	LABEL	7/31/2020	DC Calibration Date
ACCALDATE	LABEL	7/31/2020	AC Calibration Date
THERMOSELECT	IQUANT	1	Thermo Select
FRAMEWORKVERSION	QUANT	6.33	Framework Version
INSTRUMENTVERSION	LABEL	3.50	Instrument Version
COMPLIANCEVOLTAGE	IQUANT	0	Compliance Voltage
ZCURVE	TABLE
	Pt	Time	Freq	Zreal	Zimag	Zsig	Zmod	Zphz	Idc	Vdc	IERange
	#	s	Hz	ohm	ohm	V	ohm	°	A	V	#
	0	8	300046.9	169.6913	-12.65239	1	170.1623	-4.264154	-7.730895E-005	0.0030906	9
	1	11	238359.4	172.3319	-14.98823	1	172.9825	-4.97068	1.958319E-005	-0.0010752	9
	2	15	189328.1	175.4217	-16.571	1	176.2027	-5.396362	1.357283E-005	-0.0010128	9
	3	18	150421.9	178.1449	-19.58389	1	179.2181	-6.273468	-4.4187E-006	0.0012828	9
	4	22	119484.4	181.0116	-21.75323	1	182.314	-6.852707	2.073592E-005	-0.0004863	9
	5	24	94921.88	184.0342	-25.45988	1	185.7869	-7.876488	7.338476E-007	0.0004976	9
	6	27	75421.88	187.3154	-29.94106	1	189.6932	-9.081509	2.881629E-005	-0.0005733	9
	7	29	59859.37	191.0862	-35.39734	1	194.3371	-10.49467	2.849788E-005	-0.0006887	9
	8	32	47578.12	195.0183	-41.79159	1	199.446	-12.0953	2.254254E-005	-0.0008342	9
	9	34	37828.12	200.3209	-49.22844	1	206.2811	-13.80672	-1.019659E-005	-0.0001191	9
	10	37	30046.88	205.4301	-58.27108	1	213.5347	-15.8362	-1.559416E-005	0.0001331	9
	11	40	23859.38	211.6854	-68.85752	1	222.603	-18.01879	8.219176E-006	-0.0006058	9
	12	42	18984.38	218.7975	-81.25825	1	233.3994	-20.37427	-2.27555E-005	0.0008311	9
	13	44	15046.87	227.1946	-95.5909	1	246.4853	-22.81866	-2.119203E-005	0.0005354	9
	14	46	11953.13	236.4979	-113.8494	1	262.4747	-25.70603	2.182057E-005	-6.255572E-005	9
	15	50	9515.62	247.3786	-134.7003	1	281.6742	-28.56876	-9.580839E-007	-0.0003636	9
	16	52	7546.875	259.5318	-159.5659	1	304.6605	-31.58411	1.532228E-005	-0.0008135	9
	17	55	5928.309	273.9266	-190.9292	1	333.9008	-34.87683	2.916964E-005	-0.0006614	9
	18	57	4733.456	290.8235	-226.0808	1	368.3624	-37.86083	-1.215591E-006	-0.0003494	9
	19	59	3796.875	308.5002	-265.5612	1	407.0567	-40.72232	-9.525098E-006	0.0031456	8
	20	62	2987.132	332.2652	-317.7709	1	459.7592	-43.72264	1.74091E-006	-0.0019442	8
	21	64	2390.625	359.0007	-376.414	1	520.1624	-46.35641	1.607553E-006	-0.0019251	8
	22	66	1884.191	391.6243	-447.8084	1	594.8966	-48.82916	-9.083183E-006	0.0023989	8
	23	69	1516.544	428.8441	-532.1693	1	683.4555	-51.13669	1.121794E-005	-0.0022187	8
	24	71	1193.986	480.5325	-637.2324	1	798.1082	-52.98031	1.156817E-005	-0.0023216	8
	25	74	946.5144	540.0444	-756.8312	1	929.7535	-54.48987	1.831144E-006	-0.0019943	8
	26	76	751.7689	611.0187	-898.5532	1	1086.619	-55.78419	-7.761606E-006	0.0045714	8
	27	79	597.4265	698.5194	-1066.1	1	1274.558	-56.76677	-9.061438E-006	0.0042516	8
	28	81	477.4305	803.3295	-1252.161	1	1487.698	-57.31762	3.533115E-007	0.0006561	8
	29	83	376.6741	935.671	-1481.756	1	1752.45	-57.72919	3.334779E-007	0.0006504	8
	30	86	298.2954	1092.658	-1744.161	1	2058.154	-57.93426	3.330696E-007	0.0006568	8
	31	88	237.7717	1274.975	-2038.361	1	2404.262	-57.97441	3.2971E-007	0.000652	8
	32	91	189.0121	1494.199	-2380.832	1	2810.87	-57.88781	3.453688E-007	0.0006538	8
	33	93	150.2404	1753.064	-2773.923	1	3281.445	-57.70792	3.153327E-007	0.0006598	8
	34	95	119.1737	2060.613	-3230.116	1	3831.42	-57.46466	3.221431E-007	0.0007107	8
	35	98	95.0169	2420.622	-3748.13	1	4461.825	-57.14477	2.124546E-007	0.0006285	7
	36	100	75.60484	2839.248	-4340.338	1	5186.507	-56.80915	2.091158E-007	0.0006241	7
	37	103	54.50582	3559.958	-5329.436	1	6409.071	-56.25786	2.082272E-007	0.0006105	7
	38	105	45.95588	4011.377	-5935.453	1	7163.851	-55.94786	2.135964E-007	0.0006185	7
	39	108	37.20238	4639.922	-6765.648	1	8203.832	-55.55744	1.999155E-007	0.0006432	7
	40	110	30.04808	5375.7	-7711.88	1	9400.598	-55.12091	2.004859E-007	0.000617	7
	41	113	23.91582	6276.295	-8855	1	10853.71	-54.67154	1.950459E-007	0.0006228	7
	42	115	18.60119	7427.08	-10286.55	1	12687.58	-54.17002	1.848565E-007	0.0006334	7
	43	117	15.02404	8577.708	-11673.09	1	14485.79	-53.69054	2.059107E-007	0.000657	7
	44	119	12.01923	9936.72	-13309.84	1	16609.94	-53.25611	1.847627E-007	0.0006196	7
	45	122	9.450605	11627.3	-15276.62	1	19198.15	-52.72462	1.972818E-007	0.0006485	7
	46	124	7.512019	13490.96	-17439.92	1	22048.97	-52.27562	1.960183E-007	0.0006365	7
	47	127	5.978954	15635.56	-19907.69	1	25313.77	-51.8538	1.861805E-007	0.0006245	7
	48	130	4.734848	18169.21	-22734.25	1	29102.68	-51.36816	1.870805E-007	0.0006388	7
	49	133	3.75601	21095.6	-25934.31	1	33430.72	-50.87426	1.738189E-007	0.0006034	7
	50	137	3.004808	24362.36	-29407.05	1	38187.68	-50.35986	1.68774E-007	0.0006391	7
	51	141	2.372217	28399.03	-33490.69	1	43910.49	-49.70313	1.686092E-007	0.0006829	6
	52	145	1.878005	33089.82	-38132.52	1	50487.88	-49.04991	1.628604E-007	0.000646	6
	53	149	1.512097	38076.21	-42995.66	1	57431.91	-48.47246	1.610141E-007	0.0005854	6
	54	155	1.201923	44378.43	-48695.55	1	65884.01	-47.65569	1.5566E-007	0.0006399	6
	55	161	0.956633	51601.22	-55006.02	1	75421.14	-46.82928	1.485946E-007	8.667359E-006	6
