EXPLAIN
TAG	EISPOT
TITLE	LABEL	Potentiostatic EIS	Test Identifier
DATE	LABEL	8/6/2020	Date
TIME	LABEL	11:09:53	Time
NOTES	NOTES	1	Notes...
	
PSTAT	PSTAT	REF3000-16137	Potentiostat
VDC	POTEN	0.00000E+000	T	DC Voltage (V)
FREQINIT	QUANT	3.00000E+005	Initial Freq. (Hz)
FREQFINAL	QUANT	1.00000E+000	Final Freq. (Hz)
PTSPERDEC	QUANT	1.00000E+001	Points/decade
VAC	QUANT	5.00000E+001	AC Voltage (mV rms)
AREA	QUANT	1.00000E+000	Sample Area (cm^2)
SPEED	SELECTOR	2	Optimize for:
ZGUESS	QUANT	1.00000E+003	Estimated Z (ohms)
EOC	QUANT	0	Open Circuit (V)
SEQUENCER	TOGGLE	TRUE	Run as Sequence
PSTATMODEL	IQUANT	5	Pstat Model
PSTATSECTION	LABEL	REF3000-16137	Pstat Section
PSTATSERIALNO	LABEL	16137	Pstat Serial Number
CTRLMODE	IQUANT	1	Control Mode
IESTAB	IQUANT	0	I/E Stability
CASPEED	IQUANT	1	Control Amp Speed
CONVENTION	IQUANT	1	Current Convention
ICHRANGE	IQUANT	2	Ich Range
ICHRANGEMODE	TOGGLE	F	Ich Auto Range
ICHOFFSETENABLE	TOGGLE	T	Ich Offset Enable
ICHOFFSET	QUANT	0	Ich Offset (V)
ICHFILTER	IQUANT	3	Ich Filter
VCHRANGE	IQUANT	2	Vch Range
VCHRANGEMODE	TOGGLE	F	Vch Auto Range
VCHOFFSETENABLE	TOGGLE	T	Vch Offset Enable
VCHOFFSET	QUANT	0	Vch Offset (V)
VCHFILTER	IQUANT	3	Vch Filter
ACHRANGE	IQUANT	2	Ach Range
ACHOFFSETENABLE	TOGGLE	F	Ach Offset Enable
ACHOFFSET	QUANT	0	Ach Offset (V)
ACHFILTER	IQUANT	3	Ach Filter
IERANGELOWERLIMIT	IQUANT	2	I/E Range Lower Limit
IERANGEMODE	TOGGLE	F	I/E AutoRange
IERANGE	IQUANT	11	I/E Range
POSFEEDENABLE	TOGGLE	F	Positive Feedback IR Comp
POSFEEDRESISTANCE	QUANT	0	Positive Feedback Resistance (ohm)
ACHSELECT	IQUANT	0	Ach Select
CABLEID	IQUANT	13	Cable ID
DCCALDATE	LABEL	7/31/2020	DC Calibration Date
ACCALDATE	LABEL	7/31/2020	AC Calibration Date
THERMOSELECT	IQUANT	1	Thermo Select
FRAMEWORKVERSION	QUANT	6.33	Framework Version
INSTRUMENTVERSION	LABEL	3.50	Instrument Version
COMPLIANCEVOLTAGE	IQUANT	0	Compliance Voltage
ZCURVE	TABLE
	Pt	Time	Freq	Zreal	Zimag	Zsig	Zmod	Zphz	Idc	Vdc	IERange
	#	s	Hz	ohm	ohm	V	ohm	°	A	V	#
	0	17	300046.9	659.9798	-117.1939	1	670.3042	-10.06916	-6.92043E-005	0.0005861	9
	1	31	238359.4	709.309	-114.4861	1	718.4889	-9.16876	-0.0001095	0.0038767	9
	2	43	189328.1	757.8502	-110.9481	1	765.9284	-8.328847	2.612236E-005	-0.0015123	9
	3	55	150421.9	787.9388	-100.3348	1	794.3014	-7.256892	2.002777E-005	-0.0008815	9
	4	61	119484.4	823.3716	-68.92284	1	826.2513	-4.784963	5.247097E-005	-0.0110241	8
	5	67	94921.88	841.2278	-66.01044	1	843.8138	-4.486757	1.544187E-005	-0.0068279	8
	6	70	75421.88	855.2807	-67.7464	1	857.9596	-4.528917	1.302943E-005	-1.152099E-005	8
	7	73	59859.37	870.7096	-71.82042	1	873.6666	-4.715364	-1.924301E-005	0.0077669	8
	8	76	47578.12	884.8558	-77.58661	1	888.2509	-5.011037	-1.875349E-005	0.0061304	8
	9	78	37828.12	901.2576	-88.41775	1	905.5844	-5.603064	1.96704E-005	-0.0026634	8
	10	81	30046.88	918.1487	-98.7477	1	923.4437	-6.138612	1.459527E-005	-0.0004694	8
	11	84	23859.38	935.7742	-116.0307	1	942.9404	-7.068275	-2.579381E-006	-0.0031392	8
	12	87	18984.38	954.051	-133.1537	1	963.298	-7.945263	-1.641645E-005	0.0030762	8
	13	89	15046.87	974.254	-160.4147	1	987.372	-9.350083	1.966764E-005	-0.0068859	8
	14	92	11953.13	993.845	-189.5431	1	1011.758	-10.79761	-1.421686E-005	0.0016051	8
	15	94	9515.62	1018.213	-225.0421	1	1042.785	-12.46298	2.101999E-005	-0.0059516	8
	16	97	7546.875	1049.458	-270.8736	1	1083.852	-14.47263	-1.966574E-005	0.0051317	8
	17	100	5928.309	1084.597	-329.5392	1	1133.554	-16.90066	1.953233E-005	-0.0068733	8
	18	103	4733.456	1124.092	-397.0042	1	1192.139	-19.45208	1.108455E-005	-0.006654	8
	19	107	3796.875	1165.761	-471.4908	1	1257.499	-22.02081	1.952098E-005	-0.0028307	8
	20	110	2987.132	1219.736	-575.2037	1	1348.56	-25.24765	-1.921733E-005	0.0049297	8
	21	114	2390.625	1285.617	-699.4078	1	1463.552	-28.54729	-1.375398E-005	0.0088069	8
	22	118	1884.191	1354.484	-834.7874	1	1591.068	-31.6461	1.648095E-005	-0.0073211	8
	23	122	1516.544	1438.823	-995.751	1	1749.78	-34.68554	2.135687E-005	-0.004528	8
	24	126	1193.986	1548.036	-1212.377	1	1966.284	-38.06702	1.547344E-005	-0.0003877	8
	25	131	946.5144	1657.444	-1464.855	1	2211.995	-41.47038	1.982968E-005	-0.0028157	8
	26	133	751.7689	1779.963	-1749.077	1	2495.504	-44.49855	-1.807159E-005	0.0088168	8
	27	136	597.4265	1944.372	-2078.84	1	2846.429	-46.91428	3.963881E-007	0.0057008	8
	28	140	477.4305	2138.111	-2492.869	1	3284.191	-49.38061	-1.459694E-007	0.0006474	8
	29	142	376.6741	2365.916	-2993.701	1	3815.731	-51.68076	-1.279891E-007	0.0006361	8
	30	144	298.2954	2645.581	-3587.645	1	4457.61	-53.59441	-2.272412E-008	0.0006103	7
	31	147	237.7717	2963.636	-4268.779	1	5196.692	-55.22935	-2.558507E-008	0.0006362	7
	32	149	189.0121	3350.71	-5084.738	1	6089.484	-56.61616	-2.352357E-008	0.000602	7
	33	151	150.2404	3816.804	-6049.92	1	7153.288	-57.75279	-2.598621E-008	0.0006325	7
	34	154	119.1737	4388.308	-7199.503	1	8431.494	-58.63647	-2.642299E-008	0.0005987	7
	35	156	95.0169	5053.282	-8526.713	1	9911.63	-59.34727	-3.281135E-008	0.000627	7
	36	159	75.60484	5865.991	-10100.01	1	11679.9	-59.85238	-2.742251E-008	0.0005852	7
	37	161	54.50582	7306.223	-12813.88	1	14750.48	-60.30907	-2.926771E-008	0.0005936	7
	38	164	45.95588	8249.051	-14526.19	1	16705	-60.40886	-2.89179E-008	0.000595	7
	39	166	37.20238	9590.34	-16912.8	1	19442.67	-60.44475	-3.177465E-008	0.0005976	7
	40	169	30.04808	11217.06	-19703.67	1	22672.82	-60.34767	-3.230461E-008	0.0006336	7
	41	171	23.91582	13273.58	-23129.91	1	26667.97	-60.14975	-2.768896E-008	0.0005916	7
	42	173	18.60119	16018.44	-27521.97	1	31844.13	-59.79958	-2.717148E-008	0.0005972	7
	43	176	15.02404	18808.54	-31839.18	1	36979.65	-59.42813	-3.817984E-008	0.0006952	7
	44	178	12.01923	22268.45	-36938.25	1	43131.4	-58.91607	1.44873E-008	0.0006564	6
	45	180	9.450605	26647.07	-43311.08	1	50851.9	-58.39817	1.398286E-008	0.0006472	6
	46	183	7.512019	31542.24	-50248.14	1	59327.81	-57.8823	1.461172E-008	0.0007205	6
	47	186	5.978954	37347.69	-58325.57	1	69258.37	-57.36729	1.050687E-008	0.0006832	6
	48	189	4.734848	44289.13	-67758.16	1	80948.73	-56.82995	1.20791E-008	0.0006623	6
	49	192	3.75601	52450.08	-78467.9	1	94383.38	-56.24015	6.891291E-009	0.0006412	6
	50	195	3.004808	61604.86	-90302.3	1	109314.5	-55.69792	7.777837E-009	0.0006877	6
	51	199	2.372217	72886.91	-104556.3	1	127454	-55.11938	7.044641E-009	0.0006855	6
	52	203	1.878005	86080.77	-121107.9	1	148583.4	-54.59565	5.905388E-009	0.0006653	6
	53	208	1.512097	99951.5	-138955.5	1	171169.3	-54.27232	6.142245E-009	0.0006016	6
	54	213	1.201923	117414.8	-160919.5	1	199201.7	-53.88366	5.167162E-009	0.0006586	6
	55	220	0.956633	137336.9	-186593	1	231686	-53.64605	4.220341E-009	2.579448E-005	6
