EXPLAIN
TAG	EISPOT
TITLE	LABEL	Potentiostatic EIS	Test Identifier
DATE	LABEL	8/6/2020	Date
TIME	LABEL	11:18:51	Time
NOTES	NOTES	1	Notes...
	
PSTAT	PSTAT	REF3000-16137	Potentiostat
VDC	POTEN	0.00000E+000	T	DC Voltage (V)
FREQINIT	QUANT	3.00000E+005	Initial Freq. (Hz)
FREQFINAL	QUANT	1.00000E+000	Final Freq. (Hz)
PTSPERDEC	QUANT	1.00000E+001	Points/decade
VAC	QUANT	5.00000E+001	AC Voltage (mV rms)
AREA	QUANT	1.00000E+000	Sample Area (cm^2)
SPEED	SELECTOR	2	Optimize for:
ZGUESS	QUANT	1.00000E+003	Estimated Z (ohms)
EOC	QUANT	0	Open Circuit (V)
SEQUENCER	TOGGLE	TRUE	Run as Sequence
PSTATMODEL	IQUANT	5	Pstat Model
PSTATSECTION	LABEL	REF3000-16137	Pstat Section
PSTATSERIALNO	LABEL	16137	Pstat Serial Number
CTRLMODE	IQUANT	1	Control Mode
IESTAB	IQUANT	0	I/E Stability
CASPEED	IQUANT	1	Control Amp Speed
CONVENTION	IQUANT	1	Current Convention
ICHRANGE	IQUANT	2	Ich Range
ICHRANGEMODE	TOGGLE	F	Ich Auto Range
ICHOFFSETENABLE	TOGGLE	T	Ich Offset Enable
ICHOFFSET	QUANT	0	Ich Offset (V)
ICHFILTER	IQUANT	3	Ich Filter
VCHRANGE	IQUANT	2	Vch Range
VCHRANGEMODE	TOGGLE	F	Vch Auto Range
VCHOFFSETENABLE	TOGGLE	T	Vch Offset Enable
VCHOFFSET	QUANT	0	Vch Offset (V)
VCHFILTER	IQUANT	3	Vch Filter
ACHRANGE	IQUANT	2	Ach Range
ACHOFFSETENABLE	TOGGLE	F	Ach Offset Enable
ACHOFFSET	QUANT	0	Ach Offset (V)
ACHFILTER	IQUANT	3	Ach Filter
IERANGELOWERLIMIT	IQUANT	2	I/E Range Lower Limit
IERANGEMODE	TOGGLE	F	I/E AutoRange
IERANGE	IQUANT	11	I/E Range
POSFEEDENABLE	TOGGLE	F	Positive Feedback IR Comp
POSFEEDRESISTANCE	QUANT	0	Positive Feedback Resistance (ohm)
ACHSELECT	IQUANT	0	Ach Select
CABLEID	IQUANT	13	Cable ID
DCCALDATE	LABEL	7/31/2020	DC Calibration Date
ACCALDATE	LABEL	7/31/2020	AC Calibration Date
THERMOSELECT	IQUANT	1	Thermo Select
FRAMEWORKVERSION	QUANT	6.33	Framework Version
INSTRUMENTVERSION	LABEL	3.50	Instrument Version
COMPLIANCEVOLTAGE	IQUANT	0	Compliance Voltage
ZCURVE	TABLE
	Pt	Time	Freq	Zreal	Zimag	Zsig	Zmod	Zphz	Idc	Vdc	IERange
	#	s	Hz	ohm	ohm	V	ohm	°	A	V	#
	0	28	300046.9	1036.846	-3884.377	1	4020.378	-75.05464	8.819428E-005	-0.0018778	9
	1	43	238359.4	1461.69	-4652.515	1	4876.724	-72.55874	2.644458E-005	-0.0021235	9
	2	57	189328.1	1878.714	-5710.301	1	6011.415	-71.78857	5.305121E-005	0.0001406	9
	3	66	150421.9	2616.104	-6780.058	1	7267.268	-68.90076	2.784947E-005	-0.0015017	9
	4	73	119484.4	3648.494	-8273.43	1	9042.188	-66.20303	2.09044E-005	-0.0008581	9
	5	82	94921.88	5160.928	-9537.37	1	10844.2	-61.58099	-1.96926E-005	0.0115045	8
	6	90	75421.88	6932.656	-11060.35	1	13053.47	-57.9204	-1.708728E-006	0.007633	8
	7	99	59859.37	8982.139	-12954.54	1	15763.85	-55.26416	7.577562E-006	-0.0076667	8
	8	107	47578.12	13854.19	-14126	1	19785.92	-45.55659	1.31097E-006	-0.0194843	7
	9	114	37828.12	16940.93	-15396.07	1	22891.79	-42.26484	-5.289331E-006	0.0038831	7
	10	120	30046.88	20369.11	-16526.14	1	26230.02	-39.05358	7.3015E-006	-0.0237016	7
	11	127	23859.38	24373.11	-17195.06	1	29828.15	-35.20271	1.475655E-006	-0.0203159	7
	12	132	18984.38	28025.01	-17355.84	1	32964.02	-31.76985	-1.007396E-006	-0.0130866	7
	13	137	15046.87	32264.71	-17515.74	1	36712.57	-28.49649	6.761644E-006	-0.0265967	7
	14	143	11953.13	36205.94	-16797.38	1	39912.68	-24.88847	-7.163264E-006	0.0232786	7
	15	148	9515.62	39312.45	-17065.46	1	42856.72	-23.46558	-1.686035E-006	-0.0049972	8
	16	154	7546.875	44853.8	-15621.27	1	47496.18	-19.20173	-7.024862E-006	0.0229401	7
	17	160	5928.309	48714.03	-14495.79	1	50825.04	-16.57138	-7.19518E-006	0.0185831	7
	18	165	4733.456	52212.55	-18858.17	1	55513.8	-19.85875	-2.492616E-005	0.011247	8
	19	171	3796.875	57524.1	-12133.78	1	58789.89	-11.91101	-1.646081E-005	0.0007298	8
	20	179	2987.132	60979.57	-11562.62	1	62066.12	-10.73666	-1.730304E-006	0.0217618	7
	21	184	2390.625	63728.02	-9521.32	1	64435.36	-8.497457	1.319608E-006	-0.0197394	7
	22	190	1884.191	67400.14	-12391.9	1	68529.84	-10.41781	-5.305299E-006	0.0037312	7
	23	195	1516.544	73291.87	-10912.76	1	74099.84	-8.468815	7.477886E-006	-0.0184125	7
	24	200	1193.986	77870.25	-10421.53	1	78564.52	-7.622715	5.778912E-007	0.0159238	7
	25	206	946.5144	80924.48	-8111.862	1	81330.03	-5.724202	7.042248E-007	-0.0263023	6
	26	209	751.7689	82981.26	-8058.807	1	83371.66	-5.546941	2.135076E-007	0.0106258	6
	27	211	597.4265	85689.96	-8658.427	1	86126.29	-5.769792	-4.869199E-007	0.0018282	6
	28	214	477.4305	87503.98	-9841.69	1	88055.69	-6.417164	-9.271508E-009	0.0006229	6
	29	216	376.6741	89856.11	-11196.86	1	90551.04	-7.102944	-8.797955E-009	0.0006533	6
	30	219	298.2954	92452.05	-12948.33	1	93354.38	-7.972678	-8.960811E-009	0.0006596	6
	31	221	237.7717	95231.9	-15119.03	1	96424.6	-9.021	-9.060178E-009	0.0006186	6
	32	223	189.0121	98181.4	-17818.02	1	99785.1	-10.28613	-9.602574E-009	0.0006667	6
	33	226	150.2404	101563.4	-21176.66	1	103747.7	-11.77781	-1.045502E-008	0.0007419	6
	34	228	119.1737	104733.8	-25726.91	1	107847.3	-13.80095	-8.981982E-009	0.0006216	6
	35	230	95.0169	109078.4	-30298.01	1	113208.1	-15.52335	-9.082158E-009	0.0006192	6
	36	233	75.60484	113626.7	-36330.88	1	119293.6	-17.7311	-9.513517E-009	0.0006642	6
	37	236	54.50582	119917.7	-47011.72	1	128803.6	-21.40683	-9.067782E-009	0.000613	6
	38	238	45.95588	124955.1	-54090.97	1	136160.2	-23.40698	-1.010534E-008	0.0007026	6
	39	240	37.20238	131104.4	-64134.9	1	145950.8	-26.0674	-8.982081E-009	0.0006201	6
	40	243	30.04808	138299.7	-75932.68	1	157773.8	-28.76875	-1.003095E-008	0.000721	6
	41	245	23.91582	146805.3	-91027.24	1	172736.1	-31.80115	-8.331995E-009	0.0006158	6
	42	248	18.60119	157722.4	-110909.5	1	192814.1	-35.11465	-9.846016E-009	0.0006203	6
	43	250	15.02404	168854.2	-130906.2	1	213654.3	-37.78505	-9.114805E-009	0.0006814	6
	44	252	12.01923	182759.7	-155739.5	1	240116.4	-40.43612	-1.020105E-008	0.0007163	6
	45	255	9.450605	199881.3	-187108.4	1	273792	-43.10958	-9.11121E-009	0.0007529	6
	46	257	7.512019	219267.5	-223404.4	1	313030	-45.53542	-9.016168E-009	0.000668	6
	47	260	5.978954	243503.5	-266381.9	1	360906.2	-47.56912	-9.175809E-009	0.0006244	6
	48	265	4.734848	272523.3	-318779.8	1	419391.8	-49.47303	-9.476186E-009	0.0007341	6
	49	268	3.75601	309075.4	-382303.2	1	491612.9	-51.04598	-9.444256E-010	0.0006998	5
	50	274	3.004808	352011.6	-456535.8	1	576486.9	-52.36601	-1.011659E-009	0.0006946	5
	51	280	2.372217	404155.2	-549498.7	1	682121.9	-53.66559	-8.752992E-010	0.0007265	5
	52	284	1.878005	463353.4	-657956.7	1	804738.1	-54.84561	-9.650839E-010	0.0006294	5
	53	289	1.512097	531342.9	-778404.4	1	942464.2	-55.68235	-1.018777E-009	0.0007493	5
	54	294	1.201923	617869.5	-934394.5	1	1120204	-56.52528	-9.097547E-010	0.0006251	5
	55	301	0.956633	722416.9	-1119412	1	1332280	-57.16367	-1.21979E-009	1.204839E-005	5
