EXPLAIN
TAG	EISPOT
TITLE	LABEL	Potentiostatic EIS	Test Identifier
DATE	LABEL	8/6/2020	Date
TIME	LABEL	11:13:43	Time
NOTES	NOTES	1	Notes...
	
PSTAT	PSTAT	REF3000-16137	Potentiostat
VDC	POTEN	0.00000E+000	T	DC Voltage (V)
FREQINIT	QUANT	3.00000E+005	Initial Freq. (Hz)
FREQFINAL	QUANT	1.00000E+000	Final Freq. (Hz)
PTSPERDEC	QUANT	1.00000E+001	Points/decade
VAC	QUANT	5.00000E+001	AC Voltage (mV rms)
AREA	QUANT	1.00000E+000	Sample Area (cm^2)
SPEED	SELECTOR	2	Optimize for:
ZGUESS	QUANT	1.00000E+003	Estimated Z (ohms)
EOC	QUANT	0	Open Circuit (V)
SEQUENCER	TOGGLE	TRUE	Run as Sequence
PSTATMODEL	IQUANT	5	Pstat Model
PSTATSECTION	LABEL	REF3000-16137	Pstat Section
PSTATSERIALNO	LABEL	16137	Pstat Serial Number
CTRLMODE	IQUANT	1	Control Mode
IESTAB	IQUANT	0	I/E Stability
CASPEED	IQUANT	1	Control Amp Speed
CONVENTION	IQUANT	1	Current Convention
ICHRANGE	IQUANT	2	Ich Range
ICHRANGEMODE	TOGGLE	F	Ich Auto Range
ICHOFFSETENABLE	TOGGLE	T	Ich Offset Enable
ICHOFFSET	QUANT	0	Ich Offset (V)
ICHFILTER	IQUANT	3	Ich Filter
VCHRANGE	IQUANT	2	Vch Range
VCHRANGEMODE	TOGGLE	F	Vch Auto Range
VCHOFFSETENABLE	TOGGLE	T	Vch Offset Enable
VCHOFFSET	QUANT	0	Vch Offset (V)
VCHFILTER	IQUANT	3	Vch Filter
ACHRANGE	IQUANT	2	Ach Range
ACHOFFSETENABLE	TOGGLE	F	Ach Offset Enable
ACHOFFSET	QUANT	0	Ach Offset (V)
ACHFILTER	IQUANT	3	Ach Filter
IERANGELOWERLIMIT	IQUANT	2	I/E Range Lower Limit
IERANGEMODE	TOGGLE	F	I/E AutoRange
IERANGE	IQUANT	11	I/E Range
POSFEEDENABLE	TOGGLE	F	Positive Feedback IR Comp
POSFEEDRESISTANCE	QUANT	0	Positive Feedback Resistance (ohm)
ACHSELECT	IQUANT	0	Ach Select
CABLEID	IQUANT	13	Cable ID
DCCALDATE	LABEL	7/31/2020	DC Calibration Date
ACCALDATE	LABEL	7/31/2020	AC Calibration Date
THERMOSELECT	IQUANT	1	Thermo Select
FRAMEWORKVERSION	QUANT	6.33	Framework Version
INSTRUMENTVERSION	LABEL	3.50	Instrument Version
COMPLIANCEVOLTAGE	IQUANT	0	Compliance Voltage
ZCURVE	TABLE
	Pt	Time	Freq	Zreal	Zimag	Zsig	Zmod	Zphz	Idc	Vdc	IERange
	#	s	Hz	ohm	ohm	V	ohm	°	A	V	#
	0	31	300046.9	1748.571	-1078.795	1	2054.58	-31.67286	7.564508E-006	0.0015761	9
	1	51	238359.4	2035.017	-1226.139	1	2375.86	-31.06982	-0.0001118	0.0040494	9
	2	72	189328.1	2360.698	-1183.883	1	2640.923	-26.63362	1.915245E-005	-0.002083	9
	3	82	150421.9	2611.019	-1104.562	1	2835.044	-22.93024	9.290146E-005	-0.002576	9
	4	89	119484.4	2928.024	-965.542	1	3083.114	-18.25043	1.621156E-005	-0.0085821	8
	5	97	94921.88	3152.989	-890.6946	1	3276.382	-15.77457	2.268391E-005	-0.003163	8
	6	104	75421.88	3373.75	-818.7978	1	3471.689	-13.64173	-1.001901E-005	0.0093345	8
	7	110	59859.37	3570.021	-736.5069	1	3645.201	-11.65677	-2.302222E-005	0.0054247	8
	8	116	47578.12	3744.651	-670.6786	1	3804.237	-10.15419	9.082751E-006	0.0035088	8
	9	121	37828.12	3942.322	-632.1657	1	3992.685	-9.110032	9.205864E-006	0.0034545	8
	10	129	30046.88	4165.406	-592.8027	1	4207.377	-8.099699	-6.81468E-007	0.0070205	8
	11	136	23859.38	4427.637	-288.1889	1	4437.006	-3.724051	-1.346976E-007	-0.0130447	7
	12	139	18984.38	4514.562	-302.0573	1	4524.655	-3.827802	4.798819E-006	-0.0228745	7
	13	142	15046.87	4593.344	-507.9463	1	4621.344	-6.310307	-2.318471E-005	0.0054999	8
	14	148	11953.13	4787.311	-516.7192	1	4815.116	-6.160381	-8.669159E-007	0.0071006	8
	15	153	9515.62	4943.725	-413.3372	1	4960.974	-4.779297	-4.951297E-006	0.0227833	7
	16	156	7546.875	5075.176	-564.7911	1	5106.505	-6.350035	1.772427E-005	-0.0001037	8
	17	162	5928.309	5316.554	-662.424	1	5357.663	-7.102251	6.846459E-006	-0.0071054	8
	18	167	4733.456	5504.458	-661.8485	1	5544.105	-6.856252	6.474321E-006	-0.0145021	7
	19	172	3796.875	5721.607	-857.3729	1	5785.488	-8.522264	-1.03907E-005	0.0096274	8
	20	177	2987.132	5981.653	-969.131	1	6059.653	-9.202939	2.116396E-005	-0.0092861	8
	21	183	2390.625	6241.949	-1267.436	1	6369.326	-11.47794	-2.56185E-005	0.0076355	8
	22	188	1884.191	6589.897	-1582.031	1	6777.135	-13.49948	-2.361037E-005	0.0054716	8
	23	193	1516.544	6814.526	-1596.474	1	6999.035	-13.18519	2.321548E-005	-0.0030485	8
	24	199	1193.986	7179.988	-2090.469	1	7478.121	-16.23304	1.52659E-005	-0.0089217	8
	25	204	946.5144	7435.096	-2386.858	1	7808.825	-17.79797	-1.850725E-005	0.0110721	8
	26	209	751.7689	8077.665	-3096.111	1	8650.697	-20.97147	-2.590219E-005	0.007737	8
	27	214	597.4265	8303.545	-3439.209	1	8987.604	-22.49863	-6.691903E-007	0.0071684	8
	28	219	477.4305	8815.639	-4278.841	1	9799.18	-25.89052	-7.316191E-008	0.000589	7
	29	221	376.6741	9266.883	-5174.999	1	10613.94	-29.18074	-6.960704E-008	0.000599	7
	30	223	298.2954	9794.16	-6233.387	1	11609.51	-32.47427	-7.981571E-008	0.0006353	7
	31	226	237.7717	10405.73	-7462.129	1	12804.79	-35.64497	-7.897422E-008	0.0006705	7
	32	228	189.0121	11131.03	-8938.427	1	14275.69	-38.76512	-7.806346E-008	0.0006775	7
	33	230	150.2404	11990.92	-10692.03	1	16065.55	-41.72267	-7.937341E-008	0.0006752	7
	34	233	119.1737	13010.19	-12803.51	1	18253.63	-44.54126	-7.750192E-008	0.0006751	7
	35	235	95.0169	14197.39	-15227.17	1	20819.04	-47.00439	-7.821026E-008	0.0006106	7
	36	238	75.60484	15612.35	-18146.52	1	23938.29	-49.29296	-7.46821E-008	0.0006392	7
	37	240	54.50582	18016.01	-23247.65	1	29411.39	-52.22573	-7.77644E-008	0.0006067	7
	38	243	45.95588	19606.53	-26514.14	1	32975.99	-53.51801	-7.863365E-008	0.0006763	7
	39	245	37.20238	21813.84	-31137.78	1	38018.48	-54.9865	-7.272296E-008	0.0005823	7
	40	248	30.04808	24520.45	-36656.13	1	44101.3	-56.22018	-6.076572E-009	0.0006204	6
	41	250	23.91582	27814.2	-43554.93	1	51678.44	-57.43768	-5.453252E-009	0.0006193	6
	42	252	18.60119	32223.66	-52682.48	1	61756.04	-58.54763	-6.03148E-009	0.0006302	6
	43	255	15.02404	36817.7	-61951.71	1	72066.34	-59.27712	-8.149579E-009	0.0007286	6
	44	257	12.01923	42681.25	-73392.93	1	84901.18	-59.8201	-5.873748E-009	0.0007159	6
	45	259	9.450605	50273.34	-87782.78	1	101159.4	-60.20016	-9.537861E-009	0.0007505	6
	46	262	7.512019	59038.73	-103975.9	1	119568.3	-60.41159	-9.025905E-009	0.0007154	6
	47	265	5.978954	69476.24	-122922.5	1	141198	-60.5247	-8.394358E-009	0.0007119	6
	48	268	4.734848	82488.82	-145582.6	1	167328.1	-60.4636	-7.846891E-009	0.0006915	6
	49	271	3.75601	98040.2	-172123.2	1	198086.5	-60.33447	-7.192539E-009	0.0007125	6
	50	274	3.004808	115785.2	-201797.6	1	232655.3	-60.15413	-7.223656E-009	0.0007258	6
	51	278	2.372217	138864	-238726.4	1	276176.6	-59.81401	-7.550338E-009	0.0005965	6
	52	282	1.878005	165710.8	-281783	1	326897.1	-59.54109	-7.027636E-009	0.0006801	6
	53	287	1.512097	196030.1	-328130.1	1	382226.6	-59.14524	-7.266148E-009	0.0006012	6
	54	292	1.201923	235171.3	-387626.8	1	453387.3	-58.75501	2.659057E-010	0.0006847	5
	55	299	0.956633	280559.3	-456000.9	1	535397.4	-58.39766	-3.146857E-010	2.179974E-005	5
