June 10, 2026   04:38:48
A.C. Impedance
File: e:\chi_data\bo-r0.28-n0.96-w96y-1_t-39.0_f0.1_1000000_v0.txt
Data Source:  Experiment
Instrument Model:  CHI660E
Header: 
Note: 

Init E (V) = 0
High Frequency (Hz) = 1e+6
Low Frequency (Hz) = 0.1
Imp SF
Amplitude (V) = 0.005
Quiet Time (sec) = 2
Cycles (.1-1Hz) = 1

Freq/Hz, Z'/ohm, Z"/ohm, Z/ohm, Phase/deg

8.252e+5, 1.122e+1, 1.353e+1, 1.758e+1, 50.3
6.816e+5, 1.067e+1, 1.086e+1, 1.523e+1, 45.5
5.625e+5, 1.001e+1, 9.044e+0, 1.349e+1, 42.1
4.639e+5, 9.816e+0, 7.316e+0, 1.224e+1, 36.7
3.828e+5, 9.674e+0, 6.086e+0, 1.143e+1, 32.2
3.164e+5, 9.636e+0, 4.994e+0, 1.085e+1, 27.4
2.607e+5, 9.569e+0, 4.124e+0, 1.042e+1, 23.3
2.158e+5, 9.523e+0, 3.361e+0, 1.010e+1, 19.4
1.777e+5, 9.497e+0, 2.712e+0, 9.876e+0, 15.9
1.465e+5, 9.488e+0, 2.152e+0, 9.729e+0, 12.8
1.211e+5, 9.471e+0, 1.708e+0, 9.623e+0, 10.2
9.961e+4, 9.469e+0, 1.349e+0, 9.565e+0, 8.1
8.252e+4, 9.477e+0, 1.053e+0, 9.535e+0, 6.3
6.812e+4, 9.498e+0, 7.865e-1, 9.531e+0, 4.7
5.625e+4, 9.520e+0, 5.554e-1, 9.536e+0, 3.3
4.644e+4, 9.541e+0, 3.356e-1, 9.547e+0, 2.0
3.833e+4, 9.571e+0, 1.269e-1, 9.571e+0, 0.8
3.164e+4, 9.603e+0, -6.139e-2, 9.603e+0, -0.4
2.612e+4, 9.639e+0, -2.262e-1, 9.642e+0, -1.3
2.153e+4, 9.675e+0, -3.940e-1, 9.683e+0, -2.3
1.777e+4, 9.717e+0, -5.790e-1, 9.734e+0, -3.4
1.470e+4, 9.760e+0, -7.717e-1, 9.790e+0, -4.5
1.211e+4, 9.798e+0, -9.790e-1, 9.846e+0, -5.7
1.001e+4, 9.841e+0, -1.215e+0, 9.916e+0, -7.0
8.252e+3, 9.890e+0, -1.486e+0, 1.000e+1, -8.5
6.812e+3, 9.948e+0, -1.798e+0, 1.011e+1, -10.2
5.625e+3, 1.001e+1, -2.161e+0, 1.024e+1, -12.2
4.643e+3, 1.009e+1, -2.585e+0, 1.041e+1, -14.4
3.833e+3, 1.017e+1, -3.084e+0, 1.063e+1, -16.9
3.164e+3, 1.026e+1, -3.673e+0, 1.090e+1, -19.7
2.612e+3, 1.037e+1, -4.372e+0, 1.125e+1, -22.9
2.153e+3, 1.049e+1, -5.206e+0, 1.171e+1, -26.4
1.777e+3, 1.062e+1, -6.196e+0, 1.230e+1, -30.3
1.470e+3, 1.078e+1, -7.375e+0, 1.306e+1, -34.4
1.211e+3, 1.095e+1, -8.784e+0, 1.404e+1, -38.7
1.001e+3, 1.116e+1, -1.046e+1, 1.529e+1, -43.1
8.252e+2, 1.139e+1, -1.244e+1, 1.687e+1, -47.5
6.836e+2, 1.167e+1, -1.482e+1, 1.886e+1, -51.8
5.615e+2, 1.202e+1, -1.771e+1, 2.140e+1, -55.8
4.639e+2, 1.245e+1, -2.122e+1, 2.460e+1, -59.6
3.809e+2, 1.296e+1, -2.536e+1, 2.848e+1, -62.9
3.174e+2, 1.355e+1, -3.034e+1, 3.323e+1, -65.9
2.588e+2, 1.425e+1, -3.632e+1, 3.902e+1, -68.6
2.148e+2, 1.510e+1, -4.350e+1, 4.605e+1, -70.9
1.758e+2, 1.610e+1, -5.201e+1, 5.444e+1, -72.8
1.465e+2, 1.728e+1, -6.184e+1, 6.421e+1, -74.4
1.221e+2, 1.881e+1, -7.416e+1, 7.651e+1, -75.8
9.766e+1, 2.091e+1, -8.866e+1, 9.109e+1, -76.7
8.254e+1, 2.342e+1, -1.053e+2, 1.079e+2, -77.5
6.813e+1, 2.630e+1, -1.255e+2, 1.283e+2, -78.2
5.623e+1, 2.959e+1, -1.498e+2, 1.527e+2, -78.8
4.642e+1, 3.342e+1, -1.788e+2, 1.819e+2, -79.4
3.831e+1, 3.808e+1, -2.135e+2, 2.169e+2, -79.9
3.162e+1, 4.366e+1, -2.550e+2, 2.587e+2, -80.3
2.610e+1, 5.036e+1, -3.043e+2, 3.084e+2, -80.6
2.154e+1, 5.852e+1, -3.630e+2, 3.677e+2, -80.8
1.778e+1, 6.839e+1, -4.330e+2, 4.383e+2, -81.0
1.468e+1, 8.039e+1, -5.163e+2, 5.226e+2, -81.2
1.212e+1, 9.502e+1, -6.153e+2, 6.226e+2, -81.2
1.000e+1, 1.134e+2, -7.332e+2, 7.419e+2, -81.2
8.254e+0, 1.360e+2, -8.742e+2, 8.847e+2, -81.2
6.813e+0, 1.628e+2, -1.042e+3, 1.055e+3, -81.1
5.623e+0, 1.951e+2, -1.241e+3, 1.257e+3, -81.1
4.642e+0, 2.340e+2, -1.480e+3, 1.498e+3, -81.0
3.831e+0, 2.821e+2, -1.762e+3, 1.785e+3, -80.9
3.162e+0, 3.417e+2, -2.099e+3, 2.126e+3, -80.8
2.610e+0, 4.155e+2, -2.497e+3, 2.531e+3, -80.6
2.154e+0, 4.989e+2, -2.976e+3, 3.017e+3, -80.5
1.778e+0, 5.961e+2, -3.548e+3, 3.598e+3, -80.5
1.468e+0, 7.198e+2, -4.217e+3, 4.278e+3, -80.3
1.212e+0, 8.793e+2, -5.002e+3, 5.079e+3, -80.0
1.000e+0, 1.085e+3, -5.919e+3, 6.018e+3, -79.6
8.254e-1, 1.341e+3, -6.982e+3, 7.110e+3, -79.1
6.813e-1, 1.647e+3, -8.213e+3, 8.376e+3, -78.7
5.623e-1, 2.009e+3, -9.660e+3, 9.866e+3, -78.3
4.642e-1, 2.440e+3, -1.137e+4, 1.163e+4, -77.9
3.831e-1, 2.964e+3, -1.337e+4, 1.369e+4, -77.5
3.162e-1, 3.597e+3, -1.569e+4, 1.610e+4, -77.1
2.610e-1, 4.357e+3, -1.840e+4, 1.891e+4, -76.7
2.154e-1, 5.284e+3, -2.155e+4, 2.219e+4, -76.2
1.778e-1, 6.403e+3, -2.522e+4, 2.602e+4, -75.8
1.468e-1, 7.725e+3, -2.944e+4, 3.044e+4, -75.3
1.212e-1, 9.277e+3, -3.433e+4, 3.556e+4, -74.9
1.000e-1, 1.107e+4, -3.991e+4, 4.142e+4, -74.5
