Z60W Data File: Version 1.1
CorrTest for Windows: SN CS310H1805157  V5.2.1111.9  2.5H6.220118
Sweep Frequency: Control Voltage
  Date:5-8-2026   Time:17:41:22
  Begin Information:            Cell Information
      Surface Area:           1
      Density:                7.8
      Weight:                 28
  End Information:              Cell Information
  Freq (Hz)     Ampl(mV)       Bias(V)      Time(Sec)       Z'(Ohm.cm^2)    Z''(Ohm.cm^2)        GD       Err      Range
End Comments
  3.07200E+05,	1.00000E+01,	1.81132E-02,	3.17167E-02,	-1.90719E+00,	3.16677E+00,	0.00000E+00,	0,	0
  2.76480E+05,	1.00000E+01,	1.81132E-02,	1.62955E+00,	-1.21575E+00,	2.18318E+00,	0.00000E+00,	0,	0
  1.97486E+05,	1.00000E+01,	1.81132E-02,	2.53966E+00,	-3.40442E-01,	1.57823E+00,	0.00000E+00,	0,	0
  1.53600E+05,	1.00000E+01,	1.81132E-02,	3.43740E+00,	5.12119E-02,	1.16370E+00,	0.00000E+00,	0,	0
  1.25673E+05,	1.00000E+01,	1.81132E-02,	4.33549E+00,	2.50108E-01,	9.13074E-01,	0.00000E+00,	0,	0
  9.87429E+04,	1.00000E+01,	1.81132E-02,	5.25074E+00,	4.35073E-01,	6.71089E-01,	0.00000E+00,	0,	0
  7.68000E+04,	1.00000E+01,	1.81132E-02,	6.17146E+00,	5.48447E-01,	4.90834E-01,	0.00000E+00,	0,	0
  6.01043E+04,	1.00000E+01,	1.81132E-02,	9.42565E+00,	6.19043E-01,	2.92956E-01,	0.00000E+00,	0,	0
  4.93714E+04,	1.00000E+01,	1.81132E-02,	1.10085E+01,	6.34289E-01,	1.85440E-01,	0.00000E+00,	0,	0
  3.84000E+04,	1.00000E+01,	1.81132E-02,	1.19186E+01,	6.50564E-01,	5.88777E-02,	0.00000E+00,	0,	0
  3.00522E+04,	1.00000E+01,	1.81132E-02,	1.27724E+01,	6.64763E-01,	-5.75968E-02,	0.00000E+00,	0,	0
  2.38345E+04,	1.00000E+01,	1.81132E-02,	1.36466E+01,	6.79805E-01,	-1.69040E-01,	0.00000E+00,	0,	0
  1.86811E+04,	1.00000E+01,	1.81132E-02,	1.44877E+01,	6.98434E-01,	-2.90932E-01,	0.00000E+00,	0,	0
  1.47064E+04,	1.00000E+01,	1.81132E-02,	1.54500E+01,	7.19134E-01,	-4.21697E-01,	0.00000E+00,	0,	0
  1.15200E+04,	1.00000E+01,	1.81132E-02,	1.63973E+01,	7.45268E-01,	-5.72178E-01,	0.00000E+00,	0,	0
  9.60000E+03,	1.00000E+01,	1.81132E-02,	1.79588E+01,	7.67736E-01,	-7.00680E-01,	0.00000E+00,	0,	0
  7.51304E+03,	1.00000E+01,	1.81132E-02,	1.88444E+01,	8.04039E-01,	-9.01377E-01,	0.00000E+00,	0,	0
  5.76000E+03,	1.00000E+01,	1.81132E-02,	1.97467E+01,	8.53174E-01,	-1.16669E+00,	0.00000E+00,	0,	0
  4.54737E+03,	1.00000E+01,	1.81132E-02,	2.06079E+01,	9.07207E-01,	-1.45695E+00,	0.00000E+00,	0,	0
  3.60000E+03,	1.00000E+01,	1.81132E-02,	2.15945E+01,	9.71722E-01,	-1.80481E+00,	0.00000E+00,	0,	0
  2.88000E+03,	1.00000E+01,	1.81132E-02,	2.24677E+01,	1.05057E+00,	-2.21233E+00,	0.00000E+00,	0,	0
  2.27368E+03,	1.00000E+01,	1.81132E-02,	2.47167E+01,	1.15038E+00,	-2.71737E+00,	0.00000E+00,	0,	0
  1.78144E+03,	1.00000E+01,	1.81132E-02,	2.54864E+01,	1.28649E+00,	-3.38013E+00,	0.00000E+00,	0,	0
  1.41639E+03,	1.00000E+01,	1.81132E-02,	2.63584E+01,	1.45421E+00,	-4.14328E+00,	0.00000E+00,	0,	0
  1.12208E+03,	1.00000E+01,	1.81132E-02,	2.73958E+01,	1.67486E+00,	-5.09117E+00,	0.00000E+00,	0,	0
  9.00000E+02,	1.00000E+01,	1.81132E-02,	3.23786E+01,	1.94941E+00,	-6.19945E+00,	0.00000E+00,	0,	0
  7.20000E+02,	1.00000E+01,	1.81132E-02,	3.37429E+01,	2.29400E+00,	-7.52786E+00,	0.00000E+00,	0,	0
  5.68421E+02,	1.00000E+01,	1.81132E-02,	3.51271E+01,	2.77495E+00,	-9.23254E+00,	0.00000E+00,	0,	0
  4.40816E+02,	1.00000E+01,	1.81132E-02,	3.81398E+01,	3.45745E+00,	-1.14922E+01,	0.00000E+00,	0,	0
  3.54098E+02,	1.00000E+01,	1.81132E-02,	4.04785E+01,	4.21037E+00,	-1.38147E+01,	0.00000E+00,	0,	0
  2.76923E+02,	1.00000E+01,	1.81132E-02,	4.31153E+01,	5.30003E+00,	-1.69190E+01,	0.00000E+00,	0,	0
  2.20408E+02,	1.00000E+01,	1.81132E-02,	4.60356E+01,	6.58417E+00,	-2.03585E+01,	0.00000E+00,	0,	0
  1.74194E+02,	1.00000E+01,	1.81132E-02,	4.92830E+01,	8.23960E+00,	-2.45339E+01,	0.00000E+00,	0,	0
  1.37580E+02,	1.00000E+01,	1.81132E-02,	5.29331E+01,	1.02956E+01,	-2.94666E+01,	0.00000E+00,	0,	0
  1.09091E+02,	1.00000E+01,	1.81132E-02,	5.69993E+01,	1.27406E+01,	-3.51797E+01,	0.00000E+00,	0,	0
  8.70968E+01,	1.00000E+01,	1.81132E-02,	6.27061E+01,	1.55528E+01,	-4.17112E+01,	0.00000E+00,	0,	0
  6.83544E+01,	1.00000E+01,	1.81132E-02,	6.77267E+01,	1.91563E+01,	-5.02010E+01,	0.00000E+00,	0,	0
  5.45455E+01,	1.00000E+01,	1.81132E-02,	7.31960E+01,	2.31629E+01,	-5.83293E+01,	0.00000E+00,	0,	0
  4.28571E+01,	1.00000E+01,	1.81132E-02,	7.67488E+01,	2.79876E+01,	-6.95085E+01,	0.00000E+00,	0,	0
  3.39623E+01,	1.00000E+01,	1.81132E-02,	8.04916E+01,	3.28181E+01,	-8.23227E+01,	0.00000E+00,	0,	0
  2.68657E+01,	1.00000E+01,	1.81132E-02,	8.43301E+01,	3.92091E+01,	-9.81216E+01,	0.00000E+00,	0,	0
  2.13439E+01,	1.00000E+01,	1.81132E-02,	8.81247E+01,	4.63744E+01,	-1.16502E+02,	0.00000E+00,	0,	0
  1.73077E+01,	1.00000E+01,	1.81132E-02,	9.47837E+01,	5.38693E+01,	-1.36553E+02,	0.00000E+00,	0,	0
  1.36364E+01,	1.00000E+01,	1.81132E-02,	9.98259E+01,	6.33493E+01,	-1.63433E+02,	0.00000E+00,	0,	0
  1.07143E+01,	1.00000E+01,	1.81132E-02,	1.02729E+02,	7.42816E+01,	-1.96348E+02,	0.00000E+00,	0,	0
  8.49057E+00,	1.00000E+01,	1.81132E-02,	1.06922E+02,	8.62609E+01,	-2.35065E+02,	0.00000E+00,	0,	0
  6.71642E+00,	1.00000E+01,	1.81132E-02,	1.09435E+02,	9.96384E+01,	-2.82154E+02,	0.00000E+00,	0,	0
  5.29412E+00,	1.00000E+01,	1.81132E-02,	1.12374E+02,	1.14892E+02,	-3.40615E+02,	0.00000E+00,	0,	0
  4.16667E+00,	1.00000E+01,	1.81132E-02,	1.15869E+02,	1.31889E+02,	-4.13175E+02,	0.00000E+00,	0,	0
  3.30882E+00,	1.00000E+01,	1.81132E-02,	1.20141E+02,	1.49736E+02,	-4.99204E+02,	0.00000E+00,	0,	0
  2.61628E+00,	1.00000E+01,	1.81132E-02,	1.24118E+02,	1.69708E+02,	-6.07175E+02,	0.00000E+00,	0,	0
  2.07373E+00,	1.00000E+01,	1.81132E-02,	1.28915E+02,	1.91198E+02,	-7.40090E+02,	0.00000E+00,	0,	0
  1.64234E+00,	1.00000E+01,	1.81132E-02,	1.34701E+02,	2.14514E+02,	-9.06071E+02,	0.00000E+00,	0,	0
  1.30058E+00,	1.00000E+01,	1.81132E-02,	1.38858E+02,	2.40956E+02,	-1.11370E+03,	0.00000E+00,	0,	0
  1.03211E+00,	1.00000E+01,	1.81132E-02,	1.43256E+02,	2.70471E+02,	-1.37106E+03,	0.00000E+00,	0,	0
  8.15217E-01,	1.00000E+01,	1.81132E-02,	1.50213E+02,	3.05397E+02,	-1.69894E+03,	0.00000E+00,	0,	0
  6.46552E-01,	1.00000E+01,	1.81132E-02,	1.59296E+02,	3.39609E+02,	-2.09001E+03,	0.00000E+00,	0,	0
  5.11364E-01,	1.00000E+01,	1.81132E-02,	1.64332E+02,	3.86643E+02,	-2.61068E+03,	0.00000E+00,	0,	0
  4.07609E-01,	1.00000E+01,	1.81132E-02,	1.70391E+02,	4.46267E+02,	-3.22712E+03,	0.00000E+00,	0,	0
  3.21429E-01,	1.00000E+01,	1.81132E-02,	1.77521E+02,	5.21909E+02,	-4.05555E+03,	0.00000E+00,	0,	0
  2.54525E-01,	1.00000E+01,	1.81132E-02,	1.86297E+02,	6.17783E+02,	-5.03823E+03,	0.00000E+00,	0,	0
  2.01613E-01,	1.00000E+01,	1.81132E-02,	1.97168E+02,	7.35030E+02,	-6.26834E+03,	0.00000E+00,	0,	0
  1.59574E-01,	1.00000E+01,	1.81132E-02,	2.10654E+02,	8.89057E+02,	-7.80787E+03,	0.00000E+00,	0,	0
  1.26689E-01,	1.00000E+01,	1.81132E-02,	2.27539E+02,	1.08204E+03,	-9.68684E+03,	0.00000E+00,	0,	0
  1.00446E-01,	1.00000E+01,	1.81132E-02,	2.48404E+02,	1.31811E+03,	-1.20438E+04,	0.00000E+00,	0,	0