Z60W Data File: Version 1.1
CorrTest for Windows: SN CS310H1805157  V5.2.1111.9  2.5H6.220118
Sweep Frequency: Control Voltage
  Date:5-8-2026   Time:19:09:02
  Begin Information:            Cell Information
      Surface Area:           1
      Density:                7.8
      Weight:                 28
  End Information:              Cell Information
  Freq (Hz)     Ampl(mV)       Bias(V)      Time(Sec)       Z'(Ohm.cm^2)    Z''(Ohm.cm^2)        GD       Err      Range
End Comments
  3.07200E+05,	1.00000E+01,	-1.28707E-03,	3.22606E-02,	-1.68935E+00,	3.20160E+00,	0.00000E+00,	0,	0
  2.76480E+05,	1.00000E+01,	-1.28707E-03,	1.63068E+00,	-1.12427E+00,	2.28272E+00,	0.00000E+00,	0,	0
  1.97486E+05,	1.00000E+01,	-1.28707E-03,	2.51918E+00,	-2.27953E-01,	1.59117E+00,	0.00000E+00,	0,	0
  1.53600E+05,	1.00000E+01,	-1.28707E-03,	3.41769E+00,	1.36108E-01,	1.15754E+00,	0.00000E+00,	0,	0
  1.25673E+05,	1.00000E+01,	-1.28707E-03,	4.32842E+00,	3.45579E-01,	9.01566E-01,	0.00000E+00,	0,	0
  9.87429E+04,	1.00000E+01,	-1.28707E-03,	5.23575E+00,	5.29028E-01,	6.49407E-01,	0.00000E+00,	0,	0
  7.68000E+04,	1.00000E+01,	-1.28707E-03,	6.13376E+00,	6.28394E-01,	4.72439E-01,	0.00000E+00,	0,	0
  6.01043E+04,	1.00000E+01,	-1.28707E-03,	9.33431E+00,	7.11378E-01,	2.79809E-01,	0.00000E+00,	0,	0
  4.93714E+04,	1.00000E+01,	-1.28707E-03,	1.09043E+01,	7.32313E-01,	1.67828E-01,	0.00000E+00,	0,	0
  3.84000E+04,	1.00000E+01,	-1.28707E-03,	1.17987E+01,	7.49344E-01,	3.37824E-02,	0.00000E+00,	0,	0
  3.00522E+04,	1.00000E+01,	-1.28707E-03,	1.26568E+01,	7.67140E-01,	-8.96677E-02,	0.00000E+00,	0,	0
  2.38345E+04,	1.00000E+01,	-1.28707E-03,	1.35474E+01,	7.85818E-01,	-2.07233E-01,	0.00000E+00,	0,	0
  1.86811E+04,	1.00000E+01,	-1.28707E-03,	1.43929E+01,	8.08237E-01,	-3.37300E-01,	0.00000E+00,	0,	0
  1.47064E+04,	1.00000E+01,	-1.28707E-03,	1.53617E+01,	8.33393E-01,	-4.77588E-01,	0.00000E+00,	0,	0
  1.15200E+04,	1.00000E+01,	-1.28707E-03,	1.63475E+01,	8.64602E-01,	-6.39009E-01,	0.00000E+00,	0,	0
  9.60000E+03,	1.00000E+01,	-1.28707E-03,	1.79213E+01,	8.90518E-01,	-7.76394E-01,	0.00000E+00,	0,	0
  7.51304E+03,	1.00000E+01,	-1.28707E-03,	1.87959E+01,	9.32518E-01,	-9.92558E-01,	0.00000E+00,	0,	0
  5.76000E+03,	1.00000E+01,	-1.28707E-03,	1.97116E+01,	9.86715E-01,	-1.27761E+00,	0.00000E+00,	0,	0
  4.54737E+03,	1.00000E+01,	-1.28707E-03,	2.05879E+01,	1.04527E+00,	-1.58767E+00,	0.00000E+00,	0,	0
  3.60000E+03,	1.00000E+01,	-1.28707E-03,	2.15947E+01,	1.11843E+00,	-1.96353E+00,	0.00000E+00,	0,	0
  2.88000E+03,	1.00000E+01,	-1.28707E-03,	2.24875E+01,	1.20217E+00,	-2.40206E+00,	0.00000E+00,	0,	0
  2.27368E+03,	1.00000E+01,	-1.28707E-03,	2.47585E+01,	1.29916E+00,	-2.94821E+00,	0.00000E+00,	0,	0
  1.78144E+03,	1.00000E+01,	-1.28707E-03,	2.55502E+01,	1.44230E+00,	-3.66683E+00,	0.00000E+00,	0,	0
  1.41639E+03,	1.00000E+01,	-1.28707E-03,	2.64577E+01,	1.61216E+00,	-4.49966E+00,	0.00000E+00,	0,	0
  1.12208E+03,	1.00000E+01,	-1.28707E-03,	2.74895E+01,	1.83317E+00,	-5.52854E+00,	0.00000E+00,	0,	0
  9.00000E+02,	1.00000E+01,	-1.28707E-03,	3.25004E+01,	2.10467E+00,	-6.74099E+00,	0.00000E+00,	0,	0
  7.20000E+02,	1.00000E+01,	-1.28707E-03,	3.38964E+01,	2.45004E+00,	-8.20110E+00,	0.00000E+00,	0,	0
  5.68421E+02,	1.00000E+01,	-1.28707E-03,	3.52863E+01,	2.92382E+00,	-1.00883E+01,	0.00000E+00,	0,	0
  4.40816E+02,	1.00000E+01,	-1.28707E-03,	3.83371E+01,	3.60450E+00,	-1.26103E+01,	0.00000E+00,	0,	0
  3.54098E+02,	1.00000E+01,	-1.28707E-03,	4.06890E+01,	4.35629E+00,	-1.52244E+01,	0.00000E+00,	0,	0
  2.76923E+02,	1.00000E+01,	-1.28707E-03,	4.33414E+01,	5.45679E+00,	-1.87444E+01,	0.00000E+00,	0,	0
  2.20408E+02,	1.00000E+01,	-1.28707E-03,	4.62640E+01,	6.77164E+00,	-2.26901E+01,	0.00000E+00,	0,	0
  1.74194E+02,	1.00000E+01,	-1.28707E-03,	4.95248E+01,	8.50470E+00,	-2.75179E+01,	0.00000E+00,	0,	0
  1.37580E+02,	1.00000E+01,	-1.28707E-03,	5.31886E+01,	1.07073E+01,	-3.32697E+01,	0.00000E+00,	0,	0
  1.09091E+02,	1.00000E+01,	-1.28707E-03,	5.72540E+01,	1.34045E+01,	-3.99696E+01,	0.00000E+00,	0,	0
  8.70968E+01,	1.00000E+01,	-1.28707E-03,	6.29470E+01,	1.65775E+01,	-4.76452E+01,	0.00000E+00,	0,	0
  6.83544E+01,	1.00000E+01,	-1.28707E-03,	6.79709E+01,	2.07686E+01,	-5.75823E+01,	0.00000E+00,	0,	0
  5.45455E+01,	1.00000E+01,	-1.28707E-03,	7.34256E+01,	2.55417E+01,	-6.70956E+01,	0.00000E+00,	0,	0
  4.28571E+01,	1.00000E+01,	-1.28707E-03,	7.69640E+01,	3.13518E+01,	-8.00130E+01,	0.00000E+00,	0,	0
  3.39623E+01,	1.00000E+01,	-1.28707E-03,	8.06867E+01,	3.72262E+01,	-9.46786E+01,	0.00000E+00,	0,	0
  2.68657E+01,	1.00000E+01,	-1.28707E-03,	8.45418E+01,	4.49413E+01,	-1.12645E+02,	0.00000E+00,	0,	0
  2.13439E+01,	1.00000E+01,	-1.28707E-03,	8.83534E+01,	5.35379E+01,	-1.33455E+02,	0.00000E+00,	0,	0
  1.73077E+01,	1.00000E+01,	-1.28707E-03,	9.50376E+01,	6.25266E+01,	-1.56144E+02,	0.00000E+00,	0,	0
  1.36364E+01,	1.00000E+01,	-1.28707E-03,	1.00074E+02,	7.39591E+01,	-1.86555E+02,	0.00000E+00,	0,	0
  1.07143E+01,	1.00000E+01,	-1.28707E-03,	1.02987E+02,	8.72672E+01,	-2.23645E+02,	0.00000E+00,	0,	0
  8.49057E+00,	1.00000E+01,	-1.28707E-03,	1.07223E+02,	1.01946E+02,	-2.66996E+02,	0.00000E+00,	0,	0
  6.71642E+00,	1.00000E+01,	-1.28707E-03,	1.09733E+02,	1.18830E+02,	-3.19776E+02,	0.00000E+00,	0,	0
  5.29412E+00,	1.00000E+01,	-1.28707E-03,	1.12682E+02,	1.38238E+02,	-3.84696E+02,	0.00000E+00,	0,	0
  4.16667E+00,	1.00000E+01,	-1.28707E-03,	1.16184E+02,	1.60140E+02,	-4.64588E+02,	0.00000E+00,	0,	0
  3.30882E+00,	1.00000E+01,	-1.28707E-03,	1.20415E+02,	1.83626E+02,	-5.58704E+02,	0.00000E+00,	0,	0
  2.61628E+00,	1.00000E+01,	-1.28707E-03,	1.24409E+02,	2.10274E+02,	-6.75937E+02,	0.00000E+00,	0,	0
  2.07373E+00,	1.00000E+01,	-1.28707E-03,	1.29175E+02,	2.38943E+02,	-8.19273E+02,	0.00000E+00,	0,	0
  1.64234E+00,	1.00000E+01,	-1.28707E-03,	1.34996E+02,	2.70256E+02,	-9.96864E+02,	0.00000E+00,	0,	0
  1.30058E+00,	1.00000E+01,	-1.28707E-03,	1.39145E+02,	3.05175E+02,	-1.21764E+03,	0.00000E+00,	0,	0
  1.03211E+00,	1.00000E+01,	-1.28707E-03,	1.43551E+02,	3.42714E+02,	-1.49077E+03,	0.00000E+00,	0,	0
  8.15217E-01,	1.00000E+01,	-1.28707E-03,	1.50494E+02,	3.85481E+02,	-1.83790E+03,	0.00000E+00,	0,	0
  6.46552E-01,	1.00000E+01,	-1.28707E-03,	1.59571E+02,	4.25690E+02,	-2.24614E+03,	0.00000E+00,	0,	0
  5.11364E-01,	1.00000E+01,	-1.28707E-03,	1.64586E+02,	4.78874E+02,	-2.79667E+03,	0.00000E+00,	0,	0
  4.07609E-01,	1.00000E+01,	-1.28707E-03,	1.70645E+02,	5.45318E+02,	-3.44856E+03,	0.00000E+00,	0,	0
  3.21429E-01,	1.00000E+01,	-1.28707E-03,	1.77814E+02,	6.23708E+02,	-4.32595E+03,	0.00000E+00,	0,	0
  2.54525E-01,	1.00000E+01,	-1.28707E-03,	1.86585E+02,	7.29634E+02,	-5.37105E+03,	0.00000E+00,	0,	0
  2.01613E-01,	1.00000E+01,	-1.28707E-03,	1.97431E+02,	8.55273E+02,	-6.67586E+03,	0.00000E+00,	0,	0
  1.59574E-01,	1.00000E+01,	-1.28707E-03,	2.10883E+02,	1.01063E+03,	-8.30758E+03,	0.00000E+00,	0,	0
  1.26689E-01,	1.00000E+01,	-1.28707E-03,	2.27793E+02,	1.20524E+03,	-1.03129E+04,	0.00000E+00,	0,	0
  1.00446E-01,	1.00000E+01,	-1.28707E-03,	2.48692E+02,	1.44822E+03,	-1.28330E+04,	0.00000E+00,	0,	0