Z60W Data File: Version 1.1
CorrTest for Windows: SN CS310H1805157  V5.2.1111.9  2.5H6.220118
Sweep Frequency: Control Voltage
  Date:5-8-2026   Time:20:12:05
  Begin Information:            Cell Information
      Surface Area:           1
      Density:                7.8
      Weight:                 28
  End Information:              Cell Information
  Freq (Hz)     Ampl(mV)       Bias(V)      Time(Sec)       Z'(Ohm.cm^2)    Z''(Ohm.cm^2)        GD       Err      Range
End Comments
  3.07200E+05,	1.00000E+01,	-2.57843E-02,	2.09200E-02,	4.77148E+00,	6.46886E+00,	0.00000E+00,	0,	0
  2.76480E+05,	1.00000E+01,	-2.57843E-02,	1.61282E+00,	5.23953E+00,	5.15486E+00,	0.00000E+00,	0,	0
  1.97486E+05,	1.00000E+01,	-2.57843E-02,	2.51865E+00,	6.01983E+00,	3.53146E+00,	0.00000E+00,	0,	0
  1.53600E+05,	1.00000E+01,	-2.57843E-02,	3.41000E+00,	6.32005E+00,	2.61252E+00,	0.00000E+00,	0,	0
  1.25673E+05,	1.00000E+01,	-2.57843E-02,	4.30365E+00,	6.52741E+00,	1.97760E+00,	0.00000E+00,	0,	0
  9.87429E+04,	1.00000E+01,	-2.57843E-02,	5.19620E+00,	6.70527E+00,	1.35199E+00,	0.00000E+00,	0,	0
  7.68000E+04,	1.00000E+01,	-2.57843E-02,	6.08425E+00,	6.85411E+00,	8.45320E-01,	0.00000E+00,	0,	0
  6.01043E+04,	1.00000E+01,	-2.57843E-02,	8.17711E+00,	6.96964E+00,	4.17076E-01,	0.00000E+00,	0,	0
  4.93714E+04,	1.00000E+01,	-2.57843E-02,	9.73663E+00,	7.04842E+00,	1.08352E-01,	0.00000E+00,	0,	0
  3.84000E+04,	1.00000E+01,	-2.57843E-02,	1.06265E+01,	7.15831E+00,	-2.50864E-01,	0.00000E+00,	0,	0
  3.00522E+04,	1.00000E+01,	-2.57843E-02,	1.14875E+01,	7.27330E+00,	-5.68258E-01,	0.00000E+00,	0,	0
  2.38345E+04,	1.00000E+01,	-2.57843E-02,	1.23520E+01,	7.39955E+00,	-8.73850E-01,	0.00000E+00,	0,	0
  1.86811E+04,	1.00000E+01,	-2.57843E-02,	1.31914E+01,	7.54554E+00,	-1.19628E+00,	0.00000E+00,	0,	0
  1.47064E+04,	1.00000E+01,	-2.57843E-02,	1.41402E+01,	7.71576E+00,	-1.52501E+00,	0.00000E+00,	0,	0
  1.15200E+04,	1.00000E+01,	-2.57843E-02,	1.50960E+01,	7.92240E+00,	-1.88341E+00,	0.00000E+00,	0,	0
  9.60000E+03,	1.00000E+01,	-2.57843E-02,	1.66602E+01,	8.10514E+00,	-2.17855E+00,	0.00000E+00,	0,	0
  7.51304E+03,	1.00000E+01,	-2.57843E-02,	1.75289E+01,	8.36476E+00,	-2.60501E+00,	0.00000E+00,	0,	0
  5.76000E+03,	1.00000E+01,	-2.57843E-02,	1.84238E+01,	8.68642E+00,	-3.13597E+00,	0.00000E+00,	0,	0
  4.54737E+03,	1.00000E+01,	-2.57843E-02,	1.92810E+01,	9.01346E+00,	-3.67460E+00,	0.00000E+00,	0,	0
  3.60000E+03,	1.00000E+01,	-2.57843E-02,	2.02672E+01,	9.37761E+00,	-4.29580E+00,	0.00000E+00,	0,	0
  2.88000E+03,	1.00000E+01,	-2.57843E-02,	2.11588E+01,	9.77499E+00,	-4.97504E+00,	0.00000E+00,	0,	0
  2.27368E+03,	1.00000E+01,	-2.57843E-02,	2.34213E+01,	1.02498E+01,	-5.83928E+00,	0.00000E+00,	0,	0
  1.78144E+03,	1.00000E+01,	-2.57843E-02,	2.42130E+01,	1.07888E+01,	-6.88032E+00,	0.00000E+00,	0,	0
  1.41639E+03,	1.00000E+01,	-2.57843E-02,	2.51065E+01,	1.13289E+01,	-8.04992E+00,	0.00000E+00,	0,	0
  1.12208E+03,	1.00000E+01,	-2.57843E-02,	2.61421E+01,	1.19389E+01,	-9.45601E+00,	0.00000E+00,	0,	0
  9.00000E+02,	1.00000E+01,	-2.57843E-02,	3.11235E+01,	1.26614E+01,	-1.11039E+01,	0.00000E+00,	0,	0
  7.20000E+02,	1.00000E+01,	-2.57843E-02,	3.24871E+01,	1.33711E+01,	-1.30576E+01,	0.00000E+00,	0,	0
  5.68421E+02,	1.00000E+01,	-2.57843E-02,	3.38409E+01,	1.42021E+01,	-1.55805E+01,	0.00000E+00,	0,	0
  4.40816E+02,	1.00000E+01,	-2.57843E-02,	3.52770E+01,	1.51933E+01,	-1.89305E+01,	0.00000E+00,	0,	0
  3.54098E+02,	1.00000E+01,	-2.57843E-02,	3.76064E+01,	1.61440E+01,	-2.24927E+01,	0.00000E+00,	0,	0
  2.76923E+02,	1.00000E+01,	-2.57843E-02,	4.02336E+01,	1.73606E+01,	-2.74218E+01,	0.00000E+00,	0,	0
  2.20408E+02,	1.00000E+01,	-2.57843E-02,	4.31395E+01,	1.86477E+01,	-3.31130E+01,	0.00000E+00,	0,	0
  1.74194E+02,	1.00000E+01,	-2.57843E-02,	4.63942E+01,	2.01756E+01,	-4.03567E+01,	0.00000E+00,	0,	0
  1.37580E+02,	1.00000E+01,	-2.57843E-02,	5.00360E+01,	2.19914E+01,	-4.93908E+01,	0.00000E+00,	0,	0
  1.09091E+02,	1.00000E+01,	-2.57843E-02,	5.40999E+01,	2.41171E+01,	-6.04364E+01,	0.00000E+00,	0,	0
  8.70968E+01,	1.00000E+01,	-2.57843E-02,	5.97871E+01,	2.66244E+01,	-7.37756E+01,	0.00000E+00,	0,	0
  6.83544E+01,	1.00000E+01,	-2.57843E-02,	6.48097E+01,	3.00074E+01,	-9.19640E+01,	0.00000E+00,	0,	0
  5.45455E+01,	1.00000E+01,	-2.57843E-02,	7.02562E+01,	3.43364E+01,	-1.10743E+02,	0.00000E+00,	0,	0
  4.28571E+01,	1.00000E+01,	-2.57843E-02,	7.37751E+01,	3.98918E+01,	-1.37091E+02,	0.00000E+00,	0,	0
  3.39623E+01,	1.00000E+01,	-2.57843E-02,	7.75051E+01,	4.57456E+01,	-1.68200E+02,	0.00000E+00,	0,	0
  2.68657E+01,	1.00000E+01,	-2.57843E-02,	8.13489E+01,	5.51180E+01,	-2.07555E+02,	0.00000E+00,	0,	0
  2.13439E+01,	1.00000E+01,	-2.57843E-02,	8.51656E+01,	6.69793E+01,	-2.54348E+02,	0.00000E+00,	0,	0
  1.73077E+01,	1.00000E+01,	-2.57843E-02,	9.18687E+01,	8.09310E+01,	-3.06146E+02,	0.00000E+00,	0,	0
  1.36364E+01,	1.00000E+01,	-2.57843E-02,	9.68832E+01,	1.01089E+02,	-3.76225E+02,	0.00000E+00,	0,	0
  1.07143E+01,	1.00000E+01,	-2.57843E-02,	9.98139E+01,	1.27807E+02,	-4.62139E+02,	0.00000E+00,	0,	0
  8.49057E+00,	1.00000E+01,	-2.57843E-02,	1.04008E+02,	1.61312E+02,	-5.61870E+02,	0.00000E+00,	0,	0
  6.71642E+00,	1.00000E+01,	-2.57843E-02,	1.06520E+02,	2.04901E+02,	-6.81879E+02,	0.00000E+00,	0,	0
  5.29412E+00,	1.00000E+01,	-2.57843E-02,	1.09440E+02,	2.61479E+02,	-8.25672E+02,	0.00000E+00,	0,	0
  4.16667E+00,	1.00000E+01,	-2.57843E-02,	1.12893E+02,	3.33270E+02,	-9.97131E+02,	0.00000E+00,	0,	0
  3.30882E+00,	1.00000E+01,	-2.57843E-02,	1.19431E+02,	4.18298E+02,	-1.18966E+03,	0.00000E+00,	0,	0
  2.61628E+00,	1.00000E+01,	-2.57843E-02,	1.23395E+02,	5.24077E+02,	-1.41907E+03,	0.00000E+00,	0,	0
  2.07373E+00,	1.00000E+01,	-2.57843E-02,	1.28175E+02,	6.48474E+02,	-1.68380E+03,	0.00000E+00,	0,	0
  1.64234E+00,	1.00000E+01,	-2.57843E-02,	1.33971E+02,	7.94132E+02,	-1.99489E+03,	0.00000E+00,	0,	0
  1.30058E+00,	1.00000E+01,	-2.57843E-02,	1.38151E+02,	9.63005E+02,	-2.35811E+03,	0.00000E+00,	0,	0
  1.03211E+00,	1.00000E+01,	-2.57843E-02,	1.42583E+02,	1.15710E+03,	-2.78782E+03,	0.00000E+00,	0,	0
  8.15217E-01,	1.00000E+01,	-2.57843E-02,	1.49529E+02,	1.37540E+03,	-3.30153E+03,	0.00000E+00,	0,	0
  6.46552E-01,	1.00000E+01,	-2.57843E-02,	1.54316E+02,	1.62756E+03,	-3.90869E+03,	0.00000E+00,	0,	0
  5.11364E-01,	1.00000E+01,	-2.57843E-02,	1.59330E+02,	1.85603E+03,	-4.68086E+03,	0.00000E+00,	0,	0
  4.07609E-01,	1.00000E+01,	-2.57843E-02,	1.65375E+02,	2.17417E+03,	-5.54977E+03,	0.00000E+00,	0,	0
  3.21429E-01,	1.00000E+01,	-2.57843E-02,	1.72488E+02,	2.57329E+03,	-6.75626E+03,	0.00000E+00,	0,	0
  2.54525E-01,	1.00000E+01,	-2.57843E-02,	1.81250E+02,	3.01297E+03,	-8.05426E+03,	0.00000E+00,	0,	0
  2.01613E-01,	1.00000E+01,	-2.57843E-02,	1.92100E+02,	3.49954E+03,	-9.65124E+03,	0.00000E+00,	0,	0
  1.59574E-01,	1.00000E+01,	-2.57843E-02,	2.05558E+02,	4.05096E+03,	-1.16033E+04,	0.00000E+00,	0,	0
  1.26689E-01,	1.00000E+01,	-2.57843E-02,	2.39432E+02,	4.69971E+03,	-1.37384E+04,	0.00000E+00,	0,	0
  1.00446E-01,	1.00000E+01,	-2.57843E-02,	2.60316E+02,	5.31978E+03,	-1.71692E+04,	0.00000E+00,	0,	0