Z60W Data File: Version 1.1
CorrTest for Windows: SN CS310H1805157  V5.2.1111.9  2.5H6.220118
Sweep Frequency: Control Voltage
  Date:5-8-2026   Time:18:14:08
  Begin Information:            Cell Information
      Surface Area:           1
      Density:                7.8
      Weight:                 28
  End Information:              Cell Information
  Freq (Hz)     Ampl(mV)       Bias(V)      Time(Sec)       Z'(Ohm.cm^2)    Z''(Ohm.cm^2)        GD       Err      Range
End Comments
  3.07200E+05,	1.00000E+01,	1.75152E-02,	2.50069E-02,	-1.80770E+00,	3.22109E+00,	0.00000E+00,	0,	0
  2.76480E+05,	1.00000E+01,	1.75152E-02,	1.65167E+00,	-1.20544E+00,	2.29457E+00,	0.00000E+00,	0,	0
  1.97486E+05,	1.00000E+01,	1.75152E-02,	2.55068E+00,	-2.94111E-01,	1.59745E+00,	0.00000E+00,	0,	0
  1.53600E+05,	1.00000E+01,	1.75152E-02,	3.45084E+00,	5.89051E-02,	1.15633E+00,	0.00000E+00,	0,	0
  1.25673E+05,	1.00000E+01,	1.75152E-02,	4.37100E+00,	2.72083E-01,	8.90554E-01,	0.00000E+00,	0,	0
  9.87429E+04,	1.00000E+01,	1.75152E-02,	5.27200E+00,	4.49514E-01,	6.62440E-01,	0.00000E+00,	0,	0
  7.68000E+04,	1.00000E+01,	1.75152E-02,	6.16695E+00,	5.56433E-01,	4.81159E-01,	0.00000E+00,	0,	0
  6.01043E+04,	1.00000E+01,	1.75152E-02,	9.38201E+00,	6.38232E-01,	2.90924E-01,	0.00000E+00,	0,	0
  4.93714E+04,	1.00000E+01,	1.75152E-02,	1.09515E+01,	6.55992E-01,	1.81135E-01,	0.00000E+00,	0,	0
  3.84000E+04,	1.00000E+01,	1.75152E-02,	1.18824E+01,	6.72042E-01,	5.38362E-02,	0.00000E+00,	0,	0
  3.00522E+04,	1.00000E+01,	1.75152E-02,	1.27422E+01,	6.88020E-01,	-6.48513E-02,	0.00000E+00,	0,	0
  2.38345E+04,	1.00000E+01,	1.75152E-02,	1.36153E+01,	7.03229E-01,	-1.77813E-01,	0.00000E+00,	0,	0
  1.86811E+04,	1.00000E+01,	1.75152E-02,	1.44730E+01,	7.22549E-01,	-3.01630E-01,	0.00000E+00,	0,	0
  1.47064E+04,	1.00000E+01,	1.75152E-02,	1.54362E+01,	7.44431E-01,	-4.34180E-01,	0.00000E+00,	0,	0
  1.15200E+04,	1.00000E+01,	1.75152E-02,	1.64186E+01,	7.72250E-01,	-5.87676E-01,	0.00000E+00,	0,	0
  9.60000E+03,	1.00000E+01,	1.75152E-02,	1.80070E+01,	7.95087E-01,	-7.17781E-01,	0.00000E+00,	0,	0
  7.51304E+03,	1.00000E+01,	1.75152E-02,	1.88918E+01,	8.32547E-01,	-9.21383E-01,	0.00000E+00,	0,	0
  5.76000E+03,	1.00000E+01,	1.75152E-02,	1.97820E+01,	8.82720E-01,	-1.19229E+00,	0.00000E+00,	0,	0
  4.54737E+03,	1.00000E+01,	1.75152E-02,	2.06248E+01,	9.38005E-01,	-1.48716E+00,	0.00000E+00,	0,	0
  3.60000E+03,	1.00000E+01,	1.75152E-02,	2.16260E+01,	1.00436E+00,	-1.84148E+00,	0.00000E+00,	0,	0
  2.88000E+03,	1.00000E+01,	1.75152E-02,	2.25573E+01,	1.08450E+00,	-2.25625E+00,	0.00000E+00,	0,	0
  2.27368E+03,	1.00000E+01,	1.75152E-02,	2.48374E+01,	1.18259E+00,	-2.77064E+00,	0.00000E+00,	0,	0
  1.78144E+03,	1.00000E+01,	1.75152E-02,	2.56635E+01,	1.32286E+00,	-3.45283E+00,	0.00000E+00,	0,	0
  1.41639E+03,	1.00000E+01,	1.75152E-02,	2.65664E+01,	1.48866E+00,	-4.22413E+00,	0.00000E+00,	0,	0
  1.12208E+03,	1.00000E+01,	1.75152E-02,	2.75920E+01,	1.71540E+00,	-5.19211E+00,	0.00000E+00,	0,	0
  9.00000E+02,	1.00000E+01,	1.75152E-02,	3.25690E+01,	1.98484E+00,	-6.32960E+00,	0.00000E+00,	0,	0
  7.20000E+02,	1.00000E+01,	1.75152E-02,	3.39351E+01,	2.33175E+00,	-7.69198E+00,	0.00000E+00,	0,	0
  5.68421E+02,	1.00000E+01,	1.75152E-02,	3.53048E+01,	2.80966E+00,	-9.44053E+00,	0.00000E+00,	0,	0
  4.40816E+02,	1.00000E+01,	1.75152E-02,	3.83305E+01,	3.49369E+00,	-1.17636E+01,	0.00000E+00,	0,	0
  3.54098E+02,	1.00000E+01,	1.75152E-02,	4.07162E+01,	4.24547E+00,	-1.41533E+01,	0.00000E+00,	0,	0
  2.76923E+02,	1.00000E+01,	1.75152E-02,	4.33519E+01,	5.34031E+00,	-1.73526E+01,	0.00000E+00,	0,	0
  2.20408E+02,	1.00000E+01,	1.75152E-02,	4.62870E+01,	6.63640E+00,	-2.09127E+01,	0.00000E+00,	0,	0
  1.74194E+02,	1.00000E+01,	1.75152E-02,	4.95532E+01,	8.31582E+00,	-2.52386E+01,	0.00000E+00,	0,	0
  1.37580E+02,	1.00000E+01,	1.75152E-02,	5.32208E+01,	1.04154E+01,	-3.03628E+01,	0.00000E+00,	0,	0
  1.09091E+02,	1.00000E+01,	1.75152E-02,	5.72846E+01,	1.29283E+01,	-3.62913E+01,	0.00000E+00,	0,	0
  8.70968E+01,	1.00000E+01,	1.75152E-02,	6.29878E+01,	1.58329E+01,	-4.30743E+01,	0.00000E+00,	0,	0
  6.83544E+01,	1.00000E+01,	1.75152E-02,	6.80149E+01,	1.95782E+01,	-5.18773E+01,	0.00000E+00,	0,	0
  5.45455E+01,	1.00000E+01,	1.75152E-02,	7.34703E+01,	2.37649E+01,	-6.02956E+01,	0.00000E+00,	0,	0
  4.28571E+01,	1.00000E+01,	1.75152E-02,	7.69908E+01,	2.88048E+01,	-7.18384E+01,	0.00000E+00,	0,	0
  3.39623E+01,	1.00000E+01,	1.75152E-02,	8.07067E+01,	3.38502E+01,	-8.50392E+01,	0.00000E+00,	0,	0
  2.68657E+01,	1.00000E+01,	1.75152E-02,	8.45627E+01,	4.05214E+01,	-1.01310E+02,	0.00000E+00,	0,	0
  2.13439E+01,	1.00000E+01,	1.75152E-02,	8.83728E+01,	4.79881E+01,	-1.20223E+02,	0.00000E+00,	0,	0
  1.73077E+01,	1.00000E+01,	1.75152E-02,	9.50420E+01,	5.57986E+01,	-1.40857E+02,	0.00000E+00,	0,	0
  1.36364E+01,	1.00000E+01,	1.75152E-02,	1.00073E+02,	6.57128E+01,	-1.68499E+02,	0.00000E+00,	0,	0
  1.07143E+01,	1.00000E+01,	1.75152E-02,	1.03003E+02,	7.71851E+01,	-2.02330E+02,	0.00000E+00,	0,	0
  8.49057E+00,	1.00000E+01,	1.75152E-02,	1.07210E+02,	8.96686E+01,	-2.41897E+02,	0.00000E+00,	0,	0
  6.71642E+00,	1.00000E+01,	1.75152E-02,	1.09739E+02,	1.03887E+02,	-2.90315E+02,	0.00000E+00,	0,	0
  5.29412E+00,	1.00000E+01,	1.75152E-02,	1.12686E+02,	1.20058E+02,	-3.50171E+02,	0.00000E+00,	0,	0
  4.16667E+00,	1.00000E+01,	1.75152E-02,	1.16183E+02,	1.38051E+02,	-4.24285E+02,	0.00000E+00,	0,	0
  3.30882E+00,	1.00000E+01,	1.75152E-02,	1.20418E+02,	1.57144E+02,	-5.12073E+02,	0.00000E+00,	0,	0
  2.61628E+00,	1.00000E+01,	1.75152E-02,	1.24402E+02,	1.78429E+02,	-6.21972E+02,	0.00000E+00,	0,	0
  2.07373E+00,	1.00000E+01,	1.75152E-02,	1.29172E+02,	2.01334E+02,	-7.56929E+02,	0.00000E+00,	0,	0
  1.64234E+00,	1.00000E+01,	1.75152E-02,	1.34969E+02,	2.26196E+02,	-9.25493E+02,	0.00000E+00,	0,	0
  1.30058E+00,	1.00000E+01,	1.75152E-02,	1.39179E+02,	2.54246E+02,	-1.13604E+03,	0.00000E+00,	0,	0
  1.03211E+00,	1.00000E+01,	1.75152E-02,	1.43588E+02,	2.85406E+02,	-1.39690E+03,	0.00000E+00,	0,	0
  8.15217E-01,	1.00000E+01,	1.75152E-02,	1.50571E+02,	3.22087E+02,	-1.72891E+03,	0.00000E+00,	0,	0
  6.46552E-01,	1.00000E+01,	1.75152E-02,	1.59695E+02,	3.57576E+02,	-2.12544E+03,	0.00000E+00,	0,	0
  5.11364E-01,	1.00000E+01,	1.75152E-02,	1.64700E+02,	4.06158E+02,	-2.65294E+03,	0.00000E+00,	0,	0
  4.07609E-01,	1.00000E+01,	1.75152E-02,	1.70770E+02,	4.67842E+02,	-3.27618E+03,	0.00000E+00,	0,	0
  3.21429E-01,	1.00000E+01,	1.75152E-02,	1.77894E+02,	5.41531E+02,	-4.11259E+03,	0.00000E+00,	0,	0
  2.54525E-01,	1.00000E+01,	1.75152E-02,	1.86672E+02,	6.40364E+02,	-5.11291E+03,	0.00000E+00,	0,	0
  2.01613E-01,	1.00000E+01,	1.75152E-02,	1.97511E+02,	7.62983E+02,	-6.36003E+03,	0.00000E+00,	0,	0
  1.59574E-01,	1.00000E+01,	1.75152E-02,	2.10979E+02,	9.13647E+02,	-7.91465E+03,	0.00000E+00,	0,	0
  1.26689E-01,	1.00000E+01,	1.75152E-02,	2.27908E+02,	1.10563E+03,	-9.81903E+03,	0.00000E+00,	0,	0
  1.00446E-01,	1.00000E+01,	1.75152E-02,	2.48777E+02,	1.33891E+03,	-1.22066E+04,	0.00000E+00,	0,	0