Z60W Data File: Version 1.1
CorrTest for Windows: SN CS310H1805157  V5.2.1111.9  2.5H6.220118
Sweep Frequency: Control Voltage
  Date:5-8-2026   Time:14:54:55
  Begin Information:            Cell Information
      Surface Area:           1
      Density:                7.8
      Weight:                 28
  End Information:              Cell Information
  Freq (Hz)     Ampl(mV)       Bias(V)      Time(Sec)       Z'(Ohm.cm^2)    Z''(Ohm.cm^2)        GD       Err      Range
End Comments
  3.07200E+05,	1.00000E+01,	1.65862E-02,	2.32330E-02,	-1.91728E+00,	3.15805E+00,	0.00000E+00,	0,	0
  2.76480E+05,	1.00000E+01,	1.65862E-02,	1.62855E+00,	-1.27575E+00,	2.25659E+00,	0.00000E+00,	0,	0
  1.97486E+05,	1.00000E+01,	1.65862E-02,	2.54237E+00,	-4.01405E-01,	1.57744E+00,	0.00000E+00,	0,	0
  1.53600E+05,	1.00000E+01,	1.65862E-02,	3.44493E+00,	-3.47399E-02,	1.16076E+00,	0.00000E+00,	0,	0
  1.25673E+05,	1.00000E+01,	1.65862E-02,	4.34661E+00,	1.73509E-01,	8.90108E-01,	0.00000E+00,	0,	0
  9.87429E+04,	1.00000E+01,	1.65862E-02,	5.24385E+00,	3.51034E-01,	6.77582E-01,	0.00000E+00,	0,	0
  7.68000E+04,	1.00000E+01,	1.65862E-02,	6.14787E+00,	4.52385E-01,	4.92706E-01,	0.00000E+00,	0,	0
  6.01043E+04,	1.00000E+01,	1.65862E-02,	9.36049E+00,	5.30049E-01,	3.16018E-01,	0.00000E+00,	0,	0
  4.93714E+04,	1.00000E+01,	1.65862E-02,	1.09381E+01,	5.46662E-01,	2.16942E-01,	0.00000E+00,	0,	0
  3.84000E+04,	1.00000E+01,	1.65862E-02,	1.18431E+01,	5.58493E-01,	9.72543E-02,	0.00000E+00,	0,	0
  3.00522E+04,	1.00000E+01,	1.65862E-02,	1.26871E+01,	5.69948E-01,	-1.14125E-02,	0.00000E+00,	0,	0
  2.38345E+04,	1.00000E+01,	1.65862E-02,	1.35444E+01,	5.81941E-01,	-1.13426E-01,	0.00000E+00,	0,	0
  1.86811E+04,	1.00000E+01,	1.65862E-02,	1.43743E+01,	5.95909E-01,	-2.24515E-01,	0.00000E+00,	0,	0
  1.47064E+04,	1.00000E+01,	1.65862E-02,	1.53353E+01,	6.11608E-01,	-3.40773E-01,	0.00000E+00,	0,	0
  1.15200E+04,	1.00000E+01,	1.65862E-02,	1.63366E+01,	6.32720E-01,	-4.75358E-01,	0.00000E+00,	0,	0
  9.60000E+03,	1.00000E+01,	1.65862E-02,	1.79345E+01,	6.51235E-01,	-5.88540E-01,	0.00000E+00,	0,	0
  7.51304E+03,	1.00000E+01,	1.65862E-02,	1.88253E+01,	6.82133E-01,	-7.65409E-01,	0.00000E+00,	0,	0
  5.76000E+03,	1.00000E+01,	1.65862E-02,	1.97711E+01,	7.23314E-01,	-9.98946E-01,	0.00000E+00,	0,	0
  4.54737E+03,	1.00000E+01,	1.65862E-02,	2.06293E+01,	7.71737E-01,	-1.25138E+00,	0.00000E+00,	0,	0
  3.60000E+03,	1.00000E+01,	1.65862E-02,	2.16241E+01,	8.31376E-01,	-1.55660E+00,	0.00000E+00,	0,	0
  2.88000E+03,	1.00000E+01,	1.65862E-02,	2.25260E+01,	9.07086E-01,	-1.90757E+00,	0.00000E+00,	0,	0
  2.27368E+03,	1.00000E+01,	1.65862E-02,	2.48231E+01,	9.99328E-01,	-2.34499E+00,	0.00000E+00,	0,	0
  1.78144E+03,	1.00000E+01,	1.65862E-02,	2.56145E+01,	1.13543E+00,	-2.91563E+00,	0.00000E+00,	0,	0
  1.41639E+03,	1.00000E+01,	1.65862E-02,	2.65241E+01,	1.29484E+00,	-3.56741E+00,	0.00000E+00,	0,	0
  1.12208E+03,	1.00000E+01,	1.65862E-02,	2.75585E+01,	1.51129E+00,	-4.37111E+00,	0.00000E+00,	0,	0
  9.00000E+02,	1.00000E+01,	1.65862E-02,	3.25472E+01,	1.77733E+00,	-5.29903E+00,	0.00000E+00,	0,	0
  7.20000E+02,	1.00000E+01,	1.65862E-02,	3.39103E+01,	2.11757E+00,	-6.40876E+00,	0.00000E+00,	0,	0
  5.68421E+02,	1.00000E+01,	1.65862E-02,	3.52873E+01,	2.58087E+00,	-7.81502E+00,	0.00000E+00,	0,	0
  4.40816E+02,	1.00000E+01,	1.65862E-02,	3.67578E+01,	3.22642E+00,	-9.63384E+00,	0.00000E+00,	0,	0
  3.54098E+02,	1.00000E+01,	1.65862E-02,	3.91229E+01,	3.92716E+00,	-1.14924E+01,	0.00000E+00,	0,	0
  2.76923E+02,	1.00000E+01,	1.65862E-02,	4.17501E+01,	4.92380E+00,	-1.39619E+01,	0.00000E+00,	0,	0
  2.20408E+02,	1.00000E+01,	1.65862E-02,	4.46706E+01,	6.05894E+00,	-1.66581E+01,	0.00000E+00,	0,	0
  1.74194E+02,	1.00000E+01,	1.65862E-02,	4.79533E+01,	7.47937E+00,	-1.99119E+01,	0.00000E+00,	0,	0
  1.37580E+02,	1.00000E+01,	1.65862E-02,	5.16316E+01,	9.17603E+00,	-2.37379E+01,	0.00000E+00,	0,	0
  1.09091E+02,	1.00000E+01,	1.65862E-02,	5.57201E+01,	1.11301E+01,	-2.81743E+01,	0.00000E+00,	0,	0
  8.70968E+01,	1.00000E+01,	1.65862E-02,	6.38653E+01,	1.33569E+01,	-3.33847E+01,	0.00000E+00,	0,	0
  6.83544E+01,	1.00000E+01,	1.65862E-02,	6.88904E+01,	1.61162E+01,	-4.01047E+01,	0.00000E+00,	0,	0
  5.45455E+01,	1.00000E+01,	1.65862E-02,	7.43440E+01,	1.91577E+01,	-4.66178E+01,	0.00000E+00,	0,	0
  4.28571E+01,	1.00000E+01,	1.65862E-02,	7.78755E+01,	2.28229E+01,	-5.56503E+01,	0.00000E+00,	0,	0
  3.39623E+01,	1.00000E+01,	1.65862E-02,	8.15999E+01,	2.64852E+01,	-6.60463E+01,	0.00000E+00,	0,	0
  2.68657E+01,	1.00000E+01,	1.65862E-02,	8.54928E+01,	3.13808E+01,	-7.88911E+01,	0.00000E+00,	0,	0
  2.13439E+01,	1.00000E+01,	1.65862E-02,	8.93016E+01,	3.68112E+01,	-9.38475E+01,	0.00000E+00,	0,	0
  1.73077E+01,	1.00000E+01,	1.65862E-02,	9.59721E+01,	4.24029E+01,	-1.10203E+02,	0.00000E+00,	0,	0
  1.36364E+01,	1.00000E+01,	1.65862E-02,	1.01010E+02,	4.93143E+01,	-1.32263E+02,	0.00000E+00,	0,	0
  1.07143E+01,	1.00000E+01,	1.65862E-02,	1.03948E+02,	5.70691E+01,	-1.59472E+02,	0.00000E+00,	0,	0
  8.49057E+00,	1.00000E+01,	1.65862E-02,	1.08144E+02,	6.52650E+01,	-1.91755E+02,	0.00000E+00,	0,	0
  6.71642E+00,	1.00000E+01,	1.65862E-02,	1.10649E+02,	7.42413E+01,	-2.31574E+02,	0.00000E+00,	0,	0
  5.29412E+00,	1.00000E+01,	1.65862E-02,	1.13597E+02,	8.41824E+01,	-2.81523E+02,	0.00000E+00,	0,	0
  4.16667E+00,	1.00000E+01,	1.65862E-02,	1.17087E+02,	9.49745E+01,	-3.44396E+02,	0.00000E+00,	0,	0
  3.30882E+00,	1.00000E+01,	1.65862E-02,	1.21375E+02,	1.06180E+02,	-4.19858E+02,	0.00000E+00,	0,	0
  2.61628E+00,	1.00000E+01,	1.65862E-02,	1.25356E+02,	1.18879E+02,	-5.15640E+02,	0.00000E+00,	0,	0
  2.07373E+00,	1.00000E+01,	1.65862E-02,	1.30118E+02,	1.32778E+02,	-6.34630E+02,	0.00000E+00,	0,	0
  1.64234E+00,	1.00000E+01,	1.65862E-02,	1.35916E+02,	1.48850E+02,	-7.84022E+02,	0.00000E+00,	0,	0
  1.30058E+00,	1.00000E+01,	1.65862E-02,	1.40107E+02,	1.68404E+02,	-9.71575E+02,	0.00000E+00,	0,	0
  1.03211E+00,	1.00000E+01,	1.65862E-02,	1.44511E+02,	1.91610E+02,	-1.20392E+03,	0.00000E+00,	0,	0
  8.15217E-01,	1.00000E+01,	1.65862E-02,	1.51481E+02,	2.21310E+02,	-1.49976E+03,	0.00000E+00,	0,	0
  6.46552E-01,	1.00000E+01,	1.65862E-02,	1.60554E+02,	2.52498E+02,	-1.85200E+03,	0.00000E+00,	0,	0
  5.11364E-01,	1.00000E+01,	1.65862E-02,	1.65572E+02,	2.98868E+02,	-2.32022E+03,	0.00000E+00,	0,	0
  4.07609E-01,	1.00000E+01,	1.65862E-02,	1.71619E+02,	3.58266E+02,	-2.87398E+03,	0.00000E+00,	0,	0
  3.21429E-01,	1.00000E+01,	1.65862E-02,	1.78737E+02,	4.33787E+02,	-3.61003E+03,	0.00000E+00,	0,	0
  2.54525E-01,	1.00000E+01,	1.65862E-02,	1.87518E+02,	5.38696E+02,	-4.49347E+03,	0.00000E+00,	0,	0
  2.01613E-01,	1.00000E+01,	1.65862E-02,	1.98354E+02,	6.73936E+02,	-5.58988E+03,	0.00000E+00,	0,	0
  1.59574E-01,	1.00000E+01,	1.65862E-02,	2.11823E+02,	8.53436E+02,	-6.96129E+03,	0.00000E+00,	0,	0
  1.26689E-01,	1.00000E+01,	1.65862E-02,	2.28773E+02,	1.08453E+03,	-8.63692E+03,	0.00000E+00,	0,	0
  1.00446E-01,	1.00000E+01,	1.65862E-02,	2.49643E+02,	1.39107E+03,	-1.07295E+04,	0.00000E+00,	0,	0