Z60W Data File: Version 1.1
CorrTest for Windows: SN CS310H1805157  V5.2.1111.9  2.5H6.220118
Sweep Frequency: Control Voltage
  Date:5-8-2026   Time:21:05:44
  Begin Information:            Cell Information
      Surface Area:           1
      Density:                7.8
      Weight:                 28
  End Information:              Cell Information
  Freq (Hz)     Ampl(mV)       Bias(V)      Time(Sec)       Z'(Ohm.cm^2)    Z''(Ohm.cm^2)        GD       Err      Range
End Comments
  3.07200E+05,	1.00000E+01,	-2.94673E-02,	2.32941E-02,	8.62540E+01,	3.04420E+01,	0.00000E+00,	0,	0
  2.76480E+05,	1.00000E+01,	-2.94673E-02,	1.62411E+00,	8.48472E+01,	2.72278E+01,	0.00000E+00,	0,	0
  1.97486E+05,	1.00000E+01,	-2.94673E-02,	2.54716E+00,	8.23763E+01,	1.93169E+01,	0.00000E+00,	0,	0
  1.53600E+05,	1.00000E+01,	-2.94673E-02,	3.45359E+00,	8.11111E+01,	1.45326E+01,	0.00000E+00,	0,	0
  1.25673E+05,	1.00000E+01,	-2.94673E-02,	4.35878E+00,	8.08016E+01,	1.14302E+01,	0.00000E+00,	0,	0
  9.87429E+04,	1.00000E+01,	-2.94673E-02,	5.24375E+00,	8.05608E+01,	8.35437E+00,	0.00000E+00,	0,	0
  7.68000E+04,	1.00000E+01,	-2.94673E-02,	6.13444E+00,	8.07843E+01,	5.98920E+00,	0.00000E+00,	0,	0
  6.01043E+04,	1.00000E+01,	-2.94673E-02,	7.12391E+00,	8.07914E+01,	3.65068E+00,	0.00000E+00,	0,	0
  4.93714E+04,	1.00000E+01,	-2.94673E-02,	8.69573E+00,	8.10943E+01,	2.34274E+00,	0.00000E+00,	0,	0
  3.84000E+04,	1.00000E+01,	-2.94673E-02,	9.59554E+00,	8.14405E+01,	7.01463E-01,	0.00000E+00,	0,	0
  3.00522E+04,	1.00000E+01,	-2.94673E-02,	1.04495E+01,	8.20232E+01,	-9.81737E-01,	0.00000E+00,	0,	0
  2.38345E+04,	1.00000E+01,	-2.94673E-02,	1.13015E+01,	8.22610E+01,	-1.78239E+00,	0.00000E+00,	0,	0
  1.86811E+04,	1.00000E+01,	-2.94673E-02,	1.21409E+01,	8.26359E+01,	-2.95114E+00,	0.00000E+00,	0,	0
  1.47064E+04,	1.00000E+01,	-2.94673E-02,	1.30962E+01,	8.32394E+01,	-4.12128E+00,	0.00000E+00,	0,	0
  1.15200E+04,	1.00000E+01,	-2.94673E-02,	1.40695E+01,	8.42932E+01,	-5.44388E+00,	0.00000E+00,	0,	0
  9.60000E+03,	1.00000E+01,	-2.94673E-02,	1.56618E+01,	8.49935E+01,	-6.38779E+00,	0.00000E+00,	0,	0
  7.51304E+03,	1.00000E+01,	-2.94673E-02,	1.65229E+01,	8.58677E+01,	-7.70782E+00,	0.00000E+00,	0,	0
  5.76000E+03,	1.00000E+01,	-2.94673E-02,	1.74247E+01,	8.73748E+01,	-9.33970E+00,	0.00000E+00,	0,	0
  4.54737E+03,	1.00000E+01,	-2.94673E-02,	1.82948E+01,	8.82892E+01,	-1.09381E+01,	0.00000E+00,	0,	0
  3.60000E+03,	1.00000E+01,	-2.94673E-02,	1.92792E+01,	8.97616E+01,	-1.24793E+01,	0.00000E+00,	0,	0
  2.88000E+03,	1.00000E+01,	-2.94673E-02,	2.01405E+01,	9.12983E+01,	-1.41701E+01,	0.00000E+00,	0,	0
  2.27368E+03,	1.00000E+01,	-2.94673E-02,	2.12889E+01,	9.30901E+01,	-1.64080E+01,	0.00000E+00,	0,	0
  1.78144E+03,	1.00000E+01,	-2.94673E-02,	2.20820E+01,	9.52607E+01,	-1.90301E+01,	0.00000E+00,	0,	0
  1.41639E+03,	1.00000E+01,	-2.94673E-02,	2.29885E+01,	9.69314E+01,	-2.14254E+01,	0.00000E+00,	0,	0
  1.12208E+03,	1.00000E+01,	-2.94673E-02,	2.40161E+01,	9.98502E+01,	-2.43060E+01,	0.00000E+00,	0,	0
  9.00000E+02,	1.00000E+01,	-2.94673E-02,	2.89885E+01,	1.03097E+02,	-2.77098E+01,	0.00000E+00,	0,	0
  7.20000E+02,	1.00000E+01,	-2.94673E-02,	3.03674E+01,	1.06073E+02,	-3.14467E+01,	0.00000E+00,	0,	0
  5.68421E+02,	1.00000E+01,	-2.94673E-02,	3.17406E+01,	1.09586E+02,	-3.59634E+01,	0.00000E+00,	0,	0
  4.40816E+02,	1.00000E+01,	-2.94673E-02,	3.47749E+01,	1.14148E+02,	-4.18177E+01,	0.00000E+00,	0,	0
  3.54098E+02,	1.00000E+01,	-2.94673E-02,	3.71294E+01,	1.18386E+02,	-4.76508E+01,	0.00000E+00,	0,	0
  2.76923E+02,	1.00000E+01,	-2.94673E-02,	3.97747E+01,	1.23489E+02,	-5.52691E+01,	0.00000E+00,	0,	0
  2.20408E+02,	1.00000E+01,	-2.94673E-02,	4.26890E+01,	1.28776E+02,	-6.36769E+01,	0.00000E+00,	0,	0
  1.74194E+02,	1.00000E+01,	-2.94673E-02,	4.59436E+01,	1.34727E+02,	-7.39116E+01,	0.00000E+00,	0,	0
  1.37580E+02,	1.00000E+01,	-2.94673E-02,	4.96160E+01,	1.41343E+02,	-8.62332E+01,	0.00000E+00,	0,	0
  1.09091E+02,	1.00000E+01,	-2.94673E-02,	5.36927E+01,	1.48542E+02,	-1.00867E+02,	0.00000E+00,	0,	0
  8.70968E+01,	1.00000E+01,	-2.94673E-02,	5.93967E+01,	1.56491E+02,	-1.18251E+02,	0.00000E+00,	0,	0
  6.83544E+01,	1.00000E+01,	-2.94673E-02,	6.44241E+01,	1.66217E+02,	-1.41568E+02,	0.00000E+00,	0,	0
  5.45455E+01,	1.00000E+01,	-2.94673E-02,	6.98845E+01,	1.74500E+02,	-1.63729E+02,	0.00000E+00,	0,	0
  4.28571E+01,	1.00000E+01,	-2.94673E-02,	7.34120E+01,	1.85086E+02,	-1.96100E+02,	0.00000E+00,	0,	0
  3.39623E+01,	1.00000E+01,	-2.94673E-02,	7.71216E+01,	1.94635E+02,	-2.34960E+02,	0.00000E+00,	0,	0
  2.68657E+01,	1.00000E+01,	-2.94673E-02,	8.09896E+01,	2.08341E+02,	-2.83665E+02,	0.00000E+00,	0,	0
  2.13439E+01,	1.00000E+01,	-2.94673E-02,	8.48256E+01,	2.22973E+02,	-3.42103E+02,	0.00000E+00,	0,	0
  1.73077E+01,	1.00000E+01,	-2.94673E-02,	8.84933E+01,	2.37799E+02,	-4.07204E+02,	0.00000E+00,	0,	0
  1.36364E+01,	1.00000E+01,	-2.94673E-02,	9.35272E+01,	2.57333E+02,	-4.97943E+02,	0.00000E+00,	0,	0
  1.07143E+01,	1.00000E+01,	-2.94673E-02,	9.64331E+01,	2.80213E+02,	-6.12380E+02,	0.00000E+00,	0,	0
  8.49057E+00,	1.00000E+01,	-2.94673E-02,	1.00620E+02,	3.07129E+02,	-7.50115E+02,	0.00000E+00,	0,	0
  6.71642E+00,	1.00000E+01,	-2.94673E-02,	1.03131E+02,	3.40151E+02,	-9.22075E+02,	0.00000E+00,	0,	0
  5.29412E+00,	1.00000E+01,	-2.94673E-02,	1.06074E+02,	3.82212E+02,	-1.13720E+03,	0.00000E+00,	0,	0
  4.16667E+00,	1.00000E+01,	-2.94673E-02,	1.09566E+02,	4.36680E+02,	-1.40718E+03,	0.00000E+00,	0,	0
  3.30882E+00,	1.00000E+01,	-2.94673E-02,	1.16102E+02,	5.04198E+02,	-1.72619E+03,	0.00000E+00,	0,	0
  2.61628E+00,	1.00000E+01,	-2.94673E-02,	1.20078E+02,	5.93976E+02,	-2.12542E+03,	0.00000E+00,	0,	0
  2.07373E+00,	1.00000E+01,	-2.94673E-02,	1.24850E+02,	7.09088E+02,	-2.61104E+03,	0.00000E+00,	0,	0
  1.64234E+00,	1.00000E+01,	-2.94673E-02,	1.30668E+02,	8.60066E+02,	-3.20538E+03,	0.00000E+00,	0,	0
  1.30058E+00,	1.00000E+01,	-2.94673E-02,	1.34823E+02,	1.06031E+03,	-3.92728E+03,	0.00000E+00,	0,	0
  1.03211E+00,	1.00000E+01,	-2.94673E-02,	1.39233E+02,	1.32044E+03,	-4.79831E+03,	0.00000E+00,	0,	0
  8.15217E-01,	1.00000E+01,	-2.94673E-02,	1.46160E+02,	1.65966E+03,	-5.85310E+03,	0.00000E+00,	0,	0
  6.46552E-01,	1.00000E+01,	-2.94673E-02,	1.50985E+02,	2.09979E+03,	-7.10542E+03,	0.00000E+00,	0,	0
  5.11364E-01,	1.00000E+01,	-2.94673E-02,	1.56001E+02,	2.59426E+03,	-8.62663E+03,	0.00000E+00,	0,	0
  4.07609E-01,	1.00000E+01,	-2.94673E-02,	1.62057E+02,	3.28219E+03,	-1.03587E+04,	0.00000E+00,	0,	0
  3.21429E-01,	1.00000E+01,	-2.94673E-02,	1.69185E+02,	4.19042E+03,	-1.26105E+04,	0.00000E+00,	0,	0
  2.54525E-01,	1.00000E+01,	-2.94673E-02,	1.77974E+02,	5.31234E+03,	-1.50630E+04,	0.00000E+00,	0,	0
  2.01613E-01,	1.00000E+01,	-2.94673E-02,	1.88807E+02,	6.64110E+03,	-1.79550E+04,	0.00000E+00,	0,	0
  1.59574E-01,	1.00000E+01,	-2.94673E-02,	2.02258E+02,	8.23676E+03,	-2.13515E+04,	0.00000E+00,	0,	0
  1.26689E-01,	1.00000E+01,	-2.94673E-02,	2.36142E+02,	1.01051E+04,	-2.50400E+04,	0.00000E+00,	0,	0
  1.00446E-01,	1.00000E+01,	-2.94673E-02,	2.57003E+02,	1.21659E+04,	-3.05921E+04,	0.00000E+00,	0,	0