Z60W Data File: Version 1.1
CorrTest for Windows: SN CS310H1805157  V5.2.1111.9  2.5H6.220118
Sweep Frequency: Control Voltage
  Date:5-8-2026   Time:22:23:08
  Begin Information:            Cell Information
      Surface Area:           1
      Density:                7.8
      Weight:                 28
  End Information:              Cell Information
  Freq (Hz)     Ampl(mV)       Bias(V)      Time(Sec)       Z'(Ohm.cm^2)    Z''(Ohm.cm^2)        GD       Err      Range
End Comments
  3.07200E+05,	1.00000E+01,	-3.37795E-02,	2.78256E-02,	4.77356E+02,	-4.75825E+02,	0.00000E+00,	0,	0
  2.76480E+05,	1.00000E+01,	-3.37795E-02,	1.61466E+00,	4.91421E+02,	-5.20249E+02,	0.00000E+00,	0,	0
  1.97486E+05,	1.00000E+01,	-3.37795E-02,	2.51087E+00,	5.66475E+02,	-6.89827E+02,	0.00000E+00,	0,	0
  1.53600E+05,	1.00000E+01,	-3.37795E-02,	3.41253E+00,	6.39670E+02,	-8.47255E+02,	0.00000E+00,	0,	0
  1.25673E+05,	1.00000E+01,	-3.37795E-02,	4.31068E+00,	7.55669E+02,	-9.88327E+02,	0.00000E+00,	0,	0
  9.87429E+04,	1.00000E+01,	-3.37795E-02,	5.20984E+00,	8.71679E+02,	-1.19206E+03,	0.00000E+00,	0,	0
  7.68000E+04,	1.00000E+01,	-3.37795E-02,	6.09643E+00,	1.05659E+03,	-1.41705E+03,	0.00000E+00,	0,	0
  6.01043E+04,	1.00000E+01,	-3.37795E-02,	8.21686E+00,	1.32162E+03,	-1.60149E+03,	0.00000E+00,	0,	0
  4.93714E+04,	1.00000E+01,	-3.37795E-02,	9.77982E+00,	1.56933E+03,	-1.75163E+03,	0.00000E+00,	0,	0
  3.84000E+04,	1.00000E+01,	-3.37795E-02,	1.06739E+01,	1.97819E+03,	-1.94620E+03,	0.00000E+00,	0,	0
  3.00522E+04,	1.00000E+01,	-3.37795E-02,	1.15360E+01,	2.99287E+03,	-2.20776E+03,	0.00000E+00,	0,	0
  2.38345E+04,	1.00000E+01,	-3.37795E-02,	1.24023E+01,	2.87592E+03,	-2.02312E+03,	0.00000E+00,	0,	0
  1.86811E+04,	1.00000E+01,	-3.37795E-02,	1.32450E+01,	2.85982E+03,	-1.98412E+03,	0.00000E+00,	0,	0
  1.47064E+04,	1.00000E+01,	-3.37795E-02,	1.42017E+01,	3.67903E+03,	-1.83135E+03,	0.00000E+00,	0,	0
  1.15200E+04,	1.00000E+01,	-3.37795E-02,	1.51743E+01,	3.92375E+03,	-1.65288E+03,	0.00000E+00,	0,	0
  9.60000E+03,	1.00000E+01,	-3.37795E-02,	1.67595E+01,	4.22883E+03,	-1.49231E+03,	0.00000E+00,	0,	0
  7.51304E+03,	1.00000E+01,	-3.37795E-02,	1.76337E+01,	4.46726E+03,	-1.28986E+03,	0.00000E+00,	0,	0
  5.76000E+03,	1.00000E+01,	-3.37795E-02,	1.85431E+01,	4.53610E+03,	-1.13358E+03,	0.00000E+00,	0,	0
  4.54737E+03,	1.00000E+01,	-3.37795E-02,	1.94174E+01,	4.76225E+03,	-9.79941E+02,	0.00000E+00,	0,	0
  3.60000E+03,	1.00000E+01,	-3.37795E-02,	2.04184E+01,	4.78602E+03,	-8.83898E+02,	0.00000E+00,	0,	0
  2.88000E+03,	1.00000E+01,	-3.37795E-02,	2.13043E+01,	4.90560E+03,	-7.74240E+02,	0.00000E+00,	0,	0
  2.27368E+03,	1.00000E+01,	-3.37795E-02,	2.24411E+01,	4.81858E+03,	-7.84141E+02,	0.00000E+00,	0,	0
  1.78144E+03,	1.00000E+01,	-3.37795E-02,	2.32234E+01,	5.02494E+03,	-6.21487E+02,	0.00000E+00,	0,	0
  1.41639E+03,	1.00000E+01,	-3.37795E-02,	2.41277E+01,	5.00503E+03,	-6.27077E+02,	0.00000E+00,	0,	0
  1.12208E+03,	1.00000E+01,	-3.37795E-02,	2.51537E+01,	5.20880E+03,	-7.53015E+02,	0.00000E+00,	0,	0
  9.00000E+02,	1.00000E+01,	-3.37795E-02,	3.01561E+01,	5.34417E+03,	-8.47782E+02,	0.00000E+00,	0,	0
  7.20000E+02,	1.00000E+01,	-3.37795E-02,	3.15240E+01,	5.47086E+03,	-8.81781E+02,	0.00000E+00,	0,	0
  5.68421E+02,	1.00000E+01,	-3.37795E-02,	3.28866E+01,	5.62442E+03,	-9.07398E+02,	0.00000E+00,	0,	0
  4.40816E+02,	1.00000E+01,	-3.37795E-02,	3.59265E+01,	5.81139E+03,	-9.16247E+02,	0.00000E+00,	0,	0
  3.54098E+02,	1.00000E+01,	-3.37795E-02,	3.82706E+01,	5.96895E+03,	-9.10279E+02,	0.00000E+00,	0,	0
  2.76923E+02,	1.00000E+01,	-3.37795E-02,	4.09170E+01,	6.14301E+03,	-8.88052E+02,	0.00000E+00,	0,	0
  2.20408E+02,	1.00000E+01,	-3.37795E-02,	4.38325E+01,	6.28862E+03,	-8.62465E+02,	0.00000E+00,	0,	0
  1.74194E+02,	1.00000E+01,	-3.37795E-02,	4.70917E+01,	6.42686E+03,	-8.43897E+02,	0.00000E+00,	0,	0
  1.37580E+02,	1.00000E+01,	-3.37795E-02,	5.07468E+01,	6.55407E+03,	-8.27543E+02,	0.00000E+00,	0,	0
  1.09091E+02,	1.00000E+01,	-3.37795E-02,	5.48286E+01,	6.67635E+03,	-8.31464E+02,	0.00000E+00,	0,	0
  8.70968E+01,	1.00000E+01,	-3.37795E-02,	6.05370E+01,	6.81110E+03,	-8.54640E+02,	0.00000E+00,	0,	0
  6.83544E+01,	1.00000E+01,	-3.37795E-02,	6.55649E+01,	6.97930E+03,	-9.05704E+02,	0.00000E+00,	0,	0
  5.45455E+01,	1.00000E+01,	-3.37795E-02,	7.09943E+01,	7.02785E+03,	-8.94176E+02,	0.00000E+00,	0,	0
  4.28571E+01,	1.00000E+01,	-3.37795E-02,	7.45157E+01,	7.15111E+03,	-9.60619E+02,	0.00000E+00,	0,	0
  3.39623E+01,	1.00000E+01,	-3.37795E-02,	7.82451E+01,	7.24789E+03,	-1.07877E+03,	0.00000E+00,	0,	0
  2.68657E+01,	1.00000E+01,	-3.37795E-02,	8.20850E+01,	7.41621E+03,	-1.17524E+03,	0.00000E+00,	0,	0
  2.13439E+01,	1.00000E+01,	-3.37795E-02,	8.58908E+01,	7.57565E+03,	-1.29462E+03,	0.00000E+00,	0,	0
  1.73077E+01,	1.00000E+01,	-3.37795E-02,	8.95656E+01,	7.72647E+03,	-1.42442E+03,	0.00000E+00,	0,	0
  1.36364E+01,	1.00000E+01,	-3.37795E-02,	9.45898E+01,	7.91724E+03,	-1.60842E+03,	0.00000E+00,	0,	0
  1.07143E+01,	1.00000E+01,	-3.37795E-02,	9.75157E+01,	8.10970E+03,	-1.82597E+03,	0.00000E+00,	0,	0
  8.49057E+00,	1.00000E+01,	-3.37795E-02,	1.01718E+02,	8.32057E+03,	-2.08339E+03,	0.00000E+00,	0,	0
  6.71642E+00,	1.00000E+01,	-3.37795E-02,	1.04227E+02,	8.53943E+03,	-2.38557E+03,	0.00000E+00,	0,	0
  5.29412E+00,	1.00000E+01,	-3.37795E-02,	1.07147E+02,	8.77782E+03,	-2.75397E+03,	0.00000E+00,	0,	0
  4.16667E+00,	1.00000E+01,	-3.37795E-02,	1.10629E+02,	9.05001E+03,	-3.20275E+03,	0.00000E+00,	0,	0
  3.30882E+00,	1.00000E+01,	-3.37795E-02,	1.14885E+02,	9.34485E+03,	-3.72295E+03,	0.00000E+00,	0,	0
  2.61628E+00,	1.00000E+01,	-3.37795E-02,	1.18872E+02,	9.66771E+03,	-4.36059E+03,	0.00000E+00,	0,	0
  2.07373E+00,	1.00000E+01,	-3.37795E-02,	1.23641E+02,	1.00289E+04,	-5.12254E+03,	0.00000E+00,	0,	0
  1.64234E+00,	1.00000E+01,	-3.37795E-02,	1.29448E+02,	1.04322E+04,	-6.05778E+03,	0.00000E+00,	0,	0
  1.30058E+00,	1.00000E+01,	-3.37795E-02,	1.33610E+02,	1.08425E+04,	-7.18201E+03,	0.00000E+00,	0,	0
  1.03211E+00,	1.00000E+01,	-3.37795E-02,	1.38032E+02,	1.13591E+04,	-8.52501E+03,	0.00000E+00,	0,	0
  8.15217E-01,	1.00000E+01,	-3.37795E-02,	1.44967E+02,	1.18440E+04,	-1.02559E+04,	0.00000E+00,	0,	0
  6.46552E-01,	1.00000E+01,	-3.37795E-02,	1.54071E+02,	1.24732E+04,	-1.23491E+04,	0.00000E+00,	0,	0
  5.11364E-01,	1.00000E+01,	-3.37795E-02,	1.59078E+02,	1.29026E+04,	-1.53959E+04,	0.00000E+00,	0,	0
  4.07609E-01,	1.00000E+01,	-3.37795E-02,	1.65142E+02,	1.36363E+04,	-1.84605E+04,	0.00000E+00,	0,	0
  3.21429E-01,	1.00000E+01,	-3.37795E-02,	1.72269E+02,	1.49835E+04,	-2.31425E+04,	0.00000E+00,	0,	0
  2.54525E-01,	1.00000E+01,	-3.37795E-02,	1.81051E+02,	1.59777E+04,	-2.80146E+04,	0.00000E+00,	0,	0
  2.01613E-01,	1.00000E+01,	-3.37795E-02,	1.91879E+02,	1.71675E+04,	-3.42018E+04,	0.00000E+00,	0,	0
  1.59574E-01,	1.00000E+01,	-3.37795E-02,	2.05340E+02,	1.86276E+04,	-4.18967E+04,	0.00000E+00,	0,	0
  1.26689E-01,	1.00000E+01,	-3.37795E-02,	2.22245E+02,	2.03998E+04,	-5.13018E+04,	0.00000E+00,	0,	0
  1.00446E-01,	1.00000E+01,	-3.37795E-02,	2.43106E+02,	2.26649E+04,	-6.31745E+04,	0.00000E+00,	0,	0