Z60W Data File: Version 1.1
CorrTest for Windows: SN CS310H1805157  V5.2.1111.9  2.5H6.220118
Sweep Frequency: Control Voltage
  Date:5-8-2026   Time:14:05:19
  Begin Information:            Cell Information
      Surface Area:           1
      Density:                7.8
      Weight:                 28
  End Information:              Cell Information
  Freq (Hz)     Ampl(mV)       Bias(V)      Time(Sec)       Z'(Ohm.cm^2)    Z''(Ohm.cm^2)        GD       Err      Range
End Comments
  3.07200E+05,	1.00000E+01,	-7.20536E-03,	1.39084E-01,	-1.37035E+00,	3.56426E+00,	0.00000E+00,	0,	0
  2.76480E+05,	1.00000E+01,	-7.20536E-03,	1.73558E+00,	-6.72503E-01,	2.57184E+00,	0.00000E+00,	0,	0
  1.97486E+05,	1.00000E+01,	-7.20536E-03,	2.62186E+00,	2.21765E-01,	1.80433E+00,	0.00000E+00,	0,	0
  1.53600E+05,	1.00000E+01,	-7.20536E-03,	3.52129E+00,	5.81087E-01,	1.35610E+00,	0.00000E+00,	0,	0
  1.25673E+05,	1.00000E+01,	-7.20536E-03,	4.41613E+00,	7.91106E-01,	1.06683E+00,	0.00000E+00,	0,	0
  9.87429E+04,	1.00000E+01,	-7.20536E-03,	5.31032E+00,	9.44410E-01,	8.09409E-01,	0.00000E+00,	0,	0
  7.68000E+04,	1.00000E+01,	-7.20536E-03,	6.20495E+00,	1.06039E+00,	5.96447E-01,	0.00000E+00,	0,	0
  6.01043E+04,	1.00000E+01,	-7.20536E-03,	9.40733E+00,	5.97488E-01,	3.28673E-01,	0.00000E+00,	0,	0
  4.93714E+04,	1.00000E+01,	-7.20536E-03,	1.09753E+01,	6.13323E-01,	2.28802E-01,	0.00000E+00,	0,	0
  3.84000E+04,	1.00000E+01,	-7.20536E-03,	1.18773E+01,	6.25935E-01,	1.08118E-01,	0.00000E+00,	0,	0
  3.00522E+04,	1.00000E+01,	-7.20536E-03,	1.27226E+01,	6.35969E-01,	2.15538E-05,	0.00000E+00,	0,	0
  2.38345E+04,	1.00000E+01,	-7.20536E-03,	1.35822E+01,	6.46893E-01,	-9.97960E-02,	0.00000E+00,	0,	0
  1.86811E+04,	1.00000E+01,	-7.20536E-03,	1.44132E+01,	6.60104E-01,	-2.09630E-01,	0.00000E+00,	0,	0
  1.47064E+04,	1.00000E+01,	-7.20536E-03,	1.53657E+01,	6.75697E-01,	-3.25183E-01,	0.00000E+00,	0,	0
  1.15200E+04,	1.00000E+01,	-7.20536E-03,	1.63367E+01,	6.95701E-01,	-4.56336E-01,	0.00000E+00,	0,	0
  9.60000E+03,	1.00000E+01,	-7.20536E-03,	1.79058E+01,	7.13163E-01,	-5.67579E-01,	0.00000E+00,	0,	0
  7.51304E+03,	1.00000E+01,	-7.20536E-03,	1.87743E+01,	7.42830E-01,	-7.40159E-01,	0.00000E+00,	0,	0
  5.76000E+03,	1.00000E+01,	-7.20536E-03,	1.96564E+01,	7.84613E-01,	-9.67875E-01,	0.00000E+00,	0,	0
  4.54737E+03,	1.00000E+01,	-7.20536E-03,	2.05208E+01,	8.32098E-01,	-1.21478E+00,	0.00000E+00,	0,	0
  3.60000E+03,	1.00000E+01,	-7.20536E-03,	2.15004E+01,	8.89963E-01,	-1.50939E+00,	0.00000E+00,	0,	0
  2.88000E+03,	1.00000E+01,	-7.20536E-03,	2.23861E+01,	9.63703E-01,	-1.85178E+00,	0.00000E+00,	0,	0
  2.27368E+03,	1.00000E+01,	-7.20536E-03,	2.46486E+01,	1.05580E+00,	-2.27602E+00,	0.00000E+00,	0,	0
  1.78144E+03,	1.00000E+01,	-7.20536E-03,	2.54342E+01,	1.18800E+00,	-2.82702E+00,	0.00000E+00,	0,	0
  1.41639E+03,	1.00000E+01,	-7.20536E-03,	2.63293E+01,	1.35014E+00,	-3.46001E+00,	0.00000E+00,	0,	0
  1.12208E+03,	1.00000E+01,	-7.20536E-03,	2.73576E+01,	1.56295E+00,	-4.23459E+00,	0.00000E+00,	0,	0
  9.00000E+02,	1.00000E+01,	-7.20536E-03,	3.23338E+01,	1.82921E+00,	-5.13244E+00,	0.00000E+00,	0,	0
  7.20000E+02,	1.00000E+01,	-7.20536E-03,	3.37146E+01,	2.16699E+00,	-6.19932E+00,	0.00000E+00,	0,	0
  5.68421E+02,	1.00000E+01,	-7.20536E-03,	3.50961E+01,	2.62463E+00,	-7.55096E+00,	0.00000E+00,	0,	0
  4.40816E+02,	1.00000E+01,	-7.20536E-03,	3.65437E+01,	3.26090E+00,	-9.29320E+00,	0.00000E+00,	0,	0
  3.54098E+02,	1.00000E+01,	-7.20536E-03,	3.88637E+01,	3.94965E+00,	-1.10711E+01,	0.00000E+00,	0,	0
  2.76923E+02,	1.00000E+01,	-7.20536E-03,	4.14977E+01,	4.91943E+00,	-1.34186E+01,	0.00000E+00,	0,	0
  2.20408E+02,	1.00000E+01,	-7.20536E-03,	4.44074E+01,	6.02161E+00,	-1.59914E+01,	0.00000E+00,	0,	0
  1.74194E+02,	1.00000E+01,	-7.20536E-03,	4.76655E+01,	7.38778E+00,	-1.90870E+01,	0.00000E+00,	0,	0
  1.37580E+02,	1.00000E+01,	-7.20536E-03,	5.13070E+01,	9.01474E+00,	-2.27341E+01,	0.00000E+00,	0,	0
  1.09091E+02,	1.00000E+01,	-7.20536E-03,	5.53756E+01,	1.08759E+01,	-2.69656E+01,	0.00000E+00,	0,	0
  8.70968E+01,	1.00000E+01,	-7.20536E-03,	6.35126E+01,	1.29942E+01,	-3.19378E+01,	0.00000E+00,	0,	0
  6.83544E+01,	1.00000E+01,	-7.20536E-03,	6.85333E+01,	1.56176E+01,	-3.83707E+01,	0.00000E+00,	0,	0
  5.45455E+01,	1.00000E+01,	-7.20536E-03,	7.39881E+01,	1.84998E+01,	-4.46142E+01,	0.00000E+00,	0,	0
  4.28571E+01,	1.00000E+01,	-7.20536E-03,	7.75161E+01,	2.19874E+01,	-5.32698E+01,	0.00000E+00,	0,	0
  3.39623E+01,	1.00000E+01,	-7.20536E-03,	8.12371E+01,	2.54707E+01,	-6.32359E+01,	0.00000E+00,	0,	0
  2.68657E+01,	1.00000E+01,	-7.20536E-03,	8.50610E+01,	3.00949E+01,	-7.55356E+01,	0.00000E+00,	0,	0
  2.13439E+01,	1.00000E+01,	-7.20536E-03,	8.88720E+01,	3.52083E+01,	-8.98662E+01,	0.00000E+00,	0,	0
  1.73077E+01,	1.00000E+01,	-7.20536E-03,	9.55411E+01,	4.04436E+01,	-1.05579E+02,	0.00000E+00,	0,	0
  1.36364E+01,	1.00000E+01,	-7.20536E-03,	1.00572E+02,	4.68696E+01,	-1.26807E+02,	0.00000E+00,	0,	0
  1.07143E+01,	1.00000E+01,	-7.20536E-03,	1.03485E+02,	5.40397E+01,	-1.53074E+02,	0.00000E+00,	0,	0
  8.49057E+00,	1.00000E+01,	-7.20536E-03,	1.07683E+02,	6.15687E+01,	-1.84237E+02,	0.00000E+00,	0,	0
  6.71642E+00,	1.00000E+01,	-7.20536E-03,	1.10191E+02,	6.98345E+01,	-2.23005E+02,	0.00000E+00,	0,	0
  5.29412E+00,	1.00000E+01,	-7.20536E-03,	1.13120E+02,	7.90360E+01,	-2.71616E+02,	0.00000E+00,	0,	0
  4.16667E+00,	1.00000E+01,	-7.20536E-03,	1.16595E+02,	8.89472E+01,	-3.32802E+02,	0.00000E+00,	0,	0
  3.30882E+00,	1.00000E+01,	-7.20536E-03,	1.20829E+02,	9.94143E+01,	-4.06472E+02,	0.00000E+00,	0,	0
  2.61628E+00,	1.00000E+01,	-7.20536E-03,	1.24785E+02,	1.11381E+02,	-5.00053E+02,	0.00000E+00,	0,	0
  2.07373E+00,	1.00000E+01,	-7.20536E-03,	1.29567E+02,	1.24660E+02,	-6.16270E+02,	0.00000E+00,	0,	0
  1.64234E+00,	1.00000E+01,	-7.20536E-03,	1.35348E+02,	1.40282E+02,	-7.62240E+02,	0.00000E+00,	0,	0
  1.30058E+00,	1.00000E+01,	-7.20536E-03,	1.39510E+02,	1.59775E+02,	-9.45209E+02,	0.00000E+00,	0,	0
  1.03211E+00,	1.00000E+01,	-7.20536E-03,	1.43948E+02,	1.83163E+02,	-1.17199E+03,	0.00000E+00,	0,	0
  8.15217E-01,	1.00000E+01,	-7.20536E-03,	1.50894E+02,	2.13651E+02,	-1.46031E+03,	0.00000E+00,	0,	0
  6.46552E-01,	1.00000E+01,	-7.20536E-03,	1.59972E+02,	2.47523E+02,	-1.79482E+03,	0.00000E+00,	0,	0
  5.11364E-01,	1.00000E+01,	-7.20536E-03,	1.65017E+02,	2.94960E+02,	-2.24786E+03,	0.00000E+00,	0,	0
  4.07609E-01,	1.00000E+01,	-7.20536E-03,	1.71094E+02,	3.58605E+02,	-2.78211E+03,	0.00000E+00,	0,	0
  3.21429E-01,	1.00000E+01,	-7.20536E-03,	1.78219E+02,	4.39863E+02,	-3.49524E+03,	0.00000E+00,	0,	0
  2.54525E-01,	1.00000E+01,	-7.20536E-03,	1.86997E+02,	5.54112E+02,	-4.34682E+03,	0.00000E+00,	0,	0
  2.01613E-01,	1.00000E+01,	-7.20536E-03,	1.97851E+02,	7.03705E+02,	-5.40344E+03,	0.00000E+00,	0,	0
  1.59574E-01,	1.00000E+01,	-7.20536E-03,	2.11319E+02,	8.93404E+02,	-6.71567E+03,	0.00000E+00,	0,	0
  1.26689E-01,	1.00000E+01,	-7.20536E-03,	2.28211E+02,	1.17201E+03,	-8.33564E+03,	0.00000E+00,	0,	0
  1.00446E-01,	1.00000E+01,	-7.20536E-03,	2.49086E+02,	1.53078E+03,	-1.03373E+04,	0.00000E+00,	0,	0