Z60W Data File: Version 1.1
CorrTest for Windows: SN CS310H1805157  V5.2.1111.9  2.5H6.220118
Sweep Frequency: Control Voltage
  Date:5-8-2026   Time:20:01:00
  Begin Information:            Cell Information
      Surface Area:           1
      Density:                7.8
      Weight:                 28
  End Information:              Cell Information
  Freq (Hz)     Ampl(mV)       Bias(V)      Time(Sec)       Z'(Ohm.cm^2)    Z''(Ohm.cm^2)        GD       Err      Range
End Comments
  3.07200E+05,	1.00000E+01,	-2.53444E-02,	2.31352E-02,	1.55284E+00,	4.79754E+00,	0.00000E+00,	0,	0
  2.76480E+05,	1.00000E+01,	-2.53444E-02,	1.61133E+00,	2.08523E+00,	3.72727E+00,	0.00000E+00,	0,	0
  1.97486E+05,	1.00000E+01,	-2.53444E-02,	2.52634E+00,	2.94863E+00,	2.57504E+00,	0.00000E+00,	0,	0
  1.53600E+05,	1.00000E+01,	-2.53444E-02,	3.42715E+00,	3.26131E+00,	1.84272E+00,	0.00000E+00,	0,	0
  1.25673E+05,	1.00000E+01,	-2.53444E-02,	4.32701E+00,	3.48421E+00,	1.38769E+00,	0.00000E+00,	0,	0
  9.87429E+04,	1.00000E+01,	-2.53444E-02,	5.22492E+00,	3.67302E+00,	9.60413E-01,	0.00000E+00,	0,	0
  7.68000E+04,	1.00000E+01,	-2.53444E-02,	6.12409E+00,	3.81079E+00,	6.02768E-01,	0.00000E+00,	0,	0
  6.01043E+04,	1.00000E+01,	-2.53444E-02,	9.32408E+00,	3.95212E+00,	2.43431E-01,	0.00000E+00,	0,	0
  4.93714E+04,	1.00000E+01,	-2.53444E-02,	1.09121E+01,	4.01454E+00,	2.79176E-02,	0.00000E+00,	0,	0
  3.84000E+04,	1.00000E+01,	-2.53444E-02,	1.18079E+01,	4.08728E+00,	-2.26230E-01,	0.00000E+00,	0,	0
  3.00522E+04,	1.00000E+01,	-2.53444E-02,	1.26545E+01,	4.17210E+00,	-4.68042E-01,	0.00000E+00,	0,	0
  2.38345E+04,	1.00000E+01,	-2.53444E-02,	1.35205E+01,	4.25524E+00,	-6.97762E-01,	0.00000E+00,	0,	0
  1.86811E+04,	1.00000E+01,	-2.53444E-02,	1.43564E+01,	4.36879E+00,	-9.39821E-01,	0.00000E+00,	0,	0
  1.47064E+04,	1.00000E+01,	-2.53444E-02,	1.53180E+01,	4.49200E+00,	-1.19783E+00,	0.00000E+00,	0,	0
  1.15200E+04,	1.00000E+01,	-2.53444E-02,	1.62958E+01,	4.64638E+00,	-1.48220E+00,	0.00000E+00,	0,	0
  9.60000E+03,	1.00000E+01,	-2.53444E-02,	1.78692E+01,	4.77763E+00,	-1.71166E+00,	0.00000E+00,	0,	0
  7.51304E+03,	1.00000E+01,	-2.53444E-02,	1.87364E+01,	4.96129E+00,	-2.05896E+00,	0.00000E+00,	0,	0
  5.76000E+03,	1.00000E+01,	-2.53444E-02,	1.96396E+01,	5.19172E+00,	-2.48767E+00,	0.00000E+00,	0,	0
  4.54737E+03,	1.00000E+01,	-2.53444E-02,	2.05070E+01,	5.42739E+00,	-2.93370E+00,	0.00000E+00,	0,	0
  3.60000E+03,	1.00000E+01,	-2.53444E-02,	2.14857E+01,	5.68361E+00,	-3.45719E+00,	0.00000E+00,	0,	0
  2.88000E+03,	1.00000E+01,	-2.53444E-02,	2.23761E+01,	5.95988E+00,	-4.04038E+00,	0.00000E+00,	0,	0
  2.27368E+03,	1.00000E+01,	-2.53444E-02,	2.46744E+01,	6.21962E+00,	-4.73451E+00,	0.00000E+00,	0,	0
  1.78144E+03,	1.00000E+01,	-2.53444E-02,	2.54685E+01,	6.58304E+00,	-5.64002E+00,	0.00000E+00,	0,	0
  1.41639E+03,	1.00000E+01,	-2.53444E-02,	2.63626E+01,	6.95284E+00,	-6.67823E+00,	0.00000E+00,	0,	0
  1.12208E+03,	1.00000E+01,	-2.53444E-02,	2.74044E+01,	7.37588E+00,	-7.94991E+00,	0.00000E+00,	0,	0
  9.00000E+02,	1.00000E+01,	-2.53444E-02,	3.23915E+01,	7.85404E+00,	-9.44243E+00,	0.00000E+00,	0,	0
  7.20000E+02,	1.00000E+01,	-2.53444E-02,	3.37714E+01,	8.34069E+00,	-1.12534E+01,	0.00000E+00,	0,	0
  5.68421E+02,	1.00000E+01,	-2.53444E-02,	3.51491E+01,	8.92759E+00,	-1.36037E+01,	0.00000E+00,	0,	0
  4.40816E+02,	1.00000E+01,	-2.53444E-02,	3.81610E+01,	9.67868E+00,	-1.68130E+01,	0.00000E+00,	0,	0
  3.54098E+02,	1.00000E+01,	-2.53444E-02,	4.05128E+01,	1.03958E+01,	-2.01981E+01,	0.00000E+00,	0,	0
  2.76923E+02,	1.00000E+01,	-2.53444E-02,	4.31491E+01,	1.13515E+01,	-2.49140E+01,	0.00000E+00,	0,	0
  2.20408E+02,	1.00000E+01,	-2.53444E-02,	4.60547E+01,	1.24024E+01,	-3.03531E+01,	0.00000E+00,	0,	0
  1.74194E+02,	1.00000E+01,	-2.53444E-02,	4.92934E+01,	1.37244E+01,	-3.72892E+01,	0.00000E+00,	0,	0
  1.37580E+02,	1.00000E+01,	-2.53444E-02,	5.29604E+01,	1.53744E+01,	-4.59185E+01,	0.00000E+00,	0,	0
  1.09091E+02,	1.00000E+01,	-2.53444E-02,	5.70341E+01,	1.74127E+01,	-5.64563E+01,	0.00000E+00,	0,	0
  8.70968E+01,	1.00000E+01,	-2.53444E-02,	6.27258E+01,	1.98898E+01,	-6.91022E+01,	0.00000E+00,	0,	0
  6.83544E+01,	1.00000E+01,	-2.53444E-02,	6.77352E+01,	2.33501E+01,	-8.62649E+01,	0.00000E+00,	0,	0
  5.45455E+01,	1.00000E+01,	-2.53444E-02,	7.31859E+01,	2.79450E+01,	-1.03914E+02,	0.00000E+00,	0,	0
  4.28571E+01,	1.00000E+01,	-2.53444E-02,	7.67278E+01,	3.39310E+01,	-1.28457E+02,	0.00000E+00,	0,	0
  3.39623E+01,	1.00000E+01,	-2.53444E-02,	8.04691E+01,	4.05138E+01,	-1.57208E+02,	0.00000E+00,	0,	0
  2.68657E+01,	1.00000E+01,	-2.53444E-02,	8.43154E+01,	5.07462E+01,	-1.93231E+02,	0.00000E+00,	0,	0
  2.13439E+01,	1.00000E+01,	-2.53444E-02,	8.81170E+01,	6.37177E+01,	-2.35608E+02,	0.00000E+00,	0,	0
  1.73077E+01,	1.00000E+01,	-2.53444E-02,	9.47818E+01,	7.89192E+01,	-2.81988E+02,	0.00000E+00,	0,	0
  1.36364E+01,	1.00000E+01,	-2.53444E-02,	9.97982E+01,	1.00684E+02,	-3.43880E+02,	0.00000E+00,	0,	0
  1.07143E+01,	1.00000E+01,	-2.53444E-02,	1.02720E+02,	1.28964E+02,	-4.18399E+02,	0.00000E+00,	0,	0
  8.49057E+00,	1.00000E+01,	-2.53444E-02,	1.06921E+02,	1.63584E+02,	-5.03662E+02,	0.00000E+00,	0,	0
  6.71642E+00,	1.00000E+01,	-2.53444E-02,	1.09442E+02,	2.07043E+02,	-6.04493E+02,	0.00000E+00,	0,	0
  5.29412E+00,	1.00000E+01,	-2.53444E-02,	1.12376E+02,	2.61020E+02,	-7.23537E+02,	0.00000E+00,	0,	0
  4.16667E+00,	1.00000E+01,	-2.53444E-02,	1.15852E+02,	3.26416E+02,	-8.64111E+02,	0.00000E+00,	0,	0
  3.30882E+00,	1.00000E+01,	-2.53444E-02,	1.20103E+02,	4.00468E+02,	-1.02272E+03,	0.00000E+00,	0,	0
  2.61628E+00,	1.00000E+01,	-2.53444E-02,	1.24086E+02,	4.88123E+02,	-1.21126E+03,	0.00000E+00,	0,	0
  2.07373E+00,	1.00000E+01,	-2.53444E-02,	1.28847E+02,	5.87240E+02,	-1.43232E+03,	0.00000E+00,	0,	0
  1.64234E+00,	1.00000E+01,	-2.53444E-02,	1.34632E+02,	7.00930E+02,	-1.69632E+03,	0.00000E+00,	0,	0
  1.30058E+00,	1.00000E+01,	-2.53444E-02,	1.38794E+02,	8.31609E+02,	-2.00963E+03,	0.00000E+00,	0,	0
  1.03211E+00,	1.00000E+01,	-2.53444E-02,	1.43195E+02,	9.81831E+02,	-2.38515E+03,	0.00000E+00,	0,	0
  8.15217E-01,	1.00000E+01,	-2.53444E-02,	1.50139E+02,	1.15122E+03,	-2.83957E+03,	0.00000E+00,	0,	0
  6.46552E-01,	1.00000E+01,	-2.53444E-02,	1.59237E+02,	1.34503E+03,	-3.38603E+03,	0.00000E+00,	0,	0
  5.11364E-01,	1.00000E+01,	-2.53444E-02,	1.64290E+02,	1.51747E+03,	-4.06613E+03,	0.00000E+00,	0,	0
  4.07609E-01,	1.00000E+01,	-2.53444E-02,	1.70355E+02,	1.76287E+03,	-4.84654E+03,	0.00000E+00,	0,	0
  3.21429E-01,	1.00000E+01,	-2.53444E-02,	1.77476E+02,	2.06008E+03,	-5.93305E+03,	0.00000E+00,	0,	0
  2.54525E-01,	1.00000E+01,	-2.53444E-02,	1.86249E+02,	2.38746E+03,	-7.12318E+03,	0.00000E+00,	0,	0
  2.01613E-01,	1.00000E+01,	-2.53444E-02,	1.97101E+02,	2.74284E+03,	-8.59627E+03,	0.00000E+00,	0,	0
  1.59574E-01,	1.00000E+01,	-2.53444E-02,	2.10566E+02,	3.13998E+03,	-1.04149E+04,	0.00000E+00,	0,	0
  1.26689E-01,	1.00000E+01,	-2.53444E-02,	2.44451E+02,	3.61789E+03,	-1.24399E+04,	0.00000E+00,	0,	0
  1.00446E-01,	1.00000E+01,	-2.53444E-02,	2.65331E+02,	4.03075E+03,	-1.56301E+04,	0.00000E+00,	0,	0