Z60W Data File: Version 1.1
CorrTest for Windows: SN CS310H1805157  V5.2.1111.9  2.5H6.220118
Sweep Frequency: Control Voltage
  Date:5-8-2026   Time:18:34:08
  Begin Information:            Cell Information
      Surface Area:           1
      Density:                7.8
      Weight:                 28
  End Information:              Cell Information
  Freq (Hz)     Ampl(mV)       Bias(V)      Time(Sec)       Z'(Ohm.cm^2)    Z''(Ohm.cm^2)        GD       Err      Range
End Comments
  3.07200E+05,	1.00000E+01,	1.41108E-02,	2.49716E-02,	-1.83438E+00,	3.20082E+00,	0.00000E+00,	0,	0
  2.76480E+05,	1.00000E+01,	1.41108E-02,	1.62967E+00,	-1.15887E+00,	2.27852E+00,	0.00000E+00,	0,	0
  1.97486E+05,	1.00000E+01,	1.41108E-02,	2.51837E+00,	-2.67955E-01,	1.59902E+00,	0.00000E+00,	0,	0
  1.53600E+05,	1.00000E+01,	1.41108E-02,	3.41317E+00,	1.01744E-01,	1.17899E+00,	0.00000E+00,	0,	0
  1.25673E+05,	1.00000E+01,	1.41108E-02,	4.31696E+00,	2.90184E-01,	8.93548E-01,	0.00000E+00,	0,	0
  9.87429E+04,	1.00000E+01,	1.41108E-02,	5.21379E+00,	4.73311E-01,	6.51005E-01,	0.00000E+00,	0,	0
  7.68000E+04,	1.00000E+01,	1.41108E-02,	6.10309E+00,	5.85774E-01,	4.74860E-01,	0.00000E+00,	0,	0
  6.01043E+04,	1.00000E+01,	1.41108E-02,	9.30627E+00,	6.61403E-01,	2.87921E-01,	0.00000E+00,	0,	0
  4.93714E+04,	1.00000E+01,	1.41108E-02,	1.08867E+01,	6.79742E-01,	1.77501E-01,	0.00000E+00,	0,	0
  3.84000E+04,	1.00000E+01,	1.41108E-02,	1.17873E+01,	6.98450E-01,	4.88967E-02,	0.00000E+00,	0,	0
  3.00522E+04,	1.00000E+01,	1.41108E-02,	1.26671E+01,	7.13484E-01,	-7.09695E-02,	0.00000E+00,	0,	0
  2.38345E+04,	1.00000E+01,	1.41108E-02,	1.35290E+01,	7.29555E-01,	-1.85294E-01,	0.00000E+00,	0,	0
  1.86811E+04,	1.00000E+01,	1.41108E-02,	1.43605E+01,	7.48778E-01,	-3.10375E-01,	0.00000E+00,	0,	0
  1.47064E+04,	1.00000E+01,	1.41108E-02,	1.53072E+01,	7.72371E-01,	-4.46393E-01,	0.00000E+00,	0,	0
  1.15200E+04,	1.00000E+01,	1.41108E-02,	1.62994E+01,	8.00736E-01,	-6.01514E-01,	0.00000E+00,	0,	0
  9.60000E+03,	1.00000E+01,	1.41108E-02,	1.78605E+01,	8.24678E-01,	-7.34187E-01,	0.00000E+00,	0,	0
  7.51304E+03,	1.00000E+01,	1.41108E-02,	1.87342E+01,	8.63293E-01,	-9.41336E-01,	0.00000E+00,	0,	0
  5.76000E+03,	1.00000E+01,	1.41108E-02,	1.96372E+01,	9.14402E-01,	-1.21623E+00,	0.00000E+00,	0,	0
  4.54737E+03,	1.00000E+01,	1.41108E-02,	2.04913E+01,	9.70225E-01,	-1.51424E+00,	0.00000E+00,	0,	0
  3.60000E+03,	1.00000E+01,	1.41108E-02,	2.14848E+01,	1.03920E+00,	-1.87872E+00,	0.00000E+00,	0,	0
  2.88000E+03,	1.00000E+01,	1.41108E-02,	2.23828E+01,	1.11969E+00,	-2.29837E+00,	0.00000E+00,	0,	0
  2.27368E+03,	1.00000E+01,	1.41108E-02,	2.46738E+01,	1.21709E+00,	-2.82150E+00,	0.00000E+00,	0,	0
  1.78144E+03,	1.00000E+01,	1.41108E-02,	2.54648E+01,	1.36063E+00,	-3.50795E+00,	0.00000E+00,	0,	0
  1.41639E+03,	1.00000E+01,	1.41108E-02,	2.63646E+01,	1.52392E+00,	-4.30791E+00,	0.00000E+00,	0,	0
  1.12208E+03,	1.00000E+01,	1.41108E-02,	2.73868E+01,	1.74526E+00,	-5.29631E+00,	0.00000E+00,	0,	0
  9.00000E+02,	1.00000E+01,	1.41108E-02,	3.23736E+01,	2.01943E+00,	-6.45055E+00,	0.00000E+00,	0,	0
  7.20000E+02,	1.00000E+01,	1.41108E-02,	3.37472E+01,	2.36620E+00,	-7.84225E+00,	0.00000E+00,	0,	0
  5.68421E+02,	1.00000E+01,	1.41108E-02,	3.51162E+01,	2.84258E+00,	-9.63110E+00,	0.00000E+00,	0,	0
  4.40816E+02,	1.00000E+01,	1.41108E-02,	3.81306E+01,	3.52549E+00,	-1.20141E+01,	0.00000E+00,	0,	0
  3.54098E+02,	1.00000E+01,	1.41108E-02,	4.04759E+01,	4.28101E+00,	-1.44744E+01,	0.00000E+00,	0,	0
  2.76923E+02,	1.00000E+01,	1.41108E-02,	4.31106E+01,	5.37740E+00,	-1.77713E+01,	0.00000E+00,	0,	0
  2.20408E+02,	1.00000E+01,	1.41108E-02,	4.60458E+01,	6.68268E+00,	-2.14415E+01,	0.00000E+00,	0,	0
  1.74194E+02,	1.00000E+01,	1.41108E-02,	4.93125E+01,	8.38328E+00,	-2.59190E+01,	0.00000E+00,	0,	0
  1.37580E+02,	1.00000E+01,	1.41108E-02,	5.29753E+01,	1.05168E+01,	-3.12269E+01,	0.00000E+00,	0,	0
  1.09091E+02,	1.00000E+01,	1.41108E-02,	5.70384E+01,	1.30944E+01,	-3.73789E+01,	0.00000E+00,	0,	0
  8.70968E+01,	1.00000E+01,	1.41108E-02,	6.27396E+01,	1.60809E+01,	-4.44188E+01,	0.00000E+00,	0,	0
  6.83544E+01,	1.00000E+01,	1.41108E-02,	6.77580E+01,	1.99632E+01,	-5.35467E+01,	0.00000E+00,	0,	0
  5.45455E+01,	1.00000E+01,	1.41108E-02,	7.32179E+01,	2.43245E+01,	-6.22819E+01,	0.00000E+00,	0,	0
  4.28571E+01,	1.00000E+01,	1.41108E-02,	7.67471E+01,	2.95881E+01,	-7.42207E+01,	0.00000E+00,	0,	0
  3.39623E+01,	1.00000E+01,	1.41108E-02,	8.04781E+01,	3.48669E+01,	-8.78457E+01,	0.00000E+00,	0,	0
  2.68657E+01,	1.00000E+01,	1.41108E-02,	8.43048E+01,	4.18277E+01,	-1.04620E+02,	0.00000E+00,	0,	0
  2.13439E+01,	1.00000E+01,	1.41108E-02,	8.81119E+01,	4.96026E+01,	-1.24103E+02,	0.00000E+00,	0,	0
  1.73077E+01,	1.00000E+01,	1.41108E-02,	9.47843E+01,	5.77566E+01,	-1.45356E+02,	0.00000E+00,	0,	0
  1.36364E+01,	1.00000E+01,	1.41108E-02,	9.98188E+01,	6.81110E+01,	-1.73841E+02,	0.00000E+00,	0,	0
  1.07143E+01,	1.00000E+01,	1.41108E-02,	1.02747E+02,	8.01224E+01,	-2.08687E+02,	0.00000E+00,	0,	0
  8.49057E+00,	1.00000E+01,	1.41108E-02,	1.06940E+02,	9.33418E+01,	-2.49492E+02,	0.00000E+00,	0,	0
  6.71642E+00,	1.00000E+01,	1.41108E-02,	1.09447E+02,	1.08292E+02,	-2.99192E+02,	0.00000E+00,	0,	0
  5.29412E+00,	1.00000E+01,	1.41108E-02,	1.12397E+02,	1.25499E+02,	-3.60443E+02,	0.00000E+00,	0,	0
  4.16667E+00,	1.00000E+01,	1.41108E-02,	1.15900E+02,	1.44579E+02,	-4.36349E+02,	0.00000E+00,	0,	0
  3.30882E+00,	1.00000E+01,	1.41108E-02,	1.20140E+02,	1.64932E+02,	-5.25992E+02,	0.00000E+00,	0,	0
  2.61628E+00,	1.00000E+01,	1.41108E-02,	1.24101E+02,	1.87810E+02,	-6.38063E+02,	0.00000E+00,	0,	0
  2.07373E+00,	1.00000E+01,	1.41108E-02,	1.28872E+02,	2.12369E+02,	-7.75578E+02,	0.00000E+00,	0,	0
  1.64234E+00,	1.00000E+01,	1.41108E-02,	1.34653E+02,	2.38963E+02,	-9.46960E+02,	0.00000E+00,	0,	0
  1.30058E+00,	1.00000E+01,	1.41108E-02,	1.38828E+02,	2.68999E+02,	-1.16074E+03,	0.00000E+00,	0,	0
  1.03211E+00,	1.00000E+01,	1.41108E-02,	1.43228E+02,	3.01527E+02,	-1.42558E+03,	0.00000E+00,	0,	0
  8.15217E-01,	1.00000E+01,	1.41108E-02,	1.50166E+02,	3.40085E+02,	-1.76270E+03,	0.00000E+00,	0,	0
  6.46552E-01,	1.00000E+01,	1.41108E-02,	1.59234E+02,	3.76494E+02,	-2.16380E+03,	0.00000E+00,	0,	0
  5.11364E-01,	1.00000E+01,	1.41108E-02,	1.64224E+02,	4.25674E+02,	-2.69922E+03,	0.00000E+00,	0,	0
  4.07609E-01,	1.00000E+01,	1.41108E-02,	1.70267E+02,	4.89138E+02,	-3.33213E+03,	0.00000E+00,	0,	0
  3.21429E-01,	1.00000E+01,	1.41108E-02,	1.77383E+02,	5.64315E+02,	-4.18278E+03,	0.00000E+00,	0,	0
  2.54525E-01,	1.00000E+01,	1.41108E-02,	1.86144E+02,	6.64565E+02,	-5.19647E+03,	0.00000E+00,	0,	0
  2.01613E-01,	1.00000E+01,	1.41108E-02,	1.96973E+02,	7.87285E+02,	-6.46188E+03,	0.00000E+00,	0,	0
  1.59574E-01,	1.00000E+01,	1.41108E-02,	2.10433E+02,	9.39294E+02,	-8.04446E+03,	0.00000E+00,	0,	0
  1.26689E-01,	1.00000E+01,	1.41108E-02,	2.27319E+02,	1.13569E+03,	-9.98623E+03,	0.00000E+00,	0,	0
  1.00446E-01,	1.00000E+01,	1.41108E-02,	2.48171E+02,	1.36582E+03,	-1.24145E+04,	0.00000E+00,	0,	0