Z60W Data File: Version 1.1
CorrTest for Windows: SN CS310H1805157  V5.2.1111.9  2.5H6.220118
Sweep Frequency: Control Voltage
  Date:5-8-2026   Time:16:29:43
  Begin Information:            Cell Information
      Surface Area:           1
      Density:                7.8
      Weight:                 28
  End Information:              Cell Information
  Freq (Hz)     Ampl(mV)       Bias(V)      Time(Sec)       Z'(Ohm.cm^2)    Z''(Ohm.cm^2)        GD       Err      Range
End Comments
  3.07200E+05,	1.00000E+01,	1.93763E-02,	2.35365E-02,	-1.90133E+00,	3.14940E+00,	0.00000E+00,	0,	0
  2.76480E+05,	1.00000E+01,	1.93763E-02,	1.65923E+00,	-1.28530E+00,	2.21422E+00,	0.00000E+00,	0,	0
  1.97486E+05,	1.00000E+01,	1.93763E-02,	2.55802E+00,	-3.51318E-01,	1.56899E+00,	0.00000E+00,	0,	0
  1.53600E+05,	1.00000E+01,	1.93763E-02,	3.45332E+00,	7.23375E-03,	1.16982E+00,	0.00000E+00,	0,	0
  1.25673E+05,	1.00000E+01,	1.93763E-02,	4.34697E+00,	2.01876E-01,	8.87062E-01,	0.00000E+00,	0,	0
  9.87429E+04,	1.00000E+01,	1.93763E-02,	5.26155E+00,	3.80579E-01,	6.62118E-01,	0.00000E+00,	0,	0
  7.68000E+04,	1.00000E+01,	1.93763E-02,	6.16468E+00,	4.91705E-01,	4.75874E-01,	0.00000E+00,	0,	0
  6.01043E+04,	1.00000E+01,	1.93763E-02,	9.38382E+00,	5.66308E-01,	3.04327E-01,	0.00000E+00,	0,	0
  4.93714E+04,	1.00000E+01,	1.93763E-02,	1.09613E+01,	5.83067E-01,	2.01676E-01,	0.00000E+00,	0,	0
  3.84000E+04,	1.00000E+01,	1.93763E-02,	1.18541E+01,	5.96308E-01,	8.01537E-02,	0.00000E+00,	0,	0
  3.00522E+04,	1.00000E+01,	1.93763E-02,	1.27096E+01,	6.09027E-01,	-3.22981E-02,	0.00000E+00,	0,	0
  2.38345E+04,	1.00000E+01,	1.93763E-02,	1.35735E+01,	6.22397E-01,	-1.39263E-01,	0.00000E+00,	0,	0
  1.86811E+04,	1.00000E+01,	1.93763E-02,	1.44178E+01,	6.37537E-01,	-2.54941E-01,	0.00000E+00,	0,	0
  1.47064E+04,	1.00000E+01,	1.93763E-02,	1.53892E+01,	6.55833E-01,	-3.78270E-01,	0.00000E+00,	0,	0
  1.15200E+04,	1.00000E+01,	1.93763E-02,	1.63511E+01,	6.79311E-01,	-5.20326E-01,	0.00000E+00,	0,	0
  9.60000E+03,	1.00000E+01,	1.93763E-02,	1.79215E+01,	6.99543E-01,	-6.40783E-01,	0.00000E+00,	0,	0
  7.51304E+03,	1.00000E+01,	1.93763E-02,	1.87954E+01,	7.32030E-01,	-8.28945E-01,	0.00000E+00,	0,	0
  5.76000E+03,	1.00000E+01,	1.93763E-02,	1.96963E+01,	7.77585E-01,	-1.07705E+00,	0.00000E+00,	0,	0
  4.54737E+03,	1.00000E+01,	1.93763E-02,	2.05505E+01,	8.27276E-01,	-1.34750E+00,	0.00000E+00,	0,	0
  3.60000E+03,	1.00000E+01,	1.93763E-02,	2.15444E+01,	8.91815E-01,	-1.67508E+00,	0.00000E+00,	0,	0
  2.88000E+03,	1.00000E+01,	1.93763E-02,	2.24468E+01,	9.67404E-01,	-2.05260E+00,	0.00000E+00,	0,	0
  2.27368E+03,	1.00000E+01,	1.93763E-02,	2.47353E+01,	1.06050E+00,	-2.52082E+00,	0.00000E+00,	0,	0
  1.78144E+03,	1.00000E+01,	1.93763E-02,	2.55198E+01,	1.20123E+00,	-3.13870E+00,	0.00000E+00,	0,	0
  1.41639E+03,	1.00000E+01,	1.93763E-02,	2.64137E+01,	1.36550E+00,	-3.84125E+00,	0.00000E+00,	0,	0
  1.12208E+03,	1.00000E+01,	1.93763E-02,	2.74589E+01,	1.58268E+00,	-4.71602E+00,	0.00000E+00,	0,	0
  9.00000E+02,	1.00000E+01,	1.93763E-02,	3.24787E+01,	1.85381E+00,	-5.72981E+00,	0.00000E+00,	0,	0
  7.20000E+02,	1.00000E+01,	1.93763E-02,	3.38466E+01,	2.20037E+00,	-6.94257E+00,	0.00000E+00,	0,	0
  5.68421E+02,	1.00000E+01,	1.93763E-02,	3.52271E+01,	2.67449E+00,	-8.49033E+00,	0.00000E+00,	0,	0
  4.40816E+02,	1.00000E+01,	1.93763E-02,	3.66857E+01,	3.34290E+00,	-1.05029E+01,	0.00000E+00,	0,	0
  3.54098E+02,	1.00000E+01,	1.93763E-02,	3.90994E+01,	4.07497E+00,	-1.25752E+01,	0.00000E+00,	0,	0
  2.76923E+02,	1.00000E+01,	1.93763E-02,	4.17480E+01,	5.12584E+00,	-1.53273E+01,	0.00000E+00,	0,	0
  2.20408E+02,	1.00000E+01,	1.93763E-02,	4.46907E+01,	6.34314E+00,	-1.83626E+01,	0.00000E+00,	0,	0
  1.74194E+02,	1.00000E+01,	1.93763E-02,	4.79285E+01,	7.88841E+00,	-2.20276E+01,	0.00000E+00,	0,	0
  1.37580E+02,	1.00000E+01,	1.93763E-02,	5.15628E+01,	9.76557E+00,	-2.63385E+01,	0.00000E+00,	0,	0
  1.09091E+02,	1.00000E+01,	1.93763E-02,	5.56143E+01,	1.19584E+01,	-3.13245E+01,	0.00000E+00,	0,	0
  8.70968E+01,	1.00000E+01,	1.93763E-02,	6.37475E+01,	1.44852E+01,	-3.71478E+01,	0.00000E+00,	0,	0
  6.83544E+01,	1.00000E+01,	1.93763E-02,	6.87672E+01,	1.76275E+01,	-4.46313E+01,	0.00000E+00,	0,	0
  5.45455E+01,	1.00000E+01,	1.93763E-02,	7.41917E+01,	2.10954E+01,	-5.18402E+01,	0.00000E+00,	0,	0
  4.28571E+01,	1.00000E+01,	1.93763E-02,	7.77032E+01,	2.52599E+01,	-6.18168E+01,	0.00000E+00,	0,	0
  3.39623E+01,	1.00000E+01,	1.93763E-02,	8.14195E+01,	2.94252E+01,	-7.33014E+01,	0.00000E+00,	0,	0
  2.68657E+01,	1.00000E+01,	1.93763E-02,	8.52444E+01,	3.49757E+01,	-8.74751E+01,	0.00000E+00,	0,	0
  2.13439E+01,	1.00000E+01,	1.93763E-02,	8.90338E+01,	4.11717E+01,	-1.03980E+02,	0.00000E+00,	0,	0
  1.73077E+01,	1.00000E+01,	1.93763E-02,	9.56828E+01,	4.76265E+01,	-1.22013E+02,	0.00000E+00,	0,	0
  1.36364E+01,	1.00000E+01,	1.93763E-02,	1.00692E+02,	5.57220E+01,	-1.46236E+02,	0.00000E+00,	0,	0
  1.07143E+01,	1.00000E+01,	1.93763E-02,	1.03589E+02,	6.48919E+01,	-1.75915E+02,	0.00000E+00,	0,	0
  8.49057E+00,	1.00000E+01,	1.93763E-02,	1.07764E+02,	7.47832E+01,	-2.11110E+02,	0.00000E+00,	0,	0
  6.71642E+00,	1.00000E+01,	1.93763E-02,	1.10253E+02,	8.57022E+01,	-2.54128E+02,	0.00000E+00,	0,	0
  5.29412E+00,	1.00000E+01,	1.93763E-02,	1.13167E+02,	9.79934E+01,	-3.07827E+02,	0.00000E+00,	0,	0
  4.16667E+00,	1.00000E+01,	1.93763E-02,	1.16618E+02,	1.11339E+02,	-3.74942E+02,	0.00000E+00,	0,	0
  3.30882E+00,	1.00000E+01,	1.93763E-02,	1.20817E+02,	1.25179E+02,	-4.55031E+02,	0.00000E+00,	0,	0
  2.61628E+00,	1.00000E+01,	1.93763E-02,	1.24759E+02,	1.40529E+02,	-5.56331E+02,	0.00000E+00,	0,	0
  2.07373E+00,	1.00000E+01,	1.93763E-02,	1.29516E+02,	1.57036E+02,	-6.81822E+02,	0.00000E+00,	0,	0
  1.64234E+00,	1.00000E+01,	1.93763E-02,	1.35289E+02,	1.75336E+02,	-8.39273E+02,	0.00000E+00,	0,	0
  1.30058E+00,	1.00000E+01,	1.93763E-02,	1.39427E+02,	1.96792E+02,	-1.03685E+03,	0.00000E+00,	0,	0
  1.03211E+00,	1.00000E+01,	1.93763E-02,	1.43805E+02,	2.21231E+02,	-1.28204E+03,	0.00000E+00,	0,	0
  8.15217E-01,	1.00000E+01,	1.93763E-02,	1.50735E+02,	2.52044E+02,	-1.59447E+03,	0.00000E+00,	0,	0
  6.46552E-01,	1.00000E+01,	1.93763E-02,	1.59794E+02,	2.82630E+02,	-1.96844E+03,	0.00000E+00,	0,	0
  5.11364E-01,	1.00000E+01,	1.93763E-02,	1.64768E+02,	3.27095E+02,	-2.46491E+03,	0.00000E+00,	0,	0
  4.07609E-01,	1.00000E+01,	1.93763E-02,	1.70806E+02,	3.83863E+02,	-3.05167E+03,	0.00000E+00,	0,	0
  3.21429E-01,	1.00000E+01,	1.93763E-02,	1.77930E+02,	4.54842E+02,	-3.83342E+03,	0.00000E+00,	0,	0
  2.54525E-01,	1.00000E+01,	1.93763E-02,	1.86682E+02,	5.52393E+02,	-4.77342E+03,	0.00000E+00,	0,	0
  2.01613E-01,	1.00000E+01,	1.93763E-02,	1.97493E+02,	6.74249E+02,	-5.94289E+03,	0.00000E+00,	0,	0
  1.59574E-01,	1.00000E+01,	1.93763E-02,	2.10921E+02,	8.31713E+02,	-7.40063E+03,	0.00000E+00,	0,	0
  1.26689E-01,	1.00000E+01,	1.93763E-02,	2.27787E+02,	1.03324E+03,	-9.19461E+03,	0.00000E+00,	0,	0
  1.00446E-01,	1.00000E+01,	1.93763E-02,	2.48629E+02,	1.28245E+03,	-1.14338E+04,	0.00000E+00,	0,	0