Z60W Data File: Version 1.1
CorrTest for Windows: SN CS310H1805157  V5.2.1111.9  2.5H6.220118
Sweep Frequency: Control Voltage
  Date:5-8-2026   Time:19:52:10
  Begin Information:            Cell Information
      Surface Area:           1
      Density:                7.8
      Weight:                 28
  End Information:              Cell Information
  Freq (Hz)     Ampl(mV)       Bias(V)      Time(Sec)       Z'(Ohm.cm^2)    Z''(Ohm.cm^2)        GD       Err      Range
End Comments
  3.07200E+05,	1.00000E+01,	-2.50375E-02,	2.59929E-02,	2.39712E-01,	4.14625E+00,	0.00000E+00,	0,	0
  2.76480E+05,	1.00000E+01,	-2.50375E-02,	1.64173E+00,	8.39204E-01,	3.09043E+00,	0.00000E+00,	0,	0
  1.97486E+05,	1.00000E+01,	-2.50375E-02,	2.54286E+00,	1.66716E+00,	2.14333E+00,	0.00000E+00,	0,	0
  1.53600E+05,	1.00000E+01,	-2.50375E-02,	3.44112E+00,	1.99937E+00,	1.57213E+00,	0.00000E+00,	0,	0
  1.25673E+05,	1.00000E+01,	-2.50375E-02,	4.33619E+00,	2.22121E+00,	1.16352E+00,	0.00000E+00,	0,	0
  9.87429E+04,	1.00000E+01,	-2.50375E-02,	5.22499E+00,	2.41626E+00,	8.08861E-01,	0.00000E+00,	0,	0
  7.68000E+04,	1.00000E+01,	-2.50375E-02,	6.11909E+00,	2.53831E+00,	5.18287E-01,	0.00000E+00,	0,	0
  6.01043E+04,	1.00000E+01,	-2.50375E-02,	9.32673E+00,	2.65459E+00,	2.19532E-01,	0.00000E+00,	0,	0
  4.93714E+04,	1.00000E+01,	-2.50375E-02,	1.08982E+01,	2.69903E+00,	4.06303E-02,	0.00000E+00,	0,	0
  3.84000E+04,	1.00000E+01,	-2.50375E-02,	1.18286E+01,	2.75951E+00,	-1.73611E-01,	0.00000E+00,	0,	0
  3.00522E+04,	1.00000E+01,	-2.50375E-02,	1.26736E+01,	2.82313E+00,	-3.72829E-01,	0.00000E+00,	0,	0
  2.38345E+04,	1.00000E+01,	-2.50375E-02,	1.35395E+01,	2.88927E+00,	-5.59781E-01,	0.00000E+00,	0,	0
  1.86811E+04,	1.00000E+01,	-2.50375E-02,	1.43944E+01,	2.97429E+00,	-7.65991E-01,	0.00000E+00,	0,	0
  1.47064E+04,	1.00000E+01,	-2.50375E-02,	1.53609E+01,	3.06800E+00,	-9.81324E-01,	0.00000E+00,	0,	0
  1.15200E+04,	1.00000E+01,	-2.50375E-02,	1.63310E+01,	3.18253E+00,	-1.22040E+00,	0.00000E+00,	0,	0
  9.60000E+03,	1.00000E+01,	-2.50375E-02,	1.78917E+01,	3.27742E+00,	-1.41588E+00,	0.00000E+00,	0,	0
  7.51304E+03,	1.00000E+01,	-2.50375E-02,	1.87587E+01,	3.42070E+00,	-1.71806E+00,	0.00000E+00,	0,	0
  5.76000E+03,	1.00000E+01,	-2.50375E-02,	1.96669E+01,	3.59270E+00,	-2.09491E+00,	0.00000E+00,	0,	0
  4.54737E+03,	1.00000E+01,	-2.50375E-02,	2.05317E+01,	3.76647E+00,	-2.49069E+00,	0.00000E+00,	0,	0
  3.60000E+03,	1.00000E+01,	-2.50375E-02,	2.15368E+01,	3.96481E+00,	-2.95869E+00,	0.00000E+00,	0,	0
  2.88000E+03,	1.00000E+01,	-2.50375E-02,	2.24355E+01,	4.16701E+00,	-3.49390E+00,	0.00000E+00,	0,	0
  2.27368E+03,	1.00000E+01,	-2.50375E-02,	2.47374E+01,	4.36843E+00,	-4.13726E+00,	0.00000E+00,	0,	0
  1.78144E+03,	1.00000E+01,	-2.50375E-02,	2.55176E+01,	4.63523E+00,	-4.97723E+00,	0.00000E+00,	0,	0
  1.41639E+03,	1.00000E+01,	-2.50375E-02,	2.64150E+01,	4.91385E+00,	-5.94542E+00,	0.00000E+00,	0,	0
  1.12208E+03,	1.00000E+01,	-2.50375E-02,	2.74397E+01,	5.22863E+00,	-7.15510E+00,	0.00000E+00,	0,	0
  9.00000E+02,	1.00000E+01,	-2.50375E-02,	3.24279E+01,	5.59198E+00,	-8.58179E+00,	0.00000E+00,	0,	0
  7.20000E+02,	1.00000E+01,	-2.50375E-02,	3.37821E+01,	5.97503E+00,	-1.03190E+01,	0.00000E+00,	0,	0
  5.68421E+02,	1.00000E+01,	-2.50375E-02,	3.51503E+01,	6.44496E+00,	-1.25939E+01,	0.00000E+00,	0,	0
  4.40816E+02,	1.00000E+01,	-2.50375E-02,	3.81814E+01,	7.06654E+00,	-1.57003E+01,	0.00000E+00,	0,	0
  3.54098E+02,	1.00000E+01,	-2.50375E-02,	4.05313E+01,	7.68714E+00,	-1.89867E+01,	0.00000E+00,	0,	0
  2.76923E+02,	1.00000E+01,	-2.50375E-02,	4.31748E+01,	8.55033E+00,	-2.35545E+01,	0.00000E+00,	0,	0
  2.20408E+02,	1.00000E+01,	-2.50375E-02,	4.61004E+01,	9.54716E+00,	-2.88359E+01,	0.00000E+00,	0,	0
  1.74194E+02,	1.00000E+01,	-2.50375E-02,	4.93635E+01,	1.08424E+01,	-3.55390E+01,	0.00000E+00,	0,	0
  1.37580E+02,	1.00000E+01,	-2.50375E-02,	5.30146E+01,	1.25101E+01,	-4.38493E+01,	0.00000E+00,	0,	0
  1.09091E+02,	1.00000E+01,	-2.50375E-02,	5.70822E+01,	1.46160E+01,	-5.39331E+01,	0.00000E+00,	0,	0
  8.70968E+01,	1.00000E+01,	-2.50375E-02,	6.27782E+01,	1.72154E+01,	-6.59949E+01,	0.00000E+00,	0,	0
  6.83544E+01,	1.00000E+01,	-2.50375E-02,	6.77892E+01,	2.08875E+01,	-8.22604E+01,	0.00000E+00,	0,	0
  5.45455E+01,	1.00000E+01,	-2.50375E-02,	7.32445E+01,	2.57720E+01,	-9.88804E+01,	0.00000E+00,	0,	0
  4.28571E+01,	1.00000E+01,	-2.50375E-02,	7.67701E+01,	3.21971E+01,	-1.21834E+02,	0.00000E+00,	0,	0
  3.39623E+01,	1.00000E+01,	-2.50375E-02,	8.04826E+01,	3.93913E+01,	-1.48479E+02,	0.00000E+00,	0,	0
  2.68657E+01,	1.00000E+01,	-2.50375E-02,	8.43108E+01,	5.02618E+01,	-1.81568E+02,	0.00000E+00,	0,	0
  2.13439E+01,	1.00000E+01,	-2.50375E-02,	8.81246E+01,	6.39366E+01,	-2.20050E+02,	0.00000E+00,	0,	0
  1.73077E+01,	1.00000E+01,	-2.50375E-02,	9.47885E+01,	7.97051E+01,	-2.61668E+02,	0.00000E+00,	0,	0
  1.36364E+01,	1.00000E+01,	-2.50375E-02,	9.98344E+01,	1.01875E+02,	-3.16572E+02,	0.00000E+00,	0,	0
  1.07143E+01,	1.00000E+01,	-2.50375E-02,	1.02748E+02,	1.29903E+02,	-3.81897E+02,	0.00000E+00,	0,	0
  8.49057E+00,	1.00000E+01,	-2.50375E-02,	1.06965E+02,	1.63086E+02,	-4.56047E+02,	0.00000E+00,	0,	0
  6.71642E+00,	1.00000E+01,	-2.50375E-02,	1.09477E+02,	2.03065E+02,	-5.42481E+02,	0.00000E+00,	0,	0
  5.29412E+00,	1.00000E+01,	-2.50375E-02,	1.12403E+02,	2.51146E+02,	-6.45137E+02,	0.00000E+00,	0,	0
  4.16667E+00,	1.00000E+01,	-2.50375E-02,	1.15886E+02,	3.07349E+02,	-7.67296E+02,	0.00000E+00,	0,	0
  3.30882E+00,	1.00000E+01,	-2.50375E-02,	1.20120E+02,	3.69413E+02,	-9.05873E+02,	0.00000E+00,	0,	0
  2.61628E+00,	1.00000E+01,	-2.50375E-02,	1.24098E+02,	4.41713E+02,	-1.07340E+03,	0.00000E+00,	0,	0
  2.07373E+00,	1.00000E+01,	-2.50375E-02,	1.28860E+02,	5.23587E+02,	-1.27188E+03,	0.00000E+00,	0,	0
  1.64234E+00,	1.00000E+01,	-2.50375E-02,	1.34660E+02,	6.17201E+02,	-1.51109E+03,	0.00000E+00,	0,	0
  1.30058E+00,	1.00000E+01,	-2.50375E-02,	1.38836E+02,	7.25033E+02,	-1.79701E+03,	0.00000E+00,	0,	0
  1.03211E+00,	1.00000E+01,	-2.50375E-02,	1.43236E+02,	8.49228E+02,	-2.14098E+03,	0.00000E+00,	0,	0
  8.15217E-01,	1.00000E+01,	-2.50375E-02,	1.50162E+02,	9.88299E+02,	-2.55834E+03,	0.00000E+00,	0,	0
  6.46552E-01,	1.00000E+01,	-2.50375E-02,	1.59260E+02,	1.14503E+03,	-3.06213E+03,	0.00000E+00,	0,	0
  5.11364E-01,	1.00000E+01,	-2.50375E-02,	1.64254E+02,	1.28154E+03,	-3.69266E+03,	0.00000E+00,	0,	0
  4.07609E-01,	1.00000E+01,	-2.50375E-02,	1.70307E+02,	1.47533E+03,	-4.42218E+03,	0.00000E+00,	0,	0
  3.21429E-01,	1.00000E+01,	-2.50375E-02,	1.77442E+02,	1.70436E+03,	-5.43953E+03,	0.00000E+00,	0,	0
  2.54525E-01,	1.00000E+01,	-2.50375E-02,	1.86213E+02,	1.95638E+03,	-6.57105E+03,	0.00000E+00,	0,	0
  2.01613E-01,	1.00000E+01,	-2.50375E-02,	1.97055E+02,	2.22683E+03,	-7.98182E+03,	0.00000E+00,	0,	0
  1.59574E-01,	1.00000E+01,	-2.50375E-02,	2.10533E+02,	2.52726E+03,	-9.73369E+03,	0.00000E+00,	0,	0
  1.26689E-01,	1.00000E+01,	-2.50375E-02,	2.44416E+02,	2.89621E+03,	-1.17129E+04,	0.00000E+00,	0,	0
  1.00446E-01,	1.00000E+01,	-2.50375E-02,	2.65276E+02,	3.20137E+03,	-1.47485E+04,	0.00000E+00,	0,	0