Z60W Data File: Version 1.1
CorrTest for Windows: SN CS310H1805157  V5.2.1111.9  2.5H6.220118
Sweep Frequency: Control Voltage
  Date:5-8-2026   Time:16:43:15
  Begin Information:            Cell Information
      Surface Area:           1
      Density:                7.8
      Weight:                 28
  End Information:              Cell Information
  Freq (Hz)     Ampl(mV)       Bias(V)      Time(Sec)       Z'(Ohm.cm^2)    Z''(Ohm.cm^2)        GD       Err      Range
End Comments
  3.07200E+05,	1.00000E+01,	1.84234E-02,	4.98931E-02,	-1.95108E+00,	3.08339E+00,	0.00000E+00,	0,	0
  2.76480E+05,	1.00000E+01,	1.84234E-02,	1.66140E+00,	-1.29047E+00,	2.23256E+00,	0.00000E+00,	0,	0
  1.97486E+05,	1.00000E+01,	1.84234E-02,	2.56260E+00,	-3.52740E-01,	1.55618E+00,	0.00000E+00,	0,	0
  1.53600E+05,	1.00000E+01,	1.84234E-02,	3.45830E+00,	4.93633E-03,	1.17847E+00,	0.00000E+00,	0,	0
  1.25673E+05,	1.00000E+01,	1.84234E-02,	4.36818E+00,	2.18206E-01,	8.95835E-01,	0.00000E+00,	0,	0
  9.87429E+04,	1.00000E+01,	1.84234E-02,	5.26807E+00,	3.88348E-01,	6.66877E-01,	0.00000E+00,	0,	0
  7.68000E+04,	1.00000E+01,	1.84234E-02,	6.24821E+00,	4.90832E-01,	4.79949E-01,	0.00000E+00,	0,	0
  6.01043E+04,	1.00000E+01,	1.84234E-02,	9.51157E+00,	5.76651E-01,	3.04989E-01,	0.00000E+00,	0,	0
  4.93714E+04,	1.00000E+01,	1.84234E-02,	1.11491E+01,	5.91930E-01,	1.98819E-01,	0.00000E+00,	0,	0
  3.84000E+04,	1.00000E+01,	1.84234E-02,	1.20585E+01,	6.05115E-01,	7.68279E-02,	0.00000E+00,	0,	0
  3.00522E+04,	1.00000E+01,	1.84234E-02,	1.29157E+01,	6.19386E-01,	-3.57567E-02,	0.00000E+00,	0,	0
  2.38345E+04,	1.00000E+01,	1.84234E-02,	1.38162E+01,	6.30684E-01,	-1.43137E-01,	0.00000E+00,	0,	0
  1.86811E+04,	1.00000E+01,	1.84234E-02,	1.46534E+01,	6.47223E-01,	-2.59405E-01,	0.00000E+00,	0,	0
  1.47064E+04,	1.00000E+01,	1.84234E-02,	1.56181E+01,	6.66497E-01,	-3.85021E-01,	0.00000E+00,	0,	0
  1.15200E+04,	1.00000E+01,	1.84234E-02,	1.65871E+01,	6.89400E-01,	-5.27644E-01,	0.00000E+00,	0,	0
  9.60000E+03,	1.00000E+01,	1.84234E-02,	1.81501E+01,	7.10325E-01,	-6.49856E-01,	0.00000E+00,	0,	0
  7.51304E+03,	1.00000E+01,	1.84234E-02,	1.90180E+01,	7.43783E-01,	-8.39464E-01,	0.00000E+00,	0,	0
  5.76000E+03,	1.00000E+01,	1.84234E-02,	1.99385E+01,	7.88338E-01,	-1.09095E+00,	0.00000E+00,	0,	0
  4.54737E+03,	1.00000E+01,	1.84234E-02,	2.08068E+01,	8.39363E-01,	-1.36455E+00,	0.00000E+00,	0,	0
  3.60000E+03,	1.00000E+01,	1.84234E-02,	2.17995E+01,	9.03818E-01,	-1.69473E+00,	0.00000E+00,	0,	0
  2.88000E+03,	1.00000E+01,	1.84234E-02,	2.27045E+01,	9.80323E-01,	-2.07582E+00,	0.00000E+00,	0,	0
  2.27368E+03,	1.00000E+01,	1.84234E-02,	2.49937E+01,	1.07470E+00,	-2.55192E+00,	0.00000E+00,	0,	0
  1.78144E+03,	1.00000E+01,	1.84234E-02,	2.57910E+01,	1.21053E+00,	-3.17307E+00,	0.00000E+00,	0,	0
  1.41639E+03,	1.00000E+01,	1.84234E-02,	2.66624E+01,	1.37556E+00,	-3.89061E+00,	0.00000E+00,	0,	0
  1.12208E+03,	1.00000E+01,	1.84234E-02,	2.76692E+01,	1.59610E+00,	-4.77040E+00,	0.00000E+00,	0,	0
  9.00000E+02,	1.00000E+01,	1.84234E-02,	3.26546E+01,	1.86881E+00,	-5.80123E+00,	0.00000E+00,	0,	0
  7.20000E+02,	1.00000E+01,	1.84234E-02,	3.40171E+01,	2.21517E+00,	-7.03088E+00,	0.00000E+00,	0,	0
  5.68421E+02,	1.00000E+01,	1.84234E-02,	3.54194E+01,	2.69380E+00,	-8.60260E+00,	0.00000E+00,	0,	0
  4.40816E+02,	1.00000E+01,	1.84234E-02,	3.69004E+01,	3.36205E+00,	-1.06495E+01,	0.00000E+00,	0,	0
  3.54098E+02,	1.00000E+01,	1.84234E-02,	3.92463E+01,	4.09822E+00,	-1.27568E+01,	0.00000E+00,	0,	0
  2.76923E+02,	1.00000E+01,	1.84234E-02,	4.18699E+01,	5.15622E+00,	-1.55691E+01,	0.00000E+00,	0,	0
  2.20408E+02,	1.00000E+01,	1.84234E-02,	4.48009E+01,	6.38635E+00,	-1.86609E+01,	0.00000E+00,	0,	0
  1.74194E+02,	1.00000E+01,	1.84234E-02,	4.80388E+01,	7.94924E+00,	-2.23964E+01,	0.00000E+00,	0,	0
  1.37580E+02,	1.00000E+01,	1.84234E-02,	5.16923E+01,	9.85849E+00,	-2.68007E+01,	0.00000E+00,	0,	0
  1.09091E+02,	1.00000E+01,	1.84234E-02,	5.57690E+01,	1.20923E+01,	-3.18906E+01,	0.00000E+00,	0,	0
  8.70968E+01,	1.00000E+01,	1.84234E-02,	6.39314E+01,	1.46709E+01,	-3.78228E+01,	0.00000E+00,	0,	0
  6.83544E+01,	1.00000E+01,	1.84234E-02,	6.89498E+01,	1.78897E+01,	-4.54501E+01,	0.00000E+00,	0,	0
  5.45455E+01,	1.00000E+01,	1.84234E-02,	7.44104E+01,	2.14385E+01,	-5.27888E+01,	0.00000E+00,	0,	0
  4.28571E+01,	1.00000E+01,	1.84234E-02,	7.79354E+01,	2.56982E+01,	-6.29402E+01,	0.00000E+00,	0,	0
  3.39623E+01,	1.00000E+01,	1.84234E-02,	8.16713E+01,	2.99544E+01,	-7.46020E+01,	0.00000E+00,	0,	0
  2.68657E+01,	1.00000E+01,	1.84234E-02,	8.55089E+01,	3.56320E+01,	-8.90216E+01,	0.00000E+00,	0,	0
  2.13439E+01,	1.00000E+01,	1.84234E-02,	8.93208E+01,	4.19710E+01,	-1.05790E+02,	0.00000E+00,	0,	0
  1.73077E+01,	1.00000E+01,	1.84234E-02,	9.59870E+01,	4.85794E+01,	-1.24122E+02,	0.00000E+00,	0,	0
  1.36364E+01,	1.00000E+01,	1.84234E-02,	1.01021E+02,	5.68824E+01,	-1.48729E+02,	0.00000E+00,	0,	0
  1.07143E+01,	1.00000E+01,	1.84234E-02,	1.03938E+02,	6.63472E+01,	-1.78944E+02,	0.00000E+00,	0,	0
  8.49057E+00,	1.00000E+01,	1.84234E-02,	1.08140E+02,	7.64943E+01,	-2.14468E+02,	0.00000E+00,	0,	0
  6.71642E+00,	1.00000E+01,	1.84234E-02,	1.10637E+02,	8.78017E+01,	-2.58102E+02,	0.00000E+00,	0,	0
  5.29412E+00,	1.00000E+01,	1.84234E-02,	1.13566E+02,	1.00498E+02,	-3.12495E+02,	0.00000E+00,	0,	0
  4.16667E+00,	1.00000E+01,	1.84234E-02,	1.17057E+02,	1.14389E+02,	-3.80407E+02,	0.00000E+00,	0,	0
  3.30882E+00,	1.00000E+01,	1.84234E-02,	1.21285E+02,	1.28779E+02,	-4.61334E+02,	0.00000E+00,	0,	0
  2.61628E+00,	1.00000E+01,	1.84234E-02,	1.25261E+02,	1.44785E+02,	-5.63503E+02,	0.00000E+00,	0,	0
  2.07373E+00,	1.00000E+01,	1.84234E-02,	1.30039E+02,	1.61825E+02,	-6.90091E+02,	0.00000E+00,	0,	0
  1.64234E+00,	1.00000E+01,	1.84234E-02,	1.35827E+02,	1.80663E+02,	-8.48883E+02,	0.00000E+00,	0,	0
  1.30058E+00,	1.00000E+01,	1.84234E-02,	1.39985E+02,	2.02661E+02,	-1.04789E+03,	0.00000E+00,	0,	0
  1.03211E+00,	1.00000E+01,	1.84234E-02,	1.44385E+02,	2.27785E+02,	-1.29509E+03,	0.00000E+00,	0,	0
  8.15217E-01,	1.00000E+01,	1.84234E-02,	1.51346E+02,	2.58338E+02,	-1.60995E+03,	0.00000E+00,	0,	0
  6.46552E-01,	1.00000E+01,	1.84234E-02,	1.60431E+02,	2.90172E+02,	-1.98661E+03,	0.00000E+00,	0,	0
  5.11364E-01,	1.00000E+01,	1.84234E-02,	1.65447E+02,	3.33594E+02,	-2.48768E+03,	0.00000E+00,	0,	0
  4.07609E-01,	1.00000E+01,	1.84234E-02,	1.71520E+02,	3.90844E+02,	-3.07911E+03,	0.00000E+00,	0,	0
  3.21429E-01,	1.00000E+01,	1.84234E-02,	1.78654E+02,	4.62273E+02,	-3.86751E+03,	0.00000E+00,	0,	0
  2.54525E-01,	1.00000E+01,	1.84234E-02,	1.87435E+02,	5.58849E+02,	-4.81551E+03,	0.00000E+00,	0,	0
  2.01613E-01,	1.00000E+01,	1.84234E-02,	1.98279E+02,	6.80967E+02,	-5.99522E+03,	0.00000E+00,	0,	0
  1.59574E-01,	1.00000E+01,	1.84234E-02,	2.11746E+02,	8.37107E+02,	-7.46822E+03,	0.00000E+00,	0,	0
  1.26689E-01,	1.00000E+01,	1.84234E-02,	2.28640E+02,	1.03513E+03,	-9.27181E+03,	0.00000E+00,	0,	0
  1.00446E-01,	1.00000E+01,	1.84234E-02,	2.49510E+02,	1.27914E+03,	-1.15281E+04,	0.00000E+00,	0,	0