Z60W Data File: Version 1.1
CorrTest for Windows: SN CS310H1805157  V5.2.1111.9  2.5H6.220118
Sweep Frequency: Control Voltage
  Date:5-8-2026   Time:18:47:37
  Begin Information:            Cell Information
      Surface Area:           1
      Density:                7.8
      Weight:                 28
  End Information:              Cell Information
  Freq (Hz)     Ampl(mV)       Bias(V)      Time(Sec)       Z'(Ohm.cm^2)    Z''(Ohm.cm^2)        GD       Err      Range
End Comments
  3.07200E+05,	1.00000E+01,	9.19461E-03,	3.74397E-02,	-1.80329E+00,	3.17242E+00,	0.00000E+00,	0,	0
  2.76480E+05,	1.00000E+01,	9.19461E-03,	1.64062E+00,	-1.13463E+00,	2.28416E+00,	0.00000E+00,	0,	0
  1.97486E+05,	1.00000E+01,	9.19461E-03,	2.53845E+00,	-2.53204E-01,	1.59293E+00,	0.00000E+00,	0,	0
  1.53600E+05,	1.00000E+01,	9.19461E-03,	3.44571E+00,	8.93124E-02,	1.17463E+00,	0.00000E+00,	0,	0
  1.25673E+05,	1.00000E+01,	9.19461E-03,	4.35086E+00,	3.17835E-01,	9.00506E-01,	0.00000E+00,	0,	0
  9.87429E+04,	1.00000E+01,	9.19461E-03,	5.24943E+00,	4.82660E-01,	6.68017E-01,	0.00000E+00,	0,	0
  7.68000E+04,	1.00000E+01,	9.19461E-03,	6.14770E+00,	5.94861E-01,	4.79917E-01,	0.00000E+00,	0,	0
  6.01043E+04,	1.00000E+01,	9.19461E-03,	9.35432E+00,	6.78576E-01,	2.89109E-01,	0.00000E+00,	0,	0
  4.93714E+04,	1.00000E+01,	9.19461E-03,	1.09233E+01,	6.95423E-01,	1.78492E-01,	0.00000E+00,	0,	0
  3.84000E+04,	1.00000E+01,	9.19461E-03,	1.18366E+01,	7.13672E-01,	4.79178E-02,	0.00000E+00,	0,	0
  3.00522E+04,	1.00000E+01,	9.19461E-03,	1.27055E+01,	7.29297E-01,	-7.37233E-02,	0.00000E+00,	0,	0
  2.38345E+04,	1.00000E+01,	9.19461E-03,	1.35781E+01,	7.45765E-01,	-1.88030E-01,	0.00000E+00,	0,	0
  1.86811E+04,	1.00000E+01,	9.19461E-03,	1.44264E+01,	7.65541E-01,	-3.14709E-01,	0.00000E+00,	0,	0
  1.47064E+04,	1.00000E+01,	9.19461E-03,	1.53840E+01,	7.88526E-01,	-4.50087E-01,	0.00000E+00,	0,	0
  1.15200E+04,	1.00000E+01,	9.19461E-03,	1.63414E+01,	8.16828E-01,	-6.06257E-01,	0.00000E+00,	0,	0
  9.60000E+03,	1.00000E+01,	9.19461E-03,	1.79301E+01,	8.41333E-01,	-7.39339E-01,	0.00000E+00,	0,	0
  7.51304E+03,	1.00000E+01,	9.19461E-03,	1.88337E+01,	8.81713E-01,	-9.48420E-01,	0.00000E+00,	0,	0
  5.76000E+03,	1.00000E+01,	9.19461E-03,	1.97256E+01,	9.30966E-01,	-1.22347E+00,	0.00000E+00,	0,	0
  4.54737E+03,	1.00000E+01,	9.19461E-03,	2.05791E+01,	9.88733E-01,	-1.52425E+00,	0.00000E+00,	0,	0
  3.60000E+03,	1.00000E+01,	9.19461E-03,	2.15655E+01,	1.05717E+00,	-1.88837E+00,	0.00000E+00,	0,	0
  2.88000E+03,	1.00000E+01,	9.19461E-03,	2.24698E+01,	1.13845E+00,	-2.31155E+00,	0.00000E+00,	0,	0
  2.27368E+03,	1.00000E+01,	9.19461E-03,	2.47312E+01,	1.23361E+00,	-2.84122E+00,	0.00000E+00,	0,	0
  1.78144E+03,	1.00000E+01,	9.19461E-03,	2.55184E+01,	1.37442E+00,	-3.53273E+00,	0.00000E+00,	0,	0
  1.41639E+03,	1.00000E+01,	9.19461E-03,	2.64278E+01,	1.54378E+00,	-4.32949E+00,	0.00000E+00,	0,	0
  1.12208E+03,	1.00000E+01,	9.19461E-03,	2.74595E+01,	1.76247E+00,	-5.32669E+00,	0.00000E+00,	0,	0
  9.00000E+02,	1.00000E+01,	9.19461E-03,	3.24433E+01,	2.03577E+00,	-6.48598E+00,	0.00000E+00,	0,	0
  7.20000E+02,	1.00000E+01,	9.19461E-03,	3.38382E+01,	2.38130E+00,	-7.88398E+00,	0.00000E+00,	0,	0
  5.68421E+02,	1.00000E+01,	9.19461E-03,	3.52162E+01,	2.85877E+00,	-9.68641E+00,	0.00000E+00,	0,	0
  4.40816E+02,	1.00000E+01,	9.19461E-03,	3.82835E+01,	3.54096E+00,	-1.20850E+01,	0.00000E+00,	0,	0
  3.54098E+02,	1.00000E+01,	9.19461E-03,	4.06584E+01,	4.29787E+00,	-1.45692E+01,	0.00000E+00,	0,	0
  2.76923E+02,	1.00000E+01,	9.19461E-03,	4.33034E+01,	5.39793E+00,	-1.78977E+01,	0.00000E+00,	0,	0
  2.20408E+02,	1.00000E+01,	9.19461E-03,	4.62330E+01,	6.70270E+00,	-2.15986E+01,	0.00000E+00,	0,	0
  1.74194E+02,	1.00000E+01,	9.19461E-03,	4.94928E+01,	8.40925E+00,	-2.61251E+01,	0.00000E+00,	0,	0
  1.37580E+02,	1.00000E+01,	9.19461E-03,	5.31633E+01,	1.05530E+01,	-3.14861E+01,	0.00000E+00,	0,	0
  1.09091E+02,	1.00000E+01,	9.19461E-03,	5.72314E+01,	1.31479E+01,	-3.77108E+01,	0.00000E+00,	0,	0
  8.70968E+01,	1.00000E+01,	9.19461E-03,	6.29382E+01,	1.61678E+01,	-4.48272E+01,	0.00000E+00,	0,	0
  6.83544E+01,	1.00000E+01,	9.19461E-03,	6.79613E+01,	2.00934E+01,	-5.40565E+01,	0.00000E+00,	0,	0
  5.45455E+01,	1.00000E+01,	9.19461E-03,	7.34104E+01,	2.45098E+01,	-6.28854E+01,	0.00000E+00,	0,	0
  4.28571E+01,	1.00000E+01,	9.19461E-03,	7.69650E+01,	2.98412E+01,	-7.49456E+01,	0.00000E+00,	0,	0
  3.39623E+01,	1.00000E+01,	9.19461E-03,	8.06953E+01,	3.51967E+01,	-8.86995E+01,	0.00000E+00,	0,	0
  2.68657E+01,	1.00000E+01,	9.19461E-03,	8.45400E+01,	4.22539E+01,	-1.05625E+02,	0.00000E+00,	0,	0
  2.13439E+01,	1.00000E+01,	9.19461E-03,	8.83347E+01,	5.01368E+01,	-1.25269E+02,	0.00000E+00,	0,	0
  1.73077E+01,	1.00000E+01,	9.19461E-03,	9.49943E+01,	5.83928E+01,	-1.46735E+02,	0.00000E+00,	0,	0
  1.36364E+01,	1.00000E+01,	9.19461E-03,	1.00023E+02,	6.88921E+01,	-1.75486E+02,	0.00000E+00,	0,	0
  1.07143E+01,	1.00000E+01,	9.19461E-03,	1.02935E+02,	8.10966E+01,	-2.10644E+02,	0.00000E+00,	0,	0
  8.49057E+00,	1.00000E+01,	9.19461E-03,	1.07141E+02,	9.44472E+01,	-2.51688E+02,	0.00000E+00,	0,	0
  6.71642E+00,	1.00000E+01,	9.19461E-03,	1.09660E+02,	1.09708E+02,	-3.01859E+02,	0.00000E+00,	0,	0
  5.29412E+00,	1.00000E+01,	9.19461E-03,	1.12618E+02,	1.27076E+02,	-3.63629E+02,	0.00000E+00,	0,	0
  4.16667E+00,	1.00000E+01,	9.19461E-03,	1.16118E+02,	1.46660E+02,	-4.40146E+02,	0.00000E+00,	0,	0
  3.30882E+00,	1.00000E+01,	9.19461E-03,	1.20370E+02,	1.67400E+02,	-5.30413E+02,	0.00000E+00,	0,	0
  2.61628E+00,	1.00000E+01,	9.19461E-03,	1.24336E+02,	1.90807E+02,	-6.43241E+02,	0.00000E+00,	0,	0
  2.07373E+00,	1.00000E+01,	9.19461E-03,	1.29189E+02,	2.15932E+02,	-7.81634E+02,	0.00000E+00,	0,	0
  1.64234E+00,	1.00000E+01,	9.19461E-03,	1.35015E+02,	2.43303E+02,	-9.54053E+02,	0.00000E+00,	0,	0
  1.30058E+00,	1.00000E+01,	9.19461E-03,	1.39182E+02,	2.73831E+02,	-1.16888E+03,	0.00000E+00,	0,	0
  1.03211E+00,	1.00000E+01,	9.19461E-03,	1.43577E+02,	3.07323E+02,	-1.43513E+03,	0.00000E+00,	0,	0
  8.15217E-01,	1.00000E+01,	9.19461E-03,	1.50516E+02,	3.46473E+02,	-1.77374E+03,	0.00000E+00,	0,	0
  6.46552E-01,	1.00000E+01,	9.19461E-03,	1.59590E+02,	3.83879E+02,	-2.17568E+03,	0.00000E+00,	0,	0
  5.11364E-01,	1.00000E+01,	9.19461E-03,	1.64602E+02,	4.33011E+02,	-2.71427E+03,	0.00000E+00,	0,	0
  4.07609E-01,	1.00000E+01,	9.19461E-03,	1.70673E+02,	4.97694E+02,	-3.34921E+03,	0.00000E+00,	0,	0
  3.21429E-01,	1.00000E+01,	9.19461E-03,	1.77788E+02,	5.74518E+02,	-4.20337E+03,	0.00000E+00,	0,	0
  2.54525E-01,	1.00000E+01,	9.19461E-03,	1.86572E+02,	6.76379E+02,	-5.22273E+03,	0.00000E+00,	0,	0
  2.01613E-01,	1.00000E+01,	9.19461E-03,	1.97410E+02,	7.96323E+02,	-6.49312E+03,	0.00000E+00,	0,	0
  1.59574E-01,	1.00000E+01,	9.19461E-03,	2.10865E+02,	9.55792E+02,	-8.08546E+03,	0.00000E+00,	0,	0
  1.26689E-01,	1.00000E+01,	9.19461E-03,	2.27772E+02,	1.14131E+03,	-1.00386E+04,	0.00000E+00,	0,	0
  1.00446E-01,	1.00000E+01,	9.19461E-03,	2.48637E+02,	1.38695E+03,	-1.24763E+04,	0.00000E+00,	0,	0