Z60W Data File: Version 1.1
CorrTest for Windows: SN CS310H1805157  V5.2.1111.9  2.5H6.220118
Sweep Frequency: Control Voltage
  Date:5-8-2026   Time:21:39:29
  Begin Information:            Cell Information
      Surface Area:           1
      Density:                7.8
      Weight:                 28
  End Information:              Cell Information
  Freq (Hz)     Ampl(mV)       Bias(V)      Time(Sec)       Z'(Ohm.cm^2)    Z''(Ohm.cm^2)        GD       Err      Range
End Comments
  3.07200E+05,	1.00000E+01,	-3.19125E-02,	3.25734E-02,	3.49934E+02,	-7.77892E+01,	0.00000E+00,	0,	0
  2.76480E+05,	1.00000E+01,	-3.19125E-02,	1.62643E+00,	3.53547E+02,	-7.76614E+01,	0.00000E+00,	0,	0
  1.97486E+05,	1.00000E+01,	-3.19125E-02,	2.51374E+00,	3.77911E+02,	-8.36089E+01,	0.00000E+00,	0,	0
  1.53600E+05,	1.00000E+01,	-3.19125E-02,	3.40805E+00,	3.95076E+02,	-8.29621E+01,	0.00000E+00,	0,	0
  1.25673E+05,	1.00000E+01,	-3.19125E-02,	4.31104E+00,	4.10506E+02,	-7.88147E+01,	0.00000E+00,	0,	0
  9.87429E+04,	1.00000E+01,	-3.19125E-02,	5.22320E+00,	4.24552E+02,	-7.22219E+01,	0.00000E+00,	0,	0
  7.68000E+04,	1.00000E+01,	-3.19125E-02,	6.12574E+00,	4.36223E+02,	-6.58035E+01,	0.00000E+00,	0,	0
  6.01043E+04,	1.00000E+01,	-3.19125E-02,	7.19046E+00,	4.48074E+02,	-5.86440E+01,	0.00000E+00,	0,	0
  4.93714E+04,	1.00000E+01,	-3.19125E-02,	8.81985E+00,	4.52900E+02,	-5.13997E+01,	0.00000E+00,	0,	0
  3.84000E+04,	1.00000E+01,	-3.19125E-02,	9.71512E+00,	4.61931E+02,	-4.33614E+01,	0.00000E+00,	0,	0
  3.00522E+04,	1.00000E+01,	-3.19125E-02,	1.05777E+01,	4.67513E+02,	-5.42565E+01,	0.00000E+00,	0,	0
  2.38345E+04,	1.00000E+01,	-3.19125E-02,	1.14449E+01,	4.68038E+02,	-3.62033E+01,	0.00000E+00,	0,	0
  1.86811E+04,	1.00000E+01,	-3.19125E-02,	1.22832E+01,	4.75197E+02,	-4.05753E+01,	0.00000E+00,	0,	0
  1.47064E+04,	1.00000E+01,	-3.19125E-02,	1.32489E+01,	4.77547E+02,	-3.09631E+01,	0.00000E+00,	0,	0
  1.15200E+04,	1.00000E+01,	-3.19125E-02,	1.42179E+01,	4.77532E+02,	-2.99975E+01,	0.00000E+00,	0,	0
  9.60000E+03,	1.00000E+01,	-3.19125E-02,	1.57847E+01,	4.82435E+02,	-2.91476E+01,	0.00000E+00,	0,	0
  7.51304E+03,	1.00000E+01,	-3.19125E-02,	1.66676E+01,	4.83802E+02,	-3.05123E+01,	0.00000E+00,	0,	0
  5.76000E+03,	1.00000E+01,	-3.19125E-02,	1.75633E+01,	4.86174E+02,	-3.10921E+01,	0.00000E+00,	0,	0
  4.54737E+03,	1.00000E+01,	-3.19125E-02,	1.84311E+01,	4.93114E+02,	-3.47043E+01,	0.00000E+00,	0,	0
  3.60000E+03,	1.00000E+01,	-3.19125E-02,	1.94151E+01,	4.95616E+02,	-4.01327E+01,	0.00000E+00,	0,	0
  2.88000E+03,	1.00000E+01,	-3.19125E-02,	2.03134E+01,	4.99442E+02,	-4.45989E+01,	0.00000E+00,	0,	0
  2.27368E+03,	1.00000E+01,	-3.19125E-02,	2.25970E+01,	5.06306E+02,	-4.70759E+01,	0.00000E+00,	0,	0
  1.78144E+03,	1.00000E+01,	-3.19125E-02,	2.33934E+01,	5.15711E+02,	-5.36055E+01,	0.00000E+00,	0,	0
  1.41639E+03,	1.00000E+01,	-3.19125E-02,	2.42839E+01,	5.22997E+02,	-6.17710E+01,	0.00000E+00,	0,	0
  1.12208E+03,	1.00000E+01,	-3.19125E-02,	2.53226E+01,	5.30880E+02,	-6.52992E+01,	0.00000E+00,	0,	0
  9.00000E+02,	1.00000E+01,	-3.19125E-02,	3.03277E+01,	5.40827E+02,	-7.14009E+01,	0.00000E+00,	0,	0
  7.20000E+02,	1.00000E+01,	-3.19125E-02,	3.16909E+01,	5.50327E+02,	-7.80612E+01,	0.00000E+00,	0,	0
  5.68421E+02,	1.00000E+01,	-3.19125E-02,	3.30485E+01,	5.60943E+02,	-8.60936E+01,	0.00000E+00,	0,	0
  4.40816E+02,	1.00000E+01,	-3.19125E-02,	3.44922E+01,	5.72930E+02,	-9.60004E+01,	0.00000E+00,	0,	0
  3.54098E+02,	1.00000E+01,	-3.19125E-02,	3.68438E+01,	5.84708E+02,	-1.06085E+02,	0.00000E+00,	0,	0
  2.76923E+02,	1.00000E+01,	-3.19125E-02,	3.94926E+01,	5.98806E+02,	-1.19057E+02,	0.00000E+00,	0,	0
  2.20408E+02,	1.00000E+01,	-3.19125E-02,	4.24279E+01,	6.13687E+02,	-1.33302E+02,	0.00000E+00,	0,	0
  1.74194E+02,	1.00000E+01,	-3.19125E-02,	4.56856E+01,	6.29598E+02,	-1.50343E+02,	0.00000E+00,	0,	0
  1.37580E+02,	1.00000E+01,	-3.19125E-02,	4.93556E+01,	6.48355E+02,	-1.70204E+02,	0.00000E+00,	0,	0
  1.09091E+02,	1.00000E+01,	-3.19125E-02,	5.34247E+01,	6.68691E+02,	-1.93369E+02,	0.00000E+00,	0,	0
  8.70968E+01,	1.00000E+01,	-3.19125E-02,	5.91156E+01,	6.91725E+02,	-2.20641E+02,	0.00000E+00,	0,	0
  6.83544E+01,	1.00000E+01,	-3.19125E-02,	6.41467E+01,	7.20660E+02,	-2.56290E+02,	0.00000E+00,	0,	0
  5.45455E+01,	1.00000E+01,	-3.19125E-02,	6.95998E+01,	7.40128E+02,	-2.83764E+02,	0.00000E+00,	0,	0
  4.28571E+01,	1.00000E+01,	-3.19125E-02,	7.31333E+01,	7.69420E+02,	-3.28245E+02,	0.00000E+00,	0,	0
  3.39623E+01,	1.00000E+01,	-3.19125E-02,	7.68659E+01,	7.95911E+02,	-3.81883E+02,	0.00000E+00,	0,	0
  2.68657E+01,	1.00000E+01,	-3.19125E-02,	8.07108E+01,	8.33715E+02,	-4.43970E+02,	0.00000E+00,	0,	0
  2.13439E+01,	1.00000E+01,	-3.19125E-02,	8.45167E+01,	8.72074E+02,	-5.16045E+02,	0.00000E+00,	0,	0
  1.73077E+01,	1.00000E+01,	-3.19125E-02,	9.11969E+01,	9.10416E+02,	-5.94502E+02,	0.00000E+00,	0,	0
  1.36364E+01,	1.00000E+01,	-3.19125E-02,	9.62365E+01,	9.56754E+02,	-7.02954E+02,	0.00000E+00,	0,	0
  1.07143E+01,	1.00000E+01,	-3.19125E-02,	9.91470E+01,	1.00630E+03,	-8.36637E+02,	0.00000E+00,	0,	0
  8.49057E+00,	1.00000E+01,	-3.19125E-02,	1.03337E+02,	1.06015E+03,	-9.95160E+02,	0.00000E+00,	0,	0
  6.71642E+00,	1.00000E+01,	-3.19125E-02,	1.05845E+02,	1.11750E+03,	-1.19220E+03,	0.00000E+00,	0,	0
  5.29412E+00,	1.00000E+01,	-3.19125E-02,	1.08785E+02,	1.18161E+03,	-1.43817E+03,	0.00000E+00,	0,	0
  4.16667E+00,	1.00000E+01,	-3.19125E-02,	1.12253E+02,	1.25508E+03,	-1.74694E+03,	0.00000E+00,	0,	0
  3.30882E+00,	1.00000E+01,	-3.19125E-02,	1.16492E+02,	1.33590E+03,	-2.11614E+03,	0.00000E+00,	0,	0
  2.61628E+00,	1.00000E+01,	-3.19125E-02,	1.20455E+02,	1.43134E+03,	-2.58121E+03,	0.00000E+00,	0,	0
  2.07373E+00,	1.00000E+01,	-3.19125E-02,	1.25219E+02,	1.54281E+03,	-3.15467E+03,	0.00000E+00,	0,	0
  1.64234E+00,	1.00000E+01,	-3.19125E-02,	1.31001E+02,	1.67715E+03,	-3.86808E+03,	0.00000E+00,	0,	0
  1.30058E+00,	1.00000E+01,	-3.19125E-02,	1.35166E+02,	1.84373E+03,	-4.75151E+03,	0.00000E+00,	0,	0
  1.03211E+00,	1.00000E+01,	-3.19125E-02,	1.39574E+02,	2.04748E+03,	-5.84036E+03,	0.00000E+00,	0,	0
  8.15217E-01,	1.00000E+01,	-3.19125E-02,	1.46516E+02,	2.31464E+03,	-7.20377E+03,	0.00000E+00,	0,	0
  6.46552E-01,	1.00000E+01,	-3.19125E-02,	1.51323E+02,	2.65055E+03,	-8.86168E+03,	0.00000E+00,	0,	0
  5.11364E-01,	1.00000E+01,	-3.19125E-02,	1.56324E+02,	3.02717E+03,	-1.09449E+04,	0.00000E+00,	0,	0
  4.07609E-01,	1.00000E+01,	-3.19125E-02,	1.62370E+02,	3.57017E+03,	-1.34006E+04,	0.00000E+00,	0,	0
  3.21429E-01,	1.00000E+01,	-3.19125E-02,	1.69505E+02,	4.31175E+03,	-1.66811E+04,	0.00000E+00,	0,	0
  2.54525E-01,	1.00000E+01,	-3.19125E-02,	1.78258E+02,	5.29703E+03,	-2.04654E+04,	0.00000E+00,	0,	0
  2.01613E-01,	1.00000E+01,	-3.19125E-02,	1.89097E+02,	6.56379E+03,	-2.50800E+04,	0.00000E+00,	0,	0
  1.59574E-01,	1.00000E+01,	-3.19125E-02,	2.02549E+02,	8.23039E+03,	-3.07101E+04,	0.00000E+00,	0,	0
  1.26689E-01,	1.00000E+01,	-3.19125E-02,	2.36447E+02,	1.03963E+04,	-3.71438E+04,	0.00000E+00,	0,	0
  1.00446E-01,	1.00000E+01,	-3.19125E-02,	2.57303E+02,	1.29656E+04,	-4.59560E+04,	0.00000E+00,	0,	0