Z60W Data File: Version 1.1
CorrTest for Windows: SN CS310H1805157  V5.2.1111.9  2.5H6.220118
Sweep Frequency: Control Voltage
  Date:5-8-2026   Time:15:34:23
  Begin Information:            Cell Information
      Surface Area:           1
      Density:                7.8
      Weight:                 28
  End Information:              Cell Information
  Freq (Hz)     Ampl(mV)       Bias(V)      Time(Sec)       Z'(Ohm.cm^2)    Z''(Ohm.cm^2)        GD       Err      Range
End Comments
  3.07200E+05,	1.00000E+01,	1.81582E-02,	3.38954E-02,	-1.90760E+00,	3.14482E+00,	0.00000E+00,	0,	0
  2.76480E+05,	1.00000E+01,	1.81582E-02,	1.64059E+00,	-1.29602E+00,	2.23537E+00,	0.00000E+00,	0,	0
  1.97486E+05,	1.00000E+01,	1.81582E-02,	2.56928E+00,	-3.84833E-01,	1.53676E+00,	0.00000E+00,	0,	0
  1.53600E+05,	1.00000E+01,	1.81582E-02,	3.47774E+00,	-2.03166E-02,	1.18147E+00,	0.00000E+00,	0,	0
  1.25673E+05,	1.00000E+01,	1.81582E-02,	4.37252E+00,	1.69578E-01,	8.95359E-01,	0.00000E+00,	0,	0
  9.87429E+04,	1.00000E+01,	1.81582E-02,	5.26763E+00,	3.61791E-01,	6.77932E-01,	0.00000E+00,	0,	0
  7.68000E+04,	1.00000E+01,	1.81582E-02,	6.15066E+00,	4.69596E-01,	4.94649E-01,	0.00000E+00,	0,	0
  6.01043E+04,	1.00000E+01,	1.81582E-02,	9.34946E+00,	5.45980E-01,	3.13256E-01,	0.00000E+00,	0,	0
  4.93714E+04,	1.00000E+01,	1.81582E-02,	1.09100E+01,	5.61716E-01,	2.09345E-01,	0.00000E+00,	0,	0
  3.84000E+04,	1.00000E+01,	1.81582E-02,	1.17981E+01,	5.75405E-01,	8.83232E-02,	0.00000E+00,	0,	0
  3.00522E+04,	1.00000E+01,	1.81582E-02,	1.26402E+01,	5.85804E-01,	-2.05828E-02,	0.00000E+00,	0,	0
  2.38345E+04,	1.00000E+01,	1.81582E-02,	1.34997E+01,	5.98626E-01,	-1.24412E-01,	0.00000E+00,	0,	0
  1.86811E+04,	1.00000E+01,	1.81582E-02,	1.43389E+01,	6.12611E-01,	-2.37304E-01,	0.00000E+00,	0,	0
  1.47064E+04,	1.00000E+01,	1.81582E-02,	1.53004E+01,	6.29862E-01,	-3.56915E-01,	0.00000E+00,	0,	0
  1.15200E+04,	1.00000E+01,	1.81582E-02,	1.62535E+01,	6.51650E-01,	-4.94589E-01,	0.00000E+00,	0,	0
  9.60000E+03,	1.00000E+01,	1.81582E-02,	1.78269E+01,	6.70685E-01,	-6.10979E-01,	0.00000E+00,	0,	0
  7.51304E+03,	1.00000E+01,	1.81582E-02,	1.87024E+01,	7.01668E-01,	-7.93217E-01,	0.00000E+00,	0,	0
  5.76000E+03,	1.00000E+01,	1.81582E-02,	1.95926E+01,	7.44822E-01,	-1.03251E+00,	0.00000E+00,	0,	0
  4.54737E+03,	1.00000E+01,	1.81582E-02,	2.04365E+01,	7.95629E-01,	-1.29226E+00,	0.00000E+00,	0,	0
  3.60000E+03,	1.00000E+01,	1.81582E-02,	2.14286E+01,	8.56566E-01,	-1.60696E+00,	0.00000E+00,	0,	0
  2.88000E+03,	1.00000E+01,	1.81582E-02,	2.23254E+01,	9.30585E-01,	-1.96992E+00,	0.00000E+00,	0,	0
  2.27368E+03,	1.00000E+01,	1.81582E-02,	2.46103E+01,	1.02381E+00,	-2.42219E+00,	0.00000E+00,	0,	0
  1.78144E+03,	1.00000E+01,	1.81582E-02,	2.54217E+01,	1.15799E+00,	-3.00802E+00,	0.00000E+00,	0,	0
  1.41639E+03,	1.00000E+01,	1.81582E-02,	2.63208E+01,	1.32549E+00,	-3.68443E+00,	0.00000E+00,	0,	0
  1.12208E+03,	1.00000E+01,	1.81582E-02,	2.73447E+01,	1.54173E+00,	-4.51848E+00,	0.00000E+00,	0,	0
  9.00000E+02,	1.00000E+01,	1.81582E-02,	3.23253E+01,	1.80891E+00,	-5.48418E+00,	0.00000E+00,	0,	0
  7.20000E+02,	1.00000E+01,	1.81582E-02,	3.37308E+01,	2.15341E+00,	-6.63696E+00,	0.00000E+00,	0,	0
  5.68421E+02,	1.00000E+01,	1.81582E-02,	3.51187E+01,	2.62224E+00,	-8.10262E+00,	0.00000E+00,	0,	0
  4.40816E+02,	1.00000E+01,	1.81582E-02,	3.65852E+01,	3.28004E+00,	-1.00044E+01,	0.00000E+00,	0,	0
  3.54098E+02,	1.00000E+01,	1.81582E-02,	3.89159E+01,	3.99895E+00,	-1.19568E+01,	0.00000E+00,	0,	0
  2.76923E+02,	1.00000E+01,	1.81582E-02,	4.15419E+01,	5.01756E+00,	-1.45406E+01,	0.00000E+00,	0,	0
  2.20408E+02,	1.00000E+01,	1.81582E-02,	4.44869E+01,	6.19332E+00,	-1.73820E+01,	0.00000E+00,	0,	0
  1.74194E+02,	1.00000E+01,	1.81582E-02,	4.77328E+01,	7.66919E+00,	-2.08060E+01,	0.00000E+00,	0,	0
  1.37580E+02,	1.00000E+01,	1.81582E-02,	5.13890E+01,	9.44353E+00,	-2.48291E+01,	0.00000E+00,	0,	0
  1.09091E+02,	1.00000E+01,	1.81582E-02,	5.55301E+01,	1.14979E+01,	-2.94876E+01,	0.00000E+00,	0,	0
  8.70968E+01,	1.00000E+01,	1.81582E-02,	6.36635E+01,	1.38496E+01,	-3.49430E+01,	0.00000E+00,	0,	0
  6.83544E+01,	1.00000E+01,	1.81582E-02,	6.86808E+01,	1.67661E+01,	-4.19772E+01,	0.00000E+00,	0,	0
  5.45455E+01,	1.00000E+01,	1.81582E-02,	7.41414E+01,	1.99778E+01,	-4.87782E+01,	0.00000E+00,	0,	0
  4.28571E+01,	1.00000E+01,	1.81582E-02,	7.76698E+01,	2.38416E+01,	-5.82008E+01,	0.00000E+00,	0,	0
  3.39623E+01,	1.00000E+01,	1.81582E-02,	8.13860E+01,	2.77082E+01,	-6.90493E+01,	0.00000E+00,	0,	0
  2.68657E+01,	1.00000E+01,	1.81582E-02,	8.52143E+01,	3.28702E+01,	-8.24591E+01,	0.00000E+00,	0,	0
  2.13439E+01,	1.00000E+01,	1.81582E-02,	8.90079E+01,	3.86141E+01,	-9.80510E+01,	0.00000E+00,	0,	0
  1.73077E+01,	1.00000E+01,	1.81582E-02,	9.56682E+01,	4.45635E+01,	-1.15111E+02,	0.00000E+00,	0,	0
  1.36364E+01,	1.00000E+01,	1.81582E-02,	1.00680E+02,	5.19668E+01,	-1.38067E+02,	0.00000E+00,	0,	0
  1.07143E+01,	1.00000E+01,	1.81582E-02,	1.03583E+02,	6.02819E+01,	-1.66284E+02,	0.00000E+00,	0,	0
  8.49057E+00,	1.00000E+01,	1.81582E-02,	1.07780E+02,	6.91154E+01,	-1.99594E+02,	0.00000E+00,	0,	0
  6.71642E+00,	1.00000E+01,	1.81582E-02,	1.10306E+02,	7.89026E+01,	-2.40891E+02,	0.00000E+00,	0,	0
  5.29412E+00,	1.00000E+01,	1.81582E-02,	1.13230E+02,	8.97966E+01,	-2.92434E+02,	0.00000E+00,	0,	0
  4.16667E+00,	1.00000E+01,	1.81582E-02,	1.16733E+02,	1.01545E+02,	-3.57080E+02,	0.00000E+00,	0,	0
  3.30882E+00,	1.00000E+01,	1.81582E-02,	1.20965E+02,	1.13697E+02,	-4.34489E+02,	0.00000E+00,	0,	0
  2.61628E+00,	1.00000E+01,	1.81582E-02,	1.24940E+02,	1.27368E+02,	-5.32645E+02,	0.00000E+00,	0,	0
  2.07373E+00,	1.00000E+01,	1.81582E-02,	1.29702E+02,	1.42233E+02,	-6.54419E+02,	0.00000E+00,	0,	0
  1.64234E+00,	1.00000E+01,	1.81582E-02,	1.35477E+02,	1.58823E+02,	-8.07487E+02,	0.00000E+00,	0,	0
  1.30058E+00,	1.00000E+01,	1.81582E-02,	1.39678E+02,	1.78890E+02,	-9.99334E+02,	0.00000E+00,	0,	0
  1.03211E+00,	1.00000E+01,	1.81582E-02,	1.44119E+02,	2.02534E+02,	-1.23764E+03,	0.00000E+00,	0,	0
  8.15217E-01,	1.00000E+01,	1.81582E-02,	1.51059E+02,	2.31967E+02,	-1.54059E+03,	0.00000E+00,	0,	0
  6.46552E-01,	1.00000E+01,	1.81582E-02,	1.60131E+02,	2.63186E+02,	-1.90276E+03,	0.00000E+00,	0,	0
  5.11364E-01,	1.00000E+01,	1.81582E-02,	1.65177E+02,	3.07645E+02,	-2.38383E+03,	0.00000E+00,	0,	0
  4.07609E-01,	1.00000E+01,	1.81582E-02,	1.71219E+02,	3.65313E+02,	-2.95151E+03,	0.00000E+00,	0,	0
  3.21429E-01,	1.00000E+01,	1.81582E-02,	1.78325E+02,	4.37327E+02,	-3.70850E+03,	0.00000E+00,	0,	0
  2.54525E-01,	1.00000E+01,	1.81582E-02,	1.87109E+02,	5.37186E+02,	-4.61594E+03,	0.00000E+00,	0,	0
  2.01613E-01,	1.00000E+01,	1.81582E-02,	1.97942E+02,	6.63367E+02,	-5.74755E+03,	0.00000E+00,	0,	0
  1.59574E-01,	1.00000E+01,	1.81582E-02,	2.11398E+02,	8.28517E+02,	-7.15848E+03,	0.00000E+00,	0,	0
  1.26689E-01,	1.00000E+01,	1.81582E-02,	2.28305E+02,	1.04773E+03,	-8.88031E+03,	0.00000E+00,	0,	0
  1.00446E-01,	1.00000E+01,	1.81582E-02,	2.49175E+02,	1.31986E+03,	-1.10372E+04,	0.00000E+00,	0,	0