Z60W Data File: Version 1.1
CorrTest for Windows: SN CS310H1805157  V5.2.1111.9  2.5H6.220118
Sweep Frequency: Control Voltage
  Date:5-8-2026   Time:19:43:12
  Begin Information:            Cell Information
      Surface Area:           1
      Density:                7.8
      Weight:                 28
  End Information:              Cell Information
  Freq (Hz)     Ampl(mV)       Bias(V)      Time(Sec)       Z'(Ohm.cm^2)    Z''(Ohm.cm^2)        GD       Err      Range
End Comments
  3.07200E+05,	1.00000E+01,	-2.50578E-02,	2.65776E-02,	-6.01071E-01,	3.73854E+00,	0.00000E+00,	0,	0
  2.76480E+05,	1.00000E+01,	-2.50578E-02,	1.62675E+00,	1.08222E-02,	2.76893E+00,	0.00000E+00,	0,	0
  1.97486E+05,	1.00000E+01,	-2.50578E-02,	2.52089E+00,	8.86770E-01,	1.90321E+00,	0.00000E+00,	0,	0
  1.53600E+05,	1.00000E+01,	-2.50578E-02,	3.42845E+00,	1.23088E+00,	1.40376E+00,	0.00000E+00,	0,	0
  1.25673E+05,	1.00000E+01,	-2.50578E-02,	4.32862E+00,	1.43273E+00,	1.04069E+00,	0.00000E+00,	0,	0
  9.87429E+04,	1.00000E+01,	-2.50578E-02,	5.22684E+00,	1.63725E+00,	7.42243E-01,	0.00000E+00,	0,	0
  7.68000E+04,	1.00000E+01,	-2.50578E-02,	6.14814E+00,	1.74326E+00,	4.91247E-01,	0.00000E+00,	0,	0
  6.01043E+04,	1.00000E+01,	-2.50578E-02,	9.35932E+00,	1.85586E+00,	2.30983E-01,	0.00000E+00,	0,	0
  4.93714E+04,	1.00000E+01,	-2.50578E-02,	1.09306E+01,	1.89451E+00,	7.43980E-02,	0.00000E+00,	0,	0
  3.84000E+04,	1.00000E+01,	-2.50578E-02,	1.18352E+01,	1.94449E+00,	-1.08745E-01,	0.00000E+00,	0,	0
  3.00522E+04,	1.00000E+01,	-2.50578E-02,	1.27059E+01,	1.98971E+00,	-2.80071E-01,	0.00000E+00,	0,	0
  2.38345E+04,	1.00000E+01,	-2.50578E-02,	1.35671E+01,	2.04226E+00,	-4.42349E-01,	0.00000E+00,	0,	0
  1.86811E+04,	1.00000E+01,	-2.50578E-02,	1.44068E+01,	2.10354E+00,	-6.16574E-01,	0.00000E+00,	0,	0
  1.47064E+04,	1.00000E+01,	-2.50578E-02,	1.53652E+01,	2.17661E+00,	-8.01917E-01,	0.00000E+00,	0,	0
  1.15200E+04,	1.00000E+01,	-2.50578E-02,	1.63276E+01,	2.25979E+00,	-1.01071E+00,	0.00000E+00,	0,	0
  9.60000E+03,	1.00000E+01,	-2.50578E-02,	1.78964E+01,	2.33033E+00,	-1.18412E+00,	0.00000E+00,	0,	0
  7.51304E+03,	1.00000E+01,	-2.50578E-02,	1.87504E+01,	2.43397E+00,	-1.44819E+00,	0.00000E+00,	0,	0
  5.76000E+03,	1.00000E+01,	-2.50578E-02,	1.96347E+01,	2.55970E+00,	-1.78657E+00,	0.00000E+00,	0,	0
  4.54737E+03,	1.00000E+01,	-2.50578E-02,	2.04971E+01,	2.69024E+00,	-2.15169E+00,	0.00000E+00,	0,	0
  3.60000E+03,	1.00000E+01,	-2.50578E-02,	2.14861E+01,	2.82999E+00,	-2.58378E+00,	0.00000E+00,	0,	0
  2.88000E+03,	1.00000E+01,	-2.50578E-02,	2.23852E+01,	2.97664E+00,	-3.07216E+00,	0.00000E+00,	0,	0
  2.27368E+03,	1.00000E+01,	-2.50578E-02,	2.46622E+01,	3.12733E+00,	-3.68793E+00,	0.00000E+00,	0,	0
  1.78144E+03,	1.00000E+01,	-2.50578E-02,	2.54549E+01,	3.34236E+00,	-4.48774E+00,	0.00000E+00,	0,	0
  1.41639E+03,	1.00000E+01,	-2.50578E-02,	2.63597E+01,	3.53895E+00,	-5.42431E+00,	0.00000E+00,	0,	0
  1.12208E+03,	1.00000E+01,	-2.50578E-02,	2.73904E+01,	3.78507E+00,	-6.59551E+00,	0.00000E+00,	0,	0
  9.00000E+02,	1.00000E+01,	-2.50578E-02,	3.23802E+01,	4.07380E+00,	-7.97981E+00,	0.00000E+00,	0,	0
  7.20000E+02,	1.00000E+01,	-2.50578E-02,	3.37480E+01,	4.39520E+00,	-9.67225E+00,	0.00000E+00,	0,	0
  5.68421E+02,	1.00000E+01,	-2.50578E-02,	3.51281E+01,	4.80475E+00,	-1.18923E+01,	0.00000E+00,	0,	0
  4.40816E+02,	1.00000E+01,	-2.50578E-02,	3.81407E+01,	5.37066E+00,	-1.49221E+01,	0.00000E+00,	0,	0
  3.54098E+02,	1.00000E+01,	-2.50578E-02,	4.05023E+01,	5.96236E+00,	-1.81213E+01,	0.00000E+00,	0,	0
  2.76923E+02,	1.00000E+01,	-2.50578E-02,	4.31473E+01,	6.81518E+00,	-2.25544E+01,	0.00000E+00,	0,	0
  2.20408E+02,	1.00000E+01,	-2.50578E-02,	4.60654E+01,	7.82807E+00,	-2.76520E+01,	0.00000E+00,	0,	0
  1.74194E+02,	1.00000E+01,	-2.50578E-02,	4.93178E+01,	9.17224E+00,	-3.40955E+01,	0.00000E+00,	0,	0
  1.37580E+02,	1.00000E+01,	-2.50578E-02,	5.29774E+01,	1.09280E+01,	-4.20471E+01,	0.00000E+00,	0,	0
  1.09091E+02,	1.00000E+01,	-2.50578E-02,	5.70591E+01,	1.31631E+01,	-5.16469E+01,	0.00000E+00,	0,	0
  8.70968E+01,	1.00000E+01,	-2.50578E-02,	6.27543E+01,	1.59443E+01,	-6.30655E+01,	0.00000E+00,	0,	0
  6.83544E+01,	1.00000E+01,	-2.50578E-02,	6.77929E+01,	1.98912E+01,	-7.83701E+01,	0.00000E+00,	0,	0
  5.45455E+01,	1.00000E+01,	-2.50578E-02,	7.32384E+01,	2.50875E+01,	-9.38474E+01,	0.00000E+00,	0,	0
  4.28571E+01,	1.00000E+01,	-2.50578E-02,	7.67902E+01,	3.19206E+01,	-1.15068E+02,	0.00000E+00,	0,	0
  3.39623E+01,	1.00000E+01,	-2.50578E-02,	8.05237E+01,	3.95760E+01,	-1.39414E+02,	0.00000E+00,	0,	0
  2.68657E+01,	1.00000E+01,	-2.50578E-02,	8.43666E+01,	5.08524E+01,	-1.69384E+02,	0.00000E+00,	0,	0
  2.13439E+01,	1.00000E+01,	-2.50578E-02,	8.81859E+01,	6.47515E+01,	-2.03770E+02,	0.00000E+00,	0,	0
  1.73077E+01,	1.00000E+01,	-2.50578E-02,	9.48745E+01,	8.04049E+01,	-2.40703E+02,	0.00000E+00,	0,	0
  1.36364E+01,	1.00000E+01,	-2.50578E-02,	9.99502E+01,	1.01751E+02,	-2.88836E+02,	0.00000E+00,	0,	0
  1.07143E+01,	1.00000E+01,	-2.50578E-02,	1.02863E+02,	1.27873E+02,	-3.45757E+02,	0.00000E+00,	0,	0
  8.49057E+00,	1.00000E+01,	-2.50578E-02,	1.07069E+02,	1.57754E+02,	-4.10327E+02,	0.00000E+00,	0,	0
  6.71642E+00,	1.00000E+01,	-2.50578E-02,	1.09593E+02,	1.92684E+02,	-4.86276E+02,	0.00000E+00,	0,	0
  5.29412E+00,	1.00000E+01,	-2.50578E-02,	1.12524E+02,	2.33528E+02,	-5.77010E+02,	0.00000E+00,	0,	0
  4.16667E+00,	1.00000E+01,	-2.50578E-02,	1.16014E+02,	2.80736E+02,	-6.86228E+02,	0.00000E+00,	0,	0
  3.30882E+00,	1.00000E+01,	-2.50578E-02,	1.20269E+02,	3.32568E+02,	-8.12017E+02,	0.00000E+00,	0,	0
  2.61628E+00,	1.00000E+01,	-2.50578E-02,	1.24302E+02,	3.92881E+02,	-9.64968E+02,	0.00000E+00,	0,	0
  2.07373E+00,	1.00000E+01,	-2.50578E-02,	1.29081E+02,	4.61554E+02,	-1.14752E+03,	0.00000E+00,	0,	0
  1.64234E+00,	1.00000E+01,	-2.50578E-02,	1.34868E+02,	5.40167E+02,	-1.36824E+03,	0.00000E+00,	0,	0
  1.30058E+00,	1.00000E+01,	-2.50578E-02,	1.39055E+02,	6.30400E+02,	-1.63319E+03,	0.00000E+00,	0,	0
  1.03211E+00,	1.00000E+01,	-2.50578E-02,	1.43461E+02,	7.32970E+02,	-1.95290E+03,	0.00000E+00,	0,	0
  8.15217E-01,	1.00000E+01,	-2.50578E-02,	1.50406E+02,	8.47070E+02,	-2.34475E+03,	0.00000E+00,	0,	0
  6.46552E-01,	1.00000E+01,	-2.50578E-02,	1.59495E+02,	9.73982E+02,	-2.81881E+03,	0.00000E+00,	0,	0
  5.11364E-01,	1.00000E+01,	-2.50578E-02,	1.64494E+02,	1.08245E+03,	-3.41435E+03,	0.00000E+00,	0,	0
  4.07609E-01,	1.00000E+01,	-2.50578E-02,	1.70548E+02,	1.23593E+03,	-4.11138E+03,	0.00000E+00,	0,	0
  3.21429E-01,	1.00000E+01,	-2.50578E-02,	1.77681E+02,	1.41211E+03,	-5.08251E+03,	0.00000E+00,	0,	0
  2.54525E-01,	1.00000E+01,	-2.50578E-02,	1.86449E+02,	1.60890E+03,	-6.18127E+03,	0.00000E+00,	0,	0
  2.01613E-01,	1.00000E+01,	-2.50578E-02,	1.97332E+02,	1.82083E+03,	-7.55519E+03,	0.00000E+00,	0,	0
  1.59574E-01,	1.00000E+01,	-2.50578E-02,	2.10779E+02,	2.05959E+03,	-9.27443E+03,	0.00000E+00,	0,	0
  1.26689E-01,	1.00000E+01,	-2.50578E-02,	2.44654E+02,	2.36584E+03,	-1.12436E+04,	0.00000E+00,	0,	0
  1.00446E-01,	1.00000E+01,	-2.50578E-02,	2.65513E+02,	2.62029E+03,	-1.41637E+04,	0.00000E+00,	0,	0