Z60W Data File: Version 1.1
CorrTest for Windows: SN CS310H1805157  V5.2.1111.9  2.5H6.220118
Sweep Frequency: Control Voltage
  Date:5-8-2026   Time:18:58:36
  Begin Information:            Cell Information
      Surface Area:           1
      Density:                7.8
      Weight:                 28
  End Information:              Cell Information
  Freq (Hz)     Ampl(mV)       Bias(V)      Time(Sec)       Z'(Ohm.cm^2)    Z''(Ohm.cm^2)        GD       Err      Range
End Comments
  3.07200E+05,	1.00000E+01,	3.93931E-03,	2.61968E-02,	-1.74034E+00,	3.19376E+00,	0.00000E+00,	0,	0
  2.76480E+05,	1.00000E+01,	3.93931E-03,	1.63765E+00,	-1.16323E+00,	2.29522E+00,	0.00000E+00,	0,	0
  1.97486E+05,	1.00000E+01,	3.93931E-03,	2.53046E+00,	-2.19209E-01,	1.58299E+00,	0.00000E+00,	0,	0
  1.53600E+05,	1.00000E+01,	3.93931E-03,	3.42484E+00,	1.19270E-01,	1.16933E+00,	0.00000E+00,	0,	0
  1.25673E+05,	1.00000E+01,	3.93931E-03,	4.32645E+00,	3.26048E-01,	9.00126E-01,	0.00000E+00,	0,	0
  9.87429E+04,	1.00000E+01,	3.93931E-03,	5.24069E+00,	5.09805E-01,	6.68426E-01,	0.00000E+00,	0,	0
  7.68000E+04,	1.00000E+01,	3.93931E-03,	6.14594E+00,	6.17848E-01,	4.75515E-01,	0.00000E+00,	0,	0
  6.01043E+04,	1.00000E+01,	3.93931E-03,	9.34938E+00,	6.95386E-01,	2.84051E-01,	0.00000E+00,	0,	0
  4.93714E+04,	1.00000E+01,	3.93931E-03,	1.09099E+01,	7.13418E-01,	1.71421E-01,	0.00000E+00,	0,	0
  3.84000E+04,	1.00000E+01,	3.93931E-03,	1.18202E+01,	7.33973E-01,	4.22530E-02,	0.00000E+00,	0,	0
  3.00522E+04,	1.00000E+01,	3.93931E-03,	1.26779E+01,	7.50331E-01,	-8.17314E-02,	0.00000E+00,	0,	0
  2.38345E+04,	1.00000E+01,	3.93931E-03,	1.35590E+01,	7.68427E-01,	-1.97599E-01,	0.00000E+00,	0,	0
  1.86811E+04,	1.00000E+01,	3.93931E-03,	1.43933E+01,	7.89040E-01,	-3.25597E-01,	0.00000E+00,	0,	0
  1.47064E+04,	1.00000E+01,	3.93931E-03,	1.53574E+01,	8.13442E-01,	-4.63766E-01,	0.00000E+00,	0,	0
  1.15200E+04,	1.00000E+01,	3.93931E-03,	1.63506E+01,	8.43009E-01,	-6.23224E-01,	0.00000E+00,	0,	0
  9.60000E+03,	1.00000E+01,	3.93931E-03,	1.79147E+01,	8.68189E-01,	-7.58364E-01,	0.00000E+00,	0,	0
  7.51304E+03,	1.00000E+01,	3.93931E-03,	1.87830E+01,	9.08137E-01,	-9.71114E-01,	0.00000E+00,	0,	0
  5.76000E+03,	1.00000E+01,	3.93931E-03,	1.96581E+01,	9.61410E-01,	-1.25123E+00,	0.00000E+00,	0,	0
  4.54737E+03,	1.00000E+01,	3.93931E-03,	2.05170E+01,	1.02075E+00,	-1.55908E+00,	0.00000E+00,	0,	0
  3.60000E+03,	1.00000E+01,	3.93931E-03,	2.15080E+01,	1.08812E+00,	-1.92790E+00,	0.00000E+00,	0,	0
  2.88000E+03,	1.00000E+01,	3.93931E-03,	2.23949E+01,	1.17287E+00,	-2.35891E+00,	0.00000E+00,	0,	0
  2.27368E+03,	1.00000E+01,	3.93931E-03,	2.46638E+01,	1.26939E+00,	-2.89370E+00,	0.00000E+00,	0,	0
  1.78144E+03,	1.00000E+01,	3.93931E-03,	2.54406E+01,	1.41091E+00,	-3.60097E+00,	0.00000E+00,	0,	0
  1.41639E+03,	1.00000E+01,	3.93931E-03,	2.63443E+01,	1.57623E+00,	-4.41589E+00,	0.00000E+00,	0,	0
  1.12208E+03,	1.00000E+01,	3.93931E-03,	2.73766E+01,	1.80323E+00,	-5.43237E+00,	0.00000E+00,	0,	0
  9.00000E+02,	1.00000E+01,	3.93931E-03,	3.23621E+01,	2.07333E+00,	-6.62094E+00,	0.00000E+00,	0,	0
  7.20000E+02,	1.00000E+01,	3.93931E-03,	3.37378E+01,	2.41855E+00,	-8.05159E+00,	0.00000E+00,	0,	0
  5.68421E+02,	1.00000E+01,	3.93931E-03,	3.51154E+01,	2.89498E+00,	-9.89813E+00,	0.00000E+00,	0,	0
  4.40816E+02,	1.00000E+01,	3.93931E-03,	3.81432E+01,	3.57856E+00,	-1.23616E+01,	0.00000E+00,	0,	0
  3.54098E+02,	1.00000E+01,	3.93931E-03,	4.04900E+01,	4.33085E+00,	-1.49080E+01,	0.00000E+00,	0,	0
  2.76923E+02,	1.00000E+01,	3.93931E-03,	4.31322E+01,	5.43162E+00,	-1.83393E+01,	0.00000E+00,	0,	0
  2.20408E+02,	1.00000E+01,	3.93931E-03,	4.60595E+01,	6.74485E+00,	-2.21643E+01,	0.00000E+00,	0,	0
  1.74194E+02,	1.00000E+01,	3.93931E-03,	4.93108E+01,	8.46865E+00,	-2.68468E+01,	0.00000E+00,	0,	0
  1.37580E+02,	1.00000E+01,	3.93931E-03,	5.29964E+01,	1.06441E+01,	-3.24056E+01,	0.00000E+00,	0,	0
  1.09091E+02,	1.00000E+01,	3.93931E-03,	5.70668E+01,	1.32939E+01,	-3.88690E+01,	0.00000E+00,	0,	0
  8.70968E+01,	1.00000E+01,	3.93931E-03,	6.27655E+01,	1.63998E+01,	-4.62752E+01,	0.00000E+00,	0,	0
  6.83544E+01,	1.00000E+01,	3.93931E-03,	6.77800E+01,	2.04599E+01,	-5.58622E+01,	0.00000E+00,	0,	0
  5.45455E+01,	1.00000E+01,	3.93931E-03,	7.32351E+01,	2.50581E+01,	-6.50278E+01,	0.00000E+00,	0,	0
  4.28571E+01,	1.00000E+01,	3.93931E-03,	7.67775E+01,	3.06339E+01,	-7.75090E+01,	0.00000E+00,	0,	0
  3.39623E+01,	1.00000E+01,	3.93931E-03,	8.05083E+01,	3.62425E+01,	-9.17190E+01,	0.00000E+00,	0,	0
  2.68657E+01,	1.00000E+01,	3.93931E-03,	8.43602E+01,	4.36285E+01,	-1.09173E+02,	0.00000E+00,	0,	0
  2.13439E+01,	1.00000E+01,	3.93931E-03,	8.81680E+01,	5.18566E+01,	-1.29417E+02,	0.00000E+00,	0,	0
  1.73077E+01,	1.00000E+01,	3.93931E-03,	9.48566E+01,	6.04847E+01,	-1.51493E+02,	0.00000E+00,	0,	0
  1.36364E+01,	1.00000E+01,	3.93931E-03,	9.99130E+01,	7.14337E+01,	-1.81076E+02,	0.00000E+00,	0,	0
  1.07143E+01,	1.00000E+01,	3.93931E-03,	1.02820E+02,	8.41890E+01,	-2.17206E+02,	0.00000E+00,	0,	0
  8.49057E+00,	1.00000E+01,	3.93931E-03,	1.07005E+02,	9.82380E+01,	-2.59485E+02,	0.00000E+00,	0,	0
  6.71642E+00,	1.00000E+01,	3.93931E-03,	1.09539E+02,	1.14249E+02,	-3.10925E+02,	0.00000E+00,	0,	0
  5.29412E+00,	1.00000E+01,	3.93931E-03,	1.12474E+02,	1.32733E+02,	-3.74248E+02,	0.00000E+00,	0,	0
  4.16667E+00,	1.00000E+01,	3.93931E-03,	1.15957E+02,	1.53417E+02,	-4.52554E+02,	0.00000E+00,	0,	0
  3.30882E+00,	1.00000E+01,	3.93931E-03,	1.20193E+02,	1.75538E+02,	-5.44781E+02,	0.00000E+00,	0,	0
  2.61628E+00,	1.00000E+01,	3.93931E-03,	1.24157E+02,	2.00545E+02,	-6.59801E+02,	0.00000E+00,	0,	0
  2.07373E+00,	1.00000E+01,	3.93931E-03,	1.28995E+02,	2.27384E+02,	-8.00715E+02,	0.00000E+00,	0,	0
  1.64234E+00,	1.00000E+01,	3.93931E-03,	1.34804E+02,	2.56757E+02,	-9.75631E+02,	0.00000E+00,	0,	0
  1.30058E+00,	1.00000E+01,	3.93931E-03,	1.39029E+02,	2.89337E+02,	-1.19352E+03,	0.00000E+00,	0,	0
  1.03211E+00,	1.00000E+01,	3.93931E-03,	1.43452E+02,	3.24735E+02,	-1.46340E+03,	0.00000E+00,	0,	0
  8.15217E-01,	1.00000E+01,	3.93931E-03,	1.50407E+02,	3.65513E+02,	-1.80622E+03,	0.00000E+00,	0,	0
  6.46552E-01,	1.00000E+01,	3.93931E-03,	1.59483E+02,	4.04020E+02,	-2.21210E+03,	0.00000E+00,	0,	0
  5.11364E-01,	1.00000E+01,	3.93931E-03,	1.64513E+02,	4.56181E+02,	-2.75539E+03,	0.00000E+00,	0,	0
  4.07609E-01,	1.00000E+01,	3.93931E-03,	1.70564E+02,	5.21209E+02,	-3.39901E+03,	0.00000E+00,	0,	0
  3.21429E-01,	1.00000E+01,	3.93931E-03,	1.77693E+02,	5.98755E+02,	-4.26641E+03,	0.00000E+00,	0,	0
  2.54525E-01,	1.00000E+01,	3.93931E-03,	1.86468E+02,	7.02727E+02,	-5.29940E+03,	0.00000E+00,	0,	0
  2.01613E-01,	1.00000E+01,	3.93931E-03,	1.97296E+02,	8.25609E+02,	-6.58739E+03,	0.00000E+00,	0,	0
  1.59574E-01,	1.00000E+01,	3.93931E-03,	2.10756E+02,	9.80888E+02,	-8.20242E+03,	0.00000E+00,	0,	0
  1.26689E-01,	1.00000E+01,	3.93931E-03,	2.27671E+02,	1.17370E+03,	-1.01778E+04,	0.00000E+00,	0,	0
  1.00446E-01,	1.00000E+01,	3.93931E-03,	2.48532E+02,	1.40877E+03,	-1.26587E+04,	0.00000E+00,	0,	0