Z60W Data File: Version 1.1
CorrTest for Windows: SN CS310H1805157  V5.2.1111.9  2.5H6.220118
Sweep Frequency: Control Voltage
  Date:5-8-2026   Time:20:34:25
  Begin Information:            Cell Information
      Surface Area:           1
      Density:                7.8
      Weight:                 28
  End Information:              Cell Information
  Freq (Hz)     Ampl(mV)       Bias(V)      Time(Sec)       Z'(Ohm.cm^2)    Z''(Ohm.cm^2)        GD       Err      Range
End Comments
  3.07200E+05,	1.00000E+01,	-2.75192E-02,	2.22751E-02,	1.93006E+01,	1.30105E+01,	0.00000E+00,	0,	0
  2.76480E+05,	1.00000E+01,	-2.75192E-02,	1.64742E+00,	1.93519E+01,	1.10161E+01,	0.00000E+00,	0,	0
  1.97486E+05,	1.00000E+01,	-2.75192E-02,	2.56507E+00,	1.95718E+01,	7.65725E+00,	0.00000E+00,	0,	0
  1.53600E+05,	1.00000E+01,	-2.75192E-02,	3.47204E+00,	1.97716E+01,	5.74552E+00,	0.00000E+00,	0,	0
  1.25673E+05,	1.00000E+01,	-2.75192E-02,	4.37557E+00,	1.98636E+01,	4.45728E+00,	0.00000E+00,	0,	0
  9.87429E+04,	1.00000E+01,	-2.75192E-02,	5.26856E+00,	2.00122E+01,	3.20170E+00,	0.00000E+00,	0,	0
  7.68000E+04,	1.00000E+01,	-2.75192E-02,	6.15719E+00,	2.01505E+01,	2.11173E+00,	0.00000E+00,	0,	0
  6.01043E+04,	1.00000E+01,	-2.75192E-02,	8.25419E+00,	2.03189E+01,	1.23742E+00,	0.00000E+00,	0,	0
  4.93714E+04,	1.00000E+01,	-2.75192E-02,	9.82830E+00,	2.04673E+01,	6.34310E-01,	0.00000E+00,	0,	0
  3.84000E+04,	1.00000E+01,	-2.75192E-02,	1.07301E+01,	2.06600E+01,	-4.92023E-02,	0.00000E+00,	0,	0
  3.00522E+04,	1.00000E+01,	-2.75192E-02,	1.15773E+01,	2.08267E+01,	-6.63631E-01,	0.00000E+00,	0,	0
  2.38345E+04,	1.00000E+01,	-2.75192E-02,	1.24645E+01,	2.10797E+01,	-1.20650E+00,	0.00000E+00,	0,	0
  1.86811E+04,	1.00000E+01,	-2.75192E-02,	1.32895E+01,	2.13446E+01,	-1.77747E+00,	0.00000E+00,	0,	0
  1.47064E+04,	1.00000E+01,	-2.75192E-02,	1.42411E+01,	2.16288E+01,	-2.35739E+00,	0.00000E+00,	0,	0
  1.15200E+04,	1.00000E+01,	-2.75192E-02,	1.52030E+01,	2.20136E+01,	-2.94414E+00,	0.00000E+00,	0,	0
  9.60000E+03,	1.00000E+01,	-2.75192E-02,	1.67821E+01,	2.23541E+01,	-3.40857E+00,	0.00000E+00,	0,	0
  7.51304E+03,	1.00000E+01,	-2.75192E-02,	1.76709E+01,	2.27818E+01,	-4.09134E+00,	0.00000E+00,	0,	0
  5.76000E+03,	1.00000E+01,	-2.75192E-02,	1.85581E+01,	2.33760E+01,	-4.92938E+00,	0.00000E+00,	0,	0
  4.54737E+03,	1.00000E+01,	-2.75192E-02,	1.94240E+01,	2.39682E+01,	-5.75506E+00,	0.00000E+00,	0,	0
  3.60000E+03,	1.00000E+01,	-2.75192E-02,	2.04215E+01,	2.46028E+01,	-6.71276E+00,	0.00000E+00,	0,	0
  2.88000E+03,	1.00000E+01,	-2.75192E-02,	2.13099E+01,	2.53601E+01,	-7.68133E+00,	0.00000E+00,	0,	0
  2.27368E+03,	1.00000E+01,	-2.75192E-02,	2.35779E+01,	2.62620E+01,	-8.92085E+00,	0.00000E+00,	0,	0
  1.78144E+03,	1.00000E+01,	-2.75192E-02,	2.43681E+01,	2.72428E+01,	-1.03428E+01,	0.00000E+00,	0,	0
  1.41639E+03,	1.00000E+01,	-2.75192E-02,	2.52617E+01,	2.82129E+01,	-1.19382E+01,	0.00000E+00,	0,	0
  1.12208E+03,	1.00000E+01,	-2.75192E-02,	2.63017E+01,	2.94229E+01,	-1.37933E+01,	0.00000E+00,	0,	0
  9.00000E+02,	1.00000E+01,	-2.75192E-02,	3.12837E+01,	3.08314E+01,	-1.58943E+01,	0.00000E+00,	0,	0
  7.20000E+02,	1.00000E+01,	-2.75192E-02,	3.26447E+01,	3.22140E+01,	-1.83288E+01,	0.00000E+00,	0,	0
  5.68421E+02,	1.00000E+01,	-2.75192E-02,	3.40101E+01,	3.38162E+01,	-2.13828E+01,	0.00000E+00,	0,	0
  4.40816E+02,	1.00000E+01,	-2.75192E-02,	3.54577E+01,	3.57162E+01,	-2.53496E+01,	0.00000E+00,	0,	0
  3.54098E+02,	1.00000E+01,	-2.75192E-02,	3.77994E+01,	3.75507E+01,	-2.94952E+01,	0.00000E+00,	0,	0
  2.76923E+02,	1.00000E+01,	-2.75192E-02,	4.04459E+01,	3.98014E+01,	-3.50958E+01,	0.00000E+00,	0,	0
  2.20408E+02,	1.00000E+01,	-2.75192E-02,	4.33753E+01,	4.21121E+01,	-4.14620E+01,	0.00000E+00,	0,	0
  1.74194E+02,	1.00000E+01,	-2.75192E-02,	4.66333E+01,	4.47205E+01,	-4.94731E+01,	0.00000E+00,	0,	0
  1.37580E+02,	1.00000E+01,	-2.75192E-02,	5.02999E+01,	4.76264E+01,	-5.93615E+01,	0.00000E+00,	0,	0
  1.09091E+02,	1.00000E+01,	-2.75192E-02,	5.43610E+01,	5.08160E+01,	-7.14095E+01,	0.00000E+00,	0,	0
  8.70968E+01,	1.00000E+01,	-2.75192E-02,	6.24732E+01,	5.45775E+01,	-8.61493E+01,	0.00000E+00,	0,	0
  6.83544E+01,	1.00000E+01,	-2.75192E-02,	6.75140E+01,	5.90129E+01,	-1.06032E+02,	0.00000E+00,	0,	0
  5.45455E+01,	1.00000E+01,	-2.75192E-02,	7.29590E+01,	6.37662E+01,	-1.26273E+02,	0.00000E+00,	0,	0
  4.28571E+01,	1.00000E+01,	-2.75192E-02,	7.64823E+01,	6.96686E+01,	-1.55167E+02,	0.00000E+00,	0,	0
  3.39623E+01,	1.00000E+01,	-2.75192E-02,	8.01993E+01,	7.53154E+01,	-1.89619E+02,	0.00000E+00,	0,	0
  2.68657E+01,	1.00000E+01,	-2.75192E-02,	8.40315E+01,	8.42413E+01,	-2.33564E+02,	0.00000E+00,	0,	0
  2.13439E+01,	1.00000E+01,	-2.75192E-02,	8.78299E+01,	9.49959E+01,	-2.86389E+02,	0.00000E+00,	0,	0
  1.73077E+01,	1.00000E+01,	-2.75192E-02,	9.14960E+01,	1.07023E+02,	-3.44976E+02,	0.00000E+00,	0,	0
  1.36364E+01,	1.00000E+01,	-2.75192E-02,	9.65140E+01,	1.24444E+02,	-4.26176E+02,	0.00000E+00,	0,	0
  1.07143E+01,	1.00000E+01,	-2.75192E-02,	9.94330E+01,	1.47136E+02,	-5.27556E+02,	0.00000E+00,	0,	0
  8.49057E+00,	1.00000E+01,	-2.75192E-02,	1.03628E+02,	1.75671E+02,	-6.48200E+02,	0.00000E+00,	0,	0
  6.71642E+00,	1.00000E+01,	-2.75192E-02,	1.06129E+02,	2.13052E+02,	-7.96130E+02,	0.00000E+00,	0,	0
  5.29412E+00,	1.00000E+01,	-2.75192E-02,	1.09063E+02,	2.63207E+02,	-9.78764E+02,	0.00000E+00,	0,	0
  4.16667E+00,	1.00000E+01,	-2.75192E-02,	1.12532E+02,	3.29338E+02,	-1.20287E+03,	0.00000E+00,	0,	0
  3.30882E+00,	1.00000E+01,	-2.75192E-02,	1.19073E+02,	4.11976E+02,	-1.46215E+03,	0.00000E+00,	0,	0
  2.61628E+00,	1.00000E+01,	-2.75192E-02,	1.23046E+02,	5.22122E+02,	-1.77861E+03,	0.00000E+00,	0,	0
  2.07373E+00,	1.00000E+01,	-2.75192E-02,	1.27823E+02,	6.61942E+02,	-2.15236E+03,	0.00000E+00,	0,	0
  1.64234E+00,	1.00000E+01,	-2.75192E-02,	1.33600E+02,	8.39342E+02,	-2.59549E+03,	0.00000E+00,	0,	0
  1.30058E+00,	1.00000E+01,	-2.75192E-02,	1.37780E+02,	1.06310E+03,	-3.11311E+03,	0.00000E+00,	0,	0
  1.03211E+00,	1.00000E+01,	-2.75192E-02,	1.42174E+02,	1.33951E+03,	-3.71790E+03,	0.00000E+00,	0,	0
  8.15217E-01,	1.00000E+01,	-2.75192E-02,	1.49114E+02,	1.66829E+03,	-4.42378E+03,	0.00000E+00,	0,	0
  6.46552E-01,	1.00000E+01,	-2.75192E-02,	1.53933E+02,	2.06071E+03,	-5.23880E+03,	0.00000E+00,	0,	0
  5.11364E-01,	1.00000E+01,	-2.75192E-02,	1.58958E+02,	2.43712E+03,	-6.24499E+03,	0.00000E+00,	0,	0
  4.07609E-01,	1.00000E+01,	-2.75192E-02,	1.65009E+02,	2.94158E+03,	-7.36125E+03,	0.00000E+00,	0,	0
  3.21429E-01,	1.00000E+01,	-2.75192E-02,	1.72136E+02,	3.57451E+03,	-8.87935E+03,	0.00000E+00,	0,	0
  2.54525E-01,	1.00000E+01,	-2.75192E-02,	1.80900E+02,	4.28222E+03,	-1.04970E+04,	0.00000E+00,	0,	0
  2.01613E-01,	1.00000E+01,	-2.75192E-02,	1.91722E+02,	5.06965E+03,	-1.24545E+04,	0.00000E+00,	0,	0
  1.59574E-01,	1.00000E+01,	-2.75192E-02,	2.05171E+02,	6.00008E+03,	-1.48366E+04,	0.00000E+00,	0,	0
  1.26689E-01,	1.00000E+01,	-2.75192E-02,	2.39047E+02,	7.07210E+03,	-1.74046E+04,	0.00000E+00,	0,	0
  1.00446E-01,	1.00000E+01,	-2.75192E-02,	2.59917E+02,	8.25855E+03,	-2.15794E+04,	0.00000E+00,	0,	0