Z60W Data File: Version 1.1
CorrTest for Windows: SN CS310H1805157  V5.2.1111.9  2.5H6.220118
Sweep Frequency: Control Voltage
  Date:5-8-2026   Time:16:57:00
  Begin Information:            Cell Information
      Surface Area:           1
      Density:                7.8
      Weight:                 28
  End Information:              Cell Information
  Freq (Hz)     Ampl(mV)       Bias(V)      Time(Sec)       Z'(Ohm.cm^2)    Z''(Ohm.cm^2)        GD       Err      Range
End Comments
  3.07200E+05,	1.00000E+01,	1.77160E-02,	7.02543E-02,	-1.89043E+00,	3.12548E+00,	0.00000E+00,	0,	0
  2.76480E+05,	1.00000E+01,	1.77160E-02,	1.68319E+00,	-1.27101E+00,	2.20655E+00,	0.00000E+00,	0,	0
  1.97486E+05,	1.00000E+01,	1.77160E-02,	2.57990E+00,	-3.32893E-01,	1.56273E+00,	0.00000E+00,	0,	0
  1.53600E+05,	1.00000E+01,	1.77160E-02,	3.49646E+00,	2.91759E-02,	1.14958E+00,	0.00000E+00,	0,	0
  1.25673E+05,	1.00000E+01,	1.77160E-02,	4.38802E+00,	2.12563E-01,	8.89573E-01,	0.00000E+00,	0,	0
  9.87429E+04,	1.00000E+01,	1.77160E-02,	5.28310E+00,	3.93722E-01,	6.57397E-01,	0.00000E+00,	0,	0
  7.68000E+04,	1.00000E+01,	1.77160E-02,	6.18157E+00,	5.01054E-01,	4.81508E-01,	0.00000E+00,	0,	0
  6.01043E+04,	1.00000E+01,	1.77160E-02,	9.40861E+00,	5.79114E-01,	3.01335E-01,	0.00000E+00,	0,	0
  4.93714E+04,	1.00000E+01,	1.77160E-02,	1.09931E+01,	5.97267E-01,	1.96728E-01,	0.00000E+00,	0,	0
  3.84000E+04,	1.00000E+01,	1.77160E-02,	1.19234E+01,	6.11415E-01,	7.20153E-02,	0.00000E+00,	0,	0
  3.00522E+04,	1.00000E+01,	1.77160E-02,	1.27794E+01,	6.25001E-01,	-4.20644E-02,	0.00000E+00,	0,	0
  2.38345E+04,	1.00000E+01,	1.77160E-02,	1.36479E+01,	6.38451E-01,	-1.50681E-01,	0.00000E+00,	0,	0
  1.86811E+04,	1.00000E+01,	1.77160E-02,	1.45054E+01,	6.55106E-01,	-2.67645E-01,	0.00000E+00,	0,	0
  1.47064E+04,	1.00000E+01,	1.77160E-02,	1.54664E+01,	6.73994E-01,	-3.93968E-01,	0.00000E+00,	0,	0
  1.15200E+04,	1.00000E+01,	1.77160E-02,	1.64526E+01,	6.98142E-01,	-5.39159E-01,	0.00000E+00,	0,	0
  9.60000E+03,	1.00000E+01,	1.77160E-02,	1.80428E+01,	7.18972E-01,	-6.61764E-01,	0.00000E+00,	0,	0
  7.51304E+03,	1.00000E+01,	1.77160E-02,	1.89121E+01,	7.52868E-01,	-8.54638E-01,	0.00000E+00,	0,	0
  5.76000E+03,	1.00000E+01,	1.77160E-02,	1.98137E+01,	7.99717E-01,	-1.10940E+00,	0.00000E+00,	0,	0
  4.54737E+03,	1.00000E+01,	1.77160E-02,	2.06790E+01,	8.50653E-01,	-1.38662E+00,	0.00000E+00,	0,	0
  3.60000E+03,	1.00000E+01,	1.77160E-02,	2.16700E+01,	9.14856E-01,	-1.72146E+00,	0.00000E+00,	0,	0
  2.88000E+03,	1.00000E+01,	1.77160E-02,	2.25588E+01,	9.90024E-01,	-2.11108E+00,	0.00000E+00,	0,	0
  2.27368E+03,	1.00000E+01,	1.77160E-02,	2.48512E+01,	1.08775E+00,	-2.59297E+00,	0.00000E+00,	0,	0
  1.78144E+03,	1.00000E+01,	1.77160E-02,	2.56360E+01,	1.22534E+00,	-3.22666E+00,	0.00000E+00,	0,	0
  1.41639E+03,	1.00000E+01,	1.77160E-02,	2.65444E+01,	1.39337E+00,	-3.95078E+00,	0.00000E+00,	0,	0
  1.12208E+03,	1.00000E+01,	1.77160E-02,	2.75904E+01,	1.60865E+00,	-4.85789E+00,	0.00000E+00,	0,	0
  9.00000E+02,	1.00000E+01,	1.77160E-02,	3.25954E+01,	1.88389E+00,	-5.90523E+00,	0.00000E+00,	0,	0
  7.20000E+02,	1.00000E+01,	1.77160E-02,	3.39584E+01,	2.23270E+00,	-7.15844E+00,	0.00000E+00,	0,	0
  5.68421E+02,	1.00000E+01,	1.77160E-02,	3.53305E+01,	2.70871E+00,	-8.76189E+00,	0.00000E+00,	0,	0
  4.40816E+02,	1.00000E+01,	1.77160E-02,	3.83719E+01,	3.38805E+00,	-1.08848E+01,	0.00000E+00,	0,	0
  3.54098E+02,	1.00000E+01,	1.77160E-02,	4.07111E+01,	4.13339E+00,	-1.30531E+01,	0.00000E+00,	0,	0
  2.76923E+02,	1.00000E+01,	1.77160E-02,	4.33564E+01,	5.20328E+00,	-1.59434E+01,	0.00000E+00,	0,	0
  2.20408E+02,	1.00000E+01,	1.77160E-02,	4.62769E+01,	6.45354E+00,	-1.91322E+01,	0.00000E+00,	0,	0
  1.74194E+02,	1.00000E+01,	1.77160E-02,	4.95290E+01,	8.04786E+00,	-2.29857E+01,	0.00000E+00,	0,	0
  1.37580E+02,	1.00000E+01,	1.77160E-02,	5.32009E+01,	1.00064E+01,	-2.75298E+01,	0.00000E+00,	0,	0
  1.09091E+02,	1.00000E+01,	1.77160E-02,	5.72676E+01,	1.23085E+01,	-3.27840E+01,	0.00000E+00,	0,	0
  8.70968E+01,	1.00000E+01,	1.77160E-02,	6.29610E+01,	1.49202E+01,	-3.87959E+01,	0.00000E+00,	0,	0
  6.83544E+01,	1.00000E+01,	1.77160E-02,	6.79822E+01,	1.82429E+01,	-4.66325E+01,	0.00000E+00,	0,	0
  5.45455E+01,	1.00000E+01,	1.77160E-02,	7.34669E+01,	2.19102E+01,	-5.41634E+01,	0.00000E+00,	0,	0
  4.28571E+01,	1.00000E+01,	1.77160E-02,	7.69998E+01,	2.63149E+01,	-6.45589E+01,	0.00000E+00,	0,	0
  3.39623E+01,	1.00000E+01,	1.77160E-02,	8.07254E+01,	3.07107E+01,	-7.65086E+01,	0.00000E+00,	0,	0
  2.68657E+01,	1.00000E+01,	1.77160E-02,	8.45721E+01,	3.65623E+01,	-9.12712E+01,	0.00000E+00,	0,	0
  2.13439E+01,	1.00000E+01,	1.77160E-02,	8.83849E+01,	4.31150E+01,	-1.08450E+02,	0.00000E+00,	0,	0
  1.73077E+01,	1.00000E+01,	1.77160E-02,	9.50568E+01,	4.99521E+01,	-1.27220E+02,	0.00000E+00,	0,	0
  1.36364E+01,	1.00000E+01,	1.77160E-02,	1.00090E+02,	5.85712E+01,	-1.52389E+02,	0.00000E+00,	0,	0
  1.07143E+01,	1.00000E+01,	1.77160E-02,	1.02997E+02,	6.84149E+01,	-1.83252E+02,	0.00000E+00,	0,	0
  8.49057E+00,	1.00000E+01,	1.77160E-02,	1.07201E+02,	7.90069E+01,	-2.19568E+02,	0.00000E+00,	0,	0
  6.71642E+00,	1.00000E+01,	1.77160E-02,	1.09715E+02,	9.08958E+01,	-2.64075E+02,	0.00000E+00,	0,	0
  5.29412E+00,	1.00000E+01,	1.77160E-02,	1.12655E+02,	1.04229E+02,	-3.19481E+02,	0.00000E+00,	0,	0
  4.16667E+00,	1.00000E+01,	1.77160E-02,	1.16143E+02,	1.18848E+02,	-3.88535E+02,	0.00000E+00,	0,	0
  3.30882E+00,	1.00000E+01,	1.77160E-02,	1.20367E+02,	1.34134E+02,	-4.70671E+02,	0.00000E+00,	0,	0
  2.61628E+00,	1.00000E+01,	1.77160E-02,	1.24336E+02,	1.51084E+02,	-5.74400E+02,	0.00000E+00,	0,	0
  2.07373E+00,	1.00000E+01,	1.77160E-02,	1.29114E+02,	1.69193E+02,	-7.02462E+02,	0.00000E+00,	0,	0
  1.64234E+00,	1.00000E+01,	1.77160E-02,	1.34898E+02,	1.88911E+02,	-8.63283E+02,	0.00000E+00,	0,	0
  1.30058E+00,	1.00000E+01,	1.77160E-02,	1.39060E+02,	2.11635E+02,	-1.06454E+03,	0.00000E+00,	0,	0
  1.03211E+00,	1.00000E+01,	1.77160E-02,	1.43466E+02,	2.37503E+02,	-1.31470E+03,	0.00000E+00,	0,	0
  8.15217E-01,	1.00000E+01,	1.77160E-02,	1.50425E+02,	2.68978E+02,	-1.63339E+03,	0.00000E+00,	0,	0
  6.46552E-01,	1.00000E+01,	1.77160E-02,	1.59548E+02,	3.00994E+02,	-2.01420E+03,	0.00000E+00,	0,	0
  5.11364E-01,	1.00000E+01,	1.77160E-02,	1.64560E+02,	3.45030E+02,	-2.52037E+03,	0.00000E+00,	0,	0
  4.07609E-01,	1.00000E+01,	1.77160E-02,	1.70618E+02,	4.02097E+02,	-3.11972E+03,	0.00000E+00,	0,	0
  3.21429E-01,	1.00000E+01,	1.77160E-02,	1.77768E+02,	4.72626E+02,	-3.91913E+03,	0.00000E+00,	0,	0
  2.54525E-01,	1.00000E+01,	1.77160E-02,	1.86534E+02,	5.69949E+02,	-4.87856E+03,	0.00000E+00,	0,	0
  2.01613E-01,	1.00000E+01,	1.77160E-02,	1.97435E+02,	6.88951E+02,	-6.07459E+03,	0.00000E+00,	0,	0
  1.59574E-01,	1.00000E+01,	1.77160E-02,	2.10895E+02,	8.40568E+02,	-7.56830E+03,	0.00000E+00,	0,	0
  1.26689E-01,	1.00000E+01,	1.77160E-02,	2.27829E+02,	1.03697E+03,	-9.39257E+03,	0.00000E+00,	0,	0
  1.00446E-01,	1.00000E+01,	1.77160E-02,	2.48699E+02,	1.28367E+03,	-1.16890E+04,	0.00000E+00,	0,	0