EXPLAIN
TAG	EISPOT
TITLE	LABEL	Potentiostatic EIS	Test Identifier
DATE	LABEL	8/10/2020	Date
TIME	LABEL	1:53:58	Time
NOTES	NOTES	1	Notes...
	
PSTAT	PSTAT	REF3000-16137	Potentiostat
VDC	POTEN	0.00000E+000	T	DC Voltage (V)
FREQINIT	QUANT	3.00000E+005	Initial Freq. (Hz)
FREQFINAL	QUANT	1.00000E+000	Final Freq. (Hz)
PTSPERDEC	QUANT	1.00000E+001	Points/decade
VAC	QUANT	5.00000E+001	AC Voltage (mV rms)
AREA	QUANT	1.00000E+000	Sample Area (cm^2)
SPEED	SELECTOR	2	Optimize for:
ZGUESS	QUANT	1.00000E+003	Estimated Z (ohms)
EOC	QUANT	0	Open Circuit (V)
SEQUENCER	TOGGLE	TRUE	Run as Sequence
PSTATMODEL	IQUANT	5	Pstat Model
PSTATSECTION	LABEL	REF3000-16137	Pstat Section
PSTATSERIALNO	LABEL	16137	Pstat Serial Number
CTRLMODE	IQUANT	1	Control Mode
IESTAB	IQUANT	0	I/E Stability
CASPEED	IQUANT	1	Control Amp Speed
CONVENTION	IQUANT	1	Current Convention
ICHRANGE	IQUANT	2	Ich Range
ICHRANGEMODE	TOGGLE	F	Ich Auto Range
ICHOFFSETENABLE	TOGGLE	T	Ich Offset Enable
ICHOFFSET	QUANT	0	Ich Offset (V)
ICHFILTER	IQUANT	3	Ich Filter
VCHRANGE	IQUANT	2	Vch Range
VCHRANGEMODE	TOGGLE	F	Vch Auto Range
VCHOFFSETENABLE	TOGGLE	T	Vch Offset Enable
VCHOFFSET	QUANT	0	Vch Offset (V)
VCHFILTER	IQUANT	3	Vch Filter
ACHRANGE	IQUANT	2	Ach Range
ACHOFFSETENABLE	TOGGLE	F	Ach Offset Enable
ACHOFFSET	QUANT	0	Ach Offset (V)
ACHFILTER	IQUANT	3	Ach Filter
IERANGELOWERLIMIT	IQUANT	2	I/E Range Lower Limit
IERANGEMODE	TOGGLE	F	I/E AutoRange
IERANGE	IQUANT	11	I/E Range
POSFEEDENABLE	TOGGLE	F	Positive Feedback IR Comp
POSFEEDRESISTANCE	QUANT	0	Positive Feedback Resistance (ohm)
ACHSELECT	IQUANT	0	Ach Select
CABLEID	IQUANT	13	Cable ID
DCCALDATE	LABEL	7/31/2020	DC Calibration Date
ACCALDATE	LABEL	7/31/2020	AC Calibration Date
THERMOSELECT	IQUANT	1	Thermo Select
FRAMEWORKVERSION	QUANT	6.33	Framework Version
INSTRUMENTVERSION	LABEL	3.50	Instrument Version
COMPLIANCEVOLTAGE	IQUANT	0	Compliance Voltage
ZCURVE	TABLE
	Pt	Time	Freq	Zreal	Zimag	Zsig	Zmod	Zphz	Idc	Vdc	IERange
	#	s	Hz	ohm	ohm	V	ohm	°	A	V	#
	0	28	300046.9	262.4171	-4265.106	1	4273.171	-86.47923	-1.643834E-005	0.0016974	9
	1	42	238359.4	675.1938	-5014.915	1	5060.164	-82.33197	-3.037078E-005	-0.0011824	9
	2	56	189328.1	624.6296	-6508.059	1	6537.965	-84.51766	4.982947E-005	0.0001587	9
	3	66	150421.9	746.5361	-8145.341	1	8179.48	-84.76336	2.936064E-005	-0.0015309	9
	4	74	119484.4	1533.032	-9880.97	1	9999.19	-81.18088	2.327992E-005	-0.0150653	8
	5	82	94921.88	1610.12	-12364.12	1	12468.52	-82.5804	2.969062E-005	-0.0008573	9
	6	90	75421.88	2402.625	-15256.17	1	15444.2	-81.05025	2.672758E-005	-0.0054363	8
	7	98	59859.37	2323.925	-18557.58	1	18702.53	-82.86214	-2.00512E-005	0.0114781	8
	8	107	47578.12	4352.784	-23639.1	1	24036.51	-79.56671	7.869494E-006	-0.0078061	8
	9	114	37828.12	9188.151	-29606.55	1	30999.52	-72.7587	-5.384708E-006	0.0038809	7
	10	122	30046.88	11396.93	-36539.76	1	38275.89	-72.67704	6.576369E-007	0.0153461	7
	11	129	23859.38	14549.61	-44760.35	1	47065.7	-71.99294	-6.858443E-006	0.0123287	7
	12	135	18984.38	19339.88	-54261.67	1	57605.2	-70.38298	4.966405E-006	-0.0008581	7
	13	140	15046.87	25923.68	-65146.36	1	70114.8	-68.30091	-6.545337E-006	0.0260293	7
	14	145	11953.13	34214.25	-79568.1	1	86612.34	-66.73232	-6.545143E-006	0.0259868	7
	15	151	9515.62	45102.84	-93378.72	1	103700.8	-64.219	1.231339E-006	-0.0197996	7
	16	156	7546.875	63005.71	-108556.8	1	125516.1	-59.86937	6.842317E-006	-0.0271586	7
	17	161	5928.309	82856.78	-128420.1	1	152829.9	-57.16986	3.371018E-006	-0.024312	7
	18	168	4733.456	108142.6	-146964.5	1	182464.7	-53.65282	-5.25527E-006	0.0265892	7
	19	173	3796.875	138010	-148727.6	1	202895.8	-47.14059	6.893021E-006	-0.0274141	7
	20	178	2987.132	175432.5	-179206.3	1	250781.7	-45.60967	-1.211987E-006	-0.0130136	7
	21	185	2390.625	226776.6	-151384.7	1	272662.7	-33.72508	6.074832E-007	-0.0076142	6
	22	190	1884.191	261607.2	-216547.2	1	339604.2	-39.61649	7.572852E-006	-0.0186342	7
	23	197	1516.544	245423.6	-259382.2	1	357088.1	-46.5839	-9.966037E-006	-0.0020915	8
	24	205	1193.986	253594.9	-124335.5	1	282435.3	-26.11834	5.30687E-006	-0.0269113	7
	25	212	946.5144	174883.7	120164.3	1	212188.1	34.49334	2.599824E-005	-0.0051174	8
	26	218	751.7689	218518.1	-201207.9	1	297043.4	-42.63837	-3.867776E-006	0.0258368	7
	27	223	597.4265	143556.2	-83072.43	1	165859.6	-30.0569	-2.021941E-005	0.0115565	8
	28	229	477.4305	448296.3	-106650.6	1	460807.9	-13.38202	-9.976744E-008	0.0006648	7
	29	233	376.6741	466348.7	-84474.67	1	473937.9	-10.26726	-9.95156E-009	0.0006602	6
	30	236	298.2954	499915.9	-31107.22	1	500882.8	-3.560634	-1.629123E-009	0.0006018	5
	31	238	237.7717	504867.8	-25171.37	1	505494.9	-2.854253	-1.57396E-009	0.0007025	5
	32	240	189.0121	512149.6	-21308.68	1	512592.7	-2.382494	-1.630725E-009	0.0006951	5
	33	243	150.2404	520488.7	-17053.79	1	520768	-1.876622	-1.445583E-009	0.0006903	5
	34	246	119.1737	520191.7	-18740.72	1	520529.1	-2.063278	-1.373285E-009	0.000604	5
	35	248	95.0169	537340.1	-13880.88	1	537519.3	-1.479769	-1.453896E-009	0.0006788	5
	36	251	75.60484	545564.5	-12137.84	1	545699.5	-1.274518	-1.435623E-009	0.0006849	5
	37	253	54.50582	552292.5	-13292.53	1	552452.4	-1.378724	-1.363667E-009	0.0006826	5
	38	256	45.95588	565028.5	-8044.026	1	565085.8	-0.815636	-1.425851E-009	0.000677	5
	39	258	37.20238	573780.5	-7076.967	1	573824.1	-0.7066462	-1.273576E-009	0.0006277	5
	40	261	30.04808	582028.3	-6529.222	1	582064.9	-0.6427199	-1.408107E-009	0.0005993	5
	41	263	23.91582	592264.1	-6100.264	1	592295.6	-0.5901201	-1.428599E-009	0.000644	5
	42	266	18.60119	604850.6	-5225.784	1	604873.1	-0.4950114	-1.201125E-009	0.0006851	5
	43	269	15.02404	611797.4	-4957.764	1	611817.4	-0.4642922	-1.201034E-009	0.0006301	5
	44	271	12.01923	621552.8	-4741.13	1	621570.9	-0.4370369	-1.305388E-009	0.0006139	5
	45	274	9.450605	632281.6	-4646.143	1	632298.7	-0.4210142	-1.431953E-009	0.0006395	5
	46	276	7.512019	643500.4	-4587.891	1	643516.8	-0.4084882	-1.622803E-009	0.0006753	5
	47	279	5.978954	658566.1	-4918.245	1	658584.5	-0.4278833	-1.289432E-009	0.0006031	5
	48	283	4.734848	675169.3	-5286.391	1	675190	-0.4486011	-1.620139E-009	0.0007059	5
	49	287	3.75601	695477.3	-6003.241	1	695503.2	-0.4945551	-1.882817E-009	0.0006297	5
	50	293	3.004808	722819.4	-6966.952	1	722852.9	-0.5522329	-1.71225E-009	0.0006758	5
	51	299	2.372217	747760.4	-7756.632	1	747800.6	-0.5943165	-1.666216E-009	0.0006684	5
	52	303	1.878005	770297	-9414.179	1	770354.5	-0.700205	-1.908187E-009	0.0006358	5
	53	308	1.512097	796555.8	-10953.39	1	796631.1	-0.7878214	-1.817754E-009	0.0005863	5
	54	313	1.201923	827292.6	-13745.56	1	827406.8	-0.951889	-1.7156E-009	0.0006266	5
	55	319	0.956633	863362.8	-16576.58	1	863521.9	-1.099945	-2.471642E-009	2.570963E-006	5
