EXPLAIN
TAG	EISPOT
TITLE	LABEL	Potentiostatic EIS	Test Identifier
DATE	LABEL	8/10/2020	Date
TIME	LABEL	1:35:32	Time
NOTES	NOTES	1	Notes...
	
PSTAT	PSTAT	REF3000-16137	Potentiostat
VDC	POTEN	0.00000E+000	T	DC Voltage (V)
FREQINIT	QUANT	3.00000E+005	Initial Freq. (Hz)
FREQFINAL	QUANT	1.00000E+000	Final Freq. (Hz)
PTSPERDEC	QUANT	1.00000E+001	Points/decade
VAC	QUANT	5.00000E+001	AC Voltage (mV rms)
AREA	QUANT	1.00000E+000	Sample Area (cm^2)
SPEED	SELECTOR	2	Optimize for:
ZGUESS	QUANT	1.00000E+003	Estimated Z (ohms)
EOC	QUANT	0	Open Circuit (V)
SEQUENCER	TOGGLE	TRUE	Run as Sequence
PSTATMODEL	IQUANT	5	Pstat Model
PSTATSECTION	LABEL	REF3000-16137	Pstat Section
PSTATSERIALNO	LABEL	16137	Pstat Serial Number
CTRLMODE	IQUANT	1	Control Mode
IESTAB	IQUANT	0	I/E Stability
CASPEED	IQUANT	1	Control Amp Speed
CONVENTION	IQUANT	1	Current Convention
ICHRANGE	IQUANT	2	Ich Range
ICHRANGEMODE	TOGGLE	F	Ich Auto Range
ICHOFFSETENABLE	TOGGLE	T	Ich Offset Enable
ICHOFFSET	QUANT	0	Ich Offset (V)
ICHFILTER	IQUANT	3	Ich Filter
VCHRANGE	IQUANT	2	Vch Range
VCHRANGEMODE	TOGGLE	F	Vch Auto Range
VCHOFFSETENABLE	TOGGLE	T	Vch Offset Enable
VCHOFFSET	QUANT	0	Vch Offset (V)
VCHFILTER	IQUANT	3	Vch Filter
ACHRANGE	IQUANT	2	Ach Range
ACHOFFSETENABLE	TOGGLE	F	Ach Offset Enable
ACHOFFSET	QUANT	0	Ach Offset (V)
ACHFILTER	IQUANT	3	Ach Filter
IERANGELOWERLIMIT	IQUANT	2	I/E Range Lower Limit
IERANGEMODE	TOGGLE	F	I/E AutoRange
IERANGE	IQUANT	11	I/E Range
POSFEEDENABLE	TOGGLE	F	Positive Feedback IR Comp
POSFEEDRESISTANCE	QUANT	0	Positive Feedback Resistance (ohm)
ACHSELECT	IQUANT	0	Ach Select
CABLEID	IQUANT	13	Cable ID
DCCALDATE	LABEL	7/31/2020	DC Calibration Date
ACCALDATE	LABEL	7/31/2020	AC Calibration Date
THERMOSELECT	IQUANT	1	Thermo Select
FRAMEWORKVERSION	QUANT	6.33	Framework Version
INSTRUMENTVERSION	LABEL	3.50	Instrument Version
COMPLIANCEVOLTAGE	IQUANT	0	Compliance Voltage
ZCURVE	TABLE
	Pt	Time	Freq	Zreal	Zimag	Zsig	Zmod	Zphz	Idc	Vdc	IERange
	#	s	Hz	ohm	ohm	V	ohm	°	A	V	#
	0	14	300046.9	1194.963	-467.1211	1	1283.019	-21.35095	-8.751006E-005	0.0041071	9
	1	38	238359.4	1292.503	-436.9803	1	1364.373	-18.67981	-8.615556E-005	0.0040346	9
	2	52	189328.1	1393.798	-391.0049	1	1447.604	-15.6705	-6.271736E-005	0.0006829	9
	3	58	150421.9	1471.011	-347.187	1	1511.427	-13.27988	2.753772E-005	0.0010225	9
	4	68	119484.4	1552.565	-250.828	1	1572.696	-9.177248	5.775872E-006	-0.0141953	8
	5	74	94921.88	1590.613	-211.6836	1	1604.637	-7.580553	2.112326E-005	-0.0031181	8
	6	78	75421.88	1626.846	-176.7349	1	1636.418	-6.200099	-2.074161E-005	0.0051399	8
	7	81	59859.37	1655.204	-149.2498	1	1661.92	-5.152426	-9.961636E-006	-0.0011035	8
	8	85	47578.12	1686.583	-124.5969	1	1691.179	-4.225071	-2.228323E-005	0.0071134	8
	9	90	37828.12	1717.686	-104.5039	1	1720.862	-3.481579	2.22597E-005	-0.0077279	8
	10	95	30046.88	1745.022	-87.16966	1	1747.198	-2.859737	-2.270209E-005	0.0071079	8
	11	99	23859.38	1776.308	-80.13789	1	1778.115	-2.583139	-3.832087E-006	-0.0034418	8
	12	103	18984.38	1796.719	-61.17505	1	1797.76	-1.950065	-9.787358E-006	-0.0011334	8
	13	107	15046.87	1822.091	-55.03418	1	1822.922	-1.730028	4.09257E-006	-0.0058637	8
	14	111	11953.13	1848.119	-42.33939	1	1848.604	-1.312385	-2.269909E-005	0.0071236	8
	15	115	9515.62	1869.987	-38.01375	1	1870.374	-1.164568	-2.549381E-006	-0.003834	8
	16	118	7546.875	1897.98	-31.91758	1	1898.248	-0.96343	2.39788E-005	-0.0068726	8
	17	122	5928.309	1918.642	-25.9645	1	1918.818	-0.775322	-2.139889E-005	0.0052274	8
	18	126	4733.456	1941.566	-25.54695	1	1941.734	-0.753849	-1.576062E-005	0.0097449	8
	19	130	3796.875	1973.615	-22.1303	1	1973.739	-0.6424353	-2.359172E-005	0.0087581	8
	20	135	2987.132	2001.337	-18.56398	1	2001.423	-0.5314484	2.147179E-005	-0.0030098	8
	21	139	2390.625	2061.655	-8.257669	1	2061.671	-0.229489	5.447355E-006	-0.0059948	8
	22	143	1884.191	2064.121	-18.9169	1	2064.207	-0.5250798	-2.323705E-005	0.0071593	8
	23	148	1516.544	2089.844	-17.80419	1	2089.92	-0.488113	-2.171142E-005	0.0053201	8
	24	152	1193.986	2125.981	-18.85159	1	2126.064	-0.5080423	1.669729E-005	-0.0002728	8
	25	156	946.5144	2137.512	-27.22489	1	2137.686	-0.7297206	-2.896183E-006	-0.0038237	8
	26	159	751.7689	2168.938	-19.29147	1	2169.024	-0.5095999	-1.556846E-005	0.0098189	8
	27	162	597.4265	2166.769	-32.67342	1	2167.015	-0.8639165	-1.57447E-005	0.0098347	8
	28	164	477.4305	2207.779	-30.96819	1	2207.996	-0.8036268	-3.114449E-007	0.0006911	8
	29	166	376.6741	2226.03	-36.67859	1	2226.333	-0.9439846	-2.831833E-007	0.0006366	8
	30	169	298.2954	2244.821	-44.01201	1	2245.253	-1.123198	-3.023571E-007	0.0006773	8
	31	171	237.7717	2264.521	-52.93084	1	2265.139	-1.338986	-2.833991E-007	0.0006331	8
	32	174	189.0121	2284.426	-64.25655	1	2285.329	-1.611197	-2.774773E-007	0.0006487	8
	33	176	150.2404	2305.227	-78.87753	1	2306.576	-1.959715	-3.101994E-007	0.0006585	8
	34	178	119.1737	2326.328	-96.1711	1	2328.315	-2.367276	-2.877304E-007	0.00063	8
	35	181	95.0169	2348.109	-117.8139	1	2351.063	-2.872346	-2.796047E-007	0.0006328	8
	36	183	75.60484	2372.504	-144.6599	1	2376.91	-3.489204	-3.007861E-007	0.000654	8
	37	186	54.50582	2401.058	-194.5559	1	2408.927	-4.632511	-2.985268E-007	0.0006499	8
	38	188	45.95588	2426.3	-226.6759	1	2436.865	-5.337337	-2.03991E-007	0.000637	8
	39	191	37.20238	2452.844	-275.9378	1	2468.316	-6.418622	-1.918323E-007	0.0006895	8
	40	193	30.04808	2483.35	-334.5061	1	2505.778	-7.671541	-2.643259E-007	0.0006363	8
	41	196	23.91582	2517.316	-412.0187	1	2550.812	-9.2954	-3.162797E-007	0.0006388	8
	42	198	18.60119	2561.033	-521.0228	1	2613.495	-11.49946	2.399226E-008	0.0006452	8
	43	200	15.02404	2596.971	-619.9329	1	2669.939	-13.42603	-1.259905E-007	0.0006549	8
	44	203	12.01923	2647.035	-758.8806	1	2753.669	-15.99711	-1.583826E-007	0.0006532	8
	45	205	9.450605	2706.618	-942.3875	1	2865.986	-19.19704	-2.674854E-007	0.0006479	8
	46	207	7.512019	2775.187	-1155.188	1	3006.015	-22.59981	-3.301317E-007	0.0006448	8
	47	210	5.978954	2856.706	-1404.979	1	3183.51	-26.18878	-2.348999E-007	0.0006365	8
	48	213	4.734848	2958.019	-1719.614	1	3421.542	-30.17114	-2.777802E-007	0.0006753	8
	49	216	3.75601	3075.893	-2099.739	1	3724.248	-34.31916	-3.172903E-007	0.000645	8
	50	220	3.004808	3216.91	-2550.566	1	4105.35	-38.40957	-8.73463E-008	0.000684	7
	51	224	2.372217	3386.319	-3121.724	1	4605.683	-42.67183	-5.49239E-008	0.0006884	7
	52	228	1.878005	3572.028	-3826.528	1	5234.663	-46.97012	-8.119139E-008	0.0005927	7
	53	232	1.512097	3781.136	-4611.427	1	5963.409	-50.64999	-6.269445E-008	0.0006398	7
	54	238	1.201923	4053.829	-5656.153	1	6958.85	-54.3704	-7.310567E-008	0.0005819	7
	55	244	0.956633	4376.959	-6918.636	1	8186.898	-57.68119	-8.094009E-008	-2.005477E-005	7
