EXPLAIN
TAG	EISPOT
TITLE	LABEL	Potentiostatic EIS	Test Identifier
DATE	LABEL	8/10/2020	Date
TIME	LABEL	0:44:02	Time
NOTES	NOTES	1	Notes...
	
PSTAT	PSTAT	REF3000-16137	Potentiostat
VDC	POTEN	0.00000E+000	T	DC Voltage (V)
FREQINIT	QUANT	3.00000E+005	Initial Freq. (Hz)
FREQFINAL	QUANT	1.00000E+000	Final Freq. (Hz)
PTSPERDEC	QUANT	1.00000E+001	Points/decade
VAC	QUANT	5.00000E+001	AC Voltage (mV rms)
AREA	QUANT	1.00000E+000	Sample Area (cm^2)
SPEED	SELECTOR	2	Optimize for:
ZGUESS	QUANT	1.00000E+003	Estimated Z (ohms)
EOC	QUANT	0	Open Circuit (V)
SEQUENCER	TOGGLE	TRUE	Run as Sequence
PSTATMODEL	IQUANT	5	Pstat Model
PSTATSECTION	LABEL	REF3000-16137	Pstat Section
PSTATSERIALNO	LABEL	16137	Pstat Serial Number
CTRLMODE	IQUANT	1	Control Mode
IESTAB	IQUANT	0	I/E Stability
CASPEED	IQUANT	1	Control Amp Speed
CONVENTION	IQUANT	1	Current Convention
ICHRANGE	IQUANT	2	Ich Range
ICHRANGEMODE	TOGGLE	F	Ich Auto Range
ICHOFFSETENABLE	TOGGLE	T	Ich Offset Enable
ICHOFFSET	QUANT	0	Ich Offset (V)
ICHFILTER	IQUANT	3	Ich Filter
VCHRANGE	IQUANT	2	Vch Range
VCHRANGEMODE	TOGGLE	F	Vch Auto Range
VCHOFFSETENABLE	TOGGLE	T	Vch Offset Enable
VCHOFFSET	QUANT	0	Vch Offset (V)
VCHFILTER	IQUANT	3	Vch Filter
ACHRANGE	IQUANT	2	Ach Range
ACHOFFSETENABLE	TOGGLE	F	Ach Offset Enable
ACHOFFSET	QUANT	0	Ach Offset (V)
ACHFILTER	IQUANT	3	Ach Filter
IERANGELOWERLIMIT	IQUANT	2	I/E Range Lower Limit
IERANGEMODE	TOGGLE	F	I/E AutoRange
IERANGE	IQUANT	11	I/E Range
POSFEEDENABLE	TOGGLE	F	Positive Feedback IR Comp
POSFEEDRESISTANCE	QUANT	0	Positive Feedback Resistance (ohm)
ACHSELECT	IQUANT	0	Ach Select
CABLEID	IQUANT	13	Cable ID
DCCALDATE	LABEL	7/31/2020	DC Calibration Date
ACCALDATE	LABEL	7/31/2020	AC Calibration Date
THERMOSELECT	IQUANT	1	Thermo Select
FRAMEWORKVERSION	QUANT	6.33	Framework Version
INSTRUMENTVERSION	LABEL	3.50	Instrument Version
COMPLIANCEVOLTAGE	IQUANT	0	Compliance Voltage
ZCURVE	TABLE
	Pt	Time	Freq	Zreal	Zimag	Zsig	Zmod	Zphz	Idc	Vdc	IERange
	#	s	Hz	ohm	ohm	V	ohm	°	A	V	#
	0	8	300046.9	9.55876	-0.7866753	1	9.59108	-4.704774	1.248878E-005	0.0003194	10
	1	11	238359.4	9.7915	-1.398588	1	9.89088	-8.128969	3.441356E-005	0.00029	10
	2	15	189328.1	10.05399	-1.997045	1	10.25041	-11.23456	-8.348735E-005	0.0005454	10
	3	17	150421.9	10.36338	-2.635327	1	10.6932	-14.26747	7.25096E-005	0.0003321	10
	4	20	119484.4	10.7179	-3.286555	1	11.21048	-17.04772	-2.80642E-005	0.0006061	10
	5	22	94921.88	11.13597	-3.986942	1	11.82817	-19.69857	-2.181337E-005	0.0007319	10
	6	25	75421.88	11.60396	-4.800931	1	12.5579	-22.47645	-2.515256E-005	0.000696	10
	7	27	59859.37	12.15847	-5.691524	1	13.42468	-25.08484	-2.093648E-005	0.0006963	10
	8	30	47578.12	12.79772	-6.65343	1	14.42393	-27.46954	-1.24247E-005	0.000692	10
	9	32	37828.12	13.51195	-7.761752	1	15.58261	-29.87461	-7.349901E-007	0.0007232	10
	10	35	30046.88	14.31885	-9.019668	1	16.92288	-32.20747	2.49094E-005	0.0006812	10
	11	37	23859.38	15.22854	-10.44167	1	18.46448	-34.43707	3.384612E-006	0.0006362	10
	12	40	18984.38	16.21404	-12.08906	1	20.22474	-36.70792	2.136303E-006	0.0006385	10
	13	42	15046.87	17.30515	-14.04786	1	22.28925	-39.06877	-1.685742E-005	0.0006942	10
	14	44	11953.13	18.49373	-16.40377	1	24.72048	-41.57274	1.926308E-005	0.0006358	10
	15	47	9515.62	19.80121	-19.08672	1	27.50256	-43.94741	-1.726909E-005	0.0006989	10
	16	49	7546.875	21.24684	-22.47773	1	30.93019	-46.6125	2.151197E-005	0.0006241	10
	17	51	5928.309	22.92877	-26.79	1	35.26234	-49.44076	-2.703064E-005	0.0006969	10
	18	54	4733.456	24.76814	-31.65835	1	40.19592	-51.96189	-3.989392E-006	0.0006427	10
	19	56	3796.875	26.84066	-37.38796	1	46.02478	-54.3256	2.632572E-006	-5.098E-007	9
	20	58	2987.132	29.54107	-45.13073	1	53.93939	-56.79258	7.462362E-006	-0.0001167	9
	21	61	2390.625	32.69784	-53.74454	1	62.90965	-58.68393	-4.293478E-006	0.0001634	9
	22	63	1884.191	36.78356	-65.13659	1	74.80511	-60.54596	-6.138484E-006	0.0002764	9
	23	65	1516.544	41.67027	-77.38673	1	87.89265	-61.69896	9.376816E-006	-0.0001439	9
	24	68	1193.986	48.3744	-93.57451	1	105.3388	-62.66278	1.070406E-005	-0.0001073	9
	25	70	946.5144	56.62075	-112.6295	1	126.0607	-63.31055	9.059421E-006	-0.0001421	9
	26	72	751.7689	67.81012	-133.9165	1	150.1061	-63.14412	-1.150575E-006	5.775586E-005	9
	27	75	597.4265	81.55429	-159.5875	1	179.2185	-62.93151	-7.415178E-006	0.0002996	9
	28	77	477.4305	99.0821	-187.8206	1	212.3531	-62.18674	7.666752E-007	7.899177E-005	9
	29	79	376.6741	122.2055	-221.9002	1	253.3257	-61.15742	7.185876E-007	7.791565E-005	9
	30	82	298.2954	151.2305	-259.0381	1	299.9523	-59.72295	8.603762E-007	8.58061E-005	9
	31	84	237.7717	185.9903	-298.71	1	351.8807	-58.09175	8.946241E-007	7.604619E-005	9
	32	86	189.0121	228.0729	-339.7791	1	409.2274	-56.12895	-3.861607E-007	0.0006608	8
	33	89	150.2404	279.8203	-382.7418	1	474.121	-53.82967	-3.195555E-007	0.0006502	8
	34	91	119.1737	341.2433	-425.023	1	545.061	-51.23965	-4.274766E-007	0.0006506	8
	35	94	95.0169	410.0556	-462.2878	1	617.9446	-48.42654	-3.252606E-007	0.0006508	8
	36	96	75.60484	486.9259	-497.9139	1	696.4302	-45.63924	-3.280661E-007	0.0006508	8
	37	99	54.50582	608.6846	-543.8543	1	816.2564	-41.78051	-2.335361E-007	0.0006489	8
	38	101	45.95588	675.6583	-560.5922	1	877.9395	-39.68242	-5.583206E-007	0.0006629	8
	39	103	37.20238	765.8583	-589.8303	1	966.664	-37.60188	-9.738452E-008	0.0006555	8
	40	106	30.04808	857.9625	-608.288	1	1051.719	-35.33631	-1.186192E-007	0.0006479	8
	41	108	23.91582	960.254	-626.742	1	1146.688	-33.13183	-3.543133E-008	0.0006529	8
	42	111	18.60119	1061.077	-630.383	1	1234.207	-30.71444	-9.945184E-007	0.0006599	8
	43	113	15.02404	1159.589	-642.7526	1	1325.812	-28.99932	-4.402921E-007	0.0006493	8
	44	115	12.01923	1250.752	-642.699	1	1406.216	-27.19637	-9.176757E-007	0.0006487	8
	45	118	9.450605	1341.778	-646.4045	1	1489.364	-25.72255	-6.755304E-007	0.0006678	8
	46	120	7.512019	1412.456	-651.5639	1	1555.496	-24.76381	-7.52038E-007	0.0006539	8
	47	123	5.978954	1488.772	-668.7986	1	1632.095	-24.19097	-3.666532E-007	0.0006548	8
	48	126	4.734848	1554.097	-697.2496	1	1703.342	-24.16352	-1.292389E-007	0.0006605	8
	49	129	3.75601	1603.643	-743.5726	1	1767.646	-24.87607	-2.980722E-007	0.0006556	8
	50	133	3.004808	1656.408	-812.7493	1	1845.061	-26.13579	-1.412552E-007	0.0006823	8
	51	136	2.372217	1688.025	-916.4141	1	1920.74	-28.49716	-2.17168E-007	0.0006249	8
	52	141	1.878005	1745.807	-1058.051	1	2041.4	-31.21805	-1.577142E-007	0.0006586	8
	53	145	1.512097	1813.562	-1229.096	1	2190.818	-34.12647	-1.340368E-007	0.0005448	8
	54	151	1.201923	1888.26	-1467.674	1	2391.567	-37.8566	-1.166234E-007	0.0006672	8
	55	157	0.956633	2007.168	-1756.753	1	2667.378	-41.19371	-1.491722E-007	1.11853E-005	8
