EXPLAIN
TAG	EISPOT
TITLE	LABEL	Potentiostatic EIS	Test Identifier
DATE	LABEL	8/10/2020	Date
TIME	LABEL	0:02:02	Time
NOTES	NOTES	1	Notes...
	
PSTAT	PSTAT	REF3000-16137	Potentiostat
VDC	POTEN	0.00000E+000	T	DC Voltage (V)
FREQINIT	QUANT	3.00000E+005	Initial Freq. (Hz)
FREQFINAL	QUANT	1.00000E+000	Final Freq. (Hz)
PTSPERDEC	QUANT	1.00000E+001	Points/decade
VAC	QUANT	5.00000E+001	AC Voltage (mV rms)
AREA	QUANT	1.00000E+000	Sample Area (cm^2)
SPEED	SELECTOR	2	Optimize for:
ZGUESS	QUANT	1.00000E+003	Estimated Z (ohms)
EOC	QUANT	0	Open Circuit (V)
SEQUENCER	TOGGLE	TRUE	Run as Sequence
PSTATMODEL	IQUANT	5	Pstat Model
PSTATSECTION	LABEL	REF3000-16137	Pstat Section
PSTATSERIALNO	LABEL	16137	Pstat Serial Number
CTRLMODE	IQUANT	1	Control Mode
IESTAB	IQUANT	0	I/E Stability
CASPEED	IQUANT	1	Control Amp Speed
CONVENTION	IQUANT	1	Current Convention
ICHRANGE	IQUANT	2	Ich Range
ICHRANGEMODE	TOGGLE	F	Ich Auto Range
ICHOFFSETENABLE	TOGGLE	T	Ich Offset Enable
ICHOFFSET	QUANT	0	Ich Offset (V)
ICHFILTER	IQUANT	3	Ich Filter
VCHRANGE	IQUANT	2	Vch Range
VCHRANGEMODE	TOGGLE	F	Vch Auto Range
VCHOFFSETENABLE	TOGGLE	T	Vch Offset Enable
VCHOFFSET	QUANT	0	Vch Offset (V)
VCHFILTER	IQUANT	3	Vch Filter
ACHRANGE	IQUANT	2	Ach Range
ACHOFFSETENABLE	TOGGLE	F	Ach Offset Enable
ACHOFFSET	QUANT	0	Ach Offset (V)
ACHFILTER	IQUANT	3	Ach Filter
IERANGELOWERLIMIT	IQUANT	2	I/E Range Lower Limit
IERANGEMODE	TOGGLE	F	I/E AutoRange
IERANGE	IQUANT	11	I/E Range
POSFEEDENABLE	TOGGLE	F	Positive Feedback IR Comp
POSFEEDRESISTANCE	QUANT	0	Positive Feedback Resistance (ohm)
ACHSELECT	IQUANT	0	Ach Select
CABLEID	IQUANT	13	Cable ID
DCCALDATE	LABEL	7/31/2020	DC Calibration Date
ACCALDATE	LABEL	7/31/2020	AC Calibration Date
THERMOSELECT	IQUANT	1	Thermo Select
FRAMEWORKVERSION	QUANT	6.33	Framework Version
INSTRUMENTVERSION	LABEL	3.50	Instrument Version
COMPLIANCEVOLTAGE	IQUANT	0	Compliance Voltage
ZCURVE	TABLE
	Pt	Time	Freq	Zreal	Zimag	Zsig	Zmod	Zphz	Idc	Vdc	IERange
	#	s	Hz	ohm	ohm	V	ohm	°	A	V	#
	0	9	300046.9	3.075478	-0.2225468	1	3.083519	-4.138805	-6.151531E-005	-0.0006651	12
	1	14	238359.4	3.204048	-0.3585155	1	3.224044	-6.384527	-6.399392E-005	-3.104301E-005	11
	2	17	189328.1	3.330857	-0.8099556	1	3.42792	-13.6672	-0.0001457	0.0001071	11
	3	19	150421.9	3.483022	-1.242794	1	3.698105	-19.63716	-0.0000991	0.0004761	11
	4	22	119484.4	3.678686	-1.672466	1	4.041024	-24.44829	-0.0001248	0.0005783	10
	5	25	94921.88	3.89325	-2.118027	1	4.432091	-28.54732	-1.465219E-006	0.0005802	10
	6	27	75421.88	4.12023	-2.634351	1	4.890409	-32.59362	-3.548817E-005	0.0006175	10
	7	30	59859.37	4.375399	-3.195225	1	5.417894	-36.13956	-2.878727E-006	0.0006619	10
	8	32	47578.12	4.656219	-3.845816	1	6.039095	-39.55509	6.290826E-006	0.0006567	10
	9	35	37828.12	4.983234	-4.581759	1	6.769427	-42.59651	-2.216204E-005	0.0007222	10
	10	37	30046.88	5.355842	-5.456706	1	7.645958	-45.53447	9.881884E-006	0.0006767	10
	11	40	23859.38	5.777014	-6.499893	1	8.69612	-48.36975	-8.310461E-006	0.0006619	10
	12	42	18984.38	6.25518	-7.718677	1	9.93505	-50.97885	-2.36577E-005	0.000721	10
	13	44	15046.87	6.826406	-9.226452	1	11.47725	-53.50325	-3.261718E-005	0.0006717	10
	14	47	11953.13	7.514363	-10.97473	1	13.30077	-55.60069	-2.849487E-005	0.0007532	10
	15	49	9515.62	8.323884	-13.07668	1	15.50118	-57.52145	-1.303049E-005	0.0006777	10
	16	51	7546.875	9.305039	-15.66909	1	18.22372	-59.29617	6.710901E-006	0.0006536	10
	17	54	5928.309	10.52915	-18.93837	1	21.66852	-60.92729	-3.433491E-005	0.0006801	10
	18	56	4733.456	11.97192	-22.55401	1	25.5345	-62.04014	1.186601E-005	0.00065	10
	19	58	3796.875	13.68099	-26.82198	1	30.1096	-62.97539	1.395861E-005	0.0006434	10
	20	61	2987.132	16.08919	-32.23059	1	36.02323	-63.47208	6.47288E-006	0.0006517	10
	21	63	2390.625	18.83195	-38.17833	1	42.57026	-63.74459	-7.77214E-006	2.05679E-005	9
	22	65	1884.191	22.55908	-45.66153	1	50.93022	-63.70833	-4.964455E-006	1.871653E-005	9
	23	68	1516.544	26.85342	-53.62672	1	59.97442	-63.40072	-3.83547E-006	-4.587851E-006	9
	24	70	1193.986	32.69739	-63.73033	1	71.62872	-62.83952	-1.413216E-005	0.0001263	9
	25	72	946.5144	39.82258	-75.16893	1	85.0659	-62.0865	-1.598917E-005	0.0001841	9
	26	75	751.7689	48.69406	-87.79695	1	100.3963	-60.98632	-1.492637E-005	0.0001396	9
	27	77	597.4265	59.62573	-101.7048	1	117.8945	-59.61851	-5.160596E-006	1.524792E-005	9
	28	79	477.4305	72.34583	-116.8437	1	137.4277	-58.23556	-9.463483E-006	7.828005E-005	9
	29	82	376.6741	88.54075	-134.1087	1	160.7004	-56.56656	-9.458188E-006	7.007705E-005	9
	30	84	298.2954	107.4352	-152.3141	1	186.3918	-54.80264	-9.430588E-006	8.022439E-005	9
	31	86	237.7717	128.7512	-170.955	1	214.0152	-53.01553	-9.34847E-006	7.938327E-005	9
	32	89	189.0121	153.5402	-190.6761	1	244.8101	-51.15757	-9.327113E-006	7.633356E-005	9
	33	91	150.2404	181.6955	-211.2203	1	278.6167	-49.29729	-9.139909E-006	7.749864E-005	9
	34	94	119.1737	213.8281	-232.5715	1	315.9304	-47.40432	-9.147129E-006	7.192919E-005	9
	35	96	95.0169	249.1051	-253.8392	1	355.6511	-45.5393	-9.145904E-006	7.097349E-005	9
	36	98	75.60484	289.2283	-275.3271	1	399.322	-43.58949	-9.058569E-006	6.672078E-005	9
	37	101	54.50582	352.9059	-303.2677	1	465.3105	-40.67394	-1.016999E-005	0.0006617	8
	38	104	45.95588	390.5227	-316.6211	1	502.7493	-39.03384	-1.032239E-005	0.0006706	8
	39	106	37.20238	440.0126	-330.817	1	550.5007	-36.93714	-1.030213E-005	0.0006726	8
	40	108	30.04808	492.7152	-341.2811	1	599.3672	-34.70856	-1.027162E-005	0.0006598	8
	41	111	23.91582	550.1378	-347.6335	1	650.7693	-32.28889	-9.987665E-006	0.0006616	8
	42	113	18.60119	612.1538	-349.8563	1	705.0757	-29.7487	-9.756121E-006	0.0006662	8
	43	115	15.02404	661.2437	-347.4227	1	746.9576	-27.71779	-1.004403E-005	0.0006721	8
	44	118	12.01923	708.9301	-345.233	1	788.5225	-25.96504	-1.005343E-005	0.000729	8
	45	120	9.450605	754.5805	-344.9586	1	829.6916	-24.56764	-1.024284E-005	0.0006565	8
	46	123	7.512019	795.7858	-349.7412	1	869.249	-23.72509	-1.050804E-005	0.0006556	8
	47	125	5.978954	836.2716	-358.4708	1	909.8635	-23.20257	-1.032529E-005	0.0006709	8
	48	128	4.734848	879.9813	-375.284	1	956.664	-23.0967	-1.056348E-005	0.0006414	8
	49	132	3.75601	927.0385	-396.1133	1	1008.12	-23.13648	-1.02977E-005	0.0006785	8
	50	135	3.004808	979.255	-420.7666	1	1065.826	-23.25224	-1.025811E-005	0.0006499	8
	51	139	2.372217	1043.409	-447.6985	1	1135.402	-23.22286	-1.024561E-005	0.000595	8
	52	143	1.878005	1116.663	-474.8145	1	1213.419	-23.0356	-1.002553E-005	0.000663	8
	53	148	1.512097	1192.722	-494.9012	1	1291.322	-22.53523	-9.914454E-006	0.0006239	8
	54	153	1.201923	1283.525	-508.4052	1	1380.548	-21.60855	-9.77298E-006	0.0006888	8
	55	159	0.956633	1376.135	-510.4803	1	1467.767	-20.35244	-1.007292E-005	2.968277E-005	8
