EXPLAIN
TAG	EISPOT
TITLE	LABEL	Potentiostatic EIS	Test Identifier
DATE	LABEL	8/10/2020	Date
TIME	LABEL	0:55:06	Time
NOTES	NOTES	1	Notes...
	
PSTAT	PSTAT	REF3000-16137	Potentiostat
VDC	POTEN	0.00000E+000	T	DC Voltage (V)
FREQINIT	QUANT	3.00000E+005	Initial Freq. (Hz)
FREQFINAL	QUANT	1.00000E+000	Final Freq. (Hz)
PTSPERDEC	QUANT	1.00000E+001	Points/decade
VAC	QUANT	5.00000E+001	AC Voltage (mV rms)
AREA	QUANT	1.00000E+000	Sample Area (cm^2)
SPEED	SELECTOR	2	Optimize for:
ZGUESS	QUANT	1.00000E+003	Estimated Z (ohms)
EOC	QUANT	0	Open Circuit (V)
SEQUENCER	TOGGLE	TRUE	Run as Sequence
PSTATMODEL	IQUANT	5	Pstat Model
PSTATSECTION	LABEL	REF3000-16137	Pstat Section
PSTATSERIALNO	LABEL	16137	Pstat Serial Number
CTRLMODE	IQUANT	1	Control Mode
IESTAB	IQUANT	0	I/E Stability
CASPEED	IQUANT	1	Control Amp Speed
CONVENTION	IQUANT	1	Current Convention
ICHRANGE	IQUANT	2	Ich Range
ICHRANGEMODE	TOGGLE	F	Ich Auto Range
ICHOFFSETENABLE	TOGGLE	T	Ich Offset Enable
ICHOFFSET	QUANT	0	Ich Offset (V)
ICHFILTER	IQUANT	3	Ich Filter
VCHRANGE	IQUANT	2	Vch Range
VCHRANGEMODE	TOGGLE	F	Vch Auto Range
VCHOFFSETENABLE	TOGGLE	T	Vch Offset Enable
VCHOFFSET	QUANT	0	Vch Offset (V)
VCHFILTER	IQUANT	3	Vch Filter
ACHRANGE	IQUANT	2	Ach Range
ACHOFFSETENABLE	TOGGLE	F	Ach Offset Enable
ACHOFFSET	QUANT	0	Ach Offset (V)
ACHFILTER	IQUANT	3	Ach Filter
IERANGELOWERLIMIT	IQUANT	2	I/E Range Lower Limit
IERANGEMODE	TOGGLE	F	I/E AutoRange
IERANGE	IQUANT	11	I/E Range
POSFEEDENABLE	TOGGLE	F	Positive Feedback IR Comp
POSFEEDRESISTANCE	QUANT	0	Positive Feedback Resistance (ohm)
ACHSELECT	IQUANT	0	Ach Select
CABLEID	IQUANT	13	Cable ID
DCCALDATE	LABEL	7/31/2020	DC Calibration Date
ACCALDATE	LABEL	7/31/2020	AC Calibration Date
THERMOSELECT	IQUANT	1	Thermo Select
FRAMEWORKVERSION	QUANT	6.33	Framework Version
INSTRUMENTVERSION	LABEL	3.50	Instrument Version
COMPLIANCEVOLTAGE	IQUANT	0	Compliance Voltage
ZCURVE	TABLE
	Pt	Time	Freq	Zreal	Zimag	Zsig	Zmod	Zphz	Idc	Vdc	IERange
	#	s	Hz	ohm	ohm	V	ohm	°	A	V	#
	0	8	300046.9	17.6385	-1.465633	1	17.69929	-4.749958	-1.47891E-005	0.0004166	10
	1	11	238359.4	17.9807	-2.150964	1	18.1089	-6.821662	-6.893029E-006	0.0002186	10
	2	14	189328.1	18.3447	-2.865849	1	18.5672	-8.879104	7.364307E-005	0.0001853	10
	3	17	150421.9	18.76767	-3.620766	1	19.11374	-10.91967	2.350326E-005	0.0005821	10
	4	19	119484.4	19.22743	-4.409225	1	19.72652	-12.91573	2.488483E-005	0.0005865	10
	5	22	94921.88	19.78638	-5.280655	1	20.47892	-14.943	-2.384169E-005	0.0006951	10
	6	24	75421.88	20.41354	-6.294413	1	21.36193	-17.13689	6.680853E-006	0.0006027	10
	7	27	59859.37	21.16033	-7.411769	1	22.42083	-19.30369	-2.655275E-005	0.0007328	10
	8	29	47578.12	22.01967	-8.676102	1	23.66729	-21.50524	-2.423456E-005	0.0007602	10
	9	32	37828.12	23.01701	-10.12967	1	25.14742	-23.75405	1.645515E-005	0.0006371	10
	10	34	30046.88	24.14754	-11.74552	1	26.85258	-25.9386	-1.249627E-005	0.0007353	10
	11	37	23859.38	25.44953	-13.60704	1	28.85879	-28.13197	2.224793E-005	0.0006202	10
	12	39	18984.38	26.91872	-15.66683	1	31.1459	-30.19962	-1.163479E-005	0.0007387	10
	13	42	15046.87	28.59358	-18.10043	1	33.84108	-32.33481	-1.689961E-007	0.0007336	10
	14	44	11953.13	30.44555	-20.90304	1	36.93059	-34.47237	-2.519508E-006	0.0006246	10
	15	46	9515.62	32.4703	-23.98725	1	40.36965	-36.45492	1.412498E-005	-0.0001908	9
	16	49	7546.875	34.73732	-27.81422	1	44.5007	-38.68431	-8.95774E-006	0.0002851	9
	17	51	5928.309	37.3475	-32.48256	1	49.497	-41.01474	9.929563E-006	-0.0002479	9
	18	53	4733.456	40.0535	-37.74959	1	55.03921	-43.30385	1.234798E-005	-0.0002771	9
	19	56	3796.875	43.02858	-43.85743	1	61.44048	-45.54655	4.254652E-006	0.0001647	9
	20	58	2987.132	46.77847	-51.94799	1	69.90578	-47.99739	-9.672497E-006	0.0003462	9
	21	60	2390.625	50.78481	-61.09567	1	79.44669	-50.26548	1.303037E-007	0.000304	9
	22	62	1884.191	56.12102	-72.96934	1	92.05483	-52.43597	-1.006676E-005	0.000353	9
	23	65	1516.544	62.19794	-85.73479	1	105.92	-54.04028	2.261536E-006	-8.967242E-005	9
	24	67	1193.986	70.50774	-102.877	1	124.7198	-55.57484	1.383319E-005	-0.0002692	9
	25	70	946.5144	81.06707	-122.6776	1	147.043	-56.54271	-2.64619E-006	1.509954E-005	9
	26	72	751.7689	94.78572	-145.1169	1	173.3298	-56.84871	-7.636853E-006	0.0004106	9
	27	74	597.4265	112.2836	-170.5966	1	204.2322	-56.64781	-1.031807E-005	0.0003462	9
	28	77	477.4305	134.0884	-199.4235	1	240.3111	-56.08389	1.269933E-006	7.820213E-005	9
	29	79	376.6741	164.0683	-230.8892	1	283.2458	-54.60266	1.288752E-006	7.091904E-005	9
	30	81	298.2954	200.2232	-265.1423	1	332.2496	-52.94159	1.309427E-006	8.073654E-005	9
	31	84	237.7717	243.4486	-296.5939	1	383.7124	-50.62035	1.315454E-006	7.556607E-005	9
	32	86	189.0121	293.3949	-324.9788	1	437.8262	-47.92388	1.267752E-007	0.0006639	8
	33	88	150.2404	351.015	-353.91	1	498.4615	-45.2353	1.139651E-007	0.0006539	8
	34	91	119.1737	414.2653	-373.9574	1	558.0859	-42.07257	2.367383E-007	0.0006552	8
	35	93	95.0169	478.1257	-386.5998	1	614.8688	-38.95809	1.658721E-007	0.0007147	8
	36	96	75.60484	542.954	-395.2244	1	671.5663	-36.05144	6.187923E-008	0.0007084	8
	37	98	54.50582	626.5052	-393.6647	1	739.9194	-32.14321	1.047082E-007	0.0006441	8
	38	101	45.95588	674.688	-401.5566	1	785.1443	-30.76	1.324128E-007	0.0006534	8
	39	103	37.20238	724.6982	-404.0777	1	829.7386	-29.14319	-9.636933E-008	0.0006606	8
	40	105	30.04808	767.397	-404.642	1	867.5444	-27.80231	1.975721E-007	0.0006627	8
	41	108	23.91582	812.6882	-414.5167	1	912.2972	-27.02414	1.146022E-007	0.0006552	8
	42	110	18.60119	868.2728	-437.6262	1	972.324	-26.74898	8.89431E-007	0.0006573	8
	43	112	15.02404	909.7721	-459.8159	1	1019.37	-26.81289	2.270236E-007	0.0006558	8
	44	115	12.01923	953.091	-492.044	1	1072.609	-27.30555	4.333367E-009	0.0006594	8
	45	117	9.450605	1003.943	-539.1503	1	1139.554	-28.23726	4.276038E-007	0.0006637	8
	46	120	7.512019	1053.869	-594.6141	1	1210.044	-29.43256	5.811625E-007	0.0006778	8
	47	122	5.978954	1100.718	-659.4449	1	1283.14	-30.92601	3.549156E-007	0.0006529	8
	48	125	4.734848	1139.672	-740.3375	1	1359.026	-33.008	4.006256E-007	0.0006853	8
	49	129	3.75601	1207.547	-844.9503	1	1473.809	-34.98141	2.644186E-007	0.0006495	8
	50	132	3.004808	1250.78	-969.281	1	1582.389	-37.77356	2.212288E-007	0.0006889	8
	51	136	2.372217	1316.25	-1135.021	1	1738.041	-40.77167	3.400971E-007	0.0007234	8
	52	140	1.878005	1369.717	-1345.601	1	1920.096	-44.49115	3.183193E-007	0.0006331	8
	53	145	1.512097	1434.565	-1591.146	1	2142.364	-47.96241	3.272726E-007	0.0007494	8
	54	150	1.201923	1519.97	-1920.217	1	2448.988	-51.6362	3.207506E-007	0.0006235	8
	55	157	0.956633	1638.359	-2327.045	1	2845.937	-54.85249	2.54991E-007	8.001125E-006	8
