EXPLAIN
TAG	EISPOT
TITLE	LABEL	Potentiostatic EIS	Test Identifier
DATE	LABEL	8/10/2020	Date
TIME	LABEL	1:19:59	Time
NOTES	NOTES	1	Notes...
	
PSTAT	PSTAT	REF3000-16137	Potentiostat
VDC	POTEN	0.00000E+000	T	DC Voltage (V)
FREQINIT	QUANT	3.00000E+005	Initial Freq. (Hz)
FREQFINAL	QUANT	1.00000E+000	Final Freq. (Hz)
PTSPERDEC	QUANT	1.00000E+001	Points/decade
VAC	QUANT	5.00000E+001	AC Voltage (mV rms)
AREA	QUANT	1.00000E+000	Sample Area (cm^2)
SPEED	SELECTOR	2	Optimize for:
ZGUESS	QUANT	1.00000E+003	Estimated Z (ohms)
EOC	QUANT	0	Open Circuit (V)
SEQUENCER	TOGGLE	TRUE	Run as Sequence
PSTATMODEL	IQUANT	5	Pstat Model
PSTATSECTION	LABEL	REF3000-16137	Pstat Section
PSTATSERIALNO	LABEL	16137	Pstat Serial Number
CTRLMODE	IQUANT	1	Control Mode
IESTAB	IQUANT	0	I/E Stability
CASPEED	IQUANT	1	Control Amp Speed
CONVENTION	IQUANT	1	Current Convention
ICHRANGE	IQUANT	2	Ich Range
ICHRANGEMODE	TOGGLE	F	Ich Auto Range
ICHOFFSETENABLE	TOGGLE	T	Ich Offset Enable
ICHOFFSET	QUANT	0	Ich Offset (V)
ICHFILTER	IQUANT	3	Ich Filter
VCHRANGE	IQUANT	2	Vch Range
VCHRANGEMODE	TOGGLE	F	Vch Auto Range
VCHOFFSETENABLE	TOGGLE	T	Vch Offset Enable
VCHOFFSET	QUANT	0	Vch Offset (V)
VCHFILTER	IQUANT	3	Vch Filter
ACHRANGE	IQUANT	2	Ach Range
ACHOFFSETENABLE	TOGGLE	F	Ach Offset Enable
ACHOFFSET	QUANT	0	Ach Offset (V)
ACHFILTER	IQUANT	3	Ach Filter
IERANGELOWERLIMIT	IQUANT	2	I/E Range Lower Limit
IERANGEMODE	TOGGLE	F	I/E AutoRange
IERANGE	IQUANT	11	I/E Range
POSFEEDENABLE	TOGGLE	F	Positive Feedback IR Comp
POSFEEDRESISTANCE	QUANT	0	Positive Feedback Resistance (ohm)
ACHSELECT	IQUANT	0	Ach Select
CABLEID	IQUANT	13	Cable ID
DCCALDATE	LABEL	7/31/2020	DC Calibration Date
ACCALDATE	LABEL	7/31/2020	AC Calibration Date
THERMOSELECT	IQUANT	1	Thermo Select
FRAMEWORKVERSION	QUANT	6.33	Framework Version
INSTRUMENTVERSION	LABEL	3.50	Instrument Version
COMPLIANCEVOLTAGE	IQUANT	0	Compliance Voltage
ZCURVE	TABLE
	Pt	Time	Freq	Zreal	Zimag	Zsig	Zmod	Zphz	Idc	Vdc	IERange
	#	s	Hz	ohm	ohm	V	ohm	°	A	V	#
	0	7	300046.9	145.0078	-4.563848	1	145.0797	-1.802681	1.072162E-005	0.0008875	9
	1	11	238359.4	146.3466	-4.581715	1	146.4183	-1.79319	4.996481E-005	-0.0005033	9
	2	14	189328.1	147.3508	-4.838991	1	147.4303	-1.880913	-1.499938E-005	0.0012228	9
	3	16	150421.9	148.7275	-4.694865	1	148.8016	-1.80805	9.082099E-006	0.0011293	9
	4	19	119484.4	149.9407	-4.770054	1	150.0166	-1.822132	7.50479E-005	-0.0021892	9
	5	21	94921.88	151.1638	-5.024162	1	151.2473	-1.903612	-2.284088E-005	0.0006584	9
	6	24	75421.88	152.528	-5.558203	1	152.6293	-2.086966	-2.018223E-005	0.0004698	9
	7	26	59859.37	154.0164	-6.058848	1	154.1355	-2.252796	-2.245923E-005	0.0006986	9
	8	29	47578.12	155.4363	-6.626899	1	155.5775	-2.44128	-1.963571E-005	0.0008836	9
	9	32	37828.12	156.9619	-7.217849	1	157.1277	-2.632876	-1.987354E-005	0.0009154	9
	10	34	30046.88	158.7164	-7.957473	1	158.9158	-2.870201	6.9483E-006	-0.0005931	9
	11	37	23859.38	160.4947	-8.431335	1	160.716	-3.007179	1.047727E-006	0.0006247	9
	12	39	18984.38	162.4638	-9.358472	1	162.7332	-3.296789	2.547754E-005	-0.0002706	9
	13	41	15046.87	164.7101	-10.12293	1	165.0209	-3.516921	-7.296829E-006	0.0008629	9
	14	44	11953.13	166.6639	-10.98495	1	167.0256	-3.770953	1.517963E-005	0.0001492	9
	15	46	9515.62	169.1032	-11.67957	1	169.5061	-3.951013	-7.692265E-006	0.0008685	9
	16	48	7546.875	171.2259	-12.1538	1	171.6567	-4.060108	-2.108188E-005	0.0005418	9
	17	51	5928.309	174.6796	-12.88239	1	175.154	-4.217854	-1.518916E-005	0.0001561	9
	18	53	4733.456	176.998	-13.66527	1	177.5247	-4.414808	2.372588E-005	-0.0002381	9
	19	55	3796.875	179.7017	-13.9821	1	180.2448	-4.449065	-2.001314E-005	0.0008951	9
	20	57	2987.132	182.2581	-14.50239	1	182.8342	-4.549476	2.018125E-005	-9.249274E-005	9
	21	60	2390.625	185.1222	-14.95933	1	185.7257	-4.61991	1.834921E-005	-0.0008075	9
	22	62	1884.191	187.0442	-15.34641	1	187.6727	-4.690438	2.483884E-005	-0.0007255	9
	23	64	1516.544	190.3234	-16.49915	1	191.0372	-4.954591	2.60714E-005	-0.000447	9
	24	67	1193.986	192.3352	-17.86742	1	193.1633	-5.307392	-2.130701E-005	0.0005165	9
	25	69	946.5144	194.534	-19.06065	1	195.4656	-5.596041	-1.556272E-005	0.0009332	9
	26	72	751.7689	197.2609	-20.9822	1	198.3737	-6.071594	-7.671312E-006	0.000845	9
	27	74	597.4265	199.6799	-23.24224	1	201.028	-6.639208	2.391321E-005	-0.0002541	9
	28	76	477.4305	202.4131	-26.42426	1	204.1306	-7.437687	1.200753E-006	8.219486E-005	9
	29	79	376.6741	204.9652	-30.48411	1	207.2197	-8.459488	1.235212E-006	7.933912E-005	9
	30	81	298.2954	206.6385	-35.37041	1	209.6438	-9.71321	1.235473E-006	7.019002E-005	9
	31	83	237.7717	209.9893	-41.62646	1	214.0753	-11.21246	1.219643E-006	8.205065E-005	9
	32	86	189.0121	212.6989	-49.30903	1	218.3396	-13.05206	1.292436E-006	7.81988E-005	9
	33	88	150.2404	216.1434	-58.87511	1	224.0185	-15.23708	1.26327E-006	7.018101E-005	9
	34	90	119.1737	219.8564	-70.75544	1	230.9614	-17.83951	1.253277E-006	7.277886E-005	9
	35	93	95.0169	223.8865	-84.99779	1	239.4782	-20.7891	1.278626E-006	7.400893E-005	9
	36	95	75.60484	229.553	-102.6648	1	251.465	-24.096	1.220407E-006	7.305649E-005	9
	37	98	54.50582	237.6119	-134.8683	1	273.2195	-29.57921	1.263811E-006	6.191003E-005	9
	38	100	45.95588	242.8068	-155.7992	1	288.4935	-32.68663	1.273434E-006	6.934536E-005	9
	39	103	37.20238	249.3838	-186.5083	1	311.4123	-36.79195	1.258568E-006	7.903831E-005	9
	40	105	30.04808	258.063	-224.1353	1	341.8086	-40.97528	1.30704E-006	6.387281E-005	9
	41	108	23.91582	268.4735	-273.1848	1	383.0247	-45.49833	1.261107E-006	0.0001231	9
	42	110	18.60119	280.2607	-338.9558	1	439.8148	-50.41485	1.750724E-007	0.0006475	8
	43	112	15.02404	294.4073	-409.1852	1	504.0915	-54.26512	1.882754E-007	0.0006556	8
	44	115	12.01923	312.1519	-498.5007	1	588.1681	-57.94596	1.255328E-007	0.0006507	8
	45	117	9.450605	336.9859	-617.0928	1	703.1096	-61.36165	-2.516521E-008	0.0006594	8
	46	119	7.512019	367.6949	-756.9453	1	841.5259	-64.0913	6.033034E-008	0.000632	8
	47	122	5.978954	406.2794	-926.8113	1	1011.95	-66.32915	3.34174E-008	0.0006542	8
	48	125	4.734848	458.8307	-1139.772	1	1228.66	-68.07207	7.638738E-008	0.0006451	8
	49	129	3.75601	524.9649	-1398.219	1	1493.521	-69.42123	3.279487E-008	0.0006535	8
	50	132	3.004808	608.4216	-1697.784	1	1803.509	-70.28424	8.019186E-008	0.0006804	8
	51	136	2.372217	722.1111	-2080.564	1	2202.315	-70.85941	6.025635E-008	0.0006189	8
	52	140	1.878005	874.9055	-2539.778	1	2686.249	-70.99213	4.083749E-008	0.000651	8
	53	145	1.512097	1051.641	-3044.166	1	3220.698	-70.94195	8.534744E-008	0.0005503	8
	54	150	1.201923	1287.667	-3675.801	1	3894.817	-70.69418	6.473066E-008	0.0006689	8
	55	156	0.956633	1576.831	-4423.951	1	4696.566	-70.38239	-3.302949E-008	-1.690895E-005	7
