EXPLAIN
TAG	EISPOT
TITLE	LABEL	Potentiostatic EIS	Test Identifier
DATE	LABEL	8/10/2020	Date
TIME	LABEL	1:28:43	Time
NOTES	NOTES	1	Notes...
	
PSTAT	PSTAT	REF3000-16137	Potentiostat
VDC	POTEN	0.00000E+000	T	DC Voltage (V)
FREQINIT	QUANT	3.00000E+005	Initial Freq. (Hz)
FREQFINAL	QUANT	1.00000E+000	Final Freq. (Hz)
PTSPERDEC	QUANT	1.00000E+001	Points/decade
VAC	QUANT	5.00000E+001	AC Voltage (mV rms)
AREA	QUANT	1.00000E+000	Sample Area (cm^2)
SPEED	SELECTOR	2	Optimize for:
ZGUESS	QUANT	1.00000E+003	Estimated Z (ohms)
EOC	QUANT	0	Open Circuit (V)
SEQUENCER	TOGGLE	TRUE	Run as Sequence
PSTATMODEL	IQUANT	5	Pstat Model
PSTATSECTION	LABEL	REF3000-16137	Pstat Section
PSTATSERIALNO	LABEL	16137	Pstat Serial Number
CTRLMODE	IQUANT	1	Control Mode
IESTAB	IQUANT	0	I/E Stability
CASPEED	IQUANT	1	Control Amp Speed
CONVENTION	IQUANT	1	Current Convention
ICHRANGE	IQUANT	2	Ich Range
ICHRANGEMODE	TOGGLE	F	Ich Auto Range
ICHOFFSETENABLE	TOGGLE	T	Ich Offset Enable
ICHOFFSET	QUANT	0	Ich Offset (V)
ICHFILTER	IQUANT	3	Ich Filter
VCHRANGE	IQUANT	2	Vch Range
VCHRANGEMODE	TOGGLE	F	Vch Auto Range
VCHOFFSETENABLE	TOGGLE	T	Vch Offset Enable
VCHOFFSET	QUANT	0	Vch Offset (V)
VCHFILTER	IQUANT	3	Vch Filter
ACHRANGE	IQUANT	2	Ach Range
ACHOFFSETENABLE	TOGGLE	F	Ach Offset Enable
ACHOFFSET	QUANT	0	Ach Offset (V)
ACHFILTER	IQUANT	3	Ach Filter
IERANGELOWERLIMIT	IQUANT	2	I/E Range Lower Limit
IERANGEMODE	TOGGLE	F	I/E AutoRange
IERANGE	IQUANT	11	I/E Range
POSFEEDENABLE	TOGGLE	F	Positive Feedback IR Comp
POSFEEDRESISTANCE	QUANT	0	Positive Feedback Resistance (ohm)
ACHSELECT	IQUANT	0	Ach Select
CABLEID	IQUANT	13	Cable ID
DCCALDATE	LABEL	7/31/2020	DC Calibration Date
ACCALDATE	LABEL	7/31/2020	AC Calibration Date
THERMOSELECT	IQUANT	1	Thermo Select
FRAMEWORKVERSION	QUANT	6.33	Framework Version
INSTRUMENTVERSION	LABEL	3.50	Instrument Version
COMPLIANCEVOLTAGE	IQUANT	0	Compliance Voltage
ZCURVE	TABLE
	Pt	Time	Freq	Zreal	Zimag	Zsig	Zmod	Zphz	Idc	Vdc	IERange
	#	s	Hz	ohm	ohm	V	ohm	°	A	V	#
	0	10	300046.9	437.4119	-50.78905	1	440.3506	-6.623106	-4.42789E-006	-0.0018892	9
	1	18	238359.4	449.8003	-45.12571	1	452.0582	-5.728965	2.372233E-005	-0.001971	9
	2	28	189328.1	461.1287	-37.57965	1	462.6574	-4.65902	8.762445E-005	-0.0025473	9
	3	35	150421.9	472.0495	-33.58294	1	473.2426	-4.069329	2.459289E-005	-0.0017955	9
	4	44	119484.4	480.242	-11.80885	1	480.3871	-1.408584	5.278588E-006	-0.0040688	8
	5	47	94921.88	484.0755	-8.470489	1	484.1496	-1.002475	8.23719E-006	-0.0050518	8
	6	50	75421.88	487.1384	-8.251977	1	487.2083	-0.97048	-1.572207E-005	0.0053573	8
	7	52	59859.37	489.9912	-7.325303	1	490.0459	-0.8565005	-1.361522E-005	0.0068771	8
	8	55	47578.12	493.4024	-7.04778	1	493.4528	-0.8183596	1.207565E-005	-0.0054655	8
	9	57	37828.12	496.7043	-6.556599	1	496.7476	-0.7562721	-1.148984E-005	0.0015605	8
	10	60	30046.88	500.2324	-6.018011	1	500.2686	-0.6892597	-1.242992E-005	0.0018891	8
	11	62	23859.38	505.3251	-6.497574	1	505.3669	-0.7366803	2.542828E-007	-0.0032825	8
	12	65	18984.38	508.3235	-6.498493	1	508.365	-0.732439	5.292535E-006	-0.0043283	8
	13	67	15046.87	510.2494	-4.327409	1	510.2678	-0.485912	-8.0591E-006	-4.162081E-005	8
	14	70	11953.13	516.3157	-6.08245	1	516.3516	-0.6749409	1.544871E-005	-0.0054352	8
	15	72	9515.62	518.1917	-6.215443	1	518.229	-0.6872004	-1.222321E-005	0.0017827	8
	16	74	7546.875	521.064	-6.319116	1	521.1024	-0.6948109	-9.088189E-006	-0.0001347	8
	17	77	5928.309	525.9999	-6.536338	1	526.0405	-0.7119493	1.089485E-006	0.0043087	8
	18	79	4733.456	529.8238	-8.346764	1	529.8895	-0.9025543	1.310787E-005	-0.0005433	8
	19	81	3796.875	535.655	-7.958324	1	535.7142	-0.8511912	-1.631831E-005	0.0054702	8
	20	84	2987.132	538.6807	-8.103105	1	538.7416	-0.8618068	1.511357E-005	-0.005389	8
	21	86	2390.625	541.7829	-10.68243	1	541.8882	-1.129565	7.272957E-006	0.0020704	8
	22	88	1884.191	545.4276	-9.230412	1	545.5057	-0.969539	-7.617915E-006	-0.0003162	8
	23	91	1516.544	549.4373	-10.98668	1	549.5471	-1.145547	1.694338E-005	-0.0035101	8
	24	93	1193.986	553.3987	-14.66202	1	553.5929	-1.517668	-1.417073E-005	0.007158	8
	25	96	946.5144	557.4157	-17.70306	1	557.6968	-1.819055	-1.473721E-005	0.0030041	8
	26	98	751.7689	564.6681	-18.43327	1	564.9689	-1.869724	1.288898E-005	-0.0058014	8
	27	101	597.4265	568.3907	-21.8399	1	568.8101	-2.200456	1.760093E-005	-0.0050303	8
	28	103	477.4305	571.5646	-25.61942	1	572.1385	-2.566469	-1.022356E-007	0.0006538	8
	29	105	376.6741	575.9485	-30.74578	1	576.7686	-3.055712	-8.878188E-008	0.0006269	8
	30	108	298.2954	580.3986	-37.10886	1	581.5837	-3.658333	-1.307484E-007	0.0006646	8
	31	110	237.7717	585.2637	-44.84415	1	586.9792	-4.381564	-1.228886E-007	0.0006659	8
	32	112	189.0121	590.7371	-54.5996	1	593.2549	-5.28063	-1.16212E-007	0.0006539	8
	33	115	150.2404	596.4565	-66.63785	1	600.1674	-6.374815	-1.139074E-007	0.0006558	8
	34	117	119.1737	602.4225	-81.68806	1	607.9357	-7.722167	-1.30166E-007	0.0006492	8
	35	120	95.0169	608.818	-99.8232	1	616.9473	-9.311493	-7.428781E-008	0.0006313	8
	36	122	75.60484	616.9417	-122.2934	1	628.9457	-11.21212	-9.770166E-008	0.0006364	8
	37	125	54.50582	629.0491	-163.3899	1	649.9224	-14.56032	-1.621459E-007	0.0006975	8
	38	127	45.95588	638.1884	-189.9138	1	665.8466	-16.57209	-4.054223E-008	0.0006362	8
	39	130	37.20238	649.8065	-228.6913	1	688.8746	-19.38888	-5.692002E-008	0.0006466	8
	40	132	30.04808	663.7459	-275.5398	1	718.666	-22.54473	-1.341467E-007	0.0006632	8
	41	134	23.91582	680.7355	-335.9399	1	759.1156	-26.26613	-1.542361E-007	0.0006462	8
	42	137	18.60119	703.1415	-417.4533	1	817.7256	-30.69749	-2.723518E-007	0.000656	8
	43	139	15.02404	724.6011	-501.1969	1	881.0478	-34.67109	-1.393017E-007	0.0006419	8
	44	141	12.01923	751.1108	-607.1716	1	965.828	-38.95086	-1.696767E-008	0.0006447	8
	45	144	9.450605	783.7511	-747.17	1	1082.834	-43.63119	-2.004122E-007	0.0006505	8
	46	146	7.512019	821.2858	-911.9851	1	1227.284	-47.99546	-1.948495E-007	0.0006662	8
	47	149	5.978954	865.514	-1113.261	1	1410.13	-52.13644	-1.674056E-007	0.0006496	8
	48	152	4.734848	921.1183	-1366.924	1	1648.314	-56.02547	-9.275094E-008	0.0006405	8
	49	155	3.75601	987.968	-1677.492	1	1946.808	-59.5038	-1.215502E-007	0.0006494	8
	50	159	3.004808	1067.299	-2043.153	1	2305.125	-62.41841	-1.146264E-007	0.0006248	8
	51	162	2.372217	1174.576	-2521.505	1	2781.658	-65.02279	-1.301867E-007	0.0005673	8
	52	167	1.878005	1306.036	-3104.222	1	3367.777	-67.1821	-1.025019E-007	0.0006533	8
	53	171	1.512097	1464.852	-3755.343	1	4030.93	-68.69067	-1.230401E-007	0.0005852	8
	54	177	1.201923	1680.62	-4628.463	1	4924.14	-70.04377	-2.285339E-008	0.0006435	7
	55	183	0.956633	1955.351	-5666.612	1	5994.488	-70.96223	-5.58032E-008	-1.775382E-005	7
