EXPLAIN
TAG	EISPOT
TITLE	LABEL	Potentiostatic EIS	Test Identifier
DATE	LABEL	8/10/2020	Date
TIME	LABEL	1:39:45	Time
NOTES	NOTES	1	Notes...
	
PSTAT	PSTAT	REF3000-16137	Potentiostat
VDC	POTEN	0.00000E+000	T	DC Voltage (V)
FREQINIT	QUANT	3.00000E+005	Initial Freq. (Hz)
FREQFINAL	QUANT	1.00000E+000	Final Freq. (Hz)
PTSPERDEC	QUANT	1.00000E+001	Points/decade
VAC	QUANT	5.00000E+001	AC Voltage (mV rms)
AREA	QUANT	1.00000E+000	Sample Area (cm^2)
SPEED	SELECTOR	2	Optimize for:
ZGUESS	QUANT	1.00000E+003	Estimated Z (ohms)
EOC	QUANT	0	Open Circuit (V)
SEQUENCER	TOGGLE	TRUE	Run as Sequence
PSTATMODEL	IQUANT	5	Pstat Model
PSTATSECTION	LABEL	REF3000-16137	Pstat Section
PSTATSERIALNO	LABEL	16137	Pstat Serial Number
CTRLMODE	IQUANT	1	Control Mode
IESTAB	IQUANT	0	I/E Stability
CASPEED	IQUANT	1	Control Amp Speed
CONVENTION	IQUANT	1	Current Convention
ICHRANGE	IQUANT	2	Ich Range
ICHRANGEMODE	TOGGLE	F	Ich Auto Range
ICHOFFSETENABLE	TOGGLE	T	Ich Offset Enable
ICHOFFSET	QUANT	0	Ich Offset (V)
ICHFILTER	IQUANT	3	Ich Filter
VCHRANGE	IQUANT	2	Vch Range
VCHRANGEMODE	TOGGLE	F	Vch Auto Range
VCHOFFSETENABLE	TOGGLE	T	Vch Offset Enable
VCHOFFSET	QUANT	0	Vch Offset (V)
VCHFILTER	IQUANT	3	Vch Filter
ACHRANGE	IQUANT	2	Ach Range
ACHOFFSETENABLE	TOGGLE	F	Ach Offset Enable
ACHOFFSET	QUANT	0	Ach Offset (V)
ACHFILTER	IQUANT	3	Ach Filter
IERANGELOWERLIMIT	IQUANT	2	I/E Range Lower Limit
IERANGEMODE	TOGGLE	F	I/E AutoRange
IERANGE	IQUANT	11	I/E Range
POSFEEDENABLE	TOGGLE	F	Positive Feedback IR Comp
POSFEEDRESISTANCE	QUANT	0	Positive Feedback Resistance (ohm)
ACHSELECT	IQUANT	0	Ach Select
CABLEID	IQUANT	13	Cable ID
DCCALDATE	LABEL	7/31/2020	DC Calibration Date
ACCALDATE	LABEL	7/31/2020	AC Calibration Date
THERMOSELECT	IQUANT	1	Thermo Select
FRAMEWORKVERSION	QUANT	6.33	Framework Version
INSTRUMENTVERSION	LABEL	3.50	Instrument Version
COMPLIANCEVOLTAGE	IQUANT	0	Compliance Voltage
ZCURVE	TABLE
	Pt	Time	Freq	Zreal	Zimag	Zsig	Zmod	Zphz	Idc	Vdc	IERange
	#	s	Hz	ohm	ohm	V	ohm	°	A	V	#
	0	15	300046.9	1781.434	-1441.368	1	2291.517	-38.97651	-2.063657E-005	0.0010543	9
	1	27	238359.4	1984.576	-1483.513	1	2477.772	-36.7789	-3.051502E-005	-0.001135	9
	2	40	189328.1	2400.738	-1430.763	1	2794.749	-30.79359	-2.061763E-005	0.0011383	9
	3	48	150421.9	2695.472	-1339.478	1	3009.945	-26.42445	-2.063855E-005	0.0016877	9
	4	55	119484.4	3019.275	-1282.89	1	3280.522	-23.02065	-2.982197E-005	-0.0009413	9
	5	67	94921.88	3280.173	-1164.949	1	3480.896	-19.55243	-2.410432E-005	0.0004751	9
	6	74	75421.88	3507.865	-968.375	1	3639.075	-15.4326	2.579822E-005	-0.0072229	8
	7	80	59859.37	3678.781	-832.1376	1	3771.722	-12.74577	-2.506728E-005	0.0094317	8
	8	85	47578.12	3855.393	-737.3373	1	3925.267	-10.82698	-9.968254E-006	0.0093932	8
	9	92	37828.12	4015.674	-641.8114	1	4066.64	-9.080587	2.068596E-005	-0.0091877	8
	10	100	30046.88	4171.375	-555.8026	1	4208.24	-7.589504	2.281425E-005	-0.0031341	8
	11	107	23859.38	4322.39	-467.5419	1	4347.603	-6.173536	-1.095867E-006	0.0072044	8
	12	112	18984.38	4464.289	-169.9982	1	4467.524	-2.180745	-4.825005E-006	0.0224122	7
	13	115	15046.87	4500.484	-337.307	1	4513.106	-4.286251	-4.248349E-007	0.0071974	8
	14	121	11953.13	4615.056	-123.5079	1	4616.708	-1.532981	-6.076895E-006	0.0144107	7
	15	124	9515.62	4680.329	-222.4711	1	4685.613	-2.721404	1.709003E-005	-0.0001491	8
	16	129	7546.875	4780.56	-174.4726	1	4783.743	-2.090155	-1.811401E-005	0.0108207	8
	17	135	5928.309	4870.425	-165.4368	1	4873.234	-1.945454	-2.03394E-005	0.00317	8
	18	140	4733.456	4988.166	-145.157	1	4990.278	-1.666853	2.087758E-005	-0.0092358	8
	19	146	3796.875	5078.85	-123.1698	1	5080.343	-1.389237	2.088507E-005	-0.0092356	8
	20	151	2987.132	5186.58	-94.90484	1	5187.448	-1.04829	1.47464E-005	-0.008723	8
	21	156	2390.625	5256.145	-98.9725	1	5257.076	-1.078744	-7.914808E-007	0.0070028	8
	22	162	1884.191	5417.209	-39.38251	1	5417.353	-0.4165266	6.606715E-006	-0.0198556	7
	23	166	1516.544	5535.933	-67.30019	1	5536.342	-0.6965089	-1.793968E-005	0.0107882	8
	24	171	1193.986	5644.601	-54.66009	1	5644.866	-0.5548124	9.346211E-006	0.0035648	8
	25	177	946.5144	5781.582	-9.1587	1	5781.589	-0.0907631	-2.320979E-005	0.0053194	8
	26	181	751.7689	5802.823	-83.34358	1	5803.422	-0.8228593	-1.053769E-005	-0.0014991	8
	27	184	597.4265	5879.458	-35.71934	1	5879.566	-0.3480835	-2.407599E-005	0.0055372	8
	28	188	477.4305	5968.907	-53.43625	1	5969.146	-0.512923	-3.615879E-007	0.0006599	8
	29	191	376.6741	6043.781	-49.05262	1	6043.98	-0.4650146	-8.804627E-008	0.0005786	7
	30	194	298.2954	6101.173	-56.14206	1	6101.431	-0.5272121	-8.778414E-008	0.0005721	7
	31	196	237.7717	6160.172	-65.23782	1	6160.518	-0.6067545	-8.536971E-008	0.0006554	7
	32	198	189.0121	6219.606	-77.4025	1	6220.088	-0.7130045	-7.324417E-008	0.0005713	7
	33	201	150.2404	6279.923	-92.01543	1	6280.598	-0.8394558	-7.031475E-008	0.0006156	7
	34	203	119.1737	6340.256	-111.917	1	6341.244	-1.011269	-6.781723E-008	0.0006599	7
	35	206	95.0169	6405.547	-135.7879	1	6406.986	-1.214402	-9.038894E-008	0.0006546	7
	36	208	75.60484	6472.721	-166.0484	1	6474.85	-1.469519	-8.859459E-008	0.0006559	7
	37	211	54.50582	6546.948	-222.105	1	6550.715	-1.943013	-6.366768E-008	0.0006279	7
	38	213	45.95588	6615.7	-257.4111	1	6620.706	-2.228205	-1.155878E-007	0.0006359	7
	39	216	37.20238	6683.744	-313.8454	1	6691.108	-2.688436	-1.229277E-007	0.0006032	7
	40	218	30.04808	6758.426	-377.8338	1	6768.979	-3.199823	-1.199936E-007	0.0006524	7
	41	220	23.91582	6834.959	-470.6727	1	6851.146	-3.939314	-1.049629E-008	0.0006549	7
	42	223	18.60119	6932.332	-590.7342	1	6957.456	-4.870656	8.223916E-008	0.0006657	7
	43	225	15.02404	7013.543	-703.2347	1	7048.711	-5.725802	-2.477445E-007	0.0006591	7
	44	227	12.01923	7085.029	-852.4877	1	7136.131	-6.860983	6.8253E-008	0.0006179	7
	45	230	9.450605	7191.49	-1089.174	1	7273.502	-8.612178	-1.316984E-007	0.0006502	7
	46	232	7.512019	7312.494	-1329.034	1	7432.288	-10.30097	-4.955088E-008	0.0005776	7
	47	235	5.978954	7458.384	-1640.301	1	7636.627	-12.40343	-1.030381E-007	0.000657	7
	48	238	4.734848	7614.758	-2024.103	1	7879.184	-14.88575	-1.389342E-007	0.0006428	7
	49	241	3.75601	7833.612	-2478.699	1	8216.412	-17.55833	-9.595428E-008	0.0006589	7
	50	245	3.004808	8049.655	-3020.353	1	8597.645	-20.56686	-5.488763E-008	0.0006272	7
	51	249	2.372217	8352.601	-3698.373	1	9134.764	-23.88285	-1.082125E-007	0.0005523	7
	52	253	1.878005	8671.924	-4536.021	1	9786.61	-27.61271	-8.15781E-008	0.0006243	7
	53	257	1.512097	9046.318	-5466.404	1	10569.65	-31.14324	-7.82735E-008	0.0005269	7
	54	263	1.201923	9522.34	-6682.769	1	11633.33	-35.06113	-8.654807E-008	0.000706	7
	55	269	0.956633	10070.93	-8150.262	1	12955.71	-38.98276	-9.28565E-008	-1.614812E-005	7
