EXPLAIN
TAG	EISPOT
TITLE	LABEL	Potentiostatic EIS	Test Identifier
DATE	LABEL	8/10/2020	Date
TIME	LABEL	1:44:23	Time
NOTES	NOTES	1	Notes...
	
PSTAT	PSTAT	REF3000-16137	Potentiostat
VDC	POTEN	0.00000E+000	T	DC Voltage (V)
FREQINIT	QUANT	3.00000E+005	Initial Freq. (Hz)
FREQFINAL	QUANT	1.00000E+000	Final Freq. (Hz)
PTSPERDEC	QUANT	1.00000E+001	Points/decade
VAC	QUANT	5.00000E+001	AC Voltage (mV rms)
AREA	QUANT	1.00000E+000	Sample Area (cm^2)
SPEED	SELECTOR	2	Optimize for:
ZGUESS	QUANT	1.00000E+003	Estimated Z (ohms)
EOC	QUANT	0	Open Circuit (V)
SEQUENCER	TOGGLE	TRUE	Run as Sequence
PSTATMODEL	IQUANT	5	Pstat Model
PSTATSECTION	LABEL	REF3000-16137	Pstat Section
PSTATSERIALNO	LABEL	16137	Pstat Serial Number
CTRLMODE	IQUANT	1	Control Mode
IESTAB	IQUANT	0	I/E Stability
CASPEED	IQUANT	1	Control Amp Speed
CONVENTION	IQUANT	1	Current Convention
ICHRANGE	IQUANT	2	Ich Range
ICHRANGEMODE	TOGGLE	F	Ich Auto Range
ICHOFFSETENABLE	TOGGLE	T	Ich Offset Enable
ICHOFFSET	QUANT	0	Ich Offset (V)
ICHFILTER	IQUANT	3	Ich Filter
VCHRANGE	IQUANT	2	Vch Range
VCHRANGEMODE	TOGGLE	F	Vch Auto Range
VCHOFFSETENABLE	TOGGLE	T	Vch Offset Enable
VCHOFFSET	QUANT	0	Vch Offset (V)
VCHFILTER	IQUANT	3	Vch Filter
ACHRANGE	IQUANT	2	Ach Range
ACHOFFSETENABLE	TOGGLE	F	Ach Offset Enable
ACHOFFSET	QUANT	0	Ach Offset (V)
ACHFILTER	IQUANT	3	Ach Filter
IERANGELOWERLIMIT	IQUANT	2	I/E Range Lower Limit
IERANGEMODE	TOGGLE	F	I/E AutoRange
IERANGE	IQUANT	11	I/E Range
POSFEEDENABLE	TOGGLE	F	Positive Feedback IR Comp
POSFEEDRESISTANCE	QUANT	0	Positive Feedback Resistance (ohm)
ACHSELECT	IQUANT	0	Ach Select
CABLEID	IQUANT	13	Cable ID
DCCALDATE	LABEL	7/31/2020	DC Calibration Date
ACCALDATE	LABEL	7/31/2020	AC Calibration Date
THERMOSELECT	IQUANT	1	Thermo Select
FRAMEWORKVERSION	QUANT	6.33	Framework Version
INSTRUMENTVERSION	LABEL	3.50	Instrument Version
COMPLIANCEVOLTAGE	IQUANT	0	Compliance Voltage
ZCURVE	TABLE
	Pt	Time	Freq	Zreal	Zimag	Zsig	Zmod	Zphz	Idc	Vdc	IERange
	#	s	Hz	ohm	ohm	V	ohm	°	A	V	#
	0	19	300046.9	1514.814	-3106.492	1	3456.147	-64.00481	-6.457582E-005	0.0005237	9
	1	33	238359.4	2002.377	-3550.894	1	4076.563	-60.58101	-1.954081E-005	0.0011327	9
	2	48	189328.1	2681.167	-4023.153	1	4834.709	-56.31916	-1.438622E-005	0.001899	9
	3	56	150421.9	3450.896	-4615.185	1	5762.691	-53.21357	2.208896E-005	-0.0009075	9
	4	64	119484.4	4500.377	-4781.256	1	6566.111	-46.73335	-3.982093E-005	0.0223233	8
	5	71	94921.88	5602.784	-5031.196	1	7530.214	-41.92325	-1.194472E-006	0.0073915	8
	6	79	75421.88	6766.186	-5164.743	1	8512.1	-37.3551	-1.651315E-005	0.0008954	8
	7	86	59859.37	7936.704	-5229.018	1	9504.41	-33.37849	2.637462E-005	-0.0054021	8
	8	95	47578.12	9061.777	-5114.252	1	10405.35	-29.43935	2.589627E-005	-0.0090218	8
	9	103	37828.12	10193.52	-4782.701	1	11259.76	-25.13551	-1.019164E-005	-0.0018578	8
	10	112	30046.88	11862.77	-3687.733	1	12422.75	-17.2687	-6.217749E-006	0.0238737	7
	11	118	23859.38	12609.92	-3263.253	1	13025.31	-14.50897	2.342321E-006	0.008705	7
	12	122	18984.38	13117.12	-2867.278	1	13426.84	-12.33037	-6.215217E-006	0.0106676	7
	13	126	15046.87	13609.67	-2483.195	1	13834.36	-10.34033	-4.953528E-006	0.0245112	7
	14	130	11953.13	14106.53	-2147.252	1	14269.02	-8.654946	5.089048E-006	-0.0250517	7
	15	135	9515.62	14570.84	-1834.687	1	14685.89	-7.176631	1.450618E-006	-0.0192469	7
	16	139	7546.875	14976.09	-1564.089	1	15057.55	-5.962301	-2.924692E-006	-0.0056194	7
	17	143	5928.309	15274.83	-1197.152	1	15321.67	-4.481348	-3.63415E-006	0.0239496	7
	18	147	4733.456	15682.83	-1159.281	1	15725.62	-4.227637	-4.95887E-006	0.0029457	7
	19	152	3796.875	15995.83	-963.92	1	16024.85	-3.448512	-9.21744E-007	-0.0133221	7
	20	156	2987.132	16373.53	-807.4125	1	16393.42	-2.823087	-1.829431E-006	0.0211214	7
	21	160	2390.625	16921.88	-674.5611	1	16935.32	-2.282787	5.865163E-006	-0.008069	7
	22	164	1884.191	16996.01	-509.6507	1	17003.65	-1.717585	-1.86312E-006	0.0212234	7
	23	169	1516.544	17344.97	-435.3594	1	17350.44	-1.437824	7.277712E-006	-0.022956	7
	24	173	1193.986	17587.15	-290.9943	1	17589.56	-0.9479204	-6.846857E-006	0.0219921	7
	25	178	946.5144	17781.21	-67.50529	1	17781.34	-0.2175189	-3.285608E-006	-0.0046613	7
	26	180	751.7689	18035.52	-481.5249	1	18041.95	-1.529359	-1.720967E-006	0.0208274	7
	27	183	597.4265	18128.41	-405.5361	1	18132.94	-1.281504	3.801352E-007	0.0152329	7
	28	185	477.4305	18611.86	-211.5621	1	18613.07	-0.6512564	-9.44508E-008	0.0006648	7
	29	188	376.6741	18810.89	-188.2588	1	18811.83	-0.5733953	-1.032133E-007	0.0006917	7
	30	190	298.2954	19014.23	-173.5781	1	19015.03	-0.5230302	-1.001707E-007	0.0006638	7
	31	192	237.7717	19227.7	-163.1795	1	19228.39	-0.4862396	-9.81217E-008	0.0006645	7
	32	195	189.0121	19437.92	-162.0679	1	19438.6	-0.4777048	-8.831191E-008	0.0005696	7
	33	197	150.2404	19667.77	-161.673	1	19668.43	-0.4709722	-9.026314E-008	0.0006012	7
	34	200	119.1737	19875.72	-181.5625	1	19876.55	-0.523376	-9.239213E-008	0.000574	7
	35	202	95.0169	20086.76	-199.7054	1	20087.76	-0.5696238	-1.013807E-007	0.0006353	7
	36	204	75.60484	20323.43	-229.3594	1	20324.73	-0.6465821	-9.165382E-008	0.0005881	7
	37	207	54.50582	20562.48	-279.4501	1	20564.38	-0.7786183	-9.441173E-008	0.0005679	7
	38	210	45.95588	20800.12	-320.1483	1	20802.58	-0.8818075	-7.755095E-008	0.0006673	7
	39	212	37.20238	21034.55	-382.4544	1	21038.03	-1.041649	-6.966571E-008	0.0006347	7
	40	214	30.04808	21279.98	-450.5893	1	21284.75	-1.213018	-7.687267E-008	0.0006439	7
	41	217	23.91582	21521.13	-546.371	1	21528.06	-1.454293	-1.204549E-007	0.0006673	7
	42	219	18.60119	21772.4	-702.6505	1	21783.74	-1.848438	-1.24741E-007	0.0006631	7
	43	221	15.02404	22018.49	-824.5673	1	22033.93	-2.144659	-9.765796E-008	0.0006246	7
	44	224	12.01923	22261.21	-972.656	1	22282.44	-2.501827	-1.373365E-007	0.0005776	7
	45	226	9.450605	22533.33	-1226.395	1	22566.68	-3.115297	-1.434702E-007	0.0006605	7
	46	229	7.512019	22852.7	-1523.9	1	22903.46	-3.81504	-1.197154E-007	0.000591	7
	47	231	5.978954	23211.58	-1934.939	1	23292.09	-4.765211	-1.284021E-007	0.0005797	7
	48	234	4.734848	23629.45	-2395.414	1	23750.55	-5.788534	-1.276246E-007	0.0005535	7
	49	238	3.75601	24245.78	-2949.531	1	24424.52	-6.936026	-4.022843E-008	0.0006782	7
	50	242	3.004808	24823.85	-3567.13	1	25078.84	-8.177292	-5.856015E-008	0.0006546	7
	51	246	2.372217	25405.66	-4406.239	1	25784.93	-9.83924	-6.66399E-008	0.0005579	7
	52	250	1.878005	26163.48	-5450.779	1	26725.25	-11.7684	-5.807587E-008	0.0006166	7
	53	255	1.512097	27028.62	-6591.015	1	27820.63	-13.7043	-6.342038E-008	0.0006169	7
	54	260	1.201923	27999.6	-8092.526	1	29145.61	-16.1205	-7.966016E-008	0.0006407	7
	55	267	0.956633	29309.99	-9914.84	1	30941.55	-18.68939	-1.11974E-007	-2.215405E-005	7
