EXPLAIN
TAG	EISPOT
TITLE	LABEL	Potentiostatic EIS	Test Identifier
DATE	LABEL	8/10/2020	Date
TIME	LABEL	1:48:59	Time
NOTES	NOTES	1	Notes...
	
PSTAT	PSTAT	REF3000-16137	Potentiostat
VDC	POTEN	0.00000E+000	T	DC Voltage (V)
FREQINIT	QUANT	3.00000E+005	Initial Freq. (Hz)
FREQFINAL	QUANT	1.00000E+000	Final Freq. (Hz)
PTSPERDEC	QUANT	1.00000E+001	Points/decade
VAC	QUANT	5.00000E+001	AC Voltage (mV rms)
AREA	QUANT	1.00000E+000	Sample Area (cm^2)
SPEED	SELECTOR	2	Optimize for:
ZGUESS	QUANT	1.00000E+003	Estimated Z (ohms)
EOC	QUANT	0	Open Circuit (V)
SEQUENCER	TOGGLE	TRUE	Run as Sequence
PSTATMODEL	IQUANT	5	Pstat Model
PSTATSECTION	LABEL	REF3000-16137	Pstat Section
PSTATSERIALNO	LABEL	16137	Pstat Serial Number
CTRLMODE	IQUANT	1	Control Mode
IESTAB	IQUANT	0	I/E Stability
CASPEED	IQUANT	1	Control Amp Speed
CONVENTION	IQUANT	1	Current Convention
ICHRANGE	IQUANT	2	Ich Range
ICHRANGEMODE	TOGGLE	F	Ich Auto Range
ICHOFFSETENABLE	TOGGLE	T	Ich Offset Enable
ICHOFFSET	QUANT	0	Ich Offset (V)
ICHFILTER	IQUANT	3	Ich Filter
VCHRANGE	IQUANT	2	Vch Range
VCHRANGEMODE	TOGGLE	F	Vch Auto Range
VCHOFFSETENABLE	TOGGLE	T	Vch Offset Enable
VCHOFFSET	QUANT	0	Vch Offset (V)
VCHFILTER	IQUANT	3	Vch Filter
ACHRANGE	IQUANT	2	Ach Range
ACHOFFSETENABLE	TOGGLE	F	Ach Offset Enable
ACHOFFSET	QUANT	0	Ach Offset (V)
ACHFILTER	IQUANT	3	Ach Filter
IERANGELOWERLIMIT	IQUANT	2	I/E Range Lower Limit
IERANGEMODE	TOGGLE	F	I/E AutoRange
IERANGE	IQUANT	11	I/E Range
POSFEEDENABLE	TOGGLE	F	Positive Feedback IR Comp
POSFEEDRESISTANCE	QUANT	0	Positive Feedback Resistance (ohm)
ACHSELECT	IQUANT	0	Ach Select
CABLEID	IQUANT	13	Cable ID
DCCALDATE	LABEL	7/31/2020	DC Calibration Date
ACCALDATE	LABEL	7/31/2020	AC Calibration Date
THERMOSELECT	IQUANT	1	Thermo Select
FRAMEWORKVERSION	QUANT	6.33	Framework Version
INSTRUMENTVERSION	LABEL	3.50	Instrument Version
COMPLIANCEVOLTAGE	IQUANT	0	Compliance Voltage
ZCURVE	TABLE
	Pt	Time	Freq	Zreal	Zimag	Zsig	Zmod	Zphz	Idc	Vdc	IERange
	#	s	Hz	ohm	ohm	V	ohm	°	A	V	#
	0	14	300046.9	728.9298	-3912.523	1	3979.846	-79.4464	-9.228034E-005	0.0021876	9
	1	30	238359.4	1073.358	-4680.965	1	4802.45	-77.08518	-0.0001095	0.0038848	9
	2	45	189328.1	1499.643	-5893.529	1	6081.333	-75.72372	9.039266E-005	-0.002532	9
	3	57	150421.9	2135.054	-7049.117	1	7365.358	-73.14936	1.871101E-005	-0.000293	9
	4	64	119484.4	2869.119	-8570.778	1	9038.257	-71.49172	7.998104E-005	-0.0016035	9
	5	73	94921.88	4179.514	-10153.6	1	10980.16	-67.62653	2.597849E-005	-0.0090363	8
	6	82	75421.88	5560.078	-12094.95	1	13311.73	-65.31164	-1.169677E-005	0.0102631	8
	7	90	59859.37	7729.917	-14339.55	1	16290.32	-61.67255	-2.120465E-005	0.0030431	8
	8	99	47578.12	12566.91	-16288.02	1	20572.47	-52.34827	-7.188652E-006	0.0185607	7
	9	106	37828.12	15615.13	-18242.29	1	24012.78	-49.43697	2.704567E-006	0.0082563	7
	10	113	30046.88	19240.49	-19962.81	1	27725.63	-46.05556	5.246613E-006	-0.026269	7
	11	120	23859.38	23739.57	-21716.6	1	32174.18	-42.4518	-1.634738E-006	0.0214803	7
	12	125	18984.38	28312.51	-22343.61	1	36067.09	-38.27973	-6.84017E-006	0.0214083	7
	13	131	15046.87	33360.95	-22265.66	1	40108.75	-33.71981	2.732279E-006	0.0081149	7
	14	136	11953.13	38544.13	-21633.73	1	44200.31	-29.30427	-1.802695E-006	0.021647	7
	15	141	9515.62	42851	-20637.68	1	47561.77	-25.71616	-1.788191E-006	0.02157	7
	16	147	7546.875	47376.75	-19585.59	1	51265.5	-22.46025	6.747478E-006	-0.0265374	7
	17	152	5928.309	51489.2	-17596.47	1	54412.99	-18.8679	4.832046E-006	-0.0007818	7
	18	157	4733.456	54686.8	-15279.82	1	56781.33	-15.61068	1.209811E-006	-0.0194091	7
	19	163	3796.875	58620.56	-14073.99	1	60286.38	-13.5004	-3.739886E-006	0.0250057	7
	20	168	2987.132	60997.43	-10180.15	1	61841.11	-9.475032	-6.610886E-006	0.0119329	7
	21	174	2390.625	63160.6	-9627.09	1	63890.08	-8.666459	3.464665E-006	-0.0242643	7
	22	179	1884.191	66260.37	-8789.57	1	66840.8	-7.556284	4.83185E-006	-0.0006781	7
	23	184	1516.544	68417.15	-8763.921	1	68976.17	-7.299573	-3.676734E-006	0.0249261	7
	24	190	1193.986	69055.21	-8854.917	1	69620.63	-7.307135	5.231549E-006	-0.0263046	7
	25	195	946.5144	78922.73	-8647.718	1	79395.09	-6.253065	6.540149E-006	-0.0100277	7
	26	199	751.7689	79490.07	-3735.288	1	79577.78	-2.690385	-6.50312E-006	0.0261282	7
	27	204	597.4265	76147.98	-1719.605	1	76167.39	-1.293657	-3.545356E-006	0.0245719	7
	28	209	477.4305	78557.73	-3341.379	1	78628.76	-2.435554	-9.88268E-008	0.0006894	7
	29	212	376.6741	79662.41	-1812.647	1	79683.03	-1.30349	-1.242048E-008	0.0006989	6
	30	214	298.2954	80658.48	-1560.892	1	80673.59	-1.108642	-1.204505E-008	0.0006495	6
	31	217	237.7717	81680.64	-1301.167	1	81691	-0.9126406	-1.129295E-008	0.0006176	6
	32	219	189.0121	82771.62	-1129.235	1	82779.32	-0.7816255	-1.220734E-008	0.0006308	6
	33	221	150.2404	83905.91	-932.0483	1	83911.09	-0.63643	-1.269063E-008	0.0007108	6
	34	224	119.1737	85201.32	-858.3226	1	85205.64	-0.5771812	-1.197923E-008	0.0006873	6
	35	226	95.0169	86079.32	-788.8362	1	86082.94	-0.5250474	-1.206701E-008	0.0006194	6
	36	229	75.60484	87275.64	-682.9509	1	87278.31	-0.4483428	-1.330422E-008	0.0006931	6
	37	231	54.50582	88401.78	-750.7593	1	88404.97	-0.4865773	-1.330104E-008	0.0007111	6
	38	234	45.95588	89627.33	-687.1462	1	89629.96	-0.4392612	-1.203836E-008	0.0007036	6
	39	236	37.20238	90712.2	-719.8526	1	90715.06	-0.4546649	-1.065323E-008	0.0006104	6
	40	239	30.04808	91846.45	-779.2609	1	91849.76	-0.4861079	-1.325682E-008	0.0007036	6
	41	241	23.91582	92989.52	-881.5414	1	92993.7	-0.5431482	-1.141734E-008	0.0006095	6
	42	243	18.60119	94200.61	-1024.899	1	94206.19	-0.6233511	-1.648687E-008	0.0007427	6
	43	246	15.02404	95429.2	-1145.569	1	95436.1	-0.6877675	-1.23043E-008	0.0007506	6
	44	248	12.01923	96692.8	-1308.903	1	96701.7	-0.7755489	-1.825357E-008	0.0006409	6
	45	250	9.450605	98076.7	-1626.278	1	98090.2	-0.9499744	-1.135689E-008	0.000645	6
	46	253	7.512019	99423.8	-1930.375	1	99442.5	-1.112294	-1.375651E-008	0.0006553	6
	47	256	5.978954	101044.1	-2366.911	1	101071.8	-1.341882	-1.056089E-008	0.0007024	6
	48	259	4.734848	102862.9	-2918.802	1	102904.3	-1.625369	-4.858015E-009	0.000775	6
	49	262	3.75601	104810.1	-3589.326	1	104871.6	-1.961384	-1.716082E-008	0.0006181	6
	50	265	3.004808	107104.6	-4398.517	1	107194.9	-2.351672	-2.133568E-008	0.0006451	6
	51	269	2.372217	109541.3	-5342.994	1	109671.6	-2.792449	-1.757991E-008	0.000716	6
	52	273	1.878005	112548.4	-6610.517	1	112742.3	-3.3614	-2.263714E-008	0.0006512	6
	53	278	1.512097	115904.7	-7876.257	1	116172	-3.887536	-1.904726E-008	0.0006086	6
	54	283	1.201923	119895.8	-9933.4	1	120306.6	-4.736156	-1.758975E-008	0.000655	6
	55	290	0.956633	124676.2	-12079.54	1	125260	-5.533961	-2.158995E-008	1.738365E-005	6
