EXPLAIN
TAG	EISPOT
TITLE	LABEL	Potentiostatic EIS	Test Identifier
DATE	LABEL	8/10/2020	Date
TIME	LABEL	1:59:27	Time
NOTES	NOTES	1	Notes...
	
PSTAT	PSTAT	REF3000-16137	Potentiostat
VDC	POTEN	0.00000E+000	T	DC Voltage (V)
FREQINIT	QUANT	3.00000E+005	Initial Freq. (Hz)
FREQFINAL	QUANT	1.00000E+000	Final Freq. (Hz)
PTSPERDEC	QUANT	1.00000E+001	Points/decade
VAC	QUANT	5.00000E+001	AC Voltage (mV rms)
AREA	QUANT	1.00000E+000	Sample Area (cm^2)
SPEED	SELECTOR	2	Optimize for:
ZGUESS	QUANT	1.00000E+003	Estimated Z (ohms)
EOC	QUANT	0	Open Circuit (V)
SEQUENCER	TOGGLE	TRUE	Run as Sequence
PSTATMODEL	IQUANT	5	Pstat Model
PSTATSECTION	LABEL	REF3000-16137	Pstat Section
PSTATSERIALNO	LABEL	16137	Pstat Serial Number
CTRLMODE	IQUANT	1	Control Mode
IESTAB	IQUANT	0	I/E Stability
CASPEED	IQUANT	1	Control Amp Speed
CONVENTION	IQUANT	1	Current Convention
ICHRANGE	IQUANT	2	Ich Range
ICHRANGEMODE	TOGGLE	F	Ich Auto Range
ICHOFFSETENABLE	TOGGLE	T	Ich Offset Enable
ICHOFFSET	QUANT	0	Ich Offset (V)
ICHFILTER	IQUANT	3	Ich Filter
VCHRANGE	IQUANT	2	Vch Range
VCHRANGEMODE	TOGGLE	F	Vch Auto Range
VCHOFFSETENABLE	TOGGLE	T	Vch Offset Enable
VCHOFFSET	QUANT	0	Vch Offset (V)
VCHFILTER	IQUANT	3	Vch Filter
ACHRANGE	IQUANT	2	Ach Range
ACHOFFSETENABLE	TOGGLE	F	Ach Offset Enable
ACHOFFSET	QUANT	0	Ach Offset (V)
ACHFILTER	IQUANT	3	Ach Filter
IERANGELOWERLIMIT	IQUANT	2	I/E Range Lower Limit
IERANGEMODE	TOGGLE	F	I/E AutoRange
IERANGE	IQUANT	11	I/E Range
POSFEEDENABLE	TOGGLE	F	Positive Feedback IR Comp
POSFEEDRESISTANCE	QUANT	0	Positive Feedback Resistance (ohm)
ACHSELECT	IQUANT	0	Ach Select
CABLEID	IQUANT	13	Cable ID
DCCALDATE	LABEL	7/31/2020	DC Calibration Date
ACCALDATE	LABEL	7/31/2020	AC Calibration Date
THERMOSELECT	IQUANT	1	Thermo Select
FRAMEWORKVERSION	QUANT	6.33	Framework Version
INSTRUMENTVERSION	LABEL	3.50	Instrument Version
COMPLIANCEVOLTAGE	IQUANT	0	Compliance Voltage
ZCURVE	TABLE
	Pt	Time	Freq	Zreal	Zimag	Zsig	Zmod	Zphz	Idc	Vdc	IERange
	#	s	Hz	ohm	ohm	V	ohm	°	A	V	#
	0	14	300046.9	41.11287	-4401.978	1	4402.17	-89.4649	1.992262E-005	-0.0023549	9
	1	28	238359.4	221.5044	-5455.316	1	5459.812	-87.67487	1.988234E-005	-0.0004435	9
	2	42	189328.1	161.6603	-6764.743	1	6766.674	-88.63103	-1.52737E-005	0.0017573	9
	3	52	150421.9	480.6302	-8386.184	1	8399.945	-86.71984	2.021869E-005	-0.0020806	9
	4	60	119484.4	463.6704	-10868.82	1	10878.7	-87.55721	-2.175891E-005	0.0012632	9
	5	71	94921.88	1011.259	-13146.52	1	13185.36	-85.60135	-1.632811E-006	-0.005158	8
	6	80	75421.88	1287.545	-16078.77	1	16130.24	-85.42168	-1.685844E-005	0.0007572	8
	7	89	59859.37	1166.73	-20336.76	1	20370.21	-86.71651	2.407048E-005	-0.0030912	8
	8	96	47578.12	4938.845	-26810.73	1	27261.83	-79.56247	-6.819306E-006	0.0123947	7
	9	104	37828.12	2752.456	-32153.58	1	32271.18	-85.10722	-2.724393E-005	0.0078979	8
	10	112	30046.88	2985.666	-40370.98	1	40481.23	-85.77035	2.686514E-005	-0.005381	8
	11	121	23859.38	5740.474	-51652.36	1	51970.37	-83.65836	-1.744032E-006	0.0078787	8
	12	129	18984.38	9109.223	-62839.96	1	63496.76	-81.75191	7.649869E-006	-0.0196044	7
	13	134	15046.87	10985.41	-78283.58	1	79050.6	-82.01194	-7.346317E-006	0.0239999	7
	14	139	11953.13	12950.12	-98387.1	1	99235.7	-82.50159	3.478675E-006	-0.0247613	7
	15	145	9515.62	14425.8	-123303.1	1	124144.1	-83.32703	5.274674E-007	0.0161135	7
	16	151	7546.875	18369.5	-155901.5	1	156980	-83.27996	-3.204625E-006	0.0256334	7
	17	156	5928.309	22179.85	-184842.4	1	186168.4	-83.15761	5.320825E-006	-0.0270512	7
	18	162	4733.456	45741.47	-242179.9	1	246461.7	-79.30431	-7.346788E-006	0.0239966	7
	19	168	3796.875	49350.21	-284856.8	1	289100	-80.17131	-7.336407E-006	0.0239382	7
	20	176	2987.132	12432.23	-366194.6	1	366405.6	-88.05556	-5.461449E-006	0.0038522	7
	21	182	2390.625	101299.7	-437880.9	1	449445.6	-76.9743	6.920063E-006	-0.027563	7
	22	190	1884.191	173215.1	-659952.9	1	682305.9	-75.29353	5.333789E-006	-0.0270447	7
	23	197	1516.544	480823.1	-796077.5	1	930016.3	-58.86843	-7.462314E-006	0.0192211	7
	24	204	1193.986	1728569	-1235991	1	2125000	-35.56619	2.670248E-005	-0.0053563	8
	25	213	946.5144	-282205.5	-3267609	1	3279772	-94.93607	3.310124E-006	-0.0246523	7
	26	221	751.7689	101406.7	-220497.8	1	242698.6	-65.30235	2.994832E-005	-0.000678	9
	27	228	597.4265	166218.8	83761.45	1	186130.8	26.74458	-1.95897E-005	0.0114219	8
	28	234	477.4305	970604	-1713448	1	1969258	-60.47009	-8.743061E-008	0.0005874	7
	29	239	376.6741	1595307	-1846837	1	2440453	-49.17938	-9.338368E-010	0.0006272	5
	30	241	298.2954	1749532	-2121351	1	2749726	-50.48673	-1.01729E-008	0.000702	6
	31	245	237.7717	2381486	-2158763	1	3214302	-42.19159	-1.028464E-009	0.0006147	5
	32	249	189.0121	2878496	-2222571	1	3636697	-37.67278	-1.048918E-009	0.0006997	5
	33	253	150.2404	3421874	-2330921	1	4140340	-34.26202	-1.082793E-009	0.0006391	5
	34	257	119.1737	3512719	-2085334	1	4085072	-30.69559	-1.010497E-009	0.0006315	5
	35	261	95.0169	4345048	-2075910	1	4815479	-25.53683	-9.433161E-010	0.0006266	5
	36	264	75.60484	4816181	-1904812	1	5179180	-21.57892	-1.087426E-009	0.0006806	5
	37	267	54.50582	5212887	-1592161	1	5450611	-16.98413	-1.022003E-009	0.0006239	5
	38	270	45.95588	5993433	-755623.6	1	6040879	-7.185668	-1.561301E-010	0.0006981	4
	39	272	37.20238	6139066	-703410.8	1	6179234	-6.536413	-1.49563E-010	0.0006138	4
	40	275	30.04808	6201515	-593480.6	1	6229848	-5.466518	-1.305971E-010	0.0006294	4
	41	278	23.91582	6393819	-513703.5	1	6414422	-4.593492	-1.190021E-010	0.0006021	4
	42	281	18.60119	6366404	-224947.5	1	6370377	-2.02362	4.138292E-011	0.0006902	4
	43	283	15.02404	6614946	-379897	1	6625846	-3.286892	-1.453926E-010	0.0007429	4
	44	286	12.01923	6750074	-316577	1	6757493	-2.685192	-1.33076E-010	0.0006715	4
	45	288	9.450605	6913102	-275907	1	6918606	-2.285503	-1.391927E-010	0.0006206	4
	46	291	7.512019	7074265	-241318.3	1	7078380	-1.953724	-1.170135E-010	0.0007132	4
	47	294	5.978954	7286014	-180912.5	1	7288260	-1.422368	-1.136359E-010	0.0007035	4
	48	298	4.734848	7534781	-177176.5	1	7536865	-1.347032	-1.198164E-010	0.0006245	4
	49	303	3.75601	7861105	-166601	1	7862870	-1.214092	-1.049578E-010	0.0006567	4
	50	309	3.004808	8232610	-157006.3	1	8234106	-1.092571	-1.273265E-010	0.0007289	4
	51	315	2.372217	8584379	-134895.8	1	8585439	-0.9002778	-1.271701E-010	0.0006064	4
	52	319	1.878005	8894472	-124244.7	1	8895340	-0.8002989	-1.139175E-010	0.0006506	4
	53	324	1.512097	9266934	-116062	1	9267661	-0.7175529	-1.095603E-010	0.0006824	4
	54	329	1.201923	9.703643E+006	-109618	1	9.704262E+006	-0.6472191	-1.135544E-010	0.0006653	4
	55	336	0.956633	1.021465E+007	-109869.3	1	1.021524E+007	-0.6162527	-1.762609E-010	7.194177E-006	4
