EXPLAIN
TAG	EISPOT
TITLE	LABEL	Potentiostatic EIS	Test Identifier
DATE	LABEL	8/10/2020	Date
TIME	LABEL	1:25:41	Time
NOTES	NOTES	1	Notes...
	
PSTAT	PSTAT	REF3000-16137	Potentiostat
VDC	POTEN	0.00000E+000	T	DC Voltage (V)
FREQINIT	QUANT	3.00000E+005	Initial Freq. (Hz)
FREQFINAL	QUANT	1.00000E+000	Final Freq. (Hz)
PTSPERDEC	QUANT	1.00000E+001	Points/decade
VAC	QUANT	5.00000E+001	AC Voltage (mV rms)
AREA	QUANT	1.00000E+000	Sample Area (cm^2)
SPEED	SELECTOR	2	Optimize for:
ZGUESS	QUANT	1.00000E+003	Estimated Z (ohms)
EOC	QUANT	0	Open Circuit (V)
SEQUENCER	TOGGLE	TRUE	Run as Sequence
PSTATMODEL	IQUANT	5	Pstat Model
PSTATSECTION	LABEL	REF3000-16137	Pstat Section
PSTATSERIALNO	LABEL	16137	Pstat Serial Number
CTRLMODE	IQUANT	1	Control Mode
IESTAB	IQUANT	0	I/E Stability
CASPEED	IQUANT	1	Control Amp Speed
CONVENTION	IQUANT	1	Current Convention
ICHRANGE	IQUANT	2	Ich Range
ICHRANGEMODE	TOGGLE	F	Ich Auto Range
ICHOFFSETENABLE	TOGGLE	T	Ich Offset Enable
ICHOFFSET	QUANT	0	Ich Offset (V)
ICHFILTER	IQUANT	3	Ich Filter
VCHRANGE	IQUANT	2	Vch Range
VCHRANGEMODE	TOGGLE	F	Vch Auto Range
VCHOFFSETENABLE	TOGGLE	T	Vch Offset Enable
VCHOFFSET	QUANT	0	Vch Offset (V)
VCHFILTER	IQUANT	3	Vch Filter
ACHRANGE	IQUANT	2	Ach Range
ACHOFFSETENABLE	TOGGLE	F	Ach Offset Enable
ACHOFFSET	QUANT	0	Ach Offset (V)
ACHFILTER	IQUANT	3	Ach Filter
IERANGELOWERLIMIT	IQUANT	2	I/E Range Lower Limit
IERANGEMODE	TOGGLE	F	I/E AutoRange
IERANGE	IQUANT	11	I/E Range
POSFEEDENABLE	TOGGLE	F	Positive Feedback IR Comp
POSFEEDRESISTANCE	QUANT	0	Positive Feedback Resistance (ohm)
ACHSELECT	IQUANT	0	Ach Select
CABLEID	IQUANT	13	Cable ID
DCCALDATE	LABEL	7/31/2020	DC Calibration Date
ACCALDATE	LABEL	7/31/2020	AC Calibration Date
THERMOSELECT	IQUANT	1	Thermo Select
FRAMEWORKVERSION	QUANT	6.33	Framework Version
INSTRUMENTVERSION	LABEL	3.50	Instrument Version
COMPLIANCEVOLTAGE	IQUANT	0	Compliance Voltage
ZCURVE	TABLE
	Pt	Time	Freq	Zreal	Zimag	Zsig	Zmod	Zphz	Idc	Vdc	IERange
	#	s	Hz	ohm	ohm	V	ohm	°	A	V	#
	0	9	300046.9	288.7495	-20.30043	1	289.4622	-4.021543	2.494872E-005	-0.0006142	9
	1	13	238359.4	292.2174	-22.83618	1	293.1083	-4.468464	2.117426E-005	0.0002939	10
	2	17	189328.1	296.6332	-19.43259	1	297.2691	-3.748118	-5.432895E-007	0.0006663	10
	3	23	150421.9	302.1343	-13.59385	1	302.44	-2.576157	2.311936E-005	-0.0014273	9
	4	30	119484.4	306.1335	-11.79136	1	306.3605	-2.205774	-7.913865E-006	0.0016388	9
	5	35	94921.88	309.2581	-10.37476	1	309.4321	-1.921396	-2.510727E-005	0.0008709	9
	6	38	75421.88	312.2137	-9.141965	1	312.3475	-1.677205	-2.274803E-005	0.0004578	9
	7	42	59859.37	314.1094	-8.233308	1	314.2173	-1.50147	1.21569E-005	0.0003178	9
	8	44	47578.12	316.7274	-7.711629	1	316.8213	-1.394753	-2.313739E-005	0.0004865	9
	9	47	37828.12	318.7773	-7.578711	1	318.8674	-1.361911	2.053756E-005	-2.586465E-005	9
	10	49	30046.88	321.5815	-7.206099	1	321.6622	-1.283687	1.453843E-005	0.0002697	9
	11	52	23859.38	323.2485	-7.217266	1	323.329	-1.279047	2.59382E-005	-0.0003041	9
	12	54	18984.38	325.6048	-7.003103	1	325.6801	-1.232127	-2.258436E-005	0.0005149	9
	13	56	15046.87	328.5916	-7.035369	1	328.6669	-1.226554	1.933092E-005	-3.245844E-005	9
	14	59	11953.13	330.5468	-7.979223	1	330.6431	-1.382821	-2.454377E-005	0.000731	9
	15	61	9515.62	333.731	-7.821569	1	333.8226	-1.342581	-8.571081E-007	-0.0004197	9
	16	64	7546.875	336.7824	-8.404191	1	336.8873	-1.429483	2.471052E-005	-0.000254	9
	17	66	5928.309	339.5873	-8.901148	1	339.704	-1.501474	-9.89221E-006	0.0009422	9
	18	68	4733.456	343.1087	-9.420743	1	343.238	-1.572776	2.060893E-005	-4.562609E-005	9
	19	70	3796.875	346.0564	-10.34804	1	346.2111	-1.712791	-2.628425E-005	0.0011409	9
	20	73	2987.132	348.9322	-11.17481	1	349.1111	-1.834313	-1.947011E-005	0.000366	9
	21	76	2390.625	351.4283	-11.26833	1	351.6089	-1.836525	2.898665E-005	-0.0006362	9
	22	78	1884.191	355.3063	-10.43804	1	355.4596	-1.682727	2.280331E-005	-0.0008489	9
	23	80	1516.544	357.1476	-13.34448	1	357.3968	-2.139807	1.076637E-005	0.0003453	9
	24	83	1193.986	360.9154	-14.42159	1	361.2035	-2.288228	-1.811456E-005	0.0010653	9
	25	85	946.5144	363.1583	-17.00294	1	363.5561	-2.68061	-1.017255E-005	0.0009242	9
	26	88	751.7689	367.4	-19.0011	1	367.891	-2.960571	-1.90335E-005	0.0003313	9
	27	90	597.4265	370.2524	-21.33301	1	370.8665	-3.297593	2.760103E-005	-0.0008173	9
	28	93	477.4305	373.3755	-25.44304	1	374.2414	-3.898298	1.190079E-006	8.018993E-005	9
	29	95	376.6741	374.5208	-30.00963	1	375.7212	-4.581213	-4.00447E-008	0.0006382	8
	30	97	298.2954	377.8821	-35.96082	1	379.5894	-5.436131	-6.684798E-008	0.0006653	8
	31	100	237.7717	381.7112	-43.20536	1	384.1486	-6.457746	-3.998754E-008	0.0006456	8
	32	102	189.0121	385.7138	-52.28734	1	389.2417	-7.719953	-4.15213E-008	0.0006442	8
	33	104	150.2404	389.7729	-63.48293	1	394.9089	-9.250627	-1.099831E-007	0.0007049	8
	34	107	119.1737	394.4298	-77.43647	1	401.9593	-11.10733	-2.418873E-008	0.0006509	8
	35	109	95.0169	399.8235	-94.19194	1	410.7688	-13.25624	-2.84321E-008	0.0006458	8
	36	112	75.60484	406.6322	-114.8545	1	422.5414	-15.77249	-5.33619E-008	0.0006452	8
	37	114	54.50582	417.1462	-152.4307	1	444.124	-20.07297	-1.693308E-008	0.0006406	8
	38	117	45.95588	424.1759	-176.6449	1	459.4874	-22.60892	-1.028421E-007	0.0007032	8
	39	119	37.20238	434.2466	-211.9079	1	483.1926	-26.0119	-4.462625E-008	0.0006384	8
	40	121	30.04808	445.3224	-254.5806	1	512.9555	-29.75561	-3.206551E-008	0.0006421	8
	41	124	23.91582	459.4341	-309.7029	1	554.0718	-33.98377	-3.229349E-008	0.0006985	8
	42	126	18.60119	477.2892	-384.5237	1	612.9138	-38.85634	7.515936E-008	0.0006347	8
	43	129	15.02404	495.8671	-462.2672	1	677.9197	-42.99157	3.06054E-008	0.0006587	8
	44	131	12.01923	517.4902	-561.2566	1	763.4167	-47.3233	-1.278836E-007	0.0006654	8
	45	133	9.450605	545.6394	-692.4677	1	881.6086	-51.76317	9.677191E-009	0.0006347	8
	46	136	7.512019	577.4494	-847.2878	1	1025.351	-55.72452	-8.489129E-008	0.0006225	8
	47	139	5.978954	617.5621	-1036.473	1	1206.507	-59.21222	-1.117668E-008	0.0006477	8
	48	142	4.734848	667.677	-1275.823	1	1439.971	-62.37557	-8.203733E-008	0.0006156	8
	49	145	3.75601	730.7946	-1566.32	1	1728.415	-64.98775	-2.227277E-008	0.0006745	8
	50	148	3.004808	807.1454	-1909.113	1	2072.726	-67.08205	-2.157645E-008	0.0006414	8
	51	152	2.372217	915.0131	-2352.356	1	2524.05	-68.74509	-5.361807E-008	0.0005969	8
	52	156	1.878005	1050.074	-2899.986	1	3084.246	-70.09487	-1.351772E-008	0.0006448	8
	53	161	1.512097	1207.296	-3507.223	1	3709.202	-71.00493	-5.382584E-008	0.0007694	8
	54	166	1.201923	1439.669	-4301.657	1	4536.177	-71.49575	7.237463E-009	0.0006347	7
	55	173	0.956633	1728.266	-5239.773	1	5517.438	-71.74559	-5.595947E-008	-2.080302E-005	7
