EXPLAIN
TAG	EISPOT
TITLE	LABEL	Potentiostatic EIS	Test Identifier
DATE	LABEL	8/10/2020	Date
TIME	LABEL	0:49:34	Time
NOTES	NOTES	1	Notes...
	
PSTAT	PSTAT	REF3000-16137	Potentiostat
VDC	POTEN	0.00000E+000	T	DC Voltage (V)
FREQINIT	QUANT	3.00000E+005	Initial Freq. (Hz)
FREQFINAL	QUANT	1.00000E+000	Final Freq. (Hz)
PTSPERDEC	QUANT	1.00000E+001	Points/decade
VAC	QUANT	5.00000E+001	AC Voltage (mV rms)
AREA	QUANT	1.00000E+000	Sample Area (cm^2)
SPEED	SELECTOR	2	Optimize for:
ZGUESS	QUANT	1.00000E+003	Estimated Z (ohms)
EOC	QUANT	0	Open Circuit (V)
SEQUENCER	TOGGLE	TRUE	Run as Sequence
PSTATMODEL	IQUANT	5	Pstat Model
PSTATSECTION	LABEL	REF3000-16137	Pstat Section
PSTATSERIALNO	LABEL	16137	Pstat Serial Number
CTRLMODE	IQUANT	1	Control Mode
IESTAB	IQUANT	0	I/E Stability
CASPEED	IQUANT	1	Control Amp Speed
CONVENTION	IQUANT	1	Current Convention
ICHRANGE	IQUANT	2	Ich Range
ICHRANGEMODE	TOGGLE	F	Ich Auto Range
ICHOFFSETENABLE	TOGGLE	T	Ich Offset Enable
ICHOFFSET	QUANT	0	Ich Offset (V)
ICHFILTER	IQUANT	3	Ich Filter
VCHRANGE	IQUANT	2	Vch Range
VCHRANGEMODE	TOGGLE	F	Vch Auto Range
VCHOFFSETENABLE	TOGGLE	T	Vch Offset Enable
VCHOFFSET	QUANT	0	Vch Offset (V)
VCHFILTER	IQUANT	3	Vch Filter
ACHRANGE	IQUANT	2	Ach Range
ACHOFFSETENABLE	TOGGLE	F	Ach Offset Enable
ACHOFFSET	QUANT	0	Ach Offset (V)
ACHFILTER	IQUANT	3	Ach Filter
IERANGELOWERLIMIT	IQUANT	2	I/E Range Lower Limit
IERANGEMODE	TOGGLE	F	I/E AutoRange
IERANGE	IQUANT	11	I/E Range
POSFEEDENABLE	TOGGLE	F	Positive Feedback IR Comp
POSFEEDRESISTANCE	QUANT	0	Positive Feedback Resistance (ohm)
ACHSELECT	IQUANT	0	Ach Select
CABLEID	IQUANT	13	Cable ID
DCCALDATE	LABEL	7/31/2020	DC Calibration Date
ACCALDATE	LABEL	7/31/2020	AC Calibration Date
THERMOSELECT	IQUANT	1	Thermo Select
FRAMEWORKVERSION	QUANT	6.33	Framework Version
INSTRUMENTVERSION	LABEL	3.50	Instrument Version
COMPLIANCEVOLTAGE	IQUANT	0	Compliance Voltage
ZCURVE	TABLE
	Pt	Time	Freq	Zreal	Zimag	Zsig	Zmod	Zphz	Idc	Vdc	IERange
	#	s	Hz	ohm	ohm	V	ohm	°	A	V	#
	0	8	300046.9	12.70975	-1.06804	1	12.75455	-4.803456	-1.889089E-005	0.0003164	10
	1	11	238359.4	12.99334	-1.736532	1	13.10886	-7.612351	4.910823E-005	0.0004465	10
	2	14	189328.1	13.29155	-2.376511	1	13.50234	-10.13728	-1.674717E-005	0.0005357	10
	3	17	150421.9	13.646	-3.050773	1	13.98286	-12.60213	-0.0001009	0.0006049	10
	4	19	119484.4	14.04708	-3.80031	1	14.55207	-15.13846	5.232444E-006	0.000713	10
	5	22	94921.88	14.52202	-4.560689	1	15.22133	-17.43507	-3.425025E-006	0.0006255	10
	6	25	75421.88	15.0611	-5.457752	1	16.01948	-19.9192	-1.763091E-005	0.0007218	10
	7	27	59859.37	15.7016	-6.448314	1	16.97412	-22.32692	-2.307576E-005	0.0007062	10
	8	30	47578.12	16.43549	-7.554933	1	18.08874	-24.68691	-2.446274E-005	0.0007148	10
	9	32	37828.12	17.27235	-8.820728	1	19.39432	-27.05271	-1.802379E-005	0.0006571	10
	10	35	30046.88	18.2325	-10.23129	1	20.90701	-29.29925	1.350258E-005	0.0006183	10
	11	37	23859.38	19.31568	-11.84393	1	22.65776	-31.51567	2.132385E-005	0.0006233	10
	12	39	18984.38	20.52871	-13.67335	1	24.66553	-33.66599	2.00802E-005	0.0006327	10
	13	42	15046.87	21.87817	-15.83955	1	27.01011	-35.90412	-1.615176E-005	0.0006699	10
	14	44	11953.13	23.35123	-18.33392	1	29.68859	-38.13677	5.48468E-006	0.0006349	10
	15	46	9515.62	24.94126	-21.23837	1	32.75874	-40.41558	1.395368E-005	0.0006179	10
	16	49	7546.875	26.72482	-24.80005	1	36.459	-42.86064	-2.584035E-005	0.0006782	10
	17	51	5928.309	28.77955	-29.1496	1	40.96293	-45.366	1.209616E-005	-0.000172	9
	18	53	4733.456	30.94881	-34.19531	1	46.12101	-47.85302	-7.54418E-006	0.0002141	9
	19	56	3796.875	33.35388	-40.2063	1	52.24009	-50.32197	1.276786E-005	-0.000178	9
	20	58	2987.132	36.45343	-48.11154	1	60.36201	-52.84931	-8.854982E-006	0.000327	9
	21	60	2390.625	39.88836	-57.19997	1	69.73463	-55.11003	-8.802173E-006	0.0002046	9
	22	63	1884.191	44.58427	-68.68452	1	81.88602	-57.01172	-5.002796E-006	0.000145	9
	23	65	1516.544	49.89174	-81.4236	1	95.4934	-58.50241	-8.256048E-006	0.0003144	9
	24	67	1193.986	57.08529	-98.5061	1	113.8516	-59.90726	1.036681E-005	-8.820972E-005	9
	25	70	946.5144	66.64429	-117.8592	1	135.3967	-60.51371	5.946077E-006	-1.002493E-005	9
	26	72	751.7689	78.7442	-140.5745	1	161.1268	-60.7442	5.316695E-006	-0.0001261	9
	27	74	597.4265	94.51375	-166.4999	1	191.4551	-60.41856	-6.424634E-006	0.0003146	9
	28	77	477.4305	114.1628	-194.8868	1	225.8628	-59.63864	1.07073E-006	7.408742E-005	9
	29	79	376.6741	140.2665	-229.4028	1	268.8872	-58.55664	1.138085E-006	6.979075E-005	9
	30	81	298.2954	173.656	-264.7026	1	316.5815	-56.73345	1.126223E-006	0.0001242	9
	31	84	237.7717	213.0726	-301.6912	1	369.3474	-54.76794	1.127999E-006	7.855143E-005	9
	32	86	189.0121	260.1777	-337.3401	1	426.0173	-52.35835	-9.286506E-008	0.0006528	8
	33	88	150.2404	316.5385	-371.0927	1	487.7565	-49.53614	-3.56394E-008	0.0006523	8
	34	91	119.1737	380.655	-405.5244	1	556.1909	-46.81185	-1.41298E-007	0.0006548	8
	35	93	95.0169	450.2588	-436.8268	1	627.3362	-44.13251	-8.65968E-008	0.0006597	8
	36	96	75.60484	525.265	-460.7805	1	698.7288	-41.25835	-1.022952E-007	0.0006571	8
	37	98	54.50582	636.4736	-484.8659	1	800.121	-37.30017	-1.171296E-007	0.0006543	8
	38	101	45.95588	690.1566	-484.8461	1	843.4405	-35.08866	1.583407E-007	0.0006577	8
	39	103	37.20238	755.8878	-487.6769	1	899.5527	-32.82894	-2.699099E-007	0.0007206	8
	40	105	30.04808	823.0872	-494.3793	1	960.148	-30.99072	-3.184271E-008	0.0006507	8
	41	108	23.91582	888.6545	-498.8911	1	1019.117	-29.30988	-3.014263E-007	0.0006483	8
	42	110	18.60119	969.642	-516.152	1	1098.462	-28.02691	-7.505926E-007	0.0006548	8
	43	113	15.02404	1025.86	-522.9302	1	1151.453	-27.01012	6.647495E-007	0.0006624	8
	44	115	12.01923	1082.496	-536.4209	1	1208.116	-26.36029	-6.660681E-007	0.000707	8
	45	117	9.450605	1146.11	-564.2649	1	1277.483	-26.21244	9.584337E-008	0.0006714	8
	46	120	7.512019	1193.191	-593.4497	1	1332.624	-26.44407	3.464612E-007	0.0006697	8
	47	123	5.978954	1244.626	-633.9639	1	1396.783	-26.99252	1.468714E-007	0.0006558	8
	48	126	4.734848	1293.135	-692.3984	1	1466.838	-28.16646	2.866437E-007	0.0006851	8
	49	129	3.75601	1346.488	-769.9725	1	1551.092	-29.76255	2.337486E-008	0.0006388	8
	50	132	3.004808	1404.61	-873.1467	1	1653.879	-31.86629	3.939704E-008	0.0006819	8
	51	136	2.372217	1452.178	-1010.436	1	1769.125	-34.83048	1.824905E-007	0.000732	8
	52	140	1.878005	1508.894	-1196.128	1	1925.482	-38.4045	9.152341E-008	0.0006258	8
	53	145	1.512097	1592.059	-1408.274	1	2125.532	-41.49473	1.080019E-007	0.0007441	8
	54	150	1.201923	1658.213	-1700.665	1	2375.275	-45.72411	1.328025E-007	0.0006265	8
	55	157	0.956633	1754.277	-2061.043	1	2706.545	-49.59691	1.142129E-007	1.645219E-005	8
