EXPLAIN
TAG	EISPOT
TITLE	LABEL	Potentiostatic EIS	Test Identifier
DATE	LABEL	8/10/2020	Date
TIME	LABEL	1:22:45	Time
NOTES	NOTES	1	Notes...
	
PSTAT	PSTAT	REF3000-16137	Potentiostat
VDC	POTEN	0.00000E+000	T	DC Voltage (V)
FREQINIT	QUANT	3.00000E+005	Initial Freq. (Hz)
FREQFINAL	QUANT	1.00000E+000	Final Freq. (Hz)
PTSPERDEC	QUANT	1.00000E+001	Points/decade
VAC	QUANT	5.00000E+001	AC Voltage (mV rms)
AREA	QUANT	1.00000E+000	Sample Area (cm^2)
SPEED	SELECTOR	2	Optimize for:
ZGUESS	QUANT	1.00000E+003	Estimated Z (ohms)
EOC	QUANT	0	Open Circuit (V)
SEQUENCER	TOGGLE	TRUE	Run as Sequence
PSTATMODEL	IQUANT	5	Pstat Model
PSTATSECTION	LABEL	REF3000-16137	Pstat Section
PSTATSERIALNO	LABEL	16137	Pstat Serial Number
CTRLMODE	IQUANT	1	Control Mode
IESTAB	IQUANT	0	I/E Stability
CASPEED	IQUANT	1	Control Amp Speed
CONVENTION	IQUANT	1	Current Convention
ICHRANGE	IQUANT	2	Ich Range
ICHRANGEMODE	TOGGLE	F	Ich Auto Range
ICHOFFSETENABLE	TOGGLE	T	Ich Offset Enable
ICHOFFSET	QUANT	0	Ich Offset (V)
ICHFILTER	IQUANT	3	Ich Filter
VCHRANGE	IQUANT	2	Vch Range
VCHRANGEMODE	TOGGLE	F	Vch Auto Range
VCHOFFSETENABLE	TOGGLE	T	Vch Offset Enable
VCHOFFSET	QUANT	0	Vch Offset (V)
VCHFILTER	IQUANT	3	Vch Filter
ACHRANGE	IQUANT	2	Ach Range
ACHOFFSETENABLE	TOGGLE	F	Ach Offset Enable
ACHOFFSET	QUANT	0	Ach Offset (V)
ACHFILTER	IQUANT	3	Ach Filter
IERANGELOWERLIMIT	IQUANT	2	I/E Range Lower Limit
IERANGEMODE	TOGGLE	F	I/E AutoRange
IERANGE	IQUANT	11	I/E Range
POSFEEDENABLE	TOGGLE	F	Positive Feedback IR Comp
POSFEEDRESISTANCE	QUANT	0	Positive Feedback Resistance (ohm)
ACHSELECT	IQUANT	0	Ach Select
CABLEID	IQUANT	13	Cable ID
DCCALDATE	LABEL	7/31/2020	DC Calibration Date
ACCALDATE	LABEL	7/31/2020	AC Calibration Date
THERMOSELECT	IQUANT	1	Thermo Select
FRAMEWORKVERSION	QUANT	6.33	Framework Version
INSTRUMENTVERSION	LABEL	3.50	Instrument Version
COMPLIANCEVOLTAGE	IQUANT	0	Compliance Voltage
ZCURVE	TABLE
	Pt	Time	Freq	Zreal	Zimag	Zsig	Zmod	Zphz	Idc	Vdc	IERange
	#	s	Hz	ohm	ohm	V	ohm	°	A	V	#
	0	7	300046.9	199.8777	-9.271799	1	200.0926	-2.655897	1.660963E-005	-0.0011773	9
	1	10	238359.4	201.7141	-8.403201	1	201.8891	-2.385503	-6.063255E-005	0.0007215	9
	2	14	189328.1	203.7104	-7.305851	1	203.8414	-2.053971	-8.21491E-005	0.0021177	9
	3	17	150421.9	205.4481	-6.57633	1	205.5533	-1.833394	1.776342E-005	-0.0008675	9
	4	20	119484.4	206.9586	-6.724926	1	207.0679	-1.861118	-3.202212E-005	-0.0005439	9
	5	22	94921.88	208.1437	-6.120471	1	208.2336	-1.684299	-1.594207E-005	0.0010043	9
	6	25	75421.88	209.8344	-5.984475	1	209.9197	-1.633632	9.166209E-006	-0.0007298	9
	7	27	59859.37	211.2728	-6.163502	1	211.3627	-1.671026	-1.030963E-005	-8.176239E-005	9
	8	30	47578.12	213.0486	-6.506592	1	213.1479	-1.749293	2.647047E-005	-0.0008151	9
	9	32	37828.12	215.0391	-6.782193	1	215.146	-1.806473	2.799886E-005	-0.0006946	9
	10	35	30046.88	216.6102	-6.94715	1	216.7216	-1.836968	-9.586174E-006	-9.10085E-005	9
	11	37	23859.38	218.5852	-7.343507	1	218.7085	-1.924164	2.630911E-005	-0.0004472	9
	12	40	18984.38	220.6918	-8.045294	1	220.8383	-2.087787	-2.135577E-005	0.0004981	9
	13	42	15046.87	222.3382	-8.77681	1	222.5114	-2.26058	1.584012E-005	-0.0008202	9
	14	44	11953.13	224.7188	-8.942407	1	224.8967	-2.278812	1.987393E-005	-0.0009275	9
	15	47	9515.62	227.182	-9.65067	1	227.3869	-2.432456	1.152891E-005	0.0002406	9
	16	49	7546.875	229.6782	-10.21539	1	229.9053	-2.546663	2.479002E-005	-0.000826	9
	17	51	5928.309	232.5547	-10.92812	1	232.8113	-2.690442	2.014141E-005	-6.985229E-005	9
	18	54	4733.456	235.2819	-11.42642	1	235.5592	-2.780374	9.060201E-007	0.000618	9
	19	56	3796.875	237.3829	-11.52071	1	237.6624	-2.778509	-9.046531E-006	-0.00011	9
	20	58	2987.132	241.069	-12.5004	1	241.3929	-2.96836	1.12901E-005	0.0002835	9
	21	62	2390.625	243.3402	-13.13314	1	243.6944	-3.089271	-1.532477E-005	0.0001385	9
	22	65	1884.191	246.3082	-12.99609	1	246.6508	-3.020327	2.533942E-005	-0.0002674	9
	23	68	1516.544	249.9872	-15.03338	1	250.4388	-3.44143	2.685946E-005	-0.0007944	9
	24	72	1193.986	252.9727	-15.94337	1	253.4746	-3.606243	-8.674008E-006	0.00088	9
	25	76	946.5144	256.4305	-17.46765	1	257.0247	-3.89688	-2.218804E-005	0.0005363	9
	26	79	751.7689	259.0925	-19.41829	1	259.8192	-4.286152	2.759093E-005	-0.0004901	9
	27	83	597.4265	261.7872	-22.58732	1	262.7598	-4.931336	-2.385626E-005	0.0008829	9
	28	86	477.4305	264.0812	-25.52835	1	265.3122	-5.521543	1.277555E-006	7.421774E-005	9
	29	89	376.6741	266.8573	-29.99381	1	268.5376	-6.412928	1.265699E-006	6.618808E-005	9
	30	91	298.2954	270.3311	-35.62434	1	272.6683	-7.507203	1.275229E-006	7.465154E-005	9
	31	93	237.7717	273.0421	-42.30318	1	276.2997	-8.806973	1.166215E-006	6.889806E-005	9
	32	96	189.0121	276.6731	-50.77282	1	281.2932	-10.39876	1.26057E-006	7.378447E-005	9
	33	98	150.2404	280.1953	-61.15971	1	286.7924	-12.31313	1.225127E-006	7.195196E-005	9
	34	101	119.1737	284.1324	-74.07746	1	293.6302	-14.61256	1.236686E-006	7.899952E-005	9
	35	103	95.0169	289.2121	-89.58049	1	302.7677	-17.20983	1.22024E-006	8.141471E-005	9
	36	105	75.60484	295.1941	-108.6583	1	314.5571	-20.20822	1.166114E-006	7.182177E-005	9
	37	108	54.50582	304.0737	-143.2822	1	336.1407	-25.23022	1.269798E-006	6.391198E-005	9
	38	111	45.95588	309.7642	-165.6612	1	351.2798	-28.13777	1.221125E-006	8.615752E-005	9
	39	113	37.20238	316.574	-197.531	1	373.1455	-31.96271	5.51407E-008	0.000648	8
	40	115	30.04808	326.8015	-237.2105	1	403.8168	-35.97421	1.993473E-008	0.000652	8
	41	118	23.91582	338.2133	-288.6492	1	444.6421	-40.4792	7.474495E-008	0.0006402	8
	42	120	18.60119	353.6385	-359.0343	1	503.9502	-45.43379	-7.525902E-008	0.0006414	8
	43	122	15.02404	369.4564	-432.5364	1	568.846	-49.49729	-3.819083E-008	0.000644	8
	44	125	12.01923	388.331	-526.0627	1	653.8677	-53.56586	5.961358E-008	0.0006532	8
	45	127	9.450605	413.8865	-650.7108	1	771.1851	-57.54148	7.438835E-008	0.000637	8
	46	130	7.512019	444.3871	-797.3384	1	912.8135	-60.86741	7.672249E-008	0.0006715	8
	47	132	5.978954	482.8762	-976.845	1	1089.677	-63.6958	9.840206E-009	0.0006587	8
	48	135	4.734848	532.0298	-1203	1	1315.395	-66.14246	7.278061E-008	0.0006704	8
	49	139	3.75601	595.7053	-1476.605	1	1592.24	-68.02942	-4.528646E-008	0.0006362	8
	50	142	3.004808	675.4872	-1797.781	1	1920.495	-69.4071	1.486611E-008	0.0006544	8
	51	146	2.372217	786.7445	-2210.456	1	2346.291	-70.40836	4.615317E-009	0.0006873	8
	52	150	1.878005	929.2632	-2715.803	1	2870.386	-71.11065	-2.502061E-008	0.0006297	8
	53	155	1.512097	1095.144	-3267.488	1	3446.131	-71.4707	9.545058E-009	0.0006279	8
	54	160	1.201923	1332.745	-3980.832	1	4198.003	-71.48994	-6.718224E-009	0.000624	8
	55	166	0.956633	1632.888	-4827.689	1	5096.362	-71.31272	-4.542074E-008	-1.792282E-005	7
