EXPLAIN
TAG	EISPOT
TITLE	LABEL	Potentiostatic EIS	Test Identifier
DATE	LABEL	2/27/2021	Date
TIME	LABEL	18:48:45	Time
NOTES	NOTES	1	Notes...
	
PSTAT	PSTAT	REF3000-16137	Potentiostat
VDC	POTEN	0.00000E+000	T	DC Voltage (V)
FREQINIT	QUANT	3.00000E+005	Initial Freq. (Hz)
FREQFINAL	QUANT	1.00000E+000	Final Freq. (Hz)
PTSPERDEC	QUANT	1.00000E+001	Points/decade
VAC	QUANT	5.00000E+001	AC Voltage (mV rms)
AREA	QUANT	1.00000E+000	Sample Area (cm^2)
SPEED	SELECTOR	2	Optimize for:
ZGUESS	QUANT	1.00000E+003	Estimated Z (ohms)
EOC	QUANT	0	Open Circuit (V)
SEQUENCER	TOGGLE	TRUE	Run as Sequence
PSTATMODEL	IQUANT	5	Pstat Model
PSTATSECTION	LABEL	REF3000-16137	Pstat Section
PSTATSERIALNO	LABEL	16137	Pstat Serial Number
CTRLMODE	IQUANT	1	Control Mode
IESTAB	IQUANT	0	I/E Stability
CASPEED	IQUANT	1	Control Amp Speed
CONVENTION	IQUANT	1	Current Convention
ICHRANGE	IQUANT	2	Ich Range
ICHRANGEMODE	TOGGLE	F	Ich Auto Range
ICHOFFSETENABLE	TOGGLE	T	Ich Offset Enable
ICHOFFSET	QUANT	0	Ich Offset (V)
ICHFILTER	IQUANT	3	Ich Filter
VCHRANGE	IQUANT	2	Vch Range
VCHRANGEMODE	TOGGLE	F	Vch Auto Range
VCHOFFSETENABLE	TOGGLE	T	Vch Offset Enable
VCHOFFSET	QUANT	0	Vch Offset (V)
VCHFILTER	IQUANT	3	Vch Filter
ACHRANGE	IQUANT	2	Ach Range
ACHOFFSETENABLE	TOGGLE	F	Ach Offset Enable
ACHOFFSET	QUANT	0	Ach Offset (V)
ACHFILTER	IQUANT	3	Ach Filter
IERANGELOWERLIMIT	IQUANT	2	I/E Range Lower Limit
IERANGEMODE	TOGGLE	F	I/E AutoRange
IERANGE	IQUANT	11	I/E Range
POSFEEDENABLE	TOGGLE	F	Positive Feedback IR Comp
POSFEEDRESISTANCE	QUANT	0	Positive Feedback Resistance (ohm)
ACHSELECT	IQUANT	0	Ach Select
CABLEID	IQUANT	13	Cable ID
DCCALDATE	LABEL	7/31/2020	DC Calibration Date
ACCALDATE	LABEL	7/31/2020	AC Calibration Date
THERMOSELECT	IQUANT	1	Thermo Select
FRAMEWORKVERSION	QUANT	6.33	Framework Version
INSTRUMENTVERSION	LABEL	3.50	Instrument Version
COMPLIANCEVOLTAGE	IQUANT	0	Compliance Voltage
ZCURVE	TABLE
	Pt	Time	Freq	Zreal	Zimag	Zsig	Zmod	Zphz	Idc	Vdc	IERange
	#	s	Hz	ohm	ohm	V	ohm	°	A	V	#
	0	7	300046.9	39.27577	-5.516867	1	39.66134	-7.995734	-1.280845E-005	-0.0009723	9
	1	10	238359.4	39.98473	-7.492005	1	40.68057	-10.61255	-1.16799E-006	-0.0011834	9
	2	13	189328.1	40.9394	-9.496165	1	42.02633	-13.05919	5.066191E-006	-0.0009528	9
	3	16	150421.9	41.99015	-11.64915	1	43.57609	-15.50539	5.068491E-005	-0.0017754	9
	4	18	119484.4	43.11377	-14.26279	1	45.41172	-18.30511	3.889303E-006	0.0004561	9
	5	21	94921.88	44.43126	-16.79618	1	47.49998	-20.7079	-1.091379E-005	0.0005696	9
	6	23	75421.88	45.70026	-20.04878	1	49.90458	-23.68714	1.93391E-005	-0.0002754	9
	7	26	59859.37	47.06862	-23.94271	1	52.80822	-26.96138	1.945566E-006	-0.0002071	9
	8	29	47578.12	48.57017	-28.58601	1	56.35798	-30.47897	1.803658E-005	-0.0002696	9
	9	31	37828.12	50.17212	-34.21621	1	60.72883	-34.29307	1.644077E-005	-0.0004675	9
	10	34	30046.88	51.87236	-41.18358	1	66.23314	-38.44749	8.101765E-006	-0.0003511	9
	11	36	23859.38	53.94073	-49.75602	1	73.38436	-42.68907	1.790597E-005	-0.0004993	9
	12	38	18984.38	56.2977	-60.1441	1	82.38169	-46.89196	1.336938E-005	-0.000461	9
	13	41	15046.87	58.95953	-73.27224	1	94.04811	-51.17762	1.904142E-005	-0.0004295	9
	14	43	11953.13	62.20848	-89.3698	1	108.8892	-55.15902	-1.748061E-006	0.0004142	9
	15	45	9515.62	66.21551	-108.4659	1	127.0801	-58.59706	-1.33586E-005	0.0006543	9
	16	48	7546.875	70.94244	-132.5394	1	150.3314	-61.84184	-5.663915E-006	0.0005929	9
	17	50	5928.309	76.85823	-164.0638	1	181.1743	-64.89853	-6.343235E-006	0.0005493	9
	18	52	4733.456	83.56956	-199.6921	1	216.4736	-67.29108	-1.45014E-005	0.0005591	9
	19	55	3796.875	92.37502	-241.8195	1	258.8625	-69.09315	1.280857E-005	-0.000446	9
	20	57	2987.132	101.5628	-299.4805	1	316.2334	-71.26666	-1.432255E-005	0.0005416	9
	21	59	2390.625	112.304	-365.6229	1	382.4817	-72.92524	-6.685385E-006	0.0005185	9
	22	62	1884.191	129.6329	-447.811	1	466.1967	-73.85526	-1.088702E-007	0.0004133	8
	23	64	1516.544	146.9595	-542.9518	1	562.489	-74.85477	2.944733E-006	-0.0003122	8
	24	66	1193.986	170.4743	-670.5278	1	691.8591	-75.7354	-2.787654E-006	0.0013264	8
	25	69	946.5144	195.9969	-825.2437	1	848.1992	-76.63968	3.541209E-006	-0.000382	8
	26	71	751.7689	231.94	-1011.412	1	1037.666	-77.08408	-2.360321E-006	0.0016307	8
	27	73	597.4265	271.9375	-1240.426	1	1269.884	-77.63471	-1.448446E-007	0.0013233	8
	28	76	477.4305	319.5511	-1511.975	1	1545.374	-78.06633	5.065631E-007	0.0006764	8
	29	78	376.6741	379.8864	-1865.84	1	1904.12	-78.49184	5.147047E-007	0.0006584	8
	30	80	298.2954	451.2747	-2295.814	1	2339.746	-78.87948	5.142092E-007	0.0006662	8
	31	83	237.7717	533.9875	-2810.273	1	2860.555	-79.24133	5.163805E-007	0.0006651	8
	32	85	189.0121	634.1802	-3451.447	1	3509.226	-79.58842	5.192063E-007	0.0006626	8
	33	87	150.2404	754.1143	-4241.417	1	4307.935	-79.9183	5.222192E-007	0.0006631	8
	34	90	119.1737	903.0236	-5237.083	1	5314.367	-80.21677	5.385731E-008	0.0006365	7
	35	92	95.0169	1076.709	-6428.113	1	6517.664	-80.49123	5.401268E-008	0.0006359	7
	36	95	75.60484	1291.317	-7911.866	1	8016.553	-80.73034	5.390381E-008	0.0006358	7
	37	97	54.50582	1683.753	-10662.97	1	10795.09	-81.02672	5.618272E-008	0.0006282	7
	38	100	45.95588	1939.939	-12455.23	1	12605.4	-81.14714	5.577355E-008	0.0006372	7
	39	102	37.20238	2316.158	-15090.77	1	15267.48	-81.27423	5.259864E-008	0.0006337	7
	40	104	30.04808	2806.524	-18390.27	1	18603.19	-81.32309	5.260156E-008	0.0006322	7
	41	107	23.91582	3434.114	-22690.42	1	22948.82	-81.39381	5.391097E-008	0.0006369	7
	42	109	18.60119	4320.007	-28470.5	1	28796.39	-81.37197	4.949595E-008	0.0006488	7
	43	112	15.02404	5247.373	-34618.77	1	35014.2	-81.38094	5.536063E-008	0.0006519	7
	44	114	12.01923	6516.957	-42314.66	1	42813.56	-81.24457	5.347502E-008	0.000636	7
	45	116	9.450605	8267.829	-52697.51	1	53342.15	-81.08343	7.578801E-009	0.0006824	6
	46	119	7.512019	10425.42	-64994.12	1	65824.95	-80.88707	6.982175E-009	0.0006996	6
	47	122	5.978954	13188.13	-80048.51	1	81127.62	-80.64447	7.015554E-009	0.0006956	6
	48	126	4.734848	16968.66	-99101.9	1	100544.1	-80.28378	6.742228E-009	0.0006694	6
	49	129	3.75601	21918.3	-122206.6	1	124156.6	-79.83186	7.091901E-009	0.0006845	6
	50	135	3.004808	28217.79	-149434.8	1	152075.7	-79.30674	6.670017E-009	0.0007177	6
	51	141	2.372217	36957.14	-184360.6	1	188028.4	-78.66467	6.535341E-009	0.0007156	6
	52	146	1.878005	49173.52	-226985.4	1	232250.8	-77.77648	6.62134E-009	0.0006594	6
	53	150	1.512097	64045.54	-274491.3	1	281864	-76.86646	6.463138E-009	0.0007787	6
	54	156	1.201923	84843.97	-334869.1	1	345450.2	-75.78246	6.820827E-009	0.0006543	6
	55	162	0.956633	112392	-406466.3	1	421718.8	-74.54334	5.798726E-009	3.246748E-005	6
