EXPLAIN
TAG	EISPOT
TITLE	LABEL	Potentiostatic EIS	Test Identifier
DATE	LABEL	2/27/2021	Date
TIME	LABEL	18:31:24	Time
NOTES	NOTES	1	Notes...
	
PSTAT	PSTAT	REF3000-16137	Potentiostat
VDC	POTEN	0.00000E+000	T	DC Voltage (V)
FREQINIT	QUANT	3.00000E+005	Initial Freq. (Hz)
FREQFINAL	QUANT	1.00000E+000	Final Freq. (Hz)
PTSPERDEC	QUANT	1.00000E+001	Points/decade
VAC	QUANT	5.00000E+001	AC Voltage (mV rms)
AREA	QUANT	1.00000E+000	Sample Area (cm^2)
SPEED	SELECTOR	2	Optimize for:
ZGUESS	QUANT	1.00000E+003	Estimated Z (ohms)
EOC	QUANT	0	Open Circuit (V)
SEQUENCER	TOGGLE	TRUE	Run as Sequence
PSTATMODEL	IQUANT	5	Pstat Model
PSTATSECTION	LABEL	REF3000-16137	Pstat Section
PSTATSERIALNO	LABEL	16137	Pstat Serial Number
CTRLMODE	IQUANT	1	Control Mode
IESTAB	IQUANT	0	I/E Stability
CASPEED	IQUANT	1	Control Amp Speed
CONVENTION	IQUANT	1	Current Convention
ICHRANGE	IQUANT	2	Ich Range
ICHRANGEMODE	TOGGLE	F	Ich Auto Range
ICHOFFSETENABLE	TOGGLE	T	Ich Offset Enable
ICHOFFSET	QUANT	0	Ich Offset (V)
ICHFILTER	IQUANT	3	Ich Filter
VCHRANGE	IQUANT	2	Vch Range
VCHRANGEMODE	TOGGLE	F	Vch Auto Range
VCHOFFSETENABLE	TOGGLE	T	Vch Offset Enable
VCHOFFSET	QUANT	0	Vch Offset (V)
VCHFILTER	IQUANT	3	Vch Filter
ACHRANGE	IQUANT	2	Ach Range
ACHOFFSETENABLE	TOGGLE	F	Ach Offset Enable
ACHOFFSET	QUANT	0	Ach Offset (V)
ACHFILTER	IQUANT	3	Ach Filter
IERANGELOWERLIMIT	IQUANT	2	I/E Range Lower Limit
IERANGEMODE	TOGGLE	F	I/E AutoRange
IERANGE	IQUANT	11	I/E Range
POSFEEDENABLE	TOGGLE	F	Positive Feedback IR Comp
POSFEEDRESISTANCE	QUANT	0	Positive Feedback Resistance (ohm)
ACHSELECT	IQUANT	0	Ach Select
CABLEID	IQUANT	13	Cable ID
DCCALDATE	LABEL	7/31/2020	DC Calibration Date
ACCALDATE	LABEL	7/31/2020	AC Calibration Date
THERMOSELECT	IQUANT	1	Thermo Select
FRAMEWORKVERSION	QUANT	6.33	Framework Version
INSTRUMENTVERSION	LABEL	3.50	Instrument Version
COMPLIANCEVOLTAGE	IQUANT	0	Compliance Voltage
ZCURVE	TABLE
	Pt	Time	Freq	Zreal	Zimag	Zsig	Zmod	Zphz	Idc	Vdc	IERange
	#	s	Hz	ohm	ohm	V	ohm	°	A	V	#
	0	7	300046.9	31.53662	-5.663726	1	32.04116	-10.18133	1.287876E-005	0.0001092	11
	1	11	238359.4	32.44632	-6.835329	1	33.15849	-11.89631	1.451046E-005	0.0004429	10
	2	15	189328.1	33.2499	-8.499205	1	34.31898	-14.33869	2.948532E-005	0.0005454	10
	3	17	150421.9	34.15902	-10.27392	1	35.67061	-16.73958	8.752276E-005	0.0004164	10
	4	20	119484.4	35.17149	-12.29838	1	37.25969	-19.27315	-5.915181E-006	0.0005083	10
	5	22	94921.88	36.32733	-14.23796	1	39.01787	-21.40196	-7.691831E-006	0.0005716	9
	6	25	75421.88	37.36289	-17.04338	1	41.06656	-24.52048	-3.85571E-006	0.000482	9
	7	27	59859.37	38.52285	-20.36206	1	43.57319	-27.85963	-1.081834E-005	0.0005717	9
	8	30	47578.12	39.77367	-24.37625	1	46.64919	-31.50304	1.619744E-005	-0.0001169	9
	9	32	37828.12	41.15788	-29.22918	1	50.48084	-35.38131	-4.857244E-006	0.0005418	9
	10	35	30046.88	42.73	-35.26186	1	55.40082	-39.5303	-8.434434E-006	0.0001703	9
	11	38	23859.38	44.56524	-42.58374	1	61.63956	-43.69749	-1.276763E-005	0.000414	9
	12	40	18984.38	46.7335	-51.36473	1	69.44318	-47.70293	-9.990355E-006	0.0006509	9
	13	42	15046.87	49.33927	-62.3931	1	79.54409	-51.66373	-1.141986E-005	0.0003285	9
	14	44	11953.13	52.39108	-75.77486	1	92.12304	-55.33985	1.383372E-005	-0.0004059	9
	15	47	9515.62	55.93506	-92.02992	1	107.6951	-58.7091	-2.506019E-007	0.0004125	9
	16	49	7546.875	60.05908	-112.4349	1	127.4704	-61.89032	-1.355397E-005	0.0005041	9
	17	51	5928.309	65.81618	-138.1862	1	153.0595	-64.5322	1.704596E-005	-0.0003716	9
	18	54	4733.456	71.83939	-167.6693	1	182.4113	-66.80685	1.544195E-005	-0.0001392	9
	19	56	3796.875	79.21959	-202.5857	1	217.524	-68.6424	1.540914E-005	-0.0003564	9
	20	58	2987.132	88.64117	-249.5058	1	264.7837	-70.44155	1.188692E-005	-0.0003733	9
	21	61	2390.625	100.643	-301.8361	1	318.173	-71.55975	-3.584886E-006	4.068108E-006	9
	22	63	1884.191	111.9291	-373.3057	1	389.7246	-73.30958	7.004073E-006	-0.0002858	9
	23	65	1516.544	125.7695	-449.138	1	466.4149	-74.35647	-1.500649E-006	0.0014487	8
	24	68	1193.986	145.1699	-554.066	1	572.7682	-75.31806	-2.24968E-006	0.0013649	8
	25	70	946.5144	167.5557	-679.5477	1	699.9	-76.1489	2.637993E-006	0.0003248	8
	26	72	751.7689	193.3513	-833.6485	1	855.7772	-76.94205	2.740562E-006	-0.0001326	8
	27	75	597.4265	226.4308	-1022.86	1	1047.623	-77.51772	-8.882463E-007	0.0007603	8
	28	77	477.4305	262.95	-1248.603	1	1275.991	-78.10755	5.62939E-007	0.0006784	8
	29	79	376.6741	311.256	-1543.015	1	1574.095	-78.59538	5.557607E-007	0.0006721	8
	30	82	298.2954	369.2858	-1901.389	1	1936.918	-79.0089	5.665405E-007	0.0006773	8
	31	84	237.7717	438.0237	-2330.583	1	2371.388	-79.35566	5.549934E-007	0.0006763	8
	32	86	189.0121	523.1475	-2864.768	1	2912.143	-79.65101	5.68096E-007	0.0006736	8
	33	89	150.2404	627.1032	-3522.249	1	3577.639	-79.90481	5.620329E-007	0.0006726	8
	34	91	119.1737	755.7125	-4341.598	1	4406.878	-80.12584	5.647183E-007	0.000675	8
	35	94	95.0169	914.1005	-5337.626	1	5415.333	-80.28203	5.963729E-008	0.0006517	7
	36	96	75.60484	1107.961	-6561.896	1	6654.776	-80.41613	5.81351E-008	0.0006458	7
	37	99	54.50582	1466.845	-8818.804	1	8939.963	-80.55637	6.020619E-008	0.0006505	7
	38	101	45.95588	1711.233	-10304.6	1	10445.72	-80.57122	6.124244E-008	0.0006529	7
	39	104	37.20238	2070.438	-12473.91	1	12644.57	-80.57588	5.942213E-008	0.0006487	7
	40	106	30.04808	2509.782	-15107.37	1	15314.43	-80.56762	5.809459E-008	0.0006464	7
	41	108	23.91582	3126.313	-18620.89	1	18881.51	-80.46934	5.853146E-008	0.000642	7
	42	111	18.60119	3980.155	-23327.28	1	23664.39	-80.31731	5.91096E-008	0.0006531	7
	43	113	15.02404	4884.148	-28286	1	28704.58	-80.20333	6.181336E-008	0.0006457	7
	44	115	12.01923	6111.666	-34578.86	1	35114.81	-79.97673	5.953734E-008	0.0006432	7
	45	118	9.450605	7837.537	-42860.74	1	43571.43	-79.63735	6.046724E-008	0.0006495	7
	46	120	7.512019	9957.81	-52745.78	1	53677.51	-79.30903	8.626669E-009	0.0006834	6
	47	123	5.978954	12743.06	-64632.68	1	65876.92	-78.84654	9.082881E-009	0.0006953	6
	48	128	4.734848	16428.37	-79581.06	1	81259.07	-78.33596	8.374992E-009	0.000684	6
	49	131	3.75601	21359.5	-97519.8	1	99831.5	-77.64574	9.310742E-009	0.0007145	6
	50	136	3.004808	27595.73	-118480.4	1	121651.7	-76.88878	8.897458E-009	0.0006927	6
	51	143	2.372217	36681.51	-145268.3	1	149827.9	-75.82855	8.470666E-009	0.0006369	6
	52	147	1.878005	48440.03	-177412.8	1	183906.9	-74.72843	9.182211E-009	0.0006894	6
	53	152	1.512097	62617.39	-212252.2	1	221296.1	-73.5632	8.61571E-009	0.0007166	6
	54	157	1.201923	83369.02	-256736.5	1	269933.4	-72.01004	8.843268E-009	0.0007194	6
	55	170	0.956633	110346.9	-307719.2	1	326906	-70.27237	7.800842E-009	5.992801E-005	6
