EXPLAIN
TAG	EISPOT
TITLE	LABEL	Potentiostatic EIS	Test Identifier
DATE	LABEL	2/27/2021	Date
TIME	LABEL	21:29:47	Time
NOTES	NOTES	1	Notes...
	
PSTAT	PSTAT	REF3000-16137	Potentiostat
VDC	POTEN	0.00000E+000	T	DC Voltage (V)
FREQINIT	QUANT	3.00000E+005	Initial Freq. (Hz)
FREQFINAL	QUANT	1.00000E+000	Final Freq. (Hz)
PTSPERDEC	QUANT	1.00000E+001	Points/decade
VAC	QUANT	5.00000E+001	AC Voltage (mV rms)
AREA	QUANT	1.00000E+000	Sample Area (cm^2)
SPEED	SELECTOR	2	Optimize for:
ZGUESS	QUANT	1.00000E+003	Estimated Z (ohms)
EOC	QUANT	0	Open Circuit (V)
SEQUENCER	TOGGLE	TRUE	Run as Sequence
PSTATMODEL	IQUANT	5	Pstat Model
PSTATSECTION	LABEL	REF3000-16137	Pstat Section
PSTATSERIALNO	LABEL	16137	Pstat Serial Number
CTRLMODE	IQUANT	1	Control Mode
IESTAB	IQUANT	0	I/E Stability
CASPEED	IQUANT	1	Control Amp Speed
CONVENTION	IQUANT	1	Current Convention
ICHRANGE	IQUANT	2	Ich Range
ICHRANGEMODE	TOGGLE	F	Ich Auto Range
ICHOFFSETENABLE	TOGGLE	T	Ich Offset Enable
ICHOFFSET	QUANT	0	Ich Offset (V)
ICHFILTER	IQUANT	3	Ich Filter
VCHRANGE	IQUANT	2	Vch Range
VCHRANGEMODE	TOGGLE	F	Vch Auto Range
VCHOFFSETENABLE	TOGGLE	T	Vch Offset Enable
VCHOFFSET	QUANT	0	Vch Offset (V)
VCHFILTER	IQUANT	3	Vch Filter
ACHRANGE	IQUANT	2	Ach Range
ACHOFFSETENABLE	TOGGLE	F	Ach Offset Enable
ACHOFFSET	QUANT	0	Ach Offset (V)
ACHFILTER	IQUANT	3	Ach Filter
IERANGELOWERLIMIT	IQUANT	2	I/E Range Lower Limit
IERANGEMODE	TOGGLE	F	I/E AutoRange
IERANGE	IQUANT	11	I/E Range
POSFEEDENABLE	TOGGLE	F	Positive Feedback IR Comp
POSFEEDRESISTANCE	QUANT	0	Positive Feedback Resistance (ohm)
ACHSELECT	IQUANT	0	Ach Select
CABLEID	IQUANT	13	Cable ID
DCCALDATE	LABEL	7/31/2020	DC Calibration Date
ACCALDATE	LABEL	7/31/2020	AC Calibration Date
THERMOSELECT	IQUANT	1	Thermo Select
FRAMEWORKVERSION	QUANT	6.33	Framework Version
INSTRUMENTVERSION	LABEL	3.50	Instrument Version
COMPLIANCEVOLTAGE	IQUANT	0	Compliance Voltage
ZCURVE	TABLE
	Pt	Time	Freq	Zreal	Zimag	Zsig	Zmod	Zphz	Idc	Vdc	IERange
	#	s	Hz	ohm	ohm	V	ohm	°	A	V	#
	0	7	300046.9	30.77456	-5.479195	1	31.25852	-10.09533	7.730722E-005	-3.894279E-005	11
	1	11	238359.4	31.61079	-6.526374	1	32.27748	-11.6654	-3.388601E-005	0.0003636	10
	2	14	189328.1	32.41686	-8.156119	1	33.42716	-14.12255	7.236625E-005	0.0005112	10
	3	17	150421.9	33.26759	-9.92165	1	34.71558	-16.60657	7.055706E-005	0.0005198	10
	4	19	119484.4	34.22447	-11.77403	1	36.19312	-18.98444	-8.59994E-005	0.0008489	10
	5	22	94921.88	35.25057	-13.96588	1	37.91633	-21.61291	-1.874671E-005	0.0007367	10
	6	24	75421.88	36.4627	-16.25867	1	39.92334	-24.03203	1.791116E-005	-0.0003433	9
	7	27	59859.37	37.57105	-19.35896	1	42.26527	-27.26036	1.176518E-005	3.470064E-005	9
	8	29	47578.12	38.83247	-23.04349	1	45.15488	-30.68522	-3.064746E-006	2.081425E-005	9
	9	32	37828.12	40.17062	-27.5947	1	48.73547	-34.48663	1.728627E-005	-0.0003652	9
	10	35	30046.88	41.73767	-33.14527	1	53.29767	-38.45425	-1.109821E-005	0.0002639	9
	11	37	23859.38	43.58266	-39.87807	1	59.07375	-42.45847	1.715321E-005	-0.0003262	9
	12	39	18984.38	45.64014	-48.06474	1	66.28153	-46.48219	1.960864E-005	-0.0003212	9
	13	42	15046.87	48.18254	-58.24934	1	75.59459	-50.40321	1.851271E-005	-0.0003106	9
	14	44	11953.13	51.13988	-70.58417	1	87.16313	-54.07579	-6.113019E-006	0.0004705	9
	15	46	9515.62	54.71381	-85.41022	1	101.4323	-57.35636	3.551823E-006	0.0002102	9
	16	49	7546.875	58.88453	-103.9522	1	119.4715	-60.47028	-1.271998E-005	0.0004413	9
	17	51	5928.309	64.58781	-127.1193	1	142.5865	-63.06542	-1.128479E-005	0.0002822	9
	18	53	4733.456	70.63216	-154.0582	1	169.4781	-65.36963	1.009691E-005	4.007568E-005	9
	19	56	3796.875	78.48095	-185.2959	1	201.2308	-67.0452	-4.187004E-006	2.663037E-005	9
	20	58	2987.132	87.53746	-227.5092	1	243.7689	-68.95505	-3.496749E-006	-1.330233E-006	9
	21	60	2390.625	97.6975	-275.8072	1	292.5994	-70.49464	1.168499E-005	4.338034E-005	9
	22	63	1884.191	110.8745	-337.5252	1	355.2695	-71.81503	-1.289322E-005	0.000509	9
	23	65	1516.544	127.1292	-406.6355	1	426.0449	-72.63885	7.143688E-006	-0.000293	9
	24	67	1193.986	144.924	-497.6143	1	518.2885	-73.76245	-1.520076E-006	0.0014379	8
	25	70	946.5144	168.2705	-607.196	1	630.0809	-74.51051	3.164333E-006	-0.0001507	8
	26	72	751.7689	193.8933	-741.7379	1	766.6614	-75.35046	-1.832032E-006	0.0010198	8
	27	75	597.4265	224.6273	-904.7668	1	932.2341	-76.05704	-1.880714E-006	0.0014311	8
	28	77	477.4305	260.7406	-1100.911	1	1131.367	-76.67554	5.538426E-007	0.0006774	8
	29	79	376.6741	306.2505	-1355.303	1	1389.473	-77.26702	5.629564E-007	0.0006657	8
	30	81	298.2954	360.2077	-1664.865	1	1703.386	-77.79174	5.488686E-007	0.0006805	8
	31	84	237.7717	423.815	-2035.174	1	2078.834	-78.23656	5.547537E-007	0.0006694	8
	32	86	189.0121	502.2142	-2495.747	1	2545.775	-78.62243	5.61967E-007	0.0006661	8
	33	89	150.2404	598.6593	-3063.39	1	3121.338	-78.9424	5.645205E-007	0.0006656	8
	34	91	119.1737	719.2739	-3768.113	1	3836.148	-79.19314	5.711924E-007	0.0006696	8
	35	94	95.0169	868.7119	-4624.837	1	4705.717	-79.36173	5.91191E-008	0.0006417	7
	36	96	75.60484	1052.242	-5674.157	1	5770.899	-79.49416	5.878053E-008	0.0006402	7
	37	99	54.50582	1394.589	-7608.932	1	7735.679	-79.61393	6.218085E-008	0.0006378	7
	38	101	45.95588	1626.861	-8858.226	1	9006.378	-79.59329	6.220721E-008	0.0006504	7
	39	104	37.20238	1975.326	-10698.44	1	10879.27	-79.5389	6.093781E-008	0.0006253	7
	40	106	30.04808	2418.262	-12966.11	1	13189.69	-79.43535	5.871182E-008	0.0006436	7
	41	109	23.91582	2995.549	-15859.69	1	16140.11	-79.30408	5.895177E-008	0.0006385	7
	42	111	18.60119	3843.367	-19839.04	1	20207.9	-79.03605	6.035574E-008	0.0006342	7
	43	113	15.02404	4770.113	-23988.37	1	24458.04	-78.75338	6.213445E-008	0.0006446	7
	44	116	12.01923	6031.812	-29225.8	1	29841.75	-78.33865	5.986222E-008	0.0006434	7
	45	118	9.450605	7776.934	-36079.2	1	36907.85	-77.83591	5.915061E-008	0.0006485	7
	46	121	7.512019	10009.64	-44125.76	1	45246.83	-77.21912	8.632099E-009	0.0006931	6
	47	124	5.978954	12901.81	-53712.14	1	55239.93	-76.49327	8.663409E-009	0.0006928	6
	48	128	4.734848	16869.65	-65555.53	1	67691.3	-75.56897	9.891107E-009	0.0007116	6
	49	133	3.75601	22053.91	-79720.05	1	82714.33	-74.53632	1.046378E-008	0.0007064	6
	50	139	3.004808	28681.89	-95816.3	1	100017.1	-73.33533	9.552467E-009	0.0006948	6
	51	145	2.372217	38273.97	-115880.2	1	122037.4	-71.72217	9.386136E-009	0.0006248	6
	52	149	1.878005	50594.07	-139165.3	1	148076.8	-70.02108	9.920711E-009	0.0006894	6
	53	158	1.512097	65273.64	-163324.1	1	175884.7	-68.21553	9.508508E-009	0.0006762	6
	54	169	1.201923	85835.55	-192843	1	211083.3	-66.00587	1.01028E-008	0.0007031	6
EXPERIMENTABORTED	TOGGLE	T	Experiment Aborted
FRACURVE	TABLE	128
	Pt	V	I	Over
	#	V	A	bits
	0	-1.78940E-002	2.29193E-007	......
	1	-1.44918E-002	2.37803E-007	......
	2	-1.10521E-002	2.45936E-007	......
	3	-7.58317E-003	2.53312E-007	......
	4	-4.10159E-003	2.60185E-007	......
	5	-6.08240E-004	2.66287E-007	......
	6	2.88613E-003	2.71862E-007	......
	7	6.37533E-003	2.76640E-007	......
	8	9.84976E-003	2.80880E-007	......
	9	1.32996E-002	2.84343E-007	......
	10	1.67185E-002	2.87244E-007	......
	11	2.00950E-002	2.89370E-007	......
	12	2.34257E-002	2.90910E-007	......
	13	2.66990E-002	2.91684E-007	......
	14	2.99086E-002	2.91897E-007	......
	15	3.30474E-002	2.91313E-007	......
	16	3.61034E-002	2.90202E-007	......
	17	3.90730E-002	2.88315E-007	......
	18	4.19466E-002	2.85853E-007	......
	19	4.47232E-002	2.82688E-007	......
	20	4.73895E-002	2.78978E-007	......
	21	4.99436E-002	2.74564E-007	......
	22	5.23793E-002	2.69551E-007	......
	23	5.46873E-002	2.63914E-007	......
	24	5.68631E-002	2.57720E-007	......
	25	5.89003E-002	2.50915E-007	......
	26	6.07969E-002	2.43570E-007	......
	27	6.25505E-002	2.35648E-007	......
	28	6.41509E-002	2.27250E-007	......
	29	6.55947E-002	2.18303E-007	......
	30	6.68833E-002	2.08877E-007	......
	31	6.80076E-002	1.98998E-007	......
	32	6.89723E-002	1.88652E-007	......
	33	6.97713E-002	1.77902E-007	......
	34	7.04003E-002	1.66754E-007	......
	35	7.08590E-002	1.55245E-007	......
	36	7.11460E-002	1.43406E-007	......
	37	7.12649E-002	1.31219E-007	......
	38	7.12111E-002	1.18780E-007	......
	39	7.09835E-002	1.06094E-007	......
	40	7.05892E-002	9.31738E-008	......
	41	7.00245E-002	8.00863E-008	......
	42	6.92887E-002	6.68235E-008	......
	43	6.83841E-002	5.35273E-008	......
	44	6.73198E-002	4.00435E-008	......
	45	6.60903E-002	2.65842E-008	......
	46	6.47059E-002	1.29936E-008	......
	47	6.31610E-002	-5.01805E-010	......
	48	6.14642E-002	-1.40291E-008	......
	49	5.96215E-002	-2.73539E-008	......
	50	5.76335E-002	-4.06888E-008	......
	51	5.55101E-002	-5.37823E-008	......
	52	5.32502E-002	-6.68391E-008	......
	53	5.08614E-002	-7.95628E-008	......
	54	4.83501E-002	-9.22225E-008	......
	55	4.57260E-002	-1.04493E-007	......
	56	4.29893E-002	-1.16620E-007	......
	57	4.01515E-002	-1.28301E-007	......
	58	3.72171E-002	-1.39783E-007	......
	59	3.41921E-002	-1.50805E-007	......
	60	3.10813E-002	-1.61581E-007	......
	61	2.78970E-002	-1.71870E-007	......
	62	2.46477E-002	-1.81853E-007	......
	63	2.13366E-002	-1.91294E-007	......
	64	1.79742E-002	-2.00434E-007	......
	65	1.45716E-002	-2.08946E-007	......
	66	1.11328E-002	-2.17128E-007	......
	67	7.66517E-003	-2.24706E-007	......
	68	4.18182E-003	-2.31862E-007	......
	69	6.83372E-004	-2.38525E-007	......
	70	-2.80841E-003	-2.44788E-007	......
	71	-6.29713E-003	-2.50101E-007	......
	72	-9.77218E-003	-2.55244E-007	......
	73	-1.32205E-002	-2.59407E-007	......
	74	-1.66384E-002	-2.63412E-007	......
	75	-2.00170E-002	-2.66437E-007	......
	76	-2.33469E-002	-2.69244E-007	......
	77	-2.66174E-002	-2.71073E-007	......
	78	-2.98289E-002	-2.72628E-007	......
	79	-3.29666E-002	-2.73202E-007	......
	80	-3.60230E-002	-2.73464E-007	......
	81	-3.89924E-002	-2.72758E-007	......
	82	-4.18666E-002	-2.71746E-007	......
	83	-4.46423E-002	-2.69753E-007	......
	84	-4.73088E-002	-2.67395E-007	......
	85	-4.98623E-002	-2.64119E-007	......
	86	-5.22989E-002	-2.60387E-007	......
	87	-5.46037E-002	-2.55845E-007	......
	88	-5.67798E-002	-2.50817E-007	......
	89	-5.88173E-002	-2.44931E-007	......
	90	-6.07142E-002	-2.38565E-007	......
	91	-6.24676E-002	-2.31429E-007	......
	92	-6.40674E-002	-2.23733E-007	......
	93	-6.55118E-002	-2.15366E-007	......
	94	-6.67988E-002	-2.06434E-007	......
	95	-6.79257E-002	-1.96888E-007	......
	96	-6.88912E-002	-1.86787E-007	......
	97	-6.96859E-002	-1.76146E-007	......
	98	-7.03169E-002	-1.64923E-007	......
	99	-7.07737E-002	-1.53264E-007	......
	100	-7.10634E-002	-1.41082E-007	......
	101	-7.11819E-002	-1.28562E-007	......
	102	-7.11278E-002	-1.15472E-007	......
	103	-7.09022E-002	-1.02203E-007	......
	104	-7.05054E-002	-8.84037E-008	......
	105	-6.99436E-002	-7.45085E-008	......
	106	-6.92071E-002	-6.01248E-008	......
	107	-6.83024E-002	-4.58104E-008	......
	108	-6.72400E-002	-3.10687E-008	......
	109	-6.60103E-002	-1.64677E-008	......
	110	-6.46245E-002	-1.50777E-009	......
	111	-6.30791E-002	1.32064E-008	......
	112	-6.13834E-002	2.82102E-008	......
	113	-5.95398E-002	4.28102E-008	......
	114	-5.75531E-002	5.76294E-008	......
	115	-5.54280E-002	7.19825E-008	......
	116	-5.31693E-002	8.64896E-008	......
	117	-5.07805E-002	1.00401E-007	......
	118	-4.82682E-002	1.14439E-007	......
	119	-4.56452E-002	1.27741E-007	......
	120	-4.29086E-002	1.41129E-007	......
	121	-4.00706E-002	1.53690E-007	......
	122	-3.71351E-002	1.66241E-007	......
	123	-3.41105E-002	1.77936E-007	......
	124	-3.10007E-002	1.89571E-007	......
	125	-2.78163E-002	2.00310E-007	......
	126	-2.45655E-002	2.10899E-007	......
	127	-2.12550E-002	2.20587E-007	......
