EXPLAIN
TAG	EISPOT
TITLE	LABEL	Potentiostatic EIS	Test Identifier
DATE	LABEL	2/27/2021	Date
TIME	LABEL	19:26:09	Time
NOTES	NOTES	1	Notes...
	
PSTAT	PSTAT	REF3000-16137	Potentiostat
VDC	POTEN	0.00000E+000	T	DC Voltage (V)
FREQINIT	QUANT	3.00000E+005	Initial Freq. (Hz)
FREQFINAL	QUANT	1.00000E+000	Final Freq. (Hz)
PTSPERDEC	QUANT	1.00000E+001	Points/decade
VAC	QUANT	5.00000E+001	AC Voltage (mV rms)
AREA	QUANT	1.00000E+000	Sample Area (cm^2)
SPEED	SELECTOR	2	Optimize for:
ZGUESS	QUANT	1.00000E+003	Estimated Z (ohms)
EOC	QUANT	0	Open Circuit (V)
SEQUENCER	TOGGLE	TRUE	Run as Sequence
PSTATMODEL	IQUANT	5	Pstat Model
PSTATSECTION	LABEL	REF3000-16137	Pstat Section
PSTATSERIALNO	LABEL	16137	Pstat Serial Number
CTRLMODE	IQUANT	1	Control Mode
IESTAB	IQUANT	0	I/E Stability
CASPEED	IQUANT	1	Control Amp Speed
CONVENTION	IQUANT	1	Current Convention
ICHRANGE	IQUANT	2	Ich Range
ICHRANGEMODE	TOGGLE	F	Ich Auto Range
ICHOFFSETENABLE	TOGGLE	T	Ich Offset Enable
ICHOFFSET	QUANT	0	Ich Offset (V)
ICHFILTER	IQUANT	3	Ich Filter
VCHRANGE	IQUANT	2	Vch Range
VCHRANGEMODE	TOGGLE	F	Vch Auto Range
VCHOFFSETENABLE	TOGGLE	T	Vch Offset Enable
VCHOFFSET	QUANT	0	Vch Offset (V)
VCHFILTER	IQUANT	3	Vch Filter
ACHRANGE	IQUANT	2	Ach Range
ACHOFFSETENABLE	TOGGLE	F	Ach Offset Enable
ACHOFFSET	QUANT	0	Ach Offset (V)
ACHFILTER	IQUANT	3	Ach Filter
IERANGELOWERLIMIT	IQUANT	2	I/E Range Lower Limit
IERANGEMODE	TOGGLE	F	I/E AutoRange
IERANGE	IQUANT	11	I/E Range
POSFEEDENABLE	TOGGLE	F	Positive Feedback IR Comp
POSFEEDRESISTANCE	QUANT	0	Positive Feedback Resistance (ohm)
ACHSELECT	IQUANT	0	Ach Select
CABLEID	IQUANT	13	Cable ID
DCCALDATE	LABEL	7/31/2020	DC Calibration Date
ACCALDATE	LABEL	7/31/2020	AC Calibration Date
THERMOSELECT	IQUANT	1	Thermo Select
FRAMEWORKVERSION	QUANT	6.33	Framework Version
INSTRUMENTVERSION	LABEL	3.50	Instrument Version
COMPLIANCEVOLTAGE	IQUANT	0	Compliance Voltage
ZCURVE	TABLE
	Pt	Time	Freq	Zreal	Zimag	Zsig	Zmod	Zphz	Idc	Vdc	IERange
	#	s	Hz	ohm	ohm	V	ohm	°	A	V	#
	0	15	300046.9	259.7201	-20.96928	1	260.5652	-4.615934	-0.000102	0.0033264	9
	1	22	238359.4	263.0745	-23.05359	1	264.0827	-5.008117	8.179615E-005	-0.0025499	9
	2	27	189328.1	264.396	-26.46513	1	265.7172	-5.716072	-3.118531E-005	-0.0006396	9
	3	32	150421.9	269.4459	-29.63907	1	271.0712	-6.277302	-3.685697E-006	-0.0014496	9
	4	38	119484.4	272.091	-33.77108	1	274.1787	-7.07519	7.240953E-005	-0.001562	9
	5	41	94921.88	276.0664	-38.81969	1	278.7824	-8.004292	2.771919E-005	-0.0006794	9
	6	45	75421.88	280.5065	-45.58434	1	284.1862	-9.23029	-8.720698E-006	0.0009129	9
	7	49	59859.37	285.3707	-53.62182	1	290.3648	-10.64192	1.125754E-005	0.0002799	9
	8	51	47578.12	290.9619	-63.42807	1	297.7951	-12.29777	1.057106E-005	0.0003561	9
	9	54	37828.12	297.7686	-73.19935	1	306.6338	-13.81096	1.610647E-005	-0.0008133	9
	10	57	30046.88	304.9757	-87.06923	1	317.1612	-15.93381	-2.079963E-005	0.0006839	9
	11	59	23859.38	313.5263	-100.8715	1	329.3536	-17.83464	-1.7055E-005	0.0010715	9
	12	62	18984.38	323.0581	-118.4968	1	344.1047	-20.1429	-1.015553E-005	0.0009972	9
	13	64	15046.87	335.3487	-138.7719	1	362.9275	-22.48044	-2.166424E-005	0.0005148	9
	14	66	11953.13	345.9525	-164.8262	1	383.2112	-25.47508	2.475307E-005	-0.0007527	9
	15	68	9515.62	359.3133	-190.606	1	406.7391	-27.94475	-2.402475E-005	0.0008546	9
	16	71	7546.875	372.9389	-223.1921	1	434.6241	-30.89918	6.057776E-006	-0.0034606	8
	17	73	5928.309	388.0615	-264.5193	1	469.6405	-34.28001	5.650237E-006	0.0014356	8
	18	75	4733.456	402.6913	-313.1641	1	510.1294	-37.87142	-2.945566E-006	0.0042764	8
	19	78	3796.875	421.5927	-371.0635	1	561.6302	-41.35252	-1.112414E-005	0.003372	8
	20	80	2987.132	439.5834	-452.6608	1	630.9797	-45.83971	5.468132E-006	0.0015873	8
	21	82	2390.625	457.8125	-543.03	1	710.2632	-49.86676	9.864569E-006	-0.0002772	8
	22	85	1884.191	482.8039	-661.4533	1	818.9139	-53.87378	1.291581E-005	-0.0026995	8
	23	87	1516.544	508.241	-796.8381	1	945.1243	-57.46937	-3.440706E-006	0.0044798	8
	24	90	1193.986	540.9938	-983.911	1	1122.834	-61.19624	-1.137141E-005	0.0035272	8
	25	92	946.5144	575.3981	-1204.841	1	1335.187	-64.47218	-9.748472E-006	0.0051608	8
	26	95	751.7689	624.0543	-1483.167	1	1609.108	-67.18069	1.250432E-005	-0.0018642	8
	27	97	597.4265	681.621	-1820.557	1	1943.974	-69.47398	-2.067277E-006	-0.0012807	8
	28	100	477.4305	743.1138	-2222.557	1	2343.497	-71.5126	6.685801E-008	0.000677	8
	29	102	376.6741	829.4327	-2754.437	1	2876.609	-73.24158	9.429522E-008	0.000657	8
	30	105	298.2954	937.8767	-3404.942	1	3531.748	-74.60001	7.522724E-008	0.0006644	8
	31	107	237.7717	1077.506	-4192.882	1	4329.12	-75.58773	-3.166711E-009	0.0006427	7
	32	109	189.0121	1253.704	-5167.028	1	5316.949	-76.36157	-3.523786E-009	0.0006402	7
	33	112	150.2404	1483.557	-6366.647	1	6537.212	-76.883	-3.157288E-009	0.0006463	7
	34	114	119.1737	1791.962	-7855.672	1	8057.463	-77.15009	-1.835248E-009	0.0006306	7
	35	117	95.0169	2191.755	-9641.67	1	9887.64	-77.19309	-4.15959E-009	0.0006396	7
	36	119	75.60484	2737.017	-11839.21	1	12151.47	-76.98291	-1.301232E-009	0.0006418	7
	37	122	54.50582	3863.281	-15817.37	1	16282.33	-76.27463	-3.635913E-009	0.0006416	7
	38	124	45.95588	4686.594	-18372.63	1	18960.96	-75.68984	-3.289603E-009	0.000648	7
	39	127	37.20238	6004.136	-22027.34	1	22830.97	-74.75292	-3.709156E-009	0.0006317	7
	40	129	30.04808	7752.326	-26346.08	1	27462.97	-73.6035	-2.653131E-009	0.000641	7
	41	131	23.91582	10180.64	-31641.5	1	33238.98	-72.16444	-1.834297E-009	0.0006204	7
	42	134	18.60119	13807.32	-38403.19	1	40809.89	-70.22467	-3.297146E-009	0.0006271	7
	43	136	15.02404	17542.05	-44859.19	1	48167.11	-68.64217	-2.695358E-009	0.0006862	6
	44	138	12.01923	22278.19	-52221.29	1	56774.82	-66.89636	-9.955551E-010	0.0006647	6
	45	141	9.450605	28061.21	-60897.27	1	67051.54	-65.25995	-1.792264E-009	0.0006866	6
	46	143	7.512019	34169.02	-70116.01	1	77998.57	-64.01904	-3.597357E-010	0.0006536	6
	47	146	5.978954	40457.2	-80597.66	1	90181.87	-63.34495	-7.714931E-011	0.0006857	6
	48	151	4.734848	47046.82	-93242.39	1	104439.2	-63.2261	3.019435E-011	0.0006756	6
	49	154	3.75601	53455.52	-108414.6	1	120876.9	-63.75368	-3.302618E-010	0.000692	6
	50	160	3.004808	59757	-126606.4	1	140000.2	-64.73313	-3.184195E-010	0.00065	6
	51	166	2.372217	66475.23	-150508.1	1	164534.6	-66.1703	-2.535053E-010	0.0006473	6
	52	170	1.878005	73854.59	-180357.5	1	194893.1	-67.73139	-6.950121E-010	0.000669	6
	53	175	1.512097	80715.95	-214683.6	1	229355.9	-69.39493	-2.64957E-010	0.000613	6
	54	180	1.201923	89671.45	-260345	1	275355.2	-70.9946	-6.003414E-010	0.0006604	6
	55	187	0.956633	99700.3	-316320.4	1	331660.6	-72.50579	-6.287207E-010	3.910444E-005	6
