EXPLAIN
TAG	EISPOT
TITLE	LABEL	Potentiostatic EIS	Test Identifier
DATE	LABEL	2/27/2021	Date
TIME	LABEL	18:57:19	Time
NOTES	NOTES	1	Notes...
	
PSTAT	PSTAT	REF3000-16137	Potentiostat
VDC	POTEN	0.00000E+000	T	DC Voltage (V)
FREQINIT	QUANT	3.00000E+005	Initial Freq. (Hz)
FREQFINAL	QUANT	1.00000E+000	Final Freq. (Hz)
PTSPERDEC	QUANT	1.00000E+001	Points/decade
VAC	QUANT	5.00000E+001	AC Voltage (mV rms)
AREA	QUANT	1.00000E+000	Sample Area (cm^2)
SPEED	SELECTOR	2	Optimize for:
ZGUESS	QUANT	1.00000E+003	Estimated Z (ohms)
EOC	QUANT	0	Open Circuit (V)
SEQUENCER	TOGGLE	TRUE	Run as Sequence
PSTATMODEL	IQUANT	5	Pstat Model
PSTATSECTION	LABEL	REF3000-16137	Pstat Section
PSTATSERIALNO	LABEL	16137	Pstat Serial Number
CTRLMODE	IQUANT	1	Control Mode
IESTAB	IQUANT	0	I/E Stability
CASPEED	IQUANT	1	Control Amp Speed
CONVENTION	IQUANT	1	Current Convention
ICHRANGE	IQUANT	2	Ich Range
ICHRANGEMODE	TOGGLE	F	Ich Auto Range
ICHOFFSETENABLE	TOGGLE	T	Ich Offset Enable
ICHOFFSET	QUANT	0	Ich Offset (V)
ICHFILTER	IQUANT	3	Ich Filter
VCHRANGE	IQUANT	2	Vch Range
VCHRANGEMODE	TOGGLE	F	Vch Auto Range
VCHOFFSETENABLE	TOGGLE	T	Vch Offset Enable
VCHOFFSET	QUANT	0	Vch Offset (V)
VCHFILTER	IQUANT	3	Vch Filter
ACHRANGE	IQUANT	2	Ach Range
ACHOFFSETENABLE	TOGGLE	F	Ach Offset Enable
ACHOFFSET	QUANT	0	Ach Offset (V)
ACHFILTER	IQUANT	3	Ach Filter
IERANGELOWERLIMIT	IQUANT	2	I/E Range Lower Limit
IERANGEMODE	TOGGLE	F	I/E AutoRange
IERANGE	IQUANT	11	I/E Range
POSFEEDENABLE	TOGGLE	F	Positive Feedback IR Comp
POSFEEDRESISTANCE	QUANT	0	Positive Feedback Resistance (ohm)
ACHSELECT	IQUANT	0	Ach Select
CABLEID	IQUANT	13	Cable ID
DCCALDATE	LABEL	7/31/2020	DC Calibration Date
ACCALDATE	LABEL	7/31/2020	AC Calibration Date
THERMOSELECT	IQUANT	1	Thermo Select
FRAMEWORKVERSION	QUANT	6.33	Framework Version
INSTRUMENTVERSION	LABEL	3.50	Instrument Version
COMPLIANCEVOLTAGE	IQUANT	0	Compliance Voltage
ZCURVE	TABLE
	Pt	Time	Freq	Zreal	Zimag	Zsig	Zmod	Zphz	Idc	Vdc	IERange
	#	s	Hz	ohm	ohm	V	ohm	°	A	V	#
	0	7	300046.9	45.35892	-6.140804	1	45.77271	-7.70997	-5.449168E-005	0.0017121	9
	1	10	238359.4	46.29367	-8.334987	1	47.03803	-10.20652	-3.900348E-005	0.0004678	9
	2	13	189328.1	47.30112	-10.53788	1	48.46074	-12.55941	1.557893E-005	-0.0006352	9
	3	16	150421.9	48.52335	-13.0175	1	50.23913	-15.0173	5.41843E-005	-0.0019224	9
	4	19	119484.4	49.77088	-15.6148	1	52.16285	-17.4184	4.205366E-005	-0.0005868	9
	5	21	94921.88	51.30397	-18.51545	1	54.54282	-19.84436	-1.191385E-005	0.0005795	9
	6	24	75421.88	52.745	-21.94828	1	57.12934	-22.5932	-1.395795E-005	0.0004203	9
	7	26	59859.37	54.31656	-26.14192	1	60.28009	-25.70096	1.348828E-005	-0.0004968	9
	8	29	47578.12	55.93513	-31.18449	1	64.0407	-29.14018	4.403937E-006	0.0002324	9
	9	31	37828.12	57.74015	-37.2182	1	68.69585	-32.80506	1.91404E-005	-0.0004692	9
	10	34	30046.88	59.62066	-44.73577	1	74.53799	-36.88237	-1.507686E-005	0.0006239	9
	11	36	23859.38	61.76128	-53.8398	1	81.934	-41.07998	9.44931E-006	0.000174	9
	12	39	18984.38	64.23427	-65.19286	1	91.52131	-45.42435	1.670887E-005	-0.0001769	9
	13	41	15046.87	67.06464	-79.2105	1	103.7881	-49.74663	-1.416854E-005	0.0006818	9
	14	43	11953.13	70.2412	-96.6584	1	119.485	-53.99427	-1.750483E-005	0.0005395	9
	15	46	9515.62	74.21976	-117.8223	1	139.2504	-57.79195	1.828031E-005	-0.0005126	9
	16	48	7546.875	79.17961	-144.3763	1	164.6631	-61.25853	1.911876E-005	-0.0004833	9
	17	50	5928.309	85.37791	-178.557	1	197.9191	-64.44497	-1.441453E-005	0.0004268	9
	18	52	4733.456	91.9296	-217.6138	1	236.2347	-67.09868	-1.594925E-005	0.000501	9
	19	55	3796.875	100.0866	-265.1329	1	283.3951	-69.31868	1.224204E-005	0.0000985	9
	20	57	2987.132	110.7617	-328.4923	1	346.6632	-71.36682	5.217993E-006	0.0002653	9
	21	59	2390.625	121.8553	-401.9685	1	420.0326	-73.13551	8.285064E-006	-0.0004074	9
	22	62	1884.191	139.1943	-492.4871	1	511.7798	-74.21783	-1.581884E-007	0.0003283	8
	23	64	1516.544	156.9942	-598.3567	1	618.6097	-75.29836	4.375626E-006	-0.0003242	8
	24	66	1193.986	180.4239	-741.3154	1	762.9557	-76.32111	-2.675627E-006	0.0017811	8
	25	69	946.5144	212.7653	-911.1177	1	935.6306	-76.85577	-3.089383E-006	0.0013934	8
	26	71	751.7689	242.482	-1123.768	1	1149.631	-77.82363	3.348483E-006	0.0002114	8
	27	74	597.4265	286.3639	-1380.092	1	1409.489	-78.27769	-1.494615E-007	0.001416	8
	28	76	477.4305	339.2267	-1683.36	1	1717.2	-78.60648	4.885522E-007	0.0006708	8
	29	78	376.6741	405.5106	-2080.732	1	2119.878	-78.97195	4.960165E-007	0.0006573	8
	30	80	298.2954	484.515	-2563.64	1	2609.024	-79.29762	4.896452E-007	0.0006778	8
	31	83	237.7717	577.2056	-3140.396	1	3193.001	-79.58526	4.882841E-007	0.0006618	8
	32	85	189.0121	689.7097	-3857.594	1	3918.767	-79.86304	5.026803E-007	0.0006552	8
	33	88	150.2404	828.6732	-4750.734	1	4822.466	-80.10542	5.009099E-008	0.0006304	7
	34	90	119.1737	992.932	-5853.895	1	5937.508	-80.37318	5.058465E-008	0.0006338	7
	35	92	95.0169	1188.749	-7187.416	1	7285.058	-80.60869	4.892656E-008	0.0006349	7
	36	95	75.60484	1426.057	-8844.026	1	8958.261	-80.84017	4.890909E-008	0.0006383	7
	37	97	54.50582	1853.039	-11899.84	1	12043.25	-81.149	5.090131E-008	0.0006349	7
	38	100	45.95588	2146.059	-13918.01	1	14082.49	-81.23443	4.951239E-008	0.0006441	7
	39	102	37.20238	2551.557	-16857.28	1	17049.29	-81.39291	4.838362E-008	0.0006322	7
	40	105	30.04808	3067.031	-20521.5	1	20749.42	-81.4998	4.883448E-008	0.0006336	7
	41	107	23.91582	3727.078	-25232.78	1	25506.55	-81.59772	5.015458E-008	0.0006379	7
	42	110	18.60119	4669.189	-31860.77	1	32201.08	-81.66267	4.978527E-008	0.0006413	7
	43	112	15.02404	5642.138	-38722.86	1	39131.75	-81.71002	5.089301E-008	0.0006333	7
	44	114	12.01923	6991.032	-47504.05	1	48015.71	-81.62804	6.514023E-009	0.000687	6
	45	117	9.450605	8777.362	-59261.16	1	59907.66	-81.57499	5.572755E-009	0.0006842	6
	46	119	7.512019	11007.76	-73154.33	1	73977.88	-81.44272	5.937917E-009	0.0006645	6
	47	122	5.978954	13806.03	-90168.26	1	91219.09	-81.29482	6.287564E-009	0.0006832	6
	48	126	4.734848	17632.91	-111711.6	1	113094.7	-81.03027	5.852238E-009	0.000656	6
	49	130	3.75601	22623.5	-138032.3	1	139874	-80.69198	6.122076E-009	0.0006963	6
	50	135	3.004808	28929.45	-169077.1	1	171534.2	-80.2906	6.027187E-009	0.000665	6
	51	142	2.372217	38171.25	-209581.7	1	213029.4	-79.67783	5.639855E-009	0.0006125	6
	52	146	1.878005	49945.57	-258863.1	1	263637.4	-79.07943	6.236944E-009	0.0006735	6
	53	151	1.512097	64295.91	-313721.8	1	320242.6	-78.41786	5.825251E-009	0.0007288	6
	54	156	1.201923	85976.98	-385155.6	1	394635.1	-77.41637	6.170334E-009	0.0006915	6
	55	162	0.956633	114632.8	-469858.9	1	483640.5	-76.28923	4.711699E-010	-9.115374E-006	5
