EXPLAIN
TAG	EISPOT
TITLE	LABEL	Potentiostatic EIS	Test Identifier
DATE	LABEL	2/27/2021	Date
TIME	LABEL	18:40:10	Time
NOTES	NOTES	1	Notes...
	
PSTAT	PSTAT	REF3000-16137	Potentiostat
VDC	POTEN	0.00000E+000	T	DC Voltage (V)
FREQINIT	QUANT	3.00000E+005	Initial Freq. (Hz)
FREQFINAL	QUANT	1.00000E+000	Final Freq. (Hz)
PTSPERDEC	QUANT	1.00000E+001	Points/decade
VAC	QUANT	5.00000E+001	AC Voltage (mV rms)
AREA	QUANT	1.00000E+000	Sample Area (cm^2)
SPEED	SELECTOR	2	Optimize for:
ZGUESS	QUANT	1.00000E+003	Estimated Z (ohms)
EOC	QUANT	0	Open Circuit (V)
SEQUENCER	TOGGLE	TRUE	Run as Sequence
PSTATMODEL	IQUANT	5	Pstat Model
PSTATSECTION	LABEL	REF3000-16137	Pstat Section
PSTATSERIALNO	LABEL	16137	Pstat Serial Number
CTRLMODE	IQUANT	1	Control Mode
IESTAB	IQUANT	0	I/E Stability
CASPEED	IQUANT	1	Control Amp Speed
CONVENTION	IQUANT	1	Current Convention
ICHRANGE	IQUANT	2	Ich Range
ICHRANGEMODE	TOGGLE	F	Ich Auto Range
ICHOFFSETENABLE	TOGGLE	T	Ich Offset Enable
ICHOFFSET	QUANT	0	Ich Offset (V)
ICHFILTER	IQUANT	3	Ich Filter
VCHRANGE	IQUANT	2	Vch Range
VCHRANGEMODE	TOGGLE	F	Vch Auto Range
VCHOFFSETENABLE	TOGGLE	T	Vch Offset Enable
VCHOFFSET	QUANT	0	Vch Offset (V)
VCHFILTER	IQUANT	3	Vch Filter
ACHRANGE	IQUANT	2	Ach Range
ACHOFFSETENABLE	TOGGLE	F	Ach Offset Enable
ACHOFFSET	QUANT	0	Ach Offset (V)
ACHFILTER	IQUANT	3	Ach Filter
IERANGELOWERLIMIT	IQUANT	2	I/E Range Lower Limit
IERANGEMODE	TOGGLE	F	I/E AutoRange
IERANGE	IQUANT	11	I/E Range
POSFEEDENABLE	TOGGLE	F	Positive Feedback IR Comp
POSFEEDRESISTANCE	QUANT	0	Positive Feedback Resistance (ohm)
ACHSELECT	IQUANT	0	Ach Select
CABLEID	IQUANT	13	Cable ID
DCCALDATE	LABEL	7/31/2020	DC Calibration Date
ACCALDATE	LABEL	7/31/2020	AC Calibration Date
THERMOSELECT	IQUANT	1	Thermo Select
FRAMEWORKVERSION	QUANT	6.33	Framework Version
INSTRUMENTVERSION	LABEL	3.50	Instrument Version
COMPLIANCEVOLTAGE	IQUANT	0	Compliance Voltage
ZCURVE	TABLE
	Pt	Time	Freq	Zreal	Zimag	Zsig	Zmod	Zphz	Idc	Vdc	IERange
	#	s	Hz	ohm	ohm	V	ohm	°	A	V	#
	0	7	300046.9	34.78178	-5.024193	1	35.14278	-8.219464	2.664313E-005	-0.0007587	9
	1	10	238359.4	35.52293	-7.485351	1	36.30301	-11.89922	4.957007E-005	0.0001157	10
	2	15	189328.1	36.54655	-8.747269	1	37.57879	-13.46029	-2.199426E-006	0.0005505	9
	3	17	150421.9	37.47245	-10.8317	1	39.00654	-16.12234	3.715622E-005	-0.0007324	9
	4	20	119484.4	38.52299	-13.05483	1	40.67493	-18.72071	3.69603E-005	-0.0006242	9
	5	22	94921.88	39.70866	-15.41877	1	42.59714	-21.22106	-1.04556E-005	0.0002444	9
	6	25	75421.88	40.86784	-18.48124	1	44.85239	-24.33341	-1.351242E-005	0.0004818	9
	7	27	59859.37	42.11184	-22.05659	1	47.53841	-27.64385	-1.246675E-005	0.0003859	9
	8	30	47578.12	43.46556	-26.28678	1	50.79616	-31.1644	-7.105934E-007	0.0004634	9
	9	32	37828.12	44.90371	-31.58937	1	54.90202	-35.12605	1.213451E-006	-0.0001248	9
	10	35	30046.88	46.63124	-37.9521	1	60.12349	-39.14135	-1.324014E-005	0.0005676	9
	11	37	23859.38	48.57651	-45.8586	1	66.80335	-43.35144	-9.996527E-006	0.0006519	9
	12	40	18984.38	50.76009	-55.52835	1	75.23286	-47.56866	1.562568E-005	-0.0003838	9
	13	42	15046.87	53.52474	-67.42079	1	86.08404	-51.55426	-9.296745E-006	0.0006203	9
	14	44	11953.13	56.80385	-81.92988	1	99.6954	-55.26555	-1.204566E-005	0.0004426	9
	15	47	9515.62	60.55715	-99.5693	1	116.5385	-58.69241	-1.262374E-005	0.0004807	9
	16	49	7546.875	65.00741	-121.7522	1	138.0201	-61.9008	1.671614E-005	-0.0001204	9
	17	51	5928.309	70.98392	-149.9408	1	165.8945	-64.66652	-3.418472E-006	-7.837731E-006	9
	18	54	4733.456	77.43672	-182.4365	1	198.1906	-67.00079	4.616499E-006	0.0002466	9
	19	56	3796.875	85.00459	-220.4385	1	236.2602	-68.91257	5.53955E-006	0.0002676	9
	20	58	2987.132	95.1355	-272.3655	1	288.5026	-70.74603	5.270526E-006	0.0002315	9
	21	61	2390.625	106.5514	-330.6599	1	347.4034	-72.13905	1.14396E-005	7.785603E-005	9
	22	63	1884.191	121.7735	-407.9359	1	425.7235	-73.37904	-1.346131E-005	0.0005289	9
	23	65	1516.544	137.5968	-490.2649	1	509.2077	-74.32279	3.883823E-006	-0.0001468	8
	24	68	1193.986	159.3037	-604.3629	1	625.0058	-75.23331	-2.020701E-006	0.0010585	8
	25	70	946.5144	183.1325	-742.4101	1	764.6635	-76.1433	2.764319E-006	-0.0001861	8
	26	72	751.7689	212.3761	-907.9206	1	932.4288	-76.83438	-9.125297E-007	0.0014337	8
	27	75	597.4265	249.0751	-1113.547	1	1141.063	-77.39178	3.430235E-006	-0.0002749	8
	28	77	477.4305	290.7109	-1356.923	1	1387.715	-77.9076	5.508651E-007	0.0006738	8
	29	79	376.6741	343.2571	-1674.922	1	1709.734	-78.41822	5.450582E-007	0.0006732	8
	30	82	298.2954	405.4433	-2062.358	1	2101.833	-78.87794	5.50691E-007	0.0006768	8
	31	84	237.7717	478.1447	-2526.603	1	2571.448	-79.28384	5.410715E-007	0.0006672	8
	32	86	189.0121	566.7834	-3105.823	1	3157.115	-79.65787	5.507858E-007	0.0006687	8
	33	89	150.2404	673.7713	-3820.011	1	3878.976	-79.99709	5.387269E-007	0.0006723	8
	34	91	119.1737	808.6975	-4720.189	1	4788.964	-80.27805	5.72228E-008	0.0006478	7
	35	94	95.0169	968.08	-5796.367	1	5876.653	-80.51826	5.665509E-008	0.0006458	7
	36	96	75.60484	1164.733	-7136.078	1	7230.506	-80.73006	5.58179E-008	0.0006469	7
	37	99	54.50582	1529.26	-9613.94	1	9734.81	-80.96186	5.949915E-008	0.0006396	7
	38	101	45.95588	1774.249	-11224.27	1	11363.64	-81.01743	5.708532E-008	0.0006595	7
	39	104	37.20238	2139.421	-13624.91	1	13791.86	-81.07613	5.475007E-008	0.00065	7
	40	106	30.04808	2590.952	-16536.43	1	16738.17	-81.09521	5.590895E-008	0.000642	7
	41	108	23.91582	3201.653	-20355.6	1	20605.85	-81.0614	5.544852E-008	0.0006608	7
	42	111	18.60119	4050.095	-25609.04	1	25927.32	-81.01305	5.271874E-008	0.0006438	7
	43	113	15.02404	4964.887	-31093.16	1	31487.05	-80.92773	5.881973E-008	0.0006395	7
	44	115	12.01923	6205.244	-38081.78	1	38584.02	-80.74526	5.681706E-008	0.0006373	7
	45	118	9.450605	7929.959	-47375.42	1	48034.51	-80.4976	8.008081E-009	0.0006668	6
	46	120	7.512019	10005.97	-58349.29	1	59201	-80.26934	7.618314E-009	0.0006736	6
	47	123	5.978954	12752.23	-71673.97	1	72799.57	-79.91151	7.975534E-009	0.0006777	6
	48	128	4.734848	16377.22	-88491.23	1	89993.95	-79.51481	7.310027E-009	0.0006808	6
	49	131	3.75601	21197.53	-108832.3	1	110877.4	-78.97836	8.126337E-009	0.0007012	6
	50	136	3.004808	27300.25	-132811.7	1	135588.6	-78.38431	7.633522E-009	0.0007129	6
	51	143	2.372217	35886.56	-163499.7	1	167391.7	-77.62045	7.380741E-009	0.000724	6
	52	147	1.878005	47760.03	-200602	1	206209	-76.60814	7.51109E-009	0.0006591	6
	53	152	1.512097	62087.72	-241853	1	249695.4	-75.60213	7.342195E-009	0.0007824	6
	54	157	1.201923	82303.9	-293805	1	305115.2	-74.35079	7.675157E-009	0.0006609	6
	55	163	0.956633	108869.3	-354893.9	1	371217.2	-72.94578	6.500335E-009	4.497631E-005	6
