EXPLAIN
TAG	EISPOT
TITLE	LABEL	Potentiostatic EIS	Test Identifier
DATE	LABEL	2/27/2021	Date
TIME	LABEL	20:41:13	Time
NOTES	NOTES	1	Notes...
	
PSTAT	PSTAT	REF3000-16137	Potentiostat
VDC	POTEN	0.00000E+000	T	DC Voltage (V)
FREQINIT	QUANT	3.00000E+005	Initial Freq. (Hz)
FREQFINAL	QUANT	1.00000E+000	Final Freq. (Hz)
PTSPERDEC	QUANT	1.00000E+001	Points/decade
VAC	QUANT	5.00000E+001	AC Voltage (mV rms)
AREA	QUANT	1.00000E+000	Sample Area (cm^2)
SPEED	SELECTOR	2	Optimize for:
ZGUESS	QUANT	1.00000E+003	Estimated Z (ohms)
EOC	QUANT	0	Open Circuit (V)
SEQUENCER	TOGGLE	TRUE	Run as Sequence
PSTATMODEL	IQUANT	5	Pstat Model
PSTATSECTION	LABEL	REF3000-16137	Pstat Section
PSTATSERIALNO	LABEL	16137	Pstat Serial Number
CTRLMODE	IQUANT	1	Control Mode
IESTAB	IQUANT	0	I/E Stability
CASPEED	IQUANT	1	Control Amp Speed
CONVENTION	IQUANT	1	Current Convention
ICHRANGE	IQUANT	2	Ich Range
ICHRANGEMODE	TOGGLE	F	Ich Auto Range
ICHOFFSETENABLE	TOGGLE	T	Ich Offset Enable
ICHOFFSET	QUANT	0	Ich Offset (V)
ICHFILTER	IQUANT	3	Ich Filter
VCHRANGE	IQUANT	2	Vch Range
VCHRANGEMODE	TOGGLE	F	Vch Auto Range
VCHOFFSETENABLE	TOGGLE	T	Vch Offset Enable
VCHOFFSET	QUANT	0	Vch Offset (V)
VCHFILTER	IQUANT	3	Vch Filter
ACHRANGE	IQUANT	2	Ach Range
ACHOFFSETENABLE	TOGGLE	F	Ach Offset Enable
ACHOFFSET	QUANT	0	Ach Offset (V)
ACHFILTER	IQUANT	3	Ach Filter
IERANGELOWERLIMIT	IQUANT	2	I/E Range Lower Limit
IERANGEMODE	TOGGLE	F	I/E AutoRange
IERANGE	IQUANT	11	I/E Range
POSFEEDENABLE	TOGGLE	F	Positive Feedback IR Comp
POSFEEDRESISTANCE	QUANT	0	Positive Feedback Resistance (ohm)
ACHSELECT	IQUANT	0	Ach Select
CABLEID	IQUANT	13	Cable ID
DCCALDATE	LABEL	7/31/2020	DC Calibration Date
ACCALDATE	LABEL	7/31/2020	AC Calibration Date
THERMOSELECT	IQUANT	1	Thermo Select
FRAMEWORKVERSION	QUANT	6.33	Framework Version
INSTRUMENTVERSION	LABEL	3.50	Instrument Version
COMPLIANCEVOLTAGE	IQUANT	0	Compliance Voltage
ZCURVE	TABLE
	Pt	Time	Freq	Zreal	Zimag	Zsig	Zmod	Zphz	Idc	Vdc	IERange
	#	s	Hz	ohm	ohm	V	ohm	°	A	V	#
	0	19	300046.9	-36.65781	-4858.561	1	4858.699	-90.43229	-0.0000992	0.004292	9
	1	39	238359.4	-13.50009	-6042.325	1	6042.34	-90.12801	1.654682E-005	-0.0009003	9
	2	56	189328.1	-227.9528	-8891.222	1	8894.144	-91.46863	5.018555E-005	0.000165	9
	3	63	150421.9	-1132.496	-9079.961	1	9150.313	-97.1095	-2.069471E-005	0.0011645	9
	4	71	119484.4	428.383	-11654.53	1	11662.4	-87.89494	1.959038E-005	-0.0089606	8
	5	78	94921.88	444.7271	-14522.41	1	14529.22	-88.24595	-2.662476E-005	0.0095827	8
	6	87	75421.88	670.8877	-18440.28	1	18452.48	-87.9164	1.641766E-005	-0.0092133	8
	7	95	59859.37	591.2689	-22985.45	1	22993.05	-88.52647	-1.976158E-005	0.0113799	8
	8	104	47578.12	983.939	-28762.46	1	28779.29	-88.04073	-9.439754E-006	-0.0020448	8
	9	111	37828.12	3912.438	-37192.91	1	37398.13	-83.99496	5.431596E-006	-0.026932	7
	10	119	30046.88	4582.081	-46661.06	1	46885.5	-84.39158	-6.712105E-006	0.0121266	7
	11	126	23859.38	4991.534	-57915.12	1	58129.82	-85.07402	-7.288415E-006	0.0236754	7
	12	132	18984.38	4896.526	-72218.08	1	72383.88	-86.12117	-1.019191E-006	-0.0134076	7
	13	137	15046.87	5170.524	-91049.81	1	91196.51	-86.74979	1.349659E-006	-0.0200688	7
	14	142	11953.13	-413.3596	-124982.7	1	124983.4	-90.1895	-9.941134E-007	-0.0050471	8
	15	150	9515.62	5941.801	-145274.2	1	145395.6	-87.65788	-5.495706E-006	0.0271442	7
	16	156	7546.875	3727.604	-177707.9	1	177747	-88.79834	-1.802542E-006	0.0220213	7
	17	162	5928.309	30632.75	-217208.8	1	219358.2	-81.97257	4.968389E-006	-0.0006538	7
	18	167	4733.456	20236.28	-329224.8	1	329846.1	-86.48266	-6.745128E-006	0.0121368	7
	19	175	3796.875	-16854.81	-360180.3	1	360574.5	-92.67923	6.915925E-006	-0.0271115	7
	20	181	2987.132	1547055	-1247220	1	1987193	-38.87542	-1.194169E-005	0.0102511	8
	21	190	2390.625	-9377.514	-539226.4	1	539307.9	-90.99632	-1.79804E-006	0.0220697	7
	22	198	1884.191	5049.63	-701543.4	1	701561.6	-89.5876	-7.407958E-007	0.0178141	6
	23	204	1516.544	47099.93	-894850.6	1	896089.3	-86.98705	-2.108181E-007	0.0224048	6
	24	209	1193.986	-275956.4	-834964.3	1	879384.6	-108.2888	7.73525E-006	-0.0245494	7
	25	217	946.5144	-203837.3	-782772.2	1	808877	-104.5959	5.067766E-007	0.01616	7
	26	223	751.7689	-32495.81	-1423947	1	1424318	-91.30732	4.343016E-007	0.0020784	6
	27	228	597.4265	836471.8	-2585500	1	2717443	-72.07235	-7.517732E-007	0.0236524	6
	28	231	477.4305	75238.51	-2835725	1	2836723	-88.48016	-6.326006E-009	0.0006215	6
	29	237	376.6741	91340.52	-3583848	1	3585012	-88.54003	-7.152007E-009	0.0006862	6
	30	241	298.2954	456620.1	-4594837	1	4617469	-84.32476	-7.174599E-010	0.0006858	5
	31	245	237.7717	504318.7	-5682329	1	5704665	-84.92817	-7.253598E-010	0.0006791	5
	32	249	189.0121	557100.3	-7166390	1	7188012	-85.55489	-7.652924E-010	0.0006608	5
	33	253	150.2404	340653.3	-9174120	1	9180442	-87.87347	-7.119323E-010	0.000618	5
	34	256	119.1737	-271880.2	-1.026852E+007	1	1.027212E+007	-91.51667	-5.694029E-010	0.0006207	5
	35	259	95.0169	763532.6	-1.459818E+007	1	1.461813E+007	-87.00597	-7.234287E-010	0.0007046	5
	36	262	75.60484	2784016	-1.760498E+007	1	1.782375E+007	-81.01378	-6.109728E-010	0.0006468	5
	37	265	54.50582	1221317	-2.612422E+007	1	2.615275E+007	-87.32335	-7.249444E-010	0.0006964	5
	38	268	45.95588	4942035	-2.728775E+007	1	2.773166E+007	-79.73454	-7.652688E-010	0.0006216	5
	39	272	37.20238	-4949737	-3.319875E+007	1	3.356571E+007	-98.48	-8.309091E-010	0.0006447	5
	40	275	30.04808	-263808.8	-4.533844E+007	1	4.53392E+007	-90.33338	-7.79429E-010	0.0007078	5
	41	280	23.91582	1.944387E+007	-5.91972E+007	1	6.230869E+007	-71.81676	-1.916728E-010	0.0006985	4
	42	283	18.60119	2.019332E+007	-5.849085E+007	1	6.187851E+007	-70.95333	-1.159078E-010	0.0006192	4
	43	287	15.02404	5111753	-9.007322E+007	1	9.021816E+007	-86.75188	-7.467004E-011	0.0006564	4
	44	291	12.01923	2748888	-1.081814E+008	1	1.082163E+008	-88.54443	-4.953548E-011	0.0006357	4
	45	294	9.450605	1456649	-1.367404E+008	1	1.367481E+008	-89.38967	-8.528745E-011	0.0006762	4
	46	298	7.512019	4881825	-1.713493E+008	1	1.714189E+008	-88.36806	-7.602517E-011	0.0006828	4
	47	303	5.978954	3.552096E+007	-1.837028E+008	1	1.871055E+008	-79.05629	-3.768008E-011	0.0007139	4
	48	308	4.734848	5.208615E+007	-2.889376E+008	1	2.935948E+008	-79.78117	-4.960365E-012	0.0006952	3
	49	314	3.75601	3.159331E+007	-4.166494E+008	1	4.178455E+008	-85.66373	-7.14142E-010	0.0006192	5
	50	323	3.004808	9.019426E+007	-4.563869E+008	1	4.65214E+008	-78.82088	-5.296777E-011	0.0006881	4
	51	332	2.372217	8.17294E+007	-5.532104E+008	1	5.59215E+008	-81.59611	-6.412631E-012	0.0007377	3
	52	337	1.878005	9.694921E+007	-6.938057E+008	1	7.005466E+008	-82.04526	-6.248845E-012	0.0007215	3
	53	346	1.512097	1.186764E+008	-8.561341E+008	1	8.643204E+008	-82.10802	-6.025506E-012	0.0008392	3
	54	354	1.201923	1.513147E+008	-1.070801E+009	1	1.081439E+009	-81.95679	-5.922795E-012	0.0007311	3
	55	367	0.956633	1.879735E+008	-1.329461E+009	1	1.342684E+009	-81.95225	-6.037632E-012	0.0000981	3
