EXPLAIN
TAG	EISPOT
TITLE	LABEL	Potentiostatic EIS	Test Identifier
DATE	LABEL	2/27/2021	Date
TIME	LABEL	19:23:10	Time
NOTES	NOTES	1	Notes...
	
PSTAT	PSTAT	REF3000-16137	Potentiostat
VDC	POTEN	0.00000E+000	T	DC Voltage (V)
FREQINIT	QUANT	3.00000E+005	Initial Freq. (Hz)
FREQFINAL	QUANT	1.00000E+000	Final Freq. (Hz)
PTSPERDEC	QUANT	1.00000E+001	Points/decade
VAC	QUANT	5.00000E+001	AC Voltage (mV rms)
AREA	QUANT	1.00000E+000	Sample Area (cm^2)
SPEED	SELECTOR	2	Optimize for:
ZGUESS	QUANT	1.00000E+003	Estimated Z (ohms)
EOC	QUANT	0	Open Circuit (V)
SEQUENCER	TOGGLE	TRUE	Run as Sequence
PSTATMODEL	IQUANT	5	Pstat Model
PSTATSECTION	LABEL	REF3000-16137	Pstat Section
PSTATSERIALNO	LABEL	16137	Pstat Serial Number
CTRLMODE	IQUANT	1	Control Mode
IESTAB	IQUANT	0	I/E Stability
CASPEED	IQUANT	1	Control Amp Speed
CONVENTION	IQUANT	1	Current Convention
ICHRANGE	IQUANT	2	Ich Range
ICHRANGEMODE	TOGGLE	F	Ich Auto Range
ICHOFFSETENABLE	TOGGLE	T	Ich Offset Enable
ICHOFFSET	QUANT	0	Ich Offset (V)
ICHFILTER	IQUANT	3	Ich Filter
VCHRANGE	IQUANT	2	Vch Range
VCHRANGEMODE	TOGGLE	F	Vch Auto Range
VCHOFFSETENABLE	TOGGLE	T	Vch Offset Enable
VCHOFFSET	QUANT	0	Vch Offset (V)
VCHFILTER	IQUANT	3	Vch Filter
ACHRANGE	IQUANT	2	Ach Range
ACHOFFSETENABLE	TOGGLE	F	Ach Offset Enable
ACHOFFSET	QUANT	0	Ach Offset (V)
ACHFILTER	IQUANT	3	Ach Filter
IERANGELOWERLIMIT	IQUANT	2	I/E Range Lower Limit
IERANGEMODE	TOGGLE	F	I/E AutoRange
IERANGE	IQUANT	11	I/E Range
POSFEEDENABLE	TOGGLE	F	Positive Feedback IR Comp
POSFEEDRESISTANCE	QUANT	0	Positive Feedback Resistance (ohm)
ACHSELECT	IQUANT	0	Ach Select
CABLEID	IQUANT	13	Cable ID
DCCALDATE	LABEL	7/31/2020	DC Calibration Date
ACCALDATE	LABEL	7/31/2020	AC Calibration Date
THERMOSELECT	IQUANT	1	Thermo Select
FRAMEWORKVERSION	QUANT	6.33	Framework Version
INSTRUMENTVERSION	LABEL	3.50	Instrument Version
COMPLIANCEVOLTAGE	IQUANT	0	Compliance Voltage
ZCURVE	TABLE
	Pt	Time	Freq	Zreal	Zimag	Zsig	Zmod	Zphz	Idc	Vdc	IERange
	#	s	Hz	ohm	ohm	V	ohm	°	A	V	#
	0	8	300046.9	205.5605	-16.08248	1	206.1887	-4.473547	-8.150649E-005	0.0033797	9
	1	11	238359.4	207.7621	-18.93588	1	208.6233	-5.207669	1.79485E-005	-0.0010482	9
	2	16	189328.1	210.3248	-20.80074	1	211.3508	-5.648084	-8.555859E-006	0.0013146	9
	3	20	150421.9	212.3451	-25.61581	1	213.8846	-6.878521	1.892542E-005	-0.0012164	9
	4	23	119484.4	215.2324	-29.99417	1	217.3123	-7.933481	-6.732957E-006	0.0013899	9
	5	25	94921.88	218.2078	-35.22663	1	221.0329	-9.170491	2.172195E-005	-0.0008215	9
	6	28	75421.88	221.9424	-41.65033	1	225.8167	-10.62867	1.973996E-005	-0.000112	9
	7	30	59859.37	226.4073	-49.13393	1	231.6774	-12.24422	2.624861E-005	-0.0007548	9
	8	33	47578.12	231.4884	-57.73119	1	238.5786	-14.00341	-1.581239E-005	0.0010126	9
	9	36	37828.12	237.9775	-68.27061	1	247.5766	-16.00705	-1.492346E-008	0.0006359	10
	10	39	30046.88	244.3502	-79.27695	1	256.8888	-17.97513	-9.903057E-006	-5.480221E-005	9
	11	42	23859.38	252.2552	-92.45652	1	268.665	-20.12888	-1.588785E-005	0.0009727	9
	12	44	18984.38	260.566	-108.1826	1	282.1313	-22.5474	-1.805586E-006	-0.0003486	9
	13	47	15046.87	270.5773	-126.9721	1	298.8879	-25.13895	-1.471192E-005	0.0001459	9
	14	49	11953.13	281.0716	-148.7785	1	318.0193	-27.89344	1.583488E-005	-0.0007877	9
	15	51	9515.62	291.6082	-174.6794	1	339.9238	-30.92249	-2.003665E-005	0.0004051	9
	16	54	7546.875	303.2008	-207.12	1	367.1913	-34.33743	2.466224E-005	-0.0004082	9
	17	56	5928.309	315.2218	-248.192	1	401.2033	-38.21537	-2.164443E-005	0.0005018	9
	18	59	4733.456	328.1415	-293.5146	1	440.2586	-41.81186	-7.933086E-006	0.0044545	8
	19	61	3796.875	343.3439	-351.7668	1	491.5536	-45.69424	8.911272E-006	-0.0003767	8
	20	63	2987.132	358.2477	-427.9926	1	558.1389	-50.06926	-8.044657E-006	0.0046037	8
	21	66	2390.625	377.0766	-514.2136	1	637.6539	-53.74713	8.01642E-006	-0.003262	8
	22	68	1884.191	397.0077	-631.0862	1	745.5769	-57.82656	7.889375E-006	-0.003172	8
	23	70	1516.544	422.2361	-762.1166	1	871.2664	-61.0122	1.091038E-005	-0.0016443	8
	24	73	1193.986	452.7018	-940.6064	1	1043.877	-64.29909	5.19738E-006	-0.0029113	8
	25	75	946.5144	489.1739	-1155.365	1	1254.655	-67.05252	1.133162E-006	0.0027205	8
	26	78	751.7689	533.0313	-1420.328	1	1517.054	-69.42951	1.107484E-005	-0.0016165	8
	27	80	597.4265	586.2769	-1743.812	1	1839.729	-71.41714	-5.588834E-006	0.0043693	8
	28	83	477.4305	650.2872	-2138.088	1	2234.792	-73.08316	1.314536E-007	0.0006623	8
	29	85	376.6741	737.588	-2650.302	1	2751.025	-74.44794	1.329553E-007	0.0006636	8
	30	88	298.2954	848.0714	-3275.838	1	3383.835	-75.48553	1.510415E-007	0.0006567	8
	31	90	237.7717	986.99	-4024.744	1	4143.997	-76.22124	1.286383E-007	0.0006741	8
	32	92	189.0121	1175.043	-4965.763	1	5102.894	-76.68704	4.308621E-009	0.0006345	7
	33	95	150.2404	1418.217	-6112.453	1	6274.824	-76.93731	4.683499E-009	0.0006305	7
	34	97	119.1737	1744.853	-7530.623	1	7730.122	-76.95471	5.475629E-009	0.0006327	7
	35	99	95.0169	2176.031	-9224.475	1	9477.66	-76.72672	5.709039E-009	0.0006402	7
	36	102	75.60484	2763.16	-11296.67	1	11629.69	-76.25535	6.125608E-009	0.0006296	7
	37	105	54.50582	3991.63	-15009.93	1	15531.62	-75.10786	1.988319E-009	0.0006351	7
	38	107	45.95588	4862.576	-17362.91	1	18030.95	-74.35481	8.024104E-009	0.0006253	7
	39	109	37.20238	6241.082	-20673.85	1	21595.35	-73.20183	5.095866E-009	0.0006214	7
	40	112	30.04808	8055.208	-24519.58	1	25808.84	-71.81355	2.75463E-009	0.0006314	7
	41	114	23.91582	10560.76	-29203.88	1	31054.73	-70.1189	5.11581E-009	0.0006185	7
	42	117	18.60119	14020.11	-35012.64	1	37715.36	-68.17736	7.955695E-010	0.0006421	7
	43	119	15.02404	17472.47	-40385.45	1	44003.08	-66.60463	1.758299E-009	0.0006771	6
	44	121	12.01923	21610.17	-46566.66	1	51336.67	-65.10542	2.059316E-009	0.0006828	6
	45	124	9.450605	26421.15	-54051.96	1	60163.87	-63.95015	1.200597E-009	0.0006626	6
	46	126	7.512019	31216.08	-62129.61	1	69530.8	-63.32345	1.21594E-009	0.0006744	6
	47	129	5.978954	35991.14	-71677.15	1	80205.84	-63.33747	1.183103E-009	0.0006655	6
	48	134	4.734848	40849.98	-83583.13	1	93031.5	-63.95363	-5.265982E-012	0.0006555	6
	49	137	3.75601	45812.99	-98200.5	1	108361.3	-64.98978	1.198762E-009	0.0006882	6
	50	142	3.004808	50719.84	-115759.6	1	126383.5	-66.33946	4.341009E-010	0.0006712	6
	51	149	2.372217	56504.54	-139012.8	1	150057.8	-67.87974	7.934812E-011	0.000614	6
	52	153	1.878005	62339.29	-168100.8	1	179287.6	-69.65296	5.932851E-010	0.0006827	6
	53	158	1.512097	68374.75	-201063.6	1	212371.5	-71.21861	1.109337E-010	0.0006792	6
	54	163	1.201923	76212.85	-245432.7	1	256993.4	-72.74915	5.040181E-010	0.0006963	6
	55	169	0.956633	85268.65	-299513.6	1	311414.7	-74.10886	4.836795E-011	3.391151E-005	6
