EXPLAIN
TAG	EISPOT
TITLE	LABEL	Potentiostatic EIS	Test Identifier
DATE	LABEL	2/27/2021	Date
TIME	LABEL	20:59:36	Time
NOTES	NOTES	1	Notes...
	
PSTAT	PSTAT	REF3000-16137	Potentiostat
VDC	POTEN	0.00000E+000	T	DC Voltage (V)
FREQINIT	QUANT	3.00000E+005	Initial Freq. (Hz)
FREQFINAL	QUANT	1.00000E+000	Final Freq. (Hz)
PTSPERDEC	QUANT	1.00000E+001	Points/decade
VAC	QUANT	5.00000E+001	AC Voltage (mV rms)
AREA	QUANT	1.00000E+000	Sample Area (cm^2)
SPEED	SELECTOR	2	Optimize for:
ZGUESS	QUANT	1.00000E+003	Estimated Z (ohms)
EOC	QUANT	0	Open Circuit (V)
SEQUENCER	TOGGLE	TRUE	Run as Sequence
PSTATMODEL	IQUANT	5	Pstat Model
PSTATSECTION	LABEL	REF3000-16137	Pstat Section
PSTATSERIALNO	LABEL	16137	Pstat Serial Number
CTRLMODE	IQUANT	1	Control Mode
IESTAB	IQUANT	0	I/E Stability
CASPEED	IQUANT	1	Control Amp Speed
CONVENTION	IQUANT	1	Current Convention
ICHRANGE	IQUANT	2	Ich Range
ICHRANGEMODE	TOGGLE	F	Ich Auto Range
ICHOFFSETENABLE	TOGGLE	T	Ich Offset Enable
ICHOFFSET	QUANT	0	Ich Offset (V)
ICHFILTER	IQUANT	3	Ich Filter
VCHRANGE	IQUANT	2	Vch Range
VCHRANGEMODE	TOGGLE	F	Vch Auto Range
VCHOFFSETENABLE	TOGGLE	T	Vch Offset Enable
VCHOFFSET	QUANT	0	Vch Offset (V)
VCHFILTER	IQUANT	3	Vch Filter
ACHRANGE	IQUANT	2	Ach Range
ACHOFFSETENABLE	TOGGLE	F	Ach Offset Enable
ACHOFFSET	QUANT	0	Ach Offset (V)
ACHFILTER	IQUANT	3	Ach Filter
IERANGELOWERLIMIT	IQUANT	2	I/E Range Lower Limit
IERANGEMODE	TOGGLE	F	I/E AutoRange
IERANGE	IQUANT	11	I/E Range
POSFEEDENABLE	TOGGLE	F	Positive Feedback IR Comp
POSFEEDRESISTANCE	QUANT	0	Positive Feedback Resistance (ohm)
ACHSELECT	IQUANT	0	Ach Select
CABLEID	IQUANT	13	Cable ID
DCCALDATE	LABEL	7/31/2020	DC Calibration Date
ACCALDATE	LABEL	7/31/2020	AC Calibration Date
THERMOSELECT	IQUANT	1	Thermo Select
FRAMEWORKVERSION	QUANT	6.33	Framework Version
INSTRUMENTVERSION	LABEL	3.50	Instrument Version
COMPLIANCEVOLTAGE	IQUANT	0	Compliance Voltage
ZCURVE	TABLE
	Pt	Time	Freq	Zreal	Zimag	Zsig	Zmod	Zphz	Idc	Vdc	IERange
	#	s	Hz	ohm	ohm	V	ohm	°	A	V	#
	0	14	300046.9	-66.3442	-4849.155	1	4849.608	-90.78385	2.198123E-006	0.0015074	9
	1	28	238359.4	56.86088	-6067.087	1	6067.354	-89.46304	-2.093427E-005	0.0015737	9
	2	43	189328.1	301.1447	-7656.495	1	7662.415	-87.7476	2.208464E-005	-0.0003771	9
	3	52	150421.9	503.8262	-10361.55	1	10373.8	-87.21621	-3.706067E-007	-0.0017982	9
	4	59	119484.4	304.9381	-11517.3	1	11521.34	-88.48336	2.486906E-005	0.0084791	8
	5	67	94921.88	199.3553	-14643.99	1	14645.35	-89.22005	-9.651498E-006	-0.0019902	8
	6	75	75421.88	694.4575	-18029.21	1	18042.58	-87.79414	1.743817E-005	0.0003962	8
	7	84	59859.37	356.5113	-23002.34	1	23005.1	-89.11205	2.34063E-005	-0.0028461	8
	8	93	47578.12	4102.52	-30316.34	1	30592.66	-82.29333	-6.772556E-006	0.0122116	7
	9	100	37828.12	4540.98	-37452.73	1	37727.02	-83.08688	-1.088522E-006	-0.0133022	7
	10	108	30046.88	4464.717	-46366.38	1	46580.84	-84.49982	-7.403765E-006	0.019066	7
	11	115	23859.38	4211.251	-57603.07	1	57756.8	-85.81865	6.772222E-006	-0.0264834	7
	12	120	18984.38	3760.23	-72523.75	1	72621.16	-87.03197	2.780373E-006	0.0084393	7
	13	126	15046.87	5302.75	-92934.97	1	93086.13	-86.73431	-1.810643E-006	0.0224752	7
	14	131	11953.13	3925.504	-113855.2	1	113922.8	-88.02534	-7.396151E-006	0.0190222	7
	15	136	9515.62	6463.615	-142845.8	1	142991.9	-87.40919	6.973E-006	-0.0271462	7
	16	143	7546.875	8627.475	-180621	1	180826.9	-87.26531	7.677301E-006	-0.0186414	7
	17	148	5928.309	-26273.65	-242165.6	1	243586.7	-96.1921	5.428259E-006	-0.0268886	7
	18	155	4733.456	-18797.58	-290323.6	1	290931.5	-93.70456	4.979723E-006	-0.0006788	7
	19	162	3796.875	-38507.62	-430475.1	1	432194	-95.1117	-2.385415E-005	0.0052602	8
	20	171	2987.132	-128259.7	-350826.9	1	373537.2	-110.082	-2.046305E-006	0.0077559	8
	21	179	2390.625	-69118.84	-508023.1	1	512703.5	-97.7478	-7.32584E-006	0.0237229	7
	22	185	1884.191	-371678	-343543.2	1	506128.9	-137.2527	-2.614247E-005	0.0075656	8
	23	193	1516.544	-135636.7	-328185.4	1	355109.8	-112.455	-2.653835E-005	0.0096009	8
	24	202	1193.986	295714.1	-145173.3	1	329427	-26.14755	9.982861E-006	0.000436	9
	25	210	946.5144	94629.81	-1119293	1	1123286	-85.16747	-3.749689E-006	0.0255773	7
	26	214	751.7689	39749.06	-306732.8	1	309297.5	-82.61627	1.648599E-005	-0.0091903	8
	27	222	597.4265	469326.6	3450847	1	3482616	82.2551	6.918151E-006	-0.0271137	7
	28	228	477.4305	23979.45	-2840440	1	2840541	-89.51631	-6.61414E-008	0.0006844	7
	29	235	376.6741	458168.8	-3710717	1	3738896	-82.96121	-6.353426E-010	0.0007113	5
	30	239	298.2954	490196.8	-4597354	1	4623414	-83.91378	-7.239871E-010	0.0006618	5
	31	242	237.7717	492105.2	-5711324	1	5732486	-85.07539	-7.619119E-010	0.0006433	5
	32	246	189.0121	541024.5	-7186160	1	7206498	-85.6945	-7.273202E-010	0.00071	5
	33	251	150.2404	664169.9	-8784348	1	8809421	-85.67619	-7.014445E-010	0.0006839	5
	34	254	119.1737	-931913.3	-1.159009E+007	1	1.162749E+007	-94.59704	-7.296955E-010	0.0006131	5
	35	256	95.0169	505651.9	-1.458247E+007	1	1.459124E+007	-88.01405	-6.339338E-010	0.0006124	5
	36	259	75.60484	-871554.2	-1.712231E+007	1	1.714447E+007	-92.91394	-8.625227E-010	0.0006903	5
	37	262	54.50582	317294.7	-2.319159E+007	1	2.319376E+007	-89.21616	-7.741833E-010	0.000672	5
	38	265	45.95588	1280818	-2.945258E+007	1	2.948042E+007	-87.50992	-4.154015E-011	0.0006705	4
	39	268	37.20238	-3590574	-3.904772E+007	1	3.921246E+007	-95.2538	-8.090688E-010	0.0007145	5
	40	272	30.04808	4023396	-4.46972E+007	1	4.487792E+007	-84.85641	-5.901678E-011	0.0006381	4
	41	276	23.91582	6765144	-4.667794E+007	1	4.716563E+007	-81.75341	-1.761876E-010	0.0006646	4
	42	280	18.60119	8.139586E+007	-4.31026E+007	1	9.210385E+007	-27.90314	-4.441054E-010	0.000647	4
	43	283	15.02404	8035081	-8.397076E+007	1	8.435432E+007	-84.53407	-9.630197E-011	0.0007156	4
	44	287	12.01923	9248730	-1.113768E+008	1	1.117602E+008	-85.25305	-5.958121E-011	0.0006417	4
	45	290	9.450605	9.639454E+006	-1.41483E+008	1	1.41811E+008	-86.10237	-6.936592E-011	0.0006344	4
	46	295	7.512019	2093275	-1.838026E+008	1	1.838145E+008	-89.3475	-5.721299E-011	0.0007086	4
	47	299	5.978954	-4.807627E+007	-2.360416E+008	1	2.408879E+008	-101.5124	-1.101767E-010	0.0007118	4
	48	304	4.734848	2357566	-2.808437E+008	1	2.808536E+008	-89.51904	-6.690879E-010	0.0006477	5
	49	312	3.75601	3.772706E+007	-2.890115E+008	1	2.914635E+008	-82.56276	-6.946261E-010	0.0006422	5
	50	320	3.004808	5221541	-3.455183E+008	1	3.455578E+008	-89.1342	-7.009373E-010	0.0006267	5
	51	329	2.372217	5.079955E+007	-5.644383E+008	1	5.667196E+008	-84.85722	-6.003782E-012	0.0006819	3
	52	336	1.878005	5.112616E+007	-7.102175E+008	1	7.120554E+008	-85.88258	-5.763619E-012	0.0007391	3
	53	345	1.512097	5.334243E+007	-8.736371E+008	1	8.75264E+008	-86.50598	-5.824896E-012	0.0006983	3
	54	352	1.201923	5.264641E+007	-1.09746E+009	1	1.098722E+009	-87.25356	-5.670404E-012	0.0007569	3
	55	363	0.956633	4.912293E+007	-1.373655E+009	1	1.374533E+009	-87.95193	-5.61082E-012	9.410765E-005	3
