EXPLAIN
TAG	EISPOT
TITLE	LABEL	Potentiostatic EIS	Test Identifier
DATE	LABEL	2/27/2021	Date
TIME	LABEL	20:23:00	Time
NOTES	NOTES	1	Notes...
	
PSTAT	PSTAT	REF3000-16137	Potentiostat
VDC	POTEN	0.00000E+000	T	DC Voltage (V)
FREQINIT	QUANT	3.00000E+005	Initial Freq. (Hz)
FREQFINAL	QUANT	1.00000E+000	Final Freq. (Hz)
PTSPERDEC	QUANT	1.00000E+001	Points/decade
VAC	QUANT	5.00000E+001	AC Voltage (mV rms)
AREA	QUANT	1.00000E+000	Sample Area (cm^2)
SPEED	SELECTOR	2	Optimize for:
ZGUESS	QUANT	1.00000E+003	Estimated Z (ohms)
EOC	QUANT	0	Open Circuit (V)
SEQUENCER	TOGGLE	TRUE	Run as Sequence
PSTATMODEL	IQUANT	5	Pstat Model
PSTATSECTION	LABEL	REF3000-16137	Pstat Section
PSTATSERIALNO	LABEL	16137	Pstat Serial Number
CTRLMODE	IQUANT	1	Control Mode
IESTAB	IQUANT	0	I/E Stability
CASPEED	IQUANT	1	Control Amp Speed
CONVENTION	IQUANT	1	Current Convention
ICHRANGE	IQUANT	2	Ich Range
ICHRANGEMODE	TOGGLE	F	Ich Auto Range
ICHOFFSETENABLE	TOGGLE	T	Ich Offset Enable
ICHOFFSET	QUANT	0	Ich Offset (V)
ICHFILTER	IQUANT	3	Ich Filter
VCHRANGE	IQUANT	2	Vch Range
VCHRANGEMODE	TOGGLE	F	Vch Auto Range
VCHOFFSETENABLE	TOGGLE	T	Vch Offset Enable
VCHOFFSET	QUANT	0	Vch Offset (V)
VCHFILTER	IQUANT	3	Vch Filter
ACHRANGE	IQUANT	2	Ach Range
ACHOFFSETENABLE	TOGGLE	F	Ach Offset Enable
ACHOFFSET	QUANT	0	Ach Offset (V)
ACHFILTER	IQUANT	3	Ach Filter
IERANGELOWERLIMIT	IQUANT	2	I/E Range Lower Limit
IERANGEMODE	TOGGLE	F	I/E AutoRange
IERANGE	IQUANT	11	I/E Range
POSFEEDENABLE	TOGGLE	F	Positive Feedback IR Comp
POSFEEDRESISTANCE	QUANT	0	Positive Feedback Resistance (ohm)
ACHSELECT	IQUANT	0	Ach Select
CABLEID	IQUANT	13	Cable ID
DCCALDATE	LABEL	7/31/2020	DC Calibration Date
ACCALDATE	LABEL	7/31/2020	AC Calibration Date
THERMOSELECT	IQUANT	1	Thermo Select
FRAMEWORKVERSION	QUANT	6.33	Framework Version
INSTRUMENTVERSION	LABEL	3.50	Instrument Version
COMPLIANCEVOLTAGE	IQUANT	0	Compliance Voltage
ZCURVE	TABLE
	Pt	Time	Freq	Zreal	Zimag	Zsig	Zmod	Zphz	Idc	Vdc	IERange
	#	s	Hz	ohm	ohm	V	ohm	°	A	V	#
	0	34	300046.9	-37.62549	-4860.054	1	4860.2	-90.44357	-0.0001115	0.0036845	9
	1	51	238359.4	37.27811	-5980.371	1	5980.487	-89.64285	-0.0001067	0.0037818	9
	2	66	189328.1	-404.7333	-7826.045	1	7836.503	-92.96048	-1.958998E-005	0.0015484	9
	3	74	150421.9	224.2972	-9232.435	1	9235.159	-88.6083	2.663224E-005	-0.001786	9
	4	87	119484.4	627.4176	-11513.7	1	11530.78	-86.88086	2.083303E-005	-0.0177002	8
	5	94	94921.88	746.485	-14554.94	1	14574.07	-87.06402	-2.385491E-005	0.0052358	8
	6	103	75421.88	1312.465	-17858.74	1	17906.9	-85.79681	8.529184E-006	0.004071	8
	7	112	59859.37	799.2632	-22800.81	1	22814.82	-87.99237	2.269169E-005	-0.0096376	8
	8	120	47578.12	4129.543	-29828.31	1	30112.81	-82.11786	4.930178E-006	-0.00069	7
	9	128	37828.12	1470.482	-35110.4	1	35141.18	-87.60176	-2.031961E-005	0.0028109	8
	10	136	30046.88	1211.805	-46476.62	1	46492.41	-88.50644	-9.32683E-006	-0.002095	8
	11	146	23859.38	5615.727	-57437.41	1	57711.29	-84.41587	-3.379907E-006	-0.0051338	7
	12	151	18984.38	6723.132	-71532.21	1	71847.46	-84.63068	6.920868E-006	-0.0271221	7
	13	157	15046.87	8845.306	-90382.03	1	90813.83	-84.41051	-7.208017E-006	0.0237309	7
	14	162	11953.13	7103.453	-113411	1	113633.2	-86.41599	-5.344912E-006	0.0037807	7
	15	168	9515.62	7790.504	-137811.4	1	138031.4	-86.7645	2.635637E-005	-0.0089497	8
	16	176	7546.875	10182.67	-194370.8	1	194637.3	-87.00114	-7.798205E-007	-0.0051522	8
	17	185	5928.309	51059.41	-258799.9	1	263788.7	-78.83928	-7.289499E-006	0.0237584	7
	18	190	4733.456	20669.28	-282073.2	1	282829.5	-85.80907	-7.300767E-006	0.0237319	7
	19	196	3796.875	56561.97	-361414.6	1	365813.8	-81.10527	-1.748884E-006	0.0221695	7
	20	203	2987.132	103257.8	-448506.7	1	460239.6	-77.03495	-4.951738E-008	-0.0149941	6
	21	208	2390.625	136777.6	-550310.4	1	567053.5	-76.04218	1.851227E-007	-0.0211399	6
	22	214	1884.191	205289.7	-707942.5	1	737106.8	-73.82887	1.673441E-009	0.0173648	6
	23	219	1516.544	208128	-843177.8	1	868484.9	-76.13441	4.356447E-007	0.0018866	6
	24	224	1193.986	360165.5	-998373	1	1061352	-70.16298	7.297353E-007	-0.0271568	6
	25	231	946.5144	602434.4	-1277585	1	1412498	-64.75417	-7.516398E-007	0.023443	6
	26	236	751.7689	504150.6	-1305487	1	1399451	-68.88452	1.871067E-007	-0.0213569	6
	27	241	597.4265	775666.8	-1452927	1	1647014	-61.90381	-4.92102E-007	0.0015168	6
	28	245	477.4305	1356108	-1843641	1	2288676	-53.6633	-6.972305E-009	0.0006798	6
	29	249	376.6741	2050609	-1853616	1	2764216	-42.11153	-6.332305E-010	0.0006171	5
	30	252	298.2954	2261829	-2030316	1	3039416	-41.91254	-6.616363E-009	0.0006926	6
	31	256	237.7717	2689662	-2017244	1	3362076	-36.86986	-6.248067E-009	0.0006378	6
	32	260	189.0121	3259290	-1746414	1	3697693	-28.18358	-7.31991E-010	0.0006277	5
	33	264	150.2404	3645007	-1627338	1	3991780	-24.05869	-7.773127E-010	0.0007137	5
	34	268	119.1737	4088767	-1509127	1	4358381	-20.25865	-9.043305E-010	0.0007131	5
	35	271	95.0169	4177505	-1256107	1	4362264	-16.73516	-6.88149E-010	0.0007092	5
	36	275	75.60484	4391516	-1010092	1	4506184	-12.95331	-6.615833E-010	0.0007016	5
	37	279	54.50582	4692385	-965795	1	4790745	-11.6303	-7.403152E-010	0.0006261	5
	38	284	45.95588	5092300	-190628.3	1	5095867	-2.143845	-1.660428E-010	0.0007188	4
	39	286	37.20238	5152001	-196212.8	1	5155736	-2.181043	-4.216584E-011	0.0007235	4
	40	289	30.04808	5177531	-292717.2	1	5185799	-3.235833	-6.508328E-011	0.0006207	4
	41	292	23.91582	5291804	-263045.2	1	5298338	-2.845718	2.602874E-011	0.0006266	4
	42	294	18.60119	4946856	-335700.9	1	4958233	-3.882224	2.192105E-010	0.0006712	4
	43	297	15.02404	5347833	-361882.3	1	5360063	-3.871244	-1.658807E-010	0.0006403	4
	44	299	12.01923	5428158	-406103	1	5443328	-4.278564	-1.120808E-010	0.0006216	4
	45	302	9.450605	5522354	-525758.5	1	5547325	-5.438481	3.638612E-011	0.0007227	4
	46	304	7.512019	5637246	-602265.8	1	5669327	-6.098171	-1.623126E-010	0.0006404	4
	47	307	5.978954	5820267	-719845.4	1	5864614	-7.050486	-1.74624E-010	0.0007278	4
	48	312	4.734848	5994931	-844845.5	1	6054169	-8.021676	-4.008397E-011	0.0007371	4
	49	317	3.75601	6231193	-1035383	1	6316627	-9.434149	-1.579785E-010	0.0007067	4
	50	322	3.004808	6503872	-1208092	1	6615122	-10.52274	-1.287382E-010	0.0006989	4
	51	328	2.372217	6787476	-1458003	1	6942306	-12.12335	-1.673985E-010	0.0007188	4
	52	333	1.878005	7085143	-1740998	1	7295911	-13.80549	-2.016277E-010	0.0006553	4
	53	337	1.512097	7418291	-2037341	1	7692971	-15.35694	-1.717309E-010	0.0006314	4
	54	343	1.201923	7806745	-2428469	1	8175740	-17.27952	-1.310211E-010	0.0006472	4
	55	349	0.956633	8292943	-2873891	1	8776796	-19.11358	-1.807742E-010	3.210329E-005	4
