EXPLAIN
TAG	EISPOT
TITLE	LABEL	Potentiostatic EIS	Test Identifier
DATE	LABEL	2/27/2021	Date
TIME	LABEL	19:48:14	Time
NOTES	NOTES	1	Notes...
	
PSTAT	PSTAT	REF3000-16137	Potentiostat
VDC	POTEN	0.00000E+000	T	DC Voltage (V)
FREQINIT	QUANT	3.00000E+005	Initial Freq. (Hz)
FREQFINAL	QUANT	1.00000E+000	Final Freq. (Hz)
PTSPERDEC	QUANT	1.00000E+001	Points/decade
VAC	QUANT	5.00000E+001	AC Voltage (mV rms)
AREA	QUANT	1.00000E+000	Sample Area (cm^2)
SPEED	SELECTOR	2	Optimize for:
ZGUESS	QUANT	1.00000E+003	Estimated Z (ohms)
EOC	QUANT	0	Open Circuit (V)
SEQUENCER	TOGGLE	TRUE	Run as Sequence
PSTATMODEL	IQUANT	5	Pstat Model
PSTATSECTION	LABEL	REF3000-16137	Pstat Section
PSTATSERIALNO	LABEL	16137	Pstat Serial Number
CTRLMODE	IQUANT	1	Control Mode
IESTAB	IQUANT	0	I/E Stability
CASPEED	IQUANT	1	Control Amp Speed
CONVENTION	IQUANT	1	Current Convention
ICHRANGE	IQUANT	2	Ich Range
ICHRANGEMODE	TOGGLE	F	Ich Auto Range
ICHOFFSETENABLE	TOGGLE	T	Ich Offset Enable
ICHOFFSET	QUANT	0	Ich Offset (V)
ICHFILTER	IQUANT	3	Ich Filter
VCHRANGE	IQUANT	2	Vch Range
VCHRANGEMODE	TOGGLE	F	Vch Auto Range
VCHOFFSETENABLE	TOGGLE	T	Vch Offset Enable
VCHOFFSET	QUANT	0	Vch Offset (V)
VCHFILTER	IQUANT	3	Vch Filter
ACHRANGE	IQUANT	2	Ach Range
ACHOFFSETENABLE	TOGGLE	F	Ach Offset Enable
ACHOFFSET	QUANT	0	Ach Offset (V)
ACHFILTER	IQUANT	3	Ach Filter
IERANGELOWERLIMIT	IQUANT	2	I/E Range Lower Limit
IERANGEMODE	TOGGLE	F	I/E AutoRange
IERANGE	IQUANT	11	I/E Range
POSFEEDENABLE	TOGGLE	F	Positive Feedback IR Comp
POSFEEDRESISTANCE	QUANT	0	Positive Feedback Resistance (ohm)
ACHSELECT	IQUANT	0	Ach Select
CABLEID	IQUANT	13	Cable ID
DCCALDATE	LABEL	7/31/2020	DC Calibration Date
ACCALDATE	LABEL	7/31/2020	AC Calibration Date
THERMOSELECT	IQUANT	1	Thermo Select
FRAMEWORKVERSION	QUANT	6.33	Framework Version
INSTRUMENTVERSION	LABEL	3.50	Instrument Version
COMPLIANCEVOLTAGE	IQUANT	0	Compliance Voltage
ZCURVE	TABLE
	Pt	Time	Freq	Zreal	Zimag	Zsig	Zmod	Zphz	Idc	Vdc	IERange
	#	s	Hz	ohm	ohm	V	ohm	°	A	V	#
	0	18	300046.9	1710.081	-703.4136	1	1849.099	-22.35901	-2.078027E-005	0.0014074	9
	1	31	238359.4	1869.52	-658.8544	1	1982.219	-19.41343	2.410535E-005	0.0010113	9
	2	61	189328.1	2067.76	-621.8396	1	2159.24	-16.73767	7.713424E-005	-0.0015238	9
	3	69	150421.9	2066.67	-510.0099	1	2128.67	-13.8624	1.900385E-005	-0.0008239	9
	4	76	119484.4	2148.525	-374.656	1	2180.947	-9.89168	4.376452E-005	-0.0021337	8
	5	83	94921.88	2188.761	-322.2422	1	2212.355	-8.375251	2.318233E-005	-0.0047101	8
	6	87	75421.88	2213.322	-287.0985	1	2231.865	-7.39079	-1.059653E-006	0.0065994	8
	7	90	59859.37	2254.71	-259.3138	1	2269.573	-6.560754	-7.62251E-007	0.0064852	8
	8	97	47578.12	2294.184	-244.11	1	2307.135	-6.073637	-1.625022E-005	0.00981	8
	9	103	37828.12	2335.374	-239.1571	1	2347.588	-5.847068	2.282084E-005	-0.0078482	8
	10	108	30046.88	2361.21	-245.6655	1	2373.956	-5.939809	-1.814276E-006	-0.0040996	8
	11	113	23859.38	2407.895	-271.7598	1	2423.182	-6.439266	-1.133741E-006	0.000794	9
	12	118	18984.38	2440.974	-274.2336	1	2456.331	-6.41007	-1.026572E-006	0.0066215	8
	13	123	15046.87	2483.725	-306.7182	1	2502.592	-7.039884	-2.311229E-005	0.0086999	8
	14	128	11953.13	2533.346	-362.2295	1	2559.112	-8.137259	2.016003E-005	5.082032E-005	9
	15	134	9515.62	2576.245	-405.4348	1	2607.952	-8.943532	-9.402684E-006	-0.0013949	8
	16	139	7546.875	2648.621	-475.3165	1	2690.933	-10.1739	2.865645E-005	-0.0008441	9
	17	144	5928.309	2726.867	-556.3121	1	2783.035	-11.53076	-2.307692E-005	0.0004798	9
	18	150	4733.456	2769.463	-662.8445	1	2847.681	-13.46	2.307132E-005	-0.0079102	8
	19	155	3796.875	2859.048	-759.3106	1	2958.159	-14.87336	2.143414E-005	-0.0027249	8
	20	160	2987.132	2944.035	-907.1171	1	3080.617	-17.12513	1.881241E-005	-0.0009005	9
	21	166	2390.625	3062.482	-1068.159	1	3243.418	-19.22819	2.853214E-005	-0.0008338	9
	22	171	1884.191	3205.695	-1246.106	1	3439.37	-21.24192	1.873369E-005	-0.0009001	9
	23	176	1516.544	3320.583	-1480.678	1	3635.75	-24.03253	1.643259E-005	1.220926E-005	8
	24	182	1193.986	3438.507	-1701.032	1	3836.254	-26.32164	1.418608E-005	-0.0080628	8
	25	187	946.5144	3648.371	-2017.667	1	4169.123	-28.94401	-2.328029E-005	0.0087931	8
	26	191	751.7689	3742.633	-2407.198	1	4449.933	-32.74844	-2.148234E-005	0.0050652	8
	27	195	597.4265	4033.201	-2745.006	1	4878.706	-34.2393	1.636801E-005	0.0001233	8
	28	199	477.4305	4076.805	-3341.56	1	5271.277	-39.33981	-1.48353E-007	0.0006636	8
	29	201	376.6741	4268.069	-4032.608	1	5871.826	-43.37516	-5.300331E-008	0.0006522	7
	30	203	298.2954	4457.607	-4879.199	1	6608.846	-47.58536	-4.956742E-008	0.000666	7
	31	206	237.7717	4661.137	-5900.072	1	7519.112	-51.69078	-5.047053E-008	0.0006735	7
	32	208	189.0121	4893.806	-7181.195	1	8690.161	-55.72654	-4.496766E-008	0.0006236	7
	33	210	150.2404	5158.82	-8773.831	1	10178.09	-59.54541	-4.591327E-008	0.0006393	7
	34	213	119.1737	5472.991	-10768.07	1	12079.12	-63.05755	-4.553004E-008	0.000592	7
	35	215	95.0169	5829.261	-13190.89	1	14421.51	-66.15862	-4.601485E-008	0.0006413	7
	36	218	75.60484	6261.481	-16212.43	1	17379.56	-68.88271	-4.53607E-008	0.0005946	7
	37	220	54.50582	7039.656	-21830.96	1	22937.91	-72.12746	-5.208888E-008	0.0006385	7
	38	223	45.95588	7566.152	-25555.22	1	26651.76	-73.50752	-4.346689E-008	0.0006043	7
	39	225	37.20238	8333.492	-31036.95	1	32136.26	-74.97044	-4.82634E-008	0.0006187	7
	40	227	30.04808	9320.926	-37792.23	1	38924.7	-76.1453	-5.09557E-008	0.0006696	7
	41	230	23.91582	10654.48	-46716.38	1	47915.95	-77.15245	-4.941628E-009	0.0006317	6
	42	232	18.60119	12593.68	-58810.65	1	60143.94	-77.91325	-5.253934E-009	0.0006466	6
	43	235	15.02404	14746.72	-71680.05	1	73181.25	-78.37476	-5.643592E-009	0.0007052	6
	44	237	12.01923	17689.72	-88064.29	1	89823.41	-78.64199	-4.537428E-009	0.000632	6
	45	240	9.450605	21996.87	-109881.3	1	112061.4	-78.67973	-5.40601E-009	0.0007098	6
	46	242	7.512019	27503.36	-135552	1	138314.1	-78.53045	-5.447507E-009	0.0007197	6
	47	245	5.978954	35068.76	-166781.3	1	170428.3	-78.12552	-5.578547E-009	0.0006991	6
	48	250	4.734848	45881.28	-205749.5	1	210803.2	-77.42896	-4.385063E-009	0.0006598	6
	49	253	3.75601	60319.94	-252701.9	1	259801.3	-76.57471	-5.791947E-009	0.0007111	6
	50	258	3.004808	79417.47	-306790.5	1	316903.1	-75.48669	-5.874476E-009	0.0007108	6
	51	265	2.372217	107331.8	-374755.3	1	389822.6	-74.01802	-5.567518E-009	0.000757	6
	52	269	1.878005	143867.2	-453460.6	1	475735.6	-72.39758	-1.016961E-009	0.0006416	5
	53	274	1.512097	186753.3	-535109.7	1	566762	-70.76101	-8.152666E-010	0.0006604	5
	54	279	1.201923	245122.3	-634299.9	1	680015.7	-68.8712	-8.021095E-010	0.0006339	5
	55	285	0.956633	314158.3	-743092.8	1	806772.8	-67.08276	-8.961102E-010	-6.727689E-006	5
