EXPLAIN
TAG	EISPOT
TITLE	LABEL	Potentiostatic EIS	Test Identifier
DATE	LABEL	2/27/2021	Date
TIME	LABEL	19:14:26	Time
NOTES	NOTES	1	Notes...
	
PSTAT	PSTAT	REF3000-16137	Potentiostat
VDC	POTEN	0.00000E+000	T	DC Voltage (V)
FREQINIT	QUANT	3.00000E+005	Initial Freq. (Hz)
FREQFINAL	QUANT	1.00000E+000	Final Freq. (Hz)
PTSPERDEC	QUANT	1.00000E+001	Points/decade
VAC	QUANT	5.00000E+001	AC Voltage (mV rms)
AREA	QUANT	1.00000E+000	Sample Area (cm^2)
SPEED	SELECTOR	2	Optimize for:
ZGUESS	QUANT	1.00000E+003	Estimated Z (ohms)
EOC	QUANT	0	Open Circuit (V)
SEQUENCER	TOGGLE	TRUE	Run as Sequence
PSTATMODEL	IQUANT	5	Pstat Model
PSTATSECTION	LABEL	REF3000-16137	Pstat Section
PSTATSERIALNO	LABEL	16137	Pstat Serial Number
CTRLMODE	IQUANT	1	Control Mode
IESTAB	IQUANT	0	I/E Stability
CASPEED	IQUANT	1	Control Amp Speed
CONVENTION	IQUANT	1	Current Convention
ICHRANGE	IQUANT	2	Ich Range
ICHRANGEMODE	TOGGLE	F	Ich Auto Range
ICHOFFSETENABLE	TOGGLE	T	Ich Offset Enable
ICHOFFSET	QUANT	0	Ich Offset (V)
ICHFILTER	IQUANT	3	Ich Filter
VCHRANGE	IQUANT	2	Vch Range
VCHRANGEMODE	TOGGLE	F	Vch Auto Range
VCHOFFSETENABLE	TOGGLE	T	Vch Offset Enable
VCHOFFSET	QUANT	0	Vch Offset (V)
VCHFILTER	IQUANT	3	Vch Filter
ACHRANGE	IQUANT	2	Ach Range
ACHOFFSETENABLE	TOGGLE	F	Ach Offset Enable
ACHOFFSET	QUANT	0	Ach Offset (V)
ACHFILTER	IQUANT	3	Ach Filter
IERANGELOWERLIMIT	IQUANT	2	I/E Range Lower Limit
IERANGEMODE	TOGGLE	F	I/E AutoRange
IERANGE	IQUANT	11	I/E Range
POSFEEDENABLE	TOGGLE	F	Positive Feedback IR Comp
POSFEEDRESISTANCE	QUANT	0	Positive Feedback Resistance (ohm)
ACHSELECT	IQUANT	0	Ach Select
CABLEID	IQUANT	13	Cable ID
DCCALDATE	LABEL	7/31/2020	DC Calibration Date
ACCALDATE	LABEL	7/31/2020	AC Calibration Date
THERMOSELECT	IQUANT	1	Thermo Select
FRAMEWORKVERSION	QUANT	6.33	Framework Version
INSTRUMENTVERSION	LABEL	3.50	Instrument Version
COMPLIANCEVOLTAGE	IQUANT	0	Compliance Voltage
ZCURVE	TABLE
	Pt	Time	Freq	Zreal	Zimag	Zsig	Zmod	Zphz	Idc	Vdc	IERange
	#	s	Hz	ohm	ohm	V	ohm	°	A	V	#
	0	7	300046.9	101.3633	-9.291774	1	101.7883	-5.237554	-7.835998E-005	0.0026992	9
	1	10	238359.4	102.8558	-12.22241	1	103.5795	-6.776708	1.419444E-005	-0.0010221	9
	2	13	189328.1	104.4922	-15.30611	1	105.6073	-8.333474	4.701858E-005	-0.0005126	9
	3	16	150421.9	106.4018	-18.60932	1	108.0169	-9.9205	5.804529E-005	-0.0014748	9
	4	18	119484.4	108.864	-22.48999	1	111.1628	-11.67241	-2.644379E-006	0.0013261	9
	5	21	94921.88	111.5257	-26.59409	1	114.6527	-13.41211	2.473021E-005	-0.0004635	9
	6	23	75421.88	114.4567	-31.56807	1	118.7303	-15.41928	-1.668111E-005	0.0008923	9
	7	26	59859.37	117.943	-37.28426	1	123.6959	-17.54284	-9.402556E-006	1.353499E-006	9
	8	28	47578.12	121.713	-43.84248	1	129.3685	-19.80963	-1.901771E-005	0.0005149	9
	9	31	37828.12	126.0121	-51.38639	1	136.0868	-22.18511	-1.691148E-005	0.0004007	9
	10	33	30046.88	130.5955	-60.38778	1	143.8814	-24.81598	-1.731543E-005	0.0008244	9
	11	36	23859.38	135.5764	-70.88008	1	152.9867	-27.60082	1.964801E-005	-7.758664E-005	9
	12	38	18984.38	140.7822	-83.34568	1	163.6035	-30.62633	-1.453937E-005	0.000218	9
	13	41	15046.87	146.3223	-98.8816	1	176.6007	-34.05002	-2.131467E-006	-0.0002417	9
	14	43	11953.13	152.4471	-117.6705	1	192.5785	-37.66374	-2.013782E-005	0.0006817	9
	15	45	9515.62	158.5843	-141.0358	1	212.2264	-41.64806	2.178393E-005	-0.000275	9
	16	47	7546.875	165.7428	-169.9924	1	237.4197	-45.72519	-9.32807E-006	-2.474356E-005	9
	17	50	5928.309	174.6037	-207.4953	1	271.184	-49.91996	-1.487262E-005	0.0001985	9
	18	53	4733.456	183.6739	-251.6158	1	311.523	-53.8714	2.283836E-005	-0.0006678	9
	19	56	3796.875	194.2098	-303.1444	1	360.0194	-57.3543	-9.842E-006	0.0008301	9
	20	58	2987.132	207.1442	-373.8689	1	427.4186	-61.0111	1.32434E-005	-0.0006457	9
	21	61	2390.625	221.2186	-451.688	1	502.951	-63.90625	-5.632217E-006	0.0023466	8
	22	63	1884.191	239.466	-557.314	1	606.5829	-66.74783	-6.244232E-006	0.0023826	8
	23	65	1516.544	260.0356	-677.7401	1	725.9133	-69.00917	7.470941E-006	-0.000931	8
	24	68	1193.986	290.7918	-839.3815	1	888.3249	-70.89208	-3.571023E-006	0.0006524	8
	25	70	946.5144	328.3186	-1031.471	1	1082.463	-72.34366	-6.161924E-006	0.0019913	8
	26	73	751.7689	367.4472	-1273.048	1	1325.016	-73.89996	-6.328009E-006	0.0027246	8
	27	75	597.4265	427.5165	-1562.999	1	1620.413	-74.70245	6.415949E-006	-0.0017768	8
	28	78	477.4305	496.1239	-1910.943	1	1974.295	-75.44604	2.814071E-007	0.0006618	8
	29	80	376.6741	593.1099	-2360.737	1	2434.103	-75.89695	2.770929E-007	0.0006626	8
	30	82	298.2954	717.1364	-2901.775	1	2989.077	-76.11824	3.042965E-007	0.0006622	8
	31	85	237.7717	873.1157	-3540.123	1	3646.204	-76.1454	2.972436E-007	0.0006543	8
	32	87	189.0121	1078.668	-4327.4	1	4459.811	-76.00341	2.482514E-008	0.0006307	7
	33	89	150.2404	1331.833	-5265.866	1	5431.678	-75.80651	2.334372E-008	0.0006429	7
	34	92	119.1737	1648.628	-6402.716	1	6611.562	-75.56064	2.453779E-008	0.0006398	7
	35	94	95.0169	2023.115	-7732.478	1	7992.76	-75.33788	2.29267E-008	0.0006345	7
	36	97	75.60484	2471.878	-9340.149	1	9661.71	-75.17647	2.209483E-008	0.0006315	7
	37	99	54.50582	3239.406	-12230.17	1	12651.91	-75.16473	2.546187E-008	0.0006234	7
	38	102	45.95588	3708.808	-14089.14	1	14569.12	-75.25211	2.463647E-008	0.000633	7
	39	104	37.20238	4360.544	-16797.11	1	17353.88	-75.4472	2.190997E-008	0.0006385	7
	40	107	30.04808	5112.536	-20090.81	1	20731.1	-75.72289	2.329316E-008	0.0006403	7
	41	109	23.91582	6080.511	-24422.92	1	25168.47	-76.01945	2.300044E-008	0.0006394	7
	42	111	18.60119	7348.612	-30288.25	1	31166.97	-76.36227	2.41023E-008	0.0006447	7
	43	114	15.02404	8642.369	-36404.33	1	37416.12	-76.64523	2.352949E-008	0.0006444	7
	44	116	12.01923	10313.32	-44186.1	1	45373.73	-76.862	3.321976E-009	0.0006724	6
	45	118	9.450605	12566.97	-54469.28	1	55900.19	-77.00824	3.087262E-009	0.0006631	6
	46	121	7.512019	15161.17	-66557.54	1	68262.48	-77.16753	2.810166E-009	0.0006617	6
	47	124	5.978954	18458.19	-81191.51	1	83263.23	-77.19199	2.764124E-009	0.0006843	6
	48	128	4.734848	22628.92	-99651.3	1	102188.3	-77.20618	2.499592E-009	0.0006742	6
	49	132	3.75601	27769.41	-121749.5	1	124876.3	-77.15141	2.789753E-009	0.0006932	6
	50	137	3.004808	33946.34	-147841.8	1	151689	-77.06832	2.502228E-009	0.0007046	6
	51	144	2.372217	42213.79	-181221.4	1	186073.1	-76.88734	2.25195E-009	0.0007087	6
	52	148	1.878005	52909.06	-221799	1	228022.3	-76.58311	2.481692E-009	0.000661	6
	53	152	1.512097	64823.51	-267232.2	1	274982.1	-76.36491	2.22338E-009	0.0007822	6
	54	158	1.201923	80768.37	-325389.2	1	335263.6	-76.05974	2.48986E-009	0.0006638	6
	55	164	0.956633	100196.2	-395197.4	1	407701.2	-75.77332	1.702129E-009	3.745223E-005	6
