EXPLAIN
TAG	EISPOT
TITLE	LABEL	Potentiostatic EIS	Test Identifier
DATE	LABEL	2/27/2021	Date
TIME	LABEL	19:57:55	Time
NOTES	NOTES	1	Notes...
	
PSTAT	PSTAT	REF3000-16137	Potentiostat
VDC	POTEN	0.00000E+000	T	DC Voltage (V)
FREQINIT	QUANT	3.00000E+005	Initial Freq. (Hz)
FREQFINAL	QUANT	1.00000E+000	Final Freq. (Hz)
PTSPERDEC	QUANT	1.00000E+001	Points/decade
VAC	QUANT	5.00000E+001	AC Voltage (mV rms)
AREA	QUANT	1.00000E+000	Sample Area (cm^2)
SPEED	SELECTOR	2	Optimize for:
ZGUESS	QUANT	1.00000E+003	Estimated Z (ohms)
EOC	QUANT	0	Open Circuit (V)
SEQUENCER	TOGGLE	TRUE	Run as Sequence
PSTATMODEL	IQUANT	5	Pstat Model
PSTATSECTION	LABEL	REF3000-16137	Pstat Section
PSTATSERIALNO	LABEL	16137	Pstat Serial Number
CTRLMODE	IQUANT	1	Control Mode
IESTAB	IQUANT	0	I/E Stability
CASPEED	IQUANT	1	Control Amp Speed
CONVENTION	IQUANT	1	Current Convention
ICHRANGE	IQUANT	2	Ich Range
ICHRANGEMODE	TOGGLE	F	Ich Auto Range
ICHOFFSETENABLE	TOGGLE	T	Ich Offset Enable
ICHOFFSET	QUANT	0	Ich Offset (V)
ICHFILTER	IQUANT	3	Ich Filter
VCHRANGE	IQUANT	2	Vch Range
VCHRANGEMODE	TOGGLE	F	Vch Auto Range
VCHOFFSETENABLE	TOGGLE	T	Vch Offset Enable
VCHOFFSET	QUANT	0	Vch Offset (V)
VCHFILTER	IQUANT	3	Vch Filter
ACHRANGE	IQUANT	2	Ach Range
ACHOFFSETENABLE	TOGGLE	F	Ach Offset Enable
ACHOFFSET	QUANT	0	Ach Offset (V)
ACHFILTER	IQUANT	3	Ach Filter
IERANGELOWERLIMIT	IQUANT	2	I/E Range Lower Limit
IERANGEMODE	TOGGLE	F	I/E AutoRange
IERANGE	IQUANT	11	I/E Range
POSFEEDENABLE	TOGGLE	F	Positive Feedback IR Comp
POSFEEDRESISTANCE	QUANT	0	Positive Feedback Resistance (ohm)
ACHSELECT	IQUANT	0	Ach Select
CABLEID	IQUANT	13	Cable ID
DCCALDATE	LABEL	7/31/2020	DC Calibration Date
ACCALDATE	LABEL	7/31/2020	AC Calibration Date
THERMOSELECT	IQUANT	1	Thermo Select
FRAMEWORKVERSION	QUANT	6.33	Framework Version
INSTRUMENTVERSION	LABEL	3.50	Instrument Version
COMPLIANCEVOLTAGE	IQUANT	0	Compliance Voltage
ZCURVE	TABLE
	Pt	Time	Freq	Zreal	Zimag	Zsig	Zmod	Zphz	Idc	Vdc	IERange
	#	s	Hz	ohm	ohm	V	ohm	°	A	V	#
	0	14	300046.9	2268.269	-3272.333	1	3981.609	-55.27163	-1.770455E-005	0.0017402	9
	1	29	238359.4	2958.036	-3559.236	1	4627.974	-50.27046	2.006697E-005	-0.0008983	9
	2	44	189328.1	3776.048	-3217.104	1	4960.675	-40.43021	-2.056239E-005	0.0011944	9
	3	52	150421.9	4520.627	-3752.03	1	5874.845	-39.69199	1.993141E-005	-0.0019822	9
	4	63	119484.4	5465.603	-3397.404	1	6435.462	-31.86497	-2.985582E-005	-0.0057511	8
	5	71	94921.88	6116.751	-3132.684	1	6872.289	-27.11918	2.53556E-005	-0.0050224	8
	6	78	75421.88	6644.697	-2819.65	1	7218.201	-22.99374	-2.324717E-005	0.0106062	8
	7	86	59859.37	7241.819	-2520.725	1	7667.985	-19.19193	-2.51877E-005	0.0074005	8
	8	94	47578.12	7601.593	-2288.053	1	7938.477	-16.75161	-1.557881E-005	0.000823	8
	9	103	37828.12	7932.173	-1837.075	1	8142.126	-13.03969	-2.54549E-005	0.0093084	8
	10	112	30046.88	8381.252	-1710.563	1	8554.029	-11.5353	2.272814E-005	-0.0027362	8
	11	120	23859.38	8655.893	-1551.782	1	8793.891	-10.16372	1.536913E-005	-0.0087802	8
	12	125	18984.38	8845.035	-1322.113	1	8943.301	-8.501353	1.591622E-005	-0.0089578	8
	13	132	15046.87	9115.954	-1208.403	1	9195.697	-7.551055	2.535656E-005	-0.0009052	9
	14	138	11953.13	9298.041	-1127.501	1	9366.153	-6.914056	-9.586793E-006	-0.0018217	8
	15	145	9515.62	9510.11	-834.6295	1	9546.66	-5.015563	-2.145021E-006	0.0215889	7
	16	149	7546.875	9632.89	-901.5549	1	9674.99	-5.346811	-2.139535E-006	0.0217051	7
	17	153	5928.309	9777.02	-1023.29	1	9830.43	-5.97498	-5.19353E-007	-0.013722	7
	18	157	4733.456	9964.08	-1094.438	1	10024	-6.268147	-6.060641E-006	0.0099623	7
	19	162	3796.875	10084.65	-1177.255	1	10153.13	-6.65842	-2.71212E-006	-0.0063068	7
	20	165	2987.132	10337.1	-1384.408	1	10429.39	-7.628013	6.632915E-006	-0.0248902	7
	21	170	2390.625	10454.86	-1601.23	1	10576.77	-8.707558	7.2759E-006	-0.0221366	7
	22	173	1884.191	10726.58	-2015.646	1	10914.32	-10.64242	-2.065179E-006	0.0215655	7
	23	177	1516.544	10989.51	-2184.874	1	11204.6	-11.24461	2.208707E-006	0.0095523	7
	24	182	1193.986	11284.21	-2605.792	1	11581.17	-13.00302	-5.247721E-006	0.0250033	7
	25	186	946.5144	11710.79	-3156.658	1	12128.77	-15.08561	-1.997329E-006	0.0218553	7
	26	189	751.7689	11955.07	-3637.582	1	12496.23	-16.92349	-2.690536E-006	-0.0062527	7
	27	191	597.4265	12305.94	-4088.93	1	12967.48	-18.38025	-7.0035E-006	0.0218614	7
	28	194	477.4305	12757.7	-4995.643	1	13700.93	-21.38424	-6.118655E-008	0.0006507	7
	29	196	376.6741	13240.66	-5895.117	1	14493.71	-23.99998	-6.235064E-008	0.0006555	7
	30	199	298.2954	13768.03	-6943.419	1	15419.79	-26.76247	-6.007365E-008	0.0006648	7
	31	201	237.7717	14321.79	-8159.933	1	16483.27	-29.67261	-6.255176E-008	0.0006551	7
	32	203	189.0121	14911.17	-9632.52	1	17751.85	-32.86219	-5.939872E-008	0.0006701	7
	33	206	150.2404	15539.47	-11428.96	1	19289.79	-36.33373	-5.509127E-008	0.0005949	7
	34	208	119.1737	16192.56	-13680.32	1	21197.88	-40.19287	-5.332818E-008	0.0006273	7
	35	211	95.0169	16879.8	-16376.63	1	23518.54	-44.13317	-5.832892E-008	0.0006063	7
	36	213	75.60484	17637	-19763.65	1	26488.97	-48.25441	-5.935342E-008	0.0006636	7
	37	216	54.50582	18779.79	-26079.22	1	32137.31	-54.24214	-6.276764E-008	0.0006717	7
	38	218	45.95588	19575.9	-30257.09	1	36037.58	-57.09772	-6.186114E-008	0.0006828	7
	39	221	37.20238	20642.28	-36466.05	1	41903.18	-60.48717	-5.872086E-009	0.0006393	6
	40	223	30.04808	21797.79	-44077.91	1	49173.22	-63.68628	-6.979972E-009	0.0007278	6
	41	225	23.91582	23280.51	-54192.39	1	58981.34	-66.75212	-6.333594E-009	0.0006551	6
	42	228	18.60119	25239.52	-68122.71	1	72648.04	-69.67029	-7.08799E-009	0.000647	6
	43	230	15.02404	27123.13	-82615.45	1	86953.88	-71.82469	-6.759509E-009	0.0007292	6
	44	232	12.01923	29659.8	-101518.2	1	105762.2	-73.71362	-6.245113E-009	0.000637	6
	45	235	9.450605	33090.63	-126701.4	1	130951.2	-75.36299	-6.62501E-009	0.0006786	6
	46	238	7.512019	37238.22	-156827	1	161187.5	-76.64262	-6.463587E-009	0.0007105	6
	47	241	5.978954	42615.57	-193758.2	1	198389.3	-77.59575	-6.252847E-009	0.0006419	6
	48	245	4.734848	49838.68	-241058.5	1	246156.6	-78.31872	-6.655949E-009	0.00072	6
	49	248	3.75601	59066.95	-298749.6	1	304532.8	-78.81607	-6.614711E-009	0.0007246	6
	50	254	3.004808	70981.88	-367648.7	1	374438.3	-79.07236	-6.661655E-009	0.0007097	6
	51	260	2.372217	88055.09	-458240.1	1	466623.7	-79.12267	-7.227449E-010	0.0007223	5
	52	264	1.878005	111285.9	-568494.2	1	579284.2	-78.92409	-7.712442E-010	0.0006379	5
	53	269	1.512097	140361.4	-692330.3	1	706415.3	-78.53933	-7.778693E-010	0.000735	5
	54	274	1.201923	180894.7	-855241.3	1	874162.8	-78.05721	-7.285361E-010	0.0006276	5
	55	281	0.956633	236454.3	-1051003	1	1077273	-77.32072	-9.686585E-010	2.06589E-005	5
