EXPLAIN
TAG	EISPOT
TITLE	LABEL	Potentiostatic EIS	Test Identifier
DATE	LABEL	2/27/2021	Date
TIME	LABEL	18:43:03	Time
NOTES	NOTES	1	Notes...
	
PSTAT	PSTAT	REF3000-16137	Potentiostat
VDC	POTEN	0.00000E+000	T	DC Voltage (V)
FREQINIT	QUANT	3.00000E+005	Initial Freq. (Hz)
FREQFINAL	QUANT	1.00000E+000	Final Freq. (Hz)
PTSPERDEC	QUANT	1.00000E+001	Points/decade
VAC	QUANT	5.00000E+001	AC Voltage (mV rms)
AREA	QUANT	1.00000E+000	Sample Area (cm^2)
SPEED	SELECTOR	2	Optimize for:
ZGUESS	QUANT	1.00000E+003	Estimated Z (ohms)
EOC	QUANT	0	Open Circuit (V)
SEQUENCER	TOGGLE	TRUE	Run as Sequence
PSTATMODEL	IQUANT	5	Pstat Model
PSTATSECTION	LABEL	REF3000-16137	Pstat Section
PSTATSERIALNO	LABEL	16137	Pstat Serial Number
CTRLMODE	IQUANT	1	Control Mode
IESTAB	IQUANT	0	I/E Stability
CASPEED	IQUANT	1	Control Amp Speed
CONVENTION	IQUANT	1	Current Convention
ICHRANGE	IQUANT	2	Ich Range
ICHRANGEMODE	TOGGLE	F	Ich Auto Range
ICHOFFSETENABLE	TOGGLE	T	Ich Offset Enable
ICHOFFSET	QUANT	0	Ich Offset (V)
ICHFILTER	IQUANT	3	Ich Filter
VCHRANGE	IQUANT	2	Vch Range
VCHRANGEMODE	TOGGLE	F	Vch Auto Range
VCHOFFSETENABLE	TOGGLE	T	Vch Offset Enable
VCHOFFSET	QUANT	0	Vch Offset (V)
VCHFILTER	IQUANT	3	Vch Filter
ACHRANGE	IQUANT	2	Ach Range
ACHOFFSETENABLE	TOGGLE	F	Ach Offset Enable
ACHOFFSET	QUANT	0	Ach Offset (V)
ACHFILTER	IQUANT	3	Ach Filter
IERANGELOWERLIMIT	IQUANT	2	I/E Range Lower Limit
IERANGEMODE	TOGGLE	F	I/E AutoRange
IERANGE	IQUANT	11	I/E Range
POSFEEDENABLE	TOGGLE	F	Positive Feedback IR Comp
POSFEEDRESISTANCE	QUANT	0	Positive Feedback Resistance (ohm)
ACHSELECT	IQUANT	0	Ach Select
CABLEID	IQUANT	13	Cable ID
DCCALDATE	LABEL	7/31/2020	DC Calibration Date
ACCALDATE	LABEL	7/31/2020	AC Calibration Date
THERMOSELECT	IQUANT	1	Thermo Select
FRAMEWORKVERSION	QUANT	6.33	Framework Version
INSTRUMENTVERSION	LABEL	3.50	Instrument Version
COMPLIANCEVOLTAGE	IQUANT	0	Compliance Voltage
ZCURVE	TABLE
	Pt	Time	Freq	Zreal	Zimag	Zsig	Zmod	Zphz	Idc	Vdc	IERange
	#	s	Hz	ohm	ohm	V	ohm	°	A	V	#
	0	7	300046.9	36.08039	-5.174304	1	36.44952	-8.161167	1.310701E-005	-0.0002985	9
	1	10	238359.4	36.9318	-7.082647	1	37.60481	-10.85617	3.808191E-005	-0.0011828	9
	2	13	189328.1	37.77285	-8.975501	1	38.82458	-13.36661	-5.384595E-005	0.0012895	9
	3	15	150421.9	38.79875	-11.05483	1	40.34293	-15.90371	-5.039207E-005	0.0018053	9
	4	18	119484.4	39.81005	-13.39387	1	42.00281	-18.59523	1.439741E-005	-0.0003425	9
	5	21	94921.88	41.07349	-15.88219	1	44.03721	-21.14036	1.763404E-005	-0.0005083	9
	6	23	75421.88	42.28074	-18.96174	1	46.33798	-24.15491	-4.177149E-006	0.0005165	9
	7	26	59859.37	43.56875	-22.669	1	49.11333	-27.48815	2.616288E-006	-0.0002146	9
	8	28	47578.12	44.95405	-27.12299	1	52.50261	-31.10465	-1.058861E-005	0.0005764	9
	9	31	37828.12	46.4749	-32.51123	1	56.71769	-34.97448	-1.039981E-005	0.0005537	9
	10	33	30046.88	48.17443	-39.0638	1	62.02222	-39.03799	-9.173715E-006	0.0006266	9
	11	36	23859.38	50.16116	-47.18641	1	68.86726	-43.24969	-1.365006E-005	0.0005832	9
	12	38	18984.38	52.4136	-57.19583	1	77.5793	-47.49821	1.099262E-005	1.263597E-006	9
	13	40	15046.87	55.12921	-69.49662	1	88.70744	-51.57628	1.177936E-005	4.774721E-005	9
	14	43	11953.13	58.42733	-84.44394	1	102.6866	-55.32038	-1.205558E-005	0.0003078	9
	15	45	9515.62	62.01271	-102.9884	1	120.2172	-58.94646	-1.196051E-005	0.0002645	9
	16	47	7546.875	66.75132	-125.7507	1	142.3692	-62.03963	1.874715E-005	-0.0002303	9
	17	50	5928.309	72.71307	-154.8043	1	171.0309	-64.84011	-1.311472E-005	0.0004138	9
	18	52	4733.456	79.43531	-188.3711	1	204.4349	-67.13505	2.158652E-006	-0.0002039	9
	19	54	3796.875	87.45325	-227.9886	1	244.1861	-69.01388	-5.898662E-006	0.0005688	9
	20	57	2987.132	97.8126	-281.6985	1	298.1968	-70.85175	7.525343E-006	-0.000325	9
	21	59	2390.625	107.8457	-343.2881	1	359.8297	-72.55962	7.839436E-006	-0.0003354	9
	22	61	1884.191	124.6629	-422.4996	1	440.5074	-73.56075	1.823915E-005	-0.0004215	9
	23	63	1516.544	140.6935	-508.4481	1	527.5549	-74.53261	-2.449395E-006	0.0014831	8
	24	66	1193.986	163.3124	-627.5572	1	648.4589	-75.41316	-6.66093E-008	0.0004625	8
	25	68	946.5144	187.6005	-770.1113	1	792.6319	-76.3093	4.035748E-006	-0.0001766	8
	26	71	751.7689	221.2571	-943.5565	1	969.151	-76.80299	-1.096831E-006	0.0007517	8
	27	73	597.4265	255.3935	-1157.456	1	1185.297	-77.55702	9.266319E-007	0.0009817	8
	28	75	477.4305	300.3775	-1409.631	1	1441.279	-77.97079	5.270911E-007	0.0006641	8
	29	78	376.6741	355.2254	-1740.059	1	1775.948	-78.46186	5.426451E-007	0.0006603	8
	30	80	298.2954	420.4673	-2142.095	1	2182.971	-78.89472	5.383913E-007	0.0006626	8
	31	82	237.7717	496.1962	-2623.487	1	2669.999	-79.28981	5.313851E-007	0.0006641	8
	32	85	189.0121	588.301	-3223.95	1	3277.186	-79.65855	5.439554E-007	0.0006616	8
	33	87	150.2404	699.3946	-3964.524	1	4025.742	-79.99521	5.435319E-007	0.0006639	8
	34	89	119.1737	838.5213	-4897.948	1	4969.207	-80.28523	5.627934E-008	0.0006457	7
	35	92	95.0169	1001.883	-6014.927	1	6097.796	-80.54328	5.639328E-008	0.0006361	7
	36	94	75.60484	1203.273	-7403.788	1	7500.929	-80.76893	5.573744E-008	0.0006395	7
	37	97	54.50582	1579.581	-9970.2	1	10094.55	-80.99744	5.747566E-008	0.0006353	7
	38	99	45.95588	1823.722	-11657.37	1	11799.16	-81.10851	5.825489E-008	0.0006394	7
	39	102	37.20238	2199.06	-14146.89	1	14316.78	-81.16438	5.42491E-008	0.0006376	7
	40	104	30.04808	2660.084	-17190.44	1	17395.04	-81.2037	5.24948E-008	0.0006423	7
	41	106	23.91582	3260.227	-21165.87	1	21415.49	-81.24342	5.749391E-008	0.0006288	7
	42	109	18.60119	4148.258	-26578.47	1	26900.24	-81.12908	5.447662E-008	0.000634	7
	43	111	15.02404	5064.972	-32378.13	1	32771.9	-81.10917	5.643697E-008	0.0006321	7
	44	113	12.01923	6312.397	-39621.67	1	40121.35	-80.9479	5.608279E-008	0.0006371	7
	45	116	9.450605	8055.257	-49354.03	1	50007.07	-80.73028	7.210226E-009	0.0006772	6
	46	118	7.512019	10180.15	-60782.39	1	61629.01	-80.49206	7.012577E-009	0.0006755	6
	47	121	5.978954	12937.2	-74701.03	1	75813.03	-80.17461	7.668745E-009	0.0006807	6
	48	126	4.734848	16631.38	-92270.79	1	93757.67	-79.78241	7.119928E-009	0.0006684	6
	49	129	3.75601	21532.8	-113616.2	1	115638.7	-79.26846	7.474492E-009	0.0006932	6
	50	134	3.004808	27717.73	-138628	1	141371.8	-78.69319	7.442436E-009	0.0006583	6
	51	141	2.372217	36567.93	-171147.1	1	175010.2	-77.93932	6.897335E-009	0.0006023	6
	52	145	1.878005	48096.48	-210017.1	1	215454	-77.101	7.492687E-009	0.000685	6
	53	150	1.512097	62184.09	-252828.9	1	260363.8	-76.18219	7.069863E-009	0.0006775	6
	54	155	1.201923	82719.5	-308514.5	1	319411.5	-74.99077	7.268658E-009	0.0007028	6
	55	161	0.956633	109739.3	-373360.4	1	389153.8	-73.62071	6.376812E-009	3.557734E-005	6
