EXPLAIN
TAG	EISPOT
TITLE	LABEL	Potentiostatic EIS	Test Identifier
DATE	LABEL	2/27/2021	Date
TIME	LABEL	21:11:49	Time
NOTES	NOTES	1	Notes...
	
PSTAT	PSTAT	REF3000-16137	Potentiostat
VDC	POTEN	0.00000E+000	T	DC Voltage (V)
FREQINIT	QUANT	3.00000E+005	Initial Freq. (Hz)
FREQFINAL	QUANT	1.00000E+000	Final Freq. (Hz)
PTSPERDEC	QUANT	1.00000E+001	Points/decade
VAC	QUANT	5.00000E+001	AC Voltage (mV rms)
AREA	QUANT	1.00000E+000	Sample Area (cm^2)
SPEED	SELECTOR	2	Optimize for:
ZGUESS	QUANT	1.00000E+003	Estimated Z (ohms)
EOC	QUANT	0	Open Circuit (V)
SEQUENCER	TOGGLE	TRUE	Run as Sequence
PSTATMODEL	IQUANT	5	Pstat Model
PSTATSECTION	LABEL	REF3000-16137	Pstat Section
PSTATSERIALNO	LABEL	16137	Pstat Serial Number
CTRLMODE	IQUANT	1	Control Mode
IESTAB	IQUANT	0	I/E Stability
CASPEED	IQUANT	1	Control Amp Speed
CONVENTION	IQUANT	1	Current Convention
ICHRANGE	IQUANT	2	Ich Range
ICHRANGEMODE	TOGGLE	F	Ich Auto Range
ICHOFFSETENABLE	TOGGLE	T	Ich Offset Enable
ICHOFFSET	QUANT	0	Ich Offset (V)
ICHFILTER	IQUANT	3	Ich Filter
VCHRANGE	IQUANT	2	Vch Range
VCHRANGEMODE	TOGGLE	F	Vch Auto Range
VCHOFFSETENABLE	TOGGLE	T	Vch Offset Enable
VCHOFFSET	QUANT	0	Vch Offset (V)
VCHFILTER	IQUANT	3	Vch Filter
ACHRANGE	IQUANT	2	Ach Range
ACHOFFSETENABLE	TOGGLE	F	Ach Offset Enable
ACHOFFSET	QUANT	0	Ach Offset (V)
ACHFILTER	IQUANT	3	Ach Filter
IERANGELOWERLIMIT	IQUANT	2	I/E Range Lower Limit
IERANGEMODE	TOGGLE	F	I/E AutoRange
IERANGE	IQUANT	11	I/E Range
POSFEEDENABLE	TOGGLE	F	Positive Feedback IR Comp
POSFEEDRESISTANCE	QUANT	0	Positive Feedback Resistance (ohm)
ACHSELECT	IQUANT	0	Ach Select
CABLEID	IQUANT	13	Cable ID
DCCALDATE	LABEL	7/31/2020	DC Calibration Date
ACCALDATE	LABEL	7/31/2020	AC Calibration Date
THERMOSELECT	IQUANT	1	Thermo Select
FRAMEWORKVERSION	QUANT	6.33	Framework Version
INSTRUMENTVERSION	LABEL	3.50	Instrument Version
COMPLIANCEVOLTAGE	IQUANT	0	Compliance Voltage
ZCURVE	TABLE
	Pt	Time	Freq	Zreal	Zimag	Zsig	Zmod	Zphz	Idc	Vdc	IERange
	#	s	Hz	ohm	ohm	V	ohm	°	A	V	#
	0	14	300046.9	-43.14703	-4921.226	1	4921.415	-90.50233	2.891392E-005	-0.002033	9
	1	36	238359.4	55.44357	-5952.359	1	5952.617	-89.46633	1.974604E-005	-0.0008951	9
	2	51	189328.1	635.9923	-7606.325	1	7632.868	-85.22041	2.070113E-005	-0.0004009	9
	3	58	150421.9	403.4689	-8952.019	1	8961.106	-87.41942	2.393562E-005	0.001071	9
	4	66	119484.4	429.6533	-11533.44	1	11541.44	-87.86655	-2.810919E-005	-0.0009656	9
	5	77	94921.88	1292.352	-14643.96	1	14700.87	-84.95662	-2.600146E-005	0.0075371	8
	6	86	75421.88	2199.924	-17872.9	1	18007.78	-82.98293	-2.038103E-005	0.002862	8
	7	95	59859.37	4281.914	-22277.47	1	22685.25	-79.11996	8.336136E-006	0.0041523	8
	8	104	47578.12	11188.55	-26882.12	1	29117.55	-67.40254	-6.721876E-006	0.0118451	7
	9	110	37828.12	17187.9	-29425.93	1	34077.99	-59.71049	3.540696E-006	-0.0245406	7
	10	118	30046.88	24578.86	-28073.97	1	37313.11	-48.79773	7.594273E-006	-0.0238146	7
	11	125	23859.38	30101.46	-23197.86	1	38003.14	-37.61985	3.645162E-006	-0.0246339	7
	12	130	18984.38	32705.04	-17118.85	1	36914.43	-27.62898	6.497309E-006	-0.0095694	7
	13	136	15046.87	31746.36	-11358.55	1	33717.17	-19.68673	5.491982E-006	-0.0265707	7
	14	141	11953.13	29019.28	-7206.666	1	29900.75	-13.94672	2.522979E-007	0.0164925	7
	15	146	9515.62	24524.9	-4752.133	1	24981.06	-10.96617	2.32639E-005	-0.002771	8
	16	153	7546.875	21190.8	-2821.793	1	21377.85	-7.584955	2.506718E-005	-0.0002163	9
	17	159	5928.309	17837.74	-1482.965	1	17899.28	-4.752435	8.441943E-006	0.0040971	8
	18	165	4733.456	16408.55	-1569.431	1	16483.44	-5.463556	5.406634E-006	-0.0258906	7
	19	169	3796.875	14755.07	-1556.339	1	14836.92	-6.021197	2.355148E-006	0.0093127	7
	20	173	2987.132	13261.91	-1561.027	1	13353.47	-6.713254	-5.306404E-006	0.0254007	7
	21	178	2390.625	12071.2	-1750.156	1	12197.41	-8.249605	7.006235E-006	-0.0162375	7
	22	182	1884.191	11087.25	-1920.783	1	11252.4	-9.82851	-2.072402E-006	0.0216211	7
	23	186	1516.544	10131.81	-2108.761	1	10348.93	-11.75727	-3.890701E-006	0.0242993	7
	24	190	1193.986	9437.088	-2442.506	1	9748.05	-14.51087	1.729206E-006	-0.0195418	7
	25	195	946.5144	8867.976	-2774.387	1	9291.836	-17.37254	7.205747E-006	-0.0215644	7
	26	197	751.7689	8639.493	-3242.444	1	9227.908	-20.57136	-3.393213E-007	-0.0138883	7
	27	200	597.4265	8422.04	-3659.137	1	9182.595	-23.48358	-2.50524E-006	-0.0067532	7
	28	203	477.4305	8364.57	-4271.41	1	9392.07	-27.05136	-5.6898E-008	0.000669	7
	29	205	376.6741	8298.028	-4963.876	1	9669.4	-30.88784	-5.834194E-008	0.0006349	7
	30	207	298.2954	8237.785	-5788.971	1	10068.43	-35.09701	-5.782279E-008	0.0006174	7
	31	210	237.7717	8159.244	-6772.085	1	10603.51	-39.69231	-5.950813E-008	0.0006756	7
	32	212	189.0121	8102.538	-8017.59	1	11398.81	-44.69807	-5.916432E-008	0.0006619	7
	33	214	150.2404	8068.484	-9580.49	1	12525.42	-49.89662	-5.687258E-008	0.0006822	7
	34	217	119.1737	8086.132	-11552.03	1	14100.88	-55.00894	-4.840318E-008	0.0006128	7
	35	219	95.0169	8131.954	-13951.49	1	16148.46	-59.76322	-5.254131E-008	0.0006625	7
	36	222	75.60484	8249.644	-16951.25	1	18852.1	-64.04926	-5.477668E-008	0.0006819	7
	37	224	54.50582	8731.629	-22590.21	1	24218.97	-68.86735	-5.221193E-008	0.0006584	7
	38	227	45.95588	8923.45	-26224.22	1	27700.86	-71.20784	-4.71369E-008	0.0006311	7
	39	229	37.20238	9409.508	-31629.22	1	32999.19	-73.43257	-4.893705E-008	0.0006096	7
	40	232	30.04808	10092.26	-38278.38	1	39586.46	-75.22984	-4.518875E-008	0.0006048	7
	41	234	23.91582	11189.83	-47025.27	1	48338.27	-76.61518	-5.449814E-009	0.000637	6
	42	237	18.60119	12759.22	-58883.68	1	60250.2	-77.77386	-4.970678E-009	0.0006935	6
	43	239	15.02404	14774.09	-71358.55	1	72871.92	-78.30273	-5.937256E-009	0.0006976	6
	44	241	12.01923	17621.06	-87118.55	1	88882.75	-78.56532	-4.029994E-009	0.0006566	6
	45	244	9.450605	21944.9	-107849	1	110059	-78.49858	-3.562391E-009	0.0006421	6
	46	247	7.512019	27969.51	-131999.5	1	134930.2	-78.03649	-3.971196E-009	0.0006532	6
	47	250	5.978954	36500.06	-160163	1	164269.4	-77.16193	-4.547879E-009	0.0006672	6
	48	254	4.734848	49205.27	-193952.9	1	200097.2	-75.76456	-5.476841E-009	0.0006415	6
	49	257	3.75601	67324.61	-231622.5	1	241208.6	-73.79269	-4.0882E-009	0.0006577	6
	50	263	3.004808	91173.05	-268242.6	1	283313.7	-71.22761	-3.773961E-009	0.0006136	6
	51	269	2.372217	122369.7	-308522.5	1	331904.3	-68.36516	-4.495879E-009	0.0006046	6
	52	273	1.878005	155946.1	-347786.3	1	381149	-65.84871	-3.957508E-009	0.0006876	6
	53	278	1.512097	186039.9	-380360	1	423420.1	-63.93604	-1.884597E-010	0.0005909	5
	54	283	1.201923	211702.1	-417221.3	1	467858.3	-63.09632	-2.85132E-010	0.0006871	5
	55	290	0.956633	228128.3	-461871.7	1	515138.8	-63.71425	-3.690085E-010	2.114836E-005	5
