EXPLAIN
TAG	EISPOT
TITLE	LABEL	Potentiostatic EIS	Test Identifier
DATE	LABEL	2/27/2021	Date
TIME	LABEL	19:08:43	Time
NOTES	NOTES	1	Notes...
	
PSTAT	PSTAT	REF3000-16137	Potentiostat
VDC	POTEN	0.00000E+000	T	DC Voltage (V)
FREQINIT	QUANT	3.00000E+005	Initial Freq. (Hz)
FREQFINAL	QUANT	1.00000E+000	Final Freq. (Hz)
PTSPERDEC	QUANT	1.00000E+001	Points/decade
VAC	QUANT	5.00000E+001	AC Voltage (mV rms)
AREA	QUANT	1.00000E+000	Sample Area (cm^2)
SPEED	SELECTOR	2	Optimize for:
ZGUESS	QUANT	1.00000E+003	Estimated Z (ohms)
EOC	QUANT	0	Open Circuit (V)
SEQUENCER	TOGGLE	TRUE	Run as Sequence
PSTATMODEL	IQUANT	5	Pstat Model
PSTATSECTION	LABEL	REF3000-16137	Pstat Section
PSTATSERIALNO	LABEL	16137	Pstat Serial Number
CTRLMODE	IQUANT	1	Control Mode
IESTAB	IQUANT	0	I/E Stability
CASPEED	IQUANT	1	Control Amp Speed
CONVENTION	IQUANT	1	Current Convention
ICHRANGE	IQUANT	2	Ich Range
ICHRANGEMODE	TOGGLE	F	Ich Auto Range
ICHOFFSETENABLE	TOGGLE	T	Ich Offset Enable
ICHOFFSET	QUANT	0	Ich Offset (V)
ICHFILTER	IQUANT	3	Ich Filter
VCHRANGE	IQUANT	2	Vch Range
VCHRANGEMODE	TOGGLE	F	Vch Auto Range
VCHOFFSETENABLE	TOGGLE	T	Vch Offset Enable
VCHOFFSET	QUANT	0	Vch Offset (V)
VCHFILTER	IQUANT	3	Vch Filter
ACHRANGE	IQUANT	2	Ach Range
ACHOFFSETENABLE	TOGGLE	F	Ach Offset Enable
ACHOFFSET	QUANT	0	Ach Offset (V)
ACHFILTER	IQUANT	3	Ach Filter
IERANGELOWERLIMIT	IQUANT	2	I/E Range Lower Limit
IERANGEMODE	TOGGLE	F	I/E AutoRange
IERANGE	IQUANT	11	I/E Range
POSFEEDENABLE	TOGGLE	F	Positive Feedback IR Comp
POSFEEDRESISTANCE	QUANT	0	Positive Feedback Resistance (ohm)
ACHSELECT	IQUANT	0	Ach Select
CABLEID	IQUANT	13	Cable ID
DCCALDATE	LABEL	7/31/2020	DC Calibration Date
ACCALDATE	LABEL	7/31/2020	AC Calibration Date
THERMOSELECT	IQUANT	1	Thermo Select
FRAMEWORKVERSION	QUANT	6.33	Framework Version
INSTRUMENTVERSION	LABEL	3.50	Instrument Version
COMPLIANCEVOLTAGE	IQUANT	0	Compliance Voltage
ZCURVE	TABLE
	Pt	Time	Freq	Zreal	Zimag	Zsig	Zmod	Zphz	Idc	Vdc	IERange
	#	s	Hz	ohm	ohm	V	ohm	°	A	V	#
	0	7	300046.9	58.97203	-7.296127	1	59.42166	-7.052898	-3.152402E-005	-0.0003787	9
	1	10	238359.4	59.89796	-9.77876	1	60.69093	-9.272138	4.627283E-005	-0.0008865	9
	2	14	189328.1	61.0603	-12.33397	1	62.29356	-11.41989	-6.386517E-006	0.0005841	9
	3	16	150421.9	62.42855	-15.08668	1	64.22563	-13.5858	5.696455E-005	-0.0015659	9
	4	19	119484.4	64.00396	-18.10964	1	66.51666	-15.79863	2.893289E-005	6.848788E-005	9
	5	21	94921.88	65.76464	-21.31019	1	69.13113	-17.95425	-3.743055E-006	0.00052	9
	6	24	75421.88	67.55871	-25.24686	1	72.122	-20.49084	9.886811E-006	-0.0005074	9
	7	26	59859.37	69.46853	-29.97146	1	75.65821	-23.33727	2.099822E-005	-0.0005425	9
	8	29	47578.12	71.48141	-35.54374	1	79.83076	-26.43861	-1.434348E-005	0.0002549	9
	9	31	37828.12	73.61231	-42.179	1	84.84009	-29.81221	-2.544245E-006	0.0005919	9
	10	34	30046.88	75.90009	-50.42092	1	91.1213	-33.59634	2.091717E-005	-0.0002377	9
	11	36	23859.38	78.37409	-60.59504	1	99.0669	-37.70945	2.035288E-005	-0.0005736	9
	12	39	18984.38	81.04946	-73.05943	1	109.1178	-42.03206	2.088908E-005	-0.0003431	9
	13	41	15046.87	84.19123	-88.92122	1	122.4547	-46.56512	-1.449773E-005	0.0002573	9
	14	43	11953.13	87.77396	-108.1045	1	139.251	-50.92559	2.032022E-005	-0.0002826	9
	15	46	9515.62	92.20509	-131.541	1	160.6388	-54.97106	-1.683308E-005	0.0005285	9
	16	48	7546.875	96.7517	-161.7184	1	188.4509	-59.10906	2.254309E-005	-0.0004184	9
	17	50	5928.309	103.1409	-199.9678	1	225.0004	-62.71589	2.099673E-005	-0.0002846	9
	18	53	4733.456	110.688	-243.9683	1	267.9036	-65.59628	-1.766013E-005	0.0006282	9
	19	55	3796.875	118.7609	-297.5329	1	320.3591	-68.24049	4.621876E-006	0.0003842	9
	20	57	2987.132	129.8214	-369.2923	1	391.4465	-70.63133	1.818635E-005	-0.0001483	9
	21	60	2390.625	141.5342	-448.9221	1	470.7048	-72.50121	-7.684663E-007	0.0002735	8
	22	62	1884.191	159.076	-555.6505	1	577.9729	-74.02422	5.298341E-006	-0.0006102	8
	23	64	1516.544	176.6347	-676.6873	1	699.3608	-75.3706	2.582333E-006	0.0007029	8
	24	67	1193.986	201.6511	-840.0865	1	863.9494	-76.50231	2.299439E-006	-0.0005425	8
	25	69	946.5144	234.5898	-1036.391	1	1062.609	-77.24586	2.3856E-006	-0.0005639	8
	26	71	751.7689	267.4267	-1280.062	1	1307.698	-78.19966	2.57917E-006	0.0007149	8
	27	74	597.4265	311.6938	-1572.841	1	1603.428	-78.79079	5.031653E-006	-0.0004087	8
	28	76	477.4305	365.799	-1927.384	1	1961.789	-79.25362	4.325843E-007	0.0006597	8
	29	78	376.6741	435.8168	-2388.881	1	2428.31	-79.66092	4.32905E-007	0.0006604	8
	30	81	298.2954	520.7637	-2951.192	1	2996.786	-79.99268	4.331907E-007	0.0006667	8
	31	83	237.7717	621.1085	-3623.445	1	3676.292	-80.27324	4.372492E-007	0.0006566	8
	32	85	189.0121	748.1528	-4468.876	1	4531.069	-80.49602	4.199764E-008	0.0006361	7
	33	88	150.2404	897.231	-5501.823	1	5574.502	-80.7378	4.302086E-008	0.0006299	7
	34	90	119.1737	1081.092	-6783.56	1	6869.166	-80.94495	4.186069E-008	0.000636	7
	35	93	95.0169	1304.729	-8281.378	1	8383.527	-81.04666	4.149553E-008	0.0006401	7
	36	95	75.60484	1565.103	-10123.11	1	10243.38	-81.21126	4.302378E-008	0.000631	7
	37	98	54.50582	2033.539	-13527.78	1	13679.77	-81.45113	4.445281E-008	0.0006315	7
	38	100	45.95588	2339.591	-15733.45	1	15906.45	-81.542	4.390512E-008	0.000639	7
	39	103	37.20238	2789.709	-19008.36	1	19211.98	-81.65075	4.087162E-008	0.0006365	7
	40	105	30.04808	3311.352	-22990.15	1	23227.4	-81.80386	4.260508E-008	0.0006404	7
	41	107	23.91582	4036.219	-28245.12	1	28532.05	-81.86751	4.416997E-008	0.0006332	7
	42	110	18.60119	5007.709	-35465.14	1	35816.94	-81.96291	4.172678E-008	0.0006341	7
	43	112	15.02404	6109.716	-42920.32	1	43353	-81.89836	5.040019E-009	0.0006754	6
	44	114	12.01923	7438.015	-51897.81	1	52428.11	-81.84389	4.801503E-009	0.0006848	6
	45	117	9.450605	9317.549	-63541.16	1	64220.68	-81.65771	4.216198E-009	0.0006825	6
	46	119	7.512019	11592.91	-77634.55	1	78495.34	-81.50697	5.113277E-009	0.0006743	6
	47	122	5.978954	14369.47	-94325.81	1	95414	-81.33823	5.04507E-009	0.0006763	6
	48	127	4.734848	18512.77	-114478.6	1	115965.9	-80.81401	1.352775E-008	0.0006738	6
	49	130	3.75601	23272.56	-138916.7	1	140852.7	-80.48962	1.023981E-008	0.0006651	6
	50	135	3.004808	31179.68	-163796.3	1	166737.5	-79.22232	3.374357E-009	0.0006592	6
	51	142	2.372217	41589.33	-193461.7	1	197881.5	-77.86752	3.672025E-009	0.0006589	6
	52	146	1.878005	53724.51	-233006	1	239119.5	-77.01615	3.624213E-009	0.0006762	6
	53	151	1.512097	66992.95	-277614.5	1	285583.3	-76.43297	4.072003E-009	0.0005857	6
	54	156	1.201923	84324.02	-333936.9	1	344418.9	-75.82822	3.886014E-009	0.00068	6
	55	162	0.956633	105961.5	-400601.6	1	414378.5	-75.18423	3.548355E-009	3.634477E-005	6
