EXPLAIN
TAG	EISPOT
TITLE	LABEL	Potentiostatic EIS	Test Identifier
DATE	LABEL	2/27/2021	Date
TIME	LABEL	18:54:28	Time
NOTES	NOTES	1	Notes...
	
PSTAT	PSTAT	REF3000-16137	Potentiostat
VDC	POTEN	0.00000E+000	T	DC Voltage (V)
FREQINIT	QUANT	3.00000E+005	Initial Freq. (Hz)
FREQFINAL	QUANT	1.00000E+000	Final Freq. (Hz)
PTSPERDEC	QUANT	1.00000E+001	Points/decade
VAC	QUANT	5.00000E+001	AC Voltage (mV rms)
AREA	QUANT	1.00000E+000	Sample Area (cm^2)
SPEED	SELECTOR	2	Optimize for:
ZGUESS	QUANT	1.00000E+003	Estimated Z (ohms)
EOC	QUANT	0	Open Circuit (V)
SEQUENCER	TOGGLE	TRUE	Run as Sequence
PSTATMODEL	IQUANT	5	Pstat Model
PSTATSECTION	LABEL	REF3000-16137	Pstat Section
PSTATSERIALNO	LABEL	16137	Pstat Serial Number
CTRLMODE	IQUANT	1	Control Mode
IESTAB	IQUANT	0	I/E Stability
CASPEED	IQUANT	1	Control Amp Speed
CONVENTION	IQUANT	1	Current Convention
ICHRANGE	IQUANT	2	Ich Range
ICHRANGEMODE	TOGGLE	F	Ich Auto Range
ICHOFFSETENABLE	TOGGLE	T	Ich Offset Enable
ICHOFFSET	QUANT	0	Ich Offset (V)
ICHFILTER	IQUANT	3	Ich Filter
VCHRANGE	IQUANT	2	Vch Range
VCHRANGEMODE	TOGGLE	F	Vch Auto Range
VCHOFFSETENABLE	TOGGLE	T	Vch Offset Enable
VCHOFFSET	QUANT	0	Vch Offset (V)
VCHFILTER	IQUANT	3	Vch Filter
ACHRANGE	IQUANT	2	Ach Range
ACHOFFSETENABLE	TOGGLE	F	Ach Offset Enable
ACHOFFSET	QUANT	0	Ach Offset (V)
ACHFILTER	IQUANT	3	Ach Filter
IERANGELOWERLIMIT	IQUANT	2	I/E Range Lower Limit
IERANGEMODE	TOGGLE	F	I/E AutoRange
IERANGE	IQUANT	11	I/E Range
POSFEEDENABLE	TOGGLE	F	Positive Feedback IR Comp
POSFEEDRESISTANCE	QUANT	0	Positive Feedback Resistance (ohm)
ACHSELECT	IQUANT	0	Ach Select
CABLEID	IQUANT	13	Cable ID
DCCALDATE	LABEL	7/31/2020	DC Calibration Date
ACCALDATE	LABEL	7/31/2020	AC Calibration Date
THERMOSELECT	IQUANT	1	Thermo Select
FRAMEWORKVERSION	QUANT	6.33	Framework Version
INSTRUMENTVERSION	LABEL	3.50	Instrument Version
COMPLIANCEVOLTAGE	IQUANT	0	Compliance Voltage
ZCURVE	TABLE
	Pt	Time	Freq	Zreal	Zimag	Zsig	Zmod	Zphz	Idc	Vdc	IERange
	#	s	Hz	ohm	ohm	V	ohm	°	A	V	#
	0	7	300046.9	42.99751	-5.934791	1	43.40516	-7.858674	-3.921571E-006	6.986217E-005	9
	1	10	238359.4	43.92008	-8.036862	1	44.64935	-10.36973	-3.972935E-005	0.0004367	9
	2	13	189328.1	44.92285	-10.24317	1	46.07586	-12.8448	6.417664E-006	-0.0009925	9
	3	15	150421.9	46.00172	-12.58081	1	47.69104	-15.29556	-5.808621E-005	0.0019446	9
	4	18	119484.4	47.3146	-15.11075	1	49.66897	-17.7118	-1.443397E-006	-0.0006772	9
	5	21	94921.88	48.68758	-17.93526	1	51.88597	-20.22251	-1.535854E-005	0.0003985	9
	6	23	75421.88	50.1419	-21.33208	1	54.49099	-23.04656	1.684569E-005	-0.0002602	9
	7	26	59859.37	51.594	-25.40596	1	57.51003	-26.21659	1.08299E-005	1.767725E-005	9
	8	28	47578.12	53.13976	-30.23187	1	61.13754	-29.63609	-1.084521E-005	0.0006692	9
	9	31	37828.12	54.83466	-36.2325	1	65.72392	-33.4551	-7.55185E-006	0.0005666	9
	10	33	30046.88	56.71329	-43.45134	1	71.4452	-37.45782	-1.185072E-005	0.0007234	9
	11	36	23859.38	58.84592	-52.44712	1	78.82603	-41.7094	-3.037956E-006	-3.139999E-005	9
	12	38	18984.38	61.1465	-63.50749	1	88.15949	-46.08508	1.219651E-005	8.928586E-005	9
	13	40	15046.87	64.06124	-77.27076	1	100.3724	-50.33961	-1.382528E-005	0.0006718	9
	14	43	11953.13	67.44276	-94.14482	1	115.8092	-54.38323	1.332189E-005	-0.0004592	9
	15	45	9515.62	71.07179	-114.8702	1	135.0791	-58.25434	2.279034E-006	-0.0002307	9
	16	47	7546.875	75.81493	-140.5966	1	159.7351	-61.66479	1.147469E-005	5.250505E-005	9
	17	50	5928.309	82.12637	-174.1431	1	192.5371	-64.7513	-1.521876E-005	0.0005735	9
	18	52	4733.456	88.86628	-211.885	1	229.7661	-67.24643	1.671559E-005	-0.0001483	9
	19	54	3796.875	98.1838	-256.7887	1	274.919	-69.07552	-4.129977E-006	-2.915773E-005	9
	20	57	2987.132	108.1474	-318.4689	1	336.3307	-71.24326	-1.541949E-005	0.0004895	9
	21	59	2390.625	122.2953	-387.6064	1	406.4417	-72.48878	-1.2359E-005	0.0003674	9
	22	61	1884.191	135.9516	-477.5208	1	496.4967	-74.10819	-3.044885E-007	0.0004037	8
	23	64	1516.544	153.1511	-580.4095	1	600.2753	-75.21844	3.337811E-006	0.0002306	8
	24	66	1193.986	176.8353	-717.822	1	739.2828	-76.16077	4.079273E-006	-0.00015	8
	25	68	946.5144	205.5619	-883.3771	1	906.9789	-76.90039	3.305784E-006	0.0001902	8
	26	71	751.7689	240.7932	-1086.243	1	1112.612	-77.50105	4.198829E-006	-0.0001762	8
	27	73	597.4265	285.3667	-1330.431	1	1360.692	-77.89395	-1.376113E-006	0.0007563	8
	28	75	477.4305	333.3612	-1625.943	1	1659.765	-78.41342	4.887694E-007	0.0006705	8
	29	78	376.6741	397.9457	-2008.426	1	2047.471	-78.79269	4.861824E-007	0.0006583	8
	30	80	298.2954	474.81	-2472.912	1	2518.083	-79.13123	4.865205E-007	0.0006619	8
	31	82	237.7717	564.7546	-3028.353	1	3080.563	-79.43631	4.940388E-007	0.0006803	8
	32	85	189.0121	673.2393	-3718.981	1	3779.428	-79.73899	4.904567E-007	0.0006627	8
	33	87	150.2404	807.064	-4578.61	1	4649.196	-80.00326	5.041659E-008	0.000635	7
	34	90	119.1737	966.687	-5641.578	1	5723.8	-80.27677	5.083075E-008	0.0006313	7
	35	92	95.0169	1152.612	-6923.272	1	7018.562	-80.54787	5.049635E-008	0.0006368	7
	36	95	75.60484	1382.191	-8518.269	1	8629.679	-80.7834	5.049743E-008	0.000634	7
	37	97	54.50582	1793.813	-11463.36	1	11602.87	-81.10635	5.228221E-008	0.0006318	7
	38	100	45.95588	2073.352	-13409.25	1	13568.59	-81.21047	5.257422E-008	0.0006358	7
	39	102	37.20238	2477.592	-16266.11	1	16453.72	-81.33949	4.905455E-008	0.000638	7
	40	104	30.04808	2960.507	-19737.2	1	19958	-81.46944	4.907278E-008	0.0006351	7
	41	107	23.91582	3623.281	-24368.84	1	24636.73	-81.54294	5.350626E-008	0.0006384	7
	42	109	18.60119	4513.578	-30681.09	1	31011.31	-81.63109	4.848913E-008	0.0006425	7
	43	111	15.02404	5506.832	-37314.23	1	37718.39	-81.60489	5.135345E-008	0.0006395	7
	44	114	12.01923	6813.079	-45768.35	1	46272.67	-81.53312	6.799882E-009	0.0006811	6
	45	116	9.450605	8595.713	-57083.15	1	57726.7	-81.43661	6.412967E-009	0.0006942	6
	46	119	7.512019	10775.49	-70432.67	1	71252.17	-81.30177	6.561505E-009	0.0007014	6
	47	122	5.978954	13608.82	-86836.09	1	87895.99	-81.09314	6.207737E-009	0.0006832	6
	48	126	4.734848	17373.26	-107451.3	1	108846.7	-80.81562	7.060343E-009	0.0007097	6
	49	129	3.75601	22425.5	-132812.9	1	134692.9	-80.41599	6.198552E-009	0.0006826	6
	50	135	3.004808	28779.94	-162593.6	1	165121.1	-79.96231	6.300599E-009	0.0007251	6
	51	141	2.372217	37933.19	-201440	1	204980.5	-79.33551	6.07977E-009	0.000753	6
	52	146	1.878005	49841.36	-248376.6	1	253328.1	-78.65324	5.742852E-009	0.0006516	6
	53	150	1.512097	64807.44	-300384.1	1	307295.6	-77.82513	6.082913E-009	0.0007151	6
	54	156	1.201923	86006.84	-368207.7	1	378119.1	-76.85245	5.977797E-009	0.0006461	6
	55	162	0.956633	114661.9	-448466.2	1	462892.3	-75.6581	5.280552E-010	2.203883E-005	5
