EXPLAIN
TAG	EISPOT
TITLE	LABEL	Potentiostatic EIS	Test Identifier
DATE	LABEL	2/27/2021	Date
TIME	LABEL	21:05:50	Time
NOTES	NOTES	1	Notes...
	
PSTAT	PSTAT	REF3000-16137	Potentiostat
VDC	POTEN	0.00000E+000	T	DC Voltage (V)
FREQINIT	QUANT	3.00000E+005	Initial Freq. (Hz)
FREQFINAL	QUANT	1.00000E+000	Final Freq. (Hz)
PTSPERDEC	QUANT	1.00000E+001	Points/decade
VAC	QUANT	5.00000E+001	AC Voltage (mV rms)
AREA	QUANT	1.00000E+000	Sample Area (cm^2)
SPEED	SELECTOR	2	Optimize for:
ZGUESS	QUANT	1.00000E+003	Estimated Z (ohms)
EOC	QUANT	0	Open Circuit (V)
SEQUENCER	TOGGLE	TRUE	Run as Sequence
PSTATMODEL	IQUANT	5	Pstat Model
PSTATSECTION	LABEL	REF3000-16137	Pstat Section
PSTATSERIALNO	LABEL	16137	Pstat Serial Number
CTRLMODE	IQUANT	1	Control Mode
IESTAB	IQUANT	0	I/E Stability
CASPEED	IQUANT	1	Control Amp Speed
CONVENTION	IQUANT	1	Current Convention
ICHRANGE	IQUANT	2	Ich Range
ICHRANGEMODE	TOGGLE	F	Ich Auto Range
ICHOFFSETENABLE	TOGGLE	T	Ich Offset Enable
ICHOFFSET	QUANT	0	Ich Offset (V)
ICHFILTER	IQUANT	3	Ich Filter
VCHRANGE	IQUANT	2	Vch Range
VCHRANGEMODE	TOGGLE	F	Vch Auto Range
VCHOFFSETENABLE	TOGGLE	T	Vch Offset Enable
VCHOFFSET	QUANT	0	Vch Offset (V)
VCHFILTER	IQUANT	3	Vch Filter
ACHRANGE	IQUANT	2	Ach Range
ACHOFFSETENABLE	TOGGLE	F	Ach Offset Enable
ACHOFFSET	QUANT	0	Ach Offset (V)
ACHFILTER	IQUANT	3	Ach Filter
IERANGELOWERLIMIT	IQUANT	2	I/E Range Lower Limit
IERANGEMODE	TOGGLE	F	I/E AutoRange
IERANGE	IQUANT	11	I/E Range
POSFEEDENABLE	TOGGLE	F	Positive Feedback IR Comp
POSFEEDRESISTANCE	QUANT	0	Positive Feedback Resistance (ohm)
ACHSELECT	IQUANT	0	Ach Select
CABLEID	IQUANT	13	Cable ID
DCCALDATE	LABEL	7/31/2020	DC Calibration Date
ACCALDATE	LABEL	7/31/2020	AC Calibration Date
THERMOSELECT	IQUANT	1	Thermo Select
FRAMEWORKVERSION	QUANT	6.33	Framework Version
INSTRUMENTVERSION	LABEL	3.50	Instrument Version
COMPLIANCEVOLTAGE	IQUANT	0	Compliance Voltage
ZCURVE	TABLE
	Pt	Time	Freq	Zreal	Zimag	Zsig	Zmod	Zphz	Idc	Vdc	IERange
	#	s	Hz	ohm	ohm	V	ohm	°	A	V	#
	0	14	300046.9	-73.1009	-4885.172	1	4885.719	-90.8573	-0.0001149	0.0036831	9
	1	31	238359.4	-14.61775	-6056.316	1	6056.334	-90.13829	2.646537E-005	-0.0019384	9
	2	49	189328.1	183.1805	-6723.57	1	6726.065	-88.43939	1.845011E-005	-0.0020259	9
	3	56	150421.9	239.8698	-9878.2	1	9881.11	-88.60897	-2.111418E-005	0.0015607	9
	4	64	119484.4	478.4349	-11785.17	1	11794.88	-87.67528	1.975003E-005	-0.0089881	8
	5	71	94921.88	371.0845	-14885.22	1	14889.85	-88.57193	-2.384625E-005	0.0052812	8
	6	80	75421.88	891.585	-17920.24	1	17942.41	-87.15172	2.634509E-005	-0.0088753	8
	7	88	59859.37	622.8411	-23087.61	1	23096.01	-88.45469	-2.659398E-005	0.0096363	8
	8	97	47578.12	3909.944	-30031.56	1	30285.01	-82.58213	-7.38465E-006	0.0190816	7
	9	104	37828.12	4379.785	-37493.83	1	37748.77	-83.33728	1.384039E-006	-0.0200498	7
	10	112	30046.88	4307.265	-46562.05	1	46760.85	-84.71484	-5.406378E-006	0.0267888	7
	11	119	23859.38	3621.116	-58088.67	1	58201.43	-86.43293	-5.383583E-006	0.0034624	7
	12	125	18984.38	5109.647	-72809.8	1	72988.87	-85.98568	3.572222E-006	-0.0246266	7
	13	130	15046.87	1012.363	-93026.59	1	93032.1	-89.3765	2.7874E-006	0.008527	7
	14	137	11953.13	2198.176	-113479.5	1	113500.8	-88.89028	5.34235E-006	-0.0268592	7
	15	142	9515.62	4475.266	-143729.1	1	143798.8	-88.21657	-3.544364E-006	0.0252078	7
	16	147	7546.875	9513.84	-179506.5	1	179758.5	-86.96616	6.92611E-006	-0.0271211	7
	17	154	5928.309	9329.307	-199890	1	200107.6	-87.32782	-7.273466E-006	0.0237355	7
	18	159	4733.456	-30430.55	-290034.1	1	291626.1	-95.9896	5.422582E-006	-0.0269077	7
	19	166	3796.875	45272.65	-331106.5	1	334187.3	-82.21415	-5.404889E-006	0.0267583	7
	20	172	2987.132	39746.93	-303125.2	1	305720	-82.52978	-1.594026E-005	0.0006946	8
	21	180	2390.625	-127992.2	-532817.9	1	547975.3	-103.5075	1.747151E-005	0.0003542	8
	22	189	1884.191	32124.35	-706843.1	1	707572.8	-87.39783	6.917348E-006	-0.0271076	7
	23	196	1516.544	-178003.4	-623079.1	1	648006.8	-105.9438	-3.725444E-006	0.0254625	7
	24	204	1193.986	509.685	-1161506	1	1161506	-89.97486	7.328708E-007	-0.0272284	6
	25	211	946.5144	81537.48	-1298860	1	1301417	-86.40791	7.242118E-007	-0.0270684	6
	26	215	751.7689	76064.19	-1527016	1	1528910	-87.14832	-7.31931E-007	0.0174554	6
	27	220	597.4265	-10965.72	-1926016	1	1926047	-90.32621	-2.100639E-007	0.0226153	6
	28	224	477.4305	78095.19	-2840363	1	2841436	-88.42506	-6.973088E-009	0.0007431	6
	29	227	376.6741	469350.2	-3706911	1	3736506	-82.7839	-5.946081E-010	0.000634	5
	30	231	298.2954	487733.7	-4616183	1	4641878	-83.96866	-7.055165E-010	0.0006418	5
	31	234	237.7717	479993.1	-5770667	1	5790595	-85.24519	-6.849948E-010	0.0006565	5
	32	238	189.0121	527748.8	-7180970	1	7200336	-85.79674	-6.277353E-010	0.0006335	5
	33	242	150.2404	404255.8	-8967283	1	8976391	-87.41879	-6.591453E-010	0.0006235	5
	34	245	119.1737	1864534	-1.219163E+007	1	1.233338E+007	-81.30481	-6.027212E-010	0.0006865	5
	35	248	95.0169	333094.6	-1.382514E+007	1	1.382915E+007	-88.61982	-8.116258E-010	0.0006982	5
	36	251	75.60484	1683281	-1.941178E+007	1	1.948463E+007	-85.04403	-6.293948E-010	0.0007084	5
	37	254	54.50582	469294.4	-2.442074E+007	1	2.442525E+007	-88.89908	-7.433023E-010	0.0007057	5
	38	257	45.95588	-1258769	-2.704571E+007	1	2.707499E+007	-92.66476	-7.376554E-010	0.0007117	5
	39	260	37.20238	1425632	-4.39363E+007	1	4.395942E+007	-88.14153	-8.022256E-010	0.0006161	5
	40	264	30.04808	7105204	-4.560794E+007	1	4.615808E+007	-81.14514	-8.857522E-011	0.0006561	4
	41	268	23.91582	-4241916	-6.300579E+007	1	6.314842E+007	-93.85167	-1.76522E-010	0.0006794	4
	42	272	18.60119	-7381040	-6.201419E+007	1	6.24519E+007	-96.7875	-1.008112E-010	0.0007217	4
	43	276	15.02404	6461673	-9.099057E+007	1	9.121972E+007	-85.93797	-1.04541E-010	0.0006903	4
	44	279	12.01923	1.863855E+007	-1.092959E+008	1	1.108738E+008	-80.32228	-7.61258E-011	0.0006233	4
	45	283	9.450605	2.333974E+007	-1.200831E+008	1	1.223303E+008	-79.00095	-1.194609E-010	0.0006976	4
	46	287	7.512019	4.944315E+007	-1.666555E+008	1	1.738352E+008	-73.47549	-6.223753E-011	0.0006381	4
	47	291	5.978954	7.490312E+007	-1.887162E+008	1	2.030376E+008	-68.35143	-1.254856E-010	0.0007193	4
	48	297	4.734848	1.369565E+008	-1.169659E+008	1	1.801058E+008	-40.49854	-8.831479E-011	0.000652	4
	49	305	3.75601	1.282889E+008	-5.29022E+007	1	1.387684E+008	-22.40967	-1.042487E-010	0.0006421	4
	50	312	3.004808	9.63565E+007	-1.858737E+007	1	9.81329E+007	-10.91837	-1.125924E-010	0.0006663	4
	51	319	2.372217	7.72223E+007	-6973746	1	7.753654E+007	-5.160236	-4.306234E-011	0.0007806	3
	52	324	1.878005	6.018986E+007	-3971269	1	6.032073E+007	-3.774849	-5.225702E-011	0.0007467	3
	53	328	1.512097	4.56102E+007	-3158742	1	4.571945E+007	-3.961703	-5.167509E-011	0.0006747	3
	54	334	1.201923	2.879023E+007	-3141448	1	2.896111E+007	-6.227198	-5.075819E-011	0.0007235	3
	55	347	0.956633	1.417361E+007	-3470248	1	1.459225E+007	-13.75758	-8.665547E-010	1.753902E-005	5
