EXPLAIN
TAG	EISPOT
TITLE	LABEL	Potentiostatic EIS	Test Identifier
DATE	LABEL	2/27/2021	Date
TIME	LABEL	19:29:25	Time
NOTES	NOTES	1	Notes...
	
PSTAT	PSTAT	REF3000-16137	Potentiostat
VDC	POTEN	0.00000E+000	T	DC Voltage (V)
FREQINIT	QUANT	3.00000E+005	Initial Freq. (Hz)
FREQFINAL	QUANT	1.00000E+000	Final Freq. (Hz)
PTSPERDEC	QUANT	1.00000E+001	Points/decade
VAC	QUANT	5.00000E+001	AC Voltage (mV rms)
AREA	QUANT	1.00000E+000	Sample Area (cm^2)
SPEED	SELECTOR	2	Optimize for:
ZGUESS	QUANT	1.00000E+003	Estimated Z (ohms)
EOC	QUANT	0	Open Circuit (V)
SEQUENCER	TOGGLE	TRUE	Run as Sequence
PSTATMODEL	IQUANT	5	Pstat Model
PSTATSECTION	LABEL	REF3000-16137	Pstat Section
PSTATSERIALNO	LABEL	16137	Pstat Serial Number
CTRLMODE	IQUANT	1	Control Mode
IESTAB	IQUANT	0	I/E Stability
CASPEED	IQUANT	1	Control Amp Speed
CONVENTION	IQUANT	1	Current Convention
ICHRANGE	IQUANT	2	Ich Range
ICHRANGEMODE	TOGGLE	F	Ich Auto Range
ICHOFFSETENABLE	TOGGLE	T	Ich Offset Enable
ICHOFFSET	QUANT	0	Ich Offset (V)
ICHFILTER	IQUANT	3	Ich Filter
VCHRANGE	IQUANT	2	Vch Range
VCHRANGEMODE	TOGGLE	F	Vch Auto Range
VCHOFFSETENABLE	TOGGLE	T	Vch Offset Enable
VCHOFFSET	QUANT	0	Vch Offset (V)
VCHFILTER	IQUANT	3	Vch Filter
ACHRANGE	IQUANT	2	Ach Range
ACHOFFSETENABLE	TOGGLE	F	Ach Offset Enable
ACHOFFSET	QUANT	0	Ach Offset (V)
ACHFILTER	IQUANT	3	Ach Filter
IERANGELOWERLIMIT	IQUANT	2	I/E Range Lower Limit
IERANGEMODE	TOGGLE	F	I/E AutoRange
IERANGE	IQUANT	11	I/E Range
POSFEEDENABLE	TOGGLE	F	Positive Feedback IR Comp
POSFEEDRESISTANCE	QUANT	0	Positive Feedback Resistance (ohm)
ACHSELECT	IQUANT	0	Ach Select
CABLEID	IQUANT	13	Cable ID
DCCALDATE	LABEL	7/31/2020	DC Calibration Date
ACCALDATE	LABEL	7/31/2020	AC Calibration Date
THERMOSELECT	IQUANT	1	Thermo Select
FRAMEWORKVERSION	QUANT	6.33	Framework Version
INSTRUMENTVERSION	LABEL	3.50	Instrument Version
COMPLIANCEVOLTAGE	IQUANT	0	Compliance Voltage
ZCURVE	TABLE
	Pt	Time	Freq	Zreal	Zimag	Zsig	Zmod	Zphz	Idc	Vdc	IERange
	#	s	Hz	ohm	ohm	V	ohm	°	A	V	#
	0	11	300046.9	331.2283	-30.46303	1	332.6262	-5.254704	1.303488E-005	-0.001086	9
	1	19	238359.4	335.038	-36.48284	1	337.0185	-6.214547	7.302138E-005	0.0004913	10
	2	24	189328.1	339.1112	-30.67001	1	340.4953	-5.167904	1.41147E-005	-0.0018144	9
	3	27	150421.9	342.4893	-38.15035	1	344.6075	-6.356054	-2.684446E-005	0.0004348	10
	4	33	119484.4	346.7945	-38.91056	1	348.9705	-6.401849	-3.034366E-006	-0.0014687	9
	5	37	94921.88	350.6885	-43.25518	1	353.3461	-7.031552	6.764301E-007	0.0006907	9
	6	40	75421.88	355.8831	-42.81559	1	358.4493	-6.860171	-6.85311E-006	0.0001278	8
	7	42	59859.37	359.9274	-58.78392	1	364.6961	-9.275743	-9.380963E-006	-0.0001578	9
	8	45	47578.12	365.7983	-68.73178	1	372.1995	-10.64153	-1.517818E-005	0.0001296	9
	9	48	37828.12	373.3124	-80.42994	1	381.8784	-12.15849	-2.227421E-005	0.0009716	9
	10	50	30046.88	381.371	-94.74324	1	392.9633	-13.95144	8.542996E-006	-0.0006544	9
	11	53	23859.38	389.9987	-107.4016	1	404.5171	-15.39701	-6.856797E-006	0.0001702	8
	12	55	18984.38	400.923	-127.2931	1	420.6457	-17.61466	1.389096E-005	-0.0028673	8
	13	57	15046.87	413.9469	-147.7561	1	439.5269	-19.64374	9.323969E-007	0.0036871	8
	14	60	11953.13	427.7262	-176.1914	1	462.5939	-22.38802	-1.602629E-006	-0.0021184	8
	15	62	9515.62	442.395	-205.3241	1	487.7206	-24.89693	6.200169E-006	0.0018027	8
	16	64	7546.875	459.9456	-242.8951	1	520.1423	-27.83832	1.042608E-005	-0.0044449	8
	17	67	5928.309	479.0944	-285.1015	1	557.5072	-30.75621	1.406565E-005	-0.0021391	8
	18	69	4733.456	498.6661	-336.8086	1	601.754	-34.03584	-4.343353E-006	0.0051047	8
	19	71	3796.875	515.3354	-397	1	650.5225	-37.60965	-1.054615E-005	0.0057594	8
	20	74	2987.132	539.3691	-478.9879	1	721.3518	-41.60674	-1.245491E-005	0.0054466	8
	21	76	2390.625	561.7219	-572.7979	1	802.2648	-45.55935	-1.319078E-005	0.0046904	8
	22	78	1884.191	590.6541	-694.9943	1	912.0797	-49.63982	-8.102628E-006	0.0056678	8
	23	81	1516.544	621.1407	-837.6301	1	1042.804	-53.44139	-1.342649E-005	0.0047499	8
	24	83	1193.986	653.3896	-1029.07	1	1218.976	-57.58723	-6.749599E-006	5.809807E-005	8
	25	86	946.5144	688.601	-1258.495	1	1434.567	-61.31419	-1.012941E-005	0.0015682	8
	26	89	751.7689	742.3753	-1533.955	1	1704.153	-64.1748	6.854405E-006	-0.0040899	8
	27	92	597.4265	793.3578	-1891.477	1	2051.123	-67.24496	-1.313518E-005	0.0045611	8
	28	94	477.4305	862.9747	-2310.685	1	2466.574	-69.52077	3.562756E-008	0.0006729	8
	29	96	376.6741	950.063	-2862.841	1	3016.369	-71.64104	4.261694E-008	0.0006558	8
	30	99	298.2954	1057.672	-3537.693	1	3692.417	-73.35479	5.339226E-008	0.0006702	8
	31	101	237.7717	1194.969	-4356.401	1	4517.32	-74.66093	-4.513743E-009	0.0006385	7
	32	104	189.0121	1365.88	-5370.213	1	5541.193	-75.72976	-4.354926E-009	0.0006185	7
	33	106	150.2404	1586.977	-6620.554	1	6808.101	-76.52027	-8.578677E-009	0.0006418	7
	34	108	119.1737	1876.771	-8177.713	1	8390.308	-77.07454	-4.198579E-009	0.0006178	7
	35	111	95.0169	2254.476	-10048.98	1	10298.77	-77.35514	-5.231594E-009	0.0006243	7
	36	113	75.60484	2760.165	-12362.56	1	12666.94	-77.41411	-8.839E-009	0.0006344	7
	37	116	54.50582	3812.738	-16594.79	1	17027.16	-77.06056	-7.29132E-009	0.0006128	7
	38	118	45.95588	4557.078	-19321.64	1	19851.77	-76.72911	-8.90934E-009	0.0006493	7
	39	121	37.20238	5767.332	-23270.75	1	23974.77	-76.08051	-1.172312E-008	0.0006504	7
	40	123	30.04808	7410.673	-28018.96	1	28982.41	-75.1852	-5.642481E-009	0.0006244	7
	41	126	23.91582	9700.81	-33940.87	1	35299.98	-74.04927	-4.259226E-009	0.0006229	7
	42	128	18.60119	13269.98	-41666.13	1	43728.23	-72.33418	2.941833E-009	0.0006874	6
	43	130	15.02404	17109.9	-49187.81	1	52078.68	-70.81985	-3.509287E-009	0.0006632	6
	44	133	12.01923	22168.88	-57914.66	1	62012.64	-69.05389	-2.15514E-009	0.0006898	6
	45	135	9.450605	28804.94	-68345.64	1	74167.73	-67.14653	3.164641E-010	0.000684	6
	46	138	7.512019	36135.86	-79311.65	1	87155.83	-65.5051	-9.031349E-011	0.0006604	6
	47	141	5.978954	44106.39	-91335.73	1	101427.8	-64.22392	-4.223636E-010	0.000688	6
	48	145	4.734848	52723.08	-105230.7	1	117699.7	-63.38805	-1.301178E-009	0.0006645	6
	49	148	3.75601	61364.73	-121584.7	1	136192.7	-63.21957	-7.321396E-010	0.0006521	6
	50	154	3.004808	69707.34	-140531.4	1	156869.9	-63.61735	-8.881402E-010	0.0006596	6
	51	160	2.372217	78524.88	-165237.5	1	182947	-64.5818	-9.63486E-010	0.0006306	6
	52	165	1.878005	87702.92	-195797.2	1	214542.2	-65.87109	-1.297604E-009	0.0006768	6
	53	169	1.512097	96401.9	-231320.6	1	250604.4	-67.37628	-1.168557E-009	0.0005739	6
	54	175	1.201923	106652.1	-278265.4	1	298003.9	-69.02943	-1.257302E-009	0.0006811	6
	55	181	0.956633	117832	-336234.5	1	356283.6	-70.68719	-1.337462E-009	2.398291E-005	6
