EXPLAIN
TAG	EISPOT
TITLE	LABEL	Potentiostatic EIS	Test Identifier
DATE	LABEL	2/27/2021	Date
TIME	LABEL	19:36:02	Time
NOTES	NOTES	1	Notes...
	
PSTAT	PSTAT	REF3000-16137	Potentiostat
VDC	POTEN	0.00000E+000	T	DC Voltage (V)
FREQINIT	QUANT	3.00000E+005	Initial Freq. (Hz)
FREQFINAL	QUANT	1.00000E+000	Final Freq. (Hz)
PTSPERDEC	QUANT	1.00000E+001	Points/decade
VAC	QUANT	5.00000E+001	AC Voltage (mV rms)
AREA	QUANT	1.00000E+000	Sample Area (cm^2)
SPEED	SELECTOR	2	Optimize for:
ZGUESS	QUANT	1.00000E+003	Estimated Z (ohms)
EOC	QUANT	0	Open Circuit (V)
SEQUENCER	TOGGLE	TRUE	Run as Sequence
PSTATMODEL	IQUANT	5	Pstat Model
PSTATSECTION	LABEL	REF3000-16137	Pstat Section
PSTATSERIALNO	LABEL	16137	Pstat Serial Number
CTRLMODE	IQUANT	1	Control Mode
IESTAB	IQUANT	0	I/E Stability
CASPEED	IQUANT	1	Control Amp Speed
CONVENTION	IQUANT	1	Current Convention
ICHRANGE	IQUANT	2	Ich Range
ICHRANGEMODE	TOGGLE	F	Ich Auto Range
ICHOFFSETENABLE	TOGGLE	T	Ich Offset Enable
ICHOFFSET	QUANT	0	Ich Offset (V)
ICHFILTER	IQUANT	3	Ich Filter
VCHRANGE	IQUANT	2	Vch Range
VCHRANGEMODE	TOGGLE	F	Vch Auto Range
VCHOFFSETENABLE	TOGGLE	T	Vch Offset Enable
VCHOFFSET	QUANT	0	Vch Offset (V)
VCHFILTER	IQUANT	3	Vch Filter
ACHRANGE	IQUANT	2	Ach Range
ACHOFFSETENABLE	TOGGLE	F	Ach Offset Enable
ACHOFFSET	QUANT	0	Ach Offset (V)
ACHFILTER	IQUANT	3	Ach Filter
IERANGELOWERLIMIT	IQUANT	2	I/E Range Lower Limit
IERANGEMODE	TOGGLE	F	I/E AutoRange
IERANGE	IQUANT	11	I/E Range
POSFEEDENABLE	TOGGLE	F	Positive Feedback IR Comp
POSFEEDRESISTANCE	QUANT	0	Positive Feedback Resistance (ohm)
ACHSELECT	IQUANT	0	Ach Select
CABLEID	IQUANT	13	Cable ID
DCCALDATE	LABEL	7/31/2020	DC Calibration Date
ACCALDATE	LABEL	7/31/2020	AC Calibration Date
THERMOSELECT	IQUANT	1	Thermo Select
FRAMEWORKVERSION	QUANT	6.33	Framework Version
INSTRUMENTVERSION	LABEL	3.50	Instrument Version
COMPLIANCEVOLTAGE	IQUANT	0	Compliance Voltage
ZCURVE	TABLE
	Pt	Time	Freq	Zreal	Zimag	Zsig	Zmod	Zphz	Idc	Vdc	IERange
	#	s	Hz	ohm	ohm	V	ohm	°	A	V	#
	0	17	300046.9	573.881	-75.15952	1	578.7818	-7.461393	8.260841E-005	-0.0017926	9
	1	23	238359.4	585.2055	-68.74481	1	589.2294	-6.6999	-0.0001028	0.0035971	9
	2	37	189328.1	596.1952	-65.54826	1	599.7877	-6.274145	2.626001E-005	0.000863	9
	3	44	150421.9	606.8444	-62.00274	1	610.0037	-5.833802	-0.0001023	0.0036397	9
	4	52	119484.4	614.5433	-63.83477	1	617.8497	-5.930246	-1.265074E-005	0.0016714	9
	5	58	94921.88	622.4385	-48.91137	1	624.3572	-4.493083	-1.603402E-005	0.0043288	8
	6	61	75421.88	628.5367	-55.98761	1	631.0254	-5.09025	-1.484437E-005	0.0029313	8
	7	63	59859.37	633.1905	-66.7378	1	636.6978	-6.016718	-1.702761E-005	0.0055699	8
	8	66	47578.12	639.9498	-79.06519	1	644.8156	-7.043147	-7.956516E-006	-0.0003867	8
	9	68	37828.12	648.6339	-93.17603	1	655.2921	-8.174597	1.664444E-005	-0.0024818	8
	10	71	30046.88	656.5863	-112.1321	1	666.0925	-9.6915	1.810812E-005	-0.0049897	8
	11	73	23859.38	671.097	-131.5478	1	683.8684	-11.09045	-1.65293E-005	0.0065894	8
	12	76	18984.38	684.7578	-155.1927	1	702.124	-12.76973	-1.657922E-005	0.0066335	8
	13	79	15046.87	696.5373	-182.7755	1	720.1188	-14.70326	4.575897E-007	0.0047533	8
	14	81	11953.13	719.8184	-213.2686	1	750.7476	-16.50357	-6.599265E-006	0.0065311	8
	15	83	9515.62	739.3749	-254.4564	1	781.9356	-18.99094	5.912508E-007	0.0046832	8
	16	86	7546.875	767.1299	-297.0863	1	822.6473	-21.16988	-1.480629E-005	0.0029505	8
	17	88	5928.309	791.9831	-347.937	1	865.0418	-23.71702	7.217897E-006	0.0022994	8
	18	91	4733.456	825.235	-406.4239	1	919.8876	-26.22001	1.704195E-005	-0.002424	8
	19	94	3796.875	851.2341	-478.0517	1	976.285	-29.3185	1.792009E-005	-0.0036984	8
	20	96	2987.132	888.636	-566.948	1	1054.089	-32.53779	-1.49059E-005	0.0073903	8
	21	99	2390.625	924.2593	-667.5187	1	1140.104	-35.83757	7.672008E-006	0.0022903	8
	22	101	1884.191	959.398	-794.6261	1	1245.743	-39.6334	-2.320975E-006	-0.0025405	8
	23	104	1516.544	1002.569	-951.127	1	1381.95	-43.49173	9.575698E-006	-0.0056221	8
	24	108	1193.986	1052.337	-1155.194	1	1562.654	-47.66769	-1.701472E-005	0.0055884	8
	25	112	946.5144	1095.592	-1410.875	1	1786.306	-52.16946	-1.726655E-005	0.0057163	8
	26	115	751.7689	1155.1	-1712.07	1	2065.294	-55.99322	-1.598661E-005	0.0042568	8
	27	118	597.4265	1222.655	-2087.394	1	2419.111	-59.64111	-6.266577E-006	0.0066512	8
	28	120	477.4305	1304.198	-2539.866	1	2855.145	-62.81992	-4.722121E-008	0.0006614	8
	29	124	376.6741	1398.18	-3136.552	1	3434.074	-65.97412	-4.334482E-008	0.0006583	8
	30	126	298.2954	1509.568	-3867.618	1	4151.779	-68.67882	-3.032939E-008	0.0006523	8
	31	128	237.7717	1649.246	-4756.889	1	5034.68	-70.87822	-2.151179E-008	0.0006345	7
	32	131	189.0121	1816.015	-5861.221	1	6136.108	-72.78516	-1.926368E-008	0.0006441	7
	33	133	150.2404	2025.874	-7227	1	7505.578	-74.34074	-2.202058E-008	0.000631	7
	34	136	119.1737	2294.305	-8931.967	1	9221.923	-75.59418	-2.326664E-008	0.0006541	7
	35	138	95.0169	2631.456	-10991.58	1	11302.18	-76.53642	-1.807686E-008	0.0006155	7
	36	140	75.60484	3071.928	-13551.08	1	13894.91	-77.22735	-1.861282E-008	0.000629	7
	37	143	54.50582	3958.374	-18284.31	1	18707.88	-77.78453	-2.531247E-008	0.0006461	7
	38	146	45.95588	4570.959	-21357.29	1	21840.96	-77.91962	-2.200514E-008	0.0006339	7
	39	148	37.20238	5559.918	-25878.21	1	26468.74	-77.87437	-2.305753E-008	0.0006483	7
	40	150	30.04808	6875.459	-31405.38	1	32149.18	-77.65128	-1.708244E-008	0.0006174	7
	41	153	23.91582	8787.199	-38566.86	1	39555.25	-77.16466	-1.59884E-008	0.0006167	7
	42	155	18.60119	11621.81	-48111.61	1	49495.39	-76.41982	1.248521E-009	0.0006753	6
	43	157	15.02404	15090.79	-57932.33	1	59865.57	-75.39949	-3.816163E-009	0.0006846	6
	44	160	12.01923	19822.23	-69958.66	1	72712.68	-74.18034	-3.041416E-009	0.0006804	6
	45	162	9.450605	26738.62	-85135.84	1	89236.01	-72.56406	-4.863407E-009	0.0007019	6
	46	165	7.512019	35296.09	-101732.7	1	107681.7	-70.86581	-3.262581E-009	0.0007	6
	47	168	5.978954	46050.07	-120270.3	1	128784.9	-69.04874	-2.411682E-009	0.000657	6
	48	172	4.734848	59404.39	-141167.4	1	153157.2	-67.17825	-1.28717E-009	0.0006906	6
	49	176	3.75601	74736.11	-164280.6	1	180481.5	-65.5378	-1.800035E-009	0.0006651	6
	50	181	3.004808	90830.05	-188778	1	209492.8	-64.30559	-2.466151E-009	0.0007081	6
	51	188	2.372217	108766.8	-218118.1	1	243732.9	-63.49639	-2.499776E-009	0.0007005	6
	52	192	1.878005	127141.6	-252212.1	1	282446.3	-63.24706	-2.273383E-009	0.0006543	6
	53	196	1.512097	143434.3	-290479.8	1	323962.8	-63.72058	-2.542495E-009	0.0007481	6
	54	202	1.201923	161444.7	-340389.7	1	376735.4	-64.62531	-2.469026E-009	0.0006761	6
	55	208	0.956633	179417	-402253.2	1	440452.1	-65.9617	-4.89476E-010	2.339247E-005	5
