EXPLAIN
TAG	EISPOT
TITLE	LABEL	Potentiostatic EIS	Test Identifier
DATE	LABEL	2/27/2021	Date
TIME	LABEL	19:43:53	Time
NOTES	NOTES	1	Notes...
	
PSTAT	PSTAT	REF3000-16137	Potentiostat
VDC	POTEN	0.00000E+000	T	DC Voltage (V)
FREQINIT	QUANT	3.00000E+005	Initial Freq. (Hz)
FREQFINAL	QUANT	1.00000E+000	Final Freq. (Hz)
PTSPERDEC	QUANT	1.00000E+001	Points/decade
VAC	QUANT	5.00000E+001	AC Voltage (mV rms)
AREA	QUANT	1.00000E+000	Sample Area (cm^2)
SPEED	SELECTOR	2	Optimize for:
ZGUESS	QUANT	1.00000E+003	Estimated Z (ohms)
EOC	QUANT	0	Open Circuit (V)
SEQUENCER	TOGGLE	TRUE	Run as Sequence
PSTATMODEL	IQUANT	5	Pstat Model
PSTATSECTION	LABEL	REF3000-16137	Pstat Section
PSTATSERIALNO	LABEL	16137	Pstat Serial Number
CTRLMODE	IQUANT	1	Control Mode
IESTAB	IQUANT	0	I/E Stability
CASPEED	IQUANT	1	Control Amp Speed
CONVENTION	IQUANT	1	Current Convention
ICHRANGE	IQUANT	2	Ich Range
ICHRANGEMODE	TOGGLE	F	Ich Auto Range
ICHOFFSETENABLE	TOGGLE	T	Ich Offset Enable
ICHOFFSET	QUANT	0	Ich Offset (V)
ICHFILTER	IQUANT	3	Ich Filter
VCHRANGE	IQUANT	2	Vch Range
VCHRANGEMODE	TOGGLE	F	Vch Auto Range
VCHOFFSETENABLE	TOGGLE	T	Vch Offset Enable
VCHOFFSET	QUANT	0	Vch Offset (V)
VCHFILTER	IQUANT	3	Vch Filter
ACHRANGE	IQUANT	2	Ach Range
ACHOFFSETENABLE	TOGGLE	F	Ach Offset Enable
ACHOFFSET	QUANT	0	Ach Offset (V)
ACHFILTER	IQUANT	3	Ach Filter
IERANGELOWERLIMIT	IQUANT	2	I/E Range Lower Limit
IERANGEMODE	TOGGLE	F	I/E AutoRange
IERANGE	IQUANT	11	I/E Range
POSFEEDENABLE	TOGGLE	F	Positive Feedback IR Comp
POSFEEDRESISTANCE	QUANT	0	Positive Feedback Resistance (ohm)
ACHSELECT	IQUANT	0	Ach Select
CABLEID	IQUANT	13	Cable ID
DCCALDATE	LABEL	7/31/2020	DC Calibration Date
ACCALDATE	LABEL	7/31/2020	AC Calibration Date
THERMOSELECT	IQUANT	1	Thermo Select
FRAMEWORKVERSION	QUANT	6.33	Framework Version
INSTRUMENTVERSION	LABEL	3.50	Instrument Version
COMPLIANCEVOLTAGE	IQUANT	0	Compliance Voltage
ZCURVE	TABLE
	Pt	Time	Freq	Zreal	Zimag	Zsig	Zmod	Zphz	Idc	Vdc	IERange
	#	s	Hz	ohm	ohm	V	ohm	°	A	V	#
	0	22	300046.9	1180.096	-308.6074	1	1219.78	-14.65525	5.084797E-005	-8.678866E-005	9
	1	39	238359.4	1228.094	-268.4023	1	1257.082	-12.32826	4.964163E-005	-6.187094E-005	9
	2	52	189328.1	1291.153	-249.7527	1	1315.086	-10.94774	-9.096529E-005	0.0022475	9
	3	66	150421.9	1309.902	-197.7041	1	1324.738	-8.582896	-1.490146E-005	0.0017196	9
	4	76	119484.4	1352.183	-150.8687	1	1360.574	-6.366395	2.260071E-005	0.0058895	8
	5	82	94921.88	1363.819	-137.345	1	1370.717	-5.750649	-8.942269E-006	-0.0010165	8
	6	85	75421.88	1378.231	-133.7567	1	1384.707	-5.543168	2.148094E-005	-0.0044513	8
	7	88	59859.37	1391.012	-127.6927	1	1396.861	-5.244963	-1.966003E-005	0.0048148	8
	8	91	47578.12	1399.354	-136.768	1	1406.022	-5.58216	-1.891569E-005	0.0090045	8
	9	94	37828.12	1416.868	-146.4744	1	1424.419	-5.902214	-2.274301E-006	-0.0035243	8
	10	96	30046.88	1433.974	-159.1975	1	1442.784	-6.334943	-3.928718E-007	0.0060855	8
	11	99	23859.38	1449.726	-177.9378	1	1460.605	-6.997422	-1.735282E-005	0.0030096	8
	12	102	18984.38	1469.952	-206.246	1	1484.351	-7.986915	-8.389979E-006	0.0080671	8
	13	105	15046.87	1496.038	-243.7103	1	1515.759	-9.252425	-1.876788E-005	0.0088281	8
	14	109	11953.13	1522.333	-277.325	1	1547.387	-10.32441	-2.113827E-005	0.0064481	8
	15	112	9515.62	1556.564	-332.1321	1	1591.604	-12.04486	-1.997687E-006	-0.0036835	8
	16	116	7546.875	1594.314	-387.7635	1	1640.791	-13.66987	-2.119653E-005	0.0065491	8
	17	119	5928.309	1644.693	-461.9175	1	1708.328	-15.68757	-8.977118E-006	-0.0010597	8
	18	123	4733.456	1694.531	-538.001	1	1777.886	-17.61426	2.108811E-005	-0.0072619	8
	19	128	3796.875	1747.432	-631.6481	1	1858.089	-19.87352	-1.832198E-006	-0.0036895	8
	20	131	2987.132	1809.507	-738.6211	1	1954.45	-22.20475	-1.980259E-006	-0.0036448	8
	21	135	2390.625	1878.564	-870.6088	1	2070.498	-24.86507	2.007282E-005	-0.0027376	8
	22	139	1884.191	1940.225	-1027.104	1	2195.317	-27.89557	-1.985149E-005	0.0048612	8
	23	143	1516.544	2040.902	-1197.688	1	2366.377	-30.40623	-2.13351E-005	0.0066111	8
	24	147	1193.986	2125.461	-1430.609	1	2562.075	-33.94377	2.024767E-005	-0.0027034	8
	25	153	946.5144	2198.455	-1713.355	1	2787.255	-37.9309	-8.255448E-006	0.0080284	8
	26	156	751.7689	2332.313	-2017.215	1	3083.641	-40.8565	2.276428E-005	-0.0061517	8
	27	160	597.4265	2436.335	-2463.643	1	3464.861	-45.31931	-1.477654E-005	0.0092238	8
	28	164	477.4305	2542.843	-2947.313	1	3892.647	-49.21348	-1.254786E-007	0.0006712	8
	29	167	376.6741	2679.091	-3604.798	1	4491.335	-53.38022	-3.754153E-008	0.000613	7
	30	170	298.2954	2820.007	-4407.853	1	5232.743	-57.39016	-3.443134E-008	0.0006085	7
	31	172	237.7717	2979.404	-5377.099	1	6147.36	-61.00954	-4.216172E-008	0.0006468	7
	32	174	189.0121	3167.25	-6592.921	1	7314.239	-64.34029	-3.316356E-008	0.0006119	7
	33	177	150.2404	3391.484	-8100.937	1	8782.218	-67.28322	-3.599303E-008	0.0006256	7
	34	179	119.1737	3666.307	-9990.74	1	10642.21	-69.84835	-3.484804E-008	0.0006186	7
	35	182	95.0169	3993.119	-12281.68	1	12914.51	-71.9892	-3.450937E-008	0.000603	7
	36	184	75.60484	4401.61	-15138.03	1	15764.96	-73.78741	-3.614239E-008	0.0006006	7
	37	187	54.50582	5168.654	-20438.09	1	21081.52	-75.80785	-4.173986E-008	0.0006639	7
	38	189	45.95588	5717.117	-23926.04	1	24599.61	-76.56119	-3.560331E-008	0.0006214	7
	39	192	37.20238	6526.539	-29066.26	1	29789.98	-77.3447	-4.095842E-008	0.0006651	7
	40	194	30.04808	7580.877	-35387.37	1	36190.27	-77.90854	-4.168596E-008	0.0006669	7
	41	196	23.91582	9071.731	-43662.26	1	44594.72	-78.26262	-5.515564E-009	0.0006631	6
	42	199	18.60119	11230.81	-54904.61	1	56041.48	-78.43954	-5.155353E-009	0.0007138	6
	43	201	15.02404	13754.75	-66837.4	1	68238.05	-78.37121	-3.701316E-009	0.000721	6
	44	203	12.01923	17260.18	-81855.74	1	83655.7	-78.09298	-4.402664E-009	0.0006995	6
	45	206	9.450605	22517.71	-101677.8	1	104141.4	-77.51274	-5.065167E-009	0.0006667	6
	46	208	7.512019	29366.94	-124727.6	1	128138.1	-76.75109	-5.349638E-009	0.0007125	6
	47	212	5.978954	38599.68	-152174.8	1	156993.9	-75.76691	-5.110496E-009	0.0007235	6
	48	216	4.734848	51557.01	-185603.4	1	192631.2	-74.47575	-4.13041E-009	0.0007225	6
	49	219	3.75601	68878.59	-224550.6	1	234877.1	-72.94714	-4.872335E-009	0.0006948	6
	50	225	3.004808	90634.95	-267659.8	1	282588.8	-71.29288	-4.137022E-009	0.0006617	6
	51	231	2.372217	119748.8	-319167	1	340892	-69.43433	-4.931115E-009	0.0006577	6
	52	235	1.878005	156090.9	-375858.3	1	406981.4	-67.44729	-4.980881E-009	0.0006754	6
	53	240	1.512097	194217.2	-433439.3	1	474963.1	-65.86362	-6.043568E-010	0.0005359	5
	54	245	1.201923	239033.1	-500745.3	1	554871.8	-64.48231	-7.406727E-010	0.000661	5
	55	252	0.956633	285317.5	-576419.3	1	643168.1	-63.66539	-7.159233E-010	2.28233E-005	5
