EXPLAIN
TAG	EISPOT
TITLE	LABEL	Potentiostatic EIS	Test Identifier
DATE	LABEL	2/27/2021	Date
TIME	LABEL	20:53:28	Time
NOTES	NOTES	1	Notes...
	
PSTAT	PSTAT	REF3000-16137	Potentiostat
VDC	POTEN	0.00000E+000	T	DC Voltage (V)
FREQINIT	QUANT	3.00000E+005	Initial Freq. (Hz)
FREQFINAL	QUANT	1.00000E+000	Final Freq. (Hz)
PTSPERDEC	QUANT	1.00000E+001	Points/decade
VAC	QUANT	5.00000E+001	AC Voltage (mV rms)
AREA	QUANT	1.00000E+000	Sample Area (cm^2)
SPEED	SELECTOR	2	Optimize for:
ZGUESS	QUANT	1.00000E+003	Estimated Z (ohms)
EOC	QUANT	0	Open Circuit (V)
SEQUENCER	TOGGLE	TRUE	Run as Sequence
PSTATMODEL	IQUANT	5	Pstat Model
PSTATSECTION	LABEL	REF3000-16137	Pstat Section
PSTATSERIALNO	LABEL	16137	Pstat Serial Number
CTRLMODE	IQUANT	1	Control Mode
IESTAB	IQUANT	0	I/E Stability
CASPEED	IQUANT	1	Control Amp Speed
CONVENTION	IQUANT	1	Current Convention
ICHRANGE	IQUANT	2	Ich Range
ICHRANGEMODE	TOGGLE	F	Ich Auto Range
ICHOFFSETENABLE	TOGGLE	T	Ich Offset Enable
ICHOFFSET	QUANT	0	Ich Offset (V)
ICHFILTER	IQUANT	3	Ich Filter
VCHRANGE	IQUANT	2	Vch Range
VCHRANGEMODE	TOGGLE	F	Vch Auto Range
VCHOFFSETENABLE	TOGGLE	T	Vch Offset Enable
VCHOFFSET	QUANT	0	Vch Offset (V)
VCHFILTER	IQUANT	3	Vch Filter
ACHRANGE	IQUANT	2	Ach Range
ACHOFFSETENABLE	TOGGLE	F	Ach Offset Enable
ACHOFFSET	QUANT	0	Ach Offset (V)
ACHFILTER	IQUANT	3	Ach Filter
IERANGELOWERLIMIT	IQUANT	2	I/E Range Lower Limit
IERANGEMODE	TOGGLE	F	I/E AutoRange
IERANGE	IQUANT	11	I/E Range
POSFEEDENABLE	TOGGLE	F	Positive Feedback IR Comp
POSFEEDRESISTANCE	QUANT	0	Positive Feedback Resistance (ohm)
ACHSELECT	IQUANT	0	Ach Select
CABLEID	IQUANT	13	Cable ID
DCCALDATE	LABEL	7/31/2020	DC Calibration Date
ACCALDATE	LABEL	7/31/2020	AC Calibration Date
THERMOSELECT	IQUANT	1	Thermo Select
FRAMEWORKVERSION	QUANT	6.33	Framework Version
INSTRUMENTVERSION	LABEL	3.50	Instrument Version
COMPLIANCEVOLTAGE	IQUANT	0	Compliance Voltage
ZCURVE	TABLE
	Pt	Time	Freq	Zreal	Zimag	Zsig	Zmod	Zphz	Idc	Vdc	IERange
	#	s	Hz	ohm	ohm	V	ohm	°	A	V	#
	0	14	300046.9	-104.5802	-4888.617	1	4889.735	-91.22552	-9.004233E-005	0.0021593	9
	1	28	238359.4	26.19595	-6010.189	1	6010.247	-89.75027	-2.914327E-005	-0.0010899	9
	2	45	189328.1	-89.62154	-7584.073	1	7584.603	-90.67704	2.5618E-005	-0.001402	9
	3	53	150421.9	-1219.89	-9414.597	1	9493.301	-97.3829	2.184963E-006	0.0017103	9
	4	63	119484.4	443.7137	-11711.53	1	11719.94	-87.83028	-1.080677E-005	0.0178473	8
	5	71	94921.88	349.2007	-14607.86	1	14612.04	-88.63061	2.752938E-005	-0.0073997	8
	6	79	75421.88	587.057	-18047.34	1	18056.88	-88.13689	-1.197706E-005	0.0102266	8
	7	88	59859.37	703.1141	-23018.85	1	23029.59	-88.25043	-2.382953E-005	0.0052542	8
	8	97	47578.12	3920.667	-30155.67	1	30409.47	-82.59229	3.489238E-006	-0.0246978	7
	9	104	37828.12	1971.29	-37571.03	1	37622.71	-86.99654	-1.977619E-005	0.0113638	8
	10	113	30046.88	1575.945	-45094.44	1	45121.97	-87.99846	-9.385532E-006	-0.0020604	8
	11	121	23859.38	4153.984	-58411.67	1	58559.19	-85.93222	-3.770714E-006	0.0255575	7
	12	127	18984.38	4314.443	-72452.35	1	72580.7	-86.59213	6.649651E-006	-0.010018	7
	13	132	15046.87	4001.254	-92727.77	1	92814.05	-87.52919	7.582751E-006	-0.0243183	7
	14	137	11953.13	7467.232	-114781.8	1	115024.5	-86.27782	-1.49704E-006	0.0220181	7
	15	144	9515.62	2196.775	-145553	1	145569.5	-89.13532	5.435427E-006	-0.0273744	7
	16	150	7546.875	5969.165	-185851.6	1	185947.4	-88.16041	-7.153632E-006	0.0234587	7
	17	157	5928.309	34483.7	-227433.4	1	230032.8	-81.37842	-3.732047E-006	0.0255056	7
	18	163	4733.456	37415.4	-300962.4	1	303279.2	-82.9134	-4.015008E-007	0.0255972	6
	19	169	3796.875	37294.24	-376773	1	378614.3	-84.34708	-6.375396E-007	0.009842	6
	20	174	2987.132	40787.11	-464341.7	1	466129.6	-84.9801	-4.024373E-007	0.0255907	6
	21	179	2390.625	41957.45	-580305.9	1	581820.8	-85.86458	-7.495088E-007	0.0182295	6
	22	185	1884.191	37074.28	-708721.2	1	709690.3	-87.0055	2.248864E-007	0.0103447	6
	23	190	1516.544	52127.41	-934146.4	1	935599.7	-86.80608	4.367012E-007	0.0018602	6
	24	196	1193.986	140303.6	-449366.9	1	470760.8	-72.66033	1.652527E-005	-0.0092304	8
	25	205	946.5144	-1380125	-438912.4	1	1448236	-162.3581	-3.364764E-006	-0.0050968	7
	26	210	751.7689	-2444620	-824787.3	1	2580008	-161.3562	7.752354E-006	-0.0245775	7
	27	215	597.4265	378515.9	874807.1	1	953185	66.60259	1.297286E-006	-0.0200683	7
	28	222	477.4305	78617.72	-2853031	1	2854114	-88.42156	-7.322019E-009	0.0007126	6
	29	227	376.6741	84670.55	-3606974	1	3607968	-88.65528	-6.868432E-009	0.000651	6
	30	231	298.2954	439704.9	-4619660	1	4640539	-84.5629	-6.714914E-010	0.0006111	5
	31	235	237.7717	521220.4	-5719750	1	5743450	-84.79322	-6.420593E-010	0.0006171	5
	32	239	189.0121	523117.3	-7208154	1	7227110	-85.84915	-7.279257E-010	0.0006095	5
	33	243	150.2404	794518.8	-9048023	1	9082840	-84.98165	-7.311765E-010	0.0007084	5
	34	246	119.1737	543088.8	-1.280838E+007	1	1.281989E+007	-87.57205	-8.702252E-010	0.000657	5
	35	249	95.0169	213476.7	-1.420099E+007	1	1.42026E+007	-89.13876	-8.277569E-010	0.0007086	5
	36	252	75.60484	988105	-1.588127E+007	1	1.591198E+007	-86.43974	-6.380629E-010	0.0006074	5
	37	255	54.50582	1963996	-2.567013E+007	1	2.574515E+007	-85.62488	-6.627018E-010	0.0006047	5
	38	258	45.95588	4562804	-2.699845E+007	1	2.73813E+007	-80.40752	-6.431733E-010	0.0007052	5
	39	262	37.20238	-2837601	-3.126436E+007	1	3.139286E+007	-95.186	-5.74263E-010	0.0006128	5
	40	265	30.04808	759203.2	-4.681258E+007	1	4.681874E+007	-89.07086	-7.206236E-010	0.0006992	5
	41	269	23.91582	3190938	-5.162308E+007	1	5.17216E+007	-86.46292	-9.969812E-011	0.0007057	4
	42	273	18.60119	2.741223E+007	-6.63042E+007	1	7.174732E+007	-67.53827	-1.049805E-010	0.0006384	4
	43	277	15.02404	9.689573E+006	-8.797443E+007	1	8.850643E+007	-83.71473	-9.08006E-011	0.0007009	4
	44	280	12.01923	3902782	-1.12122E+008	1	1.121899E+008	-88.00643	-6.798504E-011	0.0006572	4
	45	284	9.450605	1.777642E+007	-1.25644E+008	1	1.268953E+008	-81.94711	-1.044678E-010	0.0007152	4
	46	288	7.512019	-3067354	-1.777279E+008	1	1.777544E+008	-90.98875	-5.462064E-011	0.0006434	4
	47	293	5.978954	1.193463E+007	-1.788638E+008	1	1.792616E+008	-86.18262	-1.039829E-010	0.0006814	4
	48	298	4.734848	4.525689E+007	-2.968046E+008	1	3.002352E+008	-81.33029	-6.028706E-012	0.0006869	3
	49	303	3.75601	-3.88751E+007	-4.367842E+008	1	4.385108E+008	-95.0861	-7.071109E-010	0.0006034	5
	50	311	3.004808	4.488542E+007	-5.471502E+008	1	5.489882E+008	-85.31025	-5.48029E-011	0.0007159	4
	51	320	2.372217	5.163778E+007	-5.624072E+008	1	5.647729E+008	-84.75406	-6.128756E-012	0.0007333	3
	52	326	1.878005	5.550789E+007	-7.070379E+008	1	7.092134E+008	-85.51105	-5.76883E-012	0.0007368	3
	53	335	1.512097	5.551411E+007	-8.722518E+008	1	8.740166E+008	-86.35835	-5.868035E-012	0.0007837	3
	54	344	1.201923	5.724524E+007	-1.095279E+009	1	1.096774E+009	-87.00813	-5.645384E-012	0.0007579	3
	55	357	0.956633	5.720019E+007	-1.370687E+009	1	1.37188E+009	-87.61037	-5.59617E-012	9.379646E-005	3
