EXPLAIN
TAG	EISPOT
TITLE	LABEL	Potentiostatic EIS	Test Identifier
DATE	LABEL	2/27/2021	Date
TIME	LABEL	19:53:09	Time
NOTES	NOTES	1	Notes...
	
PSTAT	PSTAT	REF3000-16137	Potentiostat
VDC	POTEN	0.00000E+000	T	DC Voltage (V)
FREQINIT	QUANT	3.00000E+005	Initial Freq. (Hz)
FREQFINAL	QUANT	1.00000E+000	Final Freq. (Hz)
PTSPERDEC	QUANT	1.00000E+001	Points/decade
VAC	QUANT	5.00000E+001	AC Voltage (mV rms)
AREA	QUANT	1.00000E+000	Sample Area (cm^2)
SPEED	SELECTOR	2	Optimize for:
ZGUESS	QUANT	1.00000E+003	Estimated Z (ohms)
EOC	QUANT	0	Open Circuit (V)
SEQUENCER	TOGGLE	TRUE	Run as Sequence
PSTATMODEL	IQUANT	5	Pstat Model
PSTATSECTION	LABEL	REF3000-16137	Pstat Section
PSTATSERIALNO	LABEL	16137	Pstat Serial Number
CTRLMODE	IQUANT	1	Control Mode
IESTAB	IQUANT	0	I/E Stability
CASPEED	IQUANT	1	Control Amp Speed
CONVENTION	IQUANT	1	Current Convention
ICHRANGE	IQUANT	2	Ich Range
ICHRANGEMODE	TOGGLE	F	Ich Auto Range
ICHOFFSETENABLE	TOGGLE	T	Ich Offset Enable
ICHOFFSET	QUANT	0	Ich Offset (V)
ICHFILTER	IQUANT	3	Ich Filter
VCHRANGE	IQUANT	2	Vch Range
VCHRANGEMODE	TOGGLE	F	Vch Auto Range
VCHOFFSETENABLE	TOGGLE	T	Vch Offset Enable
VCHOFFSET	QUANT	0	Vch Offset (V)
VCHFILTER	IQUANT	3	Vch Filter
ACHRANGE	IQUANT	2	Ach Range
ACHOFFSETENABLE	TOGGLE	F	Ach Offset Enable
ACHOFFSET	QUANT	0	Ach Offset (V)
ACHFILTER	IQUANT	3	Ach Filter
IERANGELOWERLIMIT	IQUANT	2	I/E Range Lower Limit
IERANGEMODE	TOGGLE	F	I/E AutoRange
IERANGE	IQUANT	11	I/E Range
POSFEEDENABLE	TOGGLE	F	Positive Feedback IR Comp
POSFEEDRESISTANCE	QUANT	0	Positive Feedback Resistance (ohm)
ACHSELECT	IQUANT	0	Ach Select
CABLEID	IQUANT	13	Cable ID
DCCALDATE	LABEL	7/31/2020	DC Calibration Date
ACCALDATE	LABEL	7/31/2020	AC Calibration Date
THERMOSELECT	IQUANT	1	Thermo Select
FRAMEWORKVERSION	QUANT	6.33	Framework Version
INSTRUMENTVERSION	LABEL	3.50	Instrument Version
COMPLIANCEVOLTAGE	IQUANT	0	Compliance Voltage
ZCURVE	TABLE
	Pt	Time	Freq	Zreal	Zimag	Zsig	Zmod	Zphz	Idc	Vdc	IERange
	#	s	Hz	ohm	ohm	V	ohm	°	A	V	#
	0	14	300046.9	2335.729	-1720.837	1	2901.191	-36.38075	-9.3521E-005	0.0021622	9
	1	28	238359.4	2672.302	-1655.218	1	3143.396	-31.77398	1.90244E-005	-0.0021215	9
	2	44	189328.1	3011.079	-1521.477	1	3373.646	-26.80715	9.940898E-007	0.0015399	9
	3	52	150421.9	3237.961	-1386.844	1	3522.46	-23.18583	2.623111E-005	-0.0014131	9
	4	62	119484.4	3551.958	-1103.342	1	3719.377	-17.25632	-7.717095E-005	0.0202518	8
	5	70	94921.88	3714.791	-943.574	1	3832.754	-14.25199	-9.439991E-006	-0.0016265	8
	6	77	75421.88	3845.488	-832.3232	1	3934.531	-12.2128	1.482549E-005	-0.008461	8
	7	84	59859.37	3967.92	-728.5237	1	4034.246	-10.40383	-1.759817E-005	0.0104037	8
	8	92	47578.12	4070.148	-625.592	1	4117.945	-8.738122	-1.026863E-005	0.0093951	8
	9	99	37828.12	4189.196	-580.4842	1	4229.223	-7.889066	-2.245986E-005	0.0102491	8
	10	107	30046.88	4295.183	-535.404	1	4328.424	-7.105395	2.558152E-005	-0.0069418	8
	11	114	23859.38	4380.683	-489.0143	1	4407.893	-6.36954	-1.36259E-006	0.0071817	8
	12	119	18984.38	4501.519	-260.7191	1	4509.063	-3.314755	1.128606E-008	-0.0139823	7
	13	122	15046.87	4520.364	-315.4808	1	4531.36	-3.992258	2.017197E-006	-0.0190155	7
	14	125	11953.13	4571.676	-361.0554	1	4585.912	-4.515653	-2.366108E-006	0.0208155	7
	15	128	9515.62	4628.102	-435.2101	1	4648.52	-5.372092	-5.286303E-006	0.0074301	7
	16	131	7546.875	4646.109	-586.3801	1	4682.966	-7.193202	1.704499E-005	0.0001719	8
	17	136	5928.309	4734.737	-717.9414	1	4788.859	-8.622237	-1.938999E-005	0.0029473	8
	18	141	4733.456	4819.916	-832.697	1	4891.316	-9.80177	-2.459379E-005	0.0090675	8
	19	147	3796.875	4968.761	-922.8197	1	5053.73	-10.52134	-1.060269E-005	0.0094786	8
	20	152	2987.132	5123.574	-1148.239	1	5250.663	-12.63178	1.695375E-005	0.000124	8
	21	157	2390.625	5273.029	-1266.332	1	5422.954	-13.504	-1.946445E-005	0.0029687	8
	22	163	1884.191	5534.086	-1532.864	1	5742.455	-15.48198	1.694273E-005	0.0001397	8
	23	168	1516.544	5573.081	-1758.307	1	5843.875	-17.51048	2.240133E-005	-0.0028174	8
	24	174	1193.986	5876.353	-1985.199	1	6202.623	-18.66643	-1.544819E-005	0.0009055	8
	25	179	946.5144	6226.544	-2287.043	1	6633.281	-20.16855	-9.959889E-006	-0.0015044	8
	26	183	751.7689	6441.807	-2826.397	1	7034.586	-23.68987	7.641263E-006	-0.0070497	8
	27	187	597.4265	6593.336	-3392.904	1	7415.112	-27.23017	1.885108E-006	-0.0193845	7
	28	189	477.4305	6865.695	-3967.312	1	7929.523	-30.02128	-5.575077E-008	0.0006273	7
	29	192	376.6741	7152.593	-4712.119	1	8565.258	-33.37684	-5.686535E-008	0.0006418	7
	30	194	298.2954	7452.276	-5613.655	1	9330.034	-36.99	-5.820391E-008	0.0006494	7
	31	196	237.7717	7760.411	-6692.986	1	10247.93	-40.77621	-5.836529E-008	0.0006529	7
	32	199	189.0121	8091.57	-8044.357	1	11409.87	-44.83236	-5.569838E-008	0.0006468	7
	33	201	150.2404	8454.985	-9721.07	1	12883.55	-48.98459	-5.848592E-008	0.0006715	7
	34	204	119.1737	8867.289	-11828.48	1	14783.16	-53.14272	-5.22295E-008	0.0006033	7
	35	206	95.0169	9310.261	-14384	1	17134.19	-57.08643	-5.77625E-008	0.0006752	7
	36	209	75.60484	9832.8	-17583.13	1	20145.73	-60.7853	-5.558764E-008	0.0006745	7
	37	211	54.50582	10727.5	-23521.76	1	25852.51	-65.48384	-5.807739E-008	0.0006575	7
	38	214	45.95588	11282.22	-27472.86	1	29699.27	-67.67361	-4.946545E-008	0.0006267	7
	39	216	37.20238	12082.64	-33274.01	1	35399.86	-70.04276	-4.83133E-008	0.0005952	7
	40	218	30.04808	13084.04	-40470.37	1	42532.85	-72.08401	-5.747215E-008	0.0006603	7
	41	221	23.91582	14452.48	-49972.68	1	52020.6	-73.86973	-6.067946E-009	0.0006691	6
	42	223	18.60119	16156.88	-62936.47	1	64977.25	-75.6021	-6.10137E-009	0.0006623	6
	43	226	15.02404	18178.32	-76650.16	1	78776.26	-76.65824	-6.146529E-009	0.0006954	6
	44	228	12.01923	20788.48	-94303.02	1	96567.2	-77.56835	-6.410593E-009	0.0007106	6
	45	231	9.450605	24334.44	-117704.2	1	120193.4	-78.31911	-6.639974E-009	0.0006639	6
	46	233	7.512019	29143.18	-145720.6	1	148606.2	-78.69042	-5.583138E-009	0.0006494	6
	47	236	5.978954	35239.27	-179971.9	1	183389.4	-78.9214	-5.939784E-009	0.0006558	6
	48	240	4.734848	43779.21	-223308.6	1	227559.6	-78.90796	-5.293211E-009	0.0006419	6
	49	244	3.75601	55163.16	-276265.5	1	281719	-78.708	-6.019602E-009	0.0006867	6
	50	249	3.004808	70228.23	-338752.2	1	345955.3	-78.28767	-5.459474E-009	0.0005972	6
	51	256	2.372217	91857.05	-419050.6	1	429000.2	-77.63616	-6.320554E-009	0.0006524	6
	52	260	1.878005	123211.4	-517026.4	1	531504.8	-76.59599	-9.781419E-010	0.0006613	5
	53	265	1.512097	160310.3	-624230.1	1	644486.3	-75.59696	-7.517853E-010	0.0005683	5
	54	270	1.201923	215423.4	-758947.3	1	788928.6	-74.15367	-9.303072E-010	0.0006714	5
	55	276	0.956633	286225.4	-914897.3	1	958625	-72.62772	-9.61593E-010	1.424217E-005	5
