EXPLAIN
TAG	EISPOT
TITLE	LABEL	Potentiostatic EIS	Test Identifier
DATE	LABEL	2/27/2021	Date
TIME	LABEL	19:17:19	Time
NOTES	NOTES	1	Notes...
	
PSTAT	PSTAT	REF3000-16137	Potentiostat
VDC	POTEN	0.00000E+000	T	DC Voltage (V)
FREQINIT	QUANT	3.00000E+005	Initial Freq. (Hz)
FREQFINAL	QUANT	1.00000E+000	Final Freq. (Hz)
PTSPERDEC	QUANT	1.00000E+001	Points/decade
VAC	QUANT	5.00000E+001	AC Voltage (mV rms)
AREA	QUANT	1.00000E+000	Sample Area (cm^2)
SPEED	SELECTOR	2	Optimize for:
ZGUESS	QUANT	1.00000E+003	Estimated Z (ohms)
EOC	QUANT	0	Open Circuit (V)
SEQUENCER	TOGGLE	TRUE	Run as Sequence
PSTATMODEL	IQUANT	5	Pstat Model
PSTATSECTION	LABEL	REF3000-16137	Pstat Section
PSTATSERIALNO	LABEL	16137	Pstat Serial Number
CTRLMODE	IQUANT	1	Control Mode
IESTAB	IQUANT	0	I/E Stability
CASPEED	IQUANT	1	Control Amp Speed
CONVENTION	IQUANT	1	Current Convention
ICHRANGE	IQUANT	2	Ich Range
ICHRANGEMODE	TOGGLE	F	Ich Auto Range
ICHOFFSETENABLE	TOGGLE	T	Ich Offset Enable
ICHOFFSET	QUANT	0	Ich Offset (V)
ICHFILTER	IQUANT	3	Ich Filter
VCHRANGE	IQUANT	2	Vch Range
VCHRANGEMODE	TOGGLE	F	Vch Auto Range
VCHOFFSETENABLE	TOGGLE	T	Vch Offset Enable
VCHOFFSET	QUANT	0	Vch Offset (V)
VCHFILTER	IQUANT	3	Vch Filter
ACHRANGE	IQUANT	2	Ach Range
ACHOFFSETENABLE	TOGGLE	F	Ach Offset Enable
ACHOFFSET	QUANT	0	Ach Offset (V)
ACHFILTER	IQUANT	3	Ach Filter
IERANGELOWERLIMIT	IQUANT	2	I/E Range Lower Limit
IERANGEMODE	TOGGLE	F	I/E AutoRange
IERANGE	IQUANT	11	I/E Range
POSFEEDENABLE	TOGGLE	F	Positive Feedback IR Comp
POSFEEDRESISTANCE	QUANT	0	Positive Feedback Resistance (ohm)
ACHSELECT	IQUANT	0	Ach Select
CABLEID	IQUANT	13	Cable ID
DCCALDATE	LABEL	7/31/2020	DC Calibration Date
ACCALDATE	LABEL	7/31/2020	AC Calibration Date
THERMOSELECT	IQUANT	1	Thermo Select
FRAMEWORKVERSION	QUANT	6.33	Framework Version
INSTRUMENTVERSION	LABEL	3.50	Instrument Version
COMPLIANCEVOLTAGE	IQUANT	0	Compliance Voltage
ZCURVE	TABLE
	Pt	Time	Freq	Zreal	Zimag	Zsig	Zmod	Zphz	Idc	Vdc	IERange
	#	s	Hz	ohm	ohm	V	ohm	°	A	V	#
	0	7	300046.9	132.7151	-11.14115	1	133.1819	-4.798608	-1.277411E-005	-0.0014566	9
	1	10	238359.4	133.8121	-14.11067	1	134.554	-6.019673	-1.311709E-005	0.0007189	9
	2	14	189328.1	135.7719	-17.32603	1	136.8729	-7.272287	6.962569E-005	-0.0026934	9
	3	17	150421.9	138.4208	-20.53888	1	139.9363	-8.439965	1.139973E-005	0.000968	9
	4	19	119484.4	140.5464	-25.09041	1	142.7684	-10.12184	2.750244E-005	0.0005068	9
	5	22	94921.88	143.1617	-29.5584	1	146.1813	-11.66586	-6.503496E-006	0.0007051	9
	6	25	75421.88	146.3752	-34.98238	1	150.4973	-13.44107	-1.719468E-006	-0.0003203	9
	7	27	59859.37	150.2794	-41.49408	1	155.9027	-15.43552	-6.009198E-006	0.0007076	9
	8	30	47578.12	154.3656	-48.54528	1	161.819	-17.45745	-9.884235E-006	-1.56049E-006	9
	9	32	37828.12	159.1371	-57.06223	1	169.0583	-19.72645	-1.396047E-005	0.0008752	9
	10	35	30046.88	164.5996	-66.68819	1	177.596	-22.05552	2.502945E-005	-0.0006131	9
	11	37	23859.38	170.4203	-78.3074	1	187.5503	-24.67858	-1.617673E-005	0.0007895	9
	12	40	18984.38	176.8436	-91.39888	1	199.0663	-27.33149	4.727584E-006	0.000541	9
	13	42	15046.87	183.8194	-107.804	1	213.0992	-30.39023	2.36905E-005	-0.0006519	9
	14	44	11953.13	190.8742	-127.3928	1	229.4818	-33.71984	2.365698E-005	-0.0002429	9
	15	46	9515.62	198.4738	-151.3059	1	249.5703	-37.31998	-7.091221E-006	0.0007386	9
	16	49	7546.875	206.9144	-181.2924	1	275.1009	-41.22389	-7.419397E-006	0.0007503	9
	17	52	5928.309	216.9782	-219.4923	1	308.6364	-45.33002	-1.738078E-005	0.0003963	9
	18	55	4733.456	226.6009	-263.2834	1	347.3702	-49.28231	1.417369E-005	-0.0007023	9
	19	57	3796.875	237.3699	-317.7545	1	396.6263	-53.23943	2.319906E-005	-0.0004932	9
	20	60	2987.132	250.9554	-388.0296	1	462.1099	-57.10752	-3.812229E-006	0.00332	8
	21	62	2390.625	266.0551	-471.1444	1	541.0752	-60.5466	8.77921E-006	-0.0015941	8
	22	64	1884.191	284.9702	-579.2792	1	645.5791	-63.80561	-1.738953E-006	0.0029578	8
	23	67	1516.544	307.1901	-702.3724	1	766.6113	-66.37732	-7.250963E-006	0.0025588	8
	24	69	1193.986	338.3959	-870.2365	1	933.7148	-68.75117	-4.453947E-006	0.0006475	8
	25	71	946.5144	368.3798	-1073.513	1	1134.96	-71.06016	-7.452586E-006	0.0030082	8
	26	74	751.7689	411.118	-1316.922	1	1379.602	-72.66263	6.042661E-006	-0.0022683	8
	27	76	597.4265	464.1566	-1618.086	1	1683.343	-73.99418	1.153641E-006	0.0021678	8
	28	79	477.4305	536.5612	-1983.735	1	2055.019	-74.86478	2.158308E-007	0.0006626	8
	29	81	376.6741	629.9108	-2454.923	1	2534.45	-75.60889	2.089474E-007	0.000656	8
	30	84	298.2954	749.6462	-3025.858	1	3117.337	-76.08533	2.064876E-007	0.0006645	8
	31	86	237.7717	901.2408	-3705.968	1	3813.978	-76.33177	2.153607E-007	0.000655	8
	32	88	189.0121	1105.87	-4555.927	1	4688.221	-76.35635	1.946358E-008	0.000626	7
	33	91	150.2404	1366.719	-5573.179	1	5738.314	-76.22119	1.70368E-008	0.0006349	7
	34	93	119.1737	1706.681	-6809.173	1	7019.8	-75.92902	2.002002E-008	0.0006277	7
	35	96	95.0169	2129.808	-8254.931	1	8525.255	-75.53294	1.639078E-008	0.0006466	7
	36	98	75.60484	2663.25	-9995.35	1	10344.08	-75.08023	1.54751E-008	0.0006362	7
	37	101	54.50582	3638.046	-13069.83	1	13566.72	-74.44522	1.456107E-008	0.0006343	7
	38	103	45.95588	4248.538	-15002.79	1	15592.75	-74.18877	1.904327E-008	0.0006355	7
	39	105	37.20238	5105.992	-17788.52	1	18506.82	-73.98447	1.495855E-008	0.0006428	7
	40	108	30.04808	6098.068	-21114.09	1	21977.06	-73.89048	1.497775E-008	0.0006429	7
	41	110	23.91582	7339.782	-25421.55	1	26459.92	-73.89536	1.672676E-008	0.0006313	7
	42	113	18.60119	8894.62	-31193.95	1	32437.27	-74.08507	1.74958E-008	0.0006398	7
	43	115	15.02404	10495.04	-37188.61	1	38641.15	-74.24035	1.833672E-008	0.000654	7
	44	117	12.01923	12478.28	-44736.34	1	46444.03	-74.41465	2.464326E-009	0.0006678	6
	45	120	9.450605	15006.37	-54685.93	1	56707.51	-74.65517	3.801266E-009	0.0006816	6
	46	122	7.512019	17971.05	-66345.58	1	68736.41	-74.84396	2.756351E-009	0.0007061	6
	47	125	5.978954	21593.28	-80404.37	1	83253.43	-74.96743	2.259266E-009	0.0006756	6
	48	130	4.734848	26103.3	-97880.4	1	101301.3	-75.06757	3.376678E-009	0.0007023	6
	49	133	3.75601	31679.46	-119068.6	1	123210.9	-75.10101	1.995922E-009	0.0006711	6
	50	138	3.004808	38227.63	-143701.9	1	148699.7	-75.10316	2.138456E-009	0.0007004	6
	51	145	2.372217	47002.82	-175570.3	1	181753.2	-75.01252	1.979829E-009	0.0007635	6
	52	149	1.878005	58374.85	-210231.6	1	218185.5	-74.48166	1.65666E-009	0.0006715	6
	53	154	1.512097	71339.73	-244422.2	1	254620.4	-73.72901	2.035647E-009	0.0007148	6
	54	159	1.201923	86722.9	-294057.8	1	306579.3	-73.56827	1.779058E-009	0.0006526	6
	55	165	0.956633	105075	-353391.3	1	368681.6	-73.44103	1.391404E-009	3.739068E-005	6
