EXPLAIN
TAG	EISPOT
TITLE	LABEL	Potentiostatic EIS	Test Identifier
DATE	LABEL	2/27/2021	Date
TIME	LABEL	18:34:24	Time
NOTES	NOTES	1	Notes...
	
PSTAT	PSTAT	REF3000-16137	Potentiostat
VDC	POTEN	0.00000E+000	T	DC Voltage (V)
FREQINIT	QUANT	3.00000E+005	Initial Freq. (Hz)
FREQFINAL	QUANT	1.00000E+000	Final Freq. (Hz)
PTSPERDEC	QUANT	1.00000E+001	Points/decade
VAC	QUANT	5.00000E+001	AC Voltage (mV rms)
AREA	QUANT	1.00000E+000	Sample Area (cm^2)
SPEED	SELECTOR	2	Optimize for:
ZGUESS	QUANT	1.00000E+003	Estimated Z (ohms)
EOC	QUANT	0	Open Circuit (V)
SEQUENCER	TOGGLE	TRUE	Run as Sequence
PSTATMODEL	IQUANT	5	Pstat Model
PSTATSECTION	LABEL	REF3000-16137	Pstat Section
PSTATSERIALNO	LABEL	16137	Pstat Serial Number
CTRLMODE	IQUANT	1	Control Mode
IESTAB	IQUANT	0	I/E Stability
CASPEED	IQUANT	1	Control Amp Speed
CONVENTION	IQUANT	1	Current Convention
ICHRANGE	IQUANT	2	Ich Range
ICHRANGEMODE	TOGGLE	F	Ich Auto Range
ICHOFFSETENABLE	TOGGLE	T	Ich Offset Enable
ICHOFFSET	QUANT	0	Ich Offset (V)
ICHFILTER	IQUANT	3	Ich Filter
VCHRANGE	IQUANT	2	Vch Range
VCHRANGEMODE	TOGGLE	F	Vch Auto Range
VCHOFFSETENABLE	TOGGLE	T	Vch Offset Enable
VCHOFFSET	QUANT	0	Vch Offset (V)
VCHFILTER	IQUANT	3	Vch Filter
ACHRANGE	IQUANT	2	Ach Range
ACHOFFSETENABLE	TOGGLE	F	Ach Offset Enable
ACHOFFSET	QUANT	0	Ach Offset (V)
ACHFILTER	IQUANT	3	Ach Filter
IERANGELOWERLIMIT	IQUANT	2	I/E Range Lower Limit
IERANGEMODE	TOGGLE	F	I/E AutoRange
IERANGE	IQUANT	11	I/E Range
POSFEEDENABLE	TOGGLE	F	Positive Feedback IR Comp
POSFEEDRESISTANCE	QUANT	0	Positive Feedback Resistance (ohm)
ACHSELECT	IQUANT	0	Ach Select
CABLEID	IQUANT	13	Cable ID
DCCALDATE	LABEL	7/31/2020	DC Calibration Date
ACCALDATE	LABEL	7/31/2020	AC Calibration Date
THERMOSELECT	IQUANT	1	Thermo Select
FRAMEWORKVERSION	QUANT	6.33	Framework Version
INSTRUMENTVERSION	LABEL	3.50	Instrument Version
COMPLIANCEVOLTAGE	IQUANT	0	Compliance Voltage
ZCURVE	TABLE
	Pt	Time	Freq	Zreal	Zimag	Zsig	Zmod	Zphz	Idc	Vdc	IERange
	#	s	Hz	ohm	ohm	V	ohm	°	A	V	#
	0	6	300046.9	32.44901	-5.886105	1	32.97855	-10.2814	7.090173E-005	0.0001069	11
	1	11	238359.4	33.37509	-7.000908	1	34.10146	-11.84685	2.349761E-005	0.000467	10
	2	14	189328.1	34.16525	-8.714116	1	35.25904	-14.30866	-0.0001078	0.0004968	10
	3	16	150421.9	35.1047	-10.56867	1	36.66111	-16.75502	4.847034E-006	0.0008105	10
	4	19	119484.4	36.17218	-12.31007	1	38.20948	-18.7944	3.688264E-007	0.0005766	9
	5	21	94921.88	37.29966	-14.63881	1	40.06943	-21.42827	1.820084E-006	0.0003384	9
	6	24	75421.88	38.44768	-17.49751	1	42.242	-24.47025	1.732792E-005	-0.0004251	9
	7	26	59859.37	39.61628	-20.89218	1	44.78764	-27.80552	-9.510047E-006	0.0005788	9
	8	29	47578.12	40.87453	-24.96976	1	47.89797	-31.42025	-1.275041E-005	0.0004726	9
	9	32	37828.12	42.31657	-29.95331	1	51.84489	-35.29234	2.157189E-006	-0.0001385	9
	10	34	30046.88	43.91329	-36.11967	1	56.85955	-39.43806	1.691331E-005	-0.0002388	9
	11	37	23859.38	45.79248	-43.57967	1	63.21502	-43.58167	7.145908E-006	-0.0002594	9
	12	39	18984.38	47.86703	-52.77216	1	71.24713	-47.79038	1.922658E-006	-0.0001556	9
	13	41	15046.87	50.52546	-64.16469	1	81.66963	-51.7819	1.736382E-005	-0.0003196	9
	14	44	11953.13	53.53611	-78.05125	1	94.6473	-55.55339	-1.301746E-005	0.0005697	9
	15	46	9515.62	57.11794	-94.76931	1	110.6512	-58.92242	-1.359632E-005	0.0004123	9
	16	48	7546.875	61.50849	-115.5804	1	130.9279	-61.9794	7.698671E-006	-0.0003051	9
	17	50	5928.309	67.3082	-142.011	1	157.1544	-64.6407	-3.489325E-006	8.966395E-006	9
	18	53	4733.456	73.57437	-172.5182	1	187.552	-66.90306	-1.154375E-005	0.000302	9
	19	55	3796.875	81.3334	-208.4069	1	223.7153	-68.68116	1.488066E-005	-0.0003927	9
	20	57	2987.132	90.58401	-257.4939	1	272.9626	-70.61859	1.840577E-005	-0.0003386	9
	21	60	2390.625	103.7345	-311.3316	1	328.1588	-71.57213	-1.202353E-005	0.0004343	9
	22	62	1884.191	113.5429	-384.7964	1	401.1986	-73.56011	-8.007455E-007	0.0004074	9
	23	64	1516.544	129.7339	-463.3716	1	481.1904	-74.35892	-1.188542E-007	0.0012264	8
	24	67	1193.986	149.0491	-571.2875	1	590.4109	-75.37747	7.891038E-007	0.0009928	8
	25	69	946.5144	171.7161	-701.7085	1	722.4135	-76.2493	-2.103869E-006	0.001483	8
	26	71	751.7689	200.4486	-859.192	1	882.2645	-76.86784	2.759562E-006	-0.0001545	8
	27	74	597.4265	233.7524	-1052.949	1	1078.583	-77.48344	1.145317E-006	0.000199	8
	28	76	477.4305	271.5074	-1286.043	1	1314.391	-78.07887	5.394946E-007	0.000709	8
	29	78	376.6741	320.9036	-1589.09	1	1621.168	-78.58313	5.599094E-007	0.0006726	8
	30	81	298.2954	380.191	-1958.158	1	1994.725	-79.01231	5.581646E-007	0.0006805	8
	31	83	237.7717	450.1162	-2400.245	1	2442.085	-79.37872	5.636256E-007	0.0006799	8
	32	86	189.0121	536.3332	-2951.059	1	2999.4	-79.69934	5.703067E-007	0.0006815	8
	33	88	150.2404	641.7957	-3629.002	1	3685.317	-79.97084	5.602923E-007	0.0006761	8
	34	90	119.1737	774.9483	-4483.188	1	4549.673	-80.19296	6.074347E-008	0.0006528	7
	35	93	95.0169	932.5547	-5502.579	1	5581.042	-80.38114	5.836992E-008	0.0006497	7
	36	95	75.60484	1127.87	-6767.871	1	6861.208	-80.53857	5.859299E-008	0.0006497	7
	37	98	54.50582	1494.187	-9110.214	1	9231.934	-80.68571	6.08693E-008	0.0006443	7
	38	100	45.95588	1732.909	-10623.44	1	10763.85	-80.73544	6.2473E-008	0.0006482	7
	39	103	37.20238	2100.033	-12887.11	1	13057.1	-80.74466	5.767205E-008	0.000667	7
	40	105	30.04808	2542.402	-15611.71	1	15817.37	-80.75045	5.758546E-008	0.0006465	7
	41	107	23.91582	3155.654	-19244.18	1	19501.2	-80.68754	5.845332E-008	0.000649	7
	42	110	18.60119	4032.323	-24119.92	1	24454.66	-80.50917	5.7215E-008	0.0006432	7
	43	112	15.02404	4927.852	-29282.76	1	29694.51	-80.44748	6.020833E-008	0.0006526	7
	44	114	12.01923	6193.559	-35831.29	1	36362.64	-80.19314	5.803716E-008	0.0006504	7
	45	117	9.450605	7909.221	-44497.67	1	45195.11	-79.92124	8.488896E-009	0.0007068	6
	46	119	7.512019	10034.37	-54726.06	1	55638.39	-79.60987	8.062223E-009	0.0006977	6
	47	122	5.978954	12800.03	-67107.12	1	68316.95	-79.2011	8.095628E-009	0.000693	6
	48	127	4.734848	16467.29	-82610.63	1	84235.9	-78.72665	9.256703E-009	0.0007191	6
	49	130	3.75601	21434.99	-101478.5	1	103717.6	-78.07291	8.183318E-009	0.0006865	6
	50	136	3.004808	27302.49	-122590.5	1	125594	-77.4444	8.839826E-009	0.0006919	6
	51	142	2.372217	35721.32	-149647.2	1	153851.6	-76.57452	8.319085E-009	0.0007605	6
	52	146	1.878005	47050.97	-183136.7	1	189084.3	-75.59135	7.628248E-009	0.0006732	6
	53	151	1.512097	61005.63	-219555	1	227873	-74.4715	8.063003E-009	0.0006999	6
	54	156	1.201923	81190.13	-266275.6	1	278378.4	-73.04301	7.902746E-009	0.0006585	6
	55	163	0.956633	107802.8	-320050.7	1	337718.6	-71.38491	7.384388E-009	4.745928E-005	6
