EXPLAIN
TAG	EISPOT
TITLE	LABEL	Potentiostatic EIS	Test Identifier
DATE	LABEL	9/12/2020	Date
TIME	LABEL	16:45:05	Time
NOTES	NOTES	1	Notes...
	
PSTAT	PSTAT	REF3000-16137	Potentiostat
VDC	POTEN	0.00000E+000	T	DC Voltage (V)
FREQINIT	QUANT	3.00000E+005	Initial Freq. (Hz)
FREQFINAL	QUANT	1.00000E+000	Final Freq. (Hz)
PTSPERDEC	QUANT	1.00000E+001	Points/decade
VAC	QUANT	5.00000E+001	AC Voltage (mV rms)
AREA	QUANT	1.00000E+000	Sample Area (cm^2)
SPEED	SELECTOR	2	Optimize for:
ZGUESS	QUANT	1.00000E+003	Estimated Z (ohms)
EOC	QUANT	0	Open Circuit (V)
SEQUENCER	TOGGLE	TRUE	Run as Sequence
PSTATMODEL	IQUANT	5	Pstat Model
PSTATSECTION	LABEL	REF3000-16137	Pstat Section
PSTATSERIALNO	LABEL	16137	Pstat Serial Number
CTRLMODE	IQUANT	1	Control Mode
IESTAB	IQUANT	0	I/E Stability
CASPEED	IQUANT	1	Control Amp Speed
CONVENTION	IQUANT	1	Current Convention
ICHRANGE	IQUANT	2	Ich Range
ICHRANGEMODE	TOGGLE	F	Ich Auto Range
ICHOFFSETENABLE	TOGGLE	T	Ich Offset Enable
ICHOFFSET	QUANT	0	Ich Offset (V)
ICHFILTER	IQUANT	3	Ich Filter
VCHRANGE	IQUANT	2	Vch Range
VCHRANGEMODE	TOGGLE	F	Vch Auto Range
VCHOFFSETENABLE	TOGGLE	T	Vch Offset Enable
VCHOFFSET	QUANT	0	Vch Offset (V)
VCHFILTER	IQUANT	3	Vch Filter
ACHRANGE	IQUANT	2	Ach Range
ACHOFFSETENABLE	TOGGLE	F	Ach Offset Enable
ACHOFFSET	QUANT	0	Ach Offset (V)
ACHFILTER	IQUANT	3	Ach Filter
IERANGELOWERLIMIT	IQUANT	2	I/E Range Lower Limit
IERANGEMODE	TOGGLE	F	I/E AutoRange
IERANGE	IQUANT	11	I/E Range
POSFEEDENABLE	TOGGLE	F	Positive Feedback IR Comp
POSFEEDRESISTANCE	QUANT	0	Positive Feedback Resistance (ohm)
ACHSELECT	IQUANT	0	Ach Select
CABLEID	IQUANT	13	Cable ID
DCCALDATE	LABEL	7/31/2020	DC Calibration Date
ACCALDATE	LABEL	7/31/2020	AC Calibration Date
THERMOSELECT	IQUANT	1	Thermo Select
FRAMEWORKVERSION	QUANT	6.33	Framework Version
INSTRUMENTVERSION	LABEL	3.50	Instrument Version
COMPLIANCEVOLTAGE	IQUANT	0	Compliance Voltage
ZCURVE	TABLE
	Pt	Time	Freq	Zreal	Zimag	Zsig	Zmod	Zphz	Idc	Vdc	IERange
	#	s	Hz	ohm	ohm	V	ohm	°	A	V	#
	0	10	300046.9	3.26698	2.279945	1	3.983881	34.91025	3.107207E-006	-0.0001484	10
	1	13	238359.4	3.215378	1.8062	1	3.687955	29.32458	1.808815E-005	-0.0004016	10
	2	16	189328.1	3.199408	1.426059	1	3.502836	24.02377	6.642592E-006	-0.0001649	10
	3	19	150421.9	3.195454	1.129778	1	3.389296	19.47145	-4.321786E-005	0.0001477	10
	4	21	119484.4	3.209107	0.7193552	1	3.288744	12.63459	3.52375E-005	0.0001666	12
	5	25	94921.88	3.176322	0.6598517	1	3.244138	11.73575	-1.290699E-005	0.0005474	11
	6	27	75421.88	3.172686	0.4932187	1	3.210794	8.836345	8.282719E-006	0.0005759	11
	7	30	59859.37	3.17295	0.3540024	1	3.192637	6.366098	-2.232607E-005	0.0005738	11
	8	32	47578.12	3.175818	0.2348152	1	3.184488	4.228668	1.460923E-005	0.0006678	11
	9	35	37828.12	3.178533	0.1285143	1	3.18113	2.31532	-5.493935E-005	0.0005973	11
	10	38	30046.88	3.182673	0.0292658	1	3.182807	0.5268393	4.728267E-006	0.0006524	11
	11	40	23859.38	3.190104	-0.066934	1	3.190806	-1.20199	-3.442391E-005	0.0006768	11
	12	42	18984.38	3.195672	-0.1646132	1	3.199909	-2.948774	-2.313577E-005	0.0006447	11
	13	45	15046.87	3.204644	-0.2712436	1	3.216103	-4.838028	-4.940076E-005	0.0006354	11
	14	47	11953.13	3.215038	-0.3887956	1	3.238461	-6.895314	-3.302325E-005	0.000644	11
	15	49	9515.62	3.229214	-0.5232744	1	3.271336	-9.204424	1.0824E-005	0.000686	11
	16	52	7546.875	3.246803	-0.6835026	1	3.317967	-11.88807	-2.836196E-005	0.0006807	11
	17	54	5928.309	3.269095	-0.8855398	1	3.386911	-15.15668	-5.2217E-005	0.0006549	11
	18	56	4733.456	3.295984	-1.113649	1	3.479041	-18.66912	-3.350643E-006	0.0006754	11
	19	59	3796.875	3.330241	-1.38358	1	3.606216	-22.5609	-2.199992E-005	0.0006806	11
	20	61	2987.132	3.378795	-1.745723	1	3.803131	-27.32405	-2.575967E-005	0.0006593	10
	21	63	2390.625	3.43315	-2.156819	1	4.054428	-32.13841	-1.274201E-005	0.0006471	10
	22	66	1884.191	3.507721	-2.696855	1	4.424605	-37.55431	1.447453E-005	0.0006426	10
	23	68	1516.544	3.594165	-3.30179	1	4.880557	-42.57222	-2.986716E-005	0.0006668	10
	24	70	1193.986	3.713869	-4.118951	1	5.546041	-47.96047	1.473255E-005	0.0006426	10
	25	73	946.5144	3.86025	-5.10388	1	6.399306	-52.89846	-3.409501E-005	0.0006487	10
	26	75	751.7689	4.04884	-6.30559	1	7.493568	-57.29535	-2.672938E-005	0.0006591	10
	27	77	597.4265	4.287786	-7.783003	1	8.885958	-61.1489	1.154732E-005	0.0006449	10
	28	80	477.4305	4.589741	-9.55443	1	10.59966	-64.34138	-4.884311E-006	0.0006532	10
	29	82	376.6741	5.005416	-11.86012	1	12.87309	-67.11842	-4.501532E-006	0.0006484	10
	30	84	298.2954	5.545581	-14.66011	1	15.67394	-69.27953	-4.899094E-006	0.0006532	10
	31	86	237.7717	6.238377	-17.98845	1	19.03947	-70.8735	-5.122811E-006	0.0006517	10
	32	89	189.0121	7.162658	-22.09632	1	23.22824	-72.03958	-5.039039E-006	0.0006506	10
	33	91	150.2404	8.380777	-27.07837	1	28.34565	-72.80267	-5.200155E-006	0.000651	10
	34	94	119.1737	9.9962	-33.17641	1	34.64965	-73.23221	-4.934592E-006	0.0006555	10
	35	96	95.0169	12.04666	-40.32621	1	42.08712	-73.36753	-5.132012E-006	0.0006546	10
	36	99	75.60484	14.68231	-48.89116	1	51.04817	-73.28468	-2.020769E-006	5.250964E-005	9
	37	101	54.50582	19.72585	-64.09798	1	67.06459	-72.8945	-2.191363E-006	5.07088E-005	9
	38	104	45.95588	23.03571	-73.63283	1	77.15204	-72.62794	-1.899925E-006	5.934537E-005	9
	39	106	37.20238	27.85085	-87.20618	1	91.54555	-72.28819	-1.991283E-006	6.398019E-005	9
	40	108	30.04808	33.53652	-103.185	1	108.4981	-71.99514	-1.991349E-006	5.829334E-005	9
	41	111	23.91582	40.65393	-123.4454	1	129.9674	-71.77189	-1.992495E-006	5.163449E-005	9
	42	113	18.60119	49.8431	-150.3976	1	158.4417	-71.66435	-1.988353E-006	6.107982E-005	9
	43	115	15.02404	58.91829	-178.1726	1	187.6615	-71.70193	-1.966091E-006	5.171807E-005	9
	44	118	12.01923	70.05423	-213.0903	1	224.3102	-71.80153	-1.856593E-006	5.712133E-005	9
	45	120	9.450605	84.80428	-259.372	1	272.8839	-71.89433	-2.036006E-006	5.908759E-005	9
	46	123	7.512019	102.406	-313.9359	1	330.2161	-71.93366	-1.783483E-006	4.393183E-005	9
	47	125	5.978954	125.6408	-380.2004	1	400.4222	-71.71338	-1.690209E-006	5.450331E-005	9
	48	128	4.734848	157.3721	-461.1758	1	487.2874	-71.15826	-2.490182E-006	0.0006245	8
	49	132	3.75601	201.5381	-559.1887	1	594.3985	-70.18024	-2.300665E-006	0.0006493	8
	50	135	3.004808	260.7922	-670.0761	1	719.0373	-68.73412	-2.355421E-006	0.0006279	8
	51	139	2.372217	349.3336	-805.7437	1	878.2123	-66.56065	-2.416075E-006	0.0005679	8
	52	143	1.878005	467.7909	-955.782	1	1064.118	-63.92136	-2.26019E-006	0.0006372	8
	53	148	1.512097	612.2323	-1099.958	1	1258.863	-60.89987	-2.29144E-006	0.0006005	8
	54	153	1.201923	812.1645	-1256.211	1	1495.887	-57.11656	-2.248784E-006	0.0006593	8
	55	160	0.956633	1054.07	-1393.819	1	1747.511	-52.90176	-2.537569E-006	-3.068149E-006	8
