EXPLAIN
TAG	EISPOT
TITLE	LABEL	Potentiostatic EIS	Test Identifier
DATE	LABEL	9/12/2020	Date
TIME	LABEL	18:23:06	Time
NOTES	NOTES	1	Notes...
	
PSTAT	PSTAT	REF3000-16137	Potentiostat
VDC	POTEN	0.00000E+000	T	DC Voltage (V)
FREQINIT	QUANT	3.00000E+005	Initial Freq. (Hz)
FREQFINAL	QUANT	1.00000E+000	Final Freq. (Hz)
PTSPERDEC	QUANT	1.00000E+001	Points/decade
VAC	QUANT	5.00000E+001	AC Voltage (mV rms)
AREA	QUANT	1.00000E+000	Sample Area (cm^2)
SPEED	SELECTOR	2	Optimize for:
ZGUESS	QUANT	1.00000E+003	Estimated Z (ohms)
EOC	QUANT	0	Open Circuit (V)
SEQUENCER	TOGGLE	TRUE	Run as Sequence
PSTATMODEL	IQUANT	5	Pstat Model
PSTATSECTION	LABEL	REF3000-16137	Pstat Section
PSTATSERIALNO	LABEL	16137	Pstat Serial Number
CTRLMODE	IQUANT	1	Control Mode
IESTAB	IQUANT	0	I/E Stability
CASPEED	IQUANT	1	Control Amp Speed
CONVENTION	IQUANT	1	Current Convention
ICHRANGE	IQUANT	2	Ich Range
ICHRANGEMODE	TOGGLE	F	Ich Auto Range
ICHOFFSETENABLE	TOGGLE	T	Ich Offset Enable
ICHOFFSET	QUANT	0	Ich Offset (V)
ICHFILTER	IQUANT	3	Ich Filter
VCHRANGE	IQUANT	2	Vch Range
VCHRANGEMODE	TOGGLE	F	Vch Auto Range
VCHOFFSETENABLE	TOGGLE	T	Vch Offset Enable
VCHOFFSET	QUANT	0	Vch Offset (V)
VCHFILTER	IQUANT	3	Vch Filter
ACHRANGE	IQUANT	2	Ach Range
ACHOFFSETENABLE	TOGGLE	F	Ach Offset Enable
ACHOFFSET	QUANT	0	Ach Offset (V)
ACHFILTER	IQUANT	3	Ach Filter
IERANGELOWERLIMIT	IQUANT	2	I/E Range Lower Limit
IERANGEMODE	TOGGLE	F	I/E AutoRange
IERANGE	IQUANT	11	I/E Range
POSFEEDENABLE	TOGGLE	F	Positive Feedback IR Comp
POSFEEDRESISTANCE	QUANT	0	Positive Feedback Resistance (ohm)
ACHSELECT	IQUANT	0	Ach Select
CABLEID	IQUANT	13	Cable ID
DCCALDATE	LABEL	7/31/2020	DC Calibration Date
ACCALDATE	LABEL	7/31/2020	AC Calibration Date
THERMOSELECT	IQUANT	1	Thermo Select
FRAMEWORKVERSION	QUANT	6.33	Framework Version
INSTRUMENTVERSION	LABEL	3.50	Instrument Version
COMPLIANCEVOLTAGE	IQUANT	0	Compliance Voltage
ZCURVE	TABLE
	Pt	Time	Freq	Zreal	Zimag	Zsig	Zmod	Zphz	Idc	Vdc	IERange
	#	s	Hz	ohm	ohm	V	ohm	°	A	V	#
	0	16	300046.9	1200.278	-3658.463	1	3850.327	-71.83624	5.025757E-005	5.55982E-006	9
	1	30	238359.4	1708.092	-4171.873	1	4508.004	-67.73431	1.934908E-005	-0.0010361	9
	2	44	189328.1	2264.467	-5205.078	1	5676.323	-66.48857	2.713953E-005	-0.0019695	9
	3	53	150421.9	3000.252	-5857.344	1	6581.032	-62.87754	9.447186E-007	0.0017064	9
	4	60	119484.4	4508.32	-6687.695	1	8065.372	-56.01524	-3.983492E-005	0.0221431	8
	5	68	94921.88	5784.789	-7506.023	1	9476.506	-52.37905	1.723875E-005	0.0001009	8
	6	76	75421.88	7330.229	-8327.732	1	11094.3	-48.64515	2.288401E-005	-0.0029844	8
	7	85	59859.37	9206.531	-9024.661	1	12892.04	-44.42845	-1.605628E-005	0.0007357	8
	8	93	47578.12	11351.32	-9222.024	1	14625.26	-39.09105	-1.591887E-005	0.0007254	8
	9	102	37828.12	13328.15	-9416.254	1	16318.87	-35.24097	-2.638264E-005	0.0096445	8
	10	111	30046.88	16500.45	-8075.359	1	18370.52	-26.07724	-6.857984E-006	0.021879	7
	11	116	23859.38	18128.36	-7464.608	1	19605.05	-22.3801	-3.668545E-006	0.0241434	7
	12	121	18984.38	19713.34	-6649.558	1	20804.63	-18.6399	-1.786646E-006	0.0216652	7
	13	125	15046.87	20676.26	-5922.406	1	21507.73	-15.98357	4.431578E-006	4.296491E-005	7
	14	129	11953.13	21760.97	-5190.698	1	22371.48	-13.4162	-6.898739E-006	0.0175356	7
	15	133	9515.62	22750	-4467.396	1	23184.48	-11.10976	5.166027E-006	-0.0253717	7
	16	138	7546.875	23693.44	-3925.484	1	24016.42	-9.407204	1.707081E-007	0.0158468	7
	17	142	5928.309	24468.76	-3260.577	1	24685.04	-7.590218	-6.316183E-006	0.0110275	7
	18	147	4733.456	25022.92	-3299.786	1	25239.56	-7.51228	2.560601E-005	-0.008901	8
	19	154	3796.875	26234.45	-2662.747	1	26369.23	-5.795566	-8.799278E-006	-0.0002125	9
	20	161	2987.132	27287.52	-2197.55	1	27375.86	-4.604274	-3.091638E-006	-0.0052901	7
	21	167	2390.625	28267.05	-1299.683	1	28296.92	-2.632532	-2.031189E-005	0.0028562	8
	22	173	1884.191	28659.91	-4070.144	1	28947.48	-8.082824	2.694046E-005	-0.0073879	8
	23	181	1516.544	29981.09	-1011.924	1	29998.16	-1.933118	-2.382095E-005	0.0053342	8
	24	188	1193.986	29697.23	-1726.454	1	29747.38	-3.327155	2.895192E-005	-0.000865	9
	25	195	946.5144	32448.58	1624.485	1	32489.22	2.866027	-2.402521E-005	0.0054052	8
	26	200	751.7689	34522.08	2655.911	1	34624.09	4.399311	-1.837994E-006	0.0075982	8
	27	205	597.4265	31448.99	-2073.418	1	31517.26	-3.772027	-1.3345E-006	-0.0050435	8
	28	210	477.4305	33865.54	-589.1202	1	33870.66	-0.996609	-1.01656E-007	0.0006743	7
	29	213	376.6741	34239.83	-490.5374	1	34243.34	-0.8207926	-9.596902E-008	0.0006508	7
	30	215	298.2954	34602.78	-421.8918	1	34605.35	-0.69854	-8.845007E-008	0.0005556	7
	31	218	237.7717	35000.51	-366.1158	1	35002.43	-0.599309	-9.218865E-008	0.000587	7
	32	220	189.0121	35403.99	-326.1447	1	35405.49	-0.5277988	-9.494791E-008	0.0006394	7
	33	222	150.2404	35790.62	-282.2395	1	35791.73	-0.4518166	-9.72282E-008	0.0006242	7
	34	225	119.1737	36221.66	-336.1846	1	36223.22	-0.5317647	-9.918998E-008	0.0006382	7
	35	227	95.0169	36613.89	-265.159	1	36614.86	-0.4149307	-8.402224E-008	0.0005753	7
	36	230	75.60484	37130.64	-189.8858	1	37131.12	-0.2930076	-1.46423E-008	0.0006019	6
	37	232	54.50582	37609.79	-253.0932	1	37610.64	-0.3855632	-1.229519E-008	0.0006937	6
	38	235	45.95588	37995.35	-274.3412	1	37996.34	-0.4136907	-1.215252E-008	0.0007342	6
	39	237	37.20238	38414.37	-324.8703	1	38415.74	-0.4845389	-2.236717E-008	0.0006994	6
	40	240	30.04808	38859.29	-384.8549	1	38861.2	-0.5674277	-1.66431E-008	0.0006307	6
	41	242	23.91582	39310.05	-463.2182	1	39312.78	-0.6751255	-1.720995E-008	0.0006895	6
	42	244	18.60119	39703.74	-605.8649	1	39708.36	-0.8742453	-2.971276E-008	0.0007081	6
	43	247	15.02404	40177.14	-709.8616	1	40183.41	-1.012213	-9.372484E-010	0.0006817	6
	44	249	12.01923	40642.33	-842.5643	1	40651.06	-1.18764	-3.333885E-008	0.0006084	6
	45	251	9.450605	41103.16	-1076.064	1	41117.24	-1.499638	9.412363E-009	0.0006436	6
	46	254	7.512019	41639.78	-1351.679	1	41661.71	-1.859239	1.132474E-008	0.0006254	6
	47	257	5.978954	42271.29	-1667.132	1	42304.15	-2.258511	7.566586E-009	0.0006247	6
	48	260	4.734848	42919.72	-2048.229	1	42968.57	-2.732214	5.175074E-009	0.0006291	6
	49	263	3.75601	43654.71	-2539.048	1	43728.49	-3.32869	-2.650408E-008	0.000617	6
	50	266	3.004808	44522.52	-3182.123	1	44636.09	-4.088105	-4.10083E-008	0.000636	6
	51	270	2.372217	45477.84	-3754.032	1	45632.52	-4.718862	3.692418E-009	0.000706	6
	52	274	1.878005	46514.97	-4726.354	1	46754.47	-5.801872	-8.81541E-009	0.0006225	6
	53	279	1.512097	47756.97	-5876.077	1	48117.11	-7.014487	-2.238069E-008	0.0007428	6
	54	284	1.201923	49345.09	-7154.741	1	49861.09	-8.25005	1.931625E-009	0.0006178	6
	55	291	0.956633	51246.71	-8942.098	1	52021.02	-9.89795	-3.975449E-008	1.062413E-005	6
