EXPLAIN
TAG	EISPOT
TITLE	LABEL	Potentiostatic EIS	Test Identifier
DATE	LABEL	9/12/2020	Date
TIME	LABEL	16:42:16	Time
NOTES	NOTES	1	Notes...
	
PSTAT	PSTAT	REF3000-16137	Potentiostat
VDC	POTEN	0.00000E+000	T	DC Voltage (V)
FREQINIT	QUANT	3.00000E+005	Initial Freq. (Hz)
FREQFINAL	QUANT	1.00000E+000	Final Freq. (Hz)
PTSPERDEC	QUANT	1.00000E+001	Points/decade
VAC	QUANT	5.00000E+001	AC Voltage (mV rms)
AREA	QUANT	1.00000E+000	Sample Area (cm^2)
SPEED	SELECTOR	2	Optimize for:
ZGUESS	QUANT	1.00000E+003	Estimated Z (ohms)
EOC	QUANT	0	Open Circuit (V)
SEQUENCER	TOGGLE	TRUE	Run as Sequence
PSTATMODEL	IQUANT	5	Pstat Model
PSTATSECTION	LABEL	REF3000-16137	Pstat Section
PSTATSERIALNO	LABEL	16137	Pstat Serial Number
CTRLMODE	IQUANT	1	Control Mode
IESTAB	IQUANT	0	I/E Stability
CASPEED	IQUANT	1	Control Amp Speed
CONVENTION	IQUANT	1	Current Convention
ICHRANGE	IQUANT	2	Ich Range
ICHRANGEMODE	TOGGLE	F	Ich Auto Range
ICHOFFSETENABLE	TOGGLE	T	Ich Offset Enable
ICHOFFSET	QUANT	0	Ich Offset (V)
ICHFILTER	IQUANT	3	Ich Filter
VCHRANGE	IQUANT	2	Vch Range
VCHRANGEMODE	TOGGLE	F	Vch Auto Range
VCHOFFSETENABLE	TOGGLE	T	Vch Offset Enable
VCHOFFSET	QUANT	0	Vch Offset (V)
VCHFILTER	IQUANT	3	Vch Filter
ACHRANGE	IQUANT	2	Ach Range
ACHOFFSETENABLE	TOGGLE	F	Ach Offset Enable
ACHOFFSET	QUANT	0	Ach Offset (V)
ACHFILTER	IQUANT	3	Ach Filter
IERANGELOWERLIMIT	IQUANT	2	I/E Range Lower Limit
IERANGEMODE	TOGGLE	F	I/E AutoRange
IERANGE	IQUANT	11	I/E Range
POSFEEDENABLE	TOGGLE	F	Positive Feedback IR Comp
POSFEEDRESISTANCE	QUANT	0	Positive Feedback Resistance (ohm)
ACHSELECT	IQUANT	0	Ach Select
CABLEID	IQUANT	13	Cable ID
DCCALDATE	LABEL	7/31/2020	DC Calibration Date
ACCALDATE	LABEL	7/31/2020	AC Calibration Date
THERMOSELECT	IQUANT	1	Thermo Select
FRAMEWORKVERSION	QUANT	6.33	Framework Version
INSTRUMENTVERSION	LABEL	3.50	Instrument Version
COMPLIANCEVOLTAGE	IQUANT	0	Compliance Voltage
ZCURVE	TABLE
	Pt	Time	Freq	Zreal	Zimag	Zsig	Zmod	Zphz	Idc	Vdc	IERange
	#	s	Hz	ohm	ohm	V	ohm	°	A	V	#
	0	10	300046.9	3.171735	2.259973	1	3.894532	35.47121	5.951753E-005	-0.0003176	10
	1	13	238359.4	3.134047	1.805397	1	3.616865	29.9445	2.221983E-005	-0.0003934	10
	2	16	189328.1	3.117064	1.428542	1	3.428822	24.62186	5.009383E-005	-0.0003363	10
	3	19	150421.9	3.146635	0.9337162	1	3.282246	16.52746	-0.0001304	0.0001105	12
	4	22	119484.4	3.092955	0.8573995	1	3.209596	15.49393	9.558735E-006	0.0005271	11
	5	25	94921.88	3.085476	0.659462	1	3.155163	12.06437	1.926126E-005	0.0005639	11
	6	27	75421.88	3.08321	0.4958919	1	3.122833	9.13699	-3.083406E-005	0.0005795	11
	7	30	59859.37	3.081795	0.356131	1	3.102304	6.59184	-1.515162E-005	0.0005915	11
	8	32	47578.12	3.083002	0.2368175	1	3.092084	4.392488	-2.234325E-005	0.0006434	11
	9	35	37828.12	3.085263	0.1306559	1	3.088028	2.424935	-3.612111E-005	0.0006444	11
	10	37	30046.88	3.088126	0.0319475	1	3.088291	0.5927196	-2.495283E-005	0.0006317	11
	11	40	23859.38	3.093192	-0.0642199	1	3.093858	-1.189386	1.588604E-005	0.0006916	11
	12	42	18984.38	3.098433	-0.1611112	1	3.102619	-2.976565	-3.944537E-005	0.0006345	11
	13	45	15046.87	3.106077	-0.2667172	1	3.117507	-4.907919	8.510811E-006	0.0006698	11
	14	47	11953.13	3.116376	-0.3833218	1	3.139862	-7.012297	1.279956E-005	0.0006871	11
	15	49	9515.62	3.128587	-0.5159744	1	3.17085	-9.365062	1.554932E-005	0.0006911	11
	16	52	7546.875	3.145318	-0.6756515	1	3.217068	-12.12358	-1.513721E-005	0.0006706	11
	17	54	5928.309	3.166582	-0.8745462	1	3.285129	-15.43908	2.29152E-005	0.0007016	11
	18	56	4733.456	3.19338	-1.10012	1	3.377564	-19.00883	-2.999852E-005	0.0006742	11
	19	58	3796.875	3.225102	-1.367747	1	3.503143	-22.98152	-5.430428E-005	0.000639	11
	20	61	2987.132	3.274083	-1.724066	1	3.700273	-27.77039	-2.752986E-005	0.000662	10
	21	63	2390.625	3.327347	-2.130576	1	3.951024	-32.63235	6.633015E-006	0.0006175	10
	22	65	1884.191	3.401134	-2.662296	1	4.319205	-38.05267	1.18037E-005	0.0006195	10
	23	68	1516.544	3.486356	-3.25829	1	4.771911	-43.06332	1.29926E-005	0.0006199	10
	24	70	1193.986	3.60444	-4.064794	1	5.432728	-48.43512	1.191641E-005	0.0006213	10
	25	73	946.5144	3.748535	-5.036271	1	6.278179	-53.33941	1.779921E-005	0.000648	10
	26	75	751.7689	3.935668	-6.219927	1	7.3605	-57.67636	-2.816157E-005	0.0007134	10
	27	77	597.4265	4.172999	-7.677603	1	8.738393	-61.47464	-3.059223E-005	0.0006611	10
	28	80	477.4305	4.474188	-9.424069	1	10.43223	-64.60342	-5.074387E-006	0.0006597	10
	29	82	376.6741	4.889176	-11.69542	1	12.67624	-67.31303	-5.346074E-006	0.0006514	10
	30	84	298.2954	5.429361	-14.45148	1	15.43773	-69.40901	-5.241954E-006	0.000653	10
	31	86	237.7717	6.122616	-17.72436	1	18.75205	-70.9433	-5.209301E-006	0.0006544	10
	32	89	189.0121	7.045512	-21.75894	1	22.87118	-72.05813	-5.188434E-006	0.0006508	10
	33	91	150.2404	8.259408	-26.64767	1	27.89832	-72.77925	-5.534765E-006	0.0006483	10
	34	94	119.1737	9.86398	-32.62494	1	34.0835	-73.17759	-5.179203E-006	0.0006506	10
	35	96	95.0169	11.89204	-39.62566	1	41.37165	-73.295	-5.28702E-006	0.0006506	10
	36	99	75.60484	14.49088	-48.00969	1	50.14893	-73.20449	-2.606274E-006	5.013469E-005	9
	37	101	54.50582	19.43678	-62.89904	1	65.83371	-72.82804	-2.642789E-006	4.777929E-005	9
	38	104	45.95588	22.67664	-72.24448	1	75.71985	-72.57358	-2.453161E-006	5.722058E-005	9
	39	106	37.20238	27.35415	-85.50684	1	89.77566	-72.26022	-2.5262E-006	5.286696E-005	9
	40	108	30.04808	32.93766	-101.2594	1	106.4818	-71.98134	-2.627497E-006	5.160114E-005	9
	41	111	23.91582	39.93265	-121.2376	1	127.6447	-71.76941	-2.752276E-006	5.307194E-005	9
	42	113	18.60119	48.86264	-147.7145	1	155.5864	-71.69625	-2.426207E-006	5.127499E-005	9
	43	115	15.02404	57.82313	-175.0842	1	184.3854	-71.72372	-2.254868E-006	5.837178E-005	9
	44	118	12.01923	69.00056	-209.6151	1	220.6798	-71.77962	-2.631011E-006	5.083253E-005	9
	45	120	9.450605	83.75964	-255.2585	1	268.6495	-71.83345	-2.429919E-006	6.385324E-005	9
	46	123	7.512019	102.2688	-309.1257	1	325.6034	-71.69411	-2.382008E-006	5.056576E-005	9
	47	125	5.978954	126.1042	-374.0561	1	394.7408	-71.36967	-2.373179E-006	6.099889E-005	9
	48	128	4.734848	159.4255	-452.9511	1	480.1887	-70.60943	-2.956221E-006	0.0006321	8
	49	132	3.75601	205.7256	-548.0682	1	585.4074	-69.42562	-2.958319E-006	0.0006476	8
	50	135	3.004808	267.4518	-654.446	1	706.9866	-67.77168	-2.837843E-006	0.0006168	8
	51	139	2.372217	358.9857	-782.5794	1	860.9885	-65.35808	-2.939652E-006	0.0005646	8
	52	143	1.878005	480.5593	-921.08	1	1038.906	-62.44739	-2.756389E-006	0.0006413	8
	53	148	1.512097	625.6412	-1051.589	1	1223.628	-59.24953	-2.803997E-006	0.0006565	8
	54	153	1.201923	824.7155	-1185.426	1	1444.088	-55.17319	-2.734042E-006	0.0006527	8
	55	159	0.956633	1057.836	-1296.678	1	1673.437	-50.79227	-3.13725E-006	3.419107E-005	8
