EXPLAIN
TAG	EISPOT
TITLE	LABEL	Potentiostatic EIS	Test Identifier
DATE	LABEL	9/12/2020	Date
TIME	LABEL	17:38:01	Time
NOTES	NOTES	1	Notes...
	
PSTAT	PSTAT	REF3000-16137	Potentiostat
VDC	POTEN	0.00000E+000	T	DC Voltage (V)
FREQINIT	QUANT	3.00000E+005	Initial Freq. (Hz)
FREQFINAL	QUANT	1.00000E+000	Final Freq. (Hz)
PTSPERDEC	QUANT	1.00000E+001	Points/decade
VAC	QUANT	5.00000E+001	AC Voltage (mV rms)
AREA	QUANT	1.00000E+000	Sample Area (cm^2)
SPEED	SELECTOR	2	Optimize for:
ZGUESS	QUANT	1.00000E+003	Estimated Z (ohms)
EOC	QUANT	0	Open Circuit (V)
SEQUENCER	TOGGLE	TRUE	Run as Sequence
PSTATMODEL	IQUANT	5	Pstat Model
PSTATSECTION	LABEL	REF3000-16137	Pstat Section
PSTATSERIALNO	LABEL	16137	Pstat Serial Number
CTRLMODE	IQUANT	1	Control Mode
IESTAB	IQUANT	0	I/E Stability
CASPEED	IQUANT	1	Control Amp Speed
CONVENTION	IQUANT	1	Current Convention
ICHRANGE	IQUANT	2	Ich Range
ICHRANGEMODE	TOGGLE	F	Ich Auto Range
ICHOFFSETENABLE	TOGGLE	T	Ich Offset Enable
ICHOFFSET	QUANT	0	Ich Offset (V)
ICHFILTER	IQUANT	3	Ich Filter
VCHRANGE	IQUANT	2	Vch Range
VCHRANGEMODE	TOGGLE	F	Vch Auto Range
VCHOFFSETENABLE	TOGGLE	T	Vch Offset Enable
VCHOFFSET	QUANT	0	Vch Offset (V)
VCHFILTER	IQUANT	3	Vch Filter
ACHRANGE	IQUANT	2	Ach Range
ACHOFFSETENABLE	TOGGLE	F	Ach Offset Enable
ACHOFFSET	QUANT	0	Ach Offset (V)
ACHFILTER	IQUANT	3	Ach Filter
IERANGELOWERLIMIT	IQUANT	2	I/E Range Lower Limit
IERANGEMODE	TOGGLE	F	I/E AutoRange
IERANGE	IQUANT	11	I/E Range
POSFEEDENABLE	TOGGLE	F	Positive Feedback IR Comp
POSFEEDRESISTANCE	QUANT	0	Positive Feedback Resistance (ohm)
ACHSELECT	IQUANT	0	Ach Select
CABLEID	IQUANT	13	Cable ID
DCCALDATE	LABEL	7/31/2020	DC Calibration Date
ACCALDATE	LABEL	7/31/2020	AC Calibration Date
THERMOSELECT	IQUANT	1	Thermo Select
FRAMEWORKVERSION	QUANT	6.33	Framework Version
INSTRUMENTVERSION	LABEL	3.50	Instrument Version
COMPLIANCEVOLTAGE	IQUANT	0	Compliance Voltage
ZCURVE	TABLE
	Pt	Time	Freq	Zreal	Zimag	Zsig	Zmod	Zphz	Idc	Vdc	IERange
	#	s	Hz	ohm	ohm	V	ohm	°	A	V	#
	0	7	300046.9	24.25603	1.543093	1	24.30507	3.640073	6.235872E-005	-0.0002348	11
	1	11	238359.4	24.42812	1.509099	1	24.47469	3.535077	2.847067E-005	0.0006679	10
	2	16	189328.1	24.5147	0.970169	1	24.53389	2.266297	1.131763E-005	0.0006786	11
	3	19	150421.9	24.61997	0.925858	1	24.63737	2.153649	7.102041E-005	0.0002403	10
	4	23	119484.4	24.74459	0.7158263	1	24.75494	1.657024	7.517151E-005	0.0003158	10
	5	27	94921.88	24.81997	0.544013	1	24.82593	1.255629	-1.131551E-005	0.0006012	10
	6	29	75421.88	24.94518	0.385152	1	24.94816	0.8845726	-1.078213E-005	0.0005916	10
	7	33	59859.37	25.03049	0.2522343	1	25.03176	0.5773547	-2.635922E-005	0.0006243	10
	8	36	47578.12	25.11083	0.1326507	1	25.11118	0.3026684	-2.733983E-005	0.0006363	10
	9	38	37828.12	25.19763	0.025578	1	25.19765	0.0581607	2.319364E-005	0.0005805	10
	10	41	30046.88	25.28374	-0.0808365	1	25.28387	-0.1831839	-1.298366E-005	0.0007097	10
	11	43	23859.38	25.36675	-0.1845606	1	25.36742	-0.4168589	-1.575937E-005	0.0006525	10
	12	46	18984.38	25.45023	-0.2990837	1	25.45199	-0.6732923	-1.433535E-005	0.0006342	10
	13	48	15046.87	25.53514	-0.4249252	1	25.53868	-0.95336	-2.764028E-005	0.000723	10
	14	50	11953.13	25.61532	-0.5738002	1	25.62175	-1.283249	1.438631E-005	0.0005849	10
	15	53	9515.62	25.70885	-0.7461557	1	25.71967	-1.662446	8.88284E-006	0.000693	10
	16	55	7546.875	25.79984	-0.954856	1	25.8175	-2.119559	-6.937279E-006	0.0006426	10
	17	57	5928.309	25.90015	-1.222185	1	25.92897	-2.701689	-2.713415E-005	0.0006932	10
	18	59	4733.456	26.0099	-1.528217	1	26.05475	-3.362559	1.441052E-005	0.000583	10
	19	62	3796.875	26.11756	-1.883879	1	26.18542	-4.125641	-1.145791E-005	0.0006238	10
	20	64	2987.132	26.23714	-2.367528	1	26.34374	-5.156164	-1.693966E-005	0.0006483	10
	21	66	2390.625	26.36588	-2.929782	1	26.52816	-6.340705	2.04373E-005	0.0005796	10
	22	69	1884.191	26.51772	-3.672487	1	26.77082	-7.88484	-2.561334E-005	0.0006628	10
	23	71	1516.544	26.67742	-4.514427	1	27.0567	-9.60476	-1.436214E-005	0.0006937	10
	24	73	1193.986	26.8775	-5.654109	1	27.46578	-11.87986	-2.965901E-005	0.000683	10
	25	76	946.5144	27.10114	-7.047187	1	28.00241	-14.57598	-2.590776E-005	0.000646	10
	26	78	751.7689	27.37037	-8.734204	1	28.73019	-17.69849	2.062379E-005	0.0005918	10
	27	80	597.4265	27.68894	-10.84114	1	29.73563	-21.382	-2.476841E-005	0.0006676	10
	28	83	477.4305	28.06531	-13.37118	1	31.08778	-25.47457	-1.938045E-006	0.0006554	10
	29	85	376.6741	28.55955	-16.67984	1	33.07363	-30.28652	-1.751173E-006	0.0006518	10
	30	87	298.2954	29.16496	-20.71952	1	35.7756	-35.39094	-2.247133E-006	0.0007084	10
	31	90	237.7717	29.86857	-25.52819	1	39.29147	-40.51998	1.235375E-006	5.144822E-005	9
	32	92	189.0121	30.79388	-31.54754	1	44.08526	-45.69263	1.24839E-006	5.118742E-005	9
	33	95	150.2404	31.94392	-38.95639	1	50.37871	-50.64852	1.21074E-006	4.165923E-005	9
	34	97	119.1737	33.38655	-48.17144	1	58.61015	-55.27504	1.214605E-006	5.359936E-005	9
	35	99	95.0169	35.1386	-59.25861	1	68.89342	-59.33332	1.213004E-006	4.858546E-005	9
	36	102	75.60484	37.34008	-73.01372	1	82.00784	-62.91426	1.245524E-006	4.750182E-005	9
	37	104	54.50582	41.44636	-98.4149	1	106.7862	-67.16213	1.218222E-006	4.898033E-005	9
	38	107	45.95588	44.24279	-115.0066	1	123.2232	-68.95838	1.128425E-006	5.229103E-005	9
	39	109	37.20238	48.45626	-139.4421	1	147.6215	-70.83762	1.143227E-006	5.468323E-005	9
	40	112	30.04808	53.86948	-169.3921	1	177.7515	-72.35847	1.286901E-006	4.668546E-005	9
	41	114	23.91582	61.32392	-208.414	1	217.2488	-73.60397	1.107879E-006	4.961917E-005	9
	42	116	18.60119	72.1637	-261.5782	1	271.3499	-74.57699	1.092646E-006	5.197817E-005	9
	43	119	15.02404	84.37782	-316.8648	1	327.9069	-75.08875	1.177168E-006	5.717377E-005	9
	44	121	12.01923	101.0972	-386.4357	1	399.4411	-75.33916	1.115466E-006	0.0001085	9
	45	124	9.450605	124.1757	-475.4844	1	491.4316	-75.36375	5.265387E-007	0.00064	8
	46	126	7.512019	153.4667	-579.9602	1	599.9216	-75.17834	5.863229E-007	0.0006453	8
	47	129	5.978954	190.6891	-704.7271	1	730.0703	-74.85915	4.466978E-007	0.0006262	8
	48	132	4.734848	239.2439	-856.4683	1	889.2557	-74.39295	5.255449E-007	0.0006529	8
	49	135	3.75601	299.3218	-1036.445	1	1078.801	-73.89146	4.663749E-007	0.0006261	8
	50	139	3.004808	368.7185	-1240.398	1	1294.04	-73.44498	4.443388E-007	0.0006665	8
	51	142	2.372217	455.8679	-1495.326	1	1563.271	-73.04554	4.607144E-007	0.000659	8
	52	146	1.878005	559.8179	-1798.664	1	1883.77	-72.71172	4.976382E-007	0.0006042	8
	53	151	1.512097	663.0515	-2132.896	1	2233.581	-72.73115	4.640136E-007	0.000712	8
	54	157	1.201923	792.4999	-2559.968	1	2679.83	-72.79883	4.967439E-007	0.0006291	8
	55	163	0.956633	931.771	-3073.665	1	3211.793	-73.1355	4.449623E-007	-1.013919E-005	8
