EXPLAIN
TAG	EISPOT
TITLE	LABEL	Potentiostatic EIS	Test Identifier
DATE	LABEL	9/12/2020	Date
TIME	LABEL	17:49:09	Time
NOTES	NOTES	1	Notes...
	
PSTAT	PSTAT	REF3000-16137	Potentiostat
VDC	POTEN	0.00000E+000	T	DC Voltage (V)
FREQINIT	QUANT	3.00000E+005	Initial Freq. (Hz)
FREQFINAL	QUANT	1.00000E+000	Final Freq. (Hz)
PTSPERDEC	QUANT	1.00000E+001	Points/decade
VAC	QUANT	5.00000E+001	AC Voltage (mV rms)
AREA	QUANT	1.00000E+000	Sample Area (cm^2)
SPEED	SELECTOR	2	Optimize for:
ZGUESS	QUANT	1.00000E+003	Estimated Z (ohms)
EOC	QUANT	0	Open Circuit (V)
SEQUENCER	TOGGLE	TRUE	Run as Sequence
PSTATMODEL	IQUANT	5	Pstat Model
PSTATSECTION	LABEL	REF3000-16137	Pstat Section
PSTATSERIALNO	LABEL	16137	Pstat Serial Number
CTRLMODE	IQUANT	1	Control Mode
IESTAB	IQUANT	0	I/E Stability
CASPEED	IQUANT	1	Control Amp Speed
CONVENTION	IQUANT	1	Current Convention
ICHRANGE	IQUANT	2	Ich Range
ICHRANGEMODE	TOGGLE	F	Ich Auto Range
ICHOFFSETENABLE	TOGGLE	T	Ich Offset Enable
ICHOFFSET	QUANT	0	Ich Offset (V)
ICHFILTER	IQUANT	3	Ich Filter
VCHRANGE	IQUANT	2	Vch Range
VCHRANGEMODE	TOGGLE	F	Vch Auto Range
VCHOFFSETENABLE	TOGGLE	T	Vch Offset Enable
VCHOFFSET	QUANT	0	Vch Offset (V)
VCHFILTER	IQUANT	3	Vch Filter
ACHRANGE	IQUANT	2	Ach Range
ACHOFFSETENABLE	TOGGLE	F	Ach Offset Enable
ACHOFFSET	QUANT	0	Ach Offset (V)
ACHFILTER	IQUANT	3	Ach Filter
IERANGELOWERLIMIT	IQUANT	2	I/E Range Lower Limit
IERANGEMODE	TOGGLE	F	I/E AutoRange
IERANGE	IQUANT	11	I/E Range
POSFEEDENABLE	TOGGLE	F	Positive Feedback IR Comp
POSFEEDRESISTANCE	QUANT	0	Positive Feedback Resistance (ohm)
ACHSELECT	IQUANT	0	Ach Select
CABLEID	IQUANT	13	Cable ID
DCCALDATE	LABEL	7/31/2020	DC Calibration Date
ACCALDATE	LABEL	7/31/2020	AC Calibration Date
THERMOSELECT	IQUANT	1	Thermo Select
FRAMEWORKVERSION	QUANT	6.33	Framework Version
INSTRUMENTVERSION	LABEL	3.50	Instrument Version
COMPLIANCEVOLTAGE	IQUANT	0	Compliance Voltage
ZCURVE	TABLE
	Pt	Time	Freq	Zreal	Zimag	Zsig	Zmod	Zphz	Idc	Vdc	IERange
	#	s	Hz	ohm	ohm	V	ohm	°	A	V	#
	0	6	300046.9	62.22066	1.959042	1	62.25149	1.803384	-4.632735E-005	0.0004308	9
	1	10	238359.4	62.49001	1.483055	1	62.5076	1.359527	-6.703473E-005	0.0019833	9
	2	13	189328.1	62.81322	1.112849	1	62.82308	1.014991	-5.867641E-005	0.001446	9
	3	15	150421.9	63.08047	0.8509763	1	63.08622	0.772892	-8.790535E-006	0.0008282	9
	4	18	119484.4	63.42583	0.614499	1	63.42881	0.5550908	3.951872E-005	-0.0004055	9
	5	20	94921.88	63.72175	0.709574	1	63.7257	0.6379911	2.091986E-005	-0.0006133	9
	6	23	75421.88	63.95653	0.477188	1	63.95831	0.4274834	1.947939E-005	-0.0003545	9
	7	25	59859.37	64.21826	0.266655	1	64.21882	0.2379092	1.185404E-005	7.791498E-005	9
	8	28	47578.12	64.50684	0.1367702	1	64.50699	0.1214808	2.033932E-005	-0.0004615	9
	9	30	37828.12	64.80117	-0.0450589	1	64.80119	-0.0398401	1.728613E-005	-0.0003704	9
	10	33	30046.88	65.07513	-0.1373469	1	65.07527	-0.1209277	-1.723606E-005	0.0006913	9
	11	35	23859.38	65.33369	-0.2516486	1	65.33418	-0.2206876	-1.729024E-005	0.0006091	9
	12	38	18984.38	65.61741	-0.374597	1	65.61848	-0.3270869	4.798281E-006	-0.0004559	9
	13	40	15046.87	65.85102	-0.5219119	1	65.85309	-0.4540965	-8.506574E-006	-2.200162E-005	9
	14	42	11953.13	66.20106	-0.6442723	1	66.20419	-0.557588	-4.044674E-006	0.0006097	9
	15	45	9515.62	66.4157	-0.8548102	1	66.4212	-0.7373905	-1.874426E-005	0.0005444	9
	16	47	7546.875	66.74133	-1.062695	1	66.74979	-0.9122205	-1.495714E-005	0.0003692	9
	17	49	5928.309	66.99057	-1.383656	1	67.00486	-1.183247	4.884449E-006	-0.0004244	9
	18	52	4733.456	67.28523	-1.692724	1	67.30652	-1.441111	1.046259E-005	-0.0005408	9
	19	54	3796.875	67.59649	-2.111492	1	67.62946	-1.78915	3.675326E-006	0.0003827	9
	20	56	2987.132	67.89651	-2.61592	1	67.94689	-2.206403	-2.655409E-006	-0.0002	9
	21	59	2390.625	68.24391	-3.254987	1	68.3215	-2.730731	-1.288364E-005	0.0001517	9
	22	61	1884.191	68.56699	-4.046948	1	68.68632	-3.377782	-4.867184E-006	0.0005975	9
	23	63	1516.544	68.93079	-4.956102	1	69.10873	-4.112472	2.190197E-005	-0.0005439	9
	24	66	1193.986	69.34311	-6.219276	1	69.62145	-5.125057	2.157653E-005	-0.0005205	9
	25	68	946.5144	69.74356	-7.730159	1	70.17065	-6.324671	4.038967E-006	-0.0004051	9
	26	70	751.7689	70.21675	-9.61078	1	70.87143	-7.793821	1.994511E-005	-0.0005969	9
	27	73	597.4265	70.74961	-11.94262	1	71.7505	-9.58127	-9.285339E-006	2.294295E-005	9
	28	75	477.4305	71.30505	-14.73652	1	72.81191	-11.67685	1.313071E-006	5.648364E-005	9
	29	77	376.6741	71.97829	-18.41343	1	74.29623	-14.34962	1.371139E-006	5.446987E-005	9
	30	80	298.2954	72.757	-22.9221	1	76.2824	-17.48704	1.36541E-006	5.427027E-005	9
	31	82	237.7717	73.68071	-28.35414	1	78.94811	-21.04795	1.244584E-006	5.246923E-005	9
	32	85	189.0121	74.79399	-35.14141	1	82.63812	-25.16614	1.332861E-006	5.42148E-005	9
	33	87	150.2404	76.14742	-43.52721	1	87.71001	-29.75305	1.312159E-006	5.807234E-005	9
	34	89	119.1737	77.82545	-53.97889	1	94.71283	-34.74476	1.329246E-006	5.625554E-005	9
	35	92	95.0169	79.86135	-66.56136	1	103.9627	-39.8099	1.364722E-006	5.550499E-005	9
	36	94	75.60484	82.40668	-82.16171	1	116.3676	-44.91471	1.330206E-006	5.173641E-005	9
	37	97	54.50582	86.98288	-110.8981	1	140.9411	-51.89114	1.321825E-006	5.400951E-005	9
	38	99	45.95588	90.1264	-129.6314	1	157.8831	-55.19099	1.316377E-006	6.032183E-005	9
	39	102	37.20238	94.67527	-157.1602	1	183.4741	-58.93471	1.337157E-006	6.374576E-005	9
	40	104	30.04808	100.2782	-190.937	1	215.6679	-62.29198	1.416709E-006	5.658759E-005	9
	41	107	23.91582	107.6127	-234.9767	1	258.4464	-65.39356	1.341299E-006	5.338447E-005	9
	42	109	18.60119	117.7835	-295.3511	1	317.9705	-68.25832	1.290871E-006	5.932196E-005	9
	43	111	15.02404	128.793	-358.749	1	381.1672	-70.25156	1.452418E-006	7.16396E-005	9
	44	113	12.01923	142.6393	-437.5835	1	460.2448	-71.94556	3.869433E-007	0.0006448	8
	45	116	9.450605	162.8028	-544.2618	1	568.0895	-73.34672	1.628374E-007	0.00064	8
	46	118	7.512019	187.7151	-670.1239	1	695.9188	-74.35138	3.257909E-007	0.0006243	8
	47	121	5.978954	220.3179	-822.6512	1	851.6426	-75.0072	2.523302E-007	0.0006357	8
	48	124	4.734848	264.1187	-1013.218	1	1047.076	-75.38966	2.136845E-007	0.0006074	8
	49	127	3.75601	321.7411	-1243.955	1	1284.89	-75.4986	3.254845E-007	0.0006525	8
	50	131	3.004808	392.979	-1512.184	1	1562.412	-75.43248	3.31022E-007	0.0006072	8
	51	135	2.372217	489.6078	-1852.984	1	1916.577	-75.19918	2.843636E-007	0.0006072	8
	52	139	1.878005	617.6357	-2262.297	1	2345.093	-74.72966	2.573231E-007	0.0006344	8
	53	144	1.512097	759.6447	-2711.018	1	2815.435	-74.34679	2.935724E-007	0.0005384	8
	54	149	1.201923	951.532	-3276.794	1	3412.153	-73.80749	2.705531E-007	0.0006327	8
	55	155	0.956633	1177.887	-3939.317	1	4111.646	-73.35292	2.710832E-007	-1.626759E-007	8
