EXPLAIN
TAG	EISPOT
TITLE	LABEL	Potentiostatic EIS	Test Identifier
DATE	LABEL	9/12/2020	Date
TIME	LABEL	17:43:40	Time
NOTES	NOTES	1	Notes...
	
PSTAT	PSTAT	REF3000-16137	Potentiostat
VDC	POTEN	0.00000E+000	T	DC Voltage (V)
FREQINIT	QUANT	3.00000E+005	Initial Freq. (Hz)
FREQFINAL	QUANT	1.00000E+000	Final Freq. (Hz)
PTSPERDEC	QUANT	1.00000E+001	Points/decade
VAC	QUANT	5.00000E+001	AC Voltage (mV rms)
AREA	QUANT	1.00000E+000	Sample Area (cm^2)
SPEED	SELECTOR	2	Optimize for:
ZGUESS	QUANT	1.00000E+003	Estimated Z (ohms)
EOC	QUANT	0	Open Circuit (V)
SEQUENCER	TOGGLE	TRUE	Run as Sequence
PSTATMODEL	IQUANT	5	Pstat Model
PSTATSECTION	LABEL	REF3000-16137	Pstat Section
PSTATSERIALNO	LABEL	16137	Pstat Serial Number
CTRLMODE	IQUANT	1	Control Mode
IESTAB	IQUANT	0	I/E Stability
CASPEED	IQUANT	1	Control Amp Speed
CONVENTION	IQUANT	1	Current Convention
ICHRANGE	IQUANT	2	Ich Range
ICHRANGEMODE	TOGGLE	F	Ich Auto Range
ICHOFFSETENABLE	TOGGLE	T	Ich Offset Enable
ICHOFFSET	QUANT	0	Ich Offset (V)
ICHFILTER	IQUANT	3	Ich Filter
VCHRANGE	IQUANT	2	Vch Range
VCHRANGEMODE	TOGGLE	F	Vch Auto Range
VCHOFFSETENABLE	TOGGLE	T	Vch Offset Enable
VCHOFFSET	QUANT	0	Vch Offset (V)
VCHFILTER	IQUANT	3	Vch Filter
ACHRANGE	IQUANT	2	Ach Range
ACHOFFSETENABLE	TOGGLE	F	Ach Offset Enable
ACHOFFSET	QUANT	0	Ach Offset (V)
ACHFILTER	IQUANT	3	Ach Filter
IERANGELOWERLIMIT	IQUANT	2	I/E Range Lower Limit
IERANGEMODE	TOGGLE	F	I/E AutoRange
IERANGE	IQUANT	11	I/E Range
POSFEEDENABLE	TOGGLE	F	Positive Feedback IR Comp
POSFEEDRESISTANCE	QUANT	0	Positive Feedback Resistance (ohm)
ACHSELECT	IQUANT	0	Ach Select
CABLEID	IQUANT	13	Cable ID
DCCALDATE	LABEL	7/31/2020	DC Calibration Date
ACCALDATE	LABEL	7/31/2020	AC Calibration Date
THERMOSELECT	IQUANT	1	Thermo Select
FRAMEWORKVERSION	QUANT	6.33	Framework Version
INSTRUMENTVERSION	LABEL	3.50	Instrument Version
COMPLIANCEVOLTAGE	IQUANT	0	Compliance Voltage
ZCURVE	TABLE
	Pt	Time	Freq	Zreal	Zimag	Zsig	Zmod	Zphz	Idc	Vdc	IERange
	#	s	Hz	ohm	ohm	V	ohm	°	A	V	#
	0	6	300046.9	37.62767	2.397954	1	37.704	3.646442	9.536776E-006	-0.000259	9
	1	10	238359.4	37.88589	1.881932	1	37.9326	2.843755	3.57368E-005	-0.0011074	9
	2	13	189328.1	38.04335	1.447382	1	38.07088	2.178802	1.179969E-005	-0.000637	9
	3	15	150421.9	38.18427	1.10908	1	38.20037	1.663716	5.344628E-006	-0.0007315	9
	4	18	119484.4	38.3558	0.8688	1	38.36563	1.297589	-3.645922E-005	0.0007079	9
	5	20	94921.88	38.51242	0.7923188	1	38.52057	1.178584	1.149363E-005	-3.425535E-005	9
	6	23	75421.88	38.63894	0.576871	1	38.64325	0.85535	1.798154E-005	-0.0003718	9
	7	25	59859.37	38.7686	0.3965532	1	38.77063	0.5860422	9.29865E-006	-2.488052E-005	9
	8	28	47578.12	38.90631	0.2380952	1	38.90704	0.3506289	1.813888E-005	-0.0004601	9
	9	31	37828.12	39.05112	0.0930405	1	39.05123	0.1365087	1.619708E-005	-0.0005253	9
	10	33	30046.88	39.20367	-0.0432392	1	39.20369	-0.0631936	1.835686E-005	-0.0004497	9
	11	36	23859.38	39.3559	-0.1704869	1	39.35627	-0.2481995	-1.418545E-005	0.0003961	9
	12	38	18984.38	39.49568	-0.2973381	1	39.4968	-0.4313357	1.409452E-005	-0.0005521	9
	13	40	15046.87	39.6582	-0.4444997	1	39.66069	-0.6421595	-3.594274E-006	0.000408	9
	14	43	11953.13	39.78625	-0.6058075	1	39.79087	-0.8723497	1.657385E-005	-0.0004981	9
	15	45	9515.62	39.93891	-0.7776157	1	39.94648	-1.115415	-1.421419E-005	0.000501	9
	16	47	7546.875	40.08576	-0.996313	1	40.09814	-1.423767	8.172892E-006	2.119295E-005	9
	17	50	5928.309	40.26221	-1.276231	1	40.28243	-1.815553	3.122291E-006	0.0002697	9
	18	52	4733.456	40.42681	-1.592616	1	40.45817	-2.256003	1.712474E-005	-0.0002394	9
	19	54	3796.875	40.60064	-1.956917	1	40.64777	-2.759473	1.499539E-005	-0.0001752	9
	20	57	2987.132	40.78931	-2.475573	1	40.86437	-3.473118	2.598662E-006	0.0002872	9
	21	59	2390.625	40.98001	-3.06456	1	41.09443	-4.276723	-7.264839E-006	5.575508E-005	9
	22	61	1884.191	41.18813	-3.846352	1	41.36734	-5.335091	-8.796038E-006	0.0005633	9
	23	63	1516.544	41.41393	-4.716712	1	41.68166	-6.497529	-1.430833E-005	0.0005538	9
	24	66	1193.986	41.67886	-5.911937	1	42.09606	-8.073262	-8.587066E-006	0.0005586	9
	25	68	946.5144	41.97814	-7.359993	1	42.61847	-9.94454	-1.124748E-005	0.0006063	9
	26	71	751.7689	42.28688	-9.14305	1	43.26402	-12.20039	-7.896588E-006	4.344203E-005	9
	27	73	597.4265	42.66868	-11.34715	1	44.15171	-14.89233	9.491931E-006	5.848176E-005	9
	28	75	477.4305	43.10593	-14.0023	1	45.32312	-17.99559	1.374695E-006	5.193497E-005	9
	29	78	376.6741	43.65418	-17.48678	1	47.02632	-21.82981	9.523352E-007	0.0001065	9
	30	80	298.2954	44.31509	-21.75105	1	49.36533	-26.14306	1.327218E-006	5.265542E-005	9
	31	82	237.7717	45.11383	-26.87026	1	52.5097	-30.77846	1.3852E-006	5.154321E-005	9
	32	85	189.0121	46.10871	-33.25417	1	56.84939	-35.79961	1.304052E-006	5.569914E-005	9
	33	87	150.2404	47.33893	-41.12041	1	62.70456	-40.97883	1.368273E-006	5.129452E-005	9
	34	90	119.1737	48.87988	-50.90285	1	70.57154	-46.16145	1.372896E-006	5.366758E-005	9
	35	92	95.0169	50.75288	-62.66847	1	80.64237	-50.99726	1.348484E-006	5.572836E-005	9
	36	94	75.60484	53.09389	-77.24947	1	93.73602	-55.49909	1.404109E-006	5.381423E-005	9
	37	97	54.50582	57.37902	-104.1228	1	118.8861	-61.14212	8.505762E-007	0.0001038	9
	38	99	45.95588	60.27497	-121.6711	1	135.7826	-63.64652	1.328563E-006	5.491599E-005	9
	39	102	37.20238	64.53236	-147.4999	1	160.9989	-66.37025	1.353465E-006	5.131415E-005	9
	40	104	30.04808	69.84764	-179.1984	1	192.3298	-68.70525	1.21985E-006	5.46083E-005	9
	41	107	23.91582	77.00172	-220.5958	1	233.6488	-70.75782	1.287863E-006	4.875971E-005	9
	42	109	18.60119	87.25826	-277.2508	1	290.6579	-72.52982	1.235604E-006	5.904861E-005	9
	43	111	15.02404	98.6143	-336.6744	1	350.8197	-73.67432	1.525486E-006	5.894424E-005	9
	44	114	12.01923	113.5309	-410.1209	1	425.5448	-74.5267	2.400412E-007	0.0006302	8
	45	116	9.450605	135.258	-509.0728	1	526.735	-75.12058	2.396864E-007	0.0006312	8
	46	118	7.512019	162.6008	-624.2545	1	645.0834	-75.40045	2.641222E-007	0.0006217	8
	47	121	5.978954	197.9987	-763.4664	1	788.7233	-75.46111	3.618698E-007	0.0006383	8
	48	124	4.734848	246.0139	-935.0571	1	966.879	-75.25952	3.548105E-007	0.0006228	8
	49	128	3.75601	306.3677	-1140.605	1	1181.034	-74.96516	3.654424E-007	0.0006432	8
	50	131	3.004808	380.238	-1374.908	1	1426.517	-74.54093	4.506843E-007	0.0006005	8
	51	135	2.372217	477.3027	-1671.038	1	1737.868	-74.05894	3.889282E-007	0.0005853	8
	52	139	1.878005	599.0289	-2019.452	1	2106.424	-73.4781	3.758482E-007	0.0006355	8
	53	144	1.512097	728.4918	-2401.864	1	2509.91	-73.1273	4.058165E-007	0.0005384	8
	54	149	1.201923	892.5482	-2882.065	1	3017.108	-72.79274	3.887393E-007	0.0006375	8
	55	155	0.956633	1074.944	-3448.951	1	3612.585	-72.68916	3.872368E-007	-1.135699E-005	8
