EXPLAIN
TAG	EISPOT
TITLE	LABEL	Potentiostatic EIS	Test Identifier
DATE	LABEL	9/12/2020	Date
TIME	LABEL	17:07:31	Time
NOTES	NOTES	1	Notes...
	
PSTAT	PSTAT	REF3000-16137	Potentiostat
VDC	POTEN	0.00000E+000	T	DC Voltage (V)
FREQINIT	QUANT	3.00000E+005	Initial Freq. (Hz)
FREQFINAL	QUANT	1.00000E+000	Final Freq. (Hz)
PTSPERDEC	QUANT	1.00000E+001	Points/decade
VAC	QUANT	5.00000E+001	AC Voltage (mV rms)
AREA	QUANT	1.00000E+000	Sample Area (cm^2)
SPEED	SELECTOR	2	Optimize for:
ZGUESS	QUANT	1.00000E+003	Estimated Z (ohms)
EOC	QUANT	0	Open Circuit (V)
SEQUENCER	TOGGLE	TRUE	Run as Sequence
PSTATMODEL	IQUANT	5	Pstat Model
PSTATSECTION	LABEL	REF3000-16137	Pstat Section
PSTATSERIALNO	LABEL	16137	Pstat Serial Number
CTRLMODE	IQUANT	1	Control Mode
IESTAB	IQUANT	0	I/E Stability
CASPEED	IQUANT	1	Control Amp Speed
CONVENTION	IQUANT	1	Current Convention
ICHRANGE	IQUANT	2	Ich Range
ICHRANGEMODE	TOGGLE	F	Ich Auto Range
ICHOFFSETENABLE	TOGGLE	T	Ich Offset Enable
ICHOFFSET	QUANT	0	Ich Offset (V)
ICHFILTER	IQUANT	3	Ich Filter
VCHRANGE	IQUANT	2	Vch Range
VCHRANGEMODE	TOGGLE	F	Vch Auto Range
VCHOFFSETENABLE	TOGGLE	T	Vch Offset Enable
VCHOFFSET	QUANT	0	Vch Offset (V)
VCHFILTER	IQUANT	3	Vch Filter
ACHRANGE	IQUANT	2	Ach Range
ACHOFFSETENABLE	TOGGLE	F	Ach Offset Enable
ACHOFFSET	QUANT	0	Ach Offset (V)
ACHFILTER	IQUANT	3	Ach Filter
IERANGELOWERLIMIT	IQUANT	2	I/E Range Lower Limit
IERANGEMODE	TOGGLE	F	I/E AutoRange
IERANGE	IQUANT	11	I/E Range
POSFEEDENABLE	TOGGLE	F	Positive Feedback IR Comp
POSFEEDRESISTANCE	QUANT	0	Positive Feedback Resistance (ohm)
ACHSELECT	IQUANT	0	Ach Select
CABLEID	IQUANT	13	Cable ID
DCCALDATE	LABEL	7/31/2020	DC Calibration Date
ACCALDATE	LABEL	7/31/2020	AC Calibration Date
THERMOSELECT	IQUANT	1	Thermo Select
FRAMEWORKVERSION	QUANT	6.33	Framework Version
INSTRUMENTVERSION	LABEL	3.50	Instrument Version
COMPLIANCEVOLTAGE	IQUANT	0	Compliance Voltage
ZCURVE	TABLE
	Pt	Time	Freq	Zreal	Zimag	Zsig	Zmod	Zphz	Idc	Vdc	IERange
	#	s	Hz	ohm	ohm	V	ohm	°	A	V	#
	0	10	300046.9	5.41766	2.260792	1	5.870453	22.6508	-4.303696E-005	0.0001951	10
	1	13	238359.4	5.392599	1.781571	1	5.679271	18.28218	1.270466E-005	-0.000144	10
	2	17	189328.1	5.379864	1.410795	1	5.561769	14.69416	1.691044E-005	0.0001021	10
	3	19	150421.9	5.362772	1.106278	1	5.475689	11.65596	-0.0001049	0.0002864	10
	4	22	119484.4	5.368803	0.8610706	1	5.437415	9.111734	1.359601E-005	0.0003927	10
	5	24	94921.88	5.37315	0.680471	1	5.416067	7.217677	-1.313378E-005	0.0005494	10
	6	27	75421.88	5.37482	0.5061055	1	5.398595	5.379243	1.886049E-005	0.0005376	10
	7	29	59859.37	5.380219	0.3574109	1	5.392078	3.800606	-9.088785E-006	0.0005669	10
	8	32	47578.12	5.387955	0.230017	1	5.392863	2.444527	-5.360563E-006	0.0006257	10
	9	34	37828.12	5.397287	0.115806	1	5.398529	1.229169	1.128689E-005	0.0005695	10
	10	37	30046.88	5.40893	0.0101558	1	5.408939	0.107578	2.067475E-005	0.0006029	10
	11	39	23859.38	5.421113	-0.0930329	1	5.421911	-0.983169	2.248322E-005	0.0006256	10
	12	42	18984.38	5.434007	-0.1978515	1	5.437608	-2.085211	-2.189911E-005	0.0006239	10
	13	44	15046.87	5.448618	-0.3131453	1	5.457609	-3.28931	1.554314E-005	0.0006069	10
	14	46	11953.13	5.465559	-0.4412797	1	5.483344	-4.61595	-1.432237E-005	0.0006271	10
	15	49	9515.62	5.48346	-0.5882898	1	5.514927	-6.123522	2.127241E-005	0.0006154	10
	16	51	7546.875	5.507315	-0.7655278	1	5.560266	-7.913521	-1.866889E-005	0.0006941	10
	17	53	5928.309	5.534957	-0.988984	1	5.622619	-10.13068	-2.256466E-005	0.0006711	10
	18	55	4733.456	5.567062	-1.242353	1	5.704001	-12.58008	2.298147E-006	0.000612	10
	19	58	3796.875	5.605225	-1.545279	1	5.81433	-15.41276	-1.574257E-005	0.0006286	10
	20	60	2987.132	5.656796	-1.948498	1	5.982975	-19.0064	-5.214543E-006	0.0006246	10
	21	62	2390.625	5.716727	-2.409506	1	6.203764	-22.85462	1.842495E-005	0.0006126	10
	22	65	1884.191	5.796199	-3.020902	1	6.53619	-27.52793	1.268714E-005	0.0006463	10
	23	67	1516.544	5.889032	-3.702779	1	6.956384	-32.15998	9.820948E-006	0.0006069	10
	24	69	1193.986	6.015401	-4.629362	1	7.590524	-37.58134	2.026025E-005	0.0006371	10
	25	72	946.5144	6.17139	-5.746874	1	8.43283	-42.96004	-2.925093E-005	0.0006467	10
	26	74	751.7689	6.369551	-7.106114	1	9.54296	-48.1286	1.930585E-005	0.0006269	10
	27	76	597.4265	6.615193	-8.780196	1	10.9933	-53.00483	2.003867E-005	0.0006395	10
	28	79	477.4305	6.917346	-10.79189	1	12.81852	-57.34108	-3.189134E-006	0.000658	10
	29	81	376.6741	7.321667	-13.41421	1	15.28227	-61.37366	-2.780328E-006	0.0006588	10
	30	83	298.2954	7.829811	-16.61345	1	18.36608	-64.76581	-2.918372E-006	0.0006541	10
	31	86	237.7717	8.465419	-20.44543	1	22.12868	-67.50802	-3.152045E-006	0.000657	10
	32	88	189.0121	9.298419	-25.21879	1	26.8784	-69.76057	-2.662279E-006	0.0006572	10
	33	91	150.2404	10.39326	-31.08985	1	32.78107	-71.51535	-2.729033E-006	0.0006543	10
	34	93	119.1737	11.85064	-38.36034	1	40.14914	-72.83254	-2.921287E-006	0.0006586	10
	35	95	95.0169	13.72038	-46.98308	1	48.94547	-73.72071	4.087765E-007	5.638704E-005	9
	36	98	75.60484	16.23059	-57.60675	1	59.84956	-74.26492	3.855917E-007	5.57518E-005	9
	37	100	54.50582	21.25769	-76.77705	1	79.66558	-74.52389	3.295249E-007	5.372659E-005	9
	38	103	45.95588	24.74501	-88.9859	1	92.36237	-74.45993	4.432476E-007	6.845481E-005	9
	39	105	37.20238	30.08766	-106.5293	1	110.6967	-74.22844	4.794148E-007	5.908779E-005	9
	40	108	30.04808	36.81448	-127.3053	1	132.5215	-73.87106	4.610548E-007	5.886646E-005	9
	41	110	23.91582	45.72021	-153.5456	1	160.208	-73.41841	3.263809E-007	6.118124E-005	9
	42	112	18.60119	57.64247	-187.7711	1	196.4195	-72.93442	6.036241E-007	5.979083E-005	9
	43	115	15.02404	69.82475	-222.1949	1	232.9079	-72.55468	5.454247E-007	6.817578E-005	9
	44	117	12.01923	84.49046	-264.5967	1	277.759	-72.29079	5.663873E-007	5.817624E-005	9
	45	119	9.450605	102.5606	-319.4638	1	335.5231	-72.20131	4.585345E-007	6.332586E-005	9
	46	122	7.512019	121.8928	-382.5042	1	401.4565	-72.32446	4.104783E-007	4.634742E-005	9
	47	125	5.978954	143.2351	-457.1829	1	479.0955	-72.60426	-3.008212E-007	0.0006996	8
	48	128	4.734848	169.2067	-553.1348	1	578.4367	-72.99087	-1.950928E-007	0.0006251	8
	49	131	3.75601	199.5118	-670.8848	1	699.9224	-73.43826	-2.076858E-007	0.0006541	8
	50	134	3.004808	235.9383	-810.4775	1	844.1213	-73.76918	-2.029286E-007	0.0006178	8
	51	138	2.372217	287.2574	-994.503	1	1035.158	-73.88889	-2.600347E-007	0.0005677	8
	52	142	1.878005	353.4023	-1219.871	1	1270.031	-73.84345	-1.916846E-007	0.0006469	8
	53	147	1.512097	438.5738	-1470.601	1	1534.606	-73.39397	-2.567067E-007	0.0005863	8
	54	152	1.201923	564.1592	-1800.378	1	1886.7	-72.6013	-2.056375E-007	0.0006667	8
	55	159	0.956633	740.2078	-2187.158	1	2309.019	-71.30245	-2.796847E-007	-1.975397E-006	8
