EXPLAIN
TAG	EISPOT
TITLE	LABEL	Potentiostatic EIS	Test Identifier
DATE	LABEL	9/12/2020	Date
TIME	LABEL	17:13:07	Time
NOTES	NOTES	1	Notes...
	
PSTAT	PSTAT	REF3000-16137	Potentiostat
VDC	POTEN	0.00000E+000	T	DC Voltage (V)
FREQINIT	QUANT	3.00000E+005	Initial Freq. (Hz)
FREQFINAL	QUANT	1.00000E+000	Final Freq. (Hz)
PTSPERDEC	QUANT	1.00000E+001	Points/decade
VAC	QUANT	5.00000E+001	AC Voltage (mV rms)
AREA	QUANT	1.00000E+000	Sample Area (cm^2)
SPEED	SELECTOR	2	Optimize for:
ZGUESS	QUANT	1.00000E+003	Estimated Z (ohms)
EOC	QUANT	0	Open Circuit (V)
SEQUENCER	TOGGLE	TRUE	Run as Sequence
PSTATMODEL	IQUANT	5	Pstat Model
PSTATSECTION	LABEL	REF3000-16137	Pstat Section
PSTATSERIALNO	LABEL	16137	Pstat Serial Number
CTRLMODE	IQUANT	1	Control Mode
IESTAB	IQUANT	0	I/E Stability
CASPEED	IQUANT	1	Control Amp Speed
CONVENTION	IQUANT	1	Current Convention
ICHRANGE	IQUANT	2	Ich Range
ICHRANGEMODE	TOGGLE	F	Ich Auto Range
ICHOFFSETENABLE	TOGGLE	T	Ich Offset Enable
ICHOFFSET	QUANT	0	Ich Offset (V)
ICHFILTER	IQUANT	3	Ich Filter
VCHRANGE	IQUANT	2	Vch Range
VCHRANGEMODE	TOGGLE	F	Vch Auto Range
VCHOFFSETENABLE	TOGGLE	T	Vch Offset Enable
VCHOFFSET	QUANT	0	Vch Offset (V)
VCHFILTER	IQUANT	3	Vch Filter
ACHRANGE	IQUANT	2	Ach Range
ACHOFFSETENABLE	TOGGLE	F	Ach Offset Enable
ACHOFFSET	QUANT	0	Ach Offset (V)
ACHFILTER	IQUANT	3	Ach Filter
IERANGELOWERLIMIT	IQUANT	2	I/E Range Lower Limit
IERANGEMODE	TOGGLE	F	I/E AutoRange
IERANGE	IQUANT	11	I/E Range
POSFEEDENABLE	TOGGLE	F	Positive Feedback IR Comp
POSFEEDRESISTANCE	QUANT	0	Positive Feedback Resistance (ohm)
ACHSELECT	IQUANT	0	Ach Select
CABLEID	IQUANT	13	Cable ID
DCCALDATE	LABEL	7/31/2020	DC Calibration Date
ACCALDATE	LABEL	7/31/2020	AC Calibration Date
THERMOSELECT	IQUANT	1	Thermo Select
FRAMEWORKVERSION	QUANT	6.33	Framework Version
INSTRUMENTVERSION	LABEL	3.50	Instrument Version
COMPLIANCEVOLTAGE	IQUANT	0	Compliance Voltage
ZCURVE	TABLE
	Pt	Time	Freq	Zreal	Zimag	Zsig	Zmod	Zphz	Idc	Vdc	IERange
	#	s	Hz	ohm	ohm	V	ohm	°	A	V	#
	0	10	300046.9	6.546381	2.24766	1	6.921494	18.94959	-7.98466E-005	0.0003128	10
	1	13	238359.4	6.530072	1.774933	1	6.766995	15.20614	-7.897765E-005	9.365142E-005	10
	2	16	189328.1	6.516783	1.401144	1	6.665708	12.13418	6.724794E-005	5.412364E-006	10
	3	19	150421.9	6.506126	1.103822	1	6.599098	9.62905	-3.010464E-005	0.0003139	10
	4	22	119484.4	6.516663	0.8557715	1	6.572613	7.481302	-2.314104E-005	0.0004334	10
	5	24	94921.88	6.523379	0.6769099	1	6.558405	5.924195	3.801956E-006	0.000491	10
	6	27	75421.88	6.52736	0.5011625	1	6.546571	4.390484	2.25844E-005	0.0005428	10
	7	29	59859.37	6.536477	0.3510944	1	6.545899	3.074579	-2.21577E-005	0.0006674	10
	8	32	47578.12	6.547027	0.2221838	1	6.550796	1.943677	-3.076014E-005	0.0006089	10
	9	34	37828.12	6.561168	0.1078971	1	6.562055	0.9421329	-2.08699E-005	0.000609	10
	10	37	30046.88	6.575272	0.0013417	1	6.575272	0.0116916	2.133097E-005	0.0005908	10
	11	39	23859.38	6.591861	-0.1024822	1	6.592658	-0.8906928	-2.158585E-005	0.0006897	10
	12	42	18984.38	6.607334	-0.2089215	1	6.610636	-1.811068	-1.562231E-005	0.0006601	10
	13	44	15046.87	6.624639	-0.3268177	1	6.632695	-2.824321	2.115049E-005	0.0006245	10
	14	46	11953.13	6.643765	-0.4576074	1	6.659506	-3.940179	-8.272085E-006	0.0006407	10
	15	49	9515.62	6.666747	-0.6088598	1	6.694492	-5.218225	-6.373838E-006	0.0006202	10
	16	51	7546.875	6.693381	-0.7900733	1	6.739849	-6.73193	-2.485279E-005	0.0006915	10
	17	53	5928.309	6.723885	-1.019352	1	6.800714	-8.620491	4.247155E-006	0.0006095	10
	18	55	4733.456	6.759166	-1.280447	1	6.87938	-10.72692	-2.604411E-005	0.000676	10
	19	58	3796.875	6.799528	-1.590828	1	6.983145	-13.16815	1.725311E-005	0.0006253	10
	20	60	2987.132	6.854181	-2.008098	1	7.142286	-16.32922	-1.564025E-005	0.0006816	10
	21	62	2390.625	6.916245	-2.485416	1	7.349268	-19.76637	-9.181434E-006	0.0006427	10
	22	65	1884.191	6.999197	-3.114505	1	7.660868	-23.98812	4.833058E-006	0.000653	10
	23	67	1516.544	7.0947	-3.820985	1	8.058207	-28.30552	5.111126E-006	0.0006509	10
	24	69	1193.986	7.225214	-4.779004	1	8.662713	-33.48201	-2.70866E-005	0.0006826	10
	25	72	946.5144	7.388991	-5.928073	1	9.47308	-38.73953	-2.240619E-005	0.000684	10
	26	74	751.7689	7.586985	-7.34316	1	10.55861	-44.06438	1.380103E-005	0.0006538	10
	27	76	597.4265	7.836765	-9.076757	1	11.99176	-49.19306	1.794822E-005	0.0006451	10
	28	79	477.4305	8.146637	-11.15798	1	13.81551	-53.86617	-3.264644E-006	0.0006568	10
	29	81	376.6741	8.556368	-13.87163	1	16.29827	-58.33267	-2.786412E-006	0.0006578	10
	30	83	298.2954	9.066975	-17.18211	1	19.42769	-62.17945	-2.807284E-006	0.0006579	10
	31	86	237.7717	9.69866	-21.14927	1	23.26705	-65.3647	-3.00976E-006	0.0006597	10
	32	88	189.0121	10.51726	-26.09443	1	28.13418	-68.04828	-3.084125E-006	0.0006626	10
	33	91	150.2404	11.58038	-32.1894	1	34.2091	-70.21342	-2.793034E-006	0.0006574	10
	34	93	119.1737	12.98347	-39.75837	1	41.82461	-71.91506	-2.868944E-006	0.0006553	10
	35	95	95.0169	14.77324	-48.76904	1	50.95751	-73.14726	6.872078E-007	5.878638E-005	9
	36	98	75.60484	17.17853	-59.91941	1	62.33327	-74.00272	1.582647E-007	0.0001081	9
	37	100	54.50582	22.0205	-80.18467	1	83.15337	-74.64387	4.709218E-007	4.947832E-005	9
	38	103	45.95588	25.4147	-93.16416	1	96.5685	-74.74128	7.449378E-007	6.201738E-005	9
	39	105	37.20238	30.64479	-111.8961	1	116.0165	-74.68405	6.526412E-007	5.910735E-005	9
	40	108	30.04808	37.35289	-134.2822	1	139.3806	-74.45518	6.461974E-007	5.417222E-005	9
	41	110	23.91582	46.41058	-162.5743	1	169.069	-74.06738	4.818365E-007	5.916577E-005	9
	42	112	18.60119	58.92699	-199.749	1	208.2596	-73.56367	8.977415E-007	5.557216E-005	9
	43	115	15.02404	71.98749	-237.2206	1	247.9028	-73.11894	6.369542E-007	5.312404E-005	9
	44	117	12.01923	88.03256	-283.019	1	296.3941	-72.72179	7.958192E-007	6.01293E-005	9
	45	119	9.450605	108.1849	-341.7129	1	358.4295	-72.43243	8.424982E-007	5.393177E-005	9
	46	122	7.512019	129.6453	-407.1322	1	427.2757	-72.33668	9.608253E-008	0.0006426	8
	47	125	5.978954	153.9699	-487.1992	1	510.9499	-72.46186	6.649029E-008	0.0006342	8
	48	128	4.734848	182.282	-586.913	1	614.5677	-72.74638	7.842451E-008	0.0006652	8
	49	131	3.75601	214.3193	-708.9818	1	740.6672	-73.18037	5.076188E-008	0.0006287	8
	50	134	3.004808	250.4864	-853.3217	1	889.3264	-73.64078	5.042114E-008	0.0006639	8
	51	138	2.372217	298.5556	-1043.524	1	1085.392	-74.034	6.09909E-008	0.000707	8
	52	142	1.878005	357.1342	-1277.966	1	1326.929	-74.3867	5.976232E-009	0.000611	8
	53	147	1.512097	428.9197	-1541.446	1	1600.009	-74.45035	8.062825E-008	0.0006383	8
	54	152	1.201923	534.4998	-1892.346	1	1966.383	-74.22748	3.081334E-008	0.0006067	8
	55	159	0.956633	680.271	-2312.693	1	2410.668	-73.60893	-1.529949E-008	-2.440746E-006	8
