EXPLAIN
TAG	EISPOT
TITLE	LABEL	Potentiostatic EIS	Test Identifier
DATE	LABEL	9/12/2020	Date
TIME	LABEL	17:29:43	Time
NOTES	NOTES	1	Notes...
	
PSTAT	PSTAT	REF3000-16137	Potentiostat
VDC	POTEN	0.00000E+000	T	DC Voltage (V)
FREQINIT	QUANT	3.00000E+005	Initial Freq. (Hz)
FREQFINAL	QUANT	1.00000E+000	Final Freq. (Hz)
PTSPERDEC	QUANT	1.00000E+001	Points/decade
VAC	QUANT	5.00000E+001	AC Voltage (mV rms)
AREA	QUANT	1.00000E+000	Sample Area (cm^2)
SPEED	SELECTOR	2	Optimize for:
ZGUESS	QUANT	1.00000E+003	Estimated Z (ohms)
EOC	QUANT	0	Open Circuit (V)
SEQUENCER	TOGGLE	TRUE	Run as Sequence
PSTATMODEL	IQUANT	5	Pstat Model
PSTATSECTION	LABEL	REF3000-16137	Pstat Section
PSTATSERIALNO	LABEL	16137	Pstat Serial Number
CTRLMODE	IQUANT	1	Control Mode
IESTAB	IQUANT	0	I/E Stability
CASPEED	IQUANT	1	Control Amp Speed
CONVENTION	IQUANT	1	Current Convention
ICHRANGE	IQUANT	2	Ich Range
ICHRANGEMODE	TOGGLE	F	Ich Auto Range
ICHOFFSETENABLE	TOGGLE	T	Ich Offset Enable
ICHOFFSET	QUANT	0	Ich Offset (V)
ICHFILTER	IQUANT	3	Ich Filter
VCHRANGE	IQUANT	2	Vch Range
VCHRANGEMODE	TOGGLE	F	Vch Auto Range
VCHOFFSETENABLE	TOGGLE	T	Vch Offset Enable
VCHOFFSET	QUANT	0	Vch Offset (V)
VCHFILTER	IQUANT	3	Vch Filter
ACHRANGE	IQUANT	2	Ach Range
ACHOFFSETENABLE	TOGGLE	F	Ach Offset Enable
ACHOFFSET	QUANT	0	Ach Offset (V)
ACHFILTER	IQUANT	3	Ach Filter
IERANGELOWERLIMIT	IQUANT	2	I/E Range Lower Limit
IERANGEMODE	TOGGLE	F	I/E AutoRange
IERANGE	IQUANT	11	I/E Range
POSFEEDENABLE	TOGGLE	F	Positive Feedback IR Comp
POSFEEDRESISTANCE	QUANT	0	Positive Feedback Resistance (ohm)
ACHSELECT	IQUANT	0	Ach Select
CABLEID	IQUANT	13	Cable ID
DCCALDATE	LABEL	7/31/2020	DC Calibration Date
ACCALDATE	LABEL	7/31/2020	AC Calibration Date
THERMOSELECT	IQUANT	1	Thermo Select
FRAMEWORKVERSION	QUANT	6.33	Framework Version
INSTRUMENTVERSION	LABEL	3.50	Instrument Version
COMPLIANCEVOLTAGE	IQUANT	0	Compliance Voltage
ZCURVE	TABLE
	Pt	Time	Freq	Zreal	Zimag	Zsig	Zmod	Zphz	Idc	Vdc	IERange
	#	s	Hz	ohm	ohm	V	ohm	°	A	V	#
	0	8	300046.9	14.18439	2.128004	1	14.34313	8.532132	-1.415947E-005	8.874026E-005	10
	1	11	238359.4	14.1765	1.682997	1	14.27605	6.770315	3.311483E-005	0.0004535	10
	2	14	189328.1	14.20242	1.328354	1	14.2644	5.343339	-0.0000965	0.0004387	10
	3	17	150421.9	14.22192	1.05016	1	14.26064	4.223112	-5.187288E-005	0.0005982	10
	4	20	119484.4	14.25212	0.8047909	1	14.27483	3.231954	-9.491509E-005	0.000536	10
	5	22	94921.88	14.28174	0.6285521	1	14.29557	2.520011	-2.998848E-005	0.0005998	10
	6	25	75421.88	14.31613	0.4525774	1	14.32328	1.810695	-2.541519E-006	0.0005652	10
	7	27	59859.37	14.3557	0.3068593	1	14.35898	1.224536	-1.87359E-005	0.0006901	10
	8	30	47578.12	14.39397	0.1825209	1	14.39512	0.7264932	2.319704E-005	0.0005722	10
	9	32	37828.12	14.43577	0.070371	1	14.43594	0.2793014	1.902043E-005	0.0005895	10
	10	35	30046.88	14.47723	-0.0369224	1	14.47728	-0.1461254	8.418177E-006	0.0006746	10
	11	37	23859.38	14.51798	-0.1440095	1	14.51869	-0.5683205	2.471489E-005	0.0006448	10
	12	40	18984.38	14.55728	-0.2562617	1	14.55954	-1.008512	1.242292E-005	0.0005805	10
	13	42	15046.87	14.60126	-0.3808672	1	14.60623	-1.494195	-2.71723E-005	0.0006542	10
	14	44	11953.13	14.64461	-0.5213649	1	14.65389	-2.038935	5.280501E-006	0.0005904	10
	15	47	9515.62	14.69403	-0.6856139	1	14.71001	-2.671447	-9.054241E-006	0.0006376	10
	16	49	7546.875	14.74549	-0.8842137	1	14.77198	-3.431633	-3.592196E-006	0.000607	10
	17	51	5928.309	14.80211	-1.13711	1	14.84572	-4.392881	2.35056E-005	0.0006319	10
	18	53	4733.456	14.8625	-1.421079	1	14.93028	-5.461737	1.236274E-005	0.0005855	10
	19	56	3796.875	14.93171	-1.762606	1	15.03539	-6.732293	-2.505608E-005	0.0007149	10
	20	58	2987.132	15.00848	-2.22277	1	15.17219	-8.42432	2.205885E-005	0.0006372	10
	21	60	2390.625	15.09726	-2.748525	1	15.34541	-10.31796	4.123571E-006	0.0005959	10
	22	63	1884.191	15.20406	-3.449483	1	15.59046	-12.78282	-4.738193E-006	0.0006685	10
	23	65	1516.544	15.32238	-4.236518	1	15.89727	-15.45571	-2.615208E-005	0.0007169	10
	24	67	1193.986	15.47742	-5.310801	1	16.36323	-18.93874	5.515228E-006	0.000659	10
	25	70	946.5144	15.66481	-6.603158	1	16.99964	-22.8568	-1.855971E-005	0.0007267	10
	26	72	751.7689	15.88823	-8.195442	1	17.8774	-27.28551	2.469425E-005	0.0006268	10
	27	74	597.4265	16.17047	-10.15714	1	19.09585	-32.13412	-3.987436E-006	0.0006706	10
	28	77	477.4305	16.51394	-12.50292	1	20.71312	-37.12983	-2.203198E-006	0.0006608	10
	29	79	376.6741	16.96588	-15.56897	1	23.02681	-42.54147	-2.510497E-006	0.0006536	10
	30	81	298.2954	17.52413	-19.30608	1	26.07336	-47.76998	-2.457536E-006	0.0006556	10
	31	84	237.7717	18.20576	-23.78384	1	29.95197	-52.56711	-2.383621E-006	0.0006527	10
	32	86	189.0121	19.05982	-29.3562	1	35.0009	-57.00592	-1.890597E-006	0.0006554	10
	33	89	150.2404	20.10312	-36.17912	1	41.38918	-60.94102	1.215617E-006	5.057198E-005	9
	34	91	119.1737	21.45226	-44.71988	1	49.59906	-64.37283	1.227989E-006	5.908781E-005	9
	35	93	95.0169	23.11856	-55.00986	1	59.67036	-67.20483	1.189966E-006	4.883677E-005	9
	36	96	75.60484	25.26109	-67.78652	1	72.34041	-69.56177	1.016012E-006	4.769694E-005	9
	37	98	54.50582	29.43987	-91.3494	1	95.9761	-72.13703	1.112566E-006	5.273035E-005	9
	38	101	45.95588	32.35748	-106.698	1	111.4965	-73.12943	1.014293E-006	6.088452E-005	9
	39	103	37.20238	36.87393	-129.1985	1	134.3575	-74.07098	1.114226E-006	5.840405E-005	9
	40	106	30.04808	42.79683	-156.6009	1	162.3435	-74.71509	6.420316E-007	0.0001066	9
	41	108	23.91582	51.05387	-191.9836	1	198.656	-75.10809	1.269898E-006	4.679104E-005	9
	42	110	18.60119	63.15673	-239.6431	1	247.8257	-75.2357	1.172719E-006	4.912681E-005	9
	43	113	15.02404	76.658	-288.5781	1	298.5862	-75.12349	1.114114E-006	4.486936E-005	9
	44	115	12.01923	94.68266	-349.3518	1	361.9551	-74.83576	9.916748E-007	5.343679E-005	9
	45	117	9.450605	118.7325	-425.8029	1	442.0469	-74.4192	3.118095E-007	0.0006399	8
	46	120	7.512019	148.339	-514.3647	1	535.3275	-73.91283	3.216366E-007	0.0006357	8
	47	123	5.978954	183.6538	-618.3124	1	645.0108	-73.4573	3.698344E-007	0.0006322	8
	48	126	4.734848	227.1536	-744.1943	1	778.0899	-73.02602	3.906528E-007	0.0006083	8
	49	129	3.75601	277.3917	-892.8395	1	934.9377	-72.74077	4.999712E-007	0.0006485	8
	50	132	3.004808	332.5666	-1062.758	1	1113.578	-72.62365	4.47285E-007	0.0006239	8
	51	136	2.372217	400.2822	-1280.004	1	1341.132	-72.63451	4.157464E-007	0.0005649	8
	52	140	1.878005	471.4316	-1544.086	1	1614.45	-73.02182	4.742085E-007	0.0006305	8
	53	145	1.512097	543.6964	-1839.048	1	1917.734	-73.5302	4.240502E-007	0.0006692	8
	54	150	1.201923	637.6063	-2230.708	1	2320.043	-74.0484	4.748404E-007	0.0006465	8
	55	157	0.956633	744.9045	-2707.693	1	2808.289	-74.61806	4.03708E-007	3.548916E-005	8
