EXPLAIN
TAG	EISPOT
TITLE	LABEL	Potentiostatic EIS	Test Identifier
DATE	LABEL	9/12/2020	Date
TIME	LABEL	17:26:57	Time
NOTES	NOTES	1	Notes...
	
PSTAT	PSTAT	REF3000-16137	Potentiostat
VDC	POTEN	0.00000E+000	T	DC Voltage (V)
FREQINIT	QUANT	3.00000E+005	Initial Freq. (Hz)
FREQFINAL	QUANT	1.00000E+000	Final Freq. (Hz)
PTSPERDEC	QUANT	1.00000E+001	Points/decade
VAC	QUANT	5.00000E+001	AC Voltage (mV rms)
AREA	QUANT	1.00000E+000	Sample Area (cm^2)
SPEED	SELECTOR	2	Optimize for:
ZGUESS	QUANT	1.00000E+003	Estimated Z (ohms)
EOC	QUANT	0	Open Circuit (V)
SEQUENCER	TOGGLE	TRUE	Run as Sequence
PSTATMODEL	IQUANT	5	Pstat Model
PSTATSECTION	LABEL	REF3000-16137	Pstat Section
PSTATSERIALNO	LABEL	16137	Pstat Serial Number
CTRLMODE	IQUANT	1	Control Mode
IESTAB	IQUANT	0	I/E Stability
CASPEED	IQUANT	1	Control Amp Speed
CONVENTION	IQUANT	1	Current Convention
ICHRANGE	IQUANT	2	Ich Range
ICHRANGEMODE	TOGGLE	F	Ich Auto Range
ICHOFFSETENABLE	TOGGLE	T	Ich Offset Enable
ICHOFFSET	QUANT	0	Ich Offset (V)
ICHFILTER	IQUANT	3	Ich Filter
VCHRANGE	IQUANT	2	Vch Range
VCHRANGEMODE	TOGGLE	F	Vch Auto Range
VCHOFFSETENABLE	TOGGLE	T	Vch Offset Enable
VCHOFFSET	QUANT	0	Vch Offset (V)
VCHFILTER	IQUANT	3	Vch Filter
ACHRANGE	IQUANT	2	Ach Range
ACHOFFSETENABLE	TOGGLE	F	Ach Offset Enable
ACHOFFSET	QUANT	0	Ach Offset (V)
ACHFILTER	IQUANT	3	Ach Filter
IERANGELOWERLIMIT	IQUANT	2	I/E Range Lower Limit
IERANGEMODE	TOGGLE	F	I/E AutoRange
IERANGE	IQUANT	11	I/E Range
POSFEEDENABLE	TOGGLE	F	Positive Feedback IR Comp
POSFEEDRESISTANCE	QUANT	0	Positive Feedback Resistance (ohm)
ACHSELECT	IQUANT	0	Ach Select
CABLEID	IQUANT	13	Cable ID
DCCALDATE	LABEL	7/31/2020	DC Calibration Date
ACCALDATE	LABEL	7/31/2020	AC Calibration Date
THERMOSELECT	IQUANT	1	Thermo Select
FRAMEWORKVERSION	QUANT	6.33	Framework Version
INSTRUMENTVERSION	LABEL	3.50	Instrument Version
COMPLIANCEVOLTAGE	IQUANT	0	Compliance Voltage
ZCURVE	TABLE
	Pt	Time	Freq	Zreal	Zimag	Zsig	Zmod	Zphz	Idc	Vdc	IERange
	#	s	Hz	ohm	ohm	V	ohm	°	A	V	#
	0	8	300046.9	12.14108	2.131907	1	12.32684	9.95929	3.120644E-005	0.0001791	10
	1	11	238359.4	12.13036	1.70715	1	12.2499	8.010831	2.219733E-005	0.0001498	10
	2	15	189328.1	12.14965	1.353641	1	12.22482	6.357336	-0.0001076	0.0003409	10
	3	17	150421.9	12.1696	1.068556	1	12.21643	5.018005	4.980124E-005	0.0006059	10
	4	20	119484.4	12.18317	0.8185604	1	12.21064	3.8438	6.008858E-005	0.0004784	10
	5	22	94921.88	12.20828	0.6436852	1	12.22524	3.018142	7.484232E-006	0.0006262	10
	6	25	75421.88	12.23274	0.4656663	1	12.2416	2.180038	2.503748E-005	0.0005553	10
	7	27	59859.37	12.26516	0.3174531	1	12.26927	1.482627	-1.766199E-006	0.0006677	10
	8	30	47578.12	12.29772	0.1923445	1	12.29922	0.896071	-1.051626E-005	0.0006919	10
	9	32	37828.12	12.32972	0.0792939	1	12.32997	0.368471	-2.749223E-005	0.0006813	10
	10	35	30046.88	12.36317	-0.0279644	1	12.3632	-0.1295979	-1.192008E-005	0.0006138	10
	11	37	23859.38	12.39787	-0.1346143	1	12.3986	-0.6220853	-2.341874E-005	0.0006752	10
	12	40	18984.38	12.43037	-0.2460809	1	12.43281	-1.134122	-1.703565E-005	0.0006456	10
	13	42	15046.87	12.4664	-0.3687351	1	12.47185	-1.694218	1.838334E-005	0.000584	10
	14	44	11953.13	12.50324	-0.5087481	1	12.51358	-2.33004	6.502283E-006	0.0005884	10
	15	47	9515.62	12.54276	-0.670636	1	12.56067	-3.060576	2.136436E-005	0.0006097	10
	16	49	7546.875	12.58749	-0.8660114	1	12.61724	-3.935713	-2.881047E-005	0.0006489	10
	17	51	5928.309	12.63737	-1.111869	1	12.68619	-5.028086	-5.003807E-006	0.0006061	10
	18	54	4733.456	12.6908	-1.394832	1	12.76723	-6.27214	2.434847E-005	0.0006228	10
	19	56	3796.875	12.75026	-1.730576	1	12.86717	-7.729444	1.975746E-005	0.0005993	10
	20	58	2987.132	12.82176	-2.182742	1	13.00622	-9.66126	2.067301E-005	0.0006403	10
	21	60	2390.625	12.90299	-2.698131	1	13.18208	-11.81087	3.968897E-006	0.0005969	10
	22	63	1884.191	13.00124	-3.386045	1	13.43494	-14.59783	2.306422E-005	0.0006338	10
	23	65	1516.544	13.11184	-4.158132	1	13.75538	-17.59528	2.327202E-005	0.0006231	10
	24	67	1193.986	13.26082	-5.209797	1	14.2475	-21.44845	3.751896E-006	0.0006021	10
	25	70	946.5144	13.43917	-6.4785	1	14.9192	-25.7369	1.294944E-005	0.0006244	10
	26	72	751.7689	13.66012	-8.035746	1	15.84841	-30.46674	6.410133E-006	0.0006555	10
	27	75	597.4265	13.93398	-9.95039	1	17.12209	-35.53102	-1.507874E-005	0.0006905	10
	28	77	477.4305	14.26999	-12.24637	1	18.80442	-40.63589	-2.534741E-006	0.0006567	10
	29	79	376.6741	14.71248	-15.24254	1	21.18472	-46.01375	-2.546908E-006	0.0006557	10
	30	81	298.2954	15.25781	-18.89395	1	24.28543	-51.07739	-2.563439E-006	0.0006587	10
	31	84	237.7717	15.92471	-23.27081	1	28.198	-55.61533	-2.128058E-006	0.0006497	10
	32	86	189.0121	16.76306	-28.71811	1	33.25252	-59.72745	-2.010703E-006	0.0006591	10
	33	89	150.2404	17.81348	-35.4341	1	39.65974	-63.31034	-2.17225E-006	0.0006529	10
	34	91	119.1737	19.13059	-43.74841	1	47.74833	-66.38089	1.141762E-006	5.867764E-005	9
	35	93	95.0169	20.79873	-53.81393	1	57.69338	-68.86881	1.111116E-006	5.012587E-005	9
	36	96	75.60484	22.96374	-66.30287	1	70.16697	-70.89668	5.995593E-007	0.0001043	9
	37	98	54.50582	27.23298	-89.30885	1	93.36865	-73.04195	1.09616E-006	4.358001E-005	9
	38	101	45.95588	30.23252	-104.2578	1	108.5527	-73.82896	1.182012E-006	5.06502E-005	9
	39	103	37.20238	34.8987	-126.1413	1	130.8799	-74.53517	1.174182E-006	5.044524E-005	9
	40	106	30.04808	41.01511	-152.6967	1	158.1092	-74.96494	9.763119E-007	5.260355E-005	9
	41	108	23.91582	49.49036	-186.8292	1	193.273	-75.16333	1.093662E-006	4.671259E-005	9
	42	111	18.60119	61.88704	-232.6982	1	240.7872	-75.1067	8.797726E-007	0.0001103	9
	43	113	15.02404	75.60789	-279.572	1	289.6153	-74.86684	9.821849E-007	4.631472E-005	9
	44	115	12.01923	93.67542	-337.3767	1	350.1402	-74.48225	1.310556E-006	5.257767E-005	9
	45	118	9.450605	118.1138	-411.5336	1	428.1481	-73.98605	1.050088E-006	4.559205E-005	9
	46	120	7.512019	146.3224	-493.8115	1	515.034	-73.49479	4.593791E-007	0.0006363	8
	47	123	5.978954	180.2097	-591.9627	1	618.7854	-73.06831	4.609793E-007	0.0006366	8
	48	126	4.734848	221.3352	-711.7053	1	745.3279	-72.72469	3.946071E-007	0.0006408	8
	49	129	3.75601	267.1445	-853.3354	1	894.1742	-72.61679	4.557353E-007	0.0006384	8
	50	133	3.004808	316.9546	-1016.374	1	1064.648	-72.67999	3.962157E-007	0.0006602	8
	51	136	2.372217	376.5673	-1224.396	1	1280.995	-72.90453	3.31169E-007	0.0006853	8
	52	140	1.878005	443.6392	-1482.435	1	1547.394	-73.33945	4.369977E-007	0.0006247	8
	53	145	1.512097	510.2905	-1772.749	1	1844.732	-73.9414	3.938364E-007	0.0006997	8
	54	151	1.201923	600.2145	-2155.486	1	2237.494	-74.43966	4.307444E-007	0.0006308	8
	55	157	0.956633	704.9897	-2624.614	1	2717.647	-74.96484	3.808591E-007	-6.989774E-006	8
