EXPLAIN
TAG	EISPOT
TITLE	LABEL	Potentiostatic EIS	Test Identifier
DATE	LABEL	9/12/2020	Date
TIME	LABEL	16:53:31	Time
NOTES	NOTES	1	Notes...
	
PSTAT	PSTAT	REF3000-16137	Potentiostat
VDC	POTEN	0.00000E+000	T	DC Voltage (V)
FREQINIT	QUANT	3.00000E+005	Initial Freq. (Hz)
FREQFINAL	QUANT	1.00000E+000	Final Freq. (Hz)
PTSPERDEC	QUANT	1.00000E+001	Points/decade
VAC	QUANT	5.00000E+001	AC Voltage (mV rms)
AREA	QUANT	1.00000E+000	Sample Area (cm^2)
SPEED	SELECTOR	2	Optimize for:
ZGUESS	QUANT	1.00000E+003	Estimated Z (ohms)
EOC	QUANT	0	Open Circuit (V)
SEQUENCER	TOGGLE	TRUE	Run as Sequence
PSTATMODEL	IQUANT	5	Pstat Model
PSTATSECTION	LABEL	REF3000-16137	Pstat Section
PSTATSERIALNO	LABEL	16137	Pstat Serial Number
CTRLMODE	IQUANT	1	Control Mode
IESTAB	IQUANT	0	I/E Stability
CASPEED	IQUANT	1	Control Amp Speed
CONVENTION	IQUANT	1	Current Convention
ICHRANGE	IQUANT	2	Ich Range
ICHRANGEMODE	TOGGLE	F	Ich Auto Range
ICHOFFSETENABLE	TOGGLE	T	Ich Offset Enable
ICHOFFSET	QUANT	0	Ich Offset (V)
ICHFILTER	IQUANT	3	Ich Filter
VCHRANGE	IQUANT	2	Vch Range
VCHRANGEMODE	TOGGLE	F	Vch Auto Range
VCHOFFSETENABLE	TOGGLE	T	Vch Offset Enable
VCHOFFSET	QUANT	0	Vch Offset (V)
VCHFILTER	IQUANT	3	Vch Filter
ACHRANGE	IQUANT	2	Ach Range
ACHOFFSETENABLE	TOGGLE	F	Ach Offset Enable
ACHOFFSET	QUANT	0	Ach Offset (V)
ACHFILTER	IQUANT	3	Ach Filter
IERANGELOWERLIMIT	IQUANT	2	I/E Range Lower Limit
IERANGEMODE	TOGGLE	F	I/E AutoRange
IERANGE	IQUANT	11	I/E Range
POSFEEDENABLE	TOGGLE	F	Positive Feedback IR Comp
POSFEEDRESISTANCE	QUANT	0	Positive Feedback Resistance (ohm)
ACHSELECT	IQUANT	0	Ach Select
CABLEID	IQUANT	13	Cable ID
DCCALDATE	LABEL	7/31/2020	DC Calibration Date
ACCALDATE	LABEL	7/31/2020	AC Calibration Date
THERMOSELECT	IQUANT	1	Thermo Select
FRAMEWORKVERSION	QUANT	6.33	Framework Version
INSTRUMENTVERSION	LABEL	3.50	Instrument Version
COMPLIANCEVOLTAGE	IQUANT	0	Compliance Voltage
ZCURVE	TABLE
	Pt	Time	Freq	Zreal	Zimag	Zsig	Zmod	Zphz	Idc	Vdc	IERange
	#	s	Hz	ohm	ohm	V	ohm	°	A	V	#
	0	10	300046.9	3.764528	2.254301	1	4.387886	30.91431	2.433776E-005	7.20006E-005	10
	1	13	238359.4	3.748209	1.801562	1	4.158689	25.67109	4.381257E-006	-0.0004116	10
	2	16	189328.1	3.724291	1.422663	1	3.986767	20.90664	1.855808E-005	-6.931726E-005	10
	3	19	150421.9	3.718692	1.126659	1	3.885618	16.85534	-0.0000973	0.000183	10
	4	21	119484.4	3.707104	0.8733993	1	3.808602	13.25721	-7.629725E-005	0.0004224	10
	5	24	94921.88	3.702502	0.6827245	1	3.764921	10.44772	-1.866622E-006	0.0004077	10
	6	26	75421.88	3.702856	0.5116424	1	3.738037	7.867034	-1.573236E-005	0.0004525	10
	7	29	59859.37	3.704319	0.3659666	1	3.722353	5.642202	-2.046125E-005	0.0005187	10
	8	32	47578.12	3.708647	0.2418486	1	3.716524	3.731095	2.309217E-005	0.0005552	10
	9	34	37828.12	3.713016	0.1312853	1	3.715336	2.025028	-3.18581E-005	0.0005905	10
	10	37	30046.88	3.719563	0.0279995	1	3.719668	0.4312933	-3.582295E-005	0.0006094	10
	11	39	23859.38	3.728172	-0.0723731	1	3.728874	-1.112114	-1.894539E-005	0.000696	10
	12	41	18984.38	3.736286	-0.1738254	1	3.740327	-2.663685	1.870931E-005	0.0006133	10
	13	44	15046.87	3.747902	-0.2840011	1	3.758646	-4.333365	-2.091321E-005	0.0006676	10
	14	46	11953.13	3.759813	-0.4061263	1	3.781684	-6.165054	1.410269E-005	0.000653	10
	15	48	9515.62	3.774768	-0.5452352	1	3.813942	-8.219074	5.682207E-006	0.0006578	10
	16	51	7546.875	3.792629	-0.7121925	1	3.858919	-10.63534	-2.866963E-005	0.0006566	10
	17	53	5928.309	3.817299	-0.9215722	1	3.926966	-13.57264	-1.443641E-005	0.0006455	10
	18	55	4733.456	3.845343	-1.159164	1	4.016258	-16.77524	-6.920574E-006	0.0006642	10
	19	58	3796.875	3.880228	-1.441955	1	4.139493	-20.38587	-2.394261E-005	0.0006436	10
	20	60	2987.132	3.927963	-1.81741	1	4.328033	-24.82928	-5.569184E-006	0.0006315	10
	21	62	2390.625	3.983828	-2.247708	1	4.574175	-29.43205	-3.127799E-005	0.0006513	10
	22	65	1884.191	4.061112	-2.812329	1	4.939821	-34.70269	-2.693463E-005	0.0007102	10
	23	67	1516.544	4.148497	-3.443773	1	5.391623	-39.69693	1.649937E-005	0.0006415	10
	24	69	1193.986	4.270632	-4.300057	1	6.060428	-45.19671	-2.826443E-005	0.0006733	10
	25	72	946.5144	4.424057	-5.323955	1	6.922194	-50.27437	1.853975E-005	0.000635	10
	26	74	751.7689	4.61177	-6.588089	1	8.041849	-55.00735	3.331491E-006	0.0006532	10
	27	76	597.4265	4.85308	-8.134476	1	9.472174	-59.17943	1.675388E-005	0.0006306	10
	28	79	477.4305	5.151694	-9.98921	1	11.23941	-62.71867	-4.128295E-006	0.0006597	10
	29	81	376.6741	5.560461	-12.40866	1	13.59756	-65.86232	-4.295818E-006	0.0006648	10
	30	83	298.2954	6.087535	-15.35301	1	16.51584	-68.37146	-4.286305E-006	0.0006608	10
	31	86	237.7717	6.75974	-18.86694	1	20.04135	-70.28817	-3.926498E-006	0.0006585	10
	32	88	189.0121	7.658346	-23.21912	1	24.4495	-71.74593	-4.146533E-006	0.0006594	10
	33	90	150.2404	8.846164	-28.53237	1	29.87224	-72.7745	-4.160303E-006	0.0006601	10
	34	93	119.1737	10.43102	-35.05144	1	36.57061	-73.42744	-3.817489E-006	0.0006615	10
	35	95	95.0169	12.45022	-42.69721	1	44.47538	-73.74368	-8.078736E-007	5.633108E-005	9
	36	98	75.60484	15.11328	-52.00969	1	54.16105	-73.79688	-8.314962E-007	4.987711E-005	9
	37	100	54.50582	20.28894	-68.55838	1	71.4975	-73.51458	-9.032836E-007	5.393157E-005	9
	38	103	45.95588	23.75022	-78.9566	1	82.4513	-73.25866	-6.822112E-007	5.691561E-005	9
	39	105	37.20238	28.87512	-93.75867	1	98.1043	-72.88259	-1.150042E-006	0.0001103	9
	40	108	30.04808	35.04777	-111.198	1	116.5905	-72.50601	-7.936599E-007	5.962142E-005	9
	41	110	23.91582	42.89792	-133.2368	1	139.9724	-72.15313	-8.794587E-007	5.365035E-005	9
	42	112	18.60119	52.90435	-162.121	1	170.5347	-71.92713	-8.107149E-007	5.732995E-005	9
	43	115	15.02404	62.73342	-191.5896	1	201.5988	-71.86967	-6.742669E-007	5.774667E-005	9
	44	117	12.01923	74.53017	-228.5308	1	240.3769	-71.93743	-6.335155E-007	6.057209E-005	9
	45	119	9.450605	89.20802	-277.2436	1	291.2423	-72.16351	-6.218555E-007	5.374556E-005	9
	46	122	7.512019	105.9935	-334.5624	1	350.9511	-72.42116	-6.250746E-007	4.447206E-005	9
	47	125	5.978954	126.3085	-403.0484	1	422.3764	-72.59989	-1.31365E-006	0.0006394	8
	48	128	4.734848	153.5933	-491.2352	1	514.6872	-72.63723	-1.342405E-006	0.0006137	8
	49	131	3.75601	190.353	-598.6028	1	628.1398	-72.35957	-1.193003E-006	0.000656	8
	50	134	3.004808	238.8465	-723.7666	1	762.1586	-71.73686	-1.243163E-006	0.0006198	8
	51	138	2.372217	312.0735	-883.6498	1	937.1376	-70.54861	-1.292298E-006	0.0005601	8
	52	142	1.878005	411.8639	-1070.694	1	1147.178	-68.95977	-1.178306E-006	0.0006369	8
	53	147	1.512097	538.1569	-1266.238	1	1375.853	-66.97429	-1.232738E-006	0.0006287	8
	54	152	1.201923	725.4698	-1501.725	1	1667.779	-64.21523	-1.169635E-006	0.0006518	8
	55	159	0.956633	970.262	-1744.978	1	1996.586	-60.92458	-1.365591E-006	-2.104856E-006	8
