EXPLAIN
TAG	EISPOT
TITLE	LABEL	Potentiostatic EIS	Test Identifier
DATE	LABEL	9/12/2020	Date
TIME	LABEL	16:50:43	Time
NOTES	NOTES	1	Notes...
	
PSTAT	PSTAT	REF3000-16137	Potentiostat
VDC	POTEN	0.00000E+000	T	DC Voltage (V)
FREQINIT	QUANT	3.00000E+005	Initial Freq. (Hz)
FREQFINAL	QUANT	1.00000E+000	Final Freq. (Hz)
PTSPERDEC	QUANT	1.00000E+001	Points/decade
VAC	QUANT	5.00000E+001	AC Voltage (mV rms)
AREA	QUANT	1.00000E+000	Sample Area (cm^2)
SPEED	SELECTOR	2	Optimize for:
ZGUESS	QUANT	1.00000E+003	Estimated Z (ohms)
EOC	QUANT	0	Open Circuit (V)
SEQUENCER	TOGGLE	TRUE	Run as Sequence
PSTATMODEL	IQUANT	5	Pstat Model
PSTATSECTION	LABEL	REF3000-16137	Pstat Section
PSTATSERIALNO	LABEL	16137	Pstat Serial Number
CTRLMODE	IQUANT	1	Control Mode
IESTAB	IQUANT	0	I/E Stability
CASPEED	IQUANT	1	Control Amp Speed
CONVENTION	IQUANT	1	Current Convention
ICHRANGE	IQUANT	2	Ich Range
ICHRANGEMODE	TOGGLE	F	Ich Auto Range
ICHOFFSETENABLE	TOGGLE	T	Ich Offset Enable
ICHOFFSET	QUANT	0	Ich Offset (V)
ICHFILTER	IQUANT	3	Ich Filter
VCHRANGE	IQUANT	2	Vch Range
VCHRANGEMODE	TOGGLE	F	Vch Auto Range
VCHOFFSETENABLE	TOGGLE	T	Vch Offset Enable
VCHOFFSET	QUANT	0	Vch Offset (V)
VCHFILTER	IQUANT	3	Vch Filter
ACHRANGE	IQUANT	2	Ach Range
ACHOFFSETENABLE	TOGGLE	F	Ach Offset Enable
ACHOFFSET	QUANT	0	Ach Offset (V)
ACHFILTER	IQUANT	3	Ach Filter
IERANGELOWERLIMIT	IQUANT	2	I/E Range Lower Limit
IERANGEMODE	TOGGLE	F	I/E AutoRange
IERANGE	IQUANT	11	I/E Range
POSFEEDENABLE	TOGGLE	F	Positive Feedback IR Comp
POSFEEDRESISTANCE	QUANT	0	Positive Feedback Resistance (ohm)
ACHSELECT	IQUANT	0	Ach Select
CABLEID	IQUANT	13	Cable ID
DCCALDATE	LABEL	7/31/2020	DC Calibration Date
ACCALDATE	LABEL	7/31/2020	AC Calibration Date
THERMOSELECT	IQUANT	1	Thermo Select
FRAMEWORKVERSION	QUANT	6.33	Framework Version
INSTRUMENTVERSION	LABEL	3.50	Instrument Version
COMPLIANCEVOLTAGE	IQUANT	0	Compliance Voltage
ZCURVE	TABLE
	Pt	Time	Freq	Zreal	Zimag	Zsig	Zmod	Zphz	Idc	Vdc	IERange
	#	s	Hz	ohm	ohm	V	ohm	°	A	V	#
	0	10	300046.9	3.559114	2.277913	1	4.225657	32.62016	-0.0001001	-0.000113	10
	1	13	238359.4	3.541082	1.802919	1	3.973636	26.98263	-2.811759E-006	-0.0004785	10
	2	17	189328.1	3.514374	1.423927	1	3.791885	22.05644	4.08953E-005	-0.0001325	10
	3	19	150421.9	3.515307	1.123197	1	3.690387	17.71952	-7.236961E-006	7.374407E-005	10
	4	22	119484.4	3.501004	0.8747934	1	3.608641	14.0292	-4.227931E-005	0.0003519	10
	5	24	94921.88	3.497259	0.6843409	1	3.563585	11.0717	3.999406E-005	0.0003861	10
	6	27	75421.88	3.497148	0.51273	1	3.534535	8.340923	-3.554036E-006	0.000505	10
	7	29	59859.37	3.497601	0.3676553	1	3.516871	6.00069	1.627979E-006	0.000473	10
	8	32	47578.12	3.501076	0.2437913	1	3.509553	3.983263	-1.046874E-005	0.0005547	10
	9	34	37828.12	3.505324	0.1336557	1	3.507871	2.183593	-7.855636E-006	0.0005765	10
	10	37	30046.88	3.511197	0.0310556	1	3.511334	0.506752	-9.552467E-006	0.0006067	10
	11	39	23859.38	3.518332	-0.0688289	1	3.519005	-1.12073	-9.753145E-006	0.0006243	10
	12	42	18984.38	3.526306	-0.1696699	1	3.530385	-2.754689	-3.393164E-005	0.0006338	10
	13	44	15046.87	3.537121	-0.2788913	1	3.548098	-4.508273	-2.370908E-005	0.0006692	10
	14	46	11953.13	3.549069	-0.3997281	1	3.571508	-6.426086	-2.194826E-005	0.0007225	10
	15	49	9515.62	3.563024	-0.5374275	1	3.603328	-8.577531	4.64643E-006	0.0006051	10
	16	51	7546.875	3.581172	-0.7024628	1	3.649417	-11.09792	1.676372E-006	0.0006095	10
	17	53	5928.309	3.604906	-0.9093675	1	3.717835	-14.15796	-2.927811E-005	0.000663	10
	18	55	4733.456	3.632653	-1.143668	1	3.808431	-17.47556	1.662516E-005	0.0006312	10
	19	58	3796.875	3.667772	-1.422133	1	3.933829	-21.19319	-1.78627E-005	0.0006642	10
	20	60	2987.132	3.714537	-1.793711	1	4.124947	-25.77541	-2.692211E-005	0.000718	10
	21	62	2390.625	3.769986	-2.216062	1	4.373068	-30.44773	1.847265E-005	0.0006323	10
	22	65	1884.191	3.846404	-2.773231	1	4.741902	-35.79134	2.5301E-007	0.0006219	10
	23	67	1516.544	3.934186	-3.395622	1	5.196929	-40.7977	1.141459E-005	0.000619	10
	24	69	1193.986	4.055414	-4.239224	1	5.866635	-46.26947	-3.01644E-005	0.0006722	10
	25	72	946.5144	4.208744	-5.249572	1	6.728412	-51.27977	-1.666129E-005	0.00067	10
	26	74	751.7689	4.39522	-6.490697	1	7.83882	-55.89584	1.71976E-005	0.0006434	10
	27	76	597.4265	4.632819	-8.017238	1	9.259542	-59.97822	-2.776747E-005	0.0006754	10
	28	79	477.4305	4.935857	-9.84282	1	11.01108	-63.36772	-5.259271E-006	0.0006608	10
	29	81	376.6741	5.347743	-12.22356	1	13.34218	-66.37089	-5.442435E-006	0.0006544	10
	30	83	298.2954	5.880692	-15.1195	1	16.22288	-68.74657	-4.801871E-006	0.0006601	10
	31	86	237.7717	6.562316	-18.5709	1	19.69625	-70.53835	-5.048602E-006	0.0006591	10
	32	88	189.0121	7.473208	-22.83999	1	24.03152	-71.88199	-5.113251E-006	0.0006614	10
	33	91	150.2404	8.677341	-28.03933	1	29.35133	-72.80425	-4.429593E-006	0.0006618	10
	34	93	119.1737	10.27926	-34.41082	1	35.91333	-73.36797	-5.085165E-006	0.000664	10
	35	95	95.0169	12.31412	-41.86532	1	43.63877	-73.60946	-1.116104E-006	6.186663E-005	9
	36	98	75.60484	14.98529	-50.92751	1	53.08644	-73.60361	-1.131471E-006	5.777473E-005	9
	37	100	54.50582	20.13144	-66.99141	1	69.95087	-73.27407	-1.232944E-006	5.508394E-005	9
	38	103	45.95588	23.5548	-77.0787	1	80.59748	-73.00716	-1.087644E-006	6.426734E-005	9
	39	105	37.20238	28.58375	-91.40253	1	95.7677	-72.63429	-1.037845E-006	5.03672E-005	9
	40	108	30.04808	34.57072	-108.2944	1	113.6785	-72.2954	-1.241997E-006	6.001211E-005	9
	41	110	23.91582	42.20023	-129.6695	1	136.3636	-71.9728	-1.220838E-006	4.838457E-005	9
	42	112	18.60119	51.85465	-157.8292	1	166.1294	-71.81211	-1.112643E-006	5.158789E-005	9
	43	115	15.02404	61.34114	-186.6413	1	196.463	-71.80647	-1.154176E-006	5.114517E-005	9
	44	117	12.01923	72.80504	-222.7748	1	234.3698	-71.90209	-1.002887E-006	5.865799E-005	9
	45	119	9.450605	87.25258	-270.5856	1	284.3054	-72.12766	-1.060402E-006	4.883386E-005	9
	46	122	7.512019	104.3772	-327.002	1	343.2563	-72.2972	-8.763702E-007	6.348873E-005	9
	47	125	5.978954	125.7551	-395.8955	1	415.3885	-72.3777	-8.296114E-007	5.444726E-005	9
	48	128	4.734848	154.1398	-480.6173	1	504.7297	-72.21832	-1.53943E-006	0.0006625	8
	49	131	3.75601	193.2051	-585.3614	1	616.4221	-71.73394	-1.624943E-006	0.0006214	8
	50	134	3.004808	245.3849	-706.4032	1	747.8096	-70.84418	-1.587941E-006	0.0006663	8
	51	138	2.372217	323.8349	-858.854	1	917.8776	-69.34081	-1.559554E-006	0.0007122	8
	52	142	1.878005	430.734	-1034.288	1	1120.395	-67.3905	-1.635499E-006	0.0006153	8
	53	147	1.512097	565.2497	-1213.387	1	1338.587	-65.0218	-1.546807E-006	0.0006568	8
	54	152	1.201923	759.572	-1422.841	1	1612.894	-61.90483	-1.564665E-006	0.0006053	8
	55	159	0.956633	1008.53	-1629.82	1	1916.624	-58.25084	-1.730978E-006	1.982373E-006	8
