EXPLAIN
TAG	EISPOT
TITLE	LABEL	Potentiostatic EIS	Test Identifier
DATE	LABEL	9/12/2020	Date
TIME	LABEL	18:00:10	Time
NOTES	NOTES	1	Notes...
	
PSTAT	PSTAT	REF3000-16137	Potentiostat
VDC	POTEN	0.00000E+000	T	DC Voltage (V)
FREQINIT	QUANT	3.00000E+005	Initial Freq. (Hz)
FREQFINAL	QUANT	1.00000E+000	Final Freq. (Hz)
PTSPERDEC	QUANT	1.00000E+001	Points/decade
VAC	QUANT	5.00000E+001	AC Voltage (mV rms)
AREA	QUANT	1.00000E+000	Sample Area (cm^2)
SPEED	SELECTOR	2	Optimize for:
ZGUESS	QUANT	1.00000E+003	Estimated Z (ohms)
EOC	QUANT	0	Open Circuit (V)
SEQUENCER	TOGGLE	TRUE	Run as Sequence
PSTATMODEL	IQUANT	5	Pstat Model
PSTATSECTION	LABEL	REF3000-16137	Pstat Section
PSTATSERIALNO	LABEL	16137	Pstat Serial Number
CTRLMODE	IQUANT	1	Control Mode
IESTAB	IQUANT	0	I/E Stability
CASPEED	IQUANT	1	Control Amp Speed
CONVENTION	IQUANT	1	Current Convention
ICHRANGE	IQUANT	2	Ich Range
ICHRANGEMODE	TOGGLE	F	Ich Auto Range
ICHOFFSETENABLE	TOGGLE	T	Ich Offset Enable
ICHOFFSET	QUANT	0	Ich Offset (V)
ICHFILTER	IQUANT	3	Ich Filter
VCHRANGE	IQUANT	2	Vch Range
VCHRANGEMODE	TOGGLE	F	Vch Auto Range
VCHOFFSETENABLE	TOGGLE	T	Vch Offset Enable
VCHOFFSET	QUANT	0	Vch Offset (V)
VCHFILTER	IQUANT	3	Vch Filter
ACHRANGE	IQUANT	2	Ach Range
ACHOFFSETENABLE	TOGGLE	F	Ach Offset Enable
ACHOFFSET	QUANT	0	Ach Offset (V)
ACHFILTER	IQUANT	3	Ach Filter
IERANGELOWERLIMIT	IQUANT	2	I/E Range Lower Limit
IERANGEMODE	TOGGLE	F	I/E AutoRange
IERANGE	IQUANT	11	I/E Range
POSFEEDENABLE	TOGGLE	F	Positive Feedback IR Comp
POSFEEDRESISTANCE	QUANT	0	Positive Feedback Resistance (ohm)
ACHSELECT	IQUANT	0	Ach Select
CABLEID	IQUANT	13	Cable ID
DCCALDATE	LABEL	7/31/2020	DC Calibration Date
ACCALDATE	LABEL	7/31/2020	AC Calibration Date
THERMOSELECT	IQUANT	1	Thermo Select
FRAMEWORKVERSION	QUANT	6.33	Framework Version
INSTRUMENTVERSION	LABEL	3.50	Instrument Version
COMPLIANCEVOLTAGE	IQUANT	0	Compliance Voltage
ZCURVE	TABLE
	Pt	Time	Freq	Zreal	Zimag	Zsig	Zmod	Zphz	Idc	Vdc	IERange
	#	s	Hz	ohm	ohm	V	ohm	°	A	V	#
	0	8	300046.9	216.1393	-8.885474	1	216.3218	-2.354101	2.512126E-005	-0.0019096	9
	1	12	238359.4	218.2837	-6.963346	1	218.3947	-1.827141	7.491182E-005	-0.0031282	9
	2	15	189328.1	220.0679	-5.954164	1	220.1484	-1.549818	7.51137E-005	-0.0023866	9
	3	18	150421.9	221.8999	-5.44399	1	221.9666	-1.405387	-7.991023E-006	-0.0013835	9
	4	21	119484.4	223.2032	-4.32167	1	223.245	-1.109225	1.318793E-005	-0.0016917	9
	5	24	94921.88	224.7132	-3.84834	1	224.7461	-0.981127	2.225413E-005	-0.0005769	9
	6	26	75421.88	226.1331	-3.221153	1	226.1561	-0.8160946	1.606822E-005	-0.0008167	9
	7	29	59859.37	227.5784	-2.786693	1	227.5955	-0.7015505	-8.174342E-007	-0.0004277	9
	8	31	47578.12	228.875	-2.373871	1	228.8873	-0.5942453	2.703679E-005	-0.000645	9
	9	34	37828.12	230.2814	-2.060431	1	230.2907	-0.5126371	7.281789E-006	-0.0006654	9
	10	36	30046.88	231.7754	-1.825185	1	231.7826	-0.4511836	-2.030843E-005	0.0004393	9
	11	39	23859.38	233.0688	-1.58188	1	233.0741	-0.3888708	-2.196556E-005	0.000934	9
	12	41	18984.38	234.2242	-1.418937	1	234.2285	-0.3470952	-1.484895E-005	9.322303E-005	9
	13	44	15046.87	235.3496	-1.929072	1	235.3575	-0.4696214	-2.166707E-005	0.0004573	9
	14	46	11953.13	236.5642	-1.62303	1	236.5697	-0.3930914	-9.554067E-006	-0.0001232	9
	15	48	9515.62	238.7627	-1.652138	1	238.7684	-0.3964564	2.427236E-005	0.000569	10
	16	52	7546.875	240.7162	-1.982556	1	240.7243	-0.4718815	-8.295185E-006	0.0009014	9
	17	55	5928.309	242.5382	-2.234811	1	242.5485	-0.5279233	1.979581E-005	-8.986014E-005	9
	18	59	4733.456	244.2831	-2.387372	1	244.2947	-0.5599323	2.578775E-005	-0.0007993	9
	19	62	3796.875	246.3486	-3.113571	1	246.3683	-0.724116	-2.609444E-005	0.0011085	9
	20	65	2987.132	248.4653	-3.05038	1	248.484	-0.7033783	-2.193517E-005	0.0009757	9
	21	69	2390.625	250.1023	-4.197873	1	250.1375	-0.961598	2.388056E-005	-0.0009169	9
	22	72	1884.191	252.2657	-5.286276	1	252.3211	-1.200468	-1.676926E-005	0.0009808	9
	23	76	1516.544	254.0319	-5.812369	1	254.0984	-1.310726	1.036142E-005	0.0002884	9
	24	79	1193.986	256.9037	-7.315525	1	257.0078	-1.631099	2.399417E-005	-0.0002678	9
	25	83	946.5144	259.231	-9.219159	1	259.3949	-2.036779	-9.627031E-006	0.0008596	9
	26	87	751.7689	261.8092	-11.1927	1	262.0483	-2.447982	1.616139E-005	-0.0007999	9
	27	90	597.4265	263.923	-13.8449	1	264.2859	-3.002875	-8.527823E-006	0.0008484	9
	28	94	477.4305	265.4922	-16.7902	1	266.0226	-3.618668	1.17147E-006	5.33148E-005	9
	29	96	376.6741	267.3258	-20.93062	1	268.144	-4.476914	1.146385E-006	5.623173E-005	9
	30	98	298.2954	269.2513	-26.02614	1	270.5063	-5.521123	1.224167E-006	5.467799E-005	9
	31	101	237.7717	271.3552	-32.18377	1	273.2571	-6.763901	1.146843E-006	6.101861E-005	9
	32	103	189.0121	273.6396	-39.91534	1	276.5355	-8.299106	1.181485E-006	5.864813E-005	9
	33	106	150.2404	276.1439	-49.51558	1	280.5481	-10.16572	1.202049E-006	5.61774E-005	9
	34	108	119.1737	278.9482	-61.54861	1	285.6577	-12.44268	1.150237E-006	6.060103E-005	9
	35	110	95.0169	282.0958	-76.11752	1	292.1848	-15.10042	1.203589E-006	5.254764E-005	9
	36	113	75.60484	285.791	-94.30308	1	300.9478	-18.26145	1.221415E-006	4.981431E-005	9
	37	115	54.50582	291.5216	-128.0276	1	318.3959	-23.70964	1.233853E-006	4.44686E-005	9
	38	118	45.95588	295.9126	-150.119	1	331.8132	-26.89907	1.110892E-006	5.682965E-005	9
	39	120	37.20238	301.7433	-182.6839	1	352.7356	-31.1919	1.161417E-006	5.190039E-005	9
	40	123	30.04808	307.5378	-221.712	1	379.1249	-35.78881	-3.82509E-008	0.0006281	8
	41	125	23.91582	316.6051	-273.6602	1	418.4838	-40.83876	-4.944816E-008	0.0006792	8
	42	128	18.60119	328.7433	-344.683	1	476.3176	-46.35591	-5.065136E-008	0.0006254	8
	43	130	15.02404	341.6617	-419.0424	1	540.6748	-50.80829	-1.006859E-007	0.0006149	8
	44	132	12.01923	358.1626	-513.4128	1	625.9977	-55.09994	5.879356E-008	0.000622	8
	45	135	9.450605	380.0158	-638.8469	1	743.3286	-59.25385	-8.675151E-008	0.0006374	8
	46	137	7.512019	405.9596	-786.8323	1	885.3859	-62.7089	-8.745715E-008	0.0006401	8
	47	140	5.978954	437.5226	-967.406	1	1061.744	-65.66448	-5.232292E-008	0.000622	8
	48	143	4.734848	477.4195	-1195.541	1	1287.341	-68.23152	-2.152362E-009	0.00066	8
	49	146	3.75601	528.3412	-1474.526	1	1566.324	-70.28677	-5.125593E-008	0.0006146	8
	50	150	3.004808	589.9329	-1804.232	1	1898.229	-71.89371	-2.379596E-008	0.000644	8
	51	153	2.372217	675.6931	-2235.1	1	2335.002	-73.17941	-1.968987E-008	0.0006957	8
	52	158	1.878005	779.6183	-2763.066	1	2870.947	-74.24322	-5.010003E-008	0.0006008	8
	53	162	1.512097	910.9084	-3354.584	1	3476.06	-74.80814	-2.772376E-008	0.0007024	8
	54	168	1.201923	1083.243	-4131.762	1	4271.402	-75.30914	-2.814481E-008	0.0005975	8
	55	174	0.956633	1310.566	-5077.887	1	5244.285	-75.52818	-4.55351E-008	-2.951406E-005	7
