EXPLAIN
TAG	EISPOT
TITLE	LABEL	Potentiostatic EIS	Test Identifier
DATE	LABEL	9/12/2020	Date
TIME	LABEL	16:59:07	Time
NOTES	NOTES	1	Notes...
	
PSTAT	PSTAT	REF3000-16137	Potentiostat
VDC	POTEN	0.00000E+000	T	DC Voltage (V)
FREQINIT	QUANT	3.00000E+005	Initial Freq. (Hz)
FREQFINAL	QUANT	1.00000E+000	Final Freq. (Hz)
PTSPERDEC	QUANT	1.00000E+001	Points/decade
VAC	QUANT	5.00000E+001	AC Voltage (mV rms)
AREA	QUANT	1.00000E+000	Sample Area (cm^2)
SPEED	SELECTOR	2	Optimize for:
ZGUESS	QUANT	1.00000E+003	Estimated Z (ohms)
EOC	QUANT	0	Open Circuit (V)
SEQUENCER	TOGGLE	TRUE	Run as Sequence
PSTATMODEL	IQUANT	5	Pstat Model
PSTATSECTION	LABEL	REF3000-16137	Pstat Section
PSTATSERIALNO	LABEL	16137	Pstat Serial Number
CTRLMODE	IQUANT	1	Control Mode
IESTAB	IQUANT	0	I/E Stability
CASPEED	IQUANT	1	Control Amp Speed
CONVENTION	IQUANT	1	Current Convention
ICHRANGE	IQUANT	2	Ich Range
ICHRANGEMODE	TOGGLE	F	Ich Auto Range
ICHOFFSETENABLE	TOGGLE	T	Ich Offset Enable
ICHOFFSET	QUANT	0	Ich Offset (V)
ICHFILTER	IQUANT	3	Ich Filter
VCHRANGE	IQUANT	2	Vch Range
VCHRANGEMODE	TOGGLE	F	Vch Auto Range
VCHOFFSETENABLE	TOGGLE	T	Vch Offset Enable
VCHOFFSET	QUANT	0	Vch Offset (V)
VCHFILTER	IQUANT	3	Vch Filter
ACHRANGE	IQUANT	2	Ach Range
ACHOFFSETENABLE	TOGGLE	F	Ach Offset Enable
ACHOFFSET	QUANT	0	Ach Offset (V)
ACHFILTER	IQUANT	3	Ach Filter
IERANGELOWERLIMIT	IQUANT	2	I/E Range Lower Limit
IERANGEMODE	TOGGLE	F	I/E AutoRange
IERANGE	IQUANT	11	I/E Range
POSFEEDENABLE	TOGGLE	F	Positive Feedback IR Comp
POSFEEDRESISTANCE	QUANT	0	Positive Feedback Resistance (ohm)
ACHSELECT	IQUANT	0	Ach Select
CABLEID	IQUANT	13	Cable ID
DCCALDATE	LABEL	7/31/2020	DC Calibration Date
ACCALDATE	LABEL	7/31/2020	AC Calibration Date
THERMOSELECT	IQUANT	1	Thermo Select
FRAMEWORKVERSION	QUANT	6.33	Framework Version
INSTRUMENTVERSION	LABEL	3.50	Instrument Version
COMPLIANCEVOLTAGE	IQUANT	0	Compliance Voltage
ZCURVE	TABLE
	Pt	Time	Freq	Zreal	Zimag	Zsig	Zmod	Zphz	Idc	Vdc	IERange
	#	s	Hz	ohm	ohm	V	ohm	°	A	V	#
	0	10	300046.9	4.286869	2.24455	1	4.838931	27.63598	5.91838E-005	-0.0001743	10
	1	13	238359.4	4.249392	1.79836	1	4.614264	22.93827	-9.855471E-007	-0.000258	10
	2	17	189328.1	4.23805	1.420651	1	4.469822	18.53184	-8.606209E-006	4.58606E-005	10
	3	19	150421.9	4.22219	1.109283	1	4.365478	14.72046	-1.590306E-005	0.0002162	10
	4	22	119484.4	4.223153	0.8699323	1	4.311821	11.63962	6.958761E-006	0.0003164	10
	5	24	94921.88	4.221128	0.6806245	1	4.275648	9.159668	2.478036E-005	0.0004208	10
	6	27	75421.88	4.222628	0.5096233	1	4.25327	6.881668	-1.36747E-005	0.000475	10
	7	29	59859.37	4.22551	0.3635013	1	4.241117	4.916789	-1.695457E-005	0.0005226	10
	8	32	47578.12	4.229472	0.2379093	1	4.236157	3.219516	-1.884967E-005	0.0005668	10
	9	34	37828.12	4.236391	0.1263101	1	4.238273	1.707797	-1.370216E-005	0.0005751	10
	10	37	30046.88	4.244571	0.0215465	1	4.244626	0.2908446	5.289377E-006	0.0005706	10
	11	39	23859.38	4.254251	-0.0797859	1	4.254999	-1.074422	-2.040936E-005	0.0006714	10
	12	42	18984.38	4.263992	-0.1829834	1	4.267916	-2.457263	1.868745E-005	0.0006117	10
	13	44	15046.87	4.276462	-0.2949258	1	4.286619	-3.945152	-2.375907E-005	0.0006762	10
	14	46	11953.13	4.289976	-0.4191389	1	4.310403	-5.580197	-2.146551E-005	0.0006739	10
	15	49	9515.62	4.3058	-0.5616094	1	4.342272	-7.431189	2.087558E-005	0.0006504	10
	16	51	7546.875	4.326165	-0.7321333	1	4.387679	-9.60537	-2.331224E-005	0.0006868	10
	17	53	5928.309	4.350584	-0.94689	1	4.452435	-12.27874	3.027011E-006	0.0006194	10
	18	55	4733.456	4.379875	-1.190532	1	4.538796	-15.20665	1.871092E-005	0.0006342	10
	19	58	3796.875	4.416169	-1.480262	1	4.657652	-18.53071	-2.415753E-005	0.00071	10
	20	60	2987.132	4.464297	-1.867882	1	4.839311	-22.70465	2.808237E-006	0.0006508	10
	21	62	2390.625	4.521328	-2.310744	1	5.077593	-27.0705	-5.058279E-006	0.0006118	10
	22	65	1884.191	4.599295	-2.891014	1	5.432446	-32.15255	8.526571E-006	0.000608	10
	23	67	1516.544	4.688451	-3.543737	1	5.877044	-37.08359	-6.308952E-006	0.0006576	10
	24	69	1193.986	4.812478	-4.426156	1	6.53841	-42.60552	-2.300615E-005	0.000677	10
	25	72	946.5144	4.96716	-5.483776	1	7.398951	-47.82997	1.746174E-005	0.000627	10
	26	74	751.7689	5.157174	-6.78244	1	8.520442	-52.75168	-1.356559E-005	0.0006327	10
	27	76	597.4265	5.39892	-8.378231	1	9.9671	-57.20233	1.697885E-005	0.0006219	10
	28	79	477.4305	5.69604	-10.29486	1	11.76559	-61.04471	-3.704714E-006	0.0006502	10
	29	81	376.6741	6.099563	-12.79311	1	14.1728	-64.50889	-3.458211E-006	0.0006536	10
	30	83	298.2954	6.614171	-15.83781	1	17.16344	-67.33366	-3.385333E-006	0.0006576	10
	31	86	237.7717	7.268464	-19.47922	1	20.79111	-69.53747	-4.139658E-006	0.0006554	10
	32	88	189.0121	8.137533	-24.00211	1	25.34405	-71.27159	-7.767335E-006	0.0007142	10
	33	91	150.2404	9.288869	-29.54109	1	30.96707	-72.54482	-3.637499E-006	0.0006512	10
	34	93	119.1737	10.82806	-36.36639	1	37.94419	-73.41914	-3.863784E-006	0.0006497	10
	35	95	95.0169	12.80189	-44.40825	1	46.21667	-73.91893	-2.465854E-007	5.12249E-005	9
	36	98	75.60484	15.42984	-54.24612	1	56.39788	-74.12206	-3.125553E-007	5.311883E-005	9
	37	100	54.50582	20.61381	-71.82784	1	74.72729	-73.98709	-8.761392E-007	0.0001057	9
	38	103	45.95588	24.13685	-82.92745	1	86.36868	-73.77184	-1.410813E-007	6.297055E-005	9
	39	105	37.20238	29.41445	-98.754	1	103.0415	-73.41353	-1.73951E-007	6.026928E-005	9
	40	108	30.04808	35.87768	-117.4081	1	122.7676	-73.00784	-7.120236E-007	0.0001179	9
	41	110	23.91582	44.15516	-140.8175	1	147.5779	-72.5905	-3.774683E-007	5.48845E-005	9
	42	112	18.60119	55.06177	-171.6157	1	180.2325	-72.21151	-3.267701E-007	6.283733E-005	9
	43	115	15.02404	65.7122	-202.7345	1	213.1182	-72.04097	-1.049123E-007	5.981682E-005	9
	44	117	12.01923	78.42395	-241.3856	1	253.8057	-72.0015	-2.673994E-007	5.261618E-005	9
	45	119	9.450605	94.00861	-292.0885	1	306.8441	-72.15924	-2.150227E-007	5.765219E-005	9
	46	122	7.512019	111.3975	-351.4154	1	368.6491	-72.41156	-1.770644E-007	0.0000983	9
	47	125	5.978954	130.9503	-422.0646	1	441.9124	-72.7629	-8.144413E-007	0.0006352	8
	48	128	4.734848	156.6024	-513.2946	1	536.6523	-73.03343	-8.051649E-007	0.0006099	8
	49	131	3.75601	189.1681	-625.4141	1	653.3967	-73.17109	-7.248496E-007	0.0006504	8
	50	134	3.004808	231.4232	-757.4244	1	791.9902	-73.01001	-7.531204E-007	0.0006189	8
	51	138	2.372217	294.0014	-929.3778	1	974.772	-72.44564	-8.039075E-007	0.0005569	8
	52	142	1.878005	378.9871	-1135.025	1	1196.626	-71.53574	-7.316851E-007	0.0006458	8
	53	147	1.512097	488.9949	-1357.448	1	1442.838	-70.18941	-7.747969E-007	0.0005908	8
	54	152	1.201923	652.6797	-1638.791	1	1763.98	-68.28413	-7.127831E-007	0.0006634	8
	55	159	0.956633	876.3014	-1949.717	1	2137.592	-65.79843	-8.466702E-007	-3.230791E-006	8
