EXPLAIN
TAG	EISPOT
TITLE	LABEL	Potentiostatic EIS	Test Identifier
DATE	LABEL	9/12/2020	Date
TIME	LABEL	17:54:39	Time
NOTES	NOTES	1	Notes...
	
PSTAT	PSTAT	REF3000-16137	Potentiostat
VDC	POTEN	0.00000E+000	T	DC Voltage (V)
FREQINIT	QUANT	3.00000E+005	Initial Freq. (Hz)
FREQFINAL	QUANT	1.00000E+000	Final Freq. (Hz)
PTSPERDEC	QUANT	1.00000E+001	Points/decade
VAC	QUANT	5.00000E+001	AC Voltage (mV rms)
AREA	QUANT	1.00000E+000	Sample Area (cm^2)
SPEED	SELECTOR	2	Optimize for:
ZGUESS	QUANT	1.00000E+003	Estimated Z (ohms)
EOC	QUANT	0	Open Circuit (V)
SEQUENCER	TOGGLE	TRUE	Run as Sequence
PSTATMODEL	IQUANT	5	Pstat Model
PSTATSECTION	LABEL	REF3000-16137	Pstat Section
PSTATSERIALNO	LABEL	16137	Pstat Serial Number
CTRLMODE	IQUANT	1	Control Mode
IESTAB	IQUANT	0	I/E Stability
CASPEED	IQUANT	1	Control Amp Speed
CONVENTION	IQUANT	1	Current Convention
ICHRANGE	IQUANT	2	Ich Range
ICHRANGEMODE	TOGGLE	F	Ich Auto Range
ICHOFFSETENABLE	TOGGLE	T	Ich Offset Enable
ICHOFFSET	QUANT	0	Ich Offset (V)
ICHFILTER	IQUANT	3	Ich Filter
VCHRANGE	IQUANT	2	Vch Range
VCHRANGEMODE	TOGGLE	F	Vch Auto Range
VCHOFFSETENABLE	TOGGLE	T	Vch Offset Enable
VCHOFFSET	QUANT	0	Vch Offset (V)
VCHFILTER	IQUANT	3	Vch Filter
ACHRANGE	IQUANT	2	Ach Range
ACHOFFSETENABLE	TOGGLE	F	Ach Offset Enable
ACHOFFSET	QUANT	0	Ach Offset (V)
ACHFILTER	IQUANT	3	Ach Filter
IERANGELOWERLIMIT	IQUANT	2	I/E Range Lower Limit
IERANGEMODE	TOGGLE	F	I/E AutoRange
IERANGE	IQUANT	11	I/E Range
POSFEEDENABLE	TOGGLE	F	Positive Feedback IR Comp
POSFEEDRESISTANCE	QUANT	0	Positive Feedback Resistance (ohm)
ACHSELECT	IQUANT	0	Ach Select
CABLEID	IQUANT	13	Cable ID
DCCALDATE	LABEL	7/31/2020	DC Calibration Date
ACCALDATE	LABEL	7/31/2020	AC Calibration Date
THERMOSELECT	IQUANT	1	Thermo Select
FRAMEWORKVERSION	QUANT	6.33	Framework Version
INSTRUMENTVERSION	LABEL	3.50	Instrument Version
COMPLIANCEVOLTAGE	IQUANT	0	Compliance Voltage
ZCURVE	TABLE
	Pt	Time	Freq	Zreal	Zimag	Zsig	Zmod	Zphz	Idc	Vdc	IERange
	#	s	Hz	ohm	ohm	V	ohm	°	A	V	#
	0	7	300046.9	110.725	-0.0953387	1	110.725	-0.049334	1.590135E-005	-0.0015203	9
	1	10	238359.4	111.3204	-0.178844	1	111.3205	-0.0920497	1.595435E-005	-0.0016968	9
	2	14	189328.1	112.1213	-0.0566494	1	112.1213	-0.0289488	6.527197E-005	-0.0026156	9
	3	16	150421.9	112.6819	-0.1825839	1	112.6821	-0.092839	-6.993846E-005	0.0017654	9
	4	19	119484.4	113.3123	-0.3206562	1	113.3128	-0.1621377	2.266472E-005	-0.0005619	9
	5	21	94921.88	113.9439	-0.087149	1	113.944	-0.0438222	-1.441996E-005	0.000698	9
	6	24	75421.88	114.456	-0.3062896	1	114.4564	-0.1533258	2.440075E-005	-0.000298	9
	7	26	59859.37	115.0808	-0.3227349	1	115.0812	-0.160681	-8.969898E-006	-7.916485E-005	9
	8	29	47578.12	115.7248	-0.4322051	1	115.7256	-0.2139854	-6.271641E-006	0.0006679	9
	9	31	37828.12	116.3144	-0.4102977	1	116.3151	-0.2021094	2.367163E-005	-0.0007306	9
	10	34	30046.88	116.8992	-0.4537385	1	116.9001	-0.2223897	-1.689249E-005	0.0003562	9
	11	36	23859.38	117.4319	-0.5208469	1	117.4331	-0.2541228	1.373021E-005	-0.0007057	9
	12	39	18984.38	117.9474	-0.6312177	1	117.9491	-0.3066262	1.466756E-005	-0.000706	9
	13	41	15046.87	118.5595	-0.8214511	1	118.5623	-0.3969731	-1.562373E-005	0.0010138	9
	14	43	11953.13	119.054	-0.8925835	1	119.0574	-0.4295555	-2.148498E-006	-0.0003105	9
	15	46	9515.62	119.6275	-1.03999	1	119.632	-0.4980925	2.357957E-005	-0.0004728	9
	16	48	7546.875	120.2368	-1.227315	1	120.2431	-0.5848255	-8.856468E-006	0.0007756	9
	17	50	5928.309	120.7756	-1.542357	1	120.7855	-0.7316521	-1.437805E-005	0.0001554	9
	18	53	4733.456	121.3074	-1.909827	1	121.3224	-0.9019729	2.532528E-005	-0.0006209	9
	19	55	3796.875	121.9689	-2.257075	1	121.9898	-1.060157	2.322147E-005	-0.0007352	9
	20	57	2987.132	122.3991	-2.844758	1	122.4322	-1.331409	-1.370849E-005	0.0008651	9
	21	60	2390.625	123.1687	-3.472347	1	123.2176	-1.614844	-1.706237E-005	0.0003679	9
	22	62	1884.191	123.8779	-4.488523	1	123.9592	-2.075115	-1.86513E-005	0.0008803	9
	23	64	1516.544	124.4323	-5.298356	1	124.5451	-2.438194	2.383267E-005	-0.0004346	9
	24	66	1193.986	125.1859	-6.683697	1	125.3642	-3.056131	-2.133995E-005	0.0006531	9
	25	69	946.5144	125.917	-8.252205	1	126.1871	-3.749624	-1.45039E-005	0.0008352	9
	26	71	751.7689	126.5979	-10.27988	1	127.0146	-4.64229	-1.470225E-005	0.0001525	9
	27	74	597.4265	127.6202	-12.74497	1	128.255	-5.703014	-1.551514E-006	-0.0003332	9
	28	76	477.4305	128.3693	-15.60225	1	129.314	-6.929847	1.257609E-006	5.730828E-005	9
	29	78	376.6741	129.3516	-19.49495	1	130.8124	-8.570705	1.265156E-006	5.139656E-005	9
	30	81	298.2954	130.4499	-24.27146	1	132.6887	-10.53991	1.212815E-006	5.661354E-005	9
	31	83	237.7717	131.6661	-30.03514	1	135.0484	-12.8502	1.201007E-006	4.921618E-005	9
	32	85	189.0121	133.0658	-37.25904	1	138.1837	-15.64249	7.995072E-007	0.0001068	9
	33	88	150.2404	134.7185	-46.21384	1	142.4247	-18.93402	1.248556E-006	5.043534E-005	9
	34	90	119.1737	136.6746	-57.39981	1	148.2386	-22.78116	1.230232E-006	6.045467E-005	9
	35	93	95.0169	138.9889	-70.91398	1	156.0343	-27.03128	1.278403E-006	5.782675E-005	9
	36	95	75.60484	141.8492	-87.71326	1	166.7777	-31.73081	1.307862E-006	5.590792E-005	9
	37	98	54.50582	146.7906	-118.7062	1	188.782	-38.96168	1.177501E-006	5.427305E-005	9
	38	100	45.95588	150.329	-138.9455	1	204.7063	-42.74648	1.196545E-006	6.704852E-005	9
	39	103	37.20238	155.3245	-168.6982	1	229.3137	-47.36347	1.243122E-006	5.707605E-005	9
	40	105	30.04808	161.5073	-205.1156	1	261.069	-51.78323	1.225708E-006	4.839796E-005	9
	41	107	23.91582	169.5495	-252.6334	1	304.2542	-56.13331	1.297073E-006	5.377528E-005	9
	42	110	18.60119	180.4242	-317.544	1	365.222	-60.39535	1.280754E-006	0.0001094	9
	43	112	15.02404	191.1401	-383.9916	1	428.9337	-63.53719	5.417073E-008	0.0006216	8
	44	114	12.01923	205.8827	-470.1407	1	513.2446	-66.35056	1.98131E-007	0.0006335	8
	45	117	9.450605	225.768	-584.8852	1	626.9465	-68.89321	6.259221E-008	0.0006327	8
	46	119	7.512019	249.9012	-720.3861	1	762.5004	-70.86839	7.039441E-008	0.0006231	8
	47	122	5.978954	280.1649	-886.1138	1	929.3492	-72.45448	9.546861E-008	0.0006295	8
	48	125	4.734848	320.9456	-1095.358	1	1141.409	-73.66914	1.551767E-007	0.000621	8
	49	128	3.75601	372.7792	-1350.39	1	1400.899	-74.56767	1.130846E-007	0.0006311	8
	50	132	3.004808	437.3048	-1649.443	1	1706.428	-75.1512	1.617739E-007	0.0006088	8
	51	136	2.372217	528.1671	-2033.46	1	2100.933	-75.43984	1.326713E-007	0.0006476	8
	52	140	1.878005	647.7738	-2505.701	1	2588.078	-75.50524	1.048574E-007	0.0006336	8
	53	145	1.512097	785.1557	-3029.089	1	3129.193	-75.46844	1.442362E-007	0.0005424	8
	54	150	1.201923	981.471	-3697.66	1	3825.699	-75.13474	1.073807E-007	0.0006349	8
	55	156	0.956633	1225.142	-4499.203	1	4663.024	-74.76756	-2.410237E-008	-3.063516E-005	7
