EXPLAIN
TAG	EISPOT
TITLE	LABEL	Potentiostatic EIS	Test Identifier
DATE	LABEL	9/12/2020	Date
TIME	LABEL	17:32:29	Time
NOTES	NOTES	1	Notes...
	
PSTAT	PSTAT	REF3000-16137	Potentiostat
VDC	POTEN	0.00000E+000	T	DC Voltage (V)
FREQINIT	QUANT	3.00000E+005	Initial Freq. (Hz)
FREQFINAL	QUANT	1.00000E+000	Final Freq. (Hz)
PTSPERDEC	QUANT	1.00000E+001	Points/decade
VAC	QUANT	5.00000E+001	AC Voltage (mV rms)
AREA	QUANT	1.00000E+000	Sample Area (cm^2)
SPEED	SELECTOR	2	Optimize for:
ZGUESS	QUANT	1.00000E+003	Estimated Z (ohms)
EOC	QUANT	0	Open Circuit (V)
SEQUENCER	TOGGLE	TRUE	Run as Sequence
PSTATMODEL	IQUANT	5	Pstat Model
PSTATSECTION	LABEL	REF3000-16137	Pstat Section
PSTATSERIALNO	LABEL	16137	Pstat Serial Number
CTRLMODE	IQUANT	1	Control Mode
IESTAB	IQUANT	0	I/E Stability
CASPEED	IQUANT	1	Control Amp Speed
CONVENTION	IQUANT	1	Current Convention
ICHRANGE	IQUANT	2	Ich Range
ICHRANGEMODE	TOGGLE	F	Ich Auto Range
ICHOFFSETENABLE	TOGGLE	T	Ich Offset Enable
ICHOFFSET	QUANT	0	Ich Offset (V)
ICHFILTER	IQUANT	3	Ich Filter
VCHRANGE	IQUANT	2	Vch Range
VCHRANGEMODE	TOGGLE	F	Vch Auto Range
VCHOFFSETENABLE	TOGGLE	T	Vch Offset Enable
VCHOFFSET	QUANT	0	Vch Offset (V)
VCHFILTER	IQUANT	3	Vch Filter
ACHRANGE	IQUANT	2	Ach Range
ACHOFFSETENABLE	TOGGLE	F	Ach Offset Enable
ACHOFFSET	QUANT	0	Ach Offset (V)
ACHFILTER	IQUANT	3	Ach Filter
IERANGELOWERLIMIT	IQUANT	2	I/E Range Lower Limit
IERANGEMODE	TOGGLE	F	I/E AutoRange
IERANGE	IQUANT	11	I/E Range
POSFEEDENABLE	TOGGLE	F	Positive Feedback IR Comp
POSFEEDRESISTANCE	QUANT	0	Positive Feedback Resistance (ohm)
ACHSELECT	IQUANT	0	Ach Select
CABLEID	IQUANT	13	Cable ID
DCCALDATE	LABEL	7/31/2020	DC Calibration Date
ACCALDATE	LABEL	7/31/2020	AC Calibration Date
THERMOSELECT	IQUANT	1	Thermo Select
FRAMEWORKVERSION	QUANT	6.33	Framework Version
INSTRUMENTVERSION	LABEL	3.50	Instrument Version
COMPLIANCEVOLTAGE	IQUANT	0	Compliance Voltage
ZCURVE	TABLE
	Pt	Time	Freq	Zreal	Zimag	Zsig	Zmod	Zphz	Idc	Vdc	IERange
	#	s	Hz	ohm	ohm	V	ohm	°	A	V	#
	0	8	300046.9	16.72425	2.09515	1	16.85498	7.140593	-0.0000982	0.0002898	10
	1	11	238359.4	16.75868	1.646255	1	16.83935	5.610335	-1.262548E-005	0.0003138	10
	2	14	189328.1	16.79304	1.298307	1	16.84315	4.420869	2.515201E-005	0.0003907	10
	3	17	150421.9	16.82325	1.024764	1	16.85443	3.485783	-5.364942E-005	0.0006115	10
	4	19	119484.4	16.86888	0.7850564	1	16.88713	2.664551	-5.427183E-006	0.0004501	10
	5	22	94921.88	16.90573	0.6058449	1	16.91659	2.052411	2.416299E-005	0.0005775	10
	6	24	75421.88	16.95246	0.4362491	1	16.95807	1.474106	2.21733E-005	0.0006243	10
	7	27	59859.37	17.00081	0.2939676	1	17.00336	0.990624	1.410324E-005	0.0005952	10
	8	29	47578.12	17.05003	0.1709556	1	17.05088	0.5744686	1.92009E-005	0.0005631	10
	9	32	37828.12	17.10231	0.0593089	1	17.10241	0.1986947	-1.936629E-005	0.0006198	10
	10	34	30046.88	17.15535	-0.0472961	1	17.15542	-0.1579601	-2.635283E-005	0.000718	10
	11	37	23859.38	17.20606	-0.1556998	1	17.20676	-0.5184625	-2.160262E-006	0.0006974	10
	12	39	18984.38	17.254	-0.268204	1	17.25608	-0.8905598	-1.762541E-005	0.0006527	10
	13	42	15046.87	17.30962	-0.3947372	1	17.31412	-1.306375	-2.102827E-005	0.0006786	10
	14	44	11953.13	17.3627	-0.538758	1	17.37106	-1.777296	-2.909478E-005	0.00065	10
	15	46	9515.62	17.42042	-0.7028095	1	17.43459	-2.310288	5.286002E-006	0.000589	10
	16	49	7546.875	17.48001	-0.9051463	1	17.50342	-2.964232	-3.094152E-005	0.0006497	10
	17	51	5928.309	17.54792	-1.15798	1	17.58608	-3.77545	-3.594522E-006	0.0006093	10
	18	53	4733.456	17.61981	-1.451429	1	17.67949	-4.7091	-4.112453E-006	0.0006687	10
	19	55	3796.875	17.69345	-1.798667	1	17.78464	-5.804591	4.766541E-006	0.0006276	10
	20	58	2987.132	17.78402	-2.266237	1	17.92783	-7.262124	-4.232741E-006	0.0006138	10
	21	60	2390.625	17.88322	-2.803638	1	18.10165	-8.91001	-1.679266E-005	0.0006596	10
	22	62	1884.191	18.00394	-3.519501	1	18.34472	-11.06098	-4.645202E-006	0.0006741	10
	23	65	1516.544	18.12943	-4.322437	1	18.63759	-13.41016	-1.48428E-005	0.0006948	10
	24	67	1193.986	18.29338	-5.412827	1	19.07738	-16.48295	1.898336E-005	0.0005929	10
	25	70	946.5144	18.48974	-6.730727	1	19.67672	-20.00277	-3.88431E-006	0.0006131	10
	26	72	751.7689	18.72372	-8.361522	1	20.50592	-24.06428	4.911165E-006	0.0005884	10
	27	74	597.4265	19.01314	-10.36839	1	21.65648	-28.60484	-2.874474E-005	0.0006809	10
	28	76	477.4305	19.36538	-12.77361	1	23.19877	-33.40926	-2.406331E-006	0.0006529	10
	29	79	376.6741	19.82875	-15.91501	1	25.42571	-38.75132	-2.35686E-006	0.0006525	10
	30	81	298.2954	20.40333	-19.7467	1	28.39416	-44.06303	-2.062247E-006	0.0006553	10
	31	83	237.7717	21.0996	-24.33129	1	32.20566	-49.06884	-1.915351E-006	0.0006517	10
	32	86	189.0121	21.97467	-30.03935	1	37.21893	-53.81343	-2.064213E-006	0.000654	10
	33	88	150.2404	23.03666	-37.02475	1	43.60642	-58.11028	1.162956E-006	5.787702E-005	9
	34	91	119.1737	24.40651	-45.76495	1	51.86625	-61.92894	1.198592E-006	5.470311E-005	9
	35	93	95.0169	26.08727	-56.29406	1	62.04488	-65.13648	1.194647E-006	5.814445E-005	9
	36	96	75.60484	28.22662	-69.36837	1	74.89134	-67.85815	1.250211E-006	5.204846E-005	9
	37	98	54.50582	32.34039	-93.51177	1	98.9462	-70.92242	1.140299E-006	4.621682E-005	9
	38	101	45.95588	35.19471	-109.2539	1	114.7827	-72.14433	1.298176E-006	5.39469E-005	9
	39	103	37.20238	39.59289	-132.3877	1	138.1814	-73.34978	1.221446E-006	6.019139E-005	9
	40	105	30.04808	45.32014	-160.6563	1	166.9262	-74.24657	1.206633E-006	5.313729E-005	9
	41	108	23.91582	53.31527	-197.2545	1	204.3327	-74.87511	9.828908E-007	5.35565E-005	9
	42	110	18.60119	64.99808	-246.6725	1	255.0923	-75.23814	1.43793E-006	5.209517E-005	9
	43	112	15.02404	78.16384	-297.7094	1	307.7994	-75.28897	1.222711E-006	6.419185E-005	9
	44	115	12.01923	95.9093	-361.3796	1	373.8901	-75.13648	1.075613E-006	5.816331E-005	9
	45	117	9.450605	119.8839	-441.9308	1	457.9028	-74.82247	3.954847E-007	0.0006448	8
	46	120	7.512019	149.9066	-535.4429	1	556.0316	-74.35949	3.033636E-007	0.0006241	8
	47	122	5.978954	186.4524	-645.8486	1	672.2238	-73.89691	3.840349E-007	0.0006306	8
	48	125	4.734848	232.4793	-780.2662	1	814.1633	-73.40865	5.209226E-007	0.0006367	8
	49	129	3.75601	286.2037	-937.2816	1	980.005	-73.01968	4.152062E-007	0.0006211	8
	50	132	3.004808	346.4529	-1116.346	1	1168.871	-72.75851	4.866427E-007	0.0006141	8
	51	136	2.372217	419.6599	-1341.699	1	1405.799	-72.63123	4.978598E-007	0.0006444	8
	52	140	1.878005	501.8223	-1616.729	1	1692.819	-72.75599	4.425063E-007	0.0006298	8
	53	145	1.512097	582.7005	-1922.472	1	2008.84	-73.13796	4.830744E-007	0.0005457	8
	54	150	1.201923	684.2399	-2320.938	1	2419.698	-73.57386	4.483075E-007	0.0006247	8
	55	156	0.956633	796.7891	-2806.436	1	2917.354	-74.14996	4.564021E-007	-1.407712E-006	8
