EXPLAIN
TAG	EISPOT
TITLE	LABEL	Potentiostatic EIS	Test Identifier
DATE	LABEL	9/12/2020	Date
TIME	LABEL	18:39:56	Time
NOTES	NOTES	1	Notes...
	
PSTAT	PSTAT	REF3000-16137	Potentiostat
VDC	POTEN	0.00000E+000	T	DC Voltage (V)
FREQINIT	QUANT	3.00000E+005	Initial Freq. (Hz)
FREQFINAL	QUANT	1.00000E+000	Final Freq. (Hz)
PTSPERDEC	QUANT	1.00000E+001	Points/decade
VAC	QUANT	5.00000E+001	AC Voltage (mV rms)
AREA	QUANT	1.00000E+000	Sample Area (cm^2)
SPEED	SELECTOR	2	Optimize for:
ZGUESS	QUANT	1.00000E+003	Estimated Z (ohms)
EOC	QUANT	0	Open Circuit (V)
SEQUENCER	TOGGLE	TRUE	Run as Sequence
PSTATMODEL	IQUANT	5	Pstat Model
PSTATSECTION	LABEL	REF3000-16137	Pstat Section
PSTATSERIALNO	LABEL	16137	Pstat Serial Number
CTRLMODE	IQUANT	1	Control Mode
IESTAB	IQUANT	0	I/E Stability
CASPEED	IQUANT	1	Control Amp Speed
CONVENTION	IQUANT	1	Current Convention
ICHRANGE	IQUANT	2	Ich Range
ICHRANGEMODE	TOGGLE	F	Ich Auto Range
ICHOFFSETENABLE	TOGGLE	T	Ich Offset Enable
ICHOFFSET	QUANT	0	Ich Offset (V)
ICHFILTER	IQUANT	3	Ich Filter
VCHRANGE	IQUANT	2	Vch Range
VCHRANGEMODE	TOGGLE	F	Vch Auto Range
VCHOFFSETENABLE	TOGGLE	T	Vch Offset Enable
VCHOFFSET	QUANT	0	Vch Offset (V)
VCHFILTER	IQUANT	3	Vch Filter
ACHRANGE	IQUANT	2	Ach Range
ACHOFFSETENABLE	TOGGLE	F	Ach Offset Enable
ACHOFFSET	QUANT	0	Ach Offset (V)
ACHFILTER	IQUANT	3	Ach Filter
IERANGELOWERLIMIT	IQUANT	2	I/E Range Lower Limit
IERANGEMODE	TOGGLE	F	I/E AutoRange
IERANGE	IQUANT	11	I/E Range
POSFEEDENABLE	TOGGLE	F	Positive Feedback IR Comp
POSFEEDRESISTANCE	QUANT	0	Positive Feedback Resistance (ohm)
ACHSELECT	IQUANT	0	Ach Select
CABLEID	IQUANT	13	Cable ID
DCCALDATE	LABEL	7/31/2020	DC Calibration Date
ACCALDATE	LABEL	7/31/2020	AC Calibration Date
THERMOSELECT	IQUANT	1	Thermo Select
FRAMEWORKVERSION	QUANT	6.33	Framework Version
INSTRUMENTVERSION	LABEL	3.50	Instrument Version
COMPLIANCEVOLTAGE	IQUANT	0	Compliance Voltage
ZCURVE	TABLE
	Pt	Time	Freq	Zreal	Zimag	Zsig	Zmod	Zphz	Idc	Vdc	IERange
	#	s	Hz	ohm	ohm	V	ohm	°	A	V	#
	0	17	300046.9	10.66795	-4536.938	1	4536.951	-89.86528	8.91223E-005	-0.0027886	9
	1	33	238359.4	-89.8948	-5648.086	1	5648.802	-90.91184	3.874185E-007	-0.0020339	9
	2	61	189328.1	104.2408	-6995.644	1	6996.42	-89.14631	5.086392E-005	0.0001314	9
	3	69	150421.9	365.8315	-9131.426	1	9138.751	-87.70579	2.794707E-005	-0.001944	9
	4	76	119484.4	647.6706	-10837.62	1	10856.95	-86.57999	-1.136145E-005	0.018077	8
	5	83	94921.88	691.0442	-13620.16	1	13637.68	-87.09548	1.626644E-005	-0.0093403	8
	6	92	75421.88	774.4573	-16963.24	1	16980.91	-87.38597	1.724976E-005	0.0002745	8
	7	100	59859.37	1067.634	-21044.67	1	21071.73	-87.09577	2.611393E-005	-0.0052264	8
	8	107	47578.12	4142.053	-28005.76	1	28310.41	-81.58694	-3.739344E-006	0.0252325	7
	9	115	37828.12	4680.44	-34559.89	1	34875.39	-82.28737	5.319261E-006	-0.0266404	7
	10	122	30046.88	2433.162	-42446.01	1	42515.7	-86.71918	1.966887E-005	-3.688997E-005	9
	11	131	23859.38	5882.162	-55341.03	1	55652.75	-83.93285	-2.661672E-005	0.0076145	8
	12	137	18984.38	4499.53	-68231.46	1	68379.66	-86.22709	2.799294E-006	0.0083064	7
	13	144	15046.87	8045.603	-82267.35	1	82659.84	-84.41434	-5.263604E-006	0.0262969	7
	14	149	11953.13	8905.797	-102142.4	1	102529.9	-85.01698	-2.690379E-005	0.0078745	8
	15	157	9515.62	1850.376	-124157.1	1	124170.9	-89.14616	2.72777E-005	-0.0073702	8
	16	165	7546.875	16548.1	-159006.2	1	159864.9	-84.0585	2.627137E-005	-0.0089996	8
	17	174	5928.309	-5299.215	-183859.6	1	183935.9	-91.65092	-2.028803E-005	0.0027696	8
	18	182	4733.456	3976.418	-254227.9	1	254259	-89.1039	-1.130199E-006	-0.0130537	7
	19	188	3796.875	54323	-338523	1	342853.9	-80.88343	7.24757E-007	-0.0267963	6
	20	194	2987.132	61526.75	-423088.2	1	427538.5	-81.72588	-3.276742E-009	0.0172508	6
	21	199	2390.625	57864.03	-516854.5	1	520083.5	-83.6121	1.863573E-007	-0.0207273	6
	22	204	1884.191	119906.6	-639536.3	1	650679.8	-79.3809	-4.917696E-007	0.0013865	6
	23	210	1516.544	134458.1	-807793.9	1	818907.8	-80.5497	7.198997E-007	-0.0157261	6
	24	215	1193.986	142273	-1048044	1	1057657	-82.2693	-5.568133E-007	0.0263683	6
	25	222	946.5144	197119.2	-1151237	1	1167990	-80.28381	-6.893725E-007	0.026537	6
	26	226	751.7689	222960.1	-1481588	1	1498270	-81.44193	7.163566E-007	-0.0265786	6
	27	229	597.4265	55593.79	-1707775	1	1708680	-88.13549	-2.69331E-007	-0.0075365	6
	28	234	477.4305	841124.9	-2441676	1	2582493	-70.99184	-9.306168E-010	0.0006693	5
	29	238	376.6741	725182.4	-2948049	1	3035932	-76.18035	-9.376992E-009	0.0006457	6
	30	242	298.2954	1373889	-3621363	1	3873221	-69.22403	-1.046082E-009	0.0006696	5
	31	246	237.7717	1780464	-4290030	1	4644826	-67.4604	-1.108658E-009	0.0006499	5
	32	250	189.0121	2323065	-5261581	1	5751597	-66.17784	-9.846235E-010	0.0006132	5
	33	254	150.2404	2931093	-6285754	1	6935561	-65.00002	-9.77328E-010	0.0006467	5
	34	257	119.1737	5431493	-9370183	1	1.083058E+007	-59.90097	-1.008457E-009	0.0006784	5
	35	260	95.0169	5665483	-8315369	1	1.006196E+007	-55.73235	-1.035836E-009	0.0006728	5
	36	263	75.60484	7164853	-9.963942E+006	1	1.227254E+007	-54.28091	-9.794662E-010	0.0005731	5
	37	266	54.50582	1.009407E+007	-1.04488E+007	1	1.452817E+007	-45.98928	-1.066413E-009	0.0006397	5
	38	269	45.95588	1.426383E+007	-8595957	1	1.665375E+007	-31.07486	-4.725308E-011	0.0005937	4
	39	271	37.20238	1.617897E+007	-8545643	1	1.829719E+007	-27.84276	-1.539657E-010	0.000686	4
	40	274	30.04808	1.751162E+007	-9046945	1	1.971051E+007	-27.32201	-9.650735E-011	0.0006773	4
	41	277	23.91582	1.981388E+007	-9.635831E+006	1	2.203268E+007	-25.93445	-2.364354E-011	0.0006737	4
	42	280	18.60119	2.283128E+007	-8991371	1	2.453797E+007	-21.49541	5.19476E-012	0.0005868	4
	43	282	15.02404	2.20022E+007	-7588792	1	2.327416E+007	-19.02986	-9.403922E-010	0.0005906	5
	44	286	12.01923	2.394159E+007	-6168510	1	2.472348E+007	-14.44793	-1.036797E-010	0.0006389	4
	45	288	9.450605	2.470988E+007	-5991058	1	2.54258E+007	-13.62871	-1.015064E-009	0.000604	5
	46	292	7.512019	2.673337E+007	-5242026	1	2.724246E+007	-11.09411	-1.032235E-009	0.0006623	5
	47	297	5.978954	2.804364E+007	-4825781	1	2.845582E+007	-9.7639	-1.068735E-009	0.0007137	5
	48	302	4.734848	2.967716E+007	-4282687	1	2.998459E+007	-8.211617	-9.686806E-010	0.0006102	5
	49	309	3.75601	3.145038E+007	-3771967	1	3.167577E+007	-6.83904	-9.767571E-010	0.000594	5
	50	315	3.004808	3.369497E+007	-3490696	1	3.38753E+007	-5.914569	-9.704575E-010	0.0005645	5
	51	323	2.372217	3.548657E+007	-2780721	1	3.559535E+007	-4.48053	-9.94816E-011	0.0006796	4
	52	328	1.878005	3.761812E+007	-2503303	1	3.770132E+007	-3.807142	-9.886201E-011	0.0006374	4
	53	337	1.512097	4.100934E+007	-312544.8	1	4.101054E+007	-0.4366603	-1.189723E-011	0.0006098	3
	54	342	1.201923	4.295508E+007	-400435.8	1	4.295695E+007	-0.5341071	-7.927151E-012	0.0007056	3
	55	348	0.956633	4.522774E+007	-439646.2	1	4.522988E+007	-0.5569386	-2.174518E-011	6.57719E-005	3
