EXPLAIN
TAG	EISPOT
TITLE	LABEL	Potentiostatic EIS	Test Identifier
DATE	LABEL	9/12/2020	Date
TIME	LABEL	17:40:53	Time
NOTES	NOTES	1	Notes...
	
PSTAT	PSTAT	REF3000-16137	Potentiostat
VDC	POTEN	0.00000E+000	T	DC Voltage (V)
FREQINIT	QUANT	3.00000E+005	Initial Freq. (Hz)
FREQFINAL	QUANT	1.00000E+000	Final Freq. (Hz)
PTSPERDEC	QUANT	1.00000E+001	Points/decade
VAC	QUANT	5.00000E+001	AC Voltage (mV rms)
AREA	QUANT	1.00000E+000	Sample Area (cm^2)
SPEED	SELECTOR	2	Optimize for:
ZGUESS	QUANT	1.00000E+003	Estimated Z (ohms)
EOC	QUANT	0	Open Circuit (V)
SEQUENCER	TOGGLE	TRUE	Run as Sequence
PSTATMODEL	IQUANT	5	Pstat Model
PSTATSECTION	LABEL	REF3000-16137	Pstat Section
PSTATSERIALNO	LABEL	16137	Pstat Serial Number
CTRLMODE	IQUANT	1	Control Mode
IESTAB	IQUANT	0	I/E Stability
CASPEED	IQUANT	1	Control Amp Speed
CONVENTION	IQUANT	1	Current Convention
ICHRANGE	IQUANT	2	Ich Range
ICHRANGEMODE	TOGGLE	F	Ich Auto Range
ICHOFFSETENABLE	TOGGLE	T	Ich Offset Enable
ICHOFFSET	QUANT	0	Ich Offset (V)
ICHFILTER	IQUANT	3	Ich Filter
VCHRANGE	IQUANT	2	Vch Range
VCHRANGEMODE	TOGGLE	F	Vch Auto Range
VCHOFFSETENABLE	TOGGLE	T	Vch Offset Enable
VCHOFFSET	QUANT	0	Vch Offset (V)
VCHFILTER	IQUANT	3	Vch Filter
ACHRANGE	IQUANT	2	Ach Range
ACHOFFSETENABLE	TOGGLE	F	Ach Offset Enable
ACHOFFSET	QUANT	0	Ach Offset (V)
ACHFILTER	IQUANT	3	Ach Filter
IERANGELOWERLIMIT	IQUANT	2	I/E Range Lower Limit
IERANGEMODE	TOGGLE	F	I/E AutoRange
IERANGE	IQUANT	11	I/E Range
POSFEEDENABLE	TOGGLE	F	Positive Feedback IR Comp
POSFEEDRESISTANCE	QUANT	0	Positive Feedback Resistance (ohm)
ACHSELECT	IQUANT	0	Ach Select
CABLEID	IQUANT	13	Cable ID
DCCALDATE	LABEL	7/31/2020	DC Calibration Date
ACCALDATE	LABEL	7/31/2020	AC Calibration Date
THERMOSELECT	IQUANT	1	Thermo Select
FRAMEWORKVERSION	QUANT	6.33	Framework Version
INSTRUMENTVERSION	LABEL	3.50	Instrument Version
COMPLIANCEVOLTAGE	IQUANT	0	Compliance Voltage
ZCURVE	TABLE
	Pt	Time	Freq	Zreal	Zimag	Zsig	Zmod	Zphz	Idc	Vdc	IERange
	#	s	Hz	ohm	ohm	V	ohm	°	A	V	#
	0	7	300046.9	30.12837	1.355229	1	30.15883	2.575533	-4.308029E-005	-0.0003735	11
	1	11	238359.4	30.29815	1.392413	1	30.33013	2.631293	1.884909E-005	0.0004046	10
	2	15	189328.1	30.40456	1.091551	1	30.42415	2.056087	1.617467E-005	0.0003959	10
	3	17	150421.9	30.49861	0.8374879	1	30.51011	1.572939	1.511011E-005	0.0005168	10
	4	20	119484.4	30.6287	0.6527306	1	30.63565	1.22085	-5.168794E-005	0.0007267	10
	5	22	94921.88	30.73008	0.490413	1	30.734	0.9142901	-2.964234E-005	0.0006213	10
	6	25	75421.88	30.82904	0.3425882	1	30.83095	0.636674	-2.392957E-005	0.0006535	10
	7	27	59859.37	30.9365	0.2131056	1	30.93724	0.3946749	-2.605744E-005	0.0006752	10
	8	30	47578.12	31.05354	0.1055229	1	31.05372	0.1946957	-2.224951E-005	0.0006918	10
	9	32	37828.12	31.15797	-0.0015022	1	31.15797	-0.0027624	-1.770586E-005	0.0006466	10
	10	35	30046.88	31.2689	-0.1041334	1	31.26908	-0.1908088	2.12243E-005	0.000567	10
	11	37	23859.38	31.37733	-0.2109795	1	31.37804	-0.385248	-2.617907E-005	0.0006301	10
	12	40	18984.38	31.48757	-0.324179	1	31.48923	-0.5898656	-2.459209E-005	0.0007139	10
	13	42	15046.87	31.60012	-0.4514106	1	31.60334	-0.8184199	6.950501E-006	0.0005822	10
	14	44	11953.13	31.71145	-0.5986837	1	31.7171	-1.081564	2.404505E-005	0.0005822	10
	15	47	9515.62	31.82126	-0.7678146	1	31.83053	-1.38222	-7.615504E-006	0.0007086	10
	16	49	7546.875	31.94567	-0.992234	1	31.96108	-1.779037	-2.822625E-005	0.0006386	10
	17	51	5928.309	32.06557	-1.257951	1	32.09024	-2.246594	1.578143E-005	0.0006542	10
	18	54	4733.456	32.20205	-1.563934	1	32.24	-2.780459	-2.200473E-005	0.0006929	10
	19	56	3796.875	32.33855	-1.931521	1	32.39618	-3.418109	2.642576E-006	0.0005909	10
	20	58	2987.132	32.49355	-2.429747	1	32.58427	-4.276407	5.592953E-006	0.0005774	10
	21	61	2390.625	32.641	-2.997312	1	32.77832	-5.246563	2.015092E-005	0.0005718	10
	22	63	1884.191	32.81757	-3.757152	1	33.03194	-6.531128	2.524972E-005	0.0006196	10
	23	65	1516.544	33.00056	-4.616019	1	33.32184	-7.962697	2.517457E-005	0.000636	10
	24	67	1193.986	33.22441	-5.782894	1	33.72393	-9.87373	6.022494E-006	0.0006613	10
	25	70	946.5144	33.48678	-7.200246	1	34.25212	-12.13484	-2.92096E-005	0.0006454	10
	26	72	751.7689	33.77441	-8.928332	1	34.93459	-14.80753	-2.13163E-005	0.0007024	10
	27	75	597.4265	34.1081	-11.0972	1	35.86795	-18.02249	1.666605E-005	0.0006497	10
	28	77	477.4305	34.47693	-13.6701	1	37.08815	-21.62832	1.265242E-006	5.391442E-005	9
	29	79	376.6741	34.99293	-17.06326	1	38.93148	-25.99479	1.293457E-006	4.830635E-005	9
	30	82	298.2954	35.62318	-21.21061	1	41.45963	-30.77024	1.243977E-006	4.693554E-005	9
	31	84	237.7717	36.38609	-26.1844	1	44.82822	-35.7398	1.245413E-006	5.383636E-005	9
	32	86	189.0121	37.34161	-32.37996	1	49.42527	-40.92948	1.246733E-006	5.276944E-005	9
	33	89	150.2404	38.52825	-40.00811	1	55.54345	-46.07949	1.199408E-006	5.151595E-005	9
	34	91	119.1737	40.0187	-49.49502	1	63.64946	-51.04308	1.131902E-006	5.476129E-005	9
	35	94	95.0169	41.82895	-60.90363	1	73.88445	-55.51851	1.245591E-006	5.038278E-005	9
	36	96	75.60484	44.09043	-75.05128	1	87.04401	-59.56701	1.205995E-006	4.553334E-005	9
	37	99	54.50582	48.26694	-101.1505	1	112.0764	-64.49049	1.233262E-006	4.471279E-005	9
	38	101	45.95588	51.09006	-118.1958	1	128.7651	-66.62362	1.230838E-006	4.91113E-005	9
	39	104	37.20238	55.28772	-143.3065	1	153.6017	-68.90336	1.067355E-006	5.779859E-005	9
	40	106	30.04808	60.62551	-174.1104	1	184.3635	-70.8018	1.172133E-006	5.039597E-005	9
	41	108	23.91582	67.88084	-214.2996	1	224.7935	-72.42405	1.271303E-006	5.569711E-005	9
	42	111	18.60119	78.36153	-269.2517	1	280.4229	-73.77319	1.386764E-006	5.361905E-005	9
	43	113	15.02404	90.12156	-326.6479	1	338.8521	-74.57592	1.480749E-006	6.525943E-005	9
	44	115	12.01923	106.0692	-399.0836	1	412.9387	-75.11591	1.190304E-006	5.286402E-005	9
	45	118	9.450605	128.4025	-492.3353	1	508.8037	-75.38271	5.854497E-007	0.0006256	8
	46	120	7.512019	156.9892	-602.4119	1	622.5317	-75.39353	5.654909E-007	0.0006376	8
	47	123	5.978954	193.3703	-733.978	1	759.0229	-75.24051	5.270957E-007	0.000628	8
	48	126	4.734848	241.6209	-896.6251	1	928.6104	-74.91829	3.834514E-007	0.000619	8
	49	129	3.75601	302.5231	-1088.403	1	1129.664	-74.46666	4.908796E-007	0.0006371	8
	50	133	3.004808	375.4702	-1306.816	1	1359.686	-73.96975	3.98906E-007	0.0006681	8
	51	137	2.372217	469.5577	-1579.126	1	1647.459	-73.43999	4.326061E-007	0.0006165	8
	52	141	1.878005	581.9329	-1905.573	1	1992.449	-73.01813	4.544297E-007	0.0006656	8
	53	146	1.512097	697.1018	-2256.775	1	2361.988	-72.83446	4.317403E-007	0.0006554	8
	54	151	1.201923	843.9333	-2709.959	1	2838.328	-72.70241	4.724377E-007	0.0006437	8
	55	157	0.956633	1005.049	-3246.506	1	3398.518	-72.79859	4.264647E-007	-9.770465E-006	8
