EXPLAIN
TAG	EISPOT
TITLE	LABEL	Potentiostatic EIS	Test Identifier
DATE	LABEL	9/12/2020	Date
TIME	LABEL	18:28:06	Time
NOTES	NOTES	1	Notes...
	
PSTAT	PSTAT	REF3000-16137	Potentiostat
VDC	POTEN	0.00000E+000	T	DC Voltage (V)
FREQINIT	QUANT	3.00000E+005	Initial Freq. (Hz)
FREQFINAL	QUANT	1.00000E+000	Final Freq. (Hz)
PTSPERDEC	QUANT	1.00000E+001	Points/decade
VAC	QUANT	5.00000E+001	AC Voltage (mV rms)
AREA	QUANT	1.00000E+000	Sample Area (cm^2)
SPEED	SELECTOR	2	Optimize for:
ZGUESS	QUANT	1.00000E+003	Estimated Z (ohms)
EOC	QUANT	0	Open Circuit (V)
SEQUENCER	TOGGLE	TRUE	Run as Sequence
PSTATMODEL	IQUANT	5	Pstat Model
PSTATSECTION	LABEL	REF3000-16137	Pstat Section
PSTATSERIALNO	LABEL	16137	Pstat Serial Number
CTRLMODE	IQUANT	1	Control Mode
IESTAB	IQUANT	0	I/E Stability
CASPEED	IQUANT	1	Control Amp Speed
CONVENTION	IQUANT	1	Current Convention
ICHRANGE	IQUANT	2	Ich Range
ICHRANGEMODE	TOGGLE	F	Ich Auto Range
ICHOFFSETENABLE	TOGGLE	T	Ich Offset Enable
ICHOFFSET	QUANT	0	Ich Offset (V)
ICHFILTER	IQUANT	3	Ich Filter
VCHRANGE	IQUANT	2	Vch Range
VCHRANGEMODE	TOGGLE	F	Vch Auto Range
VCHOFFSETENABLE	TOGGLE	T	Vch Offset Enable
VCHOFFSET	QUANT	0	Vch Offset (V)
VCHFILTER	IQUANT	3	Vch Filter
ACHRANGE	IQUANT	2	Ach Range
ACHOFFSETENABLE	TOGGLE	F	Ach Offset Enable
ACHOFFSET	QUANT	0	Ach Offset (V)
ACHFILTER	IQUANT	3	Ach Filter
IERANGELOWERLIMIT	IQUANT	2	I/E Range Lower Limit
IERANGEMODE	TOGGLE	F	I/E AutoRange
IERANGE	IQUANT	11	I/E Range
POSFEEDENABLE	TOGGLE	F	Positive Feedback IR Comp
POSFEEDRESISTANCE	QUANT	0	Positive Feedback Resistance (ohm)
ACHSELECT	IQUANT	0	Ach Select
CABLEID	IQUANT	13	Cable ID
DCCALDATE	LABEL	7/31/2020	DC Calibration Date
ACCALDATE	LABEL	7/31/2020	AC Calibration Date
THERMOSELECT	IQUANT	1	Thermo Select
FRAMEWORKVERSION	QUANT	6.33	Framework Version
INSTRUMENTVERSION	LABEL	3.50	Instrument Version
COMPLIANCEVOLTAGE	IQUANT	0	Compliance Voltage
ZCURVE	TABLE
	Pt	Time	Freq	Zreal	Zimag	Zsig	Zmod	Zphz	Idc	Vdc	IERange
	#	s	Hz	ohm	ohm	V	ohm	°	A	V	#
	0	25	300046.9	477.0207	-4190.685	1	4217.747	-83.50604	-1.375337E-005	0.0017634	9
	1	41	238359.4	818.8494	-5135.535	1	5200.407	-80.94058	-9.251638E-005	0.0041025	9
	2	72	189328.1	940.3211	-6409.908	1	6478.512	-81.65435	2.901276E-005	-0.0019522	9
	3	82	150421.9	1340.878	-8082.864	1	8193.329	-80.58089	-2.898868E-005	-0.0010226	9
	4	90	119484.4	2060.843	-9552.81	1	9772.57	-77.82606	1.159246E-005	-0.0183687	8
	5	97	94921.88	2922.381	-11943.18	1	12295.53	-76.25044	-2.070424E-006	0.0076167	8
	6	106	75421.88	4002.431	-14635.02	1	15172.45	-74.70458	-2.639248E-005	0.0076526	8
	7	114	59859.37	5105.939	-17807.65	1	18525.2	-74.00096	-1.956787E-005	0.0113321	8
	8	123	47578.12	7400.729	-21876.53	1	23094.44	-71.30956	2.30916E-005	-0.0028721	8
	9	132	37828.12	10488.2	-26804.21	1	28783.12	-68.63013	8.332391E-006	0.0040518	8
	10	140	30046.88	17128.74	-31200.74	1	35593.26	-61.23387	-3.327404E-006	-0.004857	7
	11	148	23859.38	22458.53	-36917.31	1	43211.96	-58.68589	6.42455E-006	-0.0093849	7
	12	153	18984.38	25542.28	-42545.64	1	49623.98	-59.0215	1.586534E-005	-0.0091389	8
	13	160	15046.87	35727	-47355.55	1	59320.88	-52.96758	4.570427E-007	0.0158872	7
	14	165	11953.13	47695.02	-50856.47	1	69722.27	-46.83737	-5.177151E-006	0.0035944	7
	15	170	9515.62	57935.98	-54427.01	1	79491.37	-43.2113	5.222546E-006	-0.0262302	7
	16	175	7546.875	73124.59	-56853.65	1	92625.83	-37.86472	-6.439635E-006	0.0255348	7
	17	182	5928.309	82912.51	-56090.05	1	100102.8	-34.07822	-3.301201E-006	-0.0050818	7
	18	188	4733.456	95899	-52544.06	1	109350.3	-28.71879	5.210374E-006	-0.0261647	7
	19	194	3796.875	105784.1	-48282.4	1	116281.9	-24.53308	4.79303E-006	-0.0006981	7
	20	200	2987.132	122027.3	-43481.09	1	129542.6	-19.61213	5.234443E-006	-0.0262066	7
	21	207	2390.625	128761.5	-46763.37	1	136990.2	-19.95992	6.43491E-006	-0.0099668	7
	22	213	1884.191	138443.2	-28503.63	1	141347	-11.63388	-7.188447E-006	0.0184257	7
	23	219	1516.544	147227.3	-24380.27	1	149232.3	-9.402632	-7.207623E-006	0.0185485	7
	24	224	1193.986	157080	-27287.54	1	159432.5	-9.85493	5.239952E-006	-0.0263006	7
	25	231	946.5144	162644.9	-29872.62	1	165365.5	-10.40739	7.547034E-006	-0.0239631	7
	26	234	751.7689	162182.6	1233.765	1	162187.3	0.4358554	-6.391206E-006	0.0252755	7
	27	239	597.4265	212338.5	-34436.75	1	215112.9	-9.211939	-5.298987E-006	0.0261536	7
	28	244	477.4305	175145.8	-15121.31	1	175797.3	-4.934426	-8.683259E-008	0.0005692	7
	29	247	376.6741	178293.1	-10386.93	1	178595.4	-3.334147	-1.102482E-008	0.0006781	6
	30	250	298.2954	180894.5	-8398.602	1	181089.4	-2.658229	-1.052905E-008	0.0006589	6
	31	252	237.7717	183636.7	-7136.645	1	183775.3	-2.225557	-1.023438E-008	0.0006106	6
	32	255	189.0121	186271.7	-5878.861	1	186364.4	-1.807694	-1.070741E-008	0.0006986	6
	33	257	150.2404	188968	-4786.121	1	189028.5	-1.450859	-1.044071E-008	0.0006427	6
	34	260	119.1737	190721.7	-3006.641	1	190745.4	-0.9031671	-1.110945E-008	0.0006988	6
	35	262	95.0169	194673.9	-3380.632	1	194703.3	-0.994876	-1.00366E-008	0.0006028	6
	36	265	75.60484	197285.8	-2796.165	1	197305.6	-0.8120085	-9.912312E-009	0.0006129	6
	37	267	54.50582	199223.6	-2745.319	1	199242.5	-0.7894911	-9.981497E-009	0.0006071	6
	38	270	45.95588	203014.8	-2107.669	1	203025.7	-0.5948148	-1.059604E-008	0.0007013	6
	39	272	37.20238	205448.5	-1941.29	1	205457.7	-0.5413736	-1.042532E-008	0.0006103	6
	40	275	30.04808	208570	-1800.129	1	208577.8	-0.4944968	-1.125743E-008	0.0006961	6
	41	277	23.91582	211879.5	-1623.534	1	211885.7	-0.4390223	-1.106674E-008	0.0006741	6
	42	280	18.60119	214792.3	-1511.655	1	214797.6	-0.4032268	-1.074441E-008	0.0006926	6
	43	282	15.02404	217214.7	-1586.241	1	217220.5	-0.418403	-1.048971E-008	0.0006017	6
	44	285	12.01923	220373.2	-1683.853	1	220379.6	-0.4377837	-1.090897E-008	0.0006525	6
	45	287	9.450605	223560.4	-1845.168	1	223568	-0.4728832	-1.215159E-008	0.0006985	6
	46	290	7.512019	227066.4	-2062.024	1	227075.8	-0.5202972	-1.108304E-008	0.0006107	6
	47	293	5.978954	231817.6	-2369.713	1	231829.7	-0.5856753	-1.185379E-008	0.0006926	6
	48	297	4.734848	236721.6	-2703.111	1	236737	-0.654229	-9.988984E-009	0.0006131	6
	49	300	3.75601	244709.9	-3398.112	1	244733.5	-0.7955745	-9.80756E-008	0.0006806	7
	50	307	3.004808	255025	-3992.22	1	255056.3	-0.8968481	-1.044105E-008	0.0005947	6
	51	315	2.372217	262972.3	-4663.928	1	263013.7	-1.016059	-1.167617E-008	0.0005726	6
	52	319	1.878005	269815.9	-5924.602	1	269880.9	-1.257895	-8.250935E-009	0.0006605	6
	53	324	1.512097	277896.3	-7276.236	1	277991.6	-1.499849	-7.157895E-009	0.0005639	6
	54	329	1.201923	287644.1	-8767.074	1	287777.7	-1.745772	-1.04819E-008	0.0006736	6
	55	336	0.956633	298728.1	-10975.09	1	298929.7	-2.104065	-1.394432E-008	1.002971E-005	6
