EXPLAIN
TAG	EISPOT
TITLE	LABEL	Potentiostatic EIS	Test Identifier
DATE	LABEL	9/12/2020	Date
TIME	LABEL	17:18:41	Time
NOTES	NOTES	1	Notes...
	
PSTAT	PSTAT	REF3000-16137	Potentiostat
VDC	POTEN	0.00000E+000	T	DC Voltage (V)
FREQINIT	QUANT	3.00000E+005	Initial Freq. (Hz)
FREQFINAL	QUANT	1.00000E+000	Final Freq. (Hz)
PTSPERDEC	QUANT	1.00000E+001	Points/decade
VAC	QUANT	5.00000E+001	AC Voltage (mV rms)
AREA	QUANT	1.00000E+000	Sample Area (cm^2)
SPEED	SELECTOR	2	Optimize for:
ZGUESS	QUANT	1.00000E+003	Estimated Z (ohms)
EOC	QUANT	0	Open Circuit (V)
SEQUENCER	TOGGLE	TRUE	Run as Sequence
PSTATMODEL	IQUANT	5	Pstat Model
PSTATSECTION	LABEL	REF3000-16137	Pstat Section
PSTATSERIALNO	LABEL	16137	Pstat Serial Number
CTRLMODE	IQUANT	1	Control Mode
IESTAB	IQUANT	0	I/E Stability
CASPEED	IQUANT	1	Control Amp Speed
CONVENTION	IQUANT	1	Current Convention
ICHRANGE	IQUANT	2	Ich Range
ICHRANGEMODE	TOGGLE	F	Ich Auto Range
ICHOFFSETENABLE	TOGGLE	T	Ich Offset Enable
ICHOFFSET	QUANT	0	Ich Offset (V)
ICHFILTER	IQUANT	3	Ich Filter
VCHRANGE	IQUANT	2	Vch Range
VCHRANGEMODE	TOGGLE	F	Vch Auto Range
VCHOFFSETENABLE	TOGGLE	T	Vch Offset Enable
VCHOFFSET	QUANT	0	Vch Offset (V)
VCHFILTER	IQUANT	3	Vch Filter
ACHRANGE	IQUANT	2	Ach Range
ACHOFFSETENABLE	TOGGLE	F	Ach Offset Enable
ACHOFFSET	QUANT	0	Ach Offset (V)
ACHFILTER	IQUANT	3	Ach Filter
IERANGELOWERLIMIT	IQUANT	2	I/E Range Lower Limit
IERANGEMODE	TOGGLE	F	I/E AutoRange
IERANGE	IQUANT	11	I/E Range
POSFEEDENABLE	TOGGLE	F	Positive Feedback IR Comp
POSFEEDRESISTANCE	QUANT	0	Positive Feedback Resistance (ohm)
ACHSELECT	IQUANT	0	Ach Select
CABLEID	IQUANT	13	Cable ID
DCCALDATE	LABEL	7/31/2020	DC Calibration Date
ACCALDATE	LABEL	7/31/2020	AC Calibration Date
THERMOSELECT	IQUANT	1	Thermo Select
FRAMEWORKVERSION	QUANT	6.33	Framework Version
INSTRUMENTVERSION	LABEL	3.50	Instrument Version
COMPLIANCEVOLTAGE	IQUANT	0	Compliance Voltage
ZCURVE	TABLE
	Pt	Time	Freq	Zreal	Zimag	Zsig	Zmod	Zphz	Idc	Vdc	IERange
	#	s	Hz	ohm	ohm	V	ohm	°	A	V	#
	0	8	300046.9	8.150168	2.193884	1	8.440283	15.06592	7.271468E-005	-0.0002475	10
	1	11	238359.4	8.131229	1.759624	1	8.319446	12.21071	2.467952E-006	0.0001365	10
	2	14	189328.1	8.131317	1.389196	1	8.249132	9.6951	2.40455E-005	0.0002526	10
	3	17	150421.9	8.121297	1.090679	1	8.194208	7.648976	-0.0001173	0.0004067	10
	4	19	119484.4	8.141518	0.8456723	1	8.185321	5.930137	-3.857754E-006	0.000413	10
	5	22	94921.88	8.150944	0.6679686	1	8.178267	4.684912	6.706699E-006	0.0005187	10
	6	24	75421.88	8.158996	0.4917629	1	8.173802	3.449186	1.815538E-005	0.0005501	10
	7	27	59859.37	8.17452	0.3411586	1	8.181637	2.389817	3.663588E-006	0.0005527	10
	8	29	47578.12	8.192088	0.2120949	1	8.194833	1.483068	1.093098E-005	0.0005629	10
	9	32	37828.12	8.211459	0.0984368	1	8.212049	0.6868138	-2.426343E-005	0.0007099	10
	10	34	30046.88	8.23103	-0.0084493	1	8.231035	-0.0588152	-4.677954E-006	0.0005938	10
	11	37	23859.38	8.251441	-0.1135258	1	8.252222	-0.788243	-1.186012E-006	0.000674	10
	12	39	18984.38	8.271173	-0.2220333	1	8.274153	-1.537692	-2.911341E-005	0.0006431	10
	13	41	15046.87	8.29316	-0.3427112	1	8.300239	-2.366376	2.404003E-005	0.0006344	10
	14	44	11953.13	8.317642	-0.4757885	1	8.331239	-3.273884	3.141758E-006	0.0006175	10
	15	46	9515.62	8.345562	-0.6310008	1	8.369383	-4.323858	7.893706E-006	0.0006748	10
	16	48	7546.875	8.376902	-0.8170294	1	8.416651	-5.570644	-2.14695E-005	0.0006906	10
	17	51	5928.309	8.412464	-1.052783	1	8.478084	-7.133229	-1.171876E-005	0.0006381	10
	18	53	4733.456	8.451571	-1.322513	1	8.55442	-8.893595	1.976072E-005	0.0006398	10
	19	55	3796.875	8.497919	-1.641454	1	8.654999	-10.93259	1.673752E-005	0.0006044	10
	20	58	2987.132	8.557745	-2.073256	1	8.805305	-13.61846	-2.556846E-005	0.0006836	10
	21	60	2390.625	8.624312	-2.565571	1	8.997828	-16.56676	-1.193835E-006	0.0006941	10
	22	62	1884.191	8.71126	-3.216781	1	9.286212	-20.26753	5.504811E-006	0.0006572	10
	23	65	1516.544	8.81121	-3.945742	1	9.65434	-24.12328	-2.589187E-005	0.0007177	10
	24	67	1193.986	8.947368	-4.938139	1	10.21962	-28.89473	1.007957E-005	0.0006064	10
	25	69	946.5144	9.112871	-6.136276	1	10.98628	-33.95489	8.660686E-006	0.0006846	10
	26	72	751.7689	9.319055	-7.596463	1	12.02294	-39.18533	1.057469E-005	0.000605	10
	27	74	597.4265	9.57866	-9.396033	1	13.41776	-44.44855	1.631632E-005	0.0006085	10
	28	76	477.4305	9.89429	-11.55782	1	15.21447	-49.43418	-2.435738E-006	0.0006619	10
	29	79	376.6741	10.31343	-14.37288	1	17.69029	-54.33823	-2.200548E-006	0.000656	10
	30	81	298.2954	10.83316	-17.80569	1	20.84226	-58.68326	-2.638048E-006	0.0006613	10
	31	83	237.7717	11.47091	-21.92055	1	24.7405	-62.37717	-1.806193E-006	0.0006596	10
	32	86	189.0121	12.28656	-27.05294	1	29.7123	-65.574	-2.391236E-006	0.0006579	10
	33	88	150.2404	13.32779	-33.37674	1	35.93934	-68.2325	-2.317553E-006	0.0006581	10
	34	91	119.1737	14.67083	-41.2001	1	43.73421	-70.39983	9.748874E-007	5.828687E-005	9
	35	93	95.0169	16.40428	-50.64866	1	53.23896	-72.0537	8.336813E-007	5.967921E-005	9
	36	95	75.60484	18.70003	-62.32764	1	65.07246	-73.29929	8.801657E-007	5.259555E-005	9
	37	98	54.50582	23.31948	-83.68212	1	86.87057	-74.42858	8.50773E-007	5.401943E-005	9
	38	101	45.95588	26.57277	-97.4503	1	101.0083	-74.7474	4.581655E-007	0.0001198	9
	39	103	37.20238	31.62248	-117.4252	1	121.6087	-74.92787	9.537893E-007	6.576721E-005	9
	40	105	30.04808	38.16294	-141.4385	1	146.4967	-74.90004	8.94682E-007	6.209518E-005	9
	41	108	23.91582	47.14806	-171.9474	1	178.2943	-74.66634	1.01195E-006	5.963456E-005	9
	42	110	18.60119	59.94655	-212.4654	1	220.7603	-74.24373	9.379729E-007	6.107997E-005	9
	43	112	15.02404	73.46804	-253.3849	1	263.8209	-73.83067	1.174411E-006	7.309798E-005	9
	44	115	12.01923	90.90333	-303.4659	1	316.7885	-73.32439	7.926823E-007	5.825424E-005	9
	45	117	9.450605	113.0954	-367.3564	1	384.3712	-72.88834	8.724653E-007	6.804222E-005	9
	46	119	7.512019	137.4861	-438.0034	1	459.0745	-72.5733	1.339692E-007	0.0006374	8
	47	122	5.978954	165.3405	-523.6132	1	549.0977	-72.47553	1.763316E-007	0.0006391	8
	48	125	4.734848	197.9533	-628.9172	1	659.3348	-72.52847	2.223894E-007	0.0006229	8
	49	128	3.75601	233.8403	-756.2051	1	791.5349	-72.81689	2.114735E-007	0.0007129	8
	50	132	3.004808	272.8643	-905.5701	1	945.7865	-73.23152	2.214183E-007	0.0006205	8
	51	136	2.372217	322.22	-1100.639	1	1146.835	-73.68222	1.736621E-007	0.0005908	8
	52	140	1.878005	378.8102	-1344.446	1	1396.794	-74.26433	2.554613E-007	0.0006307	8
	53	144	1.512097	442.1563	-1619.584	1	1678.856	-74.73002	1.638009E-007	0.0007469	8
	54	150	1.201923	535.3047	-1984.353	1	2055.288	-74.90309	2.468853E-007	0.0006532	8
	55	156	0.956633	657.7025	-2428.109	1	2515.608	-74.84396	1.858004E-007	-2.130234E-006	8
