EXPLAIN
TAG	EISPOT
TITLE	LABEL	Potentiostatic EIS	Test Identifier
DATE	LABEL	9/12/2020	Date
TIME	LABEL	18:03:13	Time
NOTES	NOTES	1	Notes...
	
PSTAT	PSTAT	REF3000-16137	Potentiostat
VDC	POTEN	0.00000E+000	T	DC Voltage (V)
FREQINIT	QUANT	3.00000E+005	Initial Freq. (Hz)
FREQFINAL	QUANT	1.00000E+000	Final Freq. (Hz)
PTSPERDEC	QUANT	1.00000E+001	Points/decade
VAC	QUANT	5.00000E+001	AC Voltage (mV rms)
AREA	QUANT	1.00000E+000	Sample Area (cm^2)
SPEED	SELECTOR	2	Optimize for:
ZGUESS	QUANT	1.00000E+003	Estimated Z (ohms)
EOC	QUANT	0	Open Circuit (V)
SEQUENCER	TOGGLE	TRUE	Run as Sequence
PSTATMODEL	IQUANT	5	Pstat Model
PSTATSECTION	LABEL	REF3000-16137	Pstat Section
PSTATSERIALNO	LABEL	16137	Pstat Serial Number
CTRLMODE	IQUANT	1	Control Mode
IESTAB	IQUANT	0	I/E Stability
CASPEED	IQUANT	1	Control Amp Speed
CONVENTION	IQUANT	1	Current Convention
ICHRANGE	IQUANT	2	Ich Range
ICHRANGEMODE	TOGGLE	F	Ich Auto Range
ICHOFFSETENABLE	TOGGLE	T	Ich Offset Enable
ICHOFFSET	QUANT	0	Ich Offset (V)
ICHFILTER	IQUANT	3	Ich Filter
VCHRANGE	IQUANT	2	Vch Range
VCHRANGEMODE	TOGGLE	F	Vch Auto Range
VCHOFFSETENABLE	TOGGLE	T	Vch Offset Enable
VCHOFFSET	QUANT	0	Vch Offset (V)
VCHFILTER	IQUANT	3	Vch Filter
ACHRANGE	IQUANT	2	Ach Range
ACHOFFSETENABLE	TOGGLE	F	Ach Offset Enable
ACHOFFSET	QUANT	0	Ach Offset (V)
ACHFILTER	IQUANT	3	Ach Filter
IERANGELOWERLIMIT	IQUANT	2	I/E Range Lower Limit
IERANGEMODE	TOGGLE	F	I/E AutoRange
IERANGE	IQUANT	11	I/E Range
POSFEEDENABLE	TOGGLE	F	Positive Feedback IR Comp
POSFEEDRESISTANCE	QUANT	0	Positive Feedback Resistance (ohm)
ACHSELECT	IQUANT	0	Ach Select
CABLEID	IQUANT	13	Cable ID
DCCALDATE	LABEL	7/31/2020	DC Calibration Date
ACCALDATE	LABEL	7/31/2020	AC Calibration Date
THERMOSELECT	IQUANT	1	Thermo Select
FRAMEWORKVERSION	QUANT	6.33	Framework Version
INSTRUMENTVERSION	LABEL	3.50	Instrument Version
COMPLIANCEVOLTAGE	IQUANT	0	Compliance Voltage
ZCURVE	TABLE
	Pt	Time	Freq	Zreal	Zimag	Zsig	Zmod	Zphz	Idc	Vdc	IERange
	#	s	Hz	ohm	ohm	V	ohm	°	A	V	#
	0	9	300046.9	326.5459	-33.02179	1	328.2113	-5.774377	8.158851E-005	-6.101285E-005	10
	1	14	238359.4	330.9331	-20.96304	1	331.5964	-3.624573	5.411409E-005	-0.0002517	9
	2	19	189328.1	337.4465	-17.76178	1	337.9136	-3.013031	7.951103E-005	-0.0030582	9
	3	24	150421.9	342.7705	-15.92836	1	343.1404	-2.66059	2.587494E-005	0.0008768	9
	4	30	119484.4	347.5977	-13.5718	1	347.8626	-2.235952	-8.447497E-005	0.0021991	9
	5	35	94921.88	351.5312	-10.31801	1	351.6826	-1.681242	-1.685297E-005	0.0009114	9
	6	39	75421.88	354.0838	-8.797891	1	354.1931	-1.42333	1.777371E-005	-0.0008749	9
	7	41	59859.37	356.7367	-7.484605	1	356.8152	-1.201932	-1.356578E-005	4.035316E-005	9
	8	44	47578.12	359.3268	-6.166785	1	359.3798	-0.983217	-1.038755E-005	0.0008994	9
	9	46	37828.12	361.3322	-5.10598	1	361.3682	-0.809592	2.478824E-005	-0.0002831	9
	10	49	30046.88	363.5174	-4.438918	1	363.5445	-0.6996051	2.349421E-005	-0.0002462	9
	11	52	23859.38	365.929	-4.061433	1	365.9515	-0.6358978	-2.129835E-005	0.0004101	9
	12	54	18984.38	368.0443	-3.205206	1	368.0583	-0.498962	-6.899593E-006	-0.0001368	9
	13	56	15046.87	367.6217	-0.999837	1	367.6231	-0.1558295	7.807463E-007	-0.0023883	8
	14	59	11953.13	370.1661	-1.592691	1	370.1696	-0.2465215	-1.224E-005	0.0053159	8
	15	61	9515.62	374.6735	-2.681316	1	374.6831	-0.4100248	-9.43331E-006	-0.0001508	9
	16	63	7546.875	375.107	-0.7187015	1	375.1077	-0.109778	6.324395E-006	0.0017404	8
	17	66	5928.309	377.6595	-2.242668	1	377.6661	-0.3402375	2.411365E-006	-0.0032064	8
	18	68	4733.456	379.2109	-2.961953	1	379.2225	-0.4475186	-4.450794E-006	0.0051958	8
	19	70	3796.875	381.9619	-3.694427	1	381.9798	-0.5541611	1.499568E-005	-0.0042663	8
	20	73	2987.132	384.6832	-3.359114	1	384.6979	-0.500303	9.828939E-007	0.0036893	8
	21	75	2390.625	386.2789	-3.702281	1	386.2966	-0.5491332	7.241939E-006	0.0013236	8
	22	77	1884.191	387.5778	-7.238572	1	387.6454	-1.069957	-1.152156E-005	0.0059968	8
	23	79	1516.544	390.9618	-5.968142	1	391.0074	-0.8745682	-4.679487E-006	0.0052177	8
	24	82	1193.986	393.2586	-7.753906	1	393.3351	-1.129558	1.31112E-005	-0.0045962	8
	25	84	946.5144	396.3348	-9.241758	1	396.4426	-1.335784	-2.09671E-006	-0.0018933	8
	26	87	751.7689	399.8753	-10.65379	1	400.0172	-1.526158	-1.332474E-005	0.0056027	8
	27	89	597.4265	401.3179	-14.30448	1	401.5727	-2.041373	1.398885E-005	-0.0020468	8
	28	91	477.4305	403.9276	-17.45102	1	404.3044	-2.47383	-9.556072E-008	0.0006306	8
	29	94	376.6741	406.6761	-21.73518	1	407.2566	-3.059314	-9.968376E-008	0.00063	8
	30	96	298.2954	409.5796	-27.00704	1	410.469	-3.772533	-5.719633E-008	0.0006202	8
	31	98	237.7717	412.6447	-33.37157	1	413.9919	-4.623586	-7.160385E-008	0.0006228	8
	32	101	189.0121	415.9115	-41.36163	1	417.9631	-5.679286	-8.690824E-008	0.0006271	8
	33	103	150.2404	419.4397	-51.30312	1	422.5656	-6.973408	-1.051655E-007	0.0006264	8
	34	106	119.1737	423.2189	-63.7603	1	427.9948	-8.567499	-1.034494E-007	0.0006201	8
	35	108	95.0169	427.3581	-78.86414	1	434.5739	-10.45566	-1.081744E-007	0.0006224	8
	36	110	75.60484	432.0931	-97.7186	1	443.0049	-12.74318	-7.66492E-008	0.0006137	8
	37	113	54.50582	438.8111	-132.7874	1	458.4622	-16.83619	-9.182017E-008	0.0006198	8
	38	116	45.95588	444.1653	-155.7947	1	470.6961	-19.32875	-1.372775E-007	0.0006392	8
	39	118	37.20238	450.8566	-189.7864	1	489.1733	-22.82847	-8.787506E-008	0.0006281	8
	40	120	30.04808	458.8004	-231.5914	1	513.9381	-26.78354	-8.89684E-008	0.0006283	8
	41	123	23.91582	468.8058	-286.2715	1	549.2999	-31.4099	-9.86163E-008	0.0006171	8
	42	125	18.60119	481.838	-361.1751	1	602.1755	-36.85442	-9.498341E-008	0.0006262	8
	43	127	15.02404	496.0384	-439.5959	1	662.7961	-41.5478	9.435581E-009	0.0006208	8
	44	130	12.01923	513.6744	-539.2725	1	744.7659	-46.39264	-1.549129E-007	0.0006182	8
	45	132	9.450605	537.1669	-671.7805	1	860.1379	-51.35358	-2.718539E-008	0.0006135	8
	46	135	7.512019	564.8278	-827.7966	1	1002.137	-55.69323	-5.604021E-008	0.0006431	8
	47	137	5.978954	598.9232	-1018.563	1	1181.601	-59.54414	-6.316195E-008	0.0006307	8
	48	140	4.734848	642.3036	-1259.458	1	1413.785	-62.97913	-1.136234E-007	0.0006116	8
	49	144	3.75601	694.8524	-1552.944	1	1701.31	-65.89425	-5.441829E-008	0.0006439	8
	50	147	3.004808	757.4825	-1899.681	1	2045.133	-68.26076	-1.252203E-007	0.0006569	8
	51	151	2.372217	841.5978	-2349.368	1	2495.56	-70.29131	-1.102399E-007	0.0006077	8
	52	155	1.878005	947.777	-2910.914	1	3061.323	-71.96505	-7.08768E-008	0.0006156	8
	53	160	1.512097	1065.964	-3535.876	1	3693.061	-73.22346	-1.033226E-007	0.0006449	8
	54	165	1.201923	1239.998	-4373.451	1	4545.84	-74.17046	-1.088698E-008	0.0006211	7
	55	172	0.956633	1455.498	-5375.31	1	5568.88	-74.84906	-4.802894E-008	-4.436234E-005	7
