EXPLAIN
TAG	EISPOT
TITLE	LABEL	Potentiostatic EIS	Test Identifier
DATE	LABEL	9/12/2020	Date
TIME	LABEL	17:46:25	Time
NOTES	NOTES	1	Notes...
	
PSTAT	PSTAT	REF3000-16137	Potentiostat
VDC	POTEN	0.00000E+000	T	DC Voltage (V)
FREQINIT	QUANT	3.00000E+005	Initial Freq. (Hz)
FREQFINAL	QUANT	1.00000E+000	Final Freq. (Hz)
PTSPERDEC	QUANT	1.00000E+001	Points/decade
VAC	QUANT	5.00000E+001	AC Voltage (mV rms)
AREA	QUANT	1.00000E+000	Sample Area (cm^2)
SPEED	SELECTOR	2	Optimize for:
ZGUESS	QUANT	1.00000E+003	Estimated Z (ohms)
EOC	QUANT	0	Open Circuit (V)
SEQUENCER	TOGGLE	TRUE	Run as Sequence
PSTATMODEL	IQUANT	5	Pstat Model
PSTATSECTION	LABEL	REF3000-16137	Pstat Section
PSTATSERIALNO	LABEL	16137	Pstat Serial Number
CTRLMODE	IQUANT	1	Control Mode
IESTAB	IQUANT	0	I/E Stability
CASPEED	IQUANT	1	Control Amp Speed
CONVENTION	IQUANT	1	Current Convention
ICHRANGE	IQUANT	2	Ich Range
ICHRANGEMODE	TOGGLE	F	Ich Auto Range
ICHOFFSETENABLE	TOGGLE	T	Ich Offset Enable
ICHOFFSET	QUANT	0	Ich Offset (V)
ICHFILTER	IQUANT	3	Ich Filter
VCHRANGE	IQUANT	2	Vch Range
VCHRANGEMODE	TOGGLE	F	Vch Auto Range
VCHOFFSETENABLE	TOGGLE	T	Vch Offset Enable
VCHOFFSET	QUANT	0	Vch Offset (V)
VCHFILTER	IQUANT	3	Vch Filter
ACHRANGE	IQUANT	2	Ach Range
ACHOFFSETENABLE	TOGGLE	F	Ach Offset Enable
ACHOFFSET	QUANT	0	Ach Offset (V)
ACHFILTER	IQUANT	3	Ach Filter
IERANGELOWERLIMIT	IQUANT	2	I/E Range Lower Limit
IERANGEMODE	TOGGLE	F	I/E AutoRange
IERANGE	IQUANT	11	I/E Range
POSFEEDENABLE	TOGGLE	F	Positive Feedback IR Comp
POSFEEDRESISTANCE	QUANT	0	Positive Feedback Resistance (ohm)
ACHSELECT	IQUANT	0	Ach Select
CABLEID	IQUANT	13	Cable ID
DCCALDATE	LABEL	7/31/2020	DC Calibration Date
ACCALDATE	LABEL	7/31/2020	AC Calibration Date
THERMOSELECT	IQUANT	1	Thermo Select
FRAMEWORKVERSION	QUANT	6.33	Framework Version
INSTRUMENTVERSION	LABEL	3.50	Instrument Version
COMPLIANCEVOLTAGE	IQUANT	0	Compliance Voltage
ZCURVE	TABLE
	Pt	Time	Freq	Zreal	Zimag	Zsig	Zmod	Zphz	Idc	Vdc	IERange
	#	s	Hz	ohm	ohm	V	ohm	°	A	V	#
	0	7	300046.9	47.87983	2.277093	1	47.93395	2.72285	1.068427E-005	-1.008875E-005	9
	1	10	238359.4	48.21802	1.731805	1	48.24911	2.056958	-5.920429E-005	0.0016829	9
	2	13	189328.1	48.47166	1.416552	1	48.49236	1.673955	5.703517E-005	-0.0022262	9
	3	15	150421.9	48.62144	1.064537	1	48.6331	1.254256	-5.764635E-005	0.0014313	9
	4	18	119484.4	48.84435	0.7520326	1	48.85014	0.8820854	2.520106E-005	0.0001225	9
	5	20	94921.88	49.10029	0.7745007	1	49.1064	0.9037002	1.814295E-005	-0.0006311	9
	6	23	75421.88	49.26396	0.551273	1	49.26705	0.6411238	-1.68514E-005	0.0004128	9
	7	25	59859.37	49.4483	0.3727869	1	49.44971	0.4319402	9.918497E-006	-0.0005358	9
	8	28	47578.12	49.63259	0.1954208	1	49.63298	0.2255922	1.95346E-005	-0.0005339	9
	9	31	37828.12	49.84383	0.0544911	1	49.84386	0.0626378	-1.59338E-005	0.0005579	9
	10	33	30046.88	50.05269	-0.0786554	1	50.05275	-0.0900375	-1.41386E-005	0.0006013	9
	11	36	23859.38	50.26011	-0.2032162	1	50.26052	-0.2316622	3.702888E-006	-0.0003512	9
	12	38	18984.38	50.44519	-0.3347278	1	50.4463	-0.3801791	1.019595E-005	-0.0005093	9
	13	40	15046.87	50.6461	-0.4526688	1	50.64812	-0.5120892	1.417117E-005	-0.0005509	9
	14	43	11953.13	50.81651	-0.6087368	1	50.82016	-0.6863199	-1.372851E-005	0.000352	9
	15	45	9515.62	51.04144	-0.8065063	1	51.04781	-0.9052559	1.978463E-005	-0.0005231	9
	16	47	7546.875	51.27129	-1.037117	1	51.28178	-1.158822	2.893343E-006	0.0002664	9
	17	49	5928.309	51.46118	-1.328492	1	51.47832	-1.478787	-2.759943E-006	-0.0001624	9
	18	52	4733.456	51.65639	-1.639862	1	51.68241	-1.818277	1.512758E-005	-0.0005635	9
	19	54	3796.875	51.91328	-2.024604	1	51.95274	-2.233388	1.90907E-005	-0.0004833	9
	20	56	2987.132	52.14569	-2.54013	1	52.20752	-2.788798	-1.640071E-005	0.0006247	9
	21	59	2390.625	52.38045	-3.152118	1	52.4752	-3.443757	-8.292618E-006	4.481757E-005	9
	22	61	1884.191	52.62466	-3.913876	1	52.77	-4.253452	1.481089E-005	-0.0005599	9
	23	63	1516.544	52.92721	-4.838747	1	53.14793	-5.223613	-9.920998E-006	0.0006261	9
	24	66	1193.986	53.24846	-6.056239	1	53.59175	-6.48868	9.489312E-006	-0.0004858	9
	25	68	946.5144	53.6123	-7.527514	1	54.13818	-7.992449	1.519291E-005	-0.0005494	9
	26	71	751.7689	53.96101	-9.348416	1	54.7648	-9.82859	1.442108E-005	-0.0005469	9
	27	73	597.4265	54.39608	-11.61905	1	55.62315	-12.05723	1.884222E-005	-0.0005603	9
	28	75	477.4305	54.89305	-14.35737	1	56.73959	-14.65746	1.308125E-006	4.782915E-005	9
	29	77	376.6741	55.48967	-17.93417	1	58.31584	-17.91075	1.328087E-006	4.897503E-005	9
	30	80	298.2954	56.19668	-22.31951	1	60.46675	-21.66138	1.320708E-006	4.990383E-005	9
	31	82	237.7717	57.04319	-27.59164	1	63.3658	-25.81293	1.38202E-006	4.784353E-005	9
	32	85	189.0121	58.08502	-34.17405	1	67.3924	-30.47023	1.316748E-006	4.819927E-005	9
	33	87	150.2404	59.37003	-42.29236	1	72.89338	-35.46424	1.385006E-006	4.080014E-005	9
	34	89	119.1737	60.9702	-52.3988	1	80.39278	-40.67631	1.35981E-006	5.17636E-005	9
	35	92	95.0169	62.91443	-64.55464	1	90.14171	-45.73721	1.377777E-006	4.628662E-005	9
	36	94	75.60484	65.35263	-79.62026	1	103.0066	-50.62071	1.37106E-006	4.768922E-005	9
	37	97	54.50582	69.77464	-107.3667	1	128.0473	-56.98127	1.303765E-006	4.42536E-005	9
	38	99	45.95588	72.77638	-125.4746	1	145.0527	-59.88588	1.359265E-006	5.721271E-005	9
	39	102	37.20238	77.14775	-152.111	1	170.5565	-63.10676	1.355808E-006	5.2779E-005	9
	40	104	30.04808	82.55866	-184.7796	1	202.3844	-65.92513	1.312615E-006	5.321576E-005	9
	41	107	23.91582	89.7531	-227.4106	1	244.4815	-68.46213	1.263336E-006	5.08066E-005	9
	42	109	18.60119	99.8473	-285.9236	1	302.8561	-70.75031	1.547099E-006	4.838478E-005	9
	43	111	15.02404	110.8895	-347.1647	1	364.4445	-72.28575	1.358482E-006	6.443901E-005	9
	44	113	12.01923	125.2489	-423.4113	1	441.5478	-73.52131	4.755692E-007	0.0006302	8
	45	116	9.450605	146.018	-526.3276	1	546.207	-74.4945	4.552459E-007	0.0006327	8
	46	118	7.512019	172.3642	-646.7975	1	669.3702	-75.0781	4.676474E-007	0.0006488	8
	47	121	5.978954	206.2096	-792.7715	1	819.1515	-75.41975	4.137489E-007	0.0006381	8
	48	124	4.734848	252.4631	-974.86	1	1007.02	-75.48087	3.406384E-007	0.0006342	8
	49	127	3.75601	311.1885	-1192.613	1	1232.544	-75.37589	4.240688E-007	0.0006428	8
	50	131	3.004808	384.6385	-1443.653	1	1494.015	-75.08102	3.280069E-007	0.0006616	8
	51	135	2.372217	483.2165	-1760.341	1	1825.458	-74.65029	3.682281E-007	0.0006427	8
	52	139	1.878005	609.5861	-2139.985	1	2225.113	-74.10011	4.011414E-007	0.000613	8
	53	144	1.512097	744.7687	-2550.717	1	2657.224	-73.72304	3.589113E-007	0.000685	8
	54	149	1.201923	926.8434	-3072.382	1	3209.139	-73.21305	3.915602E-007	0.0006367	8
	55	155	0.956633	1134.337	-3681.801	1	3852.58	-72.8763	3.309014E-007	-1.132583E-005	8
