EXPLAIN
TAG	EISPOT
TITLE	LABEL	Potentiostatic EIS	Test Identifier
DATE	LABEL	9/15/2020	Date
TIME	LABEL	7:35:50	Time
NOTES	NOTES	1	Notes...
	
PSTAT	PSTAT	REF3000-16137	Potentiostat
VDC	POTEN	0.00000E+000	T	DC Voltage (V)
FREQINIT	QUANT	3.00000E+005	Initial Freq. (Hz)
FREQFINAL	QUANT	1.00000E+000	Final Freq. (Hz)
PTSPERDEC	QUANT	1.00000E+001	Points/decade
VAC	QUANT	5.00000E+001	AC Voltage (mV rms)
AREA	QUANT	1.00000E+000	Sample Area (cm^2)
SPEED	SELECTOR	2	Optimize for:
ZGUESS	QUANT	1.00000E+003	Estimated Z (ohms)
EOC	QUANT	0	Open Circuit (V)
SEQUENCER	TOGGLE	TRUE	Run as Sequence
PSTATMODEL	IQUANT	5	Pstat Model
PSTATSECTION	LABEL	REF3000-16137	Pstat Section
PSTATSERIALNO	LABEL	16137	Pstat Serial Number
CTRLMODE	IQUANT	1	Control Mode
IESTAB	IQUANT	0	I/E Stability
CASPEED	IQUANT	1	Control Amp Speed
CONVENTION	IQUANT	1	Current Convention
ICHRANGE	IQUANT	2	Ich Range
ICHRANGEMODE	TOGGLE	F	Ich Auto Range
ICHOFFSETENABLE	TOGGLE	T	Ich Offset Enable
ICHOFFSET	QUANT	0	Ich Offset (V)
ICHFILTER	IQUANT	3	Ich Filter
VCHRANGE	IQUANT	2	Vch Range
VCHRANGEMODE	TOGGLE	F	Vch Auto Range
VCHOFFSETENABLE	TOGGLE	T	Vch Offset Enable
VCHOFFSET	QUANT	0	Vch Offset (V)
VCHFILTER	IQUANT	3	Vch Filter
ACHRANGE	IQUANT	2	Ach Range
ACHOFFSETENABLE	TOGGLE	F	Ach Offset Enable
ACHOFFSET	QUANT	0	Ach Offset (V)
ACHFILTER	IQUANT	3	Ach Filter
IERANGELOWERLIMIT	IQUANT	2	I/E Range Lower Limit
IERANGEMODE	TOGGLE	F	I/E AutoRange
IERANGE	IQUANT	11	I/E Range
POSFEEDENABLE	TOGGLE	F	Positive Feedback IR Comp
POSFEEDRESISTANCE	QUANT	0	Positive Feedback Resistance (ohm)
ACHSELECT	IQUANT	0	Ach Select
CABLEID	IQUANT	13	Cable ID
DCCALDATE	LABEL	7/31/2020	DC Calibration Date
ACCALDATE	LABEL	7/31/2020	AC Calibration Date
THERMOSELECT	IQUANT	1	Thermo Select
FRAMEWORKVERSION	QUANT	6.33	Framework Version
INSTRUMENTVERSION	LABEL	3.50	Instrument Version
COMPLIANCEVOLTAGE	IQUANT	0	Compliance Voltage
ZCURVE	TABLE
	Pt	Time	Freq	Zreal	Zimag	Zsig	Zmod	Zphz	Idc	Vdc	IERange
	#	s	Hz	ohm	ohm	V	ohm	°	A	V	#
	0	17	300046.9	-57.65205	-4939.244	1	4939.58	-90.66874	-9.272758E-005	0.0020568	9
	1	36	238359.4	52.06382	-6036.122	1	6036.347	-89.50581	-8.93289E-005	0.0020728	9
	2	50	189328.1	119.4221	-7480.124	1	7481.077	-89.08533	-1.362841E-005	0.0017377	9
	3	57	150421.9	-254.9739	-9715.76	1	9719.1	-91.50329	1.095088E-006	-0.001892	9
	4	67	119484.4	821.2299	-11571.38	1	11600.48	-85.94048	-7.929905E-005	0.0360607	8
	5	74	94921.88	629.9346	-14803.3	1	14816.7	-87.56332	-2.630537E-005	0.0075529	8
	6	83	75421.88	687.0899	-18303.46	1	18316.35	-87.8502	-1.994223E-005	0.0113775	8
	7	91	59859.37	317.4564	-23196.83	1	23199	-89.21593	-2.467706E-005	0.0109965	8
	8	100	47578.12	235.345	-29641.16	1	29642.1	-89.54509	2.724271E-005	-0.0073793	8
	9	110	37828.12	709.3957	-35838.84	1	35845.86	-88.86604	-2.477384E-005	0.0110723	8
	10	119	30046.88	1936.063	-45027.21	1	45068.81	-87.53793	-2.684053E-005	0.0096211	8
	11	129	23859.38	2065.503	-59273.66	1	59309.64	-88.00423	2.732851E-005	-0.0072271	8
	12	136	18984.38	1494.911	-74099.85	1	74114.93	-88.84425	-1.182963E-005	0.0102229	8
	13	142	15046.87	6183.215	-92796.09	1	93001.87	-86.18789	7.627127E-006	-0.0184905	7
	14	148	11953.13	5869.877	-115675	1	115823.9	-87.09504	-3.436767E-006	-0.0053802	7
	15	154	9515.62	6752.256	-142484.3	1	142644.2	-87.28681	-7.286171E-006	0.0235339	7
	16	159	7546.875	8911.159	-179690.3	1	179911.1	-87.16093	-6.740922E-006	0.011992	7
	17	164	5928.309	5242.569	-242097.4	1	242154.2	-88.75947	3.560033E-006	-0.0247194	7
	18	170	4733.456	211251.9	-141586.2	1	254310.8	-33.83096	-2.686568E-005	0.0096453	8
	19	178	3796.875	-34727.45	-373189.8	1	374802.1	-95.3164	-2.67963E-005	0.0096219	8
	20	187	2987.132	-4698.882	-254970.6	1	255013.9	-91.05579	-2.678745E-005	0.0096182	8
	21	196	2390.625	35854.48	-169587.4	1	173336.2	-78.06222	1.665921E-005	-0.0093086	8
	22	203	1884.191	202447.5	-787413.8	1	813022.4	-75.58129	-7.287598E-006	0.0234938	7
	23	210	1516.544	398765.8	-1200934	1	1265407	-71.63143	7.619241E-006	-0.0184515	7
	24	217	1193.986	386993.3	-962329	1	1037228	-68.09286	-1.051385E-006	-0.0134526	7
	25	225	946.5144	81380.52	-255438	1	268088.4	-72.32854	2.583762E-005	-0.0088956	8
	26	232	751.7689	306334.2	255716.1	1	399038	39.85384	2.745039E-005	-0.0073743	8
	27	239	597.4265	-31098.23	-522579.8	1	523504.3	-93.4056	-2.472333E-005	0.0109572	8
	28	246	477.4305	576112.1	-2709915	1	2770477	-77.99794	-8.281788E-008	0.0006198	7
	29	252	376.6741	1281003	-3398957	1	3632338	-69.34952	-8.256002E-010	0.0006558	5
	30	256	298.2954	1722598	-4101133	1	4448217	-67.21615	-9.917923E-010	0.0006408	5
	31	260	237.7717	2409841	-4843055	1	5409483	-63.54566	-9.346881E-010	0.0005951	5
	32	264	189.0121	3179062	-5673245	1	6503241	-60.73546	-9.260904E-010	0.0006424	5
	33	267	150.2404	4192026	-6677205	1	7884045	-57.87893	-1.01507E-009	0.000716	5
	34	270	119.1737	8296203	-6355095	1	1.045056E+007	-37.453	-9.540402E-010	0.0006285	5
	35	272	95.0169	6931727	-7514687	1	1.022347E+007	-47.31082	-9.448436E-010	0.0006447	5
	36	275	75.60484	8363602	-7724654	1	1.138508E+007	-42.72568	-1.017009E-009	0.0006091	5
	37	278	54.50582	1.111587E+007	-6746920	1	1.300321E+007	-31.2562	-9.95266E-010	0.0006377	5
	38	281	45.95588	1.305632E+007	-5700298	1	1.424644E+007	-23.58574	-1.310265E-010	0.0006231	4
	39	284	37.20238	1.433054E+007	-4117198	1	1.491026E+007	-16.02948	-3.494822E-011	0.0005991	4
	40	287	30.04808	1.477945E+007	-4107458	1	1.53396E+007	-15.5315	-8.890857E-011	0.0007286	4
	41	290	23.91582	1.561546E+007	-3138979	1	1.592783E+007	-11.36597	-1.460151E-010	0.0006887	4
	42	292	18.60119	1.599024E+007	-1792029	1	1.609034E+007	-6.394468	-2.228681E-010	0.0006025	4
	43	295	15.02404	1.605625E+007	-2639191	1	1.627171E+007	-9.334329	-6.955725E-011	0.0006591	4
	44	297	12.01923	1.643244E+007	-2353229	1	1.660009E+007	-8.149704	-9.448418E-011	0.0006511	4
	45	300	9.450605	1.643841E+007	-2254706	1	1.659232E+007	-7.810001	-1.280548E-010	0.000693	4
	46	302	7.512019	1.67987E+007	-2184973	1	1.69402E+007	-7.410742	-1.308638E-010	0.0005966	4
	47	305	5.978954	1.697394E+007	-2060963	1	1.70986E+007	-6.922923	-9.165962E-011	0.0006543	4
	48	310	4.734848	1.729497E+007	-1930220	1	1.740235E+007	-6.368191	-1.040364E-010	0.0005909	4
	49	315	3.75601	1.774889E+007	-2062244	1	1.78683E+007	-6.627478	-1.354719E-010	0.0006196	4
	50	320	3.004808	1.801647E+007	-2124808	1	1.814134E+007	-6.72622	-1.192636E-010	0.000709	4
	51	327	2.372217	1.837308E+007	-2263943	1	1.851204E+007	-7.024612	-9.271834E-011	0.0007225	4
	52	331	1.878005	1.876523E+007	-2483064	1	1.89288E+007	-7.537736	-1.202581E-010	0.0006247	4
	53	337	1.512097	1.919941E+007	-2735171	1	1.939326E+007	-8.107869	-1.482735E-010	0.0007107	4
	54	342	1.201923	1.968001E+007	-3020300	1	1.991043E+007	-8.725133	-9.837496E-011	0.0006139	4
	55	348	0.956633	2.029124E+007	-3383545	1	2.05714E+007	-9.466915	-1.852434E-010	1.259577E-005	4
