EXPLAIN
TAG	EISPOT
TITLE	LABEL	Potentiostatic EIS	Test Identifier
DATE	LABEL	9/15/2020	Date
TIME	LABEL	8:30:59	Time
NOTES	NOTES	1	Notes...
	
PSTAT	PSTAT	REF3000-16137	Potentiostat
VDC	POTEN	0.00000E+000	T	DC Voltage (V)
FREQINIT	QUANT	3.00000E+005	Initial Freq. (Hz)
FREQFINAL	QUANT	1.00000E+000	Final Freq. (Hz)
PTSPERDEC	QUANT	1.00000E+001	Points/decade
VAC	QUANT	5.00000E+001	AC Voltage (mV rms)
AREA	QUANT	1.00000E+000	Sample Area (cm^2)
SPEED	SELECTOR	2	Optimize for:
ZGUESS	QUANT	1.00000E+003	Estimated Z (ohms)
EOC	QUANT	0	Open Circuit (V)
SEQUENCER	TOGGLE	TRUE	Run as Sequence
PSTATMODEL	IQUANT	5	Pstat Model
PSTATSECTION	LABEL	REF3000-16137	Pstat Section
PSTATSERIALNO	LABEL	16137	Pstat Serial Number
CTRLMODE	IQUANT	1	Control Mode
IESTAB	IQUANT	0	I/E Stability
CASPEED	IQUANT	1	Control Amp Speed
CONVENTION	IQUANT	1	Current Convention
ICHRANGE	IQUANT	2	Ich Range
ICHRANGEMODE	TOGGLE	F	Ich Auto Range
ICHOFFSETENABLE	TOGGLE	T	Ich Offset Enable
ICHOFFSET	QUANT	0	Ich Offset (V)
ICHFILTER	IQUANT	3	Ich Filter
VCHRANGE	IQUANT	2	Vch Range
VCHRANGEMODE	TOGGLE	F	Vch Auto Range
VCHOFFSETENABLE	TOGGLE	T	Vch Offset Enable
VCHOFFSET	QUANT	0	Vch Offset (V)
VCHFILTER	IQUANT	3	Vch Filter
ACHRANGE	IQUANT	2	Ach Range
ACHOFFSETENABLE	TOGGLE	F	Ach Offset Enable
ACHOFFSET	QUANT	0	Ach Offset (V)
ACHFILTER	IQUANT	3	Ach Filter
IERANGELOWERLIMIT	IQUANT	2	I/E Range Lower Limit
IERANGEMODE	TOGGLE	F	I/E AutoRange
IERANGE	IQUANT	11	I/E Range
POSFEEDENABLE	TOGGLE	F	Positive Feedback IR Comp
POSFEEDRESISTANCE	QUANT	0	Positive Feedback Resistance (ohm)
ACHSELECT	IQUANT	0	Ach Select
CABLEID	IQUANT	13	Cable ID
DCCALDATE	LABEL	7/31/2020	DC Calibration Date
ACCALDATE	LABEL	7/31/2020	AC Calibration Date
THERMOSELECT	IQUANT	1	Thermo Select
FRAMEWORKVERSION	QUANT	6.33	Framework Version
INSTRUMENTVERSION	LABEL	3.50	Instrument Version
COMPLIANCEVOLTAGE	IQUANT	0	Compliance Voltage
ZCURVE	TABLE
	Pt	Time	Freq	Zreal	Zimag	Zsig	Zmod	Zphz	Idc	Vdc	IERange
	#	s	Hz	ohm	ohm	V	ohm	°	A	V	#
	0	19	300046.9	-58.74095	-4971.252	1	4971.599	-90.67698	1.931509E-005	-0.0010526	9
	1	33	238359.4	86.50585	-6063.974	1	6064.591	-89.1827	-2.93547E-005	-0.0011371	9
	2	51	189328.1	167.3327	-7531.221	1	7533.08	-88.72718	-1.454455E-005	0.0017722	9
	3	61	150421.9	-126.4642	-9547.53	1	9548.36	-90.75888	1.829738E-005	-0.0002722	9
	4	70	119484.4	463.9052	-12004.69	1	12013.65	-87.78698	-3.114874E-005	-0.006289	8
	5	77	94921.88	452.9522	-14798.36	1	14805.29	-88.24683	2.708226E-005	-0.0072745	8
	6	86	75421.88	481.5935	-18429.52	1	18435.81	-88.50311	1.691769E-005	0.0004486	8
	7	94	59859.37	789.5687	-23587.06	1	23600.27	-88.08276	-2.391151E-005	0.0052029	8
	8	103	47578.12	534.4785	-29306.39	1	29311.26	-88.95518	-2.319923E-006	0.0078169	8
	9	111	37828.12	931.4211	-37234.47	1	37246.12	-88.56705	8.17217E-006	-0.0076393	8
	10	120	30046.88	-414.5627	-45323.83	1	45325.72	-90.52406	-1.201659E-005	0.0101441	8
	11	129	23859.38	4717.638	-59053.71	1	59241.85	-85.4325	-7.303369E-006	0.0236207	7
	12	134	18984.38	4625.867	-73167	1	73313.09	-86.38238	6.6142E-006	-0.0100137	7
	13	139	15046.87	5510.348	-92095.04	1	92259.74	-86.57589	2.981188E-007	0.0167041	7
	14	146	11953.13	3872.856	-114556	1	114621.4	-88.06371	3.606587E-006	-0.0247565	7
	15	151	9515.62	4167.182	-143333.9	1	143394.5	-88.33469	6.921637E-006	-0.027202	7
	16	157	7546.875	11707.57	-185266.5	1	185636	-86.38411	-6.718071E-006	0.0118626	7
	17	163	5928.309	-17375.27	-223910.2	1	224583.3	-94.43722	-3.377537E-006	-0.0052785	7
	18	168	4733.456	2634.51	-262287.6	1	262300.8	-89.42452	-3.3942E-006	-0.0052752	7
	19	173	3796.875	-13641.43	-348003.7	1	348271	-92.2448	6.652408E-006	-0.0101715	7
	20	180	2987.132	5009.103	-602064.1	1	602084.9	-89.52332	-1.215131E-005	0.0102503	8
	21	189	2390.625	323320.9	-676088.3	1	749421	-64.4418	1.233071E-006	-0.0199132	7
	22	196	1884.191	-536013.4	-1152146	1	1270728	-114.9493	-3.811257E-006	0.0256193	7
	23	204	1516.544	90054.95	-840793.9	1	845602.9	-83.88653	7.706578E-006	-0.0243893	7
	24	211	1193.986	-360798	-807205.5	1	884169.6	-114.0833	1.34198E-006	-0.0201653	7
	25	219	946.5144	299421.4	-1440885	1	1471667	-78.2608	6.029589E-007	-0.0278232	6
	26	224	751.7689	62980.91	-1974126	1	1975130	-88.1727	2.241698E-007	0.0107486	6
	27	229	597.4265	-58056.08	-1997550	1	1998394	-91.66476	1.782947E-007	-0.0210623	6
	28	234	477.4305	80834	-2865858	1	2866998	-88.38435	-8.689252E-009	0.0006196	6
	29	236	376.6741	480779.4	-3739678	1	3770456	-82.67414	-9.134161E-010	0.0006688	5
	30	240	298.2954	494813.5	-4644294	1	4670579	-83.91852	-9.653391E-010	0.0006274	5
	31	244	237.7717	544095.1	-5900897	1	5925928	-84.73191	-9.401889E-010	0.0006063	5
	32	247	189.0121	572169.6	-7224473	1	7247095	-85.47169	-9.142045E-010	0.0006084	5
	33	249	150.2404	502995.4	-9169507	1	9183293	-86.86018	-9.70344E-010	0.0006862	5
	34	252	119.1737	4778026	-1.368729E+007	1	1.449729E+007	-70.75668	-8.801758E-010	0.0006139	5
	35	255	95.0169	642228.9	-1.380084E+007	1	1.381577E+007	-87.33563	-8.715513E-010	0.0006023	5
	36	258	75.60484	-519368.9	-1.735407E+007	1	1.736184E+007	-91.71423	-9.757426E-010	0.0006919	5
	37	261	54.50582	-248820.1	-2.420994E+007	1	2.421121E+007	-90.58884	-9.349772E-010	0.0005948	5
	38	264	45.95588	-1745059	-2.729182E+007	1	2.734755E+007	-93.65855	-9.305086E-010	0.0006078	5
	39	268	37.20238	-99376.4	-3.301127E+007	1	3.301142E+007	-90.17248	-1.045648E-009	0.0006669	5
	40	272	30.04808	-82337.34	-4.396078E+007	1	4.396085E+007	-90.10732	-9.425798E-010	0.0006411	5
	41	276	23.91582	2919290	-5.412689E+007	1	5.420556E+007	-86.91279	-8.61494E-011	0.0005958	4
	42	279	18.60119	-7.876383E+007	-1.010247E+008	1	1.281005E+008	-127.9417	2.108483E-010	0.0006844	4
	43	283	15.02404	3003496	-9.049149E+007	1	9.054132E+007	-88.099	-8.164279E-011	0.000682	4
	44	287	12.01923	7557676	-1.074809E+008	1	1.077462E+008	-85.97778	-9.714694E-011	0.0006386	4
	45	290	9.450605	8725799	-1.320546E+008	1	1.323426E+008	-86.21955	-1.087445E-010	0.000715	4
	46	294	7.512019	1.075813E+007	-1.695273E+008	1	1.698683E+008	-86.3689	-9.16202E-011	0.0006214	4
	47	299	5.978954	2.97696E+007	-1.943382E+008	1	1.966051E+008	-81.29087	-5.593653E-011	0.0006161	4
	48	304	4.734848	4.672206E+007	-2.946154E+008	1	2.982972E+008	-80.9887	-6.754628E-012	0.0007567	3
	49	309	3.75601	6.766275E+007	-3.503704E+008	1	3.568441E+008	-79.06973	-9.219571E-010	0.0006323	5
	50	317	3.004808	-1.797024E+007	-5.34513E+008	1	5.34815E+008	-91.92555	-9.750286E-010	0.0006381	5
	51	326	2.372217	5.884258E+007	-5.626897E+008	1	5.65758E+008	-84.03006	-7.062811E-012	0.0008007	3
	52	333	1.878005	6.352814E+007	-7.044957E+008	1	7.073543E+008	-84.84727	-7.080478E-012	0.0007028	3
	53	342	1.512097	6.962428E+007	-8.661703E+008	1	8.68964E+008	-85.40434	-6.780031E-012	0.000817	3
	54	349	1.201923	7.830953E+007	-1.088733E+009	1	1.091545E+009	-85.88596	-6.882593E-012	0.0006906	3
	55	362	0.956633	9.348698E+007	-1.360674E+009	1	1.363882E+009	-86.06959	-6.862078E-012	8.368635E-005	3
