EXPLAIN
TAG	EISPOT
TITLE	LABEL	Potentiostatic EIS	Test Identifier
DATE	LABEL	9/15/2020	Date
TIME	LABEL	2:17:06	Time
NOTES	NOTES	1	Notes...
	
PSTAT	PSTAT	REF3000-16137	Potentiostat
VDC	POTEN	0.00000E+000	T	DC Voltage (V)
FREQINIT	QUANT	3.00000E+005	Initial Freq. (Hz)
FREQFINAL	QUANT	1.00000E+000	Final Freq. (Hz)
PTSPERDEC	QUANT	1.00000E+001	Points/decade
VAC	QUANT	5.00000E+001	AC Voltage (mV rms)
AREA	QUANT	1.00000E+000	Sample Area (cm^2)
SPEED	SELECTOR	2	Optimize for:
ZGUESS	QUANT	1.00000E+003	Estimated Z (ohms)
EOC	QUANT	0	Open Circuit (V)
SEQUENCER	TOGGLE	TRUE	Run as Sequence
PSTATMODEL	IQUANT	5	Pstat Model
PSTATSECTION	LABEL	REF3000-16137	Pstat Section
PSTATSERIALNO	LABEL	16137	Pstat Serial Number
CTRLMODE	IQUANT	1	Control Mode
IESTAB	IQUANT	0	I/E Stability
CASPEED	IQUANT	1	Control Amp Speed
CONVENTION	IQUANT	1	Current Convention
ICHRANGE	IQUANT	2	Ich Range
ICHRANGEMODE	TOGGLE	F	Ich Auto Range
ICHOFFSETENABLE	TOGGLE	T	Ich Offset Enable
ICHOFFSET	QUANT	0	Ich Offset (V)
ICHFILTER	IQUANT	3	Ich Filter
VCHRANGE	IQUANT	2	Vch Range
VCHRANGEMODE	TOGGLE	F	Vch Auto Range
VCHOFFSETENABLE	TOGGLE	T	Vch Offset Enable
VCHOFFSET	QUANT	0	Vch Offset (V)
VCHFILTER	IQUANT	3	Vch Filter
ACHRANGE	IQUANT	2	Ach Range
ACHOFFSETENABLE	TOGGLE	F	Ach Offset Enable
ACHOFFSET	QUANT	0	Ach Offset (V)
ACHFILTER	IQUANT	3	Ach Filter
IERANGELOWERLIMIT	IQUANT	2	I/E Range Lower Limit
IERANGEMODE	TOGGLE	F	I/E AutoRange
IERANGE	IQUANT	11	I/E Range
POSFEEDENABLE	TOGGLE	F	Positive Feedback IR Comp
POSFEEDRESISTANCE	QUANT	0	Positive Feedback Resistance (ohm)
ACHSELECT	IQUANT	0	Ach Select
CABLEID	IQUANT	13	Cable ID
DCCALDATE	LABEL	7/31/2020	DC Calibration Date
ACCALDATE	LABEL	7/31/2020	AC Calibration Date
THERMOSELECT	IQUANT	1	Thermo Select
FRAMEWORKVERSION	QUANT	6.33	Framework Version
INSTRUMENTVERSION	LABEL	3.50	Instrument Version
COMPLIANCEVOLTAGE	IQUANT	0	Compliance Voltage
ZCURVE	TABLE
	Pt	Time	Freq	Zreal	Zimag	Zsig	Zmod	Zphz	Idc	Vdc	IERange
	#	s	Hz	ohm	ohm	V	ohm	°	A	V	#
	0	6	300046.9	90.89108	-4.094382	1	90.98325	-2.579266	-7.235887E-005	0.0025338	9
	1	10	238359.4	91.88904	-5.737731	1	92.068	-3.573022	8.204395E-006	-0.0015858	9
	2	13	189328.1	92.80924	-7.313661	1	93.09697	-4.505777	-1.578915E-005	0.0010267	9
	3	15	150421.9	93.96222	-8.835156	1	94.37669	-5.371661	-3.33287E-005	-0.0001605	9
	4	18	119484.4	94.94627	-10.46152	1	95.5209	-6.28769	1.460543E-005	-0.0010745	9
	5	20	94921.88	96.3404	-12.09326	1	97.0964	-7.154711	-6.842176E-006	-7.855154E-005	9
	6	23	75421.88	97.7906	-14.00061	1	98.7877	-8.147631	-2.437263E-006	-0.0002813	9
	7	25	59859.37	99.426	-16.20391	1	100.7378	-9.256373	2.618443E-005	-0.0006627	9
	8	28	47578.12	101.1824	-18.4944	1	102.8587	-10.35834	-1.417025E-005	0.000185	9
	9	31	37828.12	103.0518	-21.1942	1	105.2086	-11.62172	-1.92077E-005	0.0007174	9
	10	33	30046.88	105.0334	-24.21399	1	107.7884	-12.98193	1.844155E-005	-0.0001947	9
	11	36	23859.38	107.0016	-27.89419	1	110.5777	-14.61122	1.278474E-005	0.0001671	9
	12	38	18984.38	109.0134	-32.11794	1	113.6463	-16.41623	1.827109E-005	-0.0006844	9
	13	40	15046.87	111.0793	-37.42383	1	117.2141	-18.61924	-8.558211E-006	-1.737647E-005	9
	14	42	11953.13	113.1588	-44.1169	1	121.4545	-21.29918	1.79262E-005	-0.0006874	9
	15	45	9515.62	115.1348	-52.36032	1	126.4817	-24.4548	-2.734779E-006	-0.0002568	9
	16	47	7546.875	117.4212	-62.85246	1	133.1847	-28.15898	1.882089E-005	-0.0007018	9
	17	49	5928.309	119.7001	-76.79563	1	142.217	-32.6829	-1.033978E-005	3.744266E-005	9
	18	52	4733.456	122.3207	-92.94947	1	153.6293	-37.23059	-1.354265E-005	0.0001615	9
	19	54	3796.875	125.2224	-112.5924	1	168.3975	-41.95996	2.198181E-005	-0.0002859	9
	20	56	2987.132	129.0314	-139.089	1	189.7231	-47.14825	4.617984E-006	-0.0004509	9
	21	59	2390.625	133.4679	-169.4657	1	215.7135	-51.77672	-1.955685E-005	0.0006419	9
	22	61	1884.191	138.7109	-209.5373	1	251.2898	-56.49597	-1.743218E-005	0.000411	9
	23	63	1516.544	144.8786	-256.4664	1	294.5587	-60.53777	2.302326E-005	-0.0004384	9
	24	66	1193.986	153.5364	-318.5824	1	353.6497	-64.2689	-2.368526E-006	-0.0002573	9
	25	68	946.5144	161.9613	-392.4553	1	424.5617	-67.57468	-1.121422E-006	-0.0001041	8
	26	70	751.7689	173.0204	-484.3208	1	514.2982	-70.34106	6.230013E-006	-0.0012833	8
	27	73	597.4265	188.2948	-597.8958	1	626.8447	-72.51926	-5.220915E-006	0.0016807	8
	28	75	477.4305	205.2025	-734.7856	1	762.901	-74.39662	2.86232E-007	0.0006476	8
	29	77	376.6741	227.4436	-913.7665	1	941.6474	-76.02267	2.85547E-007	0.0006348	8
	30	80	298.2954	254.4737	-1132.707	1	1160.94	-77.33817	2.702108E-007	0.0006428	8
	31	82	237.7717	286.6868	-1395.833	1	1424.969	-78.39356	2.801726E-007	0.0006492	8
	32	85	189.0121	326.8127	-1724.928	1	1755.615	-79.27165	2.98942E-007	0.0006438	8
	33	87	150.2404	376.265	-2131.579	1	2164.533	-79.98931	2.43695E-007	0.000701	8
	34	89	119.1737	438.3645	-2639.882	1	2676.031	-80.5718	2.833273E-007	0.0006435	8
	35	92	95.0169	513.3287	-3255.387	1	3295.611	-81.03905	2.881161E-007	0.0006358	8
	36	94	75.60484	606.6021	-4021.435	1	4066.928	-81.42205	3.020363E-007	0.0006357	8
	37	97	54.50582	785.8761	-5452.596	1	5508.938	-81.79851	2.353288E-008	0.0006068	7
	38	99	45.95588	899.6428	-6384.815	1	6447.885	-81.97962	3.106846E-008	0.0006178	7
	39	102	37.20238	1070.71	-7759.121	1	7832.648	-82.14317	2.776646E-008	0.000613	7
	40	104	30.04808	1289.603	-9461.498	1	9548.98	-82.23841	2.400727E-008	0.0006201	7
	41	106	23.91582	1567.449	-11661.62	1	11766.49	-82.3447	2.348955E-008	0.0006134	7
	42	109	18.60119	1962.627	-14725.14	1	14855.36	-82.40813	3.077654E-008	0.0006176	7
	43	111	15.02404	2385.031	-17919.05	1	18077.08	-82.41848	2.77191E-008	0.0006199	7
	44	113	12.01923	2924.94	-22002.45	1	22196.01	-82.42767	2.605237E-008	0.0006271	7
	45	116	9.450605	3667.367	-27459.34	1	27703.15	-82.39281	2.7709E-008	0.0006216	7
	46	118	7.512019	4556.433	-33950.61	1	34255	-82.35614	2.800758E-008	0.0006186	7
	47	121	5.978954	5660.317	-41888.51	1	42269.21	-82.30434	2.819251E-008	0.0006263	7
	48	125	4.734848	7164.188	-51978.79	1	52470.18	-82.15242	4.63467E-009	0.0006969	6
	49	128	3.75601	9101.496	-64281.57	1	64922.71	-81.94118	3.539632E-009	0.0006528	6
	50	134	3.004808	11464.46	-78867.88	1	79696.78	-81.72926	3.482395E-009	0.0007015	6
	51	140	2.372217	14698.75	-97948.8	1	99045.6	-81.46556	3.205368E-009	0.0007307	6
	52	144	1.878005	18953.53	-121115.2	1	122589.3	-81.10582	3.074434E-009	0.0006308	6
	53	149	1.512097	24166.54	-147315.3	1	149284.4	-80.68382	3.32163E-009	0.0007522	6
	54	154	1.201923	31026.76	-181340.1	1	183975.2	-80.29087	3.326814E-009	0.000629	6
	55	161	0.956633	39949.93	-222552.7	1	226110	-79.82335	2.588304E-009	2.24552E-005	6
