EXPLAIN
TAG	EISPOT
TITLE	LABEL	Potentiostatic EIS	Test Identifier
DATE	LABEL	9/15/2020	Date
TIME	LABEL	3:02:32	Time
NOTES	NOTES	1	Notes...
	
PSTAT	PSTAT	REF3000-16137	Potentiostat
VDC	POTEN	0.00000E+000	T	DC Voltage (V)
FREQINIT	QUANT	3.00000E+005	Initial Freq. (Hz)
FREQFINAL	QUANT	1.00000E+000	Final Freq. (Hz)
PTSPERDEC	QUANT	1.00000E+001	Points/decade
VAC	QUANT	5.00000E+001	AC Voltage (mV rms)
AREA	QUANT	1.00000E+000	Sample Area (cm^2)
SPEED	SELECTOR	2	Optimize for:
ZGUESS	QUANT	1.00000E+003	Estimated Z (ohms)
EOC	QUANT	0	Open Circuit (V)
SEQUENCER	TOGGLE	TRUE	Run as Sequence
PSTATMODEL	IQUANT	5	Pstat Model
PSTATSECTION	LABEL	REF3000-16137	Pstat Section
PSTATSERIALNO	LABEL	16137	Pstat Serial Number
CTRLMODE	IQUANT	1	Control Mode
IESTAB	IQUANT	0	I/E Stability
CASPEED	IQUANT	1	Control Amp Speed
CONVENTION	IQUANT	1	Current Convention
ICHRANGE	IQUANT	2	Ich Range
ICHRANGEMODE	TOGGLE	F	Ich Auto Range
ICHOFFSETENABLE	TOGGLE	T	Ich Offset Enable
ICHOFFSET	QUANT	0	Ich Offset (V)
ICHFILTER	IQUANT	3	Ich Filter
VCHRANGE	IQUANT	2	Vch Range
VCHRANGEMODE	TOGGLE	F	Vch Auto Range
VCHOFFSETENABLE	TOGGLE	T	Vch Offset Enable
VCHOFFSET	QUANT	0	Vch Offset (V)
VCHFILTER	IQUANT	3	Vch Filter
ACHRANGE	IQUANT	2	Ach Range
ACHOFFSETENABLE	TOGGLE	F	Ach Offset Enable
ACHOFFSET	QUANT	0	Ach Offset (V)
ACHFILTER	IQUANT	3	Ach Filter
IERANGELOWERLIMIT	IQUANT	2	I/E Range Lower Limit
IERANGEMODE	TOGGLE	F	I/E AutoRange
IERANGE	IQUANT	11	I/E Range
POSFEEDENABLE	TOGGLE	F	Positive Feedback IR Comp
POSFEEDRESISTANCE	QUANT	0	Positive Feedback Resistance (ohm)
ACHSELECT	IQUANT	0	Ach Select
CABLEID	IQUANT	13	Cable ID
DCCALDATE	LABEL	7/31/2020	DC Calibration Date
ACCALDATE	LABEL	7/31/2020	AC Calibration Date
THERMOSELECT	IQUANT	1	Thermo Select
FRAMEWORKVERSION	QUANT	6.33	Framework Version
INSTRUMENTVERSION	LABEL	3.50	Instrument Version
COMPLIANCEVOLTAGE	IQUANT	0	Compliance Voltage
ZCURVE	TABLE
	Pt	Time	Freq	Zreal	Zimag	Zsig	Zmod	Zphz	Idc	Vdc	IERange
	#	s	Hz	ohm	ohm	V	ohm	°	A	V	#
	0	6	300046.9	144.9589	-7.839325	1	145.1707	-3.09552	-8.435425E-005	0.0030301	9
	1	10	238359.4	146.077	-9.51376	1	146.3865	-3.726321	-8.603464E-005	0.0029627	9
	2	13	189328.1	147.3239	-10.98672	1	147.733	-4.264955	3.031982E-005	0.0004953	9
	3	17	150421.9	148.7243	-13.31692	1	149.3193	-5.116673	8.325042E-006	0.0011339	9
	4	20	119484.4	149.9851	-14.6891	1	150.7027	-5.593541	-8.48091E-005	0.0032221	9
	5	22	94921.88	152.0469	-16.79381	1	152.9715	-6.302859	-2.184838E-005	0.0006835	9
	6	25	75421.88	154.0451	-19.2739	1	155.2462	-7.131704	2.285342E-005	-0.0003399	9
	7	27	59859.37	156.4821	-22.2099	1	158.0504	-8.078177	-1.547725E-006	-0.0003319	9
	8	30	47578.12	158.9371	-25.18313	1	160.9198	-9.003505	2.102392E-005	-0.0001113	9
	9	32	37828.12	161.688	-28.61941	1	164.2014	-10.03761	2.183272E-005	-0.0002569	9
	10	35	30046.88	164.8212	-32.39509	1	167.9746	-11.11957	-7.760893E-006	0.0008639	9
	11	37	23859.38	167.9755	-36.8978	1	171.9803	-12.38893	2.460128E-005	-0.0003489	9
	12	40	18984.38	171.2171	-41.89666	1	176.2687	-13.75003	2.37808E-005	-0.0007559	9
	13	42	15046.87	174.8672	-48.16755	1	181.3798	-15.40034	-2.194103E-005	0.0005121	9
	14	44	11953.13	177.7186	-55.5273	1	186.1912	-17.35116	2.095728E-005	-0.0007744	9
	15	47	9515.62	181.0232	-65.00153	1	192.3398	-19.75212	2.331443E-005	-0.0002965	9
	16	49	7546.875	184.6181	-76.88028	1	199.986	-22.60825	-1.314815E-006	0.0006685	9
	17	51	5928.309	188.0924	-92.49803	1	209.6059	-26.18654	-2.170871E-005	0.0006765	9
	18	54	4733.456	191.7304	-110.5091	1	221.298	-29.95819	1.116464E-005	0.0002324	9
	19	56	3796.875	195.4979	-132.5599	1	236.2024	-34.13975	2.71435E-005	-0.0004859	9
	20	58	2987.132	199.7118	-163.1941	1	257.9091	-39.25389	1.372521E-005	-0.0007101	9
	21	62	2390.625	205.4419	-198.16	1	285.4362	-43.96637	-1.922601E-005	0.0004854	9
	22	64	1884.191	211.0718	-246.1582	1	324.261	-49.3881	-1.808302E-005	0.0003911	9
	23	66	1516.544	218.791	-297.9757	1	369.6742	-53.71173	2.577834E-005	-0.0004817	9
	24	69	1193.986	226.028	-371.056	1	434.4781	-58.65241	1.986115E-006	0.0005533	9
	25	71	946.5144	237.8857	-455.411	1	513.7985	-62.41951	-7.31702E-006	0.0020417	8
	26	74	751.7689	253.4872	-562.7229	1	617.1813	-65.75008	4.364354E-006	0.001037	8
	27	76	597.4265	268.9774	-693.0494	1	743.4153	-68.78841	-6.201501E-006	0.0014607	8
	28	78	477.4305	288.2337	-852.679	1	900.0778	-71.32304	1.603486E-007	0.0006542	8
	29	81	376.6741	314.165	-1060.374	1	1105.935	-73.49662	1.150584E-007	0.0006944	8
	30	83	298.2954	345.7484	-1314.375	1	1359.089	-75.26213	1.655751E-007	0.0006406	8
	31	85	237.7717	383.4421	-1619.616	1	1664.387	-76.68053	1.673074E-007	0.0006406	8
	32	88	189.0121	430.3132	-2001.084	1	2046.828	-77.86392	1.681903E-007	0.0006475	8
	33	90	150.2404	488.3045	-2472.81	1	2520.561	-78.82954	1.441196E-007	0.0006469	8
	34	93	119.1737	560.0109	-3061.926	1	3112.716	-79.63544	1.713602E-007	0.0006463	8
	35	95	95.0169	646.9739	-3774.504	1	3829.551	-80.27366	1.609249E-007	0.0006377	8
	36	97	75.60484	757.5221	-4671.594	1	4732.613	-80.78938	1.064607E-008	0.0006098	7
	37	100	54.50582	957.502	-6319.498	1	6391.624	-81.38433	7.213896E-009	0.0006115	7
	38	102	45.95588	1089.735	-7400.474	1	7480.277	-81.62328	1.233738E-008	0.0006357	7
	39	105	37.20238	1285.598	-8995.314	1	9086.718	-81.86644	1.235286E-008	0.0006131	7
	40	107	30.04808	1530.813	-10964.22	1	11070.57	-82.0518	1.151086E-008	0.000605	7
	41	110	23.91582	1848.58	-13526.34	1	13652.07	-82.21787	8.801488E-009	0.0006187	7
	42	112	18.60119	2291.442	-17072.94	1	17226.03	-82.35574	1.42134E-008	0.0006106	7
	43	114	15.02404	2773.397	-20794.63	1	20978.76	-82.40324	1.34816E-008	0.0006295	7
	44	117	12.01923	3392.018	-25544.31	1	25768.54	-82.43597	9.806978E-009	0.0006148	7
	45	119	9.450605	4231.892	-31876.26	1	32155.94	-82.43764	1.428611E-008	0.0006046	7
	46	122	7.512019	5184.77	-39396.73	1	39736.44	-82.50273	1.4066E-008	0.0006	7
	47	124	5.978954	6442.753	-48624.59	1	49049.56	-82.45228	1.980615E-009	0.0006638	6
	48	127	4.734848	7976.141	-60303.22	1	60828.43	-82.46538	1.110767E-009	0.0006477	6
	49	131	3.75601	9941.38	-74629.59	1	75288.82	-82.41232	1.866222E-009	0.0006868	6
	50	136	3.004808	12313	-91632.87	1	92456.44	-82.34683	1.340036E-009	0.0006958	6
	51	143	2.372217	15742.6	-113780.1	1	114864	-82.12258	1.025037E-009	0.0006287	6
	52	147	1.878005	19909.81	-141332.5	1	142728	-81.98138	1.782087E-009	0.0006567	6
	53	151	1.512097	24615.17	-172079.1	1	173830.8	-81.85931	1.12436E-009	0.0007283	6
	54	157	1.201923	31649.67	-212508.1	1	214852	-81.52898	1.634353E-009	0.0006711	6
	55	163	0.956633	40332.09	-261199.8	1	264295.3	-81.22223	9.956601E-010	2.086101E-005	6
