EXPLAIN
TAG	EISPOT
TITLE	LABEL	Potentiostatic EIS	Test Identifier
DATE	LABEL	9/15/2020	Date
TIME	LABEL	4:34:22	Time
NOTES	NOTES	1	Notes...
	
PSTAT	PSTAT	REF3000-16137	Potentiostat
VDC	POTEN	0.00000E+000	T	DC Voltage (V)
FREQINIT	QUANT	3.00000E+005	Initial Freq. (Hz)
FREQFINAL	QUANT	1.00000E+000	Final Freq. (Hz)
PTSPERDEC	QUANT	1.00000E+001	Points/decade
VAC	QUANT	5.00000E+001	AC Voltage (mV rms)
AREA	QUANT	1.00000E+000	Sample Area (cm^2)
SPEED	SELECTOR	2	Optimize for:
ZGUESS	QUANT	1.00000E+003	Estimated Z (ohms)
EOC	QUANT	0	Open Circuit (V)
SEQUENCER	TOGGLE	TRUE	Run as Sequence
PSTATMODEL	IQUANT	5	Pstat Model
PSTATSECTION	LABEL	REF3000-16137	Pstat Section
PSTATSERIALNO	LABEL	16137	Pstat Serial Number
CTRLMODE	IQUANT	1	Control Mode
IESTAB	IQUANT	0	I/E Stability
CASPEED	IQUANT	1	Control Amp Speed
CONVENTION	IQUANT	1	Current Convention
ICHRANGE	IQUANT	2	Ich Range
ICHRANGEMODE	TOGGLE	F	Ich Auto Range
ICHOFFSETENABLE	TOGGLE	T	Ich Offset Enable
ICHOFFSET	QUANT	0	Ich Offset (V)
ICHFILTER	IQUANT	3	Ich Filter
VCHRANGE	IQUANT	2	Vch Range
VCHRANGEMODE	TOGGLE	F	Vch Auto Range
VCHOFFSETENABLE	TOGGLE	T	Vch Offset Enable
VCHOFFSET	QUANT	0	Vch Offset (V)
VCHFILTER	IQUANT	3	Vch Filter
ACHRANGE	IQUANT	2	Ach Range
ACHOFFSETENABLE	TOGGLE	F	Ach Offset Enable
ACHOFFSET	QUANT	0	Ach Offset (V)
ACHFILTER	IQUANT	3	Ach Filter
IERANGELOWERLIMIT	IQUANT	2	I/E Range Lower Limit
IERANGEMODE	TOGGLE	F	I/E AutoRange
IERANGE	IQUANT	11	I/E Range
POSFEEDENABLE	TOGGLE	F	Positive Feedback IR Comp
POSFEEDRESISTANCE	QUANT	0	Positive Feedback Resistance (ohm)
ACHSELECT	IQUANT	0	Ach Select
CABLEID	IQUANT	13	Cable ID
DCCALDATE	LABEL	7/31/2020	DC Calibration Date
ACCALDATE	LABEL	7/31/2020	AC Calibration Date
THERMOSELECT	IQUANT	1	Thermo Select
FRAMEWORKVERSION	QUANT	6.33	Framework Version
INSTRUMENTVERSION	LABEL	3.50	Instrument Version
COMPLIANCEVOLTAGE	IQUANT	0	Compliance Voltage
ZCURVE	TABLE
	Pt	Time	Freq	Zreal	Zimag	Zsig	Zmod	Zphz	Idc	Vdc	IERange
	#	s	Hz	ohm	ohm	V	ohm	°	A	V	#
	0	19	300046.9	656.6149	-93.95837	1	663.3033	-8.143463	-6.009655E-005	0.0004799	9
	1	33	238359.4	662.052	-86.40487	1	667.6666	-7.435685	-8.775392E-005	0.003826	9
	2	49	189328.1	668.962	-78.2364	1	673.5214	-6.670549	2.107841E-005	-0.0003443	9
	3	58	150421.9	677.9027	-73.01892	1	681.8239	-6.147797	-1.183738E-005	0.0017346	9
	4	65	119484.4	688.7285	-45.70383	1	690.2433	-3.796566	-3.960478E-005	0.0052179	8
	5	70	94921.88	692.8261	-45.23656	1	694.3013	-3.7357	1.309012E-005	-0.0061551	8
	6	73	75421.88	695.845	-52.17339	1	697.7982	-4.287927	-6.157613E-006	0.0066072	8
	7	75	59859.37	701.4568	-56.53379	1	703.7313	-4.607784	7.289233E-006	0.0023226	8
	8	78	47578.12	707.098	-62.69723	1	709.8722	-5.067072	9.460691E-006	-0.0057346	8
	9	81	37828.12	715.6816	-73.37768	1	719.4334	-5.853989	-1.389888E-005	0.0028955	8
	10	83	30046.88	723.8227	-81.02267	1	728.3433	-6.386941	7.51357E-006	0.002331	8
	11	86	23859.38	731.6729	-89.08959	1	737.0767	-6.942247	-1.641937E-005	0.0044532	8
	12	89	18984.38	743.6043	-102.0271	1	750.571	-7.812556	-1.819373E-005	0.0059537	8
	13	92	15046.87	755.8329	-115.5003	1	764.6069	-8.688267	1.298261E-005	-0.0002192	8
	14	94	11953.13	771.0782	-128.7081	1	781.7464	-9.476423	-1.574705E-005	0.0075524	8
	15	96	9515.62	783.0465	-146.2949	1	796.5953	-10.58245	1.693267E-005	-0.0024019	8
	16	99	7546.875	798.2081	-166.2283	1	815.3331	-11.76381	1.456225E-005	-0.0061832	8
	17	102	5928.309	818.0393	-190.291	1	839.8804	-13.09517	1.304891E-005	-0.0001716	8
	18	104	4733.456	834.3953	-210.8774	1	860.6305	-14.18341	1.815263E-005	-0.0037025	8
	19	107	3796.875	848.6074	-243.025	1	882.7206	-15.9807	-1.728215E-005	0.0056407	8
	20	110	2987.132	865.5389	-284.7765	1	911.1834	-18.21205	4.25514E-006	-0.0046757	8
	21	112	2390.625	882.837	-330.2537	1	942.5861	-20.50993	1.387072E-005	-0.0060252	8
	22	115	1884.191	894.5331	-393.8827	1	977.411	-23.76495	-7.872523E-006	-0.0006286	8
	23	118	1516.544	916.8734	-464.5362	1	1027.838	-26.86917	-1.696428E-005	0.0067171	8
	24	121	1193.986	938.2351	-556.3959	1	1090.808	-30.66896	-1.724583E-005	0.0056224	8
	25	124	946.5144	954.491	-685.4775	1	1175.131	-35.68441	1.709658E-005	-0.0025613	8
	26	126	751.7689	980.4	-834.183	1	1287.263	-40.39311	1.821599E-005	-0.0038923	8
	27	129	597.4265	999.437	-1014.559	1	1424.15	-45.43019	-1.119737E-005	0.0073385	8
	28	132	477.4305	1032.99	-1243.344	1	1616.469	-50.27964	-1.515873E-007	0.0006372	8
	29	134	376.6741	1071.438	-1540.246	1	1876.256	-55.17645	-1.696068E-007	0.0006398	8
	30	136	298.2954	1117.429	-1904.726	1	2208.309	-59.60149	-1.584798E-007	0.0006531	8
	31	139	237.7717	1172.04	-2343.82	1	2620.528	-63.4324	-1.799531E-007	0.0006456	8
	32	141	189.0121	1239.994	-2894.153	1	3148.604	-66.8074	-1.355428E-007	0.00064	8
	33	143	150.2404	1322.923	-3575.112	1	3812.027	-69.69368	-1.67842E-007	0.0006451	8
	34	146	119.1737	1430.146	-4434.479	1	4659.39	-72.12518	-3.546423E-008	0.0006371	7
	35	148	95.0169	1555.238	-5467.247	1	5684.149	-74.12083	-4.272309E-008	0.0006745	7
	36	151	75.60484	1711.242	-6753.239	1	6966.677	-75.78078	-3.604493E-008	0.000627	7
	37	153	54.50582	2000.423	-9137.736	1	9354.139	-77.65168	-3.650342E-008	0.0006002	7
	38	156	45.95588	2190.459	-10704.46	1	10926.28	-78.43519	-3.870499E-008	0.0006375	7
	39	158	37.20238	2474.994	-13016.66	1	13249.87	-79.23426	-4.111288E-008	0.0006708	7
	40	161	30.04808	2823.468	-15856.12	1	16105.54	-79.90328	-3.631322E-008	0.0006285	7
	41	163	23.91582	3295.576	-19587.55	1	19862.86	-80.44952	-4.01816E-008	0.0006374	7
	42	165	18.60119	3922.278	-24701.58	1	25011.04	-80.97752	-3.697992E-008	0.0006022	7
	43	168	15.02404	4595.036	-30082.93	1	30431.84	-81.31544	-3.375741E-008	0.0006035	7
	44	170	12.01923	5474.848	-36964.15	1	37367.39	-81.57504	-3.787827E-008	0.0006302	7
	45	173	9.450605	6669.625	-46132.28	1	46611.92	-81.7734	-4.448079E-009	0.0006891	6
	46	175	7.512019	8034.804	-57033.14	1	57596.33	-81.98097	-3.848833E-009	0.0006843	6
	47	178	5.978954	9751.16	-70363.47	1	71035.93	-82.11005	-4.135624E-009	0.0006779	6
	48	181	4.734848	11909.29	-87233.8	1	88042.98	-82.22596	-3.529871E-009	0.0007206	6
	49	184	3.75601	14656.49	-107961.2	1	108951.5	-82.26896	-4.206971E-009	0.0006675	6
	50	190	3.004808	17931.53	-132547.8	1	133755.2	-82.2956	-4.037318E-009	0.0007188	6
	51	196	2.372217	22108.05	-164787.3	1	166263.8	-82.35876	-4.100825E-009	0.0007275	6
	52	200	1.878005	27442.49	-204174.7	1	206010.7	-82.34493	-4.104398E-009	0.000637	6
	53	205	1.512097	33633.92	-248709.6	1	250973.5	-82.2984	-3.808142E-009	0.0007226	6
	54	210	1.201923	41012.59	-307757.8	1	310478.4	-82.40934	-4.028426E-009	0.0006287	6
	55	217	0.956633	50339.68	-379763.6	1	383085.5	-82.44916	-4.260921E-009	1.892818E-005	6
