EXPLAIN
TAG	EISPOT
TITLE	LABEL	Potentiostatic EIS	Test Identifier
DATE	LABEL	9/15/2020	Date
TIME	LABEL	8:18:36	Time
NOTES	NOTES	1	Notes...
	
PSTAT	PSTAT	REF3000-16137	Potentiostat
VDC	POTEN	0.00000E+000	T	DC Voltage (V)
FREQINIT	QUANT	3.00000E+005	Initial Freq. (Hz)
FREQFINAL	QUANT	1.00000E+000	Final Freq. (Hz)
PTSPERDEC	QUANT	1.00000E+001	Points/decade
VAC	QUANT	5.00000E+001	AC Voltage (mV rms)
AREA	QUANT	1.00000E+000	Sample Area (cm^2)
SPEED	SELECTOR	2	Optimize for:
ZGUESS	QUANT	1.00000E+003	Estimated Z (ohms)
EOC	QUANT	0	Open Circuit (V)
SEQUENCER	TOGGLE	TRUE	Run as Sequence
PSTATMODEL	IQUANT	5	Pstat Model
PSTATSECTION	LABEL	REF3000-16137	Pstat Section
PSTATSERIALNO	LABEL	16137	Pstat Serial Number
CTRLMODE	IQUANT	1	Control Mode
IESTAB	IQUANT	0	I/E Stability
CASPEED	IQUANT	1	Control Amp Speed
CONVENTION	IQUANT	1	Current Convention
ICHRANGE	IQUANT	2	Ich Range
ICHRANGEMODE	TOGGLE	F	Ich Auto Range
ICHOFFSETENABLE	TOGGLE	T	Ich Offset Enable
ICHOFFSET	QUANT	0	Ich Offset (V)
ICHFILTER	IQUANT	3	Ich Filter
VCHRANGE	IQUANT	2	Vch Range
VCHRANGEMODE	TOGGLE	F	Vch Auto Range
VCHOFFSETENABLE	TOGGLE	T	Vch Offset Enable
VCHOFFSET	QUANT	0	Vch Offset (V)
VCHFILTER	IQUANT	3	Vch Filter
ACHRANGE	IQUANT	2	Ach Range
ACHOFFSETENABLE	TOGGLE	F	Ach Offset Enable
ACHOFFSET	QUANT	0	Ach Offset (V)
ACHFILTER	IQUANT	3	Ach Filter
IERANGELOWERLIMIT	IQUANT	2	I/E Range Lower Limit
IERANGEMODE	TOGGLE	F	I/E AutoRange
IERANGE	IQUANT	11	I/E Range
POSFEEDENABLE	TOGGLE	F	Positive Feedback IR Comp
POSFEEDRESISTANCE	QUANT	0	Positive Feedback Resistance (ohm)
ACHSELECT	IQUANT	0	Ach Select
CABLEID	IQUANT	13	Cable ID
DCCALDATE	LABEL	7/31/2020	DC Calibration Date
ACCALDATE	LABEL	7/31/2020	AC Calibration Date
THERMOSELECT	IQUANT	1	Thermo Select
FRAMEWORKVERSION	QUANT	6.33	Framework Version
INSTRUMENTVERSION	LABEL	3.50	Instrument Version
COMPLIANCEVOLTAGE	IQUANT	0	Compliance Voltage
ZCURVE	TABLE
	Pt	Time	Freq	Zreal	Zimag	Zsig	Zmod	Zphz	Idc	Vdc	IERange
	#	s	Hz	ohm	ohm	V	ohm	°	A	V	#
	0	19	300046.9	-41.76974	-4965.181	1	4965.356	-90.48199	2.161258E-005	-0.0022937	9
	1	34	238359.4	-32.83611	-6016.653	1	6016.743	-90.31269	2.182783E-005	-0.0004263	9
	2	58	189328.1	-150.1735	-7560.673	1	7562.165	-91.13789	7.826529E-005	-0.0015033	9
	3	69	150421.9	-197.8387	-9332.521	1	9334.618	-91.21442	3.02928E-007	-0.0018857	9
	4	77	119484.4	376.9014	-11662.49	1	11668.58	-88.14899	-4.130747E-005	0.0224984	8
	5	85	94921.88	691.1243	-14729.3	1	14745.51	-87.31355	-2.359832E-005	0.005163	8
	6	94	75421.88	1003.099	-18588.72	1	18615.76	-86.91116	-2.010197E-005	0.0027103	8
	7	102	59859.37	570.8415	-23287.37	1	23294.37	-88.59579	2.59983E-005	-0.0050978	8
	8	111	47578.12	4090.094	-30527.16	1	30799.94	-82.36884	-7.298399E-006	0.0235388	7
	9	118	37828.12	4301.045	-37956.12	1	38199.03	-83.53503	-7.311761E-006	0.0235595	7
	10	126	30046.88	4516.895	-47131.53	1	47347.48	-84.52573	7.733744E-006	-0.0244337	7
	11	133	23859.38	4961.733	-58842.97	1	59051.79	-85.18013	2.729731E-006	0.0086903	7
	12	139	18984.38	4802.112	-73304.85	1	73461.98	-86.25198	7.731605E-007	0.0155362	7
	13	144	15046.87	-5196.22	-90961.1	1	91109.4	-93.26951	1.649356E-005	-0.0092804	8
	14	152	11953.13	2999.35	-116589.6	1	116628.2	-88.52635	1.408393E-006	-0.0202006	7
	15	158	9515.62	3746.68	-145826.7	1	145874.8	-88.52824	6.625097E-006	-0.0100489	7
	16	163	7546.875	-1261.519	-183140.2	1	183144.5	-90.39466	-5.330724E-006	0.0263395	7
	17	170	5928.309	6370.28	-218656.2	1	218749	-88.33123	-6.583735E-006	0.0260065	7
	18	175	4733.456	-3246.041	-345576.7	1	345591.9	-90.53817	4.959456E-006	-0.0005944	7
	19	182	3796.875	-13912.09	-367656.6	1	367919.7	-92.16703	-1.846053E-006	0.0222275	7
	20	189	2987.132	104772.3	-213476.1	1	237801	-63.85857	-9.774343E-007	-0.0051046	8
	21	197	2390.625	52068.22	-573790.4	1	576148.1	-84.81493	1.926688E-007	-0.0213897	6
	22	202	1884.191	82574.2	-758176.9	1	762660.3	-83.78432	7.324966E-007	-0.0272709	6
	23	207	1516.544	34162.24	-877435.9	1	878100.7	-87.77036	-6.515343E-007	0.0099614	6
	24	214	1193.986	38468.49	-1103654	1	1104324	-88.00373	-2.17277E-007	0.0225376	6
	25	220	946.5144	-265946.7	-1603547	1	1625451	-99.4167	4.168155E-007	0.0022821	6
	26	223	751.7689	332059.9	-1573983	1	1608629	-78.08711	-1.890484E-008	0.0181449	6
	27	228	597.4265	203117.9	-1971622	1	1982057	-84.1181	-7.608726E-007	0.0234238	6
	28	232	477.4305	89577.52	-2859186	1	2860589	-88.20553	-8.91504E-009	0.000688	6
	29	237	376.6741	484003.6	-3734257	1	3765493	-82.61497	-8.550963E-010	0.0006788	5
	30	241	298.2954	503211.3	-4677471	1	4704462	-83.85963	-8.458407E-010	0.0006283	5
	31	245	237.7717	546322.4	-5674103	1	5700344	-84.50031	-8.549778E-010	0.0005939	5
	32	247	189.0121	582529.6	-7219144	1	7242608	-85.38667	-9.215735E-010	0.0007232	5
	33	250	150.2404	660809.8	-8884825	1	8909365	-85.74645	-8.757199E-010	0.0006875	5
	34	253	119.1737	3118216	-1.565989E+007	1	1.596733E+007	-78.73849	-8.014784E-010	0.0006415	5
	35	256	95.0169	614747.9	-1.383369E+007	1	1.384734E+007	-87.45554	-8.36771E-010	0.0006399	5
	36	258	75.60484	2008581	-1.738017E+007	1	1.749585E+007	-83.40772	-8.439549E-010	0.0006891	5
	37	261	54.50582	2231106	-2.363505E+007	1	2.374012E+007	-84.60736	-8.240373E-010	0.0006365	5
	38	265	45.95588	2968235	-3.130636E+007	1	3.144676E+007	-84.58383	-9.171591E-010	0.0006663	5
	39	268	37.20238	4629567	-3.660679E+007	1	3.689838E+007	-82.79221	-8.68325E-010	0.0005881	5
	40	272	30.04808	5575999	-4.444756E+007	1	4.479596E+007	-82.84953	-9.478594E-011	0.0006893	4
	41	276	23.91582	1118194	-4.989932E+007	1	4.991185E+007	-88.71627	3.307496E-012	0.0006108	4
	42	280	18.60119	3.995125E+007	-1.528543E+008	1	1.57989E+008	-75.35238	1.540908E-010	0.0006824	4
	43	283	15.02404	6519083	-8.995424E+007	1	9.019015E+007	-85.85496	-8.231273E-011	0.0006067	4
	44	287	12.01923	1.254118E+007	-1.071618E+008	1	1.078931E+008	-83.32502	-7.153059E-011	0.0007025	4
	45	291	9.450605	1.211532E+007	-1.437708E+008	1	1.442804E+008	-85.18317	-7.138869E-011	0.0005917	4
	46	295	7.512019	1.575387E+007	-1.79639E+008	1	1.803285E+008	-84.98814	-7.169686E-011	0.000592	4
	47	299	5.978954	2.226743E+007	-2.068746E+008	1	2.080696E+008	-83.85649	-7.18389E-011	0.0006885	4
	48	305	4.734848	5.793364E+007	-2.90496E+008	1	2.962166E+008	-78.72147	-6.765322E-012	0.0006636	3
	49	310	3.75601	5.567402E+007	-3.429735E+008	1	3.474628E+008	-80.77975	-8.116125E-010	0.000601	5
	50	318	3.004808	3.271551E+007	-4.388433E+008	1	4.400611E+008	-85.73652	-9.035648E-010	0.0006933	5
	51	327	2.372217	1.021449E+008	-5.520694E+008	1	5.614394E+008	-79.51757	-7.195351E-012	0.000783	3
	52	334	1.878005	1.294759E+008	-6.892569E+008	1	7.013124E+008	-79.36105	-6.985808E-012	0.0007072	3
	53	343	1.512097	1.645199E+008	-8.424963E+008	1	8.584095E+008	-78.95052	-6.888196E-012	0.0006591	3
	54	349	1.201923	2.283751E+008	-1.049856E+009	1	1.074408E+009	-77.72764	-6.767271E-012	0.0007067	3
	55	361	0.956633	3.117016E+008	-1.293027E+009	1	1.330067E+009	-76.44667	-6.74549E-012	8.196594E-005	3
