EXPLAIN
TAG	EISPOT
TITLE	LABEL	Potentiostatic EIS	Test Identifier
DATE	LABEL	9/15/2020	Date
TIME	LABEL	2:59:41	Time
NOTES	NOTES	1	Notes...
	
PSTAT	PSTAT	REF3000-16137	Potentiostat
VDC	POTEN	0.00000E+000	T	DC Voltage (V)
FREQINIT	QUANT	3.00000E+005	Initial Freq. (Hz)
FREQFINAL	QUANT	1.00000E+000	Final Freq. (Hz)
PTSPERDEC	QUANT	1.00000E+001	Points/decade
VAC	QUANT	5.00000E+001	AC Voltage (mV rms)
AREA	QUANT	1.00000E+000	Sample Area (cm^2)
SPEED	SELECTOR	2	Optimize for:
ZGUESS	QUANT	1.00000E+003	Estimated Z (ohms)
EOC	QUANT	0	Open Circuit (V)
SEQUENCER	TOGGLE	TRUE	Run as Sequence
PSTATMODEL	IQUANT	5	Pstat Model
PSTATSECTION	LABEL	REF3000-16137	Pstat Section
PSTATSERIALNO	LABEL	16137	Pstat Serial Number
CTRLMODE	IQUANT	1	Control Mode
IESTAB	IQUANT	0	I/E Stability
CASPEED	IQUANT	1	Control Amp Speed
CONVENTION	IQUANT	1	Current Convention
ICHRANGE	IQUANT	2	Ich Range
ICHRANGEMODE	TOGGLE	F	Ich Auto Range
ICHOFFSETENABLE	TOGGLE	T	Ich Offset Enable
ICHOFFSET	QUANT	0	Ich Offset (V)
ICHFILTER	IQUANT	3	Ich Filter
VCHRANGE	IQUANT	2	Vch Range
VCHRANGEMODE	TOGGLE	F	Vch Auto Range
VCHOFFSETENABLE	TOGGLE	T	Vch Offset Enable
VCHOFFSET	QUANT	0	Vch Offset (V)
VCHFILTER	IQUANT	3	Vch Filter
ACHRANGE	IQUANT	2	Ach Range
ACHOFFSETENABLE	TOGGLE	F	Ach Offset Enable
ACHOFFSET	QUANT	0	Ach Offset (V)
ACHFILTER	IQUANT	3	Ach Filter
IERANGELOWERLIMIT	IQUANT	2	I/E Range Lower Limit
IERANGEMODE	TOGGLE	F	I/E AutoRange
IERANGE	IQUANT	11	I/E Range
POSFEEDENABLE	TOGGLE	F	Positive Feedback IR Comp
POSFEEDRESISTANCE	QUANT	0	Positive Feedback Resistance (ohm)
ACHSELECT	IQUANT	0	Ach Select
CABLEID	IQUANT	13	Cable ID
DCCALDATE	LABEL	7/31/2020	DC Calibration Date
ACCALDATE	LABEL	7/31/2020	AC Calibration Date
THERMOSELECT	IQUANT	1	Thermo Select
FRAMEWORKVERSION	QUANT	6.33	Framework Version
INSTRUMENTVERSION	LABEL	3.50	Instrument Version
COMPLIANCEVOLTAGE	IQUANT	0	Compliance Voltage
ZCURVE	TABLE
	Pt	Time	Freq	Zreal	Zimag	Zsig	Zmod	Zphz	Idc	Vdc	IERange
	#	s	Hz	ohm	ohm	V	ohm	°	A	V	#
	0	7	300046.9	139.917	-7.819075	1	140.1353	-3.198571	2.909454E-005	0.0001689	9
	1	10	238359.4	141.2728	-9.183306	1	141.5709	-3.719227	-1.5048E-005	0.0007485	9
	2	13	189328.1	142.5164	-10.78232	1	142.9237	-4.326569	-7.033121E-006	-0.0012942	9
	3	17	150421.9	143.9371	-12.40274	1	144.4705	-4.924884	2.90234E-005	0.000555	9
	4	19	119484.4	145.3167	-14.56189	1	146.0445	-5.72239	1.694813E-005	-0.0011956	9
	5	22	94921.88	147.1181	-16.40627	1	148.03	-6.363202	-1.677368E-005	0.0009304	9
	6	24	75421.88	149.0526	-18.96704	1	150.2545	-7.25195	2.46016E-005	-0.0007545	9
	7	27	59859.37	151.3784	-21.63759	1	152.917	-8.13459	-1.787316E-006	-0.0003576	9
	8	29	47578.12	153.9335	-24.72708	1	155.9069	-9.125737	2.6656E-005	-0.0006718	9
	9	32	37828.12	156.6017	-27.99209	1	159.0838	-10.13442	-6.166375E-006	0.0008084	9
	10	34	30046.88	159.6922	-31.7433	1	162.8166	-11.24259	-1.385587E-005	0.0007688	9
	11	37	23859.38	162.601	-36.04239	1	166.5477	-12.4982	-2.146208E-005	0.0006842	9
	12	39	18984.38	165.7603	-41.0463	1	170.7668	-13.90807	-1.852584E-005	0.0004077	9
	13	41	15046.87	168.9248	-47.14695	1	175.3808	-15.59443	-1.538133E-005	0.0001782	9
	14	44	11953.13	172.2108	-54.64567	1	180.6729	-17.6052	2.564651E-005	-0.0007412	9
	15	46	9515.62	175.2386	-63.96829	1	186.549	-20.05387	-5.716801E-006	0.0007833	9
	16	48	7546.875	178.4458	-75.61652	1	193.806	-22.96483	1.347125E-005	-0.0007026	9
	17	51	5928.309	181.7969	-91.10542	1	203.3477	-26.61721	-1.767403E-005	0.0003549	9
	18	53	4733.456	185.3832	-109.1029	1	215.1055	-30.47793	-1.89037E-005	0.0004112	9
	19	55	3796.875	188.9094	-131.2888	1	230.0511	-34.79864	-4.359724E-006	0.0006038	9
	20	58	2987.132	193.5635	-161.5161	1	252.0998	-39.84279	-1.456569E-005	0.0001418	9
	21	60	2390.625	198.8719	-196.0656	1	279.2701	-44.59288	1.953916E-005	-0.0007757	9
	22	62	1884.191	205.794	-242.8811	1	318.3432	-49.72527	-1.342294E-005	0.0008747	9
	23	65	1516.544	211.9473	-294.4822	1	362.8242	-54.25635	2.090177E-005	-0.0007846	9
	24	67	1193.986	220.9855	-366.0429	1	427.5769	-58.88	2.03105E-005	-0.0000986	9
	25	69	946.5144	231.3595	-451.0737	1	506.9465	-62.84633	-5.810468E-006	0.0034584	8
	26	72	751.7689	244.0742	-557.1979	1	608.3105	-66.34473	-4.301477E-006	0.0034266	8
	27	74	597.4265	262.0178	-687.3026	1	735.5529	-69.13184	1.340519E-006	-0.0014228	8
	28	76	477.4305	281.0728	-844.1962	1	889.7579	-71.58496	1.601229E-007	0.0006465	8
	29	79	376.6741	306.8109	-1049.812	1	1093.727	-73.70883	1.699238E-007	0.0006357	8
	30	81	298.2954	338.0677	-1301.273	1	1344.471	-75.43665	1.628061E-007	0.0006457	8
	31	83	237.7717	375.3877	-1603.6	1	1646.952	-76.82484	1.537596E-007	0.0006616	8
	32	86	189.0121	421.8841	-1981.177	1	2025.598	-77.97865	1.715105E-007	0.0006451	8
	33	88	150.2404	479.0618	-2448.047	1	2494.481	-78.92764	1.584804E-007	0.0006465	8
	34	91	119.1737	550.6075	-3032.118	1	3081.705	-79.70771	1.623834E-007	0.0006476	8
	35	93	95.0169	636.0022	-3736.946	1	3790.681	-80.3412	1.635781E-007	0.0006476	8
	36	95	75.60484	745.5018	-4625.297	1	4684.992	-80.84386	1.133592E-008	0.0006208	7
	37	98	54.50582	943.1627	-6258.806	1	6329.472	-81.43037	1.007725E-008	0.0006116	7
	38	101	45.95588	1075.224	-7329.101	1	7407.552	-81.65389	1.294676E-008	0.0006225	7
	39	103	37.20238	1268.804	-8904.701	1	8994.641	-81.89069	1.335681E-008	0.00062	7
	40	105	30.04808	1508.87	-10848.9	1	10953.33	-82.08208	9.941765E-009	0.0006199	7
	41	108	23.91582	1833.528	-13409.09	1	13533.86	-82.21379	8.949932E-009	0.0006248	7
	42	110	18.60119	2260.411	-16911.21	1	17061.61	-82.38677	1.060388E-008	0.0006184	7
	43	112	15.02404	2744.4	-20584	1	20766.14	-82.40572	1.045805E-008	0.0006595	7
	44	115	12.01923	3348.896	-25289.95	1	25510.71	-82.45678	1.241906E-008	0.0006285	7
	45	117	9.450605	4162.287	-31553.5	1	31826.84	-82.48538	1.345571E-008	0.0006021	7
	46	120	7.512019	5131.701	-38993.28	1	39329.51	-82.50269	1.506291E-008	0.0006007	7
	47	122	5.978954	6385.977	-48138.54	1	48560.27	-82.44336	2.216459E-009	0.0006654	6
	48	125	4.734848	7916.713	-59733.34	1	60255.68	-82.45035	1.508293E-009	0.0006573	6
	49	129	3.75601	9871.38	-73898.33	1	74554.73	-82.39144	2.348794E-009	0.0006752	6
	50	134	3.004808	12234.57	-90736.35	1	91557.47	-82.32076	1.72395E-009	0.0006875	6
	51	141	2.372217	15547.88	-112614.2	1	113682.4	-82.13925	1.099303E-009	0.0006636	6
	52	145	1.878005	19833.21	-139867.3	1	141266.5	-81.92926	1.801705E-009	0.000654	6
	53	150	1.512097	24609.33	-170444.8	1	172212.2	-81.78424	1.294127E-009	0.00075	6
	54	155	1.201923	31617.73	-210284.3	1	212648	-81.44923	1.77067E-009	0.0006655	6
	55	161	0.956633	40188.53	-258398.5	1	261505	-81.15965	1.120731E-009	3.247803E-005	6
