EXPLAIN
TAG	EISPOT
TITLE	LABEL	Potentiostatic EIS	Test Identifier
DATE	LABEL	9/15/2020	Date
TIME	LABEL	9:38:43	Time
NOTES	NOTES	1	Notes...
	
PSTAT	PSTAT	REF3000-16137	Potentiostat
VDC	POTEN	0.00000E+000	T	DC Voltage (V)
FREQINIT	QUANT	3.00000E+005	Initial Freq. (Hz)
FREQFINAL	QUANT	1.00000E+000	Final Freq. (Hz)
PTSPERDEC	QUANT	1.00000E+001	Points/decade
VAC	QUANT	5.00000E+001	AC Voltage (mV rms)
AREA	QUANT	1.00000E+000	Sample Area (cm^2)
SPEED	SELECTOR	2	Optimize for:
ZGUESS	QUANT	1.00000E+003	Estimated Z (ohms)
EOC	QUANT	0	Open Circuit (V)
SEQUENCER	TOGGLE	TRUE	Run as Sequence
PSTATMODEL	IQUANT	5	Pstat Model
PSTATSECTION	LABEL	REF3000-16137	Pstat Section
PSTATSERIALNO	LABEL	16137	Pstat Serial Number
CTRLMODE	IQUANT	1	Control Mode
IESTAB	IQUANT	0	I/E Stability
CASPEED	IQUANT	1	Control Amp Speed
CONVENTION	IQUANT	1	Current Convention
ICHRANGE	IQUANT	2	Ich Range
ICHRANGEMODE	TOGGLE	F	Ich Auto Range
ICHOFFSETENABLE	TOGGLE	T	Ich Offset Enable
ICHOFFSET	QUANT	0	Ich Offset (V)
ICHFILTER	IQUANT	3	Ich Filter
VCHRANGE	IQUANT	2	Vch Range
VCHRANGEMODE	TOGGLE	F	Vch Auto Range
VCHOFFSETENABLE	TOGGLE	T	Vch Offset Enable
VCHOFFSET	QUANT	0	Vch Offset (V)
VCHFILTER	IQUANT	3	Vch Filter
ACHRANGE	IQUANT	2	Ach Range
ACHOFFSETENABLE	TOGGLE	F	Ach Offset Enable
ACHOFFSET	QUANT	0	Ach Offset (V)
ACHFILTER	IQUANT	3	Ach Filter
IERANGELOWERLIMIT	IQUANT	2	I/E Range Lower Limit
IERANGEMODE	TOGGLE	F	I/E AutoRange
IERANGE	IQUANT	11	I/E Range
POSFEEDENABLE	TOGGLE	F	Positive Feedback IR Comp
POSFEEDRESISTANCE	QUANT	0	Positive Feedback Resistance (ohm)
ACHSELECT	IQUANT	0	Ach Select
CABLEID	IQUANT	13	Cable ID
DCCALDATE	LABEL	7/31/2020	DC Calibration Date
ACCALDATE	LABEL	7/31/2020	AC Calibration Date
THERMOSELECT	IQUANT	1	Thermo Select
FRAMEWORKVERSION	QUANT	6.33	Framework Version
INSTRUMENTVERSION	LABEL	3.50	Instrument Version
COMPLIANCEVOLTAGE	IQUANT	0	Compliance Voltage
ZCURVE	TABLE
	Pt	Time	Freq	Zreal	Zimag	Zsig	Zmod	Zphz	Idc	Vdc	IERange
	#	s	Hz	ohm	ohm	V	ohm	°	A	V	#
	0	17	300046.9	997.962	-213.8426	1	1020.616	-12.0944	1.71883E-005	-0.00225	9
	1	41	238359.4	786.1368	-114.0461	1	794.3662	-8.254404	2.036939E-005	-0.0004156	9
	2	60	189328.1	670.7281	-77.31919	1	675.1699	-6.575832	-9.030089E-005	0.002216	9
	3	72	150421.9	612.1578	-58.64542	1	614.9606	-5.472301	7.593755E-005	-0.0015058	9
	4	79	119484.4	588.5068	-34.87875	1	589.5394	-3.391754	7.067175E-006	-0.0071745	8
	5	83	94921.88	571.3929	-34.77748	1	572.4503	-3.482976	-1.548836E-005	0.0041236	8
	6	86	75421.88	557.5367	-37.11191	1	558.7704	-3.808222	-7.407524E-006	-0.0004707	8
	7	88	59859.37	547.0928	-41.38733	1	548.6561	-4.326159	-1.396294E-005	0.0066957	8
	8	91	47578.12	534.7722	-48.3011	1	536.949	-5.161002	-1.255896E-005	0.0016766	8
	9	93	37828.12	527.2749	-54.01432	1	530.0343	-5.849007	1.233261E-005	-0.0054012	8
	10	96	30046.88	519.1381	-59.3614	1	522.5209	-6.523215	-1.120743E-005	0.0015302	8
	11	98	23859.38	513.4497	-66.87646	1	517.7867	-7.420958	-1.331606E-005	0.0027454	8
	12	101	18984.38	508.0781	-74.76544	1	513.5496	-8.371193	-1.12485E-005	0.0016302	8
	13	103	15046.87	504.3471	-83.71396	1	511.2476	-9.424306	-9.162496E-006	0.0063948	8
	14	106	11953.13	501.8676	-93.26962	1	510.4609	-10.52803	-9.705093E-006	0.0063291	8
	15	108	9515.62	499.636	-104.5163	1	510.4506	-11.81504	-1.412679E-005	0.0040037	8
	16	110	7546.875	497.5009	-114.6624	1	510.5434	-12.97871	-2.637716E-006	-0.0018075	8
	17	113	5928.309	496.2098	-133.544	1	513.8659	-15.063	-4.257625E-006	0.0052183	8
	18	115	4733.456	492.8757	-153.3881	1	516.1922	-17.28669	1.088549E-005	-0.004757	8
	19	117	3796.875	490.0359	-178.3539	1	521.4837	-19.99953	9.169532E-006	-0.0038881	8
	20	120	2987.132	484.9431	-211.7629	1	529.1628	-23.58973	-8.591597E-006	0.0059244	8
	21	122	2390.625	482.9186	-249.3992	1	543.5167	-27.31371	-1.353397E-005	0.0047323	8
	22	124	1884.191	483.5619	-303.4041	1	570.8644	-32.10563	-2.425375E-006	-0.0016869	8
	23	127	1516.544	481.472	-362.4726	1	602.6622	-36.97399	1.039192E-005	-0.0044958	8
	24	129	1193.986	483.8225	-443.9859	1	656.6641	-42.54144	-3.847121E-006	0.00487	8
	25	132	946.5144	487.4487	-544.1241	1	730.5322	-48.14471	1.382594E-005	-0.0038578	8
	26	134	751.7689	493.3275	-665.0713	1	828.0651	-53.43322	1.366266E-005	-0.003789	8
	27	137	597.4265	501.976	-813.2067	1	955.659	-58.31381	9.828563E-006	-0.0042888	8
	28	139	477.4305	516.8674	-996.309	1	1122.401	-62.58051	3.930038E-009	0.0006405	8
	29	141	376.6741	538.4043	-1232.078	1	1344.58	-66.39521	-2.703969E-008	0.0006596	8
	30	144	298.2954	566.6739	-1519.185	1	1621.432	-69.54389	1.16897E-008	0.0006382	8
	31	146	237.7717	601.7846	-1862.183	1	1957.005	-72.0912	1.369261E-008	0.0006417	8
	32	149	189.0121	647.7659	-2288.885	1	2378.781	-74.19822	2.001824E-008	0.0006332	8
	33	151	150.2404	706.5693	-2814.054	1	2901.403	-75.90521	1.163927E-009	0.0006432	8
	34	153	119.1737	782.5854	-3465.736	1	3552.994	-77.27564	3.492899E-009	0.0006572	8
	35	156	95.0169	877.9658	-4258.099	1	4347.67	-78.34961	-8.243378E-009	0.0006236	7
	36	158	75.60484	994.36	-5228.508	1	5322.222	-79.23206	-7.722764E-009	0.0006212	7
	37	161	54.50582	1218.773	-7026.878	1	7131.79	-80.16026	-1.043417E-008	0.0006288	7
	38	163	45.95588	1358.726	-8183.996	1	8296.019	-80.5736	-4.994529E-009	0.0006153	7
	39	166	37.20238	1571.058	-9892.68	1	10016.65	-80.9762	-7.745514E-009	0.0006288	7
	40	168	30.04808	1834.029	-11982.77	1	12122.31	-81.2981	-8.164377E-009	0.000623	7
	41	170	23.91582	2177.229	-14712.08	1	14872.32	-81.58195	-2.187994E-009	0.0005991	7
	42	173	18.60119	2659.66	-18457.8	1	18648.44	-81.80045	-3.384912E-009	0.0006181	7
	43	175	15.02404	3183.844	-22364.45	1	22589.94	-81.89771	-5.358503E-010	0.000622	7
	44	177	12.01923	3852.522	-27329.75	1	27599.95	-81.9762	-1.045001E-009	0.0006049	7
	45	180	9.450605	4739.868	-33904.96	1	34234.67	-82.0417	-3.980291E-009	0.0006224	7
	46	182	7.512019	5830.021	-41630.55	1	42036.79	-82.02804	2.461116E-009	0.0005987	7
	47	185	5.978954	7175.944	-50933.64	1	51436.66	-81.98049	7.08472E-010	0.0006577	6
	48	190	4.734848	8803.26	-62640.07	1	63255.64	-82.00021	1.000815E-009	0.0006761	6
	49	193	3.75601	10815.62	-76731.8	1	77490.3	-81.97681	5.51708E-010	0.0006419	6
	50	198	3.004808	13203.2	-93064.3	1	93996.22	-81.92523	9.594037E-010	0.0006503	6
	51	205	2.372217	16693.14	-114316.1	1	115528.5	-81.69204	9.885015E-010	0.0006948	6
	52	209	1.878005	21079.36	-140791.1	1	142360.4	-81.48488	3.175974E-010	0.000656	6
	53	214	1.512097	26270.58	-169704.8	1	171726.1	-81.20036	1.116385E-009	0.0006156	6
	54	219	1.201923	34244.31	-207268.5	1	210078.3	-80.6185	8.336122E-010	0.0006403	6
	55	225	0.956633	44781.52	-251558.6	1	255513.4	-79.90616	7.603828E-010	3.2144E-005	6
