EXPLAIN
TAG	EISPOT
TITLE	LABEL	Potentiostatic EIS	Test Identifier
DATE	LABEL	9/15/2020	Date
TIME	LABEL	1:22:51	Time
NOTES	NOTES	1	Notes...
	
PSTAT	PSTAT	REF3000-16137	Potentiostat
VDC	POTEN	0.00000E+000	T	DC Voltage (V)
FREQINIT	QUANT	3.00000E+005	Initial Freq. (Hz)
FREQFINAL	QUANT	1.00000E+000	Final Freq. (Hz)
PTSPERDEC	QUANT	1.00000E+001	Points/decade
VAC	QUANT	5.00000E+001	AC Voltage (mV rms)
AREA	QUANT	1.00000E+000	Sample Area (cm^2)
SPEED	SELECTOR	2	Optimize for:
ZGUESS	QUANT	1.00000E+003	Estimated Z (ohms)
EOC	QUANT	0	Open Circuit (V)
SEQUENCER	TOGGLE	TRUE	Run as Sequence
PSTATMODEL	IQUANT	5	Pstat Model
PSTATSECTION	LABEL	REF3000-16137	Pstat Section
PSTATSERIALNO	LABEL	16137	Pstat Serial Number
CTRLMODE	IQUANT	1	Control Mode
IESTAB	IQUANT	0	I/E Stability
CASPEED	IQUANT	1	Control Amp Speed
CONVENTION	IQUANT	1	Current Convention
ICHRANGE	IQUANT	2	Ich Range
ICHRANGEMODE	TOGGLE	F	Ich Auto Range
ICHOFFSETENABLE	TOGGLE	T	Ich Offset Enable
ICHOFFSET	QUANT	0	Ich Offset (V)
ICHFILTER	IQUANT	3	Ich Filter
VCHRANGE	IQUANT	2	Vch Range
VCHRANGEMODE	TOGGLE	F	Vch Auto Range
VCHOFFSETENABLE	TOGGLE	T	Vch Offset Enable
VCHOFFSET	QUANT	0	Vch Offset (V)
VCHFILTER	IQUANT	3	Vch Filter
ACHRANGE	IQUANT	2	Ach Range
ACHOFFSETENABLE	TOGGLE	F	Ach Offset Enable
ACHOFFSET	QUANT	0	Ach Offset (V)
ACHFILTER	IQUANT	3	Ach Filter
IERANGELOWERLIMIT	IQUANT	2	I/E Range Lower Limit
IERANGEMODE	TOGGLE	F	I/E AutoRange
IERANGE	IQUANT	11	I/E Range
POSFEEDENABLE	TOGGLE	F	Positive Feedback IR Comp
POSFEEDRESISTANCE	QUANT	0	Positive Feedback Resistance (ohm)
ACHSELECT	IQUANT	0	Ach Select
CABLEID	IQUANT	13	Cable ID
DCCALDATE	LABEL	7/31/2020	DC Calibration Date
ACCALDATE	LABEL	7/31/2020	AC Calibration Date
THERMOSELECT	IQUANT	1	Thermo Select
FRAMEWORKVERSION	QUANT	6.33	Framework Version
INSTRUMENTVERSION	LABEL	3.50	Instrument Version
COMPLIANCEVOLTAGE	IQUANT	0	Compliance Voltage
ZCURVE	TABLE
	Pt	Time	Freq	Zreal	Zimag	Zsig	Zmod	Zphz	Idc	Vdc	IERange
	#	s	Hz	ohm	ohm	V	ohm	°	A	V	#
	0	6	300046.9	60.22221	-2.455966	1	60.27227	-2.335327	4.642344E-005	-0.000967	9
	1	10	238359.4	60.86779	-3.696361	1	60.97992	-3.475173	-3.148898E-005	-0.000427	9
	2	13	189328.1	61.55525	-5.009151	1	61.75873	-4.652279	-1.286869E-005	-0.0008746	9
	3	15	150421.9	62.42047	-6.3245	1	62.74005	-5.785518	5.831884E-005	-0.0019089	9
	4	18	119484.4	63.2633	-7.667146	1	63.72622	-6.910215	1.135035E-005	-0.0009635	9
	5	20	94921.88	64.32967	-8.828683	1	64.93268	-7.814524	-1.427958E-005	0.0005289	9
	6	23	75421.88	65.34805	-10.41433	1	66.1727	-9.054918	-7.282579E-007	-0.0002353	9
	7	25	59859.37	66.4594	-12.0969	1	67.55136	-10.31601	1.035603E-005	-0.0005407	9
	8	28	47578.12	67.65031	-14.00221	1	69.0842	-11.69391	-2.958117E-006	0.000599	9
	9	30	37828.12	68.91361	-16.19999	1	70.79213	-13.22872	1.017261E-005	-0.0005178	9
	10	33	30046.88	70.20585	-18.72298	1	72.65955	-14.9325	2.127847E-005	-0.0005346	9
	11	35	23859.38	71.49345	-21.80983	1	74.74611	-16.96488	1.625899E-005	-0.0005877	9
	12	38	18984.38	72.78446	-25.54668	1	77.13761	-19.34061	-3.145289E-006	0.0006042	9
	13	40	15046.87	74.15029	-30.26536	1	80.08906	-22.20343	2.119312E-005	-0.0002677	9
	14	42	11953.13	75.51304	-36.14811	1	83.7192	-25.58045	1.913922E-005	-0.0005791	9
	15	45	9515.62	76.90215	-43.40876	1	88.30776	-29.44332	-1.642921E-005	0.0007244	9
	16	47	7546.875	78.50266	-52.72345	1	94.56442	-33.88584	-9.235891E-006	4.4919E-005	9
	17	49	5928.309	80.46458	-64.80378	1	103.3154	-38.84694	-1.618212E-005	0.0006754	9
	18	52	4733.456	82.49223	-78.98803	1	114.2107	-43.75685	2.187299E-005	-0.00041	9
	19	54	3796.875	84.88617	-96.0382	1	128.1757	-48.52721	-1.357546E-005	0.0002095	9
	20	56	2987.132	88.23714	-118.8498	1	148.0239	-53.40886	-1.279912E-005	0.0002157	9
	21	59	2390.625	91.60997	-145.6281	1	172.0463	-57.82732	-1.33836E-005	0.0002113	9
	22	61	1884.191	96.2931	-180.7538	1	204.8031	-61.9544	1.813321E-005	-0.0001598	9
	23	63	1516.544	101.9646	-219.727	1	242.2328	-65.10628	-1.318174E-005	0.0002046	9
	24	66	1193.986	108.6435	-273.4502	1	294.2421	-68.33176	-1.432767E-005	0.0007552	9
	25	68	946.5144	117.5426	-337.9423	1	357.8006	-70.82138	1.523345E-005	-0.0005737	9
	26	70	751.7689	128.5488	-417.1409	1	436.4989	-72.87246	4.498181E-006	-0.0003859	9
	27	73	597.4265	139.4242	-513.4248	1	532.0189	-74.8073	4.018766E-006	0.000155	8
	28	75	477.4305	154.3304	-630.7666	1	649.3723	-76.25147	3.870745E-007	0.0006479	8
	29	77	376.6741	173.7617	-784.2551	1	803.274	-77.50721	3.732998E-007	0.0006534	8
	30	80	298.2954	197.3284	-971.951	1	991.78	-78.52362	3.892715E-007	0.0006475	8
	31	82	237.7717	225.5624	-1197.492	1	1218.551	-79.33263	3.84255E-007	0.0006492	8
	32	85	189.0121	260.7299	-1479.407	1	1502.206	-80.00486	3.839156E-007	0.0006428	8
	33	87	150.2404	304.4034	-1827.93	1	1853.103	-80.54535	3.764779E-007	0.0006518	8
	34	89	119.1737	359.5144	-2263.305	1	2291.68	-80.97427	3.892952E-007	0.0006515	8
	35	92	95.0169	425.1475	-2789.233	1	2821.448	-81.33343	3.912064E-007	0.0006525	8
	36	94	75.60484	508.7331	-3444.936	1	3482.297	-81.59953	3.908659E-007	0.0006503	8
	37	97	54.50582	668.8629	-4659.069	1	4706.835	-81.83035	4.004923E-007	0.0006497	8
	38	99	45.95588	774.3091	-5467.364	1	5521.922	-81.93916	4.363301E-008	0.0006273	7
	39	102	37.20238	929.7216	-6641.736	1	6706.492	-82.03142	3.964088E-008	0.0006291	7
	40	104	30.04808	1128.776	-8092.371	1	8170.716	-82.05925	3.649659E-008	0.0006196	7
	41	107	23.91582	1391.292	-9993.34	1	10089.72	-82.07412	3.51024E-008	0.0006154	7
	42	109	18.60119	1753.237	-12561.14	1	12682.9	-82.0542	4.391764E-008	0.0006223	7
	43	111	15.02404	2154.333	-15308.72	1	15459.57	-81.9896	4.580312E-008	0.000627	7
	44	113	12.01923	2693.698	-18796.79	1	18988.82	-81.84468	3.869999E-008	0.0006137	7
	45	116	9.450605	3442.024	-23427.63	1	23679.13	-81.64181	3.896627E-008	0.0006182	7
	46	119	7.512019	4392.113	-28933.01	1	29264.48	-81.36824	4.35666E-008	0.0006042	7
	47	122	5.978954	5628.044	-35618.83	1	36060.73	-81.02106	4.423199E-008	0.0006156	7
	48	126	4.734848	7378.357	-44072.21	1	44685.57	-80.49596	6.093311E-009	0.0006578	6
	49	129	3.75601	9557.99	-54281.8	1	55116.87	-80.01367	4.9899E-009	0.0006611	6
	50	135	3.004808	12345.27	-66248.48	1	67388.91	-79.44412	6.011254E-009	0.0006282	6
	51	141	2.372217	16260.38	-81561.61	1	83166.67	-78.72516	5.203954E-009	0.0006498	6
	52	145	1.878005	21555.56	-100220.3	1	102512.2	-77.86165	4.384111E-009	0.0006599	6
	53	150	1.512097	27774.42	-120799.2	1	123951	-77.05146	4.922419E-009	0.0005552	6
	54	155	1.201923	36445.15	-146861.5	1	151316.1	-76.06303	4.511545E-009	0.0006762	6
	55	162	0.956633	47380.77	-177657.8	1	183867.5	-75.06697	4.199374E-009	2.276862E-005	6
