EXPLAIN
TAG	EISPOT
TITLE	LABEL	Potentiostatic EIS	Test Identifier
DATE	LABEL	9/15/2020	Date
TIME	LABEL	0:37:09	Time
NOTES	NOTES	1	Notes...
	
PSTAT	PSTAT	REF3000-16137	Potentiostat
VDC	POTEN	0.00000E+000	T	DC Voltage (V)
FREQINIT	QUANT	3.00000E+005	Initial Freq. (Hz)
FREQFINAL	QUANT	1.00000E+000	Final Freq. (Hz)
PTSPERDEC	QUANT	1.00000E+001	Points/decade
VAC	QUANT	5.00000E+001	AC Voltage (mV rms)
AREA	QUANT	1.00000E+000	Sample Area (cm^2)
SPEED	SELECTOR	2	Optimize for:
ZGUESS	QUANT	1.00000E+003	Estimated Z (ohms)
EOC	QUANT	0	Open Circuit (V)
SEQUENCER	TOGGLE	TRUE	Run as Sequence
PSTATMODEL	IQUANT	5	Pstat Model
PSTATSECTION	LABEL	REF3000-16137	Pstat Section
PSTATSERIALNO	LABEL	16137	Pstat Serial Number
CTRLMODE	IQUANT	1	Control Mode
IESTAB	IQUANT	0	I/E Stability
CASPEED	IQUANT	1	Control Amp Speed
CONVENTION	IQUANT	1	Current Convention
ICHRANGE	IQUANT	2	Ich Range
ICHRANGEMODE	TOGGLE	F	Ich Auto Range
ICHOFFSETENABLE	TOGGLE	T	Ich Offset Enable
ICHOFFSET	QUANT	0	Ich Offset (V)
ICHFILTER	IQUANT	3	Ich Filter
VCHRANGE	IQUANT	2	Vch Range
VCHRANGEMODE	TOGGLE	F	Vch Auto Range
VCHOFFSETENABLE	TOGGLE	T	Vch Offset Enable
VCHOFFSET	QUANT	0	Vch Offset (V)
VCHFILTER	IQUANT	3	Vch Filter
ACHRANGE	IQUANT	2	Ach Range
ACHOFFSETENABLE	TOGGLE	F	Ach Offset Enable
ACHOFFSET	QUANT	0	Ach Offset (V)
ACHFILTER	IQUANT	3	Ach Filter
IERANGELOWERLIMIT	IQUANT	2	I/E Range Lower Limit
IERANGEMODE	TOGGLE	F	I/E AutoRange
IERANGE	IQUANT	11	I/E Range
POSFEEDENABLE	TOGGLE	F	Positive Feedback IR Comp
POSFEEDRESISTANCE	QUANT	0	Positive Feedback Resistance (ohm)
ACHSELECT	IQUANT	0	Ach Select
CABLEID	IQUANT	13	Cable ID
DCCALDATE	LABEL	7/31/2020	DC Calibration Date
ACCALDATE	LABEL	7/31/2020	AC Calibration Date
THERMOSELECT	IQUANT	1	Thermo Select
FRAMEWORKVERSION	QUANT	6.33	Framework Version
INSTRUMENTVERSION	LABEL	3.50	Instrument Version
COMPLIANCEVOLTAGE	IQUANT	0	Compliance Voltage
ZCURVE	TABLE
	Pt	Time	Freq	Zreal	Zimag	Zsig	Zmod	Zphz	Idc	Vdc	IERange
	#	s	Hz	ohm	ohm	V	ohm	°	A	V	#
	0	7	300046.9	46.53203	-1.603774	1	46.55966	-1.973977	4.149495E-005	-0.0010951	9
	1	10	238359.4	47.16778	-2.751048	1	47.24794	-3.33798	-1.474493E-005	-0.0009705	9
	2	13	189328.1	47.66714	-3.859884	1	47.82317	-4.62947	6.796135E-006	-0.0010118	9
	3	16	150421.9	48.33634	-5.036355	1	48.59801	-5.948411	1.468097E-005	-0.0005388	9
	4	18	119484.4	49.04668	-6.164957	1	49.43261	-7.164261	-2.585154E-005	-4.800907E-005	9
	5	21	94921.88	49.88924	-7.179296	1	50.40316	-8.188914	-1.328122E-005	0.0003546	9
	6	24	75421.88	50.69362	-8.506662	1	51.4024	-9.52579	-1.186809E-005	0.0001873	9
	7	26	59859.37	51.5634	-9.99235	1	52.52267	-10.96728	9.390203E-006	-0.0004722	9
	8	29	47578.12	52.49122	-11.66071	1	53.77081	-12.52464	2.105882E-005	-0.0003958	9
	9	31	37828.12	53.44076	-13.56393	1	55.13524	-14.24164	3.542165E-006	0.0002642	9
	10	34	30046.88	54.41718	-15.82373	1	56.67116	-16.21366	4.852575E-006	0.0003259	9
	11	36	23859.38	55.38629	-18.57595	1	58.41838	-18.54088	2.277268E-005	-0.0005588	9
	12	38	18984.38	56.36056	-21.99667	1	60.50096	-21.31995	2.793603E-006	-0.0002964	9
	13	41	15046.87	57.43432	-26.23059	1	63.14067	-24.54646	-9.110978E-006	0.0001137	9
	14	43	11953.13	58.50578	-31.59626	1	66.49249	-28.37142	1.790511E-005	-0.0005348	9
	15	45	9515.62	59.65784	-38.20178	1	70.8409	-32.63339	1.469373E-005	-0.0005203	9
	16	48	7546.875	61.01622	-46.54431	1	76.74211	-37.33707	-1.482153E-005	0.0003968	9
	17	50	5928.309	62.72282	-57.37075	1	85.00327	-42.44825	-1.536992E-005	0.0004649	9
	18	52	4733.456	64.61829	-70.01752	1	95.2784	-47.29647	-2.802896E-006	-0.0001225	9
	19	55	3796.875	66.70756	-85.36658	1	108.3391	-51.99505	2.04974E-005	-0.0003748	9
	20	57	2987.132	69.65045	-105.8058	1	126.673	-56.64367	-1.542601E-005	0.0004492	9
	21	59	2390.625	73.1875	-129.185	1	148.4762	-60.46703	-3.492373E-006	-9.375039E-005	9
	22	62	1884.191	77.16055	-160.6268	1	178.1985	-64.34169	-1.376755E-005	0.0003958	9
	23	64	1516.544	82.09055	-195.7158	1	212.2346	-67.245	-8.430018E-006	0.0006313	9
	24	66	1193.986	88.60558	-243.0134	1	258.6628	-69.96754	1.747903E-005	-0.0005125	9
	25	69	946.5144	95.8305	-300.5943	1	315.5003	-72.31754	1.944548E-005	-0.0002348	9
	26	71	751.7689	105.7947	-370.9661	1	385.7569	-74.08255	1.794169E-005	-0.0005407	9
	27	73	597.4265	116.7106	-456.485	1	471.1687	-75.65828	3.220979E-006	0.000293	8
	28	76	477.4305	131.224	-559.937	1	575.1079	-76.81048	4.30404E-007	0.000651	8
	29	78	376.6741	149.6773	-695.7957	1	711.7127	-77.85973	4.330776E-007	0.0006545	8
	30	80	298.2954	172.3839	-861.8146	1	878.886	-78.68873	4.40847E-007	0.0006548	8
	31	83	237.7717	200.0791	-1061.116	1	1079.814	-79.32194	4.30027E-007	0.0006504	8
	32	85	189.0121	235.2866	-1310.004	1	1330.966	-79.8178	4.36929E-007	0.0006569	8
	33	87	150.2404	279.8722	-1616.755	1	1640.8	-80.17901	4.398909E-007	0.0006526	8
	34	90	119.1737	338.2512	-1998.945	1	2027.362	-80.39568	4.388131E-007	0.0006516	8
	35	92	95.0169	408.7582	-2458.222	1	2491.975	-80.55912	4.399693E-007	0.0006479	8
	36	95	75.60484	501.0354	-3026.604	1	3067.796	-80.60029	4.4476E-007	0.0006491	8
	37	97	54.50582	674.5147	-4066.727	1	4122.285	-80.58255	4.559126E-007	0.0006448	8
	38	100	45.95588	798.0917	-4758.513	1	4824.976	-80.47903	5.520711E-008	0.0006205	7
	39	102	37.20238	970.952	-5746.897	1	5828.342	-80.4103	5.219798E-008	0.0006267	7
	40	104	30.04808	1183.973	-6956.496	1	7056.531	-80.341	4.495587E-008	0.000621	7
	41	107	23.91582	1451.666	-8538.295	1	8660.82	-80.35094	4.071973E-008	0.0006237	7
	42	109	18.60119	1828.33	-10689.01	1	10844.25	-80.29362	5.446296E-008	0.000627	7
	43	112	15.02404	2218.889	-12927.15	1	13116.19	-80.26034	5.376762E-008	0.0006255	7
	44	114	12.01923	2720.253	-15791.59	1	16024.17	-80.22617	5.025058E-008	0.0006187	7
	45	117	9.450605	3397.124	-19594.44	1	19886.74	-80.16429	5.120403E-008	0.0006192	7
	46	119	7.512019	4204.671	-24074.55	1	24438.97	-80.09309	5.434814E-008	0.0006188	7
	47	122	5.978954	5257.114	-29545.62	1	30009.68	-79.91083	5.462092E-008	0.0006277	7
	48	126	4.734848	6636.717	-36443.93	1	37043.3	-79.6791	5.660815E-008	0.0006035	7
	49	130	3.75601	8450.91	-44828.28	1	45617.9	-79.32404	8.926786E-009	0.0006935	6
	50	135	3.004808	10696.95	-54661.49	1	55698.32	-78.92746	8.111738E-009	0.0006633	6
	51	142	2.372217	13939.63	-67484.37	1	68909.02	-78.32907	7.700894E-009	0.000598	6
	52	146	1.878005	18056.66	-82977.92	1	84919.84	-77.72337	8.838126E-009	0.0006691	6
	53	151	1.512097	23105.7	-100048.8	1	102682.2	-76.99586	7.714705E-009	0.0006775	6
	54	156	1.201923	30556.77	-122327.4	1	126086.2	-75.97482	8.362263E-009	0.0006922	6
	55	162	0.956633	40442.83	-148547	1	153954	-74.77001	6.439386E-009	6.971789E-005	6
