EXPLAIN
TAG	EISPOT
TITLE	LABEL	Potentiostatic EIS	Test Identifier
DATE	LABEL	9/15/2020	Date
TIME	LABEL	3:50:41	Time
NOTES	NOTES	1	Notes...
	
PSTAT	PSTAT	REF3000-16137	Potentiostat
VDC	POTEN	0.00000E+000	T	DC Voltage (V)
FREQINIT	QUANT	3.00000E+005	Initial Freq. (Hz)
FREQFINAL	QUANT	1.00000E+000	Final Freq. (Hz)
PTSPERDEC	QUANT	1.00000E+001	Points/decade
VAC	QUANT	5.00000E+001	AC Voltage (mV rms)
AREA	QUANT	1.00000E+000	Sample Area (cm^2)
SPEED	SELECTOR	2	Optimize for:
ZGUESS	QUANT	1.00000E+003	Estimated Z (ohms)
EOC	QUANT	0	Open Circuit (V)
SEQUENCER	TOGGLE	TRUE	Run as Sequence
PSTATMODEL	IQUANT	5	Pstat Model
PSTATSECTION	LABEL	REF3000-16137	Pstat Section
PSTATSERIALNO	LABEL	16137	Pstat Serial Number
CTRLMODE	IQUANT	1	Control Mode
IESTAB	IQUANT	0	I/E Stability
CASPEED	IQUANT	1	Control Amp Speed
CONVENTION	IQUANT	1	Current Convention
ICHRANGE	IQUANT	2	Ich Range
ICHRANGEMODE	TOGGLE	F	Ich Auto Range
ICHOFFSETENABLE	TOGGLE	T	Ich Offset Enable
ICHOFFSET	QUANT	0	Ich Offset (V)
ICHFILTER	IQUANT	3	Ich Filter
VCHRANGE	IQUANT	2	Vch Range
VCHRANGEMODE	TOGGLE	F	Vch Auto Range
VCHOFFSETENABLE	TOGGLE	T	Vch Offset Enable
VCHOFFSET	QUANT	0	Vch Offset (V)
VCHFILTER	IQUANT	3	Vch Filter
ACHRANGE	IQUANT	2	Ach Range
ACHOFFSETENABLE	TOGGLE	F	Ach Offset Enable
ACHOFFSET	QUANT	0	Ach Offset (V)
ACHFILTER	IQUANT	3	Ach Filter
IERANGELOWERLIMIT	IQUANT	2	I/E Range Lower Limit
IERANGEMODE	TOGGLE	F	I/E AutoRange
IERANGE	IQUANT	11	I/E Range
POSFEEDENABLE	TOGGLE	F	Positive Feedback IR Comp
POSFEEDRESISTANCE	QUANT	0	Positive Feedback Resistance (ohm)
ACHSELECT	IQUANT	0	Ach Select
CABLEID	IQUANT	13	Cable ID
DCCALDATE	LABEL	7/31/2020	DC Calibration Date
ACCALDATE	LABEL	7/31/2020	AC Calibration Date
THERMOSELECT	IQUANT	1	Thermo Select
FRAMEWORKVERSION	QUANT	6.33	Framework Version
INSTRUMENTVERSION	LABEL	3.50	Instrument Version
COMPLIANCEVOLTAGE	IQUANT	0	Compliance Voltage
ZCURVE	TABLE
	Pt	Time	Freq	Zreal	Zimag	Zsig	Zmod	Zphz	Idc	Vdc	IERange
	#	s	Hz	ohm	ohm	V	ohm	°	A	V	#
	0	17	300046.9	285.008	-21.65576	1	285.8295	-4.345155	-0.0001023	0.0033927	9
	1	27	238359.4	286.5453	-22.48396	1	287.426	-4.486558	1.494375E-005	-0.0019011	9
	2	32	189328.1	288.4865	-27.64387	1	289.8079	-5.473587	-9.255874E-005	0.0007627	10
	3	36	150421.9	292.3381	-24.14312	1	293.3334	-4.721132	1.612418E-005	-0.0017728	9
	4	40	119484.4	293.6416	-25.85927	1	294.778	-5.032715	1.962084E-005	-0.0003042	9
	5	44	94921.88	296.1794	-28.17171	1	297.5161	-5.433459	-1.1181E-005	-6.780183E-005	9
	6	48	75421.88	299.8157	-31.49808	1	301.4657	-5.997387	2.197102E-005	-0.0008454	9
	7	51	59859.37	303.2775	-34.61778	1	305.2469	-6.511875	2.342819E-005	-0.0001753	9
	8	53	47578.12	306.914	-39.0647	1	309.3901	-7.253731	1.797652E-006	0.0006406	9
	9	56	37828.12	311.7926	-43.91608	1	314.8702	-8.017386	-1.576124E-005	0.0001124	9
	10	58	30046.88	316.9657	-49.55751	1	320.8165	-8.886238	-1.765698E-005	0.0003332	9
	11	61	23859.38	321.8805	-56.12183	1	326.7365	-9.89045	-2.184559E-005	0.0009385	9
	12	63	18984.38	328.2848	-62.93265	1	334.2625	-10.85202	2.608549E-005	-0.0008108	9
	13	66	15046.87	335.2927	-70.73275	1	342.6723	-11.91235	1.491687E-005	0.0001836	9
	14	68	11953.13	341.4387	-80.12773	1	350.7148	-13.207	-2.721191E-006	-0.0003614	9
	15	71	9515.62	348.2397	-91.54894	1	360.0723	-14.72924	1.606834E-005	-0.0008052	9
	16	73	7546.875	355.7494	-106.0673	1	371.2249	-16.60205	1.644486E-005	-0.0008092	9
	17	75	5928.309	362.8775	-122.9963	1	383.1556	-18.72395	-1.016612E-005	-9.460199E-005	9
	18	78	4733.456	368.1078	-142.9513	1	394.8904	-21.22322	-1.130307E-005	0.0034852	8
	19	80	3796.875	374.2315	-169.2962	1	410.7437	-24.34122	1.268767E-005	-0.0034723	8
	20	82	2987.132	382.2004	-203.5108	1	433.0055	-28.03403	9.879539E-006	-0.0002735	8
	21	85	2390.625	388.807	-244.2078	1	459.1386	-32.13273	-1.177741E-005	0.0028472	8
	22	87	1884.191	396.5688	-298.3894	1	496.2893	-36.95882	8.649886E-007	0.003198	8
	23	89	1516.544	406.7167	-359.5312	1	542.8454	-41.47617	-1.171289E-005	0.0049611	8
	24	92	1193.986	419.4806	-444.5551	1	611.2228	-46.66227	1.320315E-005	-0.0028038	8
	25	94	946.5144	431.6431	-549.0659	1	698.4189	-51.82767	1.266389E-005	-0.0027007	8
	26	96	751.7689	448.6187	-675.9391	1	811.266	-56.42789	-6.122776E-006	0.0001982	8
	27	99	597.4265	468.3925	-831.2988	1	954.175	-60.60106	-8.887112E-006	0.0014595	8
	28	102	477.4305	491.671	-1021.57	1	1133.731	-64.29898	9.138001E-009	0.000635	8
	29	104	376.6741	522.3446	-1269.985	1	1373.21	-67.64264	-9.827533E-009	0.0006452	8
	30	106	298.2954	559.5693	-1574.133	1	1670.632	-70.43083	-2.425368E-008	0.0006508	8
	31	108	237.7717	604.2784	-1940.03	1	2031.962	-72.6993	-1.557421E-008	0.0006368	8
	32	111	189.0121	659.9428	-2397.812	1	2486.971	-74.61165	-1.725415E-008	0.0006376	8
	33	113	150.2404	728.9865	-2964.128	1	3052.454	-76.18311	-1.995805E-008	0.0006522	8
	34	116	119.1737	814.3008	-3671.701	1	3760.914	-77.49548	-1.204499E-008	0.0006487	8
	35	118	95.0169	922.5185	-4535.58	1	4628.447	-78.5031	-1.041194E-008	0.0006181	7
	36	121	75.60484	1053.41	-5602.004	1	5700.187	-79.35037	-1.232375E-008	0.0006135	7
	37	123	54.50582	1296.85	-7578.661	1	7688.818	-80.28967	-1.43562E-008	0.000634	7
	38	126	45.95588	1453.51	-8872.816	1	8991.082	-80.69666	-1.16377E-008	0.0006247	7
	39	128	37.20238	1687.871	-10786.19	1	10917.45	-81.10623	-1.211767E-008	0.0006199	7
	40	130	30.04808	1976.288	-13133.05	1	13280.91	-81.44222	-1.026929E-008	0.0006196	7
	41	133	23.91582	2356.793	-16219.03	1	16389.36	-81.73219	-1.157896E-008	0.000609	7
	42	135	18.60119	2870.191	-20477.74	1	20677.9	-82.02132	-1.432282E-008	0.0006283	7
	43	137	15.02404	3437.116	-24927.13	1	25162.98	-82.14919	-6.762661E-009	0.0006131	7
	44	140	12.01923	4151.365	-30629.6	1	30909.64	-82.28148	-9.355203E-009	0.0005972	7
	45	142	9.450605	5120.509	-38257.66	1	38598.81	-82.37669	-1.136494E-008	0.0006109	7
	46	145	7.512019	6295.613	-47291.12	1	47708.33	-82.41711	-8.193991E-010	0.0006826	6
	47	148	5.978954	7714.438	-58331.91	1	58839.82	-82.46631	-3.1304E-010	0.0006461	6
	48	151	4.734848	9523.84	-72350.52	1	72974.66	-82.501	-8.984176E-010	0.0006513	6
	49	154	3.75601	11739.44	-89483.95	1	90250.71	-82.52602	-8.127423E-010	0.0006838	6
	50	159	3.004808	14361.57	-109816.2	1	110751.4	-82.54925	-9.897884E-010	0.0006484	6
	51	166	2.372217	18047.17	-136508.3	1	137696.1	-82.46885	-1.349111E-009	0.0006079	6
	52	170	1.878005	22234.87	-169654	1	171104.8	-82.53336	-7.788493E-010	0.0006547	6
	53	175	1.512097	26960.3	-206877.4	1	208626.7	-82.57505	-1.630337E-009	0.0007654	6
	54	180	1.201923	34146.93	-256381	1	258645	-82.41353	-8.602394E-010	0.0006563	6
	55	186	0.956633	42879.43	-316328.2	1	319221.2	-82.2804	-1.354056E-009	2.222031E-005	6
