EXPLAIN
TAG	EISPOT
TITLE	LABEL	Potentiostatic EIS	Test Identifier
DATE	LABEL	9/15/2020	Date
TIME	LABEL	9:13:53	Time
NOTES	NOTES	1	Notes...
	
PSTAT	PSTAT	REF3000-16137	Potentiostat
VDC	POTEN	0.00000E+000	T	DC Voltage (V)
FREQINIT	QUANT	3.00000E+005	Initial Freq. (Hz)
FREQFINAL	QUANT	1.00000E+000	Final Freq. (Hz)
PTSPERDEC	QUANT	1.00000E+001	Points/decade
VAC	QUANT	5.00000E+001	AC Voltage (mV rms)
AREA	QUANT	1.00000E+000	Sample Area (cm^2)
SPEED	SELECTOR	2	Optimize for:
ZGUESS	QUANT	1.00000E+003	Estimated Z (ohms)
EOC	QUANT	0	Open Circuit (V)
SEQUENCER	TOGGLE	TRUE	Run as Sequence
PSTATMODEL	IQUANT	5	Pstat Model
PSTATSECTION	LABEL	REF3000-16137	Pstat Section
PSTATSERIALNO	LABEL	16137	Pstat Serial Number
CTRLMODE	IQUANT	1	Control Mode
IESTAB	IQUANT	0	I/E Stability
CASPEED	IQUANT	1	Control Amp Speed
CONVENTION	IQUANT	1	Current Convention
ICHRANGE	IQUANT	2	Ich Range
ICHRANGEMODE	TOGGLE	F	Ich Auto Range
ICHOFFSETENABLE	TOGGLE	T	Ich Offset Enable
ICHOFFSET	QUANT	0	Ich Offset (V)
ICHFILTER	IQUANT	3	Ich Filter
VCHRANGE	IQUANT	2	Vch Range
VCHRANGEMODE	TOGGLE	F	Vch Auto Range
VCHOFFSETENABLE	TOGGLE	T	Vch Offset Enable
VCHOFFSET	QUANT	0	Vch Offset (V)
VCHFILTER	IQUANT	3	Vch Filter
ACHRANGE	IQUANT	2	Ach Range
ACHOFFSETENABLE	TOGGLE	F	Ach Offset Enable
ACHOFFSET	QUANT	0	Ach Offset (V)
ACHFILTER	IQUANT	3	Ach Filter
IERANGELOWERLIMIT	IQUANT	2	I/E Range Lower Limit
IERANGEMODE	TOGGLE	F	I/E AutoRange
IERANGE	IQUANT	11	I/E Range
POSFEEDENABLE	TOGGLE	F	Positive Feedback IR Comp
POSFEEDRESISTANCE	QUANT	0	Positive Feedback Resistance (ohm)
ACHSELECT	IQUANT	0	Ach Select
CABLEID	IQUANT	13	Cable ID
DCCALDATE	LABEL	7/31/2020	DC Calibration Date
ACCALDATE	LABEL	7/31/2020	AC Calibration Date
THERMOSELECT	IQUANT	1	Thermo Select
FRAMEWORKVERSION	QUANT	6.33	Framework Version
INSTRUMENTVERSION	LABEL	3.50	Instrument Version
COMPLIANCEVOLTAGE	IQUANT	0	Compliance Voltage
ZCURVE	TABLE
	Pt	Time	Freq	Zreal	Zimag	Zsig	Zmod	Zphz	Idc	Vdc	IERange
	#	s	Hz	ohm	ohm	V	ohm	°	A	V	#
	0	14	300046.9	-8.253459	-4942.245	1	4942.251	-90.09568	8.548451E-005	-0.0036518	9
	1	32	238359.4	95.7056	-6141.053	1	6141.799	-89.10714	4.917354E-005	0.0001297	9
	2	47	189328.1	146.3652	-7857.802	1	7859.165	-88.93289	7.703284E-005	-0.001497	9
	3	58	150421.9	-1205.001	-9757.26	1	9831.39	-97.0403	-2.048362E-005	0.0016428	9
	4	68	119484.4	589.5551	-11924.06	1	11938.62	-87.16946	6.541047E-005	-0.0254125	8
	5	76	94921.88	385.9085	-14921.6	1	14926.59	-88.51852	-1.575673E-005	0.0005693	8
	6	84	75421.88	391.8502	-18547.14	1	18551.28	-88.78968	1.720467E-005	0.0003183	8
	7	93	59859.37	869.0338	-23309.36	1	23325.56	-87.86485	-2.623055E-005	0.0074921	8
	8	101	47578.12	1232.214	-29747	1	29772.51	-87.62798	1.617868E-005	-0.00915	8
	9	111	37828.12	4329.449	-37853.82	1	38100.61	-83.47527	-1.001778E-006	-0.0135209	7
	10	119	30046.88	4697.103	-47626.94	1	47858	-84.36755	-6.686304E-006	0.0116676	7
	11	126	23859.38	-2076.306	-56403.47	1	56441.68	-92.1082	1.677295E-005	0.0003757	8
	12	133	18984.38	3534.627	-74449.7	1	74533.56	-87.28182	-7.242489E-006	0.0179601	7
	13	139	15046.87	4866.649	-93082.88	1	93210.02	-87.00713	-6.318636E-006	0.0255292	7
	14	145	11953.13	3431.187	-117439.6	1	117489.7	-88.32648	-5.467609E-006	0.0269237	7
	15	150	9515.62	7568.065	-146107.5	1	146303.4	-87.03485	-7.321417E-006	0.0235848	7
	16	155	7546.875	3074.45	-180431.3	1	180457.5	-89.0238	6.616224E-006	-0.0099326	7
	17	160	5928.309	550.077	-248129.6	1	248130.2	-89.87298	3.544231E-006	-0.0247173	7
	18	167	4733.456	43442.97	-419784.1	1	422026	-84.09156	-2.615829E-005	0.0074681	8
	19	175	3796.875	20751.27	-312839.7	1	313527.2	-86.20502	2.305924E-005	-0.0026893	8
	20	183	2987.132	-54826.26	-299037.1	1	304021.5	-100.3894	-1.561734E-005	0.0005409	8
	21	194	2390.625	6163.154	-553421	1	553455.3	-89.36195	5.430012E-006	-0.0270324	7
	22	201	1884.191	-174217.6	-704399.1	1	725623.8	-103.8921	-7.345369E-006	0.0187152	7
	23	208	1516.544	-44577.68	-769948.9	1	771238.3	-93.31355	7.569682E-006	-0.0183305	7
	24	215	1193.986	328052.7	-326885.3	1	463111.8	-44.89788	2.592569E-005	-0.0088571	8
	25	224	946.5144	26221.2	-265279.1	1	266571.8	-84.355	-2.035618E-005	0.0114573	8
	26	231	751.7689	-33495.69	-842942	1	843607.3	-92.27554	7.710406E-006	-0.0189478	7
	27	237	597.4265	-674320.3	-326628.3	1	749262.2	-154.1553	-5.203015E-006	0.0262078	7
	28	243	477.4305	72622.51	-2861677	1	2862598	-88.54628	-8.948503E-008	0.0006274	7
	29	249	376.6741	481550.9	-3754586	1	3785341	-82.69133	-9.810351E-010	0.0006423	5
	30	253	298.2954	500994.1	-4692693	1	4719360	-83.90616	-8.873648E-010	0.0006424	5
	31	257	237.7717	431738.9	-5770964	1	5787091	-85.72154	-9.596415E-010	0.0006719	5
	32	261	189.0121	542134.4	-7251947	1	7272183	-85.72469	-9.016617E-010	0.0006135	5
	33	264	150.2404	544594.6	-8923575	1	8940178	-86.50764	-8.871708E-010	0.0006151	5
	34	267	119.1737	-750683	-8955749	1	8987156	-94.79141	-1.037238E-009	0.0006791	5
	35	269	95.0169	447147.2	-1.431687E+007	1	1.432385E+007	-88.21111	-9.269691E-010	0.0006908	5
	36	272	75.60484	833935.5	-1.672417E+007	1	1.674495E+007	-87.14536	-1.077741E-009	0.0006641	5
	37	275	54.50582	1867243	-2.467101E+007	1	2.474157E+007	-85.67178	-8.933786E-010	0.0006001	5
	38	278	45.95588	3304931	-2.718293E+007	1	2.73831E+007	-83.06794	-9.608107E-010	0.0005988	5
	39	282	37.20238	6492582	-3.731415E+007	1	3.787478E+007	-80.12948	-1.034601E-009	0.0006851	5
	40	286	30.04808	6357785	-4.71318E+007	1	4.755868E+007	-82.31753	-1.063024E-010	0.0006964	4
	41	290	23.91582	3109217	-5.169013E+007	1	5.178356E+007	-86.55775	-3.641252E-011	0.0006167	4
	42	294	18.60119	-1.370615E+007	-8.110771E+007	1	8.225764E+007	-99.5916	-1.473224E-010	0.0006393	4
	43	297	15.02404	1258890	-9.100967E+007	1	9.101838E+007	-89.2075	-6.266588E-011	0.0005972	4
	44	301	12.01923	8511050	-1.103786E+008	1	1.107063E+008	-85.59077	-7.629244E-011	0.0006341	4
	45	305	9.450605	-2612814	-1.496201E+008	1	1.496429E+008	-91.00045	-6.814319E-011	0.000699	4
	46	309	7.512019	5925314	-1.744943E+008	1	1.745949E+008	-88.05515	-9.217033E-011	0.0007037	4
	47	313	5.978954	-2.243678E+007	-2.123401E+008	1	2.135222E+008	-96.0317	-1.146957E-010	0.0006997	4
	48	319	4.734848	4.418364E+007	-2.970397E+008	1	3.003078E+008	-81.53948	-5.696354E-012	0.0007	3
	49	323	3.75601	2584267	-3.308311E+008	1	3.308412E+008	-89.55244	-9.588009E-010	0.0006181	5
	50	332	3.004808	8.381861E+007	-4.546289E+008	1	4.62291E+008	-79.55385	-9.458773E-010	0.0005639	5
	51	341	2.372217	5.237556E+007	-5.623709E+008	1	5.648045E+008	-84.67919	-7.206248E-012	0.0007087	3
	52	347	1.878005	5.518204E+007	-7.076055E+008	1	7.097539E+008	-85.54086	-6.852322E-012	0.0007173	3
	53	356	1.512097	5.598341E+007	-8.691376E+008	1	8.709388E+008	-86.31452	-7.061415E-012	0.0007389	3
	54	363	1.201923	6.06959E+007	-1.094916E+009	1	1.096597E+009	-86.8271	-6.814505E-012	0.0007925	3
	55	376	0.956633	7.738766E+007	-1.355861E+009	1	1.358068E+009	-86.73331	-6.384328E-012	8.629002E-005	3
