EXPLAIN
TAG	EISPOT
TITLE	LABEL	Potentiostatic EIS	Test Identifier
DATE	LABEL	9/15/2020	Date
TIME	LABEL	8:37:12	Time
NOTES	NOTES	1	Notes...
	
PSTAT	PSTAT	REF3000-16137	Potentiostat
VDC	POTEN	0.00000E+000	T	DC Voltage (V)
FREQINIT	QUANT	3.00000E+005	Initial Freq. (Hz)
FREQFINAL	QUANT	1.00000E+000	Final Freq. (Hz)
PTSPERDEC	QUANT	1.00000E+001	Points/decade
VAC	QUANT	5.00000E+001	AC Voltage (mV rms)
AREA	QUANT	1.00000E+000	Sample Area (cm^2)
SPEED	SELECTOR	2	Optimize for:
ZGUESS	QUANT	1.00000E+003	Estimated Z (ohms)
EOC	QUANT	0	Open Circuit (V)
SEQUENCER	TOGGLE	TRUE	Run as Sequence
PSTATMODEL	IQUANT	5	Pstat Model
PSTATSECTION	LABEL	REF3000-16137	Pstat Section
PSTATSERIALNO	LABEL	16137	Pstat Serial Number
CTRLMODE	IQUANT	1	Control Mode
IESTAB	IQUANT	0	I/E Stability
CASPEED	IQUANT	1	Control Amp Speed
CONVENTION	IQUANT	1	Current Convention
ICHRANGE	IQUANT	2	Ich Range
ICHRANGEMODE	TOGGLE	F	Ich Auto Range
ICHOFFSETENABLE	TOGGLE	T	Ich Offset Enable
ICHOFFSET	QUANT	0	Ich Offset (V)
ICHFILTER	IQUANT	3	Ich Filter
VCHRANGE	IQUANT	2	Vch Range
VCHRANGEMODE	TOGGLE	F	Vch Auto Range
VCHOFFSETENABLE	TOGGLE	T	Vch Offset Enable
VCHOFFSET	QUANT	0	Vch Offset (V)
VCHFILTER	IQUANT	3	Vch Filter
ACHRANGE	IQUANT	2	Ach Range
ACHOFFSETENABLE	TOGGLE	F	Ach Offset Enable
ACHOFFSET	QUANT	0	Ach Offset (V)
ACHFILTER	IQUANT	3	Ach Filter
IERANGELOWERLIMIT	IQUANT	2	I/E Range Lower Limit
IERANGEMODE	TOGGLE	F	I/E AutoRange
IERANGE	IQUANT	11	I/E Range
POSFEEDENABLE	TOGGLE	F	Positive Feedback IR Comp
POSFEEDRESISTANCE	QUANT	0	Positive Feedback Resistance (ohm)
ACHSELECT	IQUANT	0	Ach Select
CABLEID	IQUANT	13	Cable ID
DCCALDATE	LABEL	7/31/2020	DC Calibration Date
ACCALDATE	LABEL	7/31/2020	AC Calibration Date
THERMOSELECT	IQUANT	1	Thermo Select
FRAMEWORKVERSION	QUANT	6.33	Framework Version
INSTRUMENTVERSION	LABEL	3.50	Instrument Version
COMPLIANCEVOLTAGE	IQUANT	0	Compliance Voltage
ZCURVE	TABLE
	Pt	Time	Freq	Zreal	Zimag	Zsig	Zmod	Zphz	Idc	Vdc	IERange
	#	s	Hz	ohm	ohm	V	ohm	°	A	V	#
	0	15	300046.9	-108.4336	-4899.544	1	4900.744	-91.26783	-1.660345E-005	0.0011357	9
	1	30	238359.4	118.4393	-6181.596	1	6182.73	-88.90235	2.154638E-005	-0.0022218	9
	2	49	189328.1	-114.7786	-7639.514	1	7640.376	-90.86076	-2.898657E-005	-0.0011163	9
	3	57	150421.9	141.0161	-9521.79	1	9522.83	-89.15152	1.869985E-005	-0.0020411	9
	4	66	119484.4	239.3056	-11724.11	1	11726.56	-88.83067	-2.047627E-005	0.0012895	9
	5	74	94921.88	569.8695	-14747.07	1	14758.07	-87.78703	2.28612E-005	-0.0026383	8
	6	83	75421.88	602.4277	-18846.28	1	18855.9	-88.16914	-1.182735E-006	-0.0050948	8
	7	91	59859.37	721.8935	-23303.12	1	23314.3	-88.22564	-2.466247E-005	0.010982	8
	8	100	47578.12	4221.312	-30782.68	1	31070.77	-82.19158	1.381218E-006	-0.0201774	7
	9	107	37828.12	287.5132	-36962.55	1	36963.67	-89.55434	-1.551557E-005	0.0005446	8
	10	116	30046.88	4490.642	-47048.23	1	47262.05	-84.54777	2.744588E-006	0.0086919	7
	11	124	23859.38	4821.086	-58999.25	1	59195.89	-85.32849	-6.706506E-006	0.011832	7
	12	129	18984.38	5121.456	-73614.74	1	73792.68	-86.02029	3.930284E-007	0.0164881	7
	13	134	15046.87	3568.894	-93439.18	1	93507.31	-87.81266	-1.836672E-006	0.0225825	7
	14	141	11953.13	-1654.533	-105429.3	1	105442.3	-90.89909	-2.62635E-005	0.0075147	8
	15	148	9515.62	13727.68	-143369.1	1	144024.8	-84.53057	-9.324543E-006	-0.0021581	8
	16	155	7546.875	30115.75	-164639.4	1	167371.1	-79.63409	-9.335968E-006	-0.0021521	8
	17	162	5928.309	-2412.266	-225817.8	1	225830.7	-90.61203	6.905191E-006	-0.0270921	7
	18	169	4733.456	26556.34	-297200.3	1	298384.4	-84.8939	-7.35415E-006	0.0187727	7
	19	174	3796.875	-67165.23	-373113.6	1	379110.7	-100.2047	-1.005944E-006	-0.0051332	8
	20	182	2987.132	-105756.5	-515036.1	1	525781.9	-101.6037	-5.327779E-006	0.0034101	7
	21	188	2390.625	-14861.93	-487510.3	1	487736.7	-91.74614	-1.030789E-006	-0.0135408	7
	22	194	1884.191	42158.86	-769113.5	1	770268.1	-86.86248	-7.399836E-007	0.0176238	6
	23	200	1516.544	-103102	-739260.8	1	746415.8	-97.9396	-7.34843E-006	0.0187812	7
	24	207	1193.986	507183.7	-1288181	1	1384430	-68.50941	3.534943E-006	-0.0247454	7
	25	215	946.5144	-593941.3	-610767.4	1	851940.8	-134.1998	1.262747E-006	-0.0197503	7
	26	220	751.7689	492307.8	-1996118	1	2055931	-76.14548	5.986633E-007	-0.0065776	6
	27	225	597.4265	-551251.4	-2466614	1	2527462	-102.5977	-2.77062E-007	-0.007771	6
	28	230	477.4305	85731.75	-2876053	1	2877330	-88.29259	-9.659176E-009	0.0006998	6
	29	234	376.6741	479561.5	-3743688	1	3774278	-82.70024	-9.098082E-010	0.0006915	5
	30	237	298.2954	503682.4	-4682905	1	4709915	-83.861	-9.303738E-010	0.0006042	5
	31	242	237.7717	456982.1	-5688228	1	5706555	-85.40682	-9.753487E-010	0.0006987	5
	32	244	189.0121	560226.6	-7224875	1	7246563	-85.56608	-1.010227E-009	0.0006682	5
	33	247	150.2404	274850.1	-9163857	1	9167978	-88.28205	-9.070794E-010	0.0005939	5
	34	250	119.1737	111434.5	-8571015	1	8571739	-89.25512	-8.869308E-010	0.0005985	5
	35	253	95.0169	718656.4	-1.464791E+007	1	1.466553E+007	-87.1912	-8.682227E-010	0.0006357	5
	36	255	75.60484	-189408	-1.681888E+007	1	1.681995E+007	-90.64522	-9.35001E-010	0.0006844	5
	37	258	54.50582	1076348	-2.392701E+007	1	2.39512E+007	-87.42431	-8.999939E-010	0.0005925	5
	38	262	45.95588	3379912	-3.12011E+007	1	3.138364E+007	-83.81744	-9.09303E-010	0.0006927	5
	39	265	37.20238	6079568	-3.479762E+007	1	3.532472E+007	-80.08976	-1.057957E-009	0.0006503	5
	40	269	30.04808	1661005	-4.335701E+007	1	4.338882E+007	-87.80608	-9.013537E-010	0.0006128	5
	41	273	23.91582	9.72283E+006	-5.546712E+007	1	5.631283E+007	-80.05763	-1.186026E-010	0.0006939	4
	42	277	18.60119	1.872398E+007	-4.993598E+007	1	5.333095E+007	-69.44598	-2.871063E-010	0.0006544	4
	43	280	15.02404	4695751	-9.288077E+007	1	9.299939E+007	-87.10577	-9.842629E-011	0.000628	4
	44	284	12.01923	1.205264E+007	-1.082893E+008	1	1.089579E+008	-83.64909	-7.263293E-011	0.0006762	4
	45	288	9.450605	6537515	-1.258637E+008	1	1.260334E+008	-87.02666	-1.183203E-010	0.0006585	4
	46	292	7.512019	1.622598E+007	-1.790974E+008	1	1.798309E+008	-84.82322	-1.047096E-010	0.0006943	4
	47	296	5.978954	9101976	-1.976662E+008	1	1.978757E+008	-87.36356	-1.02854E-010	0.0006009	4
	48	302	4.734848	4.678932E+007	-2.954429E+008	1	2.99125E+008	-81.0008	-7.464577E-012	0.0006904	3
	49	307	3.75601	-6921905	-3.203626E+008	1	3.204374E+008	-91.23777	-9.845837E-010	0.0007071	5
	50	315	3.004808	-4.12243E+007	-4.386347E+008	1	4.405676E+008	-95.3691	-1.016987E-009	0.0007065	5
	51	324	2.372217	5.385687E+007	-5.608495E+008	1	5.634294E+008	-84.51486	-6.888718E-012	0.0006688	3
	52	331	1.878005	5.770466E+007	-7.044826E+008	1	7.068419E+008	-85.31731	-6.79006E-012	0.0007359	3
	53	340	1.512097	6.238975E+007	-8.693697E+008	1	8.716055E+008	-85.89524	-6.823697E-012	0.0006348	3
	54	346	1.201923	6.538704E+007	-1.090302E+009	1	1.092261E+009	-86.568	-6.656013E-012	0.0007448	3
	55	359	0.956633	6.822086E+007	-1.370997E+009	1	1.372693E+009	-87.15131	-6.711669E-012	7.59231E-005	3
