EXPLAIN
TAG	EISPOT
TITLE	LABEL	Potentiostatic EIS	Test Identifier
DATE	LABEL	9/15/2020	Date
TIME	LABEL	1:31:25	Time
NOTES	NOTES	1	Notes...
	
PSTAT	PSTAT	REF3000-16137	Potentiostat
VDC	POTEN	0.00000E+000	T	DC Voltage (V)
FREQINIT	QUANT	3.00000E+005	Initial Freq. (Hz)
FREQFINAL	QUANT	1.00000E+000	Final Freq. (Hz)
PTSPERDEC	QUANT	1.00000E+001	Points/decade
VAC	QUANT	5.00000E+001	AC Voltage (mV rms)
AREA	QUANT	1.00000E+000	Sample Area (cm^2)
SPEED	SELECTOR	2	Optimize for:
ZGUESS	QUANT	1.00000E+003	Estimated Z (ohms)
EOC	QUANT	0	Open Circuit (V)
SEQUENCER	TOGGLE	TRUE	Run as Sequence
PSTATMODEL	IQUANT	5	Pstat Model
PSTATSECTION	LABEL	REF3000-16137	Pstat Section
PSTATSERIALNO	LABEL	16137	Pstat Serial Number
CTRLMODE	IQUANT	1	Control Mode
IESTAB	IQUANT	0	I/E Stability
CASPEED	IQUANT	1	Control Amp Speed
CONVENTION	IQUANT	1	Current Convention
ICHRANGE	IQUANT	2	Ich Range
ICHRANGEMODE	TOGGLE	F	Ich Auto Range
ICHOFFSETENABLE	TOGGLE	T	Ich Offset Enable
ICHOFFSET	QUANT	0	Ich Offset (V)
ICHFILTER	IQUANT	3	Ich Filter
VCHRANGE	IQUANT	2	Vch Range
VCHRANGEMODE	TOGGLE	F	Vch Auto Range
VCHOFFSETENABLE	TOGGLE	T	Vch Offset Enable
VCHOFFSET	QUANT	0	Vch Offset (V)
VCHFILTER	IQUANT	3	Vch Filter
ACHRANGE	IQUANT	2	Ach Range
ACHOFFSETENABLE	TOGGLE	F	Ach Offset Enable
ACHOFFSET	QUANT	0	Ach Offset (V)
ACHFILTER	IQUANT	3	Ach Filter
IERANGELOWERLIMIT	IQUANT	2	I/E Range Lower Limit
IERANGEMODE	TOGGLE	F	I/E AutoRange
IERANGE	IQUANT	11	I/E Range
POSFEEDENABLE	TOGGLE	F	Positive Feedback IR Comp
POSFEEDRESISTANCE	QUANT	0	Positive Feedback Resistance (ohm)
ACHSELECT	IQUANT	0	Ach Select
CABLEID	IQUANT	13	Cable ID
DCCALDATE	LABEL	7/31/2020	DC Calibration Date
ACCALDATE	LABEL	7/31/2020	AC Calibration Date
THERMOSELECT	IQUANT	1	Thermo Select
FRAMEWORKVERSION	QUANT	6.33	Framework Version
INSTRUMENTVERSION	LABEL	3.50	Instrument Version
COMPLIANCEVOLTAGE	IQUANT	0	Compliance Voltage
ZCURVE	TABLE
	Pt	Time	Freq	Zreal	Zimag	Zsig	Zmod	Zphz	Idc	Vdc	IERange
	#	s	Hz	ohm	ohm	V	ohm	°	A	V	#
	0	6	300046.9	63.70313	-2.671735	1	63.75913	-2.401601	3.116102E-005	-0.0003609	9
	1	10	238359.4	64.44302	-3.96626	1	64.56496	-3.521929	-3.156237E-005	-0.0004305	9
	2	13	189328.1	65.11748	-5.2251	1	65.32677	-4.587648	-1.117033E-005	-0.0009987	9
	3	15	150421.9	66.0097	-6.542809	1	66.33316	-5.660605	1.20753E-005	0.0006305	9
	4	18	119484.4	66.97168	-7.856435	1	67.43092	-6.690777	6.040848E-005	-0.002109	9
	5	20	94921.88	68.02712	-9.192444	1	68.64539	-7.695712	1.958622E-005	-0.000661	9
	6	23	75421.88	69.07278	-10.84929	1	69.91965	-8.926538	4.968465E-006	-0.0004487	9
	7	25	59859.37	70.27267	-12.66432	1	71.40471	-10.21601	-3.688367E-007	0.000402	9
	8	28	47578.12	71.55164	-14.59822	1	73.02564	-11.53143	2.104543E-005	-0.0003198	9
	9	30	37828.12	72.88161	-16.80556	1	74.79409	-12.98471	-2.841412E-006	0.0006027	9
	10	33	30046.88	74.25492	-19.39416	1	76.74586	-14.63771	-1.634269E-005	0.0008877	9
	11	36	23859.38	75.60527	-22.54279	1	78.89445	-16.6027	-1.641093E-005	0.0007194	9
	12	38	18984.38	76.98763	-26.39806	1	81.38766	-18.92618	-9.662966E-006	4.2263E-005	9
	13	40	15046.87	78.40764	-31.24506	1	84.40386	-21.72704	2.065231E-005	-0.0006156	9
	14	42	11953.13	79.68126	-37.21399	1	87.94308	-25.03425	3.767194E-006	-0.0002866	9
	15	45	9515.62	81.3344	-44.59204	1	92.75632	-28.734	2.179034E-005	-0.0005611	9
	16	47	7546.875	83.08311	-54.09352	1	99.1409	-33.06723	1.977011E-005	-0.0002681	9
	17	49	5928.309	84.99409	-66.3776	1	107.8424	-37.98867	-8.980522E-006	4.759891E-005	9
	18	52	4733.456	87.09147	-80.86781	1	118.8466	-42.8779	-9.989421E-006	0.0007273	9
	19	54	3796.875	89.74645	-98.1575	1	133.0012	-47.563	-1.770723E-005	0.0006471	9
	20	56	2987.132	92.81865	-121.6482	1	153.015	-52.65604	4.772267E-006	-0.0004088	9
	21	59	2390.625	96.4722	-148.9862	1	177.493	-57.07595	-2.533857E-006	-0.0002028	9
	22	61	1884.191	101.3523	-184.5361	1	210.5371	-61.22319	-1.717743E-005	0.0007022	9
	23	63	1516.544	106.824	-224.904	1	248.9843	-64.5934	3.944679E-006	-0.0003894	9
	24	66	1193.986	113.9396	-279.9652	1	302.2628	-67.85477	2.126259E-005	-0.0005161	9
	25	68	946.5144	123.0443	-345.1996	1	366.4733	-70.38171	-1.464152E-005	0.0004092	9
	26	70	751.7689	133.7303	-427.7981	1	448.2131	-72.64068	-1.793355E-005	0.0005067	9
	27	73	597.4265	145.285	-525.1509	1	544.8772	-74.53569	2.524986E-006	-0.0006746	8
	28	75	477.4305	160.3629	-645.4373	1	665.0605	-76.04704	3.531969E-007	0.0006566	8
	29	78	376.6741	180.1358	-802.5292	1	822.4974	-77.34906	3.554452E-007	0.0006547	8
	30	80	298.2954	204.1633	-994.698	1	1015.434	-78.40105	3.561666E-007	0.0006567	8
	31	82	237.7717	232.8746	-1225.595	1	1247.523	-79.24151	3.610481E-007	0.0006528	8
	32	85	189.0121	268.6826	-1514.267	1	1537.919	-79.93849	3.651476E-007	0.0006545	8
	33	87	150.2404	312.9519	-1871.035	1	1897.026	-80.50452	3.69623E-007	0.0006524	8
	34	90	119.1737	367.9721	-2317.21	1	2346.245	-80.9768	3.709178E-007	0.0006527	8
	35	92	95.0169	435.6651	-2855.385	1	2888.43	-81.32491	3.679606E-007	0.0006491	8
	36	94	75.60484	520.72	-3526.805	1	3565.039	-81.60117	3.656897E-007	0.0006473	8
	37	97	54.50582	680.2217	-4782.784	1	4830.913	-81.90551	3.218472E-008	0.0006123	7
	38	100	45.95588	788.1929	-5598.193	1	5653.407	-81.98576	4.371895E-008	0.0006199	7
	39	102	37.20238	945.0456	-6800.274	1	6865.627	-82.08818	3.950223E-008	0.0006228	7
	40	104	30.04808	1142.199	-8283.152	1	8361.533	-82.14876	3.536831E-008	0.0006215	7
	41	107	23.91582	1412.979	-10222.22	1	10319.42	-82.13009	3.4243E-008	0.0006204	7
	42	109	18.60119	1778.102	-12900.75	1	13022.71	-82.1524	4.342152E-008	0.0006236	7
	43	111	15.02404	2168.79	-15684.34	1	15833.58	-82.12721	4.307644E-008	0.0006217	7
	44	114	12.01923	2698.058	-19267.28	1	19455.27	-82.02853	3.523372E-008	0.0006253	7
	45	116	9.450605	3428.577	-24050.57	1	24293.73	-81.88675	3.859125E-008	0.0006308	7
	46	119	7.512019	4341.404	-29695.7	1	30011.37	-81.68249	4.337854E-008	0.0006251	7
	47	122	5.978954	5552.112	-36574.23	1	36993.25	-81.36818	4.175056E-008	0.0006288	7
	48	126	4.734848	7197.698	-45261.04	1	45829.78	-80.96413	4.429112E-009	0.0006409	6
	49	129	3.75601	9331.16	-55868.16	1	56642.05	-80.51792	5.40455E-009	0.0006798	6
	50	135	3.004808	12019.81	-68290.99	1	69340.72	-80.01768	5.185899E-009	0.000687	6
	51	141	2.372217	15735.22	-84412.81	1	85866.88	-79.4408	4.984715E-009	0.0006048	6
	52	145	1.878005	20838.19	-103793.6	1	105864.7	-78.64789	4.918984E-009	0.0006738	6
	53	150	1.512097	27016.34	-125417.1	1	128293.9	-77.84356	4.869377E-009	0.0005554	6
	54	156	1.201923	35423.52	-152999.3	1	157046.6	-76.96416	4.685948E-009	0.000697	6
	55	162	0.956633	46286.21	-185717.2	1	191398.2	-76.00531	4.010074E-009	6.222523E-005	6
