EXPLAIN
TAG	EISPOT
TITLE	LABEL	Potentiostatic EIS	Test Identifier
DATE	LABEL	9/15/2020	Date
TIME	LABEL	0:40:01	Time
NOTES	NOTES	1	Notes...
	
PSTAT	PSTAT	REF3000-16137	Potentiostat
VDC	POTEN	0.00000E+000	T	DC Voltage (V)
FREQINIT	QUANT	3.00000E+005	Initial Freq. (Hz)
FREQFINAL	QUANT	1.00000E+000	Final Freq. (Hz)
PTSPERDEC	QUANT	1.00000E+001	Points/decade
VAC	QUANT	5.00000E+001	AC Voltage (mV rms)
AREA	QUANT	1.00000E+000	Sample Area (cm^2)
SPEED	SELECTOR	2	Optimize for:
ZGUESS	QUANT	1.00000E+003	Estimated Z (ohms)
EOC	QUANT	0	Open Circuit (V)
SEQUENCER	TOGGLE	TRUE	Run as Sequence
PSTATMODEL	IQUANT	5	Pstat Model
PSTATSECTION	LABEL	REF3000-16137	Pstat Section
PSTATSERIALNO	LABEL	16137	Pstat Serial Number
CTRLMODE	IQUANT	1	Control Mode
IESTAB	IQUANT	0	I/E Stability
CASPEED	IQUANT	1	Control Amp Speed
CONVENTION	IQUANT	1	Current Convention
ICHRANGE	IQUANT	2	Ich Range
ICHRANGEMODE	TOGGLE	F	Ich Auto Range
ICHOFFSETENABLE	TOGGLE	T	Ich Offset Enable
ICHOFFSET	QUANT	0	Ich Offset (V)
ICHFILTER	IQUANT	3	Ich Filter
VCHRANGE	IQUANT	2	Vch Range
VCHRANGEMODE	TOGGLE	F	Vch Auto Range
VCHOFFSETENABLE	TOGGLE	T	Vch Offset Enable
VCHOFFSET	QUANT	0	Vch Offset (V)
VCHFILTER	IQUANT	3	Vch Filter
ACHRANGE	IQUANT	2	Ach Range
ACHOFFSETENABLE	TOGGLE	F	Ach Offset Enable
ACHOFFSET	QUANT	0	Ach Offset (V)
ACHFILTER	IQUANT	3	Ach Filter
IERANGELOWERLIMIT	IQUANT	2	I/E Range Lower Limit
IERANGEMODE	TOGGLE	F	I/E AutoRange
IERANGE	IQUANT	11	I/E Range
POSFEEDENABLE	TOGGLE	F	Positive Feedback IR Comp
POSFEEDRESISTANCE	QUANT	0	Positive Feedback Resistance (ohm)
ACHSELECT	IQUANT	0	Ach Select
CABLEID	IQUANT	13	Cable ID
DCCALDATE	LABEL	7/31/2020	DC Calibration Date
ACCALDATE	LABEL	7/31/2020	AC Calibration Date
THERMOSELECT	IQUANT	1	Thermo Select
FRAMEWORKVERSION	QUANT	6.33	Framework Version
INSTRUMENTVERSION	LABEL	3.50	Instrument Version
COMPLIANCEVOLTAGE	IQUANT	0	Compliance Voltage
ZCURVE	TABLE
	Pt	Time	Freq	Zreal	Zimag	Zsig	Zmod	Zphz	Idc	Vdc	IERange
	#	s	Hz	ohm	ohm	V	ohm	°	A	V	#
	0	6	300046.9	47.23715	-1.476607	1	47.26022	-1.790451	-3.962508E-005	0.0003677	9
	1	10	238359.4	47.60078	-2.774401	1	47.68156	-3.335698	-2.542956E-005	-0.0004465	9
	2	13	189328.1	48.23986	-3.934851	1	48.40007	-4.663205	1.622372E-005	-0.0006779	9
	3	15	150421.9	48.95071	-5.047407	1	49.21025	-5.887079	-5.461246E-005	0.0020699	9
	4	18	119484.4	49.64145	-6.217688	1	50.02932	-7.139229	-8.582795E-006	-0.0006779	9
	5	20	94921.88	50.51023	-7.25689	1	51.02887	-8.175834	-2.108093E-006	-0.0001884	9
	6	23	75421.88	51.33646	-8.629007	1	52.05663	-9.5415	-1.200143E-005	0.000559	9
	7	25	59859.37	52.22552	-10.10391	1	53.19393	-10.94956	-1.518261E-005	0.0005822	9
	8	28	47578.12	53.13622	-11.75273	1	54.42044	-12.47195	-1.380276E-005	0.0003948	9
	9	31	37828.12	54.10441	-13.69147	1	55.80989	-14.20094	1.814094E-005	-0.0001603	9
	10	33	30046.88	55.09742	-15.97776	1	57.36737	-16.17169	1.203215E-005	6.714933E-005	9
	11	36	23859.38	56.09523	-18.76623	1	59.15104	-18.49727	-1.773762E-006	0.000523	9
	12	38	18984.38	57.0841	-22.1561	1	61.23306	-21.21276	1.214487E-005	7.537193E-005	9
	13	40	15046.87	58.14719	-26.51327	1	63.90656	-24.51148	-4.443386E-006	-0.0001358	9
	14	42	11953.13	59.22829	-31.83676	1	67.24261	-28.2592	1.975004E-005	-0.0002535	9
	15	45	9515.62	60.40873	-38.48812	1	71.62785	-32.50237	-1.341133E-005	0.0002562	9
	16	47	7546.875	61.81181	-46.90117	1	77.59136	-37.19027	-1.152766E-005	0.0001965	9
	17	49	5928.309	63.45893	-57.81362	1	85.8455	-42.33477	-1.419181E-005	0.0003991	9
	18	52	4733.456	65.40582	-70.58706	1	96.2312	-47.18188	-3.542835E-006	-0.0001045	9
	19	54	3796.875	67.4902	-86.02208	1	109.3377	-51.88339	-1.270717E-005	0.0003396	9
	20	56	2987.132	70.44509	-106.6312	1	127.7996	-56.54957	-8.418926E-006	0.000642	9
	21	59	2390.625	73.76823	-130.3849	1	149.8065	-60.5	1.690847E-005	-0.0001819	9
	22	61	1884.191	78.0829	-161.8785	1	179.7264	-64.24944	-1.292887E-005	0.0006749	9
	23	63	1516.544	82.81744	-197.0076	1	213.707	-67.19923	1.976277E-005	-0.0002859	9
	24	66	1193.986	89.42566	-245.046	1	260.8534	-69.95125	1.414788E-005	-0.0005058	9
	25	68	946.5144	96.9213	-302.8233	1	317.9555	-72.25227	2.148946E-005	-0.0003936	9
	26	70	751.7689	107.2488	-373.2664	1	388.3685	-73.96931	-1.275443E-005	0.0002491	9
	27	73	597.4265	118.3731	-459.2419	1	474.2523	-75.54619	2.534268E-006	-0.0004154	8
	28	75	477.4305	132.2319	-564.1447	1	579.4346	-76.80838	4.244582E-007	0.0006535	8
	29	77	376.6741	150.6944	-701.0883	1	717.1008	-77.86921	4.417057E-007	0.000656	8
	30	80	298.2954	173.3395	-868.5113	1	885.6401	-78.71308	4.376873E-007	0.0006521	8
	31	82	237.7717	200.9149	-1069.419	1	1088.129	-79.3597	4.31182E-007	0.0006509	8
	32	84	189.0121	236.0199	-1320.346	1	1341.275	-79.86507	4.396241E-007	0.0006508	8
	33	87	150.2404	280.2843	-1629.906	1	1653.829	-80.24265	4.330685E-007	0.0006516	8
	34	89	119.1737	338.1567	-2015.752	1	2043.919	-80.4769	4.490564E-007	0.0006522	8
	35	92	95.0169	408.2877	-2479.552	1	2512.942	-80.64948	4.439924E-007	0.0006493	8
	36	94	75.60484	499.3326	-3054.644	1	3095.187	-80.71616	4.345163E-007	0.0006522	8
	37	97	54.50582	675.4637	-4112.668	1	4167.769	-80.67303	4.442495E-007	0.0006469	8
	38	99	45.95588	797.3575	-4806.292	1	4871.983	-80.5805	5.480942E-008	0.0006243	7
	39	102	37.20238	970.034	-5807.079	1	5887.541	-80.51668	5.28484E-008	0.0006202	7
	40	104	30.04808	1183.225	-7031.63	1	7130.487	-80.44822	4.491489E-008	0.0006239	7
	41	106	23.91582	1464.278	-8637.998	1	8761.229	-80.37891	4.405577E-008	0.0006285	7
	42	109	18.60119	1824.703	-10819.7	1	10972.48	-80.42735	4.280429E-008	0.0006401	7
	43	111	15.02404	2236.706	-13070.07	1	13260.07	-80.28893	5.514006E-008	0.0006349	7
	44	113	12.01923	2739.837	-15959.37	1	16192.84	-80.25866	4.95637E-008	0.0006213	7
	45	116	9.450605	3413.921	-19796.58	1	20088.79	-80.21558	5.116886E-008	0.0006417	7
	46	118	7.512019	4235.846	-24328.89	1	24694.88	-80.12337	5.387696E-008	0.0006187	7
	47	122	5.978954	5283.151	-29855.7	1	30319.54	-79.96504	5.434844E-008	0.0006253	7
	48	126	4.734848	6627.42	-36825.22	1	37416.84	-79.79771	5.498665E-008	0.0006044	7
	49	129	3.75601	8467.715	-45325.5	1	46109.68	-79.41798	8.017427E-009	0.0006775	6
	50	135	3.004808	10682.96	-55287.23	1	56309.89	-79.06371	7.879757E-009	0.0006507	6
	51	141	2.372217	13801.29	-68335.92	1	69715.66	-78.58199	7.466946E-009	0.000593	6
	52	145	1.878005	17925.54	-83982.52	1	85874.27	-77.95138	7.966746E-009	0.0006737	6
	53	150	1.512097	23130.71	-101419.1	1	104023.4	-77.15228	7.224223E-009	0.0005824	6
	54	155	1.201923	30272.42	-124037.5	1	127678.2	-76.2846	7.438569E-009	0.0006998	6
	55	162	0.956633	39989.68	-150798.4	1	156010.7	-75.1478	6.44725E-009	3.320575E-005	6
