EXPLAIN
TAG	EISPOT
TITLE	LABEL	Potentiostatic EIS	Test Identifier
DATE	LABEL	9/15/2020	Date
TIME	LABEL	9:51:13	Time
NOTES	NOTES	1	Notes...
	
PSTAT	PSTAT	REF3000-16137	Potentiostat
VDC	POTEN	0.00000E+000	T	DC Voltage (V)
FREQINIT	QUANT	3.00000E+005	Initial Freq. (Hz)
FREQFINAL	QUANT	1.00000E+000	Final Freq. (Hz)
PTSPERDEC	QUANT	1.00000E+001	Points/decade
VAC	QUANT	5.00000E+001	AC Voltage (mV rms)
AREA	QUANT	1.00000E+000	Sample Area (cm^2)
SPEED	SELECTOR	2	Optimize for:
ZGUESS	QUANT	1.00000E+003	Estimated Z (ohms)
EOC	QUANT	0	Open Circuit (V)
SEQUENCER	TOGGLE	TRUE	Run as Sequence
PSTATMODEL	IQUANT	5	Pstat Model
PSTATSECTION	LABEL	REF3000-16137	Pstat Section
PSTATSERIALNO	LABEL	16137	Pstat Serial Number
CTRLMODE	IQUANT	1	Control Mode
IESTAB	IQUANT	0	I/E Stability
CASPEED	IQUANT	1	Control Amp Speed
CONVENTION	IQUANT	1	Current Convention
ICHRANGE	IQUANT	2	Ich Range
ICHRANGEMODE	TOGGLE	F	Ich Auto Range
ICHOFFSETENABLE	TOGGLE	T	Ich Offset Enable
ICHOFFSET	QUANT	0	Ich Offset (V)
ICHFILTER	IQUANT	3	Ich Filter
VCHRANGE	IQUANT	2	Vch Range
VCHRANGEMODE	TOGGLE	F	Vch Auto Range
VCHOFFSETENABLE	TOGGLE	T	Vch Offset Enable
VCHOFFSET	QUANT	0	Vch Offset (V)
VCHFILTER	IQUANT	3	Vch Filter
ACHRANGE	IQUANT	2	Ach Range
ACHOFFSETENABLE	TOGGLE	F	Ach Offset Enable
ACHOFFSET	QUANT	0	Ach Offset (V)
ACHFILTER	IQUANT	3	Ach Filter
IERANGELOWERLIMIT	IQUANT	2	I/E Range Lower Limit
IERANGEMODE	TOGGLE	F	I/E AutoRange
IERANGE	IQUANT	11	I/E Range
POSFEEDENABLE	TOGGLE	F	Positive Feedback IR Comp
POSFEEDRESISTANCE	QUANT	0	Positive Feedback Resistance (ohm)
ACHSELECT	IQUANT	0	Ach Select
CABLEID	IQUANT	13	Cable ID
DCCALDATE	LABEL	7/31/2020	DC Calibration Date
ACCALDATE	LABEL	7/31/2020	AC Calibration Date
THERMOSELECT	IQUANT	1	Thermo Select
FRAMEWORKVERSION	QUANT	6.33	Framework Version
INSTRUMENTVERSION	LABEL	3.50	Instrument Version
COMPLIANCEVOLTAGE	IQUANT	0	Compliance Voltage
ZCURVE	TABLE
	Pt	Time	Freq	Zreal	Zimag	Zsig	Zmod	Zphz	Idc	Vdc	IERange
	#	s	Hz	ohm	ohm	V	ohm	°	A	V	#
	0	7	300046.9	47.30812	-1.521091	1	47.33257	-1.841588	-9.136515E-007	0.0002179	9
	1	10	238359.4	47.80395	-2.740944	1	47.88246	-3.281586	8.263247E-006	-0.0012754	9
	2	13	189328.1	48.42493	-3.9474	1	48.58555	-4.660212	2.640327E-006	0.0005173	9
	3	16	150421.9	49.0553	-4.964582	1	49.30588	-5.778873	1.234077E-005	-0.000936	9
	4	18	119484.4	49.727	-6.205755	1	50.11273	-7.113536	5.412954E-005	-0.0014613	9
	5	21	94921.88	50.52928	-7.254062	1	51.04733	-8.169651	-2.798971E-006	-0.0001763	9
	6	23	75421.88	51.31955	-8.595687	1	52.03443	-9.50841	-1.528925E-005	0.000423	9
	7	26	59859.37	52.15808	-10.09263	1	53.12558	-10.95144	1.99443E-005	-0.0002894	9
	8	29	47578.12	53.05765	-11.75544	1	54.34431	-12.49263	-1.467913E-005	0.0006566	9
	9	31	37828.12	53.97374	-13.71476	1	55.68895	-14.25715	-6.502833E-006	1.61974E-005	9
	10	34	30046.88	54.93592	-15.98725	1	57.21492	-16.22586	4.679543E-006	0.0003234	9
	11	36	23859.38	55.88577	-18.77721	1	58.95594	-18.57197	5.126692E-006	0.0003206	9
	12	38	18984.38	56.84588	-22.17487	1	61.01786	-21.31014	-1.211269E-005	0.0007031	9
	13	41	15046.87	57.83003	-26.53152	1	63.62574	-24.64492	1.460272E-005	-0.0005123	9
	14	43	11953.13	58.90672	-31.95427	1	67.0155	-28.47786	-3.593379E-006	-0.0001103	9
	15	45	9515.62	60.07468	-38.56566	1	71.38822	-32.69892	-1.67799E-006	0.0005131	9
	16	48	7546.875	61.40591	-47.05616	1	77.36257	-37.46342	-2.046083E-006	0.0004451	9
	17	50	5928.309	63.14103	-58.01849	1	85.74926	-42.57902	1.905267E-005	-0.0002571	9
	18	52	4733.456	64.94118	-70.70309	1	96.0015	-47.43236	1.402777E-005	-0.0004967	9
	19	55	3796.875	67.2308	-86.19677	1	109.3154	-52.04688	1.901486E-005	-0.000272	9
	20	57	2987.132	69.94315	-106.8151	1	127.6774	-56.78299	4.287853E-006	0.0003144	9
	21	59	2390.625	73.15127	-130.6725	1	149.7545	-60.75963	-1.684855E-005	0.0005691	9
	22	62	1884.191	77.9865	-161.7881	1	179.6032	-64.26461	-1.489957E-005	0.0004265	9
	23	64	1516.544	82.51922	-197.2092	1	213.7776	-67.29385	-3.692278E-006	-9.139878E-005	9
	24	66	1193.986	88.95752	-245.0177	1	260.6667	-70.04578	2.970835E-006	-0.0002839	9
	25	69	946.5144	95.3758	-304.1404	1	318.7443	-72.58903	-2.48089E-006	0.0004699	9
	26	71	751.7689	106.3362	-373.6657	1	388.5016	-74.11493	-3.471527E-006	-0.0000981	9
	27	73	597.4265	116.0796	-459.9473	1	474.369	-75.8357	-4.823024E-007	0.001508	8
	28	76	477.4305	129.7271	-564.7071	1	579.4163	-77.06222	4.364713E-007	0.0006448	8
	29	78	376.6741	147.2032	-701.8979	1	717.1677	-78.15549	4.315416E-007	0.0006506	8
	30	80	298.2954	168.425	-869.7237	1	885.8817	-79.04014	4.394321E-007	0.000653	8
	31	83	237.7717	193.9982	-1071.327	1	1088.75	-79.73598	4.433854E-007	0.0006468	8
	32	85	189.0121	225.9989	-1323.324	1	1342.483	-80.30846	4.551404E-007	0.0006514	8
	33	88	150.2404	265.9407	-1634.668	1	1656.16	-80.75963	4.383871E-007	0.0006498	8
	34	90	119.1737	316.5452	-2022.659	1	2047.279	-81.10538	4.539877E-007	0.0006475	8
	35	92	95.0169	377.7775	-2492.955	1	2521.416	-81.38307	4.540809E-007	0.0006466	8
	36	95	75.60484	456.7333	-3077.427	1	3111.135	-81.55813	4.548794E-007	0.0006441	8
	37	98	54.50582	603.7093	-4158.645	1	4202.236	-81.74009	4.586214E-007	0.0006381	8
	38	100	45.95588	713.7605	-4876.824	1	4928.78	-81.67344	5.999553E-008	0.0006228	7
	39	102	37.20238	868.7036	-5923.088	1	5986.453	-81.65626	5.487092E-008	0.000621	7
	40	105	30.04808	1060.73	-7200.645	1	7278.354	-81.62	4.606855E-008	0.0006283	7
	41	107	23.91582	1318.917	-8848.417	1	8946.174	-81.52209	4.879659E-008	0.000616	7
	42	110	18.60119	1692.848	-11135.06	1	11263.01	-81.3556	5.346097E-008	0.0006259	7
	43	112	15.02404	2079.545	-13532.34	1	13691.19	-81.26357	5.777038E-008	0.0006296	7
	44	114	12.01923	2601.646	-16578.38	1	16781.28	-81.08131	5.304622E-008	0.0006259	7
	45	117	9.450605	3337.379	-20643.64	1	20911.67	-80.81667	5.427934E-008	0.00063	7
	46	119	7.512019	4244.209	-25417.85	1	25769.75	-80.52035	5.774583E-008	0.0006367	7
	47	122	5.978954	5444.192	-31231.09	1	31702.05	-80.11158	5.84884E-008	0.0006266	7
	48	127	4.734848	7059.601	-38556.62	1	39197.59	-79.62424	6.242229E-008	0.0006478	7
	49	130	3.75601	9354.077	-47410.95	1	48324.91	-78.83901	1.097026E-008	0.0006538	6
	50	136	3.004808	12208.28	-57765.32	1	59041.3	-78.06656	1.235678E-008	0.0006446	6
	51	142	2.372217	16379.2	-71039.5	1	72903.28	-77.01651	1.11773E-008	0.0006428	6
	52	146	1.878005	22224.85	-86977.2	1	89771.8	-75.66621	1.027842E-008	0.0007179	6
	53	151	1.512097	29452.34	-104412.7	1	108487.1	-74.2475	1.090602E-008	0.000554	6
	54	156	1.201923	39913.09	-126025.6	1	132194.9	-72.42667	1.017959E-008	0.0006856	6
	55	163	0.956633	53896.91	-150625.7	1	159978	-70.31177	9.218724E-009	3.003817E-005	6
