EXPLAIN
TAG	EISPOT
TITLE	LABEL	Potentiostatic EIS	Test Identifier
DATE	LABEL	9/15/2020	Date
TIME	LABEL	3:28:37	Time
NOTES	NOTES	1	Notes...
	
PSTAT	PSTAT	REF3000-16137	Potentiostat
VDC	POTEN	0.00000E+000	T	DC Voltage (V)
FREQINIT	QUANT	3.00000E+005	Initial Freq. (Hz)
FREQFINAL	QUANT	1.00000E+000	Final Freq. (Hz)
PTSPERDEC	QUANT	1.00000E+001	Points/decade
VAC	QUANT	5.00000E+001	AC Voltage (mV rms)
AREA	QUANT	1.00000E+000	Sample Area (cm^2)
SPEED	SELECTOR	2	Optimize for:
ZGUESS	QUANT	1.00000E+003	Estimated Z (ohms)
EOC	QUANT	0	Open Circuit (V)
SEQUENCER	TOGGLE	TRUE	Run as Sequence
PSTATMODEL	IQUANT	5	Pstat Model
PSTATSECTION	LABEL	REF3000-16137	Pstat Section
PSTATSERIALNO	LABEL	16137	Pstat Serial Number
CTRLMODE	IQUANT	1	Control Mode
IESTAB	IQUANT	0	I/E Stability
CASPEED	IQUANT	1	Control Amp Speed
CONVENTION	IQUANT	1	Current Convention
ICHRANGE	IQUANT	2	Ich Range
ICHRANGEMODE	TOGGLE	F	Ich Auto Range
ICHOFFSETENABLE	TOGGLE	T	Ich Offset Enable
ICHOFFSET	QUANT	0	Ich Offset (V)
ICHFILTER	IQUANT	3	Ich Filter
VCHRANGE	IQUANT	2	Vch Range
VCHRANGEMODE	TOGGLE	F	Vch Auto Range
VCHOFFSETENABLE	TOGGLE	T	Vch Offset Enable
VCHOFFSET	QUANT	0	Vch Offset (V)
VCHFILTER	IQUANT	3	Vch Filter
ACHRANGE	IQUANT	2	Ach Range
ACHOFFSETENABLE	TOGGLE	F	Ach Offset Enable
ACHOFFSET	QUANT	0	Ach Offset (V)
ACHFILTER	IQUANT	3	Ach Filter
IERANGELOWERLIMIT	IQUANT	2	I/E Range Lower Limit
IERANGEMODE	TOGGLE	F	I/E AutoRange
IERANGE	IQUANT	11	I/E Range
POSFEEDENABLE	TOGGLE	F	Positive Feedback IR Comp
POSFEEDRESISTANCE	QUANT	0	Positive Feedback Resistance (ohm)
ACHSELECT	IQUANT	0	Ach Select
CABLEID	IQUANT	13	Cable ID
DCCALDATE	LABEL	7/31/2020	DC Calibration Date
ACCALDATE	LABEL	7/31/2020	AC Calibration Date
THERMOSELECT	IQUANT	1	Thermo Select
FRAMEWORKVERSION	QUANT	6.33	Framework Version
INSTRUMENTVERSION	LABEL	3.50	Instrument Version
COMPLIANCEVOLTAGE	IQUANT	0	Compliance Voltage
ZCURVE	TABLE
	Pt	Time	Freq	Zreal	Zimag	Zsig	Zmod	Zphz	Idc	Vdc	IERange
	#	s	Hz	ohm	ohm	V	ohm	°	A	V	#
	0	7	300046.9	203.084	-12.64914	1	203.4776	-3.564078	-1.242239E-005	0.0008451	9
	1	12	238359.4	204.3309	-14.26663	1	204.8284	-3.99398	-7.748141E-005	0.0032943	9
	2	15	189328.1	205.9656	-15.52921	1	206.5502	-4.311778	1.15272E-005	0.0011031	9
	3	19	150421.9	208.4616	-17.07593	1	209.1598	-4.682873	1.887665E-005	-0.0004756	9
	4	22	119484.4	209.9088	-19.36311	1	210.8	-5.270355	-8.918744E-005	0.0033091	9
	5	25	94921.88	211.9549	-21.56299	1	213.0489	-5.808936	2.741371E-005	-0.0006821	9
	6	27	75421.88	214.3771	-24.54927	1	215.7781	-6.532737	2.240009E-005	-0.0008586	9
	7	30	59859.37	217.3499	-27.60923	1	219.0965	-7.239319	1.522001E-005	-0.0007745	9
	8	32	47578.12	220.3535	-31.38872	1	222.5779	-8.107079	2.290708E-005	-0.0002574	9
	9	35	37828.12	224.2447	-35.5494	1	227.0451	-9.008105	-2.313804E-005	0.0008115	9
	10	38	30046.88	228.0051	-39.95366	1	231.4792	-9.93911	-2.32676E-005	0.00084	9
	11	40	23859.38	232.2894	-45.47923	1	236.6997	-11.07764	-2.114023E-005	0.0004519	9
	12	42	18984.38	236.9137	-51.17812	1	242.3784	-12.18973	1.577302E-005	-0.0008006	9
	13	46	15046.87	242.26	-57.76033	1	249.0506	-13.41026	-1.482778E-005	0.0009833	9
	14	49	11953.13	247.0734	-66.10431	1	255.7637	-14.97862	9.362989E-006	-0.0007195	9
	15	53	9515.62	251.3614	-76.78549	1	262.828	-16.98679	-2.141607E-005	0.0007082	9
	16	56	7546.875	256.5565	-88.89759	1	271.5217	-19.11135	-2.088269E-006	-0.0003563	9
	17	60	5928.309	261.3789	-106.3757	1	282.1963	-22.14529	-8.208331E-006	0.0008707	9
	18	62	4733.456	265.6035	-126.3646	1	294.1313	-25.44343	2.077207E-005	-0.0008055	9
	19	65	3796.875	270.2406	-149.2076	1	308.6954	-28.90434	-2.012136E-005	0.0009514	9
	20	67	2987.132	276.4157	-182.9255	1	331.4625	-33.49567	-8.360234E-006	0.0008833	9
	21	69	2390.625	281.7167	-221.1594	1	358.1561	-38.1334	2.153112E-005	-0.000183	9
	22	72	1884.191	290.9807	-270.5466	1	397.3226	-42.91592	-1.486126E-005	0.0001361	9
	23	75	1516.544	295.8838	-327.7185	1	441.5276	-47.9224	-5.075033E-006	0.0003044	8
	24	77	1193.986	307.5725	-405.5662	1	509.0037	-52.82412	-5.291904E-006	0.0002969	8
	25	79	946.5144	319.5427	-501.174	1	594.376	-57.47889	7.282064E-006	-0.003104	8
	26	82	751.7689	335.9412	-615.2824	1	701.02	-61.36567	1.038154E-005	-0.00201	8
	27	84	597.4265	351.9793	-763.4564	1	840.6873	-65.2487	8.436606E-006	-0.0002252	8
	28	86	477.4305	373.6311	-937.0688	1	1008.81	-68.26168	6.829926E-008	0.0006488	8
	29	89	376.6741	401.9372	-1165.365	1	1232.732	-70.97056	5.836143E-008	0.0006467	8
	30	91	298.2954	436.3369	-1444.75	1	1509.203	-73.19488	8.498252E-008	0.0006432	8
	31	93	237.7717	477.6502	-1780.682	1	1843.632	-74.98445	3.140345E-008	0.0006965	8
	32	96	189.0121	529.1099	-2200.347	1	2263.069	-76.47899	7.909561E-008	0.0006415	8
	33	98	150.2404	592.6929	-2719.559	1	2783.394	-77.70537	6.02267E-008	0.0006476	8
	34	101	119.1737	671.8071	-3367.877	1	3434.228	-78.719	6.686186E-008	0.0006496	8
	35	103	95.0169	767.9236	-4151.852	1	4222.271	-79.52103	6.747758E-008	0.0006434	8
	36	105	75.60484	890.2852	-5137.744	1	5214.309	-80.16922	-1.192783E-009	0.0006217	7
	37	108	54.50582	1110.609	-6950.737	1	7038.906	-80.92185	-4.904431E-010	0.0006121	7
	38	110	45.95588	1255.968	-8136.383	1	8232.751	-81.22483	-8.076156E-010	0.0006282	7
	39	113	37.20238	1470.767	-9893.64	1	10002.36	-81.54446	1.597627E-009	0.0006091	7
	40	115	30.04808	1735.87	-12056.63	1	12180.95	-81.80706	-2.11594E-010	0.0006263	7
	41	118	23.91582	2086.978	-14887.19	1	15032.77	-82.01994	-1.673904E-009	0.0006216	7
	42	120	18.60119	2557.865	-18773.13	1	18946.58	-82.24114	2.298894E-009	0.000604	7
	43	122	15.02404	3081.324	-22863.71	1	23070.41	-82.32454	2.78718E-009	0.0006251	7
	44	125	12.01923	3741.149	-28094.75	1	28342.75	-82.41501	1.88349E-009	0.0006206	7
	45	127	9.450605	4632.323	-35071.71	1	35376.31	-82.47585	7.644165E-010	0.0006325	7
	46	130	7.512019	5724.087	-43376.54	1	43752.59	-82.48253	4.510675E-010	0.0006736	6
	47	132	5.978954	7047.119	-53489.92	1	53952.14	-82.4947	-2.184454E-010	0.0006689	6
	48	135	4.734848	8730.765	-66310.63	1	66882.92	-82.49931	3.981176E-010	0.0006242	6
	49	139	3.75601	10772.08	-82088.62	1	82792.38	-82.52408	3.295357E-010	0.0006844	6
	50	144	3.004808	13265.9	-100779.1	1	101648.5	-82.50107	2.678471E-010	0.0006358	6
	51	150	2.372217	16772.16	-125398.1	1	126514.8	-82.38183	-1.12324E-010	0.0005912	6
	52	155	1.878005	20866.31	-155711.5	1	157103.4	-82.36748	5.301469E-010	0.0006538	6
	53	159	1.512097	25935.89	-189558.6	1	191324.7	-82.20902	-2.354814E-010	0.0006362	6
	54	165	1.201923	32751.08	-234807	1	237080	-82.05956	2.048548E-010	0.0006812	6
	55	171	0.956633	41678.29	-289364.1	1	292350.3	-81.80383	-1.696017E-010	1.254298E-005	6
