EXPLAIN
TAG	EISPOT
TITLE	LABEL	Potentiostatic EIS	Test Identifier
DATE	LABEL	9/15/2020	Date
TIME	LABEL	6:39:18	Time
NOTES	NOTES	1	Notes...
	
PSTAT	PSTAT	REF3000-16137	Potentiostat
VDC	POTEN	0.00000E+000	T	DC Voltage (V)
FREQINIT	QUANT	3.00000E+005	Initial Freq. (Hz)
FREQFINAL	QUANT	1.00000E+000	Final Freq. (Hz)
PTSPERDEC	QUANT	1.00000E+001	Points/decade
VAC	QUANT	5.00000E+001	AC Voltage (mV rms)
AREA	QUANT	1.00000E+000	Sample Area (cm^2)
SPEED	SELECTOR	2	Optimize for:
ZGUESS	QUANT	1.00000E+003	Estimated Z (ohms)
EOC	QUANT	0	Open Circuit (V)
SEQUENCER	TOGGLE	TRUE	Run as Sequence
PSTATMODEL	IQUANT	5	Pstat Model
PSTATSECTION	LABEL	REF3000-16137	Pstat Section
PSTATSERIALNO	LABEL	16137	Pstat Serial Number
CTRLMODE	IQUANT	1	Control Mode
IESTAB	IQUANT	0	I/E Stability
CASPEED	IQUANT	1	Control Amp Speed
CONVENTION	IQUANT	1	Current Convention
ICHRANGE	IQUANT	2	Ich Range
ICHRANGEMODE	TOGGLE	F	Ich Auto Range
ICHOFFSETENABLE	TOGGLE	T	Ich Offset Enable
ICHOFFSET	QUANT	0	Ich Offset (V)
ICHFILTER	IQUANT	3	Ich Filter
VCHRANGE	IQUANT	2	Vch Range
VCHRANGEMODE	TOGGLE	F	Vch Auto Range
VCHOFFSETENABLE	TOGGLE	T	Vch Offset Enable
VCHOFFSET	QUANT	0	Vch Offset (V)
VCHFILTER	IQUANT	3	Vch Filter
ACHRANGE	IQUANT	2	Ach Range
ACHOFFSETENABLE	TOGGLE	F	Ach Offset Enable
ACHOFFSET	QUANT	0	Ach Offset (V)
ACHFILTER	IQUANT	3	Ach Filter
IERANGELOWERLIMIT	IQUANT	2	I/E Range Lower Limit
IERANGEMODE	TOGGLE	F	I/E AutoRange
IERANGE	IQUANT	11	I/E Range
POSFEEDENABLE	TOGGLE	F	Positive Feedback IR Comp
POSFEEDRESISTANCE	QUANT	0	Positive Feedback Resistance (ohm)
ACHSELECT	IQUANT	0	Ach Select
CABLEID	IQUANT	13	Cable ID
DCCALDATE	LABEL	7/31/2020	DC Calibration Date
ACCALDATE	LABEL	7/31/2020	AC Calibration Date
THERMOSELECT	IQUANT	1	Thermo Select
FRAMEWORKVERSION	QUANT	6.33	Framework Version
INSTRUMENTVERSION	LABEL	3.50	Instrument Version
COMPLIANCEVOLTAGE	IQUANT	0	Compliance Voltage
ZCURVE	TABLE
	Pt	Time	Freq	Zreal	Zimag	Zsig	Zmod	Zphz	Idc	Vdc	IERange
	#	s	Hz	ohm	ohm	V	ohm	°	A	V	#
	0	18	300046.9	211.3928	-4836.383	1	4841	-87.49726	5.045163E-005	4.483515E-005	9
	1	34	238359.4	494.2527	-6117.709	1	6137.643	-85.38108	2.833693E-005	-0.0016016	9
	2	53	189328.1	675.6353	-7405.425	1	7436.182	-84.78704	7.793058E-005	-0.0015129	9
	3	63	150421.9	1496.167	-9329.176	1	9448.388	-80.88877	2.720605E-005	-0.0014671	9
	4	72	119484.4	1542.602	-11491.86	1	11594.93	-82.35464	6.887047E-005	-0.0135924	8
	5	79	94921.88	2851.32	-14263.48	1	14545.69	-78.69538	8.254004E-006	0.0042108	8
	6	88	75421.88	3710.666	-17757.4	1	18140.95	-78.19705	-2.000245E-005	0.0027295	8
	7	96	59859.37	5743.14	-21693.55	1	22440.9	-75.17172	-2.246089E-006	0.0077445	8
	8	105	47578.12	11736.71	-26715.42	1	29179.85	-66.28298	6.919955E-006	-0.0269167	7
	9	111	37828.12	12255.03	-30594.52	1	32957.71	-68.17079	-1.201962E-006	-0.0050561	8
	10	120	30046.88	17754.86	-37533.29	1	41520.88	-64.68383	-2.623528E-005	0.0074906	8
	11	128	23859.38	24817.38	-43728.62	1	50280.16	-60.42371	-2.619143E-005	0.0075202	8
	12	135	18984.38	34444.43	-47762.83	1	58887.23	-54.20253	-2.593356E-005	0.0095838	8
	13	142	15046.87	48943.62	-50775.32	1	70523.83	-46.05232	-2.06171E-006	0.0076792	8
	14	149	11953.13	58291.95	-50279.4	1	76980.32	-40.77923	-3.312134E-006	-0.0052976	7
	15	154	9515.62	69931.29	-49003.8	1	85391.79	-35.02055	-3.850387E-006	0.025525	7
	16	159	7546.875	78405.37	-43427.91	1	89629.16	-28.98161	7.700593E-006	-0.0242039	7
	17	166	5928.309	70272.05	-42772.61	1	82265.77	-31.3277	-1.566312E-005	0.0005738	8
	18	174	4733.456	95327.4	-34456.95	1	101363.7	-19.87284	-9.921433E-007	-0.0134422	7
	19	180	3796.875	98470.7	-29034.87	1	102662.1	-16.42857	7.586675E-006	-0.0181662	7
	20	187	2987.132	101041.8	-24169.28	1	103892.2	-13.45243	4.905074E-006	-0.0005198	7
	21	192	2390.625	104836.9	-22216.87	1	107165.1	-11.96501	-1.894479E-006	0.0222005	7
	22	199	1884.191	112640.4	-17770.15	1	114033.5	-8.965091	-5.371026E-006	0.0267376	7
	23	204	1516.544	108549.8	-16578.86	1	109808.5	-8.683703	-3.785295E-006	0.0255385	7
	24	209	1193.986	109882.5	-20300.68	1	111742	-10.46731	-6.53999E-006	0.0256863	7
	25	216	946.5144	109810.9	-58532.68	1	124436.8	-28.05902	-1.628261E-005	0.0008683	8
	26	222	751.7689	122436.5	-4298.934	1	122511.9	-2.010917	6.77638E-006	-0.026103	7
	27	227	597.4265	131160.7	14840.34	1	131997.6	6.455348	8.907928E-006	0.0041141	8
	28	233	477.4305	119370	-13971.19	1	120184.9	-6.675584	-7.350214E-008	0.0005725	7
	29	237	376.6741	121275.9	-13062.58	1	121977.4	-6.147605	-7.980047E-009	0.0006125	6
	30	240	298.2954	122700.5	-14262.3	1	123526.6	-6.630121	-9.003761E-009	0.0006971	6
	31	242	237.7717	124502.7	-15626.46	1	125479.5	-7.153843	-7.846771E-009	0.000616	6
	32	244	189.0121	126371.4	-17344.86	1	127556.1	-7.81519	-8.099505E-009	0.0006464	6
	33	247	150.2404	128631.5	-19404.44	1	130086.9	-8.578557	-7.933019E-009	0.0006645	6
	34	250	119.1737	131299.3	-22535.94	1	133219.2	-9.73923	-9.191937E-009	0.0007363	6
	35	252	95.0169	133946.4	-24282.22	1	136129.6	-10.27517	-7.772704E-009	0.0006073	6
	36	255	75.60484	136756.8	-27321.41	1	139459.3	-11.29786	-7.803267E-009	0.0006126	6
	37	257	54.50582	141402.5	-32535.7	1	145097.3	-12.95782	-7.728988E-009	0.0006265	6
	38	260	45.95588	143919.8	-34988.63	1	148111.9	-13.6642	-8.236883E-009	0.0006271	6
	39	262	37.20238	146881.1	-39457.28	1	152088.6	-15.03661	-9.418E-009	0.0007144	6
	40	264	30.04808	149884.7	-44461.95	1	156340.3	-16.52252	-7.805678E-009	0.0006085	6
	41	267	23.91582	153184.6	-51614.79	1	161646.6	-18.62099	-8.558288E-009	0.0006996	6
	42	270	18.60119	156034.7	-61122.81	1	167579.3	-21.39156	-9.508029E-009	0.0007205	6
	43	272	15.02404	159070.4	-71226.91	1	174289	-24.12139	-8.695213E-009	0.0006939	6
	44	274	12.01923	161945.7	-84595.03	1	182709.4	-27.58107	-8.207111E-009	0.0007146	6
	45	277	9.450605	165419	-102993.7	1	194861.8	-31.90735	-8.176788E-009	0.0007126	6
	46	279	7.512019	169092.6	-125330.5	1	210475.7	-36.54563	-8.316585E-009	0.0006605	6
	47	283	5.978954	173562.2	-152977.1	1	231356.5	-41.39283	-8.176746E-009	0.0006445	6
	48	287	4.734848	178783.8	-188334.8	1	259679.9	-46.49027	-8.161915E-009	0.0006169	6
	49	290	3.75601	184582.7	-232253	1	296668.5	-51.52414	-8.737874E-009	0.00073	6
	50	296	3.004808	191848	-284627.3	1	343246.8	-56.01876	-7.922263E-009	0.0006471	6
	51	302	2.372217	200825.9	-353039.9	1	406162.8	-60.36672	-8.964981E-009	0.0006395	6
	52	306	1.878005	212298.1	-439244.8	1	487859.1	-64.20435	-8.256048E-010	0.0006412	5
	53	311	1.512097	223519.7	-536289.6	1	581005.7	-67.37415	-9.799321E-010	0.0007125	5
	54	316	1.201923	239811.6	-664383.3	1	706338.9	-70.15276	-8.450713E-010	0.0006524	5
	55	323	0.956633	258749.8	-821127.9	1	860931.2	-72.50957	-9.91045E-010	-1.044955E-006	5
