EXPLAIN
TAG	EISPOT
TITLE	LABEL	Potentiostatic EIS	Test Identifier
DATE	LABEL	9/15/2020	Date
TIME	LABEL	9:56:57	Time
NOTES	NOTES	1	Notes...
	
PSTAT	PSTAT	REF3000-16137	Potentiostat
VDC	POTEN	0.00000E+000	T	DC Voltage (V)
FREQINIT	QUANT	3.00000E+005	Initial Freq. (Hz)
FREQFINAL	QUANT	1.00000E+000	Final Freq. (Hz)
PTSPERDEC	QUANT	1.00000E+001	Points/decade
VAC	QUANT	5.00000E+001	AC Voltage (mV rms)
AREA	QUANT	1.00000E+000	Sample Area (cm^2)
SPEED	SELECTOR	2	Optimize for:
ZGUESS	QUANT	1.00000E+003	Estimated Z (ohms)
EOC	QUANT	0	Open Circuit (V)
SEQUENCER	TOGGLE	TRUE	Run as Sequence
PSTATMODEL	IQUANT	5	Pstat Model
PSTATSECTION	LABEL	REF3000-16137	Pstat Section
PSTATSERIALNO	LABEL	16137	Pstat Serial Number
CTRLMODE	IQUANT	1	Control Mode
IESTAB	IQUANT	0	I/E Stability
CASPEED	IQUANT	1	Control Amp Speed
CONVENTION	IQUANT	1	Current Convention
ICHRANGE	IQUANT	2	Ich Range
ICHRANGEMODE	TOGGLE	F	Ich Auto Range
ICHOFFSETENABLE	TOGGLE	T	Ich Offset Enable
ICHOFFSET	QUANT	0	Ich Offset (V)
ICHFILTER	IQUANT	3	Ich Filter
VCHRANGE	IQUANT	2	Vch Range
VCHRANGEMODE	TOGGLE	F	Vch Auto Range
VCHOFFSETENABLE	TOGGLE	T	Vch Offset Enable
VCHOFFSET	QUANT	0	Vch Offset (V)
VCHFILTER	IQUANT	3	Vch Filter
ACHRANGE	IQUANT	2	Ach Range
ACHOFFSETENABLE	TOGGLE	F	Ach Offset Enable
ACHOFFSET	QUANT	0	Ach Offset (V)
ACHFILTER	IQUANT	3	Ach Filter
IERANGELOWERLIMIT	IQUANT	2	I/E Range Lower Limit
IERANGEMODE	TOGGLE	F	I/E AutoRange
IERANGE	IQUANT	11	I/E Range
POSFEEDENABLE	TOGGLE	F	Positive Feedback IR Comp
POSFEEDRESISTANCE	QUANT	0	Positive Feedback Resistance (ohm)
ACHSELECT	IQUANT	0	Ach Select
CABLEID	IQUANT	13	Cable ID
DCCALDATE	LABEL	7/31/2020	DC Calibration Date
ACCALDATE	LABEL	7/31/2020	AC Calibration Date
THERMOSELECT	IQUANT	1	Thermo Select
FRAMEWORKVERSION	QUANT	6.33	Framework Version
INSTRUMENTVERSION	LABEL	3.50	Instrument Version
COMPLIANCEVOLTAGE	IQUANT	0	Compliance Voltage
ZCURVE	TABLE
	Pt	Time	Freq	Zreal	Zimag	Zsig	Zmod	Zphz	Idc	Vdc	IERange
	#	s	Hz	ohm	ohm	V	ohm	°	A	V	#
	0	6	300046.9	46.19358	-1.544861	1	46.21941	-1.91544	4.258915E-005	-0.0010642	9
	1	10	238359.4	46.73392	-2.685006	1	46.81099	-3.288203	5.98247E-006	-0.0014016	9
	2	13	189328.1	47.25411	-3.870851	1	47.41239	-4.682965	-2.888883E-005	-0.0001762	9
	3	15	150421.9	47.88202	-5.0275	1	48.14523	-5.99396	1.293369E-005	0.0003254	9
	4	18	119484.4	48.61982	-6.132313	1	49.00502	-7.188634	1.313749E-005	-0.0007979	9
	5	20	94921.88	49.43727	-7.151835	1	49.9519	-8.231579	2.125621E-005	-0.0004645	9
	6	23	75421.88	50.24982	-8.46727	1	50.95821	-9.56469	1.775685E-005	-0.0005863	9
	7	25	59859.37	51.08449	-9.9589	1	52.04618	-11.03142	2.042519E-005	-0.0004095	9
	8	28	47578.12	51.98242	-11.62026	1	53.2654	-12.60085	5.245033E-006	0.0003	9
	9	31	37828.12	52.92451	-13.53545	1	54.62794	-14.3459	1.973589E-005	-0.00043	9
	10	33	30046.88	53.85035	-15.81466	1	56.12453	-16.36635	-1.437507E-005	0.0006524	9
	11	36	23859.38	54.81659	-18.61055	1	57.88964	-18.75265	1.482739E-005	-0.000526	9
	12	38	18984.38	55.76936	-21.98227	1	59.94532	-21.51257	-1.209964E-005	0.0002653	9
	13	40	15046.87	56.78335	-26.3554	1	62.60157	-24.89788	3.241065E-006	-0.0003054	9
	14	42	11953.13	57.82974	-31.67753	1	65.93743	-28.71271	-8.320886E-006	8.327037E-005	9
	15	45	9515.62	59.03729	-38.26646	1	70.35427	-32.95027	-3.384569E-006	-0.0000954	9
	16	47	7546.875	60.37737	-46.74902	1	76.36032	-37.74992	9.526256E-006	-0.0004543	9
	17	49	5928.309	62.0703	-57.67009	1	84.72639	-42.89545	1.985745E-005	-0.0004819	9
	18	52	4733.456	63.89013	-70.37224	1	95.0484	-47.76406	1.133916E-005	5.699736E-005	9
	19	54	3796.875	66.2375	-85.52988	1	108.1793	-52.24448	1.29841E-005	-0.0004947	9
	20	56	2987.132	69.02344	-106.2323	1	126.6868	-56.98659	1.742764E-005	-0.0005016	9
	21	59	2390.625	72.11074	-129.989	1	148.651	-60.98091	-1.628743E-005	0.0004479	9
	22	61	1884.191	76.40993	-161.1075	1	178.3091	-64.62599	-1.208355E-005	0.0002294	9
	23	63	1516.544	81.38683	-196.1419	1	212.3569	-67.46455	-8.624143E-006	8.512178E-005	9
	24	66	1193.986	87.85429	-243.8152	1	259.1606	-70.18431	3.24872E-006	-0.0002997	9
	25	68	946.5144	94.39767	-301.5634	1	315.9927	-72.61844	3.306014E-006	-0.0003208	9
	26	70	751.7689	104.668	-372.9401	1	387.3496	-74.32288	3.112608E-006	-0.0003002	9
	27	73	597.4265	115.5103	-457.6396	1	471.9922	-75.83416	1.183986E-006	-9.428384E-005	8
	28	75	477.4305	128.5578	-561.8491	1	576.3692	-77.1119	4.449689E-007	0.0006484	8
	29	77	376.6741	145.9481	-698.3965	1	713.4834	-78.19643	4.353693E-007	0.000648	8
	30	80	298.2954	167.1357	-865.4886	1	881.4788	-79.07008	4.421663E-007	0.0006521	8
	31	82	237.7717	192.5282	-1066.178	1	1083.422	-79.76396	4.391891E-007	0.0006501	8
	32	85	189.0121	224.3719	-1317.123	1	1336.097	-80.33247	4.433348E-007	0.0006459	8
	33	87	150.2404	264.1261	-1627.205	1	1648.502	-80.78022	4.528844E-007	0.0006449	8
	34	89	119.1737	314.1629	-2013.656	1	2038.016	-81.13242	4.476601E-007	0.0006505	8
	35	92	95.0169	375.7206	-2482.187	1	2510.462	-81.39266	4.44634E-007	0.0006545	8
	36	94	75.60484	453.4096	-3064.534	1	3097.895	-81.58392	4.523507E-007	0.0006563	8
	37	97	54.50582	605.5266	-4141.309	1	4185.344	-81.68137	4.544576E-007	0.0006446	8
	38	99	45.95588	708.8566	-4859.162	1	4910.594	-81.70021	5.69142E-008	0.0006331	7
	39	102	37.20238	860.7385	-5892.505	1	5955.039	-81.68938	5.265696E-008	0.0006302	7
	40	104	30.04808	1058.167	-7176.824	1	7254.414	-81.61261	4.6954E-008	0.0006271	7
	41	106	23.91582	1312.185	-8840.809	1	8937.657	-81.55759	4.822939E-008	0.0006198	7
	42	109	18.60119	1669.373	-11102.2	1	11227.01	-81.44884	5.295118E-008	0.0006364	7
	43	111	15.02404	2067.357	-13491.13	1	13648.61	-81.28786	5.333986E-008	0.0006718	7
	44	114	12.01923	2590.322	-16523.41	1	16725.22	-81.09044	5.260156E-008	0.0006213	7
	45	116	9.450605	3295.325	-20550.09	1	20812.62	-80.88985	5.449908E-008	0.0006164	7
	46	119	7.512019	4231.618	-25319.17	1	25670.35	-80.5118	5.650315E-008	0.0006147	7
	47	122	5.978954	5397.915	-31135.68	1	31600.13	-80.16454	5.732543E-008	0.0006277	7
	48	126	4.734848	7054.746	-38477.54	1	39118.92	-79.61037	6.071267E-008	0.0006266	7
	49	129	3.75601	9294.699	-47296.9	1	48201.54	-78.88202	1.055334E-008	0.0006616	6
	50	135	3.004808	12152.16	-57648.13	1	58915.04	-78.09639	1.133381E-008	0.0006428	6
	51	141	2.372217	16226.41	-70915.96	1	72748.68	-77.11191	1.056884E-008	0.0006317	6
	52	145	1.878005	21997.02	-86846.66	1	89589.13	-75.78671	9.890025E-009	0.0006694	6
	53	150	1.512097	29127.84	-104296.2	1	108287.2	-74.39602	1.03938E-008	0.0005552	6
	54	155	1.201923	39401.88	-126020	1	132036.1	-72.63743	9.610171E-009	0.0006884	6
	55	162	0.956633	53130.97	-150796	1	159882.2	-70.59076	8.85398E-009	2.219004E-005	6
