EXPLAIN
TAG	EISPOT
TITLE	LABEL	Potentiostatic EIS	Test Identifier
DATE	LABEL	9/15/2020	Date
TIME	LABEL	1:34:16	Time
NOTES	NOTES	1	Notes...
	
PSTAT	PSTAT	REF3000-16137	Potentiostat
VDC	POTEN	0.00000E+000	T	DC Voltage (V)
FREQINIT	QUANT	3.00000E+005	Initial Freq. (Hz)
FREQFINAL	QUANT	1.00000E+000	Final Freq. (Hz)
PTSPERDEC	QUANT	1.00000E+001	Points/decade
VAC	QUANT	5.00000E+001	AC Voltage (mV rms)
AREA	QUANT	1.00000E+000	Sample Area (cm^2)
SPEED	SELECTOR	2	Optimize for:
ZGUESS	QUANT	1.00000E+003	Estimated Z (ohms)
EOC	QUANT	0	Open Circuit (V)
SEQUENCER	TOGGLE	TRUE	Run as Sequence
PSTATMODEL	IQUANT	5	Pstat Model
PSTATSECTION	LABEL	REF3000-16137	Pstat Section
PSTATSERIALNO	LABEL	16137	Pstat Serial Number
CTRLMODE	IQUANT	1	Control Mode
IESTAB	IQUANT	0	I/E Stability
CASPEED	IQUANT	1	Control Amp Speed
CONVENTION	IQUANT	1	Current Convention
ICHRANGE	IQUANT	2	Ich Range
ICHRANGEMODE	TOGGLE	F	Ich Auto Range
ICHOFFSETENABLE	TOGGLE	T	Ich Offset Enable
ICHOFFSET	QUANT	0	Ich Offset (V)
ICHFILTER	IQUANT	3	Ich Filter
VCHRANGE	IQUANT	2	Vch Range
VCHRANGEMODE	TOGGLE	F	Vch Auto Range
VCHOFFSETENABLE	TOGGLE	T	Vch Offset Enable
VCHOFFSET	QUANT	0	Vch Offset (V)
VCHFILTER	IQUANT	3	Vch Filter
ACHRANGE	IQUANT	2	Ach Range
ACHOFFSETENABLE	TOGGLE	F	Ach Offset Enable
ACHOFFSET	QUANT	0	Ach Offset (V)
ACHFILTER	IQUANT	3	Ach Filter
IERANGELOWERLIMIT	IQUANT	2	I/E Range Lower Limit
IERANGEMODE	TOGGLE	F	I/E AutoRange
IERANGE	IQUANT	11	I/E Range
POSFEEDENABLE	TOGGLE	F	Positive Feedback IR Comp
POSFEEDRESISTANCE	QUANT	0	Positive Feedback Resistance (ohm)
ACHSELECT	IQUANT	0	Ach Select
CABLEID	IQUANT	13	Cable ID
DCCALDATE	LABEL	7/31/2020	DC Calibration Date
ACCALDATE	LABEL	7/31/2020	AC Calibration Date
THERMOSELECT	IQUANT	1	Thermo Select
FRAMEWORKVERSION	QUANT	6.33	Framework Version
INSTRUMENTVERSION	LABEL	3.50	Instrument Version
COMPLIANCEVOLTAGE	IQUANT	0	Compliance Voltage
ZCURVE	TABLE
	Pt	Time	Freq	Zreal	Zimag	Zsig	Zmod	Zphz	Idc	Vdc	IERange
	#	s	Hz	ohm	ohm	V	ohm	°	A	V	#
	0	7	300046.9	65.1606	-2.718405	1	65.21728	-2.388911	8.60184E-006	-0.0012002	9
	1	10	238359.4	65.65144	-3.851781	1	65.76433	-3.357704	6.302999E-005	-0.0026498	9
	2	13	189328.1	66.4435	-5.397815	1	66.6624	-4.644462	-1.026784E-006	0.0006738	9
	3	16	150421.9	67.33299	-6.748558	1	67.67034	-5.723448	-9.177734E-006	-0.0008749	9
	4	18	119484.4	68.21484	-8.179512	1	68.70348	-6.837583	-1.097102E-005	0.0008363	9
	5	21	94921.88	69.30118	-9.342587	1	69.92809	-7.677833	1.23263E-005	5.598179E-005	9
	6	23	75421.88	70.3839	-10.98535	1	71.23603	-8.871015	-1.267491E-005	0.0001281	9
	7	26	59859.37	71.64794	-12.77795	1	72.77846	-10.11202	1.646694E-005	-0.0006332	9
	8	28	47578.12	72.87086	-14.77349	1	74.35334	-11.46054	1.922484E-005	-0.0002661	9
	9	31	37828.12	74.31334	-17.05098	1	76.2444	-12.92267	3.919953E-006	0.000311	9
	10	34	30046.88	75.71062	-19.66139	1	78.22192	-14.55765	-1.511518E-005	0.0007172	9
	11	36	23859.38	77.07934	-22.84688	1	80.39406	-16.51021	-1.943623E-005	0.0005217	9
	12	38	18984.38	78.49561	-26.66464	1	82.90093	-18.76241	-1.439539E-005	0.0007796	9
	13	41	15046.87	79.94318	-31.5944	1	85.95998	-21.56446	-1.814189E-005	0.0005818	9
	14	43	11953.13	81.38336	-37.55704	1	89.63137	-24.77252	1.195973E-005	0.000145	9
	15	45	9515.62	82.90596	-45.04615	1	94.35335	-28.51702	3.088576E-006	0.0003632	9
	16	48	7546.875	84.58444	-54.63478	1	100.695	-32.85923	-1.473615E-005	0.0007171	9
	17	50	5928.309	86.6104	-66.98957	1	109.4941	-37.72047	-1.698175E-005	0.0004822	9
	18	52	4733.456	88.83588	-81.40675	1	120.4943	-42.50129	1.702065E-005	-0.0006203	9
	19	55	3796.875	91.26814	-99.0868	1	134.7148	-47.35205	-1.816024E-005	0.0005824	9
	20	57	2987.132	94.56213	-122.7754	1	154.9703	-52.39639	1.636851E-005	-0.0005885	9
	21	59	2390.625	98.217	-150.1346	1	179.4073	-56.80758	2.184846E-005	-0.0005064	9
	22	62	1884.191	102.8106	-186.5228	1	212.9807	-61.13661	2.156004E-005	-0.0004111	9
	23	64	1516.544	108.326	-226.8141	1	251.3547	-64.47094	1.686089E-005	-0.0006045	9
	24	66	1193.986	115.4204	-282.3465	1	305.0269	-67.76575	2.266664E-005	-0.000443	9
	25	69	946.5144	123.7319	-349.009	1	370.293	-70.47939	-1.510362E-005	0.0003943	9
	26	71	751.7689	134.2893	-431.481	1	451.8954	-72.71235	3.329808E-006	0.0004064	9
	27	74	597.4265	146.9298	-529.4851	1	549.4933	-74.4909	-3.901154E-006	0.0021853	8
	28	76	477.4305	162.4857	-650.5106	1	670.4965	-75.97552	3.679528E-007	0.0006467	8
	29	78	376.6741	182.3985	-808.8627	1	829.1732	-77.29236	3.218455E-007	0.0006991	8
	30	80	298.2954	206.5715	-1002.583	1	1023.643	-78.35774	3.694904E-007	0.0006499	8
	31	83	237.7717	235.497	-1235.317	1	1257.564	-79.20682	3.57834E-007	0.0006477	8
	32	85	189.0121	271.5912	-1526.265	1	1550.241	-79.91012	3.517112E-007	0.0006471	8
	33	88	150.2404	316.0469	-1885.968	1	1912.266	-80.48688	3.670058E-007	0.0006508	8
	34	90	119.1737	371.4655	-2335.726	1	2365.08	-80.96356	3.712889E-007	0.0006486	8
	35	92	95.0169	439.7268	-2878.964	1	2912.352	-81.31588	3.77081E-007	0.0006501	8
	36	95	75.60484	524.4982	-3554.801	1	3593.287	-81.60677	3.757554E-007	0.0006474	8
	37	97	54.50582	685.3007	-4821.917	1	4870.372	-81.91118	3.114268E-008	0.0006203	7
	38	100	45.95588	792.879	-5643.016	1	5698.446	-82.00195	4.062901E-008	0.0006318	7
	39	102	37.20238	953.015	-6858.218	1	6924.117	-82.08886	3.842309E-008	0.0006249	7
	40	105	30.04808	1151.42	-8350.921	1	8429.926	-82.14959	3.542172E-008	0.0006194	7
	41	107	23.91582	1411.981	-10311.49	1	10407.72	-82.20283	3.244762E-008	0.0006198	7
	42	110	18.60119	1773.021	-12972.24	1	13092.85	-82.21715	3.6933E-008	0.0006208	7
	43	112	15.02404	2177.89	-15817.81	1	15967.04	-82.16047	4.117794E-008	0.000641	7
	44	114	12.01923	2703.656	-19422.9	1	19610.17	-82.07539	3.577279E-008	0.0006165	7
	45	117	9.450605	3436.677	-24254.01	1	24496.28	-81.93515	3.635972E-008	0.0006301	7
	46	119	7.512019	4344.276	-29941.21	1	30254.73	-81.74436	4.15212E-008	0.0006196	7
	47	122	5.978954	5515.263	-36897.66	1	37307.57	-81.49868	4.10223E-008	0.0006283	7
	48	126	4.734848	7180.352	-45719.67	1	46280.08	-81.07451	6.22113E-009	0.000672	6
	49	130	3.75601	9247.114	-56378.12	1	57131.44	-80.68531	4.729552E-009	0.0006549	6
	50	135	3.004808	11868.83	-68919.65	1	69934.16	-80.22878	5.854079E-009	0.0006496	6
	51	142	2.372217	15625.14	-85118.4	1	86540.66	-79.59805	5.167973E-009	0.0006525	6
	52	146	1.878005	20631.79	-104970.5	1	106978.9	-78.88035	4.09299E-009	0.0006559	6
	53	151	1.512097	26429.09	-126753.1	1	129479.1	-78.22209	5.170404E-009	0.0006043	6
	54	156	1.201923	35012.4	-154997.7	1	158903	-77.2711	4.35137E-009	0.0006514	6
	55	162	0.956633	45919.97	-188205.8	1	193726.7	-76.28841	4.31382E-009	2.279798E-005	6
