EXPLAIN
TAG	EISPOT
TITLE	LABEL	Potentiostatic EIS	Test Identifier
DATE	LABEL	9/15/2020	Date
TIME	LABEL	5:30:30	Time
NOTES	NOTES	1	Notes...
	
PSTAT	PSTAT	REF3000-16137	Potentiostat
VDC	POTEN	0.00000E+000	T	DC Voltage (V)
FREQINIT	QUANT	3.00000E+005	Initial Freq. (Hz)
FREQFINAL	QUANT	1.00000E+000	Final Freq. (Hz)
PTSPERDEC	QUANT	1.00000E+001	Points/decade
VAC	QUANT	5.00000E+001	AC Voltage (mV rms)
AREA	QUANT	1.00000E+000	Sample Area (cm^2)
SPEED	SELECTOR	2	Optimize for:
ZGUESS	QUANT	1.00000E+003	Estimated Z (ohms)
EOC	QUANT	0	Open Circuit (V)
SEQUENCER	TOGGLE	TRUE	Run as Sequence
PSTATMODEL	IQUANT	5	Pstat Model
PSTATSECTION	LABEL	REF3000-16137	Pstat Section
PSTATSERIALNO	LABEL	16137	Pstat Serial Number
CTRLMODE	IQUANT	1	Control Mode
IESTAB	IQUANT	0	I/E Stability
CASPEED	IQUANT	1	Control Amp Speed
CONVENTION	IQUANT	1	Current Convention
ICHRANGE	IQUANT	2	Ich Range
ICHRANGEMODE	TOGGLE	F	Ich Auto Range
ICHOFFSETENABLE	TOGGLE	T	Ich Offset Enable
ICHOFFSET	QUANT	0	Ich Offset (V)
ICHFILTER	IQUANT	3	Ich Filter
VCHRANGE	IQUANT	2	Vch Range
VCHRANGEMODE	TOGGLE	F	Vch Auto Range
VCHOFFSETENABLE	TOGGLE	T	Vch Offset Enable
VCHOFFSET	QUANT	0	Vch Offset (V)
VCHFILTER	IQUANT	3	Vch Filter
ACHRANGE	IQUANT	2	Ach Range
ACHOFFSETENABLE	TOGGLE	F	Ach Offset Enable
ACHOFFSET	QUANT	0	Ach Offset (V)
ACHFILTER	IQUANT	3	Ach Filter
IERANGELOWERLIMIT	IQUANT	2	I/E Range Lower Limit
IERANGEMODE	TOGGLE	F	I/E AutoRange
IERANGE	IQUANT	11	I/E Range
POSFEEDENABLE	TOGGLE	F	Positive Feedback IR Comp
POSFEEDRESISTANCE	QUANT	0	Positive Feedback Resistance (ohm)
ACHSELECT	IQUANT	0	Ach Select
CABLEID	IQUANT	13	Cable ID
DCCALDATE	LABEL	7/31/2020	DC Calibration Date
ACCALDATE	LABEL	7/31/2020	AC Calibration Date
THERMOSELECT	IQUANT	1	Thermo Select
FRAMEWORKVERSION	QUANT	6.33	Framework Version
INSTRUMENTVERSION	LABEL	3.50	Instrument Version
COMPLIANCEVOLTAGE	IQUANT	0	Compliance Voltage
ZCURVE	TABLE
	Pt	Time	Freq	Zreal	Zimag	Zsig	Zmod	Zphz	Idc	Vdc	IERange
	#	s	Hz	ohm	ohm	V	ohm	°	A	V	#
	0	14	300046.9	2281.662	-1564.542	1	2766.545	-34.43853	-8.732574E-005	0.002082	9
	1	35	238359.4	2563.049	-1429.803	1	2934.886	-29.15506	2.834164E-005	-0.0020006	9
	2	51	189328.1	2775.037	-1282.146	1	3056.915	-24.79828	-2.170977E-005	0.0011889	9
	3	60	150421.9	2970.643	-1073.858	1	3158.78	-19.87442	1.725637E-006	0.0016214	9
	4	68	119484.4	3170.076	-844.7288	1	3280.693	-14.92087	-7.965974E-006	0.0158805	8
	5	75	94921.88	3266.277	-739.4465	1	3348.932	-12.75607	2.396013E-005	-0.0048517	8
	6	82	75421.88	3330.351	-644.1807	1	3392.08	-10.94737	2.484184E-005	-0.0067355	8
	7	88	59859.37	3387.304	-600.3828	1	3440.1	-10.05101	2.88178E-005	-0.0008355	9
	8	95	47578.12	3454.657	-528.1517	1	3494.796	-8.69214	-2.310077E-005	0.0004665	9
	9	102	37828.12	3496.644	-482.611	1	3529.792	-7.858382	-2.642324E-005	0.0008686	9
	10	110	30046.88	3527.502	-402.7451	1	3550.419	-6.51342	2.501379E-005	-0.0068685	8
	11	117	23859.38	3563.408	-379.4175	1	3583.551	-6.077728	1.653704E-005	0.0000973	8
	12	123	18984.38	3621.19	-380.5325	1	3641.13	-5.998905	2.512597E-005	-0.0068314	8
	13	128	15046.87	3655.846	-388.2683	1	3676.406	-6.06236	6.821838E-006	-0.0069379	8
	14	133	11953.13	3704.55	-391.6335	1	3725.194	-6.034716	2.516138E-005	-0.0067818	8
	15	139	9515.62	3731.692	-410.7608	1	3754.23	-6.281466	-1.776979E-005	0.0104136	8
	16	144	7546.875	3788.46	-440.3264	1	3813.963	-6.629646	-9.389415E-006	-0.0017131	8
	17	149	5928.309	3846.706	-448.3352	1	3872.744	-6.647855	2.375158E-005	-0.0081692	8
	18	155	4733.456	3902.595	-564.8011	1	3943.254	-8.234926	-2.295676E-005	0.0004478	9
	19	160	3796.875	3993.098	-611.2639	1	4039.613	-8.703282	2.039038E-005	-0.0087095	8
	20	165	2987.132	4070.295	-666.5647	1	4124.514	-9.300387	1.443252E-005	-0.008306	8
	21	171	2390.625	4125.116	-751.3583	1	4192.984	-10.32283	-2.208525E-005	0.005092	8
	22	176	1884.191	4285.26	-827.4114	1	4364.409	-10.92837	-1.508674E-005	0.0009122	8
	23	181	1516.544	4344.477	-962.381	1	4449.792	-12.49037	-1.630009E-006	-0.0044211	8
	24	187	1193.986	4458.004	-1072.961	1	4585.308	-13.53267	4.907834E-006	-0.0047653	7
	25	191	946.5144	4597.971	-1311.352	1	4781.315	-15.91827	-2.186035E-005	0.0099902	8
	26	194	751.7689	4655.048	-1548.981	1	4905.998	-18.40501	-2.199205E-005	0.0099542	8
	27	198	597.4265	4624.812	-1599.831	1	4893.705	-19.08171	-9.110537E-007	-0.0046601	8
	28	202	477.4305	4827.877	-1904.484	1	5189.938	-21.52806	-7.166706E-008	0.0006254	7
	29	204	376.6741	4918.813	-2272.506	1	5418.395	-24.79707	-7.132863E-008	0.0006249	7
	30	206	298.2954	5012.051	-2731.822	1	5708.196	-28.59262	-7.107516E-008	0.0006599	7
	31	209	237.7717	5111.488	-3294.108	1	6080.992	-32.79983	-6.702813E-008	0.0005724	7
	32	211	189.0121	5224.137	-4007.574	1	6584.243	-37.49277	-7.466219E-008	0.000659	7
	33	214	150.2404	5352.939	-4898.645	1	7256.079	-42.46263	-7.609029E-008	0.0006582	7
	34	216	119.1737	5506.672	-6022.857	1	8160.775	-47.56346	-7.457034E-008	0.0006674	7
	35	218	95.0169	5683.253	-7383.163	1	9317.213	-52.41241	-7.587045E-008	0.0006548	7
	36	221	75.60484	5901.916	-9088.058	1	10836.3	-56.99972	-7.477587E-008	0.000636	7
	37	224	54.50582	6300.795	-12257.71	1	13782.29	-62.7956	-7.100852E-008	0.0005874	7
	38	226	45.95588	6557.513	-14339.29	1	15767.57	-65.42487	-6.993194E-008	0.000644	7
	39	228	37.20238	6938.158	-17418.03	1	18749.02	-68.28103	-7.04753E-008	0.0006484	7
	40	231	30.04808	7402.797	-21211.9	1	22466.56	-70.76139	-6.833397E-008	0.0006158	7
	41	233	23.91582	8006.395	-26180.6	1	27377.48	-72.99564	-6.797482E-008	0.0005992	7
	42	236	18.60119	8855.125	-33024.22	1	34190.82	-74.98978	-7.545415E-008	0.0006255	7
	43	238	15.02404	9721	-40228.87	1	41386.71	-76.41532	-6.819396E-008	0.0006274	7
	44	240	12.01923	10890.17	-49529.79	1	50712.88	-77.59962	-7.471394E-009	0.0006273	6
	45	243	9.450605	12400.45	-61882.13	1	63112.35	-78.66868	-8.180222E-009	0.0006989	6
	46	245	7.512019	14256.18	-76485.5	1	77802.77	-79.44176	-8.12804E-009	0.0007175	6
	47	248	5.978954	16523.42	-94420.09	1	95855	-80.07381	-7.639788E-009	0.0006336	6
	48	252	4.734848	19429.61	-117147.3	1	118747.6	-80.58286	-7.541267E-009	0.0006251	6
	49	255	3.75601	23088.51	-145079.6	1	146905.3	-80.95757	-7.222845E-009	0.0006461	6
	50	260	3.004808	27519.92	-178187.9	1	180300.5	-81.22042	-8.228004E-009	0.0006432	6
	51	267	2.372217	33295.32	-221685.1	1	224171.5	-81.45848	-8.140086E-009	0.0005899	6
	52	271	1.878005	40468.17	-274789.5	1	277753.4	-81.62228	-8.060242E-009	0.0006711	6
	53	276	1.512097	49002.89	-334752.8	1	338320.4	-81.67189	-8.160137E-009	0.0005972	6
	54	281	1.201923	59446.77	-414326.1	1	418569	-81.83503	-8.041454E-009	0.0006925	6
	55	287	0.956633	72863.38	-511404.8	1	516569.3	-81.89125	-9.515063E-010	5.544852E-006	5
