EXPLAIN
TAG	EISPOT
TITLE	LABEL	Potentiostatic EIS	Test Identifier
DATE	LABEL	9/15/2020	Date
TIME	LABEL	2:25:37	Time
NOTES	NOTES	1	Notes...
	
PSTAT	PSTAT	REF3000-16137	Potentiostat
VDC	POTEN	0.00000E+000	T	DC Voltage (V)
FREQINIT	QUANT	3.00000E+005	Initial Freq. (Hz)
FREQFINAL	QUANT	1.00000E+000	Final Freq. (Hz)
PTSPERDEC	QUANT	1.00000E+001	Points/decade
VAC	QUANT	5.00000E+001	AC Voltage (mV rms)
AREA	QUANT	1.00000E+000	Sample Area (cm^2)
SPEED	SELECTOR	2	Optimize for:
ZGUESS	QUANT	1.00000E+003	Estimated Z (ohms)
EOC	QUANT	0	Open Circuit (V)
SEQUENCER	TOGGLE	TRUE	Run as Sequence
PSTATMODEL	IQUANT	5	Pstat Model
PSTATSECTION	LABEL	REF3000-16137	Pstat Section
PSTATSERIALNO	LABEL	16137	Pstat Serial Number
CTRLMODE	IQUANT	1	Control Mode
IESTAB	IQUANT	0	I/E Stability
CASPEED	IQUANT	1	Control Amp Speed
CONVENTION	IQUANT	1	Current Convention
ICHRANGE	IQUANT	2	Ich Range
ICHRANGEMODE	TOGGLE	F	Ich Auto Range
ICHOFFSETENABLE	TOGGLE	T	Ich Offset Enable
ICHOFFSET	QUANT	0	Ich Offset (V)
ICHFILTER	IQUANT	3	Ich Filter
VCHRANGE	IQUANT	2	Vch Range
VCHRANGEMODE	TOGGLE	F	Vch Auto Range
VCHOFFSETENABLE	TOGGLE	T	Vch Offset Enable
VCHOFFSET	QUANT	0	Vch Offset (V)
VCHFILTER	IQUANT	3	Vch Filter
ACHRANGE	IQUANT	2	Ach Range
ACHOFFSETENABLE	TOGGLE	F	Ach Offset Enable
ACHOFFSET	QUANT	0	Ach Offset (V)
ACHFILTER	IQUANT	3	Ach Filter
IERANGELOWERLIMIT	IQUANT	2	I/E Range Lower Limit
IERANGEMODE	TOGGLE	F	I/E AutoRange
IERANGE	IQUANT	11	I/E Range
POSFEEDENABLE	TOGGLE	F	Positive Feedback IR Comp
POSFEEDRESISTANCE	QUANT	0	Positive Feedback Resistance (ohm)
ACHSELECT	IQUANT	0	Ach Select
CABLEID	IQUANT	13	Cable ID
DCCALDATE	LABEL	7/31/2020	DC Calibration Date
ACCALDATE	LABEL	7/31/2020	AC Calibration Date
THERMOSELECT	IQUANT	1	Thermo Select
FRAMEWORKVERSION	QUANT	6.33	Framework Version
INSTRUMENTVERSION	LABEL	3.50	Instrument Version
COMPLIANCEVOLTAGE	IQUANT	0	Compliance Voltage
ZCURVE	TABLE
	Pt	Time	Freq	Zreal	Zimag	Zsig	Zmod	Zphz	Idc	Vdc	IERange
	#	s	Hz	ohm	ohm	V	ohm	°	A	V	#
	0	7	300046.9	98.3229	-4.599524	1	98.4304	-2.678331	-1.191661E-005	0.0006836	9
	1	10	238359.4	99.2748	-6.12573	1	99.4637	-3.530945	7.091563E-005	-0.0025278	9
	2	13	189328.1	100.2598	-7.811627	1	100.5637	-4.455132	-7.563306E-005	0.0019418	9
	3	16	150421.9	101.2717	-9.393415	1	101.7064	-5.299283	8.381795E-006	-0.0013926	9
	4	18	119484.4	102.5863	-11.04055	1	103.1787	-6.142649	-1.080926E-005	0.0009671	9
	5	21	94921.88	103.9254	-12.6667	1	104.6945	-6.94908	3.082876E-006	0.0004739	9
	6	24	75421.88	105.4978	-14.77166	1	106.5269	-7.970659	5.625209E-006	-0.0005276	9
	7	26	59859.37	107.2408	-17.06424	1	108.5899	-9.041158	-2.081206E-005	0.0005041	9
	8	29	47578.12	109.1097	-19.59387	1	110.8551	-10.18064	2.170886E-005	-0.0007003	9
	9	31	37828.12	111.1268	-22.28681	1	113.3396	-11.34039	2.435794E-005	-0.000503	9
	10	34	30046.88	113.2194	-25.41844	1	116.0376	-12.65345	-1.181881E-005	0.0008345	9
	11	36	23859.38	115.3732	-29.21373	1	119.0143	-14.20925	-1.018613E-005	-1.878315E-005	9
	12	38	18984.38	117.5962	-33.5251	1	122.2816	-15.91214	-1.97773E-005	0.0008017	9
	13	41	15046.87	119.8681	-39.12523	1	126.0918	-18.07681	2.175722E-005	-0.0006783	9
	14	43	11953.13	121.974	-45.86071	1	130.3106	-20.60564	-2.012266E-005	0.0006677	9
	15	45	9515.62	124.1392	-54.25939	1	135.4792	-23.60943	1.100988E-005	0.0001648	9
	16	48	7546.875	126.4973	-65.08012	1	142.2567	-27.22484	-2.407696E-006	-0.0002541	9
	17	50	5928.309	129.1332	-79.08025	1	151.4235	-31.483	1.213065E-005	-0.0006369	9
	18	52	4733.456	131.7747	-95.7794	1	162.9057	-36.01123	-1.384981E-005	0.0001766	9
	19	55	3796.875	134.908	-115.9985	1	177.9208	-40.69006	-2.00097E-005	0.0007611	9
	20	57	2987.132	138.9463	-143.1666	1	199.5063	-45.85705	2.396743E-005	-0.0004591	9
	21	59	2390.625	142.957	-174.6881	1	225.7269	-50.70463	-1.909134E-005	0.0004741	9
	22	62	1884.191	149.1467	-216.0482	1	262.5292	-55.38114	5.206998E-006	-0.0004924	9
	23	64	1516.544	155.1723	-263.566	1	305.8521	-59.51291	1.906781E-005	-0.0001287	9
	24	66	1193.986	163.5508	-326.7636	1	365.4084	-63.41124	2.410828E-005	-0.0004472	9
	25	69	946.5144	173.9284	-404.7355	1	440.5246	-66.74519	1.89722E-005	-0.0007397	9
	26	71	751.7689	184.2594	-498.0749	1	531.0651	-69.69839	-5.685749E-006	0.0024725	8
	27	74	597.4265	198.8885	-614.0612	1	645.4671	-72.05337	6.677019E-006	-0.0013956	8
	28	76	477.4305	217.0195	-754.324	1	784.9217	-73.94944	2.479279E-007	0.0006451	8
	29	78	376.6741	239.867	-938.0347	1	968.218	-75.65614	2.592903E-007	0.0006413	8
	30	81	298.2954	267.6085	-1162.759	1	1193.157	-77.0391	2.684141E-007	0.0006397	8
	31	83	237.7717	300.6867	-1432.856	1	1464.066	-78.14838	2.518545E-007	0.000642	8
	32	85	189.0121	341.8299	-1770.648	1	1803.342	-79.07327	2.67626E-007	0.0006435	8
	33	88	150.2404	392.6338	-2188.206	1	2223.152	-79.82756	2.589801E-007	0.0006422	8
	34	90	119.1737	456.3594	-2710.379	1	2748.53	-80.44248	2.677621E-007	0.0006443	8
	35	93	95.0169	532.7609	-3341.853	1	3384.053	-80.94208	2.589912E-007	0.0006392	8
	36	95	75.60484	628.2853	-4127.765	1	4175.307	-81.34546	2.617192E-007	0.0006435	8
	37	98	54.50582	811.8444	-5599.54	1	5658.086	-81.7505	1.979245E-008	0.0006108	7
	38	100	45.95588	928.1284	-6556.872	1	6622.234	-81.94328	2.722383E-008	0.0006167	7
	39	103	37.20238	1103.523	-7966.012	1	8042.084	-82.11308	2.375464E-008	0.0006237	7
	40	105	30.04808	1326.269	-9716.13	1	9806.23	-82.22706	2.197792E-008	0.0006138	7
	41	107	23.91582	1621.328	-11989.89	1	12099.02	-82.29891	2.217856E-008	0.0006122	7
	42	110	18.60119	2024.481	-15117.99	1	15252.93	-82.37278	2.378798E-008	0.0006241	7
	43	112	15.02404	2448.46	-18400.9	1	18563.09	-82.42064	2.799385E-008	0.000626	7
	44	114	12.01923	3003.131	-22594.91	1	22793.61	-82.42908	2.481535E-008	0.0006243	7
	45	117	9.450605	3741.462	-28200.72	1	28447.84	-82.44256	2.340612E-008	0.0006331	7
	46	119	7.512019	4638.434	-34886.19	1	35193.2	-82.42643	2.77706E-008	0.0006239	7
	47	122	5.978954	5765.301	-43001.85	1	43386.61	-82.36383	2.486085E-008	0.0006238	7
	48	125	4.734848	7299.451	-53384.05	1	53880.79	-82.21397	3.065353E-009	0.0006669	6
	49	129	3.75601	9164.638	-66045.7	1	66678.52	-82.09997	3.833334E-009	0.000671	6
	50	134	3.004808	11489.56	-81013.27	1	81823.95	-81.92796	2.821002E-009	0.0006936	6
	51	141	2.372217	14721.38	-100484.2	1	101556.9	-81.66521	2.577142E-009	0.0006861	6
	52	145	1.878005	19036.97	-124563.7	1	126010	-81.31077	3.230185E-009	0.0006488	6
	53	150	1.512097	23856.16	-151627.2	1	153492.5	-81.05871	2.743028E-009	0.0007567	6
	54	155	1.201923	30885.6	-186717	1	189254.2	-80.60753	3.323314E-009	0.0006483	6
	55	161	0.956633	39568.67	-229127.5	1	232519	-80.20207	2.157199E-009	5.162564E-005	6
