EXPLAIN
TAG	EISPOT
TITLE	LABEL	Potentiostatic EIS	Test Identifier
DATE	LABEL	9/15/2020	Date
TIME	LABEL	5:40:31	Time
NOTES	NOTES	1	Notes...
	
PSTAT	PSTAT	REF3000-16137	Potentiostat
VDC	POTEN	0.00000E+000	T	DC Voltage (V)
FREQINIT	QUANT	3.00000E+005	Initial Freq. (Hz)
FREQFINAL	QUANT	1.00000E+000	Final Freq. (Hz)
PTSPERDEC	QUANT	1.00000E+001	Points/decade
VAC	QUANT	5.00000E+001	AC Voltage (mV rms)
AREA	QUANT	1.00000E+000	Sample Area (cm^2)
SPEED	SELECTOR	2	Optimize for:
ZGUESS	QUANT	1.00000E+003	Estimated Z (ohms)
EOC	QUANT	0	Open Circuit (V)
SEQUENCER	TOGGLE	TRUE	Run as Sequence
PSTATMODEL	IQUANT	5	Pstat Model
PSTATSECTION	LABEL	REF3000-16137	Pstat Section
PSTATSERIALNO	LABEL	16137	Pstat Serial Number
CTRLMODE	IQUANT	1	Control Mode
IESTAB	IQUANT	0	I/E Stability
CASPEED	IQUANT	1	Control Amp Speed
CONVENTION	IQUANT	1	Current Convention
ICHRANGE	IQUANT	2	Ich Range
ICHRANGEMODE	TOGGLE	F	Ich Auto Range
ICHOFFSETENABLE	TOGGLE	T	Ich Offset Enable
ICHOFFSET	QUANT	0	Ich Offset (V)
ICHFILTER	IQUANT	3	Ich Filter
VCHRANGE	IQUANT	2	Vch Range
VCHRANGEMODE	TOGGLE	F	Vch Auto Range
VCHOFFSETENABLE	TOGGLE	T	Vch Offset Enable
VCHOFFSET	QUANT	0	Vch Offset (V)
VCHFILTER	IQUANT	3	Vch Filter
ACHRANGE	IQUANT	2	Ach Range
ACHOFFSETENABLE	TOGGLE	F	Ach Offset Enable
ACHOFFSET	QUANT	0	Ach Offset (V)
ACHFILTER	IQUANT	3	Ach Filter
IERANGELOWERLIMIT	IQUANT	2	I/E Range Lower Limit
IERANGEMODE	TOGGLE	F	I/E AutoRange
IERANGE	IQUANT	11	I/E Range
POSFEEDENABLE	TOGGLE	F	Positive Feedback IR Comp
POSFEEDRESISTANCE	QUANT	0	Positive Feedback Resistance (ohm)
ACHSELECT	IQUANT	0	Ach Select
CABLEID	IQUANT	13	Cable ID
DCCALDATE	LABEL	7/31/2020	DC Calibration Date
ACCALDATE	LABEL	7/31/2020	AC Calibration Date
THERMOSELECT	IQUANT	1	Thermo Select
FRAMEWORKVERSION	QUANT	6.33	Framework Version
INSTRUMENTVERSION	LABEL	3.50	Instrument Version
COMPLIANCEVOLTAGE	IQUANT	0	Compliance Voltage
ZCURVE	TABLE
	Pt	Time	Freq	Zreal	Zimag	Zsig	Zmod	Zphz	Idc	Vdc	IERange
	#	s	Hz	ohm	ohm	V	ohm	°	A	V	#
	0	14	300046.9	2461.408	-2416.275	1	3449.19	-44.46986	2.045119E-005	-0.0004907	9
	1	28	238359.4	2949.808	-2347.661	1	3769.997	-38.51521	1.897292E-005	-0.0022512	9
	2	42	189328.1	3448.376	-2115.377	1	4045.506	-31.52668	-2.163564E-005	0.0016064	9
	3	49	150421.9	3820.423	-2046.497	1	4334.026	-28.17675	-2.02552E-005	0.0011681	9
	4	57	119484.4	4250.162	-1626.735	1	4550.84	-20.94418	-5.671334E-005	0.0067329	8
	5	64	94921.88	4440.115	-1436.863	1	4666.819	-17.93207	2.204261E-005	-0.0027307	8
	6	72	75421.88	4632.712	-1233.835	1	4794.202	-14.91346	2.550111E-005	-0.0069869	8
	7	79	59859.37	4761.201	-1068.358	1	4879.593	-12.64702	2.456701E-005	-0.0049265	8
	8	87	47578.12	4873.625	-934.675	1	4962.442	-10.8565	-1.459282E-006	-0.0045851	8
	9	94	37828.12	5215.426	-366.8055	1	5228.309	-4.023038	-6.398891E-006	0.0192386	7
	10	97	30046.88	5211.444	-332.5297	1	5222.042	-3.650956	-6.233346E-006	0.0146454	7
	11	101	23859.38	5095.583	-623.9852	1	5133.646	-6.981459	-1.462863E-006	-0.0046623	8
	12	107	18984.38	5244.145	-347.4367	1	5255.642	-3.790438	6.841879E-006	-0.019926	7
	13	111	15046.87	5263.918	-367.4916	1	5276.73	-3.993529	6.339808E-006	-0.0230705	7
	14	114	11953.13	5305.972	-371.8699	1	5318.987	-4.009029	-2.433106E-006	0.0211824	7
	15	117	9515.62	5350.74	-431.1738	1	5368.084	-4.607059	-5.532365E-006	0.008158	7
	16	120	7546.875	5400.11	-473.4799	1	5420.828	-5.010861	5.208201E-006	-0.0237493	7
	17	123	5928.309	5467.908	-564.6121	1	5496.981	-5.895425	-4.612191E-007	0.0167816	7
	18	127	4733.456	5553.504	-619.924	1	5587.998	-6.369418	-5.166317E-006	0.0234082	7
	19	131	3796.875	5627.576	-690.4857	1	5669.778	-6.995048	-5.999313E-006	0.0223322	7
	20	136	2987.132	5718.365	-776.1653	1	5770.8	-7.729636	-6.443285E-006	0.019246	7
	21	140	2390.625	5818.689	-896.5204	1	5887.35	-8.759027	-5.493031E-006	0.0079952	7
	22	143	1884.191	5974.823	-1006.778	1	6059.052	-9.56468	-3.960145E-006	0.0231978	7
	23	147	1516.544	6067.074	-1144.961	1	6174.166	-10.68701	-2.251971E-006	-0.007172	7
	24	151	1193.986	6166.684	-1271.471	1	6296.398	-11.65021	-4.081539E-006	0.0003565	7
	25	156	946.5144	6338.583	-1488.859	1	6511.093	-13.21849	-6.361741E-006	0.0189666	7
	26	159	751.7689	6503.714	-1673.374	1	6715.54	-14.42896	-5.100144E-007	0.0167146	7
	27	161	597.4265	6611.778	-1885.745	1	6875.437	-15.91868	-2.176137E-006	-0.0071807	7
	28	164	477.4305	6725.657	-2176.007	1	7068.909	-17.92838	-8.09071E-008	0.0006185	7
	29	166	376.6741	6859.081	-2554.283	1	7319.246	-20.42505	-8.425181E-008	0.0006319	7
	30	169	298.2954	6986.835	-3023.417	1	7612.944	-23.39961	-8.313199E-008	0.0006605	7
	31	171	237.7717	7116.008	-3602.086	1	7975.75	-26.84829	-8.068206E-008	0.0006197	7
	32	173	189.0121	7254.595	-4338.247	1	8452.782	-30.87942	-7.194717E-008	0.0005921	7
	33	176	150.2404	7408.228	-5263.207	1	9087.529	-35.39205	-8.119004E-008	0.0006571	7
	34	178	119.1737	7584.828	-6432.943	1	9945.47	-40.30238	-8.064765E-008	0.0006659	7
	35	180	95.0169	7780.581	-7861.032	1	11060.44	-45.29469	-7.819402E-008	0.0005825	7
	36	183	75.60484	8016.521	-9650.26	1	12545.6	-50.28342	-8.13339E-008	0.000614	7
	37	186	54.50582	8436.524	-12992	1	15490.87	-57.00179	-7.841017E-008	0.0006543	7
	38	188	45.95588	8718.396	-15175.58	1	17501.67	-60.12256	-7.404692E-008	0.0006218	7
	39	191	37.20238	9121.923	-18424.13	1	20558.65	-63.65965	-7.214236E-008	0.0005661	7
	40	193	30.04808	9619.13	-22431.7	1	24407.15	-66.78944	-7.546833E-008	0.0006328	7
	41	195	23.91582	10262.7	-27686.98	1	29527.82	-69.66183	-7.876888E-008	0.0006148	7
	42	198	18.60119	11132.87	-34869.87	1	36603.94	-72.29333	-7.822963E-008	0.0006281	7
	43	200	15.02404	12101.89	-42570.18	1	44256.93	-74.13056	-8.468557E-009	0.0007073	6
	44	202	12.01923	13282.2	-52314.94	1	53974.71	-75.75422	-7.878358E-009	0.0006209	6
	45	205	9.450605	14910.91	-65381.12	1	67059.87	-77.15277	-8.629613E-009	0.0007071	6
	46	207	7.512019	16786.55	-80808.36	1	82533.5	-78.26469	-8.54819E-009	0.0007172	6
	47	210	5.978954	19163.81	-99813.2	1	101636.3	-79.13165	-8.621691E-009	0.0006993	6
	48	214	4.734848	22223.76	-123947.1	1	125923.7	-79.83486	-8.193679E-009	0.0006284	6
	49	218	3.75601	26029.15	-153534.2	1	155725	-80.37795	-8.136143E-009	0.0006759	6
	50	223	3.004808	30645.53	-188559.3	1	191033.4	-80.76874	-7.734472E-009	0.0005956	6
	51	230	2.372217	36635.93	-234648.4	1	237491.2	-81.12598	-8.454887E-009	0.0005904	6
	52	234	1.878005	44217.41	-291002.8	1	294343.1	-81.36008	-8.37927E-009	0.0006796	6
	53	239	1.512097	53351.89	-354707.9	1	358697.8	-81.44622	-8.667207E-009	0.0005821	6
	54	244	1.201923	64260.25	-438850.2	1	443530	-81.66946	-8.491998E-009	0.0006932	6
	55	250	0.956633	78541.95	-541967.6	1	547629.1	-81.7541	-1.017276E-009	1.804668E-005	5
