EXPLAIN
TAG	EISPOT
TITLE	LABEL	Potentiostatic EIS	Test Identifier
DATE	LABEL	9/15/2020	Date
TIME	LABEL	1:00:00	Time
NOTES	NOTES	1	Notes...
	
PSTAT	PSTAT	REF3000-16137	Potentiostat
VDC	POTEN	0.00000E+000	T	DC Voltage (V)
FREQINIT	QUANT	3.00000E+005	Initial Freq. (Hz)
FREQFINAL	QUANT	1.00000E+000	Final Freq. (Hz)
PTSPERDEC	QUANT	1.00000E+001	Points/decade
VAC	QUANT	5.00000E+001	AC Voltage (mV rms)
AREA	QUANT	1.00000E+000	Sample Area (cm^2)
SPEED	SELECTOR	2	Optimize for:
ZGUESS	QUANT	1.00000E+003	Estimated Z (ohms)
EOC	QUANT	0	Open Circuit (V)
SEQUENCER	TOGGLE	TRUE	Run as Sequence
PSTATMODEL	IQUANT	5	Pstat Model
PSTATSECTION	LABEL	REF3000-16137	Pstat Section
PSTATSERIALNO	LABEL	16137	Pstat Serial Number
CTRLMODE	IQUANT	1	Control Mode
IESTAB	IQUANT	0	I/E Stability
CASPEED	IQUANT	1	Control Amp Speed
CONVENTION	IQUANT	1	Current Convention
ICHRANGE	IQUANT	2	Ich Range
ICHRANGEMODE	TOGGLE	F	Ich Auto Range
ICHOFFSETENABLE	TOGGLE	T	Ich Offset Enable
ICHOFFSET	QUANT	0	Ich Offset (V)
ICHFILTER	IQUANT	3	Ich Filter
VCHRANGE	IQUANT	2	Vch Range
VCHRANGEMODE	TOGGLE	F	Vch Auto Range
VCHOFFSETENABLE	TOGGLE	T	Vch Offset Enable
VCHOFFSET	QUANT	0	Vch Offset (V)
VCHFILTER	IQUANT	3	Vch Filter
ACHRANGE	IQUANT	2	Ach Range
ACHOFFSETENABLE	TOGGLE	F	Ach Offset Enable
ACHOFFSET	QUANT	0	Ach Offset (V)
ACHFILTER	IQUANT	3	Ach Filter
IERANGELOWERLIMIT	IQUANT	2	I/E Range Lower Limit
IERANGEMODE	TOGGLE	F	I/E AutoRange
IERANGE	IQUANT	11	I/E Range
POSFEEDENABLE	TOGGLE	F	Positive Feedback IR Comp
POSFEEDRESISTANCE	QUANT	0	Positive Feedback Resistance (ohm)
ACHSELECT	IQUANT	0	Ach Select
CABLEID	IQUANT	13	Cable ID
DCCALDATE	LABEL	7/31/2020	DC Calibration Date
ACCALDATE	LABEL	7/31/2020	AC Calibration Date
THERMOSELECT	IQUANT	1	Thermo Select
FRAMEWORKVERSION	QUANT	6.33	Framework Version
INSTRUMENTVERSION	LABEL	3.50	Instrument Version
COMPLIANCEVOLTAGE	IQUANT	0	Compliance Voltage
ZCURVE	TABLE
	Pt	Time	Freq	Zreal	Zimag	Zsig	Zmod	Zphz	Idc	Vdc	IERange
	#	s	Hz	ohm	ohm	V	ohm	°	A	V	#
	0	7	300046.9	52.46939	-1.860907	1	52.50238	-2.031231	5.883816E-005	-0.0025474	9
	1	10	238359.4	53.03086	-3.162179	1	53.12506	-3.412452	-4.554259E-005	0.0005164	9
	2	13	189328.1	53.67527	-4.388185	1	53.85435	-4.673783	1.752148E-006	0.000487	9
	3	16	150421.9	54.39805	-5.666595	1	54.69239	-5.947	8.962879E-007	-0.0010024	9
	4	18	119484.4	55.12575	-6.862936	1	55.55131	-7.096583	-6.348479E-005	0.0022227	9
	5	21	94921.88	56.10904	-7.912573	1	56.66422	-8.026998	-2.002974E-006	0.000489	9
	6	23	75421.88	57.02484	-9.367261	1	57.78908	-9.328459	2.106175E-005	-0.0006759	9
	7	26	59859.37	58.01887	-10.96111	1	59.04519	-10.69841	-8.318622E-006	0.0005705	9
	8	28	47578.12	59.05611	-12.71375	1	60.40913	-12.14935	1.475415E-005	-0.0005664	9
	9	31	37828.12	60.13897	-14.76658	1	61.92533	-13.79554	2.002322E-005	-0.0005107	9
	10	34	30046.88	61.2501	-17.14214	1	63.60368	-15.6354	9.574926E-006	-0.0004836	9
	11	36	23859.38	62.36584	-20.08244	1	65.51949	-17.84909	2.041756E-005	-0.0002547	9
	12	38	18984.38	63.47844	-23.64533	1	67.73931	-20.43005	2.101938E-005	-0.0004973	9
	13	41	15046.87	64.59716	-28.15789	1	70.46744	-23.55238	1.314549E-005	7.427806E-005	9
	14	43	11953.13	65.82162	-33.68289	1	73.93932	-27.10018	2.060285E-005	-0.0005106	9
	15	45	9515.62	67.09897	-40.68813	1	78.47162	-31.23219	2.040326E-005	-0.0002488	9
	16	48	7546.875	68.56738	-49.48186	1	84.55731	-35.81622	-1.506963E-005	0.0003936	9
	17	50	5928.309	70.40507	-60.96131	1	93.12978	-40.88815	1.544601E-005	-0.0005456	9
	18	52	4733.456	72.38672	-74.35155	1	103.7689	-45.76715	-1.690816E-005	0.0005905	9
	19	55	3796.875	74.68966	-90.33104	1	117.2102	-50.41457	-1.559358E-005	0.0004814	9
	20	57	2987.132	77.7466	-112.1911	1	136.4968	-55.27868	4.111306E-006	0.0003405	9
	21	59	2390.625	81.16734	-137.1863	1	159.3995	-59.38898	-2.03046E-006	0.0005524	9
	22	62	1884.191	85.67896	-170.3802	1	190.71	-63.30358	-1.49023E-005	0.0003956	9
	23	64	1516.544	90.85757	-207.2771	1	226.3159	-66.3303	-3.581662E-006	-0.0001284	9
	24	66	1193.986	97.6009	-258.0807	1	275.9195	-69.28439	-1.577334E-005	0.0006543	9
	25	69	946.5144	105.5736	-319.178	1	336.1851	-71.69747	-2.653532E-006	0.0005781	9
	26	71	751.7689	115.5861	-393.2778	1	409.9117	-73.6217	9.324058E-006	-0.0004648	9
	27	73	597.4265	127.119	-484.1008	1	500.5126	-75.28699	3.475435E-006	0.0002712	8
	28	76	477.4305	141.3999	-594.4699	1	611.0552	-76.62032	4.271316E-007	0.0006505	8
	29	78	376.6741	160.2239	-738.8928	1	756.065	-77.76521	4.276964E-007	0.0006625	8
	30	80	298.2954	183.1656	-915.4669	1	933.6108	-78.68572	4.38295E-007	0.0006551	8
	31	83	237.7717	210.7972	-1127.563	1	1147.098	-79.41083	4.371579E-007	0.0006472	8
	32	85	189.0121	245.3996	-1392.537	1	1413.995	-80.00568	4.398195E-007	0.0006474	8
	33	87	150.2404	288.5373	-1719.935	1	1743.97	-80.47671	4.327168E-007	0.0006511	8
	34	90	119.1737	342.3887	-2129.154	1	2156.508	-80.86449	4.492807E-007	0.0006475	8
	35	92	95.0169	410.0964	-2622.67	1	2654.539	-81.11285	4.435738E-007	0.0006505	8
	36	95	75.60484	496.072	-3238.107	1	3275.885	-81.29012	4.4441E-007	0.0006454	8
	37	97	54.50582	658.1518	-4373.753	1	4422.995	-81.44247	4.415632E-007	0.0006517	8
	38	100	45.95588	779.1339	-5131.4	1	5190.213	-81.36636	5.292803E-008	0.0006255	7
	39	102	37.20238	953.241	-6230.033	1	6302.538	-81.30079	5.083074E-008	0.0006217	7
	40	105	30.04808	1173.7	-7562.11	1	7652.652	-81.17763	4.496956E-008	0.0006188	7
	41	107	23.91582	1473.29	-9315.146	1	9430.936	-81.01251	4.16401E-008	0.0006169	7
	42	109	18.60119	1908.315	-11697.29	1	11851.93	-80.7343	5.606262E-008	0.0006261	7
	43	112	15.02404	2359.735	-14148.45	1	14343.88	-80.53114	5.383142E-008	0.0006285	7
	44	114	12.01923	2966.092	-17268.74	1	17521.62	-80.25393	4.99895E-008	0.0006296	7
	45	117	9.450605	3782.452	-21408.56	1	21740.13	-79.98042	5.336622E-008	0.0006224	7
	46	119	7.512019	4774.987	-26226.16	1	26657.3	-79.68121	4.73828E-008	0.0007009	7
	47	122	5.978954	5996.067	-32064.69	1	32620.51	-79.40807	5.05138E-008	0.0006276	7
	48	126	4.734848	7583.85	-39359.09	1	40083.08	-79.0937	5.499907E-008	0.0006575	7
	49	130	3.75601	9599.5	-48218.85	1	49165.11	-78.74066	5.726347E-009	0.0006565	6
	50	135	3.004808	11942.75	-58607.15	1	59811.6	-78.48218	6.273069E-009	0.0006555	6
	51	142	2.372217	15243.51	-71998.45	1	73594.44	-78.04587	5.683534E-009	0.0006941	6
	52	146	1.878005	19337.44	-88546.3	1	90633.23	-77.68072	4.337762E-009	0.000658	6
	53	151	1.512097	24115.17	-106776.6	1	109465.9	-77.27344	5.413886E-009	0.0006126	6
	54	156	1.201923	31189.69	-130597.6	1	134270.3	-76.56805	4.531647E-009	0.0006522	6
	55	162	0.956633	40390.04	-158872.2	1	163926	-75.73589	4.054031E-009	2.94962E-005	6
