EXPLAIN
TAG	EISPOT
TITLE	LABEL	Potentiostatic EIS	Test Identifier
DATE	LABEL	9/15/2020	Date
TIME	LABEL	9:07:50	Time
NOTES	NOTES	1	Notes...
	
PSTAT	PSTAT	REF3000-16137	Potentiostat
VDC	POTEN	0.00000E+000	T	DC Voltage (V)
FREQINIT	QUANT	3.00000E+005	Initial Freq. (Hz)
FREQFINAL	QUANT	1.00000E+000	Final Freq. (Hz)
PTSPERDEC	QUANT	1.00000E+001	Points/decade
VAC	QUANT	5.00000E+001	AC Voltage (mV rms)
AREA	QUANT	1.00000E+000	Sample Area (cm^2)
SPEED	SELECTOR	2	Optimize for:
ZGUESS	QUANT	1.00000E+003	Estimated Z (ohms)
EOC	QUANT	0	Open Circuit (V)
SEQUENCER	TOGGLE	TRUE	Run as Sequence
PSTATMODEL	IQUANT	5	Pstat Model
PSTATSECTION	LABEL	REF3000-16137	Pstat Section
PSTATSERIALNO	LABEL	16137	Pstat Serial Number
CTRLMODE	IQUANT	1	Control Mode
IESTAB	IQUANT	0	I/E Stability
CASPEED	IQUANT	1	Control Amp Speed
CONVENTION	IQUANT	1	Current Convention
ICHRANGE	IQUANT	2	Ich Range
ICHRANGEMODE	TOGGLE	F	Ich Auto Range
ICHOFFSETENABLE	TOGGLE	T	Ich Offset Enable
ICHOFFSET	QUANT	0	Ich Offset (V)
ICHFILTER	IQUANT	3	Ich Filter
VCHRANGE	IQUANT	2	Vch Range
VCHRANGEMODE	TOGGLE	F	Vch Auto Range
VCHOFFSETENABLE	TOGGLE	T	Vch Offset Enable
VCHOFFSET	QUANT	0	Vch Offset (V)
VCHFILTER	IQUANT	3	Vch Filter
ACHRANGE	IQUANT	2	Ach Range
ACHOFFSETENABLE	TOGGLE	F	Ach Offset Enable
ACHOFFSET	QUANT	0	Ach Offset (V)
ACHFILTER	IQUANT	3	Ach Filter
IERANGELOWERLIMIT	IQUANT	2	I/E Range Lower Limit
IERANGEMODE	TOGGLE	F	I/E AutoRange
IERANGE	IQUANT	11	I/E Range
POSFEEDENABLE	TOGGLE	F	Positive Feedback IR Comp
POSFEEDRESISTANCE	QUANT	0	Positive Feedback Resistance (ohm)
ACHSELECT	IQUANT	0	Ach Select
CABLEID	IQUANT	13	Cable ID
DCCALDATE	LABEL	7/31/2020	DC Calibration Date
ACCALDATE	LABEL	7/31/2020	AC Calibration Date
THERMOSELECT	IQUANT	1	Thermo Select
FRAMEWORKVERSION	QUANT	6.33	Framework Version
INSTRUMENTVERSION	LABEL	3.50	Instrument Version
COMPLIANCEVOLTAGE	IQUANT	0	Compliance Voltage
ZCURVE	TABLE
	Pt	Time	Freq	Zreal	Zimag	Zsig	Zmod	Zphz	Idc	Vdc	IERange
	#	s	Hz	ohm	ohm	V	ohm	°	A	V	#
	0	20	300046.9	-84.00651	-4920.929	1	4921.646	-90.97802	2.466356E-005	0.0009139	9
	1	34	238359.4	67.91135	-6141.101	1	6141.476	-89.36642	2.548627E-005	0.000988	9
	2	55	189328.1	44.06564	-7907.772	1	7907.895	-89.68073	2.754115E-005	-0.0014702	9
	3	67	150421.9	819.5017	-10542.91	1	10574.71	-85.55533	-6.232145E-005	0.0006115	9
	4	74	119484.4	-185.7475	-12128.14	1	12129.56	-90.87744	5.786677E-007	-0.0018026	9
	5	84	94921.88	665.6603	-14724.21	1	14739.25	-87.41151	8.120622E-006	0.0042801	8
	6	93	75421.88	704.3735	-18605.14	1	18618.46	-87.83187	2.303159E-005	-0.0027393	8
	7	101	59859.37	784.6426	-23453.5	1	23466.62	-88.08387	-9.509031E-006	-0.0021359	8
	8	110	47578.12	3960.722	-30847.81	1	31101.04	-82.6835	7.669564E-006	-0.0185993	7
	9	116	37828.12	4411.74	-37830.99	1	38087.36	-83.34838	-1.019782E-006	-0.01352	7
	10	124	30046.88	4263.911	-47278.73	1	47470.61	-84.84663	4.741827E-007	0.0161912	7
	11	131	23859.38	5272.913	-58855.33	1	59091.06	-84.88048	-7.296463E-006	0.0235865	7
	12	137	18984.38	4838.931	-73148.81	1	73308.69	-86.21529	3.56897E-006	-0.0246431	7
	13	142	15046.87	4461.699	-92566.06	1	92673.53	-87.24047	-3.772539E-006	0.0257164	7
	14	148	11953.13	5109.705	-119126.3	1	119235.9	-87.54391	-7.397006E-006	0.0189265	7
	15	154	9515.62	7304.545	-145640.6	1	145823.7	-87.12876	-3.372871E-006	-0.0056024	7
	16	160	7546.875	9206.502	-179231.2	1	179467.5	-87.05949	3.802206E-007	0.016485	7
	17	167	5928.309	2192.28	-232594.9	1	232605.2	-89.45998	4.712584E-007	0.0163118	7
	18	172	4733.456	36924.95	-307018	1	309230.5	-83.142	5.971446E-007	-0.0278884	6
	19	176	3796.875	39699.28	-384455.2	1	386499.4	-84.10447	4.19383E-007	0.0026977	6
	20	182	2987.132	41522.62	-476729.5	1	478534.4	-85.02216	-2.814458E-007	-0.0073535	6
	21	187	2390.625	45769.88	-581502.9	1	583301.4	-85.49955	7.334042E-007	-0.0158557	6
	22	192	1884.191	54773.12	-740392.2	1	742415.4	-85.76905	-4.941252E-007	0.0013252	6
	23	198	1516.544	40375.9	-930400	1	931275.7	-87.51514	-5.055995E-008	-0.0151988	6
	24	204	1193.986	58712.07	-1147035	1	1148537	-87.06982	1.855824E-007	-0.021337	6
	25	210	946.5144	127754.3	-1335715	1	1341810	-84.53657	4.100424E-007	-0.0252611	6
	26	215	751.7689	-31127.25	-1706398	1	1706682	-91.04504	-2.30687E-007	0.0229233	6
	27	219	597.4265	110953.9	-2334709	1	2337344	-87.27914	-2.276603E-007	0.0232394	6
	28	223	477.4305	82020.63	-2873395	1	2874565	-88.36494	-8.937452E-009	0.0006105	6
	29	226	376.6741	487480.1	-3750858	1	3782402	-82.59506	-1.05412E-009	0.0006829	5
	30	230	298.2954	491565.6	-4685909	1	4711622	-84.01141	-8.831294E-010	0.0005986	5
	31	234	237.7717	528435.9	-5709101	1	5733505	-84.71175	-9.081538E-010	0.0006019	5
	32	238	189.0121	539638	-7264632	1	7284647	-85.7517	-9.163101E-010	0.0006775	5
	33	241	150.2404	678385.1	-9023784	1	9049248	-85.70074	-9.344349E-010	0.0005899	5
	34	243	119.1737	2992777	-9128159	1	9.606248E+006	-71.84765	-8.799115E-010	0.000592	5
	35	246	95.0169	392729.5	-1.413676E+007	1	1.414221E+007	-88.40869	-8.351956E-010	0.0006251	5
	36	249	75.60484	-518614.8	-1.769353E+007	1	1.770113E+007	-91.67892	-9.832019E-010	0.0005909	5
	37	252	54.50582	1461039	-2.399484E+007	1	2.403928E+007	-86.51558	-9.388355E-010	0.0006709	5
	38	255	45.95588	3140966	-2.802182E+007	1	2.819731E+007	-83.60441	-8.680301E-010	0.0005995	5
	39	259	37.20238	-1765834	-3.188135E+007	1	3.193022E+007	-93.17024	-8.522265E-010	0.0006459	5
	40	263	30.04808	-344480.8	-4.455723E+007	1	4.455856E+007	-90.44296	-1.009867E-009	0.0006603	5
	41	267	23.91582	3820094	-5.341154E+007	1	5.354798E+007	-85.90907	-8.734054E-011	0.000626	4
	42	271	18.60119	5.825805E+007	-1.662598E+008	1	1.761713E+008	-70.68935	-3.579005E-010	0.0007373	4
	43	274	15.02404	5662231	-9.08835E+007	1	9.105972E+007	-86.43496	-7.744738E-011	0.0006064	4
	44	278	12.01923	2072636	-1.098407E+008	1	1.098603E+008	-88.91898	-8.079448E-011	0.0006965	4
	45	281	9.450605	1.322683E+007	-1.352952E+008	1	1.359402E+008	-84.41635	-6.903447E-011	0.0006146	4
	46	286	7.512019	2938682	-1.823793E+008	1	1.82403E+008	-89.07687	-9.173936E-011	0.0005904	4
	47	290	5.978954	-1.238293E+007	-1.959536E+008	1	1.963444E+008	-93.61589	-5.835636E-011	0.000614	4
	48	295	4.734848	4.498223E+007	-2.941198E+008	1	2.975397E+008	-81.30465	-6.01315E-012	0.0006522	3
	49	300	3.75601	2.062486E+007	-3.431373E+008	1	3.437566E+008	-86.56028	-9.658563E-010	0.000612	5
	50	309	3.004808	1.625299E+007	-4.636991E+008	1	4.639839E+008	-87.99256	-9.538057E-010	0.0006186	5
	51	318	2.372217	5.3807E+007	-5.648207E+008	1	5.673778E+008	-84.5582	-6.925915E-012	0.0007939	3
	52	325	1.878005	5.513842E+007	-7.077298E+008	1	7.098744E+008	-85.54515	-6.981676E-012	0.0006977	3
	53	334	1.512097	5.570192E+007	-8.720817E+008	1	8.738588E+008	-86.34534	-6.773552E-012	0.0007934	3
	54	340	1.201923	5.955192E+007	-1.093817E+009	1	1.095437E+009	-86.88366	-6.784613E-012	0.0006952	3
	55	352	0.956633	5.860462E+007	-1.36798E+009	1	1.369235E+009	-87.54694	-6.641325E-012	8.383578E-005	3
