EXPLAIN
TAG	EISPOT
TITLE	LABEL	Potentiostatic EIS	Test Identifier
DATE	LABEL	9/15/2020	Date
TIME	LABEL	6:18:02	Time
NOTES	NOTES	1	Notes...
	
PSTAT	PSTAT	REF3000-16137	Potentiostat
VDC	POTEN	0.00000E+000	T	DC Voltage (V)
FREQINIT	QUANT	3.00000E+005	Initial Freq. (Hz)
FREQFINAL	QUANT	1.00000E+000	Final Freq. (Hz)
PTSPERDEC	QUANT	1.00000E+001	Points/decade
VAC	QUANT	5.00000E+001	AC Voltage (mV rms)
AREA	QUANT	1.00000E+000	Sample Area (cm^2)
SPEED	SELECTOR	2	Optimize for:
ZGUESS	QUANT	1.00000E+003	Estimated Z (ohms)
EOC	QUANT	0	Open Circuit (V)
SEQUENCER	TOGGLE	TRUE	Run as Sequence
PSTATMODEL	IQUANT	5	Pstat Model
PSTATSECTION	LABEL	REF3000-16137	Pstat Section
PSTATSERIALNO	LABEL	16137	Pstat Serial Number
CTRLMODE	IQUANT	1	Control Mode
IESTAB	IQUANT	0	I/E Stability
CASPEED	IQUANT	1	Control Amp Speed
CONVENTION	IQUANT	1	Current Convention
ICHRANGE	IQUANT	2	Ich Range
ICHRANGEMODE	TOGGLE	F	Ich Auto Range
ICHOFFSETENABLE	TOGGLE	T	Ich Offset Enable
ICHOFFSET	QUANT	0	Ich Offset (V)
ICHFILTER	IQUANT	3	Ich Filter
VCHRANGE	IQUANT	2	Vch Range
VCHRANGEMODE	TOGGLE	F	Vch Auto Range
VCHOFFSETENABLE	TOGGLE	T	Vch Offset Enable
VCHOFFSET	QUANT	0	Vch Offset (V)
VCHFILTER	IQUANT	3	Vch Filter
ACHRANGE	IQUANT	2	Ach Range
ACHOFFSETENABLE	TOGGLE	F	Ach Offset Enable
ACHOFFSET	QUANT	0	Ach Offset (V)
ACHFILTER	IQUANT	3	Ach Filter
IERANGELOWERLIMIT	IQUANT	2	I/E Range Lower Limit
IERANGEMODE	TOGGLE	F	I/E AutoRange
IERANGE	IQUANT	11	I/E Range
POSFEEDENABLE	TOGGLE	F	Positive Feedback IR Comp
POSFEEDRESISTANCE	QUANT	0	Positive Feedback Resistance (ohm)
ACHSELECT	IQUANT	0	Ach Select
CABLEID	IQUANT	13	Cable ID
DCCALDATE	LABEL	7/31/2020	DC Calibration Date
ACCALDATE	LABEL	7/31/2020	AC Calibration Date
THERMOSELECT	IQUANT	1	Thermo Select
FRAMEWORKVERSION	QUANT	6.33	Framework Version
INSTRUMENTVERSION	LABEL	3.50	Instrument Version
COMPLIANCEVOLTAGE	IQUANT	0	Compliance Voltage
ZCURVE	TABLE
	Pt	Time	Freq	Zreal	Zimag	Zsig	Zmod	Zphz	Idc	Vdc	IERange
	#	s	Hz	ohm	ohm	V	ohm	°	A	V	#
	0	14	300046.9	786.6145	-4767.242	1	4831.703	-80.63039	2.805241E-005	-0.0017144	9
	1	28	238359.4	1262.861	-5667.548	1	5806.541	-77.43839	7.834812E-005	-0.0015739	9
	2	43	189328.1	2307.459	-7060.857	1	7428.329	-71.90282	2.407801E-005	0.0010257	9
	3	51	150421.9	2943.841	-8375.152	1	8877.465	-70.63358	-2.096058E-005	0.001263	9
	4	59	119484.4	4434.168	-9819.3	1	10774.06	-65.69717	1.330293E-005	-0.0188108	8
	5	66	94921.88	6448.396	-11149.13	1	12879.63	-59.95591	2.586304E-005	-0.0050389	8
	6	75	75421.88	8659.864	-12498.73	1	15205.64	-55.28347	8.26342E-006	0.0040921	8
	7	83	59859.37	11390.96	-13477.14	1	17646.17	-49.79531	2.252308E-005	-0.0096367	8
	8	92	47578.12	14581.77	-13806.24	1	20080.84	-43.43511	-2.031919E-005	0.0028519	8
	9	101	37828.12	17575.04	-13469.14	1	22142.71	-37.46579	1.728067E-005	0.0002711	8
	10	109	30046.88	22009.24	-11473.68	1	24820.39	-27.53358	2.527702E-006	0.0090891	7
	11	117	23859.38	23990.88	-10217.94	1	26076.21	-23.06961	-3.089262E-006	-0.0057614	7
	12	122	18984.38	25528.34	-9171.393	1	27125.82	-19.7615	-7.181668E-006	0.0180265	7
	13	128	15046.87	26215.81	-7926.85	1	27388.02	-16.82369	-1.596519E-005	0.0007839	8
	14	134	11953.13	27012.3	-7885.226	1	28139.67	-16.27318	-2.51965E-005	0.001106	9
	15	142	9515.62	28110.91	-6638.08	1	28884.03	-13.28638	8.039922E-006	-0.0075792	8
	16	149	7546.875	29793.98	-5586.881	1	30313.28	-10.6206	-2.170358E-006	0.0076597	8
	17	156	5928.309	29997.52	-5898.604	1	30571.96	-11.1245	-9.325464E-006	-0.0021083	8
	18	162	4733.456	29815.33	-3862.928	1	30064.53	-7.382221	5.414532E-006	-0.0263355	7
	19	168	3796.875	30664.38	-3590.894	1	30873.92	-6.679093	-5.412887E-006	0.0263921	7
	20	173	2987.132	30275.88	-4453.574	1	30601.69	-8.36818	2.584346E-005	-0.005064	8
	21	180	2390.625	31786.26	-7080.465	1	32565.3	-12.55775	-1.560132E-005	0.0006397	8
	22	187	1884.191	31545.49	-3761.257	1	31768.93	-6.799436	6.830947E-006	-0.0264166	7
	23	193	1516.544	32688.62	-3937.878	1	32924.96	-6.869111	2.569971E-006	0.0090344	7
	24	198	1193.986	32443.93	-3711.47	1	32655.53	-6.526064	-7.134664E-006	0.0227294	7
	25	204	946.5144	32417.73	-4200.369	1	32688.72	-7.382689	1.425364E-006	-0.0198597	7
	26	207	751.7689	33938.79	-3035.345	1	34074.25	-5.110702	-7.146187E-006	0.0226676	7
	27	211	597.4265	34680.12	-4340.804	1	34950.73	-7.134432	-7.207788E-006	0.017995	7
	28	215	477.4305	35020.15	-5527.068	1	35453.62	-8.96875	-8.050761E-008	0.0006409	7
	29	218	376.6741	35727.81	-6182.387	1	36258.77	-9.81732	-7.721405E-008	0.0006611	7
	30	220	298.2954	36637.02	-6612.101	1	37228.9	-10.23038	-7.989768E-009	0.000611	6
	31	223	237.7717	37436.15	-7481.404	1	38176.39	-11.30136	-8.914377E-009	0.0006971	6
	32	225	189.0121	38262.39	-8465.047	1	39187.59	-12.47499	-8.03371E-009	0.0006041	6
	33	228	150.2404	39119.15	-9619.15	1	40284.44	-13.81459	-8.953738E-009	0.0007025	6
	34	230	119.1737	39955.11	-11041.18	1	41452.6	-15.44758	-8.557189E-009	0.0007031	6
	35	232	95.0169	40749.65	-12605.95	1	42654.94	-17.18951	-8.619603E-009	0.0006867	6
	36	235	75.60484	41550.89	-14655.86	1	44059.86	-19.4288	-9.289716E-009	0.0007355	6
	37	237	54.50582	42669.52	-18598.27	1	46546.57	-23.55084	-8.104585E-009	0.0006243	6
	38	240	45.95588	43273.96	-21147.84	1	48165	-26.0446	-9.377803E-009	0.0007379	6
	39	242	37.20238	44024.03	-25044.43	1	50649.17	-29.63472	-8.00395E-009	0.0006442	6
	40	245	30.04808	44861.8	-29957.96	1	53944.97	-33.73433	-7.806316E-009	0.0006051	6
	41	247	23.91582	45838.98	-36473.62	1	58579.32	-38.50891	-8.791134E-009	0.0006209	6
	42	250	18.60119	47146.37	-45415.36	1	65462.47	-43.92863	-8.782079E-009	0.0006105	6
	43	252	15.02404	48373.21	-55112.55	1	73330.49	-48.72603	-8.221679E-009	0.0006117	6
	44	254	12.01923	49947.96	-67440.77	1	83922.91	-53.47562	-8.43557E-009	0.0006535	6
	45	257	9.450605	52049.47	-84094.91	1	98899.5	-58.24509	-7.790967E-009	0.000612	6
	46	259	7.512019	54403.47	-103774.3	1	117170.2	-62.33432	-7.517057E-009	0.0006667	6
	47	262	5.978954	57422.12	-128052.7	1	140338.1	-65.84731	-8.015015E-009	0.0006285	6
	48	267	4.734848	61185.73	-158879.3	1	170253.7	-68.9379	-8.379744E-009	0.0007361	6
	49	270	3.75601	65770.55	-196996.4	1	207685.7	-71.53754	-7.519075E-009	0.0006153	6
	50	275	3.004808	71283.11	-242262.8	1	252532.3	-73.60407	-8.384325E-009	0.0007407	6
	51	282	2.372217	78381.65	-301628.4	1	311646.2	-75.43321	-8.399668E-009	0.0007057	6
	52	286	1.878005	87687.88	-374933.7	1	385051.3	-76.83651	-8.215872E-009	0.0006306	6
	53	291	1.512097	98571.4	-459188.7	1	469649.5	-77.88451	-8.75381E-010	0.0007419	5
	54	296	1.201923	112151.7	-568447.6	1	579405.4	-78.83918	-8.07592E-010	0.0006197	5
	55	302	0.956633	128667.1	-702240.9	1	713931	-79.61723	-9.860808E-010	-1.825245E-006	5
