EXPLAIN
TAG	EISPOT
TITLE	LABEL	Potentiostatic EIS	Test Identifier
DATE	LABEL	9/15/2020	Date
TIME	LABEL	2:02:50	Time
NOTES	NOTES	1	Notes...
	
PSTAT	PSTAT	REF3000-16137	Potentiostat
VDC	POTEN	0.00000E+000	T	DC Voltage (V)
FREQINIT	QUANT	3.00000E+005	Initial Freq. (Hz)
FREQFINAL	QUANT	1.00000E+000	Final Freq. (Hz)
PTSPERDEC	QUANT	1.00000E+001	Points/decade
VAC	QUANT	5.00000E+001	AC Voltage (mV rms)
AREA	QUANT	1.00000E+000	Sample Area (cm^2)
SPEED	SELECTOR	2	Optimize for:
ZGUESS	QUANT	1.00000E+003	Estimated Z (ohms)
EOC	QUANT	0	Open Circuit (V)
SEQUENCER	TOGGLE	TRUE	Run as Sequence
PSTATMODEL	IQUANT	5	Pstat Model
PSTATSECTION	LABEL	REF3000-16137	Pstat Section
PSTATSERIALNO	LABEL	16137	Pstat Serial Number
CTRLMODE	IQUANT	1	Control Mode
IESTAB	IQUANT	0	I/E Stability
CASPEED	IQUANT	1	Control Amp Speed
CONVENTION	IQUANT	1	Current Convention
ICHRANGE	IQUANT	2	Ich Range
ICHRANGEMODE	TOGGLE	F	Ich Auto Range
ICHOFFSETENABLE	TOGGLE	T	Ich Offset Enable
ICHOFFSET	QUANT	0	Ich Offset (V)
ICHFILTER	IQUANT	3	Ich Filter
VCHRANGE	IQUANT	2	Vch Range
VCHRANGEMODE	TOGGLE	F	Vch Auto Range
VCHOFFSETENABLE	TOGGLE	T	Vch Offset Enable
VCHOFFSET	QUANT	0	Vch Offset (V)
VCHFILTER	IQUANT	3	Vch Filter
ACHRANGE	IQUANT	2	Ach Range
ACHOFFSETENABLE	TOGGLE	F	Ach Offset Enable
ACHOFFSET	QUANT	0	Ach Offset (V)
ACHFILTER	IQUANT	3	Ach Filter
IERANGELOWERLIMIT	IQUANT	2	I/E Range Lower Limit
IERANGEMODE	TOGGLE	F	I/E AutoRange
IERANGE	IQUANT	11	I/E Range
POSFEEDENABLE	TOGGLE	F	Positive Feedback IR Comp
POSFEEDRESISTANCE	QUANT	0	Positive Feedback Resistance (ohm)
ACHSELECT	IQUANT	0	Ach Select
CABLEID	IQUANT	13	Cable ID
DCCALDATE	LABEL	7/31/2020	DC Calibration Date
ACCALDATE	LABEL	7/31/2020	AC Calibration Date
THERMOSELECT	IQUANT	1	Thermo Select
FRAMEWORKVERSION	QUANT	6.33	Framework Version
INSTRUMENTVERSION	LABEL	3.50	Instrument Version
COMPLIANCEVOLTAGE	IQUANT	0	Compliance Voltage
ZCURVE	TABLE
	Pt	Time	Freq	Zreal	Zimag	Zsig	Zmod	Zphz	Idc	Vdc	IERange
	#	s	Hz	ohm	ohm	V	ohm	°	A	V	#
	0	7	300046.9	80.61751	-3.686087	1	80.70174	-2.617921	6.200079E-005	-0.0019028	9
	1	10	238359.4	81.52618	-5.022192	1	81.68073	-3.525092	-4.82538E-006	0.0005947	9
	2	13	189328.1	82.18118	-6.492766	1	82.43726	-4.517299	-7.042311E-005	0.0018324	9
	3	16	150421.9	83.51566	-7.867349	1	83.8854	-5.381501	5.57342E-005	-0.0019902	9
	4	18	119484.4	84.22688	-9.43691	1	84.75389	-6.392847	6.063902E-005	-0.0014526	9
	5	21	94921.88	85.53689	-10.92995	1	86.23238	-7.281823	1.188935E-005	0.0001324	9
	6	23	75421.88	86.83922	-12.83883	1	87.78317	-8.410026	2.179869E-005	-0.0002855	9
	7	26	59859.37	88.33284	-14.87167	1	89.57599	-9.55667	-3.682904E-006	0.0006254	9
	8	28	47578.12	89.89752	-17.09384	1	91.50827	-10.76615	1.207058E-005	0.0001531	9
	9	31	37828.12	91.63201	-19.58233	1	93.70109	-12.06301	-1.856876E-005	0.0004414	9
	10	34	30046.88	93.2935	-22.42387	1	95.9505	-13.51514	-6.103034E-007	0.0006152	9
	11	36	23859.38	95.0899	-25.91536	1	98.5581	-15.24488	2.383142E-005	-0.0005765	9
	12	38	18984.38	96.8897	-30.06324	1	101.4466	-17.23824	-5.331989E-006	0.0006246	9
	13	41	15046.87	98.7072	-35.2839	1	104.824	-19.66996	2.138264E-005	-0.0002993	9
	14	43	11953.13	100.5201	-41.72364	1	108.8355	-22.54224	-1.009816E-005	2.047452E-005	9
	15	45	9515.62	102.2655	-49.58308	1	113.6517	-25.86627	-1.843194E-005	0.0007766	9
	16	48	7546.875	104.2686	-59.68039	1	120.1403	-29.78559	-1.814931E-005	0.0005097	9
	17	50	5928.309	106.5575	-73.25969	1	129.3115	-34.50905	1.113777E-005	0.0001635	9
	18	52	4733.456	108.9714	-88.6428	1	140.4717	-39.12664	1.154852E-005	-0.0006049	9
	19	55	3796.875	111.619	-107.6089	1	155.0434	-43.95208	4.559708E-006	-0.0004347	9
	20	57	2987.132	115.4157	-133.2889	1	176.3142	-49.1105	3.00296E-006	0.0004437	9
	21	59	2390.625	119.2959	-162.8991	1	201.91	-53.78357	-1.995072E-005	0.0007585	9
	22	61	1884.191	124.4687	-201.9636	1	237.2378	-58.35478	2.298688E-005	-0.0005503	9
	23	64	1516.544	130.2091	-245.7166	1	278.0846	-62.08018	2.251626E-005	-0.0002996	9
	24	66	1193.986	137.6665	-305.3893	1	334.9846	-65.73462	2.170866E-005	-0.0002877	9
	25	69	946.5144	145.917	-378.2139	1	405.3857	-68.90311	-1.89757E-005	0.0007166	9
	26	71	751.7689	158.8119	-464.2849	1	490.6951	-71.11639	-5.105412E-006	0.0020503	8
	27	73	597.4265	172.2176	-572.9146	1	598.2391	-73.26927	-4.011387E-006	0.001247	8
	28	76	477.4305	188.3676	-704.3503	1	729.1033	-75.02751	2.978978E-007	0.0006434	8
	29	78	376.6741	209.7726	-875.9275	1	900.6961	-76.5321	2.997904E-007	0.0006345	8
	30	80	298.2954	235.6866	-1085.752	1	1111.038	-77.75269	3.098255E-007	0.0006451	8
	31	82	237.7717	266.7209	-1337.978	1	1364.304	-78.72609	3.019064E-007	0.0006421	8
	32	85	189.0121	305.3401	-1653.236	1	1681.196	-79.53583	3.038146E-007	0.0006412	8
	33	87	150.2404	352.9811	-2043.256	1	2073.521	-80.19865	3.180122E-007	0.0006445	8
	34	90	119.1737	412.1886	-2530.564	1	2563.913	-80.74867	3.080615E-007	0.0006562	8
	35	92	95.0169	484.918	-3119.678	1	3157.141	-81.16473	3.240731E-007	0.0006406	8
	36	95	75.60484	574.9011	-3852.952	1	3895.607	-81.51347	3.117566E-007	0.0006436	8
	37	97	54.50582	745.3325	-5226.15	1	5279.031	-81.88344	2.579376E-008	0.0006076	7
	38	100	45.95588	858.3611	-6118.933	1	6178.845	-82.01468	3.013642E-008	0.0006718	7
	39	102	37.20238	1024.867	-7436.392	1	7506.683	-82.15305	2.951358E-008	0.0006244	7
	40	104	30.04808	1235.273	-9060.185	1	9144.006	-82.23611	2.852372E-008	0.0006224	7
	41	107	23.91582	1515.439	-11190.26	1	11292.41	-82.28765	2.51943E-008	0.0006197	7
	42	109	18.60119	1906.351	-14102.95	1	14231.21	-82.30177	2.923741E-008	0.0006215	7
	43	112	15.02404	2295.618	-17159.96	1	17312.83	-82.38035	3.309952E-008	0.0006297	7
	44	114	12.01923	2833.865	-21076.86	1	21266.51	-82.34229	2.914234E-008	0.0006217	7
	45	116	9.450605	3542.685	-26291.35	1	26528.96	-82.32578	3.264084E-008	0.0006229	7
	46	119	7.512019	4428.664	-32519.12	1	32819.3	-82.2448	3.334866E-008	0.0006302	7
	47	122	5.978954	5541.063	-40111.41	1	40492.33	-82.13483	3.261238E-008	0.0006225	7
	48	126	4.734848	7048.841	-49741.73	1	50238.68	-81.93439	3.470154E-009	0.0006416	6
	49	129	3.75601	8967.459	-61508	1	62158.27	-81.7051	4.599632E-009	0.0006893	6
	50	135	3.004808	11329.04	-75403.03	1	76249.36	-81.45542	3.785714E-009	0.0006795	6
	51	141	2.372217	14778.59	-93432.62	1	94594.19	-81.01177	3.49637E-009	0.0006228	6
	52	146	1.878005	19057.8	-115720.8	1	117279.6	-80.64803	4.340989E-009	0.0006539	6
	53	150	1.512097	24118.55	-140369.6	1	142426.5	-80.25053	3.475686E-009	0.0006836	6
	54	156	1.201923	31594.98	-172906.8	1	175769.8	-79.64468	4.192603E-009	0.0006725	6
	55	162	0.956633	41221.99	-211729.6	1	215705.1	-78.98281	3.122587E-009	2.507224E-005	6
