EXPLAIN
TAG	EISPOT
TITLE	LABEL	Potentiostatic EIS	Test Identifier
DATE	LABEL	9/15/2020	Date
TIME	LABEL	3:11:05	Time
NOTES	NOTES	1	Notes...
	
PSTAT	PSTAT	REF3000-16137	Potentiostat
VDC	POTEN	0.00000E+000	T	DC Voltage (V)
FREQINIT	QUANT	3.00000E+005	Initial Freq. (Hz)
FREQFINAL	QUANT	1.00000E+000	Final Freq. (Hz)
PTSPERDEC	QUANT	1.00000E+001	Points/decade
VAC	QUANT	5.00000E+001	AC Voltage (mV rms)
AREA	QUANT	1.00000E+000	Sample Area (cm^2)
SPEED	SELECTOR	2	Optimize for:
ZGUESS	QUANT	1.00000E+003	Estimated Z (ohms)
EOC	QUANT	0	Open Circuit (V)
SEQUENCER	TOGGLE	TRUE	Run as Sequence
PSTATMODEL	IQUANT	5	Pstat Model
PSTATSECTION	LABEL	REF3000-16137	Pstat Section
PSTATSERIALNO	LABEL	16137	Pstat Serial Number
CTRLMODE	IQUANT	1	Control Mode
IESTAB	IQUANT	0	I/E Stability
CASPEED	IQUANT	1	Control Amp Speed
CONVENTION	IQUANT	1	Current Convention
ICHRANGE	IQUANT	2	Ich Range
ICHRANGEMODE	TOGGLE	F	Ich Auto Range
ICHOFFSETENABLE	TOGGLE	T	Ich Offset Enable
ICHOFFSET	QUANT	0	Ich Offset (V)
ICHFILTER	IQUANT	3	Ich Filter
VCHRANGE	IQUANT	2	Vch Range
VCHRANGEMODE	TOGGLE	F	Vch Auto Range
VCHOFFSETENABLE	TOGGLE	T	Vch Offset Enable
VCHOFFSET	QUANT	0	Vch Offset (V)
VCHFILTER	IQUANT	3	Vch Filter
ACHRANGE	IQUANT	2	Ach Range
ACHOFFSETENABLE	TOGGLE	F	Ach Offset Enable
ACHOFFSET	QUANT	0	Ach Offset (V)
ACHFILTER	IQUANT	3	Ach Filter
IERANGELOWERLIMIT	IQUANT	2	I/E Range Lower Limit
IERANGEMODE	TOGGLE	F	I/E AutoRange
IERANGE	IQUANT	11	I/E Range
POSFEEDENABLE	TOGGLE	F	Positive Feedback IR Comp
POSFEEDRESISTANCE	QUANT	0	Positive Feedback Resistance (ohm)
ACHSELECT	IQUANT	0	Ach Select
CABLEID	IQUANT	13	Cable ID
DCCALDATE	LABEL	7/31/2020	DC Calibration Date
ACCALDATE	LABEL	7/31/2020	AC Calibration Date
THERMOSELECT	IQUANT	1	Thermo Select
FRAMEWORKVERSION	QUANT	6.33	Framework Version
INSTRUMENTVERSION	LABEL	3.50	Instrument Version
COMPLIANCEVOLTAGE	IQUANT	0	Compliance Voltage
ZCURVE	TABLE
	Pt	Time	Freq	Zreal	Zimag	Zsig	Zmod	Zphz	Idc	Vdc	IERange
	#	s	Hz	ohm	ohm	V	ohm	°	A	V	#
	0	7	300046.9	160.739	-9.030643	1	160.9925	-3.215613	-1.394261E-005	0.0010283	9
	1	10	238359.4	161.9849	-10.90794	1	162.3518	-3.852439	-1.300939E-005	0.0008432	9
	2	13	189328.1	163.4261	-12.72511	1	163.9208	-4.452332	-1.283915E-005	0.0011481	9
	3	15	150421.9	165.4441	-13.77672	1	166.0167	-4.760102	-7.139562E-005	0.0032293	9
	4	19	119484.4	166.6242	-16.29743	1	167.4193	-5.586303	-3.21785E-005	-0.0003983	9
	5	21	94921.88	168.3948	-18.15177	1	169.3703	-6.152324	1.14411E-005	0.0002675	9
	6	24	75421.88	170.585	-20.82912	1	171.852	-6.961585	-2.180452E-005	0.0008283	9
	7	26	59859.37	173.0556	-23.70568	1	174.6716	-7.800004	-2.026413E-005	0.0004962	9
	8	29	47578.12	175.7723	-26.98339	1	177.8314	-8.727532	1.184392E-005	0.0002417	9
	9	32	37828.12	178.9239	-30.51089	1	181.5067	-9.67724	1.541531E-005	-0.0007884	9
	10	34	30046.88	182.142	-34.58076	1	185.3957	-10.75	7.031185E-006	-0.0005848	9
	11	37	23859.38	185.5549	-39.28837	1	189.6687	-11.95493	-1.517181E-005	0.0002214	9
	12	39	18984.38	189.2141	-44.46373	1	194.3682	-13.2241	2.450027E-005	-0.0007324	9
	13	41	15046.87	192.5341	-50.52962	1	199.0543	-14.70536	-1.277302E-005	0.0001432	9
	14	44	11953.13	196.7153	-58.56678	1	205.2486	-16.57951	-1.714103E-005	0.0003607	9
	15	46	9515.62	200.1756	-68.45603	1	211.5574	-18.87965	-1.472052E-005	0.0001287	9
	16	48	7546.875	203.7608	-79.86774	1	218.8546	-21.40359	2.298821E-005	-0.0002808	9
	17	50	5928.309	208.0869	-96.1974	1	229.2468	-24.81084	-2.008579E-005	0.0004639	9
	18	53	4733.456	211.7696	-114.9473	1	240.9548	-28.49285	1.499245E-005	-0.0007622	9
	19	55	3796.875	216.6604	-138.3015	1	257.0389	-32.55143	-2.042037E-005	0.0005174	9
	20	59	2987.132	220.6627	-168.9511	1	277.9146	-37.43958	2.053731E-005	-0.0001063	9
	21	62	2390.625	226.1852	-204.8716	1	305.1755	-42.1693	-1.575262E-006	-0.0003377	9
	22	64	1884.191	232.7492	-252.8213	1	343.6434	-47.36709	-2.066733E-005	0.0004813	9
	23	67	1516.544	240.0223	-307.4493	1	390.0459	-52.02123	6.654305E-006	-0.0005988	9
	24	69	1193.986	249.1371	-379.9974	1	454.3868	-56.75002	-8.098018E-006	0.0032207	8
	25	71	946.5144	260.0822	-468.9477	1	536.2413	-60.9869	4.178571E-006	0.0012071	8
	26	74	751.7689	274.4282	-579.3864	1	641.0924	-64.65527	1.029718E-006	0.0023882	8
	27	76	597.4265	292.8623	-715.901	1	773.4873	-67.7514	7.410875E-006	-0.0002641	8
	28	78	477.4305	311.7084	-878.7295	1	932.3774	-70.46907	1.335971E-007	0.0006488	8
	29	81	376.6741	338.3784	-1092.759	1	1143.95	-72.79459	1.259689E-007	0.0006483	8
	30	83	298.2954	370.84	-1354.699	1	1404.54	-74.6907	1.386675E-007	0.0006378	8
	31	85	237.7717	409.7314	-1669.338	1	1718.886	-76.20963	1.230142E-007	0.0006392	8
	32	88	189.0121	458.1203	-2062.546	1	2112.811	-77.4771	1.411221E-007	0.0006392	8
	33	90	150.2404	517.8878	-2548.892	1	2600.972	-78.51489	1.446145E-007	0.0006359	8
	34	93	119.1737	592.6985	-3156.775	1	3211.934	-79.36626	1.426985E-007	0.0006462	8
	35	95	95.0169	681.8867	-3890.674	1	3949.976	-80.0592	1.534707E-007	0.0006368	8
	36	98	75.60484	795.9761	-4814.729	1	4880.082	-80.61271	7.377946E-009	0.0006208	7
	37	100	54.50582	1003.181	-6515.553	1	6592.329	-81.24706	-4.211329E-010	0.0006719	7
	38	103	45.95588	1138.923	-7627.311	1	7711.875	-81.50725	1.087167E-008	0.00062	7
	39	105	37.20238	1339.995	-9270.473	1	9366.816	-81.77518	1.034008E-008	0.0006197	7
	40	107	30.04808	1588.669	-11295.14	1	11406.32	-81.99383	6.187716E-009	0.0006167	7
	41	110	23.91582	1923.995	-13966.13	1	14098.04	-82.15622	5.351348E-009	0.0006239	7
	42	112	18.60119	2379.606	-17592.13	1	17752.34	-82.29662	8.736637E-009	0.0006211	7
	43	114	15.02404	2861.793	-21427.16	1	21617.42	-82.39265	1.085911E-008	0.000609	7
	44	117	12.01923	3499.718	-26333.96	1	26565.49	-82.42989	8.385049E-009	0.0006206	7
	45	119	9.450605	4351.405	-32863.73	1	33150.55	-82.45748	9.722175E-009	0.0006002	7
	46	122	7.512019	5345.888	-40633.66	1	40983.81	-82.50504	9.94013E-009	0.0006162	7
	47	124	5.978954	6615.233	-50120.6	1	50555.28	-82.4812	1.258868E-009	0.0006766	6
	48	127	4.734848	8178.738	-62154.72	1	62690.52	-82.5037	6.8851E-010	0.0006527	6
	49	131	3.75601	10205.76	-76919.09	1	77593.19	-82.44204	1.580208E-009	0.000684	6
	50	136	3.004808	12651.59	-94450.75	1	95294.3	-82.3707	1.279068E-009	0.0006457	6
	51	143	2.372217	16030.42	-117541	1	118629.1	-82.23383	8.463308E-010	0.0005872	6
	52	147	1.878005	20164.89	-145723.4	1	147111.9	-82.12157	1.285807E-009	0.0006673	6
	53	152	1.512097	25357.01	-177357.2	1	179160.7	-81.86348	7.022439E-010	0.0005963	6
	54	157	1.201923	32035.11	-219271.9	1	221599.7	-81.68803	9.691069E-010	0.0006919	6
	55	163	0.956633	40761.75	-269835.8	1	272897.2	-81.40977	6.198934E-010	3.19037E-005	6
