EXPLAIN
TAG	EISPOT
TITLE	LABEL	Potentiostatic EIS	Test Identifier
DATE	LABEL	9/15/2020	Date
TIME	LABEL	7:18:35	Time
NOTES	NOTES	1	Notes...
	
PSTAT	PSTAT	REF3000-16137	Potentiostat
VDC	POTEN	0.00000E+000	T	DC Voltage (V)
FREQINIT	QUANT	3.00000E+005	Initial Freq. (Hz)
FREQFINAL	QUANT	1.00000E+000	Final Freq. (Hz)
PTSPERDEC	QUANT	1.00000E+001	Points/decade
VAC	QUANT	5.00000E+001	AC Voltage (mV rms)
AREA	QUANT	1.00000E+000	Sample Area (cm^2)
SPEED	SELECTOR	2	Optimize for:
ZGUESS	QUANT	1.00000E+003	Estimated Z (ohms)
EOC	QUANT	0	Open Circuit (V)
SEQUENCER	TOGGLE	TRUE	Run as Sequence
PSTATMODEL	IQUANT	5	Pstat Model
PSTATSECTION	LABEL	REF3000-16137	Pstat Section
PSTATSERIALNO	LABEL	16137	Pstat Serial Number
CTRLMODE	IQUANT	1	Control Mode
IESTAB	IQUANT	0	I/E Stability
CASPEED	IQUANT	1	Control Amp Speed
CONVENTION	IQUANT	1	Current Convention
ICHRANGE	IQUANT	2	Ich Range
ICHRANGEMODE	TOGGLE	F	Ich Auto Range
ICHOFFSETENABLE	TOGGLE	T	Ich Offset Enable
ICHOFFSET	QUANT	0	Ich Offset (V)
ICHFILTER	IQUANT	3	Ich Filter
VCHRANGE	IQUANT	2	Vch Range
VCHRANGEMODE	TOGGLE	F	Vch Auto Range
VCHOFFSETENABLE	TOGGLE	T	Vch Offset Enable
VCHOFFSET	QUANT	0	Vch Offset (V)
VCHFILTER	IQUANT	3	Vch Filter
ACHRANGE	IQUANT	2	Ach Range
ACHOFFSETENABLE	TOGGLE	F	Ach Offset Enable
ACHOFFSET	QUANT	0	Ach Offset (V)
ACHFILTER	IQUANT	3	Ach Filter
IERANGELOWERLIMIT	IQUANT	2	I/E Range Lower Limit
IERANGEMODE	TOGGLE	F	I/E AutoRange
IERANGE	IQUANT	11	I/E Range
POSFEEDENABLE	TOGGLE	F	Positive Feedback IR Comp
POSFEEDRESISTANCE	QUANT	0	Positive Feedback Resistance (ohm)
ACHSELECT	IQUANT	0	Ach Select
CABLEID	IQUANT	13	Cable ID
DCCALDATE	LABEL	7/31/2020	DC Calibration Date
ACCALDATE	LABEL	7/31/2020	AC Calibration Date
THERMOSELECT	IQUANT	1	Thermo Select
FRAMEWORKVERSION	QUANT	6.33	Framework Version
INSTRUMENTVERSION	LABEL	3.50	Instrument Version
COMPLIANCEVOLTAGE	IQUANT	0	Compliance Voltage
ZCURVE	TABLE
	Pt	Time	Freq	Zreal	Zimag	Zsig	Zmod	Zphz	Idc	Vdc	IERange
	#	s	Hz	ohm	ohm	V	ohm	°	A	V	#
	0	17	300046.9	-34.34799	-4874.001	1	4874.122	-90.40377	-6.198799E-005	0.0004761	9
	1	31	238359.4	7.409157	-5974.286	1	5974.29	-89.92894	-2.895564E-005	-0.0011832	9
	2	47	189328.1	152.0146	-7684.816	1	7686.32	-88.86677	-0.0001092	0.0037985	9
	3	57	150421.9	-258.214	-8940.729	1	8944.457	-91.65428	2.773434E-005	-0.0018715	9
	4	67	119484.4	689.1986	-11446.13	1	11466.86	-86.55424	6.626664E-005	-0.0258295	8
	5	75	94921.88	762.4723	-14678.04	1	14697.83	-87.02636	-9.345363E-006	-0.0021783	8
	6	83	75421.88	664.2203	-18390.33	1	18402.33	-87.9315	2.261298E-005	-0.0096706	8
	7	92	59859.37	1117.009	-22814.79	1	22842.12	-87.19704	2.320993E-005	-0.0027982	8
	8	100	47578.12	4546.228	-30315.06	1	30654.05	-81.47114	2.839483E-006	0.0085343	7
	9	108	37828.12	961.848	-36281.9	1	36294.64	-88.48142	2.626107E-005	-0.0089899	8
	10	116	30046.88	5220.293	-46301.2	1	46594.56	-83.56728	7.588555E-006	-0.0184123	7
	11	125	23859.38	2594.411	-60344.19	1	60399.94	-87.53817	8.199248E-006	0.0042601	8
	12	131	18984.38	7299.824	-73016.57	1	73380.56	-84.29083	-3.723012E-006	0.0257053	7
	13	137	15046.87	10319.54	-91002.27	1	91585.51	-83.53037	-5.399829E-006	0.0270242	7
	14	142	11953.13	11164.18	-111531.5	1	112088.9	-84.2838	-1.783643E-006	0.022353	7
	15	148	9515.62	14394.86	-142449.2	1	143174.7	-84.2297	4.907397E-006	-0.0004672	7
	16	154	7546.875	19134.78	-180160.3	1	181173.6	-83.93736	-1.891693E-006	0.0222068	7
	17	159	5928.309	36731.09	-244268.2	1	247014.4	-81.44839	-7.265035E-006	0.0234455	7
	18	164	4733.456	11766.16	-250984	1	251259.6	-87.31593	-6.5767E-006	0.0258616	7
	19	171	3796.875	-47553.79	-323846.6	1	327319.4	-98.3536	1.614301E-005	-0.0091008	8
	20	179	2987.132	47308.71	-398217.5	1	401017.8	-83.22495	4.521745E-007	0.0164871	7
	21	186	2390.625	176180	-539472.2	1	567511.8	-71.91408	7.339799E-007	-0.0271865	6
	22	191	1884.191	261219.3	-651544.1	1	701958.1	-68.15299	7.322649E-007	-0.0157944	6
	23	197	1516.544	371085.3	-796345.7	1	878561.8	-65.01517	2.163984E-007	0.0106062	6
	24	202	1193.986	553671.2	-923060.8	1	1076380	-59.04379	-7.377132E-007	0.017524	6
	25	208	946.5144	701335.8	-1182253	1	1374625	-59.32274	4.326928E-007	0.0018796	6
	26	213	751.7689	968008	-1081084	1	1451132	-48.15857	6.051095E-007	-0.0069364	6
	27	216	597.4265	1283344	-967959	1	1607456	-37.02534	-5.743462E-007	0.0268991	6
	28	221	477.4305	1413706	-1194439	1	1850743	-40.19445	-8.273589E-009	0.00064	6
	29	225	376.6741	1856538	-1011221	1	2114073	-28.57629	-8.496392E-010	0.000588	5
	30	228	298.2954	2041102	-913964.6	1	2236388	-24.12188	-8.624915E-010	0.000611	5
	31	231	237.7717	2162482	-813569.8	1	2310460	-20.61732	-1.00623E-009	0.0006766	5
	32	233	189.0121	2293563	-699139.6	1	2397754	-16.95263	-8.964599E-010	0.0005908	5
	33	236	150.2404	2341652	-681172	1	2438715	-16.21938	-8.03321E-009	0.000629	6
	34	240	119.1737	2246545	-592253.4	1	2323301	-14.76878	-9.153744E-009	0.0006814	6
	35	244	95.0169	2512697	-466467.5	1	2555629	-10.5169	-9.042292E-010	0.0006909	5
	36	247	75.60484	2560493	-456598.1	1	2600886	-10.11095	-8.631369E-009	0.0006847	6
	37	251	54.50582	2614205	-337573.2	1	2635910	-7.357909	-9.774715E-010	0.0006707	5
	38	255	45.95588	2632863	-351282.1	1	2656194	-7.599641	-8.11782E-009	0.0006163	6
	39	259	37.20238	2692647	-364136.7	1	2717157	-7.701601	-8.676343E-009	0.0006891	6
	40	262	30.04808	2721766	-317409.3	1	2740211	-6.651726	-9.550458E-010	0.0006892	5
	41	266	23.91582	2744406	-362150.1	1	2768198	-7.517281	-9.540071E-009	0.000738	6
	42	270	18.60119	2834651	-367550.2	1	2858380	-7.38794	-9.82E-010	0.0005941	5
	43	274	15.02404	2843189	-366202.3	1	2866676	-7.33928	-9.165165E-009	0.0007253	6
	44	277	12.01923	2893809	-377537.7	1	2918333	-7.43305	-1.149057E-009	0.0006008	5
	45	281	9.450605	2950915	-426427.8	1	2981567	-8.222719	-9.227992E-009	0.0007468	6
	46	285	7.512019	3012760	-475973.6	1	3050126	-8.977723	-8.918363E-009	0.0006948	6
	47	290	5.978954	3082986	-531577.4	1	3128478	-9.78291	-9.271137E-009	0.0006788	6
	48	295	4.734848	3172395	-580332.7	1	3225038	-10.36661	-9.861258E-010	0.0005956	5
	49	301	3.75601	3267448	-651645.9	1	3331795	-11.27884	-9.342272E-009	0.0007312	6
	50	308	3.004808	3365841	-730956.6	1	3444297	-12.25261	-8.24198E-009	0.0006574	6
	51	316	2.372217	3471290	-814975.2	1	3565676	-13.21238	-9.693032E-010	0.0007256	5
	52	320	1.878005	3568877	-927090.9	1	3687327	-14.56193	-1.089746E-009	0.0006264	5
	53	325	1.512097	3687044	-1032551	1	3828898	-15.64483	-2.900463E-010	0.0006903	4
	54	330	1.201923	3780826	-1183946	1	3961865	-17.38768	-1.160336E-010	0.0006118	4
	55	337	0.956633	3902492	-1382424	1	4140114	-19.50625	-2.980437E-010	1.545268E-005	4
