EXPLAIN
TAG	EISPOT
TITLE	LABEL	Potentiostatic EIS	Test Identifier
DATE	LABEL	9/15/2020	Date
TIME	LABEL	3:16:52	Time
NOTES	NOTES	1	Notes...
	
PSTAT	PSTAT	REF3000-16137	Potentiostat
VDC	POTEN	0.00000E+000	T	DC Voltage (V)
FREQINIT	QUANT	3.00000E+005	Initial Freq. (Hz)
FREQFINAL	QUANT	1.00000E+000	Final Freq. (Hz)
PTSPERDEC	QUANT	1.00000E+001	Points/decade
VAC	QUANT	5.00000E+001	AC Voltage (mV rms)
AREA	QUANT	1.00000E+000	Sample Area (cm^2)
SPEED	SELECTOR	2	Optimize for:
ZGUESS	QUANT	1.00000E+003	Estimated Z (ohms)
EOC	QUANT	0	Open Circuit (V)
SEQUENCER	TOGGLE	TRUE	Run as Sequence
PSTATMODEL	IQUANT	5	Pstat Model
PSTATSECTION	LABEL	REF3000-16137	Pstat Section
PSTATSERIALNO	LABEL	16137	Pstat Serial Number
CTRLMODE	IQUANT	1	Control Mode
IESTAB	IQUANT	0	I/E Stability
CASPEED	IQUANT	1	Control Amp Speed
CONVENTION	IQUANT	1	Current Convention
ICHRANGE	IQUANT	2	Ich Range
ICHRANGEMODE	TOGGLE	F	Ich Auto Range
ICHOFFSETENABLE	TOGGLE	T	Ich Offset Enable
ICHOFFSET	QUANT	0	Ich Offset (V)
ICHFILTER	IQUANT	3	Ich Filter
VCHRANGE	IQUANT	2	Vch Range
VCHRANGEMODE	TOGGLE	F	Vch Auto Range
VCHOFFSETENABLE	TOGGLE	T	Vch Offset Enable
VCHOFFSET	QUANT	0	Vch Offset (V)
VCHFILTER	IQUANT	3	Vch Filter
ACHRANGE	IQUANT	2	Ach Range
ACHOFFSETENABLE	TOGGLE	F	Ach Offset Enable
ACHOFFSET	QUANT	0	Ach Offset (V)
ACHFILTER	IQUANT	3	Ach Filter
IERANGELOWERLIMIT	IQUANT	2	I/E Range Lower Limit
IERANGEMODE	TOGGLE	F	I/E AutoRange
IERANGE	IQUANT	11	I/E Range
POSFEEDENABLE	TOGGLE	F	Positive Feedback IR Comp
POSFEEDRESISTANCE	QUANT	0	Positive Feedback Resistance (ohm)
ACHSELECT	IQUANT	0	Ach Select
CABLEID	IQUANT	13	Cable ID
DCCALDATE	LABEL	7/31/2020	DC Calibration Date
ACCALDATE	LABEL	7/31/2020	AC Calibration Date
THERMOSELECT	IQUANT	1	Thermo Select
FRAMEWORKVERSION	QUANT	6.33	Framework Version
INSTRUMENTVERSION	LABEL	3.50	Instrument Version
COMPLIANCEVOLTAGE	IQUANT	0	Compliance Voltage
ZCURVE	TABLE
	Pt	Time	Freq	Zreal	Zimag	Zsig	Zmod	Zphz	Idc	Vdc	IERange
	#	s	Hz	ohm	ohm	V	ohm	°	A	V	#
	0	7	300046.9	173.043	-10.03145	1	173.3336	-3.31777	-8.106723E-006	0.0011288	9
	1	11	238359.4	174.2519	-11.97783	1	174.6631	-3.932244	-1.560519E-005	0.0008216	9
	2	14	189328.1	175.5461	-13.47836	1	176.0628	-4.390533	-7.510102E-006	-0.0014136	9
	3	16	150421.9	177.3207	-14.59211	1	177.9201	-4.704396	7.472738E-005	-0.002297	9
	4	19	119484.4	179.0217	-17.13899	1	179.8402	-5.468658	1.964139E-005	-0.001562	9
	5	22	94921.88	180.9219	-19.21346	1	181.9392	-6.061951	1.919184E-005	-5.466135E-005	9
	6	24	75421.88	183.3249	-21.9274	1	184.6316	-6.820714	-1.938007E-006	-0.0003595	9
	7	27	59859.37	185.9519	-24.87729	1	187.6086	-7.61998	2.050837E-005	-0.0007747	9
	8	29	47578.12	188.79	-28.36115	1	190.9084	-8.543427	-1.491078E-005	0.0001323	9
	9	32	37828.12	192.0432	-32.0653	1	194.7017	-9.479187	2.475408E-005	-0.0007332	9
	10	34	30046.88	195.5597	-36.21179	1	198.8841	-10.49064	1.477794E-005	-0.0007524	9
	11	37	23859.38	199.3052	-41.03119	1	203.485	-11.63302	-2.086408E-005	0.0004781	9
	12	39	18984.38	203.1497	-46.63454	1	208.4336	-12.92869	-9.54399E-006	-9.43365E-005	9
	13	42	15046.87	207.3529	-53.54936	1	214.1559	-14.48038	-1.501378E-005	0.0001674	9
	14	44	11953.13	211.2065	-61.01345	1	219.8427	-16.11298	1.458374E-005	-0.0007313	9
	15	46	9515.62	215.2155	-70.82925	1	226.5712	-18.21681	1.454585E-005	-0.0007352	9
	16	49	7546.875	219.3071	-83.09528	1	234.5217	-20.75166	-2.376049E-005	0.0007409	9
	17	51	5928.309	223.3584	-99.4201	1	244.4859	-23.99456	-1.879004E-005	0.000397	9
	18	53	4733.456	227.5554	-118.3036	1	256.4707	-27.46943	2.447934E-005	-0.0007279	9
	19	57	3796.875	231.9394	-140.9107	1	271.3885	-31.28004	-1.476224E-005	0.000986	9
	20	60	2987.132	236.4559	-172.6972	1	292.8066	-36.14279	2.041256E-005	-0.0007848	9
	21	63	2390.625	242.7729	-209.5932	1	320.7304	-40.80503	2.141586E-005	-0.0008304	9
	22	65	1884.191	250.4939	-256.7301	1	358.6886	-45.7044	-1.074125E-005	-3.851703E-005	9
	23	67	1516.544	256.6728	-313.9851	1	405.5461	-50.7351	1.974203E-005	-8.437566E-005	9
	24	70	1193.986	265.8878	-387.887	1	470.2687	-55.57024	9.433429E-006	-0.0023816	8
	25	72	946.5144	277.6832	-479.0768	1	553.735	-59.9025	-8.370459E-006	0.0038602	8
	26	75	751.7689	293.5063	-589.7604	1	658.7589	-63.54183	-1.866048E-006	0.003289	8
	27	77	597.4265	309.5303	-730.8157	1	793.6627	-67.04536	9.331752E-006	-0.0023433	8
	28	79	477.4305	329.7663	-897.1115	1	955.801	-69.81724	9.272399E-008	0.0006513	8
	29	82	376.6741	356.9614	-1115.729	1	1171.441	-72.25868	9.961704E-008	0.0006437	8
	30	84	298.2954	390.0486	-1383.13	1	1437.076	-74.25132	1.277568E-007	0.0006384	8
	31	86	237.7717	429.6573	-1704.499	1	1757.817	-75.85205	1.172168E-007	0.0006394	8
	32	89	189.0121	479.1022	-2106.267	1	2160.069	-77.18525	1.15704E-007	0.0006456	8
	33	91	150.2404	540.0308	-2602.885	1	2658.316	-78.27892	1.14734E-007	0.000653	8
	34	94	119.1737	615.769	-3223.178	1	3281.47	-79.18431	1.04724E-007	0.0006518	8
	35	96	95.0169	707.7349	-3973.059	1	4035.602	-79.89964	1.090707E-007	0.0006461	8
	36	98	75.60484	824.419	-4916.543	1	4985.185	-80.48105	1.691033E-009	0.0006262	7
	37	101	54.50582	1035.523	-6650.162	1	6730.302	-81.14932	2.684462E-009	0.0006103	7
	38	103	45.95588	1174.901	-7790.208	1	7878.308	-81.42342	7.476249E-009	0.0006125	7
	39	106	37.20238	1378.461	-9464.796	1	9564.65	-81.71365	3.082031E-009	0.0006241	7
	40	108	30.04808	1634.701	-11536.75	1	11651.99	-81.93516	2.000722E-009	0.000629	7
	41	111	23.91582	1972.065	-14247.28	1	14383.12	-82.11937	-2.691734E-010	0.0006726	7
	42	113	18.60119	2450.654	-17968.61	1	18134.95	-82.23361	4.927901E-009	0.000631	7
	43	115	15.02404	2932.278	-21881.3	1	22076.9	-82.36736	8.131137E-009	0.0006269	7
	44	118	12.01923	3574.514	-26886.62	1	27123.19	-82.42707	-6.647627E-010	0.0006739	7
	45	120	9.450605	4455.25	-33572.24	1	33866.57	-82.44065	7.371697E-009	0.0006196	7
	46	123	7.512019	5470.689	-41472.79	1	41832.05	-82.48548	5.304284E-009	0.000638	7
	47	125	5.978954	6751.34	-51179.94	1	51623.31	-82.48528	1.578105E-009	0.0006664	6
	48	128	4.734848	8334.643	-63466.13	1	64011.06	-82.51849	3.947039E-010	0.0006417	6
	49	132	3.75601	10357.54	-78557.75	1	79237.61	-82.48909	9.086082E-010	0.0007321	6
	50	137	3.004808	12760.82	-96448.3	1	97288.8	-82.46313	7.552655E-010	0.0006678	6
	51	144	2.372217	16112.5	-119812.8	1	120891.3	-82.34078	3.067543E-010	0.0006692	6
	52	148	1.878005	20423.28	-148934.2	1	150328	-82.19176	1.028138E-009	0.0006571	6
	53	152	1.512097	25233.41	-181640.5	1	183384.8	-82.09111	5.527471E-010	0.0007586	6
	54	158	1.201923	32381.23	-224353.8	1	226678.6	-81.78716	1.034966E-009	0.0006528	6
	55	164	0.956633	41068.83	-275985.4	1	279024.3	-81.53604	2.974607E-010	2.807588E-005	6
