EXPLAIN
TAG	EISPOT
TITLE	LABEL	Potentiostatic EIS	Test Identifier
DATE	LABEL	9/15/2020	Date
TIME	LABEL	7:07:26	Time
NOTES	NOTES	1	Notes...
	
PSTAT	PSTAT	REF3000-16137	Potentiostat
VDC	POTEN	0.00000E+000	T	DC Voltage (V)
FREQINIT	QUANT	3.00000E+005	Initial Freq. (Hz)
FREQFINAL	QUANT	1.00000E+000	Final Freq. (Hz)
PTSPERDEC	QUANT	1.00000E+001	Points/decade
VAC	QUANT	5.00000E+001	AC Voltage (mV rms)
AREA	QUANT	1.00000E+000	Sample Area (cm^2)
SPEED	SELECTOR	2	Optimize for:
ZGUESS	QUANT	1.00000E+003	Estimated Z (ohms)
EOC	QUANT	0	Open Circuit (V)
SEQUENCER	TOGGLE	TRUE	Run as Sequence
PSTATMODEL	IQUANT	5	Pstat Model
PSTATSECTION	LABEL	REF3000-16137	Pstat Section
PSTATSERIALNO	LABEL	16137	Pstat Serial Number
CTRLMODE	IQUANT	1	Control Mode
IESTAB	IQUANT	0	I/E Stability
CASPEED	IQUANT	1	Control Amp Speed
CONVENTION	IQUANT	1	Current Convention
ICHRANGE	IQUANT	2	Ich Range
ICHRANGEMODE	TOGGLE	F	Ich Auto Range
ICHOFFSETENABLE	TOGGLE	T	Ich Offset Enable
ICHOFFSET	QUANT	0	Ich Offset (V)
ICHFILTER	IQUANT	3	Ich Filter
VCHRANGE	IQUANT	2	Vch Range
VCHRANGEMODE	TOGGLE	F	Vch Auto Range
VCHOFFSETENABLE	TOGGLE	T	Vch Offset Enable
VCHOFFSET	QUANT	0	Vch Offset (V)
VCHFILTER	IQUANT	3	Vch Filter
ACHRANGE	IQUANT	2	Ach Range
ACHOFFSETENABLE	TOGGLE	F	Ach Offset Enable
ACHOFFSET	QUANT	0	Ach Offset (V)
ACHFILTER	IQUANT	3	Ach Filter
IERANGELOWERLIMIT	IQUANT	2	I/E Range Lower Limit
IERANGEMODE	TOGGLE	F	I/E AutoRange
IERANGE	IQUANT	11	I/E Range
POSFEEDENABLE	TOGGLE	F	Positive Feedback IR Comp
POSFEEDRESISTANCE	QUANT	0	Positive Feedback Resistance (ohm)
ACHSELECT	IQUANT	0	Ach Select
CABLEID	IQUANT	13	Cable ID
DCCALDATE	LABEL	7/31/2020	DC Calibration Date
ACCALDATE	LABEL	7/31/2020	AC Calibration Date
THERMOSELECT	IQUANT	1	Thermo Select
FRAMEWORKVERSION	QUANT	6.33	Framework Version
INSTRUMENTVERSION	LABEL	3.50	Instrument Version
COMPLIANCEVOLTAGE	IQUANT	0	Compliance Voltage
ZCURVE	TABLE
	Pt	Time	Freq	Zreal	Zimag	Zsig	Zmod	Zphz	Idc	Vdc	IERange
	#	s	Hz	ohm	ohm	V	ohm	°	A	V	#
	0	14	300046.9	-47.24679	-4904.622	1	4904.85	-90.55192	-2.055973E-005	0.0011213	9
	1	28	238359.4	118.2767	-6124.836	1	6125.978	-88.8937	8.902755E-005	-0.0025999	9
	2	43	189328.1	114.9988	-7752.472	1	7753.325	-89.15015	4.848063E-005	0.0001555	9
	3	51	150421.9	400.8069	-9139.758	1	9148.542	-87.48901	-6.075771E-005	0.0006321	9
	4	61	119484.4	809.9092	-11676.09	1	11704.14	-86.03204	2.062078E-005	-0.0091394	8
	5	70	94921.88	947.2296	-14595.1	1	14625.81	-86.28668	8.242348E-006	0.0041805	8
	6	79	75421.88	1063.455	-18373.18	1	18403.93	-86.68737	-2.484054E-005	0.0110658	8
	7	87	59859.37	1603.553	-22740.35	1	22796.82	-85.96642	1.717236E-005	0.0003459	8
	8	96	47578.12	5033.141	-30288.92	1	30704.25	-80.56531	7.518648E-006	-0.018072	7
	9	102	37828.12	2334.697	-36076.47	1	36151.93	-86.29726	2.731966E-005	-0.0073229	8
	10	111	30046.88	5082.406	-47041.62	1	47315.38	-83.83365	1.747068E-005	0.0003097	8
	11	119	23859.38	2779.109	-50473.16	1	50549.62	-86.84841	7.713402E-006	-0.0075738	8
	12	127	18984.38	11703.01	-70340.42	1	71307.33	-80.55384	-1.266338E-006	-0.013144	7
	13	133	15046.87	15730.32	-88409.57	1	89798.08	-79.91119	4.906335E-006	-0.0005527	7
	14	139	11953.13	8418.531	-108931.7	1	109256.5	-85.58082	-2.624623E-005	0.0075035	8
	15	147	9515.62	27797.55	-134776.6	1	137613.3	-78.34621	-9.224942E-007	-0.0051767	8
	16	155	7546.875	36443.07	-169709.1	1	173577.8	-77.88044	7.712124E-006	-0.0244982	7
	17	162	5928.309	54496.77	-211494.4	1	218402.8	-75.55064	7.624117E-006	-0.0184427	7
	18	167	4733.456	162760.5	-210395.3	1	266002.3	-52.27468	-2.617802E-005	0.0075267	8
	19	176	3796.875	85492.52	-262996.1	1	276542.8	-71.99213	8.318936E-006	-0.0077177	8
	20	185	2987.132	187800.3	-333474.3	1	382719.2	-60.61341	2.744703E-006	0.0087278	7
	21	191	2390.625	213506.4	-354019	1	413418	-58.90611	-7.236617E-006	0.0233232	7
	22	199	1884.191	193772.1	-398909	1	443481.7	-64.0916	6.902858E-006	-0.0271769	7
	23	206	1516.544	420110.4	-350226.5	1	546947.3	-39.81639	6.624611E-006	-0.0101055	7
	24	214	1193.986	490321.1	-289807.1	1	569563.8	-30.58545	-3.336131E-006	-0.0054398	7
	25	220	946.5144	460334.5	-529681.9	1	701762.6	-49.00684	6.638381E-006	-0.0103074	7
	26	225	751.7689	563081.1	-222935.3	1	605607.6	-21.59962	5.392553E-006	-0.026613	7
	27	230	597.4265	625926.9	-3910.22	1	625939.1	-0.3579271	-6.647384E-006	0.0261432	7
	28	235	477.4305	837978.3	-295045.3	1	888402.6	-19.39675	-8.387897E-008	0.0006409	7
	29	241	376.6741	939717.3	-159486.3	1	953155	-9.6323	-7.818909E-010	0.0006068	5
	30	243	298.2954	952001	-135041.5	1	961531	-8.07355	-9.632869E-010	0.0005945	5
	31	246	237.7717	955582	-122198.7	1	963363	-7.287365	-9.250388E-010	0.000689	5
	32	249	189.0121	967031	-108176.6	1	973062	-6.382841	-1.058378E-009	0.0006695	5
	33	251	150.2404	972568	-100952.9	1	977793	-5.926101	-9.056491E-010	0.0006823	5
	34	254	119.1737	1019125	-88673.54	1	1022976	-4.972751	-9.156401E-010	0.0007228	5
	35	257	95.0169	992973	-97472.7	1	997745	-5.606338	-8.978985E-010	0.0005846	5
	36	259	75.60484	1008410	-95982.5	1	1012968	-5.43715	-7.395775E-010	0.0006852	5
	37	262	54.50582	1014527	-120246.5	1	1021629	-6.759425	-8.613262E-010	0.0005853	5
	38	265	45.95588	1029194	-109788.5	1	1035034	-6.088953	-1.096681E-009	0.0005981	5
	39	267	37.20238	1042763	-118679.9	1	1049494	-6.493063	-1.197927E-009	0.0006161	5
	40	269	30.04808	1059331	-133981.9	1	1067770	-7.208375	-7.577349E-010	0.0006664	5
	41	272	23.91582	1073824	-149037.2	1	1084117	-7.901667	-7.53485E-010	0.0006793	5
	42	275	18.60119	1105376	-171668	1	1118627	-8.827675	-3.651692E-011	0.0006401	5
	43	277	15.02404	1120537	-187085.7	1	1136048	-9.478717	-8.713975E-010	0.0006226	5
	44	280	12.01923	1145584	-208582.2	1	1164418	-10.31909	-2.731903E-010	0.0006765	5
	45	282	9.450605	1171592	-235952.3	1	1195116	-11.38674	-4.977523E-010	0.0006861	5
	46	285	7.512019	1200781	-266162.6	1	1229926	-12.49799	-4.658829E-010	0.0006436	5
	47	288	5.978954	1232397	-298107.8	1	1267940	-13.59822	-8.080603E-010	0.000616	5
	48	293	4.734848	1265347	-338600.4	1	1309868	-14.98105	-1.035104E-009	0.0006638	5
	49	296	3.75601	1298419	-386612.1	1	1354754	-16.58122	-1.038121E-009	0.0006646	5
	50	302	3.004808	1330802	-445756.8	1	1403472	-18.51845	-8.604534E-010	0.0006607	5
	51	308	2.372217	1368507	-523522.9	1	1465226	-20.93437	-1.229901E-009	0.0006295	5
	52	312	1.878005	1400348	-620305.1	1	1531585	-23.89167	-1.1789E-009	0.000685	5
	53	317	1.512097	1431668	-732175.4	1	1608028	-27.08585	-1.046329E-009	0.0005485	5
	54	322	1.201923	1467585	-885925.9	1	1714255	-31.1178	-1.023643E-009	0.0006349	5
	55	329	0.956633	1507658	-1073859	1	1851001	-35.46111	-1.015524E-009	-2.622958E-006	5
