EXPLAIN
TAG	EISPOT
TITLE	LABEL	Potentiostatic EIS	Test Identifier
DATE	LABEL	9/15/2020	Date
TIME	LABEL	0:31:27	Time
NOTES	NOTES	1	Notes...
	
PSTAT	PSTAT	REF3000-16137	Potentiostat
VDC	POTEN	0.00000E+000	T	DC Voltage (V)
FREQINIT	QUANT	3.00000E+005	Initial Freq. (Hz)
FREQFINAL	QUANT	1.00000E+000	Final Freq. (Hz)
PTSPERDEC	QUANT	1.00000E+001	Points/decade
VAC	QUANT	5.00000E+001	AC Voltage (mV rms)
AREA	QUANT	1.00000E+000	Sample Area (cm^2)
SPEED	SELECTOR	2	Optimize for:
ZGUESS	QUANT	1.00000E+003	Estimated Z (ohms)
EOC	QUANT	0	Open Circuit (V)
SEQUENCER	TOGGLE	TRUE	Run as Sequence
PSTATMODEL	IQUANT	5	Pstat Model
PSTATSECTION	LABEL	REF3000-16137	Pstat Section
PSTATSERIALNO	LABEL	16137	Pstat Serial Number
CTRLMODE	IQUANT	1	Control Mode
IESTAB	IQUANT	0	I/E Stability
CASPEED	IQUANT	1	Control Amp Speed
CONVENTION	IQUANT	1	Current Convention
ICHRANGE	IQUANT	2	Ich Range
ICHRANGEMODE	TOGGLE	F	Ich Auto Range
ICHOFFSETENABLE	TOGGLE	T	Ich Offset Enable
ICHOFFSET	QUANT	0	Ich Offset (V)
ICHFILTER	IQUANT	3	Ich Filter
VCHRANGE	IQUANT	2	Vch Range
VCHRANGEMODE	TOGGLE	F	Vch Auto Range
VCHOFFSETENABLE	TOGGLE	T	Vch Offset Enable
VCHOFFSET	QUANT	0	Vch Offset (V)
VCHFILTER	IQUANT	3	Vch Filter
ACHRANGE	IQUANT	2	Ach Range
ACHOFFSETENABLE	TOGGLE	F	Ach Offset Enable
ACHOFFSET	QUANT	0	Ach Offset (V)
ACHFILTER	IQUANT	3	Ach Filter
IERANGELOWERLIMIT	IQUANT	2	I/E Range Lower Limit
IERANGEMODE	TOGGLE	F	I/E AutoRange
IERANGE	IQUANT	11	I/E Range
POSFEEDENABLE	TOGGLE	F	Positive Feedback IR Comp
POSFEEDRESISTANCE	QUANT	0	Positive Feedback Resistance (ohm)
ACHSELECT	IQUANT	0	Ach Select
CABLEID	IQUANT	13	Cable ID
DCCALDATE	LABEL	7/31/2020	DC Calibration Date
ACCALDATE	LABEL	7/31/2020	AC Calibration Date
THERMOSELECT	IQUANT	1	Thermo Select
FRAMEWORKVERSION	QUANT	6.33	Framework Version
INSTRUMENTVERSION	LABEL	3.50	Instrument Version
COMPLIANCEVOLTAGE	IQUANT	0	Compliance Voltage
ZCURVE	TABLE
	Pt	Time	Freq	Zreal	Zimag	Zsig	Zmod	Zphz	Idc	Vdc	IERange
	#	s	Hz	ohm	ohm	V	ohm	°	A	V	#
	0	7	300046.9	46.66373	-1.615589	1	46.69169	-1.982899	1.17614E-005	-0.0009212	9
	1	10	238359.4	47.10624	-2.695161	1	47.18327	-3.27458	-1.294072E-005	-0.001053	9
	2	13	189328.1	47.66622	-3.852589	1	47.82166	-4.620847	-6.980015E-007	-0.0006243	9
	3	15	150421.9	48.36941	-5.018833	1	48.62909	-5.92384	-5.581468E-005	0.0015879	9
	4	18	119484.4	48.9753	-6.100921	1	49.35384	-7.100835	5.478262E-005	-0.001721	9
	5	20	94921.88	49.79245	-7.140458	1	50.30183	-8.16083	-8.054681E-006	2.180265E-005	9
	6	23	75421.88	50.58119	-8.481129	1	51.28729	-9.51845	3.363534E-006	-0.0003605	9
	7	25	59859.37	51.42709	-9.93134	1	52.37725	-10.93013	-5.9527E-006	-5.463375E-005	9
	8	28	47578.12	52.3276	-11.59443	1	53.59673	-12.49341	-1.565218E-005	0.0004151	9
	9	31	37828.12	53.25329	-13.46296	1	54.92872	-14.18767	-1.501093E-005	0.0004671	9
	10	33	30046.88	54.21001	-15.74573	1	56.45045	-16.19636	-1.566357E-005	0.0006147	9
	11	36	23859.38	55.15991	-18.48961	1	58.1763	-18.53116	-2.88555E-006	0.0004679	9
	12	38	18984.38	56.10996	-21.82761	1	60.20608	-21.25678	1.771903E-005	-0.0005306	9
	13	40	15046.87	57.07924	-26.06837	1	62.7503	-24.54641	-1.192629E-005	0.0006947	9
	14	43	11953.13	58.13472	-31.32855	1	66.0388	-28.32003	8.974037E-006	-0.0004284	9
	15	45	9515.62	59.30182	-37.88209	1	70.36873	-32.5705	-1.51883E-005	0.000488	9
	16	47	7546.875	60.68192	-46.12706	1	76.22337	-37.2401	3.373396E-006	-0.0002915	9
	17	49	5928.309	62.32249	-57.01841	1	84.47006	-42.45518	-2.23974E-006	0.0004846	9
	18	52	4733.456	64.09632	-69.5369	1	94.57124	-47.33138	-1.547491E-005	0.0006584	9
	19	54	3796.875	66.3192	-84.75473	1	107.6178	-51.9574	9.034734E-006	-0.0004251	9
	20	56	2987.132	69.1886	-104.9941	1	125.7411	-56.61607	3.671265E-006	-0.0003059	9
	21	59	2390.625	72.4076	-128.4574	1	147.459	-60.59134	2.00804E-005	-0.0002495	9
	22	61	1884.191	76.70425	-159.1998	1	176.7148	-64.27472	-1.395785E-005	0.0004003	9
	23	63	1516.544	81.54377	-194.009	1	210.4492	-67.20254	2.032272E-005	-0.0004894	9
	24	66	1193.986	88.16427	-240.9356	1	256.5597	-69.90118	1.741962E-005	-0.0005064	9
	25	68	946.5144	96.9896	-297.088	1	312.5192	-71.91981	-1.507763E-005	0.0004657	9
	26	70	751.7689	106.1852	-368.1681	1	383.175	-73.91164	1.403097E-005	-0.0005123	9
	27	73	597.4265	117.1004	-451.5848	1	466.5205	-75.46284	3.925633E-006	-0.0005164	8
	28	75	477.4305	131.1794	-554.2882	1	569.5994	-76.6852	4.335119E-007	0.0006533	8
	29	77	376.6741	149.9661	-688.498	1	704.6413	-77.71198	4.414365E-007	0.0006544	8
	30	80	298.2954	173.1529	-852.3992	1	869.8082	-78.51741	4.578417E-007	0.0006501	8
	31	82	237.7717	201.5783	-1048.946	1	1068.139	-79.12195	4.495225E-007	0.0006533	8
	32	85	189.0121	237.9352	-1293.89	1	1315.586	-79.58022	4.127708E-007	0.0007065	8
	33	87	150.2404	284.0293	-1595.437	1	1620.522	-79.90562	4.551044E-007	0.0006505	8
	34	89	119.1737	344.2137	-1970.837	1	2000.671	-80.09302	4.504625E-007	0.0006522	8
	35	92	95.0169	417.0447	-2419.409	1	2455.09	-80.21977	4.527026E-007	0.0006503	8
	36	94	75.60484	509.9973	-2973.926	1	3017.339	-80.26903	4.603189E-007	0.0006444	8
	37	97	54.50582	679.9966	-3990.896	1	4048.413	-80.33041	4.576293E-007	0.0006465	8
	38	99	45.95588	802.1589	-4658.963	1	4727.515	-80.23086	5.905176E-008	0.0006308	7
	39	102	37.20238	967.056	-5631.463	1	5713.893	-80.256	5.383188E-008	0.0006293	7
	40	104	30.04808	1164.894	-6811.65	1	6910.539	-80.29545	4.887466E-008	0.0006235	7
	41	106	23.91582	1421.007	-8348.255	1	8468.33	-80.33993	4.959188E-008	0.000625	7
	42	109	18.60119	1779.522	-10483.17	1	10633.14	-80.36586	4.986119E-008	0.0006272	7
	43	111	15.02404	2150.307	-12684.52	1	12865.5	-80.37857	5.798325E-008	0.0006284	7
	44	113	12.01923	2638.817	-15509.14	1	15732.03	-80.34383	5.413677E-008	0.0006331	7
	45	116	9.450605	3323.552	-19254.81	1	19539.54	-80.20673	5.351271E-008	0.0006423	7
	46	119	7.512019	4118.056	-23696.05	1	24051.22	-80.14123	5.791011E-008	0.0006255	7
	47	122	5.978954	5151.727	-29089.19	1	29541.85	-79.95699	5.536577E-008	0.0006781	7
	48	126	4.734848	6518.529	-35901.47	1	36488.45	-79.70908	5.936695E-008	0.0006996	7
	49	129	3.75601	8414.629	-44106.77	1	44902.26	-79.19898	9.709356E-009	0.000655	6
	50	135	3.004808	10661.81	-53778.13	1	54824.83	-78.78621	1.058566E-008	0.0006599	6
	51	141	2.372217	13933.11	-66234.48	1	67684.1	-78.12045	9.958611E-009	0.0006899	6
	52	145	1.878005	18241.88	-81491.01	1	83507.79	-77.38226	8.582959E-009	0.000659	6
	53	150	1.512097	23407.61	-98345.2	1	101092.5	-76.61186	9.452921E-009	0.0005781	6
	54	155	1.201923	31098.63	-119838.4	1	123807.8	-75.45237	8.553569E-009	0.0006668	6
	55	162	0.956633	41257.84	-145048.6	1	150802.2	-74.12205	8.022836E-009	3.108057E-005	6
