EXPLAIN
TAG	EISPOT
TITLE	LABEL	Potentiostatic EIS	Test Identifier
DATE	LABEL	9/15/2020	Date
TIME	LABEL	8:43:22	Time
NOTES	NOTES	1	Notes...
	
PSTAT	PSTAT	REF3000-16137	Potentiostat
VDC	POTEN	0.00000E+000	T	DC Voltage (V)
FREQINIT	QUANT	3.00000E+005	Initial Freq. (Hz)
FREQFINAL	QUANT	1.00000E+000	Final Freq. (Hz)
PTSPERDEC	QUANT	1.00000E+001	Points/decade
VAC	QUANT	5.00000E+001	AC Voltage (mV rms)
AREA	QUANT	1.00000E+000	Sample Area (cm^2)
SPEED	SELECTOR	2	Optimize for:
ZGUESS	QUANT	1.00000E+003	Estimated Z (ohms)
EOC	QUANT	0	Open Circuit (V)
SEQUENCER	TOGGLE	TRUE	Run as Sequence
PSTATMODEL	IQUANT	5	Pstat Model
PSTATSECTION	LABEL	REF3000-16137	Pstat Section
PSTATSERIALNO	LABEL	16137	Pstat Serial Number
CTRLMODE	IQUANT	1	Control Mode
IESTAB	IQUANT	0	I/E Stability
CASPEED	IQUANT	1	Control Amp Speed
CONVENTION	IQUANT	1	Current Convention
ICHRANGE	IQUANT	2	Ich Range
ICHRANGEMODE	TOGGLE	F	Ich Auto Range
ICHOFFSETENABLE	TOGGLE	T	Ich Offset Enable
ICHOFFSET	QUANT	0	Ich Offset (V)
ICHFILTER	IQUANT	3	Ich Filter
VCHRANGE	IQUANT	2	Vch Range
VCHRANGEMODE	TOGGLE	F	Vch Auto Range
VCHOFFSETENABLE	TOGGLE	T	Vch Offset Enable
VCHOFFSET	QUANT	0	Vch Offset (V)
VCHFILTER	IQUANT	3	Vch Filter
ACHRANGE	IQUANT	2	Ach Range
ACHOFFSETENABLE	TOGGLE	F	Ach Offset Enable
ACHOFFSET	QUANT	0	Ach Offset (V)
ACHFILTER	IQUANT	3	Ach Filter
IERANGELOWERLIMIT	IQUANT	2	I/E Range Lower Limit
IERANGEMODE	TOGGLE	F	I/E AutoRange
IERANGE	IQUANT	11	I/E Range
POSFEEDENABLE	TOGGLE	F	Positive Feedback IR Comp
POSFEEDRESISTANCE	QUANT	0	Positive Feedback Resistance (ohm)
ACHSELECT	IQUANT	0	Ach Select
CABLEID	IQUANT	13	Cable ID
DCCALDATE	LABEL	7/31/2020	DC Calibration Date
ACCALDATE	LABEL	7/31/2020	AC Calibration Date
THERMOSELECT	IQUANT	1	Thermo Select
FRAMEWORKVERSION	QUANT	6.33	Framework Version
INSTRUMENTVERSION	LABEL	3.50	Instrument Version
COMPLIANCEVOLTAGE	IQUANT	0	Compliance Voltage
ZCURVE	TABLE
	Pt	Time	Freq	Zreal	Zimag	Zsig	Zmod	Zphz	Idc	Vdc	IERange
	#	s	Hz	ohm	ohm	V	ohm	°	A	V	#
	0	17	300046.9	-71.05024	-4946.99	1	4947.5	-90.82285	-0.0001069	0.003769	9
	1	31	238359.4	87.59016	-5977.301	1	5977.943	-89.16046	-9.128692E-005	0.0041507	9
	2	48	189328.1	135.7602	-7435.324	1	7436.563	-88.95396	2.21854E-005	0.0011196	9
	3	58	150421.9	89.83192	-9544.08	1	9544.51	-89.46073	1.995923E-005	-0.0008714	9
	4	66	119484.4	561.9033	-11746.15	1	11759.58	-87.26122	-1.859281E-005	0.017047	8
	5	73	94921.88	683.4154	-14910.52	1	14926.17	-87.37572	-2.489067E-005	0.0110865	8
	6	81	75421.88	653.4715	-18622.33	1	18633.79	-87.99027	-2.482573E-006	0.007885	8
	7	89	59859.37	925.9183	-22919.55	1	22938.25	-87.68658	-1.556066E-005	0.0004777	8
	8	98	47578.12	4224.562	-30578.55	1	30868.99	-82.13412	5.277303E-007	0.0166007	7
	9	104	37828.12	4425.167	-38333.02	1	38587.59	-83.41492	3.398156E-006	-0.0245295	7
	10	111	30046.88	4476.343	-47253.64	1	47465.19	-84.58852	2.742441E-006	0.0086886	7
	11	119	23859.38	6311.22	-59750.84	1	60083.23	-83.97045	-1.308343E-006	-0.0129793	7
	12	124	18984.38	4506.761	-74013.67	1	74150.76	-86.51551	-3.565712E-006	0.0254069	7
	13	130	15046.87	2499.34	-90528.21	1	90562.7	-88.41856	-2.405235E-005	0.0052507	8
	14	137	11953.13	8267.204	-119118.4	1	119404.9	-86.02985	-1.361297E-006	-0.0050397	8
	15	145	9515.62	3936.855	-148953.8	1	149005.8	-88.48602	-5.65315E-006	0.0041488	7
	16	150	7546.875	12617.47	-185148.4	1	185577.8	-86.10144	-7.316105E-006	0.0235842	7
	17	157	5928.309	-8466.718	-216347.5	1	216513.1	-92.24112	1.343582E-006	-0.0202395	7
	18	162	4733.456	44720.84	-308283	1	311509.8	-81.74601	7.268956E-007	-0.0270627	6
	19	166	3796.875	42610.77	-377080.8	1	379480.7	-83.55283	-4.077039E-007	0.025707	6
	20	172	2987.132	-35479.33	-413844.1	1	415362.2	-94.90005	-7.260526E-006	0.0235034	7
	21	178	2390.625	-10953.55	-586559.4	1	586661.7	-91.06983	-3.837916E-006	0.025701	7
	22	184	1884.191	-115356.6	-624086.8	1	634658.5	-100.4724	4.66982E-007	0.0163329	7
	23	191	1516.544	62149.53	-936915.3	1	938974.3	-86.20489	-2.767578E-009	0.0175311	6
	24	196	1193.986	49233.12	-1213403	1	1214401	-87.67653	-2.191947E-007	0.0226387	6
	25	202	946.5144	86144.38	-1431132	1	1433722	-86.55534	4.249438E-007	0.0024817	6
	26	207	751.7689	91777.31	-1474785	1	1477638	-86.43902	2.255444E-007	0.0106978	6
	27	212	597.4265	75236.05	-2274416	1	2275660	-88.10538	-1.998497E-007	0.0223207	6
	28	216	477.4305	75881.05	-2878110	1	2879110	-88.48975	-9.26827E-009	0.0007062	6
	29	219	376.6741	481181.2	-3748359	1	3779118	-82.68488	-1.083362E-009	0.0006791	5
	30	223	298.2954	508109.6	-4657893	1	4685526	-83.77447	-9.142346E-010	0.0006036	5
	31	227	237.7717	452800.4	-5728347	1	5746215	-85.48042	-9.768162E-010	0.000666	5
	32	229	189.0121	551509.2	-7252487	1	7273426	-85.65136	-9.448096E-010	0.0006487	5
	33	232	150.2404	615938.4	-8900194	1	8921482	-86.04115	-9.464821E-010	0.0006259	5
	34	235	119.1737	4932248	-1.371848E+007	1	1.457819E+007	-70.2248	-9.661372E-010	0.0006953	5
	35	238	95.0169	765394.6	-1.451155E+007	1	1.453172E+007	-86.9808	-9.549117E-010	0.0005928	5
	36	241	75.60484	-187765.4	-1.873712E+007	1	1.873806E+007	-90.57414	-9.771972E-010	0.0006168	5
	37	244	54.50582	-741692.8	-2.504672E+007	1	2.50577E+007	-91.69617	-8.985875E-010	0.0006003	5
	38	247	45.95588	-945164.5	-3.2416E+007	1	3.242977E+007	-91.67012	-9.653957E-010	0.0006482	5
	39	250	37.20238	-1802530	-3.755019E+007	1	3.759343E+007	-92.74828	-9.715547E-010	0.0006176	5
	40	254	30.04808	5566391	-4.639709E+007	1	4.672981E+007	-83.15876	-7.088019E-011	0.0006229	4
	41	258	23.91582	1.425588E+007	-5.75177E+007	1	5.925804E+007	-76.07964	-1.271414E-011	0.0006706	4
	42	262	18.60119	-9.698153E+006	-6.171761E+007	1	6.247493E+007	-98.9303	-6.016367E-012	0.0007326	4
	43	266	15.02404	3325292	-9.074816E+007	1	9.080906E+007	-87.90144	-1.043183E-010	0.0007041	4
	44	269	12.01923	5249343	-1.139145E+008	1	1.140354E+008	-87.3616	-8.497355E-011	0.000699	4
	45	273	9.450605	-1.016667E+007	-1.484418E+008	1	1.487896E+008	-93.91802	-6.035886E-011	0.0006603	4
	46	277	7.512019	1280493	-1.725527E+008	1	1.725574E+008	-89.57482	-7.56624E-011	0.000624	4
	47	281	5.978954	-1.234269E+007	-2.015572E+008	1	2.019347E+008	-93.50423	-1.147758E-010	0.0007079	4
	48	287	4.734848	4.726705E+007	-2.94755E+008	1	2.985209E+008	-80.88959	-8.042535E-012	0.0007766	3
	49	292	3.75601	3.645367E+007	-3.357011E+008	1	3.376745E+008	-83.80255	-1.029519E-009	0.0007403	5
	50	300	3.004808	1.218853E+007	-4.337286E+008	1	4.338998E+008	-88.39031	-9.85405E-010	0.0006679	5
	51	309	2.372217	5.242324E+007	-5.618136E+008	1	5.642541E+008	-84.66913	-6.98868E-012	0.0007297	3
	52	316	1.878005	5.623965E+007	-7.058986E+008	1	7.081354E+008	-85.44481	-6.752945E-012	0.0007022	3
	53	325	1.512097	6.01984E+007	-8.717939E+008	1	8.738698E+008	-86.04993	-6.815883E-012	0.0008223	3
	54	331	1.201923	6.183306E+007	-1.091541E+009	1	1.093291E+009	-86.7578	-6.592196E-012	0.0007143	3
	55	344	0.956633	6.310564E+007	-1.36121E+009	1	1.362672E+009	-87.34567	-6.511992E-012	8.774277E-005	3
