EXPLAIN
TAG	EISPOT
TITLE	LABEL	Potentiostatic EIS	Test Identifier
DATE	LABEL	9/15/2020	Date
TIME	LABEL	4:54:02	Time
NOTES	NOTES	1	Notes...
	
PSTAT	PSTAT	REF3000-16137	Potentiostat
VDC	POTEN	0.00000E+000	T	DC Voltage (V)
FREQINIT	QUANT	3.00000E+005	Initial Freq. (Hz)
FREQFINAL	QUANT	1.00000E+000	Final Freq. (Hz)
PTSPERDEC	QUANT	1.00000E+001	Points/decade
VAC	QUANT	5.00000E+001	AC Voltage (mV rms)
AREA	QUANT	1.00000E+000	Sample Area (cm^2)
SPEED	SELECTOR	2	Optimize for:
ZGUESS	QUANT	1.00000E+003	Estimated Z (ohms)
EOC	QUANT	0	Open Circuit (V)
SEQUENCER	TOGGLE	TRUE	Run as Sequence
PSTATMODEL	IQUANT	5	Pstat Model
PSTATSECTION	LABEL	REF3000-16137	Pstat Section
PSTATSERIALNO	LABEL	16137	Pstat Serial Number
CTRLMODE	IQUANT	1	Control Mode
IESTAB	IQUANT	0	I/E Stability
CASPEED	IQUANT	1	Control Amp Speed
CONVENTION	IQUANT	1	Current Convention
ICHRANGE	IQUANT	2	Ich Range
ICHRANGEMODE	TOGGLE	F	Ich Auto Range
ICHOFFSETENABLE	TOGGLE	T	Ich Offset Enable
ICHOFFSET	QUANT	0	Ich Offset (V)
ICHFILTER	IQUANT	3	Ich Filter
VCHRANGE	IQUANT	2	Vch Range
VCHRANGEMODE	TOGGLE	F	Vch Auto Range
VCHOFFSETENABLE	TOGGLE	T	Vch Offset Enable
VCHOFFSET	QUANT	0	Vch Offset (V)
VCHFILTER	IQUANT	3	Vch Filter
ACHRANGE	IQUANT	2	Ach Range
ACHOFFSETENABLE	TOGGLE	F	Ach Offset Enable
ACHOFFSET	QUANT	0	Ach Offset (V)
ACHFILTER	IQUANT	3	Ach Filter
IERANGELOWERLIMIT	IQUANT	2	I/E Range Lower Limit
IERANGEMODE	TOGGLE	F	I/E AutoRange
IERANGE	IQUANT	11	I/E Range
POSFEEDENABLE	TOGGLE	F	Positive Feedback IR Comp
POSFEEDRESISTANCE	QUANT	0	Positive Feedback Resistance (ohm)
ACHSELECT	IQUANT	0	Ach Select
CABLEID	IQUANT	13	Cable ID
DCCALDATE	LABEL	7/31/2020	DC Calibration Date
ACCALDATE	LABEL	7/31/2020	AC Calibration Date
THERMOSELECT	IQUANT	1	Thermo Select
FRAMEWORKVERSION	QUANT	6.33	Framework Version
INSTRUMENTVERSION	LABEL	3.50	Instrument Version
COMPLIANCEVOLTAGE	IQUANT	0	Compliance Voltage
ZCURVE	TABLE
	Pt	Time	Freq	Zreal	Zimag	Zsig	Zmod	Zphz	Idc	Vdc	IERange
	#	s	Hz	ohm	ohm	V	ohm	°	A	V	#
	0	14	300046.9	1036.245	-233.2497	1	1062.172	-12.68536	9.583611E-007	0.0014972	9
	1	39	238359.4	1066.376	-204.5176	1	1085.811	-10.85678	-9.386946E-005	0.0021588	9
	2	68	189328.1	1085.421	-183.0095	1	1100.741	-9.57046	-2.972142E-005	-0.0009372	9
	3	80	150421.9	1095.702	-155.9727	1	1106.748	-8.101595	-1.326432E-005	0.0017175	9
	4	87	119484.4	1119.23	-102.5095	1	1123.915	-5.233079	5.297772E-005	-0.0213136	8
	5	93	94921.88	1125.918	-97.2445	1	1130.109	-4.936334	-1.799867E-005	0.008595	8
	6	96	75421.88	1134.566	-94.31592	1	1138.479	-4.752045	-1.66671E-005	0.0028395	8
	7	100	59859.37	1141.016	-98.1149	1	1145.226	-4.91472	1.163074E-005	-0.006839	8
	8	103	47578.12	1146.594	-99.0994	1	1150.868	-4.939765	1.661256E-005	-0.0073532	8
	9	106	37828.12	1159.583	-109.0374	1	1164.698	-5.371821	1.621711E-005	-0.0071669	8
	10	109	30046.88	1171.136	-113.3178	1	1176.605	-5.52667	-1.891513E-005	0.0046995	8
	11	112	23859.38	1183.097	-125.0023	1	1189.682	-6.031312	-2.024478E-005	0.0063334	8
	12	114	18984.38	1196.67	-137.3033	1	1204.521	-6.545372	-7.551238E-006	0.0076335	8
	13	117	15046.87	1213.487	-155.2714	1	1223.381	-7.291644	-2.002485E-005	0.0062518	8
	14	120	11953.13	1229.433	-173.8368	1	1241.662	-8.048035	1.468288E-005	-0.0001432	8
	15	123	9515.62	1253.209	-195.8157	1	1268.415	-8.880734	-1.342122E-005	0.0012314	8
	16	125	7546.875	1276.851	-221.1915	1	1295.868	-9.82793	-1.790187E-005	0.0085655	8
	17	128	5928.309	1298.169	-252.3393	1	1322.467	-11.00003	1.973334E-005	-0.0068692	8
	18	132	4733.456	1333.399	-279.0764	1	1362.291	-11.8212	-1.81725E-005	0.0086123	8
	19	136	3796.875	1358.06	-313.1378	1	1393.694	-12.98418	1.996992E-005	-0.0068316	8
	20	140	2987.132	1387.987	-356.5862	1	1433.06	-14.4082	1.650533E-005	-0.0072335	8
	21	145	2390.625	1417.614	-398.0333	1	1472.433	-15.68352	-4.606953E-007	0.0057036	8
	22	149	1884.191	1448.117	-468.5892	1	1522.044	-17.93081	1.893199E-005	-0.0026299	8
	23	153	1516.544	1473.152	-550.6344	1	1572.697	-20.49472	-1.894256E-005	0.0047328	8
	24	157	1193.986	1498.779	-648.618	1	1633.109	-23.40124	1.660452E-005	-0.0073072	8
	25	162	946.5144	1519.502	-791.4835	1	1713.281	-27.51426	-8.365028E-006	0.0078363	8
	26	164	751.7689	1556.304	-959.384	1	1828.25	-31.65177	5.572598E-006	-0.0056004	8
	27	167	597.4265	1593.023	-1140.25	1	1959.054	-35.59424	-7.505818E-007	0.0058453	8
	28	170	477.4305	1631.67	-1389.694	1	2143.268	-40.42104	-2.09335E-007	0.0006362	8
	29	172	376.6741	1677.21	-1712.735	1	2397.185	-45.60041	-2.420755E-007	0.000643	8
	30	174	298.2954	1730.494	-2110.685	1	2729.396	-50.65258	-2.552983E-007	0.0006565	8
	31	177	237.7717	1792.588	-2591.169	1	3150.798	-55.32425	-2.224373E-007	0.0006493	8
	32	179	189.0121	1868.866	-3193.497	1	3700.146	-59.66341	-2.003336E-007	0.0006274	8
	33	181	150.2404	1967.46	-3947.363	1	4410.507	-63.50724	-5.327474E-008	0.0006453	7
	34	184	119.1737	2083.792	-4883.662	1	5309.646	-66.89272	-4.972372E-008	0.0006374	7
	35	186	95.0169	2221.386	-6016.107	1	6413.12	-69.73385	-4.892366E-008	0.0005889	7
	36	189	75.60484	2392.752	-7428.079	1	7803.949	-72.14508	-4.633513E-008	0.0005924	7
	37	191	54.50582	2709.143	-10051.46	1	10410.15	-74.91567	-5.158989E-008	0.0006139	7
	38	194	45.95588	2918.51	-11767.58	1	12124.09	-76.07097	-4.656307E-008	0.0005878	7
	39	196	37.20238	3227.949	-14305.82	1	14665.47	-77.28478	-5.402742E-008	0.0006497	7
	40	199	30.04808	3609.355	-17439.85	1	17809.43	-78.30714	-5.431389E-008	0.0006526	7
	41	201	23.91582	4114.254	-21534.29	1	21923.8	-79.18365	-4.82569E-008	0.0005862	7
	42	203	18.60119	4800.457	-27184.03	1	27604.63	-79.98533	-4.464818E-008	0.0006069	7
	43	206	15.02404	5566.961	-33101.98	1	33566.84	-80.45355	-4.62179E-008	0.0006216	7
	44	208	12.01923	6530.929	-40688.48	1	41209.29	-80.8812	-4.693796E-008	0.0005989	7
	45	210	9.450605	7848.564	-50801.22	1	51403.93	-81.21749	-5.86194E-009	0.0006938	6
	46	213	7.512019	9353.154	-62757.43	1	63450.59	-81.52322	-5.711521E-009	0.0006242	6
	47	216	5.978954	11255.81	-77436.57	1	78250.34	-81.72968	-5.152284E-009	0.000635	6
	48	219	4.734848	13702.55	-96000.5	1	96973.5	-81.8768	-5.827895E-009	0.0006491	6
	49	222	3.75601	16678.63	-118861.7	1	120026.2	-82.01243	-5.774052E-009	0.0006704	6
	50	228	3.004808	20178.67	-145898.2	1	147287	-82.12558	-5.692591E-009	0.0006631	6
	51	234	2.372217	24829.44	-181173.3	1	182866.8	-82.19634	-5.430033E-009	0.0006336	6
	52	238	1.878005	30940.54	-224821	1	226940.1	-82.16401	-5.732566E-009	0.0006766	6
	53	243	1.512097	37762.34	-274196.3	1	276784.4	-82.15855	-5.70722E-009	0.0005576	6
	54	248	1.201923	46341.98	-338717	1	341872.5	-82.20938	-5.746849E-009	0.0006903	6
	55	255	0.956633	56844.08	-417456.3	1	421308.7	-82.24586	-5.780177E-009	2.533799E-005	6
