EXPLAIN
TAG	EISPOT
TITLE	LABEL	Potentiostatic EIS	Test Identifier
DATE	LABEL	9/15/2020	Date
TIME	LABEL	2:22:46	Time
NOTES	NOTES	1	Notes...
	
PSTAT	PSTAT	REF3000-16137	Potentiostat
VDC	POTEN	0.00000E+000	T	DC Voltage (V)
FREQINIT	QUANT	3.00000E+005	Initial Freq. (Hz)
FREQFINAL	QUANT	1.00000E+000	Final Freq. (Hz)
PTSPERDEC	QUANT	1.00000E+001	Points/decade
VAC	QUANT	5.00000E+001	AC Voltage (mV rms)
AREA	QUANT	1.00000E+000	Sample Area (cm^2)
SPEED	SELECTOR	2	Optimize for:
ZGUESS	QUANT	1.00000E+003	Estimated Z (ohms)
EOC	QUANT	0	Open Circuit (V)
SEQUENCER	TOGGLE	TRUE	Run as Sequence
PSTATMODEL	IQUANT	5	Pstat Model
PSTATSECTION	LABEL	REF3000-16137	Pstat Section
PSTATSERIALNO	LABEL	16137	Pstat Serial Number
CTRLMODE	IQUANT	1	Control Mode
IESTAB	IQUANT	0	I/E Stability
CASPEED	IQUANT	1	Control Amp Speed
CONVENTION	IQUANT	1	Current Convention
ICHRANGE	IQUANT	2	Ich Range
ICHRANGEMODE	TOGGLE	F	Ich Auto Range
ICHOFFSETENABLE	TOGGLE	T	Ich Offset Enable
ICHOFFSET	QUANT	0	Ich Offset (V)
ICHFILTER	IQUANT	3	Ich Filter
VCHRANGE	IQUANT	2	Vch Range
VCHRANGEMODE	TOGGLE	F	Vch Auto Range
VCHOFFSETENABLE	TOGGLE	T	Vch Offset Enable
VCHOFFSET	QUANT	0	Vch Offset (V)
VCHFILTER	IQUANT	3	Vch Filter
ACHRANGE	IQUANT	2	Ach Range
ACHOFFSETENABLE	TOGGLE	F	Ach Offset Enable
ACHOFFSET	QUANT	0	Ach Offset (V)
ACHFILTER	IQUANT	3	Ach Filter
IERANGELOWERLIMIT	IQUANT	2	I/E Range Lower Limit
IERANGEMODE	TOGGLE	F	I/E AutoRange
IERANGE	IQUANT	11	I/E Range
POSFEEDENABLE	TOGGLE	F	Positive Feedback IR Comp
POSFEEDRESISTANCE	QUANT	0	Positive Feedback Resistance (ohm)
ACHSELECT	IQUANT	0	Ach Select
CABLEID	IQUANT	13	Cable ID
DCCALDATE	LABEL	7/31/2020	DC Calibration Date
ACCALDATE	LABEL	7/31/2020	AC Calibration Date
THERMOSELECT	IQUANT	1	Thermo Select
FRAMEWORKVERSION	QUANT	6.33	Framework Version
INSTRUMENTVERSION	LABEL	3.50	Instrument Version
COMPLIANCEVOLTAGE	IQUANT	0	Compliance Voltage
ZCURVE	TABLE
	Pt	Time	Freq	Zreal	Zimag	Zsig	Zmod	Zphz	Idc	Vdc	IERange
	#	s	Hz	ohm	ohm	V	ohm	°	A	V	#
	0	6	300046.9	95.976	-4.646285	1	96.0884	-2.771576	4.674579E-006	-0.0015924	9
	1	10	238359.4	96.636	-6.137717	1	96.8308	-3.634188	-9.371189E-006	0.0008553	9
	2	13	189328.1	97.6469	-7.618711	1	97.9437	-4.461352	2.607922E-005	0.0002824	9
	3	15	150421.9	98.8517	-8.919634	1	99.2533	-5.155978	6.46506E-005	-0.002426	9
	4	18	119484.4	99.9115	-10.82726	1	100.4965	-6.18492	6.543012E-005	-0.0023816	9
	5	20	94921.88	101.2897	-12.41341	1	102.0475	-6.986957	3.044948E-006	0.000463	9
	6	23	75421.88	102.8069	-14.51513	1	103.8266	-8.036373	1.391707E-005	-0.0007077	9
	7	25	59859.37	104.4698	-16.79099	1	105.8105	-9.130823	2.250051E-005	-0.0006876	9
	8	28	47578.12	106.3561	-19.1361	1	108.0639	-10.1998	-3.921515E-006	0.0006716	9
	9	30	37828.12	108.3233	-21.86142	1	110.5073	-11.40996	-1.71463E-005	0.0008514	9
	10	33	30046.88	110.4178	-24.9971	1	113.212	-12.75598	-5.682585E-006	0.0006655	9
	11	36	23859.38	112.4512	-28.73455	1	116.0644	-14.33401	-1.294942E-005	7.068436E-005	9
	12	38	18984.38	114.6116	-33.10838	1	119.2979	-16.11266	1.251109E-005	-0.0006242	9
	13	40	15046.87	116.7992	-38.5423	1	122.9942	-18.26225	1.901962E-005	-0.0000972	9
	14	42	11953.13	118.9876	-45.24682	1	127.3002	-20.82005	2.014469E-005	-0.0002537	9
	15	45	9515.62	121.0504	-53.65536	1	132.4088	-23.90523	1.839952E-005	-0.0001498	9
	16	47	7546.875	123.3673	-64.44251	1	139.1845	-27.5809	1.447648E-005	-0.0007364	9
	17	49	5928.309	125.8549	-78.3215	1	148.2354	-31.89465	-1.676629E-005	0.0003949	9
	18	52	4733.456	128.6871	-94.76222	1	159.8131	-36.36708	2.433271E-005	-0.0005896	9
	19	54	3796.875	131.7292	-114.7602	1	174.7069	-41.06182	-2.619006E-006	-0.0002686	9
	20	56	2987.132	135.5542	-141.7397	1	196.1251	-46.27787	-1.909525E-005	0.0007499	9
	21	59	2390.625	139.9973	-172.5763	1	222.2202	-50.95035	-1.876988E-005	0.0005031	9
	22	61	1884.191	145.2811	-214.0033	1	258.6581	-55.82848	-3.136855E-006	-0.0002349	9
	23	63	1516.544	150.9752	-260.8922	1	301.427	-59.94255	1.830629E-005	-0.0006826	9
	24	66	1193.986	159.7473	-325.0257	1	362.1614	-63.82628	2.498296E-005	-0.0006071	9
	25	68	946.5144	171.4017	-400.0845	1	435.2542	-66.80905	4.76877E-006	-0.0004875	9
	26	71	751.7689	180.9751	-493.341	1	525.4877	-69.85516	3.010341E-006	-0.0012137	8
	27	73	597.4265	195.3687	-608.4841	1	639.0789	-72.1995	-4.463164E-006	0.0027913	8
	28	75	477.4305	212.8742	-747.6926	1	777.4057	-74.10791	2.666503E-007	0.0006488	8
	29	78	376.6741	235.533	-929.8144	1	959.182	-75.7853	2.614691E-007	0.000644	8
	30	80	298.2954	262.9949	-1152.575	1	1182.2	-77.1463	2.63345E-007	0.0006495	8
	31	82	237.7717	295.8251	-1420.359	1	1450.839	-78.23492	2.62133E-007	0.0006478	8
	32	85	189.0121	336.5244	-1755.126	1	1787.097	-79.14595	2.691005E-007	0.0006529	8
	33	87	150.2404	386.8338	-2169.202	1	2203.425	-79.88873	2.744868E-007	0.00064	8
	34	90	119.1737	449.1716	-2686.824	1	2724.11	-80.5093	2.591105E-007	0.0006537	8
	35	92	95.0169	525.6322	-3312.684	1	3354.126	-80.98389	2.813142E-007	0.0006424	8
	36	94	75.60484	621.134	-4092.207	1	4139.078	-81.36926	2.740323E-007	0.0006536	8
	37	97	54.50582	800.7784	-5551.233	1	5608.693	-81.79157	2.187651E-008	0.0006112	7
	38	100	45.95588	919.2435	-6498.539	1	6563.232	-81.94871	2.874025E-008	0.0006222	7
	39	102	37.20238	1092.707	-7896.817	1	7972.06	-82.12183	2.605936E-008	0.000617	7
	40	104	30.04808	1310.137	-9621.6	1	9710.39	-82.24594	2.241088E-008	0.0006121	7
	41	107	23.91582	1599.116	-11869.17	1	11976.41	-82.32683	2.117069E-008	0.0006298	7
	42	109	18.60119	1991.6	-14970.65	1	15102.54	-82.42223	2.566695E-008	0.0006353	7
	43	111	15.02404	2427.068	-18235.95	1	18396.75	-82.41891	2.669564E-008	0.0006346	7
	44	114	12.01923	2975.968	-22398.48	1	22595.32	-82.43174	2.50315E-008	0.0006298	7
	45	116	9.450605	3723.926	-27966.57	1	28213.42	-82.41532	2.697266E-008	0.0006165	7
	46	119	7.512019	4596.063	-34541.29	1	34845.73	-82.42075	2.973167E-008	0.0006131	7
	47	121	5.978954	5743.101	-42624.54	1	43009.7	-82.32635	2.791161E-008	0.0006266	7
	48	125	4.734848	7291.494	-52898.43	1	53398.59	-82.15183	3.60658E-009	0.0006542	6
	49	128	3.75601	9154.037	-65453.88	1	66090.9	-82.03855	3.131912E-009	0.0006655	6
	50	134	3.004808	11464.65	-80308.91	1	81123.12	-81.87553	3.699314E-009	0.0006256	6
	51	140	2.372217	14668.55	-99606.5	1	100680.7	-81.62255	3.235166E-009	0.0006339	6
	52	145	1.878005	19009.41	-123379	1	124834.8	-81.24113	2.794862E-009	0.0006686	6
	53	149	1.512097	24031.62	-150198.8	1	152109.2	-80.90979	2.95269E-009	0.0005548	6
	54	155	1.201923	30946.28	-184884.3	1	187456.3	-80.49781	2.699514E-009	0.0006798	6
	55	161	0.956633	39678.94	-226884.5	1	230328	-80.08009	2.521992E-009	2.378873E-005	6
