EXPLAIN
TAG	EISPOT
TITLE	LABEL	Potentiostatic EIS	Test Identifier
DATE	LABEL	9/15/2020	Date
TIME	LABEL	7:24:21	Time
NOTES	NOTES	1	Notes...
	
PSTAT	PSTAT	REF3000-16137	Potentiostat
VDC	POTEN	0.00000E+000	T	DC Voltage (V)
FREQINIT	QUANT	3.00000E+005	Initial Freq. (Hz)
FREQFINAL	QUANT	1.00000E+000	Final Freq. (Hz)
PTSPERDEC	QUANT	1.00000E+001	Points/decade
VAC	QUANT	5.00000E+001	AC Voltage (mV rms)
AREA	QUANT	1.00000E+000	Sample Area (cm^2)
SPEED	SELECTOR	2	Optimize for:
ZGUESS	QUANT	1.00000E+003	Estimated Z (ohms)
EOC	QUANT	0	Open Circuit (V)
SEQUENCER	TOGGLE	TRUE	Run as Sequence
PSTATMODEL	IQUANT	5	Pstat Model
PSTATSECTION	LABEL	REF3000-16137	Pstat Section
PSTATSERIALNO	LABEL	16137	Pstat Serial Number
CTRLMODE	IQUANT	1	Control Mode
IESTAB	IQUANT	0	I/E Stability
CASPEED	IQUANT	1	Control Amp Speed
CONVENTION	IQUANT	1	Current Convention
ICHRANGE	IQUANT	2	Ich Range
ICHRANGEMODE	TOGGLE	F	Ich Auto Range
ICHOFFSETENABLE	TOGGLE	T	Ich Offset Enable
ICHOFFSET	QUANT	0	Ich Offset (V)
ICHFILTER	IQUANT	3	Ich Filter
VCHRANGE	IQUANT	2	Vch Range
VCHRANGEMODE	TOGGLE	F	Vch Auto Range
VCHOFFSETENABLE	TOGGLE	T	Vch Offset Enable
VCHOFFSET	QUANT	0	Vch Offset (V)
VCHFILTER	IQUANT	3	Vch Filter
ACHRANGE	IQUANT	2	Ach Range
ACHOFFSETENABLE	TOGGLE	F	Ach Offset Enable
ACHOFFSET	QUANT	0	Ach Offset (V)
ACHFILTER	IQUANT	3	Ach Filter
IERANGELOWERLIMIT	IQUANT	2	I/E Range Lower Limit
IERANGEMODE	TOGGLE	F	I/E AutoRange
IERANGE	IQUANT	11	I/E Range
POSFEEDENABLE	TOGGLE	F	Positive Feedback IR Comp
POSFEEDRESISTANCE	QUANT	0	Positive Feedback Resistance (ohm)
ACHSELECT	IQUANT	0	Ach Select
CABLEID	IQUANT	13	Cable ID
DCCALDATE	LABEL	7/31/2020	DC Calibration Date
ACCALDATE	LABEL	7/31/2020	AC Calibration Date
THERMOSELECT	IQUANT	1	Thermo Select
FRAMEWORKVERSION	QUANT	6.33	Framework Version
INSTRUMENTVERSION	LABEL	3.50	Instrument Version
COMPLIANCEVOLTAGE	IQUANT	0	Compliance Voltage
ZCURVE	TABLE
	Pt	Time	Freq	Zreal	Zimag	Zsig	Zmod	Zphz	Idc	Vdc	IERange
	#	s	Hz	ohm	ohm	V	ohm	°	A	V	#
	0	18	300046.9	-89.05453	-4939.249	1	4940.052	-91.03293	-2.042875E-005	0.00166	9
	1	34	238359.4	46.77881	-6060.996	1	6061.177	-89.5578	-6.260216E-005	0.0005224	9
	2	55	189328.1	752.1632	-7231.145	1	7270.159	-84.06161	-1.37025E-005	0.0017115	9
	3	63	150421.9	545.1812	-9849.3	1	9864.38	-86.83178	-9.059753E-005	0.0021728	9
	4	76	119484.4	909.5961	-11623.87	1	11659.41	-85.52558	-9.273573E-005	0.0332127	8
	5	83	94921.88	541.6768	-14802.55	1	14812.46	-87.90428	1.621818E-005	-0.009138	8
	6	92	75421.88	993.53	-18635.62	1	18662.09	-86.94825	-2.365717E-005	0.0051492	8
	7	101	59859.37	999.798	-23379.27	1	23400.64	-87.55128	2.620406E-005	-0.0089498	8
	8	108	47578.12	500.4248	-29040.53	1	29044.84	-89.01278	-1.995583E-005	0.0113869	8
	9	117	37828.12	723.8373	-36316.65	1	36323.86	-88.85817	2.824658E-005	-0.00049	9
	10	126	30046.88	1937.28	-46380.87	1	46421.31	-87.60821	-2.600278E-005	0.007413	8
	11	134	23859.38	-2888.997	-57559.17	1	57631.63	-92.87337	8.533676E-006	0.004157	8
	12	142	18984.38	3128.88	-72801.9	1	72869.1	-87.53905	2.629502E-005	-0.008958	8
	13	148	15046.87	3566.645	-90925.71	1	90995.63	-87.75367	1.00123E-005	-0.0007853	9
	14	156	11953.13	6512.555	-114357.7	1	114543	-86.74059	-6.759831E-006	0.0120716	7
	15	163	9515.62	10813.66	-144108.7	1	144513.9	-85.70867	5.14927E-006	-0.0009989	7
	16	168	7546.875	15083.92	-181101.5	1	181728.5	-85.23883	6.956132E-006	-0.0271706	7
	17	173	5928.309	13601.59	-223921.2	1	224333.9	-86.52396	5.415502E-006	-0.0269449	7
	18	180	4733.456	-9007.491	-319073.6	1	319200.7	-91.61703	-1.784029E-006	0.0221804	7
	19	187	3796.875	-84463.03	-415771.9	1	424264.4	-101.4832	-9.421305E-006	-0.0021653	8
	20	196	2987.132	67582.75	-417892	1	423321.6	-80.81349	7.706292E-006	-0.0243769	7
	21	204	2390.625	137453.9	-576657.4	1	592813.1	-76.59297	-1.874495E-006	0.022228	7
	22	210	1884.191	177550.9	-708258.7	1	730174.4	-75.92674	2.169424E-007	0.0105856	6
	23	217	1516.544	240701.7	-888226.6	1	920262.9	-74.8375	4.017216E-007	-0.0254071	6
	24	222	1193.986	365380	-1056855	1	1118233	-70.92851	-3.591623E-009	0.0175938	6
	25	228	946.5144	493710.9	-1384648	1	1470035	-70.37577	5.92409E-007	-0.027941	6
	26	231	751.7689	455506	-1546393	1	1612085	-73.58712	4.307789E-007	0.0019627	6
	27	236	597.4265	743021	-1858029	1	2001087	-68.20365	4.068625E-007	-0.025489	6
	28	240	477.4305	1649086	-1912133	1	2525022	-49.22444	-9.787E-010	0.0006906	5
	29	244	376.6741	1783185	-2139631	1	2785277	-50.19191	-9.098078E-009	0.0007154	6
	30	248	298.2954	2525265	-2066827	1	3263240	-39.29894	-9.81877E-010	0.0006829	5
	31	251	237.7717	2782958	-2152729	1	3518394	-37.72338	-8.527653E-009	0.0006122	6
	32	255	189.0121	3359785	-1903575	1	3861574	-29.53488	-1.026671E-009	0.0007114	5
	33	259	150.2404	3665182	-1783220	1	4075958	-25.9443	-9.433705E-010	0.0006182	5
	34	263	119.1737	3524446	-1442895	1	3808367	-22.26401	-9.034973E-010	0.0005993	5
	35	268	95.0169	4203481	-1318448	1	4405401	-17.41436	-9.699229E-010	0.0007219	5
	36	271	75.60484	4350799	-1083336	1	4483644	-13.98214	-9.766087E-010	0.0006758	5
	37	275	54.50582	4609542	-937444.3	1	4703901	-11.49549	-9.439668E-010	0.0006148	5
	38	280	45.95588	4942113	-343595.9	1	4954043	-3.977037	-4.826951E-011	0.0007016	4
	39	282	37.20238	5027452	-263068.7	1	5034330	-2.995353	-1.060306E-010	0.0006693	4
	40	285	30.04808	4976972	-308919	1	4986550	-3.551773	-4.146306E-011	0.0006319	4
	41	288	23.91582	5005958	-350016.8	1	5018180	-3.999614	-1.613081E-010	0.000687	4
	42	291	18.60119	5011359	-558276.3	1	5042359	-6.356666	-3.314951E-010	0.0006774	4
	43	293	15.02404	5075999	-383960	1	5090500	-4.325745	-4.266878E-011	0.0007087	4
	44	295	12.01923	5138658	-437512.3	1	5157249	-4.866504	-1.040573E-010	0.000635	4
	45	298	9.450605	5184020	-475835.5	1	5205813	-5.244421	-1.339996E-010	0.0005973	4
	46	301	7.512019	5261805	-572839.3	1	5292895	-6.213176	8.946832E-012	0.0006147	4
	47	304	5.978954	5354400	-621180.5	1	5390312	-6.617478	-4.359783E-011	0.0005996	4
	48	308	4.734848	5467233	-735217.8	1	5516447	-7.659023	-1.501261E-010	0.0006685	4
	49	313	3.75601	5597299	-832263.9	1	5658835	-8.457362	-4.745548E-011	0.0006281	4
	50	318	3.004808	5747477	-949487.5	1	5825377	-9.380582	-1.208287E-011	0.0006356	4
	51	325	2.372217	5918806	-1069010	1	6014569	-10.23796	-2.343653E-010	0.0006062	4
	52	329	1.878005	6079508	-1210193	1	6198789	-11.2582	-1.899155E-010	0.0006575	4
	53	334	1.512097	6237644	-1364620	1	6385169	-12.34027	-5.743131E-011	0.0005362	4
	54	339	1.201923	6439022	-1536516	1	6619810	-13.42125	-1.796731E-010	0.0007157	4
	55	345	0.956633	6652671	-1756977	1	6880771	-14.79409	-2.56081E-010	1.713125E-005	4
