EXPLAIN
TAG	EISPOT
TITLE	LABEL	Potentiostatic EIS	Test Identifier
DATE	LABEL	9/15/2020	Date
TIME	LABEL	7:53:53	Time
NOTES	NOTES	1	Notes...
	
PSTAT	PSTAT	REF3000-16137	Potentiostat
VDC	POTEN	0.00000E+000	T	DC Voltage (V)
FREQINIT	QUANT	3.00000E+005	Initial Freq. (Hz)
FREQFINAL	QUANT	1.00000E+000	Final Freq. (Hz)
PTSPERDEC	QUANT	1.00000E+001	Points/decade
VAC	QUANT	5.00000E+001	AC Voltage (mV rms)
AREA	QUANT	1.00000E+000	Sample Area (cm^2)
SPEED	SELECTOR	2	Optimize for:
ZGUESS	QUANT	1.00000E+003	Estimated Z (ohms)
EOC	QUANT	0	Open Circuit (V)
SEQUENCER	TOGGLE	TRUE	Run as Sequence
PSTATMODEL	IQUANT	5	Pstat Model
PSTATSECTION	LABEL	REF3000-16137	Pstat Section
PSTATSERIALNO	LABEL	16137	Pstat Serial Number
CTRLMODE	IQUANT	1	Control Mode
IESTAB	IQUANT	0	I/E Stability
CASPEED	IQUANT	1	Control Amp Speed
CONVENTION	IQUANT	1	Current Convention
ICHRANGE	IQUANT	2	Ich Range
ICHRANGEMODE	TOGGLE	F	Ich Auto Range
ICHOFFSETENABLE	TOGGLE	T	Ich Offset Enable
ICHOFFSET	QUANT	0	Ich Offset (V)
ICHFILTER	IQUANT	3	Ich Filter
VCHRANGE	IQUANT	2	Vch Range
VCHRANGEMODE	TOGGLE	F	Vch Auto Range
VCHOFFSETENABLE	TOGGLE	T	Vch Offset Enable
VCHOFFSET	QUANT	0	Vch Offset (V)
VCHFILTER	IQUANT	3	Vch Filter
ACHRANGE	IQUANT	2	Ach Range
ACHOFFSETENABLE	TOGGLE	F	Ach Offset Enable
ACHOFFSET	QUANT	0	Ach Offset (V)
ACHFILTER	IQUANT	3	Ach Filter
IERANGELOWERLIMIT	IQUANT	2	I/E Range Lower Limit
IERANGEMODE	TOGGLE	F	I/E AutoRange
IERANGE	IQUANT	11	I/E Range
POSFEEDENABLE	TOGGLE	F	Positive Feedback IR Comp
POSFEEDRESISTANCE	QUANT	0	Positive Feedback Resistance (ohm)
ACHSELECT	IQUANT	0	Ach Select
CABLEID	IQUANT	13	Cable ID
DCCALDATE	LABEL	7/31/2020	DC Calibration Date
ACCALDATE	LABEL	7/31/2020	AC Calibration Date
THERMOSELECT	IQUANT	1	Thermo Select
FRAMEWORKVERSION	QUANT	6.33	Framework Version
INSTRUMENTVERSION	LABEL	3.50	Instrument Version
COMPLIANCEVOLTAGE	IQUANT	0	Compliance Voltage
ZCURVE	TABLE
	Pt	Time	Freq	Zreal	Zimag	Zsig	Zmod	Zphz	Idc	Vdc	IERange
	#	s	Hz	ohm	ohm	V	ohm	°	A	V	#
	0	14	300046.9	-87.84491	-4869.642	1	4870.435	-91.03346	8.538034E-007	-0.0021451	9
	1	28	238359.4	-13.04881	-6114.135	1	6114.149	-90.12228	8.159272E-007	0.0016026	9
	2	42	189328.1	-189.3605	-7515.698	1	7518.083	-91.44328	2.458531E-005	0.0010867	9
	3	49	150421.9	-178.6165	-9569.55	1	9571.21	-91.06931	7.77353E-005	-0.0015384	9
	4	57	119484.4	292.3169	-12208.27	1	12211.77	-88.62836	1.993274E-005	-0.0007883	9
	5	65	94921.88	525.123	-14703.47	1	14712.84	-87.9546	-1.56781E-005	0.0005699	8
	6	74	75421.88	706.7902	-18436.18	1	18449.73	-87.80452	-2.361371E-006	0.0078489	8
	7	82	59859.37	730.9492	-23144.53	1	23156.06	-88.19109	-2.68734E-005	0.0096737	8
	8	90	47578.12	4061.951	-30606.27	1	30874.64	-82.44009	1.206857E-006	-0.0199899	7
	9	98	37828.12	751.889	-36524.95	1	36532.69	-88.82069	1.718634E-005	0.0003446	8
	10	106	30046.88	4466.253	-46943.67	1	47155.66	-84.5652	-5.417132E-006	0.0267985	7
	11	114	23859.38	5016.866	-58832.1	1	59045.61	-85.12593	-3.314176E-006	-0.0054969	7
	12	119	18984.38	5243.643	-72774.24	1	72962.91	-85.87876	-1.039038E-006	-0.0134738	7
	13	124	15046.87	5648.762	-91071	1	91246.02	-86.45072	-6.725468E-006	0.0119178	7
	14	130	11953.13	-7373.832	-114509.8	1	114747	-93.68446	2.718562E-005	-0.0072998	8
	15	137	9515.62	2467.927	-144543.6	1	144564.7	-89.02183	8.094118E-006	-0.0076957	8
	16	145	7546.875	1669.564	-179711.9	1	179719.7	-89.46773	6.907698E-006	-0.0270978	7
	17	151	5928.309	-3858.058	-207947.3	1	207983.1	-91.06289	-6.72105E-006	0.0119343	7
	18	158	4733.456	-22306.8	-300562	1	301388.6	-94.24454	-5.354752E-006	0.0035556	7
	19	163	3796.875	45439.96	-364378.2	1	367200.6	-82.8916	-3.469744E-006	0.0246811	7
	20	171	2987.132	3855.705	-382445.6	1	382465	-89.42238	-2.617014E-005	0.007486	8
	21	178	2390.625	-81564.48	-607271.3	1	612724.4	-97.6498	-8.857544E-006	-0.0001925	9
	22	186	1884.191	-8791.024	-562645.7	1	562714.4	-90.89514	-3.796707E-006	0.025522	7
	23	192	1516.544	-40685.15	-809677.3	1	810698.9	-92.87661	7.581128E-006	-0.0183652	7
	24	199	1193.986	-315003.1	-351805.9	1	472222.7	-131.8409	-1.51566E-005	4.014347E-005	9
	25	208	946.5144	-1577450	-757817.4	1	1750039	-154.3401	2.812633E-006	0.0088206	7
	26	214	751.7689	-987548	-184177.9	1	1004576	-169.4357	-5.355178E-006	0.0271052	7
	27	219	597.4265	-400706.6	-866764.7	1	954907	-114.8112	3.59511E-006	-0.0246114	7
	28	224	477.4305	124928.3	-2829043	1	2831800	-87.4715	-9.204953E-008	0.0006228	7
	29	231	376.6741	581628.7	-3701328	1	3746748	-81.06954	-1.003264E-009	0.0005895	5
	30	234	298.2954	662758.8	-4615585	1	4662926	-81.82867	-9.329516E-010	0.0006143	5
	31	239	237.7717	717330.9	-5815404	1	5859479	-82.96808	-9.789398E-010	0.0006664	5
	32	241	189.0121	975262	-7130196	1	7196584	-82.21146	-9.626404E-010	0.0006679	5
	33	244	150.2404	1277293	-8615119	1	8709291	-81.56667	-9.736428E-010	0.0006844	5
	34	247	119.1737	-1836556	-1.077937E+007	1	1.093471E+007	-99.669	-1.028449E-009	0.0006786	5
	35	250	95.0169	1926506	-1.387321E+007	1	1.400634E+007	-82.09417	-9.523914E-010	0.0005952	5
	36	252	75.60484	2923172	-1.853332E+007	1	1.876243E+007	-81.03685	-1.065652E-009	0.0006406	5
	37	255	54.50582	3868503	-2.340126E+007	1	2.371886E+007	-80.61323	-1.001509E-009	0.0006863	5
	38	258	45.95588	4802897	-2.610271E+007	1	2.65409E+007	-79.5742	-9.73319E-010	0.0006861	5
	39	262	37.20238	1.160703E+007	-3.038572E+007	1	3.252714E+007	-69.09367	-9.165371E-010	0.0006199	5
	40	266	30.04808	1.386608E+007	-3.920362E+007	1	4.158355E+007	-70.52163	-9.85437E-010	0.0006905	5
	41	270	23.91582	2.840197E+007	-4.952494E+007	1	5.709108E+007	-60.16624	-4.299128E-011	0.000674	4
	42	274	18.60119	3.95666E+007	-4.431319E+007	1	5.940686E+007	-48.2388	-1.376607E-010	0.0006356	4
	43	277	15.02404	4.117562E+007	-6.207743E+007	1	7.449187E+007	-56.4439	-1.012317E-010	0.0006148	4
	44	281	12.01923	5.270099E+007	-6.486304E+007	1	8.357397E+007	-50.90627	-7.470639E-011	0.0006797	4
	45	285	9.450605	7.336218E+007	-6.799525E+007	1	1.000268E+008	-42.82569	-9.180641E-011	0.0005923	4
	46	289	7.512019	8.783836E+007	-7.202712E+007	1	1.135935E+008	-39.35162	-1.045091E-010	0.0006799	4
	47	293	5.978954	9.669358E+007	-6.555734E+007	1	1.168221E+008	-34.1369	-7.573055E-011	0.0006131	4
	48	299	4.734848	1.287372E+008	-4.827767E+007	1	1.374918E+008	-20.55652	-8.190811E-012	0.0006919	3
	49	304	3.75601	1.354015E+008	-4.206745E+007	1	1.417859E+008	-17.25933	-8.612187E-012	0.00069	3
	50	309	3.004808	1.411688E+008	-3.722918E+007	1	1.459954E+008	-14.77373	-8.236201E-012	0.0006904	3
	51	315	2.372217	1.464698E+008	-3.188091E+007	1	1.498993E+008	-12.27958	-8.86611E-012	0.0007952	3
	52	320	1.878005	1.507106E+008	-2.810656E+007	1	1.53309E+008	-10.56394	-9.916857E-012	0.0006928	3
	53	328	1.512097	1.548124E+008	-2.549824E+007	1	1.568981E+008	-9.352881	-1.162306E-011	0.00075	3
	54	333	1.201923	1.584949E+008	-2.317589E+007	1	1.601804E+008	-8.319107	-9.413436E-012	0.0007412	3
	55	341	0.956633	1.625817E+008	-2.161153E+007	1	1.640118E+008	-7.571781	-1.536404E-011	9.133251E-005	3
