EXPLAIN
TAG	EISPOT
TITLE	LABEL	Potentiostatic EIS	Test Identifier
DATE	LABEL	9/15/2020	Date
TIME	LABEL	2:36:57	Time
NOTES	NOTES	1	Notes...
	
PSTAT	PSTAT	REF3000-16137	Potentiostat
VDC	POTEN	0.00000E+000	T	DC Voltage (V)
FREQINIT	QUANT	3.00000E+005	Initial Freq. (Hz)
FREQFINAL	QUANT	1.00000E+000	Final Freq. (Hz)
PTSPERDEC	QUANT	1.00000E+001	Points/decade
VAC	QUANT	5.00000E+001	AC Voltage (mV rms)
AREA	QUANT	1.00000E+000	Sample Area (cm^2)
SPEED	SELECTOR	2	Optimize for:
ZGUESS	QUANT	1.00000E+003	Estimated Z (ohms)
EOC	QUANT	0	Open Circuit (V)
SEQUENCER	TOGGLE	TRUE	Run as Sequence
PSTATMODEL	IQUANT	5	Pstat Model
PSTATSECTION	LABEL	REF3000-16137	Pstat Section
PSTATSERIALNO	LABEL	16137	Pstat Serial Number
CTRLMODE	IQUANT	1	Control Mode
IESTAB	IQUANT	0	I/E Stability
CASPEED	IQUANT	1	Control Amp Speed
CONVENTION	IQUANT	1	Current Convention
ICHRANGE	IQUANT	2	Ich Range
ICHRANGEMODE	TOGGLE	F	Ich Auto Range
ICHOFFSETENABLE	TOGGLE	T	Ich Offset Enable
ICHOFFSET	QUANT	0	Ich Offset (V)
ICHFILTER	IQUANT	3	Ich Filter
VCHRANGE	IQUANT	2	Vch Range
VCHRANGEMODE	TOGGLE	F	Vch Auto Range
VCHOFFSETENABLE	TOGGLE	T	Vch Offset Enable
VCHOFFSET	QUANT	0	Vch Offset (V)
VCHFILTER	IQUANT	3	Vch Filter
ACHRANGE	IQUANT	2	Ach Range
ACHOFFSETENABLE	TOGGLE	F	Ach Offset Enable
ACHOFFSET	QUANT	0	Ach Offset (V)
ACHFILTER	IQUANT	3	Ach Filter
IERANGELOWERLIMIT	IQUANT	2	I/E Range Lower Limit
IERANGEMODE	TOGGLE	F	I/E AutoRange
IERANGE	IQUANT	11	I/E Range
POSFEEDENABLE	TOGGLE	F	Positive Feedback IR Comp
POSFEEDRESISTANCE	QUANT	0	Positive Feedback Resistance (ohm)
ACHSELECT	IQUANT	0	Ach Select
CABLEID	IQUANT	13	Cable ID
DCCALDATE	LABEL	7/31/2020	DC Calibration Date
ACCALDATE	LABEL	7/31/2020	AC Calibration Date
THERMOSELECT	IQUANT	1	Thermo Select
FRAMEWORKVERSION	QUANT	6.33	Framework Version
INSTRUMENTVERSION	LABEL	3.50	Instrument Version
COMPLIANCEVOLTAGE	IQUANT	0	Compliance Voltage
ZCURVE	TABLE
	Pt	Time	Freq	Zreal	Zimag	Zsig	Zmod	Zphz	Idc	Vdc	IERange
	#	s	Hz	ohm	ohm	V	ohm	°	A	V	#
	0	7	300046.9	109.8752	-5.682467	1	110.022	-2.960556	9.323289E-006	-0.0011312	9
	1	10	238359.4	110.8448	-7.291002	1	111.0843	-3.763304	4.150513E-006	-0.0016094	9
	2	13	189328.1	111.6732	-8.587696	1	112.0029	-4.397406	1.104708E-005	-0.0014272	9
	3	16	150421.9	112.8579	-10.33737	1	113.3303	-5.23348	-7.004528E-005	0.0030261	9
	4	19	119484.4	114.1114	-12.00033	1	114.7407	-6.003346	-9.737984E-006	0.0009479	9
	5	21	94921.88	115.7416	-13.76851	1	116.5577	-6.783967	-2.074183E-005	0.0007298	9
	6	24	75421.88	117.4551	-15.90187	1	118.5266	-7.710214	1.602565E-005	-4.276332E-005	9
	7	26	59859.37	119.3257	-18.40683	1	120.7371	-8.769158	2.269346E-006	0.0004449	9
	8	29	47578.12	121.4226	-20.97873	1	123.2215	-9.80248	1.240442E-005	0.0002004	9
	9	31	37828.12	123.5875	-23.90468	1	125.8781	-10.94714	-5.644305E-006	0.0007446	9
	10	34	30046.88	125.9894	-27.17924	1	128.8877	-12.17365	5.878623E-006	-0.0005298	9
	11	37	23859.38	128.4266	-31.13733	1	132.1474	-13.62852	-1.822149E-005	0.000825	9
	12	39	18984.38	130.788	-35.66253	1	135.5629	-15.2523	-2.027883E-006	-0.0002874	9
	13	41	15046.87	133.2374	-41.40107	1	139.5215	-17.26167	-1.907462E-005	0.0004876	9
	14	43	11953.13	135.6266	-48.4654	1	144.0259	-19.66407	-2.06741E-005	0.0008565	9
	15	46	9515.62	138.1684	-57.09301	1	149.4996	-22.45106	2.305648E-005	-0.0006763	9
	16	48	7546.875	140.624	-68.09673	1	156.2443	-25.83844	-2.069066E-005	0.0009946	9
	17	50	5928.309	143.6974	-82.68613	1	165.7888	-29.91692	2.497391E-005	-0.0006222	9
	18	53	4733.456	146.521	-99.6937	1	177.2208	-34.23158	1.135845E-005	0.0001892	9
	19	55	3796.875	149.8495	-120.16	1	192.0762	-38.72513	2.194001E-005	-0.0006824	9
	20	57	2987.132	153.8162	-148.6895	1	213.9346	-44.02908	1.237798E-005	-0.0006416	9
	21	60	2390.625	158.5125	-180.8857	1	240.5116	-48.77149	1.867864E-005	-0.0007222	9
	22	62	1884.191	163.4842	-224.1197	1	277.4108	-53.89111	3.218644E-006	0.0004998	9
	23	66	1516.544	171.1414	-272.9342	1	322.1529	-57.91052	-1.263037E-005	0.0008293	9
	24	68	1193.986	179.4363	-339.6958	1	384.1752	-62.1558	-2.11016E-005	0.0008019	9
	25	70	946.5144	190.8693	-418.0633	1	459.5737	-65.46066	-2.063535E-005	0.000845	9
	26	73	751.7689	202.2149	-515.4797	1	553.724	-68.58067	-5.303845E-006	0.0014276	8
	27	75	597.4265	217.1353	-637.2473	1	673.225	-71.184	5.494153E-006	4.049497E-005	8
	28	78	477.4305	235.0232	-782.2013	1	816.7465	-73.27638	2.159603E-007	0.000651	8
	29	80	376.6741	258.7986	-972.631	1	1006.473	-75.09992	2.24363E-007	0.0006479	8
	30	82	298.2954	287.6468	-1205.561	1	1239.402	-76.58014	2.369409E-007	0.0006526	8
	31	85	237.7717	322.0036	-1485.527	1	1520.025	-77.76974	2.4041E-007	0.0006413	8
	32	87	189.0121	364.7005	-1835.537	1	1871.417	-78.76233	2.24856E-007	0.0006433	8
	33	89	150.2404	417.3842	-2268.359	1	2306.439	-79.57404	2.278173E-007	0.0006368	8
	34	92	119.1737	483.3058	-2809.18	1	2850.452	-80.23811	2.429204E-007	0.0006389	8
	35	94	95.0169	562.4935	-3463.741	1	3509.117	-80.77599	2.44733E-007	0.0006396	8
	36	97	75.60484	661.9321	-4278.656	1	4329.556	-81.20574	2.397593E-007	0.0006453	8
	37	99	54.50582	847.8367	-5803.149	1	5864.757	-81.68793	1.441536E-008	0.0006203	7
	38	102	45.95588	970.968	-6793.55	1	6862.587	-81.86609	2.222286E-008	0.0006198	7
	39	104	37.20238	1152.333	-8257.441	1	8337.458	-82.05563	1.861669E-008	0.0006285	7
	40	107	30.04808	1378.898	-10067.42	1	10161.42	-82.20094	1.847259E-008	0.0006218	7
	41	109	23.91582	1674.252	-12432.53	1	12544.76	-82.33029	1.748151E-008	0.0006151	7
	42	111	18.60119	2098.811	-15665.11	1	15805.08	-82.36896	2.083477E-008	0.0006202	7
	43	114	15.02404	2538.138	-19079.45	1	19247.53	-82.42243	2.066807E-008	0.0006153	7
	44	116	12.01923	3116.083	-23423.09	1	23629.46	-82.42217	2.202489E-008	0.0006169	7
	45	118	9.450605	3896.112	-29230.99	1	29489.5	-82.40797	2.050803E-008	0.0006123	7
	46	121	7.512019	4792.274	-36142.32	1	36458.65	-82.44695	2.386147E-008	0.0005989	7
	47	124	5.978954	5986.42	-44609.26	1	45009.15	-82.35675	3.261866E-009	0.000666	6
	48	127	4.734848	7475.132	-55354.04	1	55856.48	-82.30917	2.208314E-009	0.0006674	6
	49	130	3.75601	9367.962	-68473.91	1	69111.76	-82.20969	3.322356E-009	0.000671	6
	50	135	3.004808	11690.97	-84052.06	1	84861.23	-82.08141	2.444487E-009	0.0006987	6
	51	142	2.372217	14874.09	-104317.2	1	105372.3	-81.88517	2.201512E-009	0.0007	6
	52	146	1.878005	19193.37	-129320.7	1	130737.2	-81.55797	2.826722E-009	0.0006495	6
	53	151	1.512097	23859.64	-157343.3	1	159142.1	-81.37733	2.196209E-009	0.0007294	6
	54	156	1.201923	30838.24	-194039.1	1	196474.4	-80.96962	2.780704E-009	0.0006658	6
	55	162	0.956633	39426.88	-238226.8	1	241467.4	-80.60265	1.729258E-009	6.659622E-005	6
