EXPLAIN
TAG	EISPOT
TITLE	LABEL	Potentiostatic EIS	Test Identifier
DATE	LABEL	9/15/2020	Date
TIME	LABEL	1:11:25	Time
NOTES	NOTES	1	Notes...
	
PSTAT	PSTAT	REF3000-16137	Potentiostat
VDC	POTEN	0.00000E+000	T	DC Voltage (V)
FREQINIT	QUANT	3.00000E+005	Initial Freq. (Hz)
FREQFINAL	QUANT	1.00000E+000	Final Freq. (Hz)
PTSPERDEC	QUANT	1.00000E+001	Points/decade
VAC	QUANT	5.00000E+001	AC Voltage (mV rms)
AREA	QUANT	1.00000E+000	Sample Area (cm^2)
SPEED	SELECTOR	2	Optimize for:
ZGUESS	QUANT	1.00000E+003	Estimated Z (ohms)
EOC	QUANT	0	Open Circuit (V)
SEQUENCER	TOGGLE	TRUE	Run as Sequence
PSTATMODEL	IQUANT	5	Pstat Model
PSTATSECTION	LABEL	REF3000-16137	Pstat Section
PSTATSERIALNO	LABEL	16137	Pstat Serial Number
CTRLMODE	IQUANT	1	Control Mode
IESTAB	IQUANT	0	I/E Stability
CASPEED	IQUANT	1	Control Amp Speed
CONVENTION	IQUANT	1	Current Convention
ICHRANGE	IQUANT	2	Ich Range
ICHRANGEMODE	TOGGLE	F	Ich Auto Range
ICHOFFSETENABLE	TOGGLE	T	Ich Offset Enable
ICHOFFSET	QUANT	0	Ich Offset (V)
ICHFILTER	IQUANT	3	Ich Filter
VCHRANGE	IQUANT	2	Vch Range
VCHRANGEMODE	TOGGLE	F	Vch Auto Range
VCHOFFSETENABLE	TOGGLE	T	Vch Offset Enable
VCHOFFSET	QUANT	0	Vch Offset (V)
VCHFILTER	IQUANT	3	Vch Filter
ACHRANGE	IQUANT	2	Ach Range
ACHOFFSETENABLE	TOGGLE	F	Ach Offset Enable
ACHOFFSET	QUANT	0	Ach Offset (V)
ACHFILTER	IQUANT	3	Ach Filter
IERANGELOWERLIMIT	IQUANT	2	I/E Range Lower Limit
IERANGEMODE	TOGGLE	F	I/E AutoRange
IERANGE	IQUANT	11	I/E Range
POSFEEDENABLE	TOGGLE	F	Positive Feedback IR Comp
POSFEEDRESISTANCE	QUANT	0	Positive Feedback Resistance (ohm)
ACHSELECT	IQUANT	0	Ach Select
CABLEID	IQUANT	13	Cable ID
DCCALDATE	LABEL	7/31/2020	DC Calibration Date
ACCALDATE	LABEL	7/31/2020	AC Calibration Date
THERMOSELECT	IQUANT	1	Thermo Select
FRAMEWORKVERSION	QUANT	6.33	Framework Version
INSTRUMENTVERSION	LABEL	3.50	Instrument Version
COMPLIANCEVOLTAGE	IQUANT	0	Compliance Voltage
ZCURVE	TABLE
	Pt	Time	Freq	Zreal	Zimag	Zsig	Zmod	Zphz	Idc	Vdc	IERange
	#	s	Hz	ohm	ohm	V	ohm	°	A	V	#
	0	7	300046.9	56.09118	-2.056633	1	56.12887	-2.09986	-6.038809E-005	0.0020107	9
	1	10	238359.4	56.71056	-3.337453	1	56.80869	-3.368009	6.199629E-005	-0.002336	9
	2	14	189328.1	57.37197	-4.643162	1	57.55955	-4.626911	7.129691E-006	-0.0010641	9
	3	16	150421.9	58.1091	-5.944397	1	58.41235	-5.840879	5.646282E-005	-0.0015502	9
	4	19	119484.4	58.9374	-7.221131	1	59.37813	-6.985182	4.268848E-005	-0.0005038	9
	5	21	94921.88	59.95005	-8.32008	1	60.52464	-7.90124	2.157352E-005	-0.0006043	9
	6	24	75421.88	60.90622	-9.85516	1	61.69839	-9.191298	-1.382302E-005	0.0006261	9
	7	26	59859.37	61.93912	-11.51377	1	63.00017	-10.53044	-2.322387E-006	-0.0002048	9
	8	29	47578.12	63.0603	-13.34095	1	64.45605	-11.94528	-1.766814E-005	0.0005543	9
	9	31	37828.12	64.2249	-15.41434	1	66.04877	-13.49604	-1.6556E-005	0.0004849	9
	10	34	30046.88	65.43316	-17.91344	1	67.84091	-15.31055	9.697966E-006	-0.0004695	9
	11	36	23859.38	66.62516	-20.86565	1	69.8161	-17.3895	3.40113E-006	-0.0003539	9
	12	39	18984.38	67.81617	-24.5174	1	72.11197	-19.87631	-1.634351E-005	0.0007171	9
	13	41	15046.87	69.02181	-29.12552	1	74.91533	-22.87856	4.058967E-006	-0.0003459	9
	14	43	11953.13	70.32394	-34.83583	1	78.47924	-26.35209	1.088857E-005	-0.0005515	9
	15	46	9515.62	71.68013	-42.00531	1	83.08121	-30.37075	2.148458E-005	-0.0005104	9
	16	48	7546.875	73.31789	-50.95169	1	89.28374	-34.79707	1.613994E-005	-0.0005871	9
	17	50	5928.309	75.10087	-62.80275	1	97.8996	-39.9039	2.120539E-005	-0.0005285	9
	18	53	4733.456	77.06567	-76.40051	1	108.518	-44.75167	4.122166E-006	-0.0003551	9
	19	55	3796.875	79.50158	-92.99369	1	122.3451	-49.47242	-1.615424E-005	0.0005901	9
	20	57	2987.132	82.62413	-115.4099	1	141.9373	-54.40042	-1.6541E-005	0.0005766	9
	21	60	2390.625	85.991	-141.2906	1	165.401	-58.67485	-1.425704E-005	0.0002338	9
	22	62	1884.191	90.7494	-175.0869	1	197.2077	-62.60182	-1.673044E-005	0.0004806	9
	23	64	1516.544	95.6172	-213.5305	1	233.9614	-65.87755	1.985143E-005	-0.0002614	9
	24	66	1193.986	102.482	-265.4846	1	284.5781	-68.89248	1.175571E-005	8.785556E-005	9
	25	69	946.5144	109.9045	-328.6041	1	346.4963	-71.50703	-1.659422E-005	0.0006542	9
	26	71	751.7689	120.6431	-405.4609	1	423.0287	-73.42986	-8.824314E-006	6.051654E-005	9
	27	74	597.4265	132.652	-498.1615	1	515.5205	-75.0891	-1.937022E-006	0.0019579	8
	28	76	477.4305	147.2638	-611.8121	1	629.2859	-76.46629	3.937405E-007	0.0006458	8
	29	78	376.6741	166.2311	-760.5939	1	778.5472	-77.67161	4.020648E-007	0.0006414	8
	30	81	298.2954	189.3196	-942.5432	1	961.369	-78.64268	4.058239E-007	0.0006466	8
	31	83	237.7717	217.0529	-1161.141	1	1181.254	-79.41187	4.07975E-007	0.0006404	8
	32	86	189.0121	251.6574	-1434.381	1	1456.29	-80.04893	3.979477E-007	0.0006442	8
	33	88	150.2404	294.5298	-1772.053	1	1796.363	-80.56324	4.002845E-007	0.0006383	8
	34	90	119.1737	347.7525	-2194.18	1	2221.566	-80.99418	4.117348E-007	0.0006467	8
	35	93	95.0169	414.2177	-2703.472	1	2735.02	-81.28905	4.13342E-007	0.0006406	8
	36	95	75.60484	496.3469	-3338.06	1	3374.76	-81.54247	4.252584E-007	0.0006392	8
	37	98	54.50582	654.0571	-4513.844	1	4560.984	-81.75521	4.056266E-007	0.0006478	8
	38	100	45.95588	759.659	-5296.29	1	5350.493	-81.83761	4.795508E-008	0.0006302	7
	39	103	37.20238	917.3238	-6436.42	1	6501.46	-81.88879	4.569093E-008	0.0006123	7
	40	105	30.04808	1121.372	-7842.416	1	7922.182	-81.86255	3.9071E-008	0.000621	7
	41	107	23.91582	1391.373	-9689.29	1	9788.68	-81.82825	3.443984E-008	0.000627	7
	42	110	18.60119	1790.037	-12198.73	1	12329.36	-81.65202	3.814789E-008	0.0006253	7
	43	112	15.02404	2222.429	-14828.21	1	14993.83	-81.47604	5.139576E-008	0.0006291	7
	44	114	12.01923	2817.756	-18173.77	1	18390.91	-81.18674	4.375811E-008	0.0006238	7
	45	117	9.450605	3670.611	-22636.16	1	22931.84	-80.78927	4.042726E-008	0.0006718	7
	46	119	7.512019	4717.965	-27817.01	1	28214.27	-80.37383	4.805949E-008	0.0006385	7
	47	122	5.978954	6084.372	-34135.57	1	34673.57	-79.89365	4.601646E-008	0.000623	7
	48	127	4.734848	7945.132	-41983.73	1	42728.89	-79.28389	5.057684E-008	0.0006391	7
	49	130	3.75601	10376.91	-51474.98	1	52510.52	-78.60242	6.617718E-009	0.0006697	6
	50	136	3.004808	13333.25	-62440.19	1	63847.89	-77.9463	5.928411E-009	0.0006985	6
	51	142	2.372217	17293.47	-76583.8	1	78512.05	-77.27539	5.846921E-009	0.0007317	6
	52	146	1.878005	22466.25	-93396.98	1	96061.1	-76.4747	6.040307E-009	0.0006345	6
	53	151	1.512097	28734.7	-112026.5	1	115653	-75.61383	6.356316E-009	0.0007513	6
	54	156	1.201923	37032.59	-135870.2	1	140826.6	-74.75388	6.099994E-009	0.0006858	6
	55	162	0.956633	47700.5	-164007.5	1	170803.4	-73.78328	4.842327E-009	2.248952E-005	6
