EXPLAIN
TAG	EISPOT
TITLE	LABEL	Potentiostatic EIS	Test Identifier
DATE	LABEL	9/15/2020	Date
TIME	LABEL	10:08:23	Time
NOTES	NOTES	1	Notes...
	
PSTAT	PSTAT	REF3000-16137	Potentiostat
VDC	POTEN	0.00000E+000	T	DC Voltage (V)
FREQINIT	QUANT	3.00000E+005	Initial Freq. (Hz)
FREQFINAL	QUANT	1.00000E+000	Final Freq. (Hz)
PTSPERDEC	QUANT	1.00000E+001	Points/decade
VAC	QUANT	5.00000E+001	AC Voltage (mV rms)
AREA	QUANT	1.00000E+000	Sample Area (cm^2)
SPEED	SELECTOR	2	Optimize for:
ZGUESS	QUANT	1.00000E+003	Estimated Z (ohms)
EOC	QUANT	0	Open Circuit (V)
SEQUENCER	TOGGLE	TRUE	Run as Sequence
PSTATMODEL	IQUANT	5	Pstat Model
PSTATSECTION	LABEL	REF3000-16137	Pstat Section
PSTATSERIALNO	LABEL	16137	Pstat Serial Number
CTRLMODE	IQUANT	1	Control Mode
IESTAB	IQUANT	0	I/E Stability
CASPEED	IQUANT	1	Control Amp Speed
CONVENTION	IQUANT	1	Current Convention
ICHRANGE	IQUANT	2	Ich Range
ICHRANGEMODE	TOGGLE	F	Ich Auto Range
ICHOFFSETENABLE	TOGGLE	T	Ich Offset Enable
ICHOFFSET	QUANT	0	Ich Offset (V)
ICHFILTER	IQUANT	3	Ich Filter
VCHRANGE	IQUANT	2	Vch Range
VCHRANGEMODE	TOGGLE	F	Vch Auto Range
VCHOFFSETENABLE	TOGGLE	T	Vch Offset Enable
VCHOFFSET	QUANT	0	Vch Offset (V)
VCHFILTER	IQUANT	3	Vch Filter
ACHRANGE	IQUANT	2	Ach Range
ACHOFFSETENABLE	TOGGLE	F	Ach Offset Enable
ACHOFFSET	QUANT	0	Ach Offset (V)
ACHFILTER	IQUANT	3	Ach Filter
IERANGELOWERLIMIT	IQUANT	2	I/E Range Lower Limit
IERANGEMODE	TOGGLE	F	I/E AutoRange
IERANGE	IQUANT	11	I/E Range
POSFEEDENABLE	TOGGLE	F	Positive Feedback IR Comp
POSFEEDRESISTANCE	QUANT	0	Positive Feedback Resistance (ohm)
ACHSELECT	IQUANT	0	Ach Select
CABLEID	IQUANT	13	Cable ID
DCCALDATE	LABEL	7/31/2020	DC Calibration Date
ACCALDATE	LABEL	7/31/2020	AC Calibration Date
THERMOSELECT	IQUANT	1	Thermo Select
FRAMEWORKVERSION	QUANT	6.33	Framework Version
INSTRUMENTVERSION	LABEL	3.50	Instrument Version
COMPLIANCEVOLTAGE	IQUANT	0	Compliance Voltage
ZCURVE	TABLE
	Pt	Time	Freq	Zreal	Zimag	Zsig	Zmod	Zphz	Idc	Vdc	IERange
	#	s	Hz	ohm	ohm	V	ohm	°	A	V	#
	0	7	300046.9	46.03436	-1.55601	1	46.06065	-1.935921	4.264641E-005	-0.0010617	9
	1	10	238359.4	46.54699	-2.67516	1	46.6238	-3.289299	-4.331674E-005	0.0004047	9
	2	13	189328.1	47.09943	-3.819553	1	47.25405	-4.636286	1.447474E-005	-0.0006347	9
	3	16	150421.9	47.83102	-4.928006	1	48.08422	-5.8824	6.98161E-006	0.0005212	9
	4	18	119484.4	48.43749	-6.134768	1	48.82444	-7.218267	8.936881E-007	-0.0008559	9
	5	21	94921.88	49.27905	-7.127243	1	49.79179	-8.229639	-2.494746E-006	-0.0001706	9
	6	23	75421.88	50.08372	-8.456856	1	50.79269	-9.58424	1.789929E-005	-0.0005839	9
	7	26	59859.37	50.92371	-9.92639	1	51.88215	-11.03016	-2.622512E-006	-0.0001403	9
	8	28	47578.12	51.81176	-11.59583	1	53.09352	-12.61531	3.568519E-006	-0.0003233	9
	9	31	37828.12	52.74998	-13.53573	1	54.45894	-14.39168	-8.448032E-006	0.0005751	9
	10	33	30046.88	53.68755	-15.79538	1	55.96291	-16.39438	-3.010223E-006	-0.0001063	9
	11	36	23859.38	54.63841	-18.59568	1	57.71616	-18.79553	1.918508E-005	-0.0004708	9
	12	38	18984.38	55.61744	-22.02092	1	59.81823	-21.60038	9.328224E-006	2.291971E-005	9
	13	41	15046.87	56.58077	-26.35962	1	62.41965	-24.97968	2.233084E-005	-0.000471	9
	14	43	11953.13	57.67075	-31.68758	1	65.80286	-28.78689	1.95167E-005	-0.0004861	9
	15	45	9515.62	58.85931	-38.29291	1	70.21941	-33.04737	-1.504807E-005	0.000481	9
	16	47	7546.875	60.18872	-46.72197	1	76.19465	-37.82068	1.658709E-005	-0.000176	9
	17	50	5928.309	61.89879	-57.67577	1	84.60469	-42.97732	-1.547726E-005	0.0005581	9
	18	52	4733.456	63.7244	-70.40217	1	94.95928	-47.85023	-1.452233E-005	0.0006266	9
	19	54	3796.875	66.09686	-85.54761	1	108.1073	-52.30916	-8.749758E-006	0.0001031	9
	20	57	2987.132	68.75574	-106.3284	1	126.6218	-57.11185	4.339648E-006	0.0003049	9
	21	59	2390.625	72.06707	-129.9289	1	148.5772	-60.98438	1.074413E-005	0.000118	9
	22	61	1884.191	76.37025	-161.4962	1	178.6433	-64.69091	9.488758E-006	-0.0004392	9
	23	64	1516.544	81.32236	-196.2547	1	212.4364	-67.49228	-3.144589E-006	-0.0001095	9
	24	66	1193.986	87.3276	-244.1588	1	259.3061	-70.31953	-8.075532E-006	0.0006164	9
	25	69	946.5144	96.4584	-301.443	1	316.4998	-72.25591	3.314436E-006	-0.000301	9
	26	71	751.7689	103.4334	-371.1806	1	385.3226	-74.42894	1.412464E-005	-0.0005141	9
	27	73	597.4265	115.0298	-457.6853	1	471.9191	-75.89209	-3.104677E-006	0.0015481	8
	28	76	477.4305	128.2426	-562.3377	1	576.7754	-77.15324	4.563829E-007	0.0006502	8
	29	78	376.6741	145.5383	-699.0555	1	714.0449	-78.23943	4.491791E-007	0.000647	8
	30	80	298.2954	166.5982	-866.3292	1	882.2025	-79.1147	4.453171E-007	0.0006627	8
	31	83	237.7717	191.7919	-1067.338	1	1084.433	-79.81313	4.404668E-007	0.0006471	8
	32	85	189.0121	223.3737	-1318.686	1	1337.471	-80.38586	4.409913E-007	0.0006497	8
	33	87	150.2404	262.6464	-1629.416	1	1650.448	-80.84323	4.439921E-007	0.0006478	8
	34	90	119.1737	312.1045	-2016.581	1	2040.591	-81.20219	4.45756E-007	0.0006503	8
	35	92	95.0169	373.0228	-2486.545	1	2514.369	-81.46831	4.594767E-007	0.0006481	8
	36	95	75.60484	450.328	-3070.072	1	3102.924	-81.65518	4.54178E-007	0.000642	8
	37	97	54.50582	599.4218	-4149.817	1	4192.886	-81.78074	4.661589E-007	0.0006402	8
	38	100	45.95588	701.1848	-4870.657	1	4920.87	-81.80792	5.789073E-008	0.0006237	7
	39	102	37.20238	851.8155	-5910.024	1	5971.095	-81.79841	5.3199E-008	0.0006221	7
	40	104	30.04808	1046.337	-7201.322	1	7276.94	-81.73289	4.770922E-008	0.0006177	7
	41	107	23.91582	1295.54	-8851.3	1	8945.609	-81.6729	4.519647E-008	0.0006207	7
	42	109	18.60119	1647.22	-11136.85	1	11258.01	-81.58654	5.142963E-008	0.0006296	7
	43	112	15.02404	2051.445	-13551.04	1	13705.44	-81.39156	5.758089E-008	0.000642	7
	44	114	12.01923	2568.833	-16603.92	1	16801.46	-81.20535	5.379168E-008	0.0006326	7
	45	117	9.450605	3294.745	-20701.83	1	20962.37	-80.95708	5.42774E-008	0.000624	7
	46	119	7.512019	4212.362	-25464.45	1	25810.5	-80.60712	5.84748E-008	0.0006367	7
	47	122	5.978954	5391.896	-31313.26	1	31774.09	-80.22993	5.910161E-008	0.0006243	7
	48	126	4.734848	7021.652	-38658.6	1	39291.1	-79.70546	5.809931E-008	0.0006126	7
	49	130	3.75601	9290.2	-47562.74	1	48461.55	-78.94785	1.169958E-008	0.000682	6
	50	135	3.004808	12141.98	-57935.33	1	59194	-78.16338	1.037994E-008	0.0006718	6
	51	142	2.372217	16399.42	-71363.44	1	73223.5	-77.05804	1.004454E-008	0.0005979	6
	52	146	1.878005	21977.08	-87400.83	1	90121.57	-75.88551	1.143317E-008	0.0006674	6
	53	151	1.512097	28995.8	-104724.4	1	108664.5	-74.5238	1.022283E-008	0.0006539	6
	54	156	1.201923	39341.05	-126824.6	1	132786.3	-72.76609	1.069735E-008	0.0006907	6
	55	162	0.956633	53136.54	-151948	1	160971.1	-70.72516	8.395397E-009	2.440688E-005	6
