EXPLAIN
TAG	EISPOT
TITLE	LABEL	Potentiostatic EIS	Test Identifier
DATE	LABEL	9/15/2020	Date
TIME	LABEL	6:33:45	Time
NOTES	NOTES	1	Notes...
	
PSTAT	PSTAT	REF3000-16137	Potentiostat
VDC	POTEN	0.00000E+000	T	DC Voltage (V)
FREQINIT	QUANT	3.00000E+005	Initial Freq. (Hz)
FREQFINAL	QUANT	1.00000E+000	Final Freq. (Hz)
PTSPERDEC	QUANT	1.00000E+001	Points/decade
VAC	QUANT	5.00000E+001	AC Voltage (mV rms)
AREA	QUANT	1.00000E+000	Sample Area (cm^2)
SPEED	SELECTOR	2	Optimize for:
ZGUESS	QUANT	1.00000E+003	Estimated Z (ohms)
EOC	QUANT	0	Open Circuit (V)
SEQUENCER	TOGGLE	TRUE	Run as Sequence
PSTATMODEL	IQUANT	5	Pstat Model
PSTATSECTION	LABEL	REF3000-16137	Pstat Section
PSTATSERIALNO	LABEL	16137	Pstat Serial Number
CTRLMODE	IQUANT	1	Control Mode
IESTAB	IQUANT	0	I/E Stability
CASPEED	IQUANT	1	Control Amp Speed
CONVENTION	IQUANT	1	Current Convention
ICHRANGE	IQUANT	2	Ich Range
ICHRANGEMODE	TOGGLE	F	Ich Auto Range
ICHOFFSETENABLE	TOGGLE	T	Ich Offset Enable
ICHOFFSET	QUANT	0	Ich Offset (V)
ICHFILTER	IQUANT	3	Ich Filter
VCHRANGE	IQUANT	2	Vch Range
VCHRANGEMODE	TOGGLE	F	Vch Auto Range
VCHOFFSETENABLE	TOGGLE	T	Vch Offset Enable
VCHOFFSET	QUANT	0	Vch Offset (V)
VCHFILTER	IQUANT	3	Vch Filter
ACHRANGE	IQUANT	2	Ach Range
ACHOFFSETENABLE	TOGGLE	F	Ach Offset Enable
ACHOFFSET	QUANT	0	Ach Offset (V)
ACHFILTER	IQUANT	3	Ach Filter
IERANGELOWERLIMIT	IQUANT	2	I/E Range Lower Limit
IERANGEMODE	TOGGLE	F	I/E AutoRange
IERANGE	IQUANT	11	I/E Range
POSFEEDENABLE	TOGGLE	F	Positive Feedback IR Comp
POSFEEDRESISTANCE	QUANT	0	Positive Feedback Resistance (ohm)
ACHSELECT	IQUANT	0	Ach Select
CABLEID	IQUANT	13	Cable ID
DCCALDATE	LABEL	7/31/2020	DC Calibration Date
ACCALDATE	LABEL	7/31/2020	AC Calibration Date
THERMOSELECT	IQUANT	1	Thermo Select
FRAMEWORKVERSION	QUANT	6.33	Framework Version
INSTRUMENTVERSION	LABEL	3.50	Instrument Version
COMPLIANCEVOLTAGE	IQUANT	0	Compliance Voltage
ZCURVE	TABLE
	Pt	Time	Freq	Zreal	Zimag	Zsig	Zmod	Zphz	Idc	Vdc	IERange
	#	s	Hz	ohm	ohm	V	ohm	°	A	V	#
	0	14	300046.9	312.9231	-4855.16	1	4865.234	-86.31229	2.059071E-005	0.0009764	9
	1	29	238359.4	531.4296	-5972	1	5995.599	-84.91483	1.982756E-005	-0.0009876	9
	2	58	189328.1	487.6411	-7443.091	1	7459.048	-86.25157	-6.071141E-005	0.0005654	9
	3	69	150421.9	1439.201	-9157.108	1	9269.517	-81.06802	-0.0001077	0.0038478	9
	4	78	119484.4	2332.689	-10867.8	1	11115.33	-77.88571	-8.901274E-005	0.0042597	9
	5	87	94921.88	3490.515	-13907.18	1	14338.53	-75.91058	-2.033416E-006	0.0077748	8
	6	96	75421.88	5190.537	-16981.42	1	17756.98	-73.00372	-1.591645E-005	0.0006549	8
	7	105	59859.37	7118.612	-20530.35	1	21729.47	-70.87672	-1.982888E-005	0.0112682	8
	8	113	47578.12	13874.3	-24510.58	1	28164.96	-60.48782	7.466198E-006	-0.0181652	7
	9	121	37828.12	18056.97	-27801.28	1	33150.64	-56.99622	7.463823E-006	-0.0180065	7
	10	128	30046.88	20828.34	-33557.08	1	39495.54	-58.17279	1.905972E-005	-0.0009318	9
	11	137	23859.38	27356.23	-35470.34	1	44794.06	-52.35907	8.267731E-006	0.0042343	8
	12	143	18984.38	38147.73	-34728.53	1	51587.99	-42.31377	3.443627E-006	-0.0250405	7
	13	149	15046.87	45629.6	-34199.66	1	57023.48	-36.85178	1.424649E-006	-0.0201282	7
	14	154	11953.13	52418.13	-32488.49	1	61669.79	-31.79042	6.899344E-006	-0.0269054	7
	15	159	9515.62	59465.69	-29788.13	1	66509.41	-26.60765	-7.373908E-006	0.0183754	7
	16	165	7546.875	64423.38	-25711.64	1	69364.69	-21.75715	2.76633E-006	0.0084678	7
	17	170	5928.309	68919.53	-20476.11	1	71896.96	-16.54677	3.538331E-006	-0.0244384	7
	18	175	4733.456	74273.5	-17399.06	1	76284.21	-13.18419	-5.234739E-006	0.0032817	7
	19	181	3796.875	74514.29	-16369.62	1	76291.18	-12.39017	-5.300063E-006	0.0036348	7
	20	187	2987.132	74362.62	-14674.9	1	75796.78	-11.16345	-7.184067E-006	0.0230912	7
	21	194	2390.625	77118.96	-13132.38	1	78229.11	-9.66404	-3.83286E-006	0.0254828	7
	22	200	1884.191	77309.74	-6617.684	1	77592.46	-4.89257	-6.623472E-006	0.0116379	7
	23	205	1516.544	78552.38	-10511.89	1	79252.6	-7.622044	-6.633054E-006	0.0116754	7
	24	211	1193.986	83089.63	-4235.418	1	83197.5	-2.918075	-2.03019E-005	0.0027656	8
	25	219	946.5144	68733.24	-2065.311	1	68764.27	-1.721118	-2.335554E-005	0.0049455	8
	26	225	751.7689	77998.52	-20748.53	1	80711.03	-14.89639	1.644802E-005	-0.0093401	8
	27	230	597.4265	85632.13	-13668.29	1	86716.1	-9.068841	-6.394257E-006	0.0255791	7
	28	234	477.4305	85036.8	-10261.56	1	85653.71	-6.880723	-8.34869E-008	0.0006328	7
	29	239	376.6741	86483.13	-10034.27	1	87063.3	-6.618195	-8.819125E-009	0.00064	6
	30	241	298.2954	87718.51	-11276.59	1	88440.37	-7.325443	-9.099976E-009	0.0006929	6
	31	243	237.7717	89074.82	-12567.91	1	89957.08	-8.03107	-8.866077E-009	0.0006362	6
	32	246	189.0121	90704.48	-14118.62	1	91796.73	-8.847384	-8.603749E-009	0.0006902	6
	33	248	150.2404	92538.45	-15898.34	1	93894.2	-9.74839	-8.481154E-009	0.0006577	6
	34	251	119.1737	94309.66	-18183.28	1	96046.6	-10.91294	-8.429422E-009	0.0006115	6
	35	253	95.0169	96675.9	-20021.82	1	98727.4	-11.70069	-9.131404E-009	0.0007053	6
	36	256	75.60484	98955.2	-22414.13	1	101461.9	-12.76258	-9.104812E-009	0.0006523	6
	37	259	54.50582	101892.2	-26958.41	1	105398.1	-14.81963	-8.405605E-009	0.0006285	6
	38	261	45.95588	103828.1	-29526.88	1	107945	-15.87481	-9.160645E-009	0.0006659	6
	39	263	37.20238	105740	-33568.65	1	110940.5	-17.61278	-9.206286E-009	0.0006141	6
	40	266	30.04808	107742.3	-38610.9	1	114451.8	-19.71582	-9.317167E-009	0.0006765	6
	41	269	23.91582	109730.5	-45269.94	1	118701.9	-22.41888	-8.225325E-009	0.0006048	6
	42	271	18.60119	112068.1	-55058.05	1	124862.5	-26.16447	-9.67435E-009	0.0007096	6
	43	273	15.02404	114146.7	-65120.95	1	131416.2	-29.70486	-9.01914E-009	0.0006412	6
	44	276	12.01923	116494.4	-78470.91	1	140458.6	-33.96431	-8.482685E-009	0.0006069	6
	45	278	9.450605	119404.6	-96440.3	1	153486.8	-38.92699	-8.966367E-009	0.0006137	6
	46	281	7.512019	122311.8	-118200.5	1	170092.8	-44.0207	-9.251712E-009	0.0006947	6
	47	284	5.978954	126070.4	-145061.5	1	192188.9	-49.00668	-8.872675E-009	0.0006275	6
	48	288	4.734848	130725.3	-179443.7	1	222011.6	-53.92654	-8.725069E-009	0.0006654	6
	49	291	3.75601	136075.6	-221728.9	1	260154.3	-58.46246	-8.587102E-009	0.0006068	6
	50	297	3.004808	142677.9	-272284.9	1	307402.1	-62.34537	-9.475507E-009	0.0006619	6
	51	303	2.372217	150823.5	-338660.9	1	370727.5	-65.99408	-9.29665E-009	0.0006035	6
	52	308	1.878005	161749.9	-421212.3	1	451201.5	-68.99269	-1.069208E-009	0.0006508	5
	53	312	1.512097	173164.7	-514745.4	1	543091.9	-71.40662	-1.028385E-009	0.0005343	5
	54	318	1.201923	188026.9	-637512.3	1	664662.4	-73.56718	-1.046275E-009	0.000658	5
	55	324	0.956633	205980.7	-787844.6	1	814326.2	-75.34808	-1.021081E-009	6.121013E-007	5
