EXPLAIN
TAG	EISPOT
TITLE	LABEL	Potentiostatic EIS	Test Identifier
DATE	LABEL	9/15/2020	Date
TIME	LABEL	1:48:33	Time
NOTES	NOTES	1	Notes...
	
PSTAT	PSTAT	REF3000-16137	Potentiostat
VDC	POTEN	0.00000E+000	T	DC Voltage (V)
FREQINIT	QUANT	3.00000E+005	Initial Freq. (Hz)
FREQFINAL	QUANT	1.00000E+000	Final Freq. (Hz)
PTSPERDEC	QUANT	1.00000E+001	Points/decade
VAC	QUANT	5.00000E+001	AC Voltage (mV rms)
AREA	QUANT	1.00000E+000	Sample Area (cm^2)
SPEED	SELECTOR	2	Optimize for:
ZGUESS	QUANT	1.00000E+003	Estimated Z (ohms)
EOC	QUANT	0	Open Circuit (V)
SEQUENCER	TOGGLE	TRUE	Run as Sequence
PSTATMODEL	IQUANT	5	Pstat Model
PSTATSECTION	LABEL	REF3000-16137	Pstat Section
PSTATSERIALNO	LABEL	16137	Pstat Serial Number
CTRLMODE	IQUANT	1	Control Mode
IESTAB	IQUANT	0	I/E Stability
CASPEED	IQUANT	1	Control Amp Speed
CONVENTION	IQUANT	1	Current Convention
ICHRANGE	IQUANT	2	Ich Range
ICHRANGEMODE	TOGGLE	F	Ich Auto Range
ICHOFFSETENABLE	TOGGLE	T	Ich Offset Enable
ICHOFFSET	QUANT	0	Ich Offset (V)
ICHFILTER	IQUANT	3	Ich Filter
VCHRANGE	IQUANT	2	Vch Range
VCHRANGEMODE	TOGGLE	F	Vch Auto Range
VCHOFFSETENABLE	TOGGLE	T	Vch Offset Enable
VCHOFFSET	QUANT	0	Vch Offset (V)
VCHFILTER	IQUANT	3	Vch Filter
ACHRANGE	IQUANT	2	Ach Range
ACHOFFSETENABLE	TOGGLE	F	Ach Offset Enable
ACHOFFSET	QUANT	0	Ach Offset (V)
ACHFILTER	IQUANT	3	Ach Filter
IERANGELOWERLIMIT	IQUANT	2	I/E Range Lower Limit
IERANGEMODE	TOGGLE	F	I/E AutoRange
IERANGE	IQUANT	11	I/E Range
POSFEEDENABLE	TOGGLE	F	Positive Feedback IR Comp
POSFEEDRESISTANCE	QUANT	0	Positive Feedback Resistance (ohm)
ACHSELECT	IQUANT	0	Ach Select
CABLEID	IQUANT	13	Cable ID
DCCALDATE	LABEL	7/31/2020	DC Calibration Date
ACCALDATE	LABEL	7/31/2020	AC Calibration Date
THERMOSELECT	IQUANT	1	Thermo Select
FRAMEWORKVERSION	QUANT	6.33	Framework Version
INSTRUMENTVERSION	LABEL	3.50	Instrument Version
COMPLIANCEVOLTAGE	IQUANT	0	Compliance Voltage
ZCURVE	TABLE
	Pt	Time	Freq	Zreal	Zimag	Zsig	Zmod	Zphz	Idc	Vdc	IERange
	#	s	Hz	ohm	ohm	V	ohm	°	A	V	#
	0	7	300046.9	72.17873	-3.001495	1	72.2411	-2.381228	-7.281889E-005	0.0016238	9
	1	10	238359.4	72.84464	-4.575421	1	72.9882	-3.594065	1.583414E-005	0.0003997	9
	2	13	189328.1	73.64483	-5.935761	1	73.88365	-4.608069	-4.947885E-005	0.0008095	9
	3	16	150421.9	74.54842	-7.21178	1	74.89644	-5.525573	3.012612E-005	0.00019	9
	4	18	119484.4	75.45728	-8.791039	1	75.96765	-6.645202	-6.74941E-005	0.0019188	9
	5	21	94921.88	76.68755	-10.06621	1	77.34538	-7.47804	-1.490457E-005	0.000759	9
	6	24	75421.88	77.87956	-11.83176	1	78.7732	-8.638538	1.128905E-005	-0.0006131	9
	7	26	59859.37	79.22066	-13.77141	1	80.40874	-9.86152	1.778496E-005	-0.0001738	9
	8	29	47578.12	80.65152	-15.86263	1	82.19666	-11.12697	-1.530333E-005	0.0007945	9
	9	31	37828.12	82.1472	-18.21222	1	84.14183	-12.50041	1.133849E-005	-0.0005701	9
	10	34	30046.88	83.69018	-20.97459	1	86.2785	-14.06978	2.180538E-005	-0.0002673	9
	11	36	23859.38	85.24446	-24.25308	1	88.62748	-15.8817	2.300477E-005	-0.0004241	9
	12	38	18984.38	86.85349	-28.24133	1	91.32963	-18.01249	1.282333E-005	0.0001321	9
	13	41	15046.87	88.54781	-33.26895	1	94.59143	-20.59207	-1.549288E-005	0.0007546	9
	14	43	11953.13	90.03232	-39.38465	1	98.2699	-23.62698	1.133955E-005	-0.0005599	9
	15	45	9515.62	91.71052	-47.13119	1	103.1124	-27.1992	-9.346274E-006	4.615348E-005	9
	16	48	7546.875	93.50252	-56.99501	1	109.5041	-31.36465	-1.392699E-005	0.0002152	9
	17	50	5928.309	95.6353	-69.86913	1	118.439	-36.15108	1.222737E-005	0.0001278	9
	18	52	4733.456	97.8391	-84.99281	1	129.6004	-40.98084	3.56635E-006	0.0003935	9
	19	55	3796.875	100.6644	-102.9131	1	143.9598	-45.63285	5.320427E-006	-0.0004605	9
	20	57	2987.132	104.047	-127.6857	1	164.7101	-50.82449	-1.017074E-005	0.0007459	9
	21	59	2390.625	107.9332	-155.9595	1	189.6653	-55.31448	-4.189268E-006	0.0006716	9
	22	62	1884.191	113.2684	-193.202	1	223.957	-59.61822	-1.435118E-005	0.0002177	9
	23	64	1516.544	118.8247	-236.0083	1	264.2333	-63.27581	4.026157E-006	-0.0003975	9
	24	66	1193.986	125.694	-293.3102	1	319.1079	-66.80312	2.260777E-005	-0.0005439	9
	25	69	946.5144	134.89	-363.0725	1	387.3203	-69.61878	4.446188E-006	0.0004316	9
	26	71	751.7689	144.6774	-445.4806	1	468.385	-72.00791	8.912676E-007	0.0014368	8
	27	73	597.4265	158.1175	-550.8325	1	573.0773	-73.98377	7.265129E-007	0.0015203	8
	28	76	477.4305	174.3206	-676.5069	1	698.6052	-75.5505	3.335981E-007	0.0006471	8
	29	78	376.6741	194.9226	-841.269	1	863.5557	-76.95472	3.321142E-007	0.0006474	8
	30	80	298.2954	219.9113	-1042.72	1	1065.658	-78.09076	3.353615E-007	0.0006493	8
	31	83	237.7717	249.8288	-1284.887	1	1308.95	-78.9969	2.924542E-007	0.0007038	8
	32	85	189.0121	287.1225	-1587.67	1	1613.423	-79.74912	3.49436E-007	0.0006463	8
	33	88	150.2404	333.0719	-1962.032	1	1990.102	-80.36539	3.410313E-007	0.0006464	8
	34	90	119.1737	390.2329	-2430.049	1	2461.182	-80.87696	3.40178E-007	0.0006594	8
	35	92	95.0169	460.6477	-2995.477	1	3030.689	-81.25748	3.417776E-007	0.0006408	8
	36	95	75.60484	547.9991	-3699.119	1	3739.49	-81.57331	3.361648E-007	0.000646	8
	37	97	54.50582	715.3209	-5016.01	1	5066.758	-81.88391	2.946388E-008	0.0006146	7
	38	100	45.95588	822.6026	-5874.474	1	5931.789	-82.0287	3.702652E-008	0.000626	7
	39	102	37.20238	984.843	-7140.071	1	7207.672	-82.14664	3.595522E-008	0.0006246	7
	40	105	30.04808	1184.679	-8687.146	1	8767.553	-82.23439	3.091116E-008	0.000621	7
	41	107	23.91582	1450.575	-10716.2	1	10813.94	-82.29115	2.982413E-008	0.0006169	7
	42	110	18.60119	1832.614	-13513.43	1	13637.13	-82.27699	3.310082E-008	0.000621	7
	43	112	15.02404	2226.17	-16469.28	1	16619.06	-82.30193	3.633404E-008	0.00063	7
	44	114	12.01923	2750.683	-20225.13	1	20411.32	-82.25511	3.399019E-008	0.0006241	7
	45	117	9.450605	3458.774	-25219.97	1	25456.04	-82.19093	3.66986E-008	0.0006132	7
	46	119	7.512019	4332.34	-31198.86	1	31498.22	-82.09434	3.898957E-008	0.0006067	7
	47	122	5.978954	5450.827	-38467.18	1	38851.45	-81.93484	3.763023E-008	0.0006207	7
	48	126	4.734848	7016.768	-47665.99	1	48179.68	-81.6258	3.752277E-009	0.0006435	6
	49	130	3.75601	8976.189	-58910.02	1	59589.95	-81.33641	5.32978E-009	0.0006845	6
	50	135	3.004808	11417.82	-72160.84	1	73058.56	-81.00877	4.352937E-009	0.0006905	6
	51	142	2.372217	14864.65	-89329.23	1	90557.55	-80.55238	4.09453E-009	0.0006834	6
	52	146	1.878005	19543.94	-110462.1	1	112177.8	-79.96656	4.809809E-009	0.0006517	6
	53	151	1.512097	24997.18	-134102.3	1	136412.2	-79.44103	4.279997E-009	0.0007634	6
	54	156	1.201923	32947.63	-164450.2	1	167718.2	-78.67078	4.801862E-009	0.0006489	6
	55	162	0.956633	43060.79	-200788.4	1	205353.9	-77.89577	3.518464E-009	2.985386E-005	6
