EXPLAIN
TAG	EISPOT
TITLE	LABEL	Potentiostatic EIS	Test Identifier
DATE	LABEL	9/15/2020	Date
TIME	LABEL	2:39:49	Time
NOTES	NOTES	1	Notes...
	
PSTAT	PSTAT	REF3000-16137	Potentiostat
VDC	POTEN	0.00000E+000	T	DC Voltage (V)
FREQINIT	QUANT	3.00000E+005	Initial Freq. (Hz)
FREQFINAL	QUANT	1.00000E+000	Final Freq. (Hz)
PTSPERDEC	QUANT	1.00000E+001	Points/decade
VAC	QUANT	5.00000E+001	AC Voltage (mV rms)
AREA	QUANT	1.00000E+000	Sample Area (cm^2)
SPEED	SELECTOR	2	Optimize for:
ZGUESS	QUANT	1.00000E+003	Estimated Z (ohms)
EOC	QUANT	0	Open Circuit (V)
SEQUENCER	TOGGLE	TRUE	Run as Sequence
PSTATMODEL	IQUANT	5	Pstat Model
PSTATSECTION	LABEL	REF3000-16137	Pstat Section
PSTATSERIALNO	LABEL	16137	Pstat Serial Number
CTRLMODE	IQUANT	1	Control Mode
IESTAB	IQUANT	0	I/E Stability
CASPEED	IQUANT	1	Control Amp Speed
CONVENTION	IQUANT	1	Current Convention
ICHRANGE	IQUANT	2	Ich Range
ICHRANGEMODE	TOGGLE	F	Ich Auto Range
ICHOFFSETENABLE	TOGGLE	T	Ich Offset Enable
ICHOFFSET	QUANT	0	Ich Offset (V)
ICHFILTER	IQUANT	3	Ich Filter
VCHRANGE	IQUANT	2	Vch Range
VCHRANGEMODE	TOGGLE	F	Vch Auto Range
VCHOFFSETENABLE	TOGGLE	T	Vch Offset Enable
VCHOFFSET	QUANT	0	Vch Offset (V)
VCHFILTER	IQUANT	3	Vch Filter
ACHRANGE	IQUANT	2	Ach Range
ACHOFFSETENABLE	TOGGLE	F	Ach Offset Enable
ACHOFFSET	QUANT	0	Ach Offset (V)
ACHFILTER	IQUANT	3	Ach Filter
IERANGELOWERLIMIT	IQUANT	2	I/E Range Lower Limit
IERANGEMODE	TOGGLE	F	I/E AutoRange
IERANGE	IQUANT	11	I/E Range
POSFEEDENABLE	TOGGLE	F	Positive Feedback IR Comp
POSFEEDRESISTANCE	QUANT	0	Positive Feedback Resistance (ohm)
ACHSELECT	IQUANT	0	Ach Select
CABLEID	IQUANT	13	Cable ID
DCCALDATE	LABEL	7/31/2020	DC Calibration Date
ACCALDATE	LABEL	7/31/2020	AC Calibration Date
THERMOSELECT	IQUANT	1	Thermo Select
FRAMEWORKVERSION	QUANT	6.33	Framework Version
INSTRUMENTVERSION	LABEL	3.50	Instrument Version
COMPLIANCEVOLTAGE	IQUANT	0	Compliance Voltage
ZCURVE	TABLE
	Pt	Time	Freq	Zreal	Zimag	Zsig	Zmod	Zphz	Idc	Vdc	IERange
	#	s	Hz	ohm	ohm	V	ohm	°	A	V	#
	0	7	300046.9	113.2379	-5.722668	1	113.3824	-2.893078	7.362548E-006	-0.0017171	9
	1	10	238359.4	113.8782	-7.320897	1	114.1133	-3.678316	9.737381E-006	0.0006793	9
	2	13	189328.1	114.7877	-8.808633	1	115.1251	-4.388192	-1.056511E-005	-0.001177	9
	3	16	150421.9	116.2217	-10.37832	1	116.6842	-5.102841	-5.115645E-005	0.000791	9
	4	18	119484.4	117.4968	-12.32978	1	118.142	-5.990533	1.784951E-005	-0.001217	9
	5	21	94921.88	119.0602	-14.07388	1	119.8891	-6.741546	-1.890897E-005	0.0008329	9
	6	23	75421.88	120.737	-16.26428	1	121.8275	-7.672035	-2.303798E-006	-0.0003129	9
	7	26	59859.37	122.7121	-18.81166	1	124.1457	-8.715544	6.733322E-006	-0.0005568	9
	8	28	47578.12	124.8242	-21.37692	1	126.6414	-9.71799	6.036228E-006	-0.000541	9
	9	31	37828.12	127.0176	-24.34543	1	129.3297	-10.85028	-1.379204E-005	0.0001192	9
	10	33	30046.88	129.5072	-27.73683	1	132.4441	-12.08854	-1.953404E-005	0.000462	9
	11	36	23859.38	132.0064	-31.60479	1	135.7371	-13.46423	-2.091713E-005	0.0007818	9
	12	38	18984.38	134.4914	-36.363	1	139.3205	-15.12956	7.040364E-006	-0.0005459	9
	13	40	15046.87	137.1361	-41.96349	1	143.4129	-17.01405	1.382419E-005	-0.0006892	9
	14	43	11953.13	139.485	-49.0268	1	147.8502	-19.36578	-1.399558E-005	0.0008432	9
	15	45	9515.62	142.1028	-57.9237	1	153.4547	-22.17671	2.269253E-005	-0.0002958	9
	16	47	7546.875	144.7781	-69.01352	1	160.3857	-25.48643	5.454322E-006	-0.0005313	9
	17	50	5928.309	147.5807	-83.60069	1	169.6147	-29.53044	-2.026195E-005	0.000639	9
	18	52	4733.456	150.4913	-100.96	1	181.2196	-33.85645	1.920547E-005	-0.0001035	9
	19	54	3796.875	153.8455	-121.6541	1	196.133	-38.33536	1.82989E-005	-0.000125	9
	20	57	2987.132	158.1541	-150.1755	1	218.0949	-43.51771	-1.936679E-005	0.0004842	9
	21	59	2390.625	162.5254	-182.8707	1	244.6552	-48.37107	2.565268E-005	-0.000593	9
	22	61	1884.191	168.2426	-225.8359	1	281.6157	-53.31473	1.966758E-005	-0.0001287	9
	23	64	1516.544	174.7069	-276.0372	1	326.6788	-57.66984	2.067973E-006	0.0005153	9
	24	66	1193.986	183.9115	-341.6436	1	387.9998	-61.7058	-9.781804E-006	-2.270736E-005	9
	25	68	946.5144	193.0314	-422.1772	1	464.214	-65.42878	3.153743E-006	-0.0015069	8
	26	71	751.7689	205.423	-520.9374	1	559.9771	-68.47903	1.265741E-006	-0.0010307	8
	27	73	597.4265	221.0965	-642.9153	1	679.8704	-71.02207	6.053234E-006	-7.233915E-005	8
	28	75	477.4305	239.9733	-789.4995	1	825.1646	-73.09303	2.075928E-007	0.0006525	8
	29	78	376.6741	263.9802	-981.694	1	1016.567	-74.94904	2.128533E-007	0.0006457	8
	30	80	298.2954	293.0785	-1216.741	1	1251.54	-76.45705	2.295282E-007	0.0006386	8
	31	82	237.7717	327.8483	-1499.242	1	1534.67	-77.66496	2.312757E-007	0.0006429	8
	32	85	189.0121	371.0291	-1852.521	1	1889.312	-78.67446	2.335564E-007	0.0006461	8
	33	87	150.2404	424.1858	-2289.406	1	2328.371	-79.50316	2.279931E-007	0.0006409	8
	34	90	119.1737	490.4203	-2834.873	1	2876.98	-80.18523	2.282633E-007	0.0006422	8
	35	92	95.0169	570.4163	-3495.488	1	3541.724	-80.7318	2.196411E-007	0.0006473	8
	36	94	75.60484	672.9081	-4327.318	1	4379.325	-81.16116	1.094304E-008	0.0006698	7
	37	97	54.50582	859.981	-5857.232	1	5920.029	-81.64729	1.504624E-008	0.0006182	7
	38	100	45.95588	982.553	-6856.648	1	6926.69	-81.84507	2.1726E-008	0.0006115	7
	39	102	37.20238	1166.003	-8335.075	1	8416.236	-82.03651	1.949567E-008	0.0006158	7
	40	104	30.04808	1395.891	-10162.38	1	10257.81	-82.17887	1.712883E-008	0.0006234	7
	41	107	23.91582	1702.606	-12551.23	1	12666.18	-82.27483	1.651115E-008	0.0006088	7
	42	109	18.60119	2114.643	-15812.67	1	15953.44	-82.38297	2.031912E-008	0.0006265	7
	43	111	15.02404	2560.088	-19257.93	1	19427.35	-82.42768	2.391558E-008	0.0006082	7
	44	114	12.01923	3139.991	-23645.77	1	23853.34	-82.43578	2.409397E-008	0.000619	7
	45	116	9.450605	3904.48	-29533.85	1	29790.83	-82.46897	2.43863E-008	0.0006162	7
	46	119	7.512019	4837.78	-36453.52	1	36773.14	-82.4404	2.588219E-008	0.0006267	7
	47	121	5.978954	6027.239	-45011.82	1	45413.56	-82.37326	2.834376E-009	0.000661	6
	48	124	4.734848	7516.249	-55807.62	1	56311.5	-82.32948	3.866958E-009	0.0006844	6
	49	128	3.75601	9424.4	-69079.09	1	69719.01	-82.23115	2.959562E-009	0.0006407	6
	50	133	3.004808	11812.48	-84785.65	1	85604.56	-82.06851	3.075919E-009	0.0006939	6
	51	140	2.372217	15093.85	-105416.2	1	106491.3	-81.85158	2.707851E-009	0.0007403	6
	52	144	1.878005	19199.65	-130497.6	1	131902.5	-81.63032	2.300066E-009	0.0006324	6
	53	149	1.512097	24276.69	-158599.8	1	160447	-81.29735	2.877336E-009	0.0007083	6
	54	154	1.201923	30917.34	-195750.3	1	198176.8	-81.02469	2.633585E-009	0.0006229	6
	55	160	0.956633	39446.36	-240551.8	1	243764.6	-80.68736	2.110354E-009	2.352197E-005	6
