EXPLAIN
TAG	EISPOT
TITLE	LABEL	Potentiostatic EIS	Test Identifier
DATE	LABEL	9/15/2020	Date
TIME	LABEL	7:30:16	Time
NOTES	NOTES	1	Notes...
	
PSTAT	PSTAT	REF3000-16137	Potentiostat
VDC	POTEN	0.00000E+000	T	DC Voltage (V)
FREQINIT	QUANT	3.00000E+005	Initial Freq. (Hz)
FREQFINAL	QUANT	1.00000E+000	Final Freq. (Hz)
PTSPERDEC	QUANT	1.00000E+001	Points/decade
VAC	QUANT	5.00000E+001	AC Voltage (mV rms)
AREA	QUANT	1.00000E+000	Sample Area (cm^2)
SPEED	SELECTOR	2	Optimize for:
ZGUESS	QUANT	1.00000E+003	Estimated Z (ohms)
EOC	QUANT	0	Open Circuit (V)
SEQUENCER	TOGGLE	TRUE	Run as Sequence
PSTATMODEL	IQUANT	5	Pstat Model
PSTATSECTION	LABEL	REF3000-16137	Pstat Section
PSTATSERIALNO	LABEL	16137	Pstat Serial Number
CTRLMODE	IQUANT	1	Control Mode
IESTAB	IQUANT	0	I/E Stability
CASPEED	IQUANT	1	Control Amp Speed
CONVENTION	IQUANT	1	Current Convention
ICHRANGE	IQUANT	2	Ich Range
ICHRANGEMODE	TOGGLE	F	Ich Auto Range
ICHOFFSETENABLE	TOGGLE	T	Ich Offset Enable
ICHOFFSET	QUANT	0	Ich Offset (V)
ICHFILTER	IQUANT	3	Ich Filter
VCHRANGE	IQUANT	2	Vch Range
VCHRANGEMODE	TOGGLE	F	Vch Auto Range
VCHOFFSETENABLE	TOGGLE	T	Vch Offset Enable
VCHOFFSET	QUANT	0	Vch Offset (V)
VCHFILTER	IQUANT	3	Vch Filter
ACHRANGE	IQUANT	2	Ach Range
ACHOFFSETENABLE	TOGGLE	F	Ach Offset Enable
ACHOFFSET	QUANT	0	Ach Offset (V)
ACHFILTER	IQUANT	3	Ach Filter
IERANGELOWERLIMIT	IQUANT	2	I/E Range Lower Limit
IERANGEMODE	TOGGLE	F	I/E AutoRange
IERANGE	IQUANT	11	I/E Range
POSFEEDENABLE	TOGGLE	F	Positive Feedback IR Comp
POSFEEDRESISTANCE	QUANT	0	Positive Feedback Resistance (ohm)
ACHSELECT	IQUANT	0	Ach Select
CABLEID	IQUANT	13	Cable ID
DCCALDATE	LABEL	7/31/2020	DC Calibration Date
ACCALDATE	LABEL	7/31/2020	AC Calibration Date
THERMOSELECT	IQUANT	1	Thermo Select
FRAMEWORKVERSION	QUANT	6.33	Framework Version
INSTRUMENTVERSION	LABEL	3.50	Instrument Version
COMPLIANCEVOLTAGE	IQUANT	0	Compliance Voltage
ZCURVE	TABLE
	Pt	Time	Freq	Zreal	Zimag	Zsig	Zmod	Zphz	Idc	Vdc	IERange
	#	s	Hz	ohm	ohm	V	ohm	°	A	V	#
	0	14	300046.9	-67.66808	-4910.889	1	4911.355	-90.78944	1.945307E-005	-0.0010953	9
	1	28	238359.4	51.71954	-6016.689	1	6016.912	-89.5075	2.856207E-005	-0.0021254	9
	2	42	189328.1	-17.30484	-7415.698	1	7415.718	-90.13371	2.927201E-005	-0.0014986	9
	3	52	150421.9	564.4495	-9697.95	1	9714.36	-86.66898	2.434437E-005	0.0010729	9
	4	60	119484.4	53.01366	-11805.96	1	11806.08	-89.74272	7.647541E-005	-0.0014715	9
	5	71	94921.88	555.5031	-14725.18	1	14735.65	-87.83956	2.231838E-005	-0.0096293	8
	6	80	75421.88	620.9722	-18303.58	1	18314.11	-88.05692	2.593603E-005	-0.0050322	8
	7	89	59859.37	492.0629	-23162.91	1	23168.14	-88.78302	2.25113E-005	-0.009608	8
	8	97	47578.12	1157.827	-28828.02	1	28851.26	-87.70005	2.606721E-005	-0.0050559	8
	9	107	37828.12	1536.197	-34569.93	1	34604.04	-87.4556	-9.39265E-006	-0.0021267	8
	10	115	30046.88	1036.502	-45700.11	1	45711.87	-88.70073	-1.898167E-005	0.0002892	9
	11	124	23859.38	628.2377	-54726.48	1	54730.09	-89.3423	-1.562779E-005	0.0005162	8
	12	130	18984.38	5573.096	-72711.45	1	72924.72	-85.61703	-7.349434E-006	0.0184728	7
	13	136	15046.87	6693.466	-92436.77	1	92678.79	-85.85837	-1.001641E-006	-0.0133909	7
	14	141	11953.13	7162.5	-112106.7	1	112335.3	-86.34434	-7.347631E-006	0.0236594	7
	15	146	9515.62	9235.376	-143276.4	1	143573.7	-86.3119	-3.348485E-006	-0.0052911	7
	16	153	7546.875	10333.57	-177451.7	1	177752.3	-86.66725	-6.625292E-006	0.0117695	7
	17	158	5928.309	23343.14	-201685.1	1	203031.5	-83.39793	4.305805E-007	0.0164819	7
	18	163	4733.456	50795.6	-302204.9	1	306444.2	-80.45872	-6.853096E-007	0.0262306	6
	19	168	3796.875	60946.53	-367960.9	1	372974.1	-80.5953	-4.106807E-007	0.025749	6
	20	173	2987.132	67887.87	-470296.3	1	475170.9	-81.78602	-5.017264E-008	-0.0151936	6
	21	178	2390.625	94730.16	-583650.4	1	591288.1	-80.78092	-2.724688E-007	-0.0073681	6
	22	184	1884.191	120092.9	-726291.2	1	736152.9	-80.61105	-7.512718E-007	0.0232269	6
	23	189	1516.544	166458.2	-867021.5	1	882855.9	-79.1321	6.097948E-007	-0.0070206	6
	24	195	1193.986	-167522.1	-988846	1	1002936	-99.6153	-7.265601E-006	0.0234168	7
	25	202	946.5144	-2201214	857988.6	1	2362517	158.7052	-6.806389E-006	0.0119023	7
	26	208	751.7689	891940	-852920.3	1	1234111	-43.71893	6.592898E-006	-0.010135	7
	27	214	597.4265	728633.4	-390659.7	1	826753.7	-28.19816	1.647341E-005	-0.0093354	8
	28	221	477.4305	938479.8	-2530415	1	2698841	-69.6512	-8.624683E-008	0.0006257	7
	29	228	376.6741	1766750	-2896987	1	3393219	-58.62276	-1.020809E-009	0.000643	5
	30	232	298.2954	2315439	-3274765	1	4010654	-54.73759	-9.542346E-010	0.0006956	5
	31	236	237.7717	3074357	-3597138	1	4731921	-49.48056	-9.109661E-010	0.0006502	5
	32	240	189.0121	3796921	-3791805	1	5366041	-44.96137	-9.031816E-010	0.0006887	5
	33	244	150.2404	4750617	-3856308	1	6118780	-39.06793	-9.741508E-010	0.0006882	5
	34	247	119.1737	4456628	-3411630	1	5612554	-37.43472	-8.252714E-010	0.0006506	5
	35	250	95.0169	6212730	-3550058	1	7155482	-29.74437	-8.711434E-010	0.0006113	5
	36	252	75.60484	6575043	-3168801	1	7298801	-25.73146	-8.898141E-010	0.000626	5
	37	255	54.50582	7490568	-2616980	1	7934557	-19.25788	-9.032793E-010	0.000643	5
	38	259	45.95588	8481620	-1265749	1	8575546	-8.487854	-8.372059E-011	0.0007316	4
	39	261	37.20238	8552868	-1119200	1	8625785	-7.455177	-1.241406E-010	0.0006907	4
	40	264	30.04808	8598181	-1089197	1	8666895	-7.219638	-1.161818E-010	0.0007376	4
	41	267	23.91582	8583468	-905304.6	1	8631078	-6.020768	-9.790847E-011	0.0006122	4
	42	270	18.60119	8421265	-283205.1	1	8426026	-1.926117	2.005682E-010	0.0007265	4
	43	272	15.02404	8755770	-836485	1	8795636	-5.457206	-1.654542E-010	0.0005966	4
	44	274	12.01923	8865220	-855266.1	1	8906380	-5.510518	-1.638833E-010	0.0007322	4
	45	277	9.450605	8925234	-846536.3	1	8965290	-5.418154	-8.134393E-011	0.0006069	4
	46	280	7.512019	9075171	-927410.8	1	9122435	-5.834921	-4.348754E-011	0.0006081	4
	47	283	5.978954	9256003	-1012379	1	9311203	-6.241935	-2.431022E-011	0.0006784	4
	48	287	4.734848	9365718	-1074016	1	9427098	-6.541829	-1.204303E-010	0.0006701	4
	49	292	3.75601	9.564698E+006	-1213045	1	9.641313E+006	-7.227962	-7.19418E-011	0.000693	4
	50	297	3.004808	9.79836E+006	-1334237	1	9.888784E+006	-7.75424	-3.458372E-011	0.0005935	4
	51	304	2.372217	1.002792E+007	-1471915	1	1.013537E+007	-8.350347	-1.62507E-010	0.000601	4
	52	308	1.878005	1.02708E+007	-1658397	1	1.040382E+007	-9.172227	-1.479211E-010	0.0006497	4
	53	313	1.512097	1.052309E+007	-1858877	1	1.068601E+007	-10.01781	-8.026649E-011	0.0005361	4
	54	318	1.201923	1.085855E+007	-2096601	1	1.105911E+007	-10.92836	-1.695608E-010	0.000651	4
	55	324	0.956633	1.121247E+007	-2361654	1	1.145848E+007	-11.89421	-1.986393E-010	1.517096E-005	4
