EXPLAIN
TAG	EISPOT
TITLE	LABEL	Potentiostatic EIS	Test Identifier
DATE	LABEL	9/15/2020	Date
TIME	LABEL	3:31:37	Time
NOTES	NOTES	1	Notes...
	
PSTAT	PSTAT	REF3000-16137	Potentiostat
VDC	POTEN	0.00000E+000	T	DC Voltage (V)
FREQINIT	QUANT	3.00000E+005	Initial Freq. (Hz)
FREQFINAL	QUANT	1.00000E+000	Final Freq. (Hz)
PTSPERDEC	QUANT	1.00000E+001	Points/decade
VAC	QUANT	5.00000E+001	AC Voltage (mV rms)
AREA	QUANT	1.00000E+000	Sample Area (cm^2)
SPEED	SELECTOR	2	Optimize for:
ZGUESS	QUANT	1.00000E+003	Estimated Z (ohms)
EOC	QUANT	0	Open Circuit (V)
SEQUENCER	TOGGLE	TRUE	Run as Sequence
PSTATMODEL	IQUANT	5	Pstat Model
PSTATSECTION	LABEL	REF3000-16137	Pstat Section
PSTATSERIALNO	LABEL	16137	Pstat Serial Number
CTRLMODE	IQUANT	1	Control Mode
IESTAB	IQUANT	0	I/E Stability
CASPEED	IQUANT	1	Control Amp Speed
CONVENTION	IQUANT	1	Current Convention
ICHRANGE	IQUANT	2	Ich Range
ICHRANGEMODE	TOGGLE	F	Ich Auto Range
ICHOFFSETENABLE	TOGGLE	T	Ich Offset Enable
ICHOFFSET	QUANT	0	Ich Offset (V)
ICHFILTER	IQUANT	3	Ich Filter
VCHRANGE	IQUANT	2	Vch Range
VCHRANGEMODE	TOGGLE	F	Vch Auto Range
VCHOFFSETENABLE	TOGGLE	T	Vch Offset Enable
VCHOFFSET	QUANT	0	Vch Offset (V)
VCHFILTER	IQUANT	3	Vch Filter
ACHRANGE	IQUANT	2	Ach Range
ACHOFFSETENABLE	TOGGLE	F	Ach Offset Enable
ACHOFFSET	QUANT	0	Ach Offset (V)
ACHFILTER	IQUANT	3	Ach Filter
IERANGELOWERLIMIT	IQUANT	2	I/E Range Lower Limit
IERANGEMODE	TOGGLE	F	I/E AutoRange
IERANGE	IQUANT	11	I/E Range
POSFEEDENABLE	TOGGLE	F	Positive Feedback IR Comp
POSFEEDRESISTANCE	QUANT	0	Positive Feedback Resistance (ohm)
ACHSELECT	IQUANT	0	Ach Select
CABLEID	IQUANT	13	Cable ID
DCCALDATE	LABEL	7/31/2020	DC Calibration Date
ACCALDATE	LABEL	7/31/2020	AC Calibration Date
THERMOSELECT	IQUANT	1	Thermo Select
FRAMEWORKVERSION	QUANT	6.33	Framework Version
INSTRUMENTVERSION	LABEL	3.50	Instrument Version
COMPLIANCEVOLTAGE	IQUANT	0	Compliance Voltage
ZCURVE	TABLE
	Pt	Time	Freq	Zreal	Zimag	Zsig	Zmod	Zphz	Idc	Vdc	IERange
	#	s	Hz	ohm	ohm	V	ohm	°	A	V	#
	0	8	300046.9	211.9912	-13.2981	1	212.4079	-3.589434	-0.0000963	0.0031847	9
	1	12	238359.4	213.5168	-15.25645	1	214.0612	-4.087018	-7.491399E-005	0.0033234	9
	2	15	189328.1	215.2511	-17.12719	1	215.9314	-4.54935	4.999704E-005	-0.0001979	9
	3	17	150421.9	216.5893	-18.743	1	217.3988	-4.945886	5.006191E-005	-0.0002577	9
	4	20	119484.4	218.4712	-19.96791	1	219.3819	-5.22223	1.092157E-005	-0.0016061	9
	5	26	94921.88	221.1147	-22.39806	1	222.2462	-5.784112	-1.563057E-005	0.0009006	9
	6	29	75421.88	223.5935	-25.21872	1	225.0112	-6.435096	2.553339E-005	-0.0008074	9
	7	31	59859.37	226.5404	-28.4947	1	228.3254	-7.169126	-2.174632E-005	0.0006609	9
	8	34	47578.12	230.0923	-32.46	1	232.3706	-8.029943	2.456636E-005	-0.0003052	9
	9	36	37828.12	233.6704	-36.5637	1	236.5138	-8.893272	2.624951E-005	-0.0006469	9
	10	39	30046.88	237.9609	-41.10907	1	241.4857	-9.80142	1.176252E-005	0.0002948	9
	11	42	23859.38	242.461	-46.45439	1	246.8711	-10.84616	-1.963325E-005	0.0004168	9
	12	46	18984.38	247.1167	-52.38865	1	252.6088	-11.96947	-2.103095E-005	0.0009975	9
	13	49	15046.87	251.8553	-59.71494	1	258.8378	-13.33853	2.446801E-005	-0.0003039	9
	14	53	11953.13	257.1721	-68.2615	1	266.0773	-14.86531	2.442513E-005	-0.0003027	9
	15	55	9515.62	261.9472	-78.13083	1	273.351	-16.60823	-2.284393E-005	0.0008706	9
	16	59	7546.875	266.6323	-90.43386	1	281.5512	-18.73543	-2.410047E-005	0.0009308	9
	17	61	5928.309	272.3837	-108.175	1	293.078	-21.66011	-8.653178E-006	0.0008931	9
	18	63	4733.456	277.2532	-128.0206	1	305.3828	-24.78495	1.465867E-005	-0.0007786	9
	19	66	3796.875	283.1321	-152.3722	1	321.5293	-28.28765	2.024615E-005	-0.0001179	9
	20	68	2987.132	287.4416	-185.1585	1	341.9156	-32.78803	-9.541739E-006	-0.0001018	9
	21	70	2390.625	294.895	-222.7125	1	369.5456	-37.06107	-1.861553E-005	0.0003907	9
	22	73	1884.191	302.3136	-273.8231	1	407.888	-42.16897	-2.25905E-005	0.0006632	9
	23	75	1516.544	308.0302	-331.2385	1	452.329	-47.07917	-7.71397E-006	0.0014371	8
	24	78	1193.986	318.3518	-411.1603	1	520.0007	-52.25021	7.794059E-006	-0.0033002	8
	25	80	946.5144	332.2827	-505.3424	1	604.7997	-56.67349	-8.06232E-006	0.0016801	8
	26	82	751.7689	346.243	-622.8322	1	712.6038	-60.92958	8.136022E-006	-0.0001653	8
	27	85	597.4265	365.5735	-772.6107	1	854.7346	-64.67806	1.00467E-005	-0.0033163	8
	28	87	477.4305	386.4718	-947.7365	1	1023.506	-67.81515	3.9734E-008	0.0006555	8
	29	89	376.6741	415.0419	-1178.612	1	1249.555	-70.60056	6.820445E-008	0.0006417	8
	30	92	298.2954	449.8358	-1461.142	1	1528.819	-72.88818	7.08517E-008	0.0006431	8
	31	94	237.7717	491.5211	-1800.823	1	1866.697	-74.73341	7.174591E-008	0.0006371	8
	32	97	189.0121	543.5282	-2225.585	1	2290.994	-76.27597	6.978966E-008	0.0006476	8
	33	99	150.2404	607.9011	-2750.775	1	2817.145	-77.53835	6.136588E-008	0.0006389	8
	34	101	119.1737	688.1467	-3406.502	1	3475.314	-78.57939	8.079037E-008	0.0006346	8
	35	104	95.0169	785.3063	-4199.5	1	4272.295	-79.40803	4.788036E-008	0.000638	8
	36	106	75.60484	908.8578	-5196.926	1	5275.8	-80.08022	-9.318368E-010	0.0006044	7
	37	109	54.50582	1132.518	-7030.867	1	7121.495	-80.84951	-4.779733E-009	0.000616	7
	38	111	45.95588	1278.815	-8230.815	1	8329.567	-81.16861	-4.569469E-009	0.0006658	7
	39	114	37.20238	1497.215	-10006.08	1	10117.48	-81.48994	-6.214198E-009	0.0006763	7
	40	116	30.04808	1767.117	-12194.63	1	12322.01	-81.7547	-4.632997E-009	0.0006168	7
	41	119	23.91582	2120.132	-15066.28	1	15214.72	-81.98991	-2.285332E-010	0.0006075	7
	42	121	18.60119	2606.207	-18987.64	1	19165.66	-82.18452	-2.365352E-009	0.0006238	7
	43	123	15.02404	3123.449	-23128.7	1	23338.65	-82.30894	-4.809451E-009	0.000662	7
	44	125	12.01923	3795.694	-28415.6	1	28667.99	-82.39159	-4.277807E-010	0.000608	7
	45	128	9.450605	4713.51	-35484	1	35795.69	-82.43343	-3.042169E-009	0.0006359	7
	46	130	7.512019	5788.199	-43847.32	1	44227.72	-82.47998	9.08523E-010	0.0006684	6
	47	133	5.978954	7115.927	-54108.42	1	54574.33	-82.50789	5.823832E-010	0.0006616	6
	48	136	4.734848	8831.914	-67086.01	1	67664.88	-82.50011	3.291389E-010	0.0006887	6
	49	139	3.75601	10910.24	-83054.44	1	83767.97	-82.51633	1.860369E-010	0.0006696	6
	50	145	3.004808	13401.67	-102006.4	1	102883	-82.5153	8.329949E-011	0.0007138	6
	51	151	2.372217	16651.93	-126863.3	1	127951.4	-82.52217	-1.323061E-010	0.0007181	6
	52	156	1.878005	21079.31	-157448.9	1	158853.7	-82.37457	-2.285867E-011	0.0006366	6
	53	160	1.512097	26299.46	-192164.7	1	193956	-82.20697	1.229999E-010	0.0007502	6
	54	166	1.201923	33098.82	-237625.4	1	239919.5	-82.0703	9.391798E-011	0.0006379	6
	55	172	0.956633	41810.47	-292876	1	295845.3	-81.87545	-3.899135E-010	2.209067E-005	6
