EXPLAIN
TAG	EISPOT
TITLE	LABEL	Potentiostatic EIS	Test Identifier
DATE	LABEL	9/15/2020	Date
TIME	LABEL	5:53:59	Time
NOTES	NOTES	1	Notes...
	
PSTAT	PSTAT	REF3000-16137	Potentiostat
VDC	POTEN	0.00000E+000	T	DC Voltage (V)
FREQINIT	QUANT	3.00000E+005	Initial Freq. (Hz)
FREQFINAL	QUANT	1.00000E+000	Final Freq. (Hz)
PTSPERDEC	QUANT	1.00000E+001	Points/decade
VAC	QUANT	5.00000E+001	AC Voltage (mV rms)
AREA	QUANT	1.00000E+000	Sample Area (cm^2)
SPEED	SELECTOR	2	Optimize for:
ZGUESS	QUANT	1.00000E+003	Estimated Z (ohms)
EOC	QUANT	0	Open Circuit (V)
SEQUENCER	TOGGLE	TRUE	Run as Sequence
PSTATMODEL	IQUANT	5	Pstat Model
PSTATSECTION	LABEL	REF3000-16137	Pstat Section
PSTATSERIALNO	LABEL	16137	Pstat Serial Number
CTRLMODE	IQUANT	1	Control Mode
IESTAB	IQUANT	0	I/E Stability
CASPEED	IQUANT	1	Control Amp Speed
CONVENTION	IQUANT	1	Current Convention
ICHRANGE	IQUANT	2	Ich Range
ICHRANGEMODE	TOGGLE	F	Ich Auto Range
ICHOFFSETENABLE	TOGGLE	T	Ich Offset Enable
ICHOFFSET	QUANT	0	Ich Offset (V)
ICHFILTER	IQUANT	3	Ich Filter
VCHRANGE	IQUANT	2	Vch Range
VCHRANGEMODE	TOGGLE	F	Vch Auto Range
VCHOFFSETENABLE	TOGGLE	T	Vch Offset Enable
VCHOFFSET	QUANT	0	Vch Offset (V)
VCHFILTER	IQUANT	3	Vch Filter
ACHRANGE	IQUANT	2	Ach Range
ACHOFFSETENABLE	TOGGLE	F	Ach Offset Enable
ACHOFFSET	QUANT	0	Ach Offset (V)
ACHFILTER	IQUANT	3	Ach Filter
IERANGELOWERLIMIT	IQUANT	2	I/E Range Lower Limit
IERANGEMODE	TOGGLE	F	I/E AutoRange
IERANGE	IQUANT	11	I/E Range
POSFEEDENABLE	TOGGLE	F	Positive Feedback IR Comp
POSFEEDRESISTANCE	QUANT	0	Positive Feedback Resistance (ohm)
ACHSELECT	IQUANT	0	Ach Select
CABLEID	IQUANT	13	Cable ID
DCCALDATE	LABEL	7/31/2020	DC Calibration Date
ACCALDATE	LABEL	7/31/2020	AC Calibration Date
THERMOSELECT	IQUANT	1	Thermo Select
FRAMEWORKVERSION	QUANT	6.33	Framework Version
INSTRUMENTVERSION	LABEL	3.50	Instrument Version
COMPLIANCEVOLTAGE	IQUANT	0	Compliance Voltage
ZCURVE	TABLE
	Pt	Time	Freq	Zreal	Zimag	Zsig	Zmod	Zphz	Idc	Vdc	IERange
	#	s	Hz	ohm	ohm	V	ohm	°	A	V	#
	0	22	300046.9	2145.194	-3674.65	1	4254.986	-59.72439	2.352157E-005	-0.0004771	9
	1	43	238359.4	2818.402	-4001.534	1	4894.452	-54.8418	1.227358E-007	-0.0020223	9
	2	59	189328.1	3854.335	-4259.737	1	5744.672	-47.86028	1.970563E-005	-0.0020913	9
	3	67	150421.9	4811.093	-4247.211	1	6417.586	-41.43792	5.004358E-005	0.0001687	9
	4	75	119484.4	5795.523	-3913.469	1	6993.092	-34.02948	2.109934E-005	-0.0137286	8
	5	82	94921.88	6451.233	-3693.324	1	7433.643	-29.79109	2.515775E-005	-0.0049707	8
	6	90	75421.88	7161.093	-3298.13	1	7884.093	-24.72902	-1.25715E-006	-0.0048843	8
	7	98	59859.37	7698.689	-2950.361	1	8244.661	-20.96828	2.515948E-005	-0.0086784	8
	8	107	47578.12	8095.332	-2499.317	1	8472.365	-17.15732	-1.210519E-006	-0.0048832	8
	9	115	37828.12	8887.709	-1430.529	1	9002.099	-9.14367	-2.647333E-006	-0.0065921	7
	10	119	30046.88	8987.721	-1212.641	1	9069.158	-7.684058	-6.224217E-006	0.0234469	7
	11	126	23859.38	9053.303	-1085.19	1	9118.109	-6.835245	6.546116E-006	-0.0247016	7
	12	130	18984.38	9108.953	-958.502	1	9159.244	-6.006921	-2.653311E-006	-0.0066159	7
	13	134	15046.87	9234.98	-918.0998	1	9280.505	-5.677431	5.357398E-006	-0.0250203	7
	14	138	11953.13	9274.746	-850.416	1	9313.652	-5.238891	3.753257E-006	-0.0235707	7
	15	142	9515.62	9339.995	-824.6619	1	9376.331	-5.045767	-3.96336E-006	0.024163	7
	16	146	7546.875	9424.584	-871.7269	1	9464.813	-5.284537	-6.29696E-006	0.0236689	7
	17	150	5928.309	9497.313	-878.8904	1	9537.89	-5.287148	3.698133E-006	-0.0235125	7
	18	154	4733.456	9633.17	-924.9028	1	9677.47	-5.48429	-6.78811E-006	0.0208938	7
	19	158	3796.875	9731.54	-1008.691	1	9783.68	-5.917671	-4.588519E-006	0.0016869	7
	20	163	2987.132	9899.07	-1102.664	1	9960.29	-6.356015	-4.615056E-006	0.0016221	7
	21	167	2390.625	10021.43	-1247.442	1	10098.77	-7.095534	6.96316E-006	-0.0158573	7
	22	171	1884.191	10153.43	-1422.592	1	10252.6	-7.975767	-6.021965E-006	0.0095887	7
	23	175	1516.544	10338.06	-1565.982	1	10455.99	-8.61353	6.61662E-006	-0.0247528	7
	24	179	1193.986	10618.38	-1818.695	1	10773	-9.7192	-4.617984E-006	0.0016474	7
	25	184	946.5144	10751.58	-1876.38	1	10914.09	-9.89963	-4.898278E-008	0.016776	7
	26	186	751.7689	10906.1	-2400.539	1	11167.17	-12.41341	-5.279872E-006	0.0249223	7
	27	189	597.4265	11245.99	-2577.662	1	11537.62	-12.90962	-7.244917E-009	0.016572	7
	28	192	477.4305	11530.06	-2846.515	1	11876.24	-13.86775	-7.756995E-008	0.0005908	7
	29	194	376.6741	11780.58	-3250.198	1	12220.71	-15.4239	-8.61293E-008	0.0006346	7
	30	196	298.2954	12024.34	-3742.34	1	12593.24	-17.28773	-7.898754E-008	0.0005705	7
	31	199	237.7717	12256.27	-4341.064	1	13002.34	-19.5037	-8.012714E-008	0.0006179	7
	32	201	189.0121	12488.57	-5103.028	1	13490.93	-22.2257	-8.239761E-008	0.0005871	7
	33	203	150.2404	12722.64	-6065.237	1	14094.42	-25.48843	-7.806283E-008	0.000576	7
	34	206	119.1737	12956.44	-7284.469	1	14863.81	-29.3459	-8.462524E-008	0.0006247	7
	35	208	95.0169	13225.3	-8800.77	1	15885.91	-33.64176	-8.530539E-008	0.0006576	7
	36	211	75.60484	13522.17	-10705.61	1	17247.01	-38.36892	-7.582511E-008	0.0005922	7
	37	213	54.50582	14003.39	-14294	1	20010.33	-45.58839	-7.680563E-008	0.0006015	7
	38	216	45.95588	14335.25	-16657.97	1	21976.98	-49.2859	-7.752049E-008	0.0005753	7
	39	218	37.20238	14783.12	-20174.84	1	25011.29	-53.7679	-7.718846E-008	0.0005866	7
	40	221	30.04808	15332.79	-24508.07	1	28909.17	-57.96899	-8.581292E-008	0.0006323	7
	41	223	23.91582	16025.04	-30212.74	1	34199.59	-62.05822	-8.303076E-008	0.0006614	7
	42	225	18.60119	16973.74	-38089.99	1	41700.78	-65.98119	-8.009102E-008	0.0005812	7
	43	228	15.02404	18055.26	-46437.31	1	49823.85	-68.75346	-9.32139E-009	0.0006135	6
	44	230	12.01923	19357.36	-57041.61	1	60236.64	-71.2551	-8.964021E-009	0.000714	6
	45	232	9.450605	21042.62	-71262.65	1	74304.48	-73.54905	-8.625906E-009	0.0006082	6
	46	235	7.512019	23097.22	-88105.43	1	91082.65	-75.31023	-9.347077E-009	0.0006956	6
	47	238	5.978954	25651.19	-108793.7	1	111776.8	-76.7332	-8.417418E-009	0.0006725	6
	48	242	4.734848	28875.14	-135018.1	1	138071.2	-77.9285	-8.404317E-009	0.000614	6
	49	246	3.75601	32947.91	-167375.7	1	170587.8	-78.86372	-8.205832E-009	0.0006345	6
	50	251	3.004808	37761.24	-205638.8	1	209077.1	-79.59476	-9.012975E-009	0.0006537	6
	51	257	2.372217	44601.97	-256037.5	1	259893.3	-80.11818	-9.148636E-009	0.0005922	6
	52	262	1.878005	52285.08	-318063.9	1	322332.7	-80.66489	-8.862496E-009	0.0006724	6
	53	266	1.512097	61700.66	-387499.4	1	392380.8	-80.95287	-9.139466E-009	0.0006238	6
	54	272	1.201923	74121.13	-480917.3	1	486595.8	-81.23826	-9.221854E-010	0.0006763	5
	55	278	0.956633	89347.88	-593434.2	1	600122.6	-81.43782	-1.049468E-009	7.687599E-006	5
