EXPLAIN
TAG	EISPOT
TITLE	LABEL	Potentiostatic EIS	Test Identifier
DATE	LABEL	9/15/2020	Date
TIME	LABEL	10:02:40	Time
NOTES	NOTES	1	Notes...
	
PSTAT	PSTAT	REF3000-16137	Potentiostat
VDC	POTEN	0.00000E+000	T	DC Voltage (V)
FREQINIT	QUANT	3.00000E+005	Initial Freq. (Hz)
FREQFINAL	QUANT	1.00000E+000	Final Freq. (Hz)
PTSPERDEC	QUANT	1.00000E+001	Points/decade
VAC	QUANT	5.00000E+001	AC Voltage (mV rms)
AREA	QUANT	1.00000E+000	Sample Area (cm^2)
SPEED	SELECTOR	2	Optimize for:
ZGUESS	QUANT	1.00000E+003	Estimated Z (ohms)
EOC	QUANT	0	Open Circuit (V)
SEQUENCER	TOGGLE	TRUE	Run as Sequence
PSTATMODEL	IQUANT	5	Pstat Model
PSTATSECTION	LABEL	REF3000-16137	Pstat Section
PSTATSERIALNO	LABEL	16137	Pstat Serial Number
CTRLMODE	IQUANT	1	Control Mode
IESTAB	IQUANT	0	I/E Stability
CASPEED	IQUANT	1	Control Amp Speed
CONVENTION	IQUANT	1	Current Convention
ICHRANGE	IQUANT	2	Ich Range
ICHRANGEMODE	TOGGLE	F	Ich Auto Range
ICHOFFSETENABLE	TOGGLE	T	Ich Offset Enable
ICHOFFSET	QUANT	0	Ich Offset (V)
ICHFILTER	IQUANT	3	Ich Filter
VCHRANGE	IQUANT	2	Vch Range
VCHRANGEMODE	TOGGLE	F	Vch Auto Range
VCHOFFSETENABLE	TOGGLE	T	Vch Offset Enable
VCHOFFSET	QUANT	0	Vch Offset (V)
VCHFILTER	IQUANT	3	Vch Filter
ACHRANGE	IQUANT	2	Ach Range
ACHOFFSETENABLE	TOGGLE	F	Ach Offset Enable
ACHOFFSET	QUANT	0	Ach Offset (V)
ACHFILTER	IQUANT	3	Ach Filter
IERANGELOWERLIMIT	IQUANT	2	I/E Range Lower Limit
IERANGEMODE	TOGGLE	F	I/E AutoRange
IERANGE	IQUANT	11	I/E Range
POSFEEDENABLE	TOGGLE	F	Positive Feedback IR Comp
POSFEEDRESISTANCE	QUANT	0	Positive Feedback Resistance (ohm)
ACHSELECT	IQUANT	0	Ach Select
CABLEID	IQUANT	13	Cable ID
DCCALDATE	LABEL	7/31/2020	DC Calibration Date
ACCALDATE	LABEL	7/31/2020	AC Calibration Date
THERMOSELECT	IQUANT	1	Thermo Select
FRAMEWORKVERSION	QUANT	6.33	Framework Version
INSTRUMENTVERSION	LABEL	3.50	Instrument Version
COMPLIANCEVOLTAGE	IQUANT	0	Compliance Voltage
ZCURVE	TABLE
	Pt	Time	Freq	Zreal	Zimag	Zsig	Zmod	Zphz	Idc	Vdc	IERange
	#	s	Hz	ohm	ohm	V	ohm	°	A	V	#
	0	7	300046.9	46.20135	-1.549803	1	46.22733	-1.921241	1.389962E-005	-0.0014523	9
	1	10	238359.4	46.57612	-2.694705	1	46.65401	-3.311209	-6.593282E-006	0.0001325	9
	2	13	189328.1	47.17586	-3.748615	1	47.32456	-4.543202	5.632473E-005	-0.002041	9
	3	15	150421.9	47.81245	-5.002389	1	48.07343	-5.972854	6.491354E-006	-0.0010102	9
	4	18	119484.4	48.50039	-6.110269	1	48.88377	-7.180516	-6.389079E-006	0.000586	9
	5	20	94921.88	49.31548	-7.133394	1	49.82872	-8.230644	-1.437456E-005	0.0003996	9
	6	23	75421.88	50.10061	-8.470753	1	50.81166	-9.59652	2.017935E-005	-0.0005337	9
	7	26	59859.37	50.95662	-9.94576	1	51.91816	-11.0442	-1.175344E-005	0.0006408	9
	8	28	47578.12	51.86357	-11.63178	1	53.15194	-12.64092	4.115625E-006	-0.0003454	9
	9	31	37828.12	52.77702	-13.50377	1	54.4772	-14.35205	-1.528107E-005	0.0005565	9
	10	33	30046.88	53.72118	-15.78895	1	55.99336	-16.37835	-3.106704E-006	-0.0001074	9
	11	36	23859.38	54.67142	-18.57945	1	57.74219	-18.76973	3.163103E-006	-0.0003074	9
	12	38	18984.38	55.64725	-22.01023	1	59.84202	-21.58035	4.001393E-006	0.0002659	9
	13	40	15046.87	56.66731	-26.33814	1	62.48905	-24.92831	1.666677E-005	-0.0005797	9
	14	43	11953.13	57.71367	-31.71956	1	65.85589	-28.79329	-1.292895E-005	0.0006294	9
	15	45	9515.62	58.87852	-38.29363	1	70.23591	-33.03932	4.955143E-006	0.0003226	9
	16	47	7546.875	60.29825	-46.67712	1	76.25374	-37.7436	-8.50501E-006	0.0000964	9
	17	50	5928.309	61.93003	-57.66697	1	84.62157	-42.95854	1.726867E-005	-0.0005086	9
	18	52	4733.456	63.79509	-70.36942	1	94.98247	-47.80537	1.901252E-005	-0.0002635	9
	19	54	3796.875	65.95424	-85.79556	1	108.2166	-52.44918	-1.222869E-005	0.000587	9
	20	56	2987.132	68.85252	-106.14	1	126.5163	-57.0287	-1.559779E-005	0.0004465	9
	21	59	2390.625	72.16245	-129.7637	1	148.4791	-60.92128	-7.487594E-006	0.0006341	9
	22	61	1884.191	76.01241	-160.96	1	178.0056	-64.72125	-1.603526E-005	0.0005635	9
	23	63	1516.544	81.24773	-196.2102	1	212.3668	-67.50629	-1.455468E-005	0.0004185	9
	24	66	1193.986	87.87194	-243.8048	1	259.1569	-70.17986	-1.581618E-005	0.0004677	9
	25	68	946.5144	96.2051	-300.9466	1	315.9498	-72.27222	-1.39998E-005	0.0004356	9
	26	71	751.7689	104.2302	-372.622	1	386.9252	-74.37257	-8.926431E-006	9.339774E-005	9
	27	73	597.4265	114.9691	-457.7044	1	471.9229	-75.8998	-2.996834E-006	0.0016043	8
	28	75	477.4305	128.3599	-561.9302	1	576.4042	-77.13287	4.438316E-007	0.0006449	8
	29	78	376.6741	145.6967	-698.535	1	713.5676	-78.21845	4.374526E-007	0.0006451	8
	30	80	298.2954	166.799	-865.6511	1	881.5746	-79.09356	4.420535E-007	0.0006533	8
	31	82	237.7717	192.1338	-1066.491	1	1083.66	-79.78742	4.385642E-007	0.0006445	8
	32	85	189.0121	223.8623	-1317.525	1	1336.408	-80.3569	4.384036E-007	0.0006513	8
	33	87	150.2404	263.3864	-1627.957	1	1649.126	-80.80978	4.445911E-007	0.0006519	8
	34	90	119.1737	312.5917	-2015.871	1	2039.963	-81.18562	4.588213E-007	0.0006472	8
	35	92	95.0169	374.3681	-2483.84	1	2511.895	-81.42881	4.618815E-007	0.0006459	8
	36	95	75.60484	452.0996	-3066.786	1	3099.931	-81.61397	4.550505E-007	0.0006464	8
	37	97	54.50582	598.1057	-4146.604	1	4189.517	-81.79227	4.527683E-007	0.0006364	8
	38	100	45.95588	705.5399	-4861.645	1	4912.573	-81.74267	5.845486E-008	0.0006244	7
	39	102	37.20238	857.8919	-5899.43	1	5961.48	-81.72607	5.549691E-008	0.0006161	7
	40	104	30.04808	1048.343	-7179.263	1	7255.401	-81.69218	4.882387E-008	0.0006176	7
	41	107	23.91582	1298.341	-8832.054	1	8926.974	-81.63723	4.431046E-008	0.0006185	7
	42	109	18.60119	1666.358	-11109.44	1	11233.72	-81.46953	5.237888E-008	0.0006332	7
	43	111	15.02404	2062.159	-13515.82	1	13672.23	-81.32507	5.79976E-008	0.0006354	7
	44	114	12.01923	2579.985	-16561.15	1	16760.91	-81.14532	5.386267E-008	0.0006298	7
	45	116	9.450605	3282.156	-20622.95	1	20882.5	-80.95718	5.442193E-008	0.0006104	7
	46	119	7.512019	4211.01	-25376.29	1	25723.31	-80.57804	5.710193E-008	0.0006096	7
	47	122	5.978954	5421.073	-31194.05	1	31661.6	-80.14129	5.853221E-008	0.0006184	7
	48	126	4.734848	7019.35	-38533.69	1	39167.8	-79.67612	5.810832E-008	0.0006074	7
	49	130	3.75601	9306.749	-47392.59	1	48297.75	-78.88988	1.12809E-008	0.0006922	6
	50	135	3.004808	12170.55	-57750.65	1	59019.15	-78.09945	1.055997E-008	0.0006955	6
	51	142	2.372217	16362.49	-71157.3	1	73014.34	-77.05006	1.022172E-008	0.0005904	6
	52	146	1.878005	21955.25	-87063.2	1	89788.82	-75.84647	1.113033E-008	0.0006714	6
	53	150	1.512097	29113.63	-104330.3	1	108316.3	-74.4081	1.032977E-008	0.0006088	6
	54	156	1.201923	39317.58	-126311.6	1	132289.5	-72.70998	1.037097E-008	0.0006941	6
	55	162	0.956633	53088.68	-151329.4	1	160371.4	-70.66834	8.634928E-009	2.503783E-005	6
