EXPLAIN
TAG	EISPOT
TITLE	LABEL	Potentiostatic EIS	Test Identifier
DATE	LABEL	9/15/2020	Date
TIME	LABEL	2:19:56	Time
NOTES	NOTES	1	Notes...
	
PSTAT	PSTAT	REF3000-16137	Potentiostat
VDC	POTEN	0.00000E+000	T	DC Voltage (V)
FREQINIT	QUANT	3.00000E+005	Initial Freq. (Hz)
FREQFINAL	QUANT	1.00000E+000	Final Freq. (Hz)
PTSPERDEC	QUANT	1.00000E+001	Points/decade
VAC	QUANT	5.00000E+001	AC Voltage (mV rms)
AREA	QUANT	1.00000E+000	Sample Area (cm^2)
SPEED	SELECTOR	2	Optimize for:
ZGUESS	QUANT	1.00000E+003	Estimated Z (ohms)
EOC	QUANT	0	Open Circuit (V)
SEQUENCER	TOGGLE	TRUE	Run as Sequence
PSTATMODEL	IQUANT	5	Pstat Model
PSTATSECTION	LABEL	REF3000-16137	Pstat Section
PSTATSERIALNO	LABEL	16137	Pstat Serial Number
CTRLMODE	IQUANT	1	Control Mode
IESTAB	IQUANT	0	I/E Stability
CASPEED	IQUANT	1	Control Amp Speed
CONVENTION	IQUANT	1	Current Convention
ICHRANGE	IQUANT	2	Ich Range
ICHRANGEMODE	TOGGLE	F	Ich Auto Range
ICHOFFSETENABLE	TOGGLE	T	Ich Offset Enable
ICHOFFSET	QUANT	0	Ich Offset (V)
ICHFILTER	IQUANT	3	Ich Filter
VCHRANGE	IQUANT	2	Vch Range
VCHRANGEMODE	TOGGLE	F	Vch Auto Range
VCHOFFSETENABLE	TOGGLE	T	Vch Offset Enable
VCHOFFSET	QUANT	0	Vch Offset (V)
VCHFILTER	IQUANT	3	Vch Filter
ACHRANGE	IQUANT	2	Ach Range
ACHOFFSETENABLE	TOGGLE	F	Ach Offset Enable
ACHOFFSET	QUANT	0	Ach Offset (V)
ACHFILTER	IQUANT	3	Ach Filter
IERANGELOWERLIMIT	IQUANT	2	I/E Range Lower Limit
IERANGEMODE	TOGGLE	F	I/E AutoRange
IERANGE	IQUANT	11	I/E Range
POSFEEDENABLE	TOGGLE	F	Positive Feedback IR Comp
POSFEEDRESISTANCE	QUANT	0	Positive Feedback Resistance (ohm)
ACHSELECT	IQUANT	0	Ach Select
CABLEID	IQUANT	13	Cable ID
DCCALDATE	LABEL	7/31/2020	DC Calibration Date
ACCALDATE	LABEL	7/31/2020	AC Calibration Date
THERMOSELECT	IQUANT	1	Thermo Select
FRAMEWORKVERSION	QUANT	6.33	Framework Version
INSTRUMENTVERSION	LABEL	3.50	Instrument Version
COMPLIANCEVOLTAGE	IQUANT	0	Compliance Voltage
ZCURVE	TABLE
	Pt	Time	Freq	Zreal	Zimag	Zsig	Zmod	Zphz	Idc	Vdc	IERange
	#	s	Hz	ohm	ohm	V	ohm	°	A	V	#
	0	7	300046.9	93.52993	-4.46023	1	93.63622	-2.730237	1.602567E-005	-0.001515	9
	1	10	238359.4	94.22268	-5.917881	1	94.40834	-3.593878	-1.385019E-006	0.0007264	9
	2	13	189328.1	95.1035	-7.381256	1	95.3895	-4.437992	5.106869E-005	-0.0005972	9
	3	16	150421.9	96.1294	-9.066159	1	96.556	-5.387744	1.276643E-005	-0.0013315	9
	4	18	119484.4	97.4426	-10.68042	1	98.0262	-6.255069	-3.615803E-006	0.0009667	9
	5	21	94921.88	98.782	-12.19022	1	99.5313	-7.035031	2.34524E-005	-0.0006354	9
	6	24	75421.88	100.198	-14.21117	1	101.2007	-8.07247	3.012724E-006	0.0004559	9
	7	26	59859.37	101.906	-16.43716	1	103.2231	-9.162741	-1.393265E-005	0.0001744	9
	8	29	47578.12	103.7552	-18.84164	1	105.4521	-10.29258	-2.004153E-005	0.0006537	9
	9	31	37828.12	105.5539	-21.50994	1	107.7232	-11.51812	-1.793366E-005	0.0004776	9
	10	34	30046.88	107.6947	-24.59703	1	110.468	-12.86544	2.363097E-005	-0.0004264	9
	11	36	23859.38	109.712	-28.19668	1	113.2774	-14.41344	5.05045E-006	-0.0004701	9
	12	38	18984.38	111.7747	-32.61625	1	116.4363	-16.26743	-2.050505E-005	0.0006271	9
	13	41	15046.87	113.9079	-38.17508	1	120.1347	-18.52806	4.769142E-007	-0.0003931	9
	14	43	11953.13	115.9778	-44.81447	1	124.335	-21.12681	1.074452E-005	-0.0005965	9
	15	45	9515.62	118.067	-52.99797	1	129.4164	-24.17439	2.22121E-005	-0.0006956	9
	16	48	7546.875	120.347	-63.71038	1	136.1705	-27.89626	2.415624E-005	-0.0005709	9
	17	50	5928.309	122.8155	-77.5353	1	145.2424	-32.26485	-1.870606E-005	0.0004975	9
	18	52	4733.456	125.3615	-93.84074	1	156.5937	-36.8171	2.1703E-005	-0.0002518	9
	19	55	3796.875	128.6317	-113.6213	1	171.6273	-41.4544	5.479789E-006	-0.0004702	9
	20	57	2987.132	132.1541	-140.4281	1	192.8335	-46.73862	4.755238E-006	-0.0004465	9
	21	59	2390.625	136.2262	-170.7223	1	218.4117	-51.41223	2.180143E-005	-0.0008016	9
	22	62	1884.191	141.9922	-212.5135	1	255.5852	-56.25089	2.285205E-005	-0.000298	9
	23	64	1516.544	148.2825	-258.8732	1	298.3337	-60.19593	-1.195837E-005	0.0008045	9
	24	66	1193.986	157.0308	-321.2498	1	357.5753	-63.95005	-2.457221E-006	-0.0002636	9
	25	69	946.5144	165.1244	-396.1529	1	429.189	-67.37266	1.005587E-006	-0.0007787	8
	26	71	751.7689	176.9135	-487.8572	1	518.9441	-70.06765	-4.493979E-006	0.0012955	8
	27	73	597.4265	191.8721	-603.1821	1	632.9641	-72.35415	3.257982E-006	-0.0013025	8
	28	76	477.4305	209.0009	-741.1594	1	770.064	-74.25198	2.598713E-007	0.0006461	8
	29	78	376.6741	231.4608	-921.7241	1	950.342	-75.90352	2.623893E-007	0.000654	8
	30	80	298.2954	258.6653	-1142.473	1	1171.389	-77.24284	2.820588E-007	0.0006376	8
	31	83	237.7717	291.2251	-1407.922	1	1437.726	-78.31332	2.732982E-007	0.000645	8
	32	85	189.0121	331.6183	-1739.8	1	1771.122	-79.20846	2.87224E-007	0.0006368	8
	33	88	150.2404	381.6195	-2150.174	1	2183.777	-79.93578	2.63088E-007	0.0006438	8
	34	90	119.1737	443.9707	-2663.276	1	2700.028	-80.53577	2.412408E-007	0.0006916	8
	35	92	95.0169	519.5618	-3283.615	1	3324.466	-81.00871	2.731362E-007	0.0006466	8
	36	95	75.60484	613.5093	-4056.03	1	4102.167	-81.39872	2.738511E-007	0.0006461	8
	37	97	54.50582	791.7858	-5501.558	1	5558.243	-81.81021	2.104541E-008	0.0006153	7
	38	100	45.95588	908.9661	-6439.955	1	6503.786	-81.96606	2.797385E-008	0.0006329	7
	39	102	37.20238	1082.52	-7829.709	1	7904.188	-82.1283	2.785435E-008	0.0006123	7
	40	105	30.04808	1296.386	-9531.82	1	9619.58	-82.25494	2.541424E-008	0.000622	7
	41	107	23.91582	1589.181	-11790.23	1	11896.85	-82.32349	2.290357E-008	0.0006184	7
	42	110	18.60119	1984.902	-14851.16	1	14983.21	-82.38736	2.729983E-008	0.0006343	7
	43	112	15.02404	2406.077	-18079.9	1	18239.3	-82.41961	2.934027E-008	0.0006451	7
	44	114	12.01923	2954.966	-22204.26	1	22400.02	-82.41956	2.486092E-008	0.0006194	7
	45	117	9.450605	3702.419	-27697.18	1	27943.55	-82.38612	2.758499E-008	0.000627	7
	46	119	7.512019	4571.703	-34260.63	1	34564.31	-82.39941	2.775126E-008	0.0006348	7
	47	122	5.978954	5681.661	-42255.89	1	42636.15	-82.34203	2.63625E-008	0.0006715	7
	48	125	4.734848	7221.386	-52464.06	1	52958.72	-82.1628	4.361478E-009	0.0006798	6
	49	129	3.75601	9097.049	-64857.97	1	65492.84	-82.01572	3.272046E-009	0.0006457	6
	50	134	3.004808	11421.11	-79549.58	1	80365.27	-81.82975	3.989121E-009	0.0006432	6
	51	141	2.372217	14789.62	-98639.5	1	99742	-81.47282	3.462065E-009	0.0006909	6
	52	145	1.878005	18946.09	-122302.3	1	123761.1	-81.19419	2.521282E-009	0.0006469	6
	53	150	1.512097	23734.26	-148627.8	1	150510.9	-80.92709	3.332657E-009	0.0005924	6
	54	155	1.201923	30833.9	-183190.7	1	185767.5	-80.44576	2.752162E-009	0.0006401	6
	55	161	0.956633	39805.46	-224710.6	1	228208.9	-79.95477	2.574579E-009	2.02575E-005	6
