EXPLAIN
TAG	EISPOT
TITLE	LABEL	Potentiostatic EIS	Test Identifier
DATE	LABEL	9/15/2020	Date
TIME	LABEL	4:41:55	Time
NOTES	NOTES	1	Notes...
	
PSTAT	PSTAT	REF3000-16137	Potentiostat
VDC	POTEN	0.00000E+000	T	DC Voltage (V)
FREQINIT	QUANT	3.00000E+005	Initial Freq. (Hz)
FREQFINAL	QUANT	1.00000E+000	Final Freq. (Hz)
PTSPERDEC	QUANT	1.00000E+001	Points/decade
VAC	QUANT	5.00000E+001	AC Voltage (mV rms)
AREA	QUANT	1.00000E+000	Sample Area (cm^2)
SPEED	SELECTOR	2	Optimize for:
ZGUESS	QUANT	1.00000E+003	Estimated Z (ohms)
EOC	QUANT	0	Open Circuit (V)
SEQUENCER	TOGGLE	TRUE	Run as Sequence
PSTATMODEL	IQUANT	5	Pstat Model
PSTATSECTION	LABEL	REF3000-16137	Pstat Section
PSTATSERIALNO	LABEL	16137	Pstat Serial Number
CTRLMODE	IQUANT	1	Control Mode
IESTAB	IQUANT	0	I/E Stability
CASPEED	IQUANT	1	Control Amp Speed
CONVENTION	IQUANT	1	Current Convention
ICHRANGE	IQUANT	2	Ich Range
ICHRANGEMODE	TOGGLE	F	Ich Auto Range
ICHOFFSETENABLE	TOGGLE	T	Ich Offset Enable
ICHOFFSET	QUANT	0	Ich Offset (V)
ICHFILTER	IQUANT	3	Ich Filter
VCHRANGE	IQUANT	2	Vch Range
VCHRANGEMODE	TOGGLE	F	Vch Auto Range
VCHOFFSETENABLE	TOGGLE	T	Vch Offset Enable
VCHOFFSET	QUANT	0	Vch Offset (V)
VCHFILTER	IQUANT	3	Vch Filter
ACHRANGE	IQUANT	2	Ach Range
ACHOFFSETENABLE	TOGGLE	F	Ach Offset Enable
ACHOFFSET	QUANT	0	Ach Offset (V)
ACHFILTER	IQUANT	3	Ach Filter
IERANGELOWERLIMIT	IQUANT	2	I/E Range Lower Limit
IERANGEMODE	TOGGLE	F	I/E AutoRange
IERANGE	IQUANT	11	I/E Range
POSFEEDENABLE	TOGGLE	F	Positive Feedback IR Comp
POSFEEDRESISTANCE	QUANT	0	Positive Feedback Resistance (ohm)
ACHSELECT	IQUANT	0	Ach Select
CABLEID	IQUANT	13	Cable ID
DCCALDATE	LABEL	7/31/2020	DC Calibration Date
ACCALDATE	LABEL	7/31/2020	AC Calibration Date
THERMOSELECT	IQUANT	1	Thermo Select
FRAMEWORKVERSION	QUANT	6.33	Framework Version
INSTRUMENTVERSION	LABEL	3.50	Instrument Version
COMPLIANCEVOLTAGE	IQUANT	0	Compliance Voltage
ZCURVE	TABLE
	Pt	Time	Freq	Zreal	Zimag	Zsig	Zmod	Zphz	Idc	Vdc	IERange
	#	s	Hz	ohm	ohm	V	ohm	°	A	V	#
	0	15	300046.9	776.3536	-133.2726	1	787.7097	-9.74073	-9.115023E-005	0.0020928	9
	1	34	238359.4	789.6476	-116.3613	1	798.1749	-8.382691	-2.230926E-005	0.0010617	9
	2	51	189328.1	799.9982	-101.6823	1	806.4344	-7.243632	2.552351E-005	-0.0014711	9
	3	61	150421.9	809.2448	-89.15293	1	814.1409	-6.286812	-2.933517E-005	-0.0008552	9
	4	71	119484.4	822.1288	-58.9682	1	824.2409	-4.102584	4.94314E-005	-0.0199377	8
	5	77	94921.88	827.6676	-60.54255	1	829.879	-4.183642	-1.698037E-005	0.0043078	8
	6	80	75421.88	829.6957	-60.34323	1	831.8871	-4.15976	6.118541E-006	0.0028134	8
	7	84	59859.37	836.6922	-65.72449	1	839.2697	-4.491519	5.867115E-007	0.0049946	8
	8	87	47578.12	842.9352	-72.14301	1	846.0168	-4.891766	-1.726885E-005	0.0044641	8
	9	89	37828.12	851.5159	-81.04777	1	855.3643	-5.437066	-1.81231E-005	0.007054	8
	10	92	30046.88	861.659	-90.22079	1	866.3694	-5.977426	-1.2516E-005	0.001322	8
	11	94	23859.38	871.6355	-100.8159	1	877.4465	-6.597679	-1.808102E-005	0.0070218	8
	12	97	18984.38	883.1403	-113.2481	1	890.3718	-7.307354	1.879782E-005	-0.0051273	8
	13	100	15046.87	898.0098	-129.5631	1	907.3082	-8.209867	1.053577E-005	-0.0062156	8
	14	102	11953.13	912.8748	-143.9635	1	924.1568	-8.961932	-1.81837E-005	0.0071996	8
	15	105	9515.62	929.5414	-162.6326	1	943.6613	-9.92403	4.353736E-006	-0.0049386	8
	16	108	7546.875	949.5196	-184.2877	1	967.238	-10.98371	1.019857E-005	-0.0062168	8
	17	111	5928.309	966.268	-207.7639	1	988.352	-12.1348	-1.848187E-005	0.0059476	8
	18	114	4733.456	991.468	-232.3341	1	1018.326	-13.18835	-1.841025E-005	0.0072226	8
	19	116	3796.875	1007.469	-265.1391	1	1041.773	-14.7444	1.860308E-005	-0.0050862	8
	20	120	2987.132	1028.76	-304.7884	1	1072.96	-16.50286	1.794648E-005	-0.0063058	8
	21	123	2390.625	1049.572	-351.5667	1	1106.888	-18.51888	-7.20916E-006	0.0071332	8
	22	125	1884.191	1070.921	-417.5425	1	1149.44	-21.30037	7.454607E-006	0.0025506	8
	23	129	1516.544	1089.457	-490.3822	1	1194.735	-24.23328	-1.561945E-005	0.0028934	8
	24	132	1193.986	1110.547	-589.9705	1	1257.53	-27.97916	1.810609E-005	-0.0063237	8
	25	136	946.5144	1136.571	-712.9183	1	1341.658	-32.09813	-1.193812E-005	0.0077478	8
	26	138	751.7689	1155.428	-871.0496	1	1446.976	-37.01177	-1.802048E-005	0.0071111	8
	27	141	597.4265	1179.223	-1059.556	1	1585.316	-41.94034	1.739936E-005	-0.0024784	8
	28	144	477.4305	1217.422	-1294.113	1	1776.751	-46.74902	-2.017222E-007	0.00066	8
	29	146	376.6741	1258.025	-1600.668	1	2035.87	-51.83487	-1.960632E-007	0.0006419	8
	30	148	298.2954	1306.463	-1977.587	1	2370.168	-56.54985	-1.714995E-007	0.0006441	8
	31	151	237.7717	1363.678	-2431.983	1	2788.218	-60.71949	-1.996462E-007	0.000647	8
	32	153	189.0121	1434.084	-3001.157	1	3326.191	-64.45949	-1.988581E-007	0.0006651	8
	33	155	150.2404	1521.051	-3706.164	1	4006.151	-67.6862	-1.567921E-007	0.0006353	8
	34	158	119.1737	1631.949	-4596.273	1	4877.395	-70.45212	-3.820562E-008	0.0005874	7
	35	160	95.0169	1762.319	-5664.755	1	5932.556	-72.71896	-4.457141E-008	0.00063	7
	36	163	75.60484	1923.638	-6996.551	1	7256.178	-74.6269	-3.815909E-008	0.0006057	7
	37	165	54.50582	2222.159	-9471.343	1	9728.53	-76.79613	-3.935219E-008	0.0006107	7
	38	168	45.95588	2419.155	-11088.83	1	11349.64	-77.69309	-4.393955E-008	0.000641	7
	39	170	37.20238	2712.244	-13480.63	1	13750.77	-78.62421	-4.045464E-008	0.000602	7
	40	173	30.04808	3073.543	-16427.79	1	16712.84	-79.40282	-3.954576E-008	0.0006112	7
	41	175	23.91582	3555.248	-20297.48	1	20606.49	-80.06502	-3.977846E-008	0.0005879	7
	42	177	18.60119	4209.166	-25605.81	1	25949.47	-80.66502	-4.377705E-008	0.0006371	7
	43	180	15.02404	4929.01	-31185.64	1	31572.76	-81.01848	-4.194418E-008	0.0006084	7
	44	182	12.01923	5821.605	-38310.11	1	38749.91	-81.35944	-4.28528E-008	0.0006473	7
	45	185	9.450605	7045.021	-47819.56	1	48335.73	-81.61918	-5.310348E-009	0.0006858	6
	46	187	7.512019	8487.295	-59104.22	1	59710.49	-81.82825	-4.826734E-009	0.0006943	6
	47	190	5.978954	10269.96	-72907.63	1	73627.41	-81.98192	-4.144772E-009	0.0006326	6
	48	193	4.734848	12506.6	-90462.23	1	91322.66	-82.12863	-4.230766E-009	0.0006912	6
	49	196	3.75601	15307.39	-111904.7	1	112946.8	-82.21088	-4.370607E-009	0.0006166	6
	50	202	3.004808	18692.4	-137275	1	138541.8	-82.24586	-4.037404E-009	0.0006362	6
	51	208	2.372217	23340.2	-170739.1	1	172327	-82.21586	-4.549402E-009	0.0007318	6
	52	212	1.878005	28617.3	-211628.5	1	213554.6	-82.29893	-4.81404E-009	0.0006311	6
	53	217	1.512097	34995.14	-257521.3	1	259888.2	-82.26135	-4.377388E-009	0.0006909	6
	54	222	1.201923	42768.2	-318828	1	321683.8	-82.35984	-4.700456E-009	0.0006212	6
	55	229	0.956633	52592.14	-393237	1	396738.3	-82.38238	-4.848123E-009	1.865238E-005	6
