EXPLAIN
TAG	EISPOT
TITLE	LABEL	Potentiostatic EIS	Test Identifier
DATE	LABEL	9/15/2020	Date
TIME	LABEL	5:06:50	Time
NOTES	NOTES	1	Notes...
	
PSTAT	PSTAT	REF3000-16137	Potentiostat
VDC	POTEN	0.00000E+000	T	DC Voltage (V)
FREQINIT	QUANT	3.00000E+005	Initial Freq. (Hz)
FREQFINAL	QUANT	1.00000E+000	Final Freq. (Hz)
PTSPERDEC	QUANT	1.00000E+001	Points/decade
VAC	QUANT	5.00000E+001	AC Voltage (mV rms)
AREA	QUANT	1.00000E+000	Sample Area (cm^2)
SPEED	SELECTOR	2	Optimize for:
ZGUESS	QUANT	1.00000E+003	Estimated Z (ohms)
EOC	QUANT	0	Open Circuit (V)
SEQUENCER	TOGGLE	TRUE	Run as Sequence
PSTATMODEL	IQUANT	5	Pstat Model
PSTATSECTION	LABEL	REF3000-16137	Pstat Section
PSTATSERIALNO	LABEL	16137	Pstat Serial Number
CTRLMODE	IQUANT	1	Control Mode
IESTAB	IQUANT	0	I/E Stability
CASPEED	IQUANT	1	Control Amp Speed
CONVENTION	IQUANT	1	Current Convention
ICHRANGE	IQUANT	2	Ich Range
ICHRANGEMODE	TOGGLE	F	Ich Auto Range
ICHOFFSETENABLE	TOGGLE	T	Ich Offset Enable
ICHOFFSET	QUANT	0	Ich Offset (V)
ICHFILTER	IQUANT	3	Ich Filter
VCHRANGE	IQUANT	2	Vch Range
VCHRANGEMODE	TOGGLE	F	Vch Auto Range
VCHOFFSETENABLE	TOGGLE	T	Vch Offset Enable
VCHOFFSET	QUANT	0	Vch Offset (V)
VCHFILTER	IQUANT	3	Vch Filter
ACHRANGE	IQUANT	2	Ach Range
ACHOFFSETENABLE	TOGGLE	F	Ach Offset Enable
ACHOFFSET	QUANT	0	Ach Offset (V)
ACHFILTER	IQUANT	3	Ach Filter
IERANGELOWERLIMIT	IQUANT	2	I/E Range Lower Limit
IERANGEMODE	TOGGLE	F	I/E AutoRange
IERANGE	IQUANT	11	I/E Range
POSFEEDENABLE	TOGGLE	F	Positive Feedback IR Comp
POSFEEDRESISTANCE	QUANT	0	Positive Feedback Resistance (ohm)
ACHSELECT	IQUANT	0	Ach Select
CABLEID	IQUANT	13	Cable ID
DCCALDATE	LABEL	7/31/2020	DC Calibration Date
ACCALDATE	LABEL	7/31/2020	AC Calibration Date
THERMOSELECT	IQUANT	1	Thermo Select
FRAMEWORKVERSION	QUANT	6.33	Framework Version
INSTRUMENTVERSION	LABEL	3.50	Instrument Version
COMPLIANCEVOLTAGE	IQUANT	0	Compliance Voltage
ZCURVE	TABLE
	Pt	Time	Freq	Zreal	Zimag	Zsig	Zmod	Zphz	Idc	Vdc	IERange
	#	s	Hz	ohm	ohm	V	ohm	°	A	V	#
	0	19	300046.9	1417.308	-457.512	1	1489.322	-17.89026	-9.160914E-005	0.0021122	9
	1	47	238359.4	1476.137	-405.8763	1	1530.92	-15.37403	1.965232E-005	-0.0009549	9
	2	71	189328.1	1516.703	-348.8328	1	1556.301	-12.95245	2.012928E-006	0.0016364	9
	3	82	150421.9	1549.754	-295.013	1	1577.584	-10.77794	1.844977E-005	-0.0019902	9
	4	89	119484.4	1587.46	-200.4078	1	1600.06	-7.195202	-2.694632E-005	-0.0041276	8
	5	95	94921.88	1595.948	-179.8826	1	1606.053	-6.430785	-9.014649E-006	0.0084318	8
	6	99	75421.88	1611.288	-167.6848	1	1619.99	-5.941317	-8.735116E-006	0.0082972	8
	7	102	59859.37	1622.621	-162.409	1	1630.729	-5.715726	2.218174E-005	-0.006135	8
	8	106	47578.12	1637.248	-150.6059	1	1644.16	-5.255692	-8.984185E-006	-0.0012205	8
	9	110	37828.12	1650.928	-153.193	1	1658.021	-5.301412	-1.556738E-005	0.0093221	8
	10	115	30046.88	1668.696	-158.1928	1	1676.178	-5.415468	-1.529055E-005	0.0092504	8
	11	122	23859.38	1688.187	-169.5939	1	1696.684	-5.73664	-1.548931E-005	0.0093654	8
	12	126	18984.38	1704.501	-181.9722	1	1714.187	-6.093805	-8.973367E-006	-0.0012182	8
	13	129	15046.87	1723.724	-198.1429	1	1735.075	-6.557398	1.548364E-005	-0.0001183	8
	14	132	11953.13	1747.782	-218.1906	1	1761.349	-7.115911	2.247906E-005	-0.0061425	8
	15	137	9515.62	1774.537	-240.7758	1	1790.797	-7.726917	-2.008526E-005	0.0048722	8
	16	140	7546.875	1806.385	-272.8305	1	1826.873	-8.58885	-9.216557E-006	-0.0011131	8
	17	144	5928.309	1847.924	-311.9461	1	1874.069	-9.5817	-1.770351E-005	0.0029067	8
	18	148	4733.456	1886.505	-343.6963	1	1917.558	-10.32529	-1.414044E-005	0.0010996	8
	19	153	3796.875	1919.026	-385.7631	1	1957.415	-11.36613	1.535596E-005	-5.73181E-005	8
	20	157	2987.132	1960.038	-433.9841	1	2007.509	-12.48479	-1.426582E-005	0.0011577	8
	21	161	2390.625	1997.295	-484.6517	1	2055.256	-13.63943	7.690455E-006	0.0032489	8
	22	165	1884.191	2036.066	-566.6885	1	2113.458	-15.55322	1.798274E-005	-0.0078725	8
	23	169	1516.544	2077.498	-639.0148	1	2173.554	-17.09731	-9.073945E-006	-0.0011971	8
	24	173	1193.986	2132.382	-742.4198	1	2257.928	-19.19631	2.200506E-005	-0.0044518	8
	25	178	946.5144	2160.717	-866.191	1	2327.871	-21.84492	-1.597109E-005	0.0094451	8
	26	180	751.7689	2204.439	-1060.371	1	2446.209	-25.68832	-2.192922E-005	0.0082619	8
	27	183	597.4265	2246.359	-1257.317	1	2574.291	-29.23632	8.144793E-006	0.0032724	8
	28	186	477.4305	2298.85	-1516.309	1	2753.889	-33.40863	-1.918972E-007	0.0006323	8
	29	190	376.6741	2352.534	-1856.823	1	2997.033	-38.28355	-1.840487E-007	0.0006273	8
	30	192	298.2954	2413.174	-2277.239	1	3318.016	-43.33995	-2.28553E-007	0.0006571	8
	31	195	237.7717	2482.607	-2786.354	1	3731.904	-48.29937	-2.387166E-007	0.000658	8
	32	197	189.0121	2574.391	-3432.8	1	4290.875	-53.13233	-5.020105E-008	0.0006431	7
	33	199	150.2404	2675.737	-4228.346	1	5003.847	-57.67398	-4.592176E-008	0.000593	7
	34	202	119.1737	2801.997	-5226.6	1	5930.307	-61.8041	-5.29573E-008	0.0006595	7
	35	204	95.0169	2950.317	-6431.608	1	7076.013	-65.35806	-4.626731E-008	0.0005938	7
	36	207	75.60484	3135.898	-7936.454	1	8533.531	-68.43974	-5.098452E-008	0.0006068	7
	37	209	54.50582	3475.531	-10727.08	1	11276.06	-72.04789	-5.45411E-008	0.0006452	7
	38	212	45.95588	3698.891	-12563.28	1	13096.48	-73.59447	-5.47837E-008	0.0006611	7
	39	214	37.20238	4027.006	-15269.3	1	15791.4	-75.22566	-4.704474E-008	0.0005982	7
	40	216	30.04808	4433.262	-18604.76	1	19125.66	-76.59714	-4.775636E-008	0.0005835	7
	41	219	23.91582	4967.775	-22979.24	1	23510.09	-77.80122	-5.036167E-008	0.000631	7
	42	221	18.60119	5687.951	-29008.3	1	29560.69	-78.90619	-4.895695E-008	0.0006033	7
	43	224	15.02404	6502.547	-35346.94	1	35940.08	-79.57622	-4.745727E-008	0.0005916	7
	44	226	12.01923	7528.15	-43446.42	1	44093.81	-80.16972	-5.951831E-009	0.0006811	6
	45	228	9.450605	8902.224	-54247.92	1	54973.5	-80.68068	-6.519717E-009	0.0007091	6
	46	231	7.512019	10568.49	-67073.86	1	67901.37	-81.04581	-5.358049E-009	0.0006589	6
	47	234	5.978954	12568.31	-82742.1	1	83691.2	-81.36295	-5.506486E-009	0.0006344	6
	48	237	4.734848	15167.26	-102590.8	1	103706	-81.59018	-4.842813E-009	0.0006653	6
	49	240	3.75601	18399.52	-126980.5	1	128306.7	-81.75521	-5.341493E-009	0.0006257	6
	50	246	3.004808	22266.29	-155898	1	157480	-81.87164	-5.150053E-009	0.0006613	6
	51	252	2.372217	27396.41	-193859.3	1	195785.6	-81.95617	-5.647298E-009	0.000736	6
	52	256	1.878005	33539.02	-240274.5	1	242604	-82.05364	-5.813247E-009	0.0006324	6
	53	261	1.512097	40937.91	-292476	1	295327.2	-82.03207	-5.45979E-009	0.0007075	6
	54	266	1.201923	50123.76	-362010.8	1	365464.3	-82.11699	-5.768004E-009	0.0006307	6
	55	273	0.956633	61839.34	-446528.3	1	450790	-82.1153	-7.321462E-010	8.289733E-006	5
