EXPLAIN
TAG	EISPOT
TITLE	LABEL	Potentiostatic EIS	Test Identifier
DATE	LABEL	9/15/2020	Date
TIME	LABEL	2:28:27	Time
NOTES	NOTES	1	Notes...
	
PSTAT	PSTAT	REF3000-16137	Potentiostat
VDC	POTEN	0.00000E+000	T	DC Voltage (V)
FREQINIT	QUANT	3.00000E+005	Initial Freq. (Hz)
FREQFINAL	QUANT	1.00000E+000	Final Freq. (Hz)
PTSPERDEC	QUANT	1.00000E+001	Points/decade
VAC	QUANT	5.00000E+001	AC Voltage (mV rms)
AREA	QUANT	1.00000E+000	Sample Area (cm^2)
SPEED	SELECTOR	2	Optimize for:
ZGUESS	QUANT	1.00000E+003	Estimated Z (ohms)
EOC	QUANT	0	Open Circuit (V)
SEQUENCER	TOGGLE	TRUE	Run as Sequence
PSTATMODEL	IQUANT	5	Pstat Model
PSTATSECTION	LABEL	REF3000-16137	Pstat Section
PSTATSERIALNO	LABEL	16137	Pstat Serial Number
CTRLMODE	IQUANT	1	Control Mode
IESTAB	IQUANT	0	I/E Stability
CASPEED	IQUANT	1	Control Amp Speed
CONVENTION	IQUANT	1	Current Convention
ICHRANGE	IQUANT	2	Ich Range
ICHRANGEMODE	TOGGLE	F	Ich Auto Range
ICHOFFSETENABLE	TOGGLE	T	Ich Offset Enable
ICHOFFSET	QUANT	0	Ich Offset (V)
ICHFILTER	IQUANT	3	Ich Filter
VCHRANGE	IQUANT	2	Vch Range
VCHRANGEMODE	TOGGLE	F	Vch Auto Range
VCHOFFSETENABLE	TOGGLE	T	Vch Offset Enable
VCHOFFSET	QUANT	0	Vch Offset (V)
VCHFILTER	IQUANT	3	Vch Filter
ACHRANGE	IQUANT	2	Ach Range
ACHOFFSETENABLE	TOGGLE	F	Ach Offset Enable
ACHOFFSET	QUANT	0	Ach Offset (V)
ACHFILTER	IQUANT	3	Ach Filter
IERANGELOWERLIMIT	IQUANT	2	I/E Range Lower Limit
IERANGEMODE	TOGGLE	F	I/E AutoRange
IERANGE	IQUANT	11	I/E Range
POSFEEDENABLE	TOGGLE	F	Positive Feedback IR Comp
POSFEEDRESISTANCE	QUANT	0	Positive Feedback Resistance (ohm)
ACHSELECT	IQUANT	0	Ach Select
CABLEID	IQUANT	13	Cable ID
DCCALDATE	LABEL	7/31/2020	DC Calibration Date
ACCALDATE	LABEL	7/31/2020	AC Calibration Date
THERMOSELECT	IQUANT	1	Thermo Select
FRAMEWORKVERSION	QUANT	6.33	Framework Version
INSTRUMENTVERSION	LABEL	3.50	Instrument Version
COMPLIANCEVOLTAGE	IQUANT	0	Compliance Voltage
ZCURVE	TABLE
	Pt	Time	Freq	Zreal	Zimag	Zsig	Zmod	Zphz	Idc	Vdc	IERange
	#	s	Hz	ohm	ohm	V	ohm	°	A	V	#
	0	6	300046.9	100.9528	-4.864105	1	101.0699	-2.758491	7.280935E-005	-0.0026033	9
	1	10	238359.4	101.876	-6.441319	1	102.0794	-3.617828	-1.212937E-005	-0.0013339	9
	2	13	189328.1	103.1262	-7.520768	1	103.4001	-4.171071	-5.926309E-005	0.0011738	9
	3	15	150421.9	103.9936	-9.56831	1	104.4329	-5.256903	3.417242E-005	0.0002625	9
	4	18	119484.4	105.1933	-11.21546	1	105.7895	-6.085751	6.5147E-006	-0.001306	9
	5	20	94921.88	106.66	-12.93593	1	107.4416	-6.915172	1.418303E-005	-0.0006981	9
	6	23	75421.88	108.2852	-15.06707	1	109.3284	-7.921417	2.068777E-005	-0.0008426	9
	7	25	59859.37	110.0621	-17.43523	1	111.4345	-9.001577	-2.078647E-005	0.0007633	9
	8	28	47578.12	111.9621	-19.81844	1	113.7026	-10.03797	5.098727E-006	-0.000421	9
	9	30	37828.12	114.0273	-22.67735	1	116.2604	-11.24802	1.923019E-005	-0.000719	9
	10	33	30046.88	116.2506	-25.85821	1	119.0918	-12.54043	-5.926511E-006	0.0006827	9
	11	35	23859.38	118.4486	-29.58843	1	122.0883	-14.02544	2.461183E-005	-0.0006028	9
	12	38	18984.38	120.6544	-34.03864	1	125.3639	-15.75465	-1.445367E-005	0.0002081	9
	13	40	15046.87	122.9919	-39.69177	1	129.2379	-17.88586	-1.718024E-005	0.0003757	9
	14	42	11953.13	125.1562	-46.4478	1	133.4971	-20.36082	2.001665E-005	-0.0001009	9
	15	45	9515.62	127.491	-55.03104	1	138.8609	-23.34728	2.000298E-005	-0.0001768	9
	16	47	7546.875	129.7672	-65.77171	1	145.4835	-26.87789	-1.420658E-005	0.0001598	9
	17	49	5928.309	132.6147	-79.92596	1	154.8381	-31.07707	-1.417041E-005	0.0001883	9
	18	52	4733.456	135.3883	-96.5821	1	166.3073	-35.50296	1.140017E-005	0.0002032	9
	19	54	3796.875	138.4776	-116.9166	1	181.2334	-40.17439	-1.98412E-005	0.0006694	9
	20	56	2987.132	142.3767	-144.2285	1	202.6647	-45.37018	-1.240344E-005	0.0008171	9
	21	59	2390.625	146.6569	-176.2095	1	229.2554	-50.22982	1.89262E-005	-8.984441E-005	9
	22	61	1884.191	152.1601	-217.2986	1	265.2761	-54.99894	-3.353008E-006	-0.0002374	9
	23	63	1516.544	158.6933	-265.8686	1	309.6283	-59.1676	-1.996324E-005	0.0006264	9
	24	66	1193.986	167.5378	-329.8473	1	369.9569	-63.07284	5.73785E-006	-0.0005131	9
	25	68	946.5144	177.1782	-406.1076	1	443.075	-66.42913	-1.228632E-006	-0.0001261	8
	26	70	751.7689	188.7022	-501.6772	1	535.993	-69.38658	-5.407021E-006	0.002749	8
	27	73	597.4265	203.7728	-619.2474	1	651.9131	-71.78542	5.5298E-006	1.138618E-005	8
	28	75	477.4305	221.2324	-761.0673	1	792.5699	-73.79153	2.47624E-007	0.0006421	8
	29	77	376.6741	244.3116	-946.4543	1	977.478	-75.526	2.450381E-007	0.0006401	8
	30	80	298.2954	272.2682	-1173.201	1	1204.38	-76.93449	2.565052E-007	0.0006416	8
	31	82	237.7717	305.6892	-1445.658	1	1477.624	-78.06049	2.646268E-007	0.0006405	8
	32	85	189.0121	347.1895	-1786.435	1	1819.86	-79.0018	2.593063E-007	0.0006367	8
	33	87	150.2404	398.3392	-2207.683	1	2243.332	-79.77199	2.452118E-007	0.0006437	8
	34	89	119.1737	462.7251	-2734.726	1	2773.597	-80.39632	2.521872E-007	0.0006411	8
	35	92	95.0169	539.817	-3371.592	1	3414.533	-80.90372	2.503451E-007	0.0006413	8
	36	94	75.60484	635.9543	-4164.486	1	4212.765	-81.3175	2.524106E-007	0.0006949	8
	37	97	54.50582	819.93	-5648.927	1	5708.123	-81.74131	1.802093E-008	0.0006129	7
	38	99	45.95588	938.3217	-6615.205	1	6681.42	-81.92684	2.684568E-008	0.0006075	7
	39	102	37.20238	1116.735	-8039.209	1	8116.402	-82.09159	2.292254E-008	0.0006151	7
	40	104	30.04808	1339.471	-9801.37	1	9892.47	-82.21807	1.910606E-008	0.0006146	7
	41	106	23.91582	1624.332	-12085.26	1	12193.93	-82.34498	2.065976E-008	0.0006114	7
	42	109	18.60119	2032.951	-15248.97	1	15383.89	-82.40627	2.419036E-008	0.0006169	7
	43	111	15.02404	2472.249	-18564.18	1	18728.08	-82.41438	2.520861E-008	0.0006121	7
	44	113	12.01923	3029.547	-22805.93	1	23006.27	-82.43311	2.495468E-008	0.0006125	7
	45	116	9.450605	3764.226	-28437.28	1	28685.33	-82.45963	1.856219E-008	0.0006615	7
	46	118	7.512019	4669.993	-35146.95	1	35455.84	-82.43141	2.607737E-008	0.0006039	7
	47	121	5.978954	5859.338	-43414.86	1	43808.46	-82.31371	3.586909E-009	0.000654	6
	48	124	4.734848	7311.038	-53843.27	1	54337.36	-82.26746	2.540222E-009	0.0006321	6
	49	127	3.75601	9204.65	-66633.63	1	67266.38	-82.13504	3.539101E-009	0.0006713	6
	50	133	3.004808	11537.36	-81732.35	1	82542.64	-81.9652	2.925161E-009	0.0006727	6
	51	139	2.372217	14859.49	-101363.2	1	102446.6	-81.66005	2.426721E-009	0.0006444	6
	52	143	1.878005	19060.63	-125729.5	1	127166.1	-81.37959	3.220632E-009	0.0006487	6
	53	148	1.512097	23781.31	-152967.2	1	154804.8	-81.16315	2.570041E-009	0.0007413	6
	54	154	1.201923	30818.28	-188519	1	191021.4	-80.71565	2.930119E-009	0.0007133	6
	55	160	0.956633	39496.74	-231354.9	1	234702.2	-80.3119	2.513119E-009	2.902373E-005	6
