EXPLAIN
TAG	EISPOT
TITLE	LABEL	Potentiostatic EIS	Test Identifier
DATE	LABEL	9/15/2020	Date
TIME	LABEL	2:42:38	Time
NOTES	NOTES	1	Notes...
	
PSTAT	PSTAT	REF3000-16137	Potentiostat
VDC	POTEN	0.00000E+000	T	DC Voltage (V)
FREQINIT	QUANT	3.00000E+005	Initial Freq. (Hz)
FREQFINAL	QUANT	1.00000E+000	Final Freq. (Hz)
PTSPERDEC	QUANT	1.00000E+001	Points/decade
VAC	QUANT	5.00000E+001	AC Voltage (mV rms)
AREA	QUANT	1.00000E+000	Sample Area (cm^2)
SPEED	SELECTOR	2	Optimize for:
ZGUESS	QUANT	1.00000E+003	Estimated Z (ohms)
EOC	QUANT	0	Open Circuit (V)
SEQUENCER	TOGGLE	TRUE	Run as Sequence
PSTATMODEL	IQUANT	5	Pstat Model
PSTATSECTION	LABEL	REF3000-16137	Pstat Section
PSTATSERIALNO	LABEL	16137	Pstat Serial Number
CTRLMODE	IQUANT	1	Control Mode
IESTAB	IQUANT	0	I/E Stability
CASPEED	IQUANT	1	Control Amp Speed
CONVENTION	IQUANT	1	Current Convention
ICHRANGE	IQUANT	2	Ich Range
ICHRANGEMODE	TOGGLE	F	Ich Auto Range
ICHOFFSETENABLE	TOGGLE	T	Ich Offset Enable
ICHOFFSET	QUANT	0	Ich Offset (V)
ICHFILTER	IQUANT	3	Ich Filter
VCHRANGE	IQUANT	2	Vch Range
VCHRANGEMODE	TOGGLE	F	Vch Auto Range
VCHOFFSETENABLE	TOGGLE	T	Vch Offset Enable
VCHOFFSET	QUANT	0	Vch Offset (V)
VCHFILTER	IQUANT	3	Vch Filter
ACHRANGE	IQUANT	2	Ach Range
ACHOFFSETENABLE	TOGGLE	F	Ach Offset Enable
ACHOFFSET	QUANT	0	Ach Offset (V)
ACHFILTER	IQUANT	3	Ach Filter
IERANGELOWERLIMIT	IQUANT	2	I/E Range Lower Limit
IERANGEMODE	TOGGLE	F	I/E AutoRange
IERANGE	IQUANT	11	I/E Range
POSFEEDENABLE	TOGGLE	F	Positive Feedback IR Comp
POSFEEDRESISTANCE	QUANT	0	Positive Feedback Resistance (ohm)
ACHSELECT	IQUANT	0	Ach Select
CABLEID	IQUANT	13	Cable ID
DCCALDATE	LABEL	7/31/2020	DC Calibration Date
ACCALDATE	LABEL	7/31/2020	AC Calibration Date
THERMOSELECT	IQUANT	1	Thermo Select
FRAMEWORKVERSION	QUANT	6.33	Framework Version
INSTRUMENTVERSION	LABEL	3.50	Instrument Version
COMPLIANCEVOLTAGE	IQUANT	0	Compliance Voltage
ZCURVE	TABLE
	Pt	Time	Freq	Zreal	Zimag	Zsig	Zmod	Zphz	Idc	Vdc	IERange
	#	s	Hz	ohm	ohm	V	ohm	°	A	V	#
	0	6	300046.9	116.1852	-6.145651	1	116.3476	-3.027857	1.138718E-005	-0.001154	9
	1	10	238359.4	117.2812	-7.264575	1	117.506	-3.544459	6.667407E-005	-0.0027742	9
	2	13	189328.1	118.4248	-9.047877	1	118.7699	-4.369019	-1.695516E-005	0.000848	9
	3	15	150421.9	119.6955	-10.95692	1	120.196	-5.230274	-8.350875E-007	0.0011101	9
	4	18	119484.4	120.9716	-12.61077	1	121.6271	-5.951345	-4.220076E-006	0.0011828	9
	5	20	94921.88	122.4101	-14.35032	1	123.2484	-6.686353	5.612786E-006	-0.0005467	9
	6	23	75421.88	124.1687	-16.58566	1	125.2715	-7.608171	-1.73048E-005	0.0002505	9
	7	25	59859.37	126.204	-19.11436	1	127.6433	-8.612338	1.961508E-005	-0.000781	9
	8	28	47578.12	128.4426	-21.86418	1	130.2902	-9.66059	1.229275E-005	0.0001272	9
	9	30	37828.12	130.6565	-24.72448	1	132.9753	-10.71553	-1.800783E-005	0.0008857	9
	10	33	30046.88	133.2283	-28.22237	1	136.1848	-11.96042	-6.379952E-006	0.0007113	9
	11	35	23859.38	135.6943	-32.16809	1	139.4552	-13.33651	-4.674308E-006	0.0007294	9
	12	38	18984.38	138.3235	-36.89651	1	143.1598	-14.93538	2.518084E-005	-0.0005846	9
	13	40	15046.87	141.0662	-42.84148	1	147.4282	-16.89341	3.302936E-006	0.0005304	9
	14	42	11953.13	143.3511	-49.99455	1	151.819	-19.22652	2.173605E-005	-0.0004904	9
	15	45	9515.62	146.2109	-58.64303	1	157.533	-21.85499	1.370349E-005	-0.0006888	9
	16	47	7546.875	148.8031	-70.02554	1	164.4565	-25.20129	6.366748E-006	-0.0005593	9
	17	49	5928.309	151.6794	-84.5351	1	173.6457	-29.13212	5.920457E-006	-0.0005175	9
	18	52	4733.456	154.9112	-101.876	1	185.4082	-33.33056	-9.714757E-006	-3.261858E-005	9
	19	54	3796.875	157.725	-122.8372	1	199.9153	-37.91167	-2.067316E-005	0.0006812	9
	20	56	2987.132	162.3249	-151.3845	1	221.9609	-43.00266	-1.938178E-005	0.0004707	9
	21	59	2390.625	167.0237	-184.5139	1	248.8821	-47.84831	2.267573E-005	-0.0007102	9
	22	61	1884.191	173.6535	-228.9595	1	287.3639	-52.82164	5.414156E-006	-0.0005118	9
	23	63	1516.544	179.8582	-278.3671	1	331.417	-57.13274	6.735681E-006	-0.0005532	9
	24	66	1193.986	188.3099	-345.7995	1	393.7485	-61.42889	1.990153E-005	-0.0007716	9
	25	68	946.5144	198.8228	-424.9727	1	469.1826	-64.92754	7.66781E-006	-0.0013485	8
	26	70	751.7689	210.7561	-525.493	1	566.1812	-68.14608	3.47276E-006	0.0010219	8
	27	73	597.4265	226.3443	-648.6772	1	687.0327	-70.76448	-6.265058E-006	0.0031138	8
	28	75	477.4305	245.0856	-796.8466	1	833.6855	-72.9037	2.380935E-007	0.0006518	8
	29	77	376.6741	269.3289	-990.838	1	1026.79	-74.79331	2.481634E-007	0.0006401	8
	30	80	298.2954	298.7331	-1228.068	1	1263.88	-76.32809	2.472353E-007	0.0006376	8
	31	82	237.7717	333.8656	-1513.187	1	1549.581	-77.55775	2.220969E-007	0.0006474	8
	32	84	189.0121	377.4585	-1869.646	1	1907.367	-78.58611	2.448445E-007	0.0006453	8
	33	87	150.2404	431.1372	-2310.417	1	2350.299	-79.42985	2.335786E-007	0.000646	8
	34	89	119.1737	498.5206	-2860.986	1	2904.094	-80.11557	2.284294E-007	0.0006471	8
	35	92	95.0169	579.1411	-3527.522	1	3574.747	-80.67648	2.468254E-007	0.0006386	8
	36	94	75.60484	682.1944	-4366.699	1	4419.667	-81.12065	1.297903E-008	0.0006686	7
	37	97	54.50582	870.4386	-5907.033	1	5970.821	-81.61743	1.751987E-008	0.0006146	7
	38	99	45.95588	994.734	-6919.954	1	6991.084	-81.81984	2.328075E-008	0.000623	7
	39	102	37.20238	1180.839	-8415.403	1	8497.847	-82.01248	2.1652E-008	0.0006236	7
	40	104	30.04808	1407.305	-10244.48	1	10340.69	-82.17812	1.819003E-008	0.0006179	7
	41	106	23.91582	1717.029	-12658.13	1	12774.05	-82.27518	1.513924E-008	0.0006231	7
	42	109	18.60119	2128.114	-15962.44	1	16103.68	-82.40611	1.688929E-008	0.0006315	7
	43	111	15.02404	2580.289	-19431.28	1	19601.85	-82.43592	2.416689E-008	0.0006191	7
	44	113	12.01923	3164.011	-23863.84	1	24072.68	-82.44743	2.158866E-008	0.0006216	7
	45	116	9.450605	3937.936	-29770.26	1	30029.58	-82.46481	2.233504E-008	0.0006123	7
	46	118	7.512019	4870.996	-36804.12	1	37125.06	-82.46077	2.308507E-008	0.0006475	7
	47	121	5.978954	6075.51	-45429.02	1	45833.48	-82.38267	3.348377E-009	0.0006658	6
	48	124	4.734848	7607.636	-56338.78	1	56850.11	-82.30965	3.199097E-009	0.000681	6
	49	127	3.75601	9496.036	-69743.94	1	70387.44	-82.24653	3.058349E-009	0.0006484	6
	50	133	3.004808	11849.84	-85615.77	1	86431.93	-82.11991	2.799476E-009	0.0006888	6
	51	139	2.372217	15025.11	-106383	1	107438.8	-81.96095	1.994504E-009	0.0007764	6
	52	144	1.878005	19299.4	-131736.1	1	133142.3	-81.66544	2.443177E-009	0.0006404	6
	53	148	1.512097	24389.46	-160441.1	1	162284.3	-81.35635	2.555846E-009	0.0007637	6
	54	154	1.201923	31046.16	-197704.8	1	200127.6	-81.07556	2.538855E-009	0.0006333	6
	55	160	0.956633	39498.45	-242945	1	246135	-80.76555	1.900151E-009	2.254299E-005	6
