EXPLAIN
TAG	EISPOT
TITLE	LABEL	Potentiostatic EIS	Test Identifier
DATE	LABEL	9/15/2020	Date
TIME	LABEL	3:44:04	Time
NOTES	NOTES	1	Notes...
	
PSTAT	PSTAT	REF3000-16137	Potentiostat
VDC	POTEN	0.00000E+000	T	DC Voltage (V)
FREQINIT	QUANT	3.00000E+005	Initial Freq. (Hz)
FREQFINAL	QUANT	1.00000E+000	Final Freq. (Hz)
PTSPERDEC	QUANT	1.00000E+001	Points/decade
VAC	QUANT	5.00000E+001	AC Voltage (mV rms)
AREA	QUANT	1.00000E+000	Sample Area (cm^2)
SPEED	SELECTOR	2	Optimize for:
ZGUESS	QUANT	1.00000E+003	Estimated Z (ohms)
EOC	QUANT	0	Open Circuit (V)
SEQUENCER	TOGGLE	TRUE	Run as Sequence
PSTATMODEL	IQUANT	5	Pstat Model
PSTATSECTION	LABEL	REF3000-16137	Pstat Section
PSTATSERIALNO	LABEL	16137	Pstat Serial Number
CTRLMODE	IQUANT	1	Control Mode
IESTAB	IQUANT	0	I/E Stability
CASPEED	IQUANT	1	Control Amp Speed
CONVENTION	IQUANT	1	Current Convention
ICHRANGE	IQUANT	2	Ich Range
ICHRANGEMODE	TOGGLE	F	Ich Auto Range
ICHOFFSETENABLE	TOGGLE	T	Ich Offset Enable
ICHOFFSET	QUANT	0	Ich Offset (V)
ICHFILTER	IQUANT	3	Ich Filter
VCHRANGE	IQUANT	2	Vch Range
VCHRANGEMODE	TOGGLE	F	Vch Auto Range
VCHOFFSETENABLE	TOGGLE	T	Vch Offset Enable
VCHOFFSET	QUANT	0	Vch Offset (V)
VCHFILTER	IQUANT	3	Vch Filter
ACHRANGE	IQUANT	2	Ach Range
ACHOFFSETENABLE	TOGGLE	F	Ach Offset Enable
ACHOFFSET	QUANT	0	Ach Offset (V)
ACHFILTER	IQUANT	3	Ach Filter
IERANGELOWERLIMIT	IQUANT	2	I/E Range Lower Limit
IERANGEMODE	TOGGLE	F	I/E AutoRange
IERANGE	IQUANT	11	I/E Range
POSFEEDENABLE	TOGGLE	F	Positive Feedback IR Comp
POSFEEDRESISTANCE	QUANT	0	Positive Feedback Resistance (ohm)
ACHSELECT	IQUANT	0	Ach Select
CABLEID	IQUANT	13	Cable ID
DCCALDATE	LABEL	7/31/2020	DC Calibration Date
ACCALDATE	LABEL	7/31/2020	AC Calibration Date
THERMOSELECT	IQUANT	1	Thermo Select
FRAMEWORKVERSION	QUANT	6.33	Framework Version
INSTRUMENTVERSION	LABEL	3.50	Instrument Version
COMPLIANCEVOLTAGE	IQUANT	0	Compliance Voltage
ZCURVE	TABLE
	Pt	Time	Freq	Zreal	Zimag	Zsig	Zmod	Zphz	Idc	Vdc	IERange
	#	s	Hz	ohm	ohm	V	ohm	°	A	V	#
	0	17	300046.9	256.3337	-18.13629	1	256.9745	-4.047085	-3.658392E-005	-0.0008904	9
	1	21	238359.4	257.8161	-23.00658	1	258.8406	-5.09936	-2.788832E-005	0.0002901	10
	2	27	189328.1	259.6024	-19.93264	1	260.3665	-4.390637	2.739481E-005	0.0007035	9
	3	31	150421.9	262.1505	-20.93938	1	262.9855	-4.566829	7.348593E-005	-0.0029095	9
	4	39	119484.4	264.6962	-24.01586	1	265.7835	-5.184246	-5.855418E-006	-0.0014062	9
	5	43	94921.88	267.0346	-25.80497	1	268.2785	-5.519657	-2.037564E-005	0.0009439	9
	6	46	75421.88	270.0832	-28.9036	1	271.6254	-6.108396	-2.15995E-005	0.0010094	9
	7	50	59859.37	273.6626	-32.40703	1	275.5747	-6.753496	-1.283642E-005	0.000992	9
	8	54	47578.12	277.0558	-36.5628	1	279.458	-7.517828	-4.030827E-006	0.000748	9
	9	56	37828.12	281.5552	-41.28592	1	284.5661	-8.34213	-8.86428E-006	0.0009254	9
	10	60	30046.88	286.3483	-46.474	1	290.0951	-9.218659	2.20025E-005	-0.0008407	9
	11	63	23859.38	291.3678	-52.41248	1	296.0444	-10.19755	-3.222682E-006	0.0006833	9
	12	65	18984.38	296.9459	-59.16848	1	302.7834	-11.26898	1.854781E-005	-2.509528E-005	9
	13	67	15046.87	302.2642	-66.67687	1	309.531	-12.43973	2.705744E-005	-0.0006014	9
	14	70	11953.13	308.3293	-75.54451	1	317.4491	-13.76697	-2.416798E-005	0.000842	9
	15	72	9515.62	314.8388	-86.5227	1	326.5113	-15.36644	2.729321E-005	-0.0004896	9
	16	74	7546.875	321.1354	-100.4945	1	336.4923	-17.37673	-2.233648E-005	0.0009819	9
	17	77	5928.309	327.1657	-117.458	1	347.6115	-19.749	2.561269E-005	-0.0007674	9
	18	79	4733.456	333.3393	-138.0745	1	360.8041	-22.50012	2.688453E-005	-0.0004652	9
	19	82	3796.875	339.3419	-162.9638	1	376.444	-25.65194	1.177105E-005	0.0002698	9
	20	84	2987.132	343.6377	-195.5509	1	395.3821	-29.64253	-6.464126E-006	0.0047584	8
	21	86	2390.625	351.6405	-236.2673	1	423.6429	-33.89716	-3.067007E-006	0.0042265	8
	22	89	1884.191	358.1078	-291.9466	1	462.0325	-39.18856	-1.132825E-005	0.0034634	8
	23	91	1516.544	368.8042	-350.1601	1	508.5555	-43.51455	1.04605E-005	-0.0036037	8
	24	93	1193.986	379.3085	-432.2326	1	575.0652	-48.73122	5.207051E-006	0.0014909	8
	25	96	946.5144	391.9074	-533.1942	1	661.7307	-53.68344	-1.089823E-005	0.0032749	8
	26	98	751.7689	406.7367	-660.5695	1	775.7492	-58.37788	5.741111E-006	0.0013929	8
	27	100	597.4265	427.8816	-811.001	1	916.9543	-62.18401	-6.336427E-006	0.00478	8
	28	103	477.4305	450.6313	-995.174	1	1092.446	-65.63818	3.297359E-008	0.000639	8
	29	105	376.6741	480.5891	-1237.41	1	1327.46	-68.77467	1.075226E-008	0.0006349	8
	30	107	298.2954	516.8573	-1533.912	1	1618.65	-71.37856	1.183727E-008	0.0006418	8
	31	110	237.7717	560.3951	-1890.473	1	1971.784	-73.48854	1.065043E-009	0.0006442	8
	32	112	189.0121	614.781	-2336.566	1	2416.092	-75.25884	2.145369E-008	0.0006402	8
	33	115	150.2404	682.2216	-2888.516	1	2967.987	-76.71117	1.90168E-008	0.0006355	8
	34	117	119.1737	766.7119	-3577.979	1	3659.205	-77.90521	3.131684E-008	0.0006423	8
	35	120	95.0169	871.3276	-4419.223	1	4504.302	-78.84619	-9.929757E-009	0.0006207	7
	36	122	75.60484	998.434	-5457.945	1	5548.516	-79.63338	-9.015067E-009	0.0006142	7
	37	125	54.50582	1235.887	-7383.61	1	7486.329	-80.49778	-1.091467E-008	0.0006248	7
	38	127	45.95588	1387.827	-8645.087	1	8755.774	-80.87991	-6.330489E-009	0.0006349	7
	39	129	37.20238	1616.489	-10504.56	1	10628.21	-81.25169	-5.70827E-009	0.0006056	7
	40	132	30.04808	1899.743	-12804.66	1	12944.82	-81.56097	-5.718971E-009	0.0006176	7
	41	134	23.91582	2264.105	-15809.29	1	15970.59	-81.84988	-8.91481E-009	0.0006176	7
	42	137	18.60119	2788.474	-19924.4	1	20118.58	-82.03304	-9.275761E-009	0.0006157	7
	43	139	15.02404	3320.416	-24288.31	1	24514.22	-82.21544	-5.23135E-009	0.0006277	7
	44	141	12.01923	4025.125	-29852.46	1	30122.6	-82.3209	-9.404152E-009	0.0006168	7
	45	144	9.450605	4961.453	-37246.59	1	37575.58	-82.41255	-8.81572E-009	0.0006743	7
	46	146	7.512019	6102.992	-46074.84	1	46477.28	-82.45463	-5.861202E-010	0.0006727	6
	47	149	5.978954	7482.033	-56828.86	1	57319.29	-82.49963	-8.267373E-010	0.000669	6
	48	152	4.734848	9247.78	-70502.55	1	71106.48	-82.52721	2.825894E-010	0.0006569	6
	49	155	3.75601	11407.63	-87227.33	1	87970.11	-82.54912	-7.165484E-010	0.0006485	6
	50	161	3.004808	13947.85	-107077.8	1	107982.4	-82.57849	-2.852376E-010	0.0006353	6
	51	167	2.372217	17376.83	-132984.6	1	134115.1	-82.55546	-4.877131E-010	0.0006488	6
	52	171	1.878005	21816.78	-165325.9	1	166759.2	-82.48256	-1.053421E-009	0.0006656	6
	53	176	1.512097	26921.59	-201924.1	1	203710.9	-82.40581	-8.795092E-010	0.0005544	6
	54	181	1.201923	33788.84	-249720.7	1	251996.3	-82.2943	-9.563899E-010	0.0006835	6
	55	188	0.956633	42443.11	-308117.4	1	311027	-82.15688	-1.037031E-009	2.637701E-005	6
