EXPLAIN
TAG	EISPOT
TITLE	LABEL	Potentiostatic EIS	Test Identifier
DATE	LABEL	9/15/2020	Date
TIME	LABEL	7:13:04	Time
NOTES	NOTES	1	Notes...
	
PSTAT	PSTAT	REF3000-16137	Potentiostat
VDC	POTEN	0.00000E+000	T	DC Voltage (V)
FREQINIT	QUANT	3.00000E+005	Initial Freq. (Hz)
FREQFINAL	QUANT	1.00000E+000	Final Freq. (Hz)
PTSPERDEC	QUANT	1.00000E+001	Points/decade
VAC	QUANT	5.00000E+001	AC Voltage (mV rms)
AREA	QUANT	1.00000E+000	Sample Area (cm^2)
SPEED	SELECTOR	2	Optimize for:
ZGUESS	QUANT	1.00000E+003	Estimated Z (ohms)
EOC	QUANT	0	Open Circuit (V)
SEQUENCER	TOGGLE	TRUE	Run as Sequence
PSTATMODEL	IQUANT	5	Pstat Model
PSTATSECTION	LABEL	REF3000-16137	Pstat Section
PSTATSERIALNO	LABEL	16137	Pstat Serial Number
CTRLMODE	IQUANT	1	Control Mode
IESTAB	IQUANT	0	I/E Stability
CASPEED	IQUANT	1	Control Amp Speed
CONVENTION	IQUANT	1	Current Convention
ICHRANGE	IQUANT	2	Ich Range
ICHRANGEMODE	TOGGLE	F	Ich Auto Range
ICHOFFSETENABLE	TOGGLE	T	Ich Offset Enable
ICHOFFSET	QUANT	0	Ich Offset (V)
ICHFILTER	IQUANT	3	Ich Filter
VCHRANGE	IQUANT	2	Vch Range
VCHRANGEMODE	TOGGLE	F	Vch Auto Range
VCHOFFSETENABLE	TOGGLE	T	Vch Offset Enable
VCHOFFSET	QUANT	0	Vch Offset (V)
VCHFILTER	IQUANT	3	Vch Filter
ACHRANGE	IQUANT	2	Ach Range
ACHOFFSETENABLE	TOGGLE	F	Ach Offset Enable
ACHOFFSET	QUANT	0	Ach Offset (V)
ACHFILTER	IQUANT	3	Ach Filter
IERANGELOWERLIMIT	IQUANT	2	I/E Range Lower Limit
IERANGEMODE	TOGGLE	F	I/E AutoRange
IERANGE	IQUANT	11	I/E Range
POSFEEDENABLE	TOGGLE	F	Positive Feedback IR Comp
POSFEEDRESISTANCE	QUANT	0	Positive Feedback Resistance (ohm)
ACHSELECT	IQUANT	0	Ach Select
CABLEID	IQUANT	13	Cable ID
DCCALDATE	LABEL	7/31/2020	DC Calibration Date
ACCALDATE	LABEL	7/31/2020	AC Calibration Date
THERMOSELECT	IQUANT	1	Thermo Select
FRAMEWORKVERSION	QUANT	6.33	Framework Version
INSTRUMENTVERSION	LABEL	3.50	Instrument Version
COMPLIANCEVOLTAGE	IQUANT	0	Compliance Voltage
ZCURVE	TABLE
	Pt	Time	Freq	Zreal	Zimag	Zsig	Zmod	Zphz	Idc	Vdc	IERange
	#	s	Hz	ohm	ohm	V	ohm	°	A	V	#
	0	14	300046.9	-68.89351	-4887.6	1	4888.085	-90.80756	-1.71562E-005	0.0016488	9
	1	28	238359.4	24.38141	-6030.1	1	6030.149	-89.76834	-2.074554E-005	0.0011268	9
	2	42	189328.1	61.57981	-7583.463	1	7583.713	-89.53475	-9.103773E-005	0.0022227	9
	3	51	150421.9	-203.4474	-8922.131	1	8924.45	-91.30627	-2.742523E-005	-0.0010634	9
	4	63	119484.4	97.0984	-11922.6	1	11922.99	-89.53339	1.970383E-005	-0.0008253	9
	5	71	94921.88	841.5236	-14751.59	1	14775.58	-86.73503	-2.638814E-005	0.0075597	8
	6	80	75421.88	1176.343	-18538.29	1	18575.58	-86.36918	-9.506662E-006	-0.0021739	8
	7	88	59859.37	1189.584	-23239.49	1	23269.92	-87.0697	2.286118E-005	-0.0026491	8
	8	97	47578.12	4796.4	-30078.02	1	30458.05	-80.9396	-1.147447E-006	-0.0135853	7
	9	104	37828.12	2144.496	-36897.29	1	36959.55	-86.67368	-1.564723E-005	0.0005969	8
	10	113	30046.88	5726.394	-46697.37	1	47047.17	-83.00885	-7.219128E-006	0.023439	7
	11	121	23859.38	7277.847	-58416.95	1	58868.55	-82.89842	1.349295E-006	-0.0201569	7
	12	126	18984.38	8350.836	-72423.03	1	72902.89	-83.42248	-7.43977E-006	0.018993	7
	13	131	15046.87	10204.88	-87433.91	1	88027.43	-83.34282	-2.346893E-006	0.0077485	8
	14	139	11953.13	17157.6	-113186.8	1	114479.8	-81.38035	4.849704E-006	-0.000377	7
	15	145	9515.62	19722.97	-141941.8	1	143305.6	-82.08934	3.647198E-007	0.0166123	7
	16	152	7546.875	30724.82	-181153.4	1	183740.5	-80.37386	4.928136E-006	-0.0005137	7
	17	157	5928.309	42566.19	-221178.4	1	225237.1	-79.10651	-7.256818E-006	0.023447	7
	18	162	4733.456	22897.49	-281429.2	1	282359.1	-85.34858	3.497554E-006	-0.02464	7
	19	168	3796.875	26563.83	-257578	1	258944.2	-84.11195	2.521523E-005	-0.004892	8
	20	175	2987.132	82556.67	-214594.8	1	229927.2	-68.95779	-2.367473E-005	0.0051568	8
	21	183	2390.625	-145975.7	-181656.2	1	233040.5	-128.7847	-2.722828E-005	0.00978	8
	22	192	1884.191	312253.8	-589072.6	1	666715.1	-62.07297	-5.332943E-006	0.0034062	7
	23	198	1516.544	287063.7	-506717	1	582381.1	-60.46772	-5.344767E-006	0.0034507	7
	24	205	1193.986	842700.1	-465750.7	1	962843	-28.92892	-5.341704E-006	0.0034024	7
	25	211	946.5144	375610.1	-325555.7	1	497060.8	-40.91673	-7.407869E-006	0.0238543	7
	26	216	751.7689	-79952.18	-639813.8	1	644789.9	-97.1228	-1.190464E-005	0.0101648	8
	27	222	597.4265	758149.9	-159917	1	774832.1	-11.91083	-3.198609E-006	-0.0058926	7
	28	227	477.4305	1162923	-636615.6	1	1325771	-28.6975	-7.975095E-008	0.0006073	7
	29	232	376.6741	1388088	-431140.8	1	1453503	-17.25482	-9.545584E-010	0.0006513	5
	30	235	298.2954	1438517	-364865.4	1	1484068	-14.23236	-9.492146E-010	0.0006758	5
	31	237	237.7717	1474646	-308943.4	1	1506661	-11.83252	-9.782445E-010	0.0006833	5
	32	240	189.0121	1505106	-273921.1	1	1529829	-10.31463	-8.882867E-010	0.0006045	5
	33	243	150.2404	1531773	-249782.3	1	1552005	-9.26156	-9.834092E-010	0.0006343	5
	34	246	119.1737	1603684	-255546.5	1	1623917	-9.053943	-9.7741E-010	0.000685	5
	35	248	95.0169	1566965	-199599.4	1	1579626	-7.259223	-9.658273E-010	0.0006544	5
	36	251	75.60484	1589482	-174547.4	1	1599038	-6.266769	-8.848034E-010	0.0006763	5
	37	254	54.50582	1620403	-192378.9	1	1631783	-6.770628	-1.034712E-009	0.0006859	5
	38	257	45.95588	1622190	-180035.6	1	1632150	-6.332942	-1.039912E-009	0.0006814	5
	39	260	37.20238	1655523	-191750.7	1	1666590	-6.606838	-9.989255E-010	0.0006087	5
	40	263	30.04808	1674852	-191255.9	1	1685737	-6.51454	-1.060125E-009	0.000689	5
	41	265	23.91582	1690071	-206462.6	1	1702635	-6.964863	-9.148205E-010	0.00067	5
	42	268	18.60119	1729473	-237162.8	1	1745658	-7.808275	-5.542091E-010	0.0006209	5
	43	270	15.02404	1754258	-249741.6	1	1771945	-8.102363	-5.991469E-010	0.0006804	5
	44	273	12.01923	1785961	-272651.8	1	1806653	-8.679982	-4.81116E-010	0.0005973	5
	45	275	9.450605	1822848	-310361.1	1	1849081	-9.66261	-1.162044E-009	0.0006217	5
	46	278	7.512019	1864399	-345243.5	1	1896095	-10.49101	-7.824151E-010	0.0005845	5
	47	281	5.978954	1913030	-388054.5	1	1951991	-11.46675	-7.605062E-010	0.0006764	5
	48	286	4.734848	1965683	-436713.9	1	2013611	-12.5259	-1.219739E-009	0.0005703	5
	49	289	3.75601	2019691	-490369	1	2078368	-13.64701	-1.137338E-009	0.0006635	5
	50	295	3.004808	2077875	-549443.9	1	2149292	-14.81148	-1.02733E-009	0.0006961	5
	51	301	2.372217	2134050	-631362	1	2225486	-16.48093	-1.096811E-009	0.0007068	5
	52	305	1.878005	2192211	-732356.6	1	2311306	-18.47304	-1.215386E-009	0.000624	5
	53	310	1.512097	2245824	-844602.4	1	2399391	-20.61012	-1.145187E-009	0.0006313	5
	54	316	1.201923	2297799	-996393	1	2504531	-23.44296	-1.009815E-009	0.0006134	5
	55	322	0.956633	2364480	-1188196	1	2646238	-26.68039	-1.096013E-009	3.520199E-008	5
