EXPLAIN
TAG	EISPOT
TITLE	LABEL	Potentiostatic EIS	Test Identifier
DATE	LABEL	9/15/2020	Date
TIME	LABEL	3:13:58	Time
NOTES	NOTES	1	Notes...
	
PSTAT	PSTAT	REF3000-16137	Potentiostat
VDC	POTEN	0.00000E+000	T	DC Voltage (V)
FREQINIT	QUANT	3.00000E+005	Initial Freq. (Hz)
FREQFINAL	QUANT	1.00000E+000	Final Freq. (Hz)
PTSPERDEC	QUANT	1.00000E+001	Points/decade
VAC	QUANT	5.00000E+001	AC Voltage (mV rms)
AREA	QUANT	1.00000E+000	Sample Area (cm^2)
SPEED	SELECTOR	2	Optimize for:
ZGUESS	QUANT	1.00000E+003	Estimated Z (ohms)
EOC	QUANT	0	Open Circuit (V)
SEQUENCER	TOGGLE	TRUE	Run as Sequence
PSTATMODEL	IQUANT	5	Pstat Model
PSTATSECTION	LABEL	REF3000-16137	Pstat Section
PSTATSERIALNO	LABEL	16137	Pstat Serial Number
CTRLMODE	IQUANT	1	Control Mode
IESTAB	IQUANT	0	I/E Stability
CASPEED	IQUANT	1	Control Amp Speed
CONVENTION	IQUANT	1	Current Convention
ICHRANGE	IQUANT	2	Ich Range
ICHRANGEMODE	TOGGLE	F	Ich Auto Range
ICHOFFSETENABLE	TOGGLE	T	Ich Offset Enable
ICHOFFSET	QUANT	0	Ich Offset (V)
ICHFILTER	IQUANT	3	Ich Filter
VCHRANGE	IQUANT	2	Vch Range
VCHRANGEMODE	TOGGLE	F	Vch Auto Range
VCHOFFSETENABLE	TOGGLE	T	Vch Offset Enable
VCHOFFSET	QUANT	0	Vch Offset (V)
VCHFILTER	IQUANT	3	Vch Filter
ACHRANGE	IQUANT	2	Ach Range
ACHOFFSETENABLE	TOGGLE	F	Ach Offset Enable
ACHOFFSET	QUANT	0	Ach Offset (V)
ACHFILTER	IQUANT	3	Ach Filter
IERANGELOWERLIMIT	IQUANT	2	I/E Range Lower Limit
IERANGEMODE	TOGGLE	F	I/E AutoRange
IERANGE	IQUANT	11	I/E Range
POSFEEDENABLE	TOGGLE	F	Positive Feedback IR Comp
POSFEEDRESISTANCE	QUANT	0	Positive Feedback Resistance (ohm)
ACHSELECT	IQUANT	0	Ach Select
CABLEID	IQUANT	13	Cable ID
DCCALDATE	LABEL	7/31/2020	DC Calibration Date
ACCALDATE	LABEL	7/31/2020	AC Calibration Date
THERMOSELECT	IQUANT	1	Thermo Select
FRAMEWORKVERSION	QUANT	6.33	Framework Version
INSTRUMENTVERSION	LABEL	3.50	Instrument Version
COMPLIANCEVOLTAGE	IQUANT	0	Compliance Voltage
ZCURVE	TABLE
	Pt	Time	Freq	Zreal	Zimag	Zsig	Zmod	Zphz	Idc	Vdc	IERange
	#	s	Hz	ohm	ohm	V	ohm	°	A	V	#
	0	7	300046.9	166.7802	-9.50633	1	167.0509	-3.26228	-7.277917E-006	0.0011716	9
	1	11	238359.4	167.8801	-11.08679	1	168.2458	-3.778322	1.547937E-005	-0.0010901	9
	2	14	189328.1	169.4928	-12.57063	1	169.9583	-4.241644	-7.946711E-005	0.0019559	9
	3	16	150421.9	171.0283	-14.9668	1	171.6819	-5.00125	1.711099E-005	-0.0014773	9
	4	19	119484.4	172.4665	-16.57948	1	173.2616	-5.491064	-6.221655E-006	-0.0013105	9
	5	21	94921.88	174.6374	-18.60045	1	175.6252	-6.079594	2.565362E-005	-0.0006852	9
	6	24	75421.88	176.7538	-21.391	1	178.0434	-6.900462	2.291068E-005	-0.0003025	9
	7	26	59859.37	179.3343	-24.31747	1	180.9755	-7.722124	-1.438637E-005	0.0008766	9
	8	29	47578.12	182.1744	-27.71418	1	184.2705	-8.650076	1.719392E-006	0.0005203	9
	9	32	37828.12	185.3383	-31.29428	1	187.9617	-9.58397	2.384658E-005	-0.0002376	9
	10	34	30046.88	188.7531	-35.49119	1	192.0608	-10.64897	2.794003E-005	-0.0005908	9
	11	37	23859.38	192.2592	-40.19527	1	196.416	-11.80863	-1.830679E-005	0.0003749	9
	12	39	18984.38	196.006	-45.57936	1	201.2357	-13.09094	1.778074E-005	-0.0007485	9
	13	41	15046.87	199.7866	-51.82649	1	206.3993	-14.54251	2.452957E-005	-0.0007472	9
	14	44	11953.13	203.8169	-59.52448	1	212.3311	-16.28038	2.161988E-005	-0.0008264	9
	15	46	9515.62	207.4666	-69.47068	1	218.7889	-18.51324	-9.387285E-006	-7.424305E-005	9
	16	48	7546.875	211.4706	-81.82698	1	226.7498	-21.15357	1.028073E-005	0.000251	9
	17	50	5928.309	215.5918	-97.7354	1	236.7108	-24.38647	2.505093E-005	-0.0004562	9
	18	53	4733.456	219.1926	-116.6732	1	248.3104	-28.02577	-1.519134E-005	0.0001396	9
	19	56	3796.875	223.0514	-139.5447	1	263.1057	-32.03079	-2.243739E-005	0.0008095	9
	20	60	2987.132	228.518	-171.2604	1	285.5706	-36.84934	1.109761E-005	0.0002704	9
	21	63	2390.625	234.0825	-207.419	1	312.7575	-41.54394	2.617326E-005	-0.0005174	9
	22	66	1884.191	241.0599	-255.0805	1	350.9644	-46.61871	2.324397E-005	-0.0002552	9
	23	68	1516.544	248.1335	-310.6231	1	397.5637	-51.38127	2.437171E-005	-0.0007264	9
	24	71	1193.986	257.0571	-383.3121	1	461.5263	-56.15337	1.553203E-006	-0.0016983	8
	25	73	946.5144	269.557	-474.8222	1	546.001	-60.41639	4.251551E-006	-0.002363	8
	26	76	751.7689	281.6863	-585.5258	1	649.7597	-64.3086	8.117187E-006	-0.0025894	8
	27	78	597.4265	300.321	-722.0621	1	782.0272	-67.41653	8.485492E-006	-0.0026095	8
	28	80	477.4305	320.5525	-887.8663	1	943.96	-70.14855	1.284243E-007	0.0006436	8
	29	82	376.6741	347.5026	-1104.204	1	1157.594	-72.53075	1.048423E-007	0.0006464	8
	30	85	298.2954	380.2396	-1368.857	1	1420.687	-74.47582	1.310465E-007	0.0006426	8
	31	87	237.7717	419.5023	-1686.827	1	1738.208	-76.03425	1.330303E-007	0.0006336	8
	32	90	189.0121	468.4447	-2084.485	1	2136.474	-77.33439	1.080386E-007	0.0006595	8
	33	92	150.2404	528.7379	-2575.811	1	2629.518	-78.4	1.311324E-007	0.0006436	8
	34	94	119.1737	603.8455	-3190.371	1	3247.014	-79.28234	1.263697E-007	0.0006488	8
	35	97	95.0169	694.5045	-3931.678	1	3992.547	-79.98242	1.119137E-007	0.0006487	8
	36	99	75.60484	809.8267	-4865.793	1	4932.724	-80.55073	5.140417E-009	0.0006072	7
	37	102	54.50582	1019.883	-6581.097	1	6659.655	-81.19086	3.390519E-009	0.0006216	7
	38	104	45.95588	1156.715	-7708.027	1	7794.335	-81.46552	9.498194E-009	0.0006139	7
	39	107	37.20238	1360.89	-9371.707	1	9470.001	-81.73768	7.818523E-009	0.0006059	7
	40	109	30.04808	1612.322	-11417.32	1	11530.6	-81.96201	3.696723E-009	0.000621	7
	41	112	23.91582	1939.774	-14089.46	1	14222.36	-82.16106	5.356033E-009	0.000618	7
	42	114	18.60119	2405.199	-17781.77	1	17943.7	-82.29681	8.662435E-009	0.0006125	7
	43	116	15.02404	2890.665	-21653.96	1	21846.04	-82.39633	8.810844E-009	0.0006317	7
	44	118	12.01923	3526.517	-26604.09	1	26836.8	-82.44915	4.866681E-009	0.000615	7
	45	121	9.450605	4384.898	-33231.3	1	33519.34	-82.4832	5.768023E-009	0.0006039	7
	46	123	7.512019	5412.089	-41051.61	1	41406.83	-82.48965	6.839425E-009	0.0006347	7
	47	126	5.978954	6680.238	-50649.69	1	51088.32	-82.48656	1.253205E-009	0.0007098	6
	48	129	4.734848	8300.286	-62829.77	1	63375.66	-82.47437	1.171667E-009	0.0006617	6
	49	132	3.75601	10271.81	-77775.89	1	78451.26	-82.47652	1.599867E-009	0.0006623	6
	50	138	3.004808	12683.49	-95505.6	1	96344.1	-82.43518	8.382906E-010	0.0007095	6
	51	144	2.372217	15974.94	-118576.8	1	119648	-82.32718	5.335662E-010	0.0006756	6
	52	149	1.878005	20324.92	-147348.8	1	148743.9	-82.14632	1.153979E-009	0.0006502	6
	53	153	1.512097	25174.38	-179721.1	1	181475.7	-82.02619	7.224471E-010	0.0007571	6
	54	159	1.201923	32251.37	-221897.6	1	224229.1	-81.73034	1.09788E-009	0.0006576	6
	55	165	0.956633	40915.62	-272917.7	1	275967.7	-81.47376	4.587816E-010	1.930747E-005	6
