EXPLAIN
TAG	EISPOT
TITLE	LABEL	Potentiostatic EIS	Test Identifier
DATE	LABEL	9/15/2020	Date
TIME	LABEL	4:03:28	Time
NOTES	NOTES	1	Notes...
	
PSTAT	PSTAT	REF3000-16137	Potentiostat
VDC	POTEN	0.00000E+000	T	DC Voltage (V)
FREQINIT	QUANT	3.00000E+005	Initial Freq. (Hz)
FREQFINAL	QUANT	1.00000E+000	Final Freq. (Hz)
PTSPERDEC	QUANT	1.00000E+001	Points/decade
VAC	QUANT	5.00000E+001	AC Voltage (mV rms)
AREA	QUANT	1.00000E+000	Sample Area (cm^2)
SPEED	SELECTOR	2	Optimize for:
ZGUESS	QUANT	1.00000E+003	Estimated Z (ohms)
EOC	QUANT	0	Open Circuit (V)
SEQUENCER	TOGGLE	TRUE	Run as Sequence
PSTATMODEL	IQUANT	5	Pstat Model
PSTATSECTION	LABEL	REF3000-16137	Pstat Section
PSTATSERIALNO	LABEL	16137	Pstat Serial Number
CTRLMODE	IQUANT	1	Control Mode
IESTAB	IQUANT	0	I/E Stability
CASPEED	IQUANT	1	Control Amp Speed
CONVENTION	IQUANT	1	Current Convention
ICHRANGE	IQUANT	2	Ich Range
ICHRANGEMODE	TOGGLE	F	Ich Auto Range
ICHOFFSETENABLE	TOGGLE	T	Ich Offset Enable
ICHOFFSET	QUANT	0	Ich Offset (V)
ICHFILTER	IQUANT	3	Ich Filter
VCHRANGE	IQUANT	2	Vch Range
VCHRANGEMODE	TOGGLE	F	Vch Auto Range
VCHOFFSETENABLE	TOGGLE	T	Vch Offset Enable
VCHOFFSET	QUANT	0	Vch Offset (V)
VCHFILTER	IQUANT	3	Vch Filter
ACHRANGE	IQUANT	2	Ach Range
ACHOFFSETENABLE	TOGGLE	F	Ach Offset Enable
ACHOFFSET	QUANT	0	Ach Offset (V)
ACHFILTER	IQUANT	3	Ach Filter
IERANGELOWERLIMIT	IQUANT	2	I/E Range Lower Limit
IERANGEMODE	TOGGLE	F	I/E AutoRange
IERANGE	IQUANT	11	I/E Range
POSFEEDENABLE	TOGGLE	F	Positive Feedback IR Comp
POSFEEDRESISTANCE	QUANT	0	Positive Feedback Resistance (ohm)
ACHSELECT	IQUANT	0	Ach Select
CABLEID	IQUANT	13	Cable ID
DCCALDATE	LABEL	7/31/2020	DC Calibration Date
ACCALDATE	LABEL	7/31/2020	AC Calibration Date
THERMOSELECT	IQUANT	1	Thermo Select
FRAMEWORKVERSION	QUANT	6.33	Framework Version
INSTRUMENTVERSION	LABEL	3.50	Instrument Version
COMPLIANCEVOLTAGE	IQUANT	0	Compliance Voltage
ZCURVE	TABLE
	Pt	Time	Freq	Zreal	Zimag	Zsig	Zmod	Zphz	Idc	Vdc	IERange
	#	s	Hz	ohm	ohm	V	ohm	°	A	V	#
	0	15	300046.9	353.9457	-31.32963	1	355.3296	-5.058372	6.703945E-006	0.0011963	9
	1	23	238359.4	356.626	-29.63908	1	357.8555	-4.750916	5.06761E-005	-0.0001467	9
	2	29	189328.1	360.0119	-30.12157	1	361.2698	-4.7827	2.402156E-005	-0.0014083	9
	3	35	150421.9	362.7984	-29.68851	1	364.0111	-4.678203	2.17531E-005	-0.0003672	9
	4	41	119484.4	365.9691	-32.28181	1	367.3902	-5.040962	8.03172E-005	-0.0023881	9
	5	49	94921.88	369.4748	-34.5199	1	371.0839	-5.33763	1.672265E-005	-0.0007835	9
	6	51	75421.88	372.2489	-37.4398	1	374.127	-5.743341	2.673861E-005	-0.0008155	9
	7	54	59859.37	376.4778	-41.01852	1	378.7057	-6.218042	-1.040179E-006	-0.0004324	9
	8	56	47578.12	380.7556	-39.93129	1	382.8438	-5.986941	-1.198112E-005	0.0027169	8
	9	59	37828.12	385.3729	-46.31047	1	388.1455	-6.852406	-8.281361E-006	0.0056813	8
	10	61	30046.88	391.166	-53.40219	1	394.7945	-7.773991	1.42507E-005	-0.0039515	8
	11	64	23859.38	397.397	-60.87968	1	402.0332	-8.709777	-1.335148E-005	0.0047093	8
	12	66	18984.38	404.8914	-69.60266	1	410.8304	-9.75407	-4.149623E-006	0.0049601	8
	13	68	15046.87	414.2221	-77.57609	1	421.4238	-10.60755	9.870807E-007	0.0041908	8
	14	71	11953.13	420.9031	-88.35244	1	430.0762	-11.85493	-8.442599E-006	0.0058001	8
	15	73	9515.62	428.7761	-101.2475	1	440.5678	-13.28597	-1.039786E-005	0.0028582	8
	16	75	7546.875	437.8967	-115.8668	1	452.9665	-14.82073	-8.531069E-006	0.0058068	8
	17	78	5928.309	446.5754	-135.7511	1	466.7526	-16.90835	-7.239688E-006	0.0001802	8
	18	80	4733.456	454.8836	-156.6811	1	481.1113	-19.00587	-2.143443E-006	-0.0016669	8
	19	82	3796.875	464.2939	-182.7901	1	498.98	-21.48931	-1.188259E-005	0.0026744	8
	20	85	2987.132	473.2117	-219.1379	1	521.489	-24.84822	-1.049851E-005	0.0016967	8
	21	87	2390.625	479.9357	-262.0522	1	546.8177	-28.63521	1.083891E-005	-0.00043	8
	22	89	1884.191	489.0798	-318.263	1	583.5156	-33.05359	1.35224E-005	-0.0019388	8
	23	92	1516.544	498.9234	-381.8982	1	628.3079	-37.43205	-1.049028E-005	0.0016678	8
	24	94	1193.986	512.9323	-470.3229	1	695.9189	-42.51864	-3.863309E-006	0.0049942	8
	25	96	946.5144	530.3151	-578.6781	1	784.9219	-47.49707	-1.199043E-005	0.0027257	8
	26	99	751.7689	544.939	-711.8711	1	896.5037	-52.56586	1.396278E-005	-0.0029138	8
	27	102	597.4265	568.982	-877.4974	1	1045.821	-57.04004	-1.256324E-005	0.0036892	8
	28	104	477.4305	591.858	-1077.162	1	1229.054	-61.21295	-5.938946E-008	0.0006519	8
	29	107	376.6741	624.2687	-1338.348	1	1476.782	-64.99343	-2.994751E-008	0.0006297	8
	30	109	298.2954	663.4514	-1658.343	1	1786.132	-68.19519	-4.39745E-008	0.0006509	8
	31	111	237.7717	710.4597	-2043.435	1	2163.418	-70.8285	-2.995408E-008	0.0006311	8
	32	114	189.0121	768.9318	-2525.223	1	2639.699	-73.06448	-3.122764E-008	0.000643	8
	33	116	150.2404	841.3844	-3121.84	1	3233.236	-74.9163	-2.866958E-008	0.0006399	8
	34	119	119.1737	931.2012	-3867.387	1	3977.916	-76.46185	-3.130802E-008	0.000651	8
	35	121	95.0169	1044.671	-4777.167	1	4890.057	-77.66474	-1.82042E-008	0.0006306	7
	36	123	75.60484	1182.12	-5901.021	1	6018.261	-78.67219	-1.922868E-008	0.0006285	7
	37	126	54.50582	1435.883	-7984.022	1	8112.112	-79.80465	-1.651156E-008	0.0005956	7
	38	128	45.95588	1605.219	-9348.19	1	9485.009	-80.25651	-1.467607E-008	0.0006238	7
	39	131	37.20238	1853.037	-11362.44	1	11512.55	-80.7375	-2.143636E-008	0.0006607	7
	40	133	30.04808	2160.146	-13844.6	1	14012.11	-81.13175	-1.446733E-008	0.0006008	7
	41	136	23.91582	2559.146	-17096.38	1	17286.85	-81.48664	-1.621351E-008	0.0005998	7
	42	138	18.60119	3109.285	-21567.58	1	21790.55	-81.79649	-1.74206E-008	0.0006406	7
	43	140	15.02404	3687.815	-26260.88	1	26518.55	-82.00623	-1.55247E-008	0.0006184	7
	44	143	12.01923	4445.427	-32263.43	1	32568.25	-82.15488	-1.81265E-008	0.0006287	7
	45	145	9.450605	5471.566	-40273.6	1	40643.58	-82.26318	-1.776409E-008	0.00063	7
	46	148	7.512019	6682.395	-49815.56	1	50261.76	-82.35979	-1.423209E-009	0.0006626	6
	47	150	5.978954	8186.638	-61454.66	1	61997.55	-82.41206	-1.431409E-009	0.0006726	6
	48	153	4.734848	10082.1	-76251.54	1	76915.19	-82.46796	-1.658508E-009	0.0006407	6
	49	157	3.75601	12431.57	-94322.2	1	95137.9	-82.49174	-1.313558E-009	0.0006738	6
	50	162	3.004808	15160.01	-115731.3	1	116720	-82.53713	-2.013237E-009	0.0006969	6
	51	169	2.372217	18989.44	-143649.6	1	144899.3	-82.46957	-2.140415E-009	0.000637	6
	52	173	1.878005	23433.33	-178564.1	1	180095.1	-82.52368	-1.516671E-009	0.0006468	6
	53	177	1.512097	28227.79	-217866.8	1	219687.8	-82.61763	-2.012815E-009	0.0007352	6
	54	183	1.201923	35460.09	-269806.7	1	272126.9	-82.51266	-1.673735E-009	0.0006603	6
	55	189	0.956633	44168.39	-333018.7	1	335935	-82.44494	-2.074896E-009	2.210238E-005	6
