EXPLAIN
TAG	EISPOT
TITLE	LABEL	Potentiostatic EIS	Test Identifier
DATE	LABEL	9/15/2020	Date
TIME	LABEL	6:23:15	Time
NOTES	NOTES	1	Notes...
	
PSTAT	PSTAT	REF3000-16137	Potentiostat
VDC	POTEN	0.00000E+000	T	DC Voltage (V)
FREQINIT	QUANT	3.00000E+005	Initial Freq. (Hz)
FREQFINAL	QUANT	1.00000E+000	Final Freq. (Hz)
PTSPERDEC	QUANT	1.00000E+001	Points/decade
VAC	QUANT	5.00000E+001	AC Voltage (mV rms)
AREA	QUANT	1.00000E+000	Sample Area (cm^2)
SPEED	SELECTOR	2	Optimize for:
ZGUESS	QUANT	1.00000E+003	Estimated Z (ohms)
EOC	QUANT	0	Open Circuit (V)
SEQUENCER	TOGGLE	TRUE	Run as Sequence
PSTATMODEL	IQUANT	5	Pstat Model
PSTATSECTION	LABEL	REF3000-16137	Pstat Section
PSTATSERIALNO	LABEL	16137	Pstat Serial Number
CTRLMODE	IQUANT	1	Control Mode
IESTAB	IQUANT	0	I/E Stability
CASPEED	IQUANT	1	Control Amp Speed
CONVENTION	IQUANT	1	Current Convention
ICHRANGE	IQUANT	2	Ich Range
ICHRANGEMODE	TOGGLE	F	Ich Auto Range
ICHOFFSETENABLE	TOGGLE	T	Ich Offset Enable
ICHOFFSET	QUANT	0	Ich Offset (V)
ICHFILTER	IQUANT	3	Ich Filter
VCHRANGE	IQUANT	2	Vch Range
VCHRANGEMODE	TOGGLE	F	Vch Auto Range
VCHOFFSETENABLE	TOGGLE	T	Vch Offset Enable
VCHOFFSET	QUANT	0	Vch Offset (V)
VCHFILTER	IQUANT	3	Vch Filter
ACHRANGE	IQUANT	2	Ach Range
ACHOFFSETENABLE	TOGGLE	F	Ach Offset Enable
ACHOFFSET	QUANT	0	Ach Offset (V)
ACHFILTER	IQUANT	3	Ach Filter
IERANGELOWERLIMIT	IQUANT	2	I/E Range Lower Limit
IERANGEMODE	TOGGLE	F	I/E AutoRange
IERANGE	IQUANT	11	I/E Range
POSFEEDENABLE	TOGGLE	F	Positive Feedback IR Comp
POSFEEDRESISTANCE	QUANT	0	Positive Feedback Resistance (ohm)
ACHSELECT	IQUANT	0	Ach Select
CABLEID	IQUANT	13	Cable ID
DCCALDATE	LABEL	7/31/2020	DC Calibration Date
ACCALDATE	LABEL	7/31/2020	AC Calibration Date
THERMOSELECT	IQUANT	1	Thermo Select
FRAMEWORKVERSION	QUANT	6.33	Framework Version
INSTRUMENTVERSION	LABEL	3.50	Instrument Version
COMPLIANCEVOLTAGE	IQUANT	0	Compliance Voltage
ZCURVE	TABLE
	Pt	Time	Freq	Zreal	Zimag	Zsig	Zmod	Zphz	Idc	Vdc	IERange
	#	s	Hz	ohm	ohm	V	ohm	°	A	V	#
	0	14	300046.9	619.4745	-4813.444	1	4853.143	-82.66653	-1.731025E-005	0.0015443	9
	1	29	238359.4	1077.465	-5819	1	5917.913	-79.50974	-6.182052E-005	0.0005279	9
	2	46	189328.1	1872.866	-7397.768	1	7631.159	-75.79314	-1.904349E-005	0.0012039	9
	3	54	150421.9	2224.881	-8491.164	1	8777.811	-75.31727	-8.972878E-005	0.0021761	9
	4	63	119484.4	3826.416	-10441.99	1	11121	-69.87489	-5.919198E-005	0.0067324	8
	5	71	94921.88	5606.496	-12336.04	1	13550.3	-65.5591	-2.583995E-005	0.007442	8
	6	79	75421.88	7680.39	-14375.4	1	16298.48	-61.8856	-2.164831E-006	0.0077563	8
	7	88	59859.37	10637.49	-16257.15	1	19428.1	-56.80222	-2.662346E-005	0.0096141	8
	8	97	47578.12	16868.69	-17145.22	1	24052.26	-45.46581	4.718645E-006	1.793263E-005	7
	9	104	37828.12	17540.6	-18853.32	1	25751.13	-47.06574	1.73371E-005	0.0002961	8
	10	113	30046.88	22229.67	-18521.46	1	28934.46	-39.80061	4.953353E-007	-0.0005322	9
	11	122	23859.38	25904.59	-18171.28	1	31642.43	-35.04849	2.248768E-005	-0.0096239	8
	12	129	18984.38	29472.85	-16597.29	1	33824.82	-29.38553	-1.97496E-005	0.0112588	8
	13	136	15046.87	31939.44	-14430.19	1	35047.94	-24.31338	-9.270192E-007	-0.0051173	8
	14	143	11953.13	35639.61	-11661.19	1	37498.87	-18.11797	6.878021E-006	-0.0265172	7
	15	148	9515.62	36882.3	-10030.56	1	38221.93	-15.21426	-3.201202E-006	-0.0056137	7
	16	154	7546.875	38274.04	-8779.308	1	39268.04	-12.91903	-6.579986E-006	0.0114239	7
	17	159	5928.309	38750.01	-7601.796	1	39488.61	-11.09907	-1.927993E-006	0.0222428	7
	18	164	4733.456	39827.84	-6583.503	1	40368.3	-9.386062	-1.925439E-006	0.0221732	7
	19	170	3796.875	40633.21	-5633.678	1	41021.9	-7.893571	7.572978E-006	-0.0237385	7
	20	175	2987.132	40908.25	-4312.057	1	41134.89	-6.017213	-5.379599E-006	0.0263734	7
	21	181	2390.625	41609.62	-4915.801	1	41898.99	-6.737749	5.428642E-006	-0.0265957	7
	22	186	1884.191	44760.52	-5327.982	1	45076.5	-6.788154	2.572908E-005	-0.0050431	8
	23	192	1516.544	44560.62	-5905.365	1	44950.22	-7.549094	2.287167E-005	-0.0027287	8
	24	199	1193.986	41856.14	-6894.912	1	42420.23	-9.354258	-2.006406E-005	0.0027642	8
	25	206	946.5144	54716.05	-11582.18	1	55928.47	-11.95182	-2.690714E-005	0.0095589	8
	26	211	751.7689	44786.81	-8552.254	1	45596.05	-10.81075	5.358814E-006	-0.0266045	7
	27	216	597.4265	40818.2	-7163.401	1	41442	-9.95378	-1.558101E-005	0.0006937	8
	28	221	477.4305	46228.85	-6591.221	1	46696.37	-8.114432	-8.112745E-008	0.000669	7
	29	225	376.6741	47281.46	-6808.834	1	47769.2	-8.194624	-9.760065E-009	0.0006936	6
	30	227	298.2954	48111.04	-7765.082	1	48733.65	-9.168426	-9.595481E-009	0.0007097	6
	31	229	237.7717	49073.6	-8772.105	1	49851.46	-10.13481	-9.711861E-009	0.0007425	6
	32	232	189.0121	50139.79	-9901.96	1	51108.2	-11.17143	-9.222776E-009	0.000696	6
	33	234	150.2404	51314.11	-11173.53	1	52516.52	-12.28427	-8.353251E-009	0.0006507	6
	34	237	119.1737	52387.34	-12734.44	1	53912.88	-13.66261	-9.985391E-009	0.0007105	6
	35	239	95.0169	53614.18	-14376.87	1	55508.33	-15.01096	-1.016276E-008	0.0007414	6
	36	241	75.60484	54743.66	-16498.16	1	57175.68	-16.77129	-9.674759E-009	0.0006781	6
	37	244	54.50582	56235.88	-20316.12	1	59793.14	-19.86307	-9.078417E-009	0.0006382	6
	38	246	45.95588	57043.6	-23042.81	1	61521.89	-21.99629	-9.143072E-009	0.0007068	6
	39	249	37.20238	57989.08	-26972.11	1	63954.89	-24.94427	-8.308189E-009	0.0006692	6
	40	251	30.04808	59065.62	-31955.65	1	67155.88	-28.41425	-8.106631E-009	0.0006223	6
	41	254	23.91582	60240.62	-38627.66	1	71561.36	-32.66891	-8.926226E-009	0.0006158	6
	42	256	18.60119	61862.98	-47960.96	1	78276.96	-37.78561	-1.175834E-008	0.0007464	6
	43	258	15.02404	63112.44	-57684.7	1	85502.66	-42.42727	-8.909558E-009	0.0006083	6
	44	261	12.01923	64787.44	-70403.79	1	95677.1	-47.37891	-9.607518E-009	0.0007396	6
	45	263	9.450605	67029.51	-87471.81	1	110201.1	-52.53711	-8.10829E-009	0.0006351	6
	46	266	7.512019	69554.88	-107952.1	1	128419.4	-57.20581	-8.823186E-009	0.0006125	6
	47	269	5.978954	72734.16	-133103.2	1	151679.7	-61.34563	-9.150456E-009	0.0007069	6
	48	273	4.734848	76592.8	-164982	1	181894.2	-65.09694	-9.047732E-009	0.0006887	6
	49	276	3.75601	81473.55	-204449.6	1	220085.4	-68.27263	-9.555837E-009	0.0007522	6
	50	282	3.004808	87322.57	-251243.1	1	265985.6	-70.83449	-8.485888E-009	0.0005895	6
	51	288	2.372217	95228.8	-313051.5	1	327215.1	-73.08048	-9.118374E-009	0.0005917	6
	52	293	1.878005	103978.7	-389167.3	1	402818.5	-75.041	-8.817968E-009	0.0006654	6
	53	297	1.512097	115039.6	-475267.6	1	488992.3	-76.39314	-1.119464E-009	0.0006174	5
	54	303	1.201923	128820.1	-589828.2	1	603731.6	-77.6799	-9.240393E-010	0.0006794	5
	55	309	0.956633	146136.4	-729387.9	1	743883.4	-78.67052	-1.031812E-009	4.34924E-006	5
