EXPLAIN
TAG	EISPOT
TITLE	LABEL	Potentiostatic EIS	Test Identifier
DATE	LABEL	9/15/2020	Date
TIME	LABEL	2:31:17	Time
NOTES	NOTES	1	Notes...
	
PSTAT	PSTAT	REF3000-16137	Potentiostat
VDC	POTEN	0.00000E+000	T	DC Voltage (V)
FREQINIT	QUANT	3.00000E+005	Initial Freq. (Hz)
FREQFINAL	QUANT	1.00000E+000	Final Freq. (Hz)
PTSPERDEC	QUANT	1.00000E+001	Points/decade
VAC	QUANT	5.00000E+001	AC Voltage (mV rms)
AREA	QUANT	1.00000E+000	Sample Area (cm^2)
SPEED	SELECTOR	2	Optimize for:
ZGUESS	QUANT	1.00000E+003	Estimated Z (ohms)
EOC	QUANT	0	Open Circuit (V)
SEQUENCER	TOGGLE	TRUE	Run as Sequence
PSTATMODEL	IQUANT	5	Pstat Model
PSTATSECTION	LABEL	REF3000-16137	Pstat Section
PSTATSERIALNO	LABEL	16137	Pstat Serial Number
CTRLMODE	IQUANT	1	Control Mode
IESTAB	IQUANT	0	I/E Stability
CASPEED	IQUANT	1	Control Amp Speed
CONVENTION	IQUANT	1	Current Convention
ICHRANGE	IQUANT	2	Ich Range
ICHRANGEMODE	TOGGLE	F	Ich Auto Range
ICHOFFSETENABLE	TOGGLE	T	Ich Offset Enable
ICHOFFSET	QUANT	0	Ich Offset (V)
ICHFILTER	IQUANT	3	Ich Filter
VCHRANGE	IQUANT	2	Vch Range
VCHRANGEMODE	TOGGLE	F	Vch Auto Range
VCHOFFSETENABLE	TOGGLE	T	Vch Offset Enable
VCHOFFSET	QUANT	0	Vch Offset (V)
VCHFILTER	IQUANT	3	Vch Filter
ACHRANGE	IQUANT	2	Ach Range
ACHOFFSETENABLE	TOGGLE	F	Ach Offset Enable
ACHOFFSET	QUANT	0	Ach Offset (V)
ACHFILTER	IQUANT	3	Ach Filter
IERANGELOWERLIMIT	IQUANT	2	I/E Range Lower Limit
IERANGEMODE	TOGGLE	F	I/E AutoRange
IERANGE	IQUANT	11	I/E Range
POSFEEDENABLE	TOGGLE	F	Positive Feedback IR Comp
POSFEEDRESISTANCE	QUANT	0	Positive Feedback Resistance (ohm)
ACHSELECT	IQUANT	0	Ach Select
CABLEID	IQUANT	13	Cable ID
DCCALDATE	LABEL	7/31/2020	DC Calibration Date
ACCALDATE	LABEL	7/31/2020	AC Calibration Date
THERMOSELECT	IQUANT	1	Thermo Select
FRAMEWORKVERSION	QUANT	6.33	Framework Version
INSTRUMENTVERSION	LABEL	3.50	Instrument Version
COMPLIANCEVOLTAGE	IQUANT	0	Compliance Voltage
ZCURVE	TABLE
	Pt	Time	Freq	Zreal	Zimag	Zsig	Zmod	Zphz	Idc	Vdc	IERange
	#	s	Hz	ohm	ohm	V	ohm	°	A	V	#
	0	7	300046.9	103.6874	-5.124409	1	103.8139	-2.829353	2.719895E-005	7.758463E-005	9
	1	10	238359.4	104.7963	-6.960164	1	105.0272	-3.799782	1.627889E-005	-0.0006937	9
	2	13	189328.1	105.7597	-8.352437	1	106.089	-4.515599	4.661616E-006	0.0010105	9
	3	16	150421.9	106.8138	-10.26538	1	107.306	-5.48957	1.731316E-005	-0.0012363	9
	4	18	119484.4	107.9917	-11.66608	1	108.62	-6.165613	-5.930985E-006	0.0011728	9
	5	21	94921.88	109.5128	-13.20363	1	110.3059	-6.874801	1.933768E-005	-0.000117	9
	6	24	75421.88	111.1692	-15.37366	1	112.2272	-7.873536	-1.98246E-005	0.0004598	9
	7	26	59859.37	112.9954	-17.73973	1	114.3794	-8.922333	-2.032312E-005	0.0007424	9
	8	29	47578.12	114.9522	-20.19824	1	116.7132	-9.96571	3.417654E-006	0.0004938	9
	9	31	37828.12	117.1097	-23.01472	1	119.3498	-11.11823	1.99224E-005	-0.000179	9
	10	34	30046.88	119.3279	-26.31135	1	122.1943	-12.43453	2.40216E-005	-0.0005751	9
	11	36	23859.38	121.7207	-30.02797	1	125.3699	-13.85791	2.204508E-005	-0.0005069	9
	12	39	18984.38	123.9138	-34.61296	1	128.6572	-15.60669	1.134267E-005	0.0001454	9
	13	41	15046.87	126.2261	-40.10959	1	132.4455	-17.62816	2.135748E-005	-0.0003577	9
	14	43	11953.13	128.657	-47.10527	1	137.0092	-20.10923	1.23604E-005	-0.0006564	9
	15	46	9515.62	130.9124	-55.67521	1	142.2595	-23.03937	2.334615E-005	-0.0002468	9
	16	48	7546.875	133.4303	-66.30065	1	148.9947	-26.42248	1.964254E-005	-0.0003261	9
	17	50	5928.309	136.0513	-80.92719	1	158.3009	-30.74538	1.138524E-005	0.0001989	9
	18	53	4733.456	138.7209	-97.5427	1	169.5821	-35.11329	-2.007141E-005	0.0005243	9
	19	55	3796.875	142.2086	-117.8298	1	184.6812	-39.64412	1.774418E-005	-0.0006736	9
	20	57	2987.132	146.0373	-145.7799	1	206.346	-44.94947	5.883348E-006	-0.0005166	9
	21	60	2390.625	150.3551	-178.0777	1	233.0629	-49.82484	6.395886E-006	-0.0005252	9
	22	62	1884.191	156.84	-220.6298	1	270.6959	-54.59196	1.122362E-005	0.0001983	9
	23	64	1516.544	163.0207	-267.7043	1	313.4348	-58.66034	-1.010239E-005	-2.095637E-006	9
	24	66	1193.986	171.1334	-333.2102	1	374.5873	-62.81543	4.776197E-006	-0.0004718	9
	25	69	946.5144	180.5686	-409.6367	1	447.6687	-66.21203	7.017292E-006	-0.0010934	8
	26	71	751.7689	192.1753	-507.9381	1	543.0768	-69.27617	5.735512E-006	-3.858441E-005	8
	27	74	597.4265	208.827	-624.8634	1	658.8346	-71.52056	3.08955E-006	-0.0013278	8
	28	76	477.4305	225.6367	-767.9592	1	800.4207	-73.6265	2.650621E-007	0.0006514	8
	29	78	376.6741	248.938	-954.984	1	986.897	-75.38971	2.635437E-007	0.0006471	8
	30	81	298.2954	277.1265	-1183.735	1	1215.741	-76.82368	2.597082E-007	0.0006491	8
	31	83	237.7717	310.9407	-1458.674	1	1491.447	-77.96656	2.615469E-007	0.0006508	8
	32	85	189.0121	352.78	-1802.408	1	1836.608	-78.92567	2.805547E-007	0.0006432	8
	33	88	150.2404	404.4601	-2227.567	1	2263.988	-79.7089	2.722082E-007	0.0006429	8
	34	90	119.1737	469.006	-2758.422	1	2798.01	-80.35046	2.876433E-007	0.0006509	8
	35	92	95.0169	546.8494	-3401.714	1	3445.388	-80.86744	2.867519E-007	0.0006399	8
	36	95	75.60484	644.5012	-4201.982	1	4251.122	-81.27991	2.689297E-007	0.0006513	8
	37	98	54.50582	829.181	-5697.444	1	5757.465	-81.71956	2.029054E-008	0.0006165	7
	38	100	45.95588	948.9572	-6673.942	1	6741.07	-81.90745	2.705898E-008	0.0006228	7
	39	102	37.20238	1129.583	-8114.528	1	8192.772	-82.07507	2.521464E-008	0.000623	7
	40	105	30.04808	1350.328	-9878.44	1	9970.3	-82.21622	2.292458E-008	0.0006235	7
	41	107	23.91582	1640.815	-12193.27	1	12303.17	-82.33591	1.672209E-008	0.0006796	7
	42	110	18.60119	2054.752	-15380.24	1	15516.89	-82.39052	2.45966E-008	0.0006197	7
	43	112	15.02404	2492.141	-18738.62	1	18903.62	-82.42441	3.001217E-008	0.0006307	7
	44	114	12.01923	3058.86	-23006.77	1	23209.22	-82.42667	2.508097E-008	0.0006162	7
	45	117	9.450605	3810.813	-28707.47	1	28959.3	-82.4384	2.638474E-008	0.0006279	7
	46	119	7.512019	4705.596	-35475.91	1	35786.63	-82.44428	2.911024E-008	0.0006311	7
	47	122	5.978954	5894.343	-43803.49	1	44198.29	-82.33613	3.111016E-009	0.0006667	6
	48	125	4.734848	7375.869	-54357.68	1	54855.82	-82.27265	2.852196E-009	0.000658	6
	49	128	3.75601	9267.208	-67248.45	1	67883.98	-82.15375	3.640226E-009	0.0006765	6
	50	134	3.004808	11617.19	-82525.59	1	83339.26	-81.98708	2.812332E-009	0.0007539	6
	51	140	2.372217	14808.82	-102329	1	103395	-81.76546	2.718596E-009	0.000685	6
	52	145	1.878005	19104	-126896	1	128326	-81.43851	3.357844E-009	0.0006504	6
	53	149	1.512097	23887.39	-154489.2	1	156325	-81.21043	2.902809E-009	0.000759	6
	54	155	1.201923	30870.27	-190304.9	1	192792.4	-80.78603	3.329607E-009	0.0006564	6
	55	161	0.956633	39453.5	-233612	1	236920.1	-80.41407	2.357021E-009	2.428875E-005	6
