EXPLAIN
TAG	EISPOT
TITLE	LABEL	Potentiostatic EIS	Test Identifier
DATE	LABEL	9/15/2020	Date
TIME	LABEL	1:42:50	Time
NOTES	NOTES	1	Notes...
	
PSTAT	PSTAT	REF3000-16137	Potentiostat
VDC	POTEN	0.00000E+000	T	DC Voltage (V)
FREQINIT	QUANT	3.00000E+005	Initial Freq. (Hz)
FREQFINAL	QUANT	1.00000E+000	Final Freq. (Hz)
PTSPERDEC	QUANT	1.00000E+001	Points/decade
VAC	QUANT	5.00000E+001	AC Voltage (mV rms)
AREA	QUANT	1.00000E+000	Sample Area (cm^2)
SPEED	SELECTOR	2	Optimize for:
ZGUESS	QUANT	1.00000E+003	Estimated Z (ohms)
EOC	QUANT	0	Open Circuit (V)
SEQUENCER	TOGGLE	TRUE	Run as Sequence
PSTATMODEL	IQUANT	5	Pstat Model
PSTATSECTION	LABEL	REF3000-16137	Pstat Section
PSTATSERIALNO	LABEL	16137	Pstat Serial Number
CTRLMODE	IQUANT	1	Control Mode
IESTAB	IQUANT	0	I/E Stability
CASPEED	IQUANT	1	Control Amp Speed
CONVENTION	IQUANT	1	Current Convention
ICHRANGE	IQUANT	2	Ich Range
ICHRANGEMODE	TOGGLE	F	Ich Auto Range
ICHOFFSETENABLE	TOGGLE	T	Ich Offset Enable
ICHOFFSET	QUANT	0	Ich Offset (V)
ICHFILTER	IQUANT	3	Ich Filter
VCHRANGE	IQUANT	2	Vch Range
VCHRANGEMODE	TOGGLE	F	Vch Auto Range
VCHOFFSETENABLE	TOGGLE	T	Vch Offset Enable
VCHOFFSET	QUANT	0	Vch Offset (V)
VCHFILTER	IQUANT	3	Vch Filter
ACHRANGE	IQUANT	2	Ach Range
ACHOFFSETENABLE	TOGGLE	F	Ach Offset Enable
ACHOFFSET	QUANT	0	Ach Offset (V)
ACHFILTER	IQUANT	3	Ach Filter
IERANGELOWERLIMIT	IQUANT	2	I/E Range Lower Limit
IERANGEMODE	TOGGLE	F	I/E AutoRange
IERANGE	IQUANT	11	I/E Range
POSFEEDENABLE	TOGGLE	F	Positive Feedback IR Comp
POSFEEDRESISTANCE	QUANT	0	Positive Feedback Resistance (ohm)
ACHSELECT	IQUANT	0	Ach Select
CABLEID	IQUANT	13	Cable ID
DCCALDATE	LABEL	7/31/2020	DC Calibration Date
ACCALDATE	LABEL	7/31/2020	AC Calibration Date
THERMOSELECT	IQUANT	1	Thermo Select
FRAMEWORKVERSION	QUANT	6.33	Framework Version
INSTRUMENTVERSION	LABEL	3.50	Instrument Version
COMPLIANCEVOLTAGE	IQUANT	0	Compliance Voltage
ZCURVE	TABLE
	Pt	Time	Freq	Zreal	Zimag	Zsig	Zmod	Zphz	Idc	Vdc	IERange
	#	s	Hz	ohm	ohm	V	ohm	°	A	V	#
	0	7	300046.9	69.30836	-2.835532	1	69.36633	-2.342769	-5.226775E-005	0.0005405	9
	1	10	238359.4	69.76675	-4.286016	1	69.89828	-3.515462	1.318907E-005	-0.0015233	9
	2	14	189328.1	70.5806	-5.680485	1	70.80882	-4.601375	3.024521E-005	-5.686592E-005	9
	3	16	150421.9	71.48508	-7.081216	1	71.83495	-5.657187	-5.769027E-005	0.0021708	9
	4	19	119484.4	72.41185	-8.471101	1	72.90566	-6.672419	5.83898E-005	-0.0014504	9
	5	21	94921.88	73.57752	-9.77769	1	74.22436	-7.569662	2.158856E-005	-0.000306	9
	6	24	75421.88	74.75105	-11.47256	1	75.6263	-8.725497	1.626223E-005	-0.0006631	9
	7	26	59859.37	76.01287	-13.36635	1	77.17912	-9.97312	1.882855E-005	-0.0001481	9
	8	29	47578.12	77.40442	-15.39514	1	78.92056	-11.24889	1.62277E-005	-0.0006373	9
	9	31	37828.12	78.83401	-17.719	1	80.80077	-12.66748	2.332432E-005	-0.0004398	9
	10	34	30046.88	80.33906	-20.44083	1	82.89868	-14.27499	-9.721009E-006	3.228272E-005	9
	11	36	23859.38	81.81702	-23.62826	1	85.16055	-16.1084	-1.717181E-005	0.0007447	9
	12	39	18984.38	83.32728	-27.59932	1	87.77903	-18.32569	2.253177E-005	-0.0005254	9
	13	41	15046.87	84.85447	-32.57262	1	90.89146	-21.00003	2.033163E-005	-0.0006296	9
	14	43	11953.13	86.39211	-38.67992	1	94.65586	-24.11926	1.6285E-005	-0.0006308	9
	15	46	9515.62	87.98799	-46.30843	1	99.4302	-27.75801	3.890542E-006	-0.0003948	9
	16	48	7546.875	89.73579	-56.01027	1	105.7812	-31.97112	3.978741E-006	-0.0003929	9
	17	50	5928.309	91.81435	-68.65837	1	114.6466	-36.78898	1.72568E-005	-0.0006332	9
	18	53	4733.456	94.07869	-83.57518	1	125.8396	-41.61641	-3.520182E-006	-0.0001683	9
	19	55	3796.875	96.7647	-101.4337	1	140.1863	-46.34948	1.923312E-005	-0.0001367	9
	20	57	2987.132	99.9923	-125.7623	1	160.6693	-51.51213	-1.428337E-005	0.0002264	9
	21	59	2390.625	103.8932	-153.4858	1	185.3421	-55.90627	2.258754E-005	-0.00058	9
	22	62	1884.191	109.033	-190.6018	1	219.5842	-60.22847	-2.645644E-006	-0.0002073	9
	23	64	1516.544	114.3915	-231.9784	1	258.6492	-63.7515	-1.76163E-005	0.0007275	9
	24	66	1193.986	121.8042	-289.0193	1	313.6375	-67.14751	1.149288E-005	0.0001223	9
	25	69	946.5144	128.671	-357.3604	1	379.8193	-70.1981	-1.839996E-005	0.0007079	9
	26	71	751.7689	141.5838	-439.2993	1	461.5515	-72.13614	-3.866252E-006	-0.0001683	9
	27	74	597.4265	153.3598	-542.1011	1	563.3763	-74.20386	2.584825E-006	0.0008163	8
	28	76	477.4305	169.3562	-665.9314	1	687.1289	-75.73132	3.42026E-007	0.0006404	8
	29	78	376.6741	189.6598	-828.069	1	849.5111	-77.09956	3.418616E-007	0.000643	8
	30	81	298.2954	214.3378	-1026.371	1	1048.513	-78.20441	3.372795E-007	0.0006451	8
	31	83	237.7717	243.8667	-1264.724	1	1288.021	-79.08605	3.414849E-007	0.0006448	8
	32	86	189.0121	280.6131	-1562.7	1	1587.695	-79.81992	3.512424E-007	0.0006443	8
	33	88	150.2404	326.0418	-1931.084	1	1958.415	-80.41663	3.514863E-007	0.0006395	8
	34	90	119.1737	382.6276	-2390.98	1	2421.402	-80.90807	3.404027E-007	0.0006476	8
	35	93	95.0169	451.5061	-2947.955	1	2982.331	-81.2923	3.647411E-007	0.0006433	8
	36	95	75.60484	537.6652	-3640.538	1	3680.028	-81.59881	3.563023E-007	0.0006463	8
	37	98	54.50582	704.1729	-4937.851	1	4987.809	-81.88393	2.9419E-008	0.0006162	7
	38	100	45.95588	809.0398	-5779.035	1	5835.391	-82.03063	4.125167E-008	0.0006211	7
	39	103	37.20238	970.874	-7024.833	1	7091.606	-82.13123	3.611149E-008	0.0006307	7
	40	105	30.04808	1171.357	-8563.137	1	8642.881	-82.21082	3.286827E-008	0.0006118	7
	41	107	23.91582	1444.328	-10571.81	1	10670.02	-82.22038	3.15695E-008	0.0006112	7
	42	110	18.60119	1795.147	-13299.42	1	13420.02	-82.31271	3.885496E-008	0.0006179	7
	43	112	15.02404	2205.34	-16206.92	1	16356.27	-82.25113	3.951774E-008	0.0006089	7
	44	114	12.01923	2727.018	-19911.14	1	20097.02	-82.20132	3.70072E-008	0.0006174	7
	45	117	9.450605	3429.45	-24858.5	1	25093.95	-82.14513	3.62064E-008	0.0006121	7
	46	119	7.512019	4344.585	-30705.08	1	31010.93	-81.94645	3.955595E-008	0.0006302	7
	47	122	5.978954	5505.051	-37848.53	1	38246.79	-81.72439	3.909967E-008	0.0006196	7
	48	127	4.734848	7123.142	-46902.68	1	47440.5	-81.36444	4.994741E-009	0.0006703	6
	49	130	3.75601	9142.763	-57938.7	1	58655.63	-81.03264	5.635405E-009	0.0006671	6
	50	136	3.004808	11703.74	-70916.39	1	71875.67	-80.62862	4.7871E-009	0.0006991	6
	51	142	2.372217	15236.81	-87725.88	1	89039.27	-80.14679	4.504813E-009	0.0007021	6
	52	146	1.878005	20141.27	-108233.3	1	110091.4	-79.45834	5.109377E-009	0.0006421	6
	53	151	1.512097	25827.84	-131181.4	1	133699.8	-78.8617	4.557348E-009	0.0007591	6
	54	156	1.201923	34102.13	-160526.1	1	164108.5	-78.0064	5.035681E-009	0.0006456	6
	55	162	0.956633	44591.09	-195492.8	1	200513.8	-77.15089	3.674038E-009	2.696959E-005	6
