EXPLAIN
TAG	EISPOT
TITLE	LABEL	Potentiostatic EIS	Test Identifier
DATE	LABEL	9/15/2020	Date
TIME	LABEL	6:50:22	Time
NOTES	NOTES	1	Notes...
	
PSTAT	PSTAT	REF3000-16137	Potentiostat
VDC	POTEN	0.00000E+000	T	DC Voltage (V)
FREQINIT	QUANT	3.00000E+005	Initial Freq. (Hz)
FREQFINAL	QUANT	1.00000E+000	Final Freq. (Hz)
PTSPERDEC	QUANT	1.00000E+001	Points/decade
VAC	QUANT	5.00000E+001	AC Voltage (mV rms)
AREA	QUANT	1.00000E+000	Sample Area (cm^2)
SPEED	SELECTOR	2	Optimize for:
ZGUESS	QUANT	1.00000E+003	Estimated Z (ohms)
EOC	QUANT	0	Open Circuit (V)
SEQUENCER	TOGGLE	TRUE	Run as Sequence
PSTATMODEL	IQUANT	5	Pstat Model
PSTATSECTION	LABEL	REF3000-16137	Pstat Section
PSTATSERIALNO	LABEL	16137	Pstat Serial Number
CTRLMODE	IQUANT	1	Control Mode
IESTAB	IQUANT	0	I/E Stability
CASPEED	IQUANT	1	Control Amp Speed
CONVENTION	IQUANT	1	Current Convention
ICHRANGE	IQUANT	2	Ich Range
ICHRANGEMODE	TOGGLE	F	Ich Auto Range
ICHOFFSETENABLE	TOGGLE	T	Ich Offset Enable
ICHOFFSET	QUANT	0	Ich Offset (V)
ICHFILTER	IQUANT	3	Ich Filter
VCHRANGE	IQUANT	2	Vch Range
VCHRANGEMODE	TOGGLE	F	Vch Auto Range
VCHOFFSETENABLE	TOGGLE	T	Vch Offset Enable
VCHOFFSET	QUANT	0	Vch Offset (V)
VCHFILTER	IQUANT	3	Vch Filter
ACHRANGE	IQUANT	2	Ach Range
ACHOFFSETENABLE	TOGGLE	F	Ach Offset Enable
ACHOFFSET	QUANT	0	Ach Offset (V)
ACHFILTER	IQUANT	3	Ach Filter
IERANGELOWERLIMIT	IQUANT	2	I/E Range Lower Limit
IERANGEMODE	TOGGLE	F	I/E AutoRange
IERANGE	IQUANT	11	I/E Range
POSFEEDENABLE	TOGGLE	F	Positive Feedback IR Comp
POSFEEDRESISTANCE	QUANT	0	Positive Feedback Resistance (ohm)
ACHSELECT	IQUANT	0	Ach Select
CABLEID	IQUANT	13	Cable ID
DCCALDATE	LABEL	7/31/2020	DC Calibration Date
ACCALDATE	LABEL	7/31/2020	AC Calibration Date
THERMOSELECT	IQUANT	1	Thermo Select
FRAMEWORKVERSION	QUANT	6.33	Framework Version
INSTRUMENTVERSION	LABEL	3.50	Instrument Version
COMPLIANCEVOLTAGE	IQUANT	0	Compliance Voltage
ZCURVE	TABLE
	Pt	Time	Freq	Zreal	Zimag	Zsig	Zmod	Zphz	Idc	Vdc	IERange
	#	s	Hz	ohm	ohm	V	ohm	°	A	V	#
	0	20	300046.9	68.08887	-4870.22	1	4870.696	-89.19902	-4.197225E-006	0.001534	9
	1	36	238359.4	291.4999	-6051.641	1	6058.658	-87.24226	-1.855152E-005	0.0011118	9
	2	57	189328.1	370.0609	-7509.604	1	7518.717	-87.17884	1.989697E-005	-0.0020731	9
	3	66	150421.9	513.6671	-9282.612	1	9296.813	-86.83268	-1.93507E-005	0.0011651	9
	4	76	119484.4	1002.256	-11854.69	1	11896.98	-85.16741	2.377056E-005	-0.0144403	8
	5	84	94921.88	1698.155	-14441.19	1	14540.7	-83.29333	2.309806E-005	-0.002713	8
	6	92	75421.88	2233.985	-18060.92	1	18198.56	-82.94881	1.733556E-005	0.0003621	8
	7	101	59859.37	3116.067	-22500.87	1	22715.61	-82.11546	-2.635371E-005	0.007529	8
	8	110	47578.12	4701.583	-28187.47	1	28576.88	-80.53042	-2.382742E-005	0.0052087	8
	9	120	37828.12	6027.355	-34565.84	1	35087.41	-80.1086	2.621614E-005	-0.0088944	8
	10	128	30046.88	9245.728	-43736.57	1	44703.15	-78.06364	-2.271367E-006	0.0078261	8
	11	138	23859.38	18238.08	-51738.7	1	54859.1	-70.58226	-6.689329E-006	0.0119067	7
	12	143	18984.38	25896.18	-64345.34	1	69360.91	-68.07738	-1.896081E-006	0.0222583	7
	13	149	15046.87	35553.89	-76495.14	1	84353.93	-65.07164	-5.441607E-006	0.0268128	7
	14	154	11953.13	52884.67	-97001.2	1	110480.9	-61.40096	-9.551464E-006	-0.0020297	8
	15	161	9515.62	65697.8	-102814.4	1	122012.3	-57.42167	4.937258E-006	-0.0006636	7
	16	168	7546.875	88821.32	-112235.1	1	143129.2	-51.6424	-3.884556E-006	0.0256547	7
	17	174	5928.309	116117.7	-113014.1	1	162035.5	-44.22396	1.364297E-006	-0.0200716	7
	18	181	4733.456	160585	-100312.2	1	189341.2	-31.99166	6.078899E-007	-0.0071277	6
	19	185	3796.875	182525.5	-94771.47	1	205662.8	-27.43939	-3.057887E-007	-0.0069581	6
	20	189	2987.132	196790.8	-81043.94	1	212825.6	-22.38323	7.318669E-007	-0.0157246	6
	21	194	2390.625	207549.3	-73120.77	1	220053.1	-19.40764	-6.843404E-007	0.0262882	6
	22	198	1884.191	216796.3	-62853.3	1	225723.6	-16.16786	-5.620988E-007	0.0266315	6
	23	202	1516.544	226775.3	-52559.1	1	232786.4	-13.0489	7.320852E-007	-0.0272596	6
	24	206	1193.986	232104.8	-50039.46	1	237437.5	-12.16618	5.982847E-007	-0.0277773	6
	25	211	946.5144	234683.8	-33867.87	1	237115	-8.211819	-7.180006E-007	0.0168347	6
	26	215	751.7689	222160.9	-78976.77	1	235781.2	-19.56997	7.864918E-006	-0.024726	7
	27	220	597.4265	209075.8	-103.9968	1	209075.8	-0.0284996	-7.281638E-006	0.0239551	7
	28	224	477.4305	246612.6	-33519.18	1	248880.1	-7.740117	-7.585992E-008	0.0006125	7
	29	229	376.6741	250480.7	-28807.37	1	252131.8	-6.560669	-9.08715E-009	0.0007099	6
	30	232	298.2954	252551.6	-28638.16	1	254170.1	-6.469436	-8.110322E-009	0.0007035	6
	31	234	237.7717	256180.5	-28655.07	1	257778.1	-6.382291	-7.726253E-009	0.0006633	6
	32	237	189.0121	259258.3	-30003.34	1	260988.6	-6.601338	-8.586216E-009	0.0007378	6
	33	239	150.2404	262848.4	-31754.05	1	264759.5	-6.888376	-8.462233E-009	0.0006375	6
	34	242	119.1737	263384.3	-35165.85	1	265721.5	-7.604891	-8.85175E-009	0.000711	6
	35	245	95.0169	270674.7	-37677.35	1	273284.4	-7.924533	-8.650916E-009	0.0007106	6
	36	247	75.60484	275364.4	-41780.98	1	278516.1	-8.627668	-7.958932E-009	0.000631	6
	37	250	54.50582	284720	-49945.81	1	289067.6	-9.94964	-8.910138E-009	0.0007095	6
	38	252	45.95588	287876.6	-52724.54	1	292665	-10.37868	-9.141762E-009	0.0007146	6
	39	255	37.20238	293832.2	-59040.07	1	299705	-11.36123	-9.222132E-009	0.0007162	6
	40	257	30.04808	300475.7	-64954.57	1	307416.2	-12.19807	-8.069215E-009	0.0006087	6
	41	260	23.91582	307588.4	-72985.4	1	316128.9	-13.34843	-8.856411E-009	0.000625	6
	42	262	18.60119	315350.4	-84051.81	1	326359.6	-14.92435	-8.831134E-009	0.0007405	6
	43	265	15.02404	322079.9	-93539.73	1	335388.1	-16.19456	-7.03117E-009	0.0006199	6
	44	267	12.01923	328310.6	-107481.3	1	345456.3	-18.12724	-8.597557E-009	0.0006238	6
	45	270	9.450605	335451.4	-125900.3	1	358299.5	-20.57192	-7.770995E-009	0.0006354	6
	46	272	7.512019	341901	-148836.4	1	372892.2	-23.52446	-8.952275E-009	0.0006947	6
	47	275	5.978954	350687.7	-177224.2	1	392925.3	-26.8103	-8.923201E-010	0.0005919	5
	48	279	4.734848	358433.3	-214399	1	417661.8	-30.886	-9.946777E-010	0.0005897	5
	49	283	3.75601	367013.3	-260800	1	450239.3	-35.39764	-9.713528E-010	0.0005859	5
	50	289	3.004808	376930	-316429.1	1	492141.9	-40.01314	-8.563373E-010	0.0005563	5
	51	295	2.372217	388269.7	-390197	1	550460.8	-45.14185	-9.417656E-010	0.0006345	5
	52	299	1.878005	401604.4	-481779.8	1	627214.4	-50.18592	-1.03463E-009	0.0006939	5
	53	304	1.512097	415876	-587001.1	1	719390.8	-54.68336	-9.431588E-010	0.0005558	5
	54	309	1.201923	434611.3	-724922.7	1	845221.8	-59.05614	-9.814252E-010	0.0006395	5
	55	316	0.956633	456622.1	-894571.6	1	1004372	-62.95857	-9.676718E-010	7.049875E-007	5
