EXPLAIN
TAG	EISPOT
TITLE	LABEL	Potentiostatic EIS	Test Identifier
DATE	LABEL	9/15/2020	Date
TIME	LABEL	5:11:32	Time
NOTES	NOTES	1	Notes...
	
PSTAT	PSTAT	REF3000-16137	Potentiostat
VDC	POTEN	0.00000E+000	T	DC Voltage (V)
FREQINIT	QUANT	3.00000E+005	Initial Freq. (Hz)
FREQFINAL	QUANT	1.00000E+000	Final Freq. (Hz)
PTSPERDEC	QUANT	1.00000E+001	Points/decade
VAC	QUANT	5.00000E+001	AC Voltage (mV rms)
AREA	QUANT	1.00000E+000	Sample Area (cm^2)
SPEED	SELECTOR	2	Optimize for:
ZGUESS	QUANT	1.00000E+003	Estimated Z (ohms)
EOC	QUANT	0	Open Circuit (V)
SEQUENCER	TOGGLE	TRUE	Run as Sequence
PSTATMODEL	IQUANT	5	Pstat Model
PSTATSECTION	LABEL	REF3000-16137	Pstat Section
PSTATSERIALNO	LABEL	16137	Pstat Serial Number
CTRLMODE	IQUANT	1	Control Mode
IESTAB	IQUANT	0	I/E Stability
CASPEED	IQUANT	1	Control Amp Speed
CONVENTION	IQUANT	1	Current Convention
ICHRANGE	IQUANT	2	Ich Range
ICHRANGEMODE	TOGGLE	F	Ich Auto Range
ICHOFFSETENABLE	TOGGLE	T	Ich Offset Enable
ICHOFFSET	QUANT	0	Ich Offset (V)
ICHFILTER	IQUANT	3	Ich Filter
VCHRANGE	IQUANT	2	Vch Range
VCHRANGEMODE	TOGGLE	F	Vch Auto Range
VCHOFFSETENABLE	TOGGLE	T	Vch Offset Enable
VCHOFFSET	QUANT	0	Vch Offset (V)
VCHFILTER	IQUANT	3	Vch Filter
ACHRANGE	IQUANT	2	Ach Range
ACHOFFSETENABLE	TOGGLE	F	Ach Offset Enable
ACHOFFSET	QUANT	0	Ach Offset (V)
ACHFILTER	IQUANT	3	Ach Filter
IERANGELOWERLIMIT	IQUANT	2	I/E Range Lower Limit
IERANGEMODE	TOGGLE	F	I/E AutoRange
IERANGE	IQUANT	11	I/E Range
POSFEEDENABLE	TOGGLE	F	Positive Feedback IR Comp
POSFEEDRESISTANCE	QUANT	0	Positive Feedback Resistance (ohm)
ACHSELECT	IQUANT	0	Ach Select
CABLEID	IQUANT	13	Cable ID
DCCALDATE	LABEL	7/31/2020	DC Calibration Date
ACCALDATE	LABEL	7/31/2020	AC Calibration Date
THERMOSELECT	IQUANT	1	Thermo Select
FRAMEWORKVERSION	QUANT	6.33	Framework Version
INSTRUMENTVERSION	LABEL	3.50	Instrument Version
COMPLIANCEVOLTAGE	IQUANT	0	Compliance Voltage
ZCURVE	TABLE
	Pt	Time	Freq	Zreal	Zimag	Zsig	Zmod	Zphz	Idc	Vdc	IERange
	#	s	Hz	ohm	ohm	V	ohm	°	A	V	#
	0	18	300046.9	1584.808	-579.5286	1	1687.445	-20.08632	8.617388E-005	-0.0035749	9
	1	51	238359.4	1658.274	-504.6643	1	1733.366	-16.92663	2.543728E-005	0.0009845	9
	2	66	189328.1	1709.071	-430.6377	1	1762.49	-14.14253	1.804858E-005	-0.0020747	9
	3	73	150421.9	1769.013	-368.5818	1	1807.003	-11.76945	-3.777853E-007	-0.0018114	9
	4	79	119484.4	1799.177	-272.3516	1	1819.674	-8.607836	-3.334881E-005	0.0191847	8
	5	85	94921.88	1813.509	-229.7784	1	1828.008	-7.221111	2.041499E-005	-0.0027095	8
	6	89	75421.88	1836.297	-212.0136	1	1848.495	-6.586048	-8.940897E-006	-0.0013392	8
	7	91	59859.37	1852.292	-192.7682	1	1862.296	-5.94139	1.837179E-005	-0.0080016	8
	8	97	47578.12	1865.834	-182.6374	1	1874.752	-5.590594	-2.207141E-005	0.0066587	8
	9	100	37828.12	1884.583	-180.8855	1	1893.244	-5.482554	-9.385896E-006	0.0086211	8
	10	104	30046.88	1901.926	-190.5263	1	1911.445	-5.720547	2.32323E-005	-0.00636	8
	11	108	23859.38	1915.642	-193.393	1	1925.379	-5.764743	-1.92594E-006	-0.0039267	8
	12	111	18984.38	1939.678	-201.6002	1	1950.127	-5.933725	-2.016023E-005	0.0094386	8
	13	114	15046.87	1962.027	-221.7949	1	1974.523	-6.44955	-9.129197E-006	-0.0013531	8
	14	118	11953.13	1985.594	-238.6609	1	1999.885	-6.853857	-2.240796E-005	0.006758	8
	15	121	9515.62	2014.237	-266.467	1	2031.786	-7.536002	-9.413576E-006	-0.0011809	8
	16	125	7546.875	2048.599	-298.943	1	2070.295	-8.302322	2.191486E-005	-0.0076049	8
	17	129	5928.309	2085.589	-320.3205	1	2110.044	-8.731688	-1.791486E-005	0.0029224	8
	18	133	4733.456	2136.092	-367.1894	1	2167.422	-9.75369	-2.063968E-005	0.0049542	8
	19	138	3796.875	2169.845	-413.9409	1	2208.976	-10.80053	-2.228938E-005	0.0067457	8
	20	141	2987.132	2210.271	-472.1514	1	2260.139	-12.05812	-2.22601E-005	0.0067707	8
	21	146	2390.625	2269.047	-532.8554	1	2330.774	-13.21568	2.255691E-005	-0.0045919	8
	22	149	1884.191	2307.068	-594.0356	1	2382.318	-14.43917	-2.060648E-005	0.0049375	8
	23	153	1516.544	2367.362	-678.2902	1	2462.616	-15.98793	-2.06088E-005	0.0049258	8
	24	159	1193.986	2410.092	-791.8548	1	2536.844	-18.18835	-2.236815E-005	0.0067893	8
	25	164	946.5144	2466.729	-959.142	1	2646.64	-21.24766	-8.359032E-007	0.0007228	9
	26	168	751.7689	2497.559	-1104.29	1	2730.798	-23.85251	-2.02093E-005	0.0095037	8
	27	172	597.4265	2557.413	-1322.071	1	2878.929	-27.33699	-9.165676E-006	-0.0012526	8
	28	176	477.4305	2609.194	-1569.127	1	3044.676	-31.02202	-2.302534E-007	0.0006404	8
	29	179	376.6741	2667.202	-1915.265	1	3283.627	-35.68139	-2.669849E-007	0.0006454	8
	30	181	298.2954	2731.373	-2343.512	1	3598.95	-40.62952	-2.481999E-007	0.0006436	8
	31	184	237.7717	2812.649	-2867.644	1	4016.762	-45.55471	-5.932994E-008	0.0006526	7
	32	186	189.0121	2900.147	-3522.45	1	4562.73	-50.53427	-5.883325E-008	0.0006376	7
	33	188	150.2404	3005.885	-4335.824	1	5275.861	-55.2677	-5.295199E-008	0.0005816	7
	34	191	119.1737	3133.307	-5354.41	1	6203.815	-59.66457	-5.17844E-008	0.0005875	7
	35	193	95.0169	3288.954	-6588.765	1	7364.037	-63.47273	-5.682741E-008	0.0006065	7
	36	196	75.60484	3478.886	-8127.472	1	8840.727	-66.82712	-5.686279E-008	0.0006043	7
	37	198	54.50582	3830.633	-10987.88	1	11636.47	-70.78025	-5.404208E-008	0.0005815	7
	38	201	45.95588	4057.365	-12859.96	1	13484.84	-72.48933	-5.593375E-008	0.000607	7
	39	203	37.20238	4391.636	-15631.27	1	16236.47	-74.30719	-5.223438E-008	0.0005943	7
	40	206	30.04808	4810.818	-19043.26	1	19641.53	-75.82225	-5.185287E-008	0.0005808	7
	41	208	23.91582	5355.552	-23527.03	1	24128.88	-77.17605	-5.928545E-008	0.0006242	7
	42	210	18.60119	6123.374	-29694.71	1	30319.49	-78.3483	-5.990552E-008	0.0006798	7
	43	213	15.02404	6922.838	-36173.73	1	36830.21	-79.16588	-5.644393E-008	0.0005943	7
	44	215	12.01923	7972.938	-44484.25	1	45193.1	-79.83873	-5.243459E-009	0.0006511	6
	45	217	9.450605	9363.73	-55527.7	1	56311.68	-80.42817	-6.4918E-009	0.0006218	6
	46	220	7.512019	11046.46	-68636.25	1	69519.48	-80.8571	-6.695082E-009	0.000686	6
	47	223	5.978954	13130.05	-84708.07	1	85719.63	-81.18907	-5.996083E-009	0.0006481	6
	48	226	4.734848	15726.57	-105105.1	1	106275.2	-81.49014	-5.813601E-009	0.0007222	6
	49	229	3.75601	19064.41	-130003.1	1	131393.5	-81.65728	-6.478991E-009	0.0006525	6
	50	235	3.004808	22938.58	-159515.2	1	161156	-81.81686	-6.059442E-009	0.0006483	6
	51	241	2.372217	28398.9	-198155.2	1	200179.9	-81.84411	-6.15979E-009	0.0007066	6
	52	245	1.878005	34627.21	-246110.8	1	248534.9	-81.99119	-6.598659E-009	0.0006508	6
	53	250	1.512097	41699.36	-299505.1	1	302394	-82.0738	-6.129485E-009	0.0006446	6
	54	256	1.201923	51469.32	-370922.9	1	374476.8	-82.10007	-6.468738E-009	0.0006351	6
	55	262	0.956633	63634.41	-457414.7	1	461819.8	-82.07999	-7.855879E-010	6.962378E-006	5
