EXPLAIN
TAG	EISPOT
TITLE	LABEL	Potentiostatic EIS	Test Identifier
DATE	LABEL	9/15/2020	Date
TIME	LABEL	6:55:47	Time
NOTES	NOTES	1	Notes...
	
PSTAT	PSTAT	REF3000-16137	Potentiostat
VDC	POTEN	0.00000E+000	T	DC Voltage (V)
FREQINIT	QUANT	3.00000E+005	Initial Freq. (Hz)
FREQFINAL	QUANT	1.00000E+000	Final Freq. (Hz)
PTSPERDEC	QUANT	1.00000E+001	Points/decade
VAC	QUANT	5.00000E+001	AC Voltage (mV rms)
AREA	QUANT	1.00000E+000	Sample Area (cm^2)
SPEED	SELECTOR	2	Optimize for:
ZGUESS	QUANT	1.00000E+003	Estimated Z (ohms)
EOC	QUANT	0	Open Circuit (V)
SEQUENCER	TOGGLE	TRUE	Run as Sequence
PSTATMODEL	IQUANT	5	Pstat Model
PSTATSECTION	LABEL	REF3000-16137	Pstat Section
PSTATSERIALNO	LABEL	16137	Pstat Serial Number
CTRLMODE	IQUANT	1	Control Mode
IESTAB	IQUANT	0	I/E Stability
CASPEED	IQUANT	1	Control Amp Speed
CONVENTION	IQUANT	1	Current Convention
ICHRANGE	IQUANT	2	Ich Range
ICHRANGEMODE	TOGGLE	F	Ich Auto Range
ICHOFFSETENABLE	TOGGLE	T	Ich Offset Enable
ICHOFFSET	QUANT	0	Ich Offset (V)
ICHFILTER	IQUANT	3	Ich Filter
VCHRANGE	IQUANT	2	Vch Range
VCHRANGEMODE	TOGGLE	F	Vch Auto Range
VCHOFFSETENABLE	TOGGLE	T	Vch Offset Enable
VCHOFFSET	QUANT	0	Vch Offset (V)
VCHFILTER	IQUANT	3	Vch Filter
ACHRANGE	IQUANT	2	Ach Range
ACHOFFSETENABLE	TOGGLE	F	Ach Offset Enable
ACHOFFSET	QUANT	0	Ach Offset (V)
ACHFILTER	IQUANT	3	Ach Filter
IERANGELOWERLIMIT	IQUANT	2	I/E Range Lower Limit
IERANGEMODE	TOGGLE	F	I/E AutoRange
IERANGE	IQUANT	11	I/E Range
POSFEEDENABLE	TOGGLE	F	Positive Feedback IR Comp
POSFEEDRESISTANCE	QUANT	0	Positive Feedback Resistance (ohm)
ACHSELECT	IQUANT	0	Ach Select
CABLEID	IQUANT	13	Cable ID
DCCALDATE	LABEL	7/31/2020	DC Calibration Date
ACCALDATE	LABEL	7/31/2020	AC Calibration Date
THERMOSELECT	IQUANT	1	Thermo Select
FRAMEWORKVERSION	QUANT	6.33	Framework Version
INSTRUMENTVERSION	LABEL	3.50	Instrument Version
COMPLIANCEVOLTAGE	IQUANT	0	Compliance Voltage
ZCURVE	TABLE
	Pt	Time	Freq	Zreal	Zimag	Zsig	Zmod	Zphz	Idc	Vdc	IERange
	#	s	Hz	ohm	ohm	V	ohm	°	A	V	#
	0	17	300046.9	-7.781384	-4921.123	1	4921.129	-90.0906	2.882076E-005	-0.0016622	9
	1	41	238359.4	89.23644	-6133.504	1	6134.153	-89.16646	2.452938E-005	0.000978	9
	2	55	189328.1	250.6986	-7429.015	1	7433.244	-88.06724	1.977675E-005	-0.0008928	9
	3	63	150421.9	1054.01	-9417.473	1	9476.271	-83.614	-8.838747E-005	0.0041792	9
	4	72	119484.4	415.976	-11394.11	1	11401.7	-87.90917	2.669157E-005	-0.0013899	9
	5	84	94921.88	1257.029	-14761.75	1	14815.17	-85.13275	7.996674E-006	-0.0076056	8
	6	93	75421.88	1841.594	-18200.51	1	18293.44	-84.22227	8.199934E-006	0.0042771	8
	7	101	59859.37	1986.496	-22818.59	1	22904.9	-85.0246	2.313117E-005	-0.0027153	8
	8	110	47578.12	6775.978	-29632.46	1	30397.31	-77.11977	-5.273704E-006	0.026701	7
	9	117	37828.12	4236.911	-35515.83	1	35767.66	-83.19697	-1.569183E-005	0.0005356	8
	10	126	30046.88	10923.29	-44726.33	1	46040.88	-76.2756	-6.791052E-006	0.0119391	7
	11	133	23859.38	10298.54	-55829.48	1	56771.39	-79.54847	2.606527E-005	-0.0051429	8
	12	140	18984.38	15347.89	-70496.69	1	72148.05	-77.71774	2.317413E-005	-0.0027958	8
	13	147	15046.87	28396.56	-80930.12	1	85767.41	-70.66518	2.278457E-005	-0.0095998	8
	14	155	11953.13	48728.77	-106840.1	1	117427.9	-65.48272	1.084393E-005	-0.0007953	9
	15	163	9515.62	53477.99	-114603	1	126466.4	-64.9845	-8.903171E-007	-0.0051639	8
	16	170	7546.875	82291.48	-140688.3	1	162988	-59.67575	4.867433E-006	-0.0004751	7
	17	176	5928.309	101084.5	-160800.6	1	189934	-57.84518	1.345762E-006	-0.0201845	7
	18	182	4733.456	171461.4	-161554.8	1	235582.2	-43.29606	-4.866208E-007	0.0010632	6
	19	188	3796.875	204638.6	-161732.3	1	260833.9	-38.32043	4.0375E-007	-0.025482	6
	20	192	2987.132	145957.9	-217693.6	1	262095.8	-56.15917	1.982981E-005	1.944544E-005	9
	21	200	2390.625	195804.2	-90466.92	1	215693.2	-24.79823	-1.587436E-005	0.0005912	8
	22	211	1884.191	96470.4	-184751.8	1	208422.1	-62.42813	-2.666793E-005	0.009581	8
	23	219	1516.544	389287.8	142882.5	1	414681.1	20.15493	8.062424E-006	0.0042915	8
	24	227	1193.986	351476.1	-124750.6	1	372958.7	-19.54148	6.628334E-006	-0.0099515	7
	25	235	946.5144	382249.8	-125748	1	402402.1	-18.20955	4.991035E-006	-0.000226	7
	26	239	751.7689	326698.4	-82431.79	1	336937.4	-14.16116	5.524339E-007	0.0161702	7
	27	244	597.4265	359346.8	-65020.83	1	365181.9	-10.25623	-2.842991E-007	-0.0068607	6
	28	248	477.4305	372842.8	-58151.13	1	377350.4	-8.864824	-7.24188E-009	0.0006228	6
	29	251	376.6741	397915.8	-14395.96	1	398176.1	-2.071966	-9.361217E-010	0.0006897	5
	30	254	298.2954	396468.4	-15572.58	1	396774.1	-2.249321	-8.128505E-010	0.0006029	5
	31	256	237.7717	396540.1	-19463.43	1	397017.5	-2.810001	-1.084784E-009	0.000593	5
	32	259	189.0121	398032.9	-24086.17	1	398761	-3.462917	-6.059233E-010	0.0005943	5
	33	261	150.2404	401252.9	-28211.23	1	402243.4	-4.021726	-9.284973E-010	0.00064	5
	34	264	119.1737	412774.7	-32900.52	1	414083.8	-4.55717	-1.248995E-009	0.0006415	5
	35	266	95.0169	409775.9	-38944.4	1	411622.3	-5.428987	-8.880768E-010	0.00064	5
	36	269	75.60484	415769.6	-46224.99	1	418331.3	-6.344054	-1.052028E-009	0.0007189	5
	37	272	54.50582	428508.7	-54820.32	1	432001.2	-7.290408	-1.171463E-009	0.0006055	5
	38	274	45.95588	429891.4	-62096.57	1	434353.1	-8.219359	-5.184691E-010	0.0006005	5
	39	276	37.20238	438467.7	-70236.8	1	444057.6	-9.10072	-3.926496E-010	0.0005903	5
	40	279	30.04808	447610.3	-78354.59	1	454416.6	-9.92908	-1.208677E-009	0.0005947	5
	41	282	23.91582	456981.6	-88414.05	1	465455.9	-10.94995	-7.915175E-010	0.0006765	5
	42	284	18.60119	466718.5	-102189.4	1	477774.8	-12.35019	-1.766129E-009	0.0006855	5
	43	287	15.02404	480106.5	-113426.3	1	493323.3	-13.29254	-1.343911E-009	0.000658	5
	44	289	12.01923	491552.1	-128401.4	1	508045.6	-14.63947	-1.657252E-009	0.0006182	5
	45	292	9.450605	501495.2	-147316.9	1	522685	-16.37043	-1.964095E-009	0.000632	5
	46	294	7.512019	512428.7	-171727.1	1	540438.1	-18.52723	-1.408114E-009	0.000665	5
	47	297	5.978954	523422.6	-200057	1	560351.7	-20.91732	-8.341954E-010	0.0006	5
	48	302	4.734848	535114.9	-237380.5	1	585403.7	-23.92239	-9.217327E-010	0.0005909	5
	49	305	3.75601	547236.8	-284760	1	616892.6	-27.49066	-7.982944E-010	0.0006334	5
	50	311	3.004808	560749.7	-341823.9	1	656722	-31.3658	-9.363201E-010	0.0006587	5
	51	317	2.372217	575503.1	-417629.5	1	711068.4	-35.96754	-8.400339E-010	0.0006527	5
	52	321	1.878005	591619.5	-512069.6	1	782450.6	-40.87746	-8.334025E-010	0.0006313	5
	53	326	1.512097	608852.4	-620936.3	1	869633.9	-45.56297	-8.666001E-010	0.0007289	5
	54	332	1.201923	630050.5	-764506.3	1	990673	-50.50713	-8.549245E-010	0.0006478	5
	55	338	0.956633	654795.2	-941290.1	1	1146640	-55.17614	-9.854549E-010	7.654812E-006	5
