EXPLAIN
TAG	EISPOT
TITLE	LABEL	Potentiostatic EIS	Test Identifier
DATE	LABEL	9/15/2020	Date
TIME	LABEL	4:58:26	Time
NOTES	NOTES	1	Notes...
	
PSTAT	PSTAT	REF3000-16137	Potentiostat
VDC	POTEN	0.00000E+000	T	DC Voltage (V)
FREQINIT	QUANT	3.00000E+005	Initial Freq. (Hz)
FREQFINAL	QUANT	1.00000E+000	Final Freq. (Hz)
PTSPERDEC	QUANT	1.00000E+001	Points/decade
VAC	QUANT	5.00000E+001	AC Voltage (mV rms)
AREA	QUANT	1.00000E+000	Sample Area (cm^2)
SPEED	SELECTOR	2	Optimize for:
ZGUESS	QUANT	1.00000E+003	Estimated Z (ohms)
EOC	QUANT	0	Open Circuit (V)
SEQUENCER	TOGGLE	TRUE	Run as Sequence
PSTATMODEL	IQUANT	5	Pstat Model
PSTATSECTION	LABEL	REF3000-16137	Pstat Section
PSTATSERIALNO	LABEL	16137	Pstat Serial Number
CTRLMODE	IQUANT	1	Control Mode
IESTAB	IQUANT	0	I/E Stability
CASPEED	IQUANT	1	Control Amp Speed
CONVENTION	IQUANT	1	Current Convention
ICHRANGE	IQUANT	2	Ich Range
ICHRANGEMODE	TOGGLE	F	Ich Auto Range
ICHOFFSETENABLE	TOGGLE	T	Ich Offset Enable
ICHOFFSET	QUANT	0	Ich Offset (V)
ICHFILTER	IQUANT	3	Ich Filter
VCHRANGE	IQUANT	2	Vch Range
VCHRANGEMODE	TOGGLE	F	Vch Auto Range
VCHOFFSETENABLE	TOGGLE	T	Vch Offset Enable
VCHOFFSET	QUANT	0	Vch Offset (V)
VCHFILTER	IQUANT	3	Vch Filter
ACHRANGE	IQUANT	2	Ach Range
ACHOFFSETENABLE	TOGGLE	F	Ach Offset Enable
ACHOFFSET	QUANT	0	Ach Offset (V)
ACHFILTER	IQUANT	3	Ach Filter
IERANGELOWERLIMIT	IQUANT	2	I/E Range Lower Limit
IERANGEMODE	TOGGLE	F	I/E AutoRange
IERANGE	IQUANT	11	I/E Range
POSFEEDENABLE	TOGGLE	F	Positive Feedback IR Comp
POSFEEDRESISTANCE	QUANT	0	Positive Feedback Resistance (ohm)
ACHSELECT	IQUANT	0	Ach Select
CABLEID	IQUANT	13	Cable ID
DCCALDATE	LABEL	7/31/2020	DC Calibration Date
ACCALDATE	LABEL	7/31/2020	AC Calibration Date
THERMOSELECT	IQUANT	1	Thermo Select
FRAMEWORKVERSION	QUANT	6.33	Framework Version
INSTRUMENTVERSION	LABEL	3.50	Instrument Version
COMPLIANCEVOLTAGE	IQUANT	0	Compliance Voltage
ZCURVE	TABLE
	Pt	Time	Freq	Zreal	Zimag	Zsig	Zmod	Zphz	Idc	Vdc	IERange
	#	s	Hz	ohm	ohm	V	ohm	°	A	V	#
	0	14	300046.9	1148.207	-289.7778	1	1184.208	-14.1642	7.716496E-005	-0.0017598	9
	1	29	238359.4	1178.746	-252.44	1	1205.474	-12.08786	2.279056E-005	0.0009043	9
	2	47	189328.1	1195.73	-214.8448	1	1214.878	-10.18603	5.076174E-005	7.610274E-005	9
	3	54	150421.9	1218.508	-190.2323	1	1233.268	-8.873333	-6.037514E-005	0.0006513	9
	4	63	119484.4	1242.036	-128.7084	1	1248.687	-5.916268	4.046972E-005	-0.0022014	8
	5	69	94921.88	1250.8	-115.8651	1	1256.155	-5.292364	-2.074089E-005	0.0078407	8
	6	74	75421.88	1257.33	-116.494	1	1262.715	-5.293448	2.085173E-005	-0.0043462	8
	7	77	59859.37	1268.025	-110.8222	1	1272.858	-4.994817	-1.729815E-005	0.0030085	8
	8	81	47578.12	1279.158	-111.1671	1	1283.979	-4.966896	-1.701458E-005	0.0028532	8
	9	84	37828.12	1289.892	-115.5961	1	1295.061	-5.120988	-2.064791E-005	0.0063345	8
	10	87	30046.88	1301.498	-126.1615	1	1307.599	-5.5367	-8.916365E-006	-0.0010119	8
	11	90	23859.38	1319.49	-134.2097	1	1326.297	-5.807771	-7.983002E-006	0.0077388	8
	12	93	18984.38	1333.813	-149.8034	1	1342.199	-6.408156	-1.732016E-005	0.0031642	8
	13	96	15046.87	1348.378	-165.917	1	1358.547	-7.014946	-1.910525E-005	0.0046885	8
	14	99	11953.13	1373.358	-185.7921	1	1385.868	-7.704377	-1.435076E-005	0.0088743	8
	15	102	9515.62	1390.263	-209.3875	1	1405.943	-8.564942	1.929743E-005	-0.002584	8
	16	105	7546.875	1416.073	-234.6308	1	1435.38	-9.40793	5.167741E-006	-0.0056409	8
	17	108	5928.309	1444.688	-265.7831	1	1468.933	-10.4243	-1.847881E-005	0.008771	8
	18	112	4733.456	1477.089	-295.0822	1	1506.275	-11.29741	-2.065266E-005	0.0064269	8
	19	117	3796.875	1502.228	-333.358	1	1538.771	-12.51171	1.924687E-005	-0.0026276	8
	20	120	2987.132	1542.847	-379.1825	1	1588.759	-13.80781	-2.05469E-005	0.0063533	8
	21	124	2390.625	1578.761	-426.7647	1	1635.425	-15.12646	1.638426E-005	-0.0072768	8
	22	128	1884.191	1610.42	-499.4121	1	1686.08	-17.22934	1.499652E-005	-0.0001735	8
	23	133	1516.544	1637.828	-577.7745	1	1736.751	-19.43124	2.171539E-005	-0.0059983	8
	24	137	1193.986	1668.452	-680.1044	1	1801.742	-22.17708	2.157292E-005	-0.0059315	8
	25	142	946.5144	1720.154	-810.7147	1	1901.628	-25.23467	5.107659E-006	-0.0055158	8
	26	144	751.7689	1734.995	-954.895	1	1980.412	-28.82722	-8.275815E-006	0.0078265	8
	27	147	597.4265	1774.219	-1182.133	1	2131.969	-33.67486	-1.65244E-005	0.0028454	8
	28	149	477.4305	1807.15	-1425.489	1	2301.698	-38.26656	-2.204279E-007	0.000635	8
	29	152	376.6741	1854.854	-1753.748	1	2552.668	-43.3951	-2.399663E-007	0.0006357	8
	30	154	298.2954	1910.054	-2158.937	1	2882.588	-48.50017	-2.29566E-007	0.0006504	8
	31	156	237.7717	1974.231	-2648.027	1	3302.974	-53.29371	-2.420321E-007	0.0006389	8
	32	159	189.0121	2052.387	-3261.845	1	3853.82	-57.82146	-2.580242E-007	0.0006521	8
	33	161	150.2404	2154.495	-4030.183	1	4569.926	-61.87149	-5.129159E-008	0.0006325	7
	34	164	119.1737	2271.973	-4983.175	1	5476.668	-65.49039	-5.035469E-008	0.0005912	7
	35	166	95.0169	2414.132	-6139.051	1	6596.664	-68.53316	-4.970769E-008	0.0005881	7
	36	169	75.60484	2589.875	-7579.246	1	8009.521	-71.13438	-5.06517E-008	0.0006197	7
	37	171	54.50582	2915.767	-10252.17	1	10658.73	-74.12399	-5.751392E-008	0.0006294	7
	38	174	45.95588	3125.529	-12004.18	1	12404.4	-75.40592	-5.182106E-008	0.0006275	7
	39	176	37.20238	3439.005	-14592.96	1	14992.71	-76.73952	-5.523938E-008	0.0006555	7
	40	178	30.04808	3830.446	-17785.52	1	18193.32	-77.84592	-4.867371E-008	0.0006034	7
	41	181	23.91582	4346.731	-21968.9	1	22394.79	-78.8081	-4.965539E-008	0.0005957	7
	42	183	18.60119	5077.074	-27718.93	1	28180.06	-79.62061	-5.616813E-008	0.0006539	7
	43	185	15.02404	5809.283	-33767.52	1	34263.58	-80.23853	-4.85008E-008	0.0006236	7
	44	188	12.01923	6808.645	-41513.43	1	42068.07	-80.68581	-5.132068E-008	0.0005885	7
	45	190	9.450605	8116.854	-51839.2	1	52470.81	-81.10102	-5.229139E-009	0.0006191	6
	46	193	7.512019	9702.53	-64063.27	1	64793.84	-81.38787	-5.519362E-009	0.000631	6
	47	195	5.978954	11639.35	-79011.09	1	79863.8	-81.61987	-6.132115E-009	0.0007146	6
	48	199	4.734848	14128.87	-97951.1	1	98964.9	-81.79203	-5.441475E-009	0.0006217	6
	49	202	3.75601	17200.49	-121255.9	1	122469.8	-81.9263	-6.124413E-009	0.0007086	6
	50	208	3.004808	20781.77	-148903.9	1	150347.1	-82.05484	-5.607582E-009	0.0006422	6
	51	214	2.372217	25495.29	-184837.5	1	186587.6	-82.14655	-5.712613E-009	0.000626	6
	52	218	1.878005	31731.05	-229376.9	1	231561.3	-82.12392	-6.032084E-009	0.0006639	6
	53	223	1.512097	38540.71	-279876.2	1	282517.3	-82.15932	-6.008519E-009	0.0005504	6
	54	228	1.201923	47584.69	-345711.6	1	348971.1	-82.1629	-6.060448E-009	0.0006759	6
	55	235	0.956633	58154.95	-426149.1	1	430098.8	-82.22906	-6.083076E-009	2.436803E-005	6
