EXPLAIN
TAG	EISPOT
TITLE	LABEL	Potentiostatic EIS	Test Identifier
DATE	LABEL	9/15/2020	Date
TIME	LABEL	9:45:30	Time
NOTES	NOTES	1	Notes...
	
PSTAT	PSTAT	REF3000-16137	Potentiostat
VDC	POTEN	0.00000E+000	T	DC Voltage (V)
FREQINIT	QUANT	3.00000E+005	Initial Freq. (Hz)
FREQFINAL	QUANT	1.00000E+000	Final Freq. (Hz)
PTSPERDEC	QUANT	1.00000E+001	Points/decade
VAC	QUANT	5.00000E+001	AC Voltage (mV rms)
AREA	QUANT	1.00000E+000	Sample Area (cm^2)
SPEED	SELECTOR	2	Optimize for:
ZGUESS	QUANT	1.00000E+003	Estimated Z (ohms)
EOC	QUANT	0	Open Circuit (V)
SEQUENCER	TOGGLE	TRUE	Run as Sequence
PSTATMODEL	IQUANT	5	Pstat Model
PSTATSECTION	LABEL	REF3000-16137	Pstat Section
PSTATSERIALNO	LABEL	16137	Pstat Serial Number
CTRLMODE	IQUANT	1	Control Mode
IESTAB	IQUANT	0	I/E Stability
CASPEED	IQUANT	1	Control Amp Speed
CONVENTION	IQUANT	1	Current Convention
ICHRANGE	IQUANT	2	Ich Range
ICHRANGEMODE	TOGGLE	F	Ich Auto Range
ICHOFFSETENABLE	TOGGLE	T	Ich Offset Enable
ICHOFFSET	QUANT	0	Ich Offset (V)
ICHFILTER	IQUANT	3	Ich Filter
VCHRANGE	IQUANT	2	Vch Range
VCHRANGEMODE	TOGGLE	F	Vch Auto Range
VCHOFFSETENABLE	TOGGLE	T	Vch Offset Enable
VCHOFFSET	QUANT	0	Vch Offset (V)
VCHFILTER	IQUANT	3	Vch Filter
ACHRANGE	IQUANT	2	Ach Range
ACHOFFSETENABLE	TOGGLE	F	Ach Offset Enable
ACHOFFSET	QUANT	0	Ach Offset (V)
ACHFILTER	IQUANT	3	Ach Filter
IERANGELOWERLIMIT	IQUANT	2	I/E Range Lower Limit
IERANGEMODE	TOGGLE	F	I/E AutoRange
IERANGE	IQUANT	11	I/E Range
POSFEEDENABLE	TOGGLE	F	Positive Feedback IR Comp
POSFEEDRESISTANCE	QUANT	0	Positive Feedback Resistance (ohm)
ACHSELECT	IQUANT	0	Ach Select
CABLEID	IQUANT	13	Cable ID
DCCALDATE	LABEL	7/31/2020	DC Calibration Date
ACCALDATE	LABEL	7/31/2020	AC Calibration Date
THERMOSELECT	IQUANT	1	Thermo Select
FRAMEWORKVERSION	QUANT	6.33	Framework Version
INSTRUMENTVERSION	LABEL	3.50	Instrument Version
COMPLIANCEVOLTAGE	IQUANT	0	Compliance Voltage
ZCURVE	TABLE
	Pt	Time	Freq	Zreal	Zimag	Zsig	Zmod	Zphz	Idc	Vdc	IERange
	#	s	Hz	ohm	ohm	V	ohm	°	A	V	#
	0	7	300046.9	67.50965	-2.574968	1	67.55874	-2.18433	-3.291867E-005	-0.0004479	9
	1	10	238359.4	67.34182	-4.002461	1	67.46066	-3.401373	3.021782E-005	-0.0002076	9
	2	13	189328.1	67.4464	-5.32414	1	67.65622	-4.513502	4.461875E-005	-0.0006672	9
	3	16	150421.9	67.73187	-6.52277	1	68.04523	-5.500782	1.200815E-005	-0.0010826	9
	4	18	119484.4	68.15428	-7.836717	1	68.60336	-6.559346	6.358287E-005	-0.0019359	9
	5	21	94921.88	68.76297	-9.058643	1	69.35709	-7.504772	-2.72052E-006	-0.0002368	9
	6	23	75421.88	69.33453	-10.57509	1	70.13636	-8.672073	2.150435E-005	-0.0003048	9
	7	26	59859.37	70.02558	-12.26803	1	71.0921	-9.93701	2.223277E-005	-0.0005428	9
	8	28	47578.12	70.77397	-14.09892	1	72.16463	-11.26643	-1.336356E-005	0.0002359	9
	9	31	37828.12	71.55195	-16.21616	1	73.36651	-12.7695	-1.652155E-005	0.0004974	9
	10	33	30046.88	72.45461	-18.6923	1	74.82695	-14.4661	-1.747108E-005	0.0006838	9
	11	36	23859.38	73.29757	-21.65433	1	76.42934	-16.45874	1.940584E-005	-0.0003499	9
	12	38	18984.38	74.15651	-25.27515	1	78.34552	-18.82092	2.185432E-005	-0.0004634	9
	13	41	15046.87	75.0331	-29.91551	1	80.77688	-21.73705	3.057718E-006	0.0003573	9
	14	43	11953.13	75.99442	-35.5901	1	83.91548	-25.09488	2.20243E-005	-0.0005185	9
	15	45	9515.62	76.96535	-42.69	1	88.01194	-29.0156	2.298883E-005	-0.0004299	9
	16	48	7546.875	78.19946	-51.64523	1	93.71439	-33.44195	9.22917E-006	-0.0004767	9
	17	50	5928.309	79.61378	-63.45377	1	101.8073	-38.55554	4.406125E-006	0.0003519	9
	18	52	4733.456	81.34165	-77.16597	1	112.1207	-43.49096	-1.573278E-005	0.0004271	9
	19	54	3796.875	83.34441	-93.58158	1	125.3148	-48.31152	2.022085E-005	-0.0002587	9
	20	57	2987.132	85.94868	-115.9478	1	144.3297	-53.45155	-3.280672E-006	0.0005598	9
	21	59	2390.625	89.48628	-141.226	1	167.1902	-57.64006	-3.14912E-006	-0.0001454	9
	22	61	1884.191	93.3576	-174.9864	1	198.3328	-61.91948	-9.496182E-006	0.0006993	9
	23	64	1516.544	98.0613	-213.1865	1	234.6583	-65.29857	-1.672833E-005	0.0007028	9
	24	66	1193.986	104.5751	-264.388	1	284.3184	-68.4194	-9.310893E-006	0.0006902	9
	25	69	946.5144	111.6817	-326.458	1	345.0328	-71.11411	-1.409638E-005	0.0006979	9
	26	71	751.7689	122.2296	-403.7632	1	421.8588	-73.15758	-1.382402E-005	0.0007306	9
	27	73	597.4265	132.5036	-494.0908	1	511.5495	-74.98785	-3.73219E-006	0.0018646	8
	28	76	477.4305	147.0786	-606.1964	1	623.7838	-76.36213	3.849476E-007	0.0006564	8
	29	78	376.6741	165.3726	-752.5673	1	770.5229	-77.60654	3.816931E-007	0.0006552	8
	30	80	298.2954	187.61	-931.313	1	950.022	-78.61038	3.993571E-007	0.0006476	8
	31	82	237.7717	214.3317	-1145.773	1	1165.648	-79.40454	3.980599E-007	0.0006437	8
	32	85	189.0121	247.7563	-1413.457	1	1435.006	-80.05797	3.976548E-007	0.0006522	8
	33	87	150.2404	289.2348	-1744.024	1	1767.845	-80.58358	3.452174E-007	0.0007083	8
	34	90	119.1737	341.9504	-2157.149	1	2184.084	-80.99245	4.039035E-007	0.0006528	8
	35	92	95.0169	405.0377	-2653.512	1	2684.247	-81.32124	4.042523E-007	0.0006572	8
	36	95	75.60484	485.6004	-3272.656	1	3308.486	-81.55997	4.144045E-007	0.0006486	8
	37	97	54.50582	638.3392	-4416.724	1	4462.615	-81.77612	4.067975E-007	0.0007005	8
	38	100	45.95588	749.1056	-5180.005	1	5233.891	-81.77122	5.293424E-008	0.0006282	7
	39	102	37.20238	905.4704	-6283.725	1	6348.628	-81.80025	4.854942E-008	0.0006346	7
	40	104	30.04808	1104.525	-7627.974	1	7707.526	-81.76087	4.301964E-008	0.0006311	7
	41	107	23.91582	1366.295	-9387.166	1	9486.076	-81.71879	4.279951E-008	0.0006199	7
	42	109	18.60119	1727.955	-11797.97	1	11923.84	-81.66759	4.549583E-008	0.000623	7
	43	112	15.02404	2151.75	-14324.29	1	14485	-81.45708	5.32064E-008	0.0006192	7
	44	114	12.01923	2685.21	-17523.85	1	17728.38	-81.28823	4.996668E-008	0.0006162	7
	45	117	9.450605	3442.547	-21796.4	1	22066.58	-81.02478	5.034462E-008	0.0006258	7
	46	119	7.512019	4301.451	-26800.57	1	27143.57	-80.88188	5.281681E-008	0.0006308	7
	47	122	5.978954	5458.585	-32909.2	1	33358.83	-80.58221	5.371335E-008	0.0006247	7
	48	126	4.734848	7058.926	-40605.44	1	41214.44	-80.13815	5.597508E-008	0.0006428	7
	49	130	3.75601	9184.837	-49960.11	1	50797.38	-79.58287	1.158937E-008	0.0006578	6
	50	135	3.004808	11901.41	-60871.91	1	62024.45	-78.93734	1.110648E-008	0.0007042	6
	51	142	2.372217	15763.12	-74990.45	1	76629.26	-78.12915	1.067173E-008	0.0007173	6
	52	146	1.878005	21295.9	-91994.66	1	94427.39	-76.96615	1.088577E-008	0.0006334	6
	53	151	1.512097	28147.92	-110809.3	1	114328.5	-75.74711	1.069434E-008	0.0007671	6
	54	156	1.201923	38231.02	-134304.7	1	139640.1	-74.11053	1.103604E-008	0.0006434	6
	55	162	0.956633	51761.97	-161546.6	1	169636.7	-72.23376	8.834895E-009	2.981902E-005	6
