EXPLAIN
TAG	EISPOT
TITLE	LABEL	Potentiostatic EIS	Test Identifier
DATE	LABEL	9/15/2020	Date
TIME	LABEL	9:59:48	Time
NOTES	NOTES	1	Notes...
	
PSTAT	PSTAT	REF3000-16137	Potentiostat
VDC	POTEN	0.00000E+000	T	DC Voltage (V)
FREQINIT	QUANT	3.00000E+005	Initial Freq. (Hz)
FREQFINAL	QUANT	1.00000E+000	Final Freq. (Hz)
PTSPERDEC	QUANT	1.00000E+001	Points/decade
VAC	QUANT	5.00000E+001	AC Voltage (mV rms)
AREA	QUANT	1.00000E+000	Sample Area (cm^2)
SPEED	SELECTOR	2	Optimize for:
ZGUESS	QUANT	1.00000E+003	Estimated Z (ohms)
EOC	QUANT	0	Open Circuit (V)
SEQUENCER	TOGGLE	TRUE	Run as Sequence
PSTATMODEL	IQUANT	5	Pstat Model
PSTATSECTION	LABEL	REF3000-16137	Pstat Section
PSTATSERIALNO	LABEL	16137	Pstat Serial Number
CTRLMODE	IQUANT	1	Control Mode
IESTAB	IQUANT	0	I/E Stability
CASPEED	IQUANT	1	Control Amp Speed
CONVENTION	IQUANT	1	Current Convention
ICHRANGE	IQUANT	2	Ich Range
ICHRANGEMODE	TOGGLE	F	Ich Auto Range
ICHOFFSETENABLE	TOGGLE	T	Ich Offset Enable
ICHOFFSET	QUANT	0	Ich Offset (V)
ICHFILTER	IQUANT	3	Ich Filter
VCHRANGE	IQUANT	2	Vch Range
VCHRANGEMODE	TOGGLE	F	Vch Auto Range
VCHOFFSETENABLE	TOGGLE	T	Vch Offset Enable
VCHOFFSET	QUANT	0	Vch Offset (V)
VCHFILTER	IQUANT	3	Vch Filter
ACHRANGE	IQUANT	2	Ach Range
ACHOFFSETENABLE	TOGGLE	F	Ach Offset Enable
ACHOFFSET	QUANT	0	Ach Offset (V)
ACHFILTER	IQUANT	3	Ach Filter
IERANGELOWERLIMIT	IQUANT	2	I/E Range Lower Limit
IERANGEMODE	TOGGLE	F	I/E AutoRange
IERANGE	IQUANT	11	I/E Range
POSFEEDENABLE	TOGGLE	F	Positive Feedback IR Comp
POSFEEDRESISTANCE	QUANT	0	Positive Feedback Resistance (ohm)
ACHSELECT	IQUANT	0	Ach Select
CABLEID	IQUANT	13	Cable ID
DCCALDATE	LABEL	7/31/2020	DC Calibration Date
ACCALDATE	LABEL	7/31/2020	AC Calibration Date
THERMOSELECT	IQUANT	1	Thermo Select
FRAMEWORKVERSION	QUANT	6.33	Framework Version
INSTRUMENTVERSION	LABEL	3.50	Instrument Version
COMPLIANCEVOLTAGE	IQUANT	0	Compliance Voltage
ZCURVE	TABLE
	Pt	Time	Freq	Zreal	Zimag	Zsig	Zmod	Zphz	Idc	Vdc	IERange
	#	s	Hz	ohm	ohm	V	ohm	°	A	V	#
	0	7	300046.9	46.10674	-1.550407	1	46.1328	-1.925929	4.296556E-005	-0.0010678	9
	1	10	238359.4	46.62088	-2.706282	1	46.69937	-3.322218	-5.734395E-005	0.0017563	9
	2	13	189328.1	47.18685	-3.866855	1	47.34502	-4.684791	2.243417E-006	-0.0011199	9
	3	16	150421.9	47.73699	-4.931551	1	47.99104	-5.898116	1.582116E-007	-0.0009343	9
	4	18	119484.4	48.51467	-6.109171	1	48.8978	-7.177149	1.311197E-005	0.0004759	9
	5	21	94921.88	49.35884	-7.162255	1	49.87577	-8.256326	-1.449564E-005	0.0003271	9
	6	23	75421.88	50.14841	-8.466206	1	50.85804	-9.58249	1.207719E-005	1.652499E-005	9
	7	26	59859.37	50.99285	-9.9394	1	51.9525	-11.02965	-9.84899E-006	8.411388E-005	9
	8	28	47578.12	51.8911	-11.60483	1	53.17291	-12.60609	1.795036E-005	-0.00054	9
	9	31	37828.12	52.82047	-13.52474	1	54.52449	-14.36209	-1.287279E-005	0.0002082	9
	10	34	30046.88	53.76561	-15.81822	1	56.04424	-16.39425	-1.359519E-005	0.0006545	9
	11	36	23859.38	54.72884	-18.58984	1	57.7999	-18.76117	1.888971E-005	-0.0004742	9
	12	38	18984.38	55.68465	-21.97831	1	59.86507	-21.53877	1.369108E-006	-0.0002217	9
	13	41	15046.87	56.68714	-26.37242	1	62.52149	-24.94914	1.787683E-005	-0.0005193	9
	14	43	11953.13	57.79363	-31.68348	1	65.90862	-28.73232	1.760334E-005	-0.000531	9
	15	45	9515.62	58.94661	-38.2789	1	70.28497	-32.99899	1.41269E-005	-0.0005189	9
	16	48	7546.875	60.30339	-46.7382	1	76.2952	-37.77751	-7.329012E-006	0.000627	9
	17	50	5928.309	61.95405	-57.61143	1	84.6013	-42.91993	2.024812E-005	-0.0003846	9
	18	52	4733.456	63.84997	-70.31127	1	94.97628	-47.75727	2.053364E-005	-0.0003966	9
	19	55	3796.875	65.94498	-85.73378	1	108.162	-52.43312	-8.797801E-006	0.0005941	9
	20	57	2987.132	68.97963	-106.1252	1	126.5731	-56.9768	-9.162459E-006	0.0001053	9
	21	59	2390.625	72.06623	-130.0158	1	148.6528	-61.00091	-9.068873E-006	7.89265E-005	9
	22	61	1884.191	76.13039	-161.0553	1	178.1422	-64.70003	1.904072E-005	-0.0002622	9
	23	64	1516.544	81.16526	-196.3074	1	212.425	-67.53686	-2.68775E-006	0.0004863	9
	24	66	1193.986	87.64451	-243.7545	1	259.0324	-70.22341	-2.920874E-006	-0.0001209	9
	25	69	946.5144	94.70803	-301.8881	1	316.3954	-72.58237	2.025822E-005	-0.0003685	9
	26	71	751.7689	103.998	-373.3742	1	387.5873	-74.43559	-2.999152E-006	0.0005132	9
	27	73	597.4265	115.356	-457.7221	1	472.0344	-75.85477	4.014541E-006	-0.0005576	8
	28	76	477.4305	128.4416	-561.7974	1	576.293	-77.12202	4.27774E-007	0.0006555	8
	29	78	376.6741	145.7901	-698.3473	1	713.4029	-78.20804	4.30691E-007	0.0006496	8
	30	80	298.2954	166.9151	-865.4103	1	881.3601	-79.08319	4.435029E-007	0.000646	8
	31	83	237.7717	192.2847	-1066.153	1	1083.354	-79.77639	4.487418E-007	0.0006451	8
	32	85	189.0121	224.1069	-1317.141	1	1336.071	-80.3438	4.353374E-007	0.0006466	8
	33	87	150.2404	263.6537	-1627.299	1	1648.519	-80.79696	4.475987E-007	0.0006424	8
	34	90	119.1737	312.9762	-2014.007	1	2038.18	-81.1669	4.484999E-007	0.0006456	8
	35	92	95.0169	375.134	-2482.53	1	2510.713	-81.40707	4.584332E-007	0.0006458	8
	36	95	75.60484	452.6169	-3065.29	1	3098.526	-81.60047	4.577761E-007	0.0006432	8
	37	97	54.50582	598.6588	-4142.845	1	4185.875	-81.77744	4.487267E-007	0.0006442	8
	38	100	45.95588	707.6016	-4858.655	1	4909.911	-81.71385	5.790408E-008	0.0006211	7
	39	102	37.20238	861.601	-5902.482	1	5965.036	-81.69504	5.561514E-008	0.0006155	7
	40	104	30.04808	1053.307	-7169.313	1	7246.276	-81.64197	4.803672E-008	0.0006159	7
	41	107	23.91582	1312.449	-8856.908	1	8953.622	-81.57104	4.498549E-008	0.0006214	7
	42	109	18.60119	1682.793	-11129.5	1	11256	-81.40194	5.977564E-008	0.0006277	7
	43	112	15.02404	2066.035	-13498.69	1	13655.88	-81.29816	5.718702E-008	0.0006247	7
	44	114	12.01923	2587.57	-16537.63	1	16738.84	-81.10728	5.279492E-008	0.0006175	7
	45	117	9.450605	3297.471	-20602.14	1	20864.36	-80.90666	5.488581E-008	0.0006181	7
	46	119	7.512019	4219.36	-25345.51	1	25694.31	-80.54843	5.703096E-008	0.000638	7
	47	122	5.978954	5396.8	-31170.21	1	31633.96	-80.17721	5.840663E-008	0.0006161	7
	48	127	4.734848	7016.917	-38502.28	1	39136.46	-79.67139	5.730857E-008	0.0006033	7
	49	130	3.75601	9305.815	-47322.23	1	48228.53	-78.87486	1.128574E-008	0.0006798	6
	50	135	3.004808	12138.98	-57654.57	1	58918.63	-78.11022	1.048866E-008	0.0006675	6
	51	142	2.372217	16369.19	-70922.77	1	72787.3	-77.00355	1.005399E-008	0.0006213	6
	52	146	1.878005	21991.14	-86948.11	1	89686.03	-75.80627	1.144295E-008	0.0006634	6
	53	151	1.512097	28922.55	-104268.1	1	108205.2	-74.49671	1.032719E-008	0.000698	6
	54	156	1.201923	39377.06	-126119.2	1	132123.4	-72.66054	1.096115E-008	0.0006771	6
	55	162	0.956633	53130.15	-150996.2	1	160070.8	-70.61486	8.253664E-009	1.964216E-005	6
