EXPLAIN
TAG	EISPOT
TITLE	LABEL	Potentiostatic EIS	Test Identifier
DATE	LABEL	9/15/2020	Date
TIME	LABEL	8:12:29	Time
NOTES	NOTES	1	Notes...
	
PSTAT	PSTAT	REF3000-16137	Potentiostat
VDC	POTEN	0.00000E+000	T	DC Voltage (V)
FREQINIT	QUANT	3.00000E+005	Initial Freq. (Hz)
FREQFINAL	QUANT	1.00000E+000	Final Freq. (Hz)
PTSPERDEC	QUANT	1.00000E+001	Points/decade
VAC	QUANT	5.00000E+001	AC Voltage (mV rms)
AREA	QUANT	1.00000E+000	Sample Area (cm^2)
SPEED	SELECTOR	2	Optimize for:
ZGUESS	QUANT	1.00000E+003	Estimated Z (ohms)
EOC	QUANT	0	Open Circuit (V)
SEQUENCER	TOGGLE	TRUE	Run as Sequence
PSTATMODEL	IQUANT	5	Pstat Model
PSTATSECTION	LABEL	REF3000-16137	Pstat Section
PSTATSERIALNO	LABEL	16137	Pstat Serial Number
CTRLMODE	IQUANT	1	Control Mode
IESTAB	IQUANT	0	I/E Stability
CASPEED	IQUANT	1	Control Amp Speed
CONVENTION	IQUANT	1	Current Convention
ICHRANGE	IQUANT	2	Ich Range
ICHRANGEMODE	TOGGLE	F	Ich Auto Range
ICHOFFSETENABLE	TOGGLE	T	Ich Offset Enable
ICHOFFSET	QUANT	0	Ich Offset (V)
ICHFILTER	IQUANT	3	Ich Filter
VCHRANGE	IQUANT	2	Vch Range
VCHRANGEMODE	TOGGLE	F	Vch Auto Range
VCHOFFSETENABLE	TOGGLE	T	Vch Offset Enable
VCHOFFSET	QUANT	0	Vch Offset (V)
VCHFILTER	IQUANT	3	Vch Filter
ACHRANGE	IQUANT	2	Ach Range
ACHOFFSETENABLE	TOGGLE	F	Ach Offset Enable
ACHOFFSET	QUANT	0	Ach Offset (V)
ACHFILTER	IQUANT	3	Ach Filter
IERANGELOWERLIMIT	IQUANT	2	I/E Range Lower Limit
IERANGEMODE	TOGGLE	F	I/E AutoRange
IERANGE	IQUANT	11	I/E Range
POSFEEDENABLE	TOGGLE	F	Positive Feedback IR Comp
POSFEEDRESISTANCE	QUANT	0	Positive Feedback Resistance (ohm)
ACHSELECT	IQUANT	0	Ach Select
CABLEID	IQUANT	13	Cable ID
DCCALDATE	LABEL	7/31/2020	DC Calibration Date
ACCALDATE	LABEL	7/31/2020	AC Calibration Date
THERMOSELECT	IQUANT	1	Thermo Select
FRAMEWORKVERSION	QUANT	6.33	Framework Version
INSTRUMENTVERSION	LABEL	3.50	Instrument Version
COMPLIANCEVOLTAGE	IQUANT	0	Compliance Voltage
ZCURVE	TABLE
	Pt	Time	Freq	Zreal	Zimag	Zsig	Zmod	Zphz	Idc	Vdc	IERange
	#	s	Hz	ohm	ohm	V	ohm	°	A	V	#
	0	14	300046.9	-144.1392	-4896.679	1	4898.8	-91.68608	1.61044E-006	0.0015168	9
	1	28	238359.4	47.644	-6112.971	1	6113.156	-89.55345	2.071066E-005	-0.0009478	9
	2	43	189328.1	-246.6062	-7741.023	1	7744.951	-91.82466	7.713735E-005	-0.0015753	9
	3	51	150421.9	16.00664	-9251.669	1	9251.683	-89.90087	-5.883527E-005	0.0005483	9
	4	61	119484.4	503.9266	-11943.57	1	11954.2	-87.58399	2.581845E-005	0.0083471	8
	5	68	94921.88	437.0772	-14654.7	1	14661.21	-88.29166	2.301374E-005	-0.0027446	8
	6	77	75421.88	663.1263	-18862.8	1	18874.46	-87.98658	8.128014E-006	-0.0076371	8
	7	86	59859.37	192.088	-23238.49	1	23239.28	-89.52641	8.146437E-006	0.0042097	8
	8	94	47578.12	4189.588	-30611.58	1	30896.95	-82.20676	1.382563E-006	-0.0201611	7
	9	101	37828.12	4331.039	-37891.68	1	38138.4	-83.47936	-6.787216E-006	0.0120405	7
	10	108	30046.88	4412.713	-46658.51	1	46866.71	-84.59734	-7.351376E-006	0.0188817	7
	11	115	23859.38	4750.873	-58160.16	1	58353.88	-85.3301	1.384646E-006	-0.020263	7
	12	121	18984.38	4455.377	-73536.6	1	73671.45	-86.53284	-5.472124E-006	0.0268636	7
	13	126	15046.87	5666.82	-92413.26	1	92586.84	-86.49099	-6.710564E-006	0.0118901	7
	14	133	11953.13	-721.4747	-117138.1	1	117140.3	-90.35289	2.504928E-005	-0.0049088	8
	15	140	9515.62	8546.748	-137334.9	1	137600.6	-86.43891	-1.017337E-006	-0.0049919	8
	16	149	7546.875	2125.569	-185425.7	1	185437.9	-89.34324	4.940709E-006	-0.0005349	7
	17	154	5928.309	8280.481	-225298.3	1	225450.4	-87.89513	-5.380588E-006	0.0267351	7
	18	161	4733.456	-41823.86	-343259	1	345797.6	-96.9469	2.750634E-006	0.0086441	7
	19	167	3796.875	27331.99	-362621.1	1	363649.7	-85.68958	1.376287E-006	-0.0202727	7
	20	174	2987.132	40867.96	-479936	1	481672.9	-85.13284	-6.851088E-007	0.0261981	6
	21	179	2390.625	12162.93	-667058.9	1	667169.8	-88.95541	6.924519E-006	-0.0271148	7
	22	185	1884.191	43348.58	-654617.9	1	656051.6	-86.21143	4.928865E-006	-0.0006359	7
	23	192	1516.544	195670.3	-680956.4	1	708511.4	-73.96819	5.364315E-006	-0.0268842	7
	24	198	1193.986	439880.4	-1584055	1	1643997	-74.48042	-7.258442E-006	0.0234493	7
	25	205	946.5144	499963.4	2712510	1	2758201	79.55659	7.650596E-006	-0.024551	7
	26	211	751.7689	1021824	-634970	1	1203043	-31.85715	7.637472E-006	-0.0183174	7
	27	218	597.4265	207154.1	-357408.1	1	413102.2	-59.90338	2.203144E-005	-0.0095387	8
	28	225	477.4305	47052.71	-2843385	1	2843775	-89.05195	-8.360226E-008	0.0005656	7
	29	231	376.6741	486268.4	-3733417	1	3764951	-82.57914	-8.743666E-010	0.0005919	5
	30	235	298.2954	527059.6	-4660791	1	4690497	-83.54819	-9.51489E-010	0.0006803	5
	31	239	237.7717	534991.7	-5893981	1	5918211	-84.81352	-9.598685E-010	0.0006423	5
	32	241	189.0121	604218.6	-7200569	1	7225876	-85.2034	-9.481776E-010	0.0006931	5
	33	244	150.2404	517016.6	-8811164	1	8826320	-86.64188	-8.685586E-010	0.0006153	5
	34	247	119.1737	2167578	-8855237	1	9116667	-76.24564	-9.306428E-010	0.0006156	5
	35	250	95.0169	616353.3	-1.44954E+007	1	1.45085E+007	-87.56522	-1.038425E-009	0.0006843	5
	36	253	75.60484	2651657	-1.824194E+007	1	1.843366E+007	-81.72939	-1.028768E-009	0.0007185	5
	37	256	54.50582	509345	-2.535924E+007	1	2.536436E+007	-88.84936	-9.423563E-010	0.0005881	5
	38	259	45.95588	-1262165	-2.906508E+007	1	2.909247E+007	-92.48653	-8.871285E-010	0.0006281	5
	39	262	37.20238	-2887842	-3.684944E+007	1	3.696243E+007	-94.48103	-8.772359E-010	0.0006055	5
	40	266	30.04808	5548016	-4.571262E+007	1	4.604807E+007	-83.08001	-1.07153E-010	0.0006158	4
	41	270	23.91582	-1915340	-6.055449E+007	1	6.058477E+007	-91.81166	-3.303044E-012	0.0005923	4
	42	274	18.60119	3.956965E+007	-4.895434E+007	1	6.294668E+007	-51.05149	1.822098E-010	0.0006475	4
	43	278	15.02404	6524836	-9.005993E+007	1	9.029598E+007	-85.85616	-8.308164E-011	0.0007172	4
	44	281	12.01923	1.020814E+007	-1.117921E+008	1	1.122572E+008	-84.78259	-9.492888E-011	0.0006381	4
	45	285	9.450605	1.722412E+007	-1.372182E+008	1	1.38295E+008	-82.84545	-9.530647E-011	0.0006977	4
	46	289	7.512019	5641186	-1.816136E+008	1	1.817012E+008	-88.22088	-6.621392E-011	0.0006247	4
	47	293	5.978954	1.782897E+007	-1.910292E+008	1	1.918593E+008	-84.66797	-1.147884E-010	0.0006186	4
	48	299	4.734848	8.007711E+007	-2.833501E+008	1	2.94448E+008	-74.21927	-8.207631E-012	0.0007983	3
	49	304	3.75601	7.317362E+007	-2.952607E+008	1	3.041928E+008	-76.08099	-1.004133E-009	0.0006931	5
	50	312	3.004808	8.333942E+007	-4.017857E+008	1	4.103379E+008	-78.28173	-1.018717E-009	0.0006714	5
	51	321	2.372217	1.763631E+008	-5.153122E+008	1	5.446564E+008	-71.10674	-8.556084E-012	0.0006627	3
	52	328	1.878005	2.409278E+008	-6.287304E+008	1	6.733113E+008	-69.0333	-8.303467E-012	0.0007232	3
	53	337	1.512097	3.23897E+008	-7.43337E+008	1	8.108386E+008	-66.45562	-8.114545E-012	0.0007176	3
	54	344	1.201923	4.464692E+008	-8.830115E+008	1	9.894666E+008	-63.17788	-8.012861E-012	0.0007416	3
	55	356	0.956633	6.088259E+008	-1.021276E+009	1	1.18898E+009	-59.19903	-8.299676E-012	8.081827E-005	3
