EXPLAIN
TAG	EISPOT
TITLE	LABEL	Potentiostatic EIS	Test Identifier
DATE	LABEL	9/15/2020	Date
TIME	LABEL	3:40:56	Time
NOTES	NOTES	1	Notes...
	
PSTAT	PSTAT	REF3000-16137	Potentiostat
VDC	POTEN	0.00000E+000	T	DC Voltage (V)
FREQINIT	QUANT	3.00000E+005	Initial Freq. (Hz)
FREQFINAL	QUANT	1.00000E+000	Final Freq. (Hz)
PTSPERDEC	QUANT	1.00000E+001	Points/decade
VAC	QUANT	5.00000E+001	AC Voltage (mV rms)
AREA	QUANT	1.00000E+000	Sample Area (cm^2)
SPEED	SELECTOR	2	Optimize for:
ZGUESS	QUANT	1.00000E+003	Estimated Z (ohms)
EOC	QUANT	0	Open Circuit (V)
SEQUENCER	TOGGLE	TRUE	Run as Sequence
PSTATMODEL	IQUANT	5	Pstat Model
PSTATSECTION	LABEL	REF3000-16137	Pstat Section
PSTATSERIALNO	LABEL	16137	Pstat Serial Number
CTRLMODE	IQUANT	1	Control Mode
IESTAB	IQUANT	0	I/E Stability
CASPEED	IQUANT	1	Control Amp Speed
CONVENTION	IQUANT	1	Current Convention
ICHRANGE	IQUANT	2	Ich Range
ICHRANGEMODE	TOGGLE	F	Ich Auto Range
ICHOFFSETENABLE	TOGGLE	T	Ich Offset Enable
ICHOFFSET	QUANT	0	Ich Offset (V)
ICHFILTER	IQUANT	3	Ich Filter
VCHRANGE	IQUANT	2	Vch Range
VCHRANGEMODE	TOGGLE	F	Vch Auto Range
VCHOFFSETENABLE	TOGGLE	T	Vch Offset Enable
VCHOFFSET	QUANT	0	Vch Offset (V)
VCHFILTER	IQUANT	3	Vch Filter
ACHRANGE	IQUANT	2	Ach Range
ACHOFFSETENABLE	TOGGLE	F	Ach Offset Enable
ACHOFFSET	QUANT	0	Ach Offset (V)
ACHFILTER	IQUANT	3	Ach Filter
IERANGELOWERLIMIT	IQUANT	2	I/E Range Lower Limit
IERANGEMODE	TOGGLE	F	I/E AutoRange
IERANGE	IQUANT	11	I/E Range
POSFEEDENABLE	TOGGLE	F	Positive Feedback IR Comp
POSFEEDRESISTANCE	QUANT	0	Positive Feedback Resistance (ohm)
ACHSELECT	IQUANT	0	Ach Select
CABLEID	IQUANT	13	Cable ID
DCCALDATE	LABEL	7/31/2020	DC Calibration Date
ACCALDATE	LABEL	7/31/2020	AC Calibration Date
THERMOSELECT	IQUANT	1	Thermo Select
FRAMEWORKVERSION	QUANT	6.33	Framework Version
INSTRUMENTVERSION	LABEL	3.50	Instrument Version
COMPLIANCEVOLTAGE	IQUANT	0	Compliance Voltage
ZCURVE	TABLE
	Pt	Time	Freq	Zreal	Zimag	Zsig	Zmod	Zphz	Idc	Vdc	IERange
	#	s	Hz	ohm	ohm	V	ohm	°	A	V	#
	0	10	300046.9	242.8788	-17.10258	1	243.4802	-4.027897	-7.680977E-005	0.0033543	9
	1	14	238359.4	244.9174	-18.16693	1	245.5903	-4.242188	-8.604808E-005	0.0021597	9
	2	20	189328.1	247.3966	-22.44173	1	248.4124	-5.183202	2.767669E-007	0.0006354	10
	3	24	150421.9	248.4339	-21.4448	1	249.3578	-4.933538	1.930501E-005	-0.0003815	9
	4	28	119484.4	250.8292	-22.55536	1	251.8413	-5.138397	4.979741E-005	-5.69525E-005	9
	5	32	94921.88	253.5726	-24.95654	1	254.7977	-5.620933	2.607667E-005	-0.0007842	9
	6	35	75421.88	256.5128	-27.90754	1	258.0265	-6.209123	2.193493E-005	-0.0008754	9
	7	39	59859.37	259.8633	-31.40313	1	261.7539	-6.890486	-2.415819E-005	0.0008392	9
	8	42	47578.12	263.8504	-35.19896	1	266.1879	-7.598678	2.704022E-005	-0.0006842	9
	9	46	37828.12	267.798	-39.92352	1	270.7576	-8.479247	8.144025E-006	-0.0006695	9
	10	50	30046.88	272.4839	-44.87339	1	276.1541	-9.351687	-1.098114E-006	-0.0004008	9
	11	54	23859.38	277.644	-50.80949	1	282.2549	-10.37051	-1.303111E-006	-0.0003974	9
	12	56	18984.38	282.8255	-56.95205	1	288.5027	-11.38529	1.163502E-005	0.0003111	9
	13	58	15046.87	288.46	-64.78075	1	295.6445	-12.65718	-1.82758E-005	0.0003711	9
	14	61	11953.13	293.5923	-73.67169	1	302.6945	-14.08649	-9.54202E-006	-9.457849E-005	9
	15	63	9515.62	299.7971	-84.41331	1	311.4546	-15.72552	2.729539E-005	-0.0006309	9
	16	65	7546.875	305.7397	-97.6369	1	320.9513	-17.7107	-1.535179E-005	0.0001202	9
	17	68	5928.309	311.6286	-114.9496	1	332.1533	-20.24737	1.55794E-005	-0.0007884	9
	18	70	4733.456	317.5633	-134.2581	1	344.7778	-22.91747	-8.90686E-006	-0.0001262	9
	19	72	3796.875	323.5365	-160.0852	1	360.9753	-26.32612	-9.391142E-006	-0.0000971	9
	20	75	2987.132	328.8217	-194.5983	1	382.0893	-30.61726	1.49372E-006	0.0006004	9
	21	77	2390.625	333.9375	-232.1004	1	406.6753	-34.8009	-3.889254E-006	0.0039993	8
	22	79	1884.191	344.9101	-284.9365	1	447.3833	-39.56073	1.087813E-005	-0.0037012	8
	23	82	1516.544	351.6458	-344.4681	1	492.2531	-44.40924	-9.951768E-006	0.0025249	8
	24	84	1193.986	363.162	-428.1205	1	561.4034	-49.69305	5.500131E-006	-0.0031376	8
	25	87	946.5144	374.9386	-526.044	1	645.9886	-54.52058	-1.114318E-005	0.0039667	8
	26	89	751.7689	391.6965	-650.3073	1	759.1613	-58.93838	1.178746E-005	-0.003224	8
	27	91	597.4265	410.03	-798.9139	1	897.9911	-62.83155	-1.049913E-005	0.0039092	8
	28	94	477.4305	432.3617	-982.484	1	1073.411	-66.24715	2.870236E-008	0.000654	8
	29	96	376.6741	461.8577	-1221.698	1	1306.085	-69.29111	-6.485805E-009	0.0006887	8
	30	98	298.2954	497.7324	-1514.477	1	1594.17	-71.80691	4.574942E-008	0.0006411	8
	31	101	237.7717	540.8203	-1866.571	1	1943.341	-73.84158	9.619251E-009	0.0006484	8
	32	103	189.0121	594.699	-2307.042	1	2382.458	-75.54523	1.008741E-008	0.0006511	8
	33	105	150.2404	661.2404	-2851.936	1	2927.589	-76.94624	3.14005E-008	0.0006391	8
	34	108	119.1737	744.9241	-3532.164	1	3609.86	-78.09098	2.055598E-008	0.0006449	8
	35	110	95.0169	847.8987	-4362.917	1	4444.544	-79.00211	-7.728833E-009	0.0006212	7
	36	113	75.60484	973.313	-5388.494	1	5475.692	-79.76118	-6.185211E-009	0.0006183	7
	37	115	54.50582	1204.992	-7290.101	1	7389.018	-80.61435	-9.280842E-009	0.0006209	7
	38	118	45.95588	1357.792	-8533.879	1	8641.221	-80.95966	-7.394581E-009	0.0006264	7
	39	120	37.20238	1583.879	-10372.04	1	10492.28	-81.31763	-7.360689E-009	0.0006439	7
	40	123	30.04808	1858.75	-12634.73	1	12770.72	-81.631	-4.636235E-009	0.0006115	7
	41	125	23.91582	2222.376	-15596.03	1	15753.57	-81.89016	-4.578708E-009	0.000607	7
	42	127	18.60119	2741.851	-19677.87	1	19867.97	-82.06767	-4.916213E-009	0.0006276	7
	43	130	15.02404	3266.596	-23968.76	1	24190.33	-82.23923	-6.256117E-009	0.0006255	7
	44	132	12.01923	3962.661	-29476.35	1	29741.52	-82.34333	-8.362846E-009	0.0006702	7
	45	134	9.450605	4886.429	-36794.41	1	37117.46	-82.43518	-4.724267E-009	0.0006236	7
	46	137	7.512019	6018.302	-45491.32	1	45887.7	-82.46378	-4.671692E-010	0.0006843	6
	47	140	5.978954	7389.483	-56103.16	1	56587.71	-82.49663	-2.140968E-010	0.0006522	6
	48	143	4.734848	9093.07	-69592.28	1	70183.83	-82.55579	6.748841E-010	0.000677	6
	49	146	3.75601	11253.35	-86090.89	1	86823.27	-82.55282	-7.174849E-010	0.0006521	6
	50	151	3.004808	13818.57	-105648.9	1	106548.8	-82.54818	-2.523403E-010	0.000681	6
	51	158	2.372217	17343.54	-131304.5	1	132445	-82.47557	-5.862582E-010	0.0007463	6
	52	162	1.878005	21528.85	-163276	1	164689.2	-82.48856	-8.673161E-010	0.0006435	6
	53	167	1.512097	26364.86	-198914.2	1	200653.9	-82.44981	-3.207957E-010	0.000639	6
	54	172	1.201923	33361.29	-246545.8	1	248792.7	-82.29384	-7.597123E-010	0.0006348	6
	55	178	0.956633	42289.29	-304096.9	1	307023.3	-82.08293	-8.026941E-010	2.77919E-005	6
