EXPLAIN
TAG	EISPOT
TITLE	LABEL	Potentiostatic EIS	Test Identifier
DATE	LABEL	9/15/2020	Date
TIME	LABEL	1:39:59	Time
NOTES	NOTES	1	Notes...
	
PSTAT	PSTAT	REF3000-16137	Potentiostat
VDC	POTEN	0.00000E+000	T	DC Voltage (V)
FREQINIT	QUANT	3.00000E+005	Initial Freq. (Hz)
FREQFINAL	QUANT	1.00000E+000	Final Freq. (Hz)
PTSPERDEC	QUANT	1.00000E+001	Points/decade
VAC	QUANT	5.00000E+001	AC Voltage (mV rms)
AREA	QUANT	1.00000E+000	Sample Area (cm^2)
SPEED	SELECTOR	2	Optimize for:
ZGUESS	QUANT	1.00000E+003	Estimated Z (ohms)
EOC	QUANT	0	Open Circuit (V)
SEQUENCER	TOGGLE	TRUE	Run as Sequence
PSTATMODEL	IQUANT	5	Pstat Model
PSTATSECTION	LABEL	REF3000-16137	Pstat Section
PSTATSERIALNO	LABEL	16137	Pstat Serial Number
CTRLMODE	IQUANT	1	Control Mode
IESTAB	IQUANT	0	I/E Stability
CASPEED	IQUANT	1	Control Amp Speed
CONVENTION	IQUANT	1	Current Convention
ICHRANGE	IQUANT	2	Ich Range
ICHRANGEMODE	TOGGLE	F	Ich Auto Range
ICHOFFSETENABLE	TOGGLE	T	Ich Offset Enable
ICHOFFSET	QUANT	0	Ich Offset (V)
ICHFILTER	IQUANT	3	Ich Filter
VCHRANGE	IQUANT	2	Vch Range
VCHRANGEMODE	TOGGLE	F	Vch Auto Range
VCHOFFSETENABLE	TOGGLE	T	Vch Offset Enable
VCHOFFSET	QUANT	0	Vch Offset (V)
VCHFILTER	IQUANT	3	Vch Filter
ACHRANGE	IQUANT	2	Ach Range
ACHOFFSETENABLE	TOGGLE	F	Ach Offset Enable
ACHOFFSET	QUANT	0	Ach Offset (V)
ACHFILTER	IQUANT	3	Ach Filter
IERANGELOWERLIMIT	IQUANT	2	I/E Range Lower Limit
IERANGEMODE	TOGGLE	F	I/E AutoRange
IERANGE	IQUANT	11	I/E Range
POSFEEDENABLE	TOGGLE	F	Positive Feedback IR Comp
POSFEEDRESISTANCE	QUANT	0	Positive Feedback Resistance (ohm)
ACHSELECT	IQUANT	0	Ach Select
CABLEID	IQUANT	13	Cable ID
DCCALDATE	LABEL	7/31/2020	DC Calibration Date
ACCALDATE	LABEL	7/31/2020	AC Calibration Date
THERMOSELECT	IQUANT	1	Thermo Select
FRAMEWORKVERSION	QUANT	6.33	Framework Version
INSTRUMENTVERSION	LABEL	3.50	Instrument Version
COMPLIANCEVOLTAGE	IQUANT	0	Compliance Voltage
ZCURVE	TABLE
	Pt	Time	Freq	Zreal	Zimag	Zsig	Zmod	Zphz	Idc	Vdc	IERange
	#	s	Hz	ohm	ohm	V	ohm	°	A	V	#
	0	7	300046.9	67.91427	-2.943428	1	67.97802	-2.481666	1.435603E-005	-0.0014363	9
	1	10	238359.4	68.28161	-4.25739	1	68.41421	-3.5678	-9.469515E-006	0.0003906	9
	2	13	189328.1	69.15465	-5.539359	1	69.37614	-4.579673	-7.004636E-005	0.0024298	9
	3	16	150421.9	69.90733	-6.961458	1	70.25309	-5.686836	-2.95322E-005	-0.0001503	9
	4	18	119484.4	70.92438	-8.423435	1	71.42284	-6.773088	-5.46179E-007	0.0009991	9
	5	21	94921.88	72.11997	-9.6072	1	72.75705	-7.587774	-1.729543E-005	0.0004586	9
	6	23	75421.88	73.24133	-11.31112	1	74.1096	-8.779188	-1.45435E-005	0.0007523	9
	7	26	59859.37	74.49386	-13.17775	1	75.65044	-10.03168	1.067796E-005	-0.0005548	9
	8	28	47578.12	75.85707	-15.21764	1	77.36842	-11.3435	4.322501E-006	-0.0004154	9
	9	31	37828.12	77.28713	-17.47312	1	79.23769	-12.7393	1.653701E-005	-0.0006395	9
	10	33	30046.88	78.71238	-20.14451	1	81.24924	-14.35534	-3.421634E-006	0.0006277	9
	11	36	23859.38	80.19523	-23.39769	1	83.53877	-16.26509	2.154762E-005	-0.0002575	9
	12	38	18984.38	81.68084	-27.29211	1	86.1198	-18.47608	1.865598E-005	-0.0001763	9
	13	41	15046.87	83.10488	-32.23568	1	89.13787	-21.20085	-1.548968E-005	0.0007438	9
	14	43	11953.13	84.6774	-38.35714	1	92.95984	-24.36956	-1.620595E-005	0.0003969	9
	15	45	9515.62	86.22913	-45.84086	1	97.6568	-27.99586	4.336211E-006	0.0004134	9
	16	48	7546.875	87.96205	-55.59722	1	104.0595	-32.29531	1.656944E-005	-0.0006109	9
	17	50	5928.309	90.05975	-68.07285	1	112.8923	-37.08429	-1.789878E-005	0.0005061	9
	18	52	4733.456	92.17889	-82.7571	1	123.8777	-41.91711	-2.718919E-006	-0.0001798	9
	19	55	3796.875	95.0092	-100.4191	1	138.2416	-46.58568	-1.801127E-005	0.0007767	9
	20	57	2987.132	98.0842	-124.7281	1	158.6745	-51.81906	2.170027E-005	-0.0005353	9
	21	59	2390.625	101.7214	-152.5713	1	183.3718	-56.30807	1.768059E-005	-0.0001619	9
	22	62	1884.191	106.8059	-189.5804	1	217.5965	-60.60394	2.272323E-005	-0.0005558	9
	23	64	1516.544	112.4707	-230.4822	1	256.4599	-63.98854	1.072811E-005	-0.0005258	9
	24	66	1193.986	119.48	-286.8932	1	310.7783	-67.39014	-4.30419E-006	0.0006271	9
	25	69	946.5144	129.1316	-354.2104	1	377.0145	-69.97008	-2.966773E-006	0.0006447	9
	26	71	751.7689	138.2637	-435.8557	1	457.2604	-72.39974	2.588137E-006	0.0008181	8
	27	73	597.4265	151.4691	-537.4404	1	558.3771	-74.26035	-2.353248E-006	0.0022153	8
	28	76	477.4305	166.9949	-660.7233	1	681.5002	-75.8158	3.562437E-007	0.0006472	8
	29	78	376.6741	187.1994	-821.5913	1	842.6481	-77.1643	3.47408E-007	0.0006576	8
	30	80	298.2954	211.6561	-1018.346	1	1040.109	-78.25864	3.631887E-007	0.0006507	8
	31	83	237.7717	240.9654	-1254.845	1	1277.772	-79.12992	3.481193E-007	0.000652	8
	32	85	189.0121	277.4786	-1550.43	1	1575.064	-79.85326	3.499536E-007	0.0006477	8
	33	87	150.2404	322.6032	-1915.818	1	1942.789	-80.44167	3.50015E-007	0.0006502	8
	34	90	119.1737	378.7605	-2372	1	2402.05	-80.92761	3.558897E-007	0.0006487	8
	35	92	95.0169	447.6143	-2924.794	1	2958.848	-81.29889	3.615098E-007	0.000648	8
	36	95	75.60484	532.9684	-3611.529	1	3650.644	-81.60522	3.726611E-007	0.0006401	8
	37	97	54.50582	695.3865	-4897.334	1	4946.458	-81.91843	3.072568E-008	0.0006307	7
	38	100	45.95588	804.8946	-5735.601	1	5791.802	-82.01167	3.957268E-008	0.0006289	7
	39	102	37.20238	963.992	-6966.984	1	7033.36	-82.12225	3.708319E-008	0.0006207	7
	40	105	30.04808	1161.483	-8483.188	1	8562.332	-82.20377	3.194569E-008	0.0006188	7
	41	107	23.91582	1426.26	-10488.9	1	10585.42	-82.25652	3.172104E-008	0.0006181	7
	42	109	18.60119	1804.64	-13216.11	1	13338.75	-82.22444	3.477275E-008	0.0006224	7
	43	112	15.02404	2193.591	-16078.59	1	16227.54	-82.23114	4.308296E-008	0.00063	7
	44	114	12.01923	2721.519	-19753.75	1	19940.34	-82.15561	3.486E-008	0.0006184	7
	45	116	9.450605	3436.846	-24635.79	1	24874.36	-82.05814	3.890475E-008	0.0006151	7
	46	119	7.512019	4345.73	-30439.16	1	30747.81	-81.87492	3.98659E-008	0.0006416	7
	47	122	5.978954	5515.863	-37529.52	1	37932.7	-81.63887	4.131491E-008	0.0006195	7
	48	126	4.734848	7130.445	-46501.55	1	47045.05	-81.2823	4.60128E-009	0.000661	6
	49	130	3.75601	9173.106	-57406.37	1	58134.65	-80.92132	5.761218E-009	0.0006794	6
	50	135	3.004808	11742.82	-70240.98	1	71215.8	-80.50912	4.663118E-009	0.000697	6
	51	142	2.372217	15369.52	-86838.14	1	88187.78	-79.96314	4.544963E-009	0.0006942	6
	52	146	1.878005	20339.52	-107107	1	109021.1	-79.24761	5.116344E-009	0.0006439	6
	53	150	1.512097	26201.27	-129733.2	1	132352.6	-78.58198	4.726998E-009	0.0007666	6
	54	156	1.201923	34481.67	-158617.1	1	162321.8	-77.73534	5.186914E-009	0.0006499	6
	55	162	0.956633	45081.71	-192988.2	1	198183.7	-76.85158	3.785727E-009	2.686796E-005	6
