EXPLAIN
TAG	EISPOT
TITLE	LABEL	Potentiostatic EIS	Test Identifier
DATE	LABEL	9/15/2020	Date
TIME	LABEL	6:28:33	Time
NOTES	NOTES	1	Notes...
	
PSTAT	PSTAT	REF3000-16137	Potentiostat
VDC	POTEN	0.00000E+000	T	DC Voltage (V)
FREQINIT	QUANT	3.00000E+005	Initial Freq. (Hz)
FREQFINAL	QUANT	1.00000E+000	Final Freq. (Hz)
PTSPERDEC	QUANT	1.00000E+001	Points/decade
VAC	QUANT	5.00000E+001	AC Voltage (mV rms)
AREA	QUANT	1.00000E+000	Sample Area (cm^2)
SPEED	SELECTOR	2	Optimize for:
ZGUESS	QUANT	1.00000E+003	Estimated Z (ohms)
EOC	QUANT	0	Open Circuit (V)
SEQUENCER	TOGGLE	TRUE	Run as Sequence
PSTATMODEL	IQUANT	5	Pstat Model
PSTATSECTION	LABEL	REF3000-16137	Pstat Section
PSTATSERIALNO	LABEL	16137	Pstat Serial Number
CTRLMODE	IQUANT	1	Control Mode
IESTAB	IQUANT	0	I/E Stability
CASPEED	IQUANT	1	Control Amp Speed
CONVENTION	IQUANT	1	Current Convention
ICHRANGE	IQUANT	2	Ich Range
ICHRANGEMODE	TOGGLE	F	Ich Auto Range
ICHOFFSETENABLE	TOGGLE	T	Ich Offset Enable
ICHOFFSET	QUANT	0	Ich Offset (V)
ICHFILTER	IQUANT	3	Ich Filter
VCHRANGE	IQUANT	2	Vch Range
VCHRANGEMODE	TOGGLE	F	Vch Auto Range
VCHOFFSETENABLE	TOGGLE	T	Vch Offset Enable
VCHOFFSET	QUANT	0	Vch Offset (V)
VCHFILTER	IQUANT	3	Vch Filter
ACHRANGE	IQUANT	2	Ach Range
ACHOFFSETENABLE	TOGGLE	F	Ach Offset Enable
ACHOFFSET	QUANT	0	Ach Offset (V)
ACHFILTER	IQUANT	3	Ach Filter
IERANGELOWERLIMIT	IQUANT	2	I/E Range Lower Limit
IERANGEMODE	TOGGLE	F	I/E AutoRange
IERANGE	IQUANT	11	I/E Range
POSFEEDENABLE	TOGGLE	F	Positive Feedback IR Comp
POSFEEDRESISTANCE	QUANT	0	Positive Feedback Resistance (ohm)
ACHSELECT	IQUANT	0	Ach Select
CABLEID	IQUANT	13	Cable ID
DCCALDATE	LABEL	7/31/2020	DC Calibration Date
ACCALDATE	LABEL	7/31/2020	AC Calibration Date
THERMOSELECT	IQUANT	1	Thermo Select
FRAMEWORKVERSION	QUANT	6.33	Framework Version
INSTRUMENTVERSION	LABEL	3.50	Instrument Version
COMPLIANCEVOLTAGE	IQUANT	0	Compliance Voltage
ZCURVE	TABLE
	Pt	Time	Freq	Zreal	Zimag	Zsig	Zmod	Zphz	Idc	Vdc	IERange
	#	s	Hz	ohm	ohm	V	ohm	°	A	V	#
	0	18	300046.9	405.9079	-4841.983	1	4858.967	-85.20805	9.114826E-005	-0.0035737	9
	1	34	238359.4	796.0477	-5877.674	1	5931.335	-82.28703	-1.596025E-005	0.0018095	9
	2	50	189328.1	1089.661	-7169.699	1	7252.03	-81.35824	8.372737E-005	-0.0033884	9
	3	64	150421.9	1823.937	-8833.873	1	9020.203	-78.33403	1.870064E-005	-0.0002624	9
	4	72	119484.4	3053.042	-11132.95	1	11543.98	-74.66451	-5.949946E-005	0.0065495	8
	5	80	94921.88	4410.975	-13325.27	1	14036.36	-71.68425	-1.574814E-005	0.0005883	8
	6	88	75421.88	6277.732	-16032.32	1	17217.58	-68.61631	8.09513E-006	0.0041621	8
	7	97	59859.37	9233.107	-18588.28	1	20755.11	-63.58564	-1.208979E-005	0.0102706	8
	8	105	47578.12	15855.64	-21156.22	1	26438.37	-53.15009	-5.157567E-006	0.0030447	7
	9	114	37828.12	20093.31	-23037.1	1	30568.76	-48.90456	-7.255167E-006	0.0183408	7
	10	121	30046.88	25142.11	-24180.04	1	34882.66	-43.88254	-9.1136E-007	-0.0135695	7
	11	129	23859.38	31131.86	-24591.01	1	39672.54	-38.30515	1.457326E-006	-0.0201363	7
	12	134	18984.38	35413.25	-23712.35	1	42618.94	-33.80586	-6.605809E-006	0.0115595	7
	13	139	15046.87	41019.31	-21122.18	1	46138.16	-27.24541	3.1407E-007	0.0166207	7
	14	145	11953.13	44551.25	-20268.09	1	48944.96	-24.46262	5.291961E-006	-0.0271258	7
	15	150	9515.62	47491.62	-17166.16	1	50498.82	-19.87273	1.419128E-006	-0.0200337	7
	16	155	7546.875	49516.07	-14685.86	1	51648	-16.51971	-6.612915E-006	0.0114768	7
	17	161	5928.309	51812.21	-12137.77	1	53214.95	-13.18462	-9.160018E-007	-0.0137101	7
	18	166	4733.456	52363.62	-10857.4	1	53477.39	-11.71407	2.639487E-006	0.0089354	7
	19	172	3796.875	53926.85	-9756.47	1	54802.32	-10.25505	-1.897108E-006	0.0221788	7
	20	177	2987.132	55051.18	-7552.21	1	55566.79	-7.811377	-7.230518E-006	0.0182854	7
	21	182	2390.625	54119.82	-8982.83	1	54860.25	-9.424061	1.415953E-006	-0.0198465	7
	22	188	1884.191	57395.16	-6524.766	1	57764.84	-6.485625	4.806151E-006	-0.0002952	7
	23	193	1516.544	57294.73	-6896.76	1	57708.34	-6.863861	-3.779562E-006	0.0253285	7
	24	198	1193.986	59567.88	-4987.465	1	59776.3	-4.786066	-1.832468E-006	0.0220268	7
	25	204	946.5144	59511.09	-10027.3	1	60349.95	-9.5642	-6.790496E-006	0.0118994	7
	26	208	751.7689	62966.82	-2030.898	1	62999.56	-1.847347	-7.329039E-006	0.0189135	7
	27	211	597.4265	60009.58	-7018.626	1	60418.63	-6.670917	-3.352801E-006	-0.0048289	7
	28	215	477.4305	61552.68	-8006.303	1	62071.19	-7.41099	-8.20181E-008	0.0005985	7
	29	218	376.6741	62805.65	-8093.269	1	63324.96	-7.342791	-8.504866E-009	0.0006297	6
	30	221	298.2954	63893.71	-9169.573	1	64548.34	-8.166921	-8.507646E-009	0.0006363	6
	31	223	237.7717	64978.52	-10365.42	1	65800.08	-9.063498	-8.36381E-009	0.0006434	6
	32	226	189.0121	66294.29	-11693.27	1	67317.65	-10.00319	-9.284562E-009	0.0007061	6
	33	228	150.2404	67744.59	-13182.77	1	69015.32	-11.01186	-8.251742E-009	0.0006662	6
	34	230	119.1737	69524.39	-14882.95	1	71099.53	-12.08283	-8.34333E-009	0.0006081	6
	35	233	95.0169	70876.97	-16730.27	1	72824.77	-13.28137	-9.282275E-009	0.0007042	6
	36	235	75.60484	72475.23	-18968.53	1	74916.38	-14.66672	-8.451539E-009	0.0006036	6
	37	238	54.50582	74531.26	-22835.34	1	77951.02	-17.03434	-9.867086E-009	0.0007274	6
	38	240	45.95588	75743.18	-25628.33	1	79961.49	-18.69367	-9.104733E-009	0.0007097	6
	39	243	37.20238	77046.7	-29577.29	1	82528.85	-21.00119	-8.403457E-009	0.0006111	6
	40	245	30.04808	78432.13	-34598.67	1	85724.36	-23.80366	-9.597756E-009	0.0007405	6
	41	248	23.91582	79861.55	-41312.97	1	89914.57	-27.35286	-8.848609E-009	0.000735	6
	42	250	18.60119	81885.08	-50798.68	1	96362.2	-31.81404	-1.062394E-008	0.0007069	6
	43	252	15.02404	83355.77	-60822.66	1	103187.1	-36.11731	-9.57251E-009	0.0006898	6
	44	255	12.01923	85279.27	-73885.87	1	112834.7	-40.90562	-9.726993E-009	0.0007437	6
	45	257	9.450605	87621.09	-91393.34	1	126610.4	-46.20717	-9.312094E-009	0.0006638	6
	46	260	7.512019	90414.34	-112584	1	144395	-51.23264	-8.84312E-009	0.0007214	6
	47	263	5.978954	93779.13	-138496.8	1	167259.9	-55.89723	-8.292228E-009	0.0006142	6
	48	267	4.734848	97813.4	-171563.3	1	197487.7	-60.31123	-8.694262E-009	0.0007321	6
	49	270	3.75601	103042.2	-212358.3	1	236037.6	-64.11604	-9.150689E-009	0.0006878	6
	50	276	3.004808	109128.4	-260872.4	1	282778.1	-67.29942	-8.096661E-009	0.0006262	6
	51	282	2.372217	117347.9	-324796.4	1	345345.1	-70.13537	-8.827461E-009	0.00073	6
	52	286	1.878005	126608.4	-404002.2	1	423376.3	-72.59977	-9.044705E-009	0.0006317	6
	53	291	1.512097	138080.3	-493177.6	1	512142.9	-74.35877	-8.274245E-010	0.0006817	5
	54	297	1.201923	152097	-612169.4	1	630781.1	-76.04706	-9.897227E-010	0.0006081	5
	55	303	0.956633	169978.6	-756959.2	1	775809.2	-77.34392	-1.034135E-009	8.63866E-006	5
