EXPLAIN
TAG	EISPOT
TITLE	LABEL	Potentiostatic EIS	Test Identifier
DATE	LABEL	9/15/2020	Date
TIME	LABEL	6:44:50	Time
NOTES	NOTES	1	Notes...
	
PSTAT	PSTAT	REF3000-16137	Potentiostat
VDC	POTEN	0.00000E+000	T	DC Voltage (V)
FREQINIT	QUANT	3.00000E+005	Initial Freq. (Hz)
FREQFINAL	QUANT	1.00000E+000	Final Freq. (Hz)
PTSPERDEC	QUANT	1.00000E+001	Points/decade
VAC	QUANT	5.00000E+001	AC Voltage (mV rms)
AREA	QUANT	1.00000E+000	Sample Area (cm^2)
SPEED	SELECTOR	2	Optimize for:
ZGUESS	QUANT	1.00000E+003	Estimated Z (ohms)
EOC	QUANT	0	Open Circuit (V)
SEQUENCER	TOGGLE	TRUE	Run as Sequence
PSTATMODEL	IQUANT	5	Pstat Model
PSTATSECTION	LABEL	REF3000-16137	Pstat Section
PSTATSERIALNO	LABEL	16137	Pstat Serial Number
CTRLMODE	IQUANT	1	Control Mode
IESTAB	IQUANT	0	I/E Stability
CASPEED	IQUANT	1	Control Amp Speed
CONVENTION	IQUANT	1	Current Convention
ICHRANGE	IQUANT	2	Ich Range
ICHRANGEMODE	TOGGLE	F	Ich Auto Range
ICHOFFSETENABLE	TOGGLE	T	Ich Offset Enable
ICHOFFSET	QUANT	0	Ich Offset (V)
ICHFILTER	IQUANT	3	Ich Filter
VCHRANGE	IQUANT	2	Vch Range
VCHRANGEMODE	TOGGLE	F	Vch Auto Range
VCHOFFSETENABLE	TOGGLE	T	Vch Offset Enable
VCHOFFSET	QUANT	0	Vch Offset (V)
VCHFILTER	IQUANT	3	Vch Filter
ACHRANGE	IQUANT	2	Ach Range
ACHOFFSETENABLE	TOGGLE	F	Ach Offset Enable
ACHOFFSET	QUANT	0	Ach Offset (V)
ACHFILTER	IQUANT	3	Ach Filter
IERANGELOWERLIMIT	IQUANT	2	I/E Range Lower Limit
IERANGEMODE	TOGGLE	F	I/E AutoRange
IERANGE	IQUANT	11	I/E Range
POSFEEDENABLE	TOGGLE	F	Positive Feedback IR Comp
POSFEEDRESISTANCE	QUANT	0	Positive Feedback Resistance (ohm)
ACHSELECT	IQUANT	0	Ach Select
CABLEID	IQUANT	13	Cable ID
DCCALDATE	LABEL	7/31/2020	DC Calibration Date
ACCALDATE	LABEL	7/31/2020	AC Calibration Date
THERMOSELECT	IQUANT	1	Thermo Select
FRAMEWORKVERSION	QUANT	6.33	Framework Version
INSTRUMENTVERSION	LABEL	3.50	Instrument Version
COMPLIANCEVOLTAGE	IQUANT	0	Compliance Voltage
ZCURVE	TABLE
	Pt	Time	Freq	Zreal	Zimag	Zsig	Zmod	Zphz	Idc	Vdc	IERange
	#	s	Hz	ohm	ohm	V	ohm	°	A	V	#
	0	28	300046.9	145.7715	-4944.401	1	4946.549	-88.31129	2.090414E-005	-0.0005057	9
	1	47	238359.4	209.6723	-6016.143	1	6019.795	-88.00396	2.012406E-005	-0.0009461	9
	2	65	189328.1	569.9702	-7639.77	1	7661.001	-85.73331	1.952179E-005	-0.0021583	9
	3	73	150421.9	903.9284	-8838.476	1	8884.579	-84.16055	1.307826E-006	0.0016582	9
	4	83	119484.4	1538.556	-11602.8	1	11704.37	-82.44653	7.70759E-005	-0.0232289	8
	5	90	94921.88	2186.037	-14565.36	1	14728.49	-81.46449	-2.501922E-005	0.0110717	8
	6	99	75421.88	2846.69	-17957.02	1	18181.26	-80.99197	2.248619E-005	-0.0096824	8
	7	107	59859.37	4297.796	-22532.34	1	22938.55	-79.20117	-2.626118E-005	0.0075283	8
	8	115	47578.12	9698.88	-28314.49	1	29929.56	-71.09155	-5.275127E-006	0.0033104	7
	9	122	37828.12	8187.043	-34862.97	1	35811.37	-76.78441	2.228331E-005	-0.0095599	8
	10	131	30046.88	13006.32	-41607.21	1	43592.71	-72.64088	-1.990096E-005	0.0113712	8
	11	140	23859.38	20182.65	-48097.12	1	52160.07	-67.23596	2.714086E-005	-0.0072996	8
	12	147	18984.38	27907.66	-58209.86	1	64554.05	-64.38546	-1.711717E-006	0.007422	8
	13	155	15046.87	42997.43	-66349.69	1	79063.65	-57.05504	6.889397E-006	-0.0269066	7
	14	160	11953.13	57289.45	-71736	1	91804.87	-51.38861	-6.590138E-006	0.0259168	7
	15	166	9515.62	74376.63	-74190.45	1	105052.9	-44.9282	2.84857E-006	0.0080987	7
	16	173	7546.875	91031.74	-73214.48	1	116821	-38.80882	-7.3285E-006	0.0186935	7
	17	179	5928.309	97637	-70625.88	1	120503.1	-35.88017	3.544694E-006	-0.0245412	7
	18	186	4733.456	83283.65	-95303.5	1	126565.9	-48.85049	2.590817E-005	-0.0050396	8
	19	193	3796.875	138493	-59242.33	1	150631.9	-23.1595	-9.35859E-006	-0.0021712	8
	20	202	2987.132	129444.6	-55393.21	1	140798.8	-23.16753	-3.375982E-006	-0.0052644	7
	21	209	2390.625	146407.6	-50179.46	1	154768.1	-18.91854	1.427512E-006	-0.0201783	7
	22	214	1884.191	160117.3	-29728.8	1	162853.7	-10.51827	7.750598E-007	-0.0228323	6
	23	218	1516.544	161597.6	-26184.67	1	163705.3	-9.203995	7.248523E-007	-0.0156183	6
	24	222	1193.986	166438.2	-21866.14	1	167868.4	-7.48448	-2.797927E-007	-0.0074838	6
	25	227	946.5144	163404.1	-24129.23	1	165176	-8.399935	-6.199149E-008	-0.0152684	6
	26	229	751.7689	166665.7	-20252.74	1	167891.7	-6.928449	-2.16776E-007	0.0227824	6
	27	232	597.4265	169671	-18867.73	1	170716.8	-6.34533	6.269299E-007	-0.0073674	6
	28	235	477.4305	171384.7	-18255.25	1	172354.2	-6.080007	-9.107359E-009	0.000694	6
	29	237	376.6741	173200.5	-18492.77	1	174185	-6.094429	-8.78868E-009	0.0006317	6
	30	239	298.2954	174962.8	-19177.62	1	176010.7	-6.255203	-8.555721E-009	0.0006342	6
	31	242	237.7717	177416.5	-20392.15	1	178584.5	-6.556772	-9.588105E-009	0.0007147	6
	32	244	189.0121	179971.2	-22163.13	1	181330.7	-7.020527	-9.135525E-009	0.0006639	6
	33	247	150.2404	182774.6	-24338.64	1	184388	-7.585001	-9.553485E-009	0.0006389	6
	34	250	119.1737	184844	-28131.98	1	186972.5	-8.653616	-8.89746E-009	0.0006155	6
	35	252	95.0169	189333.6	-30107.53	1	191712.5	-9.035432	-1.035241E-008	0.0006808	6
	36	254	75.60484	192858	-33470.42	1	195740.8	-9.84559	-9.153389E-009	0.0006695	6
	37	257	54.50582	198335.9	-40130.19	1	202355	-11.43849	-9.91893E-009	0.0006797	6
	38	259	45.95588	202502.3	-42638.81	1	206942.7	-11.89048	-1.030915E-008	0.0006857	6
	39	262	37.20238	206573.8	-47659.5	1	212000.4	-12.99162	-8.151932E-009	0.0006338	6
	40	264	30.04808	211357.1	-52974.32	1	217894.7	-14.07069	-8.955803E-009	0.0006928	6
	41	267	23.91582	215978.7	-59574.25	1	224044.4	-15.42066	-8.106488E-009	0.0006415	6
	42	269	18.60119	221064.3	-69253.39	1	231658.1	-17.39434	-8.070075E-009	0.0006183	6
	43	272	15.02404	225696.5	-80203.05	1	239523.3	-19.56308	-1.073035E-008	0.0006517	6
	44	274	12.01923	229798	-93853.07	1	248224.8	-22.21586	-9.902136E-009	0.000639	6
	45	277	9.450605	234341	-112256.7	1	259840.8	-25.59589	-9.04738E-009	0.0006985	6
	46	279	7.512019	239134.2	-135030.5	1	274624.1	-29.45185	-9.653404E-009	0.0007208	6
	47	282	5.978954	244556.1	-163210.3	1	294015.8	-33.71809	-9.346151E-009	0.0006998	6
	48	286	4.734848	250691	-199681.5	1	320497.5	-38.53818	-9.473801E-009	0.000674	6
	49	290	3.75601	257512.7	-244897.3	1	355369.5	-43.56161	-8.914356E-009	0.0006789	6
	50	295	3.004808	265671.9	-298881	1	399889.2	-48.36647	-9.061136E-009	0.0006189	6
	51	302	2.372217	276581	-370022.3	1	461967.1	-53.22295	-1.108413E-009	0.000596	5
	52	306	1.878005	288251.8	-459267.6	1	542232.3	-57.88623	-9.411018E-010	0.0006335	5
	53	311	1.512097	300558.7	-560343.3	1	635861.8	-61.79165	-1.046447E-009	0.0007149	5
	54	316	1.201923	317784.5	-693453.4	1	762800.5	-65.37974	-9.341288E-010	0.000654	5
	55	322	0.956633	338312.1	-856187.2	1	920603.9	-68.43914	-1.083718E-009	8.418226E-006	5
