EXPLAIN
TAG	EISPOT
TITLE	LABEL	Potentiostatic EIS	Test Identifier
DATE	LABEL	2/25/2021	Date
TIME	LABEL	17:41:12	Time
NOTES	NOTES	1	Notes...
	
PSTAT	PSTAT	REF3000-16137	Potentiostat
VDC	POTEN	0.00000E+000	T	DC Voltage (V)
FREQINIT	QUANT	3.00000E+005	Initial Freq. (Hz)
FREQFINAL	QUANT	1.00000E+000	Final Freq. (Hz)
PTSPERDEC	QUANT	1.00000E+001	Points/decade
VAC	QUANT	5.00000E+001	AC Voltage (mV rms)
AREA	QUANT	1.00000E+000	Sample Area (cm^2)
SPEED	SELECTOR	2	Optimize for:
ZGUESS	QUANT	1.00000E+003	Estimated Z (ohms)
EOC	QUANT	0	Open Circuit (V)
SEQUENCER	TOGGLE	TRUE	Run as Sequence
PSTATMODEL	IQUANT	5	Pstat Model
PSTATSECTION	LABEL	REF3000-16137	Pstat Section
PSTATSERIALNO	LABEL	16137	Pstat Serial Number
CTRLMODE	IQUANT	1	Control Mode
IESTAB	IQUANT	0	I/E Stability
CASPEED	IQUANT	1	Control Amp Speed
CONVENTION	IQUANT	1	Current Convention
ICHRANGE	IQUANT	2	Ich Range
ICHRANGEMODE	TOGGLE	F	Ich Auto Range
ICHOFFSETENABLE	TOGGLE	T	Ich Offset Enable
ICHOFFSET	QUANT	0	Ich Offset (V)
ICHFILTER	IQUANT	3	Ich Filter
VCHRANGE	IQUANT	2	Vch Range
VCHRANGEMODE	TOGGLE	F	Vch Auto Range
VCHOFFSETENABLE	TOGGLE	T	Vch Offset Enable
VCHOFFSET	QUANT	0	Vch Offset (V)
VCHFILTER	IQUANT	3	Vch Filter
ACHRANGE	IQUANT	2	Ach Range
ACHOFFSETENABLE	TOGGLE	F	Ach Offset Enable
ACHOFFSET	QUANT	0	Ach Offset (V)
ACHFILTER	IQUANT	2	Ach Filter
IERANGELOWERLIMIT	IQUANT	2	I/E Range Lower Limit
IERANGEMODE	TOGGLE	F	I/E AutoRange
IERANGE	IQUANT	11	I/E Range
POSFEEDENABLE	TOGGLE	F	Positive Feedback IR Comp
POSFEEDRESISTANCE	QUANT	0	Positive Feedback Resistance (ohm)
ACHSELECT	IQUANT	0	Ach Select
CABLEID	IQUANT	13	Cable ID
DCCALDATE	LABEL	7/31/2020	DC Calibration Date
ACCALDATE	LABEL	7/31/2020	AC Calibration Date
THERMOSELECT	IQUANT	1	Thermo Select
FRAMEWORKVERSION	QUANT	6.33	Framework Version
INSTRUMENTVERSION	LABEL	3.50	Instrument Version
COMPLIANCEVOLTAGE	IQUANT	0	Compliance Voltage
ZCURVE	TABLE
	Pt	Time	Freq	Zreal	Zimag	Zsig	Zmod	Zphz	Idc	Vdc	IERange
	#	s	Hz	ohm	ohm	V	ohm	°	A	V	#
	0	8	300046.9	14.86458	1.736475	1	14.96567	6.663069	-1.142294E-005	0.0002847	10
	1	12	238359.4	14.89778	1.235398	1	14.94891	4.740405	-2.467188E-005	0.0002617	10
	2	15	189328.1	14.91938	0.805483	1	14.9411	3.090345	6.826569E-005	0.0002186	10
	3	17	150421.9	14.95055	0.4195443	1	14.95643	1.60742	5.599867E-005	0.0004682	10
	4	20	119484.4	15.00297	0.0813598	1	15.00319	0.3107071	6.849685E-005	0.0003894	10
	5	22	94921.88	15.06245	-0.2231351	1	15.0641	-0.8487176	-1.611578E-005	0.0006342	10
	6	25	75421.88	15.13873	-0.5448139	1	15.14853	-2.061076	9.180958E-006	0.0006852	10
	7	27	59859.37	15.23377	-0.8707846	1	15.25863	-3.271551	2.01707E-005	0.0006271	10
	8	30	47578.12	15.34529	-1.200116	1	15.39215	-4.471852	2.395204E-005	0.0006399	10
	9	32	37828.12	15.46967	-1.555357	1	15.54766	-5.741359	2.677059E-005	0.0006671	10
	10	35	30046.88	15.62002	-1.94763	1	15.74098	-7.107418	-2.100406E-005	0.0006507	10
	11	38	23859.38	15.7942	-2.393844	1	15.97458	-8.618425	-2.6031E-005	0.0006634	10
	12	40	18984.38	15.99273	-2.898	1	16.25318	-10.27096	2.156592E-005	0.0006489	10
	13	42	15046.87	16.22729	-3.501658	1	16.6008	-12.17704	-1.910186E-005	0.0006665	10
	14	44	11953.13	16.49512	-4.203687	1	17.02234	-14.29718	-2.888074E-005	0.0006807	10
	15	47	9515.62	16.80857	-5.018645	1	17.5418	-16.62439	-2.434752E-005	0.0007395	10
	16	49	7546.875	17.17867	-6.013752	1	18.20088	-19.29366	1.800998E-005	0.000711	10
	17	51	5928.309	17.63439	-7.255555	1	19.06869	-22.3644	-5.465438E-006	0.0006983	10
	18	54	4733.456	18.13712	-8.642184	1	20.09085	-25.47741	5.57196E-006	0.0006964	10
	19	56	3796.875	18.7175	-10.2455	1	21.33811	-28.69521	-2.571063E-005	0.0007194	10
	20	58	2987.132	19.46138	-12.36274	1	23.05607	-32.42553	-2.276242E-005	0.0007269	10
	21	61	2390.625	20.28123	-14.72512	1	25.06307	-35.9814	-2.861584E-005	0.000673	10
	22	63	1884.191	21.31934	-17.71467	1	27.71865	-39.72388	2.535659E-005	0.0006631	10
	23	65	1516.544	22.44467	-20.99453	1	30.73326	-43.08798	2.439252E-005	0.0006773	10
	24	68	1193.986	23.89215	-25.34426	1	34.83054	-46.68931	-2.57113E-005	0.000717	10
	25	70	946.5144	25.60153	-30.35221	1	39.70762	-49.85299	-1.967273E-005	0.0007516	10
	26	72	751.7689	27.50095	-36.46418	1	45.67208	-52.97674	-4.849433E-006	0.000116	9
	27	75	597.4265	29.83515	-43.80996	1	53.00423	-55.74463	-7.404326E-006	0.0001931	9
	28	77	477.4305	32.49586	-52.40093	1	61.65905	-58.19534	1.191726E-006	9.058876E-005	9
	29	79	376.6741	35.88276	-63.39341	1	72.84433	-60.4887	1.162561E-006	8.553699E-005	9
	30	82	298.2954	39.89114	-76.52895	1	86.3017	-62.46897	1.227921E-006	8.76722E-005	9
	31	84	237.7717	44.56113	-91.94685	1	102.1759	-64.14331	1.205864E-006	8.888033E-005	9
	32	86	189.0121	50.23396	-110.7835	1	121.6406	-65.60844	1.09372E-006	0.0001092	9
	33	89	150.2404	57.08644	-133.5402	1	145.2303	-66.85402	1.208264E-006	8.437352E-005	9
	34	91	119.1737	65.46374	-161.3259	1	174.1021	-67.91339	1.276616E-006	8.790554E-005	9
	35	94	95.0169	75.43185	-194.1388	1	208.2782	-68.76656	1.247265E-006	8.615731E-005	9
	36	96	75.60484	87.69344	-234.0629	1	249.9512	-69.46116	1.079679E-006	0.0001227	9
	37	99	54.50582	110.3967	-305.903	1	325.2139	-70.15609	1.338747E-006	8.415572E-005	9
	38	101	45.95588	125.2598	-351.5581	1	373.2065	-70.38908	1.289111E-006	0.0000968	9
	39	103	37.20238	146.6612	-415.7018	1	440.8146	-70.56696	5.180139E-007	0.0006639	8
	40	106	30.04808	173.8881	-494.1972	1	523.8969	-70.61508	5.05398E-007	0.0006632	8
	41	108	23.91582	209.2509	-593.5129	1	629.3199	-70.57922	4.552149E-007	0.0006644	8
	42	111	18.60119	257.9458	-724.7084	1	769.2453	-70.40781	4.038443E-007	0.0006686	8
	43	113	15.02404	309.6474	-858.0426	1	912.2054	-70.15668	6.264308E-007	0.000678	8
	44	115	12.01923	374.6685	-1021.711	1	1088.241	-69.86166	5.741186E-007	0.0006731	8
	45	118	9.450605	461.6322	-1230.41	1	1314.158	-69.43462	5.087007E-007	0.0006543	8
	46	120	7.512019	564.4865	-1467.74	1	1572.547	-68.96346	5.929971E-007	0.0006675	8
	47	123	5.978954	688.5863	-1743.422	1	1874.479	-68.44785	5.685449E-007	0.0006649	8
	48	126	4.734848	846.0356	-2075.063	1	2240.906	-67.81851	5.699925E-007	0.0006804	8
	49	129	3.75601	1034.183	-2460.328	1	2668.848	-67.20086	5.533869E-007	0.0006635	8
	50	132	3.004808	1251.127	-2889.255	1	3148.51	-66.58605	5.003887E-007	0.0007058	8
	51	136	2.372217	1532.319	-3418.074	1	3745.829	-65.85336	5.521964E-007	0.0007437	8
	52	140	1.878005	1857.648	-4035.176	1	4442.241	-65.28039	-2.382345E-008	0.0006226	7
	53	145	1.512097	2208.331	-4677.423	1	5172.525	-64.7268	-3.235936E-009	0.0006768	7
	54	151	1.201923	2648.373	-5489.933	1	6095.346	-64.24709	-2.486417E-009	0.000609	7
	55	157	0.956633	3155.826	-6422.425	1	7155.891	-63.8316	-2.991013E-008	-5.846423E-007	7
