EXPLAIN
TAG	EISPOT
TITLE	LABEL	Potentiostatic EIS	Test Identifier
DATE	LABEL	2/25/2021	Date
TIME	LABEL	18:11:37	Time
NOTES	NOTES	1	Notes...
	
PSTAT	PSTAT	REF3000-16137	Potentiostat
VDC	POTEN	0.00000E+000	T	DC Voltage (V)
FREQINIT	QUANT	3.00000E+005	Initial Freq. (Hz)
FREQFINAL	QUANT	1.00000E+000	Final Freq. (Hz)
PTSPERDEC	QUANT	1.00000E+001	Points/decade
VAC	QUANT	5.00000E+001	AC Voltage (mV rms)
AREA	QUANT	1.00000E+000	Sample Area (cm^2)
SPEED	SELECTOR	2	Optimize for:
ZGUESS	QUANT	1.00000E+003	Estimated Z (ohms)
EOC	QUANT	0	Open Circuit (V)
SEQUENCER	TOGGLE	TRUE	Run as Sequence
PSTATMODEL	IQUANT	5	Pstat Model
PSTATSECTION	LABEL	REF3000-16137	Pstat Section
PSTATSERIALNO	LABEL	16137	Pstat Serial Number
CTRLMODE	IQUANT	1	Control Mode
IESTAB	IQUANT	0	I/E Stability
CASPEED	IQUANT	1	Control Amp Speed
CONVENTION	IQUANT	1	Current Convention
ICHRANGE	IQUANT	2	Ich Range
ICHRANGEMODE	TOGGLE	F	Ich Auto Range
ICHOFFSETENABLE	TOGGLE	T	Ich Offset Enable
ICHOFFSET	QUANT	0	Ich Offset (V)
ICHFILTER	IQUANT	3	Ich Filter
VCHRANGE	IQUANT	2	Vch Range
VCHRANGEMODE	TOGGLE	F	Vch Auto Range
VCHOFFSETENABLE	TOGGLE	T	Vch Offset Enable
VCHOFFSET	QUANT	0	Vch Offset (V)
VCHFILTER	IQUANT	3	Vch Filter
ACHRANGE	IQUANT	2	Ach Range
ACHOFFSETENABLE	TOGGLE	F	Ach Offset Enable
ACHOFFSET	QUANT	0	Ach Offset (V)
ACHFILTER	IQUANT	3	Ach Filter
IERANGELOWERLIMIT	IQUANT	2	I/E Range Lower Limit
IERANGEMODE	TOGGLE	F	I/E AutoRange
IERANGE	IQUANT	11	I/E Range
POSFEEDENABLE	TOGGLE	F	Positive Feedback IR Comp
POSFEEDRESISTANCE	QUANT	0	Positive Feedback Resistance (ohm)
ACHSELECT	IQUANT	0	Ach Select
CABLEID	IQUANT	13	Cable ID
DCCALDATE	LABEL	7/31/2020	DC Calibration Date
ACCALDATE	LABEL	7/31/2020	AC Calibration Date
THERMOSELECT	IQUANT	1	Thermo Select
FRAMEWORKVERSION	QUANT	6.33	Framework Version
INSTRUMENTVERSION	LABEL	3.50	Instrument Version
COMPLIANCEVOLTAGE	IQUANT	0	Compliance Voltage
ZCURVE	TABLE
	Pt	Time	Freq	Zreal	Zimag	Zsig	Zmod	Zphz	Idc	Vdc	IERange
	#	s	Hz	ohm	ohm	V	ohm	°	A	V	#
	0	6	300046.9	52.97028	1.610513	1	52.99475	1.741489	-6.296252E-005	0.0017904	9
	1	10	238359.4	53.17828	0.9257178	1	53.18634	0.997294	-6.26701E-005	0.0018843	9
	2	13	189328.1	53.4087	0.4168893	1	53.41032	0.4472214	1.063166E-005	-0.0010574	9
	3	15	150421.9	53.52876	-0.0934681	1	53.52884	-0.1000457	-2.271141E-005	-0.0001942	9
	4	18	119484.4	53.85575	-0.4856473	1	53.85794	-0.516654	-2.625171E-005	-9.273362E-005	9
	5	20	94921.88	54.14737	-0.7059165	1	54.15197	-0.7469198	-1.586177E-005	0.0003522	9
	6	23	75421.88	54.37963	-1.187893	1	54.39261	-1.251396	-1.533327E-005	0.0004094	9
	7	25	59859.37	54.65079	-1.7096	1	54.67752	-1.791757	-1.621971E-005	0.000384	9
	8	28	47578.12	54.96205	-2.252345	1	55.00818	-2.346668	1.032289E-005	-0.0004818	9
	9	30	37828.12	55.33367	-2.863131	1	55.4077	-2.962014	-1.80449E-005	0.0006307	9
	10	33	30046.88	55.7436	-3.516748	1	55.85442	-3.609888	2.013411E-005	-0.0004042	9
	11	36	23859.38	56.22411	-4.211967	1	56.38166	-4.284248	-7.275504E-006	0.0006084	9
	12	38	18984.38	56.70217	-5.081409	1	56.9294	-5.120926	2.002493E-005	-0.0002199	9
	13	40	15046.87	57.27576	-6.027947	1	57.59209	-6.007937	1.631297E-005	-0.000138	9
	14	42	11953.13	57.94828	-7.215074	1	58.39572	-7.097307	1.62436E-005	-0.0001305	9
	15	45	9515.62	58.67097	-8.528674	1	59.28761	-8.270839	-1.508581E-005	0.0006795	9
	16	47	7546.875	59.5182	-10.10636	1	60.37015	-9.63706	2.011391E-005	-0.0004298	9
	17	49	5928.309	60.52907	-12.07063	1	61.72089	-11.27791	1.044782E-005	-0.0004619	9
	18	52	4733.456	61.64567	-14.24293	1	63.26966	-13.00962	1.66588E-005	-0.0001068	9
	19	54	3796.875	62.86153	-16.73995	1	65.05227	-14.91174	1.727062E-005	-8.846152E-005	9
	20	56	2987.132	64.41222	-19.94412	1	67.42924	-17.20423	-2.710718E-006	-0.0001255	9
	21	59	2390.625	66.0537	-23.46949	1	70.09927	-19.56059	1.020979E-005	-0.0004697	9
	22	61	1884.191	68.08327	-28.06876	1	73.6423	-22.40494	1.03201E-005	-0.0004586	9
	23	63	1516.544	70.26514	-33.00245	1	77.62958	-25.15872	1.038205E-005	0.0001299	9
	24	66	1193.986	73.07397	-39.40173	1	83.01989	-28.33369	-2.64177E-006	-0.0001243	9
	25	68	946.5144	76.27	-46.95751	1	89.56629	-31.61956	-1.70765E-005	0.0005503	9
	26	70	751.7689	80.08994	-55.78088	1	97.6007	-34.85636	-9.433843E-006	0.0006728	9
	27	73	597.4265	84.53861	-66.33664	1	107.4585	-38.12094	-1.350742E-005	0.0006981	9
	28	75	477.4305	89.60897	-78.3981	1	119.0631	-41.1824	1.408549E-006	8.851428E-005	9
	29	77	376.6741	95.8875	-93.64382	1	134.0283	-44.32176	1.421658E-006	8.408744E-005	9
	30	80	298.2954	103.1098	-111.598	1	151.9399	-47.26394	1.342497E-006	9.054552E-005	9
	31	82	237.7717	111.2681	-132.448	1	172.9829	-49.96674	1.326055E-006	9.465632E-005	9
	32	84	189.0121	120.8533	-157.681	1	198.6676	-52.53193	1.395746E-006	9.060081E-005	9
	33	87	150.2404	132.0239	-187.9818	1	229.7117	-54.91875	1.333707E-006	9.28501E-005	9
	34	89	119.1737	145.2514	-224.8044	1	267.6471	-57.13256	1.353368E-006	0.000102	9
	35	92	95.0169	160.4077	-268.1484	1	312.4647	-59.11192	1.448592E-006	8.605731E-005	9
	36	94	75.60484	178.4937	-320.761	1	367.0798	-60.9054	1.404704E-006	9.087609E-005	9
	37	97	54.50582	209.4149	-413.4884	1	463.4946	-63.13966	3.65068E-007	0.0006667	8
	38	99	45.95588	229.5714	-473.5526	1	526.2652	-64.13657	3.596757E-007	0.0006672	8
	39	102	37.20238	258.4693	-560.3528	1	617.0912	-65.23793	3.557325E-007	0.0006686	8
	40	104	30.04808	293.1537	-664.6882	1	726.4637	-66.20063	3.874585E-007	0.0006591	8
	41	106	23.91582	337.5524	-798.0572	1	866.5085	-67.0732	3.560517E-007	0.0006609	8
	42	109	18.60119	397.0813	-976.408	1	1054.062	-67.86962	3.319765E-007	0.0006741	8
	43	111	15.02404	458.9651	-1159.127	1	1246.686	-68.39854	3.91412E-007	0.0006595	8
	44	113	12.01923	537.6745	-1387.329	1	1487.877	-68.81562	3.527691E-007	0.0006619	8
	45	116	9.450605	642.5915	-1682.559	1	1801.091	-69.09748	4.340092E-007	0.0006729	8
	46	118	7.512019	767.0057	-2021.815	1	2162.414	-69.22501	4.462438E-007	0.0006695	8
	47	121	5.978954	918.7455	-2423.614	1	2591.91	-69.23924	4.198146E-007	0.0006675	8
	48	124	4.734848	1114.759	-2915.231	1	3121.1	-69.07358	4.097469E-007	0.0006833	8
	49	127	3.75601	1354.426	-3495.394	1	3748.633	-68.81921	3.99846E-007	0.0006618	8
	50	131	3.004808	1640.203	-4159.7	1	4471.395	-68.48029	7.330803E-012	0.0006659	7
	51	134	2.372217	2020.989	-4982.058	1	5376.365	-67.9199	2.507729E-008	0.0007156	7
	52	139	1.878005	2468.985	-5944.983	1	6437.291	-67.44661	9.862825E-010	0.0006285	7
	53	143	1.512097	2971.408	-6968.752	1	7575.802	-66.90707	1.474378E-008	0.0006385	7
	54	149	1.201923	3635.344	-8258.791	1	9023.489	-66.24193	1.612044E-008	0.0006138	7
	55	155	0.956633	4418.073	-9741.54	1	10696.58	-65.60431	-1.023173E-009	-3.834393E-006	7
