EXPLAIN
TAG	EISPOT
TITLE	LABEL	Potentiostatic EIS	Test Identifier
DATE	LABEL	2/25/2021	Date
TIME	LABEL	18:08:51	Time
NOTES	NOTES	1	Notes...
	
PSTAT	PSTAT	REF3000-16137	Potentiostat
VDC	POTEN	0.00000E+000	T	DC Voltage (V)
FREQINIT	QUANT	3.00000E+005	Initial Freq. (Hz)
FREQFINAL	QUANT	1.00000E+000	Final Freq. (Hz)
PTSPERDEC	QUANT	1.00000E+001	Points/decade
VAC	QUANT	5.00000E+001	AC Voltage (mV rms)
AREA	QUANT	1.00000E+000	Sample Area (cm^2)
SPEED	SELECTOR	2	Optimize for:
ZGUESS	QUANT	1.00000E+003	Estimated Z (ohms)
EOC	QUANT	0	Open Circuit (V)
SEQUENCER	TOGGLE	TRUE	Run as Sequence
PSTATMODEL	IQUANT	5	Pstat Model
PSTATSECTION	LABEL	REF3000-16137	Pstat Section
PSTATSERIALNO	LABEL	16137	Pstat Serial Number
CTRLMODE	IQUANT	1	Control Mode
IESTAB	IQUANT	0	I/E Stability
CASPEED	IQUANT	1	Control Amp Speed
CONVENTION	IQUANT	1	Current Convention
ICHRANGE	IQUANT	2	Ich Range
ICHRANGEMODE	TOGGLE	F	Ich Auto Range
ICHOFFSETENABLE	TOGGLE	T	Ich Offset Enable
ICHOFFSET	QUANT	0	Ich Offset (V)
ICHFILTER	IQUANT	3	Ich Filter
VCHRANGE	IQUANT	2	Vch Range
VCHRANGEMODE	TOGGLE	F	Vch Auto Range
VCHOFFSETENABLE	TOGGLE	T	Vch Offset Enable
VCHOFFSET	QUANT	0	Vch Offset (V)
VCHFILTER	IQUANT	3	Vch Filter
ACHRANGE	IQUANT	2	Ach Range
ACHOFFSETENABLE	TOGGLE	F	Ach Offset Enable
ACHOFFSET	QUANT	0	Ach Offset (V)
ACHFILTER	IQUANT	3	Ach Filter
IERANGELOWERLIMIT	IQUANT	2	I/E Range Lower Limit
IERANGEMODE	TOGGLE	F	I/E AutoRange
IERANGE	IQUANT	11	I/E Range
POSFEEDENABLE	TOGGLE	F	Positive Feedback IR Comp
POSFEEDRESISTANCE	QUANT	0	Positive Feedback Resistance (ohm)
ACHSELECT	IQUANT	0	Ach Select
CABLEID	IQUANT	13	Cable ID
DCCALDATE	LABEL	7/31/2020	DC Calibration Date
ACCALDATE	LABEL	7/31/2020	AC Calibration Date
THERMOSELECT	IQUANT	1	Thermo Select
FRAMEWORKVERSION	QUANT	6.33	Framework Version
INSTRUMENTVERSION	LABEL	3.50	Instrument Version
COMPLIANCEVOLTAGE	IQUANT	0	Compliance Voltage
ZCURVE	TABLE
	Pt	Time	Freq	Zreal	Zimag	Zsig	Zmod	Zphz	Idc	Vdc	IERange
	#	s	Hz	ohm	ohm	V	ohm	°	A	V	#
	0	7	300046.9	44.9465	1.693778	1	44.9784	2.15813	1.041025E-005	-6.861212E-005	9
	1	10	238359.4	45.23934	1.075833	1	45.25213	1.36229	-5.447027E-005	0.0016223	9
	2	13	189328.1	45.4441	0.5843644	1	45.44786	0.7367241	5.184604E-005	-0.0019017	9
	3	16	150421.9	45.62623	0.1403486	1	45.62645	0.1762441	1.126745E-005	0.0003822	9
	4	18	119484.4	45.79821	-0.3403332	1	45.79948	-0.4257655	7.669401E-006	-0.0006082	9
	5	21	94921.88	46.05352	-0.5794138	1	46.05716	-0.7208181	1.966345E-005	-0.0003026	9
	6	23	75421.88	46.26325	-1.063696	1	46.27547	-1.317127	-1.230634E-005	0.0002936	9
	7	26	59859.37	46.49965	-1.543522	1	46.52526	-1.901193	-1.553975E-005	0.0004638	9
	8	28	47578.12	46.78447	-2.063611	1	46.82996	-2.525616	1.255192E-005	-0.0004859	9
	9	31	37828.12	47.09409	-2.629854	1	47.16746	-3.196223	1.625576E-005	-0.0001043	9
	10	33	30046.88	47.46455	-3.24451	1	47.57531	-3.910455	1.528749E-005	-0.0001505	9
	11	36	23859.38	47.8806	-3.970101	1	48.04491	-4.739934	1.624834E-005	-0.0001609	9
	12	38	18984.38	48.3322	-4.73445	1	48.56353	-5.594641	9.363276E-006	-0.0004276	9
	13	41	15046.87	48.85405	-5.684715	1	49.18367	-6.637157	-9.12225E-006	0.0005808	9
	14	43	11953.13	49.4625	-6.724358	1	49.91749	-7.74182	-1.479304E-005	0.0004607	9
	15	45	9515.62	50.10877	-7.970829	1	50.73877	-9.038344	1.609289E-005	-0.0003516	9
	16	48	7546.875	50.91915	-9.45969	1	51.7904	-10.52435	9.715835E-006	-0.0004141	9
	17	51	5928.309	51.85802	-11.27994	1	53.07062	-12.27158	-1.280467E-005	0.0006536	9
	18	53	4733.456	52.83525	-13.34951	1	54.49563	-14.17975	-3.310671E-006	0.0005044	9
	19	55	3796.875	54.00231	-15.62539	1	56.21746	-16.13762	1.583996E-005	-0.0003963	9
	20	58	2987.132	55.37126	-18.69157	1	58.441	-18.65304	9.308073E-006	-0.0004221	9
	21	60	2390.625	56.88737	-22.08308	1	61.02324	-21.21569	-1.584566E-005	0.0004259	9
	22	62	1884.191	58.69514	-26.32811	1	64.32954	-24.15895	-1.343469E-005	0.0003505	9
	23	65	1516.544	60.77547	-31.00861	1	68.22897	-27.0314	1.944951E-005	-0.0004298	9
	24	67	1193.986	63.37534	-37.118	1	73.44508	-30.35687	-1.276382E-005	0.0006601	9
	25	70	946.5144	66.32555	-44.23829	1	79.72519	-33.70278	-1.570849E-005	0.0004285	9
	26	72	751.7689	69.8586	-52.57651	1	87.43291	-36.9656	-8.766536E-006	0.000627	9
	27	74	597.4265	74.00864	-62.46601	1	96.8467	-40.1656	-1.500503E-005	0.0006177	9
	28	76	477.4305	78.6366	-73.9867	1	107.971	-43.25494	1.37244E-006	8.852285E-005	9
	29	79	376.6741	84.40182	-88.48402	1	122.2828	-46.35263	1.429035E-006	7.748121E-005	9
	30	81	298.2954	91.04156	-105.5719	1	139.4059	-49.22666	1.276007E-006	8.132718E-005	9
	31	83	237.7717	98.5496	-125.4807	1	159.5539	-51.85474	1.36634E-006	8.226833E-005	9
	32	86	189.0121	107.4025	-149.6526	1	184.2042	-54.33381	1.319678E-006	8.199758E-005	9
	33	88	150.2404	117.7584	-178.7074	1	214.0173	-56.61731	1.328239E-006	8.572775E-005	9
	34	91	119.1737	130.0682	-214.0645	1	250.4823	-58.71662	1.433439E-006	9.017127E-005	9
	35	93	95.0169	144.3211	-255.7369	1	293.6494	-60.56247	1.388915E-006	8.841183E-005	9
	36	96	75.60484	161.361	-306.3251	1	346.226	-62.22136	1.298166E-006	9.236841E-005	9
	37	98	54.50582	191.5264	-397.1573	1	440.9266	-64.25463	1.359847E-006	7.997592E-005	9
	38	101	45.95588	209.8891	-453.2803	1	499.5163	-65.15375	4.08734E-007	0.0006558	8
	39	103	37.20238	237.4067	-536.6964	1	586.8602	-66.13789	4.060215E-007	0.0006586	8
	40	105	30.04808	270.5758	-637.0756	1	692.1536	-66.98832	3.874841E-007	0.0006575	8
	41	108	23.91582	313.1343	-765.2878	1	826.8727	-67.74699	3.365841E-007	0.0006692	8
	42	110	18.60119	370.9522	-937.0117	1	1007.768	-68.40195	4.486854E-007	0.0006645	8
	43	112	15.02404	431.1223	-1113.092	1	1193.667	-68.82764	4.724733E-007	0.0006747	8
	44	115	12.01923	507.9409	-1331.349	1	1424.954	-69.11697	3.971014E-007	0.0006638	8
	45	117	9.450605	610.7026	-1613.763	1	1725.453	-69.27166	3.665536E-007	0.0006626	8
	46	120	7.512019	732.806	-1937.17	1	2071.143	-69.27902	3.7748E-007	0.0006246	8
	47	122	5.978954	882.6899	-2320.657	1	2482.859	-69.17508	3.666798E-007	0.0006682	8
	48	125	4.734848	1075.508	-2786.752	1	2987.09	-68.89661	3.968955E-007	0.0006461	8
	49	129	3.75601	1309.487	-3336.862	1	3584.606	-68.57343	4.102905E-007	0.0006714	8
	50	132	3.004808	1589.53	-3963.997	1	4270.817	-68.14962	4.688818E-008	0.0006072	7
	51	136	2.372217	1951.323	-4738.62	1	5124.664	-67.61855	1.111872E-008	0.0005969	7
	52	140	1.878005	2398.503	-5635.48	1	6124.66	-66.94502	1.439712E-008	0.0006462	7
	53	145	1.512097	2894.161	-6597.005	1	7203.932	-66.31254	2.764792E-008	0.0005359	7
	54	150	1.201923	3518.077	-7796.39	1	8553.395	-65.713	1.748931E-008	0.0006616	7
	55	156	0.956633	4254.762	-9179.112	1	10117.27	-65.13103	7.904399E-009	-4.022184E-005	7
