EXPLAIN
TAG	EISPOT
TITLE	LABEL	Potentiostatic EIS	Test Identifier
DATE	LABEL	2/25/2021	Date
TIME	LABEL	19:22:22	Time
NOTES	NOTES	1	Notes...
	
PSTAT	PSTAT	REF3000-16137	Potentiostat
VDC	POTEN	0.00000E+000	T	DC Voltage (V)
FREQINIT	QUANT	3.00000E+005	Initial Freq. (Hz)
FREQFINAL	QUANT	1.00000E+000	Final Freq. (Hz)
PTSPERDEC	QUANT	1.00000E+001	Points/decade
VAC	QUANT	5.00000E+001	AC Voltage (mV rms)
AREA	QUANT	1.00000E+000	Sample Area (cm^2)
SPEED	SELECTOR	2	Optimize for:
ZGUESS	QUANT	1.00000E+003	Estimated Z (ohms)
EOC	QUANT	0	Open Circuit (V)
SEQUENCER	TOGGLE	TRUE	Run as Sequence
PSTATMODEL	IQUANT	5	Pstat Model
PSTATSECTION	LABEL	REF3000-16137	Pstat Section
PSTATSERIALNO	LABEL	16137	Pstat Serial Number
CTRLMODE	IQUANT	1	Control Mode
IESTAB	IQUANT	0	I/E Stability
CASPEED	IQUANT	1	Control Amp Speed
CONVENTION	IQUANT	1	Current Convention
ICHRANGE	IQUANT	2	Ich Range
ICHRANGEMODE	TOGGLE	F	Ich Auto Range
ICHOFFSETENABLE	TOGGLE	T	Ich Offset Enable
ICHOFFSET	QUANT	0	Ich Offset (V)
ICHFILTER	IQUANT	3	Ich Filter
VCHRANGE	IQUANT	2	Vch Range
VCHRANGEMODE	TOGGLE	F	Vch Auto Range
VCHOFFSETENABLE	TOGGLE	T	Vch Offset Enable
VCHOFFSET	QUANT	0	Vch Offset (V)
VCHFILTER	IQUANT	3	Vch Filter
ACHRANGE	IQUANT	2	Ach Range
ACHOFFSETENABLE	TOGGLE	F	Ach Offset Enable
ACHOFFSET	QUANT	0	Ach Offset (V)
ACHFILTER	IQUANT	3	Ach Filter
IERANGELOWERLIMIT	IQUANT	2	I/E Range Lower Limit
IERANGEMODE	TOGGLE	F	I/E AutoRange
IERANGE	IQUANT	11	I/E Range
POSFEEDENABLE	TOGGLE	F	Positive Feedback IR Comp
POSFEEDRESISTANCE	QUANT	0	Positive Feedback Resistance (ohm)
ACHSELECT	IQUANT	0	Ach Select
CABLEID	IQUANT	13	Cable ID
DCCALDATE	LABEL	7/31/2020	DC Calibration Date
ACCALDATE	LABEL	7/31/2020	AC Calibration Date
THERMOSELECT	IQUANT	1	Thermo Select
FRAMEWORKVERSION	QUANT	6.33	Framework Version
INSTRUMENTVERSION	LABEL	3.50	Instrument Version
COMPLIANCEVOLTAGE	IQUANT	0	Compliance Voltage
ZCURVE	TABLE
	Pt	Time	Freq	Zreal	Zimag	Zsig	Zmod	Zphz	Idc	Vdc	IERange
	#	s	Hz	ohm	ohm	V	ohm	°	A	V	#
	0	29	300046.9	22.11298	-4461.068	1	4461.123	-89.716	1.542853E-005	-0.0022514	9
	1	44	238359.4	106.5069	-5497.9	1	5498.932	-88.89019	2.537027E-005	-0.0014891	9
	2	58	189328.1	-109.9326	-7051.088	1	7051.945	-90.89322	-1.527627E-005	0.0018033	9
	3	66	150421.9	975.015	-9038.543	1	9090.979	-83.84314	1.83046E-005	-0.0019886	9
	4	73	119484.4	623.8207	-10709.08	1	10727.24	-86.6662	4.967469E-005	-0.0021952	8
	5	81	94921.88	671.7408	-13197.69	1	13214.77	-87.08625	2.7394E-005	-0.0073898	8
	6	90	75421.88	840.4189	-16359.77	1	16381.34	-87.05924	-1.903981E-006	0.0076509	8
	7	97	59859.37	1111.617	-21094.27	1	21123.54	-86.98344	-2.380145E-005	0.00528	8
	8	106	47578.12	4264.594	-27261.68	1	27593.22	-81.10917	6.790281E-006	-0.0267026	7
	9	113	37828.12	1681.25	-32066.05	1	32110.1	-86.99868	2.609293E-005	-0.0050956	8
	10	122	30046.88	2239.632	-41299.04	1	41359.72	-86.89591	-2.447017E-005	0.0110294	8
	11	130	23859.38	2461.345	-51725.13	1	51783.65	-87.27563	-9.779375E-006	-0.0020062	8
	12	138	18984.38	6882.331	-65155.78	1	65518.26	-83.97027	-3.34496E-006	-0.0048894	7
	13	143	15046.87	6147.026	-80731.79	1	80965.47	-85.64582	3.448693E-006	-0.0240898	7
	14	149	11953.13	3908.561	-93067	1	93149.04	-87.59515	-2.04248E-005	0.0029195	8
	15	156	9515.62	8366.79	-134995.8	1	135254.8	-86.45345	-1.932533E-005	0.0111871	8
	16	164	7546.875	12497.37	-165385.6	1	165857.1	-85.67865	1.064913E-006	-0.0189802	7
	17	170	5928.309	17676.44	-207754.9	1	208505.5	-85.13681	2.856315E-006	0.0079735	7
	18	177	4733.456	34791.15	-250215.5	1	252622.7	-82.08408	3.408674E-006	-0.0240828	7
	19	182	3796.875	81313.07	-308404.5	1	318943.8	-75.22968	-9.585012E-006	-0.0020174	8
	20	192	2987.132	196555.2	-295811.8	1	355160	-56.39754	-1.161813E-005	0.0101535	8
	21	199	2390.625	51227.35	-530405.8	1	532873.8	-84.4834	7.571623E-006	-0.0242299	7
	22	208	1884.191	159785.2	-369630.5	1	402688.5	-66.62196	-3.597758E-006	0.0249173	7
	23	214	1516.544	-253494.6	-278611.7	1	376674.9	-132.2975	2.254266E-005	-0.0096165	8
	24	222	1193.986	-239861.2	-519540.3	1	572237.3	-114.7818	2.6234E-005	-0.0051559	8
	25	231	946.5144	130431.3	-295594.5	1	323092	-66.19049	-2.004009E-006	0.0077612	8
	26	237	751.7689	75462.88	-684090	1	688239.6	-83.70508	7.581161E-006	-0.0242059	7
	27	242	597.4265	-2237575	-1321323	1	2598583	-149.4375	-6.378977E-006	0.0255425	7
	28	247	477.4305	549432.8	-2229550	1	2296251	-76.15631	-6.055835E-008	0.0005759	7
	29	254	376.6741	1124999	-2736352	1	2958588	-67.65092	-8.10799E-010	0.0006529	5
	30	256	298.2954	1139863	-3303910	1	3495012	-70.96535	-7.142009E-009	0.0006705	6
	31	260	237.7717	1877681	-3904301	1	4332349	-64.31588	-6.534869E-010	0.000632	5
	32	264	189.0121	2477050	-4650108	1	5268708	-61.95637	-7.914621E-010	0.0007006	5
	33	268	150.2404	3299838	-5534619	1	6443675	-59.19585	-7.652729E-010	0.0007055	5
	34	272	119.1737	3906305	-5835050	1	7021897	-56.19946	-7.048123E-010	0.0007072	5
	35	276	95.0169	5662557	-7037783	1	9032992	-51.18006	-8.171307E-010	0.0006148	5
	36	280	75.60484	6832991	-7901918	1	1.044653E+007	-49.14919	-9.192206E-010	0.0006729	5
	37	283	54.50582	9.639576E+006	-7508761	1	1.221896E+007	-37.91686	-7.929237E-010	0.000678	5
	38	287	45.95588	1.161187E+007	-6955064	1	1.353545E+007	-30.91999	-5.927094E-011	0.0006985	4
	39	289	37.20238	1.353576E+007	-5617653	1	1.46552E+007	-22.53957	-8.023038E-011	0.0006114	4
	40	292	30.04808	1.484214E+007	-5933855	1	1.598436E+007	-21.79142	-5.45011E-011	0.0007131	4
	41	295	23.91582	1.645235E+007	-4524600	1	1.706317E+007	-15.37691	-1.783756E-010	0.000621	4
	42	298	18.60119	1.761835E+007	-2304514	1	1.776843E+007	-7.452091	-2.900243E-010	0.0006386	4
	43	300	15.02404	1.735072E+007	-4051117	1	1.781738E+007	-13.14221	-8.586695E-011	0.0006127	4
	44	302	12.01923	1.798291E+007	-3442258	1	1.83094E+007	-10.83638	-9.169578E-011	0.0006068	4
	45	305	9.450605	1.843683E+007	-3001572	1	1.867957E+007	-9.2468	-1.140383E-010	0.0007058	4
	46	308	7.512019	1.940537E+007	-2386350	1	1.955155E+007	-7.010674	-6.287234E-011	0.0006302	4
	47	311	5.978954	2.002147E+007	-2096675	1	2.013096E+007	-5.9783	-9.475903E-011	0.0006877	4
	48	315	4.734848	2.066357E+007	-1947612	1	2.075516E+007	-5.384415	-7.579683E-011	0.0006606	4
	49	320	3.75601	2.145412E+007	-1671582	1	2.151914E+007	-4.455158	-8.018547E-011	0.0006743	4
	50	326	3.004808	2.227493E+007	-1543775	1	2.232836E+007	-3.964573	-6.718728E-011	0.0006599	4
	51	332	2.372217	2.33872E+007	-1460480	1	2.343276E+007	-3.573358	-7.98509E-011	0.0007185	4
	52	336	1.878005	2.449327E+007	-1372119	1	2.453167E+007	-3.206372	-8.394948E-011	0.000644	4
	53	345	1.512097	2.576265E+007	-1324350	1	2.579667E+007	-2.942745	-8.477363E-011	0.000764	4
	54	350	1.201923	2.713521E+007	-1313442	1	2.716698E+007	-2.77116	-8.102826E-011	0.000646	4
	55	359	0.956633	2.867408E+007	-1333670	1	2.870508E+007	-2.662984	-1.183637E-010	1.768E-005	4
