EXPLAIN
TAG	EISPOT
TITLE	LABEL	Potentiostatic EIS	Test Identifier
DATE	LABEL	2/25/2021	Date
TIME	LABEL	19:11:28	Time
NOTES	NOTES	1	Notes...
	
PSTAT	PSTAT	REF3000-16137	Potentiostat
VDC	POTEN	0.00000E+000	T	DC Voltage (V)
FREQINIT	QUANT	3.00000E+005	Initial Freq. (Hz)
FREQFINAL	QUANT	1.00000E+000	Final Freq. (Hz)
PTSPERDEC	QUANT	1.00000E+001	Points/decade
VAC	QUANT	5.00000E+001	AC Voltage (mV rms)
AREA	QUANT	1.00000E+000	Sample Area (cm^2)
SPEED	SELECTOR	2	Optimize for:
ZGUESS	QUANT	1.00000E+003	Estimated Z (ohms)
EOC	QUANT	0	Open Circuit (V)
SEQUENCER	TOGGLE	TRUE	Run as Sequence
PSTATMODEL	IQUANT	5	Pstat Model
PSTATSECTION	LABEL	REF3000-16137	Pstat Section
PSTATSERIALNO	LABEL	16137	Pstat Serial Number
CTRLMODE	IQUANT	1	Control Mode
IESTAB	IQUANT	0	I/E Stability
CASPEED	IQUANT	1	Control Amp Speed
CONVENTION	IQUANT	1	Current Convention
ICHRANGE	IQUANT	2	Ich Range
ICHRANGEMODE	TOGGLE	F	Ich Auto Range
ICHOFFSETENABLE	TOGGLE	T	Ich Offset Enable
ICHOFFSET	QUANT	0	Ich Offset (V)
ICHFILTER	IQUANT	3	Ich Filter
VCHRANGE	IQUANT	2	Vch Range
VCHRANGEMODE	TOGGLE	F	Vch Auto Range
VCHOFFSETENABLE	TOGGLE	T	Vch Offset Enable
VCHOFFSET	QUANT	0	Vch Offset (V)
VCHFILTER	IQUANT	3	Vch Filter
ACHRANGE	IQUANT	2	Ach Range
ACHOFFSETENABLE	TOGGLE	F	Ach Offset Enable
ACHOFFSET	QUANT	0	Ach Offset (V)
ACHFILTER	IQUANT	3	Ach Filter
IERANGELOWERLIMIT	IQUANT	2	I/E Range Lower Limit
IERANGEMODE	TOGGLE	F	I/E AutoRange
IERANGE	IQUANT	11	I/E Range
POSFEEDENABLE	TOGGLE	F	Positive Feedback IR Comp
POSFEEDRESISTANCE	QUANT	0	Positive Feedback Resistance (ohm)
ACHSELECT	IQUANT	0	Ach Select
CABLEID	IQUANT	13	Cable ID
DCCALDATE	LABEL	7/31/2020	DC Calibration Date
ACCALDATE	LABEL	7/31/2020	AC Calibration Date
THERMOSELECT	IQUANT	1	Thermo Select
FRAMEWORKVERSION	QUANT	6.33	Framework Version
INSTRUMENTVERSION	LABEL	3.50	Instrument Version
COMPLIANCEVOLTAGE	IQUANT	0	Compliance Voltage
ZCURVE	TABLE
	Pt	Time	Freq	Zreal	Zimag	Zsig	Zmod	Zphz	Idc	Vdc	IERange
	#	s	Hz	ohm	ohm	V	ohm	°	A	V	#
	0	14	300046.9	352.2229	-4143.909	1	4158.851	-85.14166	-1.21527E-005	0.0016426	9
	1	28	238359.4	483.1758	-5153.102	1	5175.705	-84.64338	1.129758E-006	-0.0020302	9
	2	42	189328.1	804.3931	-6357.354	1	6408.041	-82.78871	7.874187E-005	-0.0015773	9
	3	49	150421.9	1065.064	-7402.884	1	7479.108	-81.81295	4.9771E-005	0.00021	9
	4	59	119484.4	1406.615	-9645.76	1	9747.78	-81.70319	-1.979435E-005	0.0016789	9
	5	68	94921.88	2212.273	-11847.05	1	12051.84	-79.42262	2.600611E-005	-0.0051303	8
	6	77	75421.88	2845.018	-14784.76	1	15056.01	-79.10777	7.882476E-006	-0.0075666	8
	7	85	59859.37	3657.566	-18273.18	1	18635.64	-78.68124	-1.611407E-006	0.0075477	8
	8	94	47578.12	7982.919	-22971.54	1	24319.1	-70.83697	1.238005E-006	-0.0191565	7
	9	100	37828.12	10027.25	-27880.03	1	29628.39	-70.21853	-3.597077E-006	0.0245057	7
	10	108	30046.88	9468.678	-33747.04	1	35050.22	-74.32705	2.613157E-005	-0.0089142	8
	11	116	23859.38	14453.43	-40033.66	1	42562.84	-70.1488	-2.6141E-005	0.0076245	8
	12	124	18984.38	18143.49	-49462.45	1	52685.11	-69.85628	-1.158393E-005	0.0101904	8
	13	130	15046.87	28459.01	-58560.86	1	65109.83	-64.0815	3.405319E-006	-0.0237453	7
	14	136	11953.13	37469.09	-68685.8	1	78241.11	-61.38689	7.480905E-006	-0.0238982	7
	15	141	9515.62	50255.08	-79950.95	1	94433.72	-57.8476	7.415468E-006	-0.0182528	7
	16	148	7546.875	64456.97	-90148.7	1	110821.9	-54.43496	-7.201266E-006	0.0187669	7
	17	154	5928.309	83573.2	-128902.7	1	153624.1	-57.0429	2.233412E-005	-0.0095578	8
	18	162	4733.456	128784.2	-69010.65	1	146109	-28.1852	-1.69441E-006	0.0076222	8
	19	169	3796.875	140472.9	-110800.9	1	178911.9	-38.26534	2.889179E-006	0.0077658	7
	20	176	2987.132	169728.9	-100479.5	1	197241	-30.62552	3.885784E-007	-0.0245804	6
	21	181	2390.625	190661.7	-95404.3	1	213199.1	-26.5827	-4.771978E-007	0.0015376	6
	22	185	1884.191	208454.4	-85608.7	1	225348.8	-22.32713	-5.45929E-007	0.0260105	6
	23	190	1516.544	226690.7	-79725.38	1	240301.5	-19.37638	3.889389E-007	-0.0245305	6
	24	194	1193.986	241397.9	-69981.08	1	251337	-16.16684	5.756017E-007	-0.0268697	6
	25	200	946.5144	202933	27666.58	1	204810.2	7.763477	-2.064885E-005	0.0029717	8
	26	206	751.7689	279829.1	-34953.49	1	282003.7	-7.119946	-7.082566E-006	0.0231821	7
	27	211	597.4265	201087.6	-46368.23	1	206364.3	-12.98471	-8.910704E-006	-0.0001636	9
	28	216	477.4305	289948.6	-45116.58	1	293437.7	-8.844412	-6.191316E-008	0.0005782	7
	29	221	376.6741	298392.7	-34679.24	1	300401.1	-6.629184	-6.833315E-009	0.000635	6
	30	224	298.2954	302425	-29378.94	1	303848.6	-5.548563	-6.6968E-009	0.0006337	6
	31	227	237.7717	308330.5	-25005.87	1	309342.8	-4.63659	-6.552727E-009	0.0006215	6
	32	229	189.0121	313244	-21732.38	1	313997	-3.968733	-7.091972E-009	0.0006424	6
	33	232	150.2404	318199.1	-19004.12	1	318766.1	-3.417872	-7.58178E-009	0.0007039	6
	34	235	119.1737	324064.8	-17602.91	1	324542.5	-3.1092	-6.575606E-009	0.0006494	6
	35	237	95.0169	326835.2	-15534.21	1	327204.2	-2.721173	-6.56861E-009	0.0006442	6
	36	240	75.60484	332206.3	-14080.79	1	332504.6	-2.427068	-6.53351E-009	0.0006415	6
	37	242	54.50582	339722.1	-16838.13	1	340139.1	-2.83751	-7.195603E-009	0.0007034	6
	38	245	45.95588	340988.6	-14423.62	1	341293.5	-2.422134	-7.521929E-009	0.0007175	6
	39	247	37.20238	346798.3	-15039.57	1	347124.3	-2.483184	-6.136663E-009	0.0006323	6
	40	249	30.04808	350968.5	-16417.64	1	351352.3	-2.678235	-6.211447E-009	0.0006431	6
	41	252	23.91582	357146.8	-18262.92	1	357613.4	-2.927305	-7.557255E-009	0.0006605	6
	42	255	18.60119	360975.7	-20036.88	1	361531.3	-3.177089	-6.50184E-009	0.0006668	6
	43	257	15.02404	369003.7	-21018.06	1	369601.8	-3.259985	-1.712102E-009	0.0006629	5
	44	260	12.01923	374994.2	-24320.64	1	375782	-3.710781	5.174426E-010	0.0006259	5
	45	262	9.450605	381871.8	-28652.93	1	382945.2	-4.291026	-2.819668E-009	0.0006818	5
	46	265	7.512019	389345.7	-34173.24	1	390842.6	-5.01605	-2.650789E-009	0.0006075	5
	47	268	5.978954	399356.7	-39896	1	401344.6	-5.704958	-1.733081E-009	0.0006199	5
	48	272	4.734848	410642.8	-47122.27	1	413337.6	-6.546198	4.450443E-010	0.0006288	5
	49	276	3.75601	423598.5	-55313.77	1	427194.7	-7.439626	3.096273E-010	0.0006423	5
	50	281	3.004808	440300.7	-64631.65	1	445019	-8.350798	-8.695282E-010	0.000688	5
	51	288	2.372217	457916.5	-76427.09	1	464250.6	-9.47543	7.279665E-010	0.0006447	5
	52	292	1.878005	474702.8	-89883.2	1	483137.4	-10.72181	8.709898E-010	0.0006462	5
	53	297	1.512097	493065.5	-104625.9	1	504043.8	-11.98016	2.771257E-010	0.0007139	5
	54	302	1.201923	515293.1	-124632.1	1	530151.1	-13.59681	2.858173E-010	0.0006605	5
	55	308	0.956633	542219.6	-146846	1	561752.5	-15.15357	-2.998585E-009	1.578606E-005	5
