EXPLAIN
TAG	EISPOT
TITLE	LABEL	Potentiostatic EIS	Test Identifier
DATE	LABEL	2/25/2021	Date
TIME	LABEL	18:40:10	Time
NOTES	NOTES	1	Notes...
	
PSTAT	PSTAT	REF3000-16137	Potentiostat
VDC	POTEN	0.00000E+000	T	DC Voltage (V)
FREQINIT	QUANT	3.00000E+005	Initial Freq. (Hz)
FREQFINAL	QUANT	1.00000E+000	Final Freq. (Hz)
PTSPERDEC	QUANT	1.00000E+001	Points/decade
VAC	QUANT	5.00000E+001	AC Voltage (mV rms)
AREA	QUANT	1.00000E+000	Sample Area (cm^2)
SPEED	SELECTOR	2	Optimize for:
ZGUESS	QUANT	1.00000E+003	Estimated Z (ohms)
EOC	QUANT	0	Open Circuit (V)
SEQUENCER	TOGGLE	TRUE	Run as Sequence
PSTATMODEL	IQUANT	5	Pstat Model
PSTATSECTION	LABEL	REF3000-16137	Pstat Section
PSTATSERIALNO	LABEL	16137	Pstat Serial Number
CTRLMODE	IQUANT	1	Control Mode
IESTAB	IQUANT	0	I/E Stability
CASPEED	IQUANT	1	Control Amp Speed
CONVENTION	IQUANT	1	Current Convention
ICHRANGE	IQUANT	2	Ich Range
ICHRANGEMODE	TOGGLE	F	Ich Auto Range
ICHOFFSETENABLE	TOGGLE	T	Ich Offset Enable
ICHOFFSET	QUANT	0	Ich Offset (V)
ICHFILTER	IQUANT	3	Ich Filter
VCHRANGE	IQUANT	2	Vch Range
VCHRANGEMODE	TOGGLE	F	Vch Auto Range
VCHOFFSETENABLE	TOGGLE	T	Vch Offset Enable
VCHOFFSET	QUANT	0	Vch Offset (V)
VCHFILTER	IQUANT	3	Vch Filter
ACHRANGE	IQUANT	2	Ach Range
ACHOFFSETENABLE	TOGGLE	F	Ach Offset Enable
ACHOFFSET	QUANT	0	Ach Offset (V)
ACHFILTER	IQUANT	3	Ach Filter
IERANGELOWERLIMIT	IQUANT	2	I/E Range Lower Limit
IERANGEMODE	TOGGLE	F	I/E AutoRange
IERANGE	IQUANT	11	I/E Range
POSFEEDENABLE	TOGGLE	F	Positive Feedback IR Comp
POSFEEDRESISTANCE	QUANT	0	Positive Feedback Resistance (ohm)
ACHSELECT	IQUANT	0	Ach Select
CABLEID	IQUANT	13	Cable ID
DCCALDATE	LABEL	7/31/2020	DC Calibration Date
ACCALDATE	LABEL	7/31/2020	AC Calibration Date
THERMOSELECT	IQUANT	1	Thermo Select
FRAMEWORKVERSION	QUANT	6.33	Framework Version
INSTRUMENTVERSION	LABEL	3.50	Instrument Version
COMPLIANCEVOLTAGE	IQUANT	0	Compliance Voltage
ZCURVE	TABLE
	Pt	Time	Freq	Zreal	Zimag	Zsig	Zmod	Zphz	Idc	Vdc	IERange
	#	s	Hz	ohm	ohm	V	ohm	°	A	V	#
	0	14	300046.9	562.7076	-96.9976	1	571.0065	-9.78033	-6.329177E-006	-0.0018961	9
	1	28	238359.4	580.3622	-84.92545	1	586.5429	-8.325109	-4.414943E-006	-0.0017891	9
	2	36	189328.1	595.8307	-73.13152	1	600.3019	-6.997415	2.341333E-005	-0.0003448	9
	3	45	150421.9	611.4957	-63.1146	1	614.7442	-5.892831	5.037444E-005	4.272681E-005	9
	4	53	119484.4	625.3516	-52.46204	1	627.5483	-4.795432	2.358082E-005	-0.0013039	9
	5	63	94921.88	632.743	-26.89295	1	633.3142	-2.43373	1.218271E-006	0.0043622	8
	6	66	75421.88	637.4147	-23.16886	1	637.8356	-2.081681	-5.327965E-006	0.0062462	8
	7	68	59859.37	642.3808	-21.45936	1	642.7391	-1.91331	-1.88611E-005	0.0058273	8
	8	71	47578.12	645.8945	-18.98505	1	646.1735	-1.683634	1.329864E-005	-0.0058314	8
	9	73	37828.12	649.0173	-18.97327	1	649.2946	-1.674499	-1.491109E-005	0.0029366	8
	10	76	30046.88	652.4965	-20.82081	1	652.8286	-1.827657	1.644228E-005	-0.0058526	8
	11	78	23859.38	656.5162	-18.57302	1	656.7789	-1.62048	-8.527408E-006	-0.0001992	8
	12	81	18984.38	660.6341	-19.39997	1	660.9189	-1.682047	1.753827E-005	-0.0048552	8
	13	83	15046.87	665.2823	-20.23991	1	665.5901	-1.742574	3.900403E-006	-0.0043403	8
	14	86	11953.13	668.2489	-23.05036	1	668.6463	-1.975558	1.637594E-005	-0.0024202	8
	15	88	9515.62	673.9777	-25.56001	1	674.4622	-2.171851	-1.645929E-005	0.0044313	8
	16	90	7546.875	680.0894	-25.39146	1	680.5632	-2.138172	-1.54091E-005	0.0076721	8
	17	93	5928.309	684.9044	-34.66745	1	685.7813	-2.897638	1.701389E-005	-0.0025505	8
	18	96	4733.456	692.4608	-39.84945	1	693.6065	-3.293601	1.688616E-005	-0.0024589	8
	19	98	3796.875	697.7986	-49.77354	1	699.5715	-4.079962	-6.251192E-006	0.0065365	8
	20	100	2987.132	705.7902	-54.57043	1	707.8967	-4.421211	1.843354E-005	-0.003902	8
	21	103	2390.625	712.3469	-61.66912	1	715.0114	-4.947859	1.698647E-005	-0.0025308	8
	22	105	1884.191	717.7386	-75.94237	1	721.7451	-6.039869	1.802382E-005	-0.0038326	8
	23	108	1516.544	730.7411	-86.95503	1	735.8966	-6.78604	9.497067E-006	-0.0057052	8
	24	110	1193.986	742.1562	-103.3747	1	749.3212	-7.929691	9.096145E-006	-0.0055175	8
	25	113	946.5144	754.0263	-119.8909	1	763.4982	-9.034452	6.908602E-007	0.004723	8
	26	116	751.7689	769.2388	-143.7342	1	782.5521	-10.58381	-1.719E-005	0.005728	8
	27	118	597.4265	784.3108	-165.8211	1	801.6483	-11.93783	-1.499957E-005	0.0075053	8
	28	121	477.4305	800.9645	-197.409	1	824.933	-13.84541	-4.406175E-008	0.00065	8
	29	123	376.6741	821.2755	-234.2824	1	854.0385	-15.92168	-6.438197E-008	0.0006627	8
	30	125	298.2954	844.3588	-277.516	1	888.7952	-18.19418	-3.172785E-008	0.0006455	8
	31	128	237.7717	870.4359	-327.4639	1	929.9953	-20.61664	-3.582435E-008	0.0006442	8
	32	130	189.0121	900.8626	-387.4974	1	980.667	-23.27449	-3.383447E-008	0.0006593	8
	33	133	150.2404	936.2776	-458.8164	1	1042.654	-26.10685	-6.409904E-008	0.000659	8
	34	135	119.1737	978.103	-544.3946	1	1119.397	-29.09953	-7.410397E-008	0.0006809	8
	35	137	95.0169	1026.471	-643.4955	1	1211.499	-32.08363	-6.970983E-008	0.0006571	8
	36	140	75.60484	1084.169	-761.7479	1	1325.021	-35.09227	-7.220167E-008	0.0006747	8
	37	142	54.50582	1183.417	-967.933	1	1528.846	-39.2802	-2.215519E-008	0.0006458	8
	38	145	45.95588	1247.482	-1096.998	1	1661.209	-41.3274	-6.108568E-008	0.0006548	8
	39	147	37.20238	1336.658	-1279.356	1	1850.245	-43.74516	-4.362833E-008	0.0006507	8
	40	150	30.04808	1440.985	-1493.547	1	2075.36	-46.02614	-7.025093E-008	0.0006669	8
	41	152	23.91582	1569.845	-1761.246	1	2359.322	-48.28854	-1.307479E-008	0.0006397	8
	42	155	18.60119	1733.921	-2113.2	1	2733.514	-50.63047	-8.196642E-009	0.0006649	8
	43	157	15.02404	1895.125	-2465.23	1	3109.478	-52.44902	-2.379178E-008	0.0006606	8
	44	159	12.01923	2089.385	-2900.831	1	3574.961	-54.23588	-6.083564E-008	0.0006432	8
	45	162	9.450605	2333.247	-3465.669	1	4177.906	-56.04975	-9.071597E-009	0.0006466	7
	46	164	7.512019	2598.145	-4107.741	1	4860.442	-57.68666	5.159642E-009	0.0006233	7
	47	167	5.978954	2904.392	-4875.595	1	5675.114	-59.21774	-6.850106E-009	0.000661	7
	48	170	4.734848	3271.805	-5826.459	1	6682.241	-60.68393	-2.985137E-008	0.0006399	7
	49	173	3.75601	3697.968	-6957.917	1	7879.567	-62.01041	-1.256331E-008	0.0006547	7
	50	177	3.004808	4178.662	-8266.741	1	9262.841	-63.18437	-2.35053E-008	0.0006485	7
	51	180	2.372217	4781.656	-9934.7	1	11025.54	-64.29808	-1.967909E-008	0.0006464	7
	52	184	1.878005	5520.538	-11951.41	1	13164.82	-65.20706	-1.723557E-008	0.0006094	7
	53	189	1.512097	6320.776	-14196.58	1	15540.11	-65.99983	-2.132406E-008	0.0007303	7
	54	195	1.201923	7344.422	-17056.9	1	18570.91	-66.70409	-1.771622E-008	0.000619	7
	55	201	0.956633	8551.172	-20476.38	1	22190.19	-67.33401	-3.210471E-008	-1.361745E-005	7
