EXPLAIN
TAG	EISPOT
TITLE	LABEL	Potentiostatic EIS	Test Identifier
DATE	LABEL	2/25/2021	Date
TIME	LABEL	18:19:51	Time
NOTES	NOTES	1	Notes...
	
PSTAT	PSTAT	REF3000-16137	Potentiostat
VDC	POTEN	0.00000E+000	T	DC Voltage (V)
FREQINIT	QUANT	3.00000E+005	Initial Freq. (Hz)
FREQFINAL	QUANT	1.00000E+000	Final Freq. (Hz)
PTSPERDEC	QUANT	1.00000E+001	Points/decade
VAC	QUANT	5.00000E+001	AC Voltage (mV rms)
AREA	QUANT	1.00000E+000	Sample Area (cm^2)
SPEED	SELECTOR	2	Optimize for:
ZGUESS	QUANT	1.00000E+003	Estimated Z (ohms)
EOC	QUANT	0	Open Circuit (V)
SEQUENCER	TOGGLE	TRUE	Run as Sequence
PSTATMODEL	IQUANT	5	Pstat Model
PSTATSECTION	LABEL	REF3000-16137	Pstat Section
PSTATSERIALNO	LABEL	16137	Pstat Serial Number
CTRLMODE	IQUANT	1	Control Mode
IESTAB	IQUANT	0	I/E Stability
CASPEED	IQUANT	1	Control Amp Speed
CONVENTION	IQUANT	1	Current Convention
ICHRANGE	IQUANT	2	Ich Range
ICHRANGEMODE	TOGGLE	F	Ich Auto Range
ICHOFFSETENABLE	TOGGLE	T	Ich Offset Enable
ICHOFFSET	QUANT	0	Ich Offset (V)
ICHFILTER	IQUANT	3	Ich Filter
VCHRANGE	IQUANT	2	Vch Range
VCHRANGEMODE	TOGGLE	F	Vch Auto Range
VCHOFFSETENABLE	TOGGLE	T	Vch Offset Enable
VCHOFFSET	QUANT	0	Vch Offset (V)
VCHFILTER	IQUANT	3	Vch Filter
ACHRANGE	IQUANT	2	Ach Range
ACHOFFSETENABLE	TOGGLE	F	Ach Offset Enable
ACHOFFSET	QUANT	0	Ach Offset (V)
ACHFILTER	IQUANT	3	Ach Filter
IERANGELOWERLIMIT	IQUANT	2	I/E Range Lower Limit
IERANGEMODE	TOGGLE	F	I/E AutoRange
IERANGE	IQUANT	11	I/E Range
POSFEEDENABLE	TOGGLE	F	Positive Feedback IR Comp
POSFEEDRESISTANCE	QUANT	0	Positive Feedback Resistance (ohm)
ACHSELECT	IQUANT	0	Ach Select
CABLEID	IQUANT	13	Cable ID
DCCALDATE	LABEL	7/31/2020	DC Calibration Date
ACCALDATE	LABEL	7/31/2020	AC Calibration Date
THERMOSELECT	IQUANT	1	Thermo Select
FRAMEWORKVERSION	QUANT	6.33	Framework Version
INSTRUMENTVERSION	LABEL	3.50	Instrument Version
COMPLIANCEVOLTAGE	IQUANT	0	Compliance Voltage
ZCURVE	TABLE
	Pt	Time	Freq	Zreal	Zimag	Zsig	Zmod	Zphz	Idc	Vdc	IERange
	#	s	Hz	ohm	ohm	V	ohm	°	A	V	#
	0	7	300046.9	90.88156	0.0984498	1	90.88161	0.0620671	-2.227067E-006	0.0007716	9
	1	10	238359.4	91.45603	-0.2676434	1	91.45642	-0.167674	6.833079E-005	-0.0024319	9
	2	13	189328.1	91.98407	-0.648665	1	91.98636	-0.404039	6.515445E-006	-0.0014063	9
	3	16	150421.9	92.23643	-1.051422	1	92.24242	-0.6530982	1.808129E-005	-0.0012351	9
	4	18	119484.4	92.73677	-1.356689	1	92.7467	-0.8381468	-4.598221E-006	0.001233	9
	5	21	94921.88	93.16328	-1.479527	1	93.17503	-0.9098381	-1.73496E-005	0.0005059	9
	6	24	75421.88	93.56205	-2.01681	1	93.58379	-1.234868	-1.76645E-005	0.0004403	9
	7	26	59859.37	94.01898	-2.591674	1	94.0547	-1.578983	-1.509815E-005	0.0002746	9
	8	29	47578.12	94.54765	-3.168026	1	94.60071	-1.919103	-1.635226E-005	0.0003286	9
	9	31	37828.12	95.0792	-3.807951	1	95.1554	-2.293487	2.286283E-005	-0.0004016	9
	10	34	30046.88	95.7244	-4.5285	1	95.8315	-2.70851	1.280919E-005	-0.0006059	9
	11	36	23859.38	96.3729	-5.384349	1	96.5232	-3.197787	2.085127E-005	-0.0002723	9
	12	38	18984.38	97.1081	-6.431435	1	97.3208	-3.789146	2.518756E-005	-0.0005497	9
	13	41	15046.87	98.0004	-7.728637	1	98.3047	-4.509204	-1.925312E-005	0.0006629	9
	14	43	11953.13	98.884	-9.10359	1	99.3022	-5.260011	1.313471E-005	-0.000609	9
	15	45	9515.62	99.8815	-10.6846	1	100.4513	-6.10587	-1.92871E-005	0.0007992	9
	16	48	7546.875	101.0499	-12.60392	1	101.8329	-7.109765	-1.653061E-005	0.0003759	9
	17	50	5928.309	102.5405	-15.15219	1	103.654	-8.405646	2.305883E-005	-0.0003925	9
	18	52	4733.456	104.0487	-17.79617	1	105.5596	-9.70578	-5.637042E-006	0.0006982	9
	19	55	3796.875	105.6314	-20.76493	1	107.653	-11.12135	4.351911E-006	-0.0004802	9
	20	57	2987.132	107.7546	-24.71664	1	110.553	-12.91897	1.83671E-005	-0.0006605	9
	21	59	2390.625	110.028	-29.13917	1	113.8211	-14.83334	1.894205E-005	-6.314168E-005	9
	22	62	1884.191	112.743	-34.8646	1	118.0107	-17.18369	-1.942678E-005	0.0007619	9
	23	64	1516.544	115.6163	-40.62404	1	122.5457	-19.35992	-1.212909E-005	0.0008142	9
	24	66	1193.986	119.3314	-48.47558	1	128.8016	-22.1083	-1.42213E-005	0.0001846	9
	25	69	946.5144	123.4532	-57.62663	1	136.2407	-25.02266	5.463462E-006	-0.0004535	9
	26	71	751.7689	128.4563	-68.2935	1	145.482	-27.99724	1.264023E-005	-0.0006076	9
	27	73	597.4265	134.1115	-81.03715	1	156.6937	-31.14255	1.117925E-005	0.0001958	9
	28	76	477.4305	140.6799	-95.824	1	170.2148	-34.2607	1.327653E-006	8.15091E-005	9
	29	78	376.6741	148.8924	-114.2869	1	187.6977	-37.50915	1.358294E-006	7.650919E-005	9
	30	80	298.2954	158.4252	-135.8857	1	208.7186	-40.62061	1.268283E-006	9.468621E-005	9
	31	83	237.7717	169.2922	-160.7503	1	233.4534	-43.51746	1.272653E-006	8.552693E-005	9
	32	85	189.0121	182.0601	-190.5645	1	263.554	-46.30743	1.286479E-006	8.404822E-005	9
	33	87	150.2404	196.8792	-226.0512	1	299.7675	-48.94578	1.316376E-006	7.614488E-005	9
	34	90	119.1737	214.171	-268.7866	1	343.6793	-51.45192	1.353717E-006	8.182172E-005	9
	35	92	95.0169	233.7225	-318.7402	1	395.2487	-53.74854	1.337891E-006	8.416545E-005	9
	36	95	75.60484	255.5732	-377.557	1	455.9242	-55.90543	2.47817E-007	0.0006623	8
	37	97	54.50582	294.7691	-485.1855	1	567.7092	-58.71969	2.385738E-007	0.0006709	8
	38	100	45.95588	319.3663	-553.9294	1	639.4002	-60.03453	2.51309E-007	0.0006683	8
	39	102	37.20238	354.102	-653.1973	1	743.004	-61.53763	2.605744E-007	0.0006572	8
	40	104	30.04808	395.4066	-772.5688	1	867.8761	-62.89629	2.548982E-007	0.0006727	8
	41	107	23.91582	447.3353	-924.8323	1	1027.338	-64.18726	2.18204E-007	0.0006662	8
	42	109	18.60119	516.295	-1128.988	1	1241.441	-65.42502	1.891757E-007	0.00067	8
	43	112	15.02404	587.1094	-1338.234	1	1461.358	-66.312	3.152851E-007	0.0006687	8
	44	114	12.01923	675.2072	-1599.067	1	1735.776	-67.10806	2.339373E-007	0.0006637	8
	45	116	9.450605	791.0427	-1937.75	1	2092.994	-67.79337	2.843137E-007	0.000668	8
	46	119	7.512019	924.8876	-2329.99	1	2506.844	-68.34943	2.614279E-007	0.0006778	8
	47	122	5.978954	1088.706	-2797.795	1	3002.155	-68.7375	2.721269E-007	0.0006646	8
	48	125	4.734848	1294.317	-3372.353	1	3612.204	-69.00308	3.080914E-007	0.0006941	8
	49	128	3.75601	1550.557	-4066.938	1	4352.495	-69.1302	-1.080065E-008	0.0006335	7
	50	131	3.004808	1851.661	-4856.673	1	5197.685	-69.1301	1.38552E-008	0.0006305	7
	51	135	2.372217	2250.763	-5846.324	1	6264.618	-68.94391	7.551642E-009	0.0006509	7
	52	139	1.878005	2747.95	-7034.935	1	7552.585	-68.66364	-5.705224E-009	0.0006316	7
	53	144	1.512097	3296.528	-8318.964	1	8948.311	-68.38322	9.191964E-009	0.0005671	7
	54	149	1.201923	4043.784	-9929.64	1	10721.47	-67.8417	6.336085E-010	0.0006342	7
	55	156	0.956633	4933.034	-11797.79	1	12787.6	-67.30863	-1.129576E-009	-5.108991E-006	7
