EXPLAIN
TAG	EISPOT
TITLE	LABEL	Potentiostatic EIS	Test Identifier
DATE	LABEL	2/25/2021	Date
TIME	LABEL	18:03:20	Time
NOTES	NOTES	1	Notes...
	
PSTAT	PSTAT	REF3000-16137	Potentiostat
VDC	POTEN	0.00000E+000	T	DC Voltage (V)
FREQINIT	QUANT	3.00000E+005	Initial Freq. (Hz)
FREQFINAL	QUANT	1.00000E+000	Final Freq. (Hz)
PTSPERDEC	QUANT	1.00000E+001	Points/decade
VAC	QUANT	5.00000E+001	AC Voltage (mV rms)
AREA	QUANT	1.00000E+000	Sample Area (cm^2)
SPEED	SELECTOR	2	Optimize for:
ZGUESS	QUANT	1.00000E+003	Estimated Z (ohms)
EOC	QUANT	0	Open Circuit (V)
SEQUENCER	TOGGLE	TRUE	Run as Sequence
PSTATMODEL	IQUANT	5	Pstat Model
PSTATSECTION	LABEL	REF3000-16137	Pstat Section
PSTATSERIALNO	LABEL	16137	Pstat Serial Number
CTRLMODE	IQUANT	1	Control Mode
IESTAB	IQUANT	0	I/E Stability
CASPEED	IQUANT	1	Control Amp Speed
CONVENTION	IQUANT	1	Current Convention
ICHRANGE	IQUANT	2	Ich Range
ICHRANGEMODE	TOGGLE	F	Ich Auto Range
ICHOFFSETENABLE	TOGGLE	T	Ich Offset Enable
ICHOFFSET	QUANT	0	Ich Offset (V)
ICHFILTER	IQUANT	3	Ich Filter
VCHRANGE	IQUANT	2	Vch Range
VCHRANGEMODE	TOGGLE	F	Vch Auto Range
VCHOFFSETENABLE	TOGGLE	T	Vch Offset Enable
VCHOFFSET	QUANT	0	Vch Offset (V)
VCHFILTER	IQUANT	3	Vch Filter
ACHRANGE	IQUANT	2	Ach Range
ACHOFFSETENABLE	TOGGLE	F	Ach Offset Enable
ACHOFFSET	QUANT	0	Ach Offset (V)
ACHFILTER	IQUANT	3	Ach Filter
IERANGELOWERLIMIT	IQUANT	2	I/E Range Lower Limit
IERANGEMODE	TOGGLE	F	I/E AutoRange
IERANGE	IQUANT	11	I/E Range
POSFEEDENABLE	TOGGLE	F	Positive Feedback IR Comp
POSFEEDRESISTANCE	QUANT	0	Positive Feedback Resistance (ohm)
ACHSELECT	IQUANT	0	Ach Select
CABLEID	IQUANT	13	Cable ID
DCCALDATE	LABEL	7/31/2020	DC Calibration Date
ACCALDATE	LABEL	7/31/2020	AC Calibration Date
THERMOSELECT	IQUANT	1	Thermo Select
FRAMEWORKVERSION	QUANT	6.33	Framework Version
INSTRUMENTVERSION	LABEL	3.50	Instrument Version
COMPLIANCEVOLTAGE	IQUANT	0	Compliance Voltage
ZCURVE	TABLE
	Pt	Time	Freq	Zreal	Zimag	Zsig	Zmod	Zphz	Idc	Vdc	IERange
	#	s	Hz	ohm	ohm	V	ohm	°	A	V	#
	0	7	300046.9	33.45435	0.6904758	1	33.46148	1.182379	-4.550862E-005	-0.000262	11
	1	11	238359.4	33.65307	0.6914729	1	33.66018	1.177096	2.482192E-005	0.0004145	10
	2	15	189328.1	33.79113	0.3044223	1	33.7925	0.5161605	8.030124E-005	0.0003058	10
	3	17	150421.9	33.93757	-0.0942894	1	33.9377	-0.1591855	1.301727E-005	0.0005656	10
	4	20	119484.4	34.08207	-0.4083342	1	34.08451	-0.6864228	-5.403207E-007	0.0007421	10
	5	22	94921.88	34.22882	-0.7582362	1	34.23722	-1.269008	2.56373E-005	0.00066	10
	6	25	75421.88	34.41269	-1.121685	1	34.43096	-1.866901	2.744298E-005	0.0006767	10
	7	27	59859.37	34.62415	-1.509795	1	34.65705	-2.496816	-2.464459E-005	0.0006997	10
	8	30	47578.12	34.85845	-1.932521	1	34.91198	-3.173178	-2.505814E-005	0.0006617	10
	9	32	37828.12	35.11703	-2.397506	1	35.19878	-3.90563	-4.225466E-006	0.0006477	10
	10	35	30046.88	35.37348	-2.823129	1	35.48596	-4.563057	-1.977659E-006	0.0004494	9
	11	37	23859.38	35.71081	-3.450548	1	35.87713	-5.519056	-1.367635E-005	0.0003363	9
	12	40	18984.38	36.08995	-4.159027	1	36.3288	-6.573802	-1.42381E-005	0.0004697	9
	13	42	15046.87	36.52944	-4.993504	1	36.86916	-7.783978	-4.975809E-007	0.0004114	9
	14	44	11953.13	37.01894	-5.943661	1	37.49305	-9.121408	1.378126E-005	-0.0001105	9
	15	47	9515.62	37.57552	-7.042663	1	38.22981	-10.61561	-7.626529E-006	0.0001642	9
	16	49	7546.875	38.21145	-8.370075	1	39.11742	-12.35529	-1.155496E-005	0.0005382	9
	17	51	5928.309	38.99065	-9.99374	1	40.25103	-14.37607	-1.374908E-005	0.0004956	9
	18	54	4733.456	39.82899	-11.80627	1	41.54198	-16.51109	1.600421E-005	-0.0004067	9
	19	56	3796.875	40.78528	-13.892	1	43.08627	-18.80951	-1.282532E-005	0.0005834	9
	20	58	2987.132	41.96782	-16.64413	1	45.14782	-21.63291	1.562136E-005	-0.0003902	9
	21	61	2390.625	43.24782	-19.68988	1	47.5191	-24.47884	1.754464E-005	-0.0003529	9
	22	63	1884.191	44.91069	-23.55753	1	50.71418	-27.67888	1.721975E-005	-0.0003572	9
	23	65	1516.544	46.61408	-27.74935	1	54.24849	-30.76533	3.213019E-006	-0.0002215	9
	24	67	1193.986	48.84268	-33.25723	1	59.09019	-34.25114	1.746614E-005	-0.0002883	9
	25	70	946.5144	51.43655	-39.69463	1	64.97217	-37.6581	3.957882E-006	0.0002962	9
	26	72	751.7689	54.43537	-47.24794	1	72.08035	-40.95681	-1.209648E-005	0.00035	9
	27	75	597.4265	57.95848	-56.2739	1	80.78326	-44.15512	8.897791E-006	0.0000982	9
	28	77	477.4305	61.97759	-66.73767	1	91.07765	-47.11792	1.379908E-006	0.0000989	9
	29	79	376.6741	66.92998	-80.00449	1	104.3089	-50.0849	1.398917E-006	0.0000951	9
	30	82	298.2954	72.63541	-95.7511	1	120.1839	-52.81657	1.283473E-006	9.483368E-005	9
	31	84	237.7717	79.13816	-114.1619	1	138.9093	-55.26992	1.369577E-006	8.876873E-005	9
	32	86	189.0121	86.87041	-136.5711	1	161.8584	-57.5403	1.239314E-006	9.35792E-005	9
	33	89	150.2404	96.0119	-163.5844	1	189.679	-59.59024	1.357339E-006	7.979077E-005	9
	34	91	119.1737	106.9689	-196.4811	1	223.7122	-61.4351	1.340282E-006	8.595228E-005	9
	35	93	95.0169	119.736	-235.2387	1	263.9583	-63.02401	1.349099E-006	8.700008E-005	9
	36	96	75.60484	135.2054	-282.3975	1	313.0956	-64.41598	1.426891E-006	0.0001039	9
	37	99	54.50582	162.7235	-367.0093	1	401.4658	-66.0886	1.388176E-006	8.393091E-005	9
	38	101	45.95588	179.6043	-419.3127	1	456.1588	-66.81309	4.11171E-007	0.0006678	8
	39	103	37.20238	205.0177	-497.0627	1	537.6835	-67.58589	4.524431E-007	0.0006682	8
	40	106	30.04808	236.0262	-590.7061	1	636.1148	-68.22002	4.16154E-007	0.0006731	8
	41	108	23.91582	275.9553	-710.0563	1	761.7947	-68.76195	4.873686E-007	0.0006639	8
	42	111	18.60119	331.0161	-869.5491	1	930.4232	-69.15939	4.043916E-007	0.0006728	8
	43	113	15.02404	388.869	-1032.609	1	1103.404	-69.36419	4.513424E-007	0.00065	8
	44	115	12.01923	462.9101	-1234.571	1	1318.503	-69.44614	4.252631E-007	0.0006568	8
	45	118	9.450605	562.749	-1494.36	1	1596.808	-69.36452	5.177524E-007	0.0006662	8
	46	120	7.512019	680.5765	-1789.434	1	1914.487	-69.17667	5.393162E-007	0.0006792	8
	47	123	5.978954	824.4419	-2138.687	1	2292.092	-68.91885	4.995207E-007	0.0006716	8
	48	126	4.734848	1009.279	-2559.354	1	2751.17	-68.47825	4.989089E-007	0.0006845	8
	49	129	3.75601	1234.131	-3053.785	1	3293.734	-67.9948	4.598532E-007	0.0006616	8
	50	133	3.004808	1496.476	-3607.833	1	3905.88	-67.47205	4.432977E-007	0.0006953	8
	51	136	2.372217	1846.588	-4305.914	1	4685.166	-66.78796	2.904117E-008	0.0007188	7
	52	141	1.878005	2251.811	-5102.078	1	5576.904	-66.18565	9.04835E-009	0.0006123	7
	53	145	1.512097	2703.23	-5946.425	1	6532.03	-65.55357	1.578054E-008	0.0006939	7
	54	151	1.201923	3278.844	-7010.064	1	7738.98	-64.93292	2.96967E-008	0.000591	7
	55	157	0.956633	3947.697	-8232.133	1	9129.749	-64.38008	-4.244974E-009	-7.867793E-006	7
