EXPLAIN
TAG	EISPOT
TITLE	LABEL	Potentiostatic EIS	Test Identifier
DATE	LABEL	2/25/2021	Date
TIME	LABEL	18:57:01	Time
NOTES	NOTES	1	Notes...
	
PSTAT	PSTAT	REF3000-16137	Potentiostat
VDC	POTEN	0.00000E+000	T	DC Voltage (V)
FREQINIT	QUANT	3.00000E+005	Initial Freq. (Hz)
FREQFINAL	QUANT	1.00000E+000	Final Freq. (Hz)
PTSPERDEC	QUANT	1.00000E+001	Points/decade
VAC	QUANT	5.00000E+001	AC Voltage (mV rms)
AREA	QUANT	1.00000E+000	Sample Area (cm^2)
SPEED	SELECTOR	2	Optimize for:
ZGUESS	QUANT	1.00000E+003	Estimated Z (ohms)
EOC	QUANT	0	Open Circuit (V)
SEQUENCER	TOGGLE	TRUE	Run as Sequence
PSTATMODEL	IQUANT	5	Pstat Model
PSTATSECTION	LABEL	REF3000-16137	Pstat Section
PSTATSERIALNO	LABEL	16137	Pstat Serial Number
CTRLMODE	IQUANT	1	Control Mode
IESTAB	IQUANT	0	I/E Stability
CASPEED	IQUANT	1	Control Amp Speed
CONVENTION	IQUANT	1	Current Convention
ICHRANGE	IQUANT	2	Ich Range
ICHRANGEMODE	TOGGLE	F	Ich Auto Range
ICHOFFSETENABLE	TOGGLE	T	Ich Offset Enable
ICHOFFSET	QUANT	0	Ich Offset (V)
ICHFILTER	IQUANT	3	Ich Filter
VCHRANGE	IQUANT	2	Vch Range
VCHRANGEMODE	TOGGLE	F	Vch Auto Range
VCHOFFSETENABLE	TOGGLE	T	Vch Offset Enable
VCHOFFSET	QUANT	0	Vch Offset (V)
VCHFILTER	IQUANT	3	Vch Filter
ACHRANGE	IQUANT	2	Ach Range
ACHOFFSETENABLE	TOGGLE	F	Ach Offset Enable
ACHOFFSET	QUANT	0	Ach Offset (V)
ACHFILTER	IQUANT	3	Ach Filter
IERANGELOWERLIMIT	IQUANT	2	I/E Range Lower Limit
IERANGEMODE	TOGGLE	F	I/E AutoRange
IERANGE	IQUANT	11	I/E Range
POSFEEDENABLE	TOGGLE	F	Positive Feedback IR Comp
POSFEEDRESISTANCE	QUANT	0	Positive Feedback Resistance (ohm)
ACHSELECT	IQUANT	0	Ach Select
CABLEID	IQUANT	13	Cable ID
DCCALDATE	LABEL	7/31/2020	DC Calibration Date
ACCALDATE	LABEL	7/31/2020	AC Calibration Date
THERMOSELECT	IQUANT	1	Thermo Select
FRAMEWORKVERSION	QUANT	6.33	Framework Version
INSTRUMENTVERSION	LABEL	3.50	Instrument Version
COMPLIANCEVOLTAGE	IQUANT	0	Compliance Voltage
ZCURVE	TABLE
	Pt	Time	Freq	Zreal	Zimag	Zsig	Zmod	Zphz	Idc	Vdc	IERange
	#	s	Hz	ohm	ohm	V	ohm	°	A	V	#
	0	19	300046.9	1611.197	-2490.935	1	2966.599	-57.10423	1.157886E-007	-0.0020633	9
	1	33	238359.4	2084.455	-2808.235	1	3497.304	-53.41479	1.925691E-005	-0.0009024	9
	2	57	189328.1	2745.833	-3079.667	1	4126.009	-48.27979	-2.008117E-005	0.0010943	9
	3	65	150421.9	3338.215	-3181.82	1	4611.687	-43.62592	2.66836E-005	-0.0017832	9
	4	72	119484.4	4140.616	-3174.484	1	5217.476	-37.47628	-7.654404E-006	0.0164385	8
	5	80	94921.88	4827.239	-3119.808	1	5747.646	-32.87428	2.483404E-005	-0.0085779	8
	6	88	75421.88	5512.403	-3006.119	1	6278.801	-28.60528	-1.046019E-005	0.0095364	8
	7	95	59859.37	6118.176	-2761.062	1	6712.343	-24.2891	7.011449E-006	-0.0070628	8
	8	102	47578.12	7234.108	-1872.197	1	7472.445	-14.50987	-1.872446E-006	0.019786	7
	9	106	37828.12	7473.815	-1624.752	1	7648.381	-12.26484	4.033203E-006	0.0006316	7
	10	113	30046.88	7765.301	-1365.732	1	7884.486	-9.97495	-4.801075E-006	0.0230498	7
	11	119	23859.38	7979.906	-1178.577	1	8066.47	-8.401454	-6.367204E-006	0.0158467	7
	12	123	18984.38	8138.223	-991.9	1	8198.447	-6.949028	-6.334737E-006	0.0200998	7
	13	127	15046.87	8265.709	-859.9681	1	8310.324	-5.939709	4.923134E-006	-0.0233057	7
	14	130	11953.13	8415.902	-704.8723	1	8445.369	-4.787623	-1.825634E-006	0.0200511	7
	15	135	9515.62	8576.697	-604.1367	1	8597.948	-4.02922	4.777625E-006	-0.0231376	7
	16	139	7546.875	8671.898	-519.2768	1	8687.432	-3.426803	-5.831941E-006	0.0225603	7
	17	142	5928.309	8817.351	-411.5352	1	8826.949	-2.672246	6.143416E-006	-0.0233466	7
	18	147	4733.456	8922.667	-428.8722	1	8932.968	-2.751831	5.637197E-006	-0.0078823	7
	19	151	3796.875	9055.118	-375.5562	1	9062.902	-2.374951	-5.718566E-006	0.0098564	7
	20	155	2987.132	9173.718	-315.4154	1	9179.139	-1.969197	-2.679194E-006	-0.0053464	7
	21	159	2390.625	9308.729	-349.0273	1	9315.27	-2.147278	3.370905E-006	-0.0217935	7
	22	162	1884.191	9378.443	-352.2641	1	9385.057	-2.151078	3.321906E-006	-0.0217429	7
	23	167	1516.544	9585.72	-338.1554	1	9591.68	-2.020385	4.135781E-006	0.0003454	7
	24	171	1193.986	9694.88	-424.8378	1	9704.18	-2.509144	-4.857209E-006	0.0235229	7
	25	176	946.5144	9752.86	-449.2067	1	9763.2	-2.63712	-1.812717E-006	0.0196742	7
	26	178	751.7689	9928.95	-426.4975	1	9938.11	-2.459625	6.890554E-006	-0.0212967	7
	27	181	597.4265	10020.54	-398.9383	1	10028.48	-2.279858	6.123389E-006	-0.0233105	7
	28	183	477.4305	10173.8	-562.6694	1	10189.35	-3.165559	-5.155431E-008	0.0005868	7
	29	186	376.6741	10293.48	-651.9465	1	10314.1	-3.624038	-5.972649E-008	0.0006668	7
	30	188	298.2954	10422.33	-761.1584	1	10450.08	-4.176982	-5.117321E-008	0.0005825	7
	31	190	237.7717	10561.74	-883.6096	1	10598.63	-4.782309	-5.458329E-008	0.0005869	7
	32	193	189.0121	10716.29	-1032.405	1	10765.9	-5.50288	-5.465636E-008	0.0005769	7
	33	195	150.2404	10885.16	-1210.167	1	10952.23	-6.343854	-5.311007E-008	0.0006298	7
	34	198	119.1737	11072.86	-1421.185	1	11163.69	-7.31384	-5.4838E-008	0.0006003	7
	35	200	95.0169	11273.61	-1663.714	1	11395.71	-8.394885	-5.993279E-008	0.0006735	7
	36	203	75.60484	11501.85	-1952.796	1	11666.44	-9.63586	-4.977178E-008	0.0005888	7
	37	205	54.50582	11833.07	-2462.491	1	12086.58	-11.75561	-5.688495E-008	0.0006673	7
	38	208	45.95588	12074.85	-2776.103	1	12389.87	-12.94775	-6.283868E-008	0.0006746	7
	39	210	37.20238	12367.95	-3229.095	1	12782.54	-14.63246	-6.539992E-008	0.0006167	7
	40	212	30.04808	12707.96	-3762.197	1	13253.16	-16.49141	-5.144856E-008	0.0006701	7
	41	215	23.91582	13099.83	-4435.108	1	13830.25	-18.70416	-4.07769E-008	0.0006466	7
	42	217	18.60119	13599.04	-5327.185	1	14605.24	-21.39188	-3.976128E-008	0.0005923	7
	43	219	15.02404	14103.67	-6214.008	1	15411.93	-23.77805	-2.930516E-008	0.0006204	7
	44	222	12.01923	14693.48	-7314.199	1	16413.29	-26.46344	-3.76427E-008	0.0005825	7
	45	224	9.450605	15411.79	-8715.42	1	17705.42	-29.48831	-4.888759E-008	0.0005885	7
	46	227	7.512019	16231.59	-10338.08	1	19244.23	-32.49351	-6.437873E-008	0.0005978	7
	47	229	5.978954	17218.89	-12222.1	1	21115.63	-35.36741	-5.769999E-008	0.0006739	7
	48	232	4.734848	18383.61	-14522.04	1	23427.48	-38.30679	-5.933079E-008	0.0005678	7
	49	236	3.75601	19779.99	-17232.33	1	26233.59	-41.06237	-4.939185E-008	0.0006576	7
	50	239	3.004808	21388.48	-20317.6	1	29500.37	-43.52915	-5.340046E-008	0.0006645	7
	51	243	2.372217	23402.89	-24130.14	1	33614.86	-45.87656	-5.618471E-008	0.0005585	7
	52	247	1.878005	25744.1	-28717.63	1	38567.61	-48.12516	-5.137648E-008	0.0006254	7
	53	252	1.512097	28342.7	-33654.06	1	43998.91	-49.89667	-4.430524E-009	0.0006227	6
	54	257	1.201923	31616.45	-39945.06	1	50943.18	-51.63844	-4.671208E-009	0.0006969	6
	55	263	0.956633	35427.63	-47310.22	1	59104.77	-53.17278	-1.097263E-008	2.790878E-005	6
