EXPLAIN
TAG	EISPOT
TITLE	LABEL	Potentiostatic EIS	Test Identifier
DATE	LABEL	2/25/2021	Date
TIME	LABEL	19:01:34	Time
NOTES	NOTES	1	Notes...
	
PSTAT	PSTAT	REF3000-16137	Potentiostat
VDC	POTEN	0.00000E+000	T	DC Voltage (V)
FREQINIT	QUANT	3.00000E+005	Initial Freq. (Hz)
FREQFINAL	QUANT	1.00000E+000	Final Freq. (Hz)
PTSPERDEC	QUANT	1.00000E+001	Points/decade
VAC	QUANT	5.00000E+001	AC Voltage (mV rms)
AREA	QUANT	1.00000E+000	Sample Area (cm^2)
SPEED	SELECTOR	2	Optimize for:
ZGUESS	QUANT	1.00000E+003	Estimated Z (ohms)
EOC	QUANT	0	Open Circuit (V)
SEQUENCER	TOGGLE	TRUE	Run as Sequence
PSTATMODEL	IQUANT	5	Pstat Model
PSTATSECTION	LABEL	REF3000-16137	Pstat Section
PSTATSERIALNO	LABEL	16137	Pstat Serial Number
CTRLMODE	IQUANT	1	Control Mode
IESTAB	IQUANT	0	I/E Stability
CASPEED	IQUANT	1	Control Amp Speed
CONVENTION	IQUANT	1	Current Convention
ICHRANGE	IQUANT	2	Ich Range
ICHRANGEMODE	TOGGLE	F	Ich Auto Range
ICHOFFSETENABLE	TOGGLE	T	Ich Offset Enable
ICHOFFSET	QUANT	0	Ich Offset (V)
ICHFILTER	IQUANT	3	Ich Filter
VCHRANGE	IQUANT	2	Vch Range
VCHRANGEMODE	TOGGLE	F	Vch Auto Range
VCHOFFSETENABLE	TOGGLE	T	Vch Offset Enable
VCHOFFSET	QUANT	0	Vch Offset (V)
VCHFILTER	IQUANT	3	Vch Filter
ACHRANGE	IQUANT	2	Ach Range
ACHOFFSETENABLE	TOGGLE	F	Ach Offset Enable
ACHOFFSET	QUANT	0	Ach Offset (V)
ACHFILTER	IQUANT	3	Ach Filter
IERANGELOWERLIMIT	IQUANT	2	I/E Range Lower Limit
IERANGEMODE	TOGGLE	F	I/E AutoRange
IERANGE	IQUANT	11	I/E Range
POSFEEDENABLE	TOGGLE	F	Positive Feedback IR Comp
POSFEEDRESISTANCE	QUANT	0	Positive Feedback Resistance (ohm)
ACHSELECT	IQUANT	0	Ach Select
CABLEID	IQUANT	13	Cable ID
DCCALDATE	LABEL	7/31/2020	DC Calibration Date
ACCALDATE	LABEL	7/31/2020	AC Calibration Date
THERMOSELECT	IQUANT	1	Thermo Select
FRAMEWORKVERSION	QUANT	6.33	Framework Version
INSTRUMENTVERSION	LABEL	3.50	Instrument Version
COMPLIANCEVOLTAGE	IQUANT	0	Compliance Voltage
ZCURVE	TABLE
	Pt	Time	Freq	Zreal	Zimag	Zsig	Zmod	Zphz	Idc	Vdc	IERange
	#	s	Hz	ohm	ohm	V	ohm	°	A	V	#
	0	23	300046.9	1150.095	-3328.993	1	3522.061	-70.94107	-0.0000973	0.0021498	9
	1	38	238359.4	1595.97	-3907.4	1	4220.769	-67.78253	2.318012E-005	-0.0003794	9
	2	55	189328.1	2040.826	-4679.547	1	5105.207	-66.4372	2.510731E-005	-0.0014523	9
	3	63	150421.9	2934.747	-5294.054	1	6053.077	-60.99831	1.914013E-005	-0.0019624	9
	4	70	119484.4	4095.218	-6197.041	1	7427.929	-56.5419	1.895327E-005	-0.0171833	8
	5	78	94921.88	5168.368	-6918.745	1	8636.032	-53.23992	-2.3479E-005	0.010721	8
	6	86	75421.88	6683.287	-7693.982	1	10191.35	-49.02117	-2.35865E-005	0.0053837	8
	7	95	59859.37	8421.552	-8150.207	1	11719.57	-44.06192	-9.896379E-006	-0.0017976	8
	8	104	47578.12	11619.3	-7688.672	1	13932.83	-33.49322	-6.044789E-006	0.0237411	7
	9	110	37828.12	13218.91	-7447.269	1	15172.39	-29.39603	4.442301E-006	-0.0002924	7
	10	116	30046.88	14768.58	-7068.808	1	16373.12	-25.57755	7.085328E-006	-0.0221443	7
	11	123	23859.38	16153.04	-6435.808	1	17387.94	-21.72367	2.477494E-006	0.0079503	7
	12	127	18984.38	17342.38	-5746.036	1	18269.52	-18.33154	-5.947843E-006	0.0234521	7
	13	131	15046.87	18225.88	-5060.458	1	18915.36	-15.51744	-8.531026E-007	-0.0124154	7
	14	135	11953.13	19087.55	-4332.342	1	19573.04	-12.78789	-5.02668E-006	0.0244507	7
	15	140	9515.62	19815.83	-3746.159	1	20166.83	-10.70536	3.363128E-006	-0.0227823	7
	16	144	7546.875	20493.51	-3141.741	1	20732.94	-8.715824	6.067401E-006	-0.0089757	7
	17	148	5928.309	21127.8	-2750.52	1	21306.09	-7.417327	6.997416E-006	-0.0168448	7
	18	152	4733.456	21309.98	-2374.028	1	21441.81	-6.356797	-4.94698E-006	0.0246144	7
	19	157	3796.875	21813.86	-1836.8	1	21891.05	-4.813144	1.345409E-006	-0.0185632	7
	20	161	2987.132	22100.39	-1564.086	1	22155.67	-4.048178	-6.060936E-006	0.0239306	7
	21	165	2390.625	22634.39	-1425.761	1	22679.25	-3.604352	-4.847362E-006	0.0032037	7
	22	170	1884.191	23043.46	-1579.563	1	23097.53	-3.921326	-6.187852E-006	0.0110919	7
	23	174	1516.544	23352.32	-1025.002	1	23374.8	-2.513267	-3.503161E-006	0.0235565	7
	24	178	1193.986	23747.93	-1268.23	1	23781.77	-3.056909	-3.510636E-006	0.0235744	7
	25	183	946.5144	25368.51	-1333.811	1	25403.55	-3.009693	-9.445665E-006	-0.0001619	9
	26	187	751.7689	24652.62	-1195.098	1	24681.57	-2.775384	6.95289E-006	-0.0166851	7
	27	191	597.4265	26764.01	1705.872	1	26818.31	3.64696	2.719547E-005	-0.0074095	8
	28	196	477.4305	25464.81	-1075.679	1	25487.52	-2.418839	-1.939399E-007	0.0006386	8
	29	199	376.6741	25806.72	-1115.501	1	25830.82	-2.47508	-6.446529E-008	0.0006584	7
	30	202	298.2954	26098.18	-1228.555	1	26127.08	-2.695171	-6.407545E-008	0.000671	7
	31	204	237.7717	26401.83	-1369.156	1	26437.3	-2.968607	-5.543419E-008	0.0005877	7
	32	207	189.0121	26730.46	-1559.478	1	26775.91	-3.338901	-5.854022E-008	0.000663	7
	33	209	150.2404	27090.09	-1783.031	1	27148.7	-3.765694	-6.185609E-008	0.0006323	7
	34	211	119.1737	27457.53	-2067.418	1	27535.25	-4.305968	-5.539489E-008	0.0006321	7
	35	214	95.0169	27870.21	-2392.27	1	27972.69	-4.90602	-6.269015E-008	0.0006307	7
	36	216	75.60484	28329.02	-2788.859	1	28465.96	-5.622383	-6.439567E-008	0.0006716	7
	37	219	54.50582	28914.48	-3464.319	1	29121.27	-6.832189	-6.112929E-008	0.0005974	7
	38	221	45.95588	29398.12	-3919.369	1	29658.24	-7.593915	-4.955239E-008	0.000583	7
	39	224	37.20238	29943.5	-4543.016	1	30286.17	-8.627099	-4.841799E-008	0.0005776	7
	40	226	30.04808	30562.46	-5270.644	1	31013.61	-9.78469	-6.057937E-008	0.000677	7
	41	229	23.91582	31244.46	-6164.042	1	31846.7	-11.16024	-5.873548E-008	0.0005784	7
	42	231	18.60119	32070.81	-7415.743	1	32917.02	-13.01969	-3.83844E-008	0.0006559	7
	43	233	15.02404	32935.11	-8518.18	1	34018.84	-14.50095	-4.58356E-008	0.0006121	7
	44	235	12.01923	33889.22	-9991.37	1	35331.38	-16.4268	-3.85262E-008	0.0006112	7
	45	238	9.450605	35035.02	-11871.36	1	36991.65	-18.71857	-5.341103E-008	0.0006398	7
	46	240	7.512019	36379.06	-14082.52	1	39009.66	-21.16167	-6.165077E-009	0.0006812	6
	47	243	5.978954	37828.71	-16628.66	1	41322.2	-23.72923	3.634774E-010	0.0007078	6
	48	246	4.734848	39645.84	-19775.72	1	44304.3	-26.51046	-1.265161E-008	0.0006225	6
	49	249	3.75601	41686.2	-23446.46	1	47827.55	-29.35563	5.038551E-010	0.0006396	6
	50	253	3.004808	44027.01	-27604.28	1	51965.12	-32.0871	-4.526491E-009	0.0007177	6
	51	257	2.372217	46897.44	-32826.34	1	57244.55	-34.99049	-4.542752E-009	0.0006247	6
	52	261	1.878005	50335.2	-39142.09	1	63763.12	-37.86966	-3.323598E-009	0.0006753	6
	53	266	1.512097	54076.9	-45938.37	1	70955.23	-40.34793	-4.956978E-009	0.0006145	6
	54	271	1.201923	58895.11	-54673.48	1	80360.58	-42.87115	-5.840924E-009	0.0006942	6
	55	277	0.956633	64575.36	-64990.43	1	91617.32	-45.18355	-1.037031E-008	2.539012E-005	6
