EXPLAIN
TAG	EISPOT
TITLE	LABEL	Potentiostatic EIS	Test Identifier
DATE	LABEL	2/25/2021	Date
TIME	LABEL	18:14:21	Time
NOTES	NOTES	1	Notes...
	
PSTAT	PSTAT	REF3000-16137	Potentiostat
VDC	POTEN	0.00000E+000	T	DC Voltage (V)
FREQINIT	QUANT	3.00000E+005	Initial Freq. (Hz)
FREQFINAL	QUANT	1.00000E+000	Final Freq. (Hz)
PTSPERDEC	QUANT	1.00000E+001	Points/decade
VAC	QUANT	5.00000E+001	AC Voltage (mV rms)
AREA	QUANT	1.00000E+000	Sample Area (cm^2)
SPEED	SELECTOR	2	Optimize for:
ZGUESS	QUANT	1.00000E+003	Estimated Z (ohms)
EOC	QUANT	0	Open Circuit (V)
SEQUENCER	TOGGLE	TRUE	Run as Sequence
PSTATMODEL	IQUANT	5	Pstat Model
PSTATSECTION	LABEL	REF3000-16137	Pstat Section
PSTATSERIALNO	LABEL	16137	Pstat Serial Number
CTRLMODE	IQUANT	1	Control Mode
IESTAB	IQUANT	0	I/E Stability
CASPEED	IQUANT	1	Control Amp Speed
CONVENTION	IQUANT	1	Current Convention
ICHRANGE	IQUANT	2	Ich Range
ICHRANGEMODE	TOGGLE	F	Ich Auto Range
ICHOFFSETENABLE	TOGGLE	T	Ich Offset Enable
ICHOFFSET	QUANT	0	Ich Offset (V)
ICHFILTER	IQUANT	3	Ich Filter
VCHRANGE	IQUANT	2	Vch Range
VCHRANGEMODE	TOGGLE	F	Vch Auto Range
VCHOFFSETENABLE	TOGGLE	T	Vch Offset Enable
VCHOFFSET	QUANT	0	Vch Offset (V)
VCHFILTER	IQUANT	3	Vch Filter
ACHRANGE	IQUANT	2	Ach Range
ACHOFFSETENABLE	TOGGLE	F	Ach Offset Enable
ACHOFFSET	QUANT	0	Ach Offset (V)
ACHFILTER	IQUANT	3	Ach Filter
IERANGELOWERLIMIT	IQUANT	2	I/E Range Lower Limit
IERANGEMODE	TOGGLE	F	I/E AutoRange
IERANGE	IQUANT	11	I/E Range
POSFEEDENABLE	TOGGLE	F	Positive Feedback IR Comp
POSFEEDRESISTANCE	QUANT	0	Positive Feedback Resistance (ohm)
ACHSELECT	IQUANT	0	Ach Select
CABLEID	IQUANT	13	Cable ID
DCCALDATE	LABEL	7/31/2020	DC Calibration Date
ACCALDATE	LABEL	7/31/2020	AC Calibration Date
THERMOSELECT	IQUANT	1	Thermo Select
FRAMEWORKVERSION	QUANT	6.33	Framework Version
INSTRUMENTVERSION	LABEL	3.50	Instrument Version
COMPLIANCEVOLTAGE	IQUANT	0	Compliance Voltage
ZCURVE	TABLE
	Pt	Time	Freq	Zreal	Zimag	Zsig	Zmod	Zphz	Idc	Vdc	IERange
	#	s	Hz	ohm	ohm	V	ohm	°	A	V	#
	0	7	300046.9	62.63605	1.189555	1	62.64735	1.088004	1.556972E-005	0.0002472	9
	1	10	238359.4	63.03028	0.6795289	1	63.03395	0.6176813	-1.040797E-005	-0.0011592	9
	2	14	189328.1	63.23866	0.2164623	1	63.23903	0.1961194	-8.625967E-006	0.0006153	9
	3	16	150421.9	63.6083	-0.1144618	1	63.6084	-0.1031024	-6.385864E-005	0.0017001	9
	4	19	119484.4	63.84081	-0.7036328	1	63.84468	-0.63147	1.152696E-005	-0.0008877	9
	5	21	94921.88	64.20015	-0.8778684	1	64.20615	-0.7834097	-1.311456E-005	0.0001424	9
	6	24	75421.88	64.44962	-1.371642	1	64.46421	-1.219208	2.149075E-005	-0.0005292	9
	7	26	59859.37	64.78313	-1.916999	1	64.81149	-1.694946	-9.638944E-006	0.000707	9
	8	29	47578.12	65.17099	-2.492759	1	65.21864	-2.190468	2.151548E-005	-0.0003926	9
	9	31	37828.12	65.55423	-3.11366	1	65.62814	-2.719361	1.992275E-005	-0.0002906	9
	10	34	30046.88	66.02403	-3.774058	1	66.13181	-3.271574	1.979882E-005	-0.00016	9
	11	36	23859.38	66.53713	-4.571752	1	66.69401	-3.930603	-1.324518E-005	0.0001856	9
	12	39	18984.38	67.12053	-5.479958	1	67.34386	-4.667479	1.967707E-005	-0.0005451	9
	13	41	15046.87	67.72722	-6.529112	1	68.04121	-5.506473	1.708283E-005	-0.0001355	9
	14	43	11953.13	68.46336	-7.740242	1	68.89951	-6.450284	1.779121E-005	-7.806331E-005	9
	15	46	9515.62	69.29884	-9.171947	1	69.90317	-7.539479	-1.806494E-006	0.0004727	9
	16	48	7546.875	70.24304	-10.80529	1	71.06926	-8.745101	2.342856E-005	-0.0004835	9
	17	50	5928.309	71.37466	-12.93505	1	72.53729	-10.27208	-1.063539E-005	0.0007198	9
	18	52	4733.456	72.59428	-15.23003	1	74.17468	-11.84861	-1.328603E-005	0.0002196	9
	19	55	3796.875	73.95432	-17.90653	1	76.0913	-13.61105	-1.662404E-005	0.0007174	9
	20	57	2987.132	75.61974	-21.32899	1	78.57016	-15.75142	-1.315143E-005	0.0002138	9
	21	59	2390.625	77.4211	-25.15039	1	81.40375	-17.99649	2.015578E-005	-0.0002525	9
	22	62	1884.191	79.70837	-29.88405	1	85.12627	-20.55189	-1.719743E-005	0.0007009	9
	23	64	1516.544	82.03964	-35.21106	1	89.27666	-23.2288	2.043889E-005	-0.0002381	9
	24	66	1193.986	85.09903	-42.05685	1	94.9243	-26.29907	1.0662E-005	0.000153	9
	25	69	946.5144	88.61852	-50.03093	1	101.7661	-29.44756	1.112902E-005	-0.0005053	9
	26	71	751.7689	92.67799	-59.35584	1	110.056	-32.63763	-1.010462E-005	0.0007114	9
	27	73	597.4265	97.5519	-70.55571	1	120.393	-35.87683	-1.73189E-005	0.0004829	9
	28	76	477.4305	103.0361	-83.41616	1	132.5696	-38.99301	1.370272E-006	8.38442E-005	9
	29	78	376.6741	109.8854	-99.5612	1	148.2809	-42.17802	1.37496E-006	8.091897E-005	9
	30	80	298.2954	117.7828	-118.5191	1	167.0915	-45.17853	1.417316E-006	8.23341E-005	9
	31	83	237.7717	126.7144	-140.4639	1	189.1736	-47.94595	1.36913E-006	8.327805E-005	9
	32	85	189.0121	137.1821	-166.9589	1	216.0884	-50.59169	1.36567E-006	8.449736E-005	9
	33	88	150.2404	149.3391	-198.6748	1	248.5434	-53.0687	1.360072E-006	8.038322E-005	9
	34	90	119.1737	163.6549	-237.1758	1	288.1585	-55.39373	1.387279E-006	8.741721E-005	9
	35	92	95.0169	179.9787	-282.3815	1	334.8607	-57.48818	1.371036E-006	8.032042E-005	9
	36	95	75.60484	199.3238	-337.2373	1	391.7384	-59.41483	1.385894E-006	8.326667E-005	9
	37	97	54.50582	232.1504	-433.8687	1	492.073	-61.85007	3.023577E-007	0.0006572	8
	38	100	45.95588	253.5132	-496.4982	1	557.4759	-62.95103	3.480669E-007	0.000666	8
	39	102	37.20238	283.9986	-586.9728	1	652.0677	-64.18063	3.171513E-007	0.0006662	8
	40	105	30.04808	320.4043	-695.6876	1	765.9244	-65.2712	3.537113E-007	0.0006597	8
	41	107	23.91582	366.9066	-834.6923	1	911.7739	-66.2711	3.335377E-007	0.0006621	8
	42	109	18.60119	428.7733	-1020.825	1	1107.217	-67.21631	4.166575E-007	0.0006594	8
	43	112	15.02404	493.0853	-1211.63	1	1308.121	-67.85563	2.830223E-007	0.0006641	8
	44	114	12.01923	574.4547	-1449.142	1	1558.849	-68.37612	4.008902E-007	0.0006603	8
	45	117	9.450605	682.034	-1757.915	1	1885.587	-68.7948	2.881808E-007	0.000661	8
	46	119	7.512019	807.9112	-2112.964	1	2262.153	-69.07518	2.92506E-007	0.0006508	8
	47	122	5.978954	963.244	-2536.116	1	2712.881	-69.20269	3.179144E-007	0.0006598	8
	48	125	4.734848	1163.508	-3055.082	1	3269.14	-69.15099	3.543522E-007	0.0006481	8
	49	128	3.75601	1405.436	-3669.132	1	3929.094	-69.041	3.337227E-007	0.0006575	8
	50	132	3.004808	1698.221	-4374.915	1	4692.956	-68.78516	3.290825E-008	0.0006134	7
	51	135	2.372217	2079.465	-5246	1	5643.11	-68.37709	1.118241E-008	0.0006311	7
	52	139	1.878005	2556.791	-6279.829	1	6780.371	-67.84663	-4.635105E-010	0.0006326	7
	53	144	1.512097	3082.127	-7393.366	1	8010.079	-67.36985	1.659473E-008	0.0005351	7
	54	150	1.201923	3771.784	-8770.907	1	9547.52	-66.73067	4.812732E-009	0.0006378	7
	55	156	0.956633	4588.217	-10360.61	1	11331.1	-66.11374	1.71576E-009	-4.631956E-006	7
