EXPLAIN
TAG	EISPOT
TITLE	LABEL	Potentiostatic EIS	Test Identifier
DATE	LABEL	2/25/2021	Date
TIME	LABEL	18:00:34	Time
NOTES	NOTES	1	Notes...
	
PSTAT	PSTAT	REF3000-16137	Potentiostat
VDC	POTEN	0.00000E+000	T	DC Voltage (V)
FREQINIT	QUANT	3.00000E+005	Initial Freq. (Hz)
FREQFINAL	QUANT	1.00000E+000	Final Freq. (Hz)
PTSPERDEC	QUANT	1.00000E+001	Points/decade
VAC	QUANT	5.00000E+001	AC Voltage (mV rms)
AREA	QUANT	1.00000E+000	Sample Area (cm^2)
SPEED	SELECTOR	2	Optimize for:
ZGUESS	QUANT	1.00000E+003	Estimated Z (ohms)
EOC	QUANT	0	Open Circuit (V)
SEQUENCER	TOGGLE	TRUE	Run as Sequence
PSTATMODEL	IQUANT	5	Pstat Model
PSTATSECTION	LABEL	REF3000-16137	Pstat Section
PSTATSERIALNO	LABEL	16137	Pstat Serial Number
CTRLMODE	IQUANT	1	Control Mode
IESTAB	IQUANT	0	I/E Stability
CASPEED	IQUANT	1	Control Amp Speed
CONVENTION	IQUANT	1	Current Convention
ICHRANGE	IQUANT	2	Ich Range
ICHRANGEMODE	TOGGLE	F	Ich Auto Range
ICHOFFSETENABLE	TOGGLE	T	Ich Offset Enable
ICHOFFSET	QUANT	0	Ich Offset (V)
ICHFILTER	IQUANT	3	Ich Filter
VCHRANGE	IQUANT	2	Vch Range
VCHRANGEMODE	TOGGLE	F	Vch Auto Range
VCHOFFSETENABLE	TOGGLE	T	Vch Offset Enable
VCHOFFSET	QUANT	0	Vch Offset (V)
VCHFILTER	IQUANT	3	Vch Filter
ACHRANGE	IQUANT	2	Ach Range
ACHOFFSETENABLE	TOGGLE	F	Ach Offset Enable
ACHOFFSET	QUANT	0	Ach Offset (V)
ACHFILTER	IQUANT	3	Ach Filter
IERANGELOWERLIMIT	IQUANT	2	I/E Range Lower Limit
IERANGEMODE	TOGGLE	F	I/E AutoRange
IERANGE	IQUANT	11	I/E Range
POSFEEDENABLE	TOGGLE	F	Positive Feedback IR Comp
POSFEEDRESISTANCE	QUANT	0	Positive Feedback Resistance (ohm)
ACHSELECT	IQUANT	0	Ach Select
CABLEID	IQUANT	13	Cable ID
DCCALDATE	LABEL	7/31/2020	DC Calibration Date
ACCALDATE	LABEL	7/31/2020	AC Calibration Date
THERMOSELECT	IQUANT	1	Thermo Select
FRAMEWORKVERSION	QUANT	6.33	Framework Version
INSTRUMENTVERSION	LABEL	3.50	Instrument Version
COMPLIANCEVOLTAGE	IQUANT	0	Compliance Voltage
ZCURVE	TABLE
	Pt	Time	Freq	Zreal	Zimag	Zsig	Zmod	Zphz	Idc	Vdc	IERange
	#	s	Hz	ohm	ohm	V	ohm	°	A	V	#
	0	7	300046.9	29.22533	0.8586119	1	29.23794	1.68281	7.812824E-006	6.89668E-006	11
	1	12	238359.4	29.40643	0.8251711	1	29.41801	1.60735	-5.474381E-005	0.0005815	10
	2	15	189328.1	29.51717	0.4261751	1	29.52024	0.827191	2.829017E-006	0.0006975	10
	3	17	150421.9	29.61627	0.0649947	1	29.61634	0.1257388	-2.996912E-005	0.0005054	10
	4	20	119484.4	29.75636	-0.3124751	1	29.758	-0.6016477	1.911023E-005	0.0006137	10
	5	22	94921.88	29.89812	-0.648432	1	29.90515	-1.242439	2.284695E-005	0.0006967	10
	6	25	75421.88	30.06339	-1.010776	1	30.08038	-1.925645	-1.68865E-005	0.0006454	10
	7	27	59859.37	30.25145	-1.389422	1	30.28334	-2.629696	2.378238E-005	0.0006482	10
	8	30	47578.12	30.46123	-1.796325	1	30.51415	-3.374873	-1.104037E-005	0.0007463	10
	9	32	37828.12	30.69602	-2.240529	1	30.77768	-4.174666	-1.559504E-005	0.0006778	10
	10	35	30046.88	30.96616	-2.740657	1	31.0872	-5.057779	-2.812004E-005	0.0006731	10
	11	37	23859.38	31.27155	-3.304857	1	31.4457	-6.03277	-2.516696E-006	0.0006537	10
	12	40	18984.38	31.61742	-3.96139	1	31.86462	-7.141452	1.555534E-005	0.0006634	10
	13	42	15046.87	32.00991	-4.736012	1	32.35838	-8.416115	7.427891E-006	0.0007435	10
	14	44	11953.13	32.46995	-5.629261	1	32.95431	-9.83551	7.643652E-006	0.0007456	10
	15	47	9515.62	32.97747	-6.68106	1	33.64743	-11.45281	-1.707231E-005	0.0006691	10
	16	49	7546.875	33.5781	-7.918199	1	34.49908	-13.26876	1.4894E-005	0.0006656	10
	17	51	5928.309	34.29077	-9.48624	1	35.57872	-15.46364	-2.443055E-005	0.0007013	10
	18	54	4733.456	35.01783	-11.18028	1	36.75931	-17.70693	8.590044E-006	8.793409E-005	9
	19	56	3796.875	35.89964	-13.19394	1	38.24741	-20.17953	-1.315444E-005	0.0004925	9
	20	58	2987.132	36.99894	-15.80077	1	40.23165	-23.12539	-1.247886E-005	0.000514	9
	21	61	2390.625	38.19746	-18.70531	1	42.53157	-26.09101	7.486934E-006	-0.0002936	9
	22	63	1884.191	39.72611	-22.37144	1	45.59216	-29.38568	-2.017052E-006	-5.569638E-005	9
	23	65	1516.544	41.32741	-26.40726	1	49.04384	-32.57764	2.976844E-006	-0.0001873	9
	24	68	1193.986	43.42126	-31.67453	1	53.74646	-36.10965	-1.056618E-005	0.0002244	9
	25	70	946.5144	45.83237	-37.8552	1	59.44427	-39.55497	1.214753E-005	-0.0003614	9
	26	72	751.7689	48.65148	-45.07358	1	66.3219	-42.81383	-2.350481E-006	-3.199985E-005	9
	27	75	597.4265	51.92142	-53.71471	1	74.70679	-45.97257	1.518416E-005	-0.0003734	9
	28	77	477.4305	55.66997	-63.81215	1	84.68256	-48.89843	1.2971E-006	8.683885E-005	9
	29	79	376.6741	60.29353	-76.61211	1	97.4922	-51.79735	1.313069E-006	8.156127E-005	9
	30	82	298.2954	65.64104	-91.82819	1	112.8768	-54.44189	1.277656E-006	8.744645E-005	9
	31	84	237.7717	71.76319	-109.6331	1	131.032	-56.79221	1.379286E-006	8.157598E-005	9
	32	86	189.0121	79.07736	-131.3259	1	153.2962	-58.94592	1.280913E-006	8.202672E-005	9
	33	89	150.2404	87.75592	-157.4881	1	180.2875	-60.87246	1.341583E-006	8.686063E-005	9
	34	91	119.1737	98.2106	-189.347	1	213.3017	-62.58511	1.332179E-006	8.886258E-005	9
	35	94	95.0169	110.4314	-226.8932	1	252.3403	-64.04732	1.281246E-006	8.682739E-005	9
	36	96	75.60484	125.2329	-272.5489	1	299.9436	-65.3218	1.384988E-006	8.7767E-005	9
	37	99	54.50582	151.7453	-354.5365	1	385.6459	-66.82858	1.40959E-006	8.209475E-005	9
	38	101	45.95588	168.1053	-405.2155	1	438.7014	-67.46869	4.441449E-007	0.0006693	8
	39	104	37.20238	192.7824	-480.5787	1	517.804	-68.14199	4.859855E-007	0.0006638	8
	40	106	30.04808	222.7805	-571.1123	1	613.0256	-68.69015	4.791827E-007	0.0006605	8
	41	108	23.91582	262.2459	-686.8985	1	735.2567	-69.10401	4.999771E-007	0.0006631	8
	42	111	18.60119	316.0152	-841.0295	1	898.441	-69.40639	4.784089E-007	0.0006723	8
	43	113	15.02404	372.5309	-998.133	1	1065.387	-69.53304	5.721395E-007	0.0006692	8
	44	115	12.01923	445.7099	-1192.359	1	1272.94	-69.504	4.75676E-007	0.000667	8
	45	118	9.450605	543.6941	-1441.895	1	1540.995	-69.3401	5.400067E-007	0.0006615	8
	46	120	7.512019	658.5964	-1725.605	1	1847.015	-69.11009	5.064869E-007	0.000686	8
	47	123	5.978954	801.4039	-2059.026	1	2209.488	-68.73326	4.80694E-007	0.000661	8
	48	126	4.734848	979.339	-2460.808	1	2648.524	-68.29871	5.385996E-007	0.0006891	8
	49	129	3.75601	1199.006	-2930.569	1	3166.363	-67.74868	4.524017E-007	0.0006464	8
	50	133	3.004808	1454.499	-3458.213	1	3751.64	-67.18874	4.596626E-007	0.0006918	8
	51	136	2.372217	1793.242	-4115.451	1	4489.171	-66.45561	1.561296E-008	0.0006981	7
	52	141	1.878005	2185.473	-4879.106	1	5346.211	-65.87121	-9.090535E-009	0.000626	7
	53	145	1.512097	2612.27	-5686.154	1	6257.5	-65.32553	1.149076E-008	0.0005978	7
	54	151	1.201923	3168.477	-6689.436	1	7401.878	-64.65524	3.619672E-009	0.0006195	7
	55	157	0.956633	3809.599	-7838.478	1	8715.204	-64.07966	-2.301222E-009	-3.120969E-006	7
