May 17, 2026   14:53:50
A.C. Impedance
File: e:\chi_data\bo-r0.50-n0.90-23yp-2_t-32.0_f0.1_1000000_v0.txt
Data Source:  Experiment
Instrument Model:  CHI660E
Header: 
Note: 

Init E (V) = 0
High Frequency (Hz) = 1e+6
Low Frequency (Hz) = 0.1
Imp SF
Amplitude (V) = 0.005
Quiet Time (sec) = 2
Cycles (.1-1Hz) = 1

Freq/Hz, Z'/ohm, Z"/ohm, Z/ohm, Phase/deg

8.252e+5, 8.438e+0, 1.134e+1, 1.414e+1, 53.4
6.816e+5, 7.926e+0, 9.033e+0, 1.202e+1, 48.7
5.625e+5, 7.404e+0, 7.544e+0, 1.057e+1, 45.5
4.639e+5, 7.210e+0, 6.087e+0, 9.436e+0, 40.2
3.828e+5, 7.077e+0, 5.032e+0, 8.684e+0, 35.4
3.164e+5, 7.026e+0, 4.060e+0, 8.114e+0, 30.0
2.607e+5, 6.965e+0, 3.284e+0, 7.700e+0, 25.2
2.158e+5, 6.929e+0, 2.591e+0, 7.397e+0, 20.5
1.777e+5, 6.919e+0, 1.983e+0, 7.197e+0, 16.0
1.465e+5, 6.937e+0, 1.451e+0, 7.087e+0, 11.8
1.211e+5, 6.959e+0, 1.019e+0, 7.033e+0, 8.3
9.961e+4, 6.991e+0, 6.381e-1, 7.020e+0, 5.2
8.252e+4, 7.045e+0, 3.017e-1, 7.052e+0, 2.5
6.812e+4, 7.119e+0, -1.351e-2, 7.119e+0, -0.1
5.625e+4, 7.208e+0, -3.129e-1, 7.215e+0, -2.5
4.644e+4, 7.327e+0, -6.062e-1, 7.352e+0, -4.7
3.833e+4, 7.478e+0, -8.842e-1, 7.530e+0, -6.7
3.164e+4, 7.649e+0, -1.144e+0, 7.734e+0, -8.5
2.612e+4, 7.839e+0, -1.388e+0, 7.961e+0, -10.0
2.153e+4, 8.057e+0, -1.618e+0, 8.218e+0, -11.4
1.777e+4, 8.297e+0, -1.844e+0, 8.499e+0, -12.5
1.470e+4, 8.542e+0, -2.064e+0, 8.787e+0, -13.6
1.211e+4, 8.792e+0, -2.276e+0, 9.082e+0, -14.5
1.001e+4, 9.051e+0, -2.491e+0, 9.388e+0, -15.4
8.252e+3, 9.315e+0, -2.717e+0, 9.703e+0, -16.3
6.812e+3, 9.575e+0, -2.960e+0, 1.002e+1, -17.2
5.625e+3, 9.825e+0, -3.232e+0, 1.034e+1, -18.2
4.643e+3, 1.007e+1, -3.549e+0, 1.068e+1, -19.4
3.833e+3, 1.030e+1, -3.931e+0, 1.103e+1, -20.9
3.164e+3, 1.053e+1, -4.396e+0, 1.141e+1, -22.7
2.612e+3, 1.077e+1, -4.960e+0, 1.185e+1, -24.7
2.153e+3, 1.100e+1, -5.644e+0, 1.237e+1, -27.2
1.777e+3, 1.125e+1, -6.467e+0, 1.298e+1, -29.9
1.470e+3, 1.151e+1, -7.463e+0, 1.372e+1, -32.9
1.211e+3, 1.181e+1, -8.665e+0, 1.464e+1, -36.3
1.001e+3, 1.213e+1, -1.010e+1, 1.578e+1, -39.8
8.252e+2, 1.249e+1, -1.180e+1, 1.719e+1, -43.4
6.836e+2, 1.291e+1, -1.385e+1, 1.893e+1, -47.0
5.615e+2, 1.344e+1, -1.631e+1, 2.113e+1, -50.5
4.639e+2, 1.408e+1, -1.929e+1, 2.388e+1, -53.9
3.809e+2, 1.482e+1, -2.279e+1, 2.718e+1, -57.0
3.174e+2, 1.570e+1, -2.695e+1, 3.119e+1, -59.8
2.588e+2, 1.673e+1, -3.188e+1, 3.600e+1, -62.3
2.148e+2, 1.796e+1, -3.773e+1, 4.179e+1, -64.5
1.758e+2, 1.940e+1, -4.458e+1, 4.862e+1, -66.5
1.465e+2, 2.103e+1, -5.237e+1, 5.644e+1, -68.1
1.221e+2, 2.303e+1, -6.201e+1, 6.615e+1, -69.6
9.766e+1, 2.554e+1, -7.323e+1, 7.755e+1, -70.8
8.254e+1, 2.843e+1, -8.601e+1, 9.059e+1, -71.7
6.813e+1, 3.159e+1, -1.014e+2, 1.062e+2, -72.7
5.623e+1, 3.505e+1, -1.196e+2, 1.246e+2, -73.7
4.642e+1, 3.898e+1, -1.414e+2, 1.467e+2, -74.6
3.831e+1, 4.352e+1, -1.676e+2, 1.732e+2, -75.4
3.162e+1, 4.870e+1, -1.988e+2, 2.046e+2, -76.2
2.610e+1, 5.468e+1, -2.357e+2, 2.420e+2, -76.9
2.154e+1, 6.161e+1, -2.797e+2, 2.864e+2, -77.6
1.778e+1, 6.971e+1, -3.320e+2, 3.392e+2, -78.1
1.468e+1, 7.937e+1, -3.943e+2, 4.022e+2, -78.6
1.212e+1, 9.083e+1, -4.685e+2, 4.772e+2, -79.0
1.000e+1, 1.046e+2, -5.571e+2, 5.668e+2, -79.4
8.254e+0, 1.209e+2, -6.627e+2, 6.737e+2, -79.7
6.813e+0, 1.399e+2, -7.888e+2, 8.011e+2, -79.9
5.623e+0, 1.620e+2, -9.392e+2, 9.531e+2, -80.2
4.642e+0, 1.881e+2, -1.119e+3, 1.135e+3, -80.5
3.831e+0, 2.196e+2, -1.333e+3, 1.351e+3, -80.6
3.162e+0, 2.572e+2, -1.589e+3, 1.610e+3, -80.8
2.610e+0, 3.032e+2, -1.897e+3, 1.921e+3, -80.9
2.154e+0, 3.536e+2, -2.267e+3, 2.294e+3, -81.1
1.778e+0, 4.114e+2, -2.706e+3, 2.737e+3, -81.4
1.468e+0, 4.874e+2, -3.224e+3, 3.261e+3, -81.4
1.212e+0, 5.880e+2, -3.834e+3, 3.879e+3, -81.3
1.000e+0, 7.191e+2, -4.551e+3, 4.607e+3, -81.0
8.254e-1, 8.819e+2, -5.391e+3, 5.463e+3, -80.7
6.813e-1, 1.078e+3, -6.378e+3, 6.469e+3, -80.4
5.623e-1, 1.314e+3, -7.545e+3, 7.659e+3, -80.1
4.642e-1, 1.598e+3, -8.925e+3, 9.067e+3, -79.8
3.831e-1, 1.945e+3, -1.055e+4, 1.073e+4, -79.6
3.162e-1, 2.370e+3, -1.246e+4, 1.269e+4, -79.2
2.610e-1, 2.890e+3, -1.471e+4, 1.499e+4, -78.9
2.154e-1, 3.522e+3, -1.733e+4, 1.769e+4, -78.5
1.778e-1, 4.303e+3, -2.041e+4, 2.086e+4, -78.1
1.468e-1, 5.257e+3, -2.399e+4, 2.456e+4, -77.6
1.212e-1, 6.410e+3, -2.817e+4, 2.889e+4, -77.2
1.000e-1, 7.777e+3, -3.296e+4, 3.386e+4, -76.7
