May 17, 2026   13:31:05
A.C. Impedance
File: e:\chi_data\bo-r0.50-n0.90-23yp-2_t-14.0_f0.1_1000000_v0.txt
Data Source:  Experiment
Instrument Model:  CHI660E
Header: 
Note: 

Init E (V) = 0
High Frequency (Hz) = 1e+6
Low Frequency (Hz) = 0.1
Imp SF
Amplitude (V) = 0.005
Quiet Time (sec) = 2
Cycles (.1-1Hz) = 1

Freq/Hz, Z'/ohm, Z"/ohm, Z/ohm, Phase/deg

8.252e+5, 5.025e+0, 1.175e+1, 1.278e+1, 66.8
6.816e+5, 4.551e+0, 9.555e+0, 1.058e+1, 64.5
5.625e+5, 4.002e+0, 7.886e+0, 8.843e+0, 63.1
4.639e+5, 3.779e+0, 6.421e+0, 7.451e+0, 59.5
3.828e+5, 3.604e+0, 5.291e+0, 6.402e+0, 55.7
3.164e+5, 3.527e+0, 4.317e+0, 5.575e+0, 50.8
2.607e+5, 3.450e+0, 3.517e+0, 4.926e+0, 45.6
2.158e+5, 3.396e+0, 2.819e+0, 4.413e+0, 39.7
1.777e+5, 3.362e+0, 2.209e+0, 4.023e+0, 33.3
1.465e+5, 3.353e+0, 1.681e+0, 3.751e+0, 26.6
1.211e+5, 3.354e+0, 1.240e+0, 3.575e+0, 20.3
9.961e+4, 3.373e+0, 8.520e-1, 3.478e+0, 14.2
8.252e+4, 3.408e+0, 5.079e-1, 3.445e+0, 8.5
6.812e+4, 3.461e+0, 1.922e-1, 3.467e+0, 3.2
5.625e+4, 3.531e+0, -1.055e-1, 3.532e+0, -1.7
4.644e+4, 3.620e+0, -3.917e-1, 3.642e+0, -6.2
3.833e+4, 3.732e+0, -6.642e-1, 3.791e+0, -10.1
3.164e+4, 3.866e+0, -9.230e-1, 3.974e+0, -13.4
2.612e+4, 4.022e+0, -1.172e+0, 4.189e+0, -16.3
2.153e+4, 4.200e+0, -1.414e+0, 4.432e+0, -18.6
1.777e+4, 4.404e+0, -1.642e+0, 4.700e+0, -20.5
1.470e+4, 4.629e+0, -1.861e+0, 4.989e+0, -21.9
1.211e+4, 4.869e+0, -2.075e+0, 5.293e+0, -23.1
1.001e+4, 5.121e+0, -2.288e+0, 5.609e+0, -24.1
8.252e+3, 5.380e+0, -2.500e+0, 5.933e+0, -24.9
6.812e+3, 5.639e+0, -2.718e+0, 6.260e+0, -25.7
5.625e+3, 5.891e+0, -2.955e+0, 6.590e+0, -26.6
4.643e+3, 6.134e+0, -3.224e+0, 6.929e+0, -27.7
3.833e+3, 6.366e+0, -3.540e+0, 7.284e+0, -29.1
3.164e+3, 6.590e+0, -3.921e+0, 7.668e+0, -30.8
2.612e+3, 6.808e+0, -4.386e+0, 8.098e+0, -32.8
2.153e+3, 7.026e+0, -4.957e+0, 8.599e+0, -35.2
1.777e+3, 7.249e+0, -5.657e+0, 9.195e+0, -38.0
1.470e+3, 7.484e+0, -6.510e+0, 9.919e+0, -41.0
1.211e+3, 7.738e+0, -7.541e+0, 1.080e+1, -44.3
1.001e+3, 8.023e+0, -8.778e+0, 1.189e+1, -47.6
8.252e+2, 8.346e+0, -1.025e+1, 1.322e+1, -50.8
6.836e+2, 8.723e+0, -1.201e+1, 1.485e+1, -54.0
5.615e+2, 9.169e+0, -1.413e+1, 1.685e+1, -57.0
4.639e+2, 9.697e+0, -1.665e+1, 1.927e+1, -59.8
3.809e+2, 1.032e+1, -1.963e+1, 2.217e+1, -62.3
3.174e+2, 1.106e+1, -2.318e+1, 2.568e+1, -64.5
2.588e+2, 1.191e+1, -2.741e+1, 2.988e+1, -66.5
2.148e+2, 1.289e+1, -3.243e+1, 3.490e+1, -68.3
1.758e+2, 1.401e+1, -3.832e+1, 4.080e+1, -69.9
1.465e+2, 1.525e+1, -4.508e+1, 4.759e+1, -71.3
1.221e+2, 1.675e+1, -5.348e+1, 5.604e+1, -72.6
9.766e+1, 1.864e+1, -6.332e+1, 6.601e+1, -73.6
8.254e+1, 2.082e+1, -7.463e+1, 7.748e+1, -74.4
6.813e+1, 2.324e+1, -8.829e+1, 9.130e+1, -75.3
5.623e+1, 2.591e+1, -1.046e+2, 1.077e+2, -76.1
4.642e+1, 2.899e+1, -1.242e+2, 1.275e+2, -76.9
3.831e+1, 3.263e+1, -1.476e+2, 1.512e+2, -77.5
3.162e+1, 3.693e+1, -1.756e+2, 1.795e+2, -78.1
2.610e+1, 4.199e+1, -2.089e+2, 2.131e+2, -78.6
2.154e+1, 4.799e+1, -2.485e+2, 2.531e+2, -79.1
1.778e+1, 5.509e+1, -2.956e+2, 3.007e+2, -79.4
1.468e+1, 6.362e+1, -3.516e+2, 3.573e+2, -79.7
1.212e+1, 7.399e+1, -4.183e+2, 4.248e+2, -80.0
1.000e+1, 8.673e+1, -4.979e+2, 5.054e+2, -80.1
8.254e+0, 1.021e+2, -5.928e+2, 6.015e+2, -80.2
6.813e+0, 1.203e+2, -7.058e+2, 7.160e+2, -80.3
5.623e+0, 1.420e+2, -8.404e+2, 8.523e+2, -80.4
4.642e+0, 1.679e+2, -1.001e+3, 1.015e+3, -80.5
3.831e+0, 1.996e+2, -1.191e+3, 1.208e+3, -80.5
3.162e+0, 2.378e+2, -1.419e+3, 1.438e+3, -80.5
2.610e+0, 2.846e+2, -1.691e+3, 1.715e+3, -80.4
2.154e+0, 3.368e+2, -2.017e+3, 2.045e+3, -80.5
1.778e+0, 3.977e+2, -2.404e+3, 2.436e+3, -80.6
1.468e+0, 4.767e+2, -2.857e+3, 2.896e+3, -80.5
1.212e+0, 5.791e+2, -3.388e+3, 3.438e+3, -80.3
1.000e+0, 7.121e+2, -4.013e+3, 4.075e+3, -79.9
8.254e-1, 8.775e+2, -4.741e+3, 4.822e+3, -79.5
6.813e-1, 1.077e+3, -5.592e+3, 5.695e+3, -79.1
5.623e-1, 1.317e+3, -6.591e+3, 6.722e+3, -78.7
4.642e-1, 1.607e+3, -7.768e+3, 7.933e+3, -78.3
3.831e-1, 1.964e+3, -9.147e+3, 9.356e+3, -77.9
3.162e-1, 2.404e+3, -1.076e+4, 1.102e+4, -77.4
2.610e-1, 2.940e+3, -1.263e+4, 1.296e+4, -76.9
2.154e-1, 3.591e+3, -1.479e+4, 1.522e+4, -76.4
1.778e-1, 4.358e+3, -1.726e+4, 1.780e+4, -75.8
1.468e-1, 5.277e+3, -2.013e+4, 2.081e+4, -75.3
1.212e-1, 6.371e+3, -2.345e+4, 2.430e+4, -74.8
1.000e-1, 7.637e+3, -2.718e+4, 2.823e+4, -74.3
