EXPLAIN
TAG	EISPOT
TITLE	LABEL	Potentiostatic EIS	Test Identifier
DATE	LABEL	10/12/2021	Date
TIME	LABEL	16:12:59	Time
NOTES	NOTES	1	Notes...
	
PSTAT	PSTAT	REF3000-16137	Potentiostat
VDC	POTEN	0.00000E+000	T	DC Voltage (V)
FREQINIT	QUANT	3.00000E+005	Initial Freq. (Hz)
FREQFINAL	QUANT	1.00000E+000	Final Freq. (Hz)
PTSPERDEC	QUANT	1.00000E+001	Points/decade
VAC	QUANT	5.00000E+001	AC Voltage (mV rms)
AREA	QUANT	1.00000E+000	Sample Area (cm^2)
SPEED	SELECTOR	2	Optimize for:
ZGUESS	QUANT	1.00000E+003	Estimated Z (ohms)
EOC	QUANT	0	Open Circuit (V)
SEQUENCER	TOGGLE	TRUE	Run as Sequence
PSTATMODEL	IQUANT	5	Pstat Model
PSTATSECTION	LABEL	REF3000-16137	Pstat Section
PSTATSERIALNO	LABEL	16137	Pstat Serial Number
CTRLMODE	IQUANT	1	Control Mode
IESTAB	IQUANT	0	I/E Stability
CASPEED	IQUANT	1	Control Amp Speed
CONVENTION	IQUANT	1	Current Convention
ICHRANGE	IQUANT	2	Ich Range
ICHRANGEMODE	TOGGLE	F	Ich Auto Range
ICHOFFSETENABLE	TOGGLE	T	Ich Offset Enable
ICHOFFSET	QUANT	0	Ich Offset (V)
ICHFILTER	IQUANT	3	Ich Filter
VCHRANGE	IQUANT	2	Vch Range
VCHRANGEMODE	TOGGLE	F	Vch Auto Range
VCHOFFSETENABLE	TOGGLE	T	Vch Offset Enable
VCHOFFSET	QUANT	0	Vch Offset (V)
VCHFILTER	IQUANT	3	Vch Filter
ACHRANGE	IQUANT	2	Ach Range
ACHOFFSETENABLE	TOGGLE	F	Ach Offset Enable
ACHOFFSET	QUANT	0	Ach Offset (V)
ACHFILTER	IQUANT	3	Ach Filter
IERANGELOWERLIMIT	IQUANT	2	I/E Range Lower Limit
IERANGEMODE	TOGGLE	F	I/E AutoRange
IERANGE	IQUANT	11	I/E Range
POSFEEDENABLE	TOGGLE	F	Positive Feedback IR Comp
POSFEEDRESISTANCE	QUANT	0	Positive Feedback Resistance (ohm)
ACHSELECT	IQUANT	0	Ach Select
CABLEID	IQUANT	13	Cable ID
DCCALDATE	LABEL	9/10/2021	DC Calibration Date
ACCALDATE	LABEL	9/10/2021	AC Calibration Date
THERMOSELECT	IQUANT	1	Thermo Select
FRAMEWORKVERSION	QUANT	6.33	Framework Version
INSTRUMENTVERSION	LABEL	3.50	Instrument Version
COMPLIANCEVOLTAGE	IQUANT	0	Compliance Voltage
ZCURVE	TABLE
	Pt	Time	Freq	Zreal	Zimag	Zsig	Zmod	Zphz	Idc	Vdc	IERange
	#	s	Hz	ohm	ohm	V	ohm	°	A	V	#
	0	8	300046.9	8.480958	2.331534	1	8.795607	15.37167	-3.127391E-005	-0.0007992	10
	1	11	238359.4	8.481378	1.831402	1	8.676854	12.18492	1.293993E-005	-0.0007444	10
	2	14	189328.1	8.492536	1.436958	1	8.613246	9.60363	3.570863E-006	-0.0004039	10
	3	16	150421.9	8.50892	1.124897	1	8.582954	7.530948	8.115976E-005	-0.0005615	10
	4	19	119484.4	8.538581	0.84768	1	8.580555	5.669544	-8.167553E-005	-0.000243	10
	5	21	94921.88	8.572524	0.6377272	1	8.596212	4.254511	-1.148584E-005	-0.0002261	10
	6	24	75421.88	8.602324	0.4435562	1	8.613752	2.951692	-1.893364E-005	-0.0001571	10
	7	27	59859.37	8.63742	0.2709874	1	8.641669	1.796988	2.588689E-005	-0.0001731	10
	8	29	47578.12	8.677496	0.1184786	1	8.678305	0.7822423	1.311375E-005	-0.000198	10
	9	32	37828.12	8.721209	-0.0213573	1	8.721234	-0.1403111	2.736569E-005	-0.0001554	10
	10	34	30046.88	8.766572	-0.1588197	1	8.76801	-1.037886	-9.214151E-006	-0.0001309	10
	11	37	23859.38	8.812744	-0.3027318	1	8.817943	-1.967428	1.469254E-005	-0.000169	10
	12	39	18984.38	8.862524	-0.4556972	1	8.874232	-2.943468	1.381837E-005	-0.0001708	10
	13	41	15046.87	8.917662	-0.6320357	1	8.940031	-4.054036	-2.869928E-005	-0.0001359	10
	14	44	11953.13	8.975537	-0.8337383	1	9.014177	-5.30698	-2.441366E-005	-8.501556E-005	10
	15	46	9515.62	9.037494	-1.068716	1	9.100464	-6.744109	-6.724496E-006	-0.0001582	10
	16	48	7546.875	9.109608	-1.357818	1	9.210245	-8.477718	2.516587E-005	-0.0001462	10
	17	51	5928.309	9.192814	-1.723183	1	9.352924	-10.61683	-2.514489E-005	-0.0001124	10
	18	53	4733.456	9.281246	-2.140237	1	9.52482	-12.9853	2.374646E-005	-0.0001437	10
	19	55	3796.875	9.38193	-2.639748	1	9.74622	-15.71475	2.220127E-005	-0.0001237	10
	20	58	2987.132	9.5047	-3.306916	1	10.06355	-19.18403	-2.762279E-005	-0.0000964	10
	21	60	2390.625	9.641	-4.070205	1	10.46496	-22.88833	-1.327006E-005	-6.872653E-005	10
	22	62	1884.191	9.80914	-5.075007	1	11.04422	-27.35594	1.269033E-005	-0.0001598	10
	23	65	1516.544	9.99311	-6.199611	1	11.75999	-31.815	-1.210377E-005	-0.0001236	10
	24	67	1193.986	10.23051	-7.726794	1	12.82055	-37.06265	-1.576432E-005	-0.0001521	10
	25	69	946.5144	10.50397	-9.56152	1	14.20408	-42.31089	2.350661E-005	-0.0001561	10
	26	72	751.7689	10.82627	-11.82306	1	16.031	-47.51995	5.277348E-006	-0.0001619	10
	27	74	597.4265	11.20736	-14.6114	1	18.41461	-52.51077	-2.664168E-005	-0.0001036	10
	28	76	477.4305	11.66016	-17.96984	1	21.42136	-57.02151	-1.06249E-006	-0.0001136	10
	29	79	376.6741	12.23291	-22.35756	1	25.48538	-61.31479	-1.621466E-006	-0.0001154	10
	30	81	298.2954	12.92531	-27.73445	1	30.59842	-65.0127	-1.850324E-006	-0.0001115	10
	31	83	237.7717	13.74999	-34.19486	1	36.85581	-68.0946	-2.175548E-006	-0.000118	10
	32	86	189.0121	14.75714	-42.2315	1	44.73558	-70.73883	5.945348E-007	-0.0001725	9
	33	88	150.2404	16.01817	-52.21543	1	54.61715	-72.94551	1.531874E-007	-0.0001255	9
	34	91	119.1737	17.59701	-64.70802	1	67.05806	-74.78662	3.374152E-007	-0.0001275	9
	35	93	95.0169	19.52019	-79.78605	1	82.13922	-76.25226	2.73719E-007	-0.0001286	9
	36	96	75.60484	21.93809	-98.581	1	100.9925	-77.45391	1.786291E-007	-0.0001266	9
	37	98	54.50582	26.5055	-133.4336	1	136.0407	-78.76492	2.209001E-007	-0.0001351	9
	38	101	45.95588	29.59759	-156.2924	1	159.0702	-79.2767	2.258816E-007	-0.0001252	9
	39	103	37.20238	34.28391	-189.9922	1	193.0606	-79.7711	2.143575E-007	-0.0001286	9
	40	106	30.04808	40.18684	-231.327	1	234.7917	-80.14476	2.274439E-007	-0.0001331	9
	41	108	23.91582	48.31979	-285.6862	1	289.7437	-80.40008	2.113505E-007	-0.0001298	9
	42	110	18.60119	59.92855	-359.7976	1	364.7544	-80.54353	1.242441E-007	-0.000122	9
	43	113	15.02404	72.39058	-435.5389	1	441.5139	-80.56318	4.542694E-007	-0.0001207	8
	44	115	12.01923	89.05759	-533.692	1	541.0715	-80.5263	4.655603E-007	-0.0001087	8
	45	117	9.450605	112.3451	-664.0717	1	673.5077	-80.39783	4.298954E-007	-0.0001086	8
	46	120	7.512019	141.0513	-816.7853	1	828.875	-80.20218	4.632938E-007	-0.0001182	8
	47	123	5.978954	176.5966	-1003.129	1	1018.555	-80.01563	4.686592E-007	-0.000112	8
	48	126	4.734848	223.8831	-1237.832	1	1257.916	-79.74791	5.409837E-007	-0.0001109	8
	49	129	3.75601	284.7295	-1522.351	1	1548.749	-79.40621	4.934411E-007	-0.0001333	8
	50	133	3.004808	361.1831	-1856.686	1	1891.491	-78.99168	5.67082E-007	-0.0001376	8
	51	136	2.372217	470.4727	-2290.283	1	2338.106	-78.39172	5.358183E-007	-5.789314E-005	8
	52	140	1.878005	609.1784	-2820.298	1	2885.339	-77.81149	5.119601E-007	-0.0001262	8
	53	145	1.512097	778.3401	-3404.855	1	3492.686	-77.1236	5.567517E-007	-0.0001129	8
	54	151	1.201923	1023.017	-4173.631	1	4297.181	-76.22752	5.3717E-007	-0.0001388	8
	55	157	0.956633	1355.555	-5091.482	1	5268.844	-75.09142	5.680818E-008	-0.0006545	7
