EXPLAIN
TAG	EISPOT
TITLE	LABEL	Potentiostatic EIS	Test Identifier
DATE	LABEL	10/12/2021	Date
TIME	LABEL	16:32:24	Time
NOTES	NOTES	1	Notes...
	
PSTAT	PSTAT	REF3000-16137	Potentiostat
VDC	POTEN	0.00000E+000	T	DC Voltage (V)
FREQINIT	QUANT	3.00000E+005	Initial Freq. (Hz)
FREQFINAL	QUANT	1.00000E+000	Final Freq. (Hz)
PTSPERDEC	QUANT	1.00000E+001	Points/decade
VAC	QUANT	5.00000E+001	AC Voltage (mV rms)
AREA	QUANT	1.00000E+000	Sample Area (cm^2)
SPEED	SELECTOR	2	Optimize for:
ZGUESS	QUANT	1.00000E+003	Estimated Z (ohms)
EOC	QUANT	0	Open Circuit (V)
SEQUENCER	TOGGLE	TRUE	Run as Sequence
PSTATMODEL	IQUANT	5	Pstat Model
PSTATSECTION	LABEL	REF3000-16137	Pstat Section
PSTATSERIALNO	LABEL	16137	Pstat Serial Number
CTRLMODE	IQUANT	1	Control Mode
IESTAB	IQUANT	0	I/E Stability
CASPEED	IQUANT	1	Control Amp Speed
CONVENTION	IQUANT	1	Current Convention
ICHRANGE	IQUANT	2	Ich Range
ICHRANGEMODE	TOGGLE	F	Ich Auto Range
ICHOFFSETENABLE	TOGGLE	T	Ich Offset Enable
ICHOFFSET	QUANT	0	Ich Offset (V)
ICHFILTER	IQUANT	3	Ich Filter
VCHRANGE	IQUANT	2	Vch Range
VCHRANGEMODE	TOGGLE	F	Vch Auto Range
VCHOFFSETENABLE	TOGGLE	T	Vch Offset Enable
VCHOFFSET	QUANT	0	Vch Offset (V)
VCHFILTER	IQUANT	3	Vch Filter
ACHRANGE	IQUANT	2	Ach Range
ACHOFFSETENABLE	TOGGLE	F	Ach Offset Enable
ACHOFFSET	QUANT	0	Ach Offset (V)
ACHFILTER	IQUANT	3	Ach Filter
IERANGELOWERLIMIT	IQUANT	2	I/E Range Lower Limit
IERANGEMODE	TOGGLE	F	I/E AutoRange
IERANGE	IQUANT	11	I/E Range
POSFEEDENABLE	TOGGLE	F	Positive Feedback IR Comp
POSFEEDRESISTANCE	QUANT	0	Positive Feedback Resistance (ohm)
ACHSELECT	IQUANT	0	Ach Select
CABLEID	IQUANT	13	Cable ID
DCCALDATE	LABEL	9/10/2021	DC Calibration Date
ACCALDATE	LABEL	9/10/2021	AC Calibration Date
THERMOSELECT	IQUANT	1	Thermo Select
FRAMEWORKVERSION	QUANT	6.33	Framework Version
INSTRUMENTVERSION	LABEL	3.50	Instrument Version
COMPLIANCEVOLTAGE	IQUANT	0	Compliance Voltage
ZCURVE	TABLE
	Pt	Time	Freq	Zreal	Zimag	Zsig	Zmod	Zphz	Idc	Vdc	IERange
	#	s	Hz	ohm	ohm	V	ohm	°	A	V	#
	0	7	300046.9	85.58806	-0.279794	1	85.58852	-0.1873037	-1.320125E-005	-0.0014569	9
	1	10	238359.4	86.27226	-0.8033339	1	86.276	-0.5335007	-7.980363E-005	0.002278	9
	2	13	189328.1	87.24719	-1.242563	1	87.25604	-0.8159435	1.440645E-005	-0.0014763	9
	3	16	150421.9	87.88479	-1.533189	1	87.89816	-0.999449	-3.390221E-005	-0.0003785	9
	4	18	119484.4	88.77271	-1.902193	1	88.79309	-1.227527	1.076331E-005	-0.0009677	9
	5	21	94921.88	89.62899	-2.129812	1	89.65429	-1.361237	-1.749643E-005	0.000616	9
	6	23	75421.88	90.55239	-2.545343	1	90.58816	-1.610107	1.906158E-005	-0.0008752	9
	7	26	59859.37	91.37068	-2.874614	1	91.41589	-1.801988	-4.134742E-006	-0.0004513	9
	8	28	47578.12	92.36458	-3.200823	1	92.42002	-1.984747	-1.780601E-005	0.000581	9
	9	31	37828.12	93.32734	-3.516492	1	93.39356	-2.157834	-1.027682E-005	-0.0001799	9
	10	34	30046.88	94.47882	-3.821881	1	94.55609	-2.31648	-2.098767E-005	0.0005368	9
	11	36	23859.38	95.494	-4.139611	1	95.5837	-2.482185	2.275713E-005	-0.0007845	9
	12	38	18984.38	96.5896	-4.444963	1	96.6918	-2.634839	2.333482E-005	-0.0006567	9
	13	41	15046.87	97.8077	-4.782085	1	97.9246	-2.799117	-1.797198E-005	0.000147	9
	14	43	11953.13	98.968	-5.082874	1	99.0984	-2.940058	-1.568568E-005	2.467027E-005	9
	15	45	9515.62	100.0778	-5.533586	1	100.2306	-3.164825	-1.805822E-005	0.0005971	9
	16	48	7546.875	101.4067	-5.944129	1	101.5808	-3.354652	3.335119E-006	0.0002339	9
	17	50	5928.309	102.6071	-6.484449	1	102.8118	-3.616105	2.172166E-006	0.0002353	9
	18	52	4733.456	103.8214	-7.06757	1	104.0617	-3.894362	1.094231E-005	-0.0008284	9
	19	55	3796.875	105.0388	-7.754971	1	105.3247	-4.222462	-3.355744E-006	-0.0004631	9
	20	57	2987.132	106.4642	-8.517828	1	106.8044	-4.574293	-1.776981E-005	0.000632	9
	21	59	2390.625	107.7554	-9.478926	1	108.1715	-5.0272	1.728016E-005	-0.0008919	9
	22	62	1884.191	109.1311	-10.70603	1	109.655	-5.602928	-3.947492E-006	-0.0004467	9
	23	64	1516.544	110.5148	-12.08815	1	111.1739	-6.242219	2.106329E-005	-0.0004884	9
	24	66	1193.986	112.1397	-13.92145	1	113.0005	-7.076711	-2.102256E-005	0.000598	9
	25	69	946.5144	113.5874	-16.2161	1	114.7391	-8.124829	-2.000181E-005	0.0003255	9
	26	71	751.7689	115.2784	-18.98083	1	116.8306	-9.349981	-1.793799E-005	0.0006566	9
	27	73	597.4265	117.0408	-22.26353	1	119.1395	-10.77015	-6.010449E-006	0.0004896	9
	28	76	477.4305	118.8405	-26.31302	1	121.7187	-12.48471	4.066802E-007	-0.0001297	9
	29	78	376.6741	120.7871	-31.57471	1	124.8458	-14.64975	4.120606E-007	-0.000132	9
	30	80	298.2954	122.8638	-38.02363	1	128.613	-17.19614	4.687422E-007	-0.0001316	9
	31	83	237.7717	125.1115	-45.7779	1	133.2236	-20.0974	3.78378E-007	-0.0001261	9
	32	85	189.0121	127.5899	-55.47834	1	139.1295	-23.50026	4.39241E-007	-0.0001295	9
	33	88	150.2404	130.3358	-67.48085	1	146.7688	-27.37269	4.159037E-007	-0.0001331	9
	34	90	119.1737	133.4141	-82.48053	1	156.8514	-31.72557	4.222516E-007	-0.0001292	9
	35	92	95.0169	136.8547	-100.6314	1	169.8702	-36.32761	4.5142E-007	-0.0001323	9
	36	95	75.60484	140.8351	-123.2674	1	187.1614	-41.19437	4.432063E-007	-0.000133	9
	37	97	54.50582	147.3225	-165.2831	1	221.4101	-48.28828	4.662913E-007	-0.0001362	9
	38	100	45.95588	151.6813	-192.919	1	245.4077	-51.82403	3.814933E-007	-0.0001253	9
	39	102	37.20238	157.7046	-233.7679	1	281.9897	-55.99559	3.872724E-007	-0.0001313	9
	40	105	30.04808	164.8931	-284.165	1	328.5415	-59.87458	4.031157E-007	-0.0001306	9
	41	107	23.91582	174.0644	-350.2481	1	391.1165	-63.5738	3.488669E-007	-0.0001338	9
	42	109	18.60119	185.4592	-439.322	1	476.8636	-67.11303	2.13847E-007	-0.0001227	8
	43	112	15.02404	198.3699	-534.8315	1	570.4344	-69.65009	1.595432E-007	-0.0001258	8
	44	114	12.01923	214.693	-656.9056	1	691.0991	-71.90133	2.016874E-007	-0.0001531	8
	45	119	9.450605	237.202	-820.4888	1	854.0882	-73.8755	2.08516E-007	-0.0001222	8
	46	121	7.512019	263.4942	-1014.239	1	1047.908	-75.43679	1.79598E-007	-0.0001274	8
	47	124	5.978954	295.7395	-1252.256	1	1286.704	-76.71218	1.958118E-007	-0.0001162	8
	48	127	4.734848	337.3946	-1554.558	1	1590.75	-77.75468	2.320327E-007	-0.0001098	8
	49	130	3.75601	390.3148	-1923.641	1	1962.839	-78.53016	1.89696E-007	-0.0001356	8
	50	134	3.004808	455.5114	-2362.045	1	2405.566	-79.08472	2.054067E-007	-9.490246E-005	8
	51	137	2.372217	543.1849	-2939.782	1	2989.543	-79.5315	1.960561E-007	-3.95723E-005	8
	52	142	1.878005	652.6589	-3642.602	1	3700.609	-79.84188	1.923447E-007	-0.0001385	8
	53	146	1.512097	789.4905	-4444.044	1	4513.626	-79.92642	3.296203E-008	-5.041479E-005	7
	54	152	1.201923	960.593	-5495.626	1	5578.947	-80.0853	1.828657E-008	-0.0001344	7
	55	158	0.956633	1182.428	-6770.292	1	6872.771	-80.09325	9.719426E-009	-0.000655	7
