EXPLAIN
TAG	EISPOT
TITLE	LABEL	Potentiostatic EIS	Test Identifier
DATE	LABEL	10/12/2021	Date
TIME	LABEL	15:28:14	Time
NOTES	NOTES	1	Notes...
	
PSTAT	PSTAT	REF3000-16137	Potentiostat
VDC	POTEN	0.00000E+000	T	DC Voltage (V)
FREQINIT	QUANT	3.00000E+005	Initial Freq. (Hz)
FREQFINAL	QUANT	1.00000E+000	Final Freq. (Hz)
PTSPERDEC	QUANT	1.00000E+001	Points/decade
VAC	QUANT	5.00000E+001	AC Voltage (mV rms)
AREA	QUANT	1.00000E+000	Sample Area (cm^2)
SPEED	SELECTOR	2	Optimize for:
ZGUESS	QUANT	1.00000E+003	Estimated Z (ohms)
EOC	QUANT	0	Open Circuit (V)
SEQUENCER	TOGGLE	TRUE	Run as Sequence
PSTATMODEL	IQUANT	5	Pstat Model
PSTATSECTION	LABEL	REF3000-16137	Pstat Section
PSTATSERIALNO	LABEL	16137	Pstat Serial Number
CTRLMODE	IQUANT	1	Control Mode
IESTAB	IQUANT	0	I/E Stability
CASPEED	IQUANT	1	Control Amp Speed
CONVENTION	IQUANT	1	Current Convention
ICHRANGE	IQUANT	2	Ich Range
ICHRANGEMODE	TOGGLE	F	Ich Auto Range
ICHOFFSETENABLE	TOGGLE	T	Ich Offset Enable
ICHOFFSET	QUANT	0	Ich Offset (V)
ICHFILTER	IQUANT	3	Ich Filter
VCHRANGE	IQUANT	2	Vch Range
VCHRANGEMODE	TOGGLE	F	Vch Auto Range
VCHOFFSETENABLE	TOGGLE	T	Vch Offset Enable
VCHOFFSET	QUANT	0	Vch Offset (V)
VCHFILTER	IQUANT	3	Vch Filter
ACHRANGE	IQUANT	2	Ach Range
ACHOFFSETENABLE	TOGGLE	F	Ach Offset Enable
ACHOFFSET	QUANT	0	Ach Offset (V)
ACHFILTER	IQUANT	3	Ach Filter
IERANGELOWERLIMIT	IQUANT	2	I/E Range Lower Limit
IERANGEMODE	TOGGLE	F	I/E AutoRange
IERANGE	IQUANT	11	I/E Range
POSFEEDENABLE	TOGGLE	F	Positive Feedback IR Comp
POSFEEDRESISTANCE	QUANT	0	Positive Feedback Resistance (ohm)
ACHSELECT	IQUANT	0	Ach Select
CABLEID	IQUANT	13	Cable ID
DCCALDATE	LABEL	9/10/2021	DC Calibration Date
ACCALDATE	LABEL	9/10/2021	AC Calibration Date
THERMOSELECT	IQUANT	1	Thermo Select
FRAMEWORKVERSION	QUANT	6.33	Framework Version
INSTRUMENTVERSION	LABEL	3.50	Instrument Version
COMPLIANCEVOLTAGE	IQUANT	0	Compliance Voltage
ZCURVE	TABLE
	Pt	Time	Freq	Zreal	Zimag	Zsig	Zmod	Zphz	Idc	Vdc	IERange
	#	s	Hz	ohm	ohm	V	ohm	°	A	V	#
	0	11	300046.9	2.096839	2.372123	1	3.166023	48.52492	-6.288254E-005	-0.0006226	11
	1	14	238359.4	2.0652	1.881693	1	2.79389	42.33801	-3.52552E-005	-0.000488	11
	2	17	189328.1	2.119485	1.345019	1	2.510237	32.39908	-0.000118	-0.000722	12
	3	21	150421.9	2.064449	1.054574	1	2.318205	27.05912	-7.410468E-005	-0.0005118	12
	4	24	119484.4	2.001493	0.8992915	1	2.194243	24.19487	-8.544554E-005	7.316226E-005	11
	5	27	94921.88	1.996289	0.6769617	1	2.107949	18.73231	-5.685104E-005	0.0001542	11
	6	29	75421.88	1.9928	0.4946079	1	2.053263	13.939	-1.732263E-005	0.0002217	11
	7	32	59859.37	1.993581	0.338039	1	2.022038	9.62375	-7.209977E-005	0.0002459	11
	8	34	47578.12	1.995822	0.2009231	1	2.00591	5.748705	-6.553363E-005	0.0002875	11
	9	37	37828.12	1.998758	0.0751186	1	2.000169	2.152314	-5.915915E-005	0.0002833	11
	10	39	30046.88	2.005859	-0.0447036	1	2.006357	-1.276713	-5.471827E-005	0.0003426	11
	11	42	23859.38	2.013063	-0.1659633	1	2.019893	-4.712987	-2.56698E-005	0.0003744	11
	12	44	18984.38	2.023181	-0.2922241	1	2.044176	-8.218844	-4.696492E-005	0.0003655	11
	13	47	15046.87	2.034969	-0.4336997	1	2.080672	-12.03107	-1.413946E-005	0.0004011	11
	14	49	11953.13	2.050248	-0.5929577	1	2.134272	-16.13054	-5.128479E-005	0.0003681	11
	15	51	9515.62	2.069354	-0.7765697	1	2.210268	-20.56969	-1.641268E-005	0.0003949	11
	16	54	7546.875	2.093316	-0.999969	1	2.319894	-25.53363	-8.049333E-005	0.0003467	11
	17	56	5928.309	2.125857	-1.281257	1	2.482114	-31.07742	-8.281355E-005	0.0003511	11
	18	58	4733.456	2.163988	-1.601089	1	2.6919	-36.49695	-7.302348E-005	0.0003556	11
	19	60	3796.875	2.209806	-1.98243	1	2.968715	-41.89547	-3.354316E-005	0.0003905	11
	20	63	2987.132	2.27441	-2.49	1	3.372395	-47.59087	-4.765548E-005	0.0003777	11
	21	65	2390.625	2.347382	-3.07248	1	3.866566	-52.62008	-1.487366E-005	0.0003994	11
	22	67	1884.191	2.453306	-3.839555	1	4.556412	-57.42322	1.530547E-005	-0.0001507	10
	23	70	1516.544	2.569456	-4.70067	1	5.357089	-61.33833	-2.217873E-005	-0.0001159	10
	24	72	1193.986	2.733535	-5.867845	1	6.473315	-65.02155	-2.323023E-005	-0.000119	10
	25	75	946.5144	2.938139	-7.273728	1	7.844729	-68.00432	-2.936405E-005	-0.0001309	10
	26	77	751.7689	3.206764	-8.998191	1	9.55253	-70.38501	2.521154E-005	-0.0001368	10
	27	79	597.4265	3.544975	-11.12333	1	11.67456	-72.32306	8.382085E-006	-0.0001317	10
	28	81	477.4305	3.984954	-13.67193	1	14.24084	-73.7502	5.98173E-008	-0.000112	10
	29	84	376.6741	4.593881	-16.98375	1	17.59407	-74.86443	3.566669E-007	-0.00012	10
	30	86	298.2954	5.395769	-21.01299	1	21.69471	-75.59859	-4.861359E-007	-0.0001156	10
	31	88	237.7717	6.437471	-25.81697	1	26.60746	-75.99879	-5.665584E-007	-0.0001163	10
	32	91	189.0121	7.858337	-31.76571	1	32.72329	-76.1049	-1.03994E-006	-0.0001186	10
	33	93	150.2404	9.77449	-39.01498	1	40.22075	-75.93508	-9.591899E-007	-0.0001127	10
	34	96	119.1737	12.401	-47.85485	1	49.43553	-75.47207	1.219111E-007	-0.0001259	9
	35	98	95.0169	15.90644	-58.33741	1	60.46708	-74.74832	1.268114E-007	-0.0001288	9
	36	101	75.60484	20.73596	-71.00937	1	73.97507	-73.72128	5.704838E-007	-0.0001762	9
	37	103	54.50582	30.8681	-93.32977	1	98.302	-71.69876	5.598438E-007	-0.0001332	9
	38	106	45.95588	38.18189	-107.0735	1	113.6775	-70.37401	1.243844E-006	-0.0001303	9
	39	108	37.20238	49.88746	-126.2427	1	135.7423	-68.4375	1.380309E-006	-0.0001403	9
	40	111	30.04808	65.35773	-147.7663	1	161.5751	-66.13998	1.196081E-006	-0.0001266	9
	41	114	23.91582	86.70214	-172.4197	1	192.9918	-63.30423	1.693364E-006	-0.000132	9
	42	117	18.60119	117.6929	-200.8256	1	232.7714	-59.62777	2.242384E-006	-0.0001255	9
	43	119	15.02404	150.1023	-224.3513	1	269.9337	-56.21549	3.076038E-006	-0.0001413	9
	44	121	12.01923	190.1783	-246.8259	1	311.594	-52.38589	3.805059E-006	-0.000133	9
	45	124	9.450605	238.9813	-266.3448	1	357.843	-48.09955	4.187323E-006	-0.0001238	9
	46	127	7.512019	289.1539	-278.7113	1	401.6092	-43.9465	4.451358E-006	-0.00013	8
	47	130	5.978954	341.9734	-286.1442	1	445.8972	-39.92071	4.624256E-006	-0.0001264	8
	48	134	4.734848	396.8249	-288.0972	1	490.3774	-35.97987	4.49547E-006	-0.0001248	8
	49	139	3.75601	450.014	-284.8129	1	532.5702	-32.32963	3.866629E-006	-0.0001379	8
	50	144	3.004808	498.8949	-277.5125	1	570.8846	-29.08519	3.912729E-006	-0.000125	8
	51	151	2.372217	548.1395	-266.3441	1	609.4228	-25.91538	3.677069E-006	-6.247182E-005	8
	52	158	1.878005	596.5792	-258.425	1	650.1463	-23.4212	3.23235E-006	-0.0001323	8
	53	167	1.512097	635.3574	-245.9826	1	681.3123	-21.16422	2.856544E-006	-0.0001457	8
	54	178	1.201923	675.6023	-234.3422	1	715.0907	-19.12982	2.633267E-006	-0.0001425	8
	55	191	0.956633	714.0464	-225.231	1	748.7264	-17.50679	1.90054E-006	-0.0006683	8
