EXPLAIN
TAG	EISPOT
TITLE	LABEL	Potentiostatic EIS	Test Identifier
DATE	LABEL	10/12/2021	Date
TIME	LABEL	15:38:19	Time
NOTES	NOTES	1	Notes...
	
PSTAT	PSTAT	REF3000-16137	Potentiostat
VDC	POTEN	0.00000E+000	T	DC Voltage (V)
FREQINIT	QUANT	3.00000E+005	Initial Freq. (Hz)
FREQFINAL	QUANT	1.00000E+000	Final Freq. (Hz)
PTSPERDEC	QUANT	1.00000E+001	Points/decade
VAC	QUANT	5.00000E+001	AC Voltage (mV rms)
AREA	QUANT	1.00000E+000	Sample Area (cm^2)
SPEED	SELECTOR	2	Optimize for:
ZGUESS	QUANT	1.00000E+003	Estimated Z (ohms)
EOC	QUANT	0	Open Circuit (V)
SEQUENCER	TOGGLE	TRUE	Run as Sequence
PSTATMODEL	IQUANT	5	Pstat Model
PSTATSECTION	LABEL	REF3000-16137	Pstat Section
PSTATSERIALNO	LABEL	16137	Pstat Serial Number
CTRLMODE	IQUANT	1	Control Mode
IESTAB	IQUANT	0	I/E Stability
CASPEED	IQUANT	1	Control Amp Speed
CONVENTION	IQUANT	1	Current Convention
ICHRANGE	IQUANT	2	Ich Range
ICHRANGEMODE	TOGGLE	F	Ich Auto Range
ICHOFFSETENABLE	TOGGLE	T	Ich Offset Enable
ICHOFFSET	QUANT	0	Ich Offset (V)
ICHFILTER	IQUANT	3	Ich Filter
VCHRANGE	IQUANT	2	Vch Range
VCHRANGEMODE	TOGGLE	F	Vch Auto Range
VCHOFFSETENABLE	TOGGLE	T	Vch Offset Enable
VCHOFFSET	QUANT	0	Vch Offset (V)
VCHFILTER	IQUANT	3	Vch Filter
ACHRANGE	IQUANT	2	Ach Range
ACHOFFSETENABLE	TOGGLE	F	Ach Offset Enable
ACHOFFSET	QUANT	0	Ach Offset (V)
ACHFILTER	IQUANT	3	Ach Filter
IERANGELOWERLIMIT	IQUANT	2	I/E Range Lower Limit
IERANGEMODE	TOGGLE	F	I/E AutoRange
IERANGE	IQUANT	11	I/E Range
POSFEEDENABLE	TOGGLE	F	Positive Feedback IR Comp
POSFEEDRESISTANCE	QUANT	0	Positive Feedback Resistance (ohm)
ACHSELECT	IQUANT	0	Ach Select
CABLEID	IQUANT	13	Cable ID
DCCALDATE	LABEL	9/10/2021	DC Calibration Date
ACCALDATE	LABEL	9/10/2021	AC Calibration Date
THERMOSELECT	IQUANT	1	Thermo Select
FRAMEWORKVERSION	QUANT	6.33	Framework Version
INSTRUMENTVERSION	LABEL	3.50	Instrument Version
COMPLIANCEVOLTAGE	IQUANT	0	Compliance Voltage
ZCURVE	TABLE
	Pt	Time	Freq	Zreal	Zimag	Zsig	Zmod	Zphz	Idc	Vdc	IERange
	#	s	Hz	ohm	ohm	V	ohm	°	A	V	#
	0	10	300046.9	2.459114	2.370898	1	3.415904	43.95366	-0.0001566	-0.0005297	11
	1	14	238359.4	2.417733	1.873319	1	3.058555	37.7694	7.552402E-006	-0.0003562	11
	2	17	189328.1	2.394081	1.477298	1	2.813189	31.67719	-6.896823E-005	-0.0002189	11
	3	19	150421.9	2.424172	1.017513	1	2.629057	22.76956	-0.0001312	-0.0006208	12
	4	23	119484.4	2.398006	0.7862428	1	2.523611	18.15295	-6.167852E-005	-0.0003868	12
	5	27	94921.88	2.360563	0.6685525	1	2.45341	15.81305	-8.315503E-005	0.0001746	11
	6	29	75421.88	2.371096	0.4184932	1	2.407744	10.00949	-3.033032E-005	-0.0002584	12
	7	33	59859.37	2.366817	0.2738625	1	2.382608	6.600298	-4.359867E-005	-0.0002423	12
	8	36	47578.12	2.368486	0.1455791	1	2.372956	3.517264	-6.746396E-005	-0.0002228	12
	9	40	37828.12	2.374859	0.0264523	1	2.375006	0.6381607	-5.47542E-005	-0.0001457	12
	10	44	30046.88	2.380637	-0.0614753	1	2.381431	-1.479223	-8.182378E-005	0.0002942	11
	11	46	23859.38	2.390303	-0.1856415	1	2.397501	-4.440928	-5.61849E-005	0.0003327	11
	12	48	18984.38	2.400209	-0.3161453	1	2.420941	-7.503561	-1.947002E-005	0.0003918	11
	13	51	15046.87	2.414021	-0.4632815	1	2.458074	-10.8637	-3.361179E-005	0.0003842	11
	14	53	11953.13	2.430525	-0.6293305	1	2.510679	-14.51666	-2.437103E-005	0.0004009	11
	15	55	9515.62	2.45129	-0.8221158	1	2.585478	-18.54047	-5.708094E-005	0.0003755	11
	16	58	7546.875	2.475589	-1.055049	1	2.691035	-23.08278	-1.589051E-005	0.0003685	11
	17	60	5928.309	2.509698	-1.351445	1	2.850436	-28.30197	-5.998393E-005	0.0003623	11
	18	62	4733.456	2.548451	-1.687652	1	3.056595	-33.51358	-1.245651E-005	0.0004029	11
	19	65	3796.875	2.595245	-2.089885	1	3.332103	-38.84361	-1.572122E-005	0.000408	11
	20	67	2987.132	2.660178	-2.624936	1	3.737224	-44.61795	-5.354321E-005	0.0003596	11
	21	69	2390.625	2.737743	-3.24224	1	4.243508	-49.8223	1.275179E-005	-0.0001494	10
	22	72	1884.191	2.840252	-4.050462	1	4.947047	-54.96122	2.455092E-005	-0.0001345	10
	23	74	1516.544	2.955665	-4.960212	1	5.77405	-59.21035	-2.183887E-005	-0.0001153	10
	24	76	1193.986	3.1166	-6.192659	1	6.932693	-63.28511	2.485001E-005	-0.0001384	10
	25	79	946.5144	3.308266	-7.685251	1	8.367061	-66.70959	-1.812669E-005	-0.0001409	10
	26	81	751.7689	3.559105	-9.5109	1	10.15502	-69.48349	-1.160057E-005	-0.0001187	10
	27	83	597.4265	3.880371	-11.76485	1	12.38826	-71.74602	1.714621E-005	-0.0001387	10
	28	86	477.4305	4.280973	-14.47546	1	15.09523	-73.52495	3.930182E-006	-0.0001598	10
	29	88	376.6741	4.822404	-18.00795	1	18.64248	-75.00835	7.805284E-008	-0.0001152	10
	30	90	298.2954	5.52027	-22.32211	1	22.99457	-76.10942	5.554393E-007	-0.0001122	10
	31	93	237.7717	6.404178	-27.48668	1	28.22289	-76.88453	8.596526E-007	-0.0001163	10
	32	95	189.0121	7.588078	-33.92371	1	34.762	-77.39159	-1.063077E-007	-0.0001094	10
	33	97	150.2404	9.150148	-41.82201	1	42.81128	-77.65884	-4.690552E-007	-0.000112	10
	34	100	119.1737	11.25701	-51.54562	1	52.76051	-77.68063	3.50899E-007	-0.0001214	9
	35	102	95.0169	14.00735	-63.21223	1	64.7456	-77.50559	3.905119E-007	-0.000127	9
	36	105	75.60484	17.74604	-77.56129	1	79.56554	-77.11254	2.568325E-007	-0.0001263	9
	37	107	54.50582	25.48458	-103.5726	1	106.6619	-76.17668	3.288037E-007	-0.0001334	9
	38	110	45.95588	31.13265	-120.199	1	124.1654	-75.47897	6.742799E-007	-0.000127	9
	39	112	37.20238	40.11102	-144.1476	1	149.6243	-74.45006	5.96651E-007	-0.0001297	9
	40	114	30.04808	52.07192	-172.5919	1	180.276	-73.21115	7.359949E-007	-0.0001386	9
	41	117	23.91582	69.5415	-208.3819	1	219.6794	-71.54504	9.809231E-007	-0.0001389	9
	42	120	18.60119	96.1242	-253.9617	1	271.5445	-69.2684	1.282305E-006	-0.0001266	9
	43	122	15.02404	126.2316	-298.2361	1	323.8505	-67.05898	1.329003E-006	-0.0001249	9
	44	124	12.01923	167.6975	-348.5862	1	386.8265	-64.30876	1.236029E-006	-0.0001312	9
	45	127	9.450605	224.4804	-404.2342	1	462.3816	-60.95559	2.09227E-006	-0.0001298	8
	46	130	7.512019	293.5615	-458.6286	1	544.5352	-57.37728	2.493958E-006	-0.0001318	8
	47	133	5.978954	375.8468	-509.206	1	632.8915	-53.56883	2.695969E-006	-0.00012	8
	48	137	4.734848	473.7973	-554.1011	1	729.0486	-49.46712	2.678749E-006	-0.0001327	8
	49	142	3.75601	581.426	-587.6826	1	826.6964	-45.30662	2.89328E-006	-0.0001164	8
	50	148	3.004808	691.472	-609.1011	1	921.4867	-41.37605	3.087076E-006	-0.0001546	8
	51	154	2.372217	812.6813	-620.626	1	1022.559	-37.36814	2.865204E-006	-0.0001741	8
	52	162	1.878005	933.4624	-624.7192	1	1123.221	-33.7924	3.014603E-006	-0.0001134	8
	53	171	1.512097	1043.708	-613.072	1	1210.448	-30.42988	2.806942E-006	-0.0002197	8
	54	181	1.201923	1158.805	-596.8223	1	1303.467	-27.24994	2.615964E-006	-9.104953E-005	8
	55	194	0.956633	1267.799	-576.4249	1	1392.688	-24.44967	2.202438E-006	-0.000671	8
