EXPLAIN
TAG	EISPOT
TITLE	LABEL	Potentiostatic EIS	Test Identifier
DATE	LABEL	10/12/2021	Date
TIME	LABEL	16:29:39	Time
NOTES	NOTES	1	Notes...
	
PSTAT	PSTAT	REF3000-16137	Potentiostat
VDC	POTEN	0.00000E+000	T	DC Voltage (V)
FREQINIT	QUANT	3.00000E+005	Initial Freq. (Hz)
FREQFINAL	QUANT	1.00000E+000	Final Freq. (Hz)
PTSPERDEC	QUANT	1.00000E+001	Points/decade
VAC	QUANT	5.00000E+001	AC Voltage (mV rms)
AREA	QUANT	1.00000E+000	Sample Area (cm^2)
SPEED	SELECTOR	2	Optimize for:
ZGUESS	QUANT	1.00000E+003	Estimated Z (ohms)
EOC	QUANT	0	Open Circuit (V)
SEQUENCER	TOGGLE	TRUE	Run as Sequence
PSTATMODEL	IQUANT	5	Pstat Model
PSTATSECTION	LABEL	REF3000-16137	Pstat Section
PSTATSERIALNO	LABEL	16137	Pstat Serial Number
CTRLMODE	IQUANT	1	Control Mode
IESTAB	IQUANT	0	I/E Stability
CASPEED	IQUANT	1	Control Amp Speed
CONVENTION	IQUANT	1	Current Convention
ICHRANGE	IQUANT	2	Ich Range
ICHRANGEMODE	TOGGLE	F	Ich Auto Range
ICHOFFSETENABLE	TOGGLE	T	Ich Offset Enable
ICHOFFSET	QUANT	0	Ich Offset (V)
ICHFILTER	IQUANT	3	Ich Filter
VCHRANGE	IQUANT	2	Vch Range
VCHRANGEMODE	TOGGLE	F	Vch Auto Range
VCHOFFSETENABLE	TOGGLE	T	Vch Offset Enable
VCHOFFSET	QUANT	0	Vch Offset (V)
VCHFILTER	IQUANT	3	Vch Filter
ACHRANGE	IQUANT	2	Ach Range
ACHOFFSETENABLE	TOGGLE	F	Ach Offset Enable
ACHOFFSET	QUANT	0	Ach Offset (V)
ACHFILTER	IQUANT	3	Ach Filter
IERANGELOWERLIMIT	IQUANT	2	I/E Range Lower Limit
IERANGEMODE	TOGGLE	F	I/E AutoRange
IERANGE	IQUANT	11	I/E Range
POSFEEDENABLE	TOGGLE	F	Positive Feedback IR Comp
POSFEEDRESISTANCE	QUANT	0	Positive Feedback Resistance (ohm)
ACHSELECT	IQUANT	0	Ach Select
CABLEID	IQUANT	13	Cable ID
DCCALDATE	LABEL	9/10/2021	DC Calibration Date
ACCALDATE	LABEL	9/10/2021	AC Calibration Date
THERMOSELECT	IQUANT	1	Thermo Select
FRAMEWORKVERSION	QUANT	6.33	Framework Version
INSTRUMENTVERSION	LABEL	3.50	Instrument Version
COMPLIANCEVOLTAGE	IQUANT	0	Compliance Voltage
ZCURVE	TABLE
	Pt	Time	Freq	Zreal	Zimag	Zsig	Zmod	Zphz	Idc	Vdc	IERange
	#	s	Hz	ohm	ohm	V	ohm	°	A	V	#
	0	7	300046.9	59.80927	1.005295	1	59.81772	0.962956	6.074141E-005	-0.0027474	9
	1	10	238359.4	60.39345	0.4564949	1	60.39517	0.4330723	-7.32542E-005	0.0018277	9
	2	13	189328.1	60.91496	-0.0792382	1	60.91502	-0.0745303	5.938625E-005	-0.0019746	9
	3	15	150421.9	61.49047	-0.4927496	1	61.49245	-0.4591259	-1.047738E-005	0.0004184	9
	4	18	119484.4	62.02814	-0.8481352	1	62.03394	-0.7833788	-1.186234E-007	0.0006474	9
	5	20	94921.88	62.7008	-1.08726	1	62.71023	-0.993435	1.811228E-005	-0.0008828	9
	6	23	75421.88	63.26457	-1.453686	1	63.28127	-1.316304	1.173686E-005	-0.0001625	9
	7	26	59859.37	63.88823	-1.805364	1	63.91373	-1.618643	-1.620568E-005	0.0004741	9
	8	28	47578.12	64.53555	-2.136727	1	64.57092	-1.89633	9.471144E-006	-0.0007607	9
	9	31	37828.12	65.23563	-2.439139	1	65.28121	-2.141273	1.697792E-005	-0.0003496	9
	10	33	30046.88	65.98921	-2.717822	1	66.04516	-2.358443	-1.321783E-005	0.0005136	9
	11	36	23859.38	66.72233	-3.017157	1	66.79051	-2.589128	1.463389E-005	-0.0007895	9
	12	38	18984.38	67.47025	-3.303185	1	67.55106	-2.802828	-1.827312E-005	0.0004666	9
	13	40	15046.87	68.2302	-3.63669	1	68.32705	-3.050995	-1.228837E-005	-0.0001126	9
	14	43	11953.13	69.08726	-3.908899	1	69.19775	-3.238295	-1.637149E-005	9.496578E-005	9
	15	45	9515.62	69.92039	-4.293906	1	70.05211	-3.514198	-1.627797E-005	0.0000987	9
	16	47	7546.875	70.79634	-4.694586	1	70.95182	-3.793794	-1.858146E-005	0.0002669	9
	17	50	5928.309	71.6982	-5.162685	1	71.88383	-4.118519	-3.999989E-006	-0.0003775	9
	18	52	4733.456	72.61832	-5.695492	1	72.84133	-4.484557	1.864419E-005	-0.0008119	9
	19	54	3796.875	73.53883	-6.341173	1	73.81171	-4.928362	-1.581996E-005	0.0001116	9
	20	57	2987.132	74.51143	-7.152724	1	74.85396	-5.483306	1.045423E-005	-0.0001036	9
	21	59	2390.625	75.47772	-8.039364	1	75.90466	-6.079826	-1.834843E-005	0.0003036	9
	22	61	1884.191	76.56525	-9.233639	1	77.12002	-6.876565	-1.84285E-005	0.0005109	9
	23	64	1516.544	77.5635	-10.55068	1	78.27779	-7.746191	2.066316E-005	-0.0007465	9
	24	66	1193.986	78.68767	-12.32111	1	79.64646	-8.899257	-4.457929E-006	0.0003801	9
	25	68	946.5144	79.86255	-14.42642	1	81.15509	-10.23952	-1.889846E-005	0.0004414	9
	26	71	751.7689	81.12335	-17.08392	1	82.9027	-11.89225	-1.06313E-005	0.0005	9
	27	73	597.4265	82.3428	-20.24893	1	84.79596	-13.81549	2.129506E-005	-0.0007619	9
	28	75	477.4305	83.7925	-24.17118	1	87.20911	-16.09098	4.342974E-007	-0.0001242	9
	29	78	376.6741	85.29849	-29.22913	1	90.16748	-18.91499	4.050477E-007	-0.0001267	9
	30	80	298.2954	86.92725	-35.43469	1	93.87206	-22.17759	4.296102E-007	-0.0001221	9
	31	82	237.7717	88.69992	-42.90995	1	98.534	-25.81609	5.282665E-007	-0.0001353	9
	32	85	189.0121	90.68346	-52.26778	1	104.6681	-29.95812	5.216631E-007	-0.0001254	9
	33	87	150.2404	92.92152	-63.85986	1	112.7497	-34.49861	4.133638E-007	-0.0001243	9
	34	90	119.1737	95.4808	-78.36206	1	123.52	-39.37608	4.477351E-007	-0.0001271	9
	35	92	95.0169	98.3723	-95.9239	1	137.399	-44.27804	4.215669E-007	-0.0001232	9
	36	95	75.60484	101.7894	-117.8433	1	155.7181	-49.18057	3.87117E-007	-0.0001314	9
	37	97	54.50582	107.5449	-158.5662	1	191.5963	-55.85355	4.122898E-007	-0.0001263	9
	38	100	45.95588	111.419	-185.3218	1	216.2368	-58.98492	8.634851E-007	-0.0001701	9
	39	102	37.20238	116.88	-224.9129	1	253.4695	-62.54055	5.20192E-007	-0.0001389	9
	40	104	30.04808	123.5	-273.7364	1	300.3063	-65.71683	4.303919E-007	-0.0001267	9
	41	107	23.91582	131.9855	-337.7064	1	362.5821	-68.65299	3.111521E-007	-0.0001319	9
	42	109	18.60119	142.9507	-424.0389	1	447.4861	-71.37017	2.126746E-007	-0.0001162	8
	43	112	15.02404	155.1802	-516.3875	1	539.2003	-73.2739	2.720342E-007	-0.0001175	8
	44	114	12.01923	170.8722	-634.6982	1	657.2968	-74.93219	2.748072E-007	-0.0001116	8
	45	116	9.450605	192.1021	-792.7605	1	815.7036	-76.37862	2.479274E-007	-0.0001194	8
	46	119	7.512019	217.7044	-980.121	1	1004.008	-77.47678	2.564088E-007	-0.0001275	8
	47	122	5.978954	249.4824	-1210.115	1	1235.564	-78.35087	2.661884E-007	-0.0001127	8
	48	125	4.734848	290.8261	-1500.833	1	1528.75	-79.03334	2.665826E-007	-0.0001743	8
	49	128	3.75601	343.8743	-1857.926	1	1889.481	-79.51407	2.945135E-007	-0.000098	8
	50	131	3.004808	408.5831	-2279.629	1	2315.956	-79.83864	2.62634E-007	-0.0001188	8
	51	135	2.372217	499.8385	-2830.966	1	2874.753	-79.98699	2.555109E-007	-0.0001713	8
	52	139	1.878005	609.0528	-3511.348	1	3563.778	-80.1598	2.839839E-007	-0.0001204	8
	53	144	1.512097	738.1416	-4276.982	1	4340.21	-80.20808	1.744579E-008	-8.196702E-005	7
	54	149	1.201923	918.4303	-5286.071	1	5365.265	-80.14352	3.843939E-008	-7.708542E-005	7
	55	156	0.956633	1143.961	-6503.085	1	6602.936	-80.02315	1.957619E-008	-0.0006491	7
