EXPLAIN
TAG	EISPOT
TITLE	LABEL	Potentiostatic EIS	Test Identifier
DATE	LABEL	10/12/2021	Date
TIME	LABEL	16:47:25	Time
NOTES	NOTES	1	Notes...
	
PSTAT	PSTAT	REF3000-16137	Potentiostat
VDC	POTEN	0.00000E+000	T	DC Voltage (V)
FREQINIT	QUANT	3.00000E+005	Initial Freq. (Hz)
FREQFINAL	QUANT	1.00000E+000	Final Freq. (Hz)
PTSPERDEC	QUANT	1.00000E+001	Points/decade
VAC	QUANT	5.00000E+001	AC Voltage (mV rms)
AREA	QUANT	1.00000E+000	Sample Area (cm^2)
SPEED	SELECTOR	2	Optimize for:
ZGUESS	QUANT	1.00000E+003	Estimated Z (ohms)
EOC	QUANT	0	Open Circuit (V)
SEQUENCER	TOGGLE	TRUE	Run as Sequence
PSTATMODEL	IQUANT	5	Pstat Model
PSTATSECTION	LABEL	REF3000-16137	Pstat Section
PSTATSERIALNO	LABEL	16137	Pstat Serial Number
CTRLMODE	IQUANT	1	Control Mode
IESTAB	IQUANT	0	I/E Stability
CASPEED	IQUANT	1	Control Amp Speed
CONVENTION	IQUANT	1	Current Convention
ICHRANGE	IQUANT	2	Ich Range
ICHRANGEMODE	TOGGLE	F	Ich Auto Range
ICHOFFSETENABLE	TOGGLE	T	Ich Offset Enable
ICHOFFSET	QUANT	0	Ich Offset (V)
ICHFILTER	IQUANT	3	Ich Filter
VCHRANGE	IQUANT	2	Vch Range
VCHRANGEMODE	TOGGLE	F	Vch Auto Range
VCHOFFSETENABLE	TOGGLE	T	Vch Offset Enable
VCHOFFSET	QUANT	0	Vch Offset (V)
VCHFILTER	IQUANT	3	Vch Filter
ACHRANGE	IQUANT	2	Ach Range
ACHOFFSETENABLE	TOGGLE	F	Ach Offset Enable
ACHOFFSET	QUANT	0	Ach Offset (V)
ACHFILTER	IQUANT	3	Ach Filter
IERANGELOWERLIMIT	IQUANT	2	I/E Range Lower Limit
IERANGEMODE	TOGGLE	F	I/E AutoRange
IERANGE	IQUANT	11	I/E Range
POSFEEDENABLE	TOGGLE	F	Positive Feedback IR Comp
POSFEEDRESISTANCE	QUANT	0	Positive Feedback Resistance (ohm)
ACHSELECT	IQUANT	0	Ach Select
CABLEID	IQUANT	13	Cable ID
DCCALDATE	LABEL	9/10/2021	DC Calibration Date
ACCALDATE	LABEL	9/10/2021	AC Calibration Date
THERMOSELECT	IQUANT	1	Thermo Select
FRAMEWORKVERSION	QUANT	6.33	Framework Version
INSTRUMENTVERSION	LABEL	3.50	Instrument Version
COMPLIANCEVOLTAGE	IQUANT	0	Compliance Voltage
ZCURVE	TABLE
	Pt	Time	Freq	Zreal	Zimag	Zsig	Zmod	Zphz	Idc	Vdc	IERange
	#	s	Hz	ohm	ohm	V	ohm	°	A	V	#
	0	16	300046.9	848.2444	-237.1429	1	880.7698	-15.61935	-1.540014E-005	0.0014917	9
	1	32	238359.4	914.6868	-225.0395	1	941.9632	-13.82191	1.853746E-005	-0.0012427	9
	2	48	189328.1	987.267	-205.3774	1	1008.402	-11.75143	2.717876E-005	0.0007257	9
	3	58	150421.9	1026.188	-184.6741	1	1042.673	-10.20182	-2.035642E-005	0.0009881	9
	4	67	119484.4	1073.964	-131.6557	1	1082.003	-6.988938	5.716901E-005	-0.0131011	8
	5	73	94921.88	1092.715	-110.6053	1	1098.298	-5.77983	1.608786E-005	-0.0015019	8
	6	76	75421.88	1115.109	-101.3754	1	1119.708	-5.19452	-1.473041E-005	0.0009908	8
	7	79	59859.37	1131.418	-86.54265	1	1134.724	-4.37406	-6.187271E-006	0.0066559	8
	8	82	47578.12	1148.455	-79.20234	1	1151.183	-3.945113	4.064018E-006	-0.0060892	8
	9	84	37828.12	1165.842	-63.70923	1	1167.582	-3.127905	1.066694E-005	-0.007659	8
	10	87	30046.88	1181.098	-60.72976	1	1182.659	-2.943444	1.08031E-005	-0.0075825	8
	11	92	23859.38	1199.957	-56.68761	1	1201.296	-2.704719	1.681654E-005	-0.0082404	8
	12	95	18984.38	1216.641	-49.87283	1	1217.663	-2.347368	-1.790214E-005	0.0080896	8
	13	98	15046.87	1231.321	-47.97741	1	1232.255	-2.231354	1.630188E-005	-0.0081761	8
	14	102	11953.13	1251.178	-44.99477	1	1251.987	-2.059579	-2.108036E-005	0.006099	8
	15	105	9515.62	1270.544	-45.04871	1	1271.342	-2.030642	-3.827488E-006	-0.003813	8
	16	109	7546.875	1286.336	-46.41996	1	1287.173	-2.066734	-3.056866E-006	-0.0040051	8
	17	112	5928.309	1309.624	-42.32998	1	1310.308	-1.851283	2.049175E-005	-0.0081616	8
	18	116	4733.456	1332.318	-45.22489	1	1333.086	-1.944131	-3.374824E-006	-0.0039657	8
	19	120	3796.875	1348.674	-50.22316	1	1349.608	-2.132648	2.236708E-005	-0.0072131	8
	20	123	2987.132	1374.584	-49.55294	1	1375.477	-2.064584	9.498757E-006	0.0017306	8
	21	127	2390.625	1396.926	-51.00567	1	1397.857	-2.091099	2.066833E-005	-0.0039367	8
	22	132	1884.191	1422.557	-52.40767	1	1423.522	-2.109848	1.706123E-005	-0.0085225	8
	23	136	1516.544	1452.399	-56.1144	1	1453.482	-2.212561	1.654698E-005	-0.0014163	8
	24	140	1193.986	1477.3	-58.83559	1	1478.471	-2.280681	4.438465E-006	-0.0064113	8
	25	145	946.5144	1501.848	-69.75961	1	1503.467	-2.659431	1.678983E-005	-0.0014268	8
	26	147	751.7689	1519.484	-69.6891	1	1521.081	-2.625954	1.091508E-006	0.0048616	8
	27	150	597.4265	1550.086	-81.97449	1	1552.252	-3.0272	2.106042E-005	-0.0039464	8
	28	153	477.4305	1568.83	-84.52102	1	1571.105	-3.08384	-1.405872E-007	-0.0001228	8
	29	155	376.6741	1590.39	-91.89686	1	1593.042	-3.307022	-1.274373E-007	-0.0001147	8
	30	157	298.2954	1612.212	-100.5407	1	1615.344	-3.568455	-1.529734E-007	-0.0001157	8
	31	160	237.7717	1634.715	-110.85	1	1638.469	-3.879289	-1.48223E-007	-0.0001045	8
	32	162	189.0121	1657.805	-123.5337	1	1662.401	-4.261601	-1.103759E-007	-0.0001397	8
	33	164	150.2404	1681.05	-139.387	1	1686.819	-4.739928	-8.603223E-008	-0.0001366	8
	34	167	119.1737	1704.76	-159.2364	1	1712.181	-5.33634	-1.107372E-007	-0.000107	8
	35	169	95.0169	1729.107	-183.4166	1	1738.808	-6.05506	-1.480612E-007	-0.0001065	8
	36	172	75.60484	1755.045	-213.5624	1	1767.991	-6.937921	-1.416722E-007	-0.0001123	8
	37	174	54.50582	1787.96	-269.5535	1	1808.165	-8.573369	-1.052298E-007	-0.0001406	8
	38	177	45.95588	1812.691	-306.5153	1	1838.423	-9.59759	-1.247128E-007	-0.0001223	8
	39	179	37.20238	1840.226	-360.7321	1	1875.249	-11.09083	-1.493473E-007	-0.0001345	8
	40	182	30.04808	1871.163	-427.7601	1	1919.435	-12.87691	-1.322133E-007	-0.0001055	8
	41	184	23.91582	1904.973	-514.769	1	1973.299	-15.12152	-1.36407E-007	-0.0001422	8
	42	186	18.60119	1943.035	-638.2255	1	2045.17	-18.18371	-3.167755E-007	-0.0001115	8
	43	189	15.02404	1982.24	-762.2936	1	2123.762	-21.03484	-2.319211E-008	-0.0001198	8
	44	191	12.01923	2025.226	-920.7675	1	2224.714	-24.44888	-2.394708E-008	-0.0001621	8
	45	194	9.450605	2075.369	-1137.813	1	2366.807	-28.73357	-1.31966E-007	-0.0001356	8
	46	196	7.512019	2134.646	-1392.304	1	2548.573	-33.11403	-1.876877E-007	-0.0001005	8
	47	199	5.978954	2202.368	-1706.103	1	2785.895	-37.76378	-1.68227E-007	-0.000113	8
	48	202	4.734848	2282.829	-2102.86	1	3103.76	-42.65015	-1.334982E-007	-8.053151E-005	8
	49	205	3.75601	2379.073	-2590.492	1	3517.192	-47.43605	-1.17986E-007	-0.0001539	8
	50	209	3.004808	2497.61	-3176.445	1	4040.774	-51.82234	-3.666864E-008	-0.0001022	7
	51	212	2.372217	2642.229	-3935.979	1	4740.602	-56.12648	-2.886921E-008	-2.913257E-005	7
	52	217	1.878005	2806.908	-4869.366	1	5620.45	-60.03904	-3.912271E-008	-0.0001356	7
	53	221	1.512097	3007.199	-5923.033	1	6642.708	-63.08252	-2.746073E-008	-2.219009E-005	7
	54	227	1.201923	3249.151	-7324.647	1	8012.955	-66.07833	-3.568706E-008	-0.0001401	7
	55	233	0.956633	3550.752	-9032.326	1	9705.19	-68.53942	-4.196407E-008	-0.0006556	7
