EXPLAIN
TAG	EISPOT
TITLE	LABEL	Potentiostatic EIS	Test Identifier
DATE	LABEL	10/12/2021	Date
TIME	LABEL	16:56:11	Time
NOTES	NOTES	1	Notes...
	
PSTAT	PSTAT	REF3000-16137	Potentiostat
VDC	POTEN	0.00000E+000	T	DC Voltage (V)
FREQINIT	QUANT	3.00000E+005	Initial Freq. (Hz)
FREQFINAL	QUANT	1.00000E+000	Final Freq. (Hz)
PTSPERDEC	QUANT	1.00000E+001	Points/decade
VAC	QUANT	5.00000E+001	AC Voltage (mV rms)
AREA	QUANT	1.00000E+000	Sample Area (cm^2)
SPEED	SELECTOR	2	Optimize for:
ZGUESS	QUANT	1.00000E+003	Estimated Z (ohms)
EOC	QUANT	0	Open Circuit (V)
SEQUENCER	TOGGLE	TRUE	Run as Sequence
PSTATMODEL	IQUANT	5	Pstat Model
PSTATSECTION	LABEL	REF3000-16137	Pstat Section
PSTATSERIALNO	LABEL	16137	Pstat Serial Number
CTRLMODE	IQUANT	1	Control Mode
IESTAB	IQUANT	0	I/E Stability
CASPEED	IQUANT	1	Control Amp Speed
CONVENTION	IQUANT	1	Current Convention
ICHRANGE	IQUANT	2	Ich Range
ICHRANGEMODE	TOGGLE	F	Ich Auto Range
ICHOFFSETENABLE	TOGGLE	T	Ich Offset Enable
ICHOFFSET	QUANT	0	Ich Offset (V)
ICHFILTER	IQUANT	3	Ich Filter
VCHRANGE	IQUANT	2	Vch Range
VCHRANGEMODE	TOGGLE	F	Vch Auto Range
VCHOFFSETENABLE	TOGGLE	T	Vch Offset Enable
VCHOFFSET	QUANT	0	Vch Offset (V)
VCHFILTER	IQUANT	3	Vch Filter
ACHRANGE	IQUANT	2	Ach Range
ACHOFFSETENABLE	TOGGLE	F	Ach Offset Enable
ACHOFFSET	QUANT	0	Ach Offset (V)
ACHFILTER	IQUANT	3	Ach Filter
IERANGELOWERLIMIT	IQUANT	2	I/E Range Lower Limit
IERANGEMODE	TOGGLE	F	I/E AutoRange
IERANGE	IQUANT	11	I/E Range
POSFEEDENABLE	TOGGLE	F	Positive Feedback IR Comp
POSFEEDRESISTANCE	QUANT	0	Positive Feedback Resistance (ohm)
ACHSELECT	IQUANT	0	Ach Select
CABLEID	IQUANT	13	Cable ID
DCCALDATE	LABEL	9/10/2021	DC Calibration Date
ACCALDATE	LABEL	9/10/2021	AC Calibration Date
THERMOSELECT	IQUANT	1	Thermo Select
FRAMEWORKVERSION	QUANT	6.33	Framework Version
INSTRUMENTVERSION	LABEL	3.50	Instrument Version
COMPLIANCEVOLTAGE	IQUANT	0	Compliance Voltage
ZCURVE	TABLE
	Pt	Time	Freq	Zreal	Zimag	Zsig	Zmod	Zphz	Idc	Vdc	IERange
	#	s	Hz	ohm	ohm	V	ohm	°	A	V	#
	0	22	300046.9	1843.802	-2587.722	1	3177.406	-54.5294	-2.351234E-005	0.0009738	9
	1	42	238359.4	2339.236	-2886.571	1	3715.417	-50.97918	2.020357E-005	-0.0023838	9
	2	59	189328.1	2878.286	-3190.352	1	4296.845	-47.94371	-2.373064E-005	0.0013891	9
	3	72	150421.9	3676.451	-3196.417	1	4871.691	-41.00467	9.020123E-005	-0.0029708	9
	4	81	119484.4	4363.321	-3558.147	1	5630.185	-39.19613	2.674139E-005	-0.0017153	9
	5	89	94921.88	5174.776	-3409.218	1	6196.86	-33.37747	1.859653E-005	-0.0010809	8
	6	97	75421.88	5927.329	-3368.996	1	6817.871	-29.61319	-1.015142E-005	0.0090087	8
	7	104	59859.37	6712.68	-3281.575	1	7471.868	-26.05226	-2.355164E-005	0.0102751	8
	8	112	47578.12	7533.667	-3073.176	1	8136.372	-22.1918	1.008894E-005	0.0026914	8
	9	120	37828.12	8709.237	-2256.781	1	8996.882	-14.52725	3.37451E-006	-0.0235499	7
	10	127	30046.88	9107.446	-1970.247	1	9318.125	-12.2069	6.014729E-006	-0.0095415	7
	11	130	23859.38	9423.183	-1736.855	1	9581.91	-10.44339	5.130402E-006	-0.0255666	7
	12	134	18984.38	9766.51	-1497.623	1	9880.67	-8.717979	1.435699E-006	-0.0196354	7
	13	138	15046.87	10031.87	-1326.124	1	10119.15	-7.530329	5.095522E-006	-0.0255362	7
	14	142	11953.13	10338.05	-1124.441	1	10399.02	-6.2075	-6.144486E-006	0.0232727	7
	15	146	9515.62	10596.1	-965.586	1	10640.01	-5.206786	3.449576E-006	-0.0238341	7
	16	150	7546.875	10892.07	-833.3279	1	10923.9	-4.375048	-6.668038E-006	0.020859	7
	17	154	5928.309	11169.89	-769.1483	1	11196.34	-3.939117	7.195503E-006	-0.023297	7
	18	158	4733.456	11336.23	-586.9731	1	11351.42	-2.964042	4.533958E-006	-0.0009744	7
	19	163	3796.875	11651.99	-560.0692	1	11665.44	-2.751884	2.520885E-006	0.0075598	7
	20	167	2987.132	11866.23	-457.8055	1	11875.05	-2.209407	7.224367E-006	-0.0234202	7
	21	171	2390.625	12146.62	-476.8401	1	12155.98	-2.248107	-6.270122E-006	0.0105374	7
	22	175	1884.191	12490.15	-530.2148	1	12501.4	-2.430782	7.244759E-006	-0.0234892	7
	23	180	1516.544	12696.49	-437.3367	1	12704.02	-1.972801	6.501505E-006	-0.0260499	7
	24	184	1193.986	12918.89	-272.2396	1	12921.76	-1.207214	-3.063537E-006	-0.0059357	7
	25	189	946.5144	13229.23	-524.783	1	13239.64	-2.271643	5.126743E-006	-0.0261533	7
	26	191	751.7689	13542.7	-436.558	1	13549.73	-1.846328	7.231683E-006	-0.0235689	7
	27	194	597.4265	13730.48	-276.1345	1	13733.26	-1.152123	-1.74111E-006	0.0202251	7
	28	196	477.4305	13907.48	-466.5448	1	13915.3	-1.921342	-6.146976E-008	-0.0001362	7
	29	199	376.6741	14130.47	-503.3566	1	14139.43	-2.040132	-5.762152E-008	-0.0001266	7
	30	201	298.2954	14353.11	-544.7643	1	14363.44	-2.173586	-5.775437E-008	-0.0001356	7
	31	203	237.7717	14606.72	-586.0036	1	14618.47	-2.297403	-5.686252E-008	-0.0001572	7
	32	206	189.0121	14867.93	-627.7068	1	14881.18	-2.417525	-6.155842E-008	-6.961108E-005	7
	33	208	150.2404	15152.47	-665.9162	1	15167.09	-2.516399	-6.366951E-008	-6.98361E-005	7
	34	211	119.1737	15434.83	-700.0131	1	15450.69	-2.596746	-6.465425E-008	-0.0001562	7
	35	213	95.0169	15723.8	-717.3256	1	15740.16	-2.612043	-4.867974E-008	-0.0001639	7
	36	216	75.60484	16018.58	-738.4747	1	16035.59	-2.639532	-5.01797E-008	-0.000146	7
	37	218	54.50582	16356.45	-772.5861	1	16374.69	-2.704318	-5.685514E-008	-0.0000988	7
	38	221	45.95588	16609.3	-802.0417	1	16628.65	-2.764592	-8.248401E-008	-7.598787E-005	7
	39	223	37.20238	16877.18	-847.8734	1	16898.47	-2.875999	-7.465172E-008	-0.0001222	7
	40	225	30.04808	17147.49	-910.0615	1	17171.62	-3.037985	-3.697061E-008	-0.0001312	7
	41	228	23.91582	17409.48	-996.699	1	17437.99	-3.276627	-2.596083E-008	-6.901948E-005	7
	42	230	18.60119	17702.67	-1139.93	1	17739.34	-3.684365	-3.31189E-008	-0.000128	7
	43	233	15.02404	17980.78	-1301.585	1	18027.83	-4.14028	-1.189554E-007	-6.656117E-005	7
	44	235	12.01923	18226.53	-1484.507	1	18286.88	-4.656325	-8.874469E-008	-0.0001555	7
	45	237	9.450605	18539.36	-1785.071	1	18625.1	-5.499797	-3.353105E-008	-0.000144	7
	46	240	7.512019	18832.26	-2130.101	1	18952.34	-6.453249	1.934984E-008	-0.000106	7
	47	243	5.978954	19228.75	-2568.7	1	19399.57	-7.60889	-1.275208E-008	-7.883374E-005	7
	48	246	4.734848	19695.93	-3079.558	1	19935.23	-8.886535	-6.397968E-008	-0.0001622	7
	49	249	3.75601	20190.07	-3764.076	1	20537.95	-10.56053	-2.563772E-008	-0.000119	7
	50	252	3.004808	20684.95	-4518.144	1	21172.64	-12.32141	-6.190156E-008	-5.973184E-005	7
	51	256	2.372217	21329.29	-5574.889	1	22045.81	-14.64785	-3.598045E-008	-0.0001512	7
	52	260	1.878005	22044.93	-6841.051	1	23082.01	-17.24032	-3.759807E-008	-0.0001071	7
	53	265	1.512097	22877.66	-8272.401	1	24327.35	-19.87963	-4.187115E-008	-0.0001241	7
	54	270	1.201923	23859.27	-10151.24	1	25928.98	-23.04796	-5.16604E-008	-7.99013E-005	7
	55	277	0.956633	25072.74	-12467.37	1	28001.39	-26.43877	-6.9325E-008	-0.0006511	7
