EXPLAIN
TAG	EISPOT
TITLE	LABEL	Potentiostatic EIS	Test Identifier
DATE	LABEL	10/12/2021	Date
TIME	LABEL	16:26:53	Time
NOTES	NOTES	1	Notes...
	
PSTAT	PSTAT	REF3000-16137	Potentiostat
VDC	POTEN	0.00000E+000	T	DC Voltage (V)
FREQINIT	QUANT	3.00000E+005	Initial Freq. (Hz)
FREQFINAL	QUANT	1.00000E+000	Final Freq. (Hz)
PTSPERDEC	QUANT	1.00000E+001	Points/decade
VAC	QUANT	5.00000E+001	AC Voltage (mV rms)
AREA	QUANT	1.00000E+000	Sample Area (cm^2)
SPEED	SELECTOR	2	Optimize for:
ZGUESS	QUANT	1.00000E+003	Estimated Z (ohms)
EOC	QUANT	0	Open Circuit (V)
SEQUENCER	TOGGLE	TRUE	Run as Sequence
PSTATMODEL	IQUANT	5	Pstat Model
PSTATSECTION	LABEL	REF3000-16137	Pstat Section
PSTATSERIALNO	LABEL	16137	Pstat Serial Number
CTRLMODE	IQUANT	1	Control Mode
IESTAB	IQUANT	0	I/E Stability
CASPEED	IQUANT	1	Control Amp Speed
CONVENTION	IQUANT	1	Current Convention
ICHRANGE	IQUANT	2	Ich Range
ICHRANGEMODE	TOGGLE	F	Ich Auto Range
ICHOFFSETENABLE	TOGGLE	T	Ich Offset Enable
ICHOFFSET	QUANT	0	Ich Offset (V)
ICHFILTER	IQUANT	3	Ich Filter
VCHRANGE	IQUANT	2	Vch Range
VCHRANGEMODE	TOGGLE	F	Vch Auto Range
VCHOFFSETENABLE	TOGGLE	T	Vch Offset Enable
VCHOFFSET	QUANT	0	Vch Offset (V)
VCHFILTER	IQUANT	3	Vch Filter
ACHRANGE	IQUANT	2	Ach Range
ACHOFFSETENABLE	TOGGLE	F	Ach Offset Enable
ACHOFFSET	QUANT	0	Ach Offset (V)
ACHFILTER	IQUANT	3	Ach Filter
IERANGELOWERLIMIT	IQUANT	2	I/E Range Lower Limit
IERANGEMODE	TOGGLE	F	I/E AutoRange
IERANGE	IQUANT	11	I/E Range
POSFEEDENABLE	TOGGLE	F	Positive Feedback IR Comp
POSFEEDRESISTANCE	QUANT	0	Positive Feedback Resistance (ohm)
ACHSELECT	IQUANT	0	Ach Select
CABLEID	IQUANT	13	Cable ID
DCCALDATE	LABEL	9/10/2021	DC Calibration Date
ACCALDATE	LABEL	9/10/2021	AC Calibration Date
THERMOSELECT	IQUANT	1	Thermo Select
FRAMEWORKVERSION	QUANT	6.33	Framework Version
INSTRUMENTVERSION	LABEL	3.50	Instrument Version
COMPLIANCEVOLTAGE	IQUANT	0	Compliance Voltage
ZCURVE	TABLE
	Pt	Time	Freq	Zreal	Zimag	Zsig	Zmod	Zphz	Idc	Vdc	IERange
	#	s	Hz	ohm	ohm	V	ohm	°	A	V	#
	0	7	300046.9	42.71338	1.795302	1	42.75109	2.406803	-2.897839E-005	-0.0007332	9
	1	10	238359.4	42.98778	1.12723	1	43.00256	1.502072	-2.71493E-005	-0.0006724	9
	2	13	189328.1	43.36348	0.641548	1	43.36823	0.8476098	-2.847965E-005	-0.0004132	9
	3	16	150421.9	43.73234	0.1897527	1	43.73275	0.2486023	9.724843E-006	-0.0007632	9
	4	19	119484.4	44.09652	-0.1975306	1	44.09697	-0.256655	8.77736E-006	-0.000658	9
	5	21	94921.88	44.52686	-0.4466085	1	44.5291	-0.5746627	1.143057E-005	-0.0002241	9
	6	24	75421.88	44.91151	-0.7613269	1	44.91796	-0.971168	1.628364E-005	-0.0004169	9
	7	26	59859.37	45.33052	-1.064644	1	45.34302	-1.345416	-4.194582E-006	0.000205	9
	8	29	47578.12	45.76939	-1.348768	1	45.78926	-1.687948	9.346162E-006	-0.0002016	9
	9	31	37828.12	46.2477	-1.618164	1	46.276	-2.003909	-3.144032E-006	0.0002824	9
	10	34	30046.88	46.7426	-1.894302	1	46.78096	-2.320713	2.459882E-006	3.158793E-005	9
	11	36	23859.38	47.26849	-2.162575	1	47.31793	-2.619505	-1.497592E-005	0.0004342	9
	12	39	18984.38	47.792	-2.428857	1	47.85368	-2.909349	3.484062E-006	8.254414E-005	9
	13	41	15046.87	48.31499	-2.727513	1	48.39192	-3.231073	1.261114E-005	-0.0007174	9
	14	43	11953.13	48.92203	-3.023465	1	49.01537	-3.536479	-1.242096E-005	0.0004478	9
	15	46	9515.62	49.50722	-3.366747	1	49.62157	-3.890419	-1.360672E-005	0.0004037	9
	16	48	7546.875	50.09483	-3.779589	1	50.23721	-4.314717	1.606555E-005	-0.0004213	9
	17	50	5928.309	50.78618	-4.223124	1	50.96147	-4.753493	1.755973E-005	-0.0004687	9
	18	53	4733.456	51.45316	-4.753428	1	51.67227	-5.278208	1.858082E-005	-0.0006989	9
	19	55	3796.875	52.14009	-5.313031	1	52.41009	-5.818309	1.788572E-005	-0.0007547	9
	20	57	2987.132	52.84316	-6.095638	1	53.19358	-6.580179	1.766599E-005	-0.0004678	9
	21	60	2390.625	53.57083	-6.965784	1	54.02181	-7.40857	1.28313E-005	-0.0007291	9
	22	62	1884.191	54.40033	-8.127491	1	55.00411	-8.497226	-1.633414E-005	0.0004317	9
	23	64	1516.544	55.12244	-9.380339	1	55.91489	-9.65767	-1.703143E-005	0.0003593	9
	24	67	1193.986	56.01521	-11.07861	1	57.10026	-11.1875	1.687745E-005	-0.0007305	9
	25	69	946.5144	56.90164	-13.12657	1	58.39609	-12.99024	1.712095E-005	-0.000721	9
	26	71	751.7689	57.85188	-15.66378	1	59.93492	-15.14998	-1.64474E-005	0.000257	9
	27	74	597.4265	58.84047	-18.73226	1	61.75029	-17.65922	1.001646E-005	-0.0001434	9
	28	76	477.4305	59.94915	-22.49337	1	64.03008	-20.56647	4.17466E-007	-0.0001288	9
	29	78	376.6741	61.14718	-27.38733	1	67.00033	-24.12722	4.369971E-007	-0.0001309	9
	30	81	298.2954	62.45913	-33.39239	1	70.8251	-28.1302	5.296985E-007	-0.0001234	9
	31	83	237.7717	63.90131	-40.63324	1	75.72607	-32.45126	5.32513E-007	-0.0001263	9
	32	86	189.0121	65.54889	-49.70765	1	82.26485	-37.17411	5.260675E-007	-0.000124	9
	33	88	150.2404	67.43158	-60.95486	1	90.89837	-42.11205	8.854787E-007	-0.0001704	9
	34	90	119.1737	69.62797	-75.04115	1	102.3681	-47.14287	5.709754E-007	-0.000133	9
	35	93	95.0169	72.16221	-92.10201	1	117.005	-51.92119	4.415411E-007	-0.0001279	9
	36	95	75.60484	75.19851	-113.4022	1	136.0694	-56.45111	4.297705E-007	-0.0001309	9
	37	98	54.50582	80.47424	-152.9734	1	172.8495	-62.25262	4.991985E-007	-0.0001436	9
	38	100	45.95588	84.02549	-178.9623	1	197.7063	-64.84924	4.784386E-007	-0.0001371	9
	39	103	37.20238	89.12038	-217.4082	1	234.9654	-67.7102	3.921758E-007	-0.0001268	9
	40	105	30.04808	95.3339	-264.7464	1	281.388	-70.19629	4.108263E-007	-0.0001314	9
	41	108	23.91582	103.4781	-326.9691	1	342.9526	-72.43863	4.261582E-007	-0.0001391	9
	42	110	18.60119	114.606	-412.4253	1	428.0528	-74.47028	4.220314E-007	-0.0001367	9
	43	112	15.02404	125.8832	-500.2964	1	515.8906	-75.87658	2.775008E-007	-0.0001226	8
	44	115	12.01923	141.2442	-615.06	1	631.0695	-77.06667	3.159885E-007	-0.000125	8
	45	117	9.450605	162.0841	-768.3404	1	785.2504	-78.08791	2.910782E-007	-0.0001126	8
	46	120	7.512019	187.4745	-949.7184	1	968.045	-78.83337	3.318976E-007	-0.0001002	8
	47	122	5.978954	219.6878	-1172.357	1	1192.763	-79.38644	3.448846E-007	-0.0001229	8
	48	125	4.734848	262.3971	-1454.212	1	1477.696	-79.77164	3.202155E-007	-0.0001117	8
	49	129	3.75601	315.5266	-1798.98	1	1826.441	-80.05196	3.320739E-007	-0.0001126	8
	50	132	3.004808	380.2155	-2205.503	1	2238.037	-80.2187	3.046605E-007	-9.363423E-005	8
	51	136	2.372217	467.9278	-2734.682	1	2774.426	-80.29023	3.124358E-007	-8.381285E-005	8
	52	140	1.878005	586.0883	-3386.978	1	3437.313	-80.18266	3.338951E-007	-0.0001386	8
	53	145	1.512097	714.3296	-4123.429	1	4184.846	-80.17181	3.212063E-007	-2.754836E-005	8
	54	150	1.201923	901.4415	-5091.132	1	5170.321	-79.95921	5.139552E-008	-0.0001157	7
	55	156	0.956633	1126.74	-6255.912	1	6356.57	-79.79004	2.538301E-008	-0.000655	7
