EXPLAIN
TAG	EISPOT
TITLE	LABEL	Potentiostatic EIS	Test Identifier
DATE	LABEL	10/12/2021	Date
TIME	LABEL	16:51:27	Time
NOTES	NOTES	1	Notes...
	
PSTAT	PSTAT	REF3000-16137	Potentiostat
VDC	POTEN	0.00000E+000	T	DC Voltage (V)
FREQINIT	QUANT	3.00000E+005	Initial Freq. (Hz)
FREQFINAL	QUANT	1.00000E+000	Final Freq. (Hz)
PTSPERDEC	QUANT	1.00000E+001	Points/decade
VAC	QUANT	5.00000E+001	AC Voltage (mV rms)
AREA	QUANT	1.00000E+000	Sample Area (cm^2)
SPEED	SELECTOR	2	Optimize for:
ZGUESS	QUANT	1.00000E+003	Estimated Z (ohms)
EOC	QUANT	0	Open Circuit (V)
SEQUENCER	TOGGLE	TRUE	Run as Sequence
PSTATMODEL	IQUANT	5	Pstat Model
PSTATSECTION	LABEL	REF3000-16137	Pstat Section
PSTATSERIALNO	LABEL	16137	Pstat Serial Number
CTRLMODE	IQUANT	1	Control Mode
IESTAB	IQUANT	0	I/E Stability
CASPEED	IQUANT	1	Control Amp Speed
CONVENTION	IQUANT	1	Current Convention
ICHRANGE	IQUANT	2	Ich Range
ICHRANGEMODE	TOGGLE	F	Ich Auto Range
ICHOFFSETENABLE	TOGGLE	T	Ich Offset Enable
ICHOFFSET	QUANT	0	Ich Offset (V)
ICHFILTER	IQUANT	3	Ich Filter
VCHRANGE	IQUANT	2	Vch Range
VCHRANGEMODE	TOGGLE	F	Vch Auto Range
VCHOFFSETENABLE	TOGGLE	T	Vch Offset Enable
VCHOFFSET	QUANT	0	Vch Offset (V)
VCHFILTER	IQUANT	3	Vch Filter
ACHRANGE	IQUANT	2	Ach Range
ACHOFFSETENABLE	TOGGLE	F	Ach Offset Enable
ACHOFFSET	QUANT	0	Ach Offset (V)
ACHFILTER	IQUANT	3	Ach Filter
IERANGELOWERLIMIT	IQUANT	2	I/E Range Lower Limit
IERANGEMODE	TOGGLE	F	I/E AutoRange
IERANGE	IQUANT	11	I/E Range
POSFEEDENABLE	TOGGLE	F	Positive Feedback IR Comp
POSFEEDRESISTANCE	QUANT	0	Positive Feedback Resistance (ohm)
ACHSELECT	IQUANT	0	Ach Select
CABLEID	IQUANT	13	Cable ID
DCCALDATE	LABEL	9/10/2021	DC Calibration Date
ACCALDATE	LABEL	9/10/2021	AC Calibration Date
THERMOSELECT	IQUANT	1	Thermo Select
FRAMEWORKVERSION	QUANT	6.33	Framework Version
INSTRUMENTVERSION	LABEL	3.50	Instrument Version
COMPLIANCEVOLTAGE	IQUANT	0	Compliance Voltage
ZCURVE	TABLE
	Pt	Time	Freq	Zreal	Zimag	Zsig	Zmod	Zphz	Idc	Vdc	IERange
	#	s	Hz	ohm	ohm	V	ohm	°	A	V	#
	0	20	300046.9	1510.058	-845.1935	1	1730.499	-29.23614	-3.915391E-005	-0.001277	9
	1	35	238359.4	1707.069	-838.9252	1	1902.073	-26.17143	8.354025E-005	-0.0019808	9
	2	53	189328.1	1847.207	-807.4709	1	2015.982	-23.61162	8.974974E-005	-0.0031361	9
	3	59	150421.9	2035.501	-640.1787	1	2133.798	-17.45871	-0.0001079	0.0037097	9
	4	68	119484.4	2233.117	-611.8341	1	2315.416	-15.32202	1.318472E-005	-0.0157665	8
	5	76	94921.88	2336.853	-553.5718	1	2401.525	-13.32701	2.335708E-005	-0.0091247	8
	6	80	75421.88	2435.729	-485.2067	1	2483.586	-11.26607	2.324134E-005	-0.0091183	8
	7	84	59859.37	2525.748	-423.4123	1	2560.992	-9.51648	-8.467371E-006	0.0080639	8
	8	89	47578.12	2621.985	-369.2973	1	2647.865	-8.01717	-8.609662E-006	0.0080297	8
	9	95	37828.12	2740.666	-373.4127	1	2765.988	-7.758711	-2.48479E-005	0.0002811	9
	10	103	30046.88	2808.911	-284.2206	1	2823.253	-5.777828	-3.031842E-006	-0.0047371	8
	11	110	23859.38	2894.298	-256.8414	1	2905.672	-5.071171	-3.037142E-006	-0.0047671	8
	12	116	18984.38	2978.583	-240.3439	1	2988.264	-4.613241	1.779865E-005	-0.0011405	9
	13	121	15046.87	3039.449	-194.0044	1	3045.635	-3.652167	-2.14338E-005	0.0095217	8
	14	126	11953.13	3108.994	-168.78	1	3113.572	-3.107403	2.394565E-005	-0.0093118	8
	15	132	9515.62	3191.501	-163.7066	1	3195.697	-2.936388	-2.755089E-005	0.0005138	9
	16	137	7546.875	3241.468	-143.3095	1	3244.635	-2.531472	-2.440549E-005	0.006776	8
	17	143	5928.309	3330.558	-102.175	1	3332.125	-1.757172	-2.794679E-005	0.0007479	9
	18	148	4733.456	3440.704	-111.2621	1	3442.502	-1.852129	-1.626942E-006	-0.000701	9
	19	153	3796.875	3471.667	-114.5484	1	3473.556	-1.889801	-1.661749E-005	0.0006769	8
	20	159	2987.132	3571.04	-127.4215	1	3573.313	-2.043555	1.073836E-005	0.0001582	9
	21	164	2390.625	3636.03	-113.1248	1	3637.789	-1.782021	-1.661922E-005	0.0096435	8
	22	170	1884.191	3688.123	-133.7613	1	3690.548	-2.0771	4.503677E-007	0.0058149	8
	23	175	1516.544	3806.804	-107.8025	1	3808.33	-1.62209	1.738922E-006	-0.0183572	7
	24	178	1193.986	3863.93	-108.2352	1	3865.445	-1.604531	-2.035174E-006	0.0185371	7
	25	182	946.5144	3901.055	-140.6535	1	3903.59	-2.064919	-1.079685E-005	-0.0019961	8
	26	185	751.7689	4020.345	-165.2492	1	4023.74	-2.353717	-2.20923E-005	0.0097422	8
	27	189	597.4265	3997.123	-166.574	1	4000.592	-2.386334	2.433916E-005	-0.0094292	8
	28	193	477.4305	4141.184	-178.1906	1	4145.016	-2.463855	-1.585805E-007	-0.0001332	8
	29	196	376.6741	4217.931	-187.7354	1	4222.107	-2.548488	-5.589392E-008	-0.0001519	7
	30	199	298.2954	4281.547	-202.9263	1	4286.353	-2.713535	-5.913453E-008	-0.0001306	7
	31	201	237.7717	4347.152	-217.5925	1	4352.595	-2.865494	-4.818017E-008	-0.0001409	7
	32	203	189.0121	4415.896	-232.8943	1	4422.034	-3.018982	-7.115541E-008	-8.498175E-005	7
	33	206	150.2404	4482.392	-249.6697	1	4489.34	-3.188087	-4.477292E-008	-0.0001221	7
	34	208	119.1737	4551.799	-267.9335	1	4559.678	-3.368727	-8.208836E-008	-7.140797E-005	7
	35	211	95.0169	4619.25	-292.8977	1	4628.527	-3.628157	-6.211938E-008	-9.273478E-005	7
	36	213	75.60484	4689.407	-323.0466	1	4700.521	-3.9408	-3.367981E-008	-0.0001113	7
	37	216	54.50582	4769.716	-380.6786	1	4784.883	-4.563194	-5.199463E-008	-9.081224E-005	7
	38	218	45.95588	4834.464	-419.3156	1	4852.615	-4.957123	-1.022277E-007	-6.21522E-005	7
	39	221	37.20238	4898.624	-479.3081	1	4922.017	-5.588343	-2.2681E-008	-0.0001481	7
	40	223	30.04808	4973.127	-552.1293	1	5003.683	-6.33518	-1.063827E-008	-7.597488E-005	7
	41	225	23.91582	5042.033	-648.1902	1	5083.527	-7.325611	4.000412E-008	-6.912861E-005	7
	42	228	18.60119	5127.893	-799.4248	1	5189.833	-8.860933	1.291293E-007	-7.364445E-005	7
	43	230	15.02404	5209.362	-922.3068	1	5290.378	-10.04006	-1.228841E-007	-0.0001637	7
	44	232	12.01923	5303.165	-1101.236	1	5416.297	-11.73111	7.679513E-008	-7.515499E-005	7
	45	235	9.450605	5395.638	-1354.822	1	5563.133	-14.09531	-6.309285E-008	-0.0001399	7
	46	237	7.512019	5487.241	-1651.266	1	5730.314	-16.74803	5.002334E-008	-0.0001116	7
	47	240	5.978954	5624.419	-2008.505	1	5972.284	-19.65187	-1.614106E-008	-0.0001354	7
	48	243	4.734848	5764.607	-2455.826	1	6265.922	-23.07487	-1.295997E-008	-0.0001049	7
	49	246	3.75601	5935.56	-3008.435	1	6654.438	-26.87815	-4.929937E-008	-0.0001603	7
	50	250	3.004808	6119.134	-3667.786	1	7134.175	-30.93831	-5.48661E-008	-0.000114	7
	51	254	2.372217	6349.679	-4530.329	1	7800.148	-35.50686	-3.791042E-008	-8.167426E-005	7
	52	258	1.878005	6618.834	-5585.079	1	8660.373	-40.15821	-4.410147E-008	-0.0001295	7
	53	263	1.512097	6932.036	-6787.016	1	9701.38	-44.39437	-4.281868E-008	-6.365987E-006	7
	54	268	1.201923	7311.58	-8370.033	1	11113.8	-48.86141	-4.432622E-008	-0.0001278	7
	55	274	0.956633	7768.985	-10304.06	1	12904.68	-52.98468	-5.582532E-008	-0.0006517	7
