EXPLAIN
TAG	EISPOT
TITLE	LABEL	Potentiostatic EIS	Test Identifier
DATE	LABEL	10/12/2021	Date
TIME	LABEL	15:01:16	Time
NOTES	NOTES	1	Notes...
	
PSTAT	PSTAT	REF3000-16137	Potentiostat
VDC	POTEN	0.00000E+000	T	DC Voltage (V)
FREQINIT	QUANT	3.00000E+005	Initial Freq. (Hz)
FREQFINAL	QUANT	1.00000E+000	Final Freq. (Hz)
PTSPERDEC	QUANT	1.00000E+001	Points/decade
VAC	QUANT	5.00000E+001	AC Voltage (mV rms)
AREA	QUANT	1.00000E+000	Sample Area (cm^2)
SPEED	SELECTOR	2	Optimize for:
ZGUESS	QUANT	1.00000E+003	Estimated Z (ohms)
EOC	QUANT	0	Open Circuit (V)
SEQUENCER	TOGGLE	TRUE	Run as Sequence
PSTATMODEL	IQUANT	5	Pstat Model
PSTATSECTION	LABEL	REF3000-16137	Pstat Section
PSTATSERIALNO	LABEL	16137	Pstat Serial Number
CTRLMODE	IQUANT	1	Control Mode
IESTAB	IQUANT	0	I/E Stability
CASPEED	IQUANT	1	Control Amp Speed
CONVENTION	IQUANT	1	Current Convention
ICHRANGE	IQUANT	2	Ich Range
ICHRANGEMODE	TOGGLE	F	Ich Auto Range
ICHOFFSETENABLE	TOGGLE	T	Ich Offset Enable
ICHOFFSET	QUANT	0	Ich Offset (V)
ICHFILTER	IQUANT	3	Ich Filter
VCHRANGE	IQUANT	2	Vch Range
VCHRANGEMODE	TOGGLE	F	Vch Auto Range
VCHOFFSETENABLE	TOGGLE	T	Vch Offset Enable
VCHOFFSET	QUANT	0	Vch Offset (V)
VCHFILTER	IQUANT	3	Vch Filter
ACHRANGE	IQUANT	2	Ach Range
ACHOFFSETENABLE	TOGGLE	F	Ach Offset Enable
ACHOFFSET	QUANT	0	Ach Offset (V)
ACHFILTER	IQUANT	3	Ach Filter
IERANGELOWERLIMIT	IQUANT	2	I/E Range Lower Limit
IERANGEMODE	TOGGLE	F	I/E AutoRange
IERANGE	IQUANT	11	I/E Range
POSFEEDENABLE	TOGGLE	F	Positive Feedback IR Comp
POSFEEDRESISTANCE	QUANT	0	Positive Feedback Resistance (ohm)
ACHSELECT	IQUANT	0	Ach Select
CABLEID	IQUANT	13	Cable ID
DCCALDATE	LABEL	9/10/2021	DC Calibration Date
ACCALDATE	LABEL	9/10/2021	AC Calibration Date
THERMOSELECT	IQUANT	1	Thermo Select
FRAMEWORKVERSION	QUANT	6.33	Framework Version
INSTRUMENTVERSION	LABEL	3.50	Instrument Version
COMPLIANCEVOLTAGE	IQUANT	0	Compliance Voltage
ZCURVE	TABLE
	Pt	Time	Freq	Zreal	Zimag	Zsig	Zmod	Zphz	Idc	Vdc	IERange
	#	s	Hz	ohm	ohm	V	ohm	°	A	V	#
	0	10	300046.9	1.678989	2.399601	1	2.928667	55.0197	-5.611653E-005	-0.0006137	11
	1	13	238359.4	1.77357	1.742713	1	2.486483	44.49722	-1.067996E-005	-0.0010695	12
	2	18	189328.1	1.687153	1.383109	1	2.181622	39.34452	-3.846192E-005	-0.0008661	12
	3	21	150421.9	1.580036	1.17802	1	1.970849	36.70694	-2.729423E-005	-3.859044E-005	11
	4	24	119484.4	1.562156	0.9130283	1	1.809407	30.30487	2.63575E-005	-5.994523E-005	11
	5	26	94921.88	1.553185	0.6948836	1	1.701542	24.1034	-6.76194E-005	6.970698E-005	11
	6	29	75421.88	1.550281	0.5136838	1	1.63317	18.33255	-1.637739E-005	0.0001432	11
	7	31	59859.37	1.548599	0.3590541	1	1.589679	13.05379	-8.916859E-005	0.000167	11
	8	34	47578.12	1.550325	0.2260215	1	1.566714	8.294698	-2.118195E-005	0.0002665	11
	9	36	37828.12	1.552834	0.1055904	1	1.55642	3.890037	-7.229867E-005	0.0002814	11
	10	39	30046.88	1.557692	-0.008466	1	1.557715	-0.3113991	-1.708444E-005	0.0003412	11
	11	41	23859.38	1.563592	-0.1216124	1	1.568314	-4.447373	-2.280287E-005	0.0003314	11
	12	44	18984.38	1.572944	-0.2376178	1	1.590791	-8.590468	-4.673838E-005	0.0003612	11
	13	46	15046.87	1.583681	-0.3658747	1	1.625396	-13.00869	-2.12873E-005	0.0003849	11
	14	48	11953.13	1.59818	-0.5090199	1	1.677283	-17.66667	-3.020844E-005	0.0003579	11
	15	51	9515.62	1.617088	-0.6733007	1	1.751658	-22.60519	-2.757573E-005	0.0004065	11
	16	53	7546.875	1.642114	-0.8700707	1	1.858376	-27.91678	-6.951769E-005	0.0003804	11
	17	55	5928.309	1.674408	-1.116852	1	2.01271	-33.7038	-2.187317E-005	0.0004035	11
	18	58	4733.456	1.714323	-1.396473	1	2.211117	-39.16597	-8.011068E-005	0.000356	11
	19	60	3796.875	1.764178	-1.726632	1	2.468518	-44.38377	-2.470113E-005	0.0003693	11
	20	62	2987.132	1.835839	-2.168383	1	2.84116	-49.74744	-8.592004E-005	0.0003557	11
	21	64	2390.625	1.922001	-2.670398	1	3.290153	-54.2558	-5.771549E-005	0.000375	11
	22	67	1884.191	2.04321	-3.327158	1	3.904445	-58.44589	-7.431961E-005	0.0003683	11
	23	69	1516.544	2.192073	-4.063337	1	4.616913	-61.65421	-1.141501E-005	-0.0001344	10
	24	71	1193.986	2.404892	-5.051722	1	5.594944	-64.54303	-1.039927E-005	-0.0001187	10
	25	74	946.5144	2.681077	-6.23441	1	6.78646	-66.73012	-2.561565E-006	-0.0001471	10
	26	76	751.7689	3.061174	-7.662672	1	8.251504	-68.2237	1.036986E-005	-0.0001315	10
	27	79	597.4265	3.571718	-9.390189	1	10.04653	-69.17484	9.824157E-006	-0.0001495	10
	28	81	477.4305	4.248981	-11.4406	1	12.20415	-69.62527	1.268072E-006	-0.0001161	10
	29	83	376.6741	5.224852	-14.02921	1	14.97057	-69.57333	2.055335E-006	-0.0001198	10
	30	85	298.2954	6.549882	-17.07422	1	18.28742	-69.01257	2.710644E-006	-0.0001131	10
	31	88	237.7717	8.305033	-20.54905	1	22.16387	-67.99358	3.37452E-006	-0.0001168	10
	32	90	189.0121	10.70938	-24.60364	1	26.83338	-66.47765	4.004913E-006	-0.0001175	10
	33	93	150.2404	13.9354	-29.17202	1	32.32959	-64.46631	4.031676E-006	-0.0001167	10
	34	95	119.1737	18.22293	-34.19706	1	38.74937	-61.94773	4.969263E-006	-0.0001158	10
	35	98	95.0169	23.57466	-39.28194	1	45.81305	-59.03035	6.43526E-006	-0.0001325	9
	36	101	75.60484	30.29672	-44.40132	1	53.75284	-55.69279	7.101128E-006	-0.0001351	9
	37	103	54.50582	42.17211	-50.89363	1	66.09575	-50.35376	8.478434E-006	-0.0001358	9
	38	107	45.95588	49.29001	-53.69278	1	72.88634	-47.44804	1.125571E-005	-0.0001288	9
	39	109	37.20238	58.68858	-56.26475	1	81.30235	-43.79208	1.148658E-005	-0.0001298	9
	40	112	30.04808	68.64393	-57.82258	1	89.75211	-40.10929	1.185109E-005	-0.0001333	9
	41	115	23.91582	79.36158	-58.37907	1	98.5209	-36.33852	1.114651E-005	-0.000179	9
	42	118	18.60119	90.57214	-57.7865	1	107.4364	-32.53854	1.761406E-005	-0.0001356	9
	43	120	15.02404	99.8153	-56.54825	1	114.7205	-29.53281	1.311637E-005	-0.0001323	9
	44	123	12.01923	108.7794	-54.64381	1	121.733	-26.67202	1.70639E-005	-0.0001257	9
	45	125	9.450605	117.4867	-52.63984	1	128.7403	-24.13474	1.507425E-005	-0.000123	9
	46	128	7.512019	125.2424	-50.80278	1	135.1539	-22.07922	1.50284E-005	-0.0001067	9
	47	131	5.978954	132.8881	-49.26277	1	141.7253	-20.34018	9.861993E-006	-0.0001273	9
	48	135	4.734848	139.8625	-47.99792	1	147.8693	-18.94116	1.032318E-005	-0.0001068	9
	49	140	3.75601	146.9682	-47.28046	1	154.3862	-17.83327	9.201718E-006	-0.0001191	9
	50	146	3.004808	153.7764	-47.01627	1	160.8033	-17.00072	4.958009E-006	-0.0000975	9
	51	152	2.372217	160.9496	-47.31397	1	167.7599	-16.38163	6.435866E-006	-0.0000963	9
	52	160	1.878005	169.4155	-48.68591	1	176.2723	-16.03337	5.595667E-006	-0.0001436	9
	53	169	1.512097	176.5177	-49.9198	1	183.4407	-15.79108	3.803324E-006	-3.601134E-005	9
	54	179	1.201923	184.7563	-52.069	1	191.9533	-15.73918	3.433175E-006	-0.0001446	9
	55	192	0.956633	194.0004	-54.91446	1	201.6228	-15.80489	-2.904589E-006	-0.0006705	9
