EXPLAIN
TAG	EISPOT
TITLE	LABEL	Potentiostatic EIS	Test Identifier
DATE	LABEL	10/12/2021	Date
TIME	LABEL	15:14:48	Time
NOTES	NOTES	1	Notes...
	
PSTAT	PSTAT	REF3000-16137	Potentiostat
VDC	POTEN	0.00000E+000	T	DC Voltage (V)
FREQINIT	QUANT	3.00000E+005	Initial Freq. (Hz)
FREQFINAL	QUANT	1.00000E+000	Final Freq. (Hz)
PTSPERDEC	QUANT	1.00000E+001	Points/decade
VAC	QUANT	5.00000E+001	AC Voltage (mV rms)
AREA	QUANT	1.00000E+000	Sample Area (cm^2)
SPEED	SELECTOR	2	Optimize for:
ZGUESS	QUANT	1.00000E+003	Estimated Z (ohms)
EOC	QUANT	0	Open Circuit (V)
SEQUENCER	TOGGLE	TRUE	Run as Sequence
PSTATMODEL	IQUANT	5	Pstat Model
PSTATSECTION	LABEL	REF3000-16137	Pstat Section
PSTATSERIALNO	LABEL	16137	Pstat Serial Number
CTRLMODE	IQUANT	1	Control Mode
IESTAB	IQUANT	0	I/E Stability
CASPEED	IQUANT	1	Control Amp Speed
CONVENTION	IQUANT	1	Current Convention
ICHRANGE	IQUANT	2	Ich Range
ICHRANGEMODE	TOGGLE	F	Ich Auto Range
ICHOFFSETENABLE	TOGGLE	T	Ich Offset Enable
ICHOFFSET	QUANT	0	Ich Offset (V)
ICHFILTER	IQUANT	3	Ich Filter
VCHRANGE	IQUANT	2	Vch Range
VCHRANGEMODE	TOGGLE	F	Vch Auto Range
VCHOFFSETENABLE	TOGGLE	T	Vch Offset Enable
VCHOFFSET	QUANT	0	Vch Offset (V)
VCHFILTER	IQUANT	3	Vch Filter
ACHRANGE	IQUANT	2	Ach Range
ACHOFFSETENABLE	TOGGLE	F	Ach Offset Enable
ACHOFFSET	QUANT	0	Ach Offset (V)
ACHFILTER	IQUANT	3	Ach Filter
IERANGELOWERLIMIT	IQUANT	2	I/E Range Lower Limit
IERANGEMODE	TOGGLE	F	I/E AutoRange
IERANGE	IQUANT	11	I/E Range
POSFEEDENABLE	TOGGLE	F	Positive Feedback IR Comp
POSFEEDRESISTANCE	QUANT	0	Positive Feedback Resistance (ohm)
ACHSELECT	IQUANT	0	Ach Select
CABLEID	IQUANT	13	Cable ID
DCCALDATE	LABEL	9/10/2021	DC Calibration Date
ACCALDATE	LABEL	9/10/2021	AC Calibration Date
THERMOSELECT	IQUANT	1	Thermo Select
FRAMEWORKVERSION	QUANT	6.33	Framework Version
INSTRUMENTVERSION	LABEL	3.50	Instrument Version
COMPLIANCEVOLTAGE	IQUANT	0	Compliance Voltage
ZCURVE	TABLE
	Pt	Time	Freq	Zreal	Zimag	Zsig	Zmod	Zphz	Idc	Vdc	IERange
	#	s	Hz	ohm	ohm	V	ohm	°	A	V	#
	0	10	300046.9	1.826227	2.395681	1	3.012373	52.68174	-0.0001478	-0.0006348	11
	1	13	238359.4	1.776574	1.89988	1	2.601107	46.92094	-8.573946E-005	-0.0004713	11
	2	17	189328.1	1.843542	1.371766	1	2.297909	36.65267	-7.902709E-005	-0.00077	12
	3	21	150421.9	1.730475	1.164835	1	2.085998	33.94569	-7.833355E-005	-0.0001736	11
	4	23	119484.4	1.72079	0.9054332	1	1.944461	27.75213	4.293068E-005	8.646576E-005	11
	5	26	94921.88	1.713752	0.6869278	1	1.846298	21.84253	-6.53305E-005	0.0001	11
	6	28	75421.88	1.709023	0.5043362	1	1.781885	16.44144	-8.987932E-005	0.0001359	11
	7	31	59859.37	1.709274	0.3488476	1	1.744509	11.53514	-4.209426E-005	0.0002308	11
	8	33	47578.12	1.710225	0.2129372	1	1.72343	7.097274	-3.650501E-005	0.0002372	11
	9	36	37828.12	1.714472	0.090775	1	1.716873	3.030772	-7.131846E-005	0.0002983	11
	10	38	30046.88	1.718649	-0.026911	1	1.718859	-0.8970789	-1.697893E-005	0.0003407	11
	11	41	23859.38	1.726448	-0.1436466	1	1.732414	-4.756257	-7.347039E-005	0.0003497	11
	12	43	18984.38	1.734717	-0.2653133	1	1.754889	-8.695621	-4.041068E-005	0.0003751	11
	13	46	15046.87	1.746714	-0.4002666	1	1.791989	-12.90672	-5.193328E-005	0.0003719	11
	14	48	11953.13	1.76138	-0.5513719	1	1.845662	-17.3819	-4.787883E-005	0.0003828	11
	15	50	9515.62	1.779052	-0.7258989	1	1.921446	-22.19672	-9.089873E-005	0.0003456	11
	16	53	7546.875	1.803053	-0.9362956	1	2.031662	-27.4421	-7.375955E-005	0.0003589	11
	17	55	5928.309	1.834815	-1.20076	1	2.1928	-33.20199	-6.748654E-005	0.0003616	11
	18	57	4733.456	1.872541	-1.500984	1	2.399868	-38.71482	-7.519691E-005	0.0003584	11
	19	59	3796.875	1.919997	-1.856631	1	2.670855	-44.03875	-1.737016E-005	0.0003894	11
	20	62	2987.132	1.984951	-2.333555	1	3.063578	-49.6151	-1.758503E-005	0.0004018	11
	21	64	2390.625	2.062411	-2.878253	1	3.540887	-54.37653	-6.195352E-005	0.0003771	11
	22	66	1884.191	2.171659	-3.596303	1	4.201131	-58.87396	-2.59467E-005	-0.0001139	10
	23	69	1516.544	2.298311	-4.397112	1	4.961535	-62.40453	2.061762E-005	-0.0001443	10
	24	71	1193.986	2.479393	-5.483848	1	6.018303	-65.67101	1.299163E-005	-0.0001481	10
	25	75	946.5144	2.706504	-6.792369	1	7.311733	-68.27457	2.139042E-005	-0.0001305	10
	26	77	751.7689	3.017878	-8.38403	1	8.910643	-70.20338	6.770314E-006	-0.0001449	10
	27	79	597.4265	3.42484	-10.34023	1	10.89266	-71.67436	-1.443404E-005	-0.0001307	10
	28	81	477.4305	3.958401	-12.67308	1	13.27689	-72.65395	-1.153618E-006	-0.0001152	10
	29	84	376.6741	4.720425	-15.68112	1	16.3762	-73.24683	-9.791522E-007	-0.0001201	10
	30	86	298.2954	5.7493	-19.3036	1	20.14159	-73.4146	-1.365407E-006	-0.0001145	10
	31	88	237.7717	7.114708	-23.56742	1	24.61793	-73.20159	-7.060577E-007	-0.0001143	10
	32	91	189.0121	9.005243	-28.75643	1	30.13348	-72.61175	-1.319794E-006	-0.0001166	10
	33	93	150.2404	11.59319	-34.93475	1	36.80814	-71.64143	-1.540921E-006	-0.0001149	10
	34	96	119.1737	15.15191	-42.23034	1	44.86626	-70.26241	7.449076E-007	-0.000128	9
	35	98	95.0169	19.88983	-50.52828	1	54.30204	-68.51354	9.907446E-007	-0.0001323	9
	36	101	75.60484	26.29663	-60.00779	1	65.51678	-66.33599	8.170685E-007	-0.0001313	9
	37	104	54.50582	39.1755	-75.10053	1	84.70425	-62.45162	1.860295E-006	-0.0001355	9
	38	107	45.95588	47.90881	-83.38491	1	96.1681	-60.12048	2.860559E-006	-0.000129	9
	39	109	37.20238	60.9457	-93.52304	1	111.6286	-56.90912	3.43187E-006	-0.0001272	9
	40	112	30.04808	76.51452	-103.0703	1	128.3665	-53.41156	4.909713E-006	-0.0001797	9
	41	115	23.91582	95.6812	-111.7981	1	147.1519	-49.4418	5.401136E-006	-0.0001366	9
	42	118	18.60119	119.2356	-118.9288	1	168.4078	-44.92621	6.155606E-006	-0.0001292	9
	43	120	15.02404	140.2874	-122.4587	1	186.2168	-41.11814	8.923285E-006	-0.0001196	9
	44	122	12.01923	162.2738	-123.7407	1	204.0699	-37.32707	8.442596E-006	-0.0001335	9
	45	125	9.450605	185.8634	-123.0101	1	222.8827	-33.49781	7.074836E-006	-0.000135	9
	46	128	7.512019	206.9084	-119.7479	1	239.062	-30.06004	8.609964E-006	-0.0001275	9
	47	131	5.978954	226.7455	-116.0033	1	254.6964	-27.09434	7.287979E-006	-0.000129	9
	48	135	4.734848	245.9037	-111.3611	1	269.9443	-24.36409	5.278034E-006	-0.0001454	9
	49	140	3.75601	262.7656	-106.6141	1	283.5706	-22.08429	5.541844E-006	-0.0001165	9
	50	145	3.004808	278.5306	-102.5983	1	296.826	-20.22155	4.722113E-006	-0.0001398	9
	51	152	2.372217	293.9877	-98.8782	1	310.1704	-18.58957	4.075644E-006	-0.000169	9
	52	159	1.878005	310.8384	-97.3203	1	325.7173	-17.3848	4.188631E-006	-0.0001349	9
	53	168	1.512097	323.7751	-95.284	1	337.5046	-16.39867	3.213473E-006	-0.0001164	9
	54	179	1.201923	338.5093	-94.57517	1	351.4727	-15.60968	2.288125E-006	-0.0001141	9
	55	192	0.956633	354.2549	-95.21	1	366.8262	-15.04341	-5.106303E-007	-0.0006772	9
