EXPLAIN
TAG	EISPOT
TITLE	LABEL	Potentiostatic EIS	Test Identifier
DATE	LABEL	10/12/2021	Date
TIME	LABEL	15:24:53	Time
NOTES	NOTES	1	Notes...
	
PSTAT	PSTAT	REF3000-16137	Potentiostat
VDC	POTEN	0.00000E+000	T	DC Voltage (V)
FREQINIT	QUANT	3.00000E+005	Initial Freq. (Hz)
FREQFINAL	QUANT	1.00000E+000	Final Freq. (Hz)
PTSPERDEC	QUANT	1.00000E+001	Points/decade
VAC	QUANT	5.00000E+001	AC Voltage (mV rms)
AREA	QUANT	1.00000E+000	Sample Area (cm^2)
SPEED	SELECTOR	2	Optimize for:
ZGUESS	QUANT	1.00000E+003	Estimated Z (ohms)
EOC	QUANT	0	Open Circuit (V)
SEQUENCER	TOGGLE	TRUE	Run as Sequence
PSTATMODEL	IQUANT	5	Pstat Model
PSTATSECTION	LABEL	REF3000-16137	Pstat Section
PSTATSERIALNO	LABEL	16137	Pstat Serial Number
CTRLMODE	IQUANT	1	Control Mode
IESTAB	IQUANT	0	I/E Stability
CASPEED	IQUANT	1	Control Amp Speed
CONVENTION	IQUANT	1	Current Convention
ICHRANGE	IQUANT	2	Ich Range
ICHRANGEMODE	TOGGLE	F	Ich Auto Range
ICHOFFSETENABLE	TOGGLE	T	Ich Offset Enable
ICHOFFSET	QUANT	0	Ich Offset (V)
ICHFILTER	IQUANT	3	Ich Filter
VCHRANGE	IQUANT	2	Vch Range
VCHRANGEMODE	TOGGLE	F	Vch Auto Range
VCHOFFSETENABLE	TOGGLE	T	Vch Offset Enable
VCHOFFSET	QUANT	0	Vch Offset (V)
VCHFILTER	IQUANT	3	Vch Filter
ACHRANGE	IQUANT	2	Ach Range
ACHOFFSETENABLE	TOGGLE	F	Ach Offset Enable
ACHOFFSET	QUANT	0	Ach Offset (V)
ACHFILTER	IQUANT	3	Ach Filter
IERANGELOWERLIMIT	IQUANT	2	I/E Range Lower Limit
IERANGEMODE	TOGGLE	F	I/E AutoRange
IERANGE	IQUANT	11	I/E Range
POSFEEDENABLE	TOGGLE	F	Positive Feedback IR Comp
POSFEEDRESISTANCE	QUANT	0	Positive Feedback Resistance (ohm)
ACHSELECT	IQUANT	0	Ach Select
CABLEID	IQUANT	13	Cable ID
DCCALDATE	LABEL	9/10/2021	DC Calibration Date
ACCALDATE	LABEL	9/10/2021	AC Calibration Date
THERMOSELECT	IQUANT	1	Thermo Select
FRAMEWORKVERSION	QUANT	6.33	Framework Version
INSTRUMENTVERSION	LABEL	3.50	Instrument Version
COMPLIANCEVOLTAGE	IQUANT	0	Compliance Voltage
ZCURVE	TABLE
	Pt	Time	Freq	Zreal	Zimag	Zsig	Zmod	Zphz	Idc	Vdc	IERange
	#	s	Hz	ohm	ohm	V	ohm	°	A	V	#
	0	10	300046.9	2.013794	2.384591	1	3.12116	49.81881	-0.0001615	-0.0005985	11
	1	13	238359.4	1.970021	1.88118	1	2.723935	43.67851	3.324762E-005	-0.0006271	11
	2	16	189328.1	2.031765	1.34771	1	2.438112	33.5571	-5.263219E-005	-0.0006715	12
	3	20	150421.9	1.976977	1.060073	1	2.243254	28.20061	-2.886238E-005	-0.0004392	12
	4	24	119484.4	1.914483	0.9000094	1	2.115482	25.17848	2.090758E-005	3.71093E-005	11
	5	26	94921.88	1.907449	0.678041	1	2.024377	19.56877	-1.785015E-005	0.0001534	11
	6	29	75421.88	1.904496	0.4975033	1	1.968404	14.63998	-6.08075E-005	0.000177	11
	7	31	59859.37	1.904163	0.3407322	1	1.934408	10.14517	-9.184013E-005	0.0002192	11
	8	34	47578.12	1.906644	0.2042238	1	1.91755	6.113737	-5.166367E-005	0.0002843	11
	9	36	37828.12	1.911125	0.0797357	1	1.912787	2.3891	-7.012705E-005	0.0003121	11
	10	39	30046.88	1.915632	-0.0401518	1	1.916053	-1.20075	-5.562056E-005	0.0003028	11
	11	41	23859.38	1.923631	-0.159946	1	1.930269	-4.753096	-2.049829E-005	0.0003641	11
	12	44	18984.38	1.932606	-0.284892	1	1.953492	-8.385769	-2.280284E-005	0.0003551	11
	13	46	15046.87	1.945559	-0.4244169	1	1.991313	-12.30609	-3.780944E-005	0.0003822	11
	14	48	11953.13	1.960011	-0.5818436	1	2.04455	-16.53391	-8.703954E-005	0.0003536	11
	15	51	9515.62	1.978751	-0.7634057	1	2.120907	-21.0967	-9.382825E-005	0.0003395	11
	16	53	7546.875	2.002927	-0.982966	1	2.23113	-26.14017	-9.021131E-005	0.0003442	11
	17	55	5928.309	2.035137	-1.25963	1	2.393418	-31.75507	-4.973806E-005	0.0003644	11
	18	57	4733.456	2.072968	-1.574442	1	2.603087	-37.21707	-1.807628E-005	0.0003822	11
	19	60	3796.875	2.120478	-1.947742	1	2.879258	-42.56869	-5.277589E-005	0.0003758	11
	20	62	2987.132	2.183581	-2.448252	1	3.280543	-48.27043	-4.311204E-005	0.0003841	11
	21	64	2390.625	2.257435	-3.018871	1	3.769562	-53.2118	-6.981375E-005	0.0003347	11
	22	67	1884.191	2.363147	-3.775143	1	4.453782	-57.95444	2.263303E-005	-0.0001382	10
	23	69	1516.544	2.480173	-4.621315	1	5.244789	-61.77839	-2.316E-005	-0.0001143	10
	24	71	1193.986	2.648468	-5.765738	1	6.344929	-65.32851	2.273304E-005	-0.0001394	10
	25	74	946.5144	2.856433	-7.151918	1	7.701243	-68.22853	1.029595E-006	-0.000119	10
	26	76	751.7689	3.127345	-8.841006	1	9.377829	-70.51969	-1.96659E-005	-0.0001163	10
	27	79	597.4265	3.478516	-10.91847	1	11.45919	-72.32864	-2.248573E-005	-0.0001159	10
	28	81	477.4305	3.941564	-13.42046	1	13.9873	-73.63258	-7.204893E-007	-0.0001116	10
	29	83	376.6741	4.581195	-16.6589	1	17.27733	-74.62375	2.557888E-006	-0.0001603	10
	30	85	298.2954	5.428436	-20.59433	1	21.29776	-75.23335	-7.00536E-007	-0.0001149	10
	31	88	237.7717	6.537698	-25.27572	1	26.10754	-75.49798	-1.70989E-006	-0.0001105	10
	32	90	189.0121	8.058465	-31.05463	1	32.08316	-75.45299	-1.131909E-006	-0.0001115	10
	33	93	150.2404	10.12294	-38.07101	1	39.39386	-75.1098	-1.174611E-006	-0.0001154	10
	34	95	119.1737	12.96078	-46.57964	1	48.34919	-74.45078	-1.801581E-008	-0.0001257	9
	35	97	95.0169	16.76376	-56.60698	1	59.03706	-73.50372	-1.905082E-008	-0.0001306	9
	36	100	75.60484	21.99232	-68.60624	1	72.04498	-72.2263	4.778846E-008	-0.0001332	9
	37	102	54.50582	32.93026	-89.39916	1	95.2713	-69.77868	4.038068E-007	-0.0001351	9
	38	106	45.95588	40.81629	-101.9849	1	109.8494	-68.18777	1.397347E-006	-0.0001311	9
	39	108	37.20238	53.27769	-119.1308	1	130.5016	-65.90485	1.236766E-006	-0.0001242	9
	40	111	30.04808	69.47604	-137.8174	1	154.3391	-63.24656	1.48867E-006	-0.00012	9
	41	114	23.91582	91.40499	-158.3943	1	182.8759	-60.01193	2.042713E-006	-0.0001304	9
	42	117	18.60119	121.6441	-180.5627	1	217.7158	-56.03205	2.77945E-006	-0.0001244	9
	43	119	15.02404	152.4326	-197.6261	1	249.5832	-52.35634	4.256477E-006	-0.0001132	9
	44	121	12.01923	188.6806	-212.5701	1	284.2295	-48.40724	4.196779E-006	-0.0001267	9
	45	124	9.450605	231.541	-224.1114	1	322.2378	-44.06585	4.261935E-006	-0.0001259	9
	46	127	7.512019	274.1362	-230.0121	1	357.8494	-39.99809	4.811418E-006	-0.0001465	9
	47	130	5.978954	315.4266	-230.1108	1	390.442	-36.1116	5.126619E-006	-0.0001208	8
	48	134	4.734848	358.1866	-227.7241	1	424.4478	-32.44696	4.476763E-006	-0.0001506	8
	49	139	3.75601	398.5101	-221.5346	1	455.9472	-29.07	4.303483E-006	-0.0001251	8
	50	144	3.004808	434.7035	-213.6322	1	484.3613	-26.1715	4.59882E-006	-0.0001588	8
	51	151	2.372217	471.3743	-204.2036	1	513.705	-23.4227	3.604164E-006	-0.0001731	8
	52	158	1.878005	506.7392	-197.2324	1	543.7694	-21.26692	3.775405E-006	-0.0001117	8
	53	167	1.512097	535.0798	-187.8748	1	567.1044	-19.34696	3.287544E-006	-0.000226	8
	54	178	1.201923	565.3	-180.4468	1	593.4013	-17.70336	2.614792E-006	-0.0000954	8
	55	191	0.956633	595.0651	-175.2377	1	620.3312	-16.40891	1.703646E-006	-0.0006631	8
