EXPLAIN
TAG	EISPOT
TITLE	LABEL	Potentiostatic EIS	Test Identifier
DATE	LABEL	10/12/2021	Date
TIME	LABEL	15:31:35	Time
NOTES	NOTES	1	Notes...
	
PSTAT	PSTAT	REF3000-16137	Potentiostat
VDC	POTEN	0.00000E+000	T	DC Voltage (V)
FREQINIT	QUANT	3.00000E+005	Initial Freq. (Hz)
FREQFINAL	QUANT	1.00000E+000	Final Freq. (Hz)
PTSPERDEC	QUANT	1.00000E+001	Points/decade
VAC	QUANT	5.00000E+001	AC Voltage (mV rms)
AREA	QUANT	1.00000E+000	Sample Area (cm^2)
SPEED	SELECTOR	2	Optimize for:
ZGUESS	QUANT	1.00000E+003	Estimated Z (ohms)
EOC	QUANT	0	Open Circuit (V)
SEQUENCER	TOGGLE	TRUE	Run as Sequence
PSTATMODEL	IQUANT	5	Pstat Model
PSTATSECTION	LABEL	REF3000-16137	Pstat Section
PSTATSERIALNO	LABEL	16137	Pstat Serial Number
CTRLMODE	IQUANT	1	Control Mode
IESTAB	IQUANT	0	I/E Stability
CASPEED	IQUANT	1	Control Amp Speed
CONVENTION	IQUANT	1	Current Convention
ICHRANGE	IQUANT	2	Ich Range
ICHRANGEMODE	TOGGLE	F	Ich Auto Range
ICHOFFSETENABLE	TOGGLE	T	Ich Offset Enable
ICHOFFSET	QUANT	0	Ich Offset (V)
ICHFILTER	IQUANT	3	Ich Filter
VCHRANGE	IQUANT	2	Vch Range
VCHRANGEMODE	TOGGLE	F	Vch Auto Range
VCHOFFSETENABLE	TOGGLE	T	Vch Offset Enable
VCHOFFSET	QUANT	0	Vch Offset (V)
VCHFILTER	IQUANT	3	Vch Filter
ACHRANGE	IQUANT	2	Ach Range
ACHOFFSETENABLE	TOGGLE	F	Ach Offset Enable
ACHOFFSET	QUANT	0	Ach Offset (V)
ACHFILTER	IQUANT	3	Ach Filter
IERANGELOWERLIMIT	IQUANT	2	I/E Range Lower Limit
IERANGEMODE	TOGGLE	F	I/E AutoRange
IERANGE	IQUANT	11	I/E Range
POSFEEDENABLE	TOGGLE	F	Positive Feedback IR Comp
POSFEEDRESISTANCE	QUANT	0	Positive Feedback Resistance (ohm)
ACHSELECT	IQUANT	0	Ach Select
CABLEID	IQUANT	13	Cable ID
DCCALDATE	LABEL	9/10/2021	DC Calibration Date
ACCALDATE	LABEL	9/10/2021	AC Calibration Date
THERMOSELECT	IQUANT	1	Thermo Select
FRAMEWORKVERSION	QUANT	6.33	Framework Version
INSTRUMENTVERSION	LABEL	3.50	Instrument Version
COMPLIANCEVOLTAGE	IQUANT	0	Compliance Voltage
ZCURVE	TABLE
	Pt	Time	Freq	Zreal	Zimag	Zsig	Zmod	Zphz	Idc	Vdc	IERange
	#	s	Hz	ohm	ohm	V	ohm	°	A	V	#
	0	10	300046.9	2.20807	2.361957	1	3.233329	46.92861	3.899744E-005	-0.0004955	11
	1	14	238359.4	2.162973	1.884244	1	2.868594	41.0603	-0.0000966	-0.0005547	11
	2	17	189328.1	2.219187	1.333014	1	2.588767	30.99225	-6.643541E-005	-0.0007026	12
	3	20	150421.9	2.172586	1.044114	1	2.410457	25.66829	-0.0000989	-0.0004558	12
	4	24	119484.4	2.135666	0.8053267	1	2.28246	20.66068	-9.008984E-005	-0.0003936	12
	5	28	94921.88	2.096631	0.6747178	1	2.202522	17.83872	-8.533287E-005	0.000152	11
	6	30	75421.88	2.09633	0.4916234	1	2.153205	13.19828	-5.228098E-005	0.0001961	11
	7	33	59859.37	2.096333	0.3345496	1	2.12286	9.06726	-2.138494E-005	0.0002671	11
	8	35	47578.12	2.099259	0.1969425	1	2.108477	5.35953	-5.455807E-005	0.0002892	11
	9	38	37828.12	2.103654	0.0712593	1	2.10486	1.940099	-6.41433E-005	0.0003117	11
	10	40	30046.88	2.109008	-0.050254	1	2.109607	-1.365002	-7.519005E-006	0.0003592	11
	11	43	23859.38	2.117109	-0.172159	1	2.124097	-4.648946	-8.550081E-005	0.0003193	11
	12	45	18984.38	2.127337	-0.2999406	1	2.148378	-8.025429	-2.475575E-005	0.0003819	11
	13	47	15046.87	2.140178	-0.4429062	1	2.185527	-11.69221	-1.39286E-005	0.0003762	11
	14	50	11953.13	2.155037	-0.6039289	1	2.238061	-15.65503	-1.941245E-005	0.0003714	11
	15	52	9515.62	2.174612	-0.7914276	1	2.314151	-19.99846	-2.831013E-005	0.0003052	11
	16	54	7546.875	2.199325	-1.017705	1	2.423376	-24.83163	-8.487583E-005	0.0003456	11
	17	57	5928.309	2.232582	-1.30352	1	2.585263	-30.27905	-4.893389E-005	0.0003766	11
	18	59	4733.456	2.270691	-1.628701	1	2.794406	-35.65078	-5.162836E-005	0.0003746	11
	19	61	3796.875	2.316728	-2.015081	1	3.070469	-41.01662	-6.772628E-005	0.0003363	11
	20	64	2987.132	2.381348	-2.532964	1	3.476596	-46.76712	-6.379559E-005	0.0003184	11
	21	66	2390.625	2.454265	-3.125049	1	3.973581	-51.8556	-8.826845E-005	0.0003387	11
	22	68	1884.191	2.559824	-3.906854	1	4.670783	-56.76664	2.385091E-005	-0.0001461	10
	23	70	1516.544	2.675659	-4.782876	1	5.480425	-60.77628	2.496746E-005	-0.0001438	10
	24	73	1193.986	2.839146	-5.971248	1	6.611849	-64.57034	8.812705E-006	-0.0001522	10
	25	75	946.5144	3.049605	-7.40209	1	8.005687	-67.60871	1.742899E-005	-0.0001524	10
	26	78	751.7689	3.299141	-9.16391	1	9.73969	-70.20039	2.409447E-005	-0.0001389	10
	27	80	597.4265	3.629258	-11.33026	1	11.89732	-72.23893	-1.991405E-005	-0.0001187	10
	28	82	477.4305	4.053508	-13.93299	1	14.51066	-73.77877	-4.171241E-008	-0.0001163	10
	29	84	376.6741	4.63749	-17.31839	1	17.92855	-75.00913	1.058207E-007	-0.0001155	10
	30	87	298.2954	5.400661	-21.44317	1	22.11282	-75.86354	3.69688E-007	-0.0001121	10
	31	89	237.7717	6.384406	-26.36989	1	27.13174	-76.39003	7.246185E-007	-0.0001165	10
	32	92	189.0121	7.718315	-32.48453	1	33.38887	-76.63437	-1.320876E-007	-0.0001133	10
	33	94	150.2404	9.50767	-39.95861	1	41.07416	-76.61603	-6.439818E-007	-0.0001147	10
	34	96	119.1737	11.94825	-49.10335	1	50.53613	-76.32407	3.767765E-007	-0.0001324	9
	35	99	95.0169	15.19036	-60.00808	1	61.90086	-75.79463	4.92511E-007	-0.0001414	9
	36	101	75.60484	19.63774	-73.28017	1	75.86583	-74.99826	3.034717E-007	-0.0001332	9
	37	104	54.50582	28.95679	-96.931	1	101.1638	-73.36721	6.828832E-007	-0.0001346	9
	38	106	45.95588	35.74524	-111.7232	1	117.3021	-72.2582	9.282444E-007	-0.0001231	9
	39	109	37.20238	46.60583	-132.7023	1	140.6485	-70.64843	1.166947E-006	-0.0001318	9
	40	111	30.04808	61.01268	-156.6514	1	168.1137	-68.72005	1.121479E-006	-0.0001269	9
	41	114	23.91582	81.52518	-185.2975	1	202.4389	-66.25198	1.490882E-006	-0.0001328	9
	42	117	18.60119	112.027	-219.7205	1	246.6316	-62.98471	1.93017E-006	-0.0001248	9
	43	119	15.02404	144.9528	-250.2494	1	289.199	-59.91915	2.25973E-006	-0.0001374	9
	44	122	12.01923	187.2564	-281.1591	1	337.8097	-56.33575	2.507052E-006	-0.0001317	9
	45	124	9.450605	241.2692	-311.488	1	393.9995	-52.23972	2.957647E-006	-0.0001209	9
	46	127	7.512019	299.3451	-333.4968	1	448.1379	-48.08901	4.024196E-006	-0.0001438	8
	47	130	5.978954	362.9042	-350.3661	1	504.4362	-43.99294	4.245069E-006	-0.0001264	8
	48	135	4.734848	431.4001	-360.4041	1	562.1362	-39.87635	4.031974E-006	-0.0001464	8
	49	139	3.75601	500.137	-362.9456	1	617.9536	-35.96811	3.850144E-006	-0.0001706	8
	50	145	3.004808	564.8018	-358.9261	1	669.2003	-32.43557	4.079654E-006	-0.0001428	8
	51	151	2.372217	631.4104	-349.4739	1	721.6724	-28.96371	3.676391E-006	-0.0001443	8
	52	159	1.878005	696.2838	-340.3869	1	775.0319	-26.05227	3.602141E-006	-0.0001219	8
	53	168	1.512097	750.4717	-325.1468	1	817.8804	-23.42499	3.312102E-006	-0.0002141	8
	54	179	1.201923	805.6473	-309.5305	1	863.0624	-21.01682	2.911089E-006	-0.0001223	8
	55	191	0.956633	857.5447	-295.8158	1	907.1328	-19.03222	2.442132E-006	-0.0006632	8
