EXPLAIN
TAG	EISPOT
TITLE	LABEL	Potentiostatic EIS	Test Identifier
DATE	LABEL	10/12/2021	Date
TIME	LABEL	14:57:53	Time
NOTES	NOTES	1	Notes...
	
PSTAT	PSTAT	REF3000-16137	Potentiostat
VDC	POTEN	0.00000E+000	T	DC Voltage (V)
FREQINIT	QUANT	3.00000E+005	Initial Freq. (Hz)
FREQFINAL	QUANT	1.00000E+000	Final Freq. (Hz)
PTSPERDEC	QUANT	1.00000E+001	Points/decade
VAC	QUANT	5.00000E+001	AC Voltage (mV rms)
AREA	QUANT	1.00000E+000	Sample Area (cm^2)
SPEED	SELECTOR	2	Optimize for:
ZGUESS	QUANT	1.00000E+003	Estimated Z (ohms)
EOC	QUANT	0	Open Circuit (V)
SEQUENCER	TOGGLE	TRUE	Run as Sequence
PSTATMODEL	IQUANT	5	Pstat Model
PSTATSECTION	LABEL	REF3000-16137	Pstat Section
PSTATSERIALNO	LABEL	16137	Pstat Serial Number
CTRLMODE	IQUANT	1	Control Mode
IESTAB	IQUANT	0	I/E Stability
CASPEED	IQUANT	1	Control Amp Speed
CONVENTION	IQUANT	1	Current Convention
ICHRANGE	IQUANT	2	Ich Range
ICHRANGEMODE	TOGGLE	F	Ich Auto Range
ICHOFFSETENABLE	TOGGLE	T	Ich Offset Enable
ICHOFFSET	QUANT	0	Ich Offset (V)
ICHFILTER	IQUANT	3	Ich Filter
VCHRANGE	IQUANT	2	Vch Range
VCHRANGEMODE	TOGGLE	F	Vch Auto Range
VCHOFFSETENABLE	TOGGLE	T	Vch Offset Enable
VCHOFFSET	QUANT	0	Vch Offset (V)
VCHFILTER	IQUANT	3	Vch Filter
ACHRANGE	IQUANT	2	Ach Range
ACHOFFSETENABLE	TOGGLE	F	Ach Offset Enable
ACHOFFSET	QUANT	0	Ach Offset (V)
ACHFILTER	IQUANT	3	Ach Filter
IERANGELOWERLIMIT	IQUANT	2	I/E Range Lower Limit
IERANGEMODE	TOGGLE	F	I/E AutoRange
IERANGE	IQUANT	11	I/E Range
POSFEEDENABLE	TOGGLE	F	Positive Feedback IR Comp
POSFEEDRESISTANCE	QUANT	0	Positive Feedback Resistance (ohm)
ACHSELECT	IQUANT	0	Ach Select
CABLEID	IQUANT	13	Cable ID
DCCALDATE	LABEL	9/10/2021	DC Calibration Date
ACCALDATE	LABEL	9/10/2021	AC Calibration Date
THERMOSELECT	IQUANT	1	Thermo Select
FRAMEWORKVERSION	QUANT	6.33	Framework Version
INSTRUMENTVERSION	LABEL	3.50	Instrument Version
COMPLIANCEVOLTAGE	IQUANT	0	Compliance Voltage
ZCURVE	TABLE
	Pt	Time	Freq	Zreal	Zimag	Zsig	Zmod	Zphz	Idc	Vdc	IERange
	#	s	Hz	ohm	ohm	V	ohm	°	A	V	#
	0	10	300046.9	1.658306	2.398225	1	2.915727	55.3372	-0.0001475	-0.0006701	11
	1	13	238359.4	1.760879	1.752115	1	2.484069	44.85706	-0.0001108	-0.0011233	12
	2	18	189328.1	1.677188	1.391586	1	2.179328	39.68297	-0.0001235	-0.0008096	12
	3	21	150421.9	1.561118	1.177901	1	1.955643	37.03545	3.057153E-005	-0.0001591	11
	4	24	119484.4	1.548806	0.9117662	1	1.797253	30.48488	-5.66065E-005	-0.0000965	11
	5	26	94921.88	1.543405	0.696072	1	1.693108	24.27526	-1.083887E-005	0.0001025	11
	6	29	75421.88	1.539645	0.5143324	1	1.623282	18.47236	-1.63738E-005	0.0001318	11
	7	31	59859.37	1.538288	0.3613513	1	1.58016	13.21938	-5.749489E-006	0.0001578	11
	8	34	47578.12	1.537759	0.2279718	1	1.554565	8.432644	-8.290735E-005	0.0002072	11
	9	37	37828.12	1.540798	0.108272	1	1.544597	4.019572	-2.199825E-005	0.000292	11
	10	39	30046.88	1.544348	-0.0052324	1	1.544357	-0.1941228	-8.878174E-006	0.0003256	11
	11	42	23859.38	1.550174	-0.1172986	1	1.554605	-4.327211	-1.218656E-005	0.0003338	11
	12	44	18984.38	1.55835	-0.2324242	1	1.575587	-8.482998	-1.303024E-005	0.0003479	11
	13	46	15046.87	1.569713	-0.3593871	1	1.610329	-12.89566	-6.051848E-005	0.0003611	11
	14	49	11953.13	1.584372	-0.5005378	1	1.661557	-17.53247	-3.912176E-005	0.0003783	11
	15	51	9515.62	1.602843	-0.6623228	1	1.734294	-22.45127	-2.30918E-005	0.0003811	11
	16	53	7546.875	1.627149	-0.8569025	1	1.838993	-27.77256	-1.485824E-005	0.0003834	11
	17	55	5928.309	1.660292	-1.100119	1	1.991691	-33.52868	-7.159566E-005	0.0003565	11
	18	58	4733.456	1.700972	-1.374758	1	2.187068	-38.94581	-2.009991E-005	0.0003866	11
	19	60	3796.875	1.751839	-1.699747	1	2.440917	-44.13534	-3.775465E-005	0.0003357	11
	20	62	2987.132	1.826589	-2.133219	1	2.808389	-49.42788	-3.032622E-005	0.0003757	11
	21	65	2390.625	1.915377	-2.626332	1	3.250583	-53.89682	-6.257896E-006	0.0004002	11
	22	67	1884.191	2.044649	-3.268744	1	3.855551	-57.9734	-5.854746E-005	0.0003227	11
	23	69	1516.544	2.202513	-3.987726	1	4.555549	-61.08712	3.120105E-005	-0.0001402	10
	24	72	1193.986	2.431487	-4.951463	1	5.516259	-63.84599	1.569282E-005	-0.0001477	10
	25	74	946.5144	2.731252	-6.099099	1	6.68272	-65.87657	-1.065776E-005	-0.0001396	10
	26	77	751.7689	3.145177	-7.479831	1	8.114185	-67.19385	1.491548E-005	-0.0001526	10
	27	79	597.4265	3.700771	-9.143869	1	9.86438	-67.96549	1.66978E-005	-0.0001504	10
	28	81	477.4305	4.445541	-11.09647	1	11.95385	-68.16764	6.18866E-006	-0.000121	10
	29	83	376.6741	5.519383	-13.53898	1	14.62079	-67.82095	6.311915E-006	-0.0001169	10
	30	86	298.2954	6.976677	-16.3679	1	17.79275	-66.91428	7.396036E-006	-0.0001195	10
	31	88	237.7717	8.895669	-19.53121	1	21.46162	-65.51267	6.731396E-006	-0.0001202	10
	32	91	189.0121	11.49378	-23.11921	1	25.81869	-63.56561	8.854126E-006	-0.0001167	10
	33	93	150.2404	14.9117	-27.00378	1	30.84742	-61.09217	8.122181E-006	-0.0001236	10
	34	96	119.1737	19.33078	-31.05911	1	36.58343	-58.10241	8.657563E-006	-0.0001177	10
	35	99	95.0169	24.6458	-34.88589	1	42.71347	-54.75997	1.06645E-005	-0.0001341	9
	36	101	75.60484	31.03498	-38.39579	1	49.3701	-51.05169	1.177747E-005	-0.0001356	9
	37	104	54.50582	41.62591	-42.22044	1	59.28981	-45.40627	1.359157E-005	-0.0001783	9
	38	107	45.95588	47.61855	-43.55837	1	64.53571	-42.45026	1.479765E-005	-0.0001337	9
	39	110	37.20238	55.15464	-44.40881	1	70.81085	-38.83994	1.680324E-005	-0.0001426	9
	40	113	30.04808	62.76058	-44.52745	1	76.95183	-35.35498	1.476707E-005	-0.0001362	9
	41	116	23.91582	70.66565	-43.81411	1	83.14632	-31.79974	1.653291E-005	-0.0001395	9
	42	118	18.60119	78.62359	-42.50118	1	89.37572	-28.39412	2.383674E-005	-0.0001381	9
	43	121	15.02404	84.99557	-41.01712	1	94.37506	-25.761	2.367373E-005	-0.0001304	9
	44	123	12.01923	90.98462	-39.43755	1	99.1641	-23.43446	1.790902E-005	-0.0001408	9
	45	126	9.450605	97.0948	-37.87197	1	104.2194	-21.30834	1.400813E-005	-0.0001799	9
	46	129	7.512019	102.4782	-36.56452	1	108.806	-19.63655	1.349746E-005	-0.0001623	9
	47	132	5.978954	107.515	-35.5682	1	113.2457	-18.30529	1.195345E-005	-0.0001373	9
	48	136	4.734848	112.6727	-35.02829	1	117.9921	-17.2697	1.138287E-005	-0.0001357	9
	49	141	3.75601	117.7688	-34.90502	1	122.8326	-16.50908	6.213066E-006	-0.0001552	9
	50	146	3.004808	122.7631	-35.16404	1	127.7	-15.98373	6.461962E-006	-0.0001421	9
	51	153	2.372217	128.3857	-35.90995	1	133.3132	-15.6265	5.436184E-006	-0.0001135	9
	52	160	1.878005	135.2403	-37.51999	1	140.3485	-15.50572	4.19446E-006	-0.0001476	9
	53	169	1.512097	141.0769	-39.02169	1	146.3741	-15.46138	4.041854E-006	-0.0002181	9
	54	180	1.201923	148.0842	-41.28176	1	153.7307	-15.57699	2.904947E-006	-0.0001346	9
	55	193	0.956633	155.6063	-43.96677	1	161.6985	-15.77771	4.803163E-007	-0.0006807	9
