EXPLAIN
TAG	EISPOT
TITLE	LABEL	Potentiostatic EIS	Test Identifier
DATE	LABEL	10/12/2021	Date
TIME	LABEL	15:18:10	Time
NOTES	NOTES	1	Notes...
	
PSTAT	PSTAT	REF3000-16137	Potentiostat
VDC	POTEN	0.00000E+000	T	DC Voltage (V)
FREQINIT	QUANT	3.00000E+005	Initial Freq. (Hz)
FREQFINAL	QUANT	1.00000E+000	Final Freq. (Hz)
PTSPERDEC	QUANT	1.00000E+001	Points/decade
VAC	QUANT	5.00000E+001	AC Voltage (mV rms)
AREA	QUANT	1.00000E+000	Sample Area (cm^2)
SPEED	SELECTOR	2	Optimize for:
ZGUESS	QUANT	1.00000E+003	Estimated Z (ohms)
EOC	QUANT	0	Open Circuit (V)
SEQUENCER	TOGGLE	TRUE	Run as Sequence
PSTATMODEL	IQUANT	5	Pstat Model
PSTATSECTION	LABEL	REF3000-16137	Pstat Section
PSTATSERIALNO	LABEL	16137	Pstat Serial Number
CTRLMODE	IQUANT	1	Control Mode
IESTAB	IQUANT	0	I/E Stability
CASPEED	IQUANT	1	Control Amp Speed
CONVENTION	IQUANT	1	Current Convention
ICHRANGE	IQUANT	2	Ich Range
ICHRANGEMODE	TOGGLE	F	Ich Auto Range
ICHOFFSETENABLE	TOGGLE	T	Ich Offset Enable
ICHOFFSET	QUANT	0	Ich Offset (V)
ICHFILTER	IQUANT	3	Ich Filter
VCHRANGE	IQUANT	2	Vch Range
VCHRANGEMODE	TOGGLE	F	Vch Auto Range
VCHOFFSETENABLE	TOGGLE	T	Vch Offset Enable
VCHOFFSET	QUANT	0	Vch Offset (V)
VCHFILTER	IQUANT	3	Vch Filter
ACHRANGE	IQUANT	2	Ach Range
ACHOFFSETENABLE	TOGGLE	F	Ach Offset Enable
ACHOFFSET	QUANT	0	Ach Offset (V)
ACHFILTER	IQUANT	3	Ach Filter
IERANGELOWERLIMIT	IQUANT	2	I/E Range Lower Limit
IERANGEMODE	TOGGLE	F	I/E AutoRange
IERANGE	IQUANT	11	I/E Range
POSFEEDENABLE	TOGGLE	F	Positive Feedback IR Comp
POSFEEDRESISTANCE	QUANT	0	Positive Feedback Resistance (ohm)
ACHSELECT	IQUANT	0	Ach Select
CABLEID	IQUANT	13	Cable ID
DCCALDATE	LABEL	9/10/2021	DC Calibration Date
ACCALDATE	LABEL	9/10/2021	AC Calibration Date
THERMOSELECT	IQUANT	1	Thermo Select
FRAMEWORKVERSION	QUANT	6.33	Framework Version
INSTRUMENTVERSION	LABEL	3.50	Instrument Version
COMPLIANCEVOLTAGE	IQUANT	0	Compliance Voltage
ZCURVE	TABLE
	Pt	Time	Freq	Zreal	Zimag	Zsig	Zmod	Zphz	Idc	Vdc	IERange
	#	s	Hz	ohm	ohm	V	ohm	°	A	V	#
	0	11	300046.9	1.893758	2.381752	1	3.042871	51.51139	-4.002033E-005	-0.0005951	11
	1	14	238359.4	1.843785	1.897256	1	2.645585	45.81887	-9.190885E-005	-0.0005862	11
	2	17	189328.1	1.890165	1.366235	1	2.332235	35.85987	-0.0001402	-0.0009071	12
	3	21	150421.9	1.794081	1.169803	1	2.141767	33.10575	-2.839414E-005	1.582126E-006	11
	4	23	119484.4	1.776551	0.9041898	1	1.993413	26.97417	-5.593139E-005	-7.623696E-006	11
	5	26	94921.88	1.76978	0.6849339	1	1.897697	21.15726	-7.057229E-005	0.0001115	11
	6	28	75421.88	1.765833	0.5023558	1	1.835899	15.88034	-4.223081E-005	0.0001699	11
	7	31	59859.37	1.765789	0.3464718	1	1.79946	11.10118	-4.45277E-005	0.0002248	11
	8	33	47578.12	1.767444	0.210383	1	1.779921	6.788111	-4.085615E-005	0.0002727	11
	9	36	37828.12	1.771091	0.0873713	1	1.773245	2.82422	-7.37362E-005	0.0002997	11
	10	38	30046.88	1.77534	-0.0311025	1	1.775613	-1.003673	-1.847109E-005	0.0003328	11
	11	41	23859.38	1.782803	-0.1489752	1	1.789017	-4.776673	-2.673997E-005	0.00038	11
	12	43	18984.38	1.791796	-0.2715191	1	1.812251	-8.616737	-3.698904E-005	0.0003753	11
	13	45	15046.87	1.804012	-0.407869	1	1.849545	-12.73981	-7.493901E-005	0.0003623	11
	14	48	11953.13	1.818085	-0.5611503	1	1.902714	-17.1528	-4.412912E-005	0.0003065	11
	15	50	9515.62	1.836643	-0.7375432	1	1.979199	-21.87898	-3.725473E-005	0.0003499	11
	16	52	7546.875	1.860598	-0.950873	1	2.089494	-27.06966	-9.332052E-005	0.0003426	11
	17	55	5928.309	1.892659	-1.219613	1	2.251581	-32.79737	-8.238393E-005	0.000354	11
	18	57	4733.456	1.930148	-1.524325	1	2.459479	-38.29974	-7.42595E-005	0.0003538	11
	19	59	3796.875	1.976406	-1.886248	1	2.732053	-43.6629	-6.885503E-005	0.0003399	11
	20	62	2987.132	2.041579	-2.370135	1	3.128191	-49.25916	-2.19363E-005	0.0003998	11
	21	64	2390.625	2.119376	-2.920753	1	3.608677	-54.03437	-1.536976E-005	0.000391	11
	22	66	1884.191	2.225789	-3.652985	1	4.277667	-58.64576	-5.088941E-007	-0.0001417	10
	23	69	1516.544	2.34762	-4.469964	1	5.04895	-62.2916	-1.89557E-005	-0.000116	10
	24	71	1193.986	2.524293	-5.575123	1	6.119972	-65.64003	1.456354E-005	-0.0001475	10
	25	73	946.5144	2.754148	-6.90071	1	7.430015	-68.24252	2.189114E-005	-0.0001469	10
	26	76	751.7689	3.03849	-8.533416	1	9.058234	-70.40073	-2.416293E-005	-0.0001245	10
	27	78	597.4265	3.426489	-10.52662	1	11.07025	-71.96956	-1.222406E-005	-0.0001715	10
	28	80	477.4305	3.934705	-12.91945	1	13.50534	-73.06154	-8.932254E-007	-0.0001185	10
	29	83	376.6741	4.652839	-16.00695	1	16.66948	-73.79211	-1.056416E-006	-0.0001178	10
	30	85	298.2954	5.617269	-19.73666	1	20.52046	-74.11307	3.072595E-006	-0.0001601	10
	31	87	237.7717	6.892005	-24.14686	1	25.11117	-74.07018	2.488427E-006	-0.0001585	10
	32	90	189.0121	8.655284	-29.54346	1	30.78523	-73.67111	-1.694467E-006	-0.0001131	10
	33	92	150.2404	11.06828	-36.02153	1	37.68365	-72.91946	-9.633025E-007	-0.000162	10
	34	95	119.1737	14.38778	-43.75172	1	46.05671	-71.79652	4.440527E-007	-0.0001306	9
	35	97	95.0169	18.83144	-52.6763	1	55.94118	-70.32836	3.600496E-007	-0.0001311	9
	36	99	75.60484	24.89088	-63.06241	1	67.79693	-68.46073	4.883013E-007	-0.0001344	9
	37	102	54.50582	37.30903	-80.18598	1	88.44069	-65.04832	1.106453E-006	-0.0001341	9
	38	106	45.95588	45.94123	-89.94189	1	100.9957	-62.9426	2.428405E-006	-0.0001285	9
	39	108	37.20238	59.06989	-102.3963	1	118.2128	-60.02043	2.847771E-006	-0.0001304	9
	40	111	30.04808	75.3741	-114.8532	1	137.3773	-56.72453	2.78E-006	-0.000128	9
	41	114	23.91582	95.9961	-127.1455	1	159.3149	-52.94683	3.855168E-006	-0.0001333	9
	42	117	18.60119	122.3675	-138.1725	1	184.5683	-48.47145	6.674313E-006	-0.0001342	9
	43	119	15.02404	147.0351	-145.0703	1	206.5544	-44.61461	7.19784E-006	-0.0001159	9
	44	121	12.01923	173.696	-149.4213	1	229.1222	-40.70364	6.761091E-006	-0.0001382	9
	45	124	9.450605	203.0697	-150.7833	1	252.9287	-36.59461	6.584771E-006	-0.0001414	9
	46	127	7.512019	229.9867	-148.904	1	273.9823	-32.92088	7.613728E-006	-0.0001313	9
	47	130	5.978954	255.7609	-145.5889	1	294.2954	-29.65019	6.517277E-006	-0.0001352	9
	48	134	4.734848	280.8451	-140.4612	1	314.0116	-26.57136	4.97637E-006	-0.000152	9
	49	139	3.75601	303.2583	-134.5584	1	331.7704	-23.92729	4.940492E-006	-0.0001213	9
	50	144	3.004808	323.5912	-129.1081	1	348.3965	-21.75127	4.793858E-006	-0.0001635	9
	51	151	2.372217	344.2613	-123.6551	1	365.7956	-19.75776	3.392323E-006	-0.0001981	9
	52	158	1.878005	363.4984	-120.0121	1	382.7976	-18.27109	3.513483E-006	-0.0001115	8
	53	167	1.512097	380.3856	-116.4247	1	397.8039	-17.0178	2.832838E-006	-0.0002283	8
	54	178	1.201923	398.8214	-114.3749	1	414.8978	-16.00195	1.939556E-006	-0.0000971	8
	55	191	0.956633	417.9044	-113.9235	1	433.1543	-15.24869	6.783528E-007	-0.0006687	8
