EXPLAIN
TAG	EISPOT
TITLE	LABEL	Potentiostatic EIS	Test Identifier
DATE	LABEL	10/12/2021	Date
TIME	LABEL	15:04:39	Time
NOTES	NOTES	1	Notes...
	
PSTAT	PSTAT	REF3000-16137	Potentiostat
VDC	POTEN	0.00000E+000	T	DC Voltage (V)
FREQINIT	QUANT	3.00000E+005	Initial Freq. (Hz)
FREQFINAL	QUANT	1.00000E+000	Final Freq. (Hz)
PTSPERDEC	QUANT	1.00000E+001	Points/decade
VAC	QUANT	5.00000E+001	AC Voltage (mV rms)
AREA	QUANT	1.00000E+000	Sample Area (cm^2)
SPEED	SELECTOR	2	Optimize for:
ZGUESS	QUANT	1.00000E+003	Estimated Z (ohms)
EOC	QUANT	0	Open Circuit (V)
SEQUENCER	TOGGLE	TRUE	Run as Sequence
PSTATMODEL	IQUANT	5	Pstat Model
PSTATSECTION	LABEL	REF3000-16137	Pstat Section
PSTATSERIALNO	LABEL	16137	Pstat Serial Number
CTRLMODE	IQUANT	1	Control Mode
IESTAB	IQUANT	0	I/E Stability
CASPEED	IQUANT	1	Control Amp Speed
CONVENTION	IQUANT	1	Current Convention
ICHRANGE	IQUANT	2	Ich Range
ICHRANGEMODE	TOGGLE	F	Ich Auto Range
ICHOFFSETENABLE	TOGGLE	T	Ich Offset Enable
ICHOFFSET	QUANT	0	Ich Offset (V)
ICHFILTER	IQUANT	3	Ich Filter
VCHRANGE	IQUANT	2	Vch Range
VCHRANGEMODE	TOGGLE	F	Vch Auto Range
VCHOFFSETENABLE	TOGGLE	T	Vch Offset Enable
VCHOFFSET	QUANT	0	Vch Offset (V)
VCHFILTER	IQUANT	3	Vch Filter
ACHRANGE	IQUANT	2	Ach Range
ACHOFFSETENABLE	TOGGLE	F	Ach Offset Enable
ACHOFFSET	QUANT	0	Ach Offset (V)
ACHFILTER	IQUANT	3	Ach Filter
IERANGELOWERLIMIT	IQUANT	2	I/E Range Lower Limit
IERANGEMODE	TOGGLE	F	I/E AutoRange
IERANGE	IQUANT	11	I/E Range
POSFEEDENABLE	TOGGLE	F	Positive Feedback IR Comp
POSFEEDRESISTANCE	QUANT	0	Positive Feedback Resistance (ohm)
ACHSELECT	IQUANT	0	Ach Select
CABLEID	IQUANT	13	Cable ID
DCCALDATE	LABEL	9/10/2021	DC Calibration Date
ACCALDATE	LABEL	9/10/2021	AC Calibration Date
THERMOSELECT	IQUANT	1	Thermo Select
FRAMEWORKVERSION	QUANT	6.33	Framework Version
INSTRUMENTVERSION	LABEL	3.50	Instrument Version
COMPLIANCEVOLTAGE	IQUANT	0	Compliance Voltage
ZCURVE	TABLE
	Pt	Time	Freq	Zreal	Zimag	Zsig	Zmod	Zphz	Idc	Vdc	IERange
	#	s	Hz	ohm	ohm	V	ohm	°	A	V	#
	0	10	300046.9	1.712924	2.388966	1	2.939603	54.35892	-3.796924E-005	-0.000624	11
	1	13	238359.4	1.791412	1.740775	1	2.49789	44.17867	1.2704E-005	-0.0010143	12
	2	17	189328.1	1.717116	1.386785	1	2.207184	38.92517	-0.0001262	-0.000843	12
	3	21	150421.9	1.606245	1.168762	1	1.986461	36.04098	-8.47595E-006	-4.806276E-005	11
	4	23	119484.4	1.594431	0.9112763	1	1.836473	29.74956	-0.0001501	-1.15775E-005	11
	5	26	94921.88	1.58564	0.6925596	1	1.730287	23.59425	-2.40565E-005	0.0001208	11
	6	29	75421.88	1.581446	0.5096271	1	1.661533	17.86173	-2.812241E-005	0.0001354	11
	7	31	59859.37	1.580938	0.3563388	1	1.6206	12.70203	-1.914282E-005	0.0002358	11
	8	34	47578.12	1.581579	0.2217648	1	1.597051	7.981823	-3.272782E-005	0.0002493	11
	9	36	37828.12	1.584709	0.1009297	1	1.58792	3.644233	-1.542829E-005	0.0003124	11
	10	39	30046.88	1.589182	-0.0139584	1	1.589243	-0.5032364	-2.45449E-005	0.0003297	11
	11	41	23859.38	1.596507	-0.1278651	1	1.601619	-4.579076	-4.138723E-005	0.0003622	11
	12	44	18984.38	1.604965	-0.2456967	1	1.623663	-8.703575	-4.351981E-005	0.0003674	11
	13	46	15046.87	1.616372	-0.3758208	1	1.659488	-13.08921	-3.371597E-005	0.0003819	11
	14	48	11953.13	1.631289	-0.5214209	1	1.712596	-17.72582	-7.630615E-005	0.0003698	11
	15	50	9515.62	1.649094	-0.6879865	1	1.786851	-22.64544	-1.262388E-005	0.0003882	11
	16	53	7546.875	1.67358	-0.8893976	1	1.895231	-27.9877	-1.442857E-005	0.0004005	11
	17	55	5928.309	1.705724	-1.141062	1	2.052198	-33.78095	-1.978742E-005	0.0003868	11
	18	57	4733.456	1.745019	-1.426261	1	2.253733	-39.26026	-1.361602E-005	0.0004027	11
	19	60	3796.875	1.79355	-1.765428	1	2.516656	-44.54729	-3.843434E-005	0.0003884	11
	20	62	2987.132	1.863228	-2.215874	1	2.895119	-49.94105	-6.841368E-005	0.0003307	11
	21	64	2390.625	1.94655	-2.729937	1	3.352852	-54.50967	-6.12301E-005	0.0003714	11
	22	67	1884.191	2.06257	-3.403353	1	3.979574	-58.78243	-6.51407E-005	0.0003656	11
	23	69	1516.544	2.203402	-4.159983	1	4.707488	-62.09135	1.072933E-005	-0.0001454	10
	24	71	1193.986	2.405865	-5.177853	1	5.709496	-65.07829	-1.088144E-005	-0.0001556	10
	25	74	946.5144	2.665749	-6.397841	1	6.930988	-67.38028	-2.906642E-005	-0.0001232	10
	26	76	751.7689	3.022024	-7.877513	1	8.437288	-69.01186	-5.120182E-006	-0.0001227	10
	27	78	597.4265	3.491656	-9.67735	1	10.28799	-70.1602	2.448858E-005	-0.0001261	10
	28	81	477.4305	4.124165	-11.81956	1	12.51842	-70.76474	7.246867E-007	-0.0001068	10
	29	83	376.6741	5.029947	-14.54389	1	15.38912	-70.92226	1.419946E-006	-0.0001124	10
	30	85	298.2954	6.261217	-17.77749	1	18.84787	-70.59779	1.854812E-006	-0.0001126	10
	31	88	237.7717	7.89897	-21.51079	1	22.91523	-69.83627	1.837819E-006	-0.0001147	10
	32	90	189.0121	10.15584	-25.9376	1	27.85498	-68.61722	2.33512E-006	-0.0001116	10
	33	93	150.2404	13.21623	-31.03619	1	33.73298	-66.9341	2.326265E-006	-0.0001108	10
	34	95	119.1737	17.35731	-36.81399	1	40.70069	-64.75674	3.090025E-006	-0.0001108	10
	35	98	95.0169	22.64961	-42.89782	1	48.51008	-62.1664	4.315197E-006	-0.0001272	9
	36	101	75.60484	29.49343	-49.32464	1	57.46984	-59.12289	4.712766E-006	-0.0001295	9
	37	103	54.50582	42.13326	-58.16557	1	71.82231	-54.08164	6.265724E-006	-0.0001287	9
	38	107	45.95588	50.01694	-62.30362	1	79.89641	-51.24273	7.844382E-006	-0.0001206	9
	39	109	37.20238	60.84818	-66.53266	1	90.1615	-47.55518	9.541544E-006	-0.0001288	9
	40	112	30.04808	72.5547	-69.69143	1	100.6036	-43.84685	8.612998E-006	-0.0001186	9
	41	115	23.91582	85.65853	-71.63425	1	111.664	-39.90496	9.671311E-006	-0.0001248	9
	42	118	18.60119	99.9814	-71.96411	1	123.1873	-35.7454	1.442603E-005	-0.0001294	9
	43	120	15.02404	111.8721	-71.20973	1	132.6129	-32.4779	1.456664E-005	-0.0001278	9
	44	122	12.01923	123.5032	-69.31028	1	141.6226	-29.30125	1.381371E-005	-0.0001244	9
	45	125	9.450605	135.3684	-67.03392	1	151.0567	-26.34445	1.027783E-005	-0.000133	9
	46	128	7.512019	145.4697	-64.2615	1	159.0313	-23.83353	1.193456E-005	-0.0001392	9
	47	131	5.978954	154.7754	-61.95533	1	166.715	-21.81582	1.012873E-005	-0.0001296	9
	48	135	4.734848	164.0521	-59.89816	1	174.6451	-20.05798	6.3198E-006	-0.0001575	9
	49	140	3.75601	172.4805	-58.20618	1	182.0371	-18.64775	5.914584E-006	-0.0001382	9
	50	145	3.004808	180.2451	-57.23964	1	189.1155	-17.61806	6.519879E-006	-0.000161	9
	51	152	2.372217	188.8718	-56.79612	1	197.2266	-16.7367	3.966938E-006	-0.0001862	9
	52	159	1.878005	198.2967	-57.69368	1	206.5191	-16.22216	4.429737E-006	-0.0001197	9
	53	168	1.512097	206.021	-58.31044	1	214.1139	-15.80319	3.439633E-006	-0.0002409	9
	54	179	1.201923	215.175	-59.9721	1	223.3762	-15.57385	1.720353E-006	-0.0001118	9
	55	192	0.956633	225.0927	-62.42344	1	233.5881	-15.49993	-4.972429E-007	-0.0006753	9
