EXPLAIN
TAG	EISPOT
TITLE	LABEL	Potentiostatic EIS	Test Identifier
DATE	LABEL	10/12/2021	Date
TIME	LABEL	16:07:23	Time
NOTES	NOTES	1	Notes...
	
PSTAT	PSTAT	REF3000-16137	Potentiostat
VDC	POTEN	0.00000E+000	T	DC Voltage (V)
FREQINIT	QUANT	3.00000E+005	Initial Freq. (Hz)
FREQFINAL	QUANT	1.00000E+000	Final Freq. (Hz)
PTSPERDEC	QUANT	1.00000E+001	Points/decade
VAC	QUANT	5.00000E+001	AC Voltage (mV rms)
AREA	QUANT	1.00000E+000	Sample Area (cm^2)
SPEED	SELECTOR	2	Optimize for:
ZGUESS	QUANT	1.00000E+003	Estimated Z (ohms)
EOC	QUANT	0	Open Circuit (V)
SEQUENCER	TOGGLE	TRUE	Run as Sequence
PSTATMODEL	IQUANT	5	Pstat Model
PSTATSECTION	LABEL	REF3000-16137	Pstat Section
PSTATSERIALNO	LABEL	16137	Pstat Serial Number
CTRLMODE	IQUANT	1	Control Mode
IESTAB	IQUANT	0	I/E Stability
CASPEED	IQUANT	1	Control Amp Speed
CONVENTION	IQUANT	1	Current Convention
ICHRANGE	IQUANT	2	Ich Range
ICHRANGEMODE	TOGGLE	F	Ich Auto Range
ICHOFFSETENABLE	TOGGLE	T	Ich Offset Enable
ICHOFFSET	QUANT	0	Ich Offset (V)
ICHFILTER	IQUANT	3	Ich Filter
VCHRANGE	IQUANT	2	Vch Range
VCHRANGEMODE	TOGGLE	F	Vch Auto Range
VCHOFFSETENABLE	TOGGLE	T	Vch Offset Enable
VCHOFFSET	QUANT	0	Vch Offset (V)
VCHFILTER	IQUANT	3	Vch Filter
ACHRANGE	IQUANT	2	Ach Range
ACHOFFSETENABLE	TOGGLE	F	Ach Offset Enable
ACHOFFSET	QUANT	0	Ach Offset (V)
ACHFILTER	IQUANT	3	Ach Filter
IERANGELOWERLIMIT	IQUANT	2	I/E Range Lower Limit
IERANGEMODE	TOGGLE	F	I/E AutoRange
IERANGE	IQUANT	11	I/E Range
POSFEEDENABLE	TOGGLE	F	Positive Feedback IR Comp
POSFEEDRESISTANCE	QUANT	0	Positive Feedback Resistance (ohm)
ACHSELECT	IQUANT	0	Ach Select
CABLEID	IQUANT	13	Cable ID
DCCALDATE	LABEL	9/10/2021	DC Calibration Date
ACCALDATE	LABEL	9/10/2021	AC Calibration Date
THERMOSELECT	IQUANT	1	Thermo Select
FRAMEWORKVERSION	QUANT	6.33	Framework Version
INSTRUMENTVERSION	LABEL	3.50	Instrument Version
COMPLIANCEVOLTAGE	IQUANT	0	Compliance Voltage
ZCURVE	TABLE
	Pt	Time	Freq	Zreal	Zimag	Zsig	Zmod	Zphz	Idc	Vdc	IERange
	#	s	Hz	ohm	ohm	V	ohm	°	A	V	#
	0	10	300046.9	6.209423	2.361188	1	6.643202	20.81975	-6.537472E-006	-0.0007178	10
	1	13	238359.4	6.184685	1.865035	1	6.459774	16.78106	-0.0001041	-0.00092	10
	2	16	189328.1	6.181216	1.463298	1	6.352061	13.31861	-6.443482E-006	-0.0006939	10
	3	19	150421.9	6.183009	1.123339	1	6.284225	10.29727	2.476576E-005	-0.0005078	10
	4	21	119484.4	6.184496	0.8667899	1	6.244943	7.978337	5.437803E-005	-0.0003376	10
	5	24	94921.88	6.198196	0.659014	1	6.233132	6.069087	-2.258451E-005	-0.000256	10
	6	26	75421.88	6.208104	0.4657889	1	6.225554	4.290815	-1.517692E-005	-0.0002393	10
	7	29	59859.37	6.223032	0.2966335	1	6.230098	2.729054	-2.656031E-006	-0.0002194	10
	8	32	47578.12	6.23998	0.1465091	1	6.241699	1.345006	-3.038893E-005	-0.000178	10
	9	34	37828.12	6.260595	0.0073875	1	6.260599	0.0676089	7.770424E-006	-0.0001786	10
	10	37	30046.88	6.283416	-0.1277317	1	6.284714	-1.16457	-1.805911E-005	-0.0002008	10
	11	39	23859.38	6.306739	-0.2655413	1	6.312326	-2.410979	1.35059E-005	-0.0001738	10
	12	41	18984.38	6.331997	-0.4124157	1	6.345413	-3.726526	3.80415E-007	-0.0001414	10
	13	44	15046.87	6.361011	-0.5796634	1	6.387368	-5.206843	-2.04132E-005	-8.189055E-005	10
	14	46	11953.13	6.392419	-0.7710655	1	6.438755	-6.877895	-1.091084E-005	-0.0001436	10
	15	48	9515.62	6.426302	-0.995538	1	6.502957	-8.806038	-2.612449E-005	-0.0001272	10
	16	51	7546.875	6.466956	-1.268717	1	6.590232	-11.09958	-1.642054E-005	-0.0001318	10
	17	53	5928.309	6.516243	-1.616353	1	6.713719	-13.93103	2.308791E-005	-0.000148	10
	18	55	4733.456	6.571585	-2.014433	1	6.873403	-17.04223	-2.574717E-005	-0.0001076	10
	19	58	3796.875	6.634415	-2.488442	1	7.085746	-20.5601	1.417458E-005	-0.0001547	10
	20	60	2987.132	6.716891	-3.12792	1	7.409487	-24.97044	-2.606587E-005	-0.0001034	10
	21	62	2390.625	6.810569	-3.856989	1	7.82689	-29.52392	1.994054E-005	-0.0001535	10
	22	65	1884.191	6.929831	-4.827332	1	8.445454	-34.86113	2.034752E-005	-0.0001341	10
	23	67	1516.544	7.065829	-5.916921	1	9.216067	-39.94279	-1.536052E-005	-0.000153	10
	24	69	1193.986	7.247309	-7.397736	1	10.35616	-45.58849	1.607946E-005	-0.0001344	10
	25	72	946.5144	7.473054	-9.180935	1	11.83791	-50.85526	-2.226074E-005	-7.860154E-005	10
	26	74	751.7689	7.736693	-11.37641	1	13.75787	-55.78176	-2.425756E-005	-0.000111	10
	27	77	597.4265	8.073551	-14.09335	1	16.24206	-60.19322	-4.716116E-006	-0.0001252	10
	28	79	477.4305	8.485113	-17.35096	1	19.31458	-63.94006	2.760993E-006	-0.0001575	10
	29	81	376.6741	9.016551	-21.61023	1	23.41581	-67.35238	-1.631889E-006	-0.0001147	10
	30	84	298.2954	9.66577	-26.81869	1	28.50736	-70.18024	2.358235E-006	-0.0001556	10
	31	86	237.7717	10.45486	-33.08116	1	34.69391	-72.46155	-1.731833E-006	-0.000112	10
	32	88	189.0121	11.44213	-40.91821	1	42.4879	-74.37719	-9.735141E-007	-0.0001608	10
	33	91	150.2404	12.65687	-50.53231	1	52.09329	-75.93837	1.927711E-007	-0.0001299	9
	34	93	119.1737	14.21244	-62.63316	1	64.22543	-77.21519	2.160374E-007	-0.0001268	9
	35	96	95.0169	16.12306	-77.21778	1	78.88307	-78.2061	1.796398E-007	-0.0001266	9
	36	98	75.60484	18.55966	-95.398	1	97.1866	-78.99065	7.06716E-008	-0.0001299	9
	37	101	54.50582	23.2397	-129.0634	1	131.1391	-79.79247	8.106715E-008	-0.0001252	9
	38	103	45.95588	26.44631	-151.1762	1	153.472	-80.07726	2.161938E-007	-0.0001238	9
	39	106	37.20238	31.32026	-183.6858	1	186.3368	-80.32355	2.307626E-007	-0.0001281	9
	40	108	30.04808	37.55572	-223.4688	1	226.6026	-80.46014	1.440503E-007	-0.0001245	9
	41	110	23.91582	46.17176	-275.5878	1	279.4288	-80.48904	6.479989E-008	-0.0001321	9
	42	113	18.60119	58.45586	-346.5909	1	351.4859	-80.42662	1.022936E-007	-0.0001225	9
	43	115	15.02404	71.53258	-419.0698	1	425.131	-80.31333	4.275009E-007	-0.0001232	8
	44	117	12.01923	89.29997	-512.7306	1	520.449	-80.12016	4.246245E-007	-0.0001197	8
	45	120	9.450605	114.0686	-636.9327	1	647.0663	-79.84651	4.184516E-007	-0.0001089	8
	46	122	7.512019	144.4961	-782.7241	1	795.9498	-79.54057	4.774527E-007	-0.000108	8
	47	125	5.978954	183.0796	-959.714	1	977.02	-79.19975	4.951972E-007	-0.0001163	8
	48	128	4.734848	234.8149	-1182.74	1	1205.824	-78.77082	5.713065E-007	-9.384533E-005	8
	49	131	3.75601	303.4551	-1452.488	1	1483.849	-78.19945	5.297321E-007	-0.0001299	8
	50	135	3.004808	390.6002	-1768.578	1	1811.198	-77.54584	5.697914E-007	-9.496732E-005	8
	51	139	2.372217	515.0369	-2179.822	1	2239.841	-76.70625	5.67078E-007	-4.123216E-005	8
	52	143	1.878005	680.5892	-2669.49	1	2754.882	-75.69708	5.657391E-007	-0.0001369	8
	53	148	1.512097	889.0817	-3217.845	1	3338.411	-74.55467	5.964768E-007	-1.753284E-005	8
	54	153	1.201923	1182.565	-3911.04	1	4085.914	-73.17648	6.062676E-007	-0.0001355	8
	55	159	0.956633	1580.72	-4732.2	1	4989.228	-71.52888	7.477581E-008	-0.000648	7
