EXPLAIN
TAG	EISPOT
TITLE	LABEL	Potentiostatic EIS	Test Identifier
DATE	LABEL	10/12/2021	Date
TIME	LABEL	16:24:07	Time
NOTES	NOTES	1	Notes...
	
PSTAT	PSTAT	REF3000-16137	Potentiostat
VDC	POTEN	0.00000E+000	T	DC Voltage (V)
FREQINIT	QUANT	3.00000E+005	Initial Freq. (Hz)
FREQFINAL	QUANT	1.00000E+000	Final Freq. (Hz)
PTSPERDEC	QUANT	1.00000E+001	Points/decade
VAC	QUANT	5.00000E+001	AC Voltage (mV rms)
AREA	QUANT	1.00000E+000	Sample Area (cm^2)
SPEED	SELECTOR	2	Optimize for:
ZGUESS	QUANT	1.00000E+003	Estimated Z (ohms)
EOC	QUANT	0	Open Circuit (V)
SEQUENCER	TOGGLE	TRUE	Run as Sequence
PSTATMODEL	IQUANT	5	Pstat Model
PSTATSECTION	LABEL	REF3000-16137	Pstat Section
PSTATSERIALNO	LABEL	16137	Pstat Serial Number
CTRLMODE	IQUANT	1	Control Mode
IESTAB	IQUANT	0	I/E Stability
CASPEED	IQUANT	1	Control Amp Speed
CONVENTION	IQUANT	1	Current Convention
ICHRANGE	IQUANT	2	Ich Range
ICHRANGEMODE	TOGGLE	F	Ich Auto Range
ICHOFFSETENABLE	TOGGLE	T	Ich Offset Enable
ICHOFFSET	QUANT	0	Ich Offset (V)
ICHFILTER	IQUANT	3	Ich Filter
VCHRANGE	IQUANT	2	Vch Range
VCHRANGEMODE	TOGGLE	F	Vch Auto Range
VCHOFFSETENABLE	TOGGLE	T	Vch Offset Enable
VCHOFFSET	QUANT	0	Vch Offset (V)
VCHFILTER	IQUANT	3	Vch Filter
ACHRANGE	IQUANT	2	Ach Range
ACHOFFSETENABLE	TOGGLE	F	Ach Offset Enable
ACHOFFSET	QUANT	0	Ach Offset (V)
ACHFILTER	IQUANT	3	Ach Filter
IERANGELOWERLIMIT	IQUANT	2	I/E Range Lower Limit
IERANGEMODE	TOGGLE	F	I/E AutoRange
IERANGE	IQUANT	11	I/E Range
POSFEEDENABLE	TOGGLE	F	Positive Feedback IR Comp
POSFEEDRESISTANCE	QUANT	0	Positive Feedback Resistance (ohm)
ACHSELECT	IQUANT	0	Ach Select
CABLEID	IQUANT	13	Cable ID
DCCALDATE	LABEL	9/10/2021	DC Calibration Date
ACCALDATE	LABEL	9/10/2021	AC Calibration Date
THERMOSELECT	IQUANT	1	Thermo Select
FRAMEWORKVERSION	QUANT	6.33	Framework Version
INSTRUMENTVERSION	LABEL	3.50	Instrument Version
COMPLIANCEVOLTAGE	IQUANT	0	Compliance Voltage
ZCURVE	TABLE
	Pt	Time	Freq	Zreal	Zimag	Zsig	Zmod	Zphz	Idc	Vdc	IERange
	#	s	Hz	ohm	ohm	V	ohm	°	A	V	#
	0	6	300046.9	30.7111	0.986165	1	30.72692	1.839195	-2.396635E-005	-0.0002647	11
	1	11	238359.4	31.0343	0.99256	1	31.05017	1.831848	-0.000109	-0.0003298	10
	2	14	189328.1	31.2909	0.6090826	1	31.29682	1.115131	-8.896756E-005	-0.0001037	10
	3	16	150421.9	31.52087	0.2689032	1	31.52202	0.4887759	-5.204769E-006	-0.0003606	10
	4	19	119484.4	31.75709	0.0019919	1	31.75709	0.0035938	5.617389E-005	-1.511735E-005	10
	5	22	94921.88	32.00846	-0.281051	1	32.0097	-0.5030738	1.518082E-005	-0.0001934	10
	6	24	75421.88	32.27959	-0.5087677	1	32.2836	-0.90298	-2.720069E-005	-0.0001413	10
	7	27	59859.37	32.57027	-0.7243091	1	32.57832	-1.273954	-2.627352E-005	-0.0001364	10
	8	29	47578.12	32.85989	-0.9239925	1	32.87288	-1.610685	1.470559E-005	-0.0001994	10
	9	32	37828.12	33.18064	-1.133875	1	33.20001	-1.957196	1.937625E-005	-0.0000985	10
	10	34	30046.88	33.51662	-1.342444	1	33.54349	-2.293647	-2.245022E-005	-0.0001235	10
	11	37	23859.38	33.85209	-1.56522	1	33.88826	-2.647301	2.053508E-005	-0.0001025	10
	12	39	18984.38	34.21362	-1.80257	1	34.26107	-3.015883	-1.106744E-005	-0.0001359	10
	13	41	15046.87	34.60061	-2.060876	1	34.66193	-3.408615	-2.090898E-005	-5.217215E-005	10
	14	44	11953.13	34.98077	-2.350166	1	35.05962	-3.843614	-4.953789E-006	-0.0001454	10
	15	46	9515.62	35.36431	-2.646723	1	35.46321	-4.28013	-7.790347E-006	0.0003414	9
	16	48	7546.875	35.80994	-3.021948	1	35.93722	-4.823678	1.555065E-005	-0.0007113	9
	17	51	5928.309	36.29318	-3.472902	1	36.45897	-5.466002	6.817685E-006	-0.0005517	9
	18	53	4733.456	36.76781	-3.980969	1	36.9827	-6.179526	1.628169E-005	-0.0005384	9
	19	55	3796.875	37.27098	-4.543447	1	37.54689	-6.95024	7.235307E-006	-0.0005778	9
	20	58	2987.132	37.81769	-5.309906	1	38.18865	-7.992536	-1.473181E-005	0.0002801	9
	21	60	2390.625	38.35955	-6.142303	1	38.8482	-9.097231	1.598202E-005	-0.0006282	9
	22	62	1884.191	38.98727	-7.236048	1	39.65309	-10.51447	-1.16705E-005	0.0003481	9
	23	65	1516.544	39.5599	-8.456723	1	40.4537	-12.06651	-1.448144E-005	0.0002018	9
	24	67	1193.986	40.22996	-10.09226	1	41.47654	-14.08285	1.563811E-006	-0.0004377	9
	25	70	946.5144	40.92863	-12.08324	1	42.67502	-16.44803	7.067911E-006	-0.0005702	9
	26	72	751.7689	41.66543	-14.50771	1	44.11895	-19.19789	6.921241E-006	-0.0005726	9
	27	74	597.4265	42.45436	-17.52504	1	45.92929	-22.4307	1.510319E-006	-0.0004458	9
	28	77	477.4305	43.33607	-21.16257	1	48.22727	-26.02792	3.495064E-007	-0.0001247	9
	29	79	376.6741	44.31288	-25.91772	1	51.33575	-30.32252	4.080138E-007	-0.0001277	9
	30	81	298.2954	45.39537	-31.75806	1	55.40139	-34.97618	3.69388E-007	-0.0001231	9
	31	83	237.7717	46.60881	-38.80332	1	60.64717	-39.77846	3.627787E-007	-0.0001206	9
	32	86	189.0121	48.01768	-47.63661	1	67.63834	-44.77174	4.627986E-007	-0.0001256	9
	33	88	150.2404	49.65988	-58.5901	1	76.80431	-49.71601	4.443727E-007	-0.0001272	9
	34	91	119.1737	51.61818	-72.3133	1	88.84621	-54.48026	4.80856E-007	-0.0001291	9
	35	93	95.0169	53.91245	-88.9342	1	103.9993	-58.77551	3.686172E-007	-0.0001289	9
	36	96	75.60484	56.7045	-109.6777	1	123.469	-62.66056	3.643854E-007	-0.0001301	9
	37	98	54.50582	61.67739	-148.1965	1	160.5189	-67.40358	4.677566E-007	-0.0001367	9
	38	101	45.95588	65.01871	-173.4886	1	185.272	-69.45539	7.455264E-007	-0.0001673	9
	39	103	37.20238	69.86402	-210.8863	1	222.1576	-71.6706	4.122908E-007	-0.0001185	9
	40	106	30.04808	75.86506	-256.9611	1	267.9263	-73.55132	4.235201E-007	-0.0001216	9
	41	108	23.91582	83.76432	-317.4312	1	328.2971	-75.21765	3.771934E-007	-0.0001282	9
	42	110	18.60119	94.63614	-400.5082	1	411.5371	-76.70541	3.535218E-007	-0.0001274	9
	43	113	15.02404	105.8304	-485.9784	1	497.3681	-77.71463	3.298532E-007	-0.0001218	8
	44	115	12.01923	121.1993	-597.3522	1	609.5235	-78.53071	3.578735E-007	-0.0001143	8
	45	117	9.450605	142.254	-746.0189	1	759.4606	-79.2042	3.523039E-007	-0.0001052	8
	46	120	7.512019	167.793	-921.7825	1	936.9299	-79.68335	3.964562E-007	-0.0000983	8
	47	123	5.978954	200.6311	-1137.13	1	1154.694	-79.99392	4.074186E-007	-0.0001201	8
	48	126	4.734848	244.0659	-1408.816	1	1429.801	-80.17152	3.945954E-007	-9.46546E-005	8
	49	129	3.75601	298.5972	-1741.579	1	1766.991	-80.27112	3.971305E-007	-0.0001208	8
	50	132	3.004808	364.8921	-2133.7	1	2164.676	-80.29551	3.770792E-007	-7.987263E-005	8
	51	136	2.372217	453.4518	-2642.611	1	2681.233	-80.26331	3.80913E-007	-7.682757E-005	8
	52	140	1.878005	573.3704	-3268.378	1	3318.29	-80.04987	4.001273E-007	-0.0001378	8
	53	145	1.512097	703.93	-3976.076	1	4037.908	-79.9603	3.807767E-007	-2.040579E-005	8
	54	151	1.201923	893.7399	-4905.632	1	4986.381	-79.67473	6.217739E-008	-0.0001005	7
	55	157	0.956633	1128.276	-6022.025	1	6126.809	-79.38819	3.142052E-008	-0.0006485	7
