EXPLAIN
TAG	EISPOT
TITLE	LABEL	Potentiostatic EIS	Test Identifier
DATE	LABEL	10/12/2021	Date
TIME	LABEL	16:35:11	Time
NOTES	NOTES	1	Notes...
	
PSTAT	PSTAT	REF3000-16137	Potentiostat
VDC	POTEN	0.00000E+000	T	DC Voltage (V)
FREQINIT	QUANT	3.00000E+005	Initial Freq. (Hz)
FREQFINAL	QUANT	1.00000E+000	Final Freq. (Hz)
PTSPERDEC	QUANT	1.00000E+001	Points/decade
VAC	QUANT	5.00000E+001	AC Voltage (mV rms)
AREA	QUANT	1.00000E+000	Sample Area (cm^2)
SPEED	SELECTOR	2	Optimize for:
ZGUESS	QUANT	1.00000E+003	Estimated Z (ohms)
EOC	QUANT	0	Open Circuit (V)
SEQUENCER	TOGGLE	TRUE	Run as Sequence
PSTATMODEL	IQUANT	5	Pstat Model
PSTATSECTION	LABEL	REF3000-16137	Pstat Section
PSTATSERIALNO	LABEL	16137	Pstat Serial Number
CTRLMODE	IQUANT	1	Control Mode
IESTAB	IQUANT	0	I/E Stability
CASPEED	IQUANT	1	Control Amp Speed
CONVENTION	IQUANT	1	Current Convention
ICHRANGE	IQUANT	2	Ich Range
ICHRANGEMODE	TOGGLE	F	Ich Auto Range
ICHOFFSETENABLE	TOGGLE	T	Ich Offset Enable
ICHOFFSET	QUANT	0	Ich Offset (V)
ICHFILTER	IQUANT	3	Ich Filter
VCHRANGE	IQUANT	2	Vch Range
VCHRANGEMODE	TOGGLE	F	Vch Auto Range
VCHOFFSETENABLE	TOGGLE	T	Vch Offset Enable
VCHOFFSET	QUANT	0	Vch Offset (V)
VCHFILTER	IQUANT	3	Vch Filter
ACHRANGE	IQUANT	2	Ach Range
ACHOFFSETENABLE	TOGGLE	F	Ach Offset Enable
ACHOFFSET	QUANT	0	Ach Offset (V)
ACHFILTER	IQUANT	3	Ach Filter
IERANGELOWERLIMIT	IQUANT	2	I/E Range Lower Limit
IERANGEMODE	TOGGLE	F	I/E AutoRange
IERANGE	IQUANT	11	I/E Range
POSFEEDENABLE	TOGGLE	F	Positive Feedback IR Comp
POSFEEDRESISTANCE	QUANT	0	Positive Feedback Resistance (ohm)
ACHSELECT	IQUANT	0	Ach Select
CABLEID	IQUANT	13	Cable ID
DCCALDATE	LABEL	9/10/2021	DC Calibration Date
ACCALDATE	LABEL	9/10/2021	AC Calibration Date
THERMOSELECT	IQUANT	1	Thermo Select
FRAMEWORKVERSION	QUANT	6.33	Framework Version
INSTRUMENTVERSION	LABEL	3.50	Instrument Version
COMPLIANCEVOLTAGE	IQUANT	0	Compliance Voltage
ZCURVE	TABLE
	Pt	Time	Freq	Zreal	Zimag	Zsig	Zmod	Zphz	Idc	Vdc	IERange
	#	s	Hz	ohm	ohm	V	ohm	°	A	V	#
	0	7	300046.9	124.4956	-3.19695	1	124.5366	-1.470988	6.923294E-005	-0.0022648	9
	1	10	238359.4	126.0659	-3.11908	1	126.1045	-1.417304	6.364187E-005	-0.0032338	9
	2	13	189328.1	127.5396	-2.954822	1	127.5738	-1.327185	1.320204E-005	-0.0012859	9
	3	16	150421.9	128.8242	-3.793695	1	128.88	-1.686795	-8.126941E-005	0.0020054	9
	4	19	119484.4	130.0454	-3.727189	1	130.0988	-1.641686	1.568591E-005	-0.001567	9
	5	22	94921.88	131.2232	-3.908684	1	131.2814	-1.706138	2.223964E-005	-0.0005589	9
	6	24	75421.88	132.5608	-4.253124	1	132.629	-1.837666	4.858083E-006	-0.0007792	9
	7	27	59859.37	133.9219	-4.578467	1	134.0001	-1.958042	2.479783E-005	-0.0008436	9
	8	29	47578.12	135.3526	-4.907599	1	135.4415	-2.076514	2.664795E-005	-0.0009446	9
	9	32	37828.12	136.7706	-5.127514	1	136.8667	-2.147007	-1.107867E-005	-0.0002217	9
	10	34	30046.88	138.2823	-5.380525	1	138.3869	-2.228238	-2.265851E-005	0.0005029	9
	11	37	23859.38	139.9169	-5.767658	1	140.0358	-2.360511	2.236826E-005	-0.0005328	9
	12	39	18984.38	141.4586	-6.148477	1	141.5922	-2.488785	1.952029E-005	-0.0003071	9
	13	41	15046.87	143.141	-6.537674	1	143.2902	-2.615051	5.143957E-006	-0.0007698	9
	14	44	11953.13	144.703	-6.799498	1	144.8626	-2.690313	4.551114E-006	-0.0007168	9
	15	46	9515.62	146.5456	-7.260105	1	146.7253	-2.836206	2.322428E-005	-0.0009446	9
	16	48	7546.875	148.2047	-7.565759	1	148.3977	-2.922377	-2.249286E-005	0.0004452	9
	17	51	5928.309	150.0059	-8.354514	1	150.2383	-3.187771	1.175076E-005	-3.567278E-005	9
	18	53	4733.456	151.8938	-8.735584	1	152.1448	-3.291519	-1.457303E-005	0.0007084	9
	19	55	3796.875	153.7379	-9.66506	1	154.0415	-3.597287	2.565924E-005	-0.0008393	9
	20	58	2987.132	155.6212	-10.45163	1	155.9718	-3.842256	-2.233365E-005	0.0006313	9
	21	60	2390.625	157.7971	-11.66349	1	158.2276	-4.227299	-1.257741E-005	-0.0002242	9
	22	62	1884.191	159.5108	-12.77111	1	160.0213	-4.577579	1.135111E-005	-9.438803E-006	9
	23	65	1516.544	161.4896	-14.27399	1	162.1192	-5.051221	2.511069E-005	-0.0007103	9
	24	67	1193.986	163.6495	-16.19169	1	164.4486	-5.650527	1.138293E-005	-3.050178E-006	9
	25	70	946.5144	165.9873	-18.44049	1	167.0085	-6.339324	2.497383E-005	-0.0008766	9
	26	72	751.7689	168.0278	-21.4563	1	169.3922	-7.276999	-1.623466E-005	-3.011544E-005	9
	27	74	597.4265	170.4142	-24.98934	1	172.2367	-8.342328	-2.284619E-005	0.0004873	9
	28	77	477.4305	172.871	-29.19083	1	175.3182	-9.5845	4.012999E-007	-0.0001286	9
	29	79	376.6741	175.4811	-34.70241	1	178.8795	-11.18624	2.94624E-007	-0.0001335	9
	30	81	298.2954	178.2325	-41.44501	1	182.9877	-13.09055	4.201334E-007	-0.0001262	9
	31	83	237.7717	181.1974	-49.54958	1	187.8501	-15.29399	3.272112E-007	-0.0001306	9
	32	86	189.0121	184.4345	-59.66711	1	193.8459	-17.92711	3.673731E-007	-0.0001319	9
	33	88	150.2404	187.9526	-72.1699	1	201.3322	-21.00575	3.4104E-007	-0.000128	9
	34	91	119.1737	191.8418	-87.7778	1	210.9697	-24.58661	4.781052E-007	-0.0001274	9
	35	93	95.0169	196.1006	-106.6358	1	223.2188	-28.53651	4.327284E-007	-0.0001276	9
	36	96	75.60484	200.9687	-130.1591	1	239.4365	-32.92946	7.821624E-007	-0.0001721	9
	37	98	54.50582	208.6182	-173.7466	1	271.4948	-39.78905	4.154144E-007	-0.0001323	9
	38	101	45.95588	213.7755	-202.3862	1	294.3809	-43.43234	3.901775E-007	-0.0001258	9
	39	103	37.20238	220.6633	-244.7009	1	329.5009	-47.95689	3.955215E-007	-0.0001256	9
	40	106	30.04808	228.797	-296.889	1	374.8215	-52.38042	4.022879E-007	-0.0001259	9
	41	108	23.91582	237.9148	-363.7755	1	434.6678	-56.81469	1.26103E-007	-0.0001287	8
	42	110	18.60119	251.1997	-457.5971	1	522.0118	-61.23524	1.394394E-007	-0.0001187	8
	43	113	15.02404	265.0148	-556.4676	1	616.3514	-64.53412	1.470437E-007	-0.0001214	8
	44	115	12.01923	282.5586	-683.0811	1	739.2151	-67.52742	1.157959E-007	-0.0001292	8
	45	117	9.450605	305.8158	-852.3572	1	905.5584	-70.2626	1.275849E-007	-0.0001159	8
	46	120	7.512019	333.2136	-1053.287	1	1104.737	-72.44492	1.232282E-007	-0.0001168	8
	47	123	5.978954	366.8098	-1299.347	1	1350.131	-74.23546	1.277009E-007	-0.000115	8
	48	126	4.734848	410.0327	-1612.849	1	1664.154	-75.73595	1.071036E-007	-0.0001191	8
	49	129	3.75601	463.0566	-1996.078	1	2049.084	-76.93936	1.299613E-007	-9.301988E-005	8
	50	132	3.004808	528.1691	-2450.107	1	2506.389	-77.83492	1.096384E-007	-0.0001184	8
	51	136	2.372217	619.1475	-3046.608	1	3108.885	-78.5125	1.015647E-007	-0.000172	8
	52	140	1.878005	726.1069	-3784.81	1	3853.831	-79.13989	1.249677E-007	-0.0001183	8
	53	145	1.512097	851.7087	-4619.325	1	4697.188	-79.55316	-3.159319E-009	-7.981886E-005	7
	54	151	1.201923	1030.113	-5720.264	1	5812.276	-79.7915	1.642213E-008	-8.76022E-005	7
	55	157	0.956633	1252.172	-7051.45	1	7161.766	-79.93058	-8.920059E-010	-0.0006503	7
