EXPLAIN
TAG	EISPOT
TITLE	LABEL	Potentiostatic EIS	Test Identifier
DATE	LABEL	10/12/2021	Date
TIME	LABEL	17:00:57	Time
NOTES	NOTES	1	Notes...
	
PSTAT	PSTAT	REF3000-16137	Potentiostat
VDC	POTEN	0.00000E+000	T	DC Voltage (V)
FREQINIT	QUANT	3.00000E+005	Initial Freq. (Hz)
FREQFINAL	QUANT	1.00000E+000	Final Freq. (Hz)
PTSPERDEC	QUANT	1.00000E+001	Points/decade
VAC	QUANT	5.00000E+001	AC Voltage (mV rms)
AREA	QUANT	1.00000E+000	Sample Area (cm^2)
SPEED	SELECTOR	2	Optimize for:
ZGUESS	QUANT	1.00000E+003	Estimated Z (ohms)
EOC	QUANT	0	Open Circuit (V)
SEQUENCER	TOGGLE	TRUE	Run as Sequence
PSTATMODEL	IQUANT	5	Pstat Model
PSTATSECTION	LABEL	REF3000-16137	Pstat Section
PSTATSERIALNO	LABEL	16137	Pstat Serial Number
CTRLMODE	IQUANT	1	Control Mode
IESTAB	IQUANT	0	I/E Stability
CASPEED	IQUANT	1	Control Amp Speed
CONVENTION	IQUANT	1	Current Convention
ICHRANGE	IQUANT	2	Ich Range
ICHRANGEMODE	TOGGLE	F	Ich Auto Range
ICHOFFSETENABLE	TOGGLE	T	Ich Offset Enable
ICHOFFSET	QUANT	0	Ich Offset (V)
ICHFILTER	IQUANT	3	Ich Filter
VCHRANGE	IQUANT	2	Vch Range
VCHRANGEMODE	TOGGLE	F	Vch Auto Range
VCHOFFSETENABLE	TOGGLE	T	Vch Offset Enable
VCHOFFSET	QUANT	0	Vch Offset (V)
VCHFILTER	IQUANT	3	Vch Filter
ACHRANGE	IQUANT	2	Ach Range
ACHOFFSETENABLE	TOGGLE	F	Ach Offset Enable
ACHOFFSET	QUANT	0	Ach Offset (V)
ACHFILTER	IQUANT	3	Ach Filter
IERANGELOWERLIMIT	IQUANT	2	I/E Range Lower Limit
IERANGEMODE	TOGGLE	F	I/E AutoRange
IERANGE	IQUANT	11	I/E Range
POSFEEDENABLE	TOGGLE	F	Positive Feedback IR Comp
POSFEEDRESISTANCE	QUANT	0	Positive Feedback Resistance (ohm)
ACHSELECT	IQUANT	0	Ach Select
CABLEID	IQUANT	13	Cable ID
DCCALDATE	LABEL	9/10/2021	DC Calibration Date
ACCALDATE	LABEL	9/10/2021	AC Calibration Date
THERMOSELECT	IQUANT	1	Thermo Select
FRAMEWORKVERSION	QUANT	6.33	Framework Version
INSTRUMENTVERSION	LABEL	3.50	Instrument Version
COMPLIANCEVOLTAGE	IQUANT	0	Compliance Voltage
ZCURVE	TABLE
	Pt	Time	Freq	Zreal	Zimag	Zsig	Zmod	Zphz	Idc	Vdc	IERange
	#	s	Hz	ohm	ohm	V	ohm	°	A	V	#
	0	18	300046.9	915.7169	-3967.406	1	4071.713	-77.00317	-6.380414E-005	0.0003674	9
	1	33	238359.4	1376.933	-4824.792	1	5017.426	-74.07195	8.272118E-005	-0.0038857	9
	2	56	189328.1	1857.252	-5597.89	1	5897.945	-71.64533	-1.419729E-005	0.0016172	9
	3	66	150421.9	2760.979	-6594.276	1	7148.95	-67.28127	1.644383E-005	-0.0022421	9
	4	73	119484.4	3649.462	-8442.306	1	9197.342	-66.62201	-9.227633E-006	-0.014626	8
	5	80	94921.88	4829.941	-9964.95	1	11073.77	-64.14085	-1.737052E-005	0.0003332	8
	6	89	75421.88	6669.581	-12004.59	1	13732.94	-60.94407	-2.49666E-005	0.0003037	9
	7	98	59859.37	8374.986	-13569.95	1	15946.28	-58.31829	-6.145672E-007	0.0066591	8
	8	105	47578.12	13275.73	-14933.69	1	19981.5	-48.3636	6.651714E-006	-0.0113026	7
	9	112	37828.12	16202.32	-16370.38	1	23032.68	-45.29562	7.557614E-006	-0.0195323	7
	10	118	30046.88	19695.74	-17528.32	1	26365.96	-41.66765	6.653884E-006	-0.0112947	7
	11	125	23859.38	23508.46	-18660.43	1	30014.32	-38.44167	3.425012E-006	-0.0250294	7
	12	130	18984.38	26244.23	-20291.19	1	33173.66	-37.71004	1.006767E-005	0.0030047	8
	13	136	15046.87	32019.59	-18702.29	1	37081.4	-30.28874	-3.422704E-006	-0.0052662	7
	14	142	11953.13	34574.77	-20729.59	1	40312.91	-30.94515	-1.042014E-005	-0.0026115	8
	15	148	9515.62	40272.98	-17654.36	1	43972.59	-23.67107	5.309547E-006	-0.0274118	7
	16	154	7546.875	44257.21	-18438.48	1	47944.54	-22.61763	2.739004E-005	-0.006388	8
	17	160	5928.309	48747.75	-15014.14	1	51007.52	-17.11866	6.701827E-006	-0.0114277	7
	18	166	4733.456	51893.53	-13131.5	1	53529.19	-14.20043	-3.528255E-006	-0.005289	7
	19	172	3796.875	55344.44	-13003.65	1	56851.58	-13.2223	6.775613E-006	-0.0115883	7
	20	177	2987.132	56041.06	-10470.02	1	57010.72	-10.58243	-3.553476E-006	0.0244174	7
	21	182	2390.625	60237.54	-9611.57	1	60999.53	-9.06576	-5.157252E-006	0.025893	7
	22	188	1884.191	64111.98	-10756.91	1	65008.13	-9.52456	-6.819701E-006	0.0119998	7
	23	193	1516.544	64760.34	-6019.176	1	65039.46	-5.310123	6.807261E-006	-0.0279481	7
	24	198	1193.986	68267.36	-6082.683	1	68537.81	-5.09166	5.263661E-006	-0.0274598	7
	25	204	946.5144	68649.87	-9323.657	1	69280.12	-7.734283	-7.429735E-006	0.0187412	7
	26	208	751.7689	71577.7	-6671.301	1	71887.92	-5.324791	-7.485967E-006	0.0191445	7
	27	211	597.4265	71258.64	-10201.75	1	71985.2	-8.14739	-2.520787E-005	0.0049383	8
	28	217	477.4305	78393.66	-5388.337	1	78578.63	-3.932003	-2.094526E-007	-0.0001234	8
	29	222	376.6741	80390.01	-4077.035	1	80493.33	-2.903308	-8.837919E-009	-0.0001334	6
	30	224	298.2954	81944.69	-4119.644	1	82048.18	-2.878034	-8.635416E-009	-0.0001682	6
	31	226	237.7717	83750.47	-4153.302	1	83853.39	-2.839051	-9.503651E-009	-8.462897E-005	6
	32	229	189.0121	85608.36	-4234.579	1	85713.02	-2.831802	-8.733815E-009	-0.0001462	6
	33	231	150.2404	87524.3	-4349.439	1	87632.31	-2.84492	-9.158962E-009	-8.843905E-005	6
	34	234	119.1737	89269.27	-4300.974	1	89372.82	-2.758365	-7.571005E-009	-0.0001653	6
	35	236	95.0169	91599.59	-4375.53	1	91704.04	-2.734827	-9.37514E-009	-8.948924E-005	6
	36	239	75.60484	93866.74	-4379.747	1	93968.87	-2.671438	-9.787724E-009	-0.0001309	6
	37	241	54.50582	96440.1	-4162.689	1	96529.9	-2.471551	-7.823418E-009	-0.0001326	6
	38	244	45.95588	98391.6	-4128.684	1	98478.2	-2.402822	-6.187858E-009	-0.0001818	6
	39	246	37.20238	100388	-4003.637	1	100467.8	-2.28384	-6.840991E-009	-0.0001296	6
	40	248	30.04808	102555.3	-3838.327	1	102627.1	-2.143404	-8.929121E-009	-0.0001629	6
	41	251	23.91582	104597.8	-3668.383	1	104662.1	-2.008615	-9.16615E-009	-0.0000984	6
	42	253	18.60119	106631.6	-3514.335	1	106689.5	-1.887656	-7.917309E-009	-0.0001672	6
	43	255	15.02404	108561.6	-3487.344	1	108617.6	-1.83989	-1.184454E-008	-0.0001279	6
	44	258	12.01923	110537.8	-3503.221	1	110593.3	-1.81524	-4.376604E-009	-0.0001896	6
	45	260	9.450605	112572.1	-3744.862	1	112634.4	-1.905319	-1.3843E-008	-0.0001649	6
	46	263	7.512019	114709	-3951.061	1	114777	-1.972728	-5.492136E-009	-0.0001072	6
	47	265	5.978954	117174.3	-4380.75	1	117256.1	-2.141098	-7.788462E-009	-0.000163	6
	48	269	4.734848	119886.9	-5058.603	1	119993.6	-2.41615	-1.438985E-008	-0.0001915	6
	49	272	3.75601	122912.2	-5858.346	1	123051.7	-2.728815	-5.786948E-011	-6.618346E-005	6
	50	275	3.004808	126282.4	-6835.816	1	126467.3	-3.098465	1.073443E-009	-0.0001621	6
	51	279	2.372217	129892.2	-8095.771	1	130144.3	-3.566452	-3.554004E-009	-0.0001959	6
	52	283	1.878005	134362.7	-9878.22	1	134725.3	-4.204765	1.422922E-009	-0.0001628	6
	53	288	1.512097	139594.6	-11706.94	1	140084.7	-4.793826	1.322356E-009	-0.0001311	6
	54	293	1.201923	145403.4	-14301.4	1	146105	-5.61736	-3.764663E-009	-0.0001125	6
	55	299	0.956633	152957.1	-17262.59	1	153928.1	-6.439099	-1.806178E-008	-0.0006775	6
