EXPLAIN
TAG	EISPOT
TITLE	LABEL	Potentiostatic EIS	Test Identifier
DATE	LABEL	10/12/2021	Date
TIME	LABEL	16:37:57	Time
NOTES	NOTES	1	Notes...
	
PSTAT	PSTAT	REF3000-16137	Potentiostat
VDC	POTEN	0.00000E+000	T	DC Voltage (V)
FREQINIT	QUANT	3.00000E+005	Initial Freq. (Hz)
FREQFINAL	QUANT	1.00000E+000	Final Freq. (Hz)
PTSPERDEC	QUANT	1.00000E+001	Points/decade
VAC	QUANT	5.00000E+001	AC Voltage (mV rms)
AREA	QUANT	1.00000E+000	Sample Area (cm^2)
SPEED	SELECTOR	2	Optimize for:
ZGUESS	QUANT	1.00000E+003	Estimated Z (ohms)
EOC	QUANT	0	Open Circuit (V)
SEQUENCER	TOGGLE	TRUE	Run as Sequence
PSTATMODEL	IQUANT	5	Pstat Model
PSTATSECTION	LABEL	REF3000-16137	Pstat Section
PSTATSERIALNO	LABEL	16137	Pstat Serial Number
CTRLMODE	IQUANT	1	Control Mode
IESTAB	IQUANT	0	I/E Stability
CASPEED	IQUANT	1	Control Amp Speed
CONVENTION	IQUANT	1	Current Convention
ICHRANGE	IQUANT	2	Ich Range
ICHRANGEMODE	TOGGLE	F	Ich Auto Range
ICHOFFSETENABLE	TOGGLE	T	Ich Offset Enable
ICHOFFSET	QUANT	0	Ich Offset (V)
ICHFILTER	IQUANT	3	Ich Filter
VCHRANGE	IQUANT	2	Vch Range
VCHRANGEMODE	TOGGLE	F	Vch Auto Range
VCHOFFSETENABLE	TOGGLE	T	Vch Offset Enable
VCHOFFSET	QUANT	0	Vch Offset (V)
VCHFILTER	IQUANT	3	Vch Filter
ACHRANGE	IQUANT	2	Ach Range
ACHOFFSETENABLE	TOGGLE	F	Ach Offset Enable
ACHOFFSET	QUANT	0	Ach Offset (V)
ACHFILTER	IQUANT	3	Ach Filter
IERANGELOWERLIMIT	IQUANT	2	I/E Range Lower Limit
IERANGEMODE	TOGGLE	F	I/E AutoRange
IERANGE	IQUANT	11	I/E Range
POSFEEDENABLE	TOGGLE	F	Positive Feedback IR Comp
POSFEEDRESISTANCE	QUANT	0	Positive Feedback Resistance (ohm)
ACHSELECT	IQUANT	0	Ach Select
CABLEID	IQUANT	13	Cable ID
DCCALDATE	LABEL	9/10/2021	DC Calibration Date
ACCALDATE	LABEL	9/10/2021	AC Calibration Date
THERMOSELECT	IQUANT	1	Thermo Select
FRAMEWORKVERSION	QUANT	6.33	Framework Version
INSTRUMENTVERSION	LABEL	3.50	Instrument Version
COMPLIANCEVOLTAGE	IQUANT	0	Compliance Voltage
ZCURVE	TABLE
	Pt	Time	Freq	Zreal	Zimag	Zsig	Zmod	Zphz	Idc	Vdc	IERange
	#	s	Hz	ohm	ohm	V	ohm	°	A	V	#
	0	8	300046.9	186.3738	-9.93385	1	186.6384	-3.051017	1.505147E-005	-0.0013538	9
	1	13	238359.4	188.9111	-9.053038	1	189.1279	-2.743642	7.391189E-005	-0.0022149	9
	2	16	189328.1	191.1809	-8.41744	1	191.3661	-2.521029	-3.595325E-005	-0.0007652	9
	3	18	150421.9	192.5781	-6.665111	1	192.6934	-1.982211	1.562355E-005	-0.0011	9
	4	23	119484.4	195.8502	-7.77947	1	196.0046	-2.274681	-1.719143E-005	0.0008869	9
	5	25	94921.88	197.6159	-7.546359	1	197.7599	-2.186892	2.668143E-005	-0.0008799	9
	6	28	75421.88	199.7214	-7.345898	1	199.8565	-2.10643	1.221189E-006	0.0002766	9
	7	31	59859.37	201.7522	-7.319395	1	201.8849	-2.07773	-1.129611E-005	-0.0002736	9
	8	33	47578.12	204.0216	-7.344004	1	204.1538	-2.061541	1.128889E-005	-1.288007E-005	9
	9	36	37828.12	206.0219	-7.716172	1	206.1664	-2.144905	2.616408E-005	-0.0007072	9
	10	38	30046.88	208.3755	-7.781007	1	208.5208	-2.138504	-1.096313E-005	-0.0002662	9
	11	41	23859.38	210.6705	-8.248078	1	210.8319	-2.242074	1.553701E-006	0.0004067	9
	12	43	18984.38	212.9757	-8.529286	1	213.1464	-2.293366	-7.902014E-006	0.0006665	9
	13	45	15046.87	215.8253	-9.013261	1	216.0134	-2.391387	1.170686E-006	0.0003101	9
	14	48	11953.13	218.0591	-9.448069	1	218.2637	-2.480961	2.076691E-005	-0.0010775	9
	15	50	9515.62	220.3904	-9.9501	1	220.6149	-2.585013	2.507054E-005	-0.0010411	9
	16	52	7546.875	223.0376	-10.61159	1	223.2898	-2.723941	-1.096098E-005	-0.0002647	9
	17	55	5928.309	225.8407	-11.34024	1	226.1253	-2.874604	1.415557E-005	-0.0009921	9
	18	57	4733.456	228.2336	-11.86107	1	228.5415	-2.974927	-1.676145E-005	-4.835223E-005	9
	19	59	3796.875	231.3197	-12.66048	1	231.6659	-3.132761	-1.881628E-005	4.625569E-005	9
	20	62	2987.132	234.1585	-13.76653	1	234.5628	-3.364631	-2.52706E-006	-0.0005655	9
	21	64	2390.625	236.8792	-14.67481	1	237.3333	-3.544978	-2.44702E-005	0.0007132	9
	22	66	1884.191	240.4141	-16.7694	1	240.9983	-3.990041	2.579689E-005	-0.0007054	9
	23	70	1516.544	243.5899	-17.60738	1	244.2255	-4.134314	-1.700385E-005	-3.975088E-005	9
	24	73	1193.986	248.0399	-19.55676	1	248.8097	-4.508171	2.509145E-005	-0.001018	9
	25	77	946.5144	251.4145	-22.23725	1	252.396	-5.054576	2.688695E-005	-0.000859	9
	26	80	751.7689	255.3437	-25.12219	1	256.5765	-5.619007	1.395273E-005	-0.0009983	9
	27	84	597.4265	259.1111	-28.93736	1	260.722	-6.37235	1.48324E-005	-0.0010293	9
	28	86	477.4305	262.7231	-33.40293	1	264.838	-7.245779	3.045169E-007	-0.0001345	9
	29	88	376.6741	266.4078	-39.20982	1	269.2778	-8.372663	2.41867E-007	-0.0001366	9
	30	91	298.2954	270.2682	-46.3232	1	274.2093	-9.72583	3.527607E-007	-0.0001358	9
	31	93	237.7717	274.3995	-54.87374	1	279.8325	-11.30869	3.270354E-007	-0.0001331	9
	32	96	189.0121	278.8407	-65.5294	1	286.4371	-13.22491	3.777216E-007	-0.0001354	9
	33	98	150.2404	283.62	-78.66663	1	294.3276	-15.50222	3.250034E-007	-0.000132	9
	34	101	119.1737	288.7975	-95.0605	1	304.0403	-18.21946	2.677696E-007	-0.0001209	9
	35	103	95.0169	294.4198	-114.8314	1	316.021	-21.30708	2.496253E-007	-0.0001224	9
	36	105	75.60484	300.6873	-139.4417	1	331.4466	-24.87919	3.874657E-007	-0.0001313	9
	37	108	54.50582	310.1394	-184.9767	1	361.1133	-30.81314	3.795161E-007	-0.0001311	9
	38	111	45.95588	315.2514	-213.9669	1	381.0056	-34.16546	5.235031E-008	-0.0001281	8
	39	113	37.20238	323.6031	-257.9342	1	413.8225	-38.55728	7.913009E-008	-0.0001539	8
	40	115	30.04808	333.2414	-312.1001	1	456.5701	-43.12366	3.74743E-008	-0.0001066	8
	41	118	23.91582	345.0294	-383.1183	1	515.5821	-47.99437	4.67831E-008	-0.0001292	8
	42	120	18.60119	360.0694	-480.8362	1	600.7108	-53.17266	-1.837227E-009	-0.000123	8
	43	122	15.02404	375.612	-583.9456	1	694.3175	-57.24961	1.851251E-008	-0.0001477	8
	44	125	12.01923	395.1049	-715.7547	1	817.5651	-61.1008	4.414818E-008	-0.000113	8
	45	127	9.450605	420.3539	-891.9429	1	986.032	-64.76649	2.379414E-008	-0.000106	8
	46	130	7.512019	450.1071	-1100.852	1	1189.315	-67.76174	5.769317E-008	-9.368225E-005	8
	47	132	5.978954	486.2698	-1357.743	1	1442.194	-70.29523	7.071026E-008	-0.0001301	8
	48	135	4.734848	531.3796	-1683.869	1	1765.724	-72.48584	1.623175E-008	-0.0001396	8
	49	139	3.75601	588.4589	-2083.089	1	2164.612	-74.22536	5.84437E-008	-0.0001034	8
	50	142	3.004808	656.6539	-2557.101	1	2640.068	-75.59785	2.462949E-008	-0.0001322	8
	51	146	2.372217	749.2001	-3181.938	1	3268.95	-76.7508	3.238609E-008	-0.000187	8
	52	150	1.878005	857.3466	-3949.147	1	4041.14	-77.75135	4.734061E-008	-0.0001061	8
	53	155	1.512097	993.084	-4820.376	1	4921.61	-78.35891	-1.453599E-008	-0.0001432	7
	54	160	1.201923	1164.495	-5974.883	1	6087.305	-78.97141	1.753133E-009	-7.575244E-005	7
	55	167	0.956633	1385.966	-7374.285	1	7503.398	-79.35567	-1.126585E-008	-0.0006496	7
