EXPLAIN
TAG	EISPOT
TITLE	LABEL	Potentiostatic EIS	Test Identifier
DATE	LABEL	10/12/2021	Date
TIME	LABEL	15:51:40	Time
NOTES	NOTES	1	Notes...
	
PSTAT	PSTAT	REF3000-16137	Potentiostat
VDC	POTEN	0.00000E+000	T	DC Voltage (V)
FREQINIT	QUANT	3.00000E+005	Initial Freq. (Hz)
FREQFINAL	QUANT	1.00000E+000	Final Freq. (Hz)
PTSPERDEC	QUANT	1.00000E+001	Points/decade
VAC	QUANT	5.00000E+001	AC Voltage (mV rms)
AREA	QUANT	1.00000E+000	Sample Area (cm^2)
SPEED	SELECTOR	2	Optimize for:
ZGUESS	QUANT	1.00000E+003	Estimated Z (ohms)
EOC	QUANT	0	Open Circuit (V)
SEQUENCER	TOGGLE	TRUE	Run as Sequence
PSTATMODEL	IQUANT	5	Pstat Model
PSTATSECTION	LABEL	REF3000-16137	Pstat Section
PSTATSERIALNO	LABEL	16137	Pstat Serial Number
CTRLMODE	IQUANT	1	Control Mode
IESTAB	IQUANT	0	I/E Stability
CASPEED	IQUANT	1	Control Amp Speed
CONVENTION	IQUANT	1	Current Convention
ICHRANGE	IQUANT	2	Ich Range
ICHRANGEMODE	TOGGLE	F	Ich Auto Range
ICHOFFSETENABLE	TOGGLE	T	Ich Offset Enable
ICHOFFSET	QUANT	0	Ich Offset (V)
ICHFILTER	IQUANT	3	Ich Filter
VCHRANGE	IQUANT	2	Vch Range
VCHRANGEMODE	TOGGLE	F	Vch Auto Range
VCHOFFSETENABLE	TOGGLE	T	Vch Offset Enable
VCHOFFSET	QUANT	0	Vch Offset (V)
VCHFILTER	IQUANT	3	Vch Filter
ACHRANGE	IQUANT	2	Ach Range
ACHOFFSETENABLE	TOGGLE	F	Ach Offset Enable
ACHOFFSET	QUANT	0	Ach Offset (V)
ACHFILTER	IQUANT	3	Ach Filter
IERANGELOWERLIMIT	IQUANT	2	I/E Range Lower Limit
IERANGEMODE	TOGGLE	F	I/E AutoRange
IERANGE	IQUANT	11	I/E Range
POSFEEDENABLE	TOGGLE	F	Positive Feedback IR Comp
POSFEEDRESISTANCE	QUANT	0	Positive Feedback Resistance (ohm)
ACHSELECT	IQUANT	0	Ach Select
CABLEID	IQUANT	13	Cable ID
DCCALDATE	LABEL	9/10/2021	DC Calibration Date
ACCALDATE	LABEL	9/10/2021	AC Calibration Date
THERMOSELECT	IQUANT	1	Thermo Select
FRAMEWORKVERSION	QUANT	6.33	Framework Version
INSTRUMENTVERSION	LABEL	3.50	Instrument Version
COMPLIANCEVOLTAGE	IQUANT	0	Compliance Voltage
ZCURVE	TABLE
	Pt	Time	Freq	Zreal	Zimag	Zsig	Zmod	Zphz	Idc	Vdc	IERange
	#	s	Hz	ohm	ohm	V	ohm	°	A	V	#
	0	11	300046.9	3.345303	2.377186	1	4.103908	35.39776	3.646417E-005	-0.0008568	10
	1	14	238359.4	3.325083	1.891494	1	3.825432	29.63364	1.518631E-005	-0.0012687	10
	2	17	189328.1	3.301395	1.484946	1	3.619982	24.2179	2.710099E-005	-0.0009879	10
	3	19	150421.9	3.290007	1.168079	1	3.491211	19.54682	5.994379E-005	-0.0006813	10
	4	22	119484.4	3.287585	0.8907169	1	3.406111	15.15942	2.951141E-005	-0.0004607	10
	5	24	94921.88	3.307371	0.5363202	1	3.350573	9.210855	-6.405806E-005	-0.0003736	12
	6	28	75421.88	3.293763	0.4669259	1	3.326695	8.068523	-3.70386E-005	0.000305	11
	7	31	59859.37	3.2975	0.308403	1	3.31189	5.343121	-7.955929E-005	0.0002405	11
	8	33	47578.12	3.304502	0.1677345	1	3.308757	2.905804	-1.970602E-005	0.0003741	11
	9	36	37828.12	3.31261	0.0379437	1	3.312827	0.6562557	-8.082491E-005	0.0002693	11
	10	38	30046.88	3.322213	-0.0886015	1	3.323394	-1.527684	-5.730143E-005	0.0003169	11
	11	41	23859.38	3.335742	-0.2172517	1	3.34281	-3.726322	-6.574063E-005	0.0003264	11
	12	43	18984.38	3.349272	-0.3538737	1	3.367914	-6.031318	-5.35791E-005	0.0003819	11
	13	45	15046.87	3.364768	-0.5084819	1	3.402972	-8.593483	-4.469946E-005	0.0003483	11
	14	48	11953.13	3.384649	-0.6842656	1	3.453125	-11.42929	-1.961245E-005	0.0003892	11
	15	50	9515.62	3.409485	-0.889146	1	3.523517	-14.61639	-6.740545E-005	0.0003422	11
	16	52	7546.875	3.440649	-1.13877	1	3.624205	-18.31328	2.29297E-005	-0.0001431	10
	17	55	5928.309	3.477596	-1.45644	1	3.770264	-22.72426	-4.19768E-006	-0.0001198	10
	18	57	4733.456	3.520087	-1.818249	1	3.96195	-27.31795	2.318128E-005	-0.0001337	10
	19	59	3796.875	3.570665	-2.250648	1	4.22079	-32.22389	-3.031192E-005	-0.0001238	10
	20	62	2987.132	3.640237	-2.828345	1	4.609866	-37.84604	-1.31711E-005	-0.000155	10
	21	64	2390.625	3.718573	-3.489665	1	5.099564	-43.1811	-7.711285E-006	-0.0001377	10
	22	66	1884.191	3.824422	-4.364305	1	5.802875	-48.77205	-1.262634E-005	-0.0001094	10
	23	68	1516.544	3.944858	-5.344942	1	6.643064	-53.57065	-9.921103E-006	-0.0001208	10
	24	71	1193.986	4.108232	-6.675876	1	7.838679	-58.39249	2.304763E-005	-0.0001316	10
	25	73	946.5144	4.317536	-8.282175	1	9.339996	-62.46676	-6.60262E-006	-0.0001161	10
	26	76	751.7689	4.552044	-10.25902	1	11.22357	-66.07258	2.025013E-005	-0.0001326	10
	27	78	597.4265	4.858848	-12.69408	1	13.5922	-69.05491	5.887729E-006	-0.0001262	10
	28	80	477.4305	5.246706	-15.63589	1	16.49269	-71.45055	-1.157094E-006	-0.0001076	10
	29	83	376.6741	5.750956	-19.46564	1	20.2974	-73.54067	-6.475899E-007	-0.0001049	10
	30	85	298.2954	6.379719	-24.15394	1	24.98227	-75.2045	-1.078108E-006	-0.0001038	10
	31	87	237.7717	7.152878	-29.78461	1	30.63146	-76.49595	-1.309892E-006	-0.0001097	10
	32	90	189.0121	8.159201	-36.82931	1	37.72228	-77.50839	-1.344094E-006	-0.0001146	10
	33	92	150.2404	9.429954	-45.4527	1	46.4206	-78.27927	2.045581E-008	-0.0001292	9
	34	94	119.1737	11.12827	-56.28661	1	57.37613	-78.81644	5.267475E-008	-0.0001237	9
	35	97	95.0169	13.25656	-69.291	1	70.54771	-79.1692	6.263464E-008	-0.0001244	9
	36	99	75.60484	16.08456	-85.43473	1	86.93565	-79.33788	-7.923331E-008	-0.0001199	9
	37	102	54.50582	21.70506	-115.1052	1	117.1338	-79.32129	-2.566397E-008	-0.0001263	9
	38	104	45.95588	25.76412	-134.4176	1	136.8644	-79.14958	1.064374E-007	-0.0001196	9
	39	107	37.20238	32.00964	-162.6942	1	165.8132	-78.86938	6.456526E-008	-0.0001232	9
	40	109	30.04808	40.00298	-197.1069	1	201.1253	-78.5276	8.983569E-010	-0.0001209	9
	41	112	23.91582	51.69856	-241.67	1	247.1379	-77.92516	-3.6286E-008	-0.0001303	9
	42	114	18.60119	69.18705	-301.4713	1	309.3086	-77.07455	-3.556618E-009	-0.0001189	9
	43	116	15.02404	88.08019	-363.4223	1	373.9437	-76.3763	2.394958E-007	-0.0001246	9
	44	118	12.01923	115.0376	-439.4747	1	454.2815	-75.33128	4.574722E-007	-0.0001135	8
	45	121	9.450605	154.4721	-539.5022	1	561.1812	-74.02234	5.982807E-007	-9.478242E-005	8
	46	123	7.512019	204.3747	-654.2604	1	685.4383	-72.6525	7.260645E-007	-0.0001059	8
	47	126	5.978954	272.7685	-787.8865	1	833.7673	-70.90401	7.882035E-007	-0.0001087	8
	48	131	4.734848	368.3813	-945.5296	1	1014.757	-68.71396	9.251714E-007	-8.481021E-005	8
	49	136	3.75601	496.1461	-1121.892	1	1226.704	-66.14305	9.153553E-007	-0.0001268	8
	50	141	3.004808	656.4139	-1306.93	1	1462.513	-63.33162	9.458725E-007	-8.235824E-005	8
	51	147	2.372217	874.0232	-1514.213	1	1748.359	-60.00591	1.003039E-006	-4.024324E-005	8
	52	155	1.878005	1138.527	-1721.146	1	2063.635	-56.51561	1.060787E-006	-0.0001383	8
	53	164	1.512097	1435.441	-1900.105	1	2381.363	-52.93064	1.11593E-006	-3.991887E-005	8
	54	175	1.201923	1800.147	-2079.029	1	2750.071	-49.11204	1.135448E-006	-0.0001415	8
	55	188	0.956633	2201.32	-2221.644	1	3127.541	-45.26328	1.040468E-006	-0.0006661	8
