EXPLAIN
TAG	EISPOT
TITLE	LABEL	Potentiostatic EIS	Test Identifier
DATE	LABEL	10/12/2021	Date
TIME	LABEL	15:45:04	Time
NOTES	NOTES	1	Notes...
	
PSTAT	PSTAT	REF3000-16137	Potentiostat
VDC	POTEN	0.00000E+000	T	DC Voltage (V)
FREQINIT	QUANT	3.00000E+005	Initial Freq. (Hz)
FREQFINAL	QUANT	1.00000E+000	Final Freq. (Hz)
PTSPERDEC	QUANT	1.00000E+001	Points/decade
VAC	QUANT	5.00000E+001	AC Voltage (mV rms)
AREA	QUANT	1.00000E+000	Sample Area (cm^2)
SPEED	SELECTOR	2	Optimize for:
ZGUESS	QUANT	1.00000E+003	Estimated Z (ohms)
EOC	QUANT	0	Open Circuit (V)
SEQUENCER	TOGGLE	TRUE	Run as Sequence
PSTATMODEL	IQUANT	5	Pstat Model
PSTATSECTION	LABEL	REF3000-16137	Pstat Section
PSTATSERIALNO	LABEL	16137	Pstat Serial Number
CTRLMODE	IQUANT	1	Control Mode
IESTAB	IQUANT	0	I/E Stability
CASPEED	IQUANT	1	Control Amp Speed
CONVENTION	IQUANT	1	Current Convention
ICHRANGE	IQUANT	2	Ich Range
ICHRANGEMODE	TOGGLE	F	Ich Auto Range
ICHOFFSETENABLE	TOGGLE	T	Ich Offset Enable
ICHOFFSET	QUANT	0	Ich Offset (V)
ICHFILTER	IQUANT	3	Ich Filter
VCHRANGE	IQUANT	2	Vch Range
VCHRANGEMODE	TOGGLE	F	Vch Auto Range
VCHOFFSETENABLE	TOGGLE	T	Vch Offset Enable
VCHOFFSET	QUANT	0	Vch Offset (V)
VCHFILTER	IQUANT	3	Vch Filter
ACHRANGE	IQUANT	2	Ach Range
ACHOFFSETENABLE	TOGGLE	F	Ach Offset Enable
ACHOFFSET	QUANT	0	Ach Offset (V)
ACHFILTER	IQUANT	3	Ach Filter
IERANGELOWERLIMIT	IQUANT	2	I/E Range Lower Limit
IERANGEMODE	TOGGLE	F	I/E AutoRange
IERANGE	IQUANT	11	I/E Range
POSFEEDENABLE	TOGGLE	F	Positive Feedback IR Comp
POSFEEDRESISTANCE	QUANT	0	Positive Feedback Resistance (ohm)
ACHSELECT	IQUANT	0	Ach Select
CABLEID	IQUANT	13	Cable ID
DCCALDATE	LABEL	9/10/2021	DC Calibration Date
ACCALDATE	LABEL	9/10/2021	AC Calibration Date
THERMOSELECT	IQUANT	1	Thermo Select
FRAMEWORKVERSION	QUANT	6.33	Framework Version
INSTRUMENTVERSION	LABEL	3.50	Instrument Version
COMPLIANCEVOLTAGE	IQUANT	0	Compliance Voltage
ZCURVE	TABLE
	Pt	Time	Freq	Zreal	Zimag	Zsig	Zmod	Zphz	Idc	Vdc	IERange
	#	s	Hz	ohm	ohm	V	ohm	°	A	V	#
	0	10	300046.9	2.801874	2.387009	1	3.680802	40.42877	2.571205E-005	-0.0009187	10
	1	13	238359.4	2.777655	1.895859	1	3.362982	34.31508	4.136856E-005	-0.0012971	10
	2	17	189328.1	2.850988	1.274031	1	3.122705	24.07861	-2.815436E-005	-0.0009032	12
	3	20	150421.9	2.750487	1.147145	1	2.980121	22.63955	-2.806804E-005	0.0001371	11
	4	23	119484.4	2.74659	0.8819827	1	2.884727	17.80282	-4.636791E-005	0.0001916	11
	5	25	94921.88	2.742879	0.6597367	1	2.821105	13.52429	-5.695629E-005	0.0002321	11
	6	28	75421.88	2.742075	0.4768612	1	2.783231	9.86537	-2.677752E-005	0.0002765	11
	7	30	59859.37	2.744269	0.3178603	1	2.762616	6.606955	-3.747471E-005	0.0003002	11
	8	33	47578.12	2.749521	0.1790827	1	2.755347	3.726544	-6.310546E-005	0.0003171	11
	9	35	37828.12	2.756252	0.050652	1	2.756717	1.052814	-7.755979E-005	0.0003329	11
	10	38	30046.88	2.763632	-0.074081	1	2.764625	-1.535484	-8.729192E-005	0.0003085	11
	11	40	23859.38	2.773968	-0.2006979	1	2.781219	-4.138167	-2.974965E-005	0.0003747	11
	12	43	18984.38	2.785414	-0.3342465	1	2.805397	-6.842708	-6.738556E-005	0.0003289	11
	13	45	15046.87	2.801019	-0.484971	1	2.842693	-9.82286	-1.733347E-005	0.0004076	11
	14	47	11953.13	2.818857	-0.6558002	1	2.894137	-13.09675	-1.955516E-005	0.000399	11
	15	50	9515.62	2.839479	-0.8542936	1	2.965208	-16.74459	-8.230945E-005	0.0003341	11
	16	52	7546.875	2.866641	-1.095151	1	3.068711	-20.90849	-1.080818E-005	0.0003927	11
	17	54	5928.309	2.901421	-1.402059	1	3.222424	-25.79131	-5.338372E-005	0.0003632	11
	18	57	4733.456	2.942182	-1.750779	1	3.423691	-30.75525	-8.219173E-005	0.0003482	11
	19	59	3796.875	2.990798	-2.167077	1	3.693386	-35.92638	-1.161854E-005	0.0004053	11
	20	61	2987.132	3.060262	-2.724325	1	4.097213	-41.67631	-2.164162E-005	-0.0001155	10
	21	64	2390.625	3.136113	-3.362397	1	4.597926	-46.99429	-1.75754E-005	-0.0001742	10
	22	66	1884.191	3.239667	-4.2028	1	5.306503	-52.37369	-2.366144E-005	-0.000112	10
	23	68	1516.544	3.356637	-5.145658	1	6.14368	-56.88262	2.106547E-005	-0.000132	10
	24	71	1193.986	3.517953	-6.42739	1	7.327164	-61.30645	-8.345618E-006	-0.0001308	10
	25	73	946.5144	3.709887	-7.977275	1	8.797737	-65.05889	1.98202E-005	-0.0001228	10
	26	75	751.7689	3.958308	-9.87331	1	10.63722	-68.15366	-2.41065E-005	-0.000116	10
	27	78	597.4265	4.269821	-12.21758	1	12.9422	-70.73641	-1.209518E-005	-0.0001618	10
	28	80	477.4305	4.655684	-15.03982	1	15.74394	-72.79971	5.103126E-007	-0.0001142	10
	29	82	376.6741	5.171254	-18.71897	1	19.42014	-74.55679	2.230023E-007	-0.0001163	10
	30	85	298.2954	5.82284	-23.22021	1	23.93917	-75.92245	1.101704E-007	-0.0001104	10
	31	87	237.7717	6.63767	-28.62202	1	29.3816	-76.94346	-6.322588E-007	-0.0001119	10
	32	89	189.0121	7.712079	-35.36252	1	36.1937	-77.69721	-1.908681E-007	-0.0001123	10
	33	92	150.2404	9.095622	-43.60565	1	44.54417	-78.21772	1.170648E-007	-0.0001318	9
	34	94	119.1737	10.96346	-53.92041	1	55.0237	-78.50691	1.974879E-007	-0.0001296	9
	35	97	95.0169	13.34258	-66.28494	1	67.61448	-78.61895	1.702695E-007	-0.0001302	9
	36	99	75.60484	16.53778	-81.56695	1	83.22659	-78.53859	7.958058E-008	-0.0001314	9
	37	102	54.50582	23.01539	-109.5282	1	111.9202	-78.13298	2.238265E-007	-0.0001374	9
	38	104	45.95588	27.72908	-127.5618	1	130.5408	-77.73597	2.076015E-007	-0.0001233	9
	39	107	37.20238	35.1084	-153.9414	1	157.8942	-77.15266	2.797814E-007	-0.0001302	9
	40	109	30.04808	44.75788	-185.7934	1	191.1085	-76.45544	2.480787E-007	-0.0001299	9
	41	111	23.91582	58.82961	-226.2077	1	233.7324	-75.42208	1.626034E-007	-0.0001285	9
	42	114	18.60119	80.61185	-280.2924	1	291.6541	-73.95481	3.051707E-007	-0.0001286	9
	43	116	15.02404	104.7203	-335.4525	1	351.4181	-72.66287	5.835957E-007	-0.0001355	9
	44	118	12.01923	138.5959	-400.5029	1	423.8058	-70.91158	9.047339E-007	-0.0001224	8
	45	121	9.450605	188.5112	-483.429	1	518.8835	-68.6969	1.221021E-006	-0.000129	8
	46	124	7.512019	253.1654	-572.4761	1	625.9565	-66.14361	1.334329E-006	-0.0001271	8
	47	127	5.978954	337.0332	-668.5195	1	748.672	-63.2451	1.420553E-006	-0.0001226	8
	48	131	4.734848	447.6201	-771.1646	1	891.6605	-59.86711	1.503521E-006	-0.0001262	8
	49	136	3.75601	582.7827	-870.7993	1	1047.82	-56.20757	1.72097E-006	-0.0001043	8
	50	141	3.004808	737.6285	-960.856	1	1211.338	-52.48732	1.707954E-006	-0.0000955	8
	51	148	2.372217	925.4521	-1040.544	1	1392.549	-48.35034	1.787365E-006	-0.0001223	8
	52	155	1.878005	1132.071	-1108.925	1	1584.708	-44.40825	1.988514E-006	-0.0001236	8
	53	164	1.512097	1336.043	-1149.023	1	1762.176	-40.69616	1.90854E-006	-6.780503E-005	8
	54	175	1.201923	1564.621	-1172.077	1	1954.943	-36.83733	1.898492E-006	-0.0001142	8
	55	188	0.956633	1790.953	-1177.076	1	2143.133	-33.3143	1.563468E-006	-0.0006666	8
