EXPLAIN
TAG	EISPOT
TITLE	LABEL	Potentiostatic EIS	Test Identifier
DATE	LABEL	9/23/2020	Date
TIME	LABEL	13:21:13	Time
NOTES	NOTES	1	Notes...
	
PSTAT	PSTAT	REF3000-16137	Potentiostat
VDC	POTEN	0.00000E+000	T	DC Voltage (V)
FREQINIT	QUANT	3.00000E+005	Initial Freq. (Hz)
FREQFINAL	QUANT	1.00000E+000	Final Freq. (Hz)
PTSPERDEC	QUANT	1.00000E+001	Points/decade
VAC	QUANT	5.00000E+001	AC Voltage (mV rms)
AREA	QUANT	1.00000E+000	Sample Area (cm^2)
SPEED	SELECTOR	2	Optimize for:
ZGUESS	QUANT	1.00000E+003	Estimated Z (ohms)
EOC	QUANT	0	Open Circuit (V)
SEQUENCER	TOGGLE	TRUE	Run as Sequence
PSTATMODEL	IQUANT	5	Pstat Model
PSTATSECTION	LABEL	REF3000-16137	Pstat Section
PSTATSERIALNO	LABEL	16137	Pstat Serial Number
CTRLMODE	IQUANT	1	Control Mode
IESTAB	IQUANT	0	I/E Stability
CASPEED	IQUANT	1	Control Amp Speed
CONVENTION	IQUANT	1	Current Convention
ICHRANGE	IQUANT	2	Ich Range
ICHRANGEMODE	TOGGLE	F	Ich Auto Range
ICHOFFSETENABLE	TOGGLE	T	Ich Offset Enable
ICHOFFSET	QUANT	0	Ich Offset (V)
ICHFILTER	IQUANT	3	Ich Filter
VCHRANGE	IQUANT	2	Vch Range
VCHRANGEMODE	TOGGLE	F	Vch Auto Range
VCHOFFSETENABLE	TOGGLE	T	Vch Offset Enable
VCHOFFSET	QUANT	0	Vch Offset (V)
VCHFILTER	IQUANT	3	Vch Filter
ACHRANGE	IQUANT	2	Ach Range
ACHOFFSETENABLE	TOGGLE	F	Ach Offset Enable
ACHOFFSET	QUANT	0	Ach Offset (V)
ACHFILTER	IQUANT	3	Ach Filter
IERANGELOWERLIMIT	IQUANT	2	I/E Range Lower Limit
IERANGEMODE	TOGGLE	F	I/E AutoRange
IERANGE	IQUANT	11	I/E Range
POSFEEDENABLE	TOGGLE	F	Positive Feedback IR Comp
POSFEEDRESISTANCE	QUANT	0	Positive Feedback Resistance (ohm)
ACHSELECT	IQUANT	0	Ach Select
CABLEID	IQUANT	13	Cable ID
DCCALDATE	LABEL	7/31/2020	DC Calibration Date
ACCALDATE	LABEL	7/31/2020	AC Calibration Date
THERMOSELECT	IQUANT	1	Thermo Select
FRAMEWORKVERSION	QUANT	6.33	Framework Version
INSTRUMENTVERSION	LABEL	3.50	Instrument Version
COMPLIANCEVOLTAGE	IQUANT	0	Compliance Voltage
ZCURVE	TABLE
	Pt	Time	Freq	Zreal	Zimag	Zsig	Zmod	Zphz	Idc	Vdc	IERange
	#	s	Hz	ohm	ohm	V	ohm	°	A	V	#
	0	14	300046.9	1505.146	-902.575	1	1755.024	-30.9494	-1.674379E-005	0.001125	9
	1	31	238359.4	1665.359	-816.6243	1	1854.804	-26.12144	8.939016E-005	-0.0026576	9
	2	48	189328.1	1802.339	-710.8588	1	1937.458	-21.52473	1.712358E-005	-0.0020842	9
	3	58	150421.9	1916.237	-599.3502	1	2007.781	-17.36836	-1.460642E-005	0.0017495	9
	4	65	119484.4	2002.891	-447.8113	1	2052.342	-12.60306	6.798927E-005	-0.0209334	8
	5	71	94921.88	2050.061	-373.8154	1	2083.863	-10.33399	-2.045724E-005	0.0096596	8
	6	75	75421.88	2080.882	-307.5758	1	2103.49	-8.408028	-8.740251E-006	0.0084827	8
	7	78	59859.37	2102.405	-250.5084	1	2117.277	-6.794941	5.601198E-006	-0.0062669	8
	8	82	47578.12	2125.851	-203.1844	1	2135.539	-5.459626	-2.145654E-005	0.0051975	8
	9	85	37828.12	2133.971	-170.9132	1	2140.805	-4.579138	-2.275959E-005	0.0086296	8
	10	89	30046.88	2140.488	-142.9746	1	2145.258	-3.821414	2.312528E-005	-0.0048301	8
	11	95	23859.38	2150.99	-121.3435	1	2154.41	-3.228796	2.393861E-005	-0.0068071	8
	12	99	18984.38	2157.933	-97.2359	1	2160.122	-2.579989	-2.276465E-005	0.0070145	8
	13	104	15046.87	2169.589	-87.41038	1	2171.349	-2.307136	2.358259E-005	-0.0067046	8
	14	107	11953.13	2174.844	-72.97852	1	2176.068	-1.921882	5.577441E-006	-0.0062732	8
	15	111	9515.62	2178.332	-70.96519	1	2179.488	-1.865909	-1.6025E-005	0.0097111	8
	16	114	7546.875	2187.878	-67.04114	1	2188.905	-1.755113	5.597532E-006	-0.0062743	8
	17	118	5928.309	2192.648	-59.38643	1	2193.452	-1.551439	2.115623E-005	-0.0029326	8
	18	122	4733.456	2203.501	-63.68178	1	2204.421	-1.655403	-2.627322E-007	0.0063247	8
	19	127	3796.875	2207.737	-66.20384	1	2208.729	-1.717625	-2.133641E-005	0.0051748	8
	20	130	2987.132	2217.822	-71.9825	1	2218.99	-1.858962	-2.28335E-007	0.0063044	8
	21	135	2390.625	2232.062	-77.05029	1	2233.391	-1.977053	2.161212E-005	-0.0030048	8
	22	139	1884.191	2227.534	-100.865	1	2229.816	-2.59264	8.653748E-006	0.0031757	8
	23	143	1516.544	2254.689	-97.543	1	2256.798	-2.477201	2.229232E-005	-0.0079019	8
	24	147	1193.986	2261.787	-110.8264	1	2264.5	-2.805222	5.730545E-006	-0.006305	8
	25	152	946.5144	2298.943	-129.3603	1	2302.58	-3.220607	2.343509E-005	-0.0049688	8
	26	154	751.7689	2288.619	-161.0618	1	2294.279	-4.025558	1.63361E-005	-0.0002345	8
	27	157	597.4265	2314.846	-164.2271	1	2320.664	-4.058059	2.319919E-005	-0.004881	8
	28	159	477.4305	2329.143	-204.8889	1	2338.137	-5.027228	-2.653549E-007	0.0006205	8
	29	162	376.6741	2350.736	-238.917	1	2362.845	-5.803329	-2.648775E-007	0.0006139	8
	30	164	298.2954	2375.145	-278.3944	1	2391.405	-6.685222	-2.85117E-007	0.0006525	8
	31	166	237.7717	2401.361	-323.8412	1	2423.099	-7.680421	-3.065655E-007	0.000641	8
	32	169	189.0121	2431.283	-378.3229	1	2460.542	-8.84465	-2.781017E-007	0.0006279	8
	33	171	150.2404	2464.72	-442.8339	1	2504.186	-10.18561	-3.003248E-007	0.0006355	8
	34	174	119.1737	2502.84	-520.5377	1	2556.398	-11.74882	-2.821736E-007	0.0006266	8
	35	176	95.0169	2545.343	-611.2974	1	2617.719	-13.50457	-2.666139E-007	0.0006166	8
	36	179	75.60484	2594.379	-720.6729	1	2692.615	-15.52436	-2.837542E-007	0.0006415	8
	37	181	54.50582	2676.191	-916.1414	1	2828.66	-18.89763	-2.901847E-007	0.0006378	8
	38	184	45.95588	2727.696	-1039.687	1	2919.122	-20.86482	-2.838541E-007	0.0006212	8
	39	186	37.20238	2799.35	-1218.898	1	3053.207	-23.52936	-2.819763E-007	0.0006406	8
	40	188	30.04808	2883.903	-1432.55	1	3220.108	-26.41543	-2.800218E-007	0.0006301	8
	41	191	23.91582	2989.959	-1705.408	1	3442.132	-29.6995	-2.600561E-007	0.0006313	8
	42	193	18.60119	3131.632	-2069.026	1	3753.397	-33.45218	-2.624653E-007	0.0006678	8
	43	195	15.02404	3284.294	-2441.064	1	4092.112	-36.62172	-4.424185E-008	0.0006214	7
	44	198	12.01923	3466.794	-2899.007	1	4519.17	-39.90308	-2.154967E-008	0.0005852	7
	45	200	9.450605	3700.325	-3488.398	1	5085.403	-43.31139	-8.43802E-008	0.0006426	7
	46	203	7.512019	3981.265	-4160.41	1	5758.427	-46.2605	-4.158774E-008	0.0006417	7
	47	205	5.978954	4313.661	-4952.948	1	6568.056	-48.94648	-4.164404E-008	0.0006444	7
	48	208	4.734848	4738.814	-5911.582	1	7576.487	-51.2838	-4.877764E-008	0.0006133	7
	49	212	3.75601	5248.129	-7038.046	1	8779.348	-53.28885	-6.695316E-008	0.0006001	7
	50	215	3.004808	5839.528	-8310.766	1	10157.21	-54.90635	-7.355218E-008	0.0006119	7
	51	219	2.372217	6623.074	-9890.59	1	11903.31	-56.19238	-5.941938E-008	0.0006818	7
	52	223	1.878005	7531.115	-11741.24	1	13948.99	-57.3229	-7.001472E-008	0.0005861	7
	53	228	1.512097	8555.364	-13700.55	1	16152.38	-58.01712	-6.576587E-008	0.0006584	7
	54	233	1.201923	9879.7	-16175.32	1	18953.88	-58.58389	-6.127851E-008	0.0005746	7
	55	239	0.956633	11449.98	-19019.04	1	22199.68	-58.95091	-7.511194E-008	-3.671715E-005	7
