EXPLAIN
TAG	EISPOT
TITLE	LABEL	Potentiostatic EIS	Test Identifier
DATE	LABEL	9/23/2020	Date
TIME	LABEL	15:02:36	Time
NOTES	NOTES	1	Notes...
	
PSTAT	PSTAT	REF3000-16137	Potentiostat
VDC	POTEN	0.00000E+000	T	DC Voltage (V)
FREQINIT	QUANT	3.00000E+005	Initial Freq. (Hz)
FREQFINAL	QUANT	1.00000E+000	Final Freq. (Hz)
PTSPERDEC	QUANT	1.00000E+001	Points/decade
VAC	QUANT	5.00000E+001	AC Voltage (mV rms)
AREA	QUANT	1.00000E+000	Sample Area (cm^2)
SPEED	SELECTOR	2	Optimize for:
ZGUESS	QUANT	1.00000E+003	Estimated Z (ohms)
EOC	QUANT	0	Open Circuit (V)
SEQUENCER	TOGGLE	TRUE	Run as Sequence
PSTATMODEL	IQUANT	5	Pstat Model
PSTATSECTION	LABEL	REF3000-16137	Pstat Section
PSTATSERIALNO	LABEL	16137	Pstat Serial Number
CTRLMODE	IQUANT	1	Control Mode
IESTAB	IQUANT	0	I/E Stability
CASPEED	IQUANT	1	Control Amp Speed
CONVENTION	IQUANT	1	Current Convention
ICHRANGE	IQUANT	2	Ich Range
ICHRANGEMODE	TOGGLE	F	Ich Auto Range
ICHOFFSETENABLE	TOGGLE	T	Ich Offset Enable
ICHOFFSET	QUANT	0	Ich Offset (V)
ICHFILTER	IQUANT	3	Ich Filter
VCHRANGE	IQUANT	2	Vch Range
VCHRANGEMODE	TOGGLE	F	Vch Auto Range
VCHOFFSETENABLE	TOGGLE	T	Vch Offset Enable
VCHOFFSET	QUANT	0	Vch Offset (V)
VCHFILTER	IQUANT	3	Vch Filter
ACHRANGE	IQUANT	2	Ach Range
ACHOFFSETENABLE	TOGGLE	F	Ach Offset Enable
ACHOFFSET	QUANT	0	Ach Offset (V)
ACHFILTER	IQUANT	3	Ach Filter
IERANGELOWERLIMIT	IQUANT	2	I/E Range Lower Limit
IERANGEMODE	TOGGLE	F	I/E AutoRange
IERANGE	IQUANT	11	I/E Range
POSFEEDENABLE	TOGGLE	F	Positive Feedback IR Comp
POSFEEDRESISTANCE	QUANT	0	Positive Feedback Resistance (ohm)
ACHSELECT	IQUANT	0	Ach Select
CABLEID	IQUANT	13	Cable ID
DCCALDATE	LABEL	7/31/2020	DC Calibration Date
ACCALDATE	LABEL	7/31/2020	AC Calibration Date
THERMOSELECT	IQUANT	1	Thermo Select
FRAMEWORKVERSION	QUANT	6.33	Framework Version
INSTRUMENTVERSION	LABEL	3.50	Instrument Version
COMPLIANCEVOLTAGE	IQUANT	0	Compliance Voltage
ZCURVE	TABLE
	Pt	Time	Freq	Zreal	Zimag	Zsig	Zmod	Zphz	Idc	Vdc	IERange
	#	s	Hz	ohm	ohm	V	ohm	°	A	V	#
	0	14	300046.9	415.4276	-3981.987	1	4003.598	-84.04407	2.024448E-005	-0.0004922	9
	1	28	238359.4	637.0118	-4830.2	1	4872.023	-82.48713	-2.237805E-005	0.0015243	9
	2	42	189328.1	766.1253	-5932.411	1	5981.676	-82.64142	-1.497947E-005	0.0018224	9
	3	50	150421.9	1081.488	-7395.782	1	7474.437	-81.68058	-2.074323E-005	0.0011621	9
	4	57	119484.4	2055.813	-8898.386	1	9132.778	-76.99108	3.983165E-005	-0.0183221	8
	5	66	94921.88	2612.491	-10824.29	1	11135.09	-76.43091	-1.951338E-005	0.0112738	8
	6	74	75421.88	3118.088	-13457.34	1	13813.85	-76.95467	2.958724E-005	-0.0007202	9
	7	83	59859.37	4456.019	-16331.03	1	16928.05	-74.73802	-2.372015E-005	0.0052904	8
	8	92	47578.12	6744.95	-20121.69	1	21222.09	-71.46844	-1.372603E-006	-0.0049723	8
	9	101	37828.12	11020.5	-23885.31	1	26305.12	-65.23177	5.143815E-006	-0.0256532	7
	10	107	30046.88	14115.31	-28312.77	1	31636.29	-63.50149	4.448926E-007	0.0155353	7
	11	115	23859.38	15778.12	-34369.63	1	37818.26	-65.34148	2.586763E-005	-0.0052452	8
	12	121	18984.38	22988.09	-39865.24	1	46018.36	-60.03032	-1.901631E-006	0.0075637	8
	13	127	15046.87	32150.69	-43318.85	1	53946.18	-53.41768	-3.522962E-006	0.0241586	7
	14	133	11953.13	41052.61	-47388.18	1	62697.34	-49.09746	-6.97649E-006	0.0227825	7
	15	138	9515.62	51770.81	-49501.47	1	71628.3	-43.71631	-6.470604E-006	0.011726	7
	16	143	7546.875	64482.6	-48760.88	1	80843.23	-37.09608	-6.265371E-006	0.024853	7
	17	150	5928.309	74899.12	-48464.02	1	89211.2	-32.90518	-1.687667E-006	0.0211103	7
	18	155	4733.456	84357.48	-39373.62	1	93093.86	-25.02068	-1.697808E-006	0.0209985	7
	19	161	3796.875	94986.59	-36058.38	1	101600.5	-20.78754	-4.805121E-006	0.0246679	7
	20	167	2987.132	95534.2	-35226.78	1	101822	-20.24068	-1.645454E-006	0.0209668	7
	21	172	2390.625	100177.7	-25865.53	1	103463	-14.47738	6.543304E-006	-0.0259871	7
	22	178	1884.191	105895.9	-23411.22	1	108452.8	-12.46631	-1.895047E-006	0.0076288	8
	23	185	1516.544	106960.9	-13426.47	1	107800.3	-7.154741	4.704736E-006	-0.0006886	7
	24	191	1193.986	111231.9	-16781.61	1	112490.7	-8.579535	6.326427E-006	-0.009752	7
	25	196	946.5144	119554.8	-18833.64	1	121029.2	-8.952317	1.217961E-006	-0.0194833	7
	26	200	751.7689	113178.2	-8550.091	1	113500.7	-4.320226	-8.599105E-009	0.0171777	6
	27	203	597.4265	114644.3	-5824.269	1	114792.1	-2.908295	-7.292138E-007	0.0223161	6
	28	205	477.4305	113638.2	-5821.657	1	113787.2	-2.932685	-1.15315E-008	0.0007036	6
	29	207	376.6741	114069.4	-5051.354	1	114181.2	-2.535582	-1.08374E-008	0.0006949	6
	30	210	298.2954	114359.4	-4453.568	1	114446.1	-2.230178	-1.014651E-008	0.0006063	6
	31	212	237.7717	114881	-4131.482	1	114955.3	-2.059649	-1.026305E-008	0.0006471	6
	32	215	189.0121	115310.2	-3952.686	1	115378	-1.963257	-1.031316E-008	0.0007049	6
	33	217	150.2404	115804.1	-3775.348	1	115865.6	-1.867248	-9.731193E-009	0.0006317	6
	34	220	119.1737	116137.2	-3432.239	1	116187.9	-1.692787	-1.102687E-008	0.0006862	6
	35	222	95.0169	116918.1	-4050.359	1	116988.2	-1.984087	-9.37392E-009	0.0006876	6
	36	225	75.60484	117426.9	-4420.246	1	117510.1	-2.15574	-8.620441E-009	0.000609	6
	37	227	54.50582	118331.6	-5259.912	1	118448.4	-2.545158	-1.065733E-008	0.0005962	6
	38	230	45.95588	118847.7	-5289.948	1	118965.4	-2.54857	-8.626688E-009	0.0007039	6
	39	232	37.20238	119604.6	-5877.612	1	119748.9	-2.813367	-8.642209E-009	0.0006436	6
	40	235	30.04808	120420.1	-6630.64	1	120602.6	-3.151669	-9.992386E-009	0.0006271	6
	41	237	23.91582	121316.2	-7596.138	1	121553.8	-3.582862	-8.350106E-009	0.0006995	6
	42	240	18.60119	122502	-8539.612	1	122799.2	-3.987638	-1.543361E-008	0.0006202	6
	43	242	15.02404	123552.4	-9709.17	1	123933.3	-4.493265	-1.543713E-008	0.0006129	6
	44	245	12.01923	124769.8	-11011.49	1	125254.8	-5.043539	-1.621975E-008	0.0006955	6
	45	247	9.450605	126109.7	-13012.15	1	126779.2	-5.891002	-1.466971E-008	0.0006003	6
	46	250	7.512019	127786.6	-14767.3	1	128637	-6.591987	-1.10939E-008	0.0006722	6
	47	253	5.978954	129550	-16986.35	1	130658.9	-7.469899	-6.801578E-009	0.0006179	6
	48	257	4.734848	131605.4	-19834.06	1	133091.6	-8.570462	-1.635712E-008	0.0006738	6
	49	260	3.75601	133924.6	-22765.79	1	135845.7	-9.64747	-6.712241E-009	0.0006695	6
	50	266	3.004808	136628.2	-26278.43	1	139132.4	-10.88706	-6.812879E-009	0.000664	6
	51	272	2.372217	139568.1	-30621.9	1	142887.9	-12.37488	-7.789368E-009	0.0005831	6
	52	276	1.878005	142851.5	-35999.42	1	147317.7	-14.14436	-5.216674E-009	0.0006573	6
	53	281	1.512097	146267	-41719.61	1	152100.5	-15.91969	-5.686532E-009	0.0005995	6
	54	287	1.201923	150220	-48749.14	1	157932	-17.97919	-9.256026E-009	0.0006806	6
	55	293	0.956633	155402	-57407.92	1	165666.7	-20.27502	-1.425609E-008	8.472505E-006	6
