EXPLAIN
TAG	EISPOT
TITLE	LABEL	Potentiostatic EIS	Test Identifier
DATE	LABEL	9/23/2020	Date
TIME	LABEL	15:34:34	Time
NOTES	NOTES	1	Notes...
	
PSTAT	PSTAT	REF3000-16137	Potentiostat
VDC	POTEN	0.00000E+000	T	DC Voltage (V)
FREQINIT	QUANT	3.00000E+005	Initial Freq. (Hz)
FREQFINAL	QUANT	1.00000E+000	Final Freq. (Hz)
PTSPERDEC	QUANT	1.00000E+001	Points/decade
VAC	QUANT	5.00000E+001	AC Voltage (mV rms)
AREA	QUANT	1.00000E+000	Sample Area (cm^2)
SPEED	SELECTOR	2	Optimize for:
ZGUESS	QUANT	1.00000E+003	Estimated Z (ohms)
EOC	QUANT	0	Open Circuit (V)
SEQUENCER	TOGGLE	TRUE	Run as Sequence
PSTATMODEL	IQUANT	5	Pstat Model
PSTATSECTION	LABEL	REF3000-16137	Pstat Section
PSTATSERIALNO	LABEL	16137	Pstat Serial Number
CTRLMODE	IQUANT	1	Control Mode
IESTAB	IQUANT	0	I/E Stability
CASPEED	IQUANT	1	Control Amp Speed
CONVENTION	IQUANT	1	Current Convention
ICHRANGE	IQUANT	2	Ich Range
ICHRANGEMODE	TOGGLE	F	Ich Auto Range
ICHOFFSETENABLE	TOGGLE	T	Ich Offset Enable
ICHOFFSET	QUANT	0	Ich Offset (V)
ICHFILTER	IQUANT	3	Ich Filter
VCHRANGE	IQUANT	2	Vch Range
VCHRANGEMODE	TOGGLE	F	Vch Auto Range
VCHOFFSETENABLE	TOGGLE	T	Vch Offset Enable
VCHOFFSET	QUANT	0	Vch Offset (V)
VCHFILTER	IQUANT	3	Vch Filter
ACHRANGE	IQUANT	2	Ach Range
ACHOFFSETENABLE	TOGGLE	F	Ach Offset Enable
ACHOFFSET	QUANT	0	Ach Offset (V)
ACHFILTER	IQUANT	3	Ach Filter
IERANGELOWERLIMIT	IQUANT	2	I/E Range Lower Limit
IERANGEMODE	TOGGLE	F	I/E AutoRange
IERANGE	IQUANT	11	I/E Range
POSFEEDENABLE	TOGGLE	F	Positive Feedback IR Comp
POSFEEDRESISTANCE	QUANT	0	Positive Feedback Resistance (ohm)
ACHSELECT	IQUANT	0	Ach Select
CABLEID	IQUANT	13	Cable ID
DCCALDATE	LABEL	7/31/2020	DC Calibration Date
ACCALDATE	LABEL	7/31/2020	AC Calibration Date
THERMOSELECT	IQUANT	1	Thermo Select
FRAMEWORKVERSION	QUANT	6.33	Framework Version
INSTRUMENTVERSION	LABEL	3.50	Instrument Version
COMPLIANCEVOLTAGE	IQUANT	0	Compliance Voltage
ZCURVE	TABLE
	Pt	Time	Freq	Zreal	Zimag	Zsig	Zmod	Zphz	Idc	Vdc	IERange
	#	s	Hz	ohm	ohm	V	ohm	°	A	V	#
	0	14	300046.9	125.9397	-4279.252	1	4281.105	-88.31425	2.910484E-005	-0.0021764	9
	1	28	238359.4	232.3257	-5223.459	1	5228.623	-87.45332	-1.482912E-007	-0.0020985	9
	2	42	189328.1	535.5414	-6454.848	1	6477.026	-85.25719	2.632471E-005	0.001103	9
	3	55	150421.9	339.9924	-7830.72	1	7838.097	-87.51391	1.982708E-005	-0.0008713	9
	4	63	119484.4	1076.261	-9983.68	1	10041.52	-83.84716	6.50646E-005	-0.0255588	8
	5	70	94921.88	1323.49	-12405.12	1	12475.52	-83.9102	-1.981581E-005	0.0113587	8
	6	79	75421.88	1860.661	-15566.96	1	15677.76	-83.18398	-2.07085E-006	0.00769	8
	7	87	59859.37	2124.604	-19222.6	1	19339.65	-83.6929	-2.041747E-006	0.0077153	8
	8	96	47578.12	5783.24	-24891.1	1	25554.11	-76.91987	-6.375768E-006	0.0253927	7
	9	102	37828.12	6955.151	-30182.36	1	30973.36	-77.02342	-3.441715E-006	-0.0045647	7
	10	110	30046.88	8536.938	-37165.04	1	38132.92	-77.06338	-6.5971E-006	0.0119382	7
	11	117	23859.38	10229.48	-45407.04	1	46545.04	-77.30413	7.272107E-006	-0.0178926	7
	12	123	18984.38	11424.71	-55644.46	1	56805.2	-78.39749	1.761941E-005	0.0002617	8
	13	129	15046.87	17160.47	-69439.14	1	71528.15	-76.11865	2.727405E-006	0.0081464	7
	14	134	11953.13	22732.23	-84157.97	1	87174.07	-74.88435	-1.547277E-006	-0.0051247	8
	15	142	9515.62	28157.89	-103124.1	1	106899.2	-74.72775	7.442318E-006	-0.0182734	7
	16	148	7546.875	38863.77	-127756.2	1	133536.6	-73.0801	-6.59045E-006	0.0118917	7
	17	155	5928.309	54657.57	-151957	1	161488	-70.2168	7.410812E-006	-0.0181417	7
	18	161	4733.456	63140.33	-182411.2	1	193029.9	-70.90707	-1.116774E-006	-0.0127647	7
	19	167	3796.875	122980	-218504.5	1	250735.5	-60.62807	-5.511793E-007	0.026022	6
	20	171	2987.132	108959.3	-230340.1	1	254811.1	-64.68413	-9.632303E-006	-0.0020918	8
	21	179	2390.625	193026	-308317.4	1	363756.3	-57.95085	-6.575316E-006	0.0117922	7
	22	186	1884.191	205640.2	-306139.1	1	368794.1	-56.1099	5.411275E-007	0.0156993	7
	23	193	1516.544	340671.4	-343653.2	1	483895.2	-45.24965	-5.510776E-007	0.0260939	6
	24	198	1193.986	411143.9	-358809	1	545695.2	-41.1115	-7.187233E-007	0.0171889	6
	25	204	946.5144	501123.3	-404781.5	1	644183.7	-38.92949	4.219782E-007	0.0015741	6
	26	207	751.7689	606282.4	-272423.7	1	664675.1	-24.19603	3.83785E-009	0.0164404	6
	27	211	597.4265	591246.9	-307324.3	1	666349.1	-27.46497	5.621493E-007	-0.026584	6
	28	215	477.4305	662311.8	-243521.2	1	705662.4	-20.18764	-1.000723E-008	0.0006845	6
	29	218	376.6741	743185.9	-139582.7	1	756180.3	-10.63718	-1.116101E-009	0.0005817	5
	30	221	298.2954	751949.9	-111727.7	1	760205	-8.4514	-1.126751E-009	0.000582	5
	31	223	237.7717	762114.9	-92868.99	1	767752.4	-6.947635	-1.198946E-009	0.0006014	5
	32	226	189.0121	766699	-76014.95	1	770458.1	-5.662129	-1.246362E-009	0.0006155	5
	33	228	150.2404	772763.8	-62652.86	1	775299.4	-4.635193	-1.071242E-009	0.0005864	5
	34	231	119.1737	777924.7	-75800.85	1	781609	-5.565322	-1.162374E-009	0.0006685	5
	35	234	95.0169	779630.9	-46137.59	1	780994.9	-3.386743	-1.265373E-009	0.0006727	5
	36	236	75.60484	786876.3	-38241.62	1	787805	-2.782344	-1.064443E-009	0.0005871	5
	37	239	54.50582	797477.8	-25401.89	1	797882.2	-1.824414	-1.059599E-009	0.0006637	5
	38	241	45.95588	790454.3	-34087.05	1	791188.9	-2.469257	-1.328695E-009	0.0006035	5
	39	244	37.20238	795781.2	-34189.62	1	796515.3	-2.46012	-1.417646E-009	0.0006377	5
	40	246	30.04808	800961.1	-31187.94	1	801568.1	-2.229865	-1.347669E-009	0.000682	5
	41	249	23.91582	806698.9	-32791.27	1	807365.1	-2.327718	-8.334018E-010	0.0005898	5
	42	252	18.60119	813952.5	-32067.88	1	814583.9	-2.256156	-1.22206E-009	0.0005981	5
	43	254	15.02404	815164.4	-33733.39	1	815862.1	-2.36968	-8.792819E-010	0.0006071	5
	44	257	12.01923	820684.1	-36001.96	1	821473.4	-2.511854	-1.108859E-009	0.0006124	5
	45	259	9.450605	826749.4	-38223.68	1	827632.6	-2.64711	-6.941864E-010	0.0006076	5
	46	262	7.512019	833451.6	-42571.87	1	834538.2	-2.92407	-8.4772E-010	0.0005981	5
	47	265	5.978954	842277.6	-46369.61	1	843553	-3.151103	-1.122831E-009	0.0006142	5
	48	269	4.734848	850712.3	-51888.59	1	852293.3	-3.490391	-1.198487E-009	0.0006395	5
	49	273	3.75601	861282.5	-57452.48	1	863196.6	-3.816303	-8.167462E-010	0.0006434	5
	50	278	3.004808	872951.8	-64525.51	1	875333.3	-4.227414	-1.513283E-009	0.0007191	5
	51	285	2.372217	886497.4	-71616.18	1	889385.4	-4.618641	-4.910632E-010	0.0006431	5
	52	289	1.878005	898517	-80392.8	1	902106.3	-5.112797	-5.760707E-010	0.0006116	5
	53	293	1.512097	911411.3	-90012.42	1	915845.4	-5.640331	-8.23597E-010	0.0007488	5
	54	299	1.201923	927271.8	-102760.7	1	932948.4	-6.323742	-4.085345E-010	0.000638	5
	55	305	0.956633	945374.6	-115912.4	1	952454	-6.990146	-2.920603E-009	-2.768261E-006	5
