EXPLAIN
TAG	EISPOT
TITLE	LABEL	Potentiostatic EIS	Test Identifier
DATE	LABEL	9/23/2020	Date
TIME	LABEL	14:36:29	Time
NOTES	NOTES	1	Notes...
	
PSTAT	PSTAT	REF3000-16137	Potentiostat
VDC	POTEN	0.00000E+000	T	DC Voltage (V)
FREQINIT	QUANT	3.00000E+005	Initial Freq. (Hz)
FREQFINAL	QUANT	1.00000E+000	Final Freq. (Hz)
PTSPERDEC	QUANT	1.00000E+001	Points/decade
VAC	QUANT	5.00000E+001	AC Voltage (mV rms)
AREA	QUANT	1.00000E+000	Sample Area (cm^2)
SPEED	SELECTOR	2	Optimize for:
ZGUESS	QUANT	1.00000E+003	Estimated Z (ohms)
EOC	QUANT	0	Open Circuit (V)
SEQUENCER	TOGGLE	TRUE	Run as Sequence
PSTATMODEL	IQUANT	5	Pstat Model
PSTATSECTION	LABEL	REF3000-16137	Pstat Section
PSTATSERIALNO	LABEL	16137	Pstat Serial Number
CTRLMODE	IQUANT	1	Control Mode
IESTAB	IQUANT	0	I/E Stability
CASPEED	IQUANT	1	Control Amp Speed
CONVENTION	IQUANT	1	Current Convention
ICHRANGE	IQUANT	2	Ich Range
ICHRANGEMODE	TOGGLE	F	Ich Auto Range
ICHOFFSETENABLE	TOGGLE	T	Ich Offset Enable
ICHOFFSET	QUANT	0	Ich Offset (V)
ICHFILTER	IQUANT	3	Ich Filter
VCHRANGE	IQUANT	2	Vch Range
VCHRANGEMODE	TOGGLE	F	Vch Auto Range
VCHOFFSETENABLE	TOGGLE	T	Vch Offset Enable
VCHOFFSET	QUANT	0	Vch Offset (V)
VCHFILTER	IQUANT	3	Vch Filter
ACHRANGE	IQUANT	2	Ach Range
ACHOFFSETENABLE	TOGGLE	F	Ach Offset Enable
ACHOFFSET	QUANT	0	Ach Offset (V)
ACHFILTER	IQUANT	3	Ach Filter
IERANGELOWERLIMIT	IQUANT	2	I/E Range Lower Limit
IERANGEMODE	TOGGLE	F	I/E AutoRange
IERANGE	IQUANT	11	I/E Range
POSFEEDENABLE	TOGGLE	F	Positive Feedback IR Comp
POSFEEDRESISTANCE	QUANT	0	Positive Feedback Resistance (ohm)
ACHSELECT	IQUANT	0	Ach Select
CABLEID	IQUANT	13	Cable ID
DCCALDATE	LABEL	7/31/2020	DC Calibration Date
ACCALDATE	LABEL	7/31/2020	AC Calibration Date
THERMOSELECT	IQUANT	1	Thermo Select
FRAMEWORKVERSION	QUANT	6.33	Framework Version
INSTRUMENTVERSION	LABEL	3.50	Instrument Version
COMPLIANCEVOLTAGE	IQUANT	0	Compliance Voltage
ZCURVE	TABLE
	Pt	Time	Freq	Zreal	Zimag	Zsig	Zmod	Zphz	Idc	Vdc	IERange
	#	s	Hz	ohm	ohm	V	ohm	°	A	V	#
	0	14	300046.9	781.0589	-3560.487	1	3645.15	-77.62709	-2.352017E-005	0.0015194	9
	1	28	238359.4	1067.925	-4337.617	1	4467.145	-76.16881	2.044722E-005	-0.0022422	9
	2	42	189328.1	1672.842	-5190.881	1	5453.774	-72.13766	2.808239E-005	-0.0020157	9
	3	49	150421.9	1952.118	-5922.167	1	6235.609	-71.75628	2.829084E-005	-0.0019131	9
	4	57	119484.4	2890.71	-7460.435	1	8000.893	-68.82005	-2.07832E-005	0.0015922	9
	5	69	94921.88	4215.23	-8783.597	1	9742.68	-64.36375	-2.415463E-005	0.0109531	8
	6	76	75421.88	5673.205	-10242.58	1	11708.79	-61.01861	-1.110065E-005	0.0098639	8
	7	85	59859.37	7520.544	-11691.83	1	13901.71	-57.24963	2.683706E-005	-0.0074554	8
	8	94	47578.12	9606.87	-12878.49	1	16066.97	-53.27844	-1.504404E-006	-0.0048876	8
	9	102	37828.12	14568.75	-12969.21	1	19505.1	-41.67572	-4.942203E-006	0.0032723	7
	10	108	30046.88	17368.07	-13067.73	1	21735.12	-36.95779	-6.236578E-006	0.0111499	7
	11	114	23859.38	20422.56	-12649.55	1	24022.74	-31.77371	4.069067E-007	0.0151147	7
	12	118	18984.38	21772.26	-12843.09	1	25277.98	-30.53564	-2.380827E-005	0.0053404	8
	13	125	15046.87	23955.49	-11894.71	1	26746.02	-26.40596	2.524746E-005	-0.0051414	8
	14	131	11953.13	25761.92	-9847.8	1	27579.99	-20.91995	-2.40493E-005	0.0109334	8
	15	138	9515.62	27507.53	-8424.313	1	28768.61	-17.02746	1.562963E-005	-0.0090562	8
	16	144	7546.875	28804.21	-6503.717	1	29529.33	-12.72348	-6.872846E-006	0.0176034	7
	17	150	5928.309	28990.01	-3806.932	1	29238.9	-7.481203	-2.38034E-005	0.0053471	8
	18	156	4733.456	31162.2	-7496.763	1	32051.27	-13.52674	2.680969E-005	-0.0074032	8
	19	162	3796.875	29910.91	-3593.273	1	30125.97	-6.850258	-2.418507E-005	0.0109818	8
	20	169	2987.132	30718.37	-3412.274	1	30907.31	-6.338574	1.744708E-005	0.0001448	8
	21	177	2390.625	27920.99	-1043.592	1	27940.49	-2.140525	-1.918079E-005	0.01126	8
	22	184	1884.191	30575.98	-4161.346	1	30857.85	-7.750254	-2.04721E-005	0.0029656	8
	23	192	1516.544	32189.22	-2250.895	1	32267.82	-4.000009	7.3844E-006	-0.0074497	8
	24	198	1193.986	31312.38	-2426.391	1	31406.25	-4.430984	-1.128365E-005	0.0099632	8
	25	205	946.5144	31376.85	-962.186	1	31391.6	-1.756451	-1.69118E-006	0.0205055	7
	26	209	751.7689	29794.12	-2599.47	1	29907.3	-4.986301	2.79544E-005	-0.0004606	9
	27	214	597.4265	37017.14	3867.759	1	37218.65	5.964942	-2.317096E-005	0.0004483	9
	28	219	477.4305	32389.33	-1155.877	1	32409.95	-2.043846	-3.801439E-007	0.0006182	8
	29	223	376.6741	32627.11	-1111.448	1	32646.03	-1.951036	-8.664816E-008	0.0005682	7
	30	225	298.2954	32750.41	-1147.044	1	32770.49	-2.005897	-8.22284E-008	0.0006042	7
	31	227	237.7717	32907.78	-1226.646	1	32930.64	-2.134727	-8.171515E-008	0.0005991	7
	32	230	189.0121	33073.78	-1335.026	1	33100.71	-2.311494	-8.913493E-008	0.0006564	7
	33	232	150.2404	33275.18	-1488.376	1	33308.45	-2.561094	-8.579489E-008	0.0005631	7
	34	235	119.1737	33424.19	-1667.585	1	33465.76	-2.856208	-9.009874E-008	0.0006533	7
	35	237	95.0169	33656.39	-1871.313	1	33708.38	-3.182398	-8.507762E-008	0.0006473	7
	36	240	75.60484	33902.4	-2120.102	1	33968.63	-3.578358	-9.056191E-008	0.0006049	7
	37	242	54.50582	34288.62	-2582.521	1	34385.73	-4.307222	-8.747832E-008	0.0005836	7
	38	245	45.95588	34522.79	-2830.754	1	34638.65	-4.687577	-9.804873E-008	0.0006387	7
	39	247	37.20238	34836.46	-3224.254	1	34985.35	-5.287889	-9.642768E-008	0.0006505	7
	40	249	30.04808	35190	-3678.356	1	35381.72	-5.967368	-7.977636E-008	0.0006479	7
	41	252	23.91582	35571.31	-4215.284	1	35820.2	-6.758167	-9.950183E-008	0.0006468	7
	42	254	18.60119	36107.42	-4957.093	1	36446.1	-7.81712	-7.21579E-008	0.0006506	7
	43	257	15.02404	36643.96	-5686.898	1	37082.63	-8.821549	-1.650209E-008	0.0006975	6
	44	259	12.01923	37193.33	-6564.67	1	37768.22	-10.00969	-8.305492E-009	0.0006793	6
	45	261	9.450605	37857.75	-7678.192	1	38628.54	-11.46504	-1.608756E-008	0.0006961	6
	46	264	7.512019	38559.5	-9001.625	1	39596.27	-13.14023	-7.605901E-009	0.0007119	6
	47	267	5.978954	39356.09	-10502.38	1	40733.3	-14.94151	-1.148774E-008	0.0006835	6
	48	270	4.734848	40301.37	-12454.21	1	42181.84	-17.17256	1.898159E-009	0.0007057	6
	49	273	3.75601	41337.12	-14661.21	1	43860.1	-19.52829	-1.994839E-008	0.0005931	6
	50	276	3.004808	42586.34	-17205.49	1	45930.66	-21.99941	-1.797751E-008	0.0006504	6
	51	280	2.372217	44082.06	-20300.92	1	48532	-24.72729	-8.448453E-009	0.0007155	6
	52	284	1.878005	45784.88	-24177.62	1	51776.57	-27.83719	-1.134579E-008	0.0006182	6
	53	289	1.512097	47667.45	-28353.82	1	55462.83	-30.74527	-1.055786E-008	0.00074	6
	54	294	1.201923	50080.45	-33722.39	1	60375.91	-33.95492	-8.096881E-009	0.0006177	6
	55	301	0.956633	52944.45	-40117.43	1	66426.83	-37.15219	-1.565748E-008	7.539558E-006	6
