EXPLAIN
TAG	EISPOT
TITLE	LABEL	Potentiostatic EIS	Test Identifier
DATE	LABEL	9/23/2020	Date
TIME	LABEL	13:04:43	Time
NOTES	NOTES	1	Notes...
	
PSTAT	PSTAT	REF3000-16137	Potentiostat
VDC	POTEN	0.00000E+000	T	DC Voltage (V)
FREQINIT	QUANT	3.00000E+005	Initial Freq. (Hz)
FREQFINAL	QUANT	1.00000E+000	Final Freq. (Hz)
PTSPERDEC	QUANT	1.00000E+001	Points/decade
VAC	QUANT	5.00000E+001	AC Voltage (mV rms)
AREA	QUANT	1.00000E+000	Sample Area (cm^2)
SPEED	SELECTOR	2	Optimize for:
ZGUESS	QUANT	1.00000E+003	Estimated Z (ohms)
EOC	QUANT	0	Open Circuit (V)
SEQUENCER	TOGGLE	TRUE	Run as Sequence
PSTATMODEL	IQUANT	5	Pstat Model
PSTATSECTION	LABEL	REF3000-16137	Pstat Section
PSTATSERIALNO	LABEL	16137	Pstat Serial Number
CTRLMODE	IQUANT	1	Control Mode
IESTAB	IQUANT	0	I/E Stability
CASPEED	IQUANT	1	Control Amp Speed
CONVENTION	IQUANT	1	Current Convention
ICHRANGE	IQUANT	2	Ich Range
ICHRANGEMODE	TOGGLE	F	Ich Auto Range
ICHOFFSETENABLE	TOGGLE	T	Ich Offset Enable
ICHOFFSET	QUANT	0	Ich Offset (V)
ICHFILTER	IQUANT	3	Ich Filter
VCHRANGE	IQUANT	2	Vch Range
VCHRANGEMODE	TOGGLE	F	Vch Auto Range
VCHOFFSETENABLE	TOGGLE	T	Vch Offset Enable
VCHOFFSET	QUANT	0	Vch Offset (V)
VCHFILTER	IQUANT	3	Vch Filter
ACHRANGE	IQUANT	2	Ach Range
ACHOFFSETENABLE	TOGGLE	F	Ach Offset Enable
ACHOFFSET	QUANT	0	Ach Offset (V)
ACHFILTER	IQUANT	3	Ach Filter
IERANGELOWERLIMIT	IQUANT	2	I/E Range Lower Limit
IERANGEMODE	TOGGLE	F	I/E AutoRange
IERANGE	IQUANT	11	I/E Range
POSFEEDENABLE	TOGGLE	F	Positive Feedback IR Comp
POSFEEDRESISTANCE	QUANT	0	Positive Feedback Resistance (ohm)
ACHSELECT	IQUANT	0	Ach Select
CABLEID	IQUANT	13	Cable ID
DCCALDATE	LABEL	7/31/2020	DC Calibration Date
ACCALDATE	LABEL	7/31/2020	AC Calibration Date
THERMOSELECT	IQUANT	1	Thermo Select
FRAMEWORKVERSION	QUANT	6.33	Framework Version
INSTRUMENTVERSION	LABEL	3.50	Instrument Version
COMPLIANCEVOLTAGE	IQUANT	0	Compliance Voltage
ZCURVE	TABLE
	Pt	Time	Freq	Zreal	Zimag	Zsig	Zmod	Zphz	Idc	Vdc	IERange
	#	s	Hz	ohm	ohm	V	ohm	°	A	V	#
	0	20	300046.9	1171.469	-461.3752	1	1259.05	-21.49666	2.309691E-006	0.0014334	9
	1	35	238359.4	1237.507	-399.7039	1	1300.456	-17.9	-6.10783E-005	0.0005706	9
	2	60	189328.1	1289.092	-335.6477	1	1332.073	-14.59436	-6.023956E-005	0.0005739	9
	3	66	150421.9	1345.05	-247.6262	1	1367.654	-10.43145	-1.887667E-005	0.0012602	9
	4	75	119484.4	1357.283	-190.4689	1	1370.582	-7.98821	-7.439876E-005	0.0275001	8
	5	81	94921.88	1374.68	-150.9152	1	1382.939	-6.264963	-1.99235E-005	0.0049169	8
	6	84	75421.88	1385.101	-121.8717	1	1390.453	-5.028365	-9.997439E-006	-0.0008206	8
	7	88	59859.37	1386.673	-106.7043	1	1390.773	-4.40023	1.148693E-005	-0.0070301	8
	8	92	47578.12	1394.091	-82.32397	1	1396.519	-3.379511	-7.503391E-006	0.0077696	8
	9	96	37828.12	1400.453	-68.87244	1	1402.146	-2.815462	-1.426629E-005	0.0012814	8
	10	99	30046.88	1404.714	-58.43689	1	1405.928	-2.382164	2.065254E-005	-0.0073603	8
	11	102	23859.38	1411.987	-52.02008	1	1412.945	-2.109923	-2.109452E-005	0.0081248	8
	12	105	18984.38	1411.864	-45.91615	1	1412.61	-1.862697	-2.08026E-005	0.0081068	8
	13	108	15046.87	1417.91	-41.65681	1	1418.522	-1.68281	8.340122E-006	0.0028302	8
	14	111	11953.13	1416.903	-39.91451	1	1417.465	-1.61361	-8.881733E-006	-0.0011185	8
	15	114	9515.62	1423.004	-38.80658	1	1423.533	-1.56212	2.202597E-005	-0.0062016	8
	16	117	7546.875	1427.502	-40.56056	1	1428.078	-1.627545	2.202616E-005	-0.0063034	8
	17	121	5928.309	1432.334	-41.14167	1	1432.924	-1.645284	2.059213E-005	-0.0072999	8
	18	125	4733.456	1438.027	-48.83985	1	1438.856	-1.945194	1.18418E-005	-0.0071659	8
	19	129	3796.875	1443.235	-50.78091	1	1444.128	-2.015148	2.070357E-005	-0.0073459	8
	20	132	2987.132	1448.611	-51.05949	1	1449.511	-2.018681	8.410187E-006	0.002875	8
	21	137	2390.625	1451.169	-60.5476	1	1452.432	-2.389185	2.209511E-005	-0.0046227	8
	22	140	1884.191	1466.807	-76.41915	1	1468.796	-2.982356	1.996644E-005	-0.002818	8
	23	144	1516.544	1473.542	-81.79279	1	1475.81	-3.177091	4.8849E-006	-0.0057046	8
	24	148	1193.986	1482.989	-92.55856	1	1485.874	-3.571399	-2.134945E-005	0.0066905	8
	25	153	946.5144	1487.853	-108.5395	1	1491.807	-4.17236	-7.906592E-006	0.0080686	8
	26	155	751.7689	1504.209	-132.2645	1	1510.013	-5.025069	-2.009578E-005	0.0049372	8
	27	158	597.4265	1515.92	-149.3985	1	1523.264	-5.628497	-1.887589E-005	0.0089398	8
	28	160	477.4305	1532.367	-172.2423	1	1542.017	-6.413286	-2.39462E-007	0.0006322	8
	29	163	376.6741	1549.183	-201.9044	1	1562.285	-7.42548	-2.603892E-007	0.0006422	8
	30	165	298.2954	1567.8	-236.5728	1	1585.548	-8.580897	-2.310252E-007	0.0006298	8
	31	167	237.7717	1588.308	-276.6878	1	1612.227	-9.88193	-2.840679E-007	0.0006532	8
	32	170	189.0121	1611.803	-324.9833	1	1644.239	-11.39955	-2.336031E-007	0.0006231	8
	33	172	150.2404	1638.465	-382.7517	1	1682.578	-13.14872	-2.804679E-007	0.0006605	8
	34	175	119.1737	1669.079	-452.4205	1	1729.309	-15.16617	-2.353804E-007	0.0006199	8
	35	177	95.0169	1703.499	-534.1891	1	1785.292	-17.41056	-2.714295E-007	0.0006405	8
	36	180	75.60484	1744.073	-633.1628	1	1855.448	-19.95276	-2.363766E-007	0.000615	8
	37	182	54.50582	1813.142	-809.8894	1	1985.801	-24.06923	-2.408098E-007	0.0006293	8
	38	185	45.95588	1857.462	-922.5035	1	2073.928	-26.41117	-2.424311E-007	0.0006467	8
	39	187	37.20238	1920.014	-1084.756	1	2205.255	-29.46528	-2.670388E-007	0.0006578	8
	40	189	30.04808	1994.883	-1278.174	1	2369.238	-32.64876	-2.705085E-007	0.0006281	8
	41	192	23.91582	2090.215	-1524.553	1	2587.134	-36.10612	-2.690991E-007	0.000624	8
	42	194	18.60119	2219.063	-1852.938	1	2890.955	-39.8622	-2.810927E-007	0.0006173	8
	43	196	15.02404	2350.984	-2183	1	3208.21	-42.87816	-2.402391E-007	0.0006343	8
	44	199	12.01923	2520.752	-2589.849	1	3614.071	-45.77461	-2.769627E-007	0.0006288	8
	45	201	9.450605	2747.33	-3121.071	1	4157.993	-48.64407	-1.042949E-007	0.000661	7
	46	204	7.512019	3003.614	-3718.938	1	4780.397	-51.0738	-7.644233E-008	0.000602	7
	47	206	5.978954	3317.632	-4413.616	1	5521.475	-53.0685	-2.778947E-008	0.0005901	7
	48	209	4.734848	3710.825	-5260.536	1	6437.659	-54.80054	-7.153503E-008	0.0006038	7
	49	213	3.75601	4178.932	-6237.467	1	7507.96	-56.179	-2.889338E-008	0.0005942	7
	50	216	3.004808	4729.814	-7339.739	1	8731.719	-57.20179	-4.381833E-008	0.0006049	7
	51	220	2.372217	5444.531	-8693.516	1	10257.69	-57.94212	-5.314634E-008	0.0005597	7
	52	224	1.878005	6282.298	-10287.01	1	12053.62	-58.58751	-4.297246E-008	0.0006184	7
	53	229	1.512097	7199.041	-11960.72	1	13960.12	-58.95668	-4.944517E-008	0.0006026	7
	54	234	1.201923	8393.394	-14045.46	1	16362.28	-59.13799	-5.017207E-008	0.0006284	7
	55	240	0.956633	9783.04	-16423.83	1	19116.74	-59.21938	-7.112258E-008	-3.419316E-005	7
