EXPLAIN
TAG	EISPOT
TITLE	LABEL	Potentiostatic EIS	Test Identifier
DATE	LABEL	9/23/2020	Date
TIME	LABEL	13:54:34	Time
NOTES	NOTES	1	Notes...
	
PSTAT	PSTAT	REF3000-16137	Potentiostat
VDC	POTEN	0.00000E+000	T	DC Voltage (V)
FREQINIT	QUANT	3.00000E+005	Initial Freq. (Hz)
FREQFINAL	QUANT	1.00000E+000	Final Freq. (Hz)
PTSPERDEC	QUANT	1.00000E+001	Points/decade
VAC	QUANT	5.00000E+001	AC Voltage (mV rms)
AREA	QUANT	1.00000E+000	Sample Area (cm^2)
SPEED	SELECTOR	2	Optimize for:
ZGUESS	QUANT	1.00000E+003	Estimated Z (ohms)
EOC	QUANT	0	Open Circuit (V)
SEQUENCER	TOGGLE	TRUE	Run as Sequence
PSTATMODEL	IQUANT	5	Pstat Model
PSTATSECTION	LABEL	REF3000-16137	Pstat Section
PSTATSERIALNO	LABEL	16137	Pstat Serial Number
CTRLMODE	IQUANT	1	Control Mode
IESTAB	IQUANT	0	I/E Stability
CASPEED	IQUANT	1	Control Amp Speed
CONVENTION	IQUANT	1	Current Convention
ICHRANGE	IQUANT	2	Ich Range
ICHRANGEMODE	TOGGLE	F	Ich Auto Range
ICHOFFSETENABLE	TOGGLE	T	Ich Offset Enable
ICHOFFSET	QUANT	0	Ich Offset (V)
ICHFILTER	IQUANT	3	Ich Filter
VCHRANGE	IQUANT	2	Vch Range
VCHRANGEMODE	TOGGLE	F	Vch Auto Range
VCHOFFSETENABLE	TOGGLE	T	Vch Offset Enable
VCHOFFSET	QUANT	0	Vch Offset (V)
VCHFILTER	IQUANT	3	Vch Filter
ACHRANGE	IQUANT	2	Ach Range
ACHOFFSETENABLE	TOGGLE	F	Ach Offset Enable
ACHOFFSET	QUANT	0	Ach Offset (V)
ACHFILTER	IQUANT	3	Ach Filter
IERANGELOWERLIMIT	IQUANT	2	I/E Range Lower Limit
IERANGEMODE	TOGGLE	F	I/E AutoRange
IERANGE	IQUANT	11	I/E Range
POSFEEDENABLE	TOGGLE	F	Positive Feedback IR Comp
POSFEEDRESISTANCE	QUANT	0	Positive Feedback Resistance (ohm)
ACHSELECT	IQUANT	0	Ach Select
CABLEID	IQUANT	13	Cable ID
DCCALDATE	LABEL	7/31/2020	DC Calibration Date
ACCALDATE	LABEL	7/31/2020	AC Calibration Date
THERMOSELECT	IQUANT	1	Thermo Select
FRAMEWORKVERSION	QUANT	6.33	Framework Version
INSTRUMENTVERSION	LABEL	3.50	Instrument Version
COMPLIANCEVOLTAGE	IQUANT	0	Compliance Voltage
ZCURVE	TABLE
	Pt	Time	Freq	Zreal	Zimag	Zsig	Zmod	Zphz	Idc	Vdc	IERange
	#	s	Hz	ohm	ohm	V	ohm	°	A	V	#
	0	15	300046.9	1572.842	-2372.113	1	2846.182	-56.45342	7.916575E-005	-0.0017818	9
	1	28	238359.4	2059.717	-2541.198	1	3271.104	-50.9742	8.03105E-005	-0.0035028	9
	2	42	189328.1	2619.181	-2719.042	1	3775.354	-46.07169	-1.969848E-006	-0.0019139	9
	3	51	150421.9	3164.975	-2664.302	1	4137.097	-40.09095	-9.125E-005	0.0022112	9
	4	58	119484.4	3786.686	-2612.354	1	4600.368	-34.60097	4.93656E-005	0.0002353	9
	5	67	94921.88	4362.664	-2287.675	1	4926.083	-27.67142	-9.995775E-006	-0.0016465	8
	6	74	75421.88	4763.344	-2004.541	1	5167.943	-22.82264	-2.492521E-005	0.009286	8
	7	82	59859.37	5098.198	-1763.765	1	5394.672	-19.0835	2.07353E-005	-0.0091367	8
	8	89	47578.12	5348.416	-1463.002	1	5544.901	-15.29842	-1.986316E-005	0.0030645	8
	9	97	37828.12	5514.793	-1242.465	1	5653.023	-12.69657	-2.112424E-006	-0.0045124	8
	10	104	30046.88	5837.592	-622.7599	1	5870.717	-6.089337	6.252118E-006	-0.0145196	7
	11	107	23859.38	5750.236	-839.0114	1	5811.124	-8.301392	-1.593727E-005	0.0010163	8
	12	113	18984.38	5810.305	-685.3925	1	5850.59	-6.727608	-2.281272E-005	0.0105517	8
	13	119	15046.87	5837.591	-567.2251	1	5865.084	-5.549874	-1.020133E-005	0.0094917	8
	14	124	11953.13	5885.621	-458.2635	1	5903.434	-4.452155	-9.722558E-006	-0.0016396	8
	15	129	9515.62	5933.459	-378.6961	1	5945.532	-3.651883	-1.97404E-006	-0.0045428	8
	16	135	7546.875	6009.272	-206.9045	1	6012.833	-1.971965	3.237714E-006	-0.021238	7
	17	139	5928.309	6021.377	-170.4899	1	6023.79	-1.621845	3.302925E-006	-0.0211134	7
	18	143	4733.456	6041.414	-166.3846	1	6043.705	-1.577565	3.810801E-006	0.0009474	7
	19	147	3796.875	6056.153	-147.1924	1	6057.941	-1.392277	-4.824094E-006	0.0226754	7
	20	150	2987.132	6064.685	-158.8568	1	6066.765	-1.500448	-5.488116E-006	0.009032	7
	21	154	2390.625	6107.354	-170.6062	1	6109.737	-1.600115	-6.150881E-006	0.0150597	7
	22	157	1884.191	6120.303	-146.5122	1	6122.057	-1.371326	4.800223E-006	-0.0226422	7
	23	161	1516.544	6147.348	-109.1478	1	6148.317	-1.017195	8.905628E-006	0.0035991	8
	24	168	1193.986	6172.565	-197.6924	1	6175.73	-1.834419	2.442857E-005	-0.0085902	8
	25	174	946.5144	6304.605	-231.5381	1	6308.855	-2.103256	2.23255E-005	-0.0029042	8
	26	178	751.7689	6061.177	-188.5979	1	6064.11	-1.782224	-2.133372E-006	-0.0044998	8
	27	181	597.4265	6222.287	-297.6922	1	6229.404	-2.739107	-3.982475E-007	-0.0125289	7
	28	184	477.4305	6323.334	-323.5821	1	6331.608	-2.929425	-7.526802E-008	0.0005974	7
	29	186	376.6741	6364.188	-373.518	1	6375.14	-3.358871	-7.816137E-008	0.0006122	7
	30	189	298.2954	6410.164	-431.7897	1	6424.69	-3.853632	-7.150832E-008	0.0005659	7
	31	191	237.7717	6458.903	-497.4052	1	6478.028	-4.403701	-7.815019E-008	0.0005913	7
	32	193	189.0121	6515.612	-574.8415	1	6540.92	-5.04188	-7.550011E-008	0.0005679	7
	33	196	150.2404	6578.028	-665.759	1	6611.632	-5.779199	-7.350364E-008	0.0005952	7
	34	198	119.1737	6649.628	-771.0672	1	6694.184	-6.614275	-7.883125E-008	0.0006643	7
	35	201	95.0169	6727.657	-893.7697	1	6786.766	-7.567436	-8.019154E-008	0.0006514	7
	36	203	75.60484	6815.971	-1038.501	1	6894.631	-8.663125	-7.448077E-008	0.0006474	7
	37	206	54.50582	6954.994	-1292.701	1	7074.108	-10.52922	-7.565924E-008	0.0005938	7
	38	208	45.95588	7043.3	-1450.427	1	7191.093	-11.63625	-8.445613E-008	0.0006538	7
	39	211	37.20238	7158.717	-1678.44	1	7352.849	-13.19528	-6.889439E-008	0.0005967	7
	40	213	30.04808	7290.768	-1947.714	1	7546.449	-14.95716	-8.474621E-008	0.0005673	7
	41	215	23.91582	7445.523	-2294.356	1	7791.013	-17.12681	-1.056311E-007	0.0006332	7
	42	218	18.60119	7648.625	-2752.09	1	8128.682	-19.78949	-6.826642E-008	0.0006533	7
	43	220	15.02404	7857.045	-3221.001	1	8491.644	-22.29121	-4.630201E-008	0.0006513	7
	44	222	12.01923	8094.736	-3798.003	1	8941.453	-25.13569	-7.703754E-008	0.0005847	7
	45	225	9.450605	8400.963	-4547.733	1	9552.91	-28.42822	-7.158483E-008	0.0006156	7
	46	227	7.512019	8749.729	-5403.6	1	10283.81	-31.69837	-5.533287E-008	0.0005611	7
	47	230	5.978954	9158.32	-6427.094	1	11188.49	-35.06028	-6.343875E-008	0.0006354	7
	48	233	4.734848	9678.22	-7683.13	1	12357.12	-38.44456	-7.503732E-008	0.0006525	7
	49	236	3.75601	10291.81	-9174.396	1	13787.34	-41.71468	-6.790666E-008	0.0006551	7
	50	240	3.004808	11000.5	-10867.01	1	15462.96	-44.65024	-7.499956E-008	0.0006026	7
	51	244	2.372217	11916.26	-12989.78	1	17627.58	-47.46807	-7.015132E-008	0.0005782	7
	52	248	1.878005	13042.07	-15530.24	1	20280.13	-49.97696	-6.699087E-008	0.0006456	7
	53	252	1.512097	14280.02	-18279.17	1	23195.84	-52.0024	-7.021448E-008	0.0006689	7
	54	258	1.201923	15894.23	-21709.89	1	26906.25	-53.79142	-6.915644E-008	0.0006245	7
	55	264	0.956633	17842.11	-25726.97	1	31308.43	-55.258	-8.452439E-008	-3.327165E-005	7
