EXPLAIN
TAG	EISPOT
TITLE	LABEL	Potentiostatic EIS	Test Identifier
DATE	LABEL	9/23/2020	Date
TIME	LABEL	16:02:51	Time
NOTES	NOTES	1	Notes...
	
PSTAT	PSTAT	REF3000-16137	Potentiostat
VDC	POTEN	0.00000E+000	T	DC Voltage (V)
FREQINIT	QUANT	3.00000E+005	Initial Freq. (Hz)
FREQFINAL	QUANT	1.00000E+000	Final Freq. (Hz)
PTSPERDEC	QUANT	1.00000E+001	Points/decade
VAC	QUANT	5.00000E+001	AC Voltage (mV rms)
AREA	QUANT	1.00000E+000	Sample Area (cm^2)
SPEED	SELECTOR	2	Optimize for:
ZGUESS	QUANT	1.00000E+003	Estimated Z (ohms)
EOC	QUANT	0	Open Circuit (V)
SEQUENCER	TOGGLE	TRUE	Run as Sequence
PSTATMODEL	IQUANT	5	Pstat Model
PSTATSECTION	LABEL	REF3000-16137	Pstat Section
PSTATSERIALNO	LABEL	16137	Pstat Serial Number
CTRLMODE	IQUANT	1	Control Mode
IESTAB	IQUANT	0	I/E Stability
CASPEED	IQUANT	1	Control Amp Speed
CONVENTION	IQUANT	1	Current Convention
ICHRANGE	IQUANT	2	Ich Range
ICHRANGEMODE	TOGGLE	F	Ich Auto Range
ICHOFFSETENABLE	TOGGLE	T	Ich Offset Enable
ICHOFFSET	QUANT	0	Ich Offset (V)
ICHFILTER	IQUANT	3	Ich Filter
VCHRANGE	IQUANT	2	Vch Range
VCHRANGEMODE	TOGGLE	F	Vch Auto Range
VCHOFFSETENABLE	TOGGLE	T	Vch Offset Enable
VCHOFFSET	QUANT	0	Vch Offset (V)
VCHFILTER	IQUANT	3	Vch Filter
ACHRANGE	IQUANT	2	Ach Range
ACHOFFSETENABLE	TOGGLE	F	Ach Offset Enable
ACHOFFSET	QUANT	0	Ach Offset (V)
ACHFILTER	IQUANT	3	Ach Filter
IERANGELOWERLIMIT	IQUANT	2	I/E Range Lower Limit
IERANGEMODE	TOGGLE	F	I/E AutoRange
IERANGE	IQUANT	11	I/E Range
POSFEEDENABLE	TOGGLE	F	Positive Feedback IR Comp
POSFEEDRESISTANCE	QUANT	0	Positive Feedback Resistance (ohm)
ACHSELECT	IQUANT	0	Ach Select
CABLEID	IQUANT	13	Cable ID
DCCALDATE	LABEL	7/31/2020	DC Calibration Date
ACCALDATE	LABEL	7/31/2020	AC Calibration Date
THERMOSELECT	IQUANT	1	Thermo Select
FRAMEWORKVERSION	QUANT	6.33	Framework Version
INSTRUMENTVERSION	LABEL	3.50	Instrument Version
COMPLIANCEVOLTAGE	IQUANT	0	Compliance Voltage
ZCURVE	TABLE
	Pt	Time	Freq	Zreal	Zimag	Zsig	Zmod	Zphz	Idc	Vdc	IERange
	#	s	Hz	ohm	ohm	V	ohm	°	A	V	#
	0	14	300046.9	55.48929	-4379.727	1	4380.079	-89.27412	5.225246E-005	4.408299E-005	9
	1	28	238359.4	129.0977	-5398.077	1	5399.62	-88.63	8.705394E-005	-0.0026327	9
	2	42	189328.1	143.0829	-6823.982	1	6825.482	-88.79882	2.688474E-005	-0.0020126	9
	3	49	150421.9	-66.14008	-8072.62	1	8072.891	-90.46942	-6.028562E-005	0.0005422	9
	4	57	119484.4	773.8497	-10427.88	1	10456.55	-85.75587	7.788099E-005	-0.0232971	8
	5	65	94921.88	807.5609	-13059.31	1	13084.25	-86.46145	-2.135432E-006	0.0076778	8
	6	74	75421.88	804.3876	-16216.98	1	16236.92	-87.16037	2.60228E-005	-0.0051114	8
	7	82	59859.37	1217.36	-20197.88	1	20234.54	-86.55086	-2.288255E-006	0.0077773	8
	8	90	47578.12	4598.66	-26735.73	1	27128.34	-80.24038	4.849334E-007	0.0160318	7
	9	96	37828.12	1976.428	-31794.11	1	31855.48	-86.44288	8.235055E-006	0.0041364	8
	10	105	30046.88	5356.347	-40700.16	1	41051.11	-82.50267	-5.263101E-006	0.0262209	7
	11	112	23859.38	1888.474	-51201.99	1	51236.8	-87.88773	2.605188E-005	-0.0089744	8
	12	119	18984.38	5679.222	-64782.12	1	65030.58	-84.98989	-1.994376E-005	0.0113726	8
	13	126	15046.87	4634.047	-75657.38	1	75799.17	-86.49499	-2.40218E-005	0.0052435	8
	14	133	11953.13	12537.17	-106444.5	1	107180.3	-83.28258	-2.62603E-005	0.0094421	8
	15	139	9515.62	13560.8	-122627.8	1	123375.4	-83.68958	-2.475635E-005	0.0110845	8
	16	147	7546.875	11527.2	-144364.1	1	144823.6	-85.43473	-2.03272E-005	0.0028379	8
	17	154	5928.309	43115.05	-197169.6	1	201828.5	-77.66529	-1.283882E-006	-0.0050686	8
	18	162	4733.456	59756.09	-241957	1	249226.8	-76.12727	-5.527025E-007	0.02625	6
	19	166	3796.875	73230.12	-295938.2	1	304864	-76.10131	7.577825E-007	-0.0227038	6
	20	171	2987.132	89175.51	-373198.8	1	383705.1	-76.56122	-1.50353E-009	0.0169808	6
	21	177	2390.625	112847.5	-444446.2	1	458548.8	-75.75333	-7.324339E-007	0.0228406	6
	22	182	1884.191	207329.4	-518342.7	1	558269.4	-68.19932	2.801093E-006	0.008053	7
	23	189	1516.544	417287.3	-734799	1	845019.7	-60.40805	1.178521E-006	-0.0194098	7
	24	195	1193.986	268592.3	-800527.3	1	844384.8	-71.4524	4.964291E-010	0.0170284	6
	25	202	946.5144	328066	-1121251	1	1168260	-73.69109	-6.688048E-007	0.0260129	6
	26	207	751.7689	537258.3	-1265287	1	1374627	-66.99326	7.160999E-007	-0.0158303	6
	27	211	597.4265	795269.5	-1770376	1	1940795	-65.80994	7.096954E-007	-0.0154165	6
	28	215	477.4305	844488.6	-1673079	1	1874127	-63.21758	-1.022715E-008	0.000697	6
	29	220	376.6741	1403169	-1876592	1	2343177	-53.21375	-1.023005E-009	0.0006676	5
	30	223	298.2954	1783662	-2081595	1	2741257	-49.40762	-1.039798E-009	0.0006748	5
	31	226	237.7717	1987874	-2332732	1	3064846	-49.5635	-1.012607E-008	0.0007116	6
	32	229	189.0121	2701073	-2297564	1	3546068	-40.38488	-1.067022E-009	0.000664	5
	33	233	150.2404	3243351	-2286684	1	3968407	-35.18527	-9.632678E-010	0.0005819	5
	34	237	119.1737	3266884	-2246900	1	3964983	-34.51944	-1.117943E-009	0.0006647	5
	35	241	95.0169	4103699	-1993037	1	4562076	-25.90438	-9.078413E-010	0.0006145	5
	36	245	75.60484	4497404	-1689581	1	4804303	-20.59015	-1.04067E-009	0.000599	5
	37	249	54.50582	4795886	-1464694	1	5014564	-16.98301	-1.019207E-009	0.0005944	5
	38	254	45.95588	5351745	-660662.9	1	5392370	-7.037452	-7.982556E-011	0.0006409	4
	39	256	37.20238	5325315	-685635.1	1	5369271	-7.33648	-1.582555E-010	0.0006887	4
	40	259	30.04808	5381284	-530970.3	1	5407416	-5.635124	-1.135883E-010	0.0006785	4
	41	262	23.91582	5362042	-398993.3	1	5376866	-4.255577	-1.740072E-010	0.0006033	4
	42	265	18.60119	5499541	-541185.1	1	5526105	-5.620125	-2.275974E-010	0.0006157	4
	43	267	15.02404	5470925	-361554.7	1	5482858	-3.780984	-7.335481E-011	0.0006602	4
	44	269	12.01923	5518410	-356396.3	1	5529907	-3.69521	-8.942098E-011	0.0006747	4
	45	272	9.450605	5549524	-322329.3	1	5558877	-3.324138	-9.226085E-011	0.0006788	4
	46	275	7.512019	5598048	-342393.7	1	5608509	-3.500025	-8.93205E-011	0.0006635	4
	47	278	5.978954	5650368	-325722.7	1	5659749	-3.299237	-1.034937E-010	0.0006548	4
	48	282	4.734848	5724206	-347836.8	1	5734765	-3.477356	-1.128593E-010	0.0006596	4
	49	287	3.75601	5813381	-349909.3	1	5823902	-3.444496	-1.279513E-010	0.0006318	4
	50	292	3.004808	5896815	-379080.1	1	5908987	-3.67823	-5.734338E-011	0.0005935	4
	51	299	2.372217	5974566	-382573.8	1	5986802	-3.663862	-1.170812E-010	0.0005876	4
	52	303	1.878005	6060806	-398472.4	1	6073892	-3.761541	-1.00195E-010	0.0006428	4
	53	308	1.512097	6146313	-414254.9	1	6160257	-3.855843	-7.001019E-011	0.0005329	4
	54	313	1.201923	6247191	-429712.5	1	6261952	-3.934887	-9.720675E-011	0.0006562	4
	55	319	0.956633	6353291	-448185.5	1	6369080	-4.035179	-2.079081E-010	-7.143535E-006	4
