EXPLAIN
TAG	EISPOT
TITLE	LABEL	Potentiostatic EIS	Test Identifier
DATE	LABEL	9/23/2020	Date
TIME	LABEL	16:08:20	Time
NOTES	NOTES	1	Notes...
	
PSTAT	PSTAT	REF3000-16137	Potentiostat
VDC	POTEN	0.00000E+000	T	DC Voltage (V)
FREQINIT	QUANT	3.00000E+005	Initial Freq. (Hz)
FREQFINAL	QUANT	1.00000E+000	Final Freq. (Hz)
PTSPERDEC	QUANT	1.00000E+001	Points/decade
VAC	QUANT	5.00000E+001	AC Voltage (mV rms)
AREA	QUANT	1.00000E+000	Sample Area (cm^2)
SPEED	SELECTOR	2	Optimize for:
ZGUESS	QUANT	1.00000E+003	Estimated Z (ohms)
EOC	QUANT	0	Open Circuit (V)
SEQUENCER	TOGGLE	TRUE	Run as Sequence
PSTATMODEL	IQUANT	5	Pstat Model
PSTATSECTION	LABEL	REF3000-16137	Pstat Section
PSTATSERIALNO	LABEL	16137	Pstat Serial Number
CTRLMODE	IQUANT	1	Control Mode
IESTAB	IQUANT	0	I/E Stability
CASPEED	IQUANT	1	Control Amp Speed
CONVENTION	IQUANT	1	Current Convention
ICHRANGE	IQUANT	2	Ich Range
ICHRANGEMODE	TOGGLE	F	Ich Auto Range
ICHOFFSETENABLE	TOGGLE	T	Ich Offset Enable
ICHOFFSET	QUANT	0	Ich Offset (V)
ICHFILTER	IQUANT	3	Ich Filter
VCHRANGE	IQUANT	2	Vch Range
VCHRANGEMODE	TOGGLE	F	Vch Auto Range
VCHOFFSETENABLE	TOGGLE	T	Vch Offset Enable
VCHOFFSET	QUANT	0	Vch Offset (V)
VCHFILTER	IQUANT	3	Vch Filter
ACHRANGE	IQUANT	2	Ach Range
ACHOFFSETENABLE	TOGGLE	F	Ach Offset Enable
ACHOFFSET	QUANT	0	Ach Offset (V)
ACHFILTER	IQUANT	3	Ach Filter
IERANGELOWERLIMIT	IQUANT	2	I/E Range Lower Limit
IERANGEMODE	TOGGLE	F	I/E AutoRange
IERANGE	IQUANT	11	I/E Range
POSFEEDENABLE	TOGGLE	F	Positive Feedback IR Comp
POSFEEDRESISTANCE	QUANT	0	Positive Feedback Resistance (ohm)
ACHSELECT	IQUANT	0	Ach Select
CABLEID	IQUANT	13	Cable ID
DCCALDATE	LABEL	7/31/2020	DC Calibration Date
ACCALDATE	LABEL	7/31/2020	AC Calibration Date
THERMOSELECT	IQUANT	1	Thermo Select
FRAMEWORKVERSION	QUANT	6.33	Framework Version
INSTRUMENTVERSION	LABEL	3.50	Instrument Version
COMPLIANCEVOLTAGE	IQUANT	0	Compliance Voltage
ZCURVE	TABLE
	Pt	Time	Freq	Zreal	Zimag	Zsig	Zmod	Zphz	Idc	Vdc	IERange
	#	s	Hz	ohm	ohm	V	ohm	°	A	V	#
	0	14	300046.9	-15.36446	-4404.49	1	4404.517	-90.19987	-3.108949E-005	-0.0012331	9
	1	30	238359.4	148.8136	-5427.622	1	5429.661	-88.42947	-6.184314E-005	0.0004542	9
	2	50	189328.1	58.66666	-6775.962	1	6776.216	-89.50394	-9.073958E-005	0.0022146	9
	3	59	150421.9	327.5799	-8187.488	1	8194.038	-87.70883	-0.0001059	0.0037644	9
	4	66	119484.4	376.2696	-10522.83	1	10529.55	-87.95212	-3.065897E-005	-0.005914	8
	5	73	94921.88	760.8029	-13114.84	1	13136.89	-86.67995	1.733401E-005	0.0002043	8
	6	82	75421.88	973.515	-16276.6	1	16305.69	-86.57718	-2.487238E-005	0.0110908	8
	7	91	59859.37	870.7648	-20593.55	1	20611.96	-87.57878	2.722449E-005	-0.0074465	8
	8	99	47578.12	4314.884	-26898.7	1	27242.58	-80.88669	1.239451E-006	-0.0195514	7
	9	107	37828.12	4823.078	-33315.12	1	33662.43	-81.76244	-7.26688E-006	0.0187803	7
	10	114	30046.88	5377.573	-41396.97	1	41744.79	-82.59858	3.264536E-006	-0.0238983	7
	11	122	23859.38	5581.01	-52353.35	1	52649.98	-83.91509	7.361583E-006	-0.0177836	7
	12	127	18984.38	6849.009	-63491.12	1	63859.46	-83.84311	4.7778E-007	0.0158934	7
	13	132	15046.87	8282.137	-80322.82	1	80748.68	-84.113	-6.201013E-006	0.0249326	7
	14	138	11953.13	6395.986	-92739.43	1	92959.73	-86.05471	-2.395165E-005	0.005256	8
	15	145	9515.62	15025.12	-123666.1	1	124575.5	-83.07266	-2.393149E-005	0.0052623	8
	16	153	7546.875	14678.02	-150500.6	1	151214.7	-84.42967	-5.288059E-006	0.0037474	7
	17	159	5928.309	33367.42	-214611.2	1	217189.7	-81.1625	2.778369E-006	0.0082	7
	18	164	4733.456	9170.852	-228163.9	1	228348.1	-87.69829	-5.222565E-006	0.0262386	7
	19	170	3796.875	52355.24	-295644.8	1	300244.8	-79.9577	-6.438887E-006	0.0254806	7
	20	176	2987.132	145328.2	-414385.8	1	439130.8	-70.67384	-2.631365E-005	0.0075345	8
	21	184	2390.625	207812.9	-190509.6	1	281922.2	-42.5126	-2.518591E-005	0.0111165	8
	22	193	1884.191	-691074.7	343349.7	1	771669.1	153.5802	7.805327E-006	-0.0076417	8
	23	201	1516.544	212524.1	-773430.6	1	802098.1	-74.63541	5.221432E-006	-0.0264067	7
	24	208	1193.986	293035.4	-858975.8	1	907584.2	-71.16317	-1.693249E-006	0.0215979	7
	25	216	946.5144	386454.6	-1011318	1	1082641	-69.08665	1.649633E-007	-0.0204534	6
	26	220	751.7689	421106	-1305688	1	1371915	-72.12463	-2.796403E-007	-0.0068991	6
	27	225	597.4265	592773.2	-1270124	1	1401641	-64.98131	-5.651672E-007	0.0264492	6
	28	230	477.4305	734770.6	-1858578	1	1998549	-68.42912	-9.408848E-009	0.0006533	6
	29	234	376.6741	1279097	-2191758	1	2537694	-59.73242	-1.001028E-009	0.0006496	5
	30	237	298.2954	1376440	-2597765	1	2939893	-62.08288	-9.952168E-009	0.0006479	6
	31	240	237.7717	2121659	-2896041	1	3590054	-53.77324	-9.920383E-010	0.0006401	5
	32	244	189.0121	2680603	-3171767	1	4152799	-49.79734	-9.422113E-010	0.0006392	5
	33	248	150.2404	3416820	-3316239	1	4761523	-44.14415	-1.043994E-009	0.0006715	5
	34	252	119.1737	4369576	-2825897	1	5203738	-32.8916	-1.085115E-009	0.000667	5
	35	255	95.0169	4838124	-3447317	1	5940660	-35.47108	-1.014874E-009	0.0006704	5
	36	258	75.60484	5353105	-3176638	1	6224689	-30.68573	-9.863315E-010	0.0006171	5
	37	261	54.50582	6264402	-2649418	1	6801628	-22.92507	-1.047329E-009	0.0006444	5
	38	264	45.95588	7187669	-1874255	1	7428016	-14.61499	-1.310078E-010	0.0006848	4
	39	266	37.20238	7426059	-1336912	1	7545442	-10.20563	-4.05304E-011	0.0006597	4
	40	269	30.04808	7568423	-1271902	1	7674553	-9.53963	-1.139546E-010	0.0006254	4
	41	272	23.91582	7734752	-1110932	1	7814125	-8.173418	-1.090759E-010	0.0007173	4
	42	275	18.60119	7578593	-487127.3	1	7594233	-3.677727	1.773412E-010	0.0006895	4
	43	277	15.02404	7868174	-854082.6	1	7914393	-6.195145	-8.668258E-011	0.0006922	4
	44	280	12.01923	7932268	-753754.1	1	7968000	-5.428163	-9.333834E-011	0.0006786	4
	45	282	9.450605	8001042	-688453.1	1	8030606	-4.917926	-1.168619E-010	0.0006881	4
	46	285	7.512019	8121923	-705218	1	8152482	-4.962486	-5.746069E-011	0.0006113	4
	47	288	5.978954	8188017	-669849.8	1	8215371	-4.676869	-1.017889E-010	0.0006208	4
	48	292	4.734848	8295540	-647396	1	8320764	-4.462401	-9.143254E-011	0.000696	4
	49	297	3.75601	8401088	-643086.1	1	8425666	-4.377338	-7.597233E-011	0.000646	4
	50	303	3.004808	8552900	-628395.5	1	8575954	-4.202064	-6.449886E-011	0.000681	4
	51	309	2.372217	8681841	-657179.9	1	8706678	-4.328801	-8.522745E-011	0.000577	4
	52	313	1.878005	8816203	-669911.4	1	8841618	-4.345349	-5.073166E-011	0.0006334	4
	53	318	1.512097	8955005	-681875.3	1	8980928	-4.354362	-4.932185E-011	0.0006542	4
	54	323	1.201923	9107287	-696282.4	1	9133865	-4.371948	-5.674088E-011	0.0006549	4
	55	330	0.956633	9274412	-704070.2	1	9301098	-4.341302	-1.89156E-010	-3.510704E-007	4
