EXPLAIN
TAG	EISPOT
TITLE	LABEL	Potentiostatic EIS	Test Identifier
DATE	LABEL	9/23/2020	Date
TIME	LABEL	13:59:07	Time
NOTES	NOTES	1	Notes...
	
PSTAT	PSTAT	REF3000-16137	Potentiostat
VDC	POTEN	0.00000E+000	T	DC Voltage (V)
FREQINIT	QUANT	3.00000E+005	Initial Freq. (Hz)
FREQFINAL	QUANT	1.00000E+000	Final Freq. (Hz)
PTSPERDEC	QUANT	1.00000E+001	Points/decade
VAC	QUANT	5.00000E+001	AC Voltage (mV rms)
AREA	QUANT	1.00000E+000	Sample Area (cm^2)
SPEED	SELECTOR	2	Optimize for:
ZGUESS	QUANT	1.00000E+003	Estimated Z (ohms)
EOC	QUANT	0	Open Circuit (V)
SEQUENCER	TOGGLE	TRUE	Run as Sequence
PSTATMODEL	IQUANT	5	Pstat Model
PSTATSECTION	LABEL	REF3000-16137	Pstat Section
PSTATSERIALNO	LABEL	16137	Pstat Serial Number
CTRLMODE	IQUANT	1	Control Mode
IESTAB	IQUANT	0	I/E Stability
CASPEED	IQUANT	1	Control Amp Speed
CONVENTION	IQUANT	1	Current Convention
ICHRANGE	IQUANT	2	Ich Range
ICHRANGEMODE	TOGGLE	F	Ich Auto Range
ICHOFFSETENABLE	TOGGLE	T	Ich Offset Enable
ICHOFFSET	QUANT	0	Ich Offset (V)
ICHFILTER	IQUANT	3	Ich Filter
VCHRANGE	IQUANT	2	Vch Range
VCHRANGEMODE	TOGGLE	F	Vch Auto Range
VCHOFFSETENABLE	TOGGLE	T	Vch Offset Enable
VCHOFFSET	QUANT	0	Vch Offset (V)
VCHFILTER	IQUANT	3	Vch Filter
ACHRANGE	IQUANT	2	Ach Range
ACHOFFSETENABLE	TOGGLE	F	Ach Offset Enable
ACHOFFSET	QUANT	0	Ach Offset (V)
ACHFILTER	IQUANT	3	Ach Filter
IERANGELOWERLIMIT	IQUANT	2	I/E Range Lower Limit
IERANGEMODE	TOGGLE	F	I/E AutoRange
IERANGE	IQUANT	11	I/E Range
POSFEEDENABLE	TOGGLE	F	Positive Feedback IR Comp
POSFEEDRESISTANCE	QUANT	0	Positive Feedback Resistance (ohm)
ACHSELECT	IQUANT	0	Ach Select
CABLEID	IQUANT	13	Cable ID
DCCALDATE	LABEL	7/31/2020	DC Calibration Date
ACCALDATE	LABEL	7/31/2020	AC Calibration Date
THERMOSELECT	IQUANT	1	Thermo Select
FRAMEWORKVERSION	QUANT	6.33	Framework Version
INSTRUMENTVERSION	LABEL	3.50	Instrument Version
COMPLIANCEVOLTAGE	IQUANT	0	Compliance Voltage
ZCURVE	TABLE
	Pt	Time	Freq	Zreal	Zimag	Zsig	Zmod	Zphz	Idc	Vdc	IERange
	#	s	Hz	ohm	ohm	V	ohm	°	A	V	#
	0	15	300046.9	1499.517	-2565.582	1	2971.66	-59.69481	-2.309219E-005	0.001034	9
	1	29	238359.4	1971.851	-2839.39	1	3456.925	-55.22145	2.467361E-005	-0.0016181	9
	2	45	189328.1	2694.092	-3052.299	1	4071.199	-48.56697	2.768253E-005	-0.0019934	9
	3	52	150421.9	3265.951	-3084.315	1	4492.153	-43.36162	-2.111186E-005	0.0011849	9
	4	60	119484.4	4071.168	-3023.049	1	5070.822	-36.59576	6.89315E-006	0.0134952	8
	5	67	94921.88	4706.575	-2846.052	1	5500.169	-31.16123	-9.967287E-006	-0.001677	8
	6	75	75421.88	5259.724	-2606.863	1	5870.301	-26.36427	-1.8113E-005	0.0107693	8
	7	83	59859.37	5701.414	-2305.763	1	6150.014	-22.01937	2.084516E-005	-0.0092463	8
	8	90	47578.12	6073.331	-1958.999	1	6381.459	-17.8775	2.262644E-005	-0.0030279	8
	9	97	37828.12	6376.125	-1771.133	1	6617.543	-15.524	-1.766438E-005	0.0106183	8
	10	105	30046.88	6555.389	-1401.189	1	6703.466	-12.0652	-1.809445E-005	0.010708	8
	11	112	23859.38	6716.72	-1114.012	1	6808.477	-9.41715	2.505459E-005	-0.0051086	8
	12	118	18984.38	6754.354	-936.3685	1	6818.95	-7.892714	2.523322E-005	-0.0051695	8
	13	123	15046.87	6836.483	-738.1776	1	6876.22	-6.162706	6.704024E-006	-0.0070883	8
	14	129	11953.13	6954.494	-416.2345	1	6966.938	-3.425133	6.42693E-006	-0.0148504	7
	15	132	9515.62	6986.537	-337.1168	1	6994.666	-2.762513	-2.562468E-006	-0.0054872	7
	16	135	7546.875	7002.449	-273.4062	1	7007.784	-2.235942	-6.25479E-006	0.0196961	7
	17	138	5928.309	7014.935	-244.4176	1	7019.191	-1.995518	1.434904E-006	-0.0177127	7
	18	143	4733.456	7071.846	-228.19	1	7075.527	-1.848144	-4.325532E-006	0.0020689	7
	19	147	3796.875	7086.203	-201.2704	1	7089.061	-1.626943	-4.272121E-006	0.0020715	7
	20	151	2987.132	7102.722	-180.9548	1	7105.026	-1.459399	3.283865E-006	-0.0213903	7
	21	155	2390.625	7133.394	-197.0101	1	7136.114	-1.581993	-5.755689E-006	0.0219553	7
	22	158	1884.191	7093.763	-179.2295	1	7096.026	-1.447315	-1.841205E-006	0.0195347	7
	23	163	1516.544	7180.5	-174.1271	1	7182.611	-1.389151	-5.789763E-007	-0.0122901	7
	24	167	1193.986	7231.124	-227.5177	1	7234.703	-1.802141	-5.59562E-006	0.0093605	7
	25	172	946.5144	7245.378	-221.7314	1	7248.771	-1.752884	6.469742E-006	-0.0149178	7
	26	174	751.7689	7316.884	-219.7191	1	7320.183	-1.720021	-5.719301E-006	0.0218484	7
	27	177	597.4265	7406.075	-308.9585	1	7412.516	-2.388818	-5.509321E-007	-0.0123315	7
	28	179	477.4305	7355.487	-349.4477	1	7363.783	-2.719988	-8.000772E-008	0.0006508	7
	29	182	376.6741	7401.049	-402.4309	1	7411.982	-3.112384	-7.191458E-008	0.000568	7
	30	184	298.2954	7450.64	-463.6696	1	7465.053	-3.561049	-7.997735E-008	0.0006409	7
	31	186	237.7717	7505.082	-532.9005	1	7523.977	-4.061487	-8.284619E-008	0.0006495	7
	32	189	189.0121	7567.508	-614.8685	1	7592.446	-4.645142	-7.208489E-008	0.0005907	7
	33	191	150.2404	7637.121	-710.9987	1	7670.146	-5.318777	-7.880003E-008	0.0006495	7
	34	194	119.1737	7715.388	-825.3529	1	7759.408	-6.10599	-7.1205E-008	0.0005797	7
	35	196	95.0169	7800.104	-951.281	1	7857.898	-6.953313	-8.085728E-008	0.0006743	7
	36	198	75.60484	7896.644	-1103.272	1	7973.342	-7.95354	-7.288612E-008	0.0005598	7
	37	201	54.50582	8048.793	-1368.024	1	8164.225	-9.64617	-7.896311E-008	0.000612	7
	38	204	45.95588	8146.423	-1533.85	1	8289.565	-10.66311	-6.49811E-008	0.0005705	7
	39	206	37.20238	8271.624	-1773.586	1	8459.632	-12.10201	-9.400563E-008	0.0005669	7
	40	208	30.04808	8415.744	-2052.514	1	8662.423	-13.70628	-8.019325E-008	0.0006517	7
	41	211	23.91582	8586.254	-2408.988	1	8917.79	-15.67217	-8.8046E-008	0.0006334	7
	42	213	18.60119	8806.45	-2898.449	1	9271.169	-18.21782	-1.345423E-007	0.0006663	7
	43	215	15.02404	9019.477	-3363.202	1	9626.12	-20.44959	-9.375429E-008	0.0005762	7
	44	218	12.01923	9271.102	-3969.73	1	10085.24	-23.1798	-8.001157E-008	0.0006329	7
	45	220	9.450605	9592.67	-4733.368	1	10696.92	-26.2634	-1.099075E-007	0.0006581	7
	46	223	7.512019	9959.19	-5630.372	1	11440.57	-29.4814	-1.007284E-007	0.0006453	7
	47	225	5.978954	10395.04	-6697.831	1	12365.99	-32.79489	-7.849398E-008	0.0005725	7
	48	228	4.734848	10932.46	-8008.109	1	13551.7	-36.22305	-7.256892E-008	0.0006474	7
	49	232	3.75601	11562.86	-9556.12	1	15000.64	-39.57203	-9.046336E-008	0.0006484	7
	50	235	3.004808	12300.29	-11314.59	1	16712.79	-42.60984	-7.92751E-008	0.0006404	7
	51	239	2.372217	13242.69	-13529.52	1	18931.89	-45.61382	-8.210539E-008	0.000638	7
	52	243	1.878005	14408.48	-16176.6	1	21663.03	-48.30857	-8.592058E-008	0.0005985	7
	53	248	1.512097	15666.94	-19040.66	1	24657.65	-50.55195	-8.280052E-008	0.0006167	7
	54	253	1.201923	17350.71	-22650.36	1	28532.19	-52.54705	-8.176986E-008	0.0005918	7
	55	259	0.956633	19351.97	-26851.2	1	33098.13	-54.21927	-8.44042E-008	-3.387316E-005	7
