EXPLAIN
TAG	EISPOT
TITLE	LABEL	Potentiostatic EIS	Test Identifier
DATE	LABEL	9/23/2020	Date
TIME	LABEL	12:49:04	Time
NOTES	NOTES	1	Notes...
	
PSTAT	PSTAT	REF3000-16137	Potentiostat
VDC	POTEN	0.00000E+000	T	DC Voltage (V)
FREQINIT	QUANT	3.00000E+005	Initial Freq. (Hz)
FREQFINAL	QUANT	1.00000E+000	Final Freq. (Hz)
PTSPERDEC	QUANT	1.00000E+001	Points/decade
VAC	QUANT	5.00000E+001	AC Voltage (mV rms)
AREA	QUANT	1.00000E+000	Sample Area (cm^2)
SPEED	SELECTOR	2	Optimize for:
ZGUESS	QUANT	1.00000E+003	Estimated Z (ohms)
EOC	QUANT	0	Open Circuit (V)
SEQUENCER	TOGGLE	TRUE	Run as Sequence
PSTATMODEL	IQUANT	5	Pstat Model
PSTATSECTION	LABEL	REF3000-16137	Pstat Section
PSTATSERIALNO	LABEL	16137	Pstat Serial Number
CTRLMODE	IQUANT	1	Control Mode
IESTAB	IQUANT	0	I/E Stability
CASPEED	IQUANT	1	Control Amp Speed
CONVENTION	IQUANT	1	Current Convention
ICHRANGE	IQUANT	2	Ich Range
ICHRANGEMODE	TOGGLE	F	Ich Auto Range
ICHOFFSETENABLE	TOGGLE	T	Ich Offset Enable
ICHOFFSET	QUANT	0	Ich Offset (V)
ICHFILTER	IQUANT	3	Ich Filter
VCHRANGE	IQUANT	2	Vch Range
VCHRANGEMODE	TOGGLE	F	Vch Auto Range
VCHOFFSETENABLE	TOGGLE	T	Vch Offset Enable
VCHOFFSET	QUANT	0	Vch Offset (V)
VCHFILTER	IQUANT	3	Vch Filter
ACHRANGE	IQUANT	2	Ach Range
ACHOFFSETENABLE	TOGGLE	F	Ach Offset Enable
ACHOFFSET	QUANT	0	Ach Offset (V)
ACHFILTER	IQUANT	3	Ach Filter
IERANGELOWERLIMIT	IQUANT	2	I/E Range Lower Limit
IERANGEMODE	TOGGLE	F	I/E AutoRange
IERANGE	IQUANT	11	I/E Range
POSFEEDENABLE	TOGGLE	F	Positive Feedback IR Comp
POSFEEDRESISTANCE	QUANT	0	Positive Feedback Resistance (ohm)
ACHSELECT	IQUANT	0	Ach Select
CABLEID	IQUANT	13	Cable ID
DCCALDATE	LABEL	7/31/2020	DC Calibration Date
ACCALDATE	LABEL	7/31/2020	AC Calibration Date
THERMOSELECT	IQUANT	1	Thermo Select
FRAMEWORKVERSION	QUANT	6.33	Framework Version
INSTRUMENTVERSION	LABEL	3.50	Instrument Version
COMPLIANCEVOLTAGE	IQUANT	0	Compliance Voltage
ZCURVE	TABLE
	Pt	Time	Freq	Zreal	Zimag	Zsig	Zmod	Zphz	Idc	Vdc	IERange
	#	s	Hz	ohm	ohm	V	ohm	°	A	V	#
	0	15	300046.9	1095.677	-387.8167	1	1162.286	-19.49151	3.247325E-005	-0.0016785	9
	1	31	238359.4	1127.903	-318.5202	1	1172.016	-15.76969	-2.110125E-006	-0.0019322	9
	2	45	189328.1	1138.351	-252.0446	1	1165.92	-12.48457	-1.346071E-005	0.0017357	9
	3	51	150421.9	1167.475	-204.216	1	1185.201	-9.92186	-1.993448E-005	0.0011566	9
	4	58	119484.4	1181.686	-135.2845	1	1189.405	-6.531034	1.212639E-005	-0.012668	8
	5	64	94921.88	1183.205	-105.0469	1	1187.859	-5.073509	-9.257858E-006	-0.0009393	8
	6	67	75421.88	1185.947	-89.48956	1	1189.319	-4.315264	-1.917249E-005	0.0049389	8
	7	69	59859.37	1182.501	-72.68498	1	1184.732	-3.517385	7.814289E-006	0.0028712	8
	8	72	47578.12	1185.058	-58.77758	1	1186.515	-2.839481	1.950439E-005	-0.006873	8
	9	75	37828.12	1179.28	-49.12877	1	1180.303	-2.385561	-1.367044E-005	0.0086299	8
	10	78	30046.88	1177.735	-45.01896	1	1178.595	-2.189067	1.685888E-005	-0.0074673	8
	11	81	23859.38	1177.852	-37.17042	1	1178.438	-1.807529	-1.978548E-005	0.0050128	8
	12	83	18984.38	1178.088	-34.74089	1	1178.6	-1.689118	2.086167E-005	-0.004447	8
	13	86	15046.87	1177.151	-31.1379	1	1177.563	-1.51523	-3.049309E-006	-0.0031212	8
	14	90	11953.13	1178.139	-31.01068	1	1178.547	-1.507776	1.920167E-005	-0.0028149	8
	15	94	9515.62	1174.527	-33.47895	1	1175.004	-1.632729	1.124401E-005	-0.0068112	8
	16	97	7546.875	1175.732	-31.98038	1	1176.167	-1.558083	-1.402407E-005	0.0014012	8
	17	99	5928.309	1173.698	-33.03227	1	1174.163	-1.612093	-9.223622E-006	-0.0008111	8
	18	103	4733.456	1177.826	-39.10616	1	1178.475	-1.901634	-7.515438E-006	0.0076271	8
	19	107	3796.875	1176.226	-44.315	1	1177.06	-2.157632	2.084061E-005	-0.0043363	8
	20	111	2987.132	1176.438	-51.96269	1	1177.585	-2.529083	-1.389255E-005	0.0013749	8
	21	114	2390.625	1181.956	-58.28312	1	1183.392	-2.82301	3.369714E-007	0.0055292	8
	22	117	1884.191	1184.527	-68.90827	1	1186.53	-3.329353	-2.005755E-005	0.0078374	8
	23	121	1516.544	1185.074	-73.94887	1	1187.379	-3.570639	-9.095747E-006	-0.00083	8
	24	125	1193.986	1189.699	-90.26022	1	1193.118	-4.338611	2.108827E-005	-0.0059628	8
	25	129	946.5144	1196.52	-109.8932	1	1201.555	-5.247555	-2.041114E-005	0.0064605	8
	26	131	751.7689	1205.241	-122.4811	1	1211.449	-5.802688	1.922279E-005	-0.0027635	8
	27	134	597.4265	1212.967	-140.8129	1	1221.113	-6.621807	-2.495312E-006	-0.00333	8
	28	137	477.4305	1223.397	-160.3767	1	1233.865	-7.468387	-2.638522E-007	0.0006428	8
	29	139	376.6741	1236.197	-188.4246	1	1250.475	-8.666478	-2.527942E-007	0.0006491	8
	30	141	298.2954	1250.477	-221.0912	1	1269.871	-10.02659	-2.164428E-007	0.0006322	8
	31	144	237.7717	1266.503	-259.1509	1	1292.745	-11.56419	-2.225881E-007	0.0006287	8
	32	146	189.0121	1285.283	-305.0686	1	1320.992	-13.35236	-2.441587E-007	0.00063	8
	33	148	150.2404	1306.888	-360.0221	1	1355.571	-15.40184	-2.719138E-007	0.0006413	8
	34	151	119.1737	1332.599	-426.7116	1	1399.251	-17.75559	-2.335934E-007	0.0006239	8
	35	153	95.0169	1362.154	-504.8518	1	1452.7	-20.3361	-2.168299E-007	0.0006215	8
	36	156	75.60484	1397.439	-599.309	1	1520.529	-23.21267	-2.354157E-007	0.0006243	8
	37	158	54.50582	1460.89	-768.4122	1	1650.654	-27.74387	-2.512091E-007	0.0006376	8
	38	161	45.95588	1500.606	-875.3615	1	1737.261	-30.25666	-2.399854E-007	0.0006463	8
	39	163	37.20238	1558.803	-1029.247	1	1867.944	-33.436	-2.754945E-007	0.0006685	8
	40	166	30.04808	1629.245	-1212.481	1	2030.898	-36.65657	-2.676568E-007	0.0006429	8
	41	168	23.91582	1720.283	-1444.743	1	2246.477	-40.0245	-2.08981E-007	0.0006386	8
	42	170	18.60119	1843.925	-1752.383	1	2543.797	-43.54189	-2.928961E-007	0.0006426	8
	43	173	15.02404	1975.734	-2061.41	1	2855.335	-46.21574	-2.700493E-007	0.0006302	8
	44	175	12.01923	2139.282	-2440.523	1	3245.409	-48.76325	-2.060922E-007	0.0006333	8
	45	177	9.450605	2354.409	-2923.521	1	3753.694	-51.15435	-2.592028E-007	0.0006342	8
	46	180	7.512019	2613.953	-3475.54	1	4348.808	-53.05318	-4.140321E-008	0.0005819	7
	47	183	5.978954	2917.121	-4108.16	1	5038.509	-54.62221	-4.095891E-008	0.0006154	7
	48	186	4.734848	3293.336	-4872.926	1	5881.451	-55.94746	-9.53228E-008	0.0006245	7
	49	189	3.75601	3748.802	-5752.534	1	6866.233	-56.90858	-3.92369E-008	0.0006308	7
	50	192	3.004808	4275.771	-6731.249	1	7974.455	-57.57579	-6.5837E-008	0.0006271	7
	51	196	2.372217	4945.214	-7923.989	1	9340.49	-58.03248	-5.763886E-008	0.0005851	7
	52	200	1.878005	5739.327	-9316.41	1	10942.37	-58.36507	-4.829426E-008	0.000606	7
	53	205	1.512097	6580.993	-10773.85	1	12624.79	-58.58216	-5.806243E-008	0.0006374	7
	54	210	1.201923	7654.497	-12560.29	1	14708.91	-58.64101	-5.604181E-008	0.0006252	7
	55	217	0.956633	8873.985	-14599.21	1	17084.63	-58.7071	-8.248807E-008	-2.748847E-005	7
