EXPLAIN
TAG	EISPOT
TITLE	LABEL	Potentiostatic EIS	Test Identifier
DATE	LABEL	9/23/2020	Date
TIME	LABEL	14:52:07	Time
NOTES	NOTES	1	Notes...
	
PSTAT	PSTAT	REF3000-16137	Potentiostat
VDC	POTEN	0.00000E+000	T	DC Voltage (V)
FREQINIT	QUANT	3.00000E+005	Initial Freq. (Hz)
FREQFINAL	QUANT	1.00000E+000	Final Freq. (Hz)
PTSPERDEC	QUANT	1.00000E+001	Points/decade
VAC	QUANT	5.00000E+001	AC Voltage (mV rms)
AREA	QUANT	1.00000E+000	Sample Area (cm^2)
SPEED	SELECTOR	2	Optimize for:
ZGUESS	QUANT	1.00000E+003	Estimated Z (ohms)
EOC	QUANT	0	Open Circuit (V)
SEQUENCER	TOGGLE	TRUE	Run as Sequence
PSTATMODEL	IQUANT	5	Pstat Model
PSTATSECTION	LABEL	REF3000-16137	Pstat Section
PSTATSERIALNO	LABEL	16137	Pstat Serial Number
CTRLMODE	IQUANT	1	Control Mode
IESTAB	IQUANT	0	I/E Stability
CASPEED	IQUANT	1	Control Amp Speed
CONVENTION	IQUANT	1	Current Convention
ICHRANGE	IQUANT	2	Ich Range
ICHRANGEMODE	TOGGLE	F	Ich Auto Range
ICHOFFSETENABLE	TOGGLE	T	Ich Offset Enable
ICHOFFSET	QUANT	0	Ich Offset (V)
ICHFILTER	IQUANT	3	Ich Filter
VCHRANGE	IQUANT	2	Vch Range
VCHRANGEMODE	TOGGLE	F	Vch Auto Range
VCHOFFSETENABLE	TOGGLE	T	Vch Offset Enable
VCHOFFSET	QUANT	0	Vch Offset (V)
VCHFILTER	IQUANT	3	Vch Filter
ACHRANGE	IQUANT	2	Ach Range
ACHOFFSETENABLE	TOGGLE	F	Ach Offset Enable
ACHOFFSET	QUANT	0	Ach Offset (V)
ACHFILTER	IQUANT	3	Ach Filter
IERANGELOWERLIMIT	IQUANT	2	I/E Range Lower Limit
IERANGEMODE	TOGGLE	F	I/E AutoRange
IERANGE	IQUANT	11	I/E Range
POSFEEDENABLE	TOGGLE	F	Positive Feedback IR Comp
POSFEEDRESISTANCE	QUANT	0	Positive Feedback Resistance (ohm)
ACHSELECT	IQUANT	0	Ach Select
CABLEID	IQUANT	13	Cable ID
DCCALDATE	LABEL	7/31/2020	DC Calibration Date
ACCALDATE	LABEL	7/31/2020	AC Calibration Date
THERMOSELECT	IQUANT	1	Thermo Select
FRAMEWORKVERSION	QUANT	6.33	Framework Version
INSTRUMENTVERSION	LABEL	3.50	Instrument Version
COMPLIANCEVOLTAGE	IQUANT	0	Compliance Voltage
ZCURVE	TABLE
	Pt	Time	Freq	Zreal	Zimag	Zsig	Zmod	Zphz	Idc	Vdc	IERange
	#	s	Hz	ohm	ohm	V	ohm	°	A	V	#
	0	16	300046.9	555.9745	-3844.503	1	3884.497	-81.77119	-2.309904E-005	0.0010319	9
	1	34	238359.4	792.3654	-4659.292	1	4726.187	-80.34854	-5.817771E-005	0.0004522	9
	2	59	189328.1	1258.708	-5700.344	1	5837.66	-77.54818	-2.015275E-005	0.0014997	9
	3	66	150421.9	1582.118	-6946.994	1	7124.873	-77.1702	-8.902908E-005	0.0042016	9
	4	77	119484.4	2006.114	-8520.213	1	8753.2	-76.75083	7.769507E-007	-0.0018662	9
	5	90	94921.88	3136.726	-10184.42	1	10656.52	-72.88155	2.321503E-005	-0.0029016	8
	6	99	75421.88	4049.342	-12419.75	1	13063.2	-71.94193	8.79298E-006	0.0039668	8
	7	107	59859.37	5758.488	-14864.19	1	15940.65	-68.8233	-2.612001E-005	0.0076278	8
	8	116	47578.12	10171.6	-17750.01	1	20457.87	-60.18523	-3.192669E-006	-0.0048075	7
	9	123	37828.12	12946.57	-20577.58	1	24311.53	-57.82357	1.216533E-006	-0.0188536	7
	10	129	30046.88	16665.73	-23498.28	1	28808.26	-54.65452	-1.591499E-006	0.0207868	7
	11	137	23859.38	21377.9	-26268.82	1	33868.35	-50.86087	2.589061E-006	0.0080629	7
	12	142	18984.38	25611.46	-29029.23	1	38712.31	-48.57918	-1.9412E-005	0.0113277	8
	13	149	15046.87	33480.57	-29109.8	1	44365.86	-41.00544	-9.660444E-006	-0.0020322	8
	14	155	11953.13	39981.34	-28519.39	1	49110.72	-35.50093	-6.229119E-006	0.0246288	7
	15	160	9515.62	43160.78	-26168.38	1	50474.12	-31.22843	-2.415536E-005	0.0054076	8
	16	167	7546.875	49594.12	-23758.85	1	54991.45	-25.59749	-1.528472E-005	0.0004771	8
	17	173	5928.309	56674.54	-21608.97	1	60654.35	-20.87094	-5.055054E-006	0.0252806	7
	18	179	4733.456	57524.7	-18974.04	1	60573.14	-18.2547	-6.89413E-006	0.0224452	7
	19	184	3796.875	61771.71	-15385.85	1	63659	-13.9864	5.052288E-006	-0.0255708	7
	20	189	2987.132	63981.87	-13655.3	1	65422.83	-12.04757	-5.071502E-006	0.0034618	7
	21	195	2390.625	65136.75	-10984.14	1	66056.39	-9.57185	-6.916814E-006	0.0224981	7
	22	200	1884.191	65705.54	-12556.79	1	66894.63	-10.81917	4.470257E-007	0.0154172	7
	23	205	1516.544	66087.77	-4526.049	1	66242.57	-3.917809	-4.17661E-008	-0.0143723	6
	24	210	1193.986	66983.54	-3469.152	1	67073.31	-2.964763	4.019661E-007	0.0020939	6
	25	214	946.5144	66653.49	-3452.835	1	66742.87	-2.965429	-2.561947E-007	-0.0074902	6
	26	217	751.7689	66611.09	-2866.351	1	66672.73	-2.463983	7.335044E-007	-0.021542	6
	27	219	597.4265	66882.8	-2175.032	1	66918.16	-1.862605	-2.203334E-007	0.0213355	6
	28	222	477.4305	67585.5	-2089.132	1	67617.78	-1.770503	-1.151858E-008	0.0006622	6
	29	224	376.6741	67828.96	-1971.378	1	67857.6	-1.664773	-1.1542E-008	0.0006924	6
	30	227	298.2954	68050.22	-1974.616	1	68078.86	-1.662088	-1.126809E-008	0.0006223	6
	31	229	237.7717	68306.89	-1957.557	1	68334.94	-1.641548	-9.762731E-009	0.000593	6
	32	231	189.0121	68584.77	-2057.597	1	68615.63	-1.718403	-1.165332E-008	0.0006134	6
	33	234	150.2404	68853.66	-2194.935	1	68888.64	-1.825872	-9.617862E-009	0.0006444	6
	34	236	119.1737	69204.3	-2597.182	1	69253.02	-2.149256	-1.187098E-008	0.0006031	6
	35	239	95.0169	69553.77	-2679.385	1	69605.36	-2.206086	-9.741537E-009	0.0006306	6
	36	241	75.60484	69926.62	-2986.43	1	69990.36	-2.445505	-8.27319E-009	0.0006048	6
	37	244	54.50582	70452.69	-3700.012	1	70549.78	-3.006279	-8.617998E-009	0.0006844	6
	38	246	45.95588	70898.64	-3931.652	1	71007.57	-3.17406	-1.41481E-008	0.0006522	6
	39	249	37.20238	71414.29	-4455.305	1	71553.13	-3.56987	-1.038393E-008	0.0006913	6
	40	251	30.04808	71987.03	-5047.45	1	72163.77	-4.010793	-1.479968E-008	0.0006785	6
	41	253	23.91582	72569.31	-5795.982	1	72800.4	-4.566419	-1.824819E-008	0.0006531	6
	42	256	18.60119	73398.75	-6740.024	1	73707.56	-5.246614	-4.427197E-009	0.000596	6
	43	258	15.02404	74274.51	-7670.525	1	74669.53	-5.896185	9.130097E-010	0.0006127	6
	44	260	12.01923	75045.05	-8671.971	1	75544.44	-6.591684	-2.455216E-008	0.0007146	6
	45	263	9.450605	75991.62	-10119.62	1	76662.46	-7.58531	1.443444E-009	0.0006321	6
	46	265	7.512019	76998.21	-11866.13	1	77907.19	-8.760886	3.503072E-009	0.0006926	6
	47	268	5.978954	78316.11	-13796.07	1	79521.98	-9.99065	-6.573463E-010	0.0007023	6
	48	271	4.734848	79773.28	-15935.75	1	81349.4	-11.29688	-6.874448E-009	0.0006943	6
	49	274	3.75601	81486.88	-18698.43	1	83604.69	-12.92368	-3.652303E-009	0.0006262	6
	50	278	3.004808	83063.61	-21727	1	85858.17	-14.65848	-1.455506E-008	0.000722	6
	51	282	2.372217	85450.78	-25488.69	1	89171.23	-16.60906	-3.396821E-009	0.0006595	6
	52	286	1.878005	87725.4	-29968.75	1	92703.13	-18.86119	-6.696639E-009	0.000624	6
	53	290	1.512097	90308.54	-35006.96	1	96856.2	-21.18819	-7.079613E-009	0.0007323	6
	54	296	1.201923	93547.02	-41529.37	1	102351	-23.93841	-5.923704E-009	0.0006771	6
	55	302	0.956633	97316.9	-49142.53	1	109020.9	-26.7926	-1.562631E-008	8.155944E-006	6
