EXPLAIN
TAG	EISPOT
TITLE	LABEL	Potentiostatic EIS	Test Identifier
DATE	LABEL	9/23/2020	Date
TIME	LABEL	16:25:18	Time
NOTES	NOTES	1	Notes...
	
PSTAT	PSTAT	REF3000-16137	Potentiostat
VDC	POTEN	0.00000E+000	T	DC Voltage (V)
FREQINIT	QUANT	3.00000E+005	Initial Freq. (Hz)
FREQFINAL	QUANT	1.00000E+000	Final Freq. (Hz)
PTSPERDEC	QUANT	1.00000E+001	Points/decade
VAC	QUANT	5.00000E+001	AC Voltage (mV rms)
AREA	QUANT	1.00000E+000	Sample Area (cm^2)
SPEED	SELECTOR	2	Optimize for:
ZGUESS	QUANT	1.00000E+003	Estimated Z (ohms)
EOC	QUANT	0	Open Circuit (V)
SEQUENCER	TOGGLE	TRUE	Run as Sequence
PSTATMODEL	IQUANT	5	Pstat Model
PSTATSECTION	LABEL	REF3000-16137	Pstat Section
PSTATSERIALNO	LABEL	16137	Pstat Serial Number
CTRLMODE	IQUANT	1	Control Mode
IESTAB	IQUANT	0	I/E Stability
CASPEED	IQUANT	1	Control Amp Speed
CONVENTION	IQUANT	1	Current Convention
ICHRANGE	IQUANT	2	Ich Range
ICHRANGEMODE	TOGGLE	F	Ich Auto Range
ICHOFFSETENABLE	TOGGLE	T	Ich Offset Enable
ICHOFFSET	QUANT	0	Ich Offset (V)
ICHFILTER	IQUANT	3	Ich Filter
VCHRANGE	IQUANT	2	Vch Range
VCHRANGEMODE	TOGGLE	F	Vch Auto Range
VCHOFFSETENABLE	TOGGLE	T	Vch Offset Enable
VCHOFFSET	QUANT	0	Vch Offset (V)
VCHFILTER	IQUANT	3	Vch Filter
ACHRANGE	IQUANT	2	Ach Range
ACHOFFSETENABLE	TOGGLE	F	Ach Offset Enable
ACHOFFSET	QUANT	0	Ach Offset (V)
ACHFILTER	IQUANT	3	Ach Filter
IERANGELOWERLIMIT	IQUANT	2	I/E Range Lower Limit
IERANGEMODE	TOGGLE	F	I/E AutoRange
IERANGE	IQUANT	11	I/E Range
POSFEEDENABLE	TOGGLE	F	Positive Feedback IR Comp
POSFEEDRESISTANCE	QUANT	0	Positive Feedback Resistance (ohm)
ACHSELECT	IQUANT	0	Ach Select
CABLEID	IQUANT	13	Cable ID
DCCALDATE	LABEL	7/31/2020	DC Calibration Date
ACCALDATE	LABEL	7/31/2020	AC Calibration Date
THERMOSELECT	IQUANT	1	Thermo Select
FRAMEWORKVERSION	QUANT	6.33	Framework Version
INSTRUMENTVERSION	LABEL	3.50	Instrument Version
COMPLIANCEVOLTAGE	IQUANT	0	Compliance Voltage
ZCURVE	TABLE
	Pt	Time	Freq	Zreal	Zimag	Zsig	Zmod	Zphz	Idc	Vdc	IERange
	#	s	Hz	ohm	ohm	V	ohm	°	A	V	#
	0	16	300046.9	43.76406	-4424.035	1	4424.251	-89.43323	2.902024E-005	-0.0004666	9
	1	36	238359.4	97.6096	-5460.326	1	5461.199	-88.97588	5.004088E-005	8.125628E-006	9
	2	50	189328.1	-319.4177	-6919.411	1	6926.779	-92.64304	2.817765E-005	-0.0019792	9
	3	59	150421.9	265.7998	-8361.234	1	8365.458	-88.17921	1.911744E-005	-0.0002705	9
	4	66	119484.4	541.5532	-10565.02	1	10578.89	-87.06564	2.210418E-005	-0.0183236	8
	5	74	94921.88	536.6472	-13268.9	1	13279.74	-87.68399	2.27022E-005	-0.002704	8
	6	82	75421.88	628.3582	-16745.05	1	16756.83	-87.85098	2.609398E-005	-0.0090651	8
	7	91	59859.37	994.036	-20693.97	1	20717.84	-87.24991	2.715261E-005	-0.0073699	8
	8	99	47578.12	3768.398	-27372.41	1	27630.6	-82.16129	-3.532968E-006	0.0248674	7
	9	107	37828.12	4345.381	-33960.4	1	34237.27	-82.70837	4.876524E-006	-0.0008993	7
	10	114	30046.88	4667.973	-41796.31	1	42056.17	-83.6274	-7.182174E-006	0.0234956	7
	11	122	23859.38	3556.239	-48713.35	1	48842.98	-85.82462	7.491636E-006	-0.0074523	8
	12	128	18984.38	5339.147	-65237.19	1	65455.31	-85.32122	7.573232E-006	-0.024263	7
	13	134	15046.87	6374.102	-81299.21	1	81548.7	-85.51701	-3.613687E-006	0.0252811	7
	14	139	11953.13	8655.97	-100860.1	1	101230.8	-85.0948	-7.31354E-006	0.0188538	7
	15	144	9515.62	8457.765	-130110.3	1	130384.9	-86.28075	4.905374E-006	-0.0007688	7
	16	150	7546.875	8132.114	-160389.4	1	160595.5	-87.09746	-3.741618E-006	0.0253253	7
	17	155	5928.309	3158.885	-215477.2	1	215500.4	-89.16011	5.260111E-006	-0.0264443	7
	18	161	4733.456	12585.58	-228435.7	1	228782.2	-86.8465	-6.634789E-006	0.0119333	7
	19	167	3796.875	52567.55	-310191.6	1	314614.3	-80.38158	2.698104E-006	0.0084411	7
	20	174	2987.132	52726.68	-245354	1	250955.6	-77.87157	1.617787E-005	-0.0092525	8
	21	182	2390.625	-22961.27	-518003.9	1	518512.6	-92.53806	3.413283E-006	-0.0240741	7
	22	189	1884.191	67448.59	-591218.3	1	595053.2	-83.4916	7.635705E-007	-0.0227921	6
	23	196	1516.544	98867.2	-751080	1	757559.2	-82.50108	1.791216E-007	-0.0209122	6
	24	201	1193.986	125487.5	-353375.8	1	374995.4	-70.4495	-2.322465E-005	0.0004466	9
	25	210	946.5144	366863.1	-412190.7	1	551805.9	-48.32988	7.135597E-006	-0.0074491	8
	26	217	751.7689	253464.1	-428811.2	1	498119.6	-59.41328	6.682465E-006	-0.0262026	7
	27	222	597.4265	205098.5	-1101714	1	1120642	-79.45435	-9.942247E-007	-0.0136823	7
	28	227	477.4305	477501.2	-2225163	1	2275820	-77.88849	-9.52747E-009	0.0006355	6
	29	232	376.6741	977962	-2764835	1	2932698	-70.52058	-9.312531E-010	0.0005801	5
	30	234	298.2954	914196.8	-3330696	1	3453881	-74.65166	-1.028561E-008	0.0006838	6
	31	238	237.7717	1540278	-3971411	1	4259643	-68.80164	-1.108011E-009	0.0006516	5
	32	242	189.0121	2022940	-4831085	1	5237525	-67.27927	-1.073766E-009	0.0006749	5
	33	245	150.2404	2716519	-5704832	1	6318590	-64.53721	-9.784527E-010	0.0006343	5
	34	248	119.1737	4192828	-5688708	1	7066910	-53.60815	-9.394389E-010	0.000687	5
	35	250	95.0169	4603832	-8009909	1	9238718	-60.11113	-1.014603E-009	0.0006838	5
	36	253	75.60484	6618321	-8918160	1	1.110566E+007	-53.42025	-9.726795E-010	0.0006667	5
	37	256	54.50582	8680719	-9.653901E+006	1	1.298278E+007	-48.03835	-1.061555E-009	0.0006816	5
	38	259	45.95588	1.268112E+007	-9.871481E+006	1	1.607038E+007	-37.89859	-9.42551E-011	0.0006134	4
	39	262	37.20238	1.325711E+007	-9189194	1	1.613048E+007	-34.72784	-3.496448E-011	0.0006035	4
	40	265	30.04808	1.559153E+007	-9124965	1	1.806546E+007	-30.33837	-1.156636E-010	0.0007221	4
	41	268	23.91582	1.811576E+007	-8406895	1	1.99714E+007	-24.89437	-1.450291E-010	0.0006038	4
	42	270	18.60119	1.905615E+007	-1.165128E+007	1	2.233583E+007	-31.44238	1.797449E-010	0.0007144	4
	43	273	15.02404	1.990199E+007	-6628633	1	2.097685E+007	-18.42105	-1.210257E-010	0.0006873	4
	44	275	12.01923	2.074903E+007	-6071235	1	2.161902E+007	-16.30965	-9.969258E-011	0.0005929	4
	45	278	9.450605	2.130686E+007	-5340602	1	2.196598E+007	-14.07138	-1.173866E-010	0.0006587	4
	46	281	7.512019	2.218787E+007	-4541494	1	2.264789E+007	-11.56773	-8.89302E-011	0.0006393	4
	47	284	5.978954	2.264226E+007	-4070651	1	2.300526E+007	-10.19183	-7.595625E-011	0.0006087	4
	48	288	4.734848	2.329355E+007	-4010849	1	2.363633E+007	-9.7698	-8.690849E-011	0.0006449	4
	49	293	3.75601	2.359687E+007	-4277250	1	2.398139E+007	-10.27408	-1.063254E-009	0.0006399	5
	50	300	3.004808	2.42567E+007	-3906751	1	2.456929E+007	-9.149409	-9.989813E-010	0.0005931	5
	51	307	2.372217	2.492051E+007	-3438530	1	2.515662E+007	-7.856061	-1.033968E-010	0.0007093	4
	52	313	1.878005	2.546577E+007	-3358320	1	2.568626E+007	-7.512577	-1.070375E-010	0.0006301	4
	53	320	1.512097	2.601565E+007	-3325712	1	2.622736E+007	-7.284897	-1.071009E-010	0.0006109	4
	54	325	1.201923	2.661741E+007	-3304319	1	2.682172E+007	-7.076566	-1.049067E-010	0.0006163	4
	55	332	0.956633	2.725396E+007	-3289743	1	2.745179E+007	-6.8827	-1.265545E-010	8.615139E-006	4
