EXPLAIN
TAG	EISPOT
TITLE	LABEL	Potentiostatic EIS	Test Identifier
DATE	LABEL	9/23/2020	Date
TIME	LABEL	14:07:56	Time
NOTES	NOTES	1	Notes...
	
PSTAT	PSTAT	REF3000-16137	Potentiostat
VDC	POTEN	0.00000E+000	T	DC Voltage (V)
FREQINIT	QUANT	3.00000E+005	Initial Freq. (Hz)
FREQFINAL	QUANT	1.00000E+000	Final Freq. (Hz)
PTSPERDEC	QUANT	1.00000E+001	Points/decade
VAC	QUANT	5.00000E+001	AC Voltage (mV rms)
AREA	QUANT	1.00000E+000	Sample Area (cm^2)
SPEED	SELECTOR	2	Optimize for:
ZGUESS	QUANT	1.00000E+003	Estimated Z (ohms)
EOC	QUANT	0	Open Circuit (V)
SEQUENCER	TOGGLE	TRUE	Run as Sequence
PSTATMODEL	IQUANT	5	Pstat Model
PSTATSECTION	LABEL	REF3000-16137	Pstat Section
PSTATSERIALNO	LABEL	16137	Pstat Serial Number
CTRLMODE	IQUANT	1	Control Mode
IESTAB	IQUANT	0	I/E Stability
CASPEED	IQUANT	1	Control Amp Speed
CONVENTION	IQUANT	1	Current Convention
ICHRANGE	IQUANT	2	Ich Range
ICHRANGEMODE	TOGGLE	F	Ich Auto Range
ICHOFFSETENABLE	TOGGLE	T	Ich Offset Enable
ICHOFFSET	QUANT	0	Ich Offset (V)
ICHFILTER	IQUANT	3	Ich Filter
VCHRANGE	IQUANT	2	Vch Range
VCHRANGEMODE	TOGGLE	F	Vch Auto Range
VCHOFFSETENABLE	TOGGLE	T	Vch Offset Enable
VCHOFFSET	QUANT	0	Vch Offset (V)
VCHFILTER	IQUANT	3	Vch Filter
ACHRANGE	IQUANT	2	Ach Range
ACHOFFSETENABLE	TOGGLE	F	Ach Offset Enable
ACHOFFSET	QUANT	0	Ach Offset (V)
ACHFILTER	IQUANT	3	Ach Filter
IERANGELOWERLIMIT	IQUANT	2	I/E Range Lower Limit
IERANGEMODE	TOGGLE	F	I/E AutoRange
IERANGE	IQUANT	11	I/E Range
POSFEEDENABLE	TOGGLE	F	Positive Feedback IR Comp
POSFEEDRESISTANCE	QUANT	0	Positive Feedback Resistance (ohm)
ACHSELECT	IQUANT	0	Ach Select
CABLEID	IQUANT	13	Cable ID
DCCALDATE	LABEL	7/31/2020	DC Calibration Date
ACCALDATE	LABEL	7/31/2020	AC Calibration Date
THERMOSELECT	IQUANT	1	Thermo Select
FRAMEWORKVERSION	QUANT	6.33	Framework Version
INSTRUMENTVERSION	LABEL	3.50	Instrument Version
COMPLIANCEVOLTAGE	IQUANT	0	Compliance Voltage
ZCURVE	TABLE
	Pt	Time	Freq	Zreal	Zimag	Zsig	Zmod	Zphz	Idc	Vdc	IERange
	#	s	Hz	ohm	ohm	V	ohm	°	A	V	#
	0	28	300046.9	1308.771	-2908.782	1	3189.655	-65.77522	2.007842E-005	-0.0011229	9
	1	44	238359.4	1794.748	-3271.767	1	3731.699	-61.25277	2.749687E-005	-0.0020244	9
	2	59	189328.1	2201.001	-3784.151	1	4377.694	-59.81615	2.017745E-005	-0.000877	9
	3	67	150421.9	3233.25	-4189.702	1	5292.212	-52.34214	-2.107845E-005	0.0012692	9
	4	75	119484.4	4168.036	-4235.41	1	5942.325	-45.45935	2.141414E-005	-0.0141365	8
	5	82	94921.88	5154.431	-4307.672	1	6717.454	-39.88625	1.496612E-005	-0.0087657	8
	6	90	75421.88	6115.639	-4152.708	1	7392.295	-34.17772	-2.567243E-005	0.0094682	8
	7	97	59859.37	6954.801	-3846.412	1	7947.587	-28.94516	-1.90509E-006	-0.0046774	8
	8	106	47578.12	8424.341	-2741.011	1	8859.044	-18.02323	2.164363E-006	0.0083045	7
	9	110	37828.12	8782.037	-2306.446	1	9079.86	-14.71539	5.57813E-006	-0.0077637	7
	10	116	30046.88	9029.708	-1920.677	1	9231.719	-12.00822	-4.527772E-006	0.00238	7
	11	120	23859.38	9192.402	-1562.11	1	9324.187	-9.64442	4.845336E-006	-0.0232957	7
	12	124	18984.38	9301.786	-1291.539	1	9391.022	-7.904893	4.858135E-006	-0.0236029	7
	13	128	15046.87	9438.576	-1036.137	1	9495.277	-6.264666	6.490507E-006	-0.0149925	7
	14	132	11953.13	9481.976	-862.5333	1	9521.12	-5.197638	-6.521743E-007	-0.0124267	7
	15	135	9515.62	9547.16	-705.9553	1	9573.23	-4.228983	-5.844597E-006	0.0226756	7
	16	139	7546.875	9588.49	-587.9595	1	9606.5	-3.508945	-2.698853E-006	-0.0052438	7
	17	143	5928.309	9633.59	-491.1746	1	9646.11	-2.918732	-5.806553E-006	0.0099721	7
	18	147	4733.456	9710.08	-403.1998	1	9718.45	-2.377773	3.263152E-006	-0.0217707	7
	19	151	3796.875	9755.96	-336.2188	1	9761.75	-1.973799	-3.433996E-006	0.0227551	7
	20	156	2987.132	9734.89	-307.8146	1	9739.76	-1.811073	-5.836084E-006	0.0225676	7
	21	160	2390.625	9800.82	-319.5397	1	9806.02	-1.867375	-4.678205E-006	0.002818	7
	22	164	1884.191	9747.86	-293.1441	1	9752.26	-1.722518	-1.783444E-006	0.0198081	7
	23	168	1516.544	9848.72	-342.7907	1	9854.68	-1.99341	-5.83117E-006	0.0225819	7
	24	173	1193.986	9911.68	-298.3994	1	9916.17	-1.724416	-1.779927E-006	0.0197957	7
	25	177	946.5144	10052.5	-275.7009	1	10056.28	-1.571006	6.605254E-006	-0.0155276	7
	26	180	751.7689	9964.4	-266.3466	1	9967.96	-1.531141	-6.939815E-007	-0.0122001	7
	27	182	597.4265	10060.43	-277.1203	1	10064.25	-1.577846	-5.767373E-006	0.0224914	7
	28	185	477.4305	10083.13	-416.8259	1	10091.74	-2.367199	-8.190268E-008	0.0006445	7
	29	187	376.6741	10137.72	-472.5645	1	10148.73	-2.66888	-8.184278E-008	0.0006063	7
	30	190	298.2954	10196.49	-539.278	1	10210.74	-3.027472	-8.313099E-008	0.000625	7
	31	192	237.7717	10265.08	-617.6445	1	10283.65	-3.443305	-8.151403E-008	0.0006421	7
	32	194	189.0121	10340.04	-708.9631	1	10364.32	-3.922336	-7.727835E-008	0.0006178	7
	33	197	150.2404	10424.79	-818.9965	1	10456.91	-4.492069	-7.349239E-008	0.0005585	7
	34	199	119.1737	10521.47	-938.2334	1	10563.22	-5.095773	-8.928659E-008	0.000611	7
	35	202	95.0169	10623.85	-1086.268	1	10679.24	-5.838091	-7.992291E-008	0.0005746	7
	36	204	75.60484	10739.93	-1255.564	1	10813.07	-6.667962	-7.895257E-008	0.0006479	7
	37	207	54.50582	10927.34	-1549.862	1	11036.7	-8.072612	-7.698138E-008	0.0006454	7
	38	209	45.95588	11043.65	-1732.409	1	11178.71	-8.915288	-9.036314E-008	0.0005825	7
	39	212	37.20238	11194.69	-1992.549	1	11370.63	-10.09242	-8.458224E-008	0.0006592	7
	40	214	30.04808	11363.7	-2297.986	1	11593.72	-11.43227	-7.55842E-008	0.0006294	7
	41	216	23.91582	11561.83	-2690.492	1	11870.75	-13.09986	-1.104248E-007	0.0006365	7
	42	219	18.60119	11829.07	-3223.454	1	12260.41	-15.24314	-1.343156E-007	0.0006533	7
	43	221	15.02404	12078.85	-3711.777	1	12636.3	-17.08196	-1.135453E-007	0.0006208	7
	44	223	12.01923	12369.18	-4352.115	1	13112.5	-19.38449	-4.514558E-008	0.0006496	7
	45	226	9.450605	12729.99	-5198.823	1	13750.65	-22.21469	-6.444186E-008	0.0005866	7
	46	228	7.512019	13125.2	-6158.374	1	14498.15	-25.13608	-5.858683E-008	0.0006471	7
	47	231	5.978954	13610.75	-7312.013	1	15450.5	-28.24574	-6.864181E-008	0.0005701	7
	48	234	4.734848	14186.23	-8733.055	1	16658.79	-31.61649	-8.868235E-008	0.0005358	7
	49	237	3.75601	14881.54	-10403.21	1	18157.29	-34.95618	-6.228131E-008	0.0006234	7
	50	241	3.004808	15686.01	-12309.54	1	19939.3	-38.12293	-7.276132E-008	0.000574	7
	51	245	2.372217	16720.63	-14697.58	1	22262.04	-41.31575	-8.03776E-008	0.0005391	7
	52	249	1.878005	17938.51	-17596.86	1	25128.46	-44.44916	-7.193625E-008	0.0006055	7
	53	253	1.512097	19280.83	-20711.46	1	28296.9	-47.04875	-7.555447E-008	0.0006125	7
	54	259	1.201923	21070.65	-24663.7	1	32438.71	-49.49212	-7.789143E-008	0.000654	7
	55	265	0.956633	23215.86	-29298.39	1	37381.44	-51.60692	-8.721658E-008	-3.621649E-005	7
