EXPLAIN
TAG	EISPOT
TITLE	LABEL	Potentiostatic EIS	Test Identifier
DATE	LABEL	9/23/2020	Date
TIME	LABEL	16:19:41	Time
NOTES	NOTES	1	Notes...
	
PSTAT	PSTAT	REF3000-16137	Potentiostat
VDC	POTEN	0.00000E+000	T	DC Voltage (V)
FREQINIT	QUANT	3.00000E+005	Initial Freq. (Hz)
FREQFINAL	QUANT	1.00000E+000	Final Freq. (Hz)
PTSPERDEC	QUANT	1.00000E+001	Points/decade
VAC	QUANT	5.00000E+001	AC Voltage (mV rms)
AREA	QUANT	1.00000E+000	Sample Area (cm^2)
SPEED	SELECTOR	2	Optimize for:
ZGUESS	QUANT	1.00000E+003	Estimated Z (ohms)
EOC	QUANT	0	Open Circuit (V)
SEQUENCER	TOGGLE	TRUE	Run as Sequence
PSTATMODEL	IQUANT	5	Pstat Model
PSTATSECTION	LABEL	REF3000-16137	Pstat Section
PSTATSERIALNO	LABEL	16137	Pstat Serial Number
CTRLMODE	IQUANT	1	Control Mode
IESTAB	IQUANT	0	I/E Stability
CASPEED	IQUANT	1	Control Amp Speed
CONVENTION	IQUANT	1	Current Convention
ICHRANGE	IQUANT	2	Ich Range
ICHRANGEMODE	TOGGLE	F	Ich Auto Range
ICHOFFSETENABLE	TOGGLE	T	Ich Offset Enable
ICHOFFSET	QUANT	0	Ich Offset (V)
ICHFILTER	IQUANT	3	Ich Filter
VCHRANGE	IQUANT	2	Vch Range
VCHRANGEMODE	TOGGLE	F	Vch Auto Range
VCHOFFSETENABLE	TOGGLE	T	Vch Offset Enable
VCHOFFSET	QUANT	0	Vch Offset (V)
VCHFILTER	IQUANT	3	Vch Filter
ACHRANGE	IQUANT	2	Ach Range
ACHOFFSETENABLE	TOGGLE	F	Ach Offset Enable
ACHOFFSET	QUANT	0	Ach Offset (V)
ACHFILTER	IQUANT	3	Ach Filter
IERANGELOWERLIMIT	IQUANT	2	I/E Range Lower Limit
IERANGEMODE	TOGGLE	F	I/E AutoRange
IERANGE	IQUANT	11	I/E Range
POSFEEDENABLE	TOGGLE	F	Positive Feedback IR Comp
POSFEEDRESISTANCE	QUANT	0	Positive Feedback Resistance (ohm)
ACHSELECT	IQUANT	0	Ach Select
CABLEID	IQUANT	13	Cable ID
DCCALDATE	LABEL	7/31/2020	DC Calibration Date
ACCALDATE	LABEL	7/31/2020	AC Calibration Date
THERMOSELECT	IQUANT	1	Thermo Select
FRAMEWORKVERSION	QUANT	6.33	Framework Version
INSTRUMENTVERSION	LABEL	3.50	Instrument Version
COMPLIANCEVOLTAGE	IQUANT	0	Compliance Voltage
ZCURVE	TABLE
	Pt	Time	Freq	Zreal	Zimag	Zsig	Zmod	Zphz	Idc	Vdc	IERange
	#	s	Hz	ohm	ohm	V	ohm	°	A	V	#
	0	15	300046.9	-4.40868	-4431.257	1	4431.259	-90.05701	-0.0000981	0.002095	9
	1	32	238359.4	71.9996	-5441.252	1	5441.729	-89.2419	1.918804E-005	-0.0021906	9
	2	48	189328.1	68.28258	-6799.57	1	6799.913	-89.42464	8.286455E-005	-0.0034241	9
	3	57	150421.9	170.9398	-8666.226	1	8667.911	-88.87	2.430066E-005	0.0011357	9
	4	67	119484.4	461.9134	-10665.15	1	10675.15	-87.52003	-5.312232E-006	-0.0151069	8
	5	74	94921.88	694.6604	-13316.46	1	13334.57	-87.01384	-2.043067E-005	0.0028166	8
	6	83	75421.88	490.2999	-16569.82	1	16577.07	-88.30511	1.716721E-005	0.0003098	8
	7	91	59859.37	943.5908	-20782.76	1	20804.17	-87.40041	2.304302E-005	-0.0028447	8
	8	100	47578.12	814.5891	-25753.92	1	25766.8	-88.18835	-2.488179E-005	0.0110479	8
	9	108	37828.12	1288.437	-32569.92	1	32595.39	-87.73461	-2.065109E-005	0.0028779	8
	10	117	30046.88	1274.928	-41061.38	1	41081.17	-88.22157	-2.687336E-005	0.0096707	8
	11	126	23859.38	776.3214	-54249.71	1	54255.27	-89.18015	-7.117916E-007	-0.0052534	8
	12	133	18984.38	6092.598	-64661.02	1	64947.42	-84.61727	-7.268728E-006	0.0187444	7
	13	139	15046.87	5875.725	-80923.48	1	81136.52	-85.84713	-3.714104E-006	0.0250312	7
	14	144	11953.13	3659.275	-93719.05	1	93790.46	-87.76402	-1.595131E-005	0.0006107	8
	15	151	9515.62	11969.02	-127149.7	1	127711.8	-84.62241	6.516469E-006	-0.0100715	7
	16	158	7546.875	13521.39	-161157.2	1	161723.5	-85.20401	-6.395354E-006	0.0252525	7
	17	163	5928.309	4759.146	-204393.8	1	204449.2	-88.66615	6.68887E-006	-0.0265702	7
	18	170	4733.456	9950.54	-233330.8	1	233542.9	-87.55807	1.195723E-006	-0.0194175	7
	19	176	3796.875	55568.48	-320265.1	1	325050.1	-80.15673	2.457674E-007	0.0096502	6
	20	180	2987.132	61372.86	-393646.3	1	398401.9	-81.13844	1.765869E-007	-0.0209359	6
	21	186	2390.625	79874.5	-483055.1	1	489614.3	-80.61094	-4.026765E-007	0.0250258	6
	22	191	1884.191	123371	-632350.8	1	644273.2	-78.96033	3.911526E-007	-0.0249451	6
	23	197	1516.544	139869.1	-757506.8	1	770311.5	-79.53851	-5.321132E-008	-0.0146419	6
	24	202	1193.986	194989.5	-921615.1	1	942016.6	-78.05389	-5.497224E-007	0.0262131	6
	25	208	946.5144	-356084.8	-16739.57	1	356478	-177.3085	8.188391E-006	-0.0076049	8
	26	215	751.7689	-656275.8	-591376.6	1	883416.1	-137.9777	-3.467256E-006	-0.0051392	7
	27	221	597.4265	-2303811	-1205142	1	2599983	-152.3856	5.080503E-006	-0.0014159	7
	28	225	477.4305	521037.4	-2116260	1	2179458	-76.1685	-9.755401E-008	0.0006407	7
	29	232	376.6741	1058288	-2609549	1	2815976	-67.92526	-1.012664E-009	0.0006624	5
	30	235	298.2954	1049180	-3152759	1	3322750	-71.59351	-9.074383E-009	0.0006351	6
	31	239	237.7717	1762624	-3728765	1	4124382	-64.69944	-9.686808E-010	0.0005867	5
	32	243	189.0121	2243448	-4408435	1	4946449	-63.0285	-1.039837E-009	0.0006812	5
	33	247	150.2404	2928598	-5192824	1	5961720	-60.5783	-1.070003E-009	0.0006816	5
	34	250	119.1737	5235987	-6620994	1	8441156	-51.66249	-9.82065E-010	0.000591	5
	35	253	95.0169	4926408	-6468035	1	8130496	-52.70513	-1.020274E-009	0.0006768	5
	36	255	75.60484	6091173	-7096865	1	9352426	-49.36081	-9.146667E-010	0.0005854	5
	37	258	54.50582	8467613	-7453500	1	1.128074E+007	-41.3554	-9.744564E-010	0.00063	5
	38	262	45.95588	1.161505E+007	-6471012	1	1.329599E+007	-29.12319	-1.113929E-010	0.0005973	4
	39	264	37.20238	1.239112E+007	-6360775	1	1.392836E+007	-27.17294	-1.567545E-010	0.0006642	4
	40	267	30.04808	1.321797E+007	-5380236	1	1.427101E+007	-22.14826	-1.03011E-010	0.0005975	4
	41	270	23.91582	1.411615E+007	-4583426	1	1.484162E+007	-17.98829	-8.829684E-011	0.0006421	4
	42	273	18.60119	1.522807E+007	-3729264	1	1.567806E+007	-13.76058	-1.5123E-010	0.0006219	4
	43	275	15.02404	1.505346E+007	-3660686	1	1.549216E+007	-13.66784	-8.064207E-011	0.0006396	4
	44	277	12.01923	1.55631E+007	-3266341	1	1.590217E+007	-11.85305	-9.403558E-011	0.0006156	4
	45	280	9.450605	1.605449E+007	-2784109	1	1.62941E+007	-9.83818	-8.421965E-011	0.0007	4
	46	283	7.512019	1.618001E+007	-2688956	1	1.640193E+007	-9.435749	-1.109773E-010	0.0006476	4
	47	286	5.978954	1.656839E+007	-2341334	1	1.6733E+007	-8.0434	-1.062097E-010	0.0006149	4
	48	290	4.734848	1.67749E+007	-2199165	1	1.691844E+007	-7.468798	-1.004077E-010	0.0006195	4
	49	295	3.75601	1.708609E+007	-2125730	1	1.721781E+007	-7.091896	-9.806098E-011	0.000631	4
	50	300	3.004808	1.743027E+007	-2143001	1	1.756152E+007	-7.009171	-9.173329E-011	0.0006865	4
	51	307	2.372217	1.776886E+007	-1996650	1	1.788069E+007	-6.411313	-1.025179E-010	0.000694	4
	52	311	1.878005	1.809805E+007	-1973513	1	1.820534E+007	-6.223263	-1.103314E-010	0.0006287	4
	53	316	1.512097	1.844081E+007	-1970646	1	1.854581E+007	-6.099665	-1.108932E-010	0.0006602	4
	54	321	1.201923	1.882097E+007	-1956934	1	1.892244E+007	-5.93607	-1.046359E-010	0.0006118	4
	55	327	0.956633	1.922832E+007	-1959648	1	1.932792E+007	-5.819188	-1.436471E-010	1.869349E-006	4
