EXPLAIN
TAG	EISPOT
TITLE	LABEL	Potentiostatic EIS	Test Identifier
DATE	LABEL	9/23/2020	Date
TIME	LABEL	14:46:58	Time
NOTES	NOTES	1	Notes...
	
PSTAT	PSTAT	REF3000-16137	Potentiostat
VDC	POTEN	0.00000E+000	T	DC Voltage (V)
FREQINIT	QUANT	3.00000E+005	Initial Freq. (Hz)
FREQFINAL	QUANT	1.00000E+000	Final Freq. (Hz)
PTSPERDEC	QUANT	1.00000E+001	Points/decade
VAC	QUANT	5.00000E+001	AC Voltage (mV rms)
AREA	QUANT	1.00000E+000	Sample Area (cm^2)
SPEED	SELECTOR	2	Optimize for:
ZGUESS	QUANT	1.00000E+003	Estimated Z (ohms)
EOC	QUANT	0	Open Circuit (V)
SEQUENCER	TOGGLE	TRUE	Run as Sequence
PSTATMODEL	IQUANT	5	Pstat Model
PSTATSECTION	LABEL	REF3000-16137	Pstat Section
PSTATSERIALNO	LABEL	16137	Pstat Serial Number
CTRLMODE	IQUANT	1	Control Mode
IESTAB	IQUANT	0	I/E Stability
CASPEED	IQUANT	1	Control Amp Speed
CONVENTION	IQUANT	1	Current Convention
ICHRANGE	IQUANT	2	Ich Range
ICHRANGEMODE	TOGGLE	F	Ich Auto Range
ICHOFFSETENABLE	TOGGLE	T	Ich Offset Enable
ICHOFFSET	QUANT	0	Ich Offset (V)
ICHFILTER	IQUANT	3	Ich Filter
VCHRANGE	IQUANT	2	Vch Range
VCHRANGEMODE	TOGGLE	F	Vch Auto Range
VCHOFFSETENABLE	TOGGLE	T	Vch Offset Enable
VCHOFFSET	QUANT	0	Vch Offset (V)
VCHFILTER	IQUANT	3	Vch Filter
ACHRANGE	IQUANT	2	Ach Range
ACHOFFSETENABLE	TOGGLE	F	Ach Offset Enable
ACHOFFSET	QUANT	0	Ach Offset (V)
ACHFILTER	IQUANT	3	Ach Filter
IERANGELOWERLIMIT	IQUANT	2	I/E Range Lower Limit
IERANGEMODE	TOGGLE	F	I/E AutoRange
IERANGE	IQUANT	11	I/E Range
POSFEEDENABLE	TOGGLE	F	Positive Feedback IR Comp
POSFEEDRESISTANCE	QUANT	0	Positive Feedback Resistance (ohm)
ACHSELECT	IQUANT	0	Ach Select
CABLEID	IQUANT	13	Cable ID
DCCALDATE	LABEL	7/31/2020	DC Calibration Date
ACCALDATE	LABEL	7/31/2020	AC Calibration Date
THERMOSELECT	IQUANT	1	Thermo Select
FRAMEWORKVERSION	QUANT	6.33	Framework Version
INSTRUMENTVERSION	LABEL	3.50	Instrument Version
COMPLIANCEVOLTAGE	IQUANT	0	Compliance Voltage
ZCURVE	TABLE
	Pt	Time	Freq	Zreal	Zimag	Zsig	Zmod	Zphz	Idc	Vdc	IERange
	#	s	Hz	ohm	ohm	V	ohm	°	A	V	#
	0	14	300046.9	615.4202	-3752.932	1	3803.057	-80.6873	-9.151646E-005	0.0021134	9
	1	28	238359.4	927.9926	-4568.188	1	4661.493	-78.51705	1.949781E-007	-0.0020299	9
	2	44	189328.1	1131.205	-5530.008	1	5644.521	-78.4392	-1.562462E-005	0.0017853	9
	3	53	150421.9	1643.828	-6647.738	1	6847.962	-76.11073	-0.000108	0.0038362	9
	4	63	119484.4	2192.817	-8139.922	1	8430.111	-74.92298	-2.834235E-005	-0.000996	9
	5	71	94921.88	3481.026	-9744.67	1	10347.76	-70.34208	-2.609029E-005	0.0076093	8
	6	80	75421.88	4652.488	-11763.79	1	12650.39	-68.42159	-1.920431E-005	0.0111877	8
	7	87	59859.37	6229.47	-13898.71	1	15230.9	-65.85783	1.736097E-005	0.0001293	8
	8	96	47578.12	8661.821	-16509.78	1	18644.04	-62.31635	-2.649987E-005	0.0096409	8
	9	103	37828.12	11576.25	-18256.72	1	21617.53	-57.62198	-2.613882E-005	0.0075774	8
	10	112	30046.88	17414.77	-20199.95	1	26670.43	-49.23474	-6.189969E-006	0.0244285	7
	11	119	23859.38	21903.63	-21415.89	1	30633.47	-44.35493	-6.345851E-006	0.0113877	7
	12	125	18984.38	25993.57	-23183.09	1	34829.9	-41.72906	-1.927826E-005	0.0112249	8
	13	131	15046.87	29024.85	-21574.48	1	36164.91	-36.62382	2.309289E-005	-0.0030214	8
	14	137	11953.13	35463.89	-20202.03	1	40814.32	-29.66803	-1.928217E-005	0.0112303	8
	15	145	9515.62	39190.22	-17748.98	1	43022.09	-24.36544	2.582253E-005	-0.008947	8
	16	152	7546.875	43949.76	-16616.32	1	46985.99	-20.71036	1.571892E-005	-0.0092222	8
	17	159	5928.309	45125.48	-14168.12	1	47297.41	-17.43081	3.28141E-006	-0.0230408	7
	18	165	4733.456	46251.57	-11043.77	1	47551.79	-13.42941	1.188594E-006	-0.0186771	7
	19	170	3796.875	48587.55	-9255.983	1	49461.33	-10.78568	-1.738698E-006	0.0207912	7
	20	175	2987.132	49512.02	-7356.758	1	50055.59	-8.451476	6.460627E-006	-0.0254524	7
	21	181	2390.625	51240.32	-4537.039	1	51440.79	-5.060019	-2.616836E-005	0.0076222	8
	22	187	1884.191	51065.95	-11829.95	1	52418.31	-13.04307	1.560424E-005	-0.0090779	8
	23	195	1516.544	52247.88	-4783.684	1	52466.42	-5.231272	-6.354304E-006	0.0114267	7
	24	200	1193.986	51931.44	-3079.767	1	52022.68	-3.393922	-5.04752E-006	0.0251921	7
	25	206	946.5144	50350.15	-4959.408	1	50593.81	-5.625396	4.991242E-006	-0.0248001	7
	26	210	751.7689	53767.2	-592.0563	1	53770.45	-0.6308858	-4.965732E-006	0.024775	7
	27	213	597.4265	52160.71	-1581.634	1	52184.68	-1.736809	-4.954624E-006	0.003375	7
	28	217	477.4305	52427.96	-2063.396	1	52468.55	-2.253815	-8.352771E-008	0.0006024	7
	29	220	376.6741	52756.52	-1331.519	1	52773.32	-1.445779	-1.034008E-008	0.0006078	6
	30	223	298.2954	52960.95	-1402.82	1	52979.52	-1.517285	-1.155041E-008	0.0006787	6
	31	225	237.7717	53145.45	-1490.238	1	53166.34	-1.606195	-1.06943E-008	0.0006267	6
	32	228	189.0121	53366.36	-1627.621	1	53391.18	-1.746923	-1.312007E-008	0.0006816	6
	33	230	150.2404	53580.05	-1800.156	1	53610.29	-1.924271	-9.777032E-009	0.000626	6
	34	232	119.1737	53815.73	-1931.923	1	53850.39	-2.05597	-1.279524E-008	0.0006173	6
	35	235	95.0169	54161.58	-2281.041	1	54209.59	-2.411614	-1.171439E-008	0.0006192	6
	36	237	75.60484	54506.5	-2593.914	1	54568.18	-2.724598	-1.084645E-008	0.0006199	6
	37	240	54.50582	55046.27	-3128.042	1	55135.07	-3.252374	-8.335229E-009	0.0006005	6
	38	242	45.95588	55320.25	-3495.644	1	55430.59	-3.615668	-1.390041E-008	0.0006083	6
	39	245	37.20238	55720.72	-3955.782	1	55860.96	-4.060787	-5.079997E-009	0.0006203	6
	40	247	30.04808	56220.79	-4497.746	1	56400.41	-4.574005	-4.206663E-009	0.0006297	6
	41	250	23.91582	56711.73	-5186.434	1	56948.39	-5.225311	-2.026703E-008	0.0006158	6
	42	252	18.60119	57507.82	-6114.062	1	57831.92	-6.068721	4.03777E-009	0.0006921	6
	43	254	15.02404	58093.64	-6894.75	1	58501.35	-6.768397	-9.0343E-009	0.0006207	6
	44	257	12.01923	58901.11	-7899.896	1	59428.52	-7.639	-1.98183E-008	0.0006063	6
	45	259	9.450605	59646.5	-9139.011	1	60342.57	-8.711088	6.439516E-009	0.0006134	6
	46	262	7.512019	60521.36	-10661.66	1	61453.28	-9.99092	5.414887E-009	0.0006447	6
	47	264	5.978954	61671.25	-12537.6	1	62932.78	-11.49147	3.168414E-011	0.0006011	6
	48	267	4.734848	62869.64	-14674.22	1	64559.47	-13.13803	6.747621E-010	0.0007145	6
	49	270	3.75601	64239.42	-17175.36	1	66495.84	-14.96875	-1.965433E-008	0.0006643	6
	50	274	3.004808	65875.89	-20007.92	1	68847.29	-16.89466	-1.685877E-008	0.0006668	6
	51	278	2.372217	67665.9	-23573.73	1	71654.69	-19.20753	-1.444334E-008	0.0007067	6
	52	282	1.878005	69846.1	-27919.21	1	75219.41	-21.78781	-1.612151E-008	0.0006301	6
	53	287	1.512097	72134.55	-32625.08	1	79169.38	-24.33633	-1.45072E-008	0.0006372	6
	54	292	1.201923	74893.42	-38628.05	1	84268.33	-27.28349	-1.197768E-008	0.0006214	6
	55	298	0.956633	78372.45	-45721.74	1	90734.34	-30.25888	-1.479719E-008	7.333461E-006	6
