EXPLAIN
TAG	EISPOT
TITLE	LABEL	Potentiostatic EIS	Test Identifier
DATE	LABEL	9/23/2020	Date
TIME	LABEL	13:49:56	Time
NOTES	NOTES	1	Notes...
	
PSTAT	PSTAT	REF3000-16137	Potentiostat
VDC	POTEN	0.00000E+000	T	DC Voltage (V)
FREQINIT	QUANT	3.00000E+005	Initial Freq. (Hz)
FREQFINAL	QUANT	1.00000E+000	Final Freq. (Hz)
PTSPERDEC	QUANT	1.00000E+001	Points/decade
VAC	QUANT	5.00000E+001	AC Voltage (mV rms)
AREA	QUANT	1.00000E+000	Sample Area (cm^2)
SPEED	SELECTOR	2	Optimize for:
ZGUESS	QUANT	1.00000E+003	Estimated Z (ohms)
EOC	QUANT	0	Open Circuit (V)
SEQUENCER	TOGGLE	TRUE	Run as Sequence
PSTATMODEL	IQUANT	5	Pstat Model
PSTATSECTION	LABEL	REF3000-16137	Pstat Section
PSTATSERIALNO	LABEL	16137	Pstat Serial Number
CTRLMODE	IQUANT	1	Control Mode
IESTAB	IQUANT	0	I/E Stability
CASPEED	IQUANT	1	Control Amp Speed
CONVENTION	IQUANT	1	Current Convention
ICHRANGE	IQUANT	2	Ich Range
ICHRANGEMODE	TOGGLE	F	Ich Auto Range
ICHOFFSETENABLE	TOGGLE	T	Ich Offset Enable
ICHOFFSET	QUANT	0	Ich Offset (V)
ICHFILTER	IQUANT	3	Ich Filter
VCHRANGE	IQUANT	2	Vch Range
VCHRANGEMODE	TOGGLE	F	Vch Auto Range
VCHOFFSETENABLE	TOGGLE	T	Vch Offset Enable
VCHOFFSET	QUANT	0	Vch Offset (V)
VCHFILTER	IQUANT	3	Vch Filter
ACHRANGE	IQUANT	2	Ach Range
ACHOFFSETENABLE	TOGGLE	F	Ach Offset Enable
ACHOFFSET	QUANT	0	Ach Offset (V)
ACHFILTER	IQUANT	3	Ach Filter
IERANGELOWERLIMIT	IQUANT	2	I/E Range Lower Limit
IERANGEMODE	TOGGLE	F	I/E AutoRange
IERANGE	IQUANT	11	I/E Range
POSFEEDENABLE	TOGGLE	F	Positive Feedback IR Comp
POSFEEDRESISTANCE	QUANT	0	Positive Feedback Resistance (ohm)
ACHSELECT	IQUANT	0	Ach Select
CABLEID	IQUANT	13	Cable ID
DCCALDATE	LABEL	7/31/2020	DC Calibration Date
ACCALDATE	LABEL	7/31/2020	AC Calibration Date
THERMOSELECT	IQUANT	1	Thermo Select
FRAMEWORKVERSION	QUANT	6.33	Framework Version
INSTRUMENTVERSION	LABEL	3.50	Instrument Version
COMPLIANCEVOLTAGE	IQUANT	0	Compliance Voltage
ZCURVE	TABLE
	Pt	Time	Freq	Zreal	Zimag	Zsig	Zmod	Zphz	Idc	Vdc	IERange
	#	s	Hz	ohm	ohm	V	ohm	°	A	V	#
	0	14	300046.9	1642.112	-2172.415	1	2723.218	-52.91465	2.450292E-005	-0.0021483	9
	1	30	238359.4	2110.925	-2257.804	1	3090.903	-46.92559	-1.560406E-005	0.001729	9
	2	44	189328.1	2560.352	-2257.352	1	3413.362	-41.40125	2.0417E-005	-0.0004013	9
	3	51	150421.9	2909.32	-2135.768	1	3609.106	-36.28285	2.425373E-005	-0.0003174	9
	4	61	119484.4	3565.576	-2111.857	1	4144.064	-30.63786	2.753534E-005	-0.0018486	9
	5	68	94921.88	3997.189	-1756.787	1	4366.213	-23.72575	-1.000359E-005	0.0093314	8
	6	75	75421.88	4299.683	-1554.214	1	4571.964	-19.87349	-1.577316E-005	0.0009903	8
	7	83	59859.37	4525.23	-1311.938	1	4711.57	-16.16774	-2.489304E-005	0.0092709	8
	8	89	47578.12	4637.429	-1130.793	1	4773.305	-13.70361	1.441273E-005	-0.0085183	8
	9	96	37828.12	4782	-936.2064	1	4872.782	-11.0771	2.03622E-005	-0.0090129	8
	10	104	30046.88	4891.044	-761.7016	1	4950	-8.851794	-1.978796E-005	0.0031039	8
	11	111	23859.38	4992.072	-619.6127	1	5030.378	-7.07533	1.714746E-005	-0.0001759	8
	12	117	18984.38	5012.888	-514.6606	1	5039.238	-5.861876	2.256937E-005	-0.0030105	8
	13	122	15046.87	5040.104	-400.2592	1	5055.973	-4.540607	2.56143E-005	-0.007191	8
	14	127	11953.13	5088.864	-368.4501	1	5102.186	-4.141172	1.452626E-005	-0.0085423	8
	15	133	9515.62	5111.58	-302.3947	1	5120.517	-3.385601	-7.642483E-007	0.0068977	8
	16	138	7546.875	5163.048	-145.0871	1	5165.086	-1.609648	6.14558E-006	-0.0138643	7
	17	141	5928.309	5150.231	-125.4894	1	5151.76	-1.39578	3.651702E-006	0.0013658	7
	18	145	4733.456	5095.271	-194.2691	1	5098.973	-2.183477	2.032117E-005	-0.0090137	8
	19	152	3796.875	5170.025	-188.0492	1	5173.444	-2.0831	-2.256667E-005	0.0104397	8
	20	157	2987.132	5244.937	-185.5391	1	5248.218	-2.025987	-2.091179E-006	-0.0044356	8
	21	162	2390.625	5250.604	-127.0051	1	5252.14	-1.385639	-4.051727E-006	0.0015418	7
	22	165	1884.191	5269.827	-109.8217	1	5270.971	-1.193856	4.769597E-006	-0.0222145	7
	23	169	1516.544	5241.824	-204.5962	1	5245.815	-2.235205	-1.014078E-005	0.0093773	8
	24	175	1193.986	5343.96	-222.9666	1	5348.609	-2.389172	6.411975E-006	-0.0069142	8
	25	181	946.5144	5332.439	-224.6957	1	5337.171	-2.412874	1.749308E-006	0.0090059	7
	26	184	751.7689	5398.625	-235.5367	1	5403.761	-2.498174	-2.272793E-006	-0.0060085	7
	27	186	597.4265	5391.121	-279.1846	1	5398.345	-2.964472	-5.742364E-006	0.0215804	7
	28	189	477.4305	5445.88	-300.4817	1	5454.164	-3.158147	-7.504147E-008	0.0005955	7
	29	191	376.6741	5482.431	-348.3471	1	5493.487	-3.635618	-8.078384E-008	0.0006305	7
	30	194	298.2954	5523.775	-402.524	1	5538.422	-4.167843	-7.542693E-008	0.0005908	7
	31	196	237.7717	5569.174	-465.2084	1	5588.571	-4.774988	-6.880273E-008	0.0005633	7
	32	198	189.0121	5620.452	-538.7391	1	5646.213	-5.475265	-7.385066E-008	0.0006496	7
	33	201	150.2404	5678.008	-624.5064	1	5712.249	-6.276556	-6.854255E-008	0.0005661	7
	34	203	119.1737	5743.739	-723.8926	1	5789.176	-7.183206	-7.690938E-008	0.0006528	7
	35	205	95.0169	5814.044	-841.5463	1	5874.633	-8.236005	-7.810056E-008	0.0006517	7
	36	208	75.60484	5894.086	-979.433	1	5974.909	-9.434752	-7.925983E-008	0.0006396	7
	37	211	54.50582	6022.259	-1222.83	1	6145.154	-11.47796	-7.174609E-008	0.0005727	7
	38	213	45.95588	6102.102	-1373.624	1	6254.798	-12.6862	-5.953803E-008	0.0005754	7
	39	215	37.20238	6209.342	-1593.024	1	6410.434	-14.38905	-7.109176E-008	0.0006221	7
	40	218	30.04808	6331.877	-1853.306	1	6597.53	-16.31446	-5.98716E-008	0.0005937	7
	41	220	23.91582	6476.396	-2186.268	1	6835.458	-18.65338	-4.395852E-008	0.0005657	7
	42	223	18.60119	6666.353	-2627.696	1	7165.546	-21.51302	-5.720348E-008	0.0005698	7
	43	225	15.02404	6857.483	-3080.397	1	7517.574	-24.18973	-5.565133E-008	0.0006536	7
	44	227	12.01923	7082.928	-3633.051	1	7960.334	-27.15468	-5.216296E-008	0.0006543	7
	45	230	9.450605	7379.396	-4357.386	1	8569.849	-30.561	-5.385961E-008	0.0006444	7
	46	232	7.512019	7702.694	-5194.306	1	9290.441	-33.99373	-4.474398E-008	0.0005823	7
	47	235	5.978954	8104.43	-6179.168	1	10191.36	-37.32346	-6.077637E-008	0.0006626	7
	48	238	4.734848	8604.31	-7381.463	1	11336.67	-40.62563	-6.868744E-008	0.0006248	7
	49	241	3.75601	9193.664	-8821.809	1	12741.58	-43.81753	-5.895193E-008	0.0006667	7
	50	245	3.004808	9888.95	-10445.04	1	14383.67	-46.56653	-7.201417E-008	0.0006182	7
	51	248	2.372217	10778.23	-12496.19	1	16502.28	-49.22154	-6.744215E-008	0.0006353	7
	52	253	1.878005	11881.11	-14906.68	1	19062.27	-51.44401	-6.596155E-008	0.0005944	7
	53	257	1.512097	13097.8	-17529.49	1	21882.31	-53.23341	-7.088193E-008	0.000706	7
	54	263	1.201923	14658.04	-20811.12	1	25455.07	-54.84156	-6.735575E-008	0.0005951	7
	55	269	0.956633	16534.37	-24641.06	1	29674.35	-56.13805	-8.44301E-008	-2.846834E-005	7
