EXPLAIN
TAG	EISPOT
TITLE	LABEL	Potentiostatic EIS	Test Identifier
DATE	LABEL	9/23/2020	Date
TIME	LABEL	13:13:17	Time
NOTES	NOTES	1	Notes...
	
PSTAT	PSTAT	REF3000-16137	Potentiostat
VDC	POTEN	0.00000E+000	T	DC Voltage (V)
FREQINIT	QUANT	3.00000E+005	Initial Freq. (Hz)
FREQFINAL	QUANT	1.00000E+000	Final Freq. (Hz)
PTSPERDEC	QUANT	1.00000E+001	Points/decade
VAC	QUANT	5.00000E+001	AC Voltage (mV rms)
AREA	QUANT	1.00000E+000	Sample Area (cm^2)
SPEED	SELECTOR	2	Optimize for:
ZGUESS	QUANT	1.00000E+003	Estimated Z (ohms)
EOC	QUANT	0	Open Circuit (V)
SEQUENCER	TOGGLE	TRUE	Run as Sequence
PSTATMODEL	IQUANT	5	Pstat Model
PSTATSECTION	LABEL	REF3000-16137	Pstat Section
PSTATSERIALNO	LABEL	16137	Pstat Serial Number
CTRLMODE	IQUANT	1	Control Mode
IESTAB	IQUANT	0	I/E Stability
CASPEED	IQUANT	1	Control Amp Speed
CONVENTION	IQUANT	1	Current Convention
ICHRANGE	IQUANT	2	Ich Range
ICHRANGEMODE	TOGGLE	F	Ich Auto Range
ICHOFFSETENABLE	TOGGLE	T	Ich Offset Enable
ICHOFFSET	QUANT	0	Ich Offset (V)
ICHFILTER	IQUANT	3	Ich Filter
VCHRANGE	IQUANT	2	Vch Range
VCHRANGEMODE	TOGGLE	F	Vch Auto Range
VCHOFFSETENABLE	TOGGLE	T	Vch Offset Enable
VCHOFFSET	QUANT	0	Vch Offset (V)
VCHFILTER	IQUANT	3	Vch Filter
ACHRANGE	IQUANT	2	Ach Range
ACHOFFSETENABLE	TOGGLE	F	Ach Offset Enable
ACHOFFSET	QUANT	0	Ach Offset (V)
ACHFILTER	IQUANT	3	Ach Filter
IERANGELOWERLIMIT	IQUANT	2	I/E Range Lower Limit
IERANGEMODE	TOGGLE	F	I/E AutoRange
IERANGE	IQUANT	11	I/E Range
POSFEEDENABLE	TOGGLE	F	Positive Feedback IR Comp
POSFEEDRESISTANCE	QUANT	0	Positive Feedback Resistance (ohm)
ACHSELECT	IQUANT	0	Ach Select
CABLEID	IQUANT	13	Cable ID
DCCALDATE	LABEL	7/31/2020	DC Calibration Date
ACCALDATE	LABEL	7/31/2020	AC Calibration Date
THERMOSELECT	IQUANT	1	Thermo Select
FRAMEWORKVERSION	QUANT	6.33	Framework Version
INSTRUMENTVERSION	LABEL	3.50	Instrument Version
COMPLIANCEVOLTAGE	IQUANT	0	Compliance Voltage
ZCURVE	TABLE
	Pt	Time	Freq	Zreal	Zimag	Zsig	Zmod	Zphz	Idc	Vdc	IERange
	#	s	Hz	ohm	ohm	V	ohm	°	A	V	#
	0	14	300046.9	1348.382	-657.0652	1	1499.957	-25.97992	2.398526E-005	-0.0021232	9
	1	28	238359.4	1450.14	-574.7295	1	1559.878	-21.61976	5.085154E-005	3.833399E-005	9
	2	42	189328.1	1545.416	-498.3233	1	1623.772	-17.87205	1.99811E-005	-0.0004573	9
	3	49	150421.9	1579.097	-417.2965	1	1633.305	-14.80275	1.929913E-005	-0.0002911	9
	4	55	119484.4	1647.342	-294.3083	1	1673.426	-10.12939	-3.27339E-005	0.01914	8
	5	61	94921.88	1675.901	-232.4017	1	1691.938	-7.895011	-1.981587E-005	0.0093599	8
	6	65	75421.88	1699.939	-189.2057	1	1710.436	-6.350962	-1.510229E-005	0.0013974	8
	7	69	59859.37	1703.462	-157.653	1	1710.742	-5.28758	-1.459353E-005	0.0012324	8
	8	72	47578.12	1721.228	-130.3416	1	1726.156	-4.330514	-2.065028E-005	0.0050443	8
	9	75	37828.12	1722.37	-109.2448	1	1725.831	-3.629238	2.243835E-005	-0.0047612	8
	10	78	30046.88	1723.042	-88.45859	1	1725.312	-2.938905	1.258006E-005	-0.0075599	8
	11	80	23859.38	1727.322	-82.12348	1	1729.273	-2.72201	2.224047E-005	-0.0046051	8
	12	83	18984.38	1740.778	-64.97803	1	1741.99	-2.137688	-2.618136E-007	0.0059659	8
	13	87	15046.87	1740.721	-60.71939	1	1741.78	-1.997767	2.157449E-005	-0.0076426	8
	14	91	11953.13	1751.128	-53.46093	1	1751.944	-1.748664	-1.442812E-005	0.0012134	8
	15	95	9515.62	1754.442	-50.76852	1	1755.176	-1.657513	1.602244E-005	-0.0003271	8
	16	98	7546.875	1758.922	-49.63912	1	1759.622	-1.616534	2.243543E-005	-0.0047413	8
	17	101	5928.309	1766.824	-50.04639	1	1767.532	-1.622505	-1.820132E-005	0.0030737	8
	18	105	4733.456	1774.221	-53.80206	1	1775.036	-1.736924	-1.978632E-005	0.0093897	8
	19	110	3796.875	1779.208	-58.48324	1	1780.168	-1.882657	-1.973176E-005	0.0093915	8
	20	113	2987.132	1783.122	-61.10873	1	1784.169	-1.962794	2.247205E-005	-0.0047187	8
	21	118	2390.625	1785.44	-68.79247	1	1786.765	-2.206498	-1.980129E-005	0.0095089	8
	22	121	1884.191	1805.994	-85.04031	1	1807.995	-2.695942	-9.554698E-006	-0.0011037	8
	23	125	1516.544	1811.609	-90.5504	1	1813.87	-2.861458	-1.478452E-005	0.0012672	8
	24	129	1193.986	1827.305	-98.0831	1	1829.936	-3.07248	2.257237E-005	-0.0047433	8
	25	134	946.5144	1834.369	-130.5443	1	1839.008	-4.070634	2.045918E-005	-0.0029645	8
	26	137	751.7689	1846.154	-149.5843	1	1852.204	-4.632262	7.139055E-008	0.0060797	8
	27	139	597.4265	1873.8	-162.2343	1	1880.81	-4.94835	-8.352115E-006	0.0083999	8
	28	142	477.4305	1880.004	-186.9998	1	1889.281	-5.680398	-2.879654E-007	0.0006458	8
	29	144	376.6741	1899.012	-218.6249	1	1911.555	-6.567299	-3.009506E-007	0.0006585	8
	30	146	298.2954	1920.092	-255.4478	1	1937.01	-7.578094	-2.890331E-007	0.0006445	8
	31	149	237.7717	1943.067	-298.0197	1	1965.788	-8.719843	-2.922651E-007	0.0006337	8
	32	151	189.0121	1969.369	-349.1461	1	2000.079	-10.05341	-2.894193E-007	0.0006464	8
	33	154	150.2404	1999.059	-410.1692	1	2040.705	-11.59509	-2.74401E-007	0.0006462	8
	34	156	119.1737	2033.422	-483.4923	1	2090.112	-13.37501	-2.657788E-007	0.0006355	8
	35	158	95.0169	2071.265	-569.5009	1	2148.132	-15.37376	-2.973209E-007	0.0006527	8
	36	161	75.60484	2115.156	-673.2879	1	2219.73	-17.6571	-2.945601E-007	0.0006622	8
	37	163	54.50582	2190.384	-859.283	1	2352.903	-21.41997	-2.899373E-007	0.0006674	8
	38	166	45.95588	2237.638	-976.837	1	2441.564	-23.58358	-2.626016E-007	0.0006337	8
	39	168	37.20238	2304.296	-1147.414	1	2574.167	-26.47081	-2.410627E-007	0.000637	8
	40	171	30.04808	2383.596	-1351.132	1	2739.907	-29.54657	-2.526074E-007	0.0006395	8
	41	173	23.91582	2483.444	-1609.22	1	2959.237	-32.94239	-3.115535E-007	0.0006398	8
	42	175	18.60119	2617.802	-1953.735	1	3266.492	-36.73495	-2.8776E-007	0.000626	8
	43	178	15.02404	2756.094	-2305.449	1	3593.209	-39.91219	-3.034541E-007	0.0006354	8
	44	180	12.01923	2935.8	-2742.408	1	4017.427	-43.04934	-4.88762E-008	0.0005893	7
	45	182	9.450605	3165.886	-3298.872	1	4572.241	-46.17846	-2.557516E-008	0.0005647	7
	46	185	7.512019	3429.875	-3931.767	1	5217.551	-48.9002	-2.732472E-008	0.0005918	7
	47	188	5.978954	3756.585	-4676.911	1	5998.785	-51.2279	-4.359535E-008	0.0005711	7
	48	191	4.734848	4160.03	-5573.149	1	6954.556	-53.26081	-3.161643E-008	0.0006075	7
	49	194	3.75601	4653.734	-6624.57	1	8095.812	-54.91211	-7.096881E-008	0.0006342	7
	50	197	3.004808	5224.562	-7811.37	1	9397.528	-56.22379	-7.511464E-008	0.0006399	7
	51	201	2.372217	5974.99	-9287.37	1	11043.36	-57.24497	-5.33883E-008	0.0006805	7
	52	205	1.878005	6848.157	-10991.41	1	12950.23	-58.07519	-6.349257E-008	0.0005815	7
	53	210	1.512097	7821.521	-12805.32	1	15005.08	-58.58331	-6.327554E-008	0.0006541	7
	54	215	1.201923	9077.743	-15083.32	1	17604.32	-58.95879	-5.98739E-008	0.0005715	7
	55	222	0.956633	10555.74	-17684.25	1	20595.06	-59.16699	-7.396467E-008	-5.448982E-006	7
