EXPLAIN
TAG	EISPOT
TITLE	LABEL	Potentiostatic EIS	Test Identifier
DATE	LABEL	9/23/2020	Date
TIME	LABEL	12:52:50	Time
NOTES	NOTES	1	Notes...
	
PSTAT	PSTAT	REF3000-16137	Potentiostat
VDC	POTEN	0.00000E+000	T	DC Voltage (V)
FREQINIT	QUANT	3.00000E+005	Initial Freq. (Hz)
FREQFINAL	QUANT	1.00000E+000	Final Freq. (Hz)
PTSPERDEC	QUANT	1.00000E+001	Points/decade
VAC	QUANT	5.00000E+001	AC Voltage (mV rms)
AREA	QUANT	1.00000E+000	Sample Area (cm^2)
SPEED	SELECTOR	2	Optimize for:
ZGUESS	QUANT	1.00000E+003	Estimated Z (ohms)
EOC	QUANT	0	Open Circuit (V)
SEQUENCER	TOGGLE	TRUE	Run as Sequence
PSTATMODEL	IQUANT	5	Pstat Model
PSTATSECTION	LABEL	REF3000-16137	Pstat Section
PSTATSERIALNO	LABEL	16137	Pstat Serial Number
CTRLMODE	IQUANT	1	Control Mode
IESTAB	IQUANT	0	I/E Stability
CASPEED	IQUANT	1	Control Amp Speed
CONVENTION	IQUANT	1	Current Convention
ICHRANGE	IQUANT	2	Ich Range
ICHRANGEMODE	TOGGLE	F	Ich Auto Range
ICHOFFSETENABLE	TOGGLE	T	Ich Offset Enable
ICHOFFSET	QUANT	0	Ich Offset (V)
ICHFILTER	IQUANT	3	Ich Filter
VCHRANGE	IQUANT	2	Vch Range
VCHRANGEMODE	TOGGLE	F	Vch Auto Range
VCHOFFSETENABLE	TOGGLE	T	Vch Offset Enable
VCHOFFSET	QUANT	0	Vch Offset (V)
VCHFILTER	IQUANT	3	Vch Filter
ACHRANGE	IQUANT	2	Ach Range
ACHOFFSETENABLE	TOGGLE	F	Ach Offset Enable
ACHOFFSET	QUANT	0	Ach Offset (V)
ACHFILTER	IQUANT	3	Ach Filter
IERANGELOWERLIMIT	IQUANT	2	I/E Range Lower Limit
IERANGEMODE	TOGGLE	F	I/E AutoRange
IERANGE	IQUANT	11	I/E Range
POSFEEDENABLE	TOGGLE	F	Positive Feedback IR Comp
POSFEEDRESISTANCE	QUANT	0	Positive Feedback Resistance (ohm)
ACHSELECT	IQUANT	0	Ach Select
CABLEID	IQUANT	13	Cable ID
DCCALDATE	LABEL	7/31/2020	DC Calibration Date
ACCALDATE	LABEL	7/31/2020	AC Calibration Date
THERMOSELECT	IQUANT	1	Thermo Select
FRAMEWORKVERSION	QUANT	6.33	Framework Version
INSTRUMENTVERSION	LABEL	3.50	Instrument Version
COMPLIANCEVOLTAGE	IQUANT	0	Compliance Voltage
ZCURVE	TABLE
	Pt	Time	Freq	Zreal	Zimag	Zsig	Zmod	Zphz	Idc	Vdc	IERange
	#	s	Hz	ohm	ohm	V	ohm	°	A	V	#
	0	24	300046.9	998.876	-317.5245	1	1048.13	-17.63451	-2.185112E-005	0.0010148	9
	1	41	238359.4	1032.131	-266.5187	1	1065.986	-14.47875	-1.448612E-005	0.0017324	9
	2	62	189328.1	1056.766	-214.9918	1	1078.413	-11.4995	-2.969597E-005	-0.0009381	9
	3	70	150421.9	1078.352	-182.2389	1	1093.643	-9.59222	-6.064964E-005	0.0006699	9
	4	76	119484.4	1094.458	-113.4916	1	1100.327	-5.920221	-7.882967E-006	0.0119123	8
	5	83	94921.88	1098.777	-87.94852	1	1102.291	-4.576322	2.081044E-005	-0.0060124	8
	6	85	75421.88	1103.385	-75.21222	1	1105.945	-3.899534	1.972914E-005	-0.0071841	8
	7	88	59859.37	1104.231	-60.57648	1	1105.892	-3.140013	7.843091E-006	0.0028833	8
	8	91	47578.12	1108.762	-51.74293	1	1109.969	-2.671901	1.643782E-005	-0.0073858	8
	9	93	37828.12	1110.747	-44.10935	1	1111.623	-2.274102	1.090682E-005	-0.0067383	8
	10	96	30046.88	1110.554	-38.88773	1	1111.234	-2.00548	1.132706E-005	-0.006825	8
	11	99	23859.38	1113.019	-34.13499	1	1113.542	-1.756643	4.43843E-006	-0.0053129	8
	12	102	18984.38	1114.856	-31.68674	1	1115.306	-1.628038	1.480813E-005	-0.0004031	8
	13	105	15046.87	1119.074	-31.41514	1	1119.515	-1.60801	4.464418E-006	-0.0053892	8
	14	108	11953.13	1121.288	-29.73956	1	1121.682	-1.519282	-7.296898E-006	0.0074689	8
	15	110	9515.62	1120.098	-30.34701	1	1120.509	-1.551945	1.902173E-005	-0.0026106	8
	16	113	7546.875	1124.171	-31.98335	1	1124.626	-1.62966	1.920756E-005	-0.0068179	8
	17	117	5928.309	1128.372	-35.71574	1	1128.937	-1.812946	2.100518E-005	-0.0059443	8
	18	121	4733.456	1131.525	-39.83014	1	1132.226	-2.016002	1.947595E-005	-0.0069119	8
	19	124	3796.875	1132.443	-43.02506	1	1133.26	-2.1758	-7.390227E-006	0.0076344	8
	20	127	2987.132	1136.662	-48.17065	1	1137.682	-2.426689	-1.691697E-005	0.0030458	8
	21	131	2390.625	1143.122	-54.47758	1	1144.42	-2.728471	4.195182E-006	-0.0052581	8
	22	134	1884.191	1148.954	-64.30602	1	1150.752	-3.203455	8.156413E-006	0.002685	8
	23	137	1516.544	1151.915	-70.69704	1	1154.082	-3.512037	-7.441711E-006	0.0075678	8
	24	141	1193.986	1164.688	-86.16443	1	1167.871	-4.231075	-7.39491E-006	0.007553	8
	25	144	946.5144	1170.925	-98.9968	1	1175.103	-4.832623	1.904975E-005	-0.0026931	8
	26	147	751.7689	1175.382	-117.3803	1	1181.228	-5.702972	2.070215E-005	-0.004386	8
	27	150	597.4265	1191.437	-141.3881	1	1199.797	-6.767655	1.947772E-005	-0.0069188	8
	28	152	477.4305	1202.318	-158.0637	1	1212.664	-7.489484	-2.509018E-007	0.0006333	8
	29	155	376.6741	1216.495	-185.7001	1	1230.587	-8.679301	-2.590957E-007	0.0006374	8
	30	157	298.2954	1232.333	-218.1648	1	1251.495	-10.03929	-2.546343E-007	0.0006432	8
	31	159	237.7717	1249.863	-255.8444	1	1275.78	-11.56852	-2.249096E-007	0.0006282	8
	32	162	189.0121	1270.034	-301.3264	1	1305.291	-13.34711	-2.643719E-007	0.0006425	8
	33	164	150.2404	1293.282	-355.8419	1	1341.343	-15.38405	-2.469613E-007	0.0006294	8
	34	167	119.1737	1320.315	-421.7499	1	1386.039	-17.71511	-2.118274E-007	0.0006275	8
	35	169	95.0169	1351.12	-499.4388	1	1440.474	-20.28673	-2.274373E-007	0.0006318	8
	36	171	75.60484	1387.639	-593.2161	1	1509.122	-23.14672	-2.611868E-007	0.0006683	8
	37	174	54.50582	1451.771	-761.0901	1	1639.176	-27.66575	-2.190536E-007	0.0006339	8
	38	176	45.95588	1492.773	-867.3292	1	1726.45	-30.1574	-2.706627E-007	0.000669	8
	39	179	37.20238	1551.513	-1020.684	1	1857.146	-33.33947	-2.325781E-007	0.0006309	8
	40	181	30.04808	1622.429	-1203.096	1	2019.831	-36.55843	-2.427239E-007	0.0006336	8
	41	184	23.91582	1713.361	-1434.497	1	2234.589	-39.93747	-2.28948E-007	0.0006643	8
	42	186	18.60119	1836.976	-1742.412	1	2531.892	-43.48665	-3.066057E-007	0.0006534	8
	43	188	15.02404	1967.566	-2051.179	1	2842.296	-46.19191	-2.017161E-007	0.0006629	8
	44	191	12.01923	2130.496	-2431.373	1	3232.737	-48.77347	-2.631254E-007	0.0006252	8
	45	193	9.450605	2343.728	-2914.731	1	3740.149	-51.19733	-1.888852E-007	0.0006291	8
	46	196	7.512019	2598.747	-3472.011	1	4336.859	-53.18571	-5.127725E-008	0.0006792	7
	47	198	5.978954	2903.619	-4110.237	1	5032.4	-54.76124	-6.377423E-008	0.0006226	7
	48	201	4.734848	3276.348	-4878.519	1	5876.598	-56.11522	-2.766883E-008	0.0006415	7
	49	205	3.75601	3730.03	-5767.194	1	6868.308	-57.10655	-8.582867E-008	0.0006012	7
	50	208	3.004808	4255.206	-6765.479	1	7992.402	-57.83181	-6.960122E-008	0.0006279	7
	51	212	2.372217	4923.113	-7983.414	1	9379.336	-58.33921	-6.991956E-008	0.0006346	7
	52	216	1.878005	5724.834	-9406.435	1	11011.57	-58.67496	-7.810458E-008	0.0006031	7
	53	221	1.512097	6581.842	-10907.09	1	12739.12	-58.89127	-6.683281E-008	0.0005376	7
	54	226	1.201923	7667.589	-12739.85	1	14869.29	-58.958	-7.031264E-008	0.000599	7
	55	232	0.956633	8908.406	-14833.14	1	17302.65	-59.01204	-7.299771E-008	-3.099384E-005	7
