EXPLAIN
TAG	EISPOT
TITLE	LABEL	Potentiostatic EIS	Test Identifier
DATE	LABEL	9/23/2020	Date
TIME	LABEL	13:25:22	Time
NOTES	NOTES	1	Notes...
	
PSTAT	PSTAT	REF3000-16137	Potentiostat
VDC	POTEN	0.00000E+000	T	DC Voltage (V)
FREQINIT	QUANT	3.00000E+005	Initial Freq. (Hz)
FREQFINAL	QUANT	1.00000E+000	Final Freq. (Hz)
PTSPERDEC	QUANT	1.00000E+001	Points/decade
VAC	QUANT	5.00000E+001	AC Voltage (mV rms)
AREA	QUANT	1.00000E+000	Sample Area (cm^2)
SPEED	SELECTOR	2	Optimize for:
ZGUESS	QUANT	1.00000E+003	Estimated Z (ohms)
EOC	QUANT	0	Open Circuit (V)
SEQUENCER	TOGGLE	TRUE	Run as Sequence
PSTATMODEL	IQUANT	5	Pstat Model
PSTATSECTION	LABEL	REF3000-16137	Pstat Section
PSTATSERIALNO	LABEL	16137	Pstat Serial Number
CTRLMODE	IQUANT	1	Control Mode
IESTAB	IQUANT	0	I/E Stability
CASPEED	IQUANT	1	Control Amp Speed
CONVENTION	IQUANT	1	Current Convention
ICHRANGE	IQUANT	2	Ich Range
ICHRANGEMODE	TOGGLE	F	Ich Auto Range
ICHOFFSETENABLE	TOGGLE	T	Ich Offset Enable
ICHOFFSET	QUANT	0	Ich Offset (V)
ICHFILTER	IQUANT	3	Ich Filter
VCHRANGE	IQUANT	2	Vch Range
VCHRANGEMODE	TOGGLE	F	Vch Auto Range
VCHOFFSETENABLE	TOGGLE	T	Vch Offset Enable
VCHOFFSET	QUANT	0	Vch Offset (V)
VCHFILTER	IQUANT	3	Vch Filter
ACHRANGE	IQUANT	2	Ach Range
ACHOFFSETENABLE	TOGGLE	F	Ach Offset Enable
ACHOFFSET	QUANT	0	Ach Offset (V)
ACHFILTER	IQUANT	3	Ach Filter
IERANGELOWERLIMIT	IQUANT	2	I/E Range Lower Limit
IERANGEMODE	TOGGLE	F	I/E AutoRange
IERANGE	IQUANT	11	I/E Range
POSFEEDENABLE	TOGGLE	F	Positive Feedback IR Comp
POSFEEDRESISTANCE	QUANT	0	Positive Feedback Resistance (ohm)
ACHSELECT	IQUANT	0	Ach Select
CABLEID	IQUANT	13	Cable ID
DCCALDATE	LABEL	7/31/2020	DC Calibration Date
ACCALDATE	LABEL	7/31/2020	AC Calibration Date
THERMOSELECT	IQUANT	1	Thermo Select
FRAMEWORKVERSION	QUANT	6.33	Framework Version
INSTRUMENTVERSION	LABEL	3.50	Instrument Version
COMPLIANCEVOLTAGE	IQUANT	0	Compliance Voltage
ZCURVE	TABLE
	Pt	Time	Freq	Zreal	Zimag	Zsig	Zmod	Zphz	Idc	Vdc	IERange
	#	s	Hz	ohm	ohm	V	ohm	°	A	V	#
	0	14	300046.9	1577.378	-1052.872	1	1896.487	-33.72241	2.108278E-005	-0.0005176	9
	1	27	238359.4	1774.729	-967.241	1	2021.192	-28.59072	5.079504E-005	8.665509E-006	9
	2	48	189328.1	1925.66	-856.2102	1	2107.43	-23.97146	2.599102E-005	-0.0014772	9
	3	56	150421.9	2038.6	-719.6802	1	2161.904	-19.4444	-9.05628E-005	0.0022125	9
	4	71	119484.4	2207.732	-571.9679	1	2280.62	-14.52456	2.698635E-005	0.0056802	8
	5	78	94921.88	2274.644	-472.8125	1	2323.264	-11.74242	1.304329E-005	-0.0078729	8
	6	84	75421.88	2319.98	-382.769	1	2351.344	-9.36872	-2.331137E-005	0.0070865	8
	7	88	59859.37	2355.943	-317.708	1	2377.269	-7.680223	-2.33894E-005	0.0072105	8
	8	92	47578.12	2373.333	-258.8961	1	2387.412	-6.225521	-9.780828E-006	-0.0012876	8
	9	98	37828.12	2390.198	-207.7393	1	2399.209	-4.967265	-1.901244E-005	0.0031782	8
	10	102	30046.88	2408.63	-178.5025	1	2415.235	-4.238418	2.262835E-005	-0.0079964	8
	11	108	23859.38	2429.647	-154.838	1	2434.576	-3.646447	-2.340873E-005	0.0004338	9
	12	113	18984.38	2438.515	-134.881	1	2442.242	-3.165962	-2.313114E-005	0.0004559	9
	13	118	15046.87	2442.186	-104.7959	1	2444.433	-2.457096	2.148359E-005	-0.0029901	8
	14	123	11953.13	2450.536	-96.1058	1	2452.42	-2.24589	1.329155E-005	-0.0079108	8
	15	128	9515.62	2466.885	-86.99063	1	2468.418	-2.019604	2.957983E-005	-0.0006677	9
	16	133	7546.875	2463.589	-78.44138	1	2464.837	-1.823698	-9.677647E-006	-0.0013317	8
	17	138	5928.309	2457.376	-73.71487	1	2458.481	-1.718209	-9.673412E-006	-0.001303	8
	18	144	4733.456	2508.282	-90.09502	1	2509.9	-2.057123	-1.996635E-005	0.0011139	9
	19	149	3796.875	2496.473	-74.4781	1	2497.583	-1.708817	-1.902196E-005	0.0031298	8
	20	154	2987.132	2524.89	-72.83495	1	2525.941	-1.65234	-1.178817E-005	0.0010181	9
	21	160	2390.625	2519.925	-83.95538	1	2521.323	-1.908196	1.320205E-005	-0.0079298	8
	22	165	1884.191	2541.202	-82.62133	1	2542.545	-1.862184	-1.900912E-005	0.000285	9
	23	170	1516.544	2549.263	-100.5708	1	2551.246	-2.2592	-2.330203E-005	0.0088453	8
	24	175	1193.986	2572.5	-126.1083	1	2575.589	-2.80649	1.006426E-005	0.0003928	9
	25	181	946.5144	2598.696	-144.0778	1	2602.687	-3.173365	1.828917E-005	-0.0009227	9
	26	185	751.7689	2565.501	-149.3759	1	2569.846	-3.332275	-2.225952E-005	0.0054751	8
	27	188	597.4265	2635.419	-212.2911	1	2643.956	-4.605408	2.921746E-005	-0.000879	9
	28	192	477.4305	2639.891	-217.1265	1	2648.805	-4.701896	-3.251852E-007	0.0006517	8
	29	195	376.6741	2663.979	-252.7654	1	2675.944	-5.42015	-3.17085E-007	0.0006422	8
	30	198	298.2954	2689.832	-294.0049	1	2705.852	-6.2378	-3.33529E-007	0.0006637	8
	31	200	237.7717	2718.339	-341.2405	1	2739.674	-7.155068	-2.796715E-007	0.0006155	8
	32	203	189.0121	2750.708	-397.6778	1	2779.307	-8.226416	-3.251624E-007	0.0006451	8
	33	205	150.2404	2786.857	-464.5804	1	2825.316	-9.464405	-3.195083E-007	0.0006331	8
	34	207	119.1737	2828.181	-544.8957	1	2880.194	-10.90535	-3.067469E-007	0.0006286	8
	35	210	95.0169	2873.439	-638.6494	1	2943.556	-12.53085	-2.975628E-007	0.0006188	8
	36	212	75.60484	2925.661	-751.277	1	3020.581	-14.40174	-2.885866E-007	0.0006331	8
	37	215	54.50582	3012.765	-952.105	1	3159.63	-17.53777	-2.683144E-007	0.0006158	8
	38	217	45.95588	3066.953	-1079.762	1	3251.475	-19.3953	-2.894162E-007	0.000618	8
	39	220	37.20238	3142.44	-1263.922	1	3387.097	-21.9105	-3.025939E-007	0.0006139	8
	40	222	30.04808	3231.224	-1484.044	1	3555.727	-24.66848	-3.272393E-007	0.000643	8
	41	225	23.91582	3349.859	-1768.151	1	3787.864	-27.82636	-6.055568E-008	0.0005734	7
	42	227	18.60119	3494.549	-2144.759	1	4100.228	-31.53927	-1.19065E-007	0.0006247	7
	43	229	15.02404	3644.9	-2524.243	1	4433.632	-34.70419	-3.347721E-008	0.000639	7
	44	231	12.01923	3829.497	-2993.125	1	4860.437	-38.01109	-7.804793E-008	0.000572	7
	45	234	9.450605	4072.906	-3600.039	1	5435.884	-41.47344	-9.759277E-008	0.0005956	7
	46	236	7.512019	4353.401	-4298.731	1	6118.104	-44.63797	-8.929137E-008	0.0006007	7
	47	239	5.978954	4700.021	-5119.375	1	6949.69	-47.44542	-7.4998E-008	0.0006485	7
	48	242	4.734848	5129.869	-6118.928	1	7984.787	-50.02485	-7.427553E-008	0.0006054	7
	49	245	3.75601	5646.635	-7287.18	1	9218.865	-52.22888	-4.074645E-008	0.0006267	7
	50	249	3.004808	6255.25	-8608.475	1	10641.15	-53.9964	-5.492268E-008	0.0006093	7
	51	253	2.372217	7040.942	-10243.35	1	12429.84	-55.49664	-5.710987E-008	0.0005701	7
	52	257	1.878005	7991.921	-12188.09	1	14574.65	-56.74652	-4.940978E-008	0.0006108	7
	53	261	1.512097	9025.81	-14258.33	1	16874.99	-57.66537	-5.604386E-008	0.0006363	7
	54	267	1.201923	10393.59	-16834.31	1	19784.36	-58.30862	-5.623975E-008	0.0006192	7
	55	273	0.956633	12015.46	-19808.51	1	23167.83	-58.75982	-7.589833E-008	-4.295048E-005	7
