EXPLAIN
TAG	EISPOT
TITLE	LABEL	Potentiostatic EIS	Test Identifier
DATE	LABEL	9/23/2020	Date
TIME	LABEL	12:56:52	Time
NOTES	NOTES	1	Notes...
	
PSTAT	PSTAT	REF3000-16137	Potentiostat
VDC	POTEN	0.00000E+000	T	DC Voltage (V)
FREQINIT	QUANT	3.00000E+005	Initial Freq. (Hz)
FREQFINAL	QUANT	1.00000E+000	Final Freq. (Hz)
PTSPERDEC	QUANT	1.00000E+001	Points/decade
VAC	QUANT	5.00000E+001	AC Voltage (mV rms)
AREA	QUANT	1.00000E+000	Sample Area (cm^2)
SPEED	SELECTOR	2	Optimize for:
ZGUESS	QUANT	1.00000E+003	Estimated Z (ohms)
EOC	QUANT	0	Open Circuit (V)
SEQUENCER	TOGGLE	TRUE	Run as Sequence
PSTATMODEL	IQUANT	5	Pstat Model
PSTATSECTION	LABEL	REF3000-16137	Pstat Section
PSTATSERIALNO	LABEL	16137	Pstat Serial Number
CTRLMODE	IQUANT	1	Control Mode
IESTAB	IQUANT	0	I/E Stability
CASPEED	IQUANT	1	Control Amp Speed
CONVENTION	IQUANT	1	Current Convention
ICHRANGE	IQUANT	2	Ich Range
ICHRANGEMODE	TOGGLE	F	Ich Auto Range
ICHOFFSETENABLE	TOGGLE	T	Ich Offset Enable
ICHOFFSET	QUANT	0	Ich Offset (V)
ICHFILTER	IQUANT	3	Ich Filter
VCHRANGE	IQUANT	2	Vch Range
VCHRANGEMODE	TOGGLE	F	Vch Auto Range
VCHOFFSETENABLE	TOGGLE	T	Vch Offset Enable
VCHOFFSET	QUANT	0	Vch Offset (V)
VCHFILTER	IQUANT	3	Vch Filter
ACHRANGE	IQUANT	2	Ach Range
ACHOFFSETENABLE	TOGGLE	F	Ach Offset Enable
ACHOFFSET	QUANT	0	Ach Offset (V)
ACHFILTER	IQUANT	3	Ach Filter
IERANGELOWERLIMIT	IQUANT	2	I/E Range Lower Limit
IERANGEMODE	TOGGLE	F	I/E AutoRange
IERANGE	IQUANT	11	I/E Range
POSFEEDENABLE	TOGGLE	F	Positive Feedback IR Comp
POSFEEDRESISTANCE	QUANT	0	Positive Feedback Resistance (ohm)
ACHSELECT	IQUANT	0	Ach Select
CABLEID	IQUANT	13	Cable ID
DCCALDATE	LABEL	7/31/2020	DC Calibration Date
ACCALDATE	LABEL	7/31/2020	AC Calibration Date
THERMOSELECT	IQUANT	1	Thermo Select
FRAMEWORKVERSION	QUANT	6.33	Framework Version
INSTRUMENTVERSION	LABEL	3.50	Instrument Version
COMPLIANCEVOLTAGE	IQUANT	0	Compliance Voltage
ZCURVE	TABLE
	Pt	Time	Freq	Zreal	Zimag	Zsig	Zmod	Zphz	Idc	Vdc	IERange
	#	s	Hz	ohm	ohm	V	ohm	°	A	V	#
	0	14	300046.9	1029.622	-339.4132	1	1084.123	-18.24472	1.734658E-005	-0.0022341	9
	1	32	238359.4	1067.306	-286.0233	1	1104.967	-15.00198	-8.993578E-005	0.0021827	9
	2	47	189328.1	1098.917	-248.016	1	1126.557	-12.71808	2.178895E-005	-0.0003832	9
	3	58	150421.9	1148.954	-201.8199	1	1166.544	-9.96268	2.027665E-006	0.0015437	9
	4	70	119484.4	1152.205	-127.1088	1	1159.195	-6.295293	-4.796155E-005	0.0067028	8
	5	76	94921.88	1154.536	-102.3669	1	1159.065	-5.066881	1.972862E-005	-0.0069891	8
	6	81	75421.88	1161.72	-82.91503	1	1164.675	-4.082429	1.507737E-005	-0.0004235	8
	7	85	59859.37	1167.593	-68.53022	1	1169.602	-3.359041	1.062443E-007	0.0055313	8
	8	88	47578.12	1171.186	-59.3662	1	1172.689	-2.901781	-1.704473E-005	0.003039	8
	9	92	37828.12	1173.866	-48.98974	1	1174.888	-2.389776	-1.935267E-005	0.0048316	8
	10	95	30046.88	1176.055	-43.41999	1	1176.856	-2.114401	-1.809333E-005	0.0087403	8
	11	97	23859.38	1176.853	-38.86229	1	1177.494	-1.891346	1.936092E-005	-0.0028396	8
	12	100	18984.38	1180.678	-33.88483	1	1181.164	-1.643907	-1.976886E-005	0.0075848	8
	13	103	15046.87	1185.128	-33.50743	1	1185.602	-1.619507	-2.016756E-005	0.0064637	8
	14	105	11953.13	1185.568	-29.28571	1	1185.93	-1.415023	8.538908E-006	0.0027618	8
	15	108	9515.62	1188.843	-34.29378	1	1189.338	-1.652316	1.654794E-005	-0.0074114	8
	16	111	7546.875	1191.313	-34.29203	1	1191.807	-1.648807	4.697282E-006	-0.005416	8
	17	114	5928.309	1193.902	-34.42721	1	1194.398	-1.651716	1.934322E-005	-0.0027838	8
	18	118	4733.456	1199.591	-36.57509	1	1200.149	-1.746386	-1.399913E-005	0.0013811	8
	19	122	3796.875	1204.007	-46.01592	1	1204.886	-2.188722	-9.29579E-006	-0.0006848	8
	20	125	2987.132	1210.01	-50.85177	1	1211.078	-2.406491	8.257999E-006	0.0027166	8
	21	129	2390.625	1214.989	-56.65673	1	1216.31	-2.669852	-1.520395E-007	0.0057495	8
	22	132	1884.191	1224.828	-66.05669	1	1226.608	-3.087052	-1.399355E-005	0.0013811	8
	23	136	1516.544	1229.478	-75.73772	1	1231.809	-3.525052	-1.407077E-005	0.0014056	8
	24	140	1193.986	1238.177	-89.29161	1	1241.393	-4.124766	4.599909E-006	-0.005453	8
	25	144	946.5144	1248.579	-108.4892	1	1253.284	-4.965962	1.6637E-005	-0.0073757	8
	26	147	751.7689	1253.528	-120.6553	1	1259.322	-5.497931	2.095924E-005	-0.0058899	8
	27	149	597.4265	1264.876	-137.6871	1	1272.348	-6.212429	2.089507E-005	-0.0044488	8
	28	152	477.4305	1281.807	-161.2987	1	1291.916	-7.172229	-2.339936E-007	0.0006367	8
	29	154	376.6741	1296.876	-189.4114	1	1310.635	-8.309418	-2.367364E-007	0.0006246	8
	30	156	298.2954	1313.665	-222.4099	1	1332.359	-9.60933	-2.416666E-007	0.0006343	8
	31	159	237.7717	1332.143	-260.6375	1	1357.401	-11.07024	-2.774219E-007	0.0006423	8
	32	161	189.0121	1353.45	-306.7632	1	1387.779	-12.77049	-2.578686E-007	0.000645	8
	33	164	150.2404	1377.667	-361.9428	1	1424.418	-14.72018	-2.519088E-007	0.0006452	8
	34	166	119.1737	1405.71	-428.8487	1	1469.671	-16.9657	-2.675261E-007	0.0006521	8
	35	168	95.0169	1437.771	-507.4262	1	1524.686	-19.43925	-2.683271E-007	0.0006373	8
	36	171	75.60484	1475.386	-602.3678	1	1593.616	-22.20912	-2.636398E-007	0.0006381	8
	37	173	54.50582	1540.895	-772.3687	1	1723.633	-26.62217	-2.535819E-007	0.0006314	8
	38	176	45.95588	1582.807	-880.377	1	1811.171	-29.08336	-2.592732E-007	0.000648	8
	39	178	37.20238	1642.383	-1035.717	1	1941.683	-32.23627	-2.402631E-007	0.0006321	8
	40	181	30.04808	1714.209	-1221.088	1	2104.654	-35.46352	-2.077008E-007	0.0006164	8
	41	183	23.91582	1806.549	-1456.523	1	2320.577	-38.87737	-2.018253E-007	0.0006374	8
	42	185	18.60119	1931.485	-1769.018	1	2619.172	-42.4861	-2.074342E-007	0.0006226	8
	43	188	15.02404	2060.992	-2085.346	1	2931.954	-45.33652	-1.783366E-007	0.0006221	8
	44	190	12.01923	2226.63	-2472.706	1	3327.485	-47.99749	-2.811057E-007	0.0006415	8
	45	192	9.450605	2441.038	-2969.664	1	3844.16	-50.5801	-2.399749E-007	0.0006384	8
	46	195	7.512019	2699.211	-3538.044	1	4450.112	-52.65961	-7.080532E-008	0.0006576	7
	47	198	5.978954	3004.215	-4192.081	1	5157.407	-54.37309	-7.235044E-008	0.0005879	7
	48	201	4.734848	3381.987	-4985.88	1	6024.686	-55.85045	-3.210067E-008	0.0006025	7
	49	204	3.75601	3838.13	-5902.186	1	7040.386	-56.96447	-8.692081E-008	0.0006119	7
	50	207	3.004808	4370.424	-6929.626	1	8192.699	-57.76091	-6.405099E-008	0.0005951	7
	51	211	2.372217	5049.879	-8187.893	1	9619.92	-58.33581	-6.742202E-008	0.0006497	7
	52	215	1.878005	5868.645	-9664.39	1	11306.7	-58.73203	-7.61121E-008	0.0006105	7
	53	220	1.512097	6753.919	-11223.84	1	13099.23	-58.96266	-6.384919E-008	0.0005172	7
	54	225	1.201923	7867.272	-13130.05	1	15306.61	-59.07077	-6.913847E-008	0.0006183	7
	55	232	0.956633	9146.785	-15305.59	1	17830.44	-59.137	-7.069396E-008	-2.714996E-005	7
