EXPLAIN
TAG	EISPOT
TITLE	LABEL	Potentiostatic EIS	Test Identifier
DATE	LABEL	9/23/2020	Date
TIME	LABEL	16:13:59	Time
NOTES	NOTES	1	Notes...
	
PSTAT	PSTAT	REF3000-16137	Potentiostat
VDC	POTEN	0.00000E+000	T	DC Voltage (V)
FREQINIT	QUANT	3.00000E+005	Initial Freq. (Hz)
FREQFINAL	QUANT	1.00000E+000	Final Freq. (Hz)
PTSPERDEC	QUANT	1.00000E+001	Points/decade
VAC	QUANT	5.00000E+001	AC Voltage (mV rms)
AREA	QUANT	1.00000E+000	Sample Area (cm^2)
SPEED	SELECTOR	2	Optimize for:
ZGUESS	QUANT	1.00000E+003	Estimated Z (ohms)
EOC	QUANT	0	Open Circuit (V)
SEQUENCER	TOGGLE	TRUE	Run as Sequence
PSTATMODEL	IQUANT	5	Pstat Model
PSTATSECTION	LABEL	REF3000-16137	Pstat Section
PSTATSERIALNO	LABEL	16137	Pstat Serial Number
CTRLMODE	IQUANT	1	Control Mode
IESTAB	IQUANT	0	I/E Stability
CASPEED	IQUANT	1	Control Amp Speed
CONVENTION	IQUANT	1	Current Convention
ICHRANGE	IQUANT	2	Ich Range
ICHRANGEMODE	TOGGLE	F	Ich Auto Range
ICHOFFSETENABLE	TOGGLE	T	Ich Offset Enable
ICHOFFSET	QUANT	0	Ich Offset (V)
ICHFILTER	IQUANT	3	Ich Filter
VCHRANGE	IQUANT	2	Vch Range
VCHRANGEMODE	TOGGLE	F	Vch Auto Range
VCHOFFSETENABLE	TOGGLE	T	Vch Offset Enable
VCHOFFSET	QUANT	0	Vch Offset (V)
VCHFILTER	IQUANT	3	Vch Filter
ACHRANGE	IQUANT	2	Ach Range
ACHOFFSETENABLE	TOGGLE	F	Ach Offset Enable
ACHOFFSET	QUANT	0	Ach Offset (V)
ACHFILTER	IQUANT	3	Ach Filter
IERANGELOWERLIMIT	IQUANT	2	I/E Range Lower Limit
IERANGEMODE	TOGGLE	F	I/E AutoRange
IERANGE	IQUANT	11	I/E Range
POSFEEDENABLE	TOGGLE	F	Positive Feedback IR Comp
POSFEEDRESISTANCE	QUANT	0	Positive Feedback Resistance (ohm)
ACHSELECT	IQUANT	0	Ach Select
CABLEID	IQUANT	13	Cable ID
DCCALDATE	LABEL	7/31/2020	DC Calibration Date
ACCALDATE	LABEL	7/31/2020	AC Calibration Date
THERMOSELECT	IQUANT	1	Thermo Select
FRAMEWORKVERSION	QUANT	6.33	Framework Version
INSTRUMENTVERSION	LABEL	3.50	Instrument Version
COMPLIANCEVOLTAGE	IQUANT	0	Compliance Voltage
ZCURVE	TABLE
	Pt	Time	Freq	Zreal	Zimag	Zsig	Zmod	Zphz	Idc	Vdc	IERange
	#	s	Hz	ohm	ohm	V	ohm	°	A	V	#
	0	14	300046.9	32.34125	-4425.671	1	4425.789	-89.58131	2.342047E-005	-0.0004859	9
	1	28	238359.4	69.72887	-5496.528	1	5496.97	-89.27319	4.987439E-005	7.476365E-005	9
	2	42	189328.1	177.4705	-6382.487	1	6384.954	-88.40725	-2.140633E-005	0.0015433	9
	3	52	150421.9	-142.4534	-8011.146	1	8012.413	-91.01872	8.76017E-007	0.0016335	9
	4	60	119484.4	548.124	-10395.01	1	10409.45	-86.98161	2.231492E-005	-0.0183339	8
	5	67	94921.88	786.3845	-13210.08	1	13233.47	-86.59325	2.598246E-005	-0.005137	8
	6	75	75421.88	841.2004	-16493.99	1	16515.43	-87.08042	-9.520262E-006	-0.0021469	8
	7	84	59859.37	845.4381	-20730.18	1	20747.41	-87.6646	-1.159785E-006	-0.0051353	8
	8	92	47578.12	4180.079	-26965.62	1	27287.69	-81.18842	-3.68849E-006	0.0250484	7
	9	98	37828.12	1344.706	-32534.78	1	32562.56	-87.63324	-2.634604E-005	0.007548	8
	10	107	30046.88	1459.236	-40086.25	1	40112.8	-87.91521	2.702308E-005	-0.0073802	8
	11	116	23859.38	922.2769	-49066.04	1	49074.71	-88.92316	-2.024907E-005	0.0026782	8
	12	122	18984.38	3543.928	-64601.3	1	64698.43	-86.85999	-1.205755E-005	0.010261	8
	13	130	15046.87	8365.006	-80538.63	1	80971.87	-84.07034	3.445082E-006	-0.0241504	7
	14	135	11953.13	2671.703	-106993.8	1	107027.1	-88.56959	2.603948E-005	-0.0089973	8
	15	143	9515.62	4550.588	-125094.4	1	125177.1	-87.91666	-2.393019E-005	0.0052531	8
	16	150	7546.875	16767.1	-140216	1	141214.9	-83.18092	-9.564878E-006	-0.0021771	8
	17	158	5928.309	32182.56	-187355.4	1	190099.4	-80.25327	5.275656E-006	-0.0265463	7
	18	164	4733.456	74137.13	-239219.8	1	250444.5	-72.78115	-5.328663E-006	0.0037099	7
	19	171	3796.875	32298.01	-320072.1	1	321697.5	-84.23787	2.805763E-006	0.0081501	7
	20	178	2987.132	21014.92	-415624	1	416154.9	-87.10545	3.374463E-006	-0.0241754	7
	21	185	2390.625	77350.42	-430450.6	1	437345.2	-79.81287	-7.134226E-006	0.023243	7
	22	191	1884.191	-101944.3	-477978.9	1	488729.4	-102.0398	3.359701E-006	-0.024123	7
	23	199	1516.544	46117.66	-725784	1	727247.8	-86.36421	-7.293965E-006	0.0188444	7
	24	205	1193.986	261131.3	-181250.5	1	317869.9	-34.76441	2.214776E-005	-0.0095953	8
	25	214	946.5144	-295418.3	-219774.6	1	368202.2	-143.3528	2.546943E-005	-0.0087986	8
	26	220	751.7689	21214.05	-270798.7	1	271628.4	-85.52067	2.993983E-005	-0.0006889	9
	27	226	597.4265	21474.49	435905.7	1	436434.3	87.17966	7.257556E-006	-0.007506	8
	28	232	477.4305	596258.4	-2000696	1	2087656	-73.4046	-9.201701E-008	0.0005906	7
	29	238	376.6741	1158667	-2423128	1	2685900	-64.44427	-9.050574E-010	0.0006085	5
	30	241	298.2954	1210982	-2905620	1	3147873	-67.37498	-8.8084E-009	0.0006082	6
	31	245	237.7717	1956337	-3358810	1	3887011	-59.78136	-9.635697E-010	0.0005863	5
	32	249	189.0121	2484968	-3871133	1	4600080	-57.30267	-9.812285E-010	0.0005843	5
	33	253	150.2404	3228774	-4321267	1	5394287	-53.23357	-9.649466E-010	0.0005989	5
	34	255	119.1737	3391650	-4440760	1	5587812	-52.62906	-9.722536E-010	0.0006676	5
	35	258	95.0169	5238319	-4943789	1	7202850	-43.34311	-1.013617E-009	0.0005837	5
	36	261	75.60484	6553543	-5138221	1	8327679	-38.09777	-1.004998E-009	0.0006095	5
	37	264	54.50582	7833772	-4707227	1	9139254	-31.00119	-1.032736E-009	0.0006734	5
	38	267	45.95588	9280185	-3423538	1	9.891534E+006	-20.24944	-1.359571E-010	0.0006814	4
	39	270	37.20238	9.892514E+006	-2868369	1	1.029997E+007	-16.1697	-4.140017E-011	0.0006603	4
	40	272	30.04808	1.021854E+007	-2861773	1	1.061171E+007	-15.64527	-1.093705E-010	0.0006158	4
	41	275	23.91582	1.059329E+007	-2735510	1	1.094078E+007	-14.47921	-1.8746E-011	0.000599	4
	42	278	18.60119	1.076506E+007	-2437262	1	1.103752E+007	-12.75697	-5.508759E-011	0.0006822	4
	43	280	15.02404	1.111194E+007	-1893878	1	1.127218E+007	-9.67234	-9.363779E-011	0.0006074	4
	44	283	12.01923	1.125995E+007	-1588076	1	1.137138E+007	-8.027911	-1.049186E-010	0.0005999	4
	45	285	9.450605	1.139977E+007	-1428746	1	1.148896E+007	-7.143694	-9.508182E-011	0.0007034	4
	46	288	7.512019	1.158546E+007	-1398645	1	1.166958E+007	-6.88367	-1.18352E-010	0.0006821	4
	47	291	5.978954	1.173461E+007	-1276768	1	1.180386E+007	-6.209562	-1.090563E-010	0.0006611	4
	48	296	4.734848	1.192707E+007	-1209909	1	1.198828E+007	-5.792398	-8.914224E-011	0.0006656	4
	49	300	3.75601	1.210749E+007	-1172779	1	1.216416E+007	-5.532633	-1.01243E-010	0.0005843	4
	50	306	3.004808	1.226817E+007	-1166163	1	1.232347E+007	-5.429993	-1.023494E-010	0.0007242	4
	51	312	2.372217	1.253242E+007	-1146481	1	1.258475E+007	-5.226937	-9.243351E-011	0.000703	4
	52	317	1.878005	1.274529E+007	-1148782	1	1.279695E+007	-5.150373	-1.072453E-010	0.0006629	4
	53	321	1.512097	1.296287E+007	-1156578	1	1.301436E+007	-5.098565	-9.991068E-011	0.0007341	4
	54	327	1.201923	1.321389E+007	-1163775	1	1.326504E+007	-5.033171	-9.423413E-011	0.0006292	4
	55	333	0.956633	1.347447E+007	-1171785	1	1.352533E+007	-4.970128	-1.768446E-010	-6.746886E-007	4
