EXPLAIN
TAG	EISPOT
TITLE	LABEL	Potentiostatic EIS	Test Identifier
DATE	LABEL	9/23/2020	Date
TIME	LABEL	15:13:00	Time
NOTES	NOTES	1	Notes...
	
PSTAT	PSTAT	REF3000-16137	Potentiostat
VDC	POTEN	0.00000E+000	T	DC Voltage (V)
FREQINIT	QUANT	3.00000E+005	Initial Freq. (Hz)
FREQFINAL	QUANT	1.00000E+000	Final Freq. (Hz)
PTSPERDEC	QUANT	1.00000E+001	Points/decade
VAC	QUANT	5.00000E+001	AC Voltage (mV rms)
AREA	QUANT	1.00000E+000	Sample Area (cm^2)
SPEED	SELECTOR	2	Optimize for:
ZGUESS	QUANT	1.00000E+003	Estimated Z (ohms)
EOC	QUANT	0	Open Circuit (V)
SEQUENCER	TOGGLE	TRUE	Run as Sequence
PSTATMODEL	IQUANT	5	Pstat Model
PSTATSECTION	LABEL	REF3000-16137	Pstat Section
PSTATSERIALNO	LABEL	16137	Pstat Serial Number
CTRLMODE	IQUANT	1	Control Mode
IESTAB	IQUANT	0	I/E Stability
CASPEED	IQUANT	1	Control Amp Speed
CONVENTION	IQUANT	1	Current Convention
ICHRANGE	IQUANT	2	Ich Range
ICHRANGEMODE	TOGGLE	F	Ich Auto Range
ICHOFFSETENABLE	TOGGLE	T	Ich Offset Enable
ICHOFFSET	QUANT	0	Ich Offset (V)
ICHFILTER	IQUANT	3	Ich Filter
VCHRANGE	IQUANT	2	Vch Range
VCHRANGEMODE	TOGGLE	F	Vch Auto Range
VCHOFFSETENABLE	TOGGLE	T	Vch Offset Enable
VCHOFFSET	QUANT	0	Vch Offset (V)
VCHFILTER	IQUANT	3	Vch Filter
ACHRANGE	IQUANT	2	Ach Range
ACHOFFSETENABLE	TOGGLE	F	Ach Offset Enable
ACHOFFSET	QUANT	0	Ach Offset (V)
ACHFILTER	IQUANT	3	Ach Filter
IERANGELOWERLIMIT	IQUANT	2	I/E Range Lower Limit
IERANGEMODE	TOGGLE	F	I/E AutoRange
IERANGE	IQUANT	11	I/E Range
POSFEEDENABLE	TOGGLE	F	Positive Feedback IR Comp
POSFEEDRESISTANCE	QUANT	0	Positive Feedback Resistance (ohm)
ACHSELECT	IQUANT	0	Ach Select
CABLEID	IQUANT	13	Cable ID
DCCALDATE	LABEL	7/31/2020	DC Calibration Date
ACCALDATE	LABEL	7/31/2020	AC Calibration Date
THERMOSELECT	IQUANT	1	Thermo Select
FRAMEWORKVERSION	QUANT	6.33	Framework Version
INSTRUMENTVERSION	LABEL	3.50	Instrument Version
COMPLIANCEVOLTAGE	IQUANT	0	Compliance Voltage
ZCURVE	TABLE
	Pt	Time	Freq	Zreal	Zimag	Zsig	Zmod	Zphz	Idc	Vdc	IERange
	#	s	Hz	ohm	ohm	V	ohm	°	A	V	#
	0	18	300046.9	302.116	-4079.47	1	4090.642	-85.76454	-6.314798E-005	0.0004148	9
	1	33	238359.4	489.6091	-5016.604	1	5040.439	-84.42571	-2.368049E-005	0.001502	9
	2	49	189328.1	764.1104	-6078.973	1	6126.808	-82.83565	2.021566E-005	-0.0021634	9
	3	57	150421.9	832.8542	-7417.667	1	7464.277	-83.59367	8.655225E-005	-0.0024757	9
	4	64	119484.4	1067.974	-9469.058	1	9529.09	-83.56505	2.460855E-005	0.0011348	9
	5	73	94921.88	2109.791	-11533.24	1	11724.63	-79.63343	1.595763E-005	-0.0092248	8
	6	82	75421.88	3019.405	-14223.34	1	14540.29	-78.01488	-1.606579E-006	0.007593	8
	7	90	59859.37	3850.309	-17613.55	1	18029.48	-77.66916	-2.627105E-005	0.0075961	8
	8	99	47578.12	7654.026	-21948.41	1	23244.72	-70.77491	3.161002E-006	-0.0233873	7
	9	106	37828.12	9374.516	-26565.21	1	28170.76	-70.56273	4.70539E-006	-0.0006238	7
	10	113	30046.88	9138.678	-31796.6	1	33083.82	-73.96479	1.590357E-005	-0.0091845	8
	11	121	23859.38	15293.66	-38424.2	1	41355.96	-68.29638	6.380155E-006	-0.0100003	7
	12	127	18984.38	19460.61	-46450.92	1	50362.71	-67.26875	-3.614786E-006	0.0244953	7
	13	132	15046.87	26838.93	-54642.09	1	60877.63	-63.8408	-5.182224E-006	0.0036627	7
	14	137	11953.13	35210.73	-65102.05	1	74014	-61.59307	-3.509957E-006	0.0248284	7
	15	143	9515.62	47557.58	-74767.28	1	88610.78	-57.54059	-4.981804E-006	0.0252128	7
	16	149	7546.875	62799.28	-83350.58	1	104360.3	-53.00433	5.180907E-006	-0.0259965	7
	17	154	5928.309	86943.65	-117297.8	1	146006.8	-53.45337	2.573964E-005	-0.0089242	8
	18	162	4733.456	115520.6	-106912.9	1	157402	-42.78388	-2.455089E-005	0.011035	8
	19	170	3796.875	116552.2	-93154.96	1	149205.4	-38.63378	2.689358E-006	0.0079636	7
	20	176	2987.132	149404	-89331.11	1	174073.6	-30.87589	-7.140944E-006	0.0184758	7
	21	181	2390.625	129435	-50994.66	1	139118.3	-21.50339	-5.358227E-006	0.0033768	7
	22	188	1884.191	177687.4	-55923.5	1	186280	-17.47034	-5.190019E-006	0.0036255	7
	23	193	1516.544	190669.2	-49717.51	1	197044.6	-14.6146	4.80168E-006	-0.0009207	7
	24	199	1193.986	180393.7	-72593.2	1	194452.2	-21.92061	-6.516387E-006	0.0117312	7
	25	204	946.5144	182340.7	-34301.84	1	185539.1	-10.65394	4.80877E-006	-0.0005731	7
	26	209	751.7689	174456.9	-24158.91	1	176121.7	-7.884216	-6.580364E-006	0.0116432	7
	27	213	597.4265	258446.3	-35257.29	1	260840.1	-7.768346	2.810944E-006	0.007998	7
	28	218	477.4305	201482	-22070.06	1	202687.2	-6.251178	-9.022402E-008	0.0006531	7
	29	221	376.6741	203368.5	-15852.23	1	203985.4	-4.457095	-9.69249E-009	0.0006172	6
	30	223	298.2954	204162.6	-13623.34	1	204616.7	-3.817566	-1.015294E-008	0.0006934	6
	31	226	237.7717	205422	-11368.54	1	205736.3	-3.167653	-1.020689E-008	0.0006328	6
	32	228	189.0121	206485.8	-10041.1	1	206729.8	-2.784018	-9.922445E-009	0.0006062	6
	33	230	150.2404	207124.5	-8918.234	1	207316.4	-2.465482	-1.004849E-008	0.0007018	6
	34	233	119.1737	206673.8	-7519.334	1	206810.5	-2.083652	-1.069921E-008	0.000687	6
	35	236	95.0169	209154.3	-7794.526	1	209299.5	-2.134247	-1.017454E-008	0.0006963	6
	36	238	75.60484	210344.3	-7610.405	1	210481.9	-2.072098	-9.597626E-009	0.0006921	6
	37	241	54.50582	212369.3	-7592.66	1	212504.9	-2.047576	-1.027442E-008	0.000686	6
	38	243	45.95588	212268.4	-8390.588	1	212434.2	-2.263621	-1.029244E-008	0.000633	6
	39	246	37.20238	213620.7	-8794.666	1	213801.6	-2.35751	-1.121312E-008	0.0006498	6
	40	248	30.04808	214886.9	-9547.79	1	215098.9	-2.544077	-8.772234E-009	0.0006017	6
	41	251	23.91582	215769.9	-10351.45	1	216018	-2.746629	-8.103207E-009	0.0006088	6
	42	253	18.60119	217534.8	-12103.03	1	217871.2	-3.184494	-1.133825E-008	0.0006911	6
	43	256	15.02404	219670.9	-13137.83	1	220063.4	-3.422606	-8.209847E-009	0.0007009	6
	44	258	12.01923	221497.5	-14817.96	1	221992.6	-3.827326	-6.478282E-009	0.0006237	6
	45	261	9.450605	223599.8	-16874.72	1	224235.7	-4.315841	-1.13175E-008	0.0006257	6
	46	263	7.512019	225699.2	-19359.3	1	226528	-4.902534	-1.234737E-008	0.0006531	6
	47	266	5.978954	228557.2	-22049.09	1	229618.3	-5.510315	-1.109436E-008	0.0006865	6
	48	270	4.734848	231766.7	-25381.25	1	233152.3	-6.249676	-1.145679E-008	0.0006883	6
	49	274	3.75601	235293.1	-28971.69	1	237070.1	-7.019508	-8.479199E-009	0.0006915	6
	50	279	3.004808	239564.9	-33226.53	1	241858.1	-7.896281	-9.405262E-009	0.0006897	6
	51	287	2.372217	244025.1	-38465.09	1	247038.1	-8.957693	-8.09659E-009	0.0005869	6
	52	291	1.878005	248790.4	-44710.81	1	252776	-10.18803	-6.784778E-009	0.0006591	6
	53	296	1.512097	253828.3	-51376.2	1	258975.5	-11.44238	-6.466936E-009	0.0006044	6
	54	301	1.201923	259215.4	-59474.38	1	265950.8	-12.92229	-8.96955E-009	0.0006726	6
	55	308	0.956633	266814.1	-69217.88	1	275646.3	-14.54328	-1.36644E-008	1.281667E-005	6
