EXPLAIN
TAG	EISPOT
TITLE	LABEL	Potentiostatic EIS	Test Identifier
DATE	LABEL	2/28/2021	Date
TIME	LABEL	22:41:32	Time
NOTES	NOTES	1	Notes...
	
PSTAT	PSTAT	REF3000-16137	Potentiostat
VDC	POTEN	0.00000E+000	T	DC Voltage (V)
FREQINIT	QUANT	3.00000E+005	Initial Freq. (Hz)
FREQFINAL	QUANT	1.00000E+000	Final Freq. (Hz)
PTSPERDEC	QUANT	1.00000E+001	Points/decade
VAC	QUANT	5.00000E+001	AC Voltage (mV rms)
AREA	QUANT	1.00000E+000	Sample Area (cm^2)
SPEED	SELECTOR	2	Optimize for:
ZGUESS	QUANT	1.00000E+003	Estimated Z (ohms)
EOC	QUANT	0	Open Circuit (V)
SEQUENCER	TOGGLE	TRUE	Run as Sequence
PSTATMODEL	IQUANT	5	Pstat Model
PSTATSECTION	LABEL	REF3000-16137	Pstat Section
PSTATSERIALNO	LABEL	16137	Pstat Serial Number
CTRLMODE	IQUANT	1	Control Mode
IESTAB	IQUANT	0	I/E Stability
CASPEED	IQUANT	1	Control Amp Speed
CONVENTION	IQUANT	1	Current Convention
ICHRANGE	IQUANT	2	Ich Range
ICHRANGEMODE	TOGGLE	F	Ich Auto Range
ICHOFFSETENABLE	TOGGLE	T	Ich Offset Enable
ICHOFFSET	QUANT	0	Ich Offset (V)
ICHFILTER	IQUANT	3	Ich Filter
VCHRANGE	IQUANT	2	Vch Range
VCHRANGEMODE	TOGGLE	F	Vch Auto Range
VCHOFFSETENABLE	TOGGLE	T	Vch Offset Enable
VCHOFFSET	QUANT	0	Vch Offset (V)
VCHFILTER	IQUANT	3	Vch Filter
ACHRANGE	IQUANT	2	Ach Range
ACHOFFSETENABLE	TOGGLE	F	Ach Offset Enable
ACHOFFSET	QUANT	0	Ach Offset (V)
ACHFILTER	IQUANT	3	Ach Filter
IERANGELOWERLIMIT	IQUANT	2	I/E Range Lower Limit
IERANGEMODE	TOGGLE	F	I/E AutoRange
IERANGE	IQUANT	11	I/E Range
POSFEEDENABLE	TOGGLE	F	Positive Feedback IR Comp
POSFEEDRESISTANCE	QUANT	0	Positive Feedback Resistance (ohm)
ACHSELECT	IQUANT	0	Ach Select
CABLEID	IQUANT	13	Cable ID
DCCALDATE	LABEL	7/31/2020	DC Calibration Date
ACCALDATE	LABEL	7/31/2020	AC Calibration Date
THERMOSELECT	IQUANT	1	Thermo Select
FRAMEWORKVERSION	QUANT	6.33	Framework Version
INSTRUMENTVERSION	LABEL	3.50	Instrument Version
COMPLIANCEVOLTAGE	IQUANT	0	Compliance Voltage
ZCURVE	TABLE
	Pt	Time	Freq	Zreal	Zimag	Zsig	Zmod	Zphz	Idc	Vdc	IERange
	#	s	Hz	ohm	ohm	V	ohm	°	A	V	#
	0	20	300046.9	1516.545	-1115.483	1	1882.607	-36.33606	2.333884E-005	-0.0005437	9
	1	42	238359.4	1749.047	-1102.206	1	2067.371	-32.21812	1.77128E-005	-0.0020659	9
	2	56	189328.1	1973.135	-1114.315	1	2266.045	-29.4553	1.940169E-005	-0.0008744	9
	3	69	150421.9	2198.278	-1004.05	1	2416.722	-24.54826	8.409299E-005	-0.0032488	9
	4	75	119484.4	2388.05	-843.4234	1	2532.616	-19.45246	-8.212865E-005	0.0299213	8
	5	83	94921.88	2534.638	-755.5968	1	2644.866	-16.59976	2.379341E-005	-0.0050097	8
	6	90	75421.88	2665.649	-747.2885	1	2768.416	-15.66032	2.876662E-005	-0.0008658	9
	7	96	59859.37	2788.152	-605.1813	1	2853.075	-12.24635	-2.192015E-005	0.0053434	8
	8	103	47578.12	2873.933	-539.4598	1	2924.125	-10.63116	1.704627E-005	-0.0002348	8
	9	109	37828.12	2990.417	-486.5381	1	3029.738	-9.240999	6.012402E-006	-0.0064171	8
	10	116	30046.88	3061.922	-420.1005	1	3090.607	-7.812294	-9.045748E-006	0.008887	8
	11	122	23859.38	3134.815	-382.6269	1	3158.08	-6.958943	1.944182E-005	-0.008534	8
	12	128	18984.38	3211.65	-341.2805	1	3229.732	-6.065675	-8.905741E-006	0.0088182	8
	13	133	15046.87	3261.672	-305.3173	1	3275.93	-5.347738	-2.307275E-006	-0.0040619	8
	14	138	11953.13	3352.593	-289.8069	1	3365.096	-4.940516	2.884434E-005	-0.0008069	9
	15	144	9515.62	3402.274	-257.7722	1	3412.025	-4.33272	-2.197748E-005	0.0052822	8
	16	149	7546.875	3483.159	-245.8424	1	3491.824	-4.037258	-8.941094E-006	-0.0001617	9
	17	154	5928.309	3514.763	-244.5952	1	3523.264	-3.980842	1.366656E-005	-0.0080749	8
	18	160	4733.456	3623.844	-237.1789	1	3631.597	-3.744642	-1.538558E-005	6.303957E-005	9
	19	165	3796.875	3659.945	-221.5033	1	3666.642	-3.46337	2.203129E-005	-0.0029933	8
	20	170	2987.132	3734.021	-197.7782	1	3739.255	-3.031927	2.499627E-005	-0.0069456	8
	21	176	2390.625	3807.411	-194.6126	1	3812.382	-2.926078	-1.267481E-006	0.0007315	9
	22	181	1884.191	3885.174	-178.5676	1	3889.276	-2.631536	3.294193E-006	-0.0195342	7
	23	184	1516.544	3941.043	-206.3082	1	3946.439	-2.99662	-2.217197E-005	0.0053104	8
	24	189	1193.986	4006.971	-203.3098	1	4012.126	-2.90464	2.506855E-005	-0.0069745	8
	25	195	946.5144	3984.749	-171.5329	1	3988.439	-2.464909	6.054996E-006	-0.0065332	8
	26	199	751.7689	4084.889	-227.1792	1	4091.201	-3.183199	-1.945217E-005	0.0032177	8
	27	202	597.4265	4129.54	-205.4973	1	4134.649	-2.848847	2.355261E-005	-0.0082516	8
	28	206	477.4305	4210.056	-224.3482	1	4216.029	-3.05033	-1.915061E-007	0.0006582	8
	29	209	376.6741	4265.726	-237.4462	1	4272.329	-3.186009	-5.471664E-008	0.000658	7
	30	212	298.2954	4309.261	-261.779	1	4317.205	-3.476332	-4.7982E-008	0.0006104	7
	31	214	237.7717	4355.278	-292.7232	1	4365.104	-3.845132	-4.184945E-008	0.0005964	7
	32	217	189.0121	4402.644	-331.9209	1	4415.138	-4.311445	-4.721754E-008	0.0005927	7
	33	219	150.2404	4453.802	-380.9483	1	4470.064	-4.888797	-5.172788E-008	0.00063	7
	34	221	119.1737	4509.732	-440.8038	1	4531.225	-5.582642	-4.340008E-008	0.0006691	7
	35	224	95.0169	4569.411	-511.9124	1	4597.996	-6.39221	-5.747902E-008	0.0006595	7
	36	226	75.60484	4636.5	-598.5131	1	4674.971	-7.35548	-5.515794E-008	0.0005899	7
	37	229	54.50582	4735.711	-752.5748	1	4795.136	-9.029644	-5.931472E-008	0.0006326	7
	38	231	45.95588	4805.65	-848.1011	1	4879.913	-10.0085	-3.051256E-008	0.000666	7
	39	234	37.20238	4893.122	-986.636	1	4991.602	-11.40011	-5.181551E-008	0.000624	7
	40	236	30.04808	4993.137	-1149.852	1	5123.824	-12.96835	-6.471276E-008	0.0006701	7
	41	238	23.91582	5105.691	-1357.679	1	5283.122	-14.89119	-8.916638E-008	0.0005829	7
	42	241	18.60119	5244.448	-1630.571	1	5492.085	-17.27119	-8.982198E-008	0.0005988	7
	43	243	15.02404	5392.254	-1900.235	1	5717.28	-19.4125	2.790117E-008	0.0006267	7
	44	245	12.01923	5543.643	-2246.753	1	5981.628	-22.06195	-5.611626E-008	0.0006652	7
	45	248	9.450605	5730.18	-2692.899	1	6331.403	-25.17119	-8.429046E-008	0.0006466	7
	46	250	7.512019	5944.818	-3200.722	1	6751.702	-28.29826	-8.281182E-009	0.0006529	7
	47	253	5.978954	6188.303	-3827.946	1	7276.555	-31.74001	-2.734524E-008	0.0006429	7
	48	256	4.734848	6474.016	-4591.292	1	7936.803	-35.34379	-2.727748E-008	0.0006649	7
	49	259	3.75601	6807.743	-5513.45	1	8760.337	-39.0033	-6.667697E-008	0.0006483	7
	50	263	3.004808	7184.938	-6588.126	1	9748.17	-42.51882	-5.432335E-008	0.0006461	7
	51	266	2.372217	7644.441	-7961.549	1	11037.38	-46.16407	-5.297874E-008	0.0006467	7
	52	270	1.878005	8202.277	-9641.57	1	12658.49	-49.61152	-5.814729E-008	0.0006246	7
	53	275	1.512097	8803.19	-11520.08	1	14498.57	-52.61437	-5.123409E-008	0.000532	7
	54	281	1.201923	9563.61	-13937.12	1	16902.83	-55.54219	-5.478225E-008	0.0006343	7
	55	287	0.956633	10451.67	-16851.07	1	19829.17	-58.19124	-5.530599E-008	-1.513782E-005	7
