EXPLAIN
TAG	EISPOT
TITLE	LABEL	Potentiostatic EIS	Test Identifier
DATE	LABEL	2/28/2021	Date
TIME	LABEL	21:50:27	Time
NOTES	NOTES	1	Notes...
	
PSTAT	PSTAT	REF3000-16137	Potentiostat
VDC	POTEN	0.00000E+000	T	DC Voltage (V)
FREQINIT	QUANT	3.00000E+005	Initial Freq. (Hz)
FREQFINAL	QUANT	1.00000E+000	Final Freq. (Hz)
PTSPERDEC	QUANT	1.00000E+001	Points/decade
VAC	QUANT	5.00000E+001	AC Voltage (mV rms)
AREA	QUANT	1.00000E+000	Sample Area (cm^2)
SPEED	SELECTOR	2	Optimize for:
ZGUESS	QUANT	1.00000E+003	Estimated Z (ohms)
EOC	QUANT	0	Open Circuit (V)
SEQUENCER	TOGGLE	TRUE	Run as Sequence
PSTATMODEL	IQUANT	5	Pstat Model
PSTATSECTION	LABEL	REF3000-16137	Pstat Section
PSTATSERIALNO	LABEL	16137	Pstat Serial Number
CTRLMODE	IQUANT	1	Control Mode
IESTAB	IQUANT	0	I/E Stability
CASPEED	IQUANT	1	Control Amp Speed
CONVENTION	IQUANT	1	Current Convention
ICHRANGE	IQUANT	2	Ich Range
ICHRANGEMODE	TOGGLE	F	Ich Auto Range
ICHOFFSETENABLE	TOGGLE	T	Ich Offset Enable
ICHOFFSET	QUANT	0	Ich Offset (V)
ICHFILTER	IQUANT	3	Ich Filter
VCHRANGE	IQUANT	2	Vch Range
VCHRANGEMODE	TOGGLE	F	Vch Auto Range
VCHOFFSETENABLE	TOGGLE	T	Vch Offset Enable
VCHOFFSET	QUANT	0	Vch Offset (V)
VCHFILTER	IQUANT	3	Vch Filter
ACHRANGE	IQUANT	2	Ach Range
ACHOFFSETENABLE	TOGGLE	F	Ach Offset Enable
ACHOFFSET	QUANT	0	Ach Offset (V)
ACHFILTER	IQUANT	3	Ach Filter
IERANGELOWERLIMIT	IQUANT	2	I/E Range Lower Limit
IERANGEMODE	TOGGLE	F	I/E AutoRange
IERANGE	IQUANT	11	I/E Range
POSFEEDENABLE	TOGGLE	F	Positive Feedback IR Comp
POSFEEDRESISTANCE	QUANT	0	Positive Feedback Resistance (ohm)
ACHSELECT	IQUANT	0	Ach Select
CABLEID	IQUANT	13	Cable ID
DCCALDATE	LABEL	7/31/2020	DC Calibration Date
ACCALDATE	LABEL	7/31/2020	AC Calibration Date
THERMOSELECT	IQUANT	1	Thermo Select
FRAMEWORKVERSION	QUANT	6.33	Framework Version
INSTRUMENTVERSION	LABEL	3.50	Instrument Version
COMPLIANCEVOLTAGE	IQUANT	0	Compliance Voltage
ZCURVE	TABLE
	Pt	Time	Freq	Zreal	Zimag	Zsig	Zmod	Zphz	Idc	Vdc	IERange
	#	s	Hz	ohm	ohm	V	ohm	°	A	V	#
	0	7	300046.9	34.13874	0.3632598	1	34.14067	0.6096438	-3.427045E-005	-0.0001243	11
	1	11	238359.4	34.39466	0.5011113	1	34.39831	0.834709	2.535883E-005	0.0004116	10
	2	14	189328.1	34.54886	0.2331942	1	34.54965	0.3867231	-4.220261E-006	0.0003621	10
	3	17	150421.9	34.69161	0.004882	1	34.69161	0.008063	-1.554613E-005	0.0006123	10
	4	19	119484.4	34.85894	-0.1784237	1	34.85939	-0.293263	1.33919E-006	0.0007279	10
	5	22	94921.88	34.99292	0.0046484	1	34.99292	0.007611	-1.115104E-005	0.0002153	9
	6	24	75421.88	35.13127	-0.5054514	1	35.1349	-0.8242866	-2.591493E-005	0.0006066	10
	7	27	59859.37	35.26918	-0.6733161	1	35.2756	-1.093688	2.503169E-005	0.000615	10
	8	29	47578.12	35.36768	-0.6828424	1	35.37428	-1.10607	-7.77386E-006	9.033645E-005	9
	9	32	37828.12	35.49735	-0.8974431	1	35.50869	-1.448242	1.612466E-005	-0.0004396	9
	10	34	30046.88	35.63293	-1.13944	1	35.65115	-1.831533	1.590089E-005	-0.0004307	9
	11	37	23859.38	35.78444	-1.424013	1	35.81277	-2.278837	-7.013454E-006	2.114637E-005	9
	12	39	18984.38	35.92939	-1.722235	1	35.97064	-2.744309	-1.030498E-005	0.0004922	9
	13	41	15046.87	36.09194	-2.097102	1	36.15282	-3.3254	-1.32756E-005	0.0004254	9
	14	44	11953.13	36.25853	-2.539659	1	36.34737	-4.006629	1.801388E-005	-0.0003518	9
	15	46	9515.62	36.45525	-3.066031	1	36.58395	-4.807489	1.681539E-005	-0.0004636	9
	16	48	7546.875	36.69561	-3.725369	1	36.88422	-5.796855	-9.941185E-006	0.0005467	9
	17	51	5928.309	36.95	-4.567654	1	37.23125	-7.046989	-2.507491E-006	0.0004142	9
	18	53	4733.456	37.23722	-5.510803	1	37.64279	-8.418202	2.816839E-006	-0.0002204	9
	19	55	3796.875	37.60181	-6.628321	1	38.18155	-9.9972	1.560682E-005	-0.0003867	9
	20	58	2987.132	38.05121	-8.099988	1	38.90378	-12.01722	3.495612E-006	-0.0002354	9
	21	60	2390.625	38.56851	-9.76566	1	39.78565	-14.20883	1.800358E-005	-0.0002989	9
	22	62	1884.191	39.21729	-11.90585	1	40.98469	-16.8876	-1.369009E-005	0.0004782	9
	23	65	1516.544	39.98512	-14.25319	1	42.44954	-19.61923	3.277201E-006	-0.0002366	9
	24	67	1193.986	40.95947	-17.37791	1	44.49348	-22.99009	-7.323591E-006	8.282062E-005	9
	25	69	946.5144	42.15237	-21.05762	1	47.11948	-26.54486	-1.12816E-005	0.000207	9
	26	72	751.7689	43.59829	-25.4091	1	50.4622	-30.23365	1.513715E-005	-0.0001319	9
	27	74	597.4265	45.30984	-30.59811	1	54.67381	-34.03148	9.735067E-006	6.848132E-005	9
	28	76	477.4305	47.39043	-36.63926	1	59.90232	-37.70891	1.447694E-006	8.046738E-005	9
	29	79	376.6741	50.0112	-44.28384	1	66.79954	-41.52419	1.51514E-006	7.452994E-005	9
	30	81	298.2954	53.11021	-53.31202	1	75.25202	-45.10865	1.508108E-006	7.86793E-005	9
	31	83	237.7717	56.6894	-63.8027	1	85.34912	-48.37856	1.494343E-006	7.44447E-005	9
	32	86	189.0121	60.96553	-76.50797	1	97.8277	-51.45034	1.511168E-006	8.059142E-005	9
	33	88	150.2404	65.99711	-91.74541	1	113.017	-54.27063	1.454598E-006	8.154797E-005	9
	34	91	119.1737	71.98007	-110.2776	1	131.69	-56.86682	1.486268E-006	8.076688E-005	9
	35	93	95.0169	78.85911	-132.0775	1	153.8285	-59.15997	1.501039E-006	7.873573E-005	9
	36	96	75.60484	87.03477	-158.5942	1	180.9065	-61.2425	1.490972E-006	8.051698E-005	9
	37	98	54.50582	101.3681	-206.4232	1	229.9697	-63.84575	1.525715E-006	7.809127E-005	9
	38	101	45.95588	110.402	-237.0653	1	261.5121	-65.02846	1.5505E-006	8.639973E-005	9
	39	103	37.20238	123.3423	-281.5963	1	307.4245	-66.34605	1.583747E-006	7.517135E-005	9
	40	105	30.04808	138.7462	-335.2178	1	362.7968	-67.5154	1.509427E-006	8.14247E-005	9
	41	108	23.91582	157.7484	-402.5711	1	432.3748	-68.60217	5.031323E-007	0.0006537	8
	42	110	18.60119	183.7275	-495.0018	1	527.9987	-69.63682	4.939532E-007	0.0006642	8
	43	112	15.02404	210.296	-590.2654	1	626.608	-70.39036	6.414419E-007	0.0006686	8
	44	115	12.01923	243.6894	-709.6121	1	750.2892	-71.04691	4.579543E-007	0.0006609	8
	45	117	9.450605	286.8317	-866.0618	1	912.3242	-71.67561	4.599925E-007	0.000671	8
	46	120	7.512019	336.9101	-1047.235	1	1100.095	-72.16628	5.00778E-007	0.000647	8
	47	122	5.978954	396.8419	-1265.888	1	1326.633	-72.59437	5.615898E-007	0.0006602	8
	48	125	4.734848	471.1608	-1536.793	1	1607.397	-72.95514	5.21499E-007	0.0006295	8
	49	129	3.75601	561.2168	-1863.44	1	1946.117	-73.23914	5.887507E-007	0.0006782	8
	50	132	3.004808	666.2895	-2243.901	1	2340.734	-73.46208	5.449077E-007	0.000685	8
	51	136	2.372217	801.743	-2728.935	1	2844.271	-73.62756	5.599614E-007	0.0006753	8
	52	140	1.878005	971.277	-3319.8	1	3458.967	-73.69206	5.839352E-007	0.0006406	8
	53	145	1.512097	1155.166	-3977.931	1	4142.264	-73.80703	5.743972E-007	0.0007567	8
	54	150	1.201923	1400.531	-4828.415	1	5027.433	-73.82465	1.304214E-007	0.0006195	7
	55	156	0.956633	1687.795	-5836.209	1	6075.359	-73.87046	9.057596E-008	-1.052378E-005	7
