EXPLAIN
TAG	EISPOT
TITLE	LABEL	Potentiostatic EIS	Test Identifier
DATE	LABEL	2/28/2021	Date
TIME	LABEL	22:12:25	Time
NOTES	NOTES	1	Notes...
	
PSTAT	PSTAT	REF3000-16137	Potentiostat
VDC	POTEN	0.00000E+000	T	DC Voltage (V)
FREQINIT	QUANT	3.00000E+005	Initial Freq. (Hz)
FREQFINAL	QUANT	1.00000E+000	Final Freq. (Hz)
PTSPERDEC	QUANT	1.00000E+001	Points/decade
VAC	QUANT	5.00000E+001	AC Voltage (mV rms)
AREA	QUANT	1.00000E+000	Sample Area (cm^2)
SPEED	SELECTOR	2	Optimize for:
ZGUESS	QUANT	1.00000E+003	Estimated Z (ohms)
EOC	QUANT	0	Open Circuit (V)
SEQUENCER	TOGGLE	TRUE	Run as Sequence
PSTATMODEL	IQUANT	5	Pstat Model
PSTATSECTION	LABEL	REF3000-16137	Pstat Section
PSTATSERIALNO	LABEL	16137	Pstat Serial Number
CTRLMODE	IQUANT	1	Control Mode
IESTAB	IQUANT	0	I/E Stability
CASPEED	IQUANT	1	Control Amp Speed
CONVENTION	IQUANT	1	Current Convention
ICHRANGE	IQUANT	2	Ich Range
ICHRANGEMODE	TOGGLE	F	Ich Auto Range
ICHOFFSETENABLE	TOGGLE	T	Ich Offset Enable
ICHOFFSET	QUANT	0	Ich Offset (V)
ICHFILTER	IQUANT	3	Ich Filter
VCHRANGE	IQUANT	2	Vch Range
VCHRANGEMODE	TOGGLE	F	Vch Auto Range
VCHOFFSETENABLE	TOGGLE	T	Vch Offset Enable
VCHOFFSET	QUANT	0	Vch Offset (V)
VCHFILTER	IQUANT	3	Vch Filter
ACHRANGE	IQUANT	2	Ach Range
ACHOFFSETENABLE	TOGGLE	F	Ach Offset Enable
ACHOFFSET	QUANT	0	Ach Offset (V)
ACHFILTER	IQUANT	3	Ach Filter
IERANGELOWERLIMIT	IQUANT	2	I/E Range Lower Limit
IERANGEMODE	TOGGLE	F	I/E AutoRange
IERANGE	IQUANT	11	I/E Range
POSFEEDENABLE	TOGGLE	F	Positive Feedback IR Comp
POSFEEDRESISTANCE	QUANT	0	Positive Feedback Resistance (ohm)
ACHSELECT	IQUANT	0	Ach Select
CABLEID	IQUANT	13	Cable ID
DCCALDATE	LABEL	7/31/2020	DC Calibration Date
ACCALDATE	LABEL	7/31/2020	AC Calibration Date
THERMOSELECT	IQUANT	1	Thermo Select
FRAMEWORKVERSION	QUANT	6.33	Framework Version
INSTRUMENTVERSION	LABEL	3.50	Instrument Version
COMPLIANCEVOLTAGE	IQUANT	0	Compliance Voltage
ZCURVE	TABLE
	Pt	Time	Freq	Zreal	Zimag	Zsig	Zmod	Zphz	Idc	Vdc	IERange
	#	s	Hz	ohm	ohm	V	ohm	°	A	V	#
	0	7	300046.9	118.2966	-3.684725	1	118.354	-1.784083	7.474453E-005	-0.0025694	9
	1	10	238359.4	119.5244	-3.671276	1	119.5808	-1.759326	-5.463274E-005	0.000526	9
	2	13	189328.1	120.9362	-3.634977	1	120.9909	-1.721619	-1.13682E-005	0.0008019	9
	3	16	150421.9	121.7022	-3.784314	1	121.761	-1.781032	2.70913E-005	0.0004356	9
	4	18	119484.4	122.982	-3.565535	1	123.0336	-1.660674	1.293804E-005	-0.0007351	9
	5	21	94921.88	123.9671	-3.191726	1	124.0082	-1.474843	-2.489135E-006	-0.0002921	9
	6	23	75421.88	124.9865	-3.237083	1	125.0284	-1.483598	1.120307E-005	0.0002281	9
	7	26	59859.37	125.9467	-3.298656	1	125.9899	-1.500284	1.360636E-005	-0.0006828	9
	8	28	47578.12	126.9901	-3.347546	1	127.0342	-1.510007	-1.691183E-005	0.0003274	9
	9	31	37828.12	127.9766	-3.451222	1	128.0232	-1.544755	2.288322E-005	-0.0002244	9
	10	33	30046.88	128.9289	-3.558141	1	128.978	-1.580831	1.938198E-005	-0.0001244	9
	11	36	23859.38	129.8531	-3.701929	1	129.9059	-1.632979	1.327251E-005	-0.0006612	9
	12	38	18984.38	130.7759	-3.96139	1	130.8359	-1.73504	2.586758E-005	-0.0004281	9
	13	40	15046.87	131.6397	-4.466816	1	131.7155	-1.943423	-1.706791E-005	0.0003612	9
	14	43	11953.13	132.7989	-4.818027	1	132.8863	-2.077816	-2.841487E-006	-0.0002566	9
	15	45	9515.62	133.6034	-5.256314	1	133.7068	-2.253006	1.370256E-005	-0.0006645	9
	16	47	7546.875	134.573	-6.028868	1	134.708	-2.565134	6.922562E-006	-0.0005032	9
	17	49	5928.309	135.6505	-7.047818	1	135.8335	-2.974168	-2.053778E-005	0.0006502	9
	18	52	4733.456	136.6138	-8.239901	1	136.8621	-3.451629	2.473721E-005	-0.0004274	9
	19	54	3796.875	137.7619	-9.55327	1	138.0927	-3.966896	2.274815E-005	-0.0002544	9
	20	56	2987.132	139.0376	-11.30628	1	139.4966	-4.648958	-1.418697E-005	0.0009199	9
	21	59	2390.625	140.3412	-13.3892	1	140.9784	-5.449789	-1.368373E-005	0.0001819	9
	22	61	1884.191	141.5825	-15.9276	1	142.4755	-6.418615	-1.466568E-005	0.0001865	9
	23	63	1516.544	143.3648	-19.12302	1	144.6346	-7.597674	2.362652E-005	-0.0002669	9
	24	66	1193.986	145.2178	-23.04209	1	147.0345	-9.016104	-9.420693E-006	-2.335821E-005	9
	25	68	946.5144	147.375	-27.8422	1	149.9819	-10.69828	1.973386E-005	-0.0006868	9
	26	70	751.7689	149.7215	-33.38166	1	153.3977	-12.56899	6.095452E-006	-0.0004963	9
	27	73	597.4265	152.4776	-40.24021	1	157.6981	-14.7838	2.376752E-005	-0.0007036	9
	28	75	477.4305	155.6026	-48.17643	1	162.8899	-17.20316	1.347009E-006	7.790655E-005	9
	29	77	376.6741	159.3969	-58.29931	1	169.7239	-20.08996	1.345186E-006	8.201271E-005	9
	30	80	298.2954	163.7601	-70.3394	1	178.2273	-23.24484	1.328868E-006	8.334078E-005	9
	31	82	237.7717	168.7651	-84.44968	1	188.7152	-26.58328	1.300385E-006	8.039867E-005	9
	32	84	189.0121	174.6749	-101.6762	1	202.1123	-30.20319	1.451406E-006	8.776905E-005	9
	33	87	150.2404	181.5991	-122.374	1	218.9832	-33.97481	1.369381E-006	8.785666E-005	9
	34	89	119.1737	189.8273	-147.6429	1	240.4846	-37.87488	1.438614E-006	8.799348E-005	9
	35	91	95.0169	199.3612	-177.4695	1	266.9088	-41.67517	1.380305E-006	8.441105E-005	9
	36	94	75.60484	210.6877	-213.7467	1	300.1282	-45.41294	1.39087E-006	7.961828E-005	9
	37	97	54.50582	230.2828	-279.0798	1	361.8228	-50.47224	1.324081E-006	8.187054E-005	9
	38	99	45.95588	241.8999	-319.6482	1	400.8622	-52.88268	2.437226E-007	0.0006588	8
	39	101	37.20238	259.6239	-380.1616	1	460.3557	-55.66964	2.150698E-007	0.0006556	8
	40	104	30.04808	280.738	-453.2647	1	533.163	-58.22722	2.011972E-007	0.0006792	8
	41	106	23.91582	307.4416	-547.1276	1	627.5898	-60.66752	1.734245E-007	0.000653	8
	42	109	18.60119	342.8586	-673.5913	1	755.8289	-63.02386	1.870646E-007	0.0006649	8
	43	111	15.02404	378.9615	-804.0052	1	888.8398	-64.76352	2.773311E-007	0.000658	8
	44	113	12.01923	424.4121	-967.745	1	1056.719	-66.31976	1.289717E-007	0.0006638	8
	45	116	9.450605	482.8948	-1182.196	1	1277.018	-67.78133	1.749872E-007	0.0006668	8
	46	118	7.512019	550.2024	-1430.647	1	1532.799	-68.96411	1.777765E-007	0.0006483	8
	47	121	5.978954	631.0892	-1731.002	1	1842.456	-69.96915	2.169685E-007	0.0006647	8
	48	124	4.734848	730.2869	-2105.476	1	2228.53	-70.87083	1.783009E-007	0.0006496	8
	49	127	3.75601	850.3951	-2555.942	1	2693.699	-71.59705	2.26574E-007	0.00067	8
	50	130	3.004808	990.586	-3081.277	1	3236.592	-72.17815	2.187358E-007	0.0006923	8
	51	134	2.372217	1169.308	-3759.744	1	3937.38	-72.72392	2.222294E-007	0.0007276	8
	52	138	1.878005	1389.425	-4583.279	1	4789.253	-73.13528	1.56158E-008	0.0006079	7
	53	143	1.512097	1635.478	-5492.788	1	5731.1	-73.4191	2.659965E-008	0.0006991	7
	54	148	1.201923	1941.947	-6684.429	1	6960.801	-73.80047	1.869387E-008	0.0005908	7
	55	155	0.956633	2316.598	-8111.204	1	8435.535	-74.06041	5.12194E-009	-1.281578E-005	7
