EXPLAIN
TAG	EISPOT
TITLE	LABEL	Potentiostatic EIS	Test Identifier
DATE	LABEL	2/28/2021	Date
TIME	LABEL	22:15:09	Time
NOTES	NOTES	1	Notes...
	
PSTAT	PSTAT	REF3000-16137	Potentiostat
VDC	POTEN	0.00000E+000	T	DC Voltage (V)
FREQINIT	QUANT	3.00000E+005	Initial Freq. (Hz)
FREQFINAL	QUANT	1.00000E+000	Final Freq. (Hz)
PTSPERDEC	QUANT	1.00000E+001	Points/decade
VAC	QUANT	5.00000E+001	AC Voltage (mV rms)
AREA	QUANT	1.00000E+000	Sample Area (cm^2)
SPEED	SELECTOR	2	Optimize for:
ZGUESS	QUANT	1.00000E+003	Estimated Z (ohms)
EOC	QUANT	0	Open Circuit (V)
SEQUENCER	TOGGLE	TRUE	Run as Sequence
PSTATMODEL	IQUANT	5	Pstat Model
PSTATSECTION	LABEL	REF3000-16137	Pstat Section
PSTATSERIALNO	LABEL	16137	Pstat Serial Number
CTRLMODE	IQUANT	1	Control Mode
IESTAB	IQUANT	0	I/E Stability
CASPEED	IQUANT	1	Control Amp Speed
CONVENTION	IQUANT	1	Current Convention
ICHRANGE	IQUANT	2	Ich Range
ICHRANGEMODE	TOGGLE	F	Ich Auto Range
ICHOFFSETENABLE	TOGGLE	T	Ich Offset Enable
ICHOFFSET	QUANT	0	Ich Offset (V)
ICHFILTER	IQUANT	3	Ich Filter
VCHRANGE	IQUANT	2	Vch Range
VCHRANGEMODE	TOGGLE	F	Vch Auto Range
VCHOFFSETENABLE	TOGGLE	T	Vch Offset Enable
VCHOFFSET	QUANT	0	Vch Offset (V)
VCHFILTER	IQUANT	3	Vch Filter
ACHRANGE	IQUANT	2	Ach Range
ACHOFFSETENABLE	TOGGLE	F	Ach Offset Enable
ACHOFFSET	QUANT	0	Ach Offset (V)
ACHFILTER	IQUANT	3	Ach Filter
IERANGELOWERLIMIT	IQUANT	2	I/E Range Lower Limit
IERANGEMODE	TOGGLE	F	I/E AutoRange
IERANGE	IQUANT	11	I/E Range
POSFEEDENABLE	TOGGLE	F	Positive Feedback IR Comp
POSFEEDRESISTANCE	QUANT	0	Positive Feedback Resistance (ohm)
ACHSELECT	IQUANT	0	Ach Select
CABLEID	IQUANT	13	Cable ID
DCCALDATE	LABEL	7/31/2020	DC Calibration Date
ACCALDATE	LABEL	7/31/2020	AC Calibration Date
THERMOSELECT	IQUANT	1	Thermo Select
FRAMEWORKVERSION	QUANT	6.33	Framework Version
INSTRUMENTVERSION	LABEL	3.50	Instrument Version
COMPLIANCEVOLTAGE	IQUANT	0	Compliance Voltage
ZCURVE	TABLE
	Pt	Time	Freq	Zreal	Zimag	Zsig	Zmod	Zphz	Idc	Vdc	IERange
	#	s	Hz	ohm	ohm	V	ohm	°	A	V	#
	0	7	300046.9	157.883	-7.941378	1	158.0826	-2.879502	1.169294E-005	0.0008657	9
	1	10	238359.4	159.7366	-7.573726	1	159.916	-2.71458	7.005026E-006	0.0008741	9
	2	13	189328.1	161.3298	-6.773306	1	161.472	-2.404106	-5.458713E-005	0.0006689	9
	3	16	150421.9	162.4694	-6.366885	1	162.5941	-2.24417	-1.419698E-005	0.0010921	9
	4	18	119484.4	164.1757	-6.220871	1	164.2935	-2.169987	1.753556E-005	-0.0011687	9
	5	21	94921.88	165.5864	-5.551244	1	165.6795	-1.920108	-2.153661E-005	0.0006124	9
	6	23	75421.88	166.8873	-5.280162	1	166.9708	-1.812182	2.571369E-005	-0.0006452	9
	7	26	59859.37	167.9984	-5.221559	1	168.0795	-1.780238	9.711553E-006	0.0002859	9
	8	28	47578.12	169.3801	-4.947938	1	169.4524	-1.673251	-1.985686E-005	0.0008814	9
	9	31	37828.12	170.5645	-5.039601	1	170.639	-1.692403	7.346902E-006	-0.0005882	9
	10	33	30046.88	171.814	-4.954228	1	171.8854	-1.651657	-9.870643E-006	-3.934123E-005	9
	11	36	23859.38	173.0023	-5.104503	1	173.0776	-1.690044	-2.246747E-005	0.0007983	9
	12	38	18984.38	174.2157	-5.354195	1	174.298	-1.760325	2.579119E-005	-0.000636	9
	13	40	15046.87	175.3044	-5.605911	1	175.3941	-1.831589	1.107254E-005	0.0003019	9
	14	43	11953.13	176.7737	-6.202162	1	176.8824	-2.009417	-1.757982E-005	0.0003172	9
	15	45	9515.62	177.748	-6.562782	1	177.8691	-2.114505	6.818977E-006	-0.0005665	9
	16	47	7546.875	179.1332	-7.370617	1	179.2848	-2.356163	1.438899E-005	-0.0007194	9
	17	50	5928.309	180.288	-8.229306	1	180.4758	-2.613471	-1.838811E-005	0.0003613	9
	18	52	4733.456	181.7081	-9.66004	1	181.9647	-3.043117	2.559729E-005	-0.0004343	9
	19	54	3796.875	183.04	-10.9606	1	183.3679	-3.42683	-2.220257E-005	0.000867	9
	20	56	2987.132	184.4806	-12.8446	1	184.9272	-3.982835	-1.916766E-005	0.0009211	9
	21	59	2390.625	185.9107	-15.03475	1	186.5177	-4.623493	-2.053896E-005	0.0004643	9
	22	61	1884.191	187.8159	-17.82232	1	188.6597	-5.420706	-2.024421E-005	0.0009473	9
	23	63	1516.544	189.5868	-21.04222	1	190.751	-6.33333	7.581493E-006	-0.0005755	9
	24	66	1193.986	191.7699	-25.29692	1	193.4312	-7.514665	1.992746E-006	0.0005602	9
	25	68	946.5144	194.182	-30.39594	1	196.5466	-8.896501	1.193848E-005	0.0002939	9
	26	70	751.7689	196.8893	-35.9578	1	200.1459	-10.34984	-1.534569E-005	0.0001571	9
	27	73	597.4265	200.0992	-43.24512	1	204.7189	-12.19511	2.618272E-005	-0.0005984	9
	28	75	477.4305	203.6273	-51.77003	1	210.1053	-14.26461	1.300832E-006	8.640489E-005	9
	29	77	376.6741	207.8983	-62.45687	1	217.0773	-16.72133	1.330691E-006	7.934764E-005	9
	30	80	298.2954	212.7864	-75.15775	1	225.6695	-19.4536	1.355429E-006	8.538933E-005	9
	31	82	237.7717	218.3662	-90.0093	1	236.1895	-22.40117	1.332527E-006	8.387507E-005	9
	32	85	189.0121	224.918	-108.1076	1	249.5503	-25.67143	1.318603E-006	8.271003E-005	9
	33	87	150.2404	232.5057	-129.8978	1	266.3312	-29.1915	1.340783E-006	8.186093E-005	9
	34	89	119.1737	241.4125	-156.4441	1	287.6713	-32.94472	1.350738E-006	7.905788E-005	9
	35	92	95.0169	251.6422	-187.7828	1	313.9844	-36.73139	1.3307E-006	7.899261E-005	9
	36	94	75.60484	263.7639	-225.9361	1	347.3018	-40.58286	1.364177E-006	7.521213E-005	9
	37	97	54.50582	284.5442	-294.7328	1	409.674	-46.00764	1.264689E-006	7.331591E-005	9
	38	99	45.95588	296.7119	-337.4814	1	449.368	-48.67823	1.277171E-007	0.00066	8
	39	102	37.20238	315.4878	-401.2929	1	510.4591	-51.82633	9.924899E-008	0.0006626	8
	40	104	30.04808	337.7916	-478.405	1	585.6403	-54.7749	1.271149E-007	0.0006612	8
	41	106	23.91582	365.9127	-577.5257	1	683.6871	-57.64219	1.495987E-007	0.0006521	8
	42	109	18.60119	403.1624	-711.0463	1	817.3902	-60.44682	7.398801E-008	0.0006592	8
	43	111	15.02404	441.5852	-848.8585	1	956.848	-62.51607	1.691632E-007	0.0006758	8
	44	113	12.01923	489.326	-1022.109	1	1133.202	-64.41764	2.114915E-007	0.0006519	8
	45	116	9.450605	550.9029	-1248.406	1	1364.555	-66.18885	1.446867E-007	0.0006431	8
	46	118	7.512019	622.8547	-1512.294	1	1635.537	-67.61515	1.595684E-007	0.0006568	8
	47	121	5.978954	707.6944	-1829.038	1	1961.176	-68.84747	1.62026E-007	0.000655	8
	48	124	4.734848	814.1631	-2223.019	1	2367.419	-69.88514	1.585759E-007	0.0006816	8
	49	127	3.75601	940.8696	-2699.761	1	2859.012	-70.78651	1.318587E-007	0.000646	8
	50	131	3.004808	1087.033	-3254.555	1	3431.293	-71.53049	1.473355E-007	0.0006572	8
	51	134	2.372217	1279.025	-3964.744	1	4165.946	-72.12032	1.53867E-007	0.0006919	8
	52	138	1.878005	1511.583	-4846.749	1	5076.993	-72.67857	-8.14861E-009	0.0006338	7
	53	143	1.512097	1756.978	-5815.337	1	6074.958	-73.18894	1.18365E-008	0.0005543	7
	54	149	1.201923	2093.936	-7071.534	1	7375.037	-73.50557	-2.451648E-009	0.0006289	7
	55	155	0.956633	2487.699	-8574.209	1	8927.806	-73.82058	-1.60051E-009	-1.687872E-005	7
