EXPLAIN
TAG	EISPOT
TITLE	LABEL	Potentiostatic EIS	Test Identifier
DATE	LABEL	2/28/2021	Date
TIME	LABEL	21:30:56	Time
NOTES	NOTES	1	Notes...
	
PSTAT	PSTAT	REF3000-16137	Potentiostat
VDC	POTEN	0.00000E+000	T	DC Voltage (V)
FREQINIT	QUANT	3.00000E+005	Initial Freq. (Hz)
FREQFINAL	QUANT	1.00000E+000	Final Freq. (Hz)
PTSPERDEC	QUANT	1.00000E+001	Points/decade
VAC	QUANT	5.00000E+001	AC Voltage (mV rms)
AREA	QUANT	1.00000E+000	Sample Area (cm^2)
SPEED	SELECTOR	2	Optimize for:
ZGUESS	QUANT	1.00000E+003	Estimated Z (ohms)
EOC	QUANT	0	Open Circuit (V)
SEQUENCER	TOGGLE	TRUE	Run as Sequence
PSTATMODEL	IQUANT	5	Pstat Model
PSTATSECTION	LABEL	REF3000-16137	Pstat Section
PSTATSERIALNO	LABEL	16137	Pstat Serial Number
CTRLMODE	IQUANT	1	Control Mode
IESTAB	IQUANT	0	I/E Stability
CASPEED	IQUANT	1	Control Amp Speed
CONVENTION	IQUANT	1	Current Convention
ICHRANGE	IQUANT	2	Ich Range
ICHRANGEMODE	TOGGLE	F	Ich Auto Range
ICHOFFSETENABLE	TOGGLE	T	Ich Offset Enable
ICHOFFSET	QUANT	0	Ich Offset (V)
ICHFILTER	IQUANT	3	Ich Filter
VCHRANGE	IQUANT	2	Vch Range
VCHRANGEMODE	TOGGLE	F	Vch Auto Range
VCHOFFSETENABLE	TOGGLE	T	Vch Offset Enable
VCHOFFSET	QUANT	0	Vch Offset (V)
VCHFILTER	IQUANT	3	Vch Filter
ACHRANGE	IQUANT	2	Ach Range
ACHOFFSETENABLE	TOGGLE	F	Ach Offset Enable
ACHOFFSET	QUANT	0	Ach Offset (V)
ACHFILTER	IQUANT	2	Ach Filter
IERANGELOWERLIMIT	IQUANT	2	I/E Range Lower Limit
IERANGEMODE	TOGGLE	F	I/E AutoRange
IERANGE	IQUANT	11	I/E Range
POSFEEDENABLE	TOGGLE	F	Positive Feedback IR Comp
POSFEEDRESISTANCE	QUANT	0	Positive Feedback Resistance (ohm)
ACHSELECT	IQUANT	0	Ach Select
CABLEID	IQUANT	13	Cable ID
DCCALDATE	LABEL	7/31/2020	DC Calibration Date
ACCALDATE	LABEL	7/31/2020	AC Calibration Date
THERMOSELECT	IQUANT	1	Thermo Select
FRAMEWORKVERSION	QUANT	6.33	Framework Version
INSTRUMENTVERSION	LABEL	3.50	Instrument Version
COMPLIANCEVOLTAGE	IQUANT	0	Compliance Voltage
ZCURVE	TABLE
	Pt	Time	Freq	Zreal	Zimag	Zsig	Zmod	Zphz	Idc	Vdc	IERange
	#	s	Hz	ohm	ohm	V	ohm	°	A	V	#
	0	8	300046.9	20.41966	1.534337	1	20.47722	4.297141	-2.956388E-005	0.000248	10
	1	11	238359.4	20.42519	1.108885	1	20.45527	3.107542	2.259477E-005	0.000329	10
	2	15	189328.1	20.46635	0.7740405	1	20.48098	2.165903	-2.522994E-005	0.0004723	10
	3	17	150421.9	20.4959	0.5120895	1	20.50229	1.431236	2.24246E-005	0.0005538	10
	4	20	119484.4	20.54759	0.2509113	1	20.54912	0.6996171	-0.0000995	0.0006443	10
	5	22	94921.88	20.59287	0.0484891	1	20.59293	0.1349116	-1.83799E-006	0.0006292	10
	6	25	75421.88	20.6362	-0.1580366	1	20.6368	-0.4387753	-1.181766E-005	0.000725	10
	7	27	59859.37	20.68704	-0.3507645	1	20.69002	-0.9714	-1.588959E-005	0.0006839	10
	8	30	47578.12	20.7358	-0.5438076	1	20.74293	-1.502268	-1.931742E-005	0.0007423	10
	9	32	37828.12	20.78552	-0.753508	1	20.79918	-2.076153	1.436969E-005	0.0006525	10
	10	35	30046.88	20.84374	-0.980428	1	20.86678	-2.693039	-1.912446E-005	0.000739	10
	11	38	23859.38	20.90614	-1.245837	1	20.94323	-3.410332	1.96216E-005	0.0007162	10
	12	40	18984.38	20.97847	-1.555358	1	21.03605	-4.240191	-3.14547E-005	0.0006818	10
	13	42	15046.87	21.06275	-1.926055	1	21.15063	-5.224803	1.939194E-005	0.0006246	10
	14	44	11953.13	21.16247	-2.372821	1	21.29508	-6.397513	3.419812E-006	0.0006639	10
	15	47	9515.62	21.28022	-2.902945	1	21.47731	-7.768064	7.635876E-006	0.0007272	10
	16	49	7546.875	21.42689	-3.563466	1	21.72118	-9.442335	1.506263E-005	0.0006559	10
	17	51	5928.309	21.61572	-4.398703	1	22.05874	-11.50238	-2.69113E-005	0.0007119	10
	18	54	4733.456	21.83149	-5.353364	1	22.47827	-13.77781	-1.42342E-005	0.0007124	10
	19	56	3796.875	22.09162	-6.488783	1	23.02485	-16.36865	1.456581E-005	0.0006394	10
	20	58	2987.132	22.44587	-7.985342	1	23.824	-19.58352	2.372209E-005	0.0006585	10
	21	61	2390.625	22.86134	-9.67866	1	24.82573	-22.94603	1.39915E-005	0.0006416	10
	22	63	1884.191	23.4084	-11.86915	1	26.24557	-26.88713	2.398451E-005	0.0006566	10
	23	65	1516.544	24.03587	-14.27286	1	27.95421	-30.70248	1.909405E-005	0.0006405	10
	24	68	1193.986	24.88035	-17.48841	1	30.41178	-35.10341	-2.80006E-005	0.000705	10
	25	70	946.5144	25.91661	-21.22148	1	33.4966	-39.31189	-2.901968E-006	0.0006544	10
	26	72	751.7689	27.12439	-25.7707	1	37.41473	-43.53401	2.360262E-005	0.0006738	10
	27	75	597.4265	28.58922	-31.15132	1	42.28177	-47.45574	1.337302E-005	-0.000129	9
	28	77	477.4305	30.33289	-37.4896	1	48.224	-51.02362	1.405598E-006	8.592725E-005	9
	29	79	376.6741	32.52164	-45.58966	1	56.00066	-54.49762	1.377649E-006	7.897414E-005	9
	30	82	298.2954	35.07743	-55.27507	1	65.46571	-57.60088	1.386155E-006	8.643961E-005	9
	31	84	237.7717	38.00452	-66.68217	1	76.75191	-60.31966	1.384198E-006	8.03709E-005	9
	32	86	189.0121	41.49129	-80.69064	1	90.73317	-62.78768	1.29351E-006	8.243653E-005	9
	33	89	150.2404	45.61137	-97.7372	1	107.8562	-64.98279	1.310141E-006	8.448428E-005	9
	34	91	119.1737	50.55443	-118.7232	1	129.0386	-66.93484	1.314308E-006	9.040529E-005	9
	35	94	95.0169	56.31145	-143.7337	1	154.3708	-68.60593	1.247712E-006	8.875242E-005	9
	36	96	75.60484	63.27421	-174.4708	1	185.5901	-70.06614	1.358328E-006	8.164991E-005	9
	37	99	54.50582	75.78854	-230.6066	1	242.7412	-71.80696	1.28638E-006	7.803227E-005	9
	38	101	45.95588	83.83636	-266.843	1	279.7029	-72.5584	1.433499E-006	8.999353E-005	9
	39	104	37.20238	95.4898	-319.7106	1	333.6662	-73.37038	1.39551E-006	9.130377E-005	9
	40	106	30.04808	109.6297	-383.9649	1	399.309	-74.06489	1.423807E-006	7.96343E-005	9
	41	108	23.91582	127.3608	-465.0527	1	482.1771	-74.68433	5.787359E-007	0.0006661	8
	42	111	18.60119	152.0629	-577.3983	1	597.0862	-75.24567	5.469964E-007	0.0006732	8
	43	113	15.02404	177.6712	-693.6119	1	716.006	-75.6324	5.790511E-007	0.0006594	8
	44	115	12.01923	210.053	-840.5242	1	866.3736	-75.96877	5.412944E-007	0.0006641	8
	45	118	9.450605	252.7362	-1033.636	1	1064.086	-76.2601	5.947583E-007	0.000663	8
	46	120	7.512019	302.7684	-1259.097	1	1294.988	-76.4791	5.67407E-007	0.0006516	8
	47	123	5.978954	364.341	-1530.805	1	1573.566	-76.61234	5.87355E-007	0.0006653	8
	48	126	4.734848	440.6774	-1870.205	1	1921.422	-76.74122	5.550399E-007	0.0006473	8
	49	129	3.75601	536.2424	-2278.653	1	2340.901	-76.75737	6.316944E-007	0.0006745	8
	50	133	3.004808	646.9559	-2754.136	1	2829.102	-76.78069	5.8961E-007	0.0006716	8
	51	136	2.372217	794.197	-3364.444	1	3456.91	-76.71812	5.969853E-007	0.0006588	8
	52	141	1.878005	975.677	-4108.837	1	4223.09	-76.64205	6.210683E-007	0.000656	8
	53	145	1.512097	1173.839	-4936.624	1	5074.264	-76.6245	6.422255E-008	0.0007118	7
	54	151	1.201923	1444.659	-5992.496	1	6164.174	-76.44588	7.961319E-008	0.0006589	7
	55	157	0.956633	1765.076	-7246.556	1	7458.422	-76.31078	5.011125E-008	-4.378362E-007	7
