EXPLAIN
TAG	EISPOT
TITLE	LABEL	Potentiostatic EIS	Test Identifier
DATE	LABEL	2/28/2021	Date
TIME	LABEL	21:36:28	Time
NOTES	NOTES	1	Notes...
	
PSTAT	PSTAT	REF3000-16137	Potentiostat
VDC	POTEN	0.00000E+000	T	DC Voltage (V)
FREQINIT	QUANT	3.00000E+005	Initial Freq. (Hz)
FREQFINAL	QUANT	1.00000E+000	Final Freq. (Hz)
PTSPERDEC	QUANT	1.00000E+001	Points/decade
VAC	QUANT	5.00000E+001	AC Voltage (mV rms)
AREA	QUANT	1.00000E+000	Sample Area (cm^2)
SPEED	SELECTOR	2	Optimize for:
ZGUESS	QUANT	1.00000E+003	Estimated Z (ohms)
EOC	QUANT	0	Open Circuit (V)
SEQUENCER	TOGGLE	TRUE	Run as Sequence
PSTATMODEL	IQUANT	5	Pstat Model
PSTATSECTION	LABEL	REF3000-16137	Pstat Section
PSTATSERIALNO	LABEL	16137	Pstat Serial Number
CTRLMODE	IQUANT	1	Control Mode
IESTAB	IQUANT	0	I/E Stability
CASPEED	IQUANT	1	Control Amp Speed
CONVENTION	IQUANT	1	Current Convention
ICHRANGE	IQUANT	2	Ich Range
ICHRANGEMODE	TOGGLE	F	Ich Auto Range
ICHOFFSETENABLE	TOGGLE	T	Ich Offset Enable
ICHOFFSET	QUANT	0	Ich Offset (V)
ICHFILTER	IQUANT	3	Ich Filter
VCHRANGE	IQUANT	2	Vch Range
VCHRANGEMODE	TOGGLE	F	Vch Auto Range
VCHOFFSETENABLE	TOGGLE	T	Vch Offset Enable
VCHOFFSET	QUANT	0	Vch Offset (V)
VCHFILTER	IQUANT	3	Vch Filter
ACHRANGE	IQUANT	2	Ach Range
ACHOFFSETENABLE	TOGGLE	F	Ach Offset Enable
ACHOFFSET	QUANT	0	Ach Offset (V)
ACHFILTER	IQUANT	3	Ach Filter
IERANGELOWERLIMIT	IQUANT	2	I/E Range Lower Limit
IERANGEMODE	TOGGLE	F	I/E AutoRange
IERANGE	IQUANT	11	I/E Range
POSFEEDENABLE	TOGGLE	F	Positive Feedback IR Comp
POSFEEDRESISTANCE	QUANT	0	Positive Feedback Resistance (ohm)
ACHSELECT	IQUANT	0	Ach Select
CABLEID	IQUANT	13	Cable ID
DCCALDATE	LABEL	7/31/2020	DC Calibration Date
ACCALDATE	LABEL	7/31/2020	AC Calibration Date
THERMOSELECT	IQUANT	1	Thermo Select
FRAMEWORKVERSION	QUANT	6.33	Framework Version
INSTRUMENTVERSION	LABEL	3.50	Instrument Version
COMPLIANCEVOLTAGE	IQUANT	0	Compliance Voltage
ZCURVE	TABLE
	Pt	Time	Freq	Zreal	Zimag	Zsig	Zmod	Zphz	Idc	Vdc	IERange
	#	s	Hz	ohm	ohm	V	ohm	°	A	V	#
	0	10	300046.9	22.31754	1.453123	1	22.3648	3.725342	-2.888749E-005	0.0003939	10
	1	13	238359.4	22.40762	1.032127	1	22.43138	2.637262	4.978235E-006	0.0005443	10
	2	16	189328.1	22.48344	0.7069862	1	22.49456	1.801058	-9.349393E-006	0.0003691	10
	3	19	150421.9	22.54609	0.3962375	1	22.54957	1.006844	3.154337E-005	0.0005509	10
	4	21	119484.4	22.64484	0.1942695	1	22.64567	0.491527	7.255471E-005	0.0003448	10
	5	24	94921.88	22.71189	-0.0021238	1	22.71189	-0.0053576	-2.860646E-005	0.0006597	10
	6	26	75421.88	22.78963	-0.1995699	1	22.7905	-0.5017291	2.505828E-005	0.0006214	10
	7	29	59859.37	22.87017	-0.3886509	1	22.87347	-0.973579	6.96682E-006	0.0006207	10
	8	31	47578.12	22.95154	-0.5781034	1	22.95882	-1.442861	-2.604301E-005	0.0006665	10
	9	34	37828.12	23.02439	-0.7827959	1	23.03769	-1.947224	2.624532E-005	0.0007042	10
	10	37	30046.88	23.12242	-1.004506	1	23.14423	-2.487532	-2.322215E-005	0.0006854	10
	11	39	23859.38	23.21404	-1.263701	1	23.24841	-3.115931	-2.615668E-005	0.0006697	10
	12	41	18984.38	23.31269	-1.560845	1	23.36489	-3.830384	-2.92262E-006	0.0006481	10
	13	44	15046.87	23.4246	-1.923147	1	23.50342	-4.693427	-1.781361E-005	0.0006683	10
	14	46	11953.13	23.55607	-2.352246	1	23.67322	-5.7025	2.049891E-005	0.0006266	10
	15	48	9515.62	23.70786	-2.87416	1	23.88144	-6.91237	2.475374E-005	0.000653	10
	16	51	7546.875	23.88426	-3.512146	1	24.14111	-8.365309	6.684123E-006	0.0006407	10
	17	53	5928.309	24.10442	-4.325309	1	24.48942	-10.17292	2.484593E-005	0.0006832	10
	18	55	4733.456	24.35879	-5.241256	1	24.91629	-12.14313	-1.128379E-005	0.0006725	10
	19	58	3796.875	24.65392	-6.330784	1	25.45377	-14.4016	-1.990684E-005	0.0007567	10
	20	60	2987.132	25.04093	-7.76556	1	26.2174	-17.22943	-2.140282E-005	0.0007295	10
	21	62	2390.625	25.489	-9.367531	1	27.15584	-20.17902	-1.070915E-005	0.0006827	10
	22	65	1884.191	26.07744	-11.46581	1	28.4868	-23.73427	2.117592E-005	0.0006419	10
	23	67	1516.544	26.7296	-13.76021	1	30.06352	-27.23909	-1.009787E-005	0.0006723	10
	24	69	1193.986	27.6193	-16.81345	1	32.33447	-31.33126	-2.557871E-005	0.0007224	10
	25	72	946.5144	28.6936	-20.37219	1	35.19018	-35.3744	2.517902E-005	0.0006513	10
	26	74	751.7689	30.01144	-24.61811	1	38.81672	-39.36172	-2.078944E-005	0.0007315	10
	27	76	597.4265	31.53283	-29.67438	1	43.29998	-43.26085	3.054256E-006	-0.0001348	9
	28	79	477.4305	33.36502	-35.59735	1	48.78931	-46.85403	1.374958E-006	9.391353E-005	9
	29	81	376.6741	35.69126	-43.11156	1	55.96849	-50.37927	1.247361E-006	9.082314E-005	9
	30	83	298.2954	38.41758	-52.03379	1	64.67941	-53.56081	1.46688E-006	9.255078E-005	9
	31	86	237.7717	41.56106	-62.46014	1	75.02393	-56.36015	1.27243E-006	8.670425E-005	9
	32	88	189.0121	45.30757	-75.17101	1	87.76933	-58.92151	1.331006E-006	0.0001015	9
	33	90	150.2404	49.73378	-90.51118	1	103.275	-61.21223	1.398021E-006	8.49076E-005	9
	34	93	119.1737	55.02354	-109.2684	1	122.3404	-63.27187	1.409904E-006	8.314936E-005	9
	35	95	95.0169	61.16305	-131.4502	1	144.983	-65.04771	1.43051E-006	7.951674E-005	9
	36	98	75.60484	68.53167	-158.5305	1	172.7094	-66.6215	1.437384E-006	7.65094E-005	9
	37	100	54.50582	81.64703	-207.6481	1	223.1232	-68.53529	1.376803E-006	7.603053E-005	9
	38	103	45.95588	90.03258	-239.0918	1	255.4814	-69.3656	1.419651E-006	8.464203E-005	9
	39	105	37.20238	102.1397	-284.8882	1	302.6447	-70.27595	1.509944E-006	8.138219E-005	9
	40	108	30.04808	116.6969	-340.116	1	359.579	-71.06244	1.396765E-006	8.323415E-005	9
	41	110	23.91582	134.9395	-409.5487	1	431.2063	-71.7638	5.434734E-007	0.0006556	8
	42	112	18.60119	159.8302	-504.8226	1	529.5201	-72.43187	5.000072E-007	0.0006592	8
	43	115	15.02404	185.8763	-602.9553	1	630.9557	-72.86675	6.764913E-007	0.0006677	8
	44	117	12.01923	218.1719	-726.1266	1	758.1945	-73.27659	6.119786E-007	0.0006641	8
	45	119	9.450605	261.0735	-887.2194	1	924.8339	-73.60293	5.699152E-007	0.0006547	8
	46	122	7.512019	310.237	-1074.241	1	1118.142	-73.89147	5.918777E-007	0.0006502	8
	47	125	5.978954	370.2221	-1298.76	1	1350.497	-74.08937	6.008472E-007	0.0006769	8
	48	128	4.734848	444.5185	-1577.493	1	1638.927	-74.2628	6.039814E-007	0.0006442	8
	49	131	3.75601	535.5168	-1911.369	1	1984.97	-74.34848	6.783723E-007	0.0006756	8
	50	134	3.004808	642.1479	-2298.96	1	2386.959	-74.39384	6.303944E-007	0.000688	8
	51	138	2.372217	779.4651	-2794.895	1	2901.552	-74.4168	6.587221E-007	0.0007063	8
	52	142	1.878005	952.312	-3390.171	1	3521.386	-74.30975	6.739789E-007	0.0006429	8
	53	147	1.512097	1143.223	-4050.224	1	4208.477	-74.23767	6.648263E-007	0.0007602	8
	54	152	1.201923	1391.101	-4899.681	1	5093.333	-74.14987	1.564106E-007	0.0005999	7
	55	159	0.956633	1684.393	-5903.573	1	6139.166	-74.07562	1.206906E-007	7.981089E-006	7
