EXPLAIN
TAG	EISPOT
TITLE	LABEL	Potentiostatic EIS	Test Identifier
DATE	LABEL	2/28/2021	Date
TIME	LABEL	21:55:57	Time
NOTES	NOTES	1	Notes...
	
PSTAT	PSTAT	REF3000-16137	Potentiostat
VDC	POTEN	0.00000E+000	T	DC Voltage (V)
FREQINIT	QUANT	3.00000E+005	Initial Freq. (Hz)
FREQFINAL	QUANT	1.00000E+000	Final Freq. (Hz)
PTSPERDEC	QUANT	1.00000E+001	Points/decade
VAC	QUANT	5.00000E+001	AC Voltage (mV rms)
AREA	QUANT	1.00000E+000	Sample Area (cm^2)
SPEED	SELECTOR	2	Optimize for:
ZGUESS	QUANT	1.00000E+003	Estimated Z (ohms)
EOC	QUANT	0	Open Circuit (V)
SEQUENCER	TOGGLE	TRUE	Run as Sequence
PSTATMODEL	IQUANT	5	Pstat Model
PSTATSECTION	LABEL	REF3000-16137	Pstat Section
PSTATSERIALNO	LABEL	16137	Pstat Serial Number
CTRLMODE	IQUANT	1	Control Mode
IESTAB	IQUANT	0	I/E Stability
CASPEED	IQUANT	1	Control Amp Speed
CONVENTION	IQUANT	1	Current Convention
ICHRANGE	IQUANT	2	Ich Range
ICHRANGEMODE	TOGGLE	F	Ich Auto Range
ICHOFFSETENABLE	TOGGLE	T	Ich Offset Enable
ICHOFFSET	QUANT	0	Ich Offset (V)
ICHFILTER	IQUANT	3	Ich Filter
VCHRANGE	IQUANT	2	Vch Range
VCHRANGEMODE	TOGGLE	F	Vch Auto Range
VCHOFFSETENABLE	TOGGLE	T	Vch Offset Enable
VCHOFFSET	QUANT	0	Vch Offset (V)
VCHFILTER	IQUANT	3	Vch Filter
ACHRANGE	IQUANT	2	Ach Range
ACHOFFSETENABLE	TOGGLE	F	Ach Offset Enable
ACHOFFSET	QUANT	0	Ach Offset (V)
ACHFILTER	IQUANT	3	Ach Filter
IERANGELOWERLIMIT	IQUANT	2	I/E Range Lower Limit
IERANGEMODE	TOGGLE	F	I/E AutoRange
IERANGE	IQUANT	11	I/E Range
POSFEEDENABLE	TOGGLE	F	Positive Feedback IR Comp
POSFEEDRESISTANCE	QUANT	0	Positive Feedback Resistance (ohm)
ACHSELECT	IQUANT	0	Ach Select
CABLEID	IQUANT	13	Cable ID
DCCALDATE	LABEL	7/31/2020	DC Calibration Date
ACCALDATE	LABEL	7/31/2020	AC Calibration Date
THERMOSELECT	IQUANT	1	Thermo Select
FRAMEWORKVERSION	QUANT	6.33	Framework Version
INSTRUMENTVERSION	LABEL	3.50	Instrument Version
COMPLIANCEVOLTAGE	IQUANT	0	Compliance Voltage
ZCURVE	TABLE
	Pt	Time	Freq	Zreal	Zimag	Zsig	Zmod	Zphz	Idc	Vdc	IERange
	#	s	Hz	ohm	ohm	V	ohm	°	A	V	#
	0	7	300046.9	41.62032	1.283587	1	41.64011	1.766464	8.390482E-006	-0.0013487	9
	1	10	238359.4	41.77545	0.866622	1	41.78444	1.188417	4.848573E-005	-0.0018163	9
	2	13	189328.1	41.9739	0.4595017	1	41.97641	0.6272102	-1.136219E-005	-0.0008557	9
	3	16	150421.9	42.1841	0.1778922	1	42.18448	0.2416174	-5.518242E-005	0.0018238	9
	4	18	119484.4	42.36115	-0.0954064	1	42.36126	-0.1290421	3.311434E-006	-0.000525	9
	5	21	94921.88	42.57587	-0.1740073	1	42.57622	-0.2341662	-6.632274E-007	-0.0002019	9
	6	23	75421.88	42.73149	-0.3965245	1	42.73333	-0.5316579	1.880195E-005	-0.000515	9
	7	26	59859.37	42.89103	-0.6211344	1	42.89553	-0.8296815	-1.099578E-005	0.0001788	9
	8	28	47578.12	43.05971	-0.8403934	1	43.06791	-1.118096	-1.3267E-005	0.0002957	9
	9	31	37828.12	43.21622	-1.062016	1	43.22927	-1.40773	-7.601174E-006	7.483648E-005	9
	10	33	30046.88	43.40097	-1.317189	1	43.42096	-1.738353	1.862057E-005	-0.0004213	9
	11	36	23859.38	43.57114	-1.57966	1	43.59977	-2.076334	1.087916E-005	0.0001002	9
	12	38	18984.38	43.74982	-1.89411	1	43.79081	-2.479022	-1.199764E-005	0.0002338	9
	13	40	15046.87	43.93604	-2.269893	1	43.99463	-2.957476	1.168535E-005	-0.0004661	9
	14	43	11953.13	44.12616	-2.746487	1	44.21155	-3.561593	1.518069E-005	-0.0001398	9
	15	45	9515.62	44.35852	-3.276637	1	44.47938	-4.224602	1.879579E-005	-0.0003567	9
	16	47	7546.875	44.60821	-3.968965	1	44.78443	-5.084438	-5.09524E-006	-5.165915E-006	9
	17	49	5928.309	44.90662	-4.847115	1	45.16745	-6.160521	1.607249E-005	-0.0001278	9
	18	52	4733.456	45.23848	-5.810789	1	45.61015	-7.319445	1.738325E-005	-0.0004752	9
	19	54	3796.875	45.60402	-7.004143	1	46.13875	-8.731606	1.955628E-005	-0.0003298	9
	20	56	2987.132	46.0977	-8.57396	1	46.88828	-10.53635	3.271114E-006	0.0002946	9
	21	59	2390.625	46.63891	-10.32288	1	47.76766	-12.48042	-1.267017E-005	0.000373	9
	22	61	1884.191	47.37024	-12.61273	1	49.02061	-14.90958	-8.421759E-006	0.0000996	9
	23	63	1516.544	48.13114	-15.10767	1	50.44649	-17.42632	1.924584E-005	-0.0003335	9
	24	66	1193.986	49.20542	-18.42204	1	52.54089	-20.52542	1.355846E-005	-0.0004432	9
	25	68	946.5144	50.46192	-22.3153	1	55.17588	-23.856	-7.4458E-006	0.0006152	9
	26	70	751.7689	51.95071	-26.93603	1	58.51859	-27.40638	1.946433E-005	-0.0003492	9
	27	73	597.4265	53.82653	-32.51565	1	62.88531	-31.13543	1.929343E-005	-0.0003325	9
	28	75	477.4305	56.04882	-38.97599	1	68.26857	-34.8145	1.550377E-006	7.640493E-005	9
	29	77	376.6741	58.85999	-47.1388	1	75.40932	-38.68995	1.575636E-006	7.59885E-005	9
	30	80	298.2954	62.19407	-56.77622	1	84.21188	-42.39258	1.648026E-006	8.520704E-005	9
	31	82	237.7717	66.04922	-67.95743	1	94.76662	-45.81581	1.362715E-006	8.417064E-005	9
	32	84	189.0121	70.67023	-81.48469	1	107.8612	-49.06548	1.515071E-006	8.162657E-005	9
	33	87	150.2404	76.11799	-97.6946	1	123.8474	-52.07634	1.485712E-006	8.464687E-005	9
	34	89	119.1737	82.58247	-117.364	1	143.5067	-54.86809	1.476699E-006	8.162623E-005	9
	35	92	95.0169	90.00471	-140.4865	1	166.8451	-57.35375	1.542554E-006	8.255277E-005	9
	36	94	75.60484	98.8143	-168.5929	1	195.4171	-59.62492	1.519409E-006	8.086865E-005	9
	37	97	54.50582	114.1853	-219.2227	1	247.1778	-62.4866	1.510192E-006	8.014186E-005	9
	38	99	45.95588	123.8848	-251.7307	1	280.5633	-63.79671	1.566528E-006	9.277471E-005	9
	39	101	37.20238	137.6865	-298.8101	1	329.0062	-65.26057	1.581188E-006	7.706565E-005	9
	40	104	30.04808	154.0686	-355.6246	1	387.5642	-66.57611	1.534021E-006	7.605369E-005	9
	41	106	23.91582	174.1034	-426.8333	1	460.9757	-67.80968	4.786033E-007	0.0006589	8
	42	109	18.60119	201.6147	-524.8439	1	562.2363	-68.98611	5.560188E-007	0.0006593	8
	43	111	15.02404	229.7227	-625.6249	1	666.4675	-69.83731	5.318544E-007	0.0006572	8
	44	113	12.01923	264.9783	-752.403	1	797.699	-70.59896	4.125934E-007	0.0006574	8
	45	116	9.450605	310.7123	-918.3135	1	969.454	-71.3067	4.34038E-007	0.0006611	8
	46	118	7.512019	362.931	-1110.936	1	1168.717	-71.90834	5.011688E-007	0.0006376	8
	47	121	5.978954	426.35	-1342.703	1	1408.767	-72.38374	5.276834E-007	0.0006627	8
	48	124	4.734848	505.3517	-1632.041	1	1708.49	-72.79517	4.90325E-007	0.0006624	8
	49	127	3.75601	600.0496	-1979.252	1	2068.211	-73.13428	5.192869E-007	0.0006517	8
	50	130	3.004808	710.4968	-2382.607	1	2486.287	-73.39535	4.960172E-007	0.0006866	8
	51	134	2.372217	856.6381	-2903.513	1	3027.246	-73.5621	5.187335E-007	0.0007309	8
	52	138	1.878005	1025.603	-3530.007	1	3675.978	-73.79939	4.96239E-007	0.0006341	8
	53	143	1.512097	1221.448	-4228.794	1	4401.663	-73.88912	9.906166E-008	0.0006484	7
	54	148	1.201923	1472.707	-5138.917	1	5345.777	-74.0088	8.366956E-008	0.0005986	7
	55	155	0.956633	1776.834	-6219.867	1	6468.685	-74.05692	7.278561E-008	-9.459727E-006	7
