EXPLAIN
TAG	EISPOT
TITLE	LABEL	Potentiostatic EIS	Test Identifier
DATE	LABEL	2/28/2021	Date
TIME	LABEL	21:47:41	Time
NOTES	NOTES	1	Notes...
	
PSTAT	PSTAT	REF3000-16137	Potentiostat
VDC	POTEN	0.00000E+000	T	DC Voltage (V)
FREQINIT	QUANT	3.00000E+005	Initial Freq. (Hz)
FREQFINAL	QUANT	1.00000E+000	Final Freq. (Hz)
PTSPERDEC	QUANT	1.00000E+001	Points/decade
VAC	QUANT	5.00000E+001	AC Voltage (mV rms)
AREA	QUANT	1.00000E+000	Sample Area (cm^2)
SPEED	SELECTOR	2	Optimize for:
ZGUESS	QUANT	1.00000E+003	Estimated Z (ohms)
EOC	QUANT	0	Open Circuit (V)
SEQUENCER	TOGGLE	TRUE	Run as Sequence
PSTATMODEL	IQUANT	5	Pstat Model
PSTATSECTION	LABEL	REF3000-16137	Pstat Section
PSTATSERIALNO	LABEL	16137	Pstat Serial Number
CTRLMODE	IQUANT	1	Control Mode
IESTAB	IQUANT	0	I/E Stability
CASPEED	IQUANT	1	Control Amp Speed
CONVENTION	IQUANT	1	Current Convention
ICHRANGE	IQUANT	2	Ich Range
ICHRANGEMODE	TOGGLE	F	Ich Auto Range
ICHOFFSETENABLE	TOGGLE	T	Ich Offset Enable
ICHOFFSET	QUANT	0	Ich Offset (V)
ICHFILTER	IQUANT	3	Ich Filter
VCHRANGE	IQUANT	2	Vch Range
VCHRANGEMODE	TOGGLE	F	Vch Auto Range
VCHOFFSETENABLE	TOGGLE	T	Vch Offset Enable
VCHOFFSET	QUANT	0	Vch Offset (V)
VCHFILTER	IQUANT	3	Vch Filter
ACHRANGE	IQUANT	2	Ach Range
ACHOFFSETENABLE	TOGGLE	F	Ach Offset Enable
ACHOFFSET	QUANT	0	Ach Offset (V)
ACHFILTER	IQUANT	3	Ach Filter
IERANGELOWERLIMIT	IQUANT	2	I/E Range Lower Limit
IERANGEMODE	TOGGLE	F	I/E AutoRange
IERANGE	IQUANT	11	I/E Range
POSFEEDENABLE	TOGGLE	F	Positive Feedback IR Comp
POSFEEDRESISTANCE	QUANT	0	Positive Feedback Resistance (ohm)
ACHSELECT	IQUANT	0	Ach Select
CABLEID	IQUANT	13	Cable ID
DCCALDATE	LABEL	7/31/2020	DC Calibration Date
ACCALDATE	LABEL	7/31/2020	AC Calibration Date
THERMOSELECT	IQUANT	1	Thermo Select
FRAMEWORKVERSION	QUANT	6.33	Framework Version
INSTRUMENTVERSION	LABEL	3.50	Instrument Version
COMPLIANCEVOLTAGE	IQUANT	0	Compliance Voltage
ZCURVE	TABLE
	Pt	Time	Freq	Zreal	Zimag	Zsig	Zmod	Zphz	Idc	Vdc	IERange
	#	s	Hz	ohm	ohm	V	ohm	°	A	V	#
	0	7	300046.9	31.13814	0.5576485	1	31.14313	1.025992	-1.885531E-005	-0.0001495	11
	1	11	238359.4	31.37295	0.6416308	1	31.37951	1.171634	-0.0000981	0.0004645	10
	2	14	189328.1	31.51767	0.3751391	1	31.5199	0.681931	5.113698E-005	0.0006164	10
	3	17	150421.9	31.63035	0.1049894	1	31.63053	0.190179	2.9263E-005	0.000561	10
	4	19	119484.4	31.77564	-0.0754884	1	31.77573	-0.1361155	-8.827365E-005	0.0007846	10
	5	22	94921.88	31.88668	-0.2425911	1	31.88761	-0.4358929	-2.622437E-005	0.0006464	10
	6	24	75421.88	32.01698	-0.4222586	1	32.01976	-0.7556064	-1.660708E-005	0.0006335	10
	7	27	59859.37	32.13861	-0.5936741	1	32.14409	-1.058265	-2.10102E-005	0.0006897	10
	8	29	47578.12	32.26674	-0.763504	1	32.27577	-1.355495	2.633491E-005	0.0006536	10
	9	32	37828.12	32.38849	-0.9497577	1	32.40241	-1.679656	7.719736E-006	0.0007215	10
	10	34	30046.88	32.51191	-1.164996	1	32.53278	-2.052195	-2.451166E-005	0.0006982	10
	11	37	23859.38	32.63869	-1.412361	1	32.66924	-2.477791	2.220856E-005	0.0006129	10
	12	39	18984.38	32.77291	-1.70333	1	32.81715	-2.975197	-9.184567E-007	0.0006331	10
	13	42	15046.87	32.91124	-2.059845	1	32.97563	-3.581352	-2.510471E-005	0.0007363	10
	14	44	11953.13	33.09356	-2.500964	1	33.18793	-4.321771	2.471164E-005	0.000629	10
	15	46	9515.62	33.26731	-3.021739	1	33.40426	-5.190053	2.532394E-005	0.0006478	10
	16	49	7546.875	33.48504	-3.656315	1	33.68407	-6.231581	-4.286167E-006	0.0007385	10
	17	51	5928.309	33.73514	-4.476436	1	34.03084	-7.558624	1.487259E-005	0.0006196	10
	18	53	4733.456	34.03564	-5.393126	1	34.46028	-9.003957	2.441947E-005	0.0006719	10
	19	56	3796.875	34.3617	-6.491563	1	34.96951	-10.69815	-2.038985E-005	0.0007479	10
	20	58	2987.132	34.80913	-7.941997	1	35.70365	-12.85251	-2.869379E-005	0.0006932	10
	21	60	2390.625	35.26907	-9.55437	1	36.5403	-15.1576	-7.848384E-006	0.0004686	9
	22	62	1884.191	35.90822	-11.63938	1	37.74752	-17.95971	1.612123E-005	-0.000201	9
	23	65	1516.544	36.64316	-13.95201	1	39.20943	-20.84451	-2.2429E-006	0.0003901	9
	24	67	1193.986	37.59908	-16.99237	1	41.26054	-24.31992	3.228642E-006	-0.0002167	9
	25	70	946.5144	38.76029	-20.5619	1	43.87655	-27.94544	-1.132075E-005	0.0003423	9
	26	72	751.7689	40.14178	-24.83807	1	47.20479	-31.7475	-1.259368E-005	0.0005147	9
	27	74	597.4265	41.85668	-29.92472	1	51.45358	-35.56223	1.650505E-005	-0.0002066	9
	28	77	477.4305	43.85047	-35.81614	1	56.61854	-39.24122	1.413934E-006	7.095402E-005	9
	29	79	376.6741	46.39628	-43.28401	1	63.45172	-43.01241	1.43164E-006	6.682187E-005	9
	30	81	298.2954	49.39911	-52.1078	1	71.80177	-46.52857	1.349179E-006	7.253353E-005	9
	31	83	237.7717	52.86375	-62.36565	1	81.75604	-49.71399	1.434135E-006	7.134166E-005	9
	32	86	189.0121	57.00071	-74.80148	1	94.04436	-52.69164	1.342137E-006	7.480019E-005	9
	33	88	150.2404	61.87169	-89.72597	1	108.9902	-55.4113	1.417749E-006	7.236838E-005	9
	34	91	119.1737	67.66226	-107.8799	1	127.343	-57.90406	1.468983E-006	7.498583E-005	9
	35	93	95.0169	74.3325	-129.2523	1	149.1023	-60.09697	1.415498E-006	7.0968E-005	9
	36	96	75.60484	82.25656	-155.2646	1	175.7079	-62.08612	1.421682E-006	7.093144E-005	9
	37	98	54.50582	96.2008	-202.2034	1	223.9214	-64.55665	1.434904E-006	7.076732E-005	9
	38	101	45.95588	104.9998	-232.273	1	254.9033	-65.67448	1.401684E-006	8.146223E-005	9
	39	103	37.20238	117.5955	-275.9435	1	299.9558	-66.91833	1.486469E-006	8.373574E-005	9
	40	105	30.04808	132.6763	-328.6184	1	354.3911	-68.01412	1.476721E-006	6.955635E-005	9
	41	108	23.91582	151.1336	-394.5702	1	422.5246	-69.04148	5.855944E-007	0.0006456	8
	42	110	18.60119	176.6852	-485.2645	1	516.4294	-69.99339	5.964837E-007	0.0006474	8
	43	112	15.02404	202.7117	-578.9349	1	613.3985	-70.70251	4.684478E-007	0.0006473	8
	44	115	12.01923	235.2809	-695.9	1	734.5978	-71.31982	6.000521E-007	0.0006564	8
	45	117	9.450605	277.6986	-848.951	1	893.2158	-71.88667	5.549651E-007	0.0006444	8
	46	120	7.512019	326.6236	-1026.918	1	1077.61	-72.35611	5.278528E-007	0.000641	8
	47	122	5.978954	385.8155	-1240.932	1	1299.525	-72.72912	5.431593E-007	0.000658	8
	48	126	4.734848	459.9597	-1507.405	1	1576.018	-73.0313	5.959288E-007	0.000652	8
	49	129	3.75601	548.1584	-1827.5	1	1907.939	-73.30339	5.541507E-007	0.0006525	8
	50	132	3.004808	652.1932	-2198.583	1	2293.278	-73.47741	6.029773E-007	0.000621	8
	51	136	2.372217	787.1226	-2677.447	1	2790.749	-73.61758	5.850425E-007	0.000585	8
	52	140	1.878005	951.061	-3249.71	1	3386.02	-73.68736	5.956323E-007	0.0006665	8
	53	145	1.512097	1138.297	-3887.414	1	4050.643	-73.67912	5.883098E-007	0.0005649	8
	54	150	1.201923	1374.816	-4721.41	1	4917.502	-73.7651	1.187916E-007	0.0006564	7
	55	157	0.956633	1658.33	-5706.649	1	5942.718	-73.79634	1.088942E-007	-1.214243E-005	7
