EXPLAIN
TAG	EISPOT
TITLE	LABEL	Potentiostatic EIS	Test Identifier
DATE	LABEL	2/28/2021	Date
TIME	LABEL	22:30:07	Time
NOTES	NOTES	1	Notes...
	
PSTAT	PSTAT	REF3000-16137	Potentiostat
VDC	POTEN	0.00000E+000	T	DC Voltage (V)
FREQINIT	QUANT	3.00000E+005	Initial Freq. (Hz)
FREQFINAL	QUANT	1.00000E+000	Final Freq. (Hz)
PTSPERDEC	QUANT	1.00000E+001	Points/decade
VAC	QUANT	5.00000E+001	AC Voltage (mV rms)
AREA	QUANT	1.00000E+000	Sample Area (cm^2)
SPEED	SELECTOR	2	Optimize for:
ZGUESS	QUANT	1.00000E+003	Estimated Z (ohms)
EOC	QUANT	0	Open Circuit (V)
SEQUENCER	TOGGLE	TRUE	Run as Sequence
PSTATMODEL	IQUANT	5	Pstat Model
PSTATSECTION	LABEL	REF3000-16137	Pstat Section
PSTATSERIALNO	LABEL	16137	Pstat Serial Number
CTRLMODE	IQUANT	1	Control Mode
IESTAB	IQUANT	0	I/E Stability
CASPEED	IQUANT	1	Control Amp Speed
CONVENTION	IQUANT	1	Current Convention
ICHRANGE	IQUANT	2	Ich Range
ICHRANGEMODE	TOGGLE	F	Ich Auto Range
ICHOFFSETENABLE	TOGGLE	T	Ich Offset Enable
ICHOFFSET	QUANT	0	Ich Offset (V)
ICHFILTER	IQUANT	3	Ich Filter
VCHRANGE	IQUANT	2	Vch Range
VCHRANGEMODE	TOGGLE	F	Vch Auto Range
VCHOFFSETENABLE	TOGGLE	T	Vch Offset Enable
VCHOFFSET	QUANT	0	Vch Offset (V)
VCHFILTER	IQUANT	3	Vch Filter
ACHRANGE	IQUANT	2	Ach Range
ACHOFFSETENABLE	TOGGLE	F	Ach Offset Enable
ACHOFFSET	QUANT	0	Ach Offset (V)
ACHFILTER	IQUANT	3	Ach Filter
IERANGELOWERLIMIT	IQUANT	2	I/E Range Lower Limit
IERANGEMODE	TOGGLE	F	I/E AutoRange
IERANGE	IQUANT	11	I/E Range
POSFEEDENABLE	TOGGLE	F	Positive Feedback IR Comp
POSFEEDRESISTANCE	QUANT	0	Positive Feedback Resistance (ohm)
ACHSELECT	IQUANT	0	Ach Select
CABLEID	IQUANT	13	Cable ID
DCCALDATE	LABEL	7/31/2020	DC Calibration Date
ACCALDATE	LABEL	7/31/2020	AC Calibration Date
THERMOSELECT	IQUANT	1	Thermo Select
FRAMEWORKVERSION	QUANT	6.33	Framework Version
INSTRUMENTVERSION	LABEL	3.50	Instrument Version
COMPLIANCEVOLTAGE	IQUANT	0	Compliance Voltage
ZCURVE	TABLE
	Pt	Time	Freq	Zreal	Zimag	Zsig	Zmod	Zphz	Idc	Vdc	IERange
	#	s	Hz	ohm	ohm	V	ohm	°	A	V	#
	0	19	300046.9	639.7645	-148.4705	1	656.7664	-13.06538	-1.405661E-005	0.001513	9
	1	28	238359.4	665.3931	-133.4706	1	678.6474	-11.34238	-6.103201E-005	0.0005322	9
	2	41	189328.1	688.4158	-118.8043	1	698.592	-9.79145	1.750708E-005	-0.0008933	9
	3	49	150421.9	715.2585	-110.6774	1	723.7708	-8.796049	2.494849E-005	0.0009119	9
	4	57	119484.4	731.6321	-68.05352	1	734.7903	-5.314136	-4.167201E-005	0.0063465	8
	5	63	94921.88	739.701	-57.87611	1	741.9617	-4.473855	-4.688924E-006	0.0063528	8
	6	66	75421.88	747.3616	-52.69307	1	749.2169	-4.032991	4.303081E-007	0.0046817	8
	7	69	59859.37	757.4026	-49.09261	1	758.992	-3.708556	7.162517E-007	0.0047405	8
	8	72	47578.12	766.9817	-44.59238	1	768.2769	-3.327435	1.37598E-005	-0.0005441	8
	9	75	37828.12	774.1517	-41.32067	1	775.2537	-3.055287	-1.580296E-005	0.003215	8
	10	77	30046.88	780.9527	-39.03757	1	781.9278	-2.861669	1.863911E-005	-0.0038871	8
	11	80	23859.38	788.1022	-35.32016	1	788.8933	-2.566092	-1.35739E-005	0.0019109	8
	12	82	18984.38	795.7454	-34.83061	1	796.5073	-2.506296	1.428821E-005	-0.0062945	8
	13	86	15046.87	799.4645	-34.12402	1	800.1925	-2.444106	-1.550822E-005	0.0030973	8
	14	88	11953.13	811.1816	-33.62263	1	811.8782	-2.373492	1.380165E-005	-0.0062958	8
	15	91	9515.62	817.2036	-32.05125	1	817.8318	-2.246027	-2.301323E-006	-0.00271	8
	16	93	7546.875	823.6451	-32.77183	1	824.2969	-2.278527	-1.30013E-005	0.001663	8
	17	96	5928.309	830.7432	-35.33872	1	831.4945	-2.435818	-6.007514E-006	0.0067096	8
	18	99	4733.456	841.6234	-33.06425	1	842.2726	-2.249781	1.919796E-005	-0.00415	8
	19	101	3796.875	845.3101	-34.97206	1	846.0332	-2.369083	-5.976499E-006	0.0066912	8
	20	104	2987.132	856.1373	-35.64096	1	856.8788	-2.383844	1.139775E-006	0.0047901	8
	21	107	2390.625	861.8482	-38.64029	1	862.714	-2.567092	1.446975E-005	-0.0064091	8
	22	109	1884.191	867.5513	-43.74732	1	868.6536	-2.886763	-1.592794E-005	0.0031861	8
	23	112	1516.544	878.2418	-47.73903	1	879.5383	-3.111394	-1.792844E-005	0.005946	8
	24	115	1193.986	884.9556	-52.8697	1	886.5335	-3.418945	-1.81758E-005	0.0059334	8
	25	117	946.5144	895.317	-59.69164	1	897.3047	-3.81432	-3.097367E-006	-0.0025535	8
	26	120	751.7689	900.9468	-70.21168	1	903.6785	-4.45611	1.919287E-005	-0.0040271	8
	27	123	597.4265	914.0078	-79.19066	1	917.432	-4.951805	3.397628E-006	-0.0045319	8
	28	125	477.4305	920.9183	-90.78632	1	925.3825	-5.630163	-7.037031E-008	0.0006731	8
	29	127	376.6741	931.8601	-107.0934	1	937.9937	-6.555919	-5.301986E-008	0.0006415	8
	30	130	298.2954	943.9048	-126.5161	1	952.346	-7.634129	-5.724641E-008	0.0006617	8
	31	132	237.7717	957.355	-149.2085	1	968.912	-8.858562	-5.124701E-008	0.0006592	8
	32	135	189.0121	972.659	-176.6972	1	988.578	-10.2963	-8.978694E-008	0.0006699	8
	33	137	150.2404	990.032	-209.4616	1	1011.947	-11.94593	-8.546462E-008	0.0006633	8
	34	139	119.1737	1009.855	-248.9447	1	1040.087	-13.84818	-8.141848E-008	0.0006669	8
	35	142	95.0169	1032.085	-294.9032	1	1073.391	-15.94651	-9.399926E-008	0.0006672	8
	36	144	75.60484	1057.633	-350.2133	1	1114.108	-18.32122	-8.52399E-008	0.0006565	8
	37	147	54.50582	1098.355	-448.5877	1	1186.429	-22.21597	-3.833519E-008	0.0006539	8
	38	149	45.95588	1124.882	-511.2034	1	1235.593	-24.43945	-9.284846E-008	0.0006594	8
	39	152	37.20238	1160.128	-601.6132	1	1306.842	-27.41011	-9.304517E-009	0.0006466	8
	40	154	30.04808	1200.736	-710.1033	1	1394.996	-30.59964	-4.421037E-008	0.0006465	8
	41	156	23.91582	1249.887	-849.0287	1	1510.982	-34.18766	-1.858904E-008	0.000646	8
	42	159	18.60119	1311.861	-1036.754	1	1672.077	-38.31906	-1.739206E-007	0.0006718	8
	43	161	15.02404	1374.44	-1227.58	1	1842.834	-41.76963	-7.129862E-008	0.0006691	8
	44	163	12.01923	1449.786	-1468.858	1	2063.837	-45.3744	-3.13543E-008	0.0006693	8
	45	166	9.450605	1545.62	-1786.406	1	2362.243	-49.13324	-5.253174E-009	0.0006406	8
	46	168	7.512019	1653.769	-2153.654	1	2715.36	-52.47971	-2.404892E-008	0.0006895	8
	47	171	5.978954	1781.659	-2599.869	1	3151.766	-55.57763	-5.427772E-008	0.0006567	8
	48	174	4.734848	1937.48	-3153.701	1	3701.305	-58.43547	-4.256475E-008	0.0006864	8
	49	177	3.75601	2129.514	-3830.806	1	4382.91	-60.93067	-4.680687E-008	0.0006341	7
	50	181	3.004808	2347.517	-4611.503	1	5174.63	-63.02132	-1.835351E-008	0.0006303	7
	51	184	2.372217	2623.168	-5614.254	1	6196.843	-64.95644	-2.582264E-008	0.0006106	7
	52	188	1.878005	2965.789	-6831.843	1	7447.817	-66.53373	-2.987187E-008	0.0006393	7
	53	193	1.512097	3341.425	-8197.586	1	8852.431	-67.82365	-2.673323E-008	0.0005122	7
	54	199	1.201923	3817.667	-9954.08	1	10661.06	-69.01678	-3.155022E-008	0.0006387	7
	55	205	0.956633	4383.13	-12064.2	1	12835.76	-70.03306	-3.27364E-008	-1.385505E-005	7
