EXPLAIN
TAG	EISPOT
TITLE	LABEL	Potentiostatic EIS	Test Identifier
DATE	LABEL	2/28/2021	Date
TIME	LABEL	22:01:25	Time
NOTES	NOTES	1	Notes...
	
PSTAT	PSTAT	REF3000-16137	Potentiostat
VDC	POTEN	0.00000E+000	T	DC Voltage (V)
FREQINIT	QUANT	3.00000E+005	Initial Freq. (Hz)
FREQFINAL	QUANT	1.00000E+000	Final Freq. (Hz)
PTSPERDEC	QUANT	1.00000E+001	Points/decade
VAC	QUANT	5.00000E+001	AC Voltage (mV rms)
AREA	QUANT	1.00000E+000	Sample Area (cm^2)
SPEED	SELECTOR	2	Optimize for:
ZGUESS	QUANT	1.00000E+003	Estimated Z (ohms)
EOC	QUANT	0	Open Circuit (V)
SEQUENCER	TOGGLE	TRUE	Run as Sequence
PSTATMODEL	IQUANT	5	Pstat Model
PSTATSECTION	LABEL	REF3000-16137	Pstat Section
PSTATSERIALNO	LABEL	16137	Pstat Serial Number
CTRLMODE	IQUANT	1	Control Mode
IESTAB	IQUANT	0	I/E Stability
CASPEED	IQUANT	1	Control Amp Speed
CONVENTION	IQUANT	1	Current Convention
ICHRANGE	IQUANT	2	Ich Range
ICHRANGEMODE	TOGGLE	F	Ich Auto Range
ICHOFFSETENABLE	TOGGLE	T	Ich Offset Enable
ICHOFFSET	QUANT	0	Ich Offset (V)
ICHFILTER	IQUANT	3	Ich Filter
VCHRANGE	IQUANT	2	Vch Range
VCHRANGEMODE	TOGGLE	F	Vch Auto Range
VCHOFFSETENABLE	TOGGLE	T	Vch Offset Enable
VCHOFFSET	QUANT	0	Vch Offset (V)
VCHFILTER	IQUANT	3	Vch Filter
ACHRANGE	IQUANT	2	Ach Range
ACHOFFSETENABLE	TOGGLE	F	Ach Offset Enable
ACHOFFSET	QUANT	0	Ach Offset (V)
ACHFILTER	IQUANT	3	Ach Filter
IERANGELOWERLIMIT	IQUANT	2	I/E Range Lower Limit
IERANGEMODE	TOGGLE	F	I/E AutoRange
IERANGE	IQUANT	11	I/E Range
POSFEEDENABLE	TOGGLE	F	Positive Feedback IR Comp
POSFEEDRESISTANCE	QUANT	0	Positive Feedback Resistance (ohm)
ACHSELECT	IQUANT	0	Ach Select
CABLEID	IQUANT	13	Cable ID
DCCALDATE	LABEL	7/31/2020	DC Calibration Date
ACCALDATE	LABEL	7/31/2020	AC Calibration Date
THERMOSELECT	IQUANT	1	Thermo Select
FRAMEWORKVERSION	QUANT	6.33	Framework Version
INSTRUMENTVERSION	LABEL	3.50	Instrument Version
COMPLIANCEVOLTAGE	IQUANT	0	Compliance Voltage
ZCURVE	TABLE
	Pt	Time	Freq	Zreal	Zimag	Zsig	Zmod	Zphz	Idc	Vdc	IERange
	#	s	Hz	ohm	ohm	V	ohm	°	A	V	#
	0	7	300046.9	51.38134	1.023274	1	51.39153	1.140911	-5.765198E-005	0.001765	9
	1	10	238359.4	51.70811	0.4483039	1	51.71006	0.496736	9.286443E-006	-0.001039	9
	2	13	189328.1	51.98565	0.128312	1	51.98581	0.1414183	-6.301118E-005	0.001915	9
	3	16	150421.9	52.31257	-0.1772614	1	52.31287	-0.1941462	-3.416408E-006	0.0006903	9
	4	18	119484.4	52.50022	-0.414991	1	52.50186	-0.4528883	1.004184E-006	0.0007841	9
	5	21	94921.88	52.80405	-0.41155	1	52.80565	-0.4465491	2.036364E-005	-0.0004656	9
	6	23	75421.88	53.00368	-0.6511117	1	53.00768	-0.7038016	-3.847089E-006	0.0004337	9
	7	26	59859.37	53.20845	-0.8698037	1	53.21556	-0.9365363	-8.876016E-006	1.561881E-005	9
	8	29	47578.12	53.42547	-1.086869	1	53.43653	-1.165444	1.576777E-005	-0.0001981	9
	9	31	37828.12	53.67636	-1.306794	1	53.69227	-1.394636	1.092316E-005	3.100536E-005	9
	10	34	30046.88	53.88716	-1.565275	1	53.90989	-1.663819	-3.08656E-006	0.0005109	9
	11	36	23859.38	54.11005	-1.805031	1	54.14015	-1.910594	-2.710258E-006	0.0005474	9
	12	38	18984.38	54.32394	-2.131535	1	54.36574	-2.24699	1.889479E-005	-0.0002699	9
	13	41	15046.87	54.54813	-2.538347	1	54.60715	-2.664284	1.532102E-005	-0.0005274	9
	14	43	11953.13	54.79676	-2.983174	1	54.8779	-3.116147	-1.241016E-005	0.0002302	9
	15	45	9515.62	55.05315	-3.559423	1	55.1681	-3.69927	1.030471E-005	-0.0004607	9
	16	48	7546.875	55.34431	-4.293798	1	55.51063	-4.436313	3.006704E-006	0.0003	9
	17	50	5928.309	55.67848	-5.18506	1	55.91939	-5.320327	-2.871409E-006	-0.0001282	9
	18	52	4733.456	56.05068	-6.253448	1	56.39844	-6.366035	-1.615392E-005	0.0006554	9
	19	56	3796.875	56.48669	-7.513603	1	56.98421	-7.576748	-1.684184E-005	0.0005419	9
	20	58	2987.132	57.02174	-9.15776	1	57.75243	-9.12386	1.647741E-005	-0.0001115	9
	21	60	2390.625	57.64505	-11.02532	1	58.68995	-10.82775	1.891245E-005	-0.0002503	9
	22	62	1884.191	58.37031	-13.51246	1	59.91394	-13.03411	-1.32822E-005	0.0006792	9
	23	65	1516.544	59.22044	-16.14804	1	61.38257	-15.25242	-1.417143E-005	0.0003495	9
	24	67	1193.986	60.34579	-19.73052	1	63.48943	-18.10556	-1.567305E-005	0.0006408	9
	25	70	946.5144	61.66521	-23.95951	1	66.1563	-21.23322	2.033905E-005	-0.0004465	9
	26	72	751.7689	63.3692	-28.98579	1	69.6838	-24.5799	-3.408813E-006	0.0005476	9
	27	74	597.4265	65.33705	-34.92678	1	74.08651	-28.12732	-8.594613E-006	7.016123E-005	9
	28	76	477.4305	67.69794	-41.96413	1	79.64923	-31.79366	1.486755E-006	8.77937E-005	9
	29	79	376.6741	70.73531	-50.80879	1	87.092	-35.68948	1.524688E-006	7.856641E-005	9
	30	81	298.2954	74.3489	-61.24931	1	96.3288	-39.48201	1.489356E-006	8.53719E-005	9
	31	83	237.7717	78.55756	-73.36354	1	107.4872	-43.04188	1.461421E-006	8.386382E-005	9
	32	86	189.0121	83.608	-87.99942	1	121.3845	-46.46587	1.50306E-006	7.77104E-005	9
	33	88	150.2404	89.56989	-105.5066	1	138.3994	-49.67038	1.376283E-006	8.333857E-005	9
	34	91	119.1737	96.6601	-126.7274	1	159.3832	-52.66578	1.459413E-006	8.810121E-005	9
	35	93	95.0169	104.7865	-151.633	1	184.317	-55.35346	1.5632E-006	8.225677E-005	9
	36	96	75.60484	114.4054	-181.8685	1	214.8598	-57.82781	1.502224E-006	8.534492E-005	9
	37	98	54.50582	131.1529	-236.2901	1	270.2482	-60.96752	1.511167E-006	0.0000994	9
	38	101	45.95588	141.6667	-271.2449	1	306.0118	-62.42268	1.512305E-006	8.570444E-005	9
	39	103	37.20238	156.5832	-321.8122	1	357.8846	-64.05397	1.534102E-006	8.952626E-005	9
	40	105	30.04808	173.561	-381.3055	1	418.9478	-65.52612	4.433255E-007	0.0006586	8
	41	108	23.91582	195.8853	-459.4882	1	499.5002	-66.91087	4.696665E-007	0.000661	8
	42	110	18.60119	225.3944	-565.0046	1	608.3032	-68.25171	3.740415E-007	0.0006424	8
	43	112	15.02404	255.5907	-673.4279	1	720.2997	-69.2164	4.085709E-007	0.0006663	8
	44	115	12.01923	293.2931	-810.0385	1	861.5005	-70.09605	5.005425E-007	0.0006551	8
	45	117	9.450605	341.9738	-988.411	1	1045.898	-70.91523	4.534704E-007	0.0006451	8
	46	120	7.512019	398.5885	-1195.893	1	1260.568	-71.56689	4.866713E-007	0.0006676	8
	47	122	5.978954	465.5269	-1446.437	1	1519.505	-72.15955	4.486217E-007	0.0006587	8
	48	125	4.734848	548.46	-1757.402	1	1840.997	-72.66761	4.759251E-007	0.0006849	8
	49	129	3.75601	649.2765	-2132.998	1	2229.627	-73.06995	4.18305E-007	0.0006399	8
	50	132	3.004808	766.011	-2569.579	1	2681.326	-73.40028	4.579017E-007	0.0006384	8
	51	136	2.372217	918.0098	-3129.36	1	3261.232	-73.65074	4.514679E-007	0.0006683	8
	52	140	1.878005	1105.357	-3813.146	1	3970.126	-73.83416	4.402156E-007	0.0006509	8
	53	145	1.512097	1311.826	-4583.682	1	4767.707	-74.02915	6.840572E-008	0.0005235	7
	54	150	1.201923	1581.422	-5561.412	1	5781.885	-74.12657	5.523111E-008	0.0006414	7
	55	156	0.956633	1898.771	-6734.316	1	6996.881	-74.25396	5.408636E-008	-8.85817E-006	7
