EXPLAIN
TAG	EISPOT
TITLE	LABEL	Potentiostatic EIS	Test Identifier
DATE	LABEL	2/28/2021	Date
TIME	LABEL	21:44:55	Time
NOTES	NOTES	1	Notes...
	
PSTAT	PSTAT	REF3000-16137	Potentiostat
VDC	POTEN	0.00000E+000	T	DC Voltage (V)
FREQINIT	QUANT	3.00000E+005	Initial Freq. (Hz)
FREQFINAL	QUANT	1.00000E+000	Final Freq. (Hz)
PTSPERDEC	QUANT	1.00000E+001	Points/decade
VAC	QUANT	5.00000E+001	AC Voltage (mV rms)
AREA	QUANT	1.00000E+000	Sample Area (cm^2)
SPEED	SELECTOR	2	Optimize for:
ZGUESS	QUANT	1.00000E+003	Estimated Z (ohms)
EOC	QUANT	0	Open Circuit (V)
SEQUENCER	TOGGLE	TRUE	Run as Sequence
PSTATMODEL	IQUANT	5	Pstat Model
PSTATSECTION	LABEL	REF3000-16137	Pstat Section
PSTATSERIALNO	LABEL	16137	Pstat Serial Number
CTRLMODE	IQUANT	1	Control Mode
IESTAB	IQUANT	0	I/E Stability
CASPEED	IQUANT	1	Control Amp Speed
CONVENTION	IQUANT	1	Current Convention
ICHRANGE	IQUANT	2	Ich Range
ICHRANGEMODE	TOGGLE	F	Ich Auto Range
ICHOFFSETENABLE	TOGGLE	T	Ich Offset Enable
ICHOFFSET	QUANT	0	Ich Offset (V)
ICHFILTER	IQUANT	3	Ich Filter
VCHRANGE	IQUANT	2	Vch Range
VCHRANGEMODE	TOGGLE	F	Vch Auto Range
VCHOFFSETENABLE	TOGGLE	T	Vch Offset Enable
VCHOFFSET	QUANT	0	Vch Offset (V)
VCHFILTER	IQUANT	3	Vch Filter
ACHRANGE	IQUANT	2	Ach Range
ACHOFFSETENABLE	TOGGLE	F	Ach Offset Enable
ACHOFFSET	QUANT	0	Ach Offset (V)
ACHFILTER	IQUANT	3	Ach Filter
IERANGELOWERLIMIT	IQUANT	2	I/E Range Lower Limit
IERANGEMODE	TOGGLE	F	I/E AutoRange
IERANGE	IQUANT	11	I/E Range
POSFEEDENABLE	TOGGLE	F	Positive Feedback IR Comp
POSFEEDRESISTANCE	QUANT	0	Positive Feedback Resistance (ohm)
ACHSELECT	IQUANT	0	Ach Select
CABLEID	IQUANT	13	Cable ID
DCCALDATE	LABEL	7/31/2020	DC Calibration Date
ACCALDATE	LABEL	7/31/2020	AC Calibration Date
THERMOSELECT	IQUANT	1	Thermo Select
FRAMEWORKVERSION	QUANT	6.33	Framework Version
INSTRUMENTVERSION	LABEL	3.50	Instrument Version
COMPLIANCEVOLTAGE	IQUANT	0	Compliance Voltage
ZCURVE	TABLE
	Pt	Time	Freq	Zreal	Zimag	Zsig	Zmod	Zphz	Idc	Vdc	IERange
	#	s	Hz	ohm	ohm	V	ohm	°	A	V	#
	0	7	300046.9	28.56721	0.7187473	1	28.57625	1.44125	2.682284E-006	-0.0001136	11
	1	11	238359.4	28.69952	0.7664279	1	28.70975	1.529735	7.874236E-005	0.000236	10
	2	14	189328.1	28.81664	0.4753342	1	28.82056	0.9450154	-3.310411E-005	0.0003978	10
	3	17	150421.9	28.91227	0.2152889	1	28.91307	0.4266325	2.536615E-005	0.0007658	10
	4	20	119484.4	29.05036	0.0076492	1	29.05036	0.0150865	7.651677E-005	0.0003179	10
	5	22	94921.88	29.15089	-0.1658656	1	29.15136	-0.3260038	-1.362455E-005	0.0007226	10
	6	25	75421.88	29.26348	-0.3474512	1	29.26554	-0.6802524	2.383406E-005	0.0006111	10
	7	27	59859.37	29.37558	-0.5229594	1	29.38024	-1.019902	-7.772835E-006	0.000647	10
	8	30	47578.12	29.48587	-0.7033584	1	29.49426	-1.366479	2.564884E-005	0.0006907	10
	9	32	37828.12	29.59662	-0.891584	1	29.61004	-1.725486	-2.215434E-006	0.0006328	10
	10	35	30046.88	29.71098	-1.103222	1	29.73145	-2.126518	-2.620208E-005	0.0007071	10
	11	37	23859.38	29.83047	-1.351614	1	29.86108	-2.594289	7.458272E-006	0.0006118	10
	12	40	18984.38	29.95325	-1.644946	1	29.99839	-3.143361	-3.555206E-006	0.0007247	10
	13	42	15046.87	30.09768	-1.989909	1	30.16339	-3.782606	2.408958E-005	0.0006623	10
	14	44	11953.13	30.25111	-2.424718	1	30.34813	-4.582633	2.444198E-005	0.0006305	10
	15	47	9515.62	30.42665	-2.94155	1	30.56851	-5.52201	-1.754329E-005	0.000663	10
	16	49	7546.875	30.63195	-3.574043	1	30.83975	-6.655008	1.564816E-005	0.0006297	10
	17	51	5928.309	30.8746	-4.373868	1	31.18287	-8.063186	-4.694873E-006	0.0006995	10
	18	54	4733.456	31.15808	-5.284855	1	31.60309	-9.62656	-1.419623E-005	0.0007103	10
	19	56	3796.875	31.48401	-6.362969	1	32.12056	-11.42567	-3.981037E-006	0.0006427	10
	20	58	2987.132	31.90957	-7.769893	1	32.84193	-13.68505	-1.067736E-005	0.0006555	10
	21	60	2390.625	32.38143	-9.380478	1	33.71276	-16.15561	2.454526E-005	0.0006877	10
	22	63	1884.191	33.01419	-11.41293	1	34.93124	-19.07016	-2.712157E-005	0.0006922	10
	23	65	1516.544	33.72117	-13.69464	1	36.39589	-22.10277	-3.994077E-006	0.0007007	10
	24	67	1193.986	34.62748	-16.66501	1	38.42896	-25.6999	1.647534E-005	-0.0003409	9
	25	70	946.5144	35.76263	-20.17034	1	41.05859	-29.42326	-9.506448E-006	0.0005397	9
	26	72	751.7689	37.13149	-24.35171	1	44.40443	-33.25781	8.74945E-006	6.805921E-005	9
	27	74	597.4265	38.77853	-29.34184	1	48.62836	-37.11303	3.031061E-006	0.0002262	9
	28	77	477.4305	40.72562	-35.11689	1	53.7752	-40.77054	1.414017E-006	7.716912E-005	9
	29	79	376.6741	43.2002	-42.44538	1	60.56292	-44.49505	1.319925E-006	8.552802E-005	9
	30	81	298.2954	46.11658	-51.10925	1	68.83963	-47.93963	1.363239E-006	8.091865E-005	9
	31	84	237.7717	49.48153	-61.19176	1	78.69469	-51.03993	1.421024E-006	7.447834E-005	9
	32	86	189.0121	53.49593	-73.42529	1	90.8465	-53.9238	1.30337E-006	7.4908E-005	9
	33	89	150.2404	58.22481	-88.12408	1	105.6219	-56.5467	1.352911E-006	7.312407E-005	9
	34	91	119.1737	63.85342	-106.0177	1	123.7619	-58.93985	1.453164E-006	7.339401E-005	9
	35	93	95.0169	70.33639	-127.1018	1	145.2655	-61.04047	1.458241E-006	7.717859E-005	9
	36	96	75.60484	78.06286	-152.783	1	171.5705	-62.93571	1.426446E-006	7.732181E-005	9
	37	98	54.50582	91.6737	-199.1324	1	219.2208	-65.28028	1.367623E-006	0.0000982	9
	38	101	45.95588	100.2749	-228.8579	1	249.8619	-66.3392	1.534095E-006	8.199352E-005	9
	39	103	37.20238	112.6068	-271.9858	1	294.3749	-67.5096	1.522374E-006	7.856968E-005	9
	40	106	30.04808	127.3533	-324.0226	1	348.1515	-68.54326	1.577143E-006	6.928289E-005	9
	41	108	23.91582	146.172	-390.9244	1	417.3586	-69.49854	1.421156E-006	0.0000964	9
	42	110	18.60119	170.639	-479.0087	1	508.4948	-70.39239	5.121939E-007	0.0006627	8
	43	113	15.02404	196.2385	-571.5441	1	604.2948	-71.05019	5.052805E-007	0.0006553	8
	44	115	12.01923	228.597	-687.135	1	724.1624	-71.59868	6.910606E-007	0.000659	8
	45	117	9.450605	270.5476	-838.7427	1	881.2975	-72.12221	5.285706E-007	0.0006582	8
	46	120	7.512019	318.6319	-1014.863	1	1063.708	-72.56952	6.037059E-007	0.0006392	8
	47	123	5.978954	377.241	-1225.983	1	1282.71	-72.89661	6.682582E-007	0.0006306	8
	48	126	4.734848	450.2576	-1488.302	1	1554.919	-73.1678	6.294568E-007	0.0006931	8
	49	129	3.75601	538.6672	-1805.5	1	1884.142	-73.38763	6.150427E-007	0.000657	8
	50	132	3.004808	641.644	-2172.327	1	2265.107	-73.54434	5.841949E-007	0.0006982	8
	51	136	2.372217	775.8371	-2645.063	1	2756.498	-73.65279	6.234081E-007	0.0007372	8
	52	140	1.878005	937.2351	-3210.171	1	3344.19	-73.72441	6.138086E-007	0.0006344	8
	53	145	1.512097	1121.147	-3836.012	1	3996.493	-73.708	6.392406E-007	0.0007207	8
	54	150	1.201923	1356.255	-4660.687	1	4854.011	-73.77505	1.405023E-007	0.0005922	7
	55	157	0.956633	1639.936	-5632.379	1	5866.267	-73.76643	1.220876E-007	-3.727099E-005	7
