EXPLAIN
TAG	EISPOT
TITLE	LABEL	Potentiostatic EIS	Test Identifier
DATE	LABEL	2/28/2021	Date
TIME	LABEL	21:42:08	Time
NOTES	NOTES	1	Notes...
	
PSTAT	PSTAT	REF3000-16137	Potentiostat
VDC	POTEN	0.00000E+000	T	DC Voltage (V)
FREQINIT	QUANT	3.00000E+005	Initial Freq. (Hz)
FREQFINAL	QUANT	1.00000E+000	Final Freq. (Hz)
PTSPERDEC	QUANT	1.00000E+001	Points/decade
VAC	QUANT	5.00000E+001	AC Voltage (mV rms)
AREA	QUANT	1.00000E+000	Sample Area (cm^2)
SPEED	SELECTOR	2	Optimize for:
ZGUESS	QUANT	1.00000E+003	Estimated Z (ohms)
EOC	QUANT	0	Open Circuit (V)
SEQUENCER	TOGGLE	TRUE	Run as Sequence
PSTATMODEL	IQUANT	5	Pstat Model
PSTATSECTION	LABEL	REF3000-16137	Pstat Section
PSTATSERIALNO	LABEL	16137	Pstat Serial Number
CTRLMODE	IQUANT	1	Control Mode
IESTAB	IQUANT	0	I/E Stability
CASPEED	IQUANT	1	Control Amp Speed
CONVENTION	IQUANT	1	Current Convention
ICHRANGE	IQUANT	2	Ich Range
ICHRANGEMODE	TOGGLE	F	Ich Auto Range
ICHOFFSETENABLE	TOGGLE	T	Ich Offset Enable
ICHOFFSET	QUANT	0	Ich Offset (V)
ICHFILTER	IQUANT	3	Ich Filter
VCHRANGE	IQUANT	2	Vch Range
VCHRANGEMODE	TOGGLE	F	Vch Auto Range
VCHOFFSETENABLE	TOGGLE	T	Vch Offset Enable
VCHOFFSET	QUANT	0	Vch Offset (V)
VCHFILTER	IQUANT	3	Vch Filter
ACHRANGE	IQUANT	2	Ach Range
ACHOFFSETENABLE	TOGGLE	F	Ach Offset Enable
ACHOFFSET	QUANT	0	Ach Offset (V)
ACHFILTER	IQUANT	3	Ach Filter
IERANGELOWERLIMIT	IQUANT	2	I/E Range Lower Limit
IERANGEMODE	TOGGLE	F	I/E AutoRange
IERANGE	IQUANT	11	I/E Range
POSFEEDENABLE	TOGGLE	F	Positive Feedback IR Comp
POSFEEDRESISTANCE	QUANT	0	Positive Feedback Resistance (ohm)
ACHSELECT	IQUANT	0	Ach Select
CABLEID	IQUANT	13	Cable ID
DCCALDATE	LABEL	7/31/2020	DC Calibration Date
ACCALDATE	LABEL	7/31/2020	AC Calibration Date
THERMOSELECT	IQUANT	1	Thermo Select
FRAMEWORKVERSION	QUANT	6.33	Framework Version
INSTRUMENTVERSION	LABEL	3.50	Instrument Version
COMPLIANCEVOLTAGE	IQUANT	0	Compliance Voltage
ZCURVE	TABLE
	Pt	Time	Freq	Zreal	Zimag	Zsig	Zmod	Zphz	Idc	Vdc	IERange
	#	s	Hz	ohm	ohm	V	ohm	°	A	V	#
	0	7	300046.9	26.16921	0.8534237	1	26.18313	1.867853	5.979062E-005	-0.0001187	11
	1	11	238359.4	26.32829	0.879877	1	26.34298	1.914081	1.49913E-005	0.0004441	10
	2	14	189328.1	26.43117	0.3308592	1	26.43324	0.7171778	6.239973E-005	0.0006604	11
	3	18	150421.9	26.54389	0.2889188	1	26.54546	0.6236151	6.651084E-005	0.0005215	10
	4	21	119484.4	26.66257	0.0838084	1	26.6627	0.180097	1.344138E-005	0.0006008	10
	5	23	94921.88	26.75069	-0.099075	1	26.75087	-0.2122022	2.596973E-005	0.0006776	10
	6	26	75421.88	26.8562	-0.2885432	1	26.85775	-0.6155625	-2.769289E-005	0.0006488	10
	7	28	59859.37	26.95114	-0.4682543	1	26.9552	-0.995368	2.0948E-005	0.0006086	10
	8	31	47578.12	27.05172	-0.6459678	1	27.05943	-1.367905	7.282398E-006	0.0006118	10
	9	33	37828.12	27.15453	-0.8397651	1	27.16751	-1.771331	-2.381647E-005	0.0006989	10
	10	36	30046.88	27.25642	-1.054218	1	27.2768	-2.21497	-2.626162E-005	0.000721	10
	11	38	23859.38	27.36837	-1.303535	1	27.39939	-2.726894	-2.55716E-005	0.0007158	10
	12	41	18984.38	27.48373	-1.59959	1	27.53024	-3.330933	2.523917E-005	0.0006932	10
	13	43	15046.87	27.61607	-1.958673	1	27.68545	-4.056915	7.15893E-006	0.000633	10
	14	45	11953.13	27.76027	-2.379646	1	27.86207	-4.899492	1.44531E-005	0.0006317	10
	15	48	9515.62	27.92416	-2.884701	1	28.07277	-5.898009	-2.885478E-005	0.000666	10
	16	50	7546.875	28.11629	-3.512425	1	28.33484	-7.12078	-2.092825E-005	0.0007518	10
	17	52	5928.309	28.35522	-4.303586	1	28.67994	-8.630149	-1.996657E-006	0.000639	10
	18	55	4733.456	28.62487	-5.199695	1	29.0933	-10.29549	-2.012207E-005	0.0006989	10
	19	57	3796.875	28.94511	-6.279518	1	29.61844	-12.24039	-1.140715E-005	0.0006541	10
	20	59	2987.132	29.35219	-7.672037	1	30.33828	-14.64818	-3.970871E-006	0.0006976	10
	21	61	2390.625	29.82513	-9.248225	1	31.22608	-17.22771	-2.465522E-005	0.0006648	10
	22	64	1884.191	30.43416	-11.2994	1	32.46405	-20.36864	5.508513E-006	0.0006967	10
	23	66	1516.544	31.11671	-13.50606	1	33.92142	-23.46303	-2.784503E-005	0.0007	10
	24	68	1193.986	32.03495	-16.46658	1	36.01925	-27.20403	2.220491E-005	0.0006759	10
	25	71	946.5144	33.10437	-19.8978	1	38.6241	-31.0085	-1.1065E-005	0.0005039	9
	26	73	751.7689	34.43148	-24.02756	1	41.98631	-34.90875	-2.548415E-006	0.0003676	9
	27	76	597.4265	36.0535	-28.93286	1	46.22732	-38.74697	-2.278986E-006	-2.404072E-005	9
	28	78	477.4305	37.95276	-34.66611	1	51.40186	-42.40862	1.46948E-006	8.011146E-005	9
	29	80	376.6741	40.36367	-41.90786	1	58.185	-46.07529	1.389543E-006	8.058902E-005	9
	30	82	298.2954	43.20251	-50.47501	1	66.43932	-49.43916	1.461843E-006	8.200382E-005	9
	31	85	237.7717	46.47423	-60.45405	1	76.25317	-52.44861	1.424815E-006	8.68942E-005	9
	32	87	189.0121	50.37758	-72.57023	1	88.34217	-55.23198	1.417228E-006	7.62748E-005	9
	33	90	150.2404	54.97986	-87.1412	1	103.0358	-57.75101	1.425625E-006	8.170433E-005	9
	34	92	119.1737	60.45955	-104.8942	1	121.0709	-60.04146	1.432953E-006	8.184132E-005	9
	35	94	95.0169	66.78279	-125.8267	1	142.451	-62.04278	1.386986E-006	8.383067E-005	9
	36	97	75.60484	74.32596	-151.3254	1	168.5934	-63.84127	1.327469E-006	8.605624E-005	9
	37	99	54.50582	87.66061	-197.3999	1	215.9887	-66.05514	1.43041E-006	7.273022E-005	9
	38	102	45.95588	96.0973	-226.9457	1	246.4529	-67.05038	1.547454E-006	8.02672E-005	9
	39	104	37.20238	108.2515	-269.8609	1	290.7633	-68.14239	1.554745E-006	7.331587E-005	9
	40	107	30.04808	122.7873	-321.5968	1	344.2401	-69.10289	1.480966E-006	8.376835E-005	9
	41	109	23.91582	141.2674	-387.9979	1	412.9151	-69.99377	1.497102E-006	7.043112E-005	9
	42	112	18.60119	165.4714	-475.5847	1	503.549	-70.81554	6.186316E-007	0.0006626	8
	43	114	15.02404	190.7426	-567.2614	1	598.4716	-71.4147	5.721637E-007	0.0006565	8
	44	116	12.01923	222.7407	-682.3445	1	717.7795	-71.92154	6.921674E-007	0.0006557	8
	45	119	9.450605	264.1138	-832.6274	1	873.5127	-72.4007	6.244908E-007	0.0006506	8
	46	121	7.512019	312.5713	-1007.62	1	1054.988	-72.76572	6.520677E-007	0.0006545	8
	47	124	5.978954	370.4963	-1217.085	1	1272.227	-73.06907	6.354398E-007	0.000663	8
	48	127	4.734848	443.3133	-1478.298	1	1543.338	-73.30702	6.22587E-007	0.0006647	8
	49	130	3.75601	530.2901	-1791.658	1	1868.487	-73.51244	6.49433E-007	0.0006624	8
	50	134	3.004808	631.998	-2155.067	1	2245.826	-73.65562	6.15561E-007	0.0006816	8
	51	137	2.372217	763.2803	-2618.895	1	2727.858	-73.75117	6.327464E-007	0.0006732	8
	52	141	1.878005	928.6108	-3182.51	1	3315.221	-73.73351	6.571832E-007	0.0006272	8
	53	146	1.512097	1110.982	-3808.525	1	3967.259	-73.73755	6.482773E-007	0.0007597	8
	54	152	1.201923	1348.425	-4617.071	1	4809.947	-73.71944	1.626806E-007	0.0006069	7
	55	158	0.956633	1629.082	-5573.806	1	5806.998	-73.7077	1.219076E-007	-1.157006E-005	7
