June 16, 2026   23:32:58
A.C. Impedance
File: e:\chi_data\6.13Data Source:  Experiment
Instrument Model:  CHI660E
Header: 
Note: 

Init E (V) = 0
High Frequency (Hz) = 1e+6
Low Frequency (Hz) = 0.1
Imp SF
Amplitude (V) = 0.005
Quiet Time (sec) = 2
Cycles (.1-1Hz) = 1

Freq/Hz, Z'/ohm, Z"/ohm, Z/ohm, Phase/deg

8.252e+5, 1.290e+2, -6.348e+1, 1.437e+2, -26.2
6.816e+5, 1.400e+2, -6.511e+1, 1.544e+2, -24.9
5.625e+5, 1.507e+2, -6.054e+1, 1.624e+2, -21.9
4.639e+5, 1.617e+2, -5.790e+1, 1.717e+2, -19.7
3.828e+5, 1.709e+2, -5.278e+1, 1.789e+2, -17.2
3.164e+5, 1.786e+2, -4.798e+1, 1.849e+2, -15.0
2.607e+5, 1.845e+2, -4.259e+1, 1.894e+2, -13.0
2.158e+5, 1.892e+2, -3.762e+1, 1.929e+2, -11.2
1.777e+5, 1.933e+2, -3.332e+1, 1.961e+2, -9.8
1.465e+5, 1.964e+2, -2.948e+1, 1.986e+2, -8.5
1.211e+5, 1.986e+2, -2.437e+1, 2.001e+2, -7.0
9.961e+4, 2.004e+2, -1.914e+1, 2.013e+2, -5.5
8.252e+4, 2.019e+2, -1.518e+1, 2.024e+2, -4.3
6.812e+4, 2.033e+2, -1.283e+1, 2.037e+2, -3.6
5.625e+4, 2.047e+2, -1.174e+1, 2.050e+2, -3.3
4.644e+4, 2.058e+2, -1.128e+1, 2.061e+2, -3.1
3.833e+4, 2.069e+2, -1.108e+1, 2.072e+2, -3.1
3.164e+4, 2.079e+2, -1.082e+1, 2.082e+2, -3.0
2.612e+4, 2.090e+2, -1.056e+1, 2.093e+2, -2.9
2.153e+4, 2.102e+2, -1.054e+1, 2.105e+2, -2.9
1.777e+4, 2.114e+2, -1.087e+1, 2.117e+2, -2.9
1.470e+4, 2.126e+2, -1.132e+1, 2.129e+2, -3.0
1.211e+4, 2.139e+2, -1.190e+1, 2.142e+2, -3.2
1.001e+4, 2.151e+2, -1.266e+1, 2.155e+2, -3.4
8.252e+3, 2.166e+2, -1.350e+1, 2.170e+2, -3.6
6.812e+3, 2.182e+2, -1.459e+1, 2.186e+2, -3.8
5.625e+3, 2.199e+2, -1.604e+1, 2.205e+2, -4.2
4.643e+3, 2.219e+2, -1.769e+1, 2.226e+2, -4.6
3.833e+3, 2.242e+2, -1.947e+1, 2.250e+2, -5.0
3.164e+3, 2.266e+2, -2.142e+1, 2.276e+2, -5.4
2.612e+3, 2.292e+2, -2.351e+1, 2.304e+2, -5.9
2.153e+3, 2.321e+2, -2.571e+1, 2.335e+2, -6.3
1.777e+3, 2.353e+2, -2.807e+1, 2.370e+2, -6.8
1.470e+3, 2.387e+2, -3.070e+1, 2.407e+2, -7.3
1.211e+3, 2.423e+2, -3.363e+1, 2.446e+2, -7.9
1.001e+3, 2.462e+2, -3.658e+1, 2.489e+2, -8.5
8.252e+2, 2.504e+2, -3.965e+1, 2.535e+2, -9.0
6.836e+2, 2.547e+2, -4.334e+1, 2.584e+2, -9.7
5.615e+2, 2.593e+2, -4.776e+1, 2.636e+2, -10.4
4.639e+2, 2.640e+2, -5.300e+1, 2.692e+2, -11.4
3.809e+2, 2.688e+2, -5.893e+1, 2.752e+2, -12.4
3.174e+2, 2.740e+2, -6.571e+1, 2.818e+2, -13.5
2.588e+2, 2.795e+2, -7.354e+1, 2.891e+2, -14.7
2.148e+2, 2.854e+2, -8.270e+1, 2.971e+2, -16.2
1.758e+2, 2.916e+2, -9.327e+1, 3.061e+2, -17.7
1.465e+2, 2.981e+2, -1.052e+2, 3.161e+2, -19.4
1.221e+2, 3.053e+2, -1.196e+2, 3.279e+2, -21.4
9.766e+1, 3.136e+2, -1.356e+2, 3.416e+2, -23.4
8.254e+1, 3.228e+2, -1.539e+2, 3.576e+2, -25.5
6.813e+1, 3.327e+2, -1.768e+2, 3.768e+2, -28.0
5.623e+1, 3.433e+2, -2.043e+2, 3.995e+2, -30.8
4.642e+1, 3.550e+2, -2.372e+2, 4.270e+2, -33.7
3.831e+1, 3.684e+2, -2.761e+2, 4.604e+2, -36.9
3.162e+1, 3.836e+2, -3.218e+2, 5.007e+2, -40.0
2.610e+1, 4.012e+2, -3.754e+2, 5.494e+2, -43.1
2.154e+1, 4.214e+2, -4.382e+2, 6.079e+2, -46.1
1.778e+1, 4.448e+2, -5.118e+2, 6.780e+2, -49.0
1.468e+1, 4.722e+2, -5.983e+2, 7.622e+2, -51.7
1.212e+1, 5.044e+2, -6.999e+2, 8.627e+2, -54.2
1.000e+1, 5.426e+2, -8.197e+2, 9.830e+2, -56.5
8.254e+0, 5.878e+2, -9.614e+2, 1.127e+3, -58.6
6.813e+0, 6.407e+2, -1.128e+3, 1.297e+3, -60.4
5.623e+0, 7.033e+2, -1.324e+3, 1.499e+3, -62.0
4.642e+0, 7.781e+2, -1.555e+3, 1.739e+3, -63.4
3.831e+0, 8.697e+2, -1.824e+3, 2.020e+3, -64.5
3.162e+0, 9.823e+2, -2.141e+3, 2.355e+3, -65.4
2.610e+0, 1.120e+3, -2.512e+3, 2.750e+3, -66.0
2.154e+0, 1.289e+3, -2.967e+3, 3.235e+3, -66.5
1.778e+0, 1.502e+3, -3.504e+3, 3.813e+3, -66.8
1.468e+0, 1.777e+3, -4.092e+3, 4.461e+3, -66.5
1.212e+0, 2.134e+3, -4.735e+3, 5.193e+3, -65.7
1.000e+0, 2.603e+3, -5.436e+3, 6.027e+3, -64.4
8.254e-1, 3.198e+3, -6.198e+3, 6.974e+3, -62.7
6.813e-1, 3.933e+3, -7.011e+3, 8.039e+3, -60.7
5.623e-1, 4.831e+3, -7.860e+3, 9.226e+3, -58.4
4.642e-1, 5.921e+3, -8.702e+3, 1.053e+4, -55.8
3.831e-1, 7.219e+3, -9.484e+3, 1.192e+4, -52.7
3.162e-1, 8.715e+3, -1.016e+4, 1.339e+4, -49.4
2.610e-1, 1.038e+4, -1.069e+4, 1.490e+4, -45.8
2.154e-1, 1.216e+4, -1.101e+4, 1.641e+4, -42.2
1.778e-1, 1.400e+4, -1.111e+4, 1.788e+4, -38.4
1.468e-1, 1.583e+4, -1.101e+4, 1.928e+4, -34.8
1.212e-1, 1.760e+4, -1.070e+4, 2.060e+4, -31.3
1.000e-1, 1.929e+4, -1.018e+4, 2.181e+4, -27.8
