EXPLAIN
TAG	EISPOT
TITLE	LABEL	Potentiostatic EIS	Test Identifier
DATE	LABEL	8/22/2020	Date
TIME	LABEL	1:51:03	Time
NOTES	NOTES	1	Notes...
	
PSTAT	PSTAT	REF3000-16137	Potentiostat
VDC	POTEN	0.00000E+000	T	DC Voltage (V)
FREQINIT	QUANT	3.00000E+005	Initial Freq. (Hz)
FREQFINAL	QUANT	1.00000E+000	Final Freq. (Hz)
PTSPERDEC	QUANT	1.00000E+001	Points/decade
VAC	QUANT	5.00000E+001	AC Voltage (mV rms)
AREA	QUANT	1.00000E+000	Sample Area (cm^2)
SPEED	SELECTOR	2	Optimize for:
ZGUESS	QUANT	1.00000E+003	Estimated Z (ohms)
EOC	QUANT	0	Open Circuit (V)
SEQUENCER	TOGGLE	TRUE	Run as Sequence
PSTATMODEL	IQUANT	5	Pstat Model
PSTATSECTION	LABEL	REF3000-16137	Pstat Section
PSTATSERIALNO	LABEL	16137	Pstat Serial Number
CTRLMODE	IQUANT	1	Control Mode
IESTAB	IQUANT	0	I/E Stability
CASPEED	IQUANT	1	Control Amp Speed
CONVENTION	IQUANT	1	Current Convention
ICHRANGE	IQUANT	2	Ich Range
ICHRANGEMODE	TOGGLE	F	Ich Auto Range
ICHOFFSETENABLE	TOGGLE	T	Ich Offset Enable
ICHOFFSET	QUANT	0	Ich Offset (V)
ICHFILTER	IQUANT	3	Ich Filter
VCHRANGE	IQUANT	2	Vch Range
VCHRANGEMODE	TOGGLE	F	Vch Auto Range
VCHOFFSETENABLE	TOGGLE	T	Vch Offset Enable
VCHOFFSET	QUANT	0	Vch Offset (V)
VCHFILTER	IQUANT	3	Vch Filter
ACHRANGE	IQUANT	2	Ach Range
ACHOFFSETENABLE	TOGGLE	F	Ach Offset Enable
ACHOFFSET	QUANT	0	Ach Offset (V)
ACHFILTER	IQUANT	3	Ach Filter
IERANGELOWERLIMIT	IQUANT	2	I/E Range Lower Limit
IERANGEMODE	TOGGLE	F	I/E AutoRange
IERANGE	IQUANT	11	I/E Range
POSFEEDENABLE	TOGGLE	F	Positive Feedback IR Comp
POSFEEDRESISTANCE	QUANT	0	Positive Feedback Resistance (ohm)
ACHSELECT	IQUANT	0	Ach Select
CABLEID	IQUANT	13	Cable ID
DCCALDATE	LABEL	7/31/2020	DC Calibration Date
ACCALDATE	LABEL	7/31/2020	AC Calibration Date
THERMOSELECT	IQUANT	1	Thermo Select
FRAMEWORKVERSION	QUANT	6.33	Framework Version
INSTRUMENTVERSION	LABEL	3.50	Instrument Version
COMPLIANCEVOLTAGE	IQUANT	0	Compliance Voltage
ZCURVE	TABLE
	Pt	Time	Freq	Zreal	Zimag	Zsig	Zmod	Zphz	Idc	Vdc	IERange
	#	s	Hz	ohm	ohm	V	ohm	°	A	V	#
	0	17	300046.9	-87.12566	-4792.332	1	4793.124	-91.04153	1.97993E-005	-0.0010505	9
	1	31	238359.4	25.86506	-5963.033	1	5963.089	-89.75148	5.102747E-005	5.601277E-005	9
	2	47	189328.1	352.0866	-7356.897	1	7365.318	-87.26003	-0.0001059	0.003761	9
	3	57	150421.9	185.3343	-9025.828	1	9027.73	-88.82367	2.723176E-005	-0.0014835	9
	4	69	119484.4	813.8372	-11338.08	1	11367.25	-85.8944	-3.158834E-005	-0.0061508	8
	5	77	94921.88	1057.595	-14257.67	1	14296.84	-85.75773	1.738405E-005	0.0003017	8
	6	85	75421.88	1282.972	-17988.44	1	18034.13	-85.92046	1.639088E-005	-0.0093918	8
	7	93	59859.37	1617.26	-22614.14	1	22671.89	-85.90943	2.257487E-005	-0.0097596	8
	8	101	47578.12	2197.907	-28487.57	1	28572.23	-85.58819	1.743477E-005	0.0002671	8
	9	111	37828.12	2652.203	-35385.82	1	35485.07	-85.71364	2.268119E-005	-0.009779	8
	10	121	30046.88	5922.221	-44778.91	1	45168.84	-82.46609	-2.411248E-005	0.0052608	8
	11	130	23859.38	6673.655	-56546.98	1	56939.43	-83.2691	-2.519528E-005	0.0111698	8
	12	136	18984.38	9368.257	-69399.99	1	70029.45	-82.31216	-1.612242E-005	0.0006014	8
	13	143	15046.87	17700.96	-88270.2	1	90027.51	-78.66078	-7.35394E-006	0.0238194	7
	14	148	11953.13	26819.24	-115894.6	1	118957.3	-76.9705	2.536896E-005	-0.0048229	8
	15	156	9515.62	30259.73	-126639.9	1	130204.9	-76.56153	-2.253526E-006	0.0078962	8
	16	163	7546.875	42897.66	-167185.5	1	172601.3	-75.60909	-6.808086E-006	0.0120724	7
	17	170	5928.309	76835.74	-207545.1	1	221311.3	-69.68483	-6.81327E-006	0.0121037	7
	18	176	4733.456	70792.8	-245754.5	1	255747.7	-73.93026	6.894395E-006	-0.0272871	7
	19	183	3796.875	142760.7	-281066	1	315243.9	-63.0728	-5.24704E-006	0.0268496	7
	20	190	2987.132	148645.7	-379370	1	407452	-68.60364	-3.795607E-006	0.0257322	7
	21	197	2390.625	283091	-381130.2	1	474763.8	-53.39625	-3.860156E-006	0.0257011	7
	22	203	1884.191	390526	-448829.5	1	594944.1	-48.97351	3.512463E-006	-0.0247899	7
	23	210	1516.544	515918.5	-510976.8	1	726133	-44.72427	-3.800326E-006	0.0257791	7
	24	216	1193.986	189154.3	-174301.6	1	257216.6	-42.65989	-2.638173E-005	0.000699	9
	25	225	946.5144	87813.16	-132101.8	1	158625.4	-56.38647	-7.950513E-007	-0.0053323	8
	26	231	751.7689	722880.1	-383383.5	1	818253.4	-27.9395	-4.070689E-007	0.0256801	6
	27	234	597.4265	674308.4	-93406.58	1	680747.1	-7.886541	-2.696739E-005	0.0096364	8
	28	241	477.4305	868443.8	-324977.8	1	927256.8	-20.5162	-4.72757E-007	0.0006714	8
	29	248	376.6741	932296.6	-274083.9	1	971751	-16.3827	-9.757249E-009	0.0006149	6
	30	251	298.2954	1010767	-157162	1	1022912	-8.83803	-1.177314E-009	0.0006415	5
	31	254	237.7717	1028630	-137437.7	1	1037771	-7.610354	-9.987213E-010	0.0006047	5
	32	257	189.0121	1045253	-120720.5	1	1052201	-6.58813	-9.753423E-010	0.0006278	5
	33	259	150.2404	1057063	-108393.8	1	1062606	-5.854789	-1.011341E-009	0.0006143	5
	34	262	119.1737	1105893	-140819.4	1	1114823	-7.256729	-1.07319E-009	0.0006268	5
	35	265	95.0169	1094375	-94323.44	1	1098432	-4.926113	-1.093909E-009	0.0006621	5
	36	267	75.60484	1109761	-92121.95	1	1113578	-4.745279	-1.151083E-009	0.000617	5
	37	270	54.50582	1145072	-101272.5	1	1149541	-5.054204	-1.000358E-009	0.0006794	5
	38	273	45.95588	1150484	-98682.3	1	1154708	-4.90252	-1.385282E-009	0.0006267	5
	39	275	37.20238	1171524	-102054.7	1	1175961	-4.978624	-1.073112E-009	0.0006442	5
	40	278	30.04808	1189555	-108800.1	1	1194520	-5.2259	-9.608719E-010	0.0005877	5
	41	281	23.91582	1214040	-117525.4	1	1219715	-5.529302	-1.291076E-009	0.0007104	5
	42	283	18.60119	1233330	-122419.6	1	1239391	-5.668574	-1.437978E-009	0.0006892	5
	43	286	15.02404	1258480	-148151.9	1	1267170	-6.714124	-9.63987E-010	0.0005888	5
	44	288	12.01923	1283134	-166811.5	1	1293932	-7.407091	-1.366285E-009	0.0006774	5
	45	291	9.450605	1311390	-193503.7	1	1325590	-8.393778	-5.990521E-010	0.0006781	5
	46	294	7.512019	1345509	-221437	1	1363609	-9.345671	-1.035485E-009	0.0007021	5
	47	297	5.978954	1384175	-256833.7	1	1407801	-10.51168	-1.240773E-009	0.0006271	5
	48	301	4.734848	1428794	-298543.1	1	1459651	-11.80202	-5.465186E-010	0.0006164	5
	49	304	3.75601	1481891	-346450.9	1	1521851	-13.15882	-7.905522E-010	0.0006092	5
	50	310	3.004808	1545918	-401733.1	1	1597264	-14.56708	-9.668397E-010	0.0006827	5
	51	316	2.372217	1612433	-470937.8	1	1679798	-16.28132	-8.026638E-010	0.000587	5
	52	321	1.878005	1678530	-551516.3	1	1766814	-18.18903	-7.712301E-010	0.0006412	5
	53	325	1.512097	1747619	-639099.7	1	1860812	-20.08734	-8.405595E-010	0.0006057	5
	54	331	1.201923	1823601	-749789.3	1	1971726	-22.35044	-1.004315E-009	0.0006675	5
	55	337	0.956633	1913663	-888137.8	1	2109715	-24.89618	-1.317657E-009	3.543371E-006	5
