EXPLAIN
TAG	EISPOT
TITLE	LABEL	Potentiostatic EIS	Test Identifier
DATE	LABEL	8/22/2020	Date
TIME	LABEL	3:32:17	Time
NOTES	NOTES	1	Notes...
	
PSTAT	PSTAT	REF3000-16137	Potentiostat
VDC	POTEN	0.00000E+000	T	DC Voltage (V)
FREQINIT	QUANT	3.00000E+005	Initial Freq. (Hz)
FREQFINAL	QUANT	1.00000E+000	Final Freq. (Hz)
PTSPERDEC	QUANT	1.00000E+001	Points/decade
VAC	QUANT	5.00000E+001	AC Voltage (mV rms)
AREA	QUANT	1.00000E+000	Sample Area (cm^2)
SPEED	SELECTOR	2	Optimize for:
ZGUESS	QUANT	1.00000E+003	Estimated Z (ohms)
EOC	QUANT	0	Open Circuit (V)
SEQUENCER	TOGGLE	TRUE	Run as Sequence
PSTATMODEL	IQUANT	5	Pstat Model
PSTATSECTION	LABEL	REF3000-16137	Pstat Section
PSTATSERIALNO	LABEL	16137	Pstat Serial Number
CTRLMODE	IQUANT	1	Control Mode
IESTAB	IQUANT	0	I/E Stability
CASPEED	IQUANT	1	Control Amp Speed
CONVENTION	IQUANT	1	Current Convention
ICHRANGE	IQUANT	2	Ich Range
ICHRANGEMODE	TOGGLE	F	Ich Auto Range
ICHOFFSETENABLE	TOGGLE	T	Ich Offset Enable
ICHOFFSET	QUANT	0	Ich Offset (V)
ICHFILTER	IQUANT	3	Ich Filter
VCHRANGE	IQUANT	2	Vch Range
VCHRANGEMODE	TOGGLE	F	Vch Auto Range
VCHOFFSETENABLE	TOGGLE	T	Vch Offset Enable
VCHOFFSET	QUANT	0	Vch Offset (V)
VCHFILTER	IQUANT	3	Vch Filter
ACHRANGE	IQUANT	2	Ach Range
ACHOFFSETENABLE	TOGGLE	F	Ach Offset Enable
ACHOFFSET	QUANT	0	Ach Offset (V)
ACHFILTER	IQUANT	3	Ach Filter
IERANGELOWERLIMIT	IQUANT	2	I/E Range Lower Limit
IERANGEMODE	TOGGLE	F	I/E AutoRange
IERANGE	IQUANT	11	I/E Range
POSFEEDENABLE	TOGGLE	F	Positive Feedback IR Comp
POSFEEDRESISTANCE	QUANT	0	Positive Feedback Resistance (ohm)
ACHSELECT	IQUANT	0	Ach Select
CABLEID	IQUANT	13	Cable ID
DCCALDATE	LABEL	7/31/2020	DC Calibration Date
ACCALDATE	LABEL	7/31/2020	AC Calibration Date
THERMOSELECT	IQUANT	1	Thermo Select
FRAMEWORKVERSION	QUANT	6.33	Framework Version
INSTRUMENTVERSION	LABEL	3.50	Instrument Version
COMPLIANCEVOLTAGE	IQUANT	0	Compliance Voltage
ZCURVE	TABLE
	Pt	Time	Freq	Zreal	Zimag	Zsig	Zmod	Zphz	Idc	Vdc	IERange
	#	s	Hz	ohm	ohm	V	ohm	°	A	V	#
	0	7	300046.9	86.22649	-4.781596	1	86.35897	-3.174024	-1.15348E-005	0.000759	9
	1	10	238359.4	86.97313	-6.224477	1	87.19558	-4.093554	3.174855E-005	7.374114E-006	9
	2	14	189328.1	87.76202	-7.659963	1	88.09566	-4.988196	-5.196692E-005	0.0007894	9
	3	16	150421.9	88.76241	-9.338289	1	89.25227	-6.005736	5.67825E-006	-0.0009126	9
	4	19	119484.4	89.58038	-11.08477	1	90.26359	-7.05398	-6.453495E-005	0.0027081	9
	5	21	94921.88	90.79701	-12.778	1	91.69174	-8.010715	-1.60967E-005	0.000807	9
	6	24	75421.88	92.06979	-15.14678	1	93.3074	-9.342284	1.296317E-005	-0.0006715	9
	7	26	59859.37	93.61894	-17.77004	1	95.2905	-10.7476	-4.02319E-006	0.0006618	9
	8	29	47578.12	95.3846	-20.6946	1	97.6038	-12.24115	4.702312E-006	-0.0004543	9
	9	31	37828.12	97.3844	-24.06128	1	100.3128	-13.87842	1.098192E-005	0.0001296	9
	10	34	30046.88	99.5387	-27.9198	1	103.3802	-15.66838	2.061579E-005	-0.0005719	9
	11	36	23859.38	101.9388	-32.28976	1	106.9306	-17.57593	2.243013E-005	-0.0004547	9
	12	39	18984.38	104.358	-37.39851	1	110.8568	-19.71604	-1.515119E-005	0.0008116	9
	13	41	15046.87	106.8776	-43.71313	1	115.4714	-22.24466	-1.88819E-005	0.0004556	9
	14	43	11953.13	109.2632	-51.18553	1	120.6582	-25.10124	1.816071E-005	-0.0006763	9
	15	46	9515.62	111.4708	-60.53402	1	126.8468	-28.50409	1.323103E-005	0.0001564	9
	16	48	7546.875	113.6092	-72.60912	1	134.83	-32.58318	-1.217495E-005	0.0007671	9
	17	50	5928.309	115.9821	-88.34247	1	145.7952	-37.29618	-1.602995E-005	0.0003735	9
	18	53	4733.456	118.2347	-107.4412	1	159.7594	-42.26177	2.210078E-005	-0.0002841	9
	19	55	3796.875	120.816	-130.6582	1	177.9553	-47.24129	1.845342E-005	-0.0006971	9
	20	57	2987.132	124.5063	-162.1834	1	204.4634	-52.48698	-2.472845E-006	-0.0002433	9
	21	60	2390.625	127.8872	-199.2201	1	236.7357	-57.30201	-2.945541E-006	-0.0002351	9
	22	62	1884.191	133.4232	-248.4246	1	281.9868	-61.76077	1.190621E-005	-0.0006133	9
	23	64	1516.544	139.6142	-303.999	1	334.5258	-65.33263	2.436001E-005	-0.0006036	9
	24	67	1193.986	148.5547	-380.6024	1	408.5666	-68.67856	-1.640083E-005	0.0003877	9
	25	69	946.5144	160.5526	-469.7773	1	496.4553	-71.13145	-2.767033E-006	0.0006469	8
	26	71	751.7689	175.8444	-583.6011	1	609.5175	-73.23196	1.084002E-006	0.0015565	8
	27	74	597.4265	194.8249	-721.9879	1	747.8123	-74.8987	-4.340361E-006	0.001256	8
	28	76	477.4305	221.0134	-889.6653	1	916.7067	-76.04882	2.577624E-007	0.0006443	8
	29	78	376.6741	257.655	-1107.06	1	1136.648	-76.89832	2.445707E-007	0.0006336	8
	30	81	298.2954	305.6766	-1370.956	1	1404.621	-77.43059	2.5141E-007	0.0006504	8
	31	83	237.7717	367.2874	-1685.08	1	1724.644	-77.70388	2.505431E-007	0.0006466	8
	32	85	189.0121	449.39	-2073.463	1	2121.604	-77.77119	2.389755E-007	0.0006452	8
	33	88	150.2404	557.9216	-2546.933	1	2607.325	-77.64417	2.407785E-007	0.0006475	8
	34	90	119.1737	702.4786	-3130.059	1	3207.919	-77.35072	2.533976E-007	0.0006472	8
	35	93	95.0169	890.6158	-3822.487	1	3924.869	-76.88443	2.578155E-007	0.0006376	8
	36	95	75.60484	1144.38	-4675.253	1	4813.273	-76.24592	2.446847E-008	0.0006218	7
	37	98	54.50582	1657.103	-6190.869	1	6408.81	-75.01498	2.385316E-008	0.000617	7
	38	100	45.95588	2021.618	-7152.803	1	7433.003	-74.21796	2.872702E-008	0.0006215	7
	39	103	37.20238	2597.519	-8522.833	1	8909.87	-73.05026	2.608674E-008	0.0006222	7
	40	105	30.04808	3357.171	-10127.9	1	10669.81	-71.6608	2.483032E-008	0.0006158	7
	41	107	23.91582	4413.645	-12098.19	1	12878.14	-69.95708	2.57568E-008	0.0006272	7
	42	110	18.60119	5950.396	-14602.09	1	15767.95	-67.82896	1.817056E-008	0.0006261	7
	43	112	15.02404	7657.383	-16973.28	1	18620.62	-65.7178	3.71843E-008	0.0006287	7
	44	114	12.01923	9889.84	-19657.53	1	22005.16	-63.29271	2.52164E-008	0.0006189	7
	45	117	9.450605	12901.26	-22713.09	1	26121.39	-60.403	3.130778E-008	0.0006122	7
	46	119	7.512019	16407.27	-25701.72	1	30492.24	-57.44695	3.245332E-008	0.0006151	7
	47	122	5.978954	20560.13	-28493.5	1	35136.86	-54.18681	2.995984E-008	0.0006228	7
	48	125	4.734848	25400.81	-31225.44	1	40252.07	-50.87284	2.218392E-008	0.0006045	7
	49	128	3.75601	30779.98	-33204.35	1	45276.22	-47.16991	6.838862E-009	0.0006776	6
	50	132	3.004808	36324.42	-34596.17	1	50163.32	-43.60405	-2.819159E-010	0.0006913	6
	51	136	2.372217	42288.85	-34998.97	1	54893.3	-39.61174	5.248971E-010	0.0006114	6
	52	140	1.878005	47446.43	-32764.61	1	57660.07	-34.62741	1.592384E-010	0.0006602	6
	53	149	1.512097	51084.43	-30344.77	1	59417.37	-30.71082	-1.856415E-009	0.0006589	6
	54	159	1.201923	54491.2	-27861.54	1	61200.95	-27.08082	-3.478547E-009	0.0006911	6
	55	172	0.956633	57907.61	-25922.13	1	63444.84	-24.1155	-2.194549E-008	2.193722E-005	6
