EXPLAIN
TAG	EISPOT
TITLE	LABEL	Potentiostatic EIS	Test Identifier
DATE	LABEL	8/22/2020	Date
TIME	LABEL	3:26:13	Time
NOTES	NOTES	1	Notes...
	
PSTAT	PSTAT	REF3000-16137	Potentiostat
VDC	POTEN	0.00000E+000	T	DC Voltage (V)
FREQINIT	QUANT	3.00000E+005	Initial Freq. (Hz)
FREQFINAL	QUANT	1.00000E+000	Final Freq. (Hz)
PTSPERDEC	QUANT	1.00000E+001	Points/decade
VAC	QUANT	5.00000E+001	AC Voltage (mV rms)
AREA	QUANT	1.00000E+000	Sample Area (cm^2)
SPEED	SELECTOR	2	Optimize for:
ZGUESS	QUANT	1.00000E+003	Estimated Z (ohms)
EOC	QUANT	0	Open Circuit (V)
SEQUENCER	TOGGLE	TRUE	Run as Sequence
PSTATMODEL	IQUANT	5	Pstat Model
PSTATSECTION	LABEL	REF3000-16137	Pstat Section
PSTATSERIALNO	LABEL	16137	Pstat Serial Number
CTRLMODE	IQUANT	1	Control Mode
IESTAB	IQUANT	0	I/E Stability
CASPEED	IQUANT	1	Control Amp Speed
CONVENTION	IQUANT	1	Current Convention
ICHRANGE	IQUANT	2	Ich Range
ICHRANGEMODE	TOGGLE	F	Ich Auto Range
ICHOFFSETENABLE	TOGGLE	T	Ich Offset Enable
ICHOFFSET	QUANT	0	Ich Offset (V)
ICHFILTER	IQUANT	3	Ich Filter
VCHRANGE	IQUANT	2	Vch Range
VCHRANGEMODE	TOGGLE	F	Vch Auto Range
VCHOFFSETENABLE	TOGGLE	T	Vch Offset Enable
VCHOFFSET	QUANT	0	Vch Offset (V)
VCHFILTER	IQUANT	3	Vch Filter
ACHRANGE	IQUANT	2	Ach Range
ACHOFFSETENABLE	TOGGLE	F	Ach Offset Enable
ACHOFFSET	QUANT	0	Ach Offset (V)
ACHFILTER	IQUANT	3	Ach Filter
IERANGELOWERLIMIT	IQUANT	2	I/E Range Lower Limit
IERANGEMODE	TOGGLE	F	I/E AutoRange
IERANGE	IQUANT	11	I/E Range
POSFEEDENABLE	TOGGLE	F	Positive Feedback IR Comp
POSFEEDRESISTANCE	QUANT	0	Positive Feedback Resistance (ohm)
ACHSELECT	IQUANT	0	Ach Select
CABLEID	IQUANT	13	Cable ID
DCCALDATE	LABEL	7/31/2020	DC Calibration Date
ACCALDATE	LABEL	7/31/2020	AC Calibration Date
THERMOSELECT	IQUANT	1	Thermo Select
FRAMEWORKVERSION	QUANT	6.33	Framework Version
INSTRUMENTVERSION	LABEL	3.50	Instrument Version
COMPLIANCEVOLTAGE	IQUANT	0	Compliance Voltage
ZCURVE	TABLE
	Pt	Time	Freq	Zreal	Zimag	Zsig	Zmod	Zphz	Idc	Vdc	IERange
	#	s	Hz	ohm	ohm	V	ohm	°	A	V	#
	0	7	300046.9	86.30839	-4.799834	1	86.44175	-3.183089	3.029731E-005	-2.58852E-005	9
	1	10	238359.4	86.6545	-6.137692	1	86.8716	-4.051463	-7.549409E-006	0.0006692	9
	2	13	189328.1	87.70745	-7.680251	1	88.04308	-5.004436	1.631882E-005	-0.0005604	9
	3	15	150421.9	88.56455	-9.080383	1	89.02883	-5.85399	1.465921E-005	-0.0011365	9
	4	18	119484.4	89.55582	-11.02653	1	90.23208	-7.019196	-3.208355E-005	-0.0001533	9
	5	21	94921.88	90.83345	-12.74994	1	91.72392	-7.990183	5.067049E-006	-0.0004916	9
	6	23	75421.88	92.13206	-15.12113	1	93.36469	-9.320546	-1.187497E-005	0.0007193	9
	7	26	59859.37	93.69591	-17.74529	1	95.3615	-10.72436	2.356004E-005	-0.0006388	9
	8	28	47578.12	95.4506	-20.6969	1	97.6687	-12.23426	-1.540828E-005	0.0001986	9
	9	31	37828.12	97.3757	-24.05525	1	100.303	-13.87627	1.006926E-005	-0.0005605	9
	10	33	30046.88	99.6053	-27.81715	1	103.4166	-15.60366	-1.192704E-005	0.0008624	9
	11	36	23859.38	101.9764	-32.26024	1	106.9576	-17.55477	2.241146E-005	-0.0005963	9
	12	38	18984.38	104.4298	-37.32659	1	110.9002	-19.66854	-1.021862E-005	2.602087E-005	9
	13	40	15046.87	106.8583	-43.56131	1	115.3962	-22.1785	-3.035221E-006	-0.0002235	9
	14	43	11953.13	109.2684	-51.2328	1	120.683	-25.12052	5.163957E-006	-0.0004686	9
	15	45	9515.62	111.6133	-60.49416	1	126.953	-28.4576	3.936399E-006	0.0004662	9
	16	47	7546.875	113.7822	-72.43548	1	134.8825	-32.48145	1.797323E-005	-0.0006686	9
	17	50	5928.309	116.1246	-88.29718	1	145.8812	-37.24811	-1.152852E-005	0.0007873	9
	18	52	4733.456	118.5274	-107.2346	1	159.8375	-42.1364	-1.977886E-005	0.0006367	9
	19	54	3796.875	121.2007	-130.1086	1	177.8141	-47.03008	-1.045493E-005	5.220026E-005	9
	20	57	2987.132	124.3964	-162.0067	1	204.2563	-52.48124	4.729537E-006	-0.0004509	9
	21	59	2390.625	127.8914	-198.9579	1	236.5174	-57.26684	6.190825E-006	-0.0004912	9
	22	61	1884.191	133.1403	-247.5812	1	281.11	-61.73023	-1.659951E-005	0.0003992	9
	23	64	1516.544	139.978	-303.5882	1	334.3047	-65.2466	-3.120159E-006	-0.0002234	9
	24	66	1193.986	148.7498	-379.3178	1	407.4414	-68.58733	2.203792E-005	-0.0006689	9
	25	68	946.5144	159.8483	-469.6969	1	496.1519	-71.20542	-4.756569E-006	0.0025456	8
	26	71	751.7689	175.2181	-582.5396	1	608.3205	-73.2596	-4.307058E-006	0.0012753	8
	27	73	597.4265	195.2733	-721.8358	1	747.7824	-74.8625	9.955074E-007	0.0015644	8
	28	75	477.4305	220.8216	-887.6866	1	914.7402	-76.0306	2.499511E-007	0.0006509	8
	29	78	376.6741	257.3804	-1104.646	1	1134.235	-76.8842	2.489713E-007	0.0006428	8
	30	80	298.2954	305.2929	-1368.092	1	1401.742	-77.42042	2.392236E-007	0.0006492	8
	31	82	237.7717	367.0585	-1681.711	1	1721.303	-77.68744	2.357172E-007	0.0006442	8
	32	85	189.0121	449.4135	-2069.465	1	2117.701	-77.74766	2.47676E-007	0.0006486	8
	33	87	150.2404	558.3061	-2542.257	1	2602.84	-77.61388	2.489745E-007	0.0006382	8
	34	90	119.1737	703.3434	-3124.727	1	3202.907	-77.31474	2.641145E-007	0.0006474	8
	35	92	95.0169	892.6115	-3814.885	1	3917.921	-76.83078	2.516614E-007	0.000656	8
	36	95	75.60484	1149.275	-4665.936	1	4805.392	-76.16282	2.317156E-008	0.0006159	7
	37	97	54.50582	1666.346	-6176.369	1	6397.206	-74.90144	2.374096E-008	0.0006144	7
	38	100	45.95588	2033.054	-7131.078	1	7415.226	-74.08727	2.956144E-008	0.0006258	7
	39	102	37.20238	2617.369	-8496.072	1	8890.1	-72.8776	2.487286E-008	0.0006157	7
	40	104	30.04808	3377.263	-10084.69	1	10635.17	-71.4848	2.496899E-008	0.0006105	7
	41	107	23.91582	4435.509	-12028.13	1	12819.89	-69.75797	2.305514E-008	0.0006605	7
	42	109	18.60119	6005.494	-14516.53	1	15709.73	-67.5251	3.375321E-008	0.0006048	7
	43	111	15.02404	7723.109	-16855.49	1	18540.6	-65.38296	3.485348E-008	0.0006274	7
	44	114	12.01923	9963.09	-19493.91	1	21892.36	-62.92899	1.740101E-008	0.0006204	7
	45	116	9.450605	12990.91	-22484.12	1	25967.27	-59.98148	3.082632E-008	0.000619	7
	46	119	7.512019	16467.88	-25395.17	1	30267.24	-57.03801	2.90543E-008	0.0006355	7
	47	121	5.978954	20595.29	-28085.14	1	34827.3	-53.74679	2.743551E-008	0.0006222	7
	48	125	4.734848	25447.03	-30530.07	1	39744.64	-50.18855	2.687976E-008	0.0006419	7
	49	128	3.75601	30767.82	-32531.65	1	44776.86	-46.59613	-1.433944E-009	0.0006542	6
	50	131	3.004808	36166.22	-33796.62	1	49499.57	-43.06017	-7.000224E-009	0.0006997	6
	51	135	2.372217	42040.98	-34098.08	1	54130.61	-39.04439	6.325647E-010	0.0007064	6
	52	139	1.878005	46956.32	-31782.64	1	56701.26	-34.09232	-4.147201E-009	0.0006377	6
	53	148	1.512097	50580.29	-29480.66	1	58544.64	-30.23572	-5.019024E-009	0.0007637	6
	54	159	1.201923	53830.22	-27026.29	1	60233.82	-26.65964	-4.62849E-009	0.0006474	6
	55	172	0.956633	57222.55	-25203.01	1	62526.89	-23.77053	-2.540686E-008	2.464475E-005	6
