EXPLAIN
TAG	EISPOT
TITLE	LABEL	Potentiostatic EIS	Test Identifier
DATE	LABEL	8/22/2020	Date
TIME	LABEL	1:20:21	Time
NOTES	NOTES	1	Notes...
	
PSTAT	PSTAT	REF3000-16137	Potentiostat
VDC	POTEN	0.00000E+000	T	DC Voltage (V)
FREQINIT	QUANT	3.00000E+005	Initial Freq. (Hz)
FREQFINAL	QUANT	1.00000E+000	Final Freq. (Hz)
PTSPERDEC	QUANT	1.00000E+001	Points/decade
VAC	QUANT	5.00000E+001	AC Voltage (mV rms)
AREA	QUANT	1.00000E+000	Sample Area (cm^2)
SPEED	SELECTOR	2	Optimize for:
ZGUESS	QUANT	1.00000E+003	Estimated Z (ohms)
EOC	QUANT	0	Open Circuit (V)
SEQUENCER	TOGGLE	TRUE	Run as Sequence
PSTATMODEL	IQUANT	5	Pstat Model
PSTATSECTION	LABEL	REF3000-16137	Pstat Section
PSTATSERIALNO	LABEL	16137	Pstat Serial Number
CTRLMODE	IQUANT	1	Control Mode
IESTAB	IQUANT	0	I/E Stability
CASPEED	IQUANT	1	Control Amp Speed
CONVENTION	IQUANT	1	Current Convention
ICHRANGE	IQUANT	2	Ich Range
ICHRANGEMODE	TOGGLE	F	Ich Auto Range
ICHOFFSETENABLE	TOGGLE	T	Ich Offset Enable
ICHOFFSET	QUANT	0	Ich Offset (V)
ICHFILTER	IQUANT	3	Ich Filter
VCHRANGE	IQUANT	2	Vch Range
VCHRANGEMODE	TOGGLE	F	Vch Auto Range
VCHOFFSETENABLE	TOGGLE	T	Vch Offset Enable
VCHOFFSET	QUANT	0	Vch Offset (V)
VCHFILTER	IQUANT	3	Vch Filter
ACHRANGE	IQUANT	2	Ach Range
ACHOFFSETENABLE	TOGGLE	F	Ach Offset Enable
ACHOFFSET	QUANT	0	Ach Offset (V)
ACHFILTER	IQUANT	3	Ach Filter
IERANGELOWERLIMIT	IQUANT	2	I/E Range Lower Limit
IERANGEMODE	TOGGLE	F	I/E AutoRange
IERANGE	IQUANT	11	I/E Range
POSFEEDENABLE	TOGGLE	F	Positive Feedback IR Comp
POSFEEDRESISTANCE	QUANT	0	Positive Feedback Resistance (ohm)
ACHSELECT	IQUANT	0	Ach Select
CABLEID	IQUANT	13	Cable ID
DCCALDATE	LABEL	7/31/2020	DC Calibration Date
ACCALDATE	LABEL	7/31/2020	AC Calibration Date
THERMOSELECT	IQUANT	1	Thermo Select
FRAMEWORKVERSION	QUANT	6.33	Framework Version
INSTRUMENTVERSION	LABEL	3.50	Instrument Version
COMPLIANCEVOLTAGE	IQUANT	0	Compliance Voltage
ZCURVE	TABLE
	Pt	Time	Freq	Zreal	Zimag	Zsig	Zmod	Zphz	Idc	Vdc	IERange
	#	s	Hz	ohm	ohm	V	ohm	°	A	V	#
	0	14	300046.9	2386.643	-2643.072	1	3561.164	-47.91857	-2.202598E-005	0.0010413	9
	1	28	238359.4	2969.776	-2687.795	1	4005.473	-42.14666	2.130707E-005	-0.0010016	9
	2	53	189328.1	3490.597	-2583.546	1	4342.692	-36.50679	2.499635E-005	0.0010992	9
	3	61	150421.9	4172.481	-2574.935	1	4903.049	-31.6797	7.805224E-005	-0.001567	9
	4	76	119484.4	4582.043	-2163.683	1	5067.213	-25.27711	-0.0001072	0.0037962	9
	5	87	94921.88	4996.383	-1915.657	1	5351.036	-20.97726	1.690244E-005	0.0002019	8
	6	95	75421.88	5340.627	-1688.035	1	5601.05	-17.54041	-2.515828E-005	0.0073441	8
	7	102	59859.37	5551.73	-1480.358	1	5745.708	-14.93042	7.268973E-006	-0.0072601	8
	8	110	47578.12	6189.703	-661.6188	1	6224.962	-6.101193	3.888045E-006	0.0019981	7
	9	113	37828.12	6205.078	-568.8743	1	6231.101	-5.238167	3.725552E-006	-0.0230785	7
	10	117	30046.88	6232.751	-470.9973	1	6250.522	-4.32152	-2.51242E-006	-0.0069933	7
	11	121	23859.38	6275.577	-433.9902	1	6290.565	-3.956016	-6.589606E-006	0.020055	7
	12	125	18984.38	6341.408	-416.0233	1	6355.04	-3.753468	1.848868E-006	0.010151	7
	13	130	15046.87	6361.144	-418.9991	1	6374.928	-3.768544	-2.437327E-006	-0.0069569	7
	14	133	11953.13	6463.679	-403.965	1	6476.29	-3.576202	-3.844124E-006	0.0237428	7
	15	137	9515.62	6506.569	-431.1003	1	6520.835	-3.790658	-6.163748E-006	0.0228066	7
	16	141	7546.875	6596.056	-450.7078	1	6611.437	-3.908938	6.748965E-006	-0.0148762	7
	17	145	5928.309	6726.685	-580.9363	1	6751.724	-4.935985	-2.55451E-005	0.0093097	8
	18	151	4733.456	6718.969	-638.9031	1	6749.277	-5.431892	-1.123609E-005	0.0097753	8
	19	156	3796.875	6852.781	-672.3845	1	6885.688	-5.603838	-2.359057E-005	0.0106343	8
	20	162	2987.132	7001.374	-727.3453	1	7039.053	-5.930959	-1.443411E-006	-0.0047793	8
	21	167	2390.625	7119.922	-755.903	1	7159.936	-6.060238	-3.820061E-006	0.0235665	7
	22	171	1884.191	7250.004	-921.3784	1	7308.317	-7.2427	-6.187862E-006	0.0229552	7
	23	175	1516.544	7365.788	-1038.221	1	7438.597	-8.023089	-2.588526E-007	0.0168308	7
	24	180	1193.986	7544.624	-1148.104	1	7631.48	-8.652606	-2.571029E-006	-0.0066773	7
	25	184	946.5144	7689.691	-1370.992	1	7810.952	-10.10902	-2.450431E-006	-0.0071121	7
	26	187	751.7689	7868.688	-1608.978	1	8031.504	-11.55645	-5.257866E-006	0.0244518	7
	27	189	597.4265	8055.004	-1886.842	1	8273.045	-13.18354	-4.467837E-006	0.0010337	7
	28	192	477.4305	8208.809	-2123.461	1	8479.011	-14.50339	-8.146436E-008	0.0006057	7
	29	194	376.6741	8426.143	-2475.158	1	8782.157	-16.37002	-8.65661E-008	0.0005776	7
	30	197	298.2954	8653.94	-2883.549	1	9121.707	-18.42841	-8.50643E-008	0.0006293	7
	31	199	237.7717	8881.444	-3353.676	1	9493.534	-20.68678	-8.551758E-008	0.0005796	7
	32	201	189.0121	9115.498	-3930.143	1	9926.65	-23.32327	-8.752583E-008	0.0006624	7
	33	204	150.2404	9350.44	-4645.78	1	10440.98	-26.42055	-8.943113E-008	0.0006586	7
	34	206	119.1737	9562.94	-5539.105	1	11051.32	-30.08053	-8.982659E-008	0.0006511	7
	35	209	95.0169	9792.1	-6647.613	1	11835.37	-34.17162	-8.571443E-008	0.0005814	7
	36	211	75.60484	10021.41	-8056.015	1	12858	-38.79511	-8.091983E-008	0.0005897	7
	37	214	54.50582	10358.63	-10723.3	1	14909.4	-45.99099	-8.055574E-008	0.0005721	7
	38	216	45.95588	10585.03	-12518.3	1	16393.62	-49.78334	-8.286677E-008	0.0005723	7
	39	219	37.20238	10882.29	-15186.83	1	18683.25	-54.3761	-8.189858E-008	0.000606	7
	40	221	30.04808	11244.68	-18501.96	1	21650.99	-58.7106	-8.192299E-008	0.0005658	7
	41	223	23.91582	11720.75	-22895.17	1	25720.91	-62.89068	-9.02491E-008	0.0006554	7
	42	226	18.60119	12370.52	-28975.03	1	31505.27	-66.88056	-8.326572E-008	0.0005719	7
	43	228	15.02404	13097.48	-35395.57	1	37741.1	-69.69393	-8.63983E-008	0.0006525	7
	44	230	12.01923	14073.23	-43738.29	1	45946.64	-72.1639	-8.906237E-009	0.0006112	6
	45	233	9.450605	15375.5	-54811.12	1	56926.84	-74.33024	-9.164896E-009	0.000692	6
	46	235	7.512019	16961.89	-67958.99	1	70043.77	-75.98586	-8.934481E-009	0.0006574	6
	47	238	5.978954	19035.56	-84142.48	1	86268.82	-77.25255	-8.896363E-009	0.0006205	6
	48	241	4.734848	21709.11	-104654.2	1	106882.1	-78.28097	-9.211166E-009	0.0006235	6
	49	244	3.75601	25281.35	-129885.5	1	132323.1	-78.98548	-9.060478E-009	0.0007115	6
	50	248	3.004808	29670.57	-159838	1	162568.6	-79.48394	-8.514689E-009	0.0005862	6
	51	253	2.372217	35767.49	-199298.6	1	202482.8	-79.82562	-9.388668E-009	0.0005778	6
	52	257	1.878005	43740.21	-247524.5	1	251359.5	-79.97868	-9.184274E-009	0.0006568	6
	53	261	1.512097	53941.66	-301987.5	1	306767.2	-79.87251	-9.458714E-009	0.0005737	6
	54	267	1.201923	67522.63	-373884.2	1	379932.4	-79.76286	-9.491551E-009	0.0006804	6
	55	273	0.956633	86080.52	-461396.6	1	469357.8	-79.4321	-1.248552E-009	-2.334534E-006	5
