EXPLAIN
TAG	EISPOT
TITLE	LABEL	Potentiostatic EIS	Test Identifier
DATE	LABEL	8/22/2020	Date
TIME	LABEL	0:26:50	Time
NOTES	NOTES	1	Notes...
	
PSTAT	PSTAT	REF3000-16137	Potentiostat
VDC	POTEN	0.00000E+000	T	DC Voltage (V)
FREQINIT	QUANT	3.00000E+005	Initial Freq. (Hz)
FREQFINAL	QUANT	1.00000E+000	Final Freq. (Hz)
PTSPERDEC	QUANT	1.00000E+001	Points/decade
VAC	QUANT	5.00000E+001	AC Voltage (mV rms)
AREA	QUANT	1.00000E+000	Sample Area (cm^2)
SPEED	SELECTOR	2	Optimize for:
ZGUESS	QUANT	1.00000E+003	Estimated Z (ohms)
EOC	QUANT	0	Open Circuit (V)
SEQUENCER	TOGGLE	TRUE	Run as Sequence
PSTATMODEL	IQUANT	5	Pstat Model
PSTATSECTION	LABEL	REF3000-16137	Pstat Section
PSTATSERIALNO	LABEL	16137	Pstat Serial Number
CTRLMODE	IQUANT	1	Control Mode
IESTAB	IQUANT	0	I/E Stability
CASPEED	IQUANT	1	Control Amp Speed
CONVENTION	IQUANT	1	Current Convention
ICHRANGE	IQUANT	2	Ich Range
ICHRANGEMODE	TOGGLE	F	Ich Auto Range
ICHOFFSETENABLE	TOGGLE	T	Ich Offset Enable
ICHOFFSET	QUANT	0	Ich Offset (V)
ICHFILTER	IQUANT	3	Ich Filter
VCHRANGE	IQUANT	2	Vch Range
VCHRANGEMODE	TOGGLE	F	Vch Auto Range
VCHOFFSETENABLE	TOGGLE	T	Vch Offset Enable
VCHOFFSET	QUANT	0	Vch Offset (V)
VCHFILTER	IQUANT	3	Vch Filter
ACHRANGE	IQUANT	2	Ach Range
ACHOFFSETENABLE	TOGGLE	F	Ach Offset Enable
ACHOFFSET	QUANT	0	Ach Offset (V)
ACHFILTER	IQUANT	3	Ach Filter
IERANGELOWERLIMIT	IQUANT	2	I/E Range Lower Limit
IERANGEMODE	TOGGLE	F	I/E AutoRange
IERANGE	IQUANT	11	I/E Range
POSFEEDENABLE	TOGGLE	F	Positive Feedback IR Comp
POSFEEDRESISTANCE	QUANT	0	Positive Feedback Resistance (ohm)
ACHSELECT	IQUANT	0	Ach Select
CABLEID	IQUANT	13	Cable ID
DCCALDATE	LABEL	7/31/2020	DC Calibration Date
ACCALDATE	LABEL	7/31/2020	AC Calibration Date
THERMOSELECT	IQUANT	1	Thermo Select
FRAMEWORKVERSION	QUANT	6.33	Framework Version
INSTRUMENTVERSION	LABEL	3.50	Instrument Version
COMPLIANCEVOLTAGE	IQUANT	0	Compliance Voltage
ZCURVE	TABLE
	Pt	Time	Freq	Zreal	Zimag	Zsig	Zmod	Zphz	Idc	Vdc	IERange
	#	s	Hz	ohm	ohm	V	ohm	°	A	V	#
	0	7	300046.9	109.1952	-6.200727	1	109.3711	-3.25009	-6.443503E-006	0.0008926	9
	1	10	238359.4	110.0487	-7.866937	1	110.3295	-4.088888	-7.28141E-005	0.0028048	9
	2	13	189328.1	111.1347	-9.371736	1	111.5292	-4.820218	8.008154E-006	-0.0014809	9
	3	16	150421.9	111.9297	-11.12719	1	112.4814	-5.677252	1.006959E-005	0.0008357	9
	4	18	119484.4	113.3549	-12.91399	1	114.0882	-6.499415	-3.111091E-005	-0.0002589	9
	5	21	94921.88	114.7891	-15.06501	1	115.7734	-7.476816	-1.762946E-005	0.000796	9
	6	23	75421.88	116.3412	-17.69761	1	117.6796	-8.649417	-9.754401E-006	-5.095033E-005	9
	7	26	59859.37	118.1505	-20.68205	1	119.947	-9.92894	2.346333E-005	-0.0007127	9
	8	28	47578.12	120.3836	-24.02976	1	122.7585	-11.28844	-1.992862E-005	0.0004684	9
	9	31	37828.12	122.7515	-27.79875	1	125.8598	-12.76018	-2.017984E-005	0.000479	9
	10	33	30046.88	125.3895	-32.14822	1	129.4451	-14.38014	1.939284E-005	-0.0001612	9
	11	36	23859.38	128.2494	-37.22081	1	133.5414	-16.18389	-1.860724E-005	0.0008395	9
	12	38	18984.38	131.2205	-43.06633	1	138.1069	-18.16974	-2.00472E-005	0.0004792	9
	13	41	15046.87	134.3723	-50.06831	1	143.3972	-20.43583	-2.036554E-006	-0.0002846	9
	14	43	11953.13	137.1214	-58.45425	1	149.061	-23.08834	3.076781E-006	-0.0004598	9
	15	45	9515.62	140.0561	-68.99344	1	156.1275	-26.22545	2.447528E-005	-0.0004876	9
	16	48	7546.875	142.5619	-82.66067	1	164.7929	-30.10614	2.510835E-005	-0.0006001	9
	17	50	5928.309	145.4124	-100.1703	1	176.5753	-34.56181	5.778359E-006	-0.0005157	9
	18	52	4733.456	147.6595	-121.3237	1	191.1093	-39.40806	2.461526E-005	-0.0006011	9
	19	54	3796.875	150.4994	-146.9277	1	210.3279	-44.31198	1.930687E-005	-0.0007412	9
	20	57	2987.132	153.5753	-183.4005	1	239.2094	-50.05798	2.243599E-005	-0.0002648	9
	21	59	2390.625	157.4657	-225.0594	1	274.6765	-55.02095	2.145294E-006	0.0005904	9
	22	63	1884.191	161.4053	-280.2632	1	323.4179	-60.0621	-2.027216E-005	0.0007855	9
	23	65	1516.544	167.8317	-345.2811	1	383.9095	-64.07689	1.323905E-005	-0.0006762	9
	24	67	1193.986	175.0105	-430.4216	1	464.6411	-67.87321	1.09971E-006	-0.0009834	8
	25	70	946.5144	183.8612	-536.498	1	567.1288	-71.0831	-5.087918E-006	0.0030395	8
	26	72	751.7689	196.8229	-667.5938	1	696.0034	-73.5732	5.058327E-006	-0.0017544	8
	27	74	597.4265	215.6533	-830.0408	1	857.5979	-75.43596	1.078704E-006	-0.0009692	8
	28	77	477.4305	237.2466	-1026.787	1	1053.839	-76.98972	2.044775E-007	0.00064	8
	29	79	376.6741	268.5233	-1284.07	1	1311.846	-78.18858	1.900435E-007	0.0006402	8
	30	81	298.2954	309.4319	-1598.41	1	1628.086	-79.04379	2.10033E-007	0.0006407	8
	31	83	237.7717	361.8224	-1975.627	1	2008.486	-79.62169	1.617554E-007	0.0006883	8
	32	86	189.0121	431.1142	-2445.413	1	2483.124	-80.00177	1.866846E-007	0.0006419	8
	33	88	150.2404	521.5081	-3023.61	1	3068.255	-80.21399	2.096557E-007	0.0006433	8
	34	91	119.1737	640.0496	-3742.741	1	3797.074	-80.29567	1.946904E-007	0.0006461	8
	35	93	95.0169	793.9769	-4614.236	1	4682.048	-80.23666	1.574136E-008	0.0006205	7
	36	96	75.60484	992.36	-5684.259	1	5770.232	-80.09708	1.438269E-008	0.0006245	7
	37	98	54.50582	1389.206	-7649.248	1	7774.374	-79.70651	1.463217E-008	0.0006173	7
	38	101	45.95588	1668.652	-8925.514	1	9080.153	-79.41062	1.95111E-008	0.0006161	7
	39	103	37.20238	2107.304	-10789.1	1	10992.97	-78.94824	1.950659E-008	0.0006211	7
	40	105	30.04808	2699.157	-13058.51	1	13334.55	-78.32159	1.746808E-008	0.0006102	7
	41	108	23.91582	3533.481	-15980.11	1	16366.11	-77.53152	1.930499E-008	0.0006152	7
	42	110	18.60119	4756.18	-19848.91	1	20410.8	-76.5249	1.438529E-008	0.0006287	7
	43	112	15.02404	6178.747	-23815.04	1	24603.52	-75.45545	2.547292E-008	0.0006264	7
	44	115	12.01923	8133.093	-28674	1	29805.12	-74.16454	2.111716E-008	0.0006128	7
	45	117	9.450605	10970.05	-34850.82	1	36536.59	-72.52747	1.77632E-008	0.0006192	7
	46	120	7.512019	14403.88	-41646.5	1	44067.02	-70.92151	4.809267E-009	0.0006565	6
	47	122	5.978954	18899.5	-49363.01	1	52857.34	-69.04977	6.349753E-009	0.000667	6
	48	125	4.734848	24598.72	-58402.87	1	63371.86	-67.15965	4.314324E-009	0.0006416	6
	49	129	3.75601	31661.86	-68425.66	1	75395.91	-65.16911	7.083193E-009	0.0006739	6
	50	132	3.004808	39975.59	-78991.36	1	88530.69	-63.15714	3.75572E-009	0.0006952	6
	51	136	2.372217	50641.3	-91359.52	1	104456.2	-61.00005	4.621184E-009	0.0007047	6
	52	140	1.878005	63643.85	-104149.1	1	122055.7	-58.57158	3.492904E-009	0.0006378	6
	53	145	1.512097	77671.06	-116734.3	1	140213	-56.36154	2.035023E-009	0.0007441	6
	54	150	1.201923	95344.9	-130878.5	1	161925.4	-53.92669	2.359787E-009	0.0006236	6
	55	156	0.956633	115501.4	-144794	1	185218.5	-51.42082	-1.575901E-009	1.500609E-005	6
