EXPLAIN
TAG	EISPOT
TITLE	LABEL	Potentiostatic EIS	Test Identifier
DATE	LABEL	8/22/2020	Date
TIME	LABEL	0:37:51	Time
NOTES	NOTES	1	Notes...
	
PSTAT	PSTAT	REF3000-16137	Potentiostat
VDC	POTEN	0.00000E+000	T	DC Voltage (V)
FREQINIT	QUANT	3.00000E+005	Initial Freq. (Hz)
FREQFINAL	QUANT	1.00000E+000	Final Freq. (Hz)
PTSPERDEC	QUANT	1.00000E+001	Points/decade
VAC	QUANT	5.00000E+001	AC Voltage (mV rms)
AREA	QUANT	1.00000E+000	Sample Area (cm^2)
SPEED	SELECTOR	2	Optimize for:
ZGUESS	QUANT	1.00000E+003	Estimated Z (ohms)
EOC	QUANT	0	Open Circuit (V)
SEQUENCER	TOGGLE	TRUE	Run as Sequence
PSTATMODEL	IQUANT	5	Pstat Model
PSTATSECTION	LABEL	REF3000-16137	Pstat Section
PSTATSERIALNO	LABEL	16137	Pstat Serial Number
CTRLMODE	IQUANT	1	Control Mode
IESTAB	IQUANT	0	I/E Stability
CASPEED	IQUANT	1	Control Amp Speed
CONVENTION	IQUANT	1	Current Convention
ICHRANGE	IQUANT	2	Ich Range
ICHRANGEMODE	TOGGLE	F	Ich Auto Range
ICHOFFSETENABLE	TOGGLE	T	Ich Offset Enable
ICHOFFSET	QUANT	0	Ich Offset (V)
ICHFILTER	IQUANT	3	Ich Filter
VCHRANGE	IQUANT	2	Vch Range
VCHRANGEMODE	TOGGLE	F	Vch Auto Range
VCHOFFSETENABLE	TOGGLE	T	Vch Offset Enable
VCHOFFSET	QUANT	0	Vch Offset (V)
VCHFILTER	IQUANT	3	Vch Filter
ACHRANGE	IQUANT	2	Ach Range
ACHOFFSETENABLE	TOGGLE	F	Ach Offset Enable
ACHOFFSET	QUANT	0	Ach Offset (V)
ACHFILTER	IQUANT	3	Ach Filter
IERANGELOWERLIMIT	IQUANT	2	I/E Range Lower Limit
IERANGEMODE	TOGGLE	F	I/E AutoRange
IERANGE	IQUANT	11	I/E Range
POSFEEDENABLE	TOGGLE	F	Positive Feedback IR Comp
POSFEEDRESISTANCE	QUANT	0	Positive Feedback Resistance (ohm)
ACHSELECT	IQUANT	0	Ach Select
CABLEID	IQUANT	13	Cable ID
DCCALDATE	LABEL	7/31/2020	DC Calibration Date
ACCALDATE	LABEL	7/31/2020	AC Calibration Date
THERMOSELECT	IQUANT	1	Thermo Select
FRAMEWORKVERSION	QUANT	6.33	Framework Version
INSTRUMENTVERSION	LABEL	3.50	Instrument Version
COMPLIANCEVOLTAGE	IQUANT	0	Compliance Voltage
ZCURVE	TABLE
	Pt	Time	Freq	Zreal	Zimag	Zsig	Zmod	Zphz	Idc	Vdc	IERange
	#	s	Hz	ohm	ohm	V	ohm	°	A	V	#
	0	8	300046.9	132.4634	-7.403054	1	132.6701	-3.198793	7.299236E-005	-0.0030009	9
	1	11	238359.4	133.3815	-9.317762	1	133.7065	-3.996076	-8.085151E-005	0.0018901	9
	2	14	189328.1	134.7401	-11.07279	1	135.1943	-4.697949	-8.104328E-006	-0.0011176	9
	3	17	150421.9	135.8397	-12.5632	1	136.4194	-5.283994	3.319541E-005	0.0003976	9
	4	21	119484.4	136.874	-14.90248	1	137.6829	-6.213736	-6.861318E-005	0.0030247	9
	5	23	94921.88	138.8055	-17.1199	1	139.8573	-7.031197	-1.759197E-005	0.0008673	9
	6	26	75421.88	140.7655	-20.04614	1	142.1857	-8.104882	-1.036486E-005	0.0007867	9
	7	28	59859.37	142.9221	-23.32014	1	144.8122	-9.267102	2.08744E-005	-0.0008276	9
	8	31	47578.12	145.356	-26.88647	1	147.8217	-10.47954	-9.507625E-006	-7.218862E-005	9
	9	33	37828.12	148.1946	-31.12855	1	151.4286	-11.86262	2.339099E-005	-0.0002658	9
	10	36	30046.88	151.2802	-35.82422	1	155.4641	-13.32263	-1.566592E-005	0.000217	9
	11	38	23859.38	154.6801	-41.45574	1	160.1391	-15.00322	2.335927E-005	-0.0003093	9
	12	41	18984.38	158.1805	-47.80477	1	165.2464	-16.81569	1.816321E-005	-0.0006259	9
	13	43	15046.87	162.084	-55.50184	1	171.3233	-18.90255	-1.393613E-005	0.0009352	9
	14	45	11953.13	165.9414	-64.95833	1	178.2025	-21.37803	2.477681E-005	-0.0004203	9
	15	48	9515.62	169.2457	-75.52404	1	185.3321	-24.04829	-2.099439E-006	-0.0003188	9
	16	50	7546.875	172.7669	-89.44945	1	194.5497	-27.3727	-1.981175E-005	0.0005012	9
	17	52	5928.309	175.7485	-108.6191	1	206.6051	-31.71762	2.568947E-005	-0.0004743	9
	18	54	4733.456	178.5306	-130.3204	1	221.0353	-36.128	-2.044834E-005	0.0004929	9
	19	57	3796.875	181.0274	-158.0845	1	240.3365	-41.12951	-1.514478E-005	0.0009026	9
	20	59	2987.132	184.9709	-196.1112	1	269.5808	-46.67446	-2.166262E-005	0.0008211	9
	21	61	2390.625	188.2741	-240.4541	1	305.3937	-51.93927	2.582203E-005	-0.0004275	9
	22	64	1884.191	193.9936	-299.2368	1	356.6176	-57.04487	-6.372903E-006	0.0007693	9
	23	66	1516.544	198.5597	-368.1806	1	418.3096	-61.66202	-2.1627E-005	0.0006671	9
	24	68	1193.986	205.3222	-459.7052	1	503.474	-65.9326	3.745899E-006	-0.0018818	8
	25	71	946.5144	215.0438	-573.0403	1	612.0613	-69.43048	-1.598785E-006	0.0028532	8
	26	73	751.7689	225.3881	-714.4188	1	749.1288	-72.49032	8.24959E-006	-0.00112	8
	27	76	597.4265	242.372	-890.3815	1	922.7803	-74.7724	6.630571E-006	-0.0001573	8
	28	78	477.4305	263.5518	-1101.731	1	1132.816	-76.54675	1.421482E-007	0.0006376	8
	29	80	376.6741	292.7436	-1380.024	1	1410.732	-78.02341	1.490052E-007	0.0006424	8
	30	83	298.2954	331.0186	-1721.261	1	1752.802	-79.11426	1.312979E-007	0.0006436	8
	31	85	237.7717	380.1618	-2131.793	1	2165.425	-79.88876	1.519342E-007	0.0006371	8
	32	87	189.0121	445.3118	-2644.512	1	2681.743	-80.44158	1.449203E-007	0.0006511	8
	33	90	150.2404	530.6533	-3277.944	1	3320.619	-80.80439	1.592789E-007	0.0006373	8
	34	92	119.1737	642.8257	-4067.283	1	4117.769	-81.01881	1.612029E-007	0.0006452	8
	35	94	95.0169	787.3156	-5026.203	1	5087.493	-81.0974	9.533427E-009	0.0006082	7
	36	97	75.60484	973.018	-6207.638	1	6283.434	-81.09164	8.618398E-009	0.0006083	7
	37	99	54.50582	1341.501	-8387.108	1	8493.716	-80.91263	8.257922E-009	0.0006191	7
	38	102	45.95588	1597.476	-9810.9	1	9940.1	-80.75188	8.458404E-009	0.000633	7
	39	104	37.20238	1999.124	-11893.36	1	12060.2	-80.45849	8.557926E-009	0.0006134	7
	40	107	30.04808	2542.727	-14460.03	1	14681.89	-80.02677	6.845306E-009	0.0006155	7
	41	109	23.91582	3307.867	-17782.06	1	18087.11	-79.46214	7.290488E-009	0.0006122	7
	42	112	18.60119	4438.199	-22220.97	1	22659.86	-78.70493	7.990518E-009	0.0006172	7
	43	114	15.02404	5745.912	-26840.98	1	27449.12	-77.91693	1.434099E-008	0.0006213	7
	44	116	12.01923	7546.491	-32571.11	1	33433.91	-76.95515	1.181876E-008	0.000621	7
	45	119	9.450605	10163.34	-39972.45	1	41244.28	-75.73434	6.287873E-009	0.0006165	7
	46	121	7.512019	13474.22	-48386.72	1	50227.77	-74.43911	-9.876171E-010	0.0006591	6
	47	124	5.978954	17712.35	-58156.66	1	60794.11	-73.06122	1.056445E-010	0.0006635	6
	48	127	4.734848	23450.42	-69865.48	1	73696.05	-71.44562	2.295053E-009	0.0006611	6
	49	130	3.75601	30530.96	-83224.59	1	88648.02	-69.85443	4.78193E-010	0.0006632	6
	50	133	3.004808	39096.31	-97876.8	1	105396.3	-68.22605	2.054163E-009	0.0006422	6
	51	137	2.372217	50241.75	-115472.3	1	125928.9	-66.48624	7.000016E-010	0.0006499	6
	52	141	1.878005	64107.05	-135250	1	149673.9	-64.63956	9.508472E-011	0.0006547	6
	53	146	1.512097	79058.41	-155812.3	1	174721.8	-63.09699	6.487923E-010	0.000567	6
	54	152	1.201923	98459.3	-180015.5	1	205182.3	-61.32359	-1.569243E-010	0.0006567	6
	55	158	0.956633	121183.3	-206606.1	1	239523.4	-59.60654	-8.865322E-010	1.891777E-005	6
