EXPLAIN
TAG	EISPOT
TITLE	LABEL	Potentiostatic EIS	Test Identifier
DATE	LABEL	8/22/2020	Date
TIME	LABEL	0:21:20	Time
NOTES	NOTES	1	Notes...
	
PSTAT	PSTAT	REF3000-16137	Potentiostat
VDC	POTEN	0.00000E+000	T	DC Voltage (V)
FREQINIT	QUANT	3.00000E+005	Initial Freq. (Hz)
FREQFINAL	QUANT	1.00000E+000	Final Freq. (Hz)
PTSPERDEC	QUANT	1.00000E+001	Points/decade
VAC	QUANT	5.00000E+001	AC Voltage (mV rms)
AREA	QUANT	1.00000E+000	Sample Area (cm^2)
SPEED	SELECTOR	2	Optimize for:
ZGUESS	QUANT	1.00000E+003	Estimated Z (ohms)
EOC	QUANT	0	Open Circuit (V)
SEQUENCER	TOGGLE	TRUE	Run as Sequence
PSTATMODEL	IQUANT	5	Pstat Model
PSTATSECTION	LABEL	REF3000-16137	Pstat Section
PSTATSERIALNO	LABEL	16137	Pstat Serial Number
CTRLMODE	IQUANT	1	Control Mode
IESTAB	IQUANT	0	I/E Stability
CASPEED	IQUANT	1	Control Amp Speed
CONVENTION	IQUANT	1	Current Convention
ICHRANGE	IQUANT	2	Ich Range
ICHRANGEMODE	TOGGLE	F	Ich Auto Range
ICHOFFSETENABLE	TOGGLE	T	Ich Offset Enable
ICHOFFSET	QUANT	0	Ich Offset (V)
ICHFILTER	IQUANT	3	Ich Filter
VCHRANGE	IQUANT	2	Vch Range
VCHRANGEMODE	TOGGLE	F	Vch Auto Range
VCHOFFSETENABLE	TOGGLE	T	Vch Offset Enable
VCHOFFSET	QUANT	0	Vch Offset (V)
VCHFILTER	IQUANT	3	Vch Filter
ACHRANGE	IQUANT	2	Ach Range
ACHOFFSETENABLE	TOGGLE	F	Ach Offset Enable
ACHOFFSET	QUANT	0	Ach Offset (V)
ACHFILTER	IQUANT	3	Ach Filter
IERANGELOWERLIMIT	IQUANT	2	I/E Range Lower Limit
IERANGEMODE	TOGGLE	F	I/E AutoRange
IERANGE	IQUANT	11	I/E Range
POSFEEDENABLE	TOGGLE	F	Positive Feedback IR Comp
POSFEEDRESISTANCE	QUANT	0	Positive Feedback Resistance (ohm)
ACHSELECT	IQUANT	0	Ach Select
CABLEID	IQUANT	13	Cable ID
DCCALDATE	LABEL	7/31/2020	DC Calibration Date
ACCALDATE	LABEL	7/31/2020	AC Calibration Date
THERMOSELECT	IQUANT	1	Thermo Select
FRAMEWORKVERSION	QUANT	6.33	Framework Version
INSTRUMENTVERSION	LABEL	3.50	Instrument Version
COMPLIANCEVOLTAGE	IQUANT	0	Compliance Voltage
ZCURVE	TABLE
	Pt	Time	Freq	Zreal	Zimag	Zsig	Zmod	Zphz	Idc	Vdc	IERange
	#	s	Hz	ohm	ohm	V	ohm	°	A	V	#
	0	6	300046.9	101.3269	-5.763284	1	101.4907	-3.255368	6.687808E-005	-0.00196	9
	1	9	238359.4	102.0218	-7.229606	1	102.2776	-4.053395	9.742057E-006	-0.0010777	9
	2	13	189328.1	103.0451	-8.95138	1	103.4332	-4.96474	-1.298435E-005	0.0010708	9
	3	15	150421.9	103.823	-10.44823	1	104.3474	-5.746614	6.688824E-005	-0.0016736	9
	4	18	119484.4	105.1318	-12.44456	1	105.8658	-6.750748	-5.382242E-005	0.0009322	9
	5	20	94921.88	106.4582	-14.27248	1	107.4107	-7.635914	-1.874961E-005	0.0008076	9
	6	23	75421.88	107.9759	-16.77801	1	109.2716	-8.832365	-1.951912E-005	0.0004421	9
	7	25	59859.37	109.7034	-19.62763	1	111.4454	-10.14377	5.921666E-006	-0.0005217	9
	8	28	47578.12	111.7019	-22.83659	1	114.0124	-11.55445	1.299547E-005	-0.0006581	9
	9	30	37828.12	113.9874	-26.46018	1	117.0183	-13.06875	1.950943E-005	-0.0000979	9
	10	33	30046.88	116.4866	-30.67432	1	120.4576	-14.75274	2.347055E-005	-0.0006013	9
	11	35	23859.38	119.1107	-35.47029	1	124.28	-16.58314	1.857349E-005	-0.0007054	9
	12	38	18984.38	121.9695	-41.08556	1	128.7034	-18.61616	-3.118731E-006	0.0005704	9
	13	40	15046.87	124.9642	-47.96557	1	133.8534	-20.99853	-1.931718E-005	0.0004665	9
	14	42	11953.13	127.5396	-56.15842	1	139.3561	-23.76493	2.392743E-005	-0.0005566	9
	15	45	9515.62	130.1572	-66.18181	1	146.0169	-26.95224	1.954919E-005	-0.0007297	9
	16	47	7546.875	132.6051	-79.29285	1	154.5039	-30.87784	5.110444E-006	0.0003535	9
	17	49	5928.309	135.1642	-96.2939	1	165.9574	-35.4669	2.248981E-005	-0.0006844	9
	18	52	4733.456	137.7529	-116.9713	1	180.7156	-40.33586	2.272292E-005	-0.000281	9
	19	54	3796.875	140.241	-142.2792	1	199.7771	-45.41335	-1.72443E-005	0.0008808	9
	20	56	2987.132	143.3359	-176.8884	1	227.6723	-50.98151	-5.508302E-006	0.0007053	9
	21	58	2390.625	147.0758	-216.8682	1	262.0365	-55.85564	-2.057552E-005	0.0006817	9
	22	61	1884.191	151.5918	-269.9791	1	309.6268	-60.68602	5.510632E-006	-0.0005013	9
	23	63	1516.544	157.8691	-332.9841	1	368.5119	-64.63418	-2.210163E-006	-0.0002659	9
	24	65	1193.986	164.9707	-415.5686	1	447.1159	-68.34812	4.805594E-006	-0.0016201	8
	25	68	946.5144	176.1706	-517.5761	1	546.7368	-71.20265	-1.195747E-006	-0.0001653	8
	26	70	751.7689	188.3671	-643.7899	1	670.7813	-73.691	3.152621E-006	-0.0013472	8
	27	73	597.4265	205.3915	-799.2681	1	825.2365	-75.58827	8.49863E-007	0.0018117	8
	28	75	477.4305	229.2683	-988.264	1	1014.51	-76.93895	2.183218E-007	0.0006465	8
	29	77	376.6741	261.6747	-1234.555	1	1261.983	-78.03278	2.163783E-007	0.0006444	8
	30	79	298.2954	304.105	-1535.21	1	1565.039	-78.7955	2.289724E-007	0.0006432	8
	31	82	237.7717	358.4411	-1894.911	1	1928.514	-79.2885	2.22052E-007	0.0006393	8
	32	84	189.0121	430.251	-2342.393	1	2381.58	-79.59192	2.16438E-007	0.0006417	8
	33	87	150.2404	523.6748	-2892.284	1	2939.31	-79.73725	2.158179E-007	0.0006429	8
	34	89	119.1737	647.3105	-3573.417	1	3631.573	-79.73244	2.286105E-007	0.0006456	8
	35	91	95.0169	806.6263	-4399.915	1	4473.243	-79.61146	1.948367E-008	0.0006175	7
	36	94	75.60484	1012.962	-5411.093	1	5505.09	-79.3969	2.016729E-008	0.0006138	7
	37	96	54.50582	1427.181	-7260.326	1	7399.269	-78.87901	2.092246E-008	0.0006117	7
	38	99	45.95588	1717.379	-8455.003	1	8627.657	-78.5183	2.526133E-008	0.0006206	7
	39	101	37.20238	2179.012	-10203.76	1	10433.83	-77.94556	2.519129E-008	0.0006188	7
	40	104	30.04808	2788.332	-12301.49	1	12613.55	-77.22878	2.192854E-008	0.000617	7
	41	106	23.91582	3638.302	-14978.93	1	15414.46	-76.34756	2.327856E-008	0.0006109	7
	42	109	18.60119	4918.04	-18567.82	1	19208.1	-75.16479	2.266686E-008	0.0006699	7
	43	111	15.02404	6378.037	-22183.39	1	23082.07	-73.95931	3.021659E-008	0.0006221	7
	44	113	12.01923	8367.94	-26578.7	1	27864.85	-72.5241	2.62529E-008	0.0006152	7
	45	116	9.450605	11231.98	-32110.92	1	34018.65	-70.72083	2.318399E-008	0.0006225	7
	46	118	7.512019	14689.17	-38083.4	1	40818.09	-68.90785	2.252823E-008	0.0006279	7
	47	121	5.978954	19096.58	-44839.95	1	48737.05	-66.93166	6.802696E-009	0.0006604	6
	48	124	4.734848	24777.31	-52538.21	1	58087.68	-64.75117	8.695066E-009	0.0006576	6
	49	127	3.75601	31626.82	-60942.33	1	68660.2	-62.57236	8.034284E-009	0.0006765	6
	50	131	3.004808	39606.62	-69657.5	1	80130.22	-60.37783	9.464938E-009	0.0006301	6
	51	134	2.372217	49872.85	-79557.05	1	93896.88	-57.91716	5.407445E-009	0.00059	6
	52	138	1.878005	61990.34	-89242.84	1	108660.4	-55.21518	6.044451E-009	0.0006684	6
	53	143	1.512097	75068.83	-98262.5	1	123656.2	-52.62156	5.405327E-009	0.0005753	6
	54	149	1.201923	90902.05	-107953.4	1	141128	-49.90097	4.074585E-009	0.0006909	6
	55	155	0.956633	108773.2	-116496.6	1	159383.4	-46.96361	4.673703E-010	2.331893E-005	6
