EXPLAIN
TAG	EISPOT
TITLE	LABEL	Potentiostatic EIS	Test Identifier
DATE	LABEL	8/22/2020	Date
TIME	LABEL	3:38:23	Time
NOTES	NOTES	1	Notes...
	
PSTAT	PSTAT	REF3000-16137	Potentiostat
VDC	POTEN	0.00000E+000	T	DC Voltage (V)
FREQINIT	QUANT	3.00000E+005	Initial Freq. (Hz)
FREQFINAL	QUANT	1.00000E+000	Final Freq. (Hz)
PTSPERDEC	QUANT	1.00000E+001	Points/decade
VAC	QUANT	5.00000E+001	AC Voltage (mV rms)
AREA	QUANT	1.00000E+000	Sample Area (cm^2)
SPEED	SELECTOR	2	Optimize for:
ZGUESS	QUANT	1.00000E+003	Estimated Z (ohms)
EOC	QUANT	0	Open Circuit (V)
SEQUENCER	TOGGLE	TRUE	Run as Sequence
PSTATMODEL	IQUANT	5	Pstat Model
PSTATSECTION	LABEL	REF3000-16137	Pstat Section
PSTATSERIALNO	LABEL	16137	Pstat Serial Number
CTRLMODE	IQUANT	1	Control Mode
IESTAB	IQUANT	0	I/E Stability
CASPEED	IQUANT	1	Control Amp Speed
CONVENTION	IQUANT	1	Current Convention
ICHRANGE	IQUANT	2	Ich Range
ICHRANGEMODE	TOGGLE	F	Ich Auto Range
ICHOFFSETENABLE	TOGGLE	T	Ich Offset Enable
ICHOFFSET	QUANT	0	Ich Offset (V)
ICHFILTER	IQUANT	3	Ich Filter
VCHRANGE	IQUANT	2	Vch Range
VCHRANGEMODE	TOGGLE	F	Vch Auto Range
VCHOFFSETENABLE	TOGGLE	T	Vch Offset Enable
VCHOFFSET	QUANT	0	Vch Offset (V)
VCHFILTER	IQUANT	3	Vch Filter
ACHRANGE	IQUANT	2	Ach Range
ACHOFFSETENABLE	TOGGLE	F	Ach Offset Enable
ACHOFFSET	QUANT	0	Ach Offset (V)
ACHFILTER	IQUANT	3	Ach Filter
IERANGELOWERLIMIT	IQUANT	2	I/E Range Lower Limit
IERANGEMODE	TOGGLE	F	I/E AutoRange
IERANGE	IQUANT	11	I/E Range
POSFEEDENABLE	TOGGLE	F	Positive Feedback IR Comp
POSFEEDRESISTANCE	QUANT	0	Positive Feedback Resistance (ohm)
ACHSELECT	IQUANT	0	Ach Select
CABLEID	IQUANT	13	Cable ID
DCCALDATE	LABEL	7/31/2020	DC Calibration Date
ACCALDATE	LABEL	7/31/2020	AC Calibration Date
THERMOSELECT	IQUANT	1	Thermo Select
FRAMEWORKVERSION	QUANT	6.33	Framework Version
INSTRUMENTVERSION	LABEL	3.50	Instrument Version
COMPLIANCEVOLTAGE	IQUANT	0	Compliance Voltage
ZCURVE	TABLE
	Pt	Time	Freq	Zreal	Zimag	Zsig	Zmod	Zphz	Idc	Vdc	IERange
	#	s	Hz	ohm	ohm	V	ohm	°	A	V	#
	0	7	300046.9	86.51736	-4.978628	1	86.66048	-3.293444	1.568053E-005	-0.0014882	9
	1	10	238359.4	87.06694	-6.21147	1	87.28822	-4.080643	-6.971941E-005	0.0015728	9
	2	13	189328.1	87.67428	-7.683168	1	88.01028	-5.008213	-8.480791E-006	0.0008963	9
	3	16	150421.9	88.47306	-9.425699	1	88.97374	-6.081211	-9.925083E-007	0.0009231	9
	4	18	119484.4	89.5404	-11.06822	1	90.22189	-7.046668	-8.559827E-006	0.0009209	9
	5	21	94921.88	90.75792	-12.79605	1	91.65555	-8.025294	-4.281841E-006	0.0006689	9
	6	24	75421.88	92.04079	-15.15247	1	93.27971	-9.348623	2.191244E-005	-0.0006869	9
	7	26	59859.37	93.62698	-17.82096	1	95.3079	-10.77677	1.86802E-005	-0.0001878	9
	8	29	47578.12	95.3493	-20.75094	1	97.5812	-12.27788	3.472881E-006	0.0004615	9
	9	31	37828.12	97.2582	-24.0797	1	100.1947	-13.90596	1.867845E-005	-0.0002448	9
	10	34	30046.88	99.5856	-27.93038	1	103.4282	-15.66701	-1.205429E-005	0.0007407	9
	11	36	23859.38	101.9085	-32.30463	1	106.9062	-17.58843	3.941945E-006	0.0004684	9
	12	38	18984.38	104.4024	-37.47068	1	110.923	-19.74337	2.281752E-005	-0.0003359	9
	13	41	15046.87	106.7603	-43.65233	1	115.3399	-22.23876	-3.056157E-006	-0.0002084	9
	14	43	11953.13	109.2401	-51.2516	1	120.6653	-25.13432	-1.891581E-005	0.0004646	9
	15	45	9515.62	111.4463	-60.66934	1	126.8899	-28.56307	-5.288554E-006	0.0006338	9
	16	48	7546.875	113.6296	-72.73286	1	134.9139	-32.62278	-1.98444E-005	0.0004922	9
	17	50	5928.309	115.8197	-88.65559	1	145.8562	-37.43269	-1.019862E-005	3.313819E-005	9
	18	52	4733.456	118.0727	-107.4931	1	159.6745	-42.31467	2.24895E-005	-0.0006842	9
	19	55	3796.875	120.8404	-130.7202	1	178.0173	-47.24908	2.417264E-005	-0.0005756	9
	20	57	2987.132	123.8238	-162.7337	1	204.4862	-52.73256	-4.983268E-006	0.000667	9
	21	59	2390.625	128.2694	-198.9759	1	236.7371	-57.19224	-1.620087E-005	0.0005973	9
	22	62	1884.191	133.9565	-248.506	1	282.3111	-61.67324	-1.681826E-005	0.0008307	9
	23	64	1516.544	139.1577	-304.9613	1	335.2108	-65.47219	-1.901865E-005	0.0007498	9
	24	66	1193.986	148.7298	-381.3969	1	409.3704	-68.69617	-2.761251E-006	-0.0002281	9
	25	69	946.5144	159.0445	-471.9298	1	498.0089	-71.37573	5.543698E-006	-0.0014074	8
	26	71	751.7689	174.4025	-585.0032	1	610.4466	-73.39951	6.363352E-006	-0.0009184	8
	27	73	597.4265	194.7653	-724.2394	1	749.9708	-74.94791	-1.045196E-006	0.0021324	8
	28	76	477.4305	221.3406	-891.72	1	918.7797	-76.05991	2.448382E-007	0.0006436	8
	29	78	376.6741	258.1074	-1109.448	1	1139.076	-76.90339	2.474871E-007	0.0006422	8
	30	80	298.2954	306.2309	-1373.858	1	1407.573	-77.43427	2.584495E-007	0.0006448	8
	31	83	237.7717	367.9647	-1688.433	1	1728.063	-77.70561	2.511735E-007	0.0006427	8
	32	85	189.0121	450.1598	-2077.345	1	2125.56	-77.77308	2.436626E-007	0.0006453	8
	33	88	150.2404	558.4954	-2551.694	1	2612.098	-77.65422	2.59156E-007	0.000635	8
	34	90	119.1737	702.4846	-3135.9	1	3213.62	-77.37342	2.609145E-007	0.000636	8
	35	92	95.0169	889.5948	-3828.635	1	3930.626	-76.91926	2.581385E-007	0.0006396	8
	36	95	75.60484	1142.623	-4683.792	1	4821.151	-76.29034	2.287775E-008	0.0006182	7
	37	97	54.50582	1651.22	-6203.608	1	6419.602	-75.0951	2.452313E-008	0.0006124	7
	38	100	45.95588	2014.491	-7169.32	1	7446.968	-74.30529	2.749182E-008	0.0006287	7
	39	102	37.20238	2582.224	-8537.363	1	8919.33	-73.17145	2.712488E-008	0.0006237	7
	40	105	30.04808	3332.055	-10145.67	1	10678.82	-71.81871	2.42333E-008	0.0006192	7
	41	107	23.91582	4388.11	-12134.44	1	12903.5	-70.11877	2.894442E-008	0.0006134	7
	42	110	18.60119	5926.086	-14662.67	1	15814.94	-67.99334	3.574155E-008	0.0006155	7
	43	112	15.02404	7611.559	-17064.77	1	18685.35	-65.96124	2.379189E-008	0.0006193	7
	44	114	12.01923	9854.01	-19778.84	1	22097.6	-63.51708	2.053393E-008	0.0006122	7
	45	117	9.450605	12852.04	-22885.24	1	26247.08	-60.68203	1.954758E-008	0.0006331	7
	46	119	7.512019	16369.9	-25941.86	1	30674.97	-57.74715	2.164427E-008	0.0006274	7
	47	122	5.978954	20506.05	-28849.41	1	35394.72	-54.59493	2.300926E-008	0.0006225	7
	48	125	4.734848	25422.9	-31582.38	1	40543.44	-51.16694	4.205417E-009	0.0006794	6
	49	128	3.75601	30801.04	-33828.9	1	45750.39	-47.6823	-4.505617E-009	0.0006467	6
	50	132	3.004808	36411.61	-35186.68	1	50635.04	-44.01986	1.204219E-009	0.0006411	6
	51	135	2.372217	42545.87	-35977.51	1	55718.33	-40.21843	-5.607141E-009	0.0006486	6
	52	139	1.878005	47820.56	-33743.62	1	58527.24	-35.20794	-3.483371E-009	0.0006678	6
	53	148	1.512097	51552.27	-31072.09	1	60192.29	-31.07862	-2.628785E-009	0.000552	6
	54	159	1.201923	55102.46	-28608.38	1	62086.4	-27.43767	-5.42209E-009	0.0007119	6
	55	172	0.956633	58154.07	-26272.97	1	63813.52	-24.3126	-1.718451E-008	2.96674E-005	6
