EXPLAIN
TAG	EISPOT
TITLE	LABEL	Potentiostatic EIS	Test Identifier
DATE	LABEL	8/22/2020	Date
TIME	LABEL	3:11:02	Time
NOTES	NOTES	1	Notes...
	
PSTAT	PSTAT	REF3000-16137	Potentiostat
VDC	POTEN	0.00000E+000	T	DC Voltage (V)
FREQINIT	QUANT	3.00000E+005	Initial Freq. (Hz)
FREQFINAL	QUANT	1.00000E+000	Final Freq. (Hz)
PTSPERDEC	QUANT	1.00000E+001	Points/decade
VAC	QUANT	5.00000E+001	AC Voltage (mV rms)
AREA	QUANT	1.00000E+000	Sample Area (cm^2)
SPEED	SELECTOR	2	Optimize for:
ZGUESS	QUANT	1.00000E+003	Estimated Z (ohms)
EOC	QUANT	0	Open Circuit (V)
SEQUENCER	TOGGLE	TRUE	Run as Sequence
PSTATMODEL	IQUANT	5	Pstat Model
PSTATSECTION	LABEL	REF3000-16137	Pstat Section
PSTATSERIALNO	LABEL	16137	Pstat Serial Number
CTRLMODE	IQUANT	1	Control Mode
IESTAB	IQUANT	0	I/E Stability
CASPEED	IQUANT	1	Control Amp Speed
CONVENTION	IQUANT	1	Current Convention
ICHRANGE	IQUANT	2	Ich Range
ICHRANGEMODE	TOGGLE	F	Ich Auto Range
ICHOFFSETENABLE	TOGGLE	T	Ich Offset Enable
ICHOFFSET	QUANT	0	Ich Offset (V)
ICHFILTER	IQUANT	3	Ich Filter
VCHRANGE	IQUANT	2	Vch Range
VCHRANGEMODE	TOGGLE	F	Vch Auto Range
VCHOFFSETENABLE	TOGGLE	T	Vch Offset Enable
VCHOFFSET	QUANT	0	Vch Offset (V)
VCHFILTER	IQUANT	3	Vch Filter
ACHRANGE	IQUANT	2	Ach Range
ACHOFFSETENABLE	TOGGLE	F	Ach Offset Enable
ACHOFFSET	QUANT	0	Ach Offset (V)
ACHFILTER	IQUANT	3	Ach Filter
IERANGELOWERLIMIT	IQUANT	2	I/E Range Lower Limit
IERANGEMODE	TOGGLE	F	I/E AutoRange
IERANGE	IQUANT	11	I/E Range
POSFEEDENABLE	TOGGLE	F	Positive Feedback IR Comp
POSFEEDRESISTANCE	QUANT	0	Positive Feedback Resistance (ohm)
ACHSELECT	IQUANT	0	Ach Select
CABLEID	IQUANT	13	Cable ID
DCCALDATE	LABEL	7/31/2020	DC Calibration Date
ACCALDATE	LABEL	7/31/2020	AC Calibration Date
THERMOSELECT	IQUANT	1	Thermo Select
FRAMEWORKVERSION	QUANT	6.33	Framework Version
INSTRUMENTVERSION	LABEL	3.50	Instrument Version
COMPLIANCEVOLTAGE	IQUANT	0	Compliance Voltage
ZCURVE	TABLE
	Pt	Time	Freq	Zreal	Zimag	Zsig	Zmod	Zphz	Idc	Vdc	IERange
	#	s	Hz	ohm	ohm	V	ohm	°	A	V	#
	0	7	300046.9	89.76857	-5.158858	1	89.91669	-3.28908	1.10968E-005	-0.0011783	9
	1	10	238359.4	90.23035	-6.44703	1	90.46037	-4.086884	1.078051E-005	-0.0010816	9
	2	13	189328.1	90.98159	-7.825648	1	91.31753	-4.916113	3.243221E-005	0.0001485	9
	3	16	150421.9	91.63153	-9.68175	1	92.14159	-6.03147	-1.141182E-005	0.000796	9
	4	18	119484.4	92.82575	-11.20715	1	93.49984	-6.884181	6.531812E-005	-0.002297	9
	5	21	94921.88	93.96711	-13.11629	1	94.87811	-7.946223	1.881457E-005	-0.0007309	9
	6	23	75421.88	95.2959	-15.48504	1	96.5458	-9.229569	1.164417E-005	-0.000639	9
	7	26	59859.37	96.8375	-18.23762	1	98.5399	-10.66571	-1.185564E-005	0.0007364	9
	8	28	47578.12	98.6103	-21.24241	1	100.8724	-12.15676	2.255172E-005	-0.0003391	9
	9	31	37828.12	100.5735	-24.64042	1	103.548	-13.76625	1.225154E-005	-0.0006204	9
	10	33	30046.88	102.8336	-28.48667	1	106.7064	-15.48364	1.273604E-005	-0.0006405	9
	11	36	23859.38	105.2002	-32.97034	1	110.2458	-17.40129	-4.424562E-006	0.000691	9
	12	38	18984.38	107.6983	-38.21786	1	114.2783	-19.53776	1.271037E-005	0.0001951	9
	13	40	15046.87	110.2781	-44.41906	1	118.8878	-21.93915	2.225179E-005	-0.0007033	9
	14	43	11953.13	112.7072	-52.24693	1	124.2282	-24.87072	5.68618E-006	-0.0004833	9
	15	45	9515.62	115.0039	-61.55175	1	130.4397	-28.15634	-9.741394E-006	-1.709552E-005	9
	16	47	7546.875	117.1558	-73.79293	1	138.4589	-32.2056	2.260668E-005	-0.0003193	9
	17	50	5928.309	119.5119	-89.92749	1	149.5662	-36.95987	-1.508323E-005	0.0002215	9
	18	52	4733.456	121.8072	-109.1137	1	163.5322	-41.85368	2.400836E-005	-0.0005764	9
	19	54	3796.875	124.2565	-132.334	1	181.5267	-46.80309	-5.168564E-006	0.000711	9
	20	57	2987.132	127.6166	-164.5386	1	208.2281	-52.20273	2.371143E-005	-0.0004536	9
	21	59	2390.625	131.5891	-201.6082	1	240.7521	-56.86764	1.237579E-005	-0.0006303	9
	22	61	1884.191	135.854	-253.1874	1	287.3329	-61.78312	2.258641E-005	-0.0002895	9
	23	64	1516.544	142.7058	-308.2448	1	339.6761	-65.15764	-2.681312E-006	-0.0002415	9
	24	66	1193.986	151.0117	-385.8211	1	414.3217	-68.62445	-1.992438E-005	0.0006515	9
	25	68	946.5144	161.763	-477.7597	1	504.4023	-71.2946	-1.269114E-006	0.0022184	8
	26	71	751.7689	176.041	-592.1623	1	617.7755	-73.44357	-1.078299E-006	0.0021839	8
	27	73	597.4265	195.2491	-733.5306	1	759.0714	-75.09477	-5.318454E-006	0.0020833	8
	28	75	477.4305	221.5619	-904.5559	1	931.2953	-76.23695	2.35959E-007	0.0006441	8
	29	78	376.6741	257.6332	-1126.666	1	1155.747	-77.11971	2.375918E-007	0.0006444	8
	30	80	298.2954	305.3436	-1396.88	1	1429.863	-77.66967	2.453775E-007	0.0006463	8
	31	82	237.7717	367.4081	-1718.904	1	1757.732	-77.93484	2.383509E-007	0.0006458	8
	32	85	189.0121	451.2146	-2117.598	1	2165.136	-77.97139	2.265154E-007	0.0006623	8
	33	87	150.2404	563.6833	-2604.06	1	2664.37	-77.78601	2.376018E-007	0.0006479	8
	34	90	119.1737	716.4376	-3203.866	1	3282.992	-77.39508	2.426924E-007	0.0006483	8
	35	92	95.0169	916.4435	-3911.602	1	4017.524	-76.81409	2.559043E-007	0.0006488	8
	36	95	75.60484	1190.703	-4783.268	1	4929.241	-76.02143	1.308521E-008	0.0006207	7
	37	97	54.50582	1749.432	-6323.632	1	6561.162	-74.5359	1.177657E-008	0.000619	7
	38	100	45.95588	2148.978	-7294.889	1	7604.835	-73.58572	1.334992E-008	0.0006257	7
	39	102	37.20238	2775.978	-8662.66	1	9096.578	-72.23177	1.561274E-008	0.0006237	7
	40	104	30.04808	3602.456	-10249.27	1	10863.95	-70.63425	9.18263E-009	0.0006103	7
	41	107	23.91582	4775.267	-12212.66	1	13113.06	-68.64403	7.107657E-009	0.0006193	7
	42	109	18.60119	6447.185	-14611.54	1	15970.7	-66.19104	3.170022E-009	0.0006662	7
	43	111	15.02404	8285.74	-16853.76	1	18780.38	-63.82008	1.874482E-008	0.000638	7
	44	114	12.01923	10669.93	-19326.99	1	22076.68	-61.09804	1.467436E-008	0.0006245	7
	45	116	9.450605	13829.36	-22051.38	1	26029.11	-57.90643	1.598663E-009	0.0006473	7
	46	119	7.512019	17434.83	-24583.73	1	30138.56	-54.65566	6.805563E-009	0.0006041	7
	47	121	5.978954	21635.76	-26819.81	1	34458.79	-51.10659	7.803023E-009	0.0006235	7
	48	124	4.734848	26434.13	-28592.8	1	38939.84	-47.24653	1.03661E-008	0.0006037	7
	49	128	3.75601	31557.86	-29746.56	1	43367.69	-43.30763	-1.513841E-008	0.0006673	6
	50	131	3.004808	36455.14	-29863.3	1	47125.3	-39.32362	-9.900768E-009	0.0006371	6
	51	135	2.372217	41612.11	-29527.61	1	51023.99	-35.35919	-1.907853E-008	0.000687	6
	52	139	1.878005	45427.32	-26753.74	1	52720.06	-30.49532	-1.906115E-008	0.0006678	6
	53	148	1.512097	48063.07	-24473.1	1	53935.07	-26.98461	-1.711883E-008	0.0006168	6
	54	159	1.201923	50628.91	-22317.69	1	55329.61	-23.78832	-1.835513E-008	0.0006528	6
	55	172	0.956633	53051.17	-20561.24	1	56896.32	-21.18502	-3.055216E-008	2.518289E-005	6
