EXPLAIN
TAG	EISPOT
TITLE	LABEL	Potentiostatic EIS	Test Identifier
DATE	LABEL	8/22/2020	Date
TIME	LABEL	1:34:27	Time
NOTES	NOTES	1	Notes...
	
PSTAT	PSTAT	REF3000-16137	Potentiostat
VDC	POTEN	0.00000E+000	T	DC Voltage (V)
FREQINIT	QUANT	3.00000E+005	Initial Freq. (Hz)
FREQFINAL	QUANT	1.00000E+000	Final Freq. (Hz)
PTSPERDEC	QUANT	1.00000E+001	Points/decade
VAC	QUANT	5.00000E+001	AC Voltage (mV rms)
AREA	QUANT	1.00000E+000	Sample Area (cm^2)
SPEED	SELECTOR	2	Optimize for:
ZGUESS	QUANT	1.00000E+003	Estimated Z (ohms)
EOC	QUANT	0	Open Circuit (V)
SEQUENCER	TOGGLE	TRUE	Run as Sequence
PSTATMODEL	IQUANT	5	Pstat Model
PSTATSECTION	LABEL	REF3000-16137	Pstat Section
PSTATSERIALNO	LABEL	16137	Pstat Serial Number
CTRLMODE	IQUANT	1	Control Mode
IESTAB	IQUANT	0	I/E Stability
CASPEED	IQUANT	1	Control Amp Speed
CONVENTION	IQUANT	1	Current Convention
ICHRANGE	IQUANT	2	Ich Range
ICHRANGEMODE	TOGGLE	F	Ich Auto Range
ICHOFFSETENABLE	TOGGLE	T	Ich Offset Enable
ICHOFFSET	QUANT	0	Ich Offset (V)
ICHFILTER	IQUANT	3	Ich Filter
VCHRANGE	IQUANT	2	Vch Range
VCHRANGEMODE	TOGGLE	F	Vch Auto Range
VCHOFFSETENABLE	TOGGLE	T	Vch Offset Enable
VCHOFFSET	QUANT	0	Vch Offset (V)
VCHFILTER	IQUANT	3	Vch Filter
ACHRANGE	IQUANT	2	Ach Range
ACHOFFSETENABLE	TOGGLE	F	Ach Offset Enable
ACHOFFSET	QUANT	0	Ach Offset (V)
ACHFILTER	IQUANT	3	Ach Filter
IERANGELOWERLIMIT	IQUANT	2	I/E Range Lower Limit
IERANGEMODE	TOGGLE	F	I/E AutoRange
IERANGE	IQUANT	11	I/E Range
POSFEEDENABLE	TOGGLE	F	Positive Feedback IR Comp
POSFEEDRESISTANCE	QUANT	0	Positive Feedback Resistance (ohm)
ACHSELECT	IQUANT	0	Ach Select
CABLEID	IQUANT	13	Cable ID
DCCALDATE	LABEL	7/31/2020	DC Calibration Date
ACCALDATE	LABEL	7/31/2020	AC Calibration Date
THERMOSELECT	IQUANT	1	Thermo Select
FRAMEWORKVERSION	QUANT	6.33	Framework Version
INSTRUMENTVERSION	LABEL	3.50	Instrument Version
COMPLIANCEVOLTAGE	IQUANT	0	Compliance Voltage
ZCURVE	TABLE
	Pt	Time	Freq	Zreal	Zimag	Zsig	Zmod	Zphz	Idc	Vdc	IERange
	#	s	Hz	ohm	ohm	V	ohm	°	A	V	#
	0	16	300046.9	786.4319	-4696.075	1	4761.47	-80.49313	-8.99544E-005	0.0042543	9
	1	30	238359.4	1190.825	-5588.91	1	5714.366	-77.9719	-0.0001096	0.0037901	9
	2	47	189328.1	2070.75	-6699.314	1	7012.048	-72.82368	-2.26978E-005	0.0012596	9
	3	57	150421.9	3052.699	-7641.277	1	8228.492	-68.22324	2.674329E-005	0.0011032	9
	4	69	119484.4	3871.008	-9907.37	1	10636.76	-68.65842	2.028041E-005	-0.000804	9
	5	77	94921.88	5958.54	-11291.87	1	12767.56	-62.18011	-1.985681E-005	0.011371	8
	6	86	75421.88	8272.56	-13084.89	1	15480.62	-57.69801	-1.561382E-005	0.0005855	8
	7	95	59859.37	10991.49	-13975.59	1	17780.04	-51.81574	-2.68223E-005	0.0096381	8
	8	103	47578.12	16591.99	-14252.61	1	21873.06	-40.66275	3.620438E-006	-0.0245972	7
	9	111	37828.12	19574.35	-14202.92	1	24184.26	-35.9642	7.611771E-006	-0.0239398	7
	10	117	30046.88	22726.6	-13672.08	1	26522.14	-31.03067	1.284416E-006	-0.0197431	7
	11	125	23859.38	23990.61	-13470.65	1	27513.77	-29.31407	-1.192335E-006	0.0008108	9
	12	131	18984.38	27125.33	-13028.8	1	30092.07	-25.65584	1.02652E-005	0.0004556	9
	13	138	15046.87	30142.23	-10747.3	1	32000.92	-19.62385	3.883342E-007	0.0163721	7
	14	143	11953.13	32977	-10924.57	1	34739.44	-18.32893	2.274989E-005	-0.0028308	8
	15	149	9515.62	32449.07	-8517.036	1	33548.2	-14.70691	7.980099E-006	-0.0077275	8
	16	157	7546.875	34249.1	-7736.237	1	35111.96	-12.72845	-1.21805E-005	0.0102804	8
	17	163	5928.309	35064.45	-6523.184	1	35666.06	-10.5385	-3.253524E-006	-0.0057313	7
	18	169	4733.456	36019.36	-4754.13	1	36331.75	-7.518905	-2.100648E-006	0.0077396	8
	19	175	3796.875	36808.63	-4950.192	1	37140	-7.659441	2.744718E-005	-0.0074409	8
	20	182	2987.132	36706.88	-3999.409	1	36924.12	-6.218151	2.60447E-005	-0.0090212	8
	21	188	2390.625	36738.19	-7250.634	1	37446.84	-11.16439	-2.682384E-005	0.0095686	8
	22	195	1884.191	39454.64	-5749.235	1	39871.33	-8.29065	-2.623636E-005	0.0075644	8
	23	202	1516.544	39705.03	-4548.673	1	39964.73	-6.535407	2.602602E-005	-0.0089805	8
	24	210	1193.986	41218.93	-4494.084	1	41463.2	-6.222359	7.814762E-006	-0.007607	8
	25	217	946.5144	43237.55	-4723.107	1	43494.75	-6.234057	-9.232853E-007	-0.0135216	7
	26	220	751.7689	43907.48	-4398.221	1	44127.21	-5.720248	6.729044E-006	-0.0263535	7
	27	224	597.4265	48200.63	-8201.92	1	48893.48	-9.65707	1.708045E-005	0.0004589	8
	28	229	477.4305	44853.46	-4928.059	1	45123.37	-6.269949	-8.832651E-008	0.000565	7
	29	232	376.6741	45703.46	-4974.336	1	45973.37	-6.211586	-9.914588E-009	0.0006323	6
	30	235	298.2954	46429.88	-5763.89	1	46786.28	-7.076598	-1.067098E-008	0.0007356	6
	31	237	237.7717	47270.91	-6686.637	1	47741.49	-8.051274	-1.055258E-008	0.0007107	6
	32	239	189.0121	48163.02	-7762.715	1	48784.59	-9.155952	-9.237318E-009	0.0006196	6
	33	242	150.2404	49126.75	-9016.482	1	49947.32	-10.40004	-9.874443E-009	0.0006197	6
	34	244	119.1737	50235.2	-10428.35	1	51306.19	-11.72749	-1.071004E-008	0.0006213	6
	35	247	95.0169	51508.53	-12177.19	1	52928.37	-13.30114	-1.01222E-008	0.0006309	6
	36	249	75.60484	52880.49	-14134.98	1	54737.04	-14.96532	-1.018936E-008	0.0006975	6
	37	252	54.50582	54872.1	-17465.94	1	57584.77	-17.65642	-9.975234E-009	0.0006148	6
	38	254	45.95588	56105.29	-19638.7	1	59443.1	-19.29173	-1.0393E-008	0.0007298	6
	39	257	37.20238	57601.55	-22658.82	1	61897.98	-21.47328	-9.336297E-009	0.000642	6
	40	259	30.04808	59144.06	-26355.07	1	64750.36	-24.01814	-1.052301E-008	0.0006533	6
	41	261	23.91582	60681.75	-31128.82	1	68200.28	-27.15714	-1.007535E-008	0.0006871	6
	42	264	18.60119	62329.53	-37891.26	1	72943.25	-31.29618	-8.910136E-009	0.0006028	6
	43	266	15.02404	63797.47	-45080.86	1	78117.86	-35.24596	-1.055998E-008	0.0006904	6
	44	268	12.01923	65327.49	-54477.05	1	85061.34	-39.82497	-9.385295E-009	0.0006029	6
	45	271	9.450605	67074.7	-67228.18	1	94966.54	-45.06548	-1.021018E-008	0.0006676	6
	46	273	7.512019	69029.09	-82789.97	1	107792.4	-50.17914	-9.37918E-009	0.0006036	6
	47	276	5.978954	71263.26	-101971.6	1	124405.2	-55.05206	-9.039907E-009	0.0006174	6
	48	279	4.734848	74099.7	-126729	1	146802.6	-59.68475	-1.042064E-008	0.0006957	6
	49	282	3.75601	77655.42	-157422.1	1	175533.7	-63.74314	-9.319191E-009	0.0006601	6
	50	288	3.004808	82059.7	-194236.3	1	210859	-67.09722	-1.024505E-008	0.0007363	6
	51	294	2.372217	87553.62	-242903.3	1	258200.8	-70.17849	-1.008666E-008	0.0007259	6
	52	298	1.878005	94272.39	-303004	1	317330.6	-72.71773	-9.997887E-009	0.0006317	6
	53	303	1.512097	102638.5	-371740	1	385649.2	-74.56501	-9.938439E-009	0.0008008	6
	54	309	1.201923	113135.4	-463311.1	1	476924.3	-76.27756	-1.05974E-009	0.0006189	5
	55	315	0.956633	126261.7	-575116.6	1	588813.3	-77.61767	-1.190036E-009	3.746382E-006	5
