EXPLAIN
TAG	EISPOT
TITLE	LABEL	Potentiostatic EIS	Test Identifier
DATE	LABEL	8/22/2020	Date
TIME	LABEL	0:29:36	Time
NOTES	NOTES	1	Notes...
	
PSTAT	PSTAT	REF3000-16137	Potentiostat
VDC	POTEN	0.00000E+000	T	DC Voltage (V)
FREQINIT	QUANT	3.00000E+005	Initial Freq. (Hz)
FREQFINAL	QUANT	1.00000E+000	Final Freq. (Hz)
PTSPERDEC	QUANT	1.00000E+001	Points/decade
VAC	QUANT	5.00000E+001	AC Voltage (mV rms)
AREA	QUANT	1.00000E+000	Sample Area (cm^2)
SPEED	SELECTOR	2	Optimize for:
ZGUESS	QUANT	1.00000E+003	Estimated Z (ohms)
EOC	QUANT	0	Open Circuit (V)
SEQUENCER	TOGGLE	TRUE	Run as Sequence
PSTATMODEL	IQUANT	5	Pstat Model
PSTATSECTION	LABEL	REF3000-16137	Pstat Section
PSTATSERIALNO	LABEL	16137	Pstat Serial Number
CTRLMODE	IQUANT	1	Control Mode
IESTAB	IQUANT	0	I/E Stability
CASPEED	IQUANT	1	Control Amp Speed
CONVENTION	IQUANT	1	Current Convention
ICHRANGE	IQUANT	2	Ich Range
ICHRANGEMODE	TOGGLE	F	Ich Auto Range
ICHOFFSETENABLE	TOGGLE	T	Ich Offset Enable
ICHOFFSET	QUANT	0	Ich Offset (V)
ICHFILTER	IQUANT	3	Ich Filter
VCHRANGE	IQUANT	2	Vch Range
VCHRANGEMODE	TOGGLE	F	Vch Auto Range
VCHOFFSETENABLE	TOGGLE	T	Vch Offset Enable
VCHOFFSET	QUANT	0	Vch Offset (V)
VCHFILTER	IQUANT	3	Vch Filter
ACHRANGE	IQUANT	2	Ach Range
ACHOFFSETENABLE	TOGGLE	F	Ach Offset Enable
ACHOFFSET	QUANT	0	Ach Offset (V)
ACHFILTER	IQUANT	3	Ach Filter
IERANGELOWERLIMIT	IQUANT	2	I/E Range Lower Limit
IERANGEMODE	TOGGLE	F	I/E AutoRange
IERANGE	IQUANT	11	I/E Range
POSFEEDENABLE	TOGGLE	F	Positive Feedback IR Comp
POSFEEDRESISTANCE	QUANT	0	Positive Feedback Resistance (ohm)
ACHSELECT	IQUANT	0	Ach Select
CABLEID	IQUANT	13	Cable ID
DCCALDATE	LABEL	7/31/2020	DC Calibration Date
ACCALDATE	LABEL	7/31/2020	AC Calibration Date
THERMOSELECT	IQUANT	1	Thermo Select
FRAMEWORKVERSION	QUANT	6.33	Framework Version
INSTRUMENTVERSION	LABEL	3.50	Instrument Version
COMPLIANCEVOLTAGE	IQUANT	0	Compliance Voltage
ZCURVE	TABLE
	Pt	Time	Freq	Zreal	Zimag	Zsig	Zmod	Zphz	Idc	Vdc	IERange
	#	s	Hz	ohm	ohm	V	ohm	°	A	V	#
	0	7	300046.9	114.0163	-6.62298	1	114.2085	-3.324462	1.514541E-005	-0.0016993	9
	1	10	238359.4	114.6881	-7.98162	1	114.9655	-3.981033	-7.720759E-005	0.0018369	9
	2	13	189328.1	115.5216	-9.70838	1	115.9288	-4.803823	1.428435E-005	-0.0009223	9
	3	15	150421.9	116.5166	-11.29061	1	117.0624	-5.534753	1.459449E-005	-0.0011237	9
	4	18	119484.4	118.1646	-13.32855	1	118.9139	-6.43556	7.163822E-005	-0.0022059	9
	5	20	94921.88	119.6851	-15.45159	1	120.6784	-7.356309	1.143278E-005	0.0001209	9
	6	23	75421.88	121.3408	-18.12705	1	122.6873	-8.496557	-8.422013E-006	0.000777	9
	7	26	59859.37	123.2759	-21.28188	1	125.0995	-9.79478	-6.173326E-006	0.0006766	9
	8	29	47578.12	125.3733	-24.56261	1	127.7567	-11.08475	-1.024476E-005	-9.457094E-005	9
	9	32	37828.12	127.9469	-28.48611	1	131.0797	-12.55162	2.563546E-005	-0.0004724	9
	10	34	30046.88	130.6912	-32.95018	1	134.781	-14.15064	1.204562E-005	0.0002234	9
	11	37	23859.38	133.6633	-38.06736	1	138.9784	-15.89698	-1.752131E-005	0.0003995	9
	12	39	18984.38	136.7441	-44.08854	1	143.6759	-17.87017	-1.779668E-005	0.0003699	9
	13	41	15046.87	140.1681	-51.36414	1	149.2829	-20.12519	1.191583E-005	0.000217	9
	14	44	11953.13	143.0827	-59.67022	1	155.0264	-22.63775	-1.770309E-005	0.0008882	9
	15	46	9515.62	145.9639	-70.42201	1	162.0639	-25.75554	1.935952E-005	-0.0007688	9
	16	48	7546.875	148.7761	-84.15656	1	170.9288	-29.49507	-1.516666E-005	0.0001544	9
	17	50	5928.309	151.7276	-101.9923	1	182.8215	-33.90925	-9.8724E-006	-1.707957E-005	9
	18	53	4733.456	153.8048	-123.4117	1	197.1963	-38.74326	-2.052028E-005	0.0007924	9
	19	55	3796.875	156.5402	-149.624	1	216.546	-43.70593	1.203652E-005	0.0002194	9
	20	57	2987.132	159.7824	-186.6632	1	245.7103	-49.43672	1.14286E-005	0.0002053	9
	21	60	2390.625	163.4639	-229.1149	1	281.4499	-54.49374	2.401938E-005	-0.0004672	9
	22	62	1884.191	168.3821	-286.2817	1	332.1292	-59.53727	1.959118E-005	-0.0001171	9
	23	64	1516.544	173.8134	-351.4056	1	392.0421	-63.68193	-2.003455E-005	0.0004943	9
	24	67	1193.986	180.9929	-438.827	1	474.6868	-67.58644	5.873667E-006	-7.28547E-005	8
	25	69	946.5144	190.0435	-546.9299	1	579.0068	-70.83903	7.368683E-006	-0.0017221	8
	26	72	751.7689	204.6622	-681.7996	1	711.8549	-73.29133	5.183725E-006	-0.0018463	8
	27	74	597.4265	220.9959	-847.9692	1	876.2939	-75.39263	-6.4367E-006	0.0026812	8
	28	76	477.4305	242.3986	-1047.544	1	1075.224	-76.97124	1.712083E-007	0.0006444	8
	29	79	376.6741	273.2989	-1310.477	1	1338.672	-78.21986	1.572335E-007	0.0006761	8
	30	81	298.2954	313.7999	-1632.024	1	1661.918	-79.1162	1.762944E-007	0.0006446	8
	31	83	237.7717	365.4348	-2017.863	1	2050.687	-79.73499	1.697289E-007	0.0006411	8
	32	86	189.0121	433.8593	-2499.158	1	2536.538	-80.15148	1.833645E-007	0.0006381	8
	33	88	150.2404	522.9899	-3091.904	1	3135.824	-80.3994	1.692956E-007	0.0006379	8
	34	91	119.1737	638.8098	-3828.798	1	3881.723	-80.52782	1.841346E-007	0.0006449	8
	35	93	95.0169	791.0193	-4724.041	1	4789.81	-80.49427	1.436684E-008	0.0006103	7
	36	95	75.60484	985.891	-5823.785	1	5906.645	-80.39166	1.206618E-008	0.0006108	7
	37	98	54.50582	1375.435	-7846.051	1	7965.698	-80.05692	1.026873E-008	0.000608	7
	38	101	45.95588	1648.047	-9160.884	1	9307.945	-79.80155	1.895251E-008	0.0006142	7
	39	103	37.20238	2078.314	-11087.56	1	11280.66	-79.38335	1.339013E-008	0.0006339	7
	40	105	30.04808	2651.654	-13430.51	1	13689.77	-78.83144	1.358055E-008	0.0006225	7
	41	108	23.91582	3466.003	-16429.5	1	16791.12	-78.08743	1.061249E-008	0.0006127	7
	42	110	18.60119	4678.977	-20497.77	1	21025.02	-77.14155	1.572126E-008	0.0006395	7
	43	112	15.02404	6088.782	-24633.59	1	25374.93	-76.11625	1.72161E-008	0.0006304	7
	44	115	12.01923	8024.73	-29744.09	1	30807.59	-74.90151	1.203075E-008	0.0006153	7
	45	117	9.450605	10776.52	-36240.45	1	37808.77	-73.43954	1.321888E-008	0.0006404	7
	46	120	7.512019	14251.27	-43467.38	1	45743.98	-71.84768	2.508386E-009	0.000641	6
	47	122	5.978954	18741.07	-51731.6	1	55021.69	-70.08581	4.096559E-009	0.000663	6
	48	125	4.734848	24499.48	-61368.82	1	66078.41	-68.23727	2.838449E-009	0.0006302	6
	49	129	3.75601	31676.98	-72204.63	1	78847.57	-66.3124	5.421002E-009	0.0006802	6
	50	132	3.004808	40086.17	-83910.3	1	92993.77	-64.46496	4.557851E-009	0.0006605	6
	51	136	2.372217	50986.49	-97397.9	1	109936.2	-62.36855	3.636846E-009	0.0006418	6
	52	140	1.878005	64369.88	-112186.5	1	129341.7	-60.15384	3.870142E-009	0.0006455	6
	53	145	1.512097	78735.52	-126808.4	1	149263.7	-58.16378	2.2058E-009	0.0007533	6
	54	150	1.201923	97129.4	-143073.1	1	172927.8	-55.82822	2.213937E-009	0.0006522	6
	55	156	0.956633	118135	-159882.4	1	198792	-53.5398	-1.78346E-009	2.060807E-005	6
