EXPLAIN
TAG	EISPOT
TITLE	LABEL	Potentiostatic EIS	Test Identifier
DATE	LABEL	8/22/2020	Date
TIME	LABEL	0:35:06	Time
NOTES	NOTES	1	Notes...
	
PSTAT	PSTAT	REF3000-16137	Potentiostat
VDC	POTEN	0.00000E+000	T	DC Voltage (V)
FREQINIT	QUANT	3.00000E+005	Initial Freq. (Hz)
FREQFINAL	QUANT	1.00000E+000	Final Freq. (Hz)
PTSPERDEC	QUANT	1.00000E+001	Points/decade
VAC	QUANT	5.00000E+001	AC Voltage (mV rms)
AREA	QUANT	1.00000E+000	Sample Area (cm^2)
SPEED	SELECTOR	2	Optimize for:
ZGUESS	QUANT	1.00000E+003	Estimated Z (ohms)
EOC	QUANT	0	Open Circuit (V)
SEQUENCER	TOGGLE	TRUE	Run as Sequence
PSTATMODEL	IQUANT	5	Pstat Model
PSTATSECTION	LABEL	REF3000-16137	Pstat Section
PSTATSERIALNO	LABEL	16137	Pstat Serial Number
CTRLMODE	IQUANT	1	Control Mode
IESTAB	IQUANT	0	I/E Stability
CASPEED	IQUANT	1	Control Amp Speed
CONVENTION	IQUANT	1	Current Convention
ICHRANGE	IQUANT	2	Ich Range
ICHRANGEMODE	TOGGLE	F	Ich Auto Range
ICHOFFSETENABLE	TOGGLE	T	Ich Offset Enable
ICHOFFSET	QUANT	0	Ich Offset (V)
ICHFILTER	IQUANT	3	Ich Filter
VCHRANGE	IQUANT	2	Vch Range
VCHRANGEMODE	TOGGLE	F	Vch Auto Range
VCHOFFSETENABLE	TOGGLE	T	Vch Offset Enable
VCHOFFSET	QUANT	0	Vch Offset (V)
VCHFILTER	IQUANT	3	Vch Filter
ACHRANGE	IQUANT	2	Ach Range
ACHOFFSETENABLE	TOGGLE	F	Ach Offset Enable
ACHOFFSET	QUANT	0	Ach Offset (V)
ACHFILTER	IQUANT	3	Ach Filter
IERANGELOWERLIMIT	IQUANT	2	I/E Range Lower Limit
IERANGEMODE	TOGGLE	F	I/E AutoRange
IERANGE	IQUANT	11	I/E Range
POSFEEDENABLE	TOGGLE	F	Positive Feedback IR Comp
POSFEEDRESISTANCE	QUANT	0	Positive Feedback Resistance (ohm)
ACHSELECT	IQUANT	0	Ach Select
CABLEID	IQUANT	13	Cable ID
DCCALDATE	LABEL	7/31/2020	DC Calibration Date
ACCALDATE	LABEL	7/31/2020	AC Calibration Date
THERMOSELECT	IQUANT	1	Thermo Select
FRAMEWORKVERSION	QUANT	6.33	Framework Version
INSTRUMENTVERSION	LABEL	3.50	Instrument Version
COMPLIANCEVOLTAGE	IQUANT	0	Compliance Voltage
ZCURVE	TABLE
	Pt	Time	Freq	Zreal	Zimag	Zsig	Zmod	Zphz	Idc	Vdc	IERange
	#	s	Hz	ohm	ohm	V	ohm	°	A	V	#
	0	7	300046.9	125.741	-7.507772	1	125.9649	-3.416974	5.217864E-006	-0.0016818	9
	1	10	238359.4	126.3603	-8.803205	1	126.6666	-3.985214	2.856804E-005	0.0002998	9
	2	13	189328.1	127.344	-10.40018	1	127.768	-4.66898	1.786802E-005	-0.0013971	9
	3	16	150421.9	128.5376	-12.17126	1	129.1126	-5.409224	-1.438252E-005	0.0010048	9
	4	19	119484.4	129.8834	-14.43421	1	130.683	-6.341379	-5.627256E-005	0.0010354	9
	5	22	94921.88	131.5352	-16.50317	1	132.5665	-7.151293	-1.470072E-005	0.0001461	9
	6	24	75421.88	133.2642	-19.35146	1	134.6619	-8.262241	2.641648E-005	-0.000503	9
	7	27	59859.37	135.2939	-22.50005	1	137.1521	-9.442155	1.699999E-005	-3.548461E-006	9
	8	29	47578.12	137.7334	-26.06126	1	140.1773	-10.71456	2.474002E-005	-0.0003958	9
	9	32	37828.12	140.3326	-30.1701	1	143.5391	-12.13333	-3.358713E-007	-0.0003858	9
	10	34	30046.88	143.3974	-34.88087	1	147.5788	-13.67147	-2.091342E-005	0.0005968	9
	11	37	23859.38	146.6532	-40.18835	1	152.06	-15.32493	-1.869661E-005	0.0009325	9
	12	39	18984.38	149.9598	-46.48206	1	156.9985	-17.22152	2.31621E-005	-0.0003458	9
	13	41	15046.87	153.549	-53.85986	1	162.7212	-19.32916	1.867231E-005	-0.0001127	9
	14	44	11953.13	157.1189	-62.78347	1	169.1984	-21.78126	1.971152E-005	-0.0001368	9
	15	46	9515.62	160.2276	-73.63084	1	176.336	-24.68063	-1.51908E-005	0.0001979	9
	16	48	7546.875	163.3554	-87.80586	1	185.4585	-28.25866	2.557995E-005	-0.0005098	9
	17	51	5928.309	166.2939	-105.883	1	197.1417	-32.48581	1.363436E-005	-0.0006875	9
	18	53	4733.456	168.9456	-128.1566	1	212.0536	-37.18276	-1.511143E-005	0.0001777	9
	19	55	3796.875	171.6695	-155.3701	1	231.5389	-42.14679	2.505577E-006	0.0005701	9
	20	58	2987.132	174.9983	-192.6472	1	260.264	-47.74838	-1.45371E-005	0.0001529	9
	21	60	2390.625	178.434	-237.0683	1	296.7154	-53.03235	-2.151106E-005	0.0006324	9
	22	62	1884.191	184.6871	-295.3645	1	348.3526	-57.98286	1.961707E-005	-0.0001195	9
	23	64	1516.544	188.9045	-363.0777	1	409.2802	-62.51263	2.519886E-005	-0.0004656	9
	24	67	1193.986	195.1413	-453.39	1	493.6017	-66.71272	-3.967196E-006	0.0032253	8
	25	69	946.5144	204.564	-566.3499	1	602.1617	-70.14042	5.432362E-006	-0.0020118	8
	26	72	751.7689	217.8314	-705.3648	1	738.2344	-72.83822	1.13464E-006	0.0019747	8
	27	74	597.4265	233.3225	-878.0386	1	908.5104	-75.11862	-6.864447E-006	0.0020047	8
	28	76	477.4305	254.5732	-1086.221	1	1115.654	-76.80988	1.651325E-007	0.0006352	8
	29	79	376.6741	284.2689	-1360.286	1	1389.672	-78.19636	1.572077E-007	0.0006337	8
	30	81	298.2954	323.1238	-1696.084	1	1726.589	-79.21375	1.582491E-007	0.0006334	8
	31	83	237.7717	373.0545	-2099.773	1	2132.655	-79.9257	1.650919E-007	0.0006361	8
	32	86	189.0121	439.1952	-2603.735	1	2640.516	-80.42554	1.651434E-007	0.0006356	8
	33	88	150.2404	525.8995	-3225.77	1	3268.357	-80.74049	1.480011E-007	0.0006357	8
	34	90	119.1737	639.1954	-4000.552	1	4051.294	-80.9222	1.470371E-007	0.0006559	8
	35	93	95.0169	787.549	-4941.67	1	5004.032	-80.94498	8.412338E-009	0.000628	7
	36	95	75.60484	977.84	-6099.007	1	6176.897	-80.89141	1.046539E-008	0.0006029	7
	37	98	54.50582	1356.723	-8232.491	1	8343.537	-80.64172	7.506966E-009	0.0006183	7
	38	100	45.95588	1624.773	-9614.12	1	9750.44	-80.40772	1.497192E-008	0.0006118	7
	39	103	37.20238	2043.845	-11638.61	1	11816.71	-80.0399	1.091933E-008	0.0006189	7
	40	105	30.04808	2600.893	-14136.75	1	14374.02	-79.57525	5.940934E-009	0.000666	7
	41	107	23.91582	3381.355	-17350.72	1	17677.13	-78.97227	9.449932E-009	0.0006151	7
	42	110	18.60119	4552.981	-21656.95	1	22130.37	-78.12749	1.451419E-008	0.0006287	7
	43	112	15.02404	5904.833	-26117.25	1	26776.44	-77.26022	1.577985E-008	0.0006216	7
	44	114	12.01923	7790.226	-31638.27	1	32583.25	-76.16735	1.344526E-008	0.0006231	7
	45	117	9.450605	10424.63	-38715.2	1	40094.14	-74.92971	1.445498E-008	0.000598	7
	46	119	7.512019	13831.22	-46716.02	1	48720.52	-73.50755	2.654274E-009	0.0006424	6
	47	122	5.978954	18229.18	-55895.58	1	58793.02	-71.93734	4.317907E-009	0.0006641	6
	48	125	4.734848	23962.71	-66850.5	1	71015.5	-70.27966	2.349825E-009	0.0006562	6
	49	128	3.75601	31039.32	-79297.98	1	85156.38	-68.62331	3.828984E-009	0.0006685	6
	50	132	3.004808	39569.85	-92740.38	1	100829.3	-66.89335	1.454226E-009	0.000701	6
	51	135	2.372217	50557.6	-108994.6	1	120149.5	-65.11558	2.412508E-009	0.0007047	6
	52	140	1.878005	64128.25	-126714.4	1	142017.5	-63.15672	1.93674E-009	0.0006342	6
	53	144	1.512097	78925.27	-145129.1	1	165201.8	-61.46141	1.219529E-009	0.0007605	6
	54	150	1.201923	97783.1	-166725.8	1	193284.8	-59.60879	1.452717E-009	0.0006444	6
	55	156	0.956633	119865.6	-189950.5	1	224608.4	-57.7466	-1.489561E-009	1.871364E-005	6
