EXPLAIN
TAG	EISPOT
TITLE	LABEL	Potentiostatic EIS	Test Identifier
DATE	LABEL	8/22/2020	Date
TIME	LABEL	0:10:10	Time
NOTES	NOTES	1	Notes...
	
PSTAT	PSTAT	REF3000-16137	Potentiostat
VDC	POTEN	0.00000E+000	T	DC Voltage (V)
FREQINIT	QUANT	3.00000E+005	Initial Freq. (Hz)
FREQFINAL	QUANT	1.00000E+000	Final Freq. (Hz)
PTSPERDEC	QUANT	1.00000E+001	Points/decade
VAC	QUANT	5.00000E+001	AC Voltage (mV rms)
AREA	QUANT	1.00000E+000	Sample Area (cm^2)
SPEED	SELECTOR	2	Optimize for:
ZGUESS	QUANT	1.00000E+003	Estimated Z (ohms)
EOC	QUANT	0	Open Circuit (V)
SEQUENCER	TOGGLE	TRUE	Run as Sequence
PSTATMODEL	IQUANT	5	Pstat Model
PSTATSECTION	LABEL	REF3000-16137	Pstat Section
PSTATSERIALNO	LABEL	16137	Pstat Serial Number
CTRLMODE	IQUANT	1	Control Mode
IESTAB	IQUANT	0	I/E Stability
CASPEED	IQUANT	1	Control Amp Speed
CONVENTION	IQUANT	1	Current Convention
ICHRANGE	IQUANT	2	Ich Range
ICHRANGEMODE	TOGGLE	F	Ich Auto Range
ICHOFFSETENABLE	TOGGLE	T	Ich Offset Enable
ICHOFFSET	QUANT	0	Ich Offset (V)
ICHFILTER	IQUANT	3	Ich Filter
VCHRANGE	IQUANT	2	Vch Range
VCHRANGEMODE	TOGGLE	F	Vch Auto Range
VCHOFFSETENABLE	TOGGLE	T	Vch Offset Enable
VCHOFFSET	QUANT	0	Vch Offset (V)
VCHFILTER	IQUANT	3	Vch Filter
ACHRANGE	IQUANT	2	Ach Range
ACHOFFSETENABLE	TOGGLE	F	Ach Offset Enable
ACHOFFSET	QUANT	0	Ach Offset (V)
ACHFILTER	IQUANT	3	Ach Filter
IERANGELOWERLIMIT	IQUANT	2	I/E Range Lower Limit
IERANGEMODE	TOGGLE	F	I/E AutoRange
IERANGE	IQUANT	11	I/E Range
POSFEEDENABLE	TOGGLE	F	Positive Feedback IR Comp
POSFEEDRESISTANCE	QUANT	0	Positive Feedback Resistance (ohm)
ACHSELECT	IQUANT	0	Ach Select
CABLEID	IQUANT	13	Cable ID
DCCALDATE	LABEL	7/31/2020	DC Calibration Date
ACCALDATE	LABEL	7/31/2020	AC Calibration Date
THERMOSELECT	IQUANT	1	Thermo Select
FRAMEWORKVERSION	QUANT	6.33	Framework Version
INSTRUMENTVERSION	LABEL	3.50	Instrument Version
COMPLIANCEVOLTAGE	IQUANT	0	Compliance Voltage
ZCURVE	TABLE
	Pt	Time	Freq	Zreal	Zimag	Zsig	Zmod	Zphz	Idc	Vdc	IERange
	#	s	Hz	ohm	ohm	V	ohm	°	A	V	#
	0	7	300046.9	90.33451	-4.855104	1	90.46489	-3.07645	4.882375E-006	-0.0016308	9
	1	10	238359.4	90.87636	-6.323526	1	91.0961	-3.980445	6.102855E-005	-0.0018479	9
	2	13	189328.1	91.50132	-7.826228	1	91.8354	-4.888685	-1.111513E-005	0.0006608	9
	3	16	150421.9	92.72659	-9.199867	1	93.18185	-5.666057	4.271898E-005	-0.0004192	9
	4	18	119484.4	93.55499	-11.132	1	94.21495	-6.785653	1.055819E-005	-0.0007842	9
	5	21	94921.88	94.757	-12.8276	1	95.6213	-7.709474	-9.528791E-006	-1.557577E-005	9
	6	23	75421.88	96.0876	-15.21646	1	97.285	-8.998649	1.082728E-005	-0.0006126	9
	7	26	59859.37	97.6287	-17.93068	1	99.2616	-10.40707	2.518838E-005	-0.0004992	9
	8	28	47578.12	99.5282	-20.93063	1	101.7052	-11.87616	-5.257542E-006	0.0006196	9
	9	31	37828.12	101.545	-24.27462	1	104.4061	-13.44442	1.943955E-005	-0.0001255	9
	10	33	30046.88	103.7384	-28.12495	1	107.4833	-15.16906	1.218463E-005	0.0001754	9
	11	36	23859.38	106.2271	-32.64125	1	111.129	-17.08104	-7.047864E-006	-6.282121E-005	9
	12	38	18984.38	108.7226	-37.84224	1	115.1201	-19.19108	1.193833E-005	-0.0006189	9
	13	41	15046.87	111.5056	-44.16346	1	119.9329	-21.60678	2.220976E-005	-0.0007234	9
	14	43	11953.13	113.848	-51.86532	1	125.1055	-24.49241	1.807314E-005	-0.0006709	9
	15	45	9515.62	116.1045	-61.17348	1	131.2343	-27.78398	2.251317E-005	-0.0005279	9
	16	48	7546.875	118.5436	-73.25213	1	139.3502	-31.71333	2.215953E-005	-0.0007073	9
	17	50	5928.309	120.8725	-89.18059	1	150.211	-36.42016	-9.681557E-006	3.177819E-006	9
	18	52	4733.456	123.205	-108.3011	1	164.0384	-41.31648	-1.723321E-005	0.0008426	9
	19	54	3796.875	125.7229	-131.4754	1	181.9121	-46.28128	-6.316752E-006	-6.400097E-005	9
	20	57	2987.132	128.7687	-163.3816	1	208.0263	-51.75671	-1.189497E-005	0.0008056	9
	21	59	2390.625	132.3147	-201.2372	1	240.8393	-56.67482	2.783836E-006	0.000426	9
	22	61	1884.191	138.6904	-251.1098	1	286.8644	-61.0877	-9.299031E-006	-6.736309E-006	9
	23	64	1516.544	143.7106	-308.3673	1	340.2104	-65.01274	1.903314E-005	-0.000146	9
	24	66	1193.986	150.9295	-384.9757	1	413.5045	-68.59237	2.266675E-005	-0.0002878	9
	25	69	946.5144	162.9256	-476.6501	1	503.7262	-71.12887	1.158121E-006	-0.000756	8
	26	71	751.7689	176.6173	-592.3378	1	618.1082	-73.39701	6.540447E-006	-0.0009957	8
	27	73	597.4265	194.9371	-735.3036	1	760.7048	-75.15183	5.094155E-006	-7.988598E-006	8
	28	75	477.4305	219.4521	-905.4573	1	931.6718	-76.37616	2.355424E-007	0.0006445	8
	29	78	376.6741	253.6281	-1128.649	1	1156.795	-77.33498	2.348403E-007	0.0006478	8
	30	80	298.2954	298.3315	-1400.293	1	1431.72	-77.97298	2.245286E-007	0.0006515	8
	31	82	237.7717	355.361	-1724.242	1	1760.48	-78.35457	2.351538E-007	0.000647	8
	32	85	189.0121	431.198	-2125.706	1	2168.999	-78.53318	2.479589E-007	0.0006396	8
	33	87	150.2404	529.9613	-2616.581	1	2669.711	-78.55022	2.273356E-007	0.0006492	8
	34	90	119.1737	660.0165	-3222.943	1	3289.83	-78.42659	2.44827E-007	0.0006435	8
	35	92	95.0169	826.8722	-3945.577	1	4031.29	-78.16386	2.58422E-007	0.0006471	8
	36	95	75.60484	1049.101	-4842.612	1	4954.947	-77.77636	2.799434E-008	0.0006173	7
	37	97	54.50582	1490.138	-6455.751	1	6625.499	-77.00244	2.519118E-008	0.0006176	7
	38	100	45.95588	1797.847	-7488.624	1	7701.411	-76.50009	3.737968E-008	0.0006197	7
	39	102	37.20238	2284.128	-8983.556	1	9269.386	-75.73445	2.993165E-008	0.0006185	7
	40	104	30.04808	2925.958	-10774.17	1	11164.41	-74.80653	3.078889E-008	0.0006134	7
	41	107	23.91582	3828.763	-13046.55	1	13596.76	-73.64465	3.135858E-008	0.0006132	7
	42	109	18.60119	5132.287	-15982.25	1	16786.09	-72.19691	3.396024E-008	0.0006314	7
	43	111	15.02404	6614.396	-18916.97	1	20040.01	-70.72762	3.115673E-008	0.000613	7
	44	114	12.01923	8611.417	-22415.54	1	24012.76	-68.98463	3.745515E-008	0.0006228	7
	45	116	9.450605	11375.51	-26684.54	1	29008.05	-66.91165	2.529288E-008	0.0006276	7
	46	119	7.512019	14732.22	-31248.52	1	34547.19	-64.7583	3.111441E-008	0.0006274	7
	47	121	5.978954	18875.41	-36110.93	1	40746.54	-62.40365	2.928704E-008	0.0006235	7
	48	124	4.734848	24126.73	-41499.34	1	48003.06	-59.82729	1.18225E-008	0.0006703	6
	49	128	3.75601	30379.9	-46962.74	1	55932.43	-57.10143	6.609228E-009	0.0006593	6
	50	131	3.004808	37505.61	-52090.59	1	64188.01	-54.24583	1.026871E-008	0.0006295	6
	51	135	2.372217	46271.1	-57377.46	1	73710.16	-51.11613	5.423021E-009	0.0006005	6
	52	139	1.878005	56176.69	-61394.45	1	83217.18	-47.5411	5.039877E-009	0.0006659	6
	53	144	1.512097	66005.06	-64274.44	1	92129.65	-44.23893	5.573875E-009	0.000551	6
	54	149	1.201923	76848.18	-64659.12	1	100431.3	-40.07685	4.492403E-009	0.0006685	6
	55	162	0.956633	87376.13	-63967.85	1	108288.8	-36.20777	-7.171299E-010	2.138209E-005	6
