EXPLAIN
TAG	EISPOT
TITLE	LABEL	Potentiostatic EIS	Test Identifier
DATE	LABEL	8/22/2020	Date
TIME	LABEL	0:18:35	Time
NOTES	NOTES	1	Notes...
	
PSTAT	PSTAT	REF3000-16137	Potentiostat
VDC	POTEN	0.00000E+000	T	DC Voltage (V)
FREQINIT	QUANT	3.00000E+005	Initial Freq. (Hz)
FREQFINAL	QUANT	1.00000E+000	Final Freq. (Hz)
PTSPERDEC	QUANT	1.00000E+001	Points/decade
VAC	QUANT	5.00000E+001	AC Voltage (mV rms)
AREA	QUANT	1.00000E+000	Sample Area (cm^2)
SPEED	SELECTOR	2	Optimize for:
ZGUESS	QUANT	1.00000E+003	Estimated Z (ohms)
EOC	QUANT	0	Open Circuit (V)
SEQUENCER	TOGGLE	TRUE	Run as Sequence
PSTATMODEL	IQUANT	5	Pstat Model
PSTATSECTION	LABEL	REF3000-16137	Pstat Section
PSTATSERIALNO	LABEL	16137	Pstat Serial Number
CTRLMODE	IQUANT	1	Control Mode
IESTAB	IQUANT	0	I/E Stability
CASPEED	IQUANT	1	Control Amp Speed
CONVENTION	IQUANT	1	Current Convention
ICHRANGE	IQUANT	2	Ich Range
ICHRANGEMODE	TOGGLE	F	Ich Auto Range
ICHOFFSETENABLE	TOGGLE	T	Ich Offset Enable
ICHOFFSET	QUANT	0	Ich Offset (V)
ICHFILTER	IQUANT	3	Ich Filter
VCHRANGE	IQUANT	2	Vch Range
VCHRANGEMODE	TOGGLE	F	Vch Auto Range
VCHOFFSETENABLE	TOGGLE	T	Vch Offset Enable
VCHOFFSET	QUANT	0	Vch Offset (V)
VCHFILTER	IQUANT	3	Vch Filter
ACHRANGE	IQUANT	2	Ach Range
ACHOFFSETENABLE	TOGGLE	F	Ach Offset Enable
ACHOFFSET	QUANT	0	Ach Offset (V)
ACHFILTER	IQUANT	3	Ach Filter
IERANGELOWERLIMIT	IQUANT	2	I/E Range Lower Limit
IERANGEMODE	TOGGLE	F	I/E AutoRange
IERANGE	IQUANT	11	I/E Range
POSFEEDENABLE	TOGGLE	F	Positive Feedback IR Comp
POSFEEDRESISTANCE	QUANT	0	Positive Feedback Resistance (ohm)
ACHSELECT	IQUANT	0	Ach Select
CABLEID	IQUANT	13	Cable ID
DCCALDATE	LABEL	7/31/2020	DC Calibration Date
ACCALDATE	LABEL	7/31/2020	AC Calibration Date
THERMOSELECT	IQUANT	1	Thermo Select
FRAMEWORKVERSION	QUANT	6.33	Framework Version
INSTRUMENTVERSION	LABEL	3.50	Instrument Version
COMPLIANCEVOLTAGE	IQUANT	0	Compliance Voltage
ZCURVE	TABLE
	Pt	Time	Freq	Zreal	Zimag	Zsig	Zmod	Zphz	Idc	Vdc	IERange
	#	s	Hz	ohm	ohm	V	ohm	°	A	V	#
	0	7	300046.9	97.967	-5.305426	1	98.1105	-3.099839	-7.832475E-005	0.0018137	9
	1	10	238359.4	98.6973	-6.865263	1	98.9358	-3.979014	5.166124E-005	-0.0006735	9
	2	13	189328.1	99.5671	-8.482064	1	99.9278	-4.869237	-7.617776E-005	0.0020003	9
	3	15	150421.9	100.5515	-9.97915	1	101.0455	-5.667712	-6.377358E-006	0.0007879	9
	4	18	119484.4	101.5444	-11.84158	1	102.2325	-6.651497	5.513309E-006	0.0012207	9
	5	21	94921.88	102.9396	-13.8105	1	103.8619	-7.641242	-1.373224E-005	0.0001447	9
	6	23	75421.88	104.3316	-16.36394	1	105.6071	-8.91396	2.470342E-005	-0.0004816	9
	7	26	59859.37	106.0981	-19.18861	1	107.8193	-10.25154	5.570093E-006	-0.0005103	9
	8	28	47578.12	108.0783	-22.32494	1	110.3599	-11.67102	-2.052525E-005	0.0006057	9
	9	31	37828.12	110.2782	-25.86987	1	113.2719	-13.20215	2.413109E-005	-0.0006405	9
	10	33	30046.88	112.6225	-29.98072	1	116.5447	-14.90674	-5.198992E-006	0.0007735	9
	11	36	23859.38	115.2408	-34.66139	1	120.3406	-16.7399	-1.726805E-005	0.0008799	9
	12	38	18984.38	117.96	-40.24704	1	124.637	-18.83925	-2.051294E-005	0.0005089	9
	13	40	15046.87	120.84	-46.79413	1	129.584	-21.16841	-9.639842E-006	0.0007346	9
	14	43	11953.13	123.4106	-55.00525	1	135.1139	-24.02297	-9.616719E-006	1.351356E-005	9
	15	45	9515.62	125.9045	-64.9332	1	141.6625	-27.28169	2.25295E-005	-0.0002443	9
	16	47	7546.875	128.329	-77.48283	1	149.9064	-31.12285	-1.128596E-005	0.0008169	9
	17	50	5928.309	130.7355	-94.73009	1	161.4483	-35.92685	-2.006884E-005	0.0007881	9
	18	52	4733.456	133.1476	-114.6386	1	175.6995	-40.72809	2.305361E-006	0.0004887	9
	19	54	3796.875	135.7215	-139.587	1	194.6917	-45.80441	2.488196E-005	-0.0006061	9
	20	57	2987.132	138.9499	-173.5238	1	222.3007	-51.31387	-1.948271E-005	0.0004977	9
	21	59	2390.625	142.8488	-212.8817	1	256.3677	-56.13742	5.731174E-006	-0.0005148	9
	22	61	1884.191	148.4488	-265.3466	1	304.0491	-60.77507	-2.034671E-005	0.0006494	9
	23	64	1516.544	153.0932	-326.4089	1	360.5278	-64.87236	-5.098506E-006	0.0006959	9
	24	66	1193.986	161.206	-406.9923	1	437.7558	-68.39192	-5.827897E-006	0.0022209	8
	25	68	946.5144	170.94	-507.6943	1	535.6995	-71.39169	4.788601E-006	-0.0015643	8
	26	71	751.7689	184.0288	-630.559	1	656.8647	-73.7301	5.326005E-006	2.317913E-006	8
	27	73	597.4265	203.2405	-782.6639	1	808.622	-75.44308	-3.179844E-006	0.0006134	8
	28	75	477.4305	226.7529	-966.788	1	993.024	-76.80029	2.210384E-007	0.0006439	8
	29	78	376.6741	259.6698	-1207.003	1	1234.619	-77.85867	2.271414E-007	0.0006434	8
	30	80	298.2954	302.81	-1499.974	1	1530.234	-78.58671	2.209871E-007	0.0006498	8
	31	82	237.7717	358.0029	-1850.251	1	1884.568	-79.04922	2.111098E-007	0.0006435	8
	32	85	189.0121	430.9009	-2285.505	1	2325.771	-79.32299	2.251971E-007	0.000643	8
	33	87	150.2404	526.1008	-2819.23	1	2867.898	-79.42953	2.230392E-007	0.000642	8
	34	90	119.1737	650.8737	-3482.403	1	3542.707	-79.41336	2.334862E-007	0.000644	8
	35	92	95.0169	813.2757	-4282.18	1	4358.725	-79.24641	2.10496E-008	0.0006253	7
	36	94	75.60484	1023.087	-5260.579	1	5359.141	-78.9944	2.099937E-008	0.0006144	7
	37	97	54.50582	1443.623	-7045.877	1	7192.249	-78.42097	2.123788E-008	0.0006232	7
	38	100	45.95588	1739.836	-8200.786	1	8383.312	-78.02203	2.397844E-008	0.0006265	7
	39	102	37.20238	2203.418	-9876.54	1	10119.34	-77.42348	2.630752E-008	0.0006172	7
	40	104	30.04808	2820.374	-11891.84	1	12221.72	-76.65775	2.458488E-008	0.0006085	7
	41	107	23.91582	3694.186	-14486.43	1	14950.04	-75.6939	2.375204E-008	0.0006125	7
	42	109	18.60119	4987.178	-17892.01	1	18574.06	-74.42484	2.979602E-008	0.000643	7
	43	111	15.02404	6457.19	-21324.61	1	22280.81	-73.15344	2.713054E-008	0.0006134	7
	44	114	12.01923	8448.06	-25480.43	1	26844.4	-71.65701	2.834802E-008	0.0006194	7
	45	116	9.450605	11256.21	-30666.97	1	32667.5	-69.84451	2.947369E-008	0.0006245	7
	46	118	7.512019	14705.15	-36254.01	1	39122.81	-67.92181	3.317054E-008	0.0006325	7
	47	121	5.978954	19092.07	-42523.84	1	46613.14	-65.8212	9.321854E-009	0.0006675	6
	48	124	4.734848	24573.66	-49606.15	1	55359.14	-63.64732	1.231541E-008	0.0007059	6
	49	127	3.75601	31293.4	-57232.23	1	65228.87	-61.33108	6.391589E-009	0.0006438	6
	50	131	3.004808	39103.79	-65051.22	1	75899.72	-58.98895	8.634339E-009	0.0006425	6
	51	135	2.372217	48952.05	-73644.42	1	88429.66	-56.38769	5.762653E-009	0.0006783	6
	52	139	1.878005	60752.45	-82043.58	1	102088.2	-53.48042	4.68199E-009	0.0006664	6
	53	144	1.512097	73105.69	-89593.37	1	115634.8	-50.78651	5.310513E-009	0.0005535	6
	54	149	1.201923	87968.84	-96978.6	1	130932.7	-47.78899	3.742027E-009	0.0006762	6
	55	155	0.956633	104229.2	-102746.6	1	146357.8	-44.58958	1.705536E-009	4.175734E-005	6
