EXPLAIN
TAG	EISPOT
TITLE	LABEL	Potentiostatic EIS	Test Identifier
DATE	LABEL	8/22/2020	Date
TIME	LABEL	1:15:32	Time
NOTES	NOTES	1	Notes...
	
PSTAT	PSTAT	REF3000-16137	Potentiostat
VDC	POTEN	0.00000E+000	T	DC Voltage (V)
FREQINIT	QUANT	3.00000E+005	Initial Freq. (Hz)
FREQFINAL	QUANT	1.00000E+000	Final Freq. (Hz)
PTSPERDEC	QUANT	1.00000E+001	Points/decade
VAC	QUANT	5.00000E+001	AC Voltage (mV rms)
AREA	QUANT	1.00000E+000	Sample Area (cm^2)
SPEED	SELECTOR	2	Optimize for:
ZGUESS	QUANT	1.00000E+003	Estimated Z (ohms)
EOC	QUANT	0	Open Circuit (V)
SEQUENCER	TOGGLE	TRUE	Run as Sequence
PSTATMODEL	IQUANT	5	Pstat Model
PSTATSECTION	LABEL	REF3000-16137	Pstat Section
PSTATSERIALNO	LABEL	16137	Pstat Serial Number
CTRLMODE	IQUANT	1	Control Mode
IESTAB	IQUANT	0	I/E Stability
CASPEED	IQUANT	1	Control Amp Speed
CONVENTION	IQUANT	1	Current Convention
ICHRANGE	IQUANT	2	Ich Range
ICHRANGEMODE	TOGGLE	F	Ich Auto Range
ICHOFFSETENABLE	TOGGLE	T	Ich Offset Enable
ICHOFFSET	QUANT	0	Ich Offset (V)
ICHFILTER	IQUANT	3	Ich Filter
VCHRANGE	IQUANT	2	Vch Range
VCHRANGEMODE	TOGGLE	F	Vch Auto Range
VCHOFFSETENABLE	TOGGLE	T	Vch Offset Enable
VCHOFFSET	QUANT	0	Vch Offset (V)
VCHFILTER	IQUANT	3	Vch Filter
ACHRANGE	IQUANT	2	Ach Range
ACHOFFSETENABLE	TOGGLE	F	Ach Offset Enable
ACHOFFSET	QUANT	0	Ach Offset (V)
ACHFILTER	IQUANT	3	Ach Filter
IERANGELOWERLIMIT	IQUANT	2	I/E Range Lower Limit
IERANGEMODE	TOGGLE	F	I/E AutoRange
IERANGE	IQUANT	11	I/E Range
POSFEEDENABLE	TOGGLE	F	Positive Feedback IR Comp
POSFEEDRESISTANCE	QUANT	0	Positive Feedback Resistance (ohm)
ACHSELECT	IQUANT	0	Ach Select
CABLEID	IQUANT	13	Cable ID
DCCALDATE	LABEL	7/31/2020	DC Calibration Date
ACCALDATE	LABEL	7/31/2020	AC Calibration Date
THERMOSELECT	IQUANT	1	Thermo Select
FRAMEWORKVERSION	QUANT	6.33	Framework Version
INSTRUMENTVERSION	LABEL	3.50	Instrument Version
COMPLIANCEVOLTAGE	IQUANT	0	Compliance Voltage
ZCURVE	TABLE
	Pt	Time	Freq	Zreal	Zimag	Zsig	Zmod	Zphz	Idc	Vdc	IERange
	#	s	Hz	ohm	ohm	V	ohm	°	A	V	#
	0	23	300046.9	2263.601	-1609.348	1	2777.389	-35.41162	-2.301416E-005	0.0014161	9
	1	41	238359.4	2575.177	-1479.374	1	2969.863	-29.87627	-2.009877E-005	0.0010216	9
	2	55	189328.1	2873.327	-1328.246	1	3165.478	-24.80957	-6.211791E-005	0.0006084	9
	3	63	150421.9	3075.115	-1183.728	1	3295.079	-21.0536	-9.14186E-005	0.0022512	9
	4	71	119484.4	3316.607	-934.0084	1	3445.614	-15.72805	-5.787509E-006	-0.0130687	8
	5	78	94921.88	3429.911	-820.947	1	3526.789	-13.46048	2.386874E-005	-0.0083327	8
	6	84	75421.88	3525.743	-702.7986	1	3595.107	-11.27321	6.973056E-006	-0.0070247	8
	7	91	59859.37	3614.405	-702.0421	1	3681.954	-10.99195	-2.495715E-005	0.0010283	9
	8	99	47578.12	3708.765	-529.0325	1	3746.307	-8.118125	-2.264961E-005	0.0103163	8
	9	106	37828.12	3779.586	-468.2628	1	3808.483	-7.062535	-1.06882E-005	0.0094348	8
	10	112	30046.88	3838.854	-416.5625	1	3861.389	-6.193058	-1.444034E-006	0.0071408	8
	11	118	23859.38	3977.685	-153.899	1	3980.661	-2.215703	-4.027937E-006	0.0226313	7
	12	121	18984.38	3944.724	-365.1593	1	3961.589	-5.288743	-2.468633E-005	0.0073274	8
	13	126	15046.87	3992.19	-356.4752	1	4008.073	-5.102588	-1.03467E-005	0.0093809	8
	14	132	11953.13	4061.716	-361.1707	1	4077.742	-5.081418	2.401611E-005	-0.0083989	8
	15	137	9515.62	4104.972	-363.6982	1	4121.052	-5.063152	-1.929637E-005	0.0028906	8
	16	142	7546.875	4168.449	-387.2169	1	4186.396	-5.307108	-1.764091E-005	0.0103858	8
	17	148	5928.309	4232.145	-389.9041	1	4250.067	-5.263756	8.372082E-006	0.0036966	8
	18	153	4733.456	4314.901	-469.7134	1	4340.392	-6.212667	-2.253602E-005	0.0051765	8
	19	158	3796.875	4377.137	-504.2155	1	4406.083	-6.571109	-1.551782E-005	0.0009099	8
	20	164	2987.132	4490.672	-552.9448	1	4524.586	-7.019602	-2.476876E-005	0.0091212	8
	21	169	2390.625	4494.684	-494.8866	1	4521.847	-6.283236	-1.576002E-005	0.0010548	8
	22	175	1884.191	4634.404	-806.3417	1	4704.029	-9.87011	8.289127E-006	0.00374	8
	23	180	1516.544	4767.754	-863.2588	1	4845.275	-10.2629	-1.690944E-006	-0.0045537	8
	24	185	1193.986	4868.315	-956.097	1	4961.312	-11.11101	6.23487E-006	-0.0224825	7
	25	189	946.5144	4947.091	-1058.522	1	5059.069	-12.07739	-1.245187E-006	0.0070793	8
	26	193	751.7689	5140.412	-1344.997	1	5313.459	-14.66282	-5.222649E-006	0.0231197	7
	27	196	597.4265	5264.069	-1536.946	1	5483.852	-16.27618	1.866959E-006	-0.0187712	7
	28	198	477.4305	5384.839	-1767.619	1	5667.537	-18.17286	-8.731451E-008	0.000661	7
	29	201	376.6741	5529.9	-2070.698	1	5904.878	-20.52866	-8.025783E-008	0.0005827	7
	30	203	298.2954	5672.221	-2432.3	1	6171.724	-23.2101	-8.004599E-008	0.0005844	7
	31	205	237.7717	5813.996	-2867.612	1	6482.727	-26.2537	-7.913123E-008	0.000571	7
	32	208	189.0121	5950.587	-3416.462	1	6861.611	-29.8618	-7.856376E-008	0.0005685	7
	33	210	150.2404	6085.688	-4105.825	1	7341.212	-34.00632	-8.514137E-008	0.0006305	7
	34	212	119.1737	6227.241	-4989.453	1	7979.547	-38.70275	-7.825603E-008	0.0005855	7
	35	215	95.0169	6372.179	-6080.722	1	8807.942	-43.65925	-7.661711E-008	0.0005926	7
	36	217	75.60484	6536.016	-7460.208	1	9918.38	-48.77784	-8.082074E-008	0.0005817	7
	37	220	54.50582	6817.742	-10068.84	1	12159.9	-55.89756	-8.385958E-008	0.0006576	7
	38	222	45.95588	7006.556	-11793.73	1	13718.01	-59.28581	-7.728609E-008	0.000611	7
	39	225	37.20238	7286.008	-14367.04	1	16108.94	-63.10891	-7.720895E-008	0.0006055	7
	40	227	30.04808	7634.772	-17556.22	1	19144.46	-66.49695	-8.504616E-008	0.0006544	7
	41	230	23.91582	8105.766	-21749.68	1	23211.03	-69.56036	-7.557979E-008	0.0005743	7
	42	232	18.60119	8776.893	-27551.07	1	28915.31	-72.32978	-8.391527E-008	0.0006392	7
	43	234	15.02404	9490.317	-33645.93	1	34958.76	-74.24813	-8.565596E-008	0.0006456	7
	44	236	12.01923	10454.55	-41484.39	1	42781.45	-75.85532	-8.396329E-008	0.0006594	7
	45	239	9.450605	11827.68	-51958.91	1	53288.1	-77.17599	-9.650503E-009	0.0006971	6
	46	241	7.512019	13497.47	-64395.9	1	65795.24	-78.16209	-9.920968E-009	0.0006742	6
	47	244	5.978954	15609.17	-79619.63	1	81135.27	-78.90803	-8.361583E-009	0.0006181	6
	48	247	4.734848	18412.12	-99004	1	100701.5	-79.46486	-9.139021E-009	0.000678	6
	49	250	3.75601	22151.95	-122756.4	1	124739	-79.7708	-7.793978E-009	0.000625	6
	50	254	3.004808	26870.9	-150881.7	1	153255.8	-79.90192	-8.470847E-009	0.0006442	6
	51	259	2.372217	33527.23	-187588.9	1	190561.5	-79.86668	-9.00737E-009	0.0007092	6
	52	263	1.878005	42870.64	-232597.5	1	236515.3	-79.55687	-8.810678E-009	0.0006333	6
	53	268	1.512097	54288.32	-283165.6	1	288322.7	-79.14699	-8.959927E-009	0.0007581	6
	54	273	1.201923	70016.4	-348656.3	1	355617.1	-78.64502	-8.750018E-009	0.0006266	6
	55	280	0.956633	90598.01	-427162.6	1	436664.5	-78.02544	-9.383456E-009	1.316277E-005	6
