EXPLAIN
TAG	EISPOT
TITLE	LABEL	Potentiostatic EIS	Test Identifier
DATE	LABEL	8/22/2020	Date
TIME	LABEL	2:20:53	Time
NOTES	NOTES	1	Notes...
	
PSTAT	PSTAT	REF3000-16137	Potentiostat
VDC	POTEN	0.00000E+000	T	DC Voltage (V)
FREQINIT	QUANT	3.00000E+005	Initial Freq. (Hz)
FREQFINAL	QUANT	1.00000E+000	Final Freq. (Hz)
PTSPERDEC	QUANT	1.00000E+001	Points/decade
VAC	QUANT	5.00000E+001	AC Voltage (mV rms)
AREA	QUANT	1.00000E+000	Sample Area (cm^2)
SPEED	SELECTOR	2	Optimize for:
ZGUESS	QUANT	1.00000E+003	Estimated Z (ohms)
EOC	QUANT	0	Open Circuit (V)
SEQUENCER	TOGGLE	TRUE	Run as Sequence
PSTATMODEL	IQUANT	5	Pstat Model
PSTATSECTION	LABEL	REF3000-16137	Pstat Section
PSTATSERIALNO	LABEL	16137	Pstat Serial Number
CTRLMODE	IQUANT	1	Control Mode
IESTAB	IQUANT	0	I/E Stability
CASPEED	IQUANT	1	Control Amp Speed
CONVENTION	IQUANT	1	Current Convention
ICHRANGE	IQUANT	2	Ich Range
ICHRANGEMODE	TOGGLE	F	Ich Auto Range
ICHOFFSETENABLE	TOGGLE	T	Ich Offset Enable
ICHOFFSET	QUANT	0	Ich Offset (V)
ICHFILTER	IQUANT	3	Ich Filter
VCHRANGE	IQUANT	2	Vch Range
VCHRANGEMODE	TOGGLE	F	Vch Auto Range
VCHOFFSETENABLE	TOGGLE	T	Vch Offset Enable
VCHOFFSET	QUANT	0	Vch Offset (V)
VCHFILTER	IQUANT	3	Vch Filter
ACHRANGE	IQUANT	2	Ach Range
ACHOFFSETENABLE	TOGGLE	F	Ach Offset Enable
ACHOFFSET	QUANT	0	Ach Offset (V)
ACHFILTER	IQUANT	3	Ach Filter
IERANGELOWERLIMIT	IQUANT	2	I/E Range Lower Limit
IERANGEMODE	TOGGLE	F	I/E AutoRange
IERANGE	IQUANT	11	I/E Range
POSFEEDENABLE	TOGGLE	F	Positive Feedback IR Comp
POSFEEDRESISTANCE	QUANT	0	Positive Feedback Resistance (ohm)
ACHSELECT	IQUANT	0	Ach Select
CABLEID	IQUANT	13	Cable ID
DCCALDATE	LABEL	7/31/2020	DC Calibration Date
ACCALDATE	LABEL	7/31/2020	AC Calibration Date
THERMOSELECT	IQUANT	1	Thermo Select
FRAMEWORKVERSION	QUANT	6.33	Framework Version
INSTRUMENTVERSION	LABEL	3.50	Instrument Version
COMPLIANCEVOLTAGE	IQUANT	0	Compliance Voltage
ZCURVE	TABLE
	Pt	Time	Freq	Zreal	Zimag	Zsig	Zmod	Zphz	Idc	Vdc	IERange
	#	s	Hz	ohm	ohm	V	ohm	°	A	V	#
	0	15	300046.9	-27.79618	-4785.334	1	4785.415	-90.3328	2.705018E-005	0.0009314	9
	1	30	238359.4	49.53183	-5838.479	1	5838.689	-89.51393	1.946805E-005	-0.0005266	9
	2	44	189328.1	177.4732	-7460.575	1	7462.686	-88.6373	1.931105E-005	-0.0021253	9
	3	53	150421.9	488.7699	-9070.026	1	9083.187	-86.91541	5.022116E-005	0.0002326	9
	4	62	119484.4	492.3365	-11744.85	1	11755.16	-87.5996	1.538601E-006	-0.0018872	9
	5	75	94921.88	616.1735	-14295.76	1	14309.03	-87.53197	1.732955E-005	0.0003412	8
	6	84	75421.88	648.728	-18109.51	1	18121.13	-87.9484	-1.235914E-005	0.010379	8
	7	92	59859.37	573.9386	-22979.96	1	22987.13	-88.5693	1.761691E-005	0.0003521	8
	8	101	47578.12	391.2495	-28965.88	1	28968.52	-89.22614	1.947304E-005	-0.0009723	9
	9	111	37828.12	686.6891	-35913.62	1	35920.19	-88.9046	-2.714528E-005	0.0098227	8
	10	120	30046.88	-12.92005	-46527.43	1	46527.43	-90.01591	8.373035E-006	0.0042748	8
	11	128	23859.38	2717.855	-54623.36	1	54690.94	-87.15153	-2.520792E-005	0.0111592	8
	12	135	18984.38	2402.564	-70857.68	1	70898.4	-88.05802	-2.664245E-005	0.0075984	8
	13	141	15046.87	-4769.466	-96556	1	96673.7	-92.82787	-2.231594E-006	0.0078857	8
	14	149	11953.13	6641.435	-111963.6	1	112160.4	-86.60532	-3.835166E-006	0.0260009	7
	15	155	9515.62	6060.764	-142388.4	1	142517.3	-87.56268	-6.714713E-006	0.0266385	7
	16	162	7546.875	-1787.987	-180424.8	1	180433.6	-90.56777	7.719462E-006	-0.0188412	7
	17	168	5928.309	10025.64	-233548.7	1	233763.8	-87.54195	7.788808E-006	-0.0247686	7
	18	175	4733.456	12431.19	-301490.1	1	301746.3	-87.63889	2.825408E-006	0.0086249	7
	19	180	3796.875	24276.45	-336254.1	1	337129.3	-85.8706	-6.655252E-006	0.0261647	7
	20	188	2987.132	-109789.8	-505987.1	1	517761.3	-102.2423	-2.066625E-005	0.0028118	8
	21	197	2390.625	63368.44	-535994.9	1	539727.8	-83.25745	-3.828839E-006	0.0257489	7
	22	204	1884.191	75013.13	-632449.7	1	636882.7	-83.23591	-5.441132E-006	0.003566	7
	23	211	1516.544	66360.14	-852355.9	1	854935.3	-85.54822	-5.420726E-006	0.0270833	7
	24	217	1193.986	-160240.1	-231601.9	1	281631.6	-124.6785	2.746476E-005	-0.0074414	8
	25	226	946.5144	148033.3	-195465.3	1	245194.9	-52.86198	-2.661043E-005	0.0076727	8
	26	232	751.7689	137988.9	-346583.4	1	373042.9	-68.29049	2.638864E-005	-0.009094	8
	27	239	597.4265	202082.2	-105588.4	1	228004.6	-27.58716	1.735282E-005	0.0003228	8
	28	246	477.4305	59017.47	-2779789	1	2780416	-88.78374	-9.222912E-008	0.0005735	7
	29	252	376.6741	480856.9	-3665794	1	3697197	-82.52695	-9.217143E-010	0.0005998	5
	30	256	298.2954	513379.7	-4552456	1	4581311	-83.56595	-1.052147E-009	0.0006877	5
	31	259	237.7717	564025.3	-5569007	1	5597496	-84.21684	-1.024856E-009	0.000644	5
	32	261	189.0121	552021.9	-7062310	1	7083851	-85.53059	-9.75575E-010	0.0006476	5
	33	264	150.2404	641600.4	-9248774	1	9271002	-86.03167	-1.030819E-009	0.0006263	5
	34	267	119.1737	-3427619	-1.117735E+007	1	1.16911E+007	-107.0485	-1.020955E-009	0.0006877	5
	35	270	95.0169	1064797	-1.373021E+007	1	1.377144E+007	-85.56551	-9.648551E-010	0.0006302	5
	36	273	75.60484	1283709	-1.68745E+007	1	1.692326E+007	-85.64967	-1.013553E-009	0.0005916	5
	37	275	54.50582	1635762	-2.38768E+007	1	2.393276E+007	-86.08088	-9.719061E-010	0.0005928	5
	38	279	45.95588	1332769	-2.677108E+007	1	2.680423E+007	-87.14995	-9.775999E-010	0.0006147	5
	39	282	37.20238	2961103	-3.723645E+007	1	3.7354E+007	-85.45332	-1.008313E-009	0.0006972	5
	40	286	30.04808	5300299	-4.40245E+007	1	4.434241E+007	-83.13496	-9.301173E-011	0.000603	4
	41	290	23.91582	7287877	-5.044515E+007	1	5.096888E+007	-81.77928	-1.403274E-010	0.0006053	4
	42	294	18.60119	2.089332E+007	-5.714961E+007	1	6.084906E+007	-69.9181	3.967987E-011	0.0006023	4
	43	298	15.02404	6152240	-8.671221E+007	1	8.693018E+007	-85.94166	-9.923221E-011	0.0006833	4
	44	301	12.01923	8495179	-1.07051E+008	1	1.073875E+008	-85.46272	-9.857203E-011	0.0006	4
	45	305	9.450605	8412048	-1.47038E+008	1	1.472784E+008	-86.72568	-1.146228E-010	0.0006018	4
	46	309	7.512019	8639016	-1.695219E+008	1	1.697418E+008	-87.08267	-9.587865E-011	0.000618	4
	47	313	5.978954	2327543	-2.291986E+008	1	2.292104E+008	-89.41817	-8.060435E-011	0.0006545	4
	48	319	4.734848	5.187513E+007	-2.799903E+008	1	2.847553E+008	-79.50356	-9.820309E-012	0.0007429	3
	49	324	3.75601	9.819152E+006	-3.23586E+008	1	3.23735E+008	-88.2619	-1.008163E-009	0.0006592	5
	50	332	3.004808	3.238626E+007	-4.159913E+008	1	4.1725E+008	-85.54832	-1.009926E-009	0.000682	5
	51	341	2.372217	7.667435E+007	-5.324466E+008	1	5.379389E+008	-81.80552	-1.052464E-011	0.0006844	3
	52	347	1.878005	9.224838E+007	-6.662097E+008	1	6.72566E+008	-82.11652	-1.046813E-011	0.000727	3
	53	356	1.512097	1.125688E+008	-8.205943E+008	1	8.282794E+008	-82.18894	-1.05584E-011	0.0006193	3
	54	363	1.201923	1.410681E+008	-1.022534E+009	1	1.032219E+009	-82.1451	-1.037337E-011	0.0007339	3
	55	376	0.956633	1.795356E+008	-1.273588E+009	1	1.28618E+009	-81.97598	-1.040647E-011	8.237914E-005	3
