EXPLAIN
TAG	EISPOT
TITLE	LABEL	Potentiostatic EIS	Test Identifier
DATE	LABEL	8/22/2020	Date
TIME	LABEL	0:51:48	Time
NOTES	NOTES	1	Notes...
	
PSTAT	PSTAT	REF3000-16137	Potentiostat
VDC	POTEN	0.00000E+000	T	DC Voltage (V)
FREQINIT	QUANT	3.00000E+005	Initial Freq. (Hz)
FREQFINAL	QUANT	1.00000E+000	Final Freq. (Hz)
PTSPERDEC	QUANT	1.00000E+001	Points/decade
VAC	QUANT	5.00000E+001	AC Voltage (mV rms)
AREA	QUANT	1.00000E+000	Sample Area (cm^2)
SPEED	SELECTOR	2	Optimize for:
ZGUESS	QUANT	1.00000E+003	Estimated Z (ohms)
EOC	QUANT	0	Open Circuit (V)
SEQUENCER	TOGGLE	TRUE	Run as Sequence
PSTATMODEL	IQUANT	5	Pstat Model
PSTATSECTION	LABEL	REF3000-16137	Pstat Section
PSTATSERIALNO	LABEL	16137	Pstat Serial Number
CTRLMODE	IQUANT	1	Control Mode
IESTAB	IQUANT	0	I/E Stability
CASPEED	IQUANT	1	Control Amp Speed
CONVENTION	IQUANT	1	Current Convention
ICHRANGE	IQUANT	2	Ich Range
ICHRANGEMODE	TOGGLE	F	Ich Auto Range
ICHOFFSETENABLE	TOGGLE	T	Ich Offset Enable
ICHOFFSET	QUANT	0	Ich Offset (V)
ICHFILTER	IQUANT	3	Ich Filter
VCHRANGE	IQUANT	2	Vch Range
VCHRANGEMODE	TOGGLE	F	Vch Auto Range
VCHOFFSETENABLE	TOGGLE	T	Vch Offset Enable
VCHOFFSET	QUANT	0	Vch Offset (V)
VCHFILTER	IQUANT	3	Vch Filter
ACHRANGE	IQUANT	2	Ach Range
ACHOFFSETENABLE	TOGGLE	F	Ach Offset Enable
ACHOFFSET	QUANT	0	Ach Offset (V)
ACHFILTER	IQUANT	3	Ach Filter
IERANGELOWERLIMIT	IQUANT	2	I/E Range Lower Limit
IERANGEMODE	TOGGLE	F	I/E AutoRange
IERANGE	IQUANT	11	I/E Range
POSFEEDENABLE	TOGGLE	F	Positive Feedback IR Comp
POSFEEDRESISTANCE	QUANT	0	Positive Feedback Resistance (ohm)
ACHSELECT	IQUANT	0	Ach Select
CABLEID	IQUANT	13	Cable ID
DCCALDATE	LABEL	7/31/2020	DC Calibration Date
ACCALDATE	LABEL	7/31/2020	AC Calibration Date
THERMOSELECT	IQUANT	1	Thermo Select
FRAMEWORKVERSION	QUANT	6.33	Framework Version
INSTRUMENTVERSION	LABEL	3.50	Instrument Version
COMPLIANCEVOLTAGE	IQUANT	0	Compliance Voltage
ZCURVE	TABLE
	Pt	Time	Freq	Zreal	Zimag	Zsig	Zmod	Zphz	Idc	Vdc	IERange
	#	s	Hz	ohm	ohm	V	ohm	°	A	V	#
	0	10	300046.9	252.4925	-21.64454	1	253.4186	-4.899616	-2.975431E-006	0.0005776	10
	1	15	238359.4	258.2808	-16.67649	1	258.8186	-3.694304	2.133868E-005	-0.0006141	9
	2	19	189328.1	265.9621	-20.78815	1	266.7733	-4.469271	8.247895E-005	0.0001864	10
	3	26	150421.9	275.0504	-21.30198	1	275.8741	-4.428577	-2.329433E-005	0.0006661	10
	4	31	119484.4	282.3926	-22.89778	1	283.3194	-4.635682	-0.000099	0.0006843	10
	5	36	94921.88	289.6113	-22.75126	1	290.5035	-4.491813	1.119432E-005	0.0003329	9
	6	40	75421.88	294.7141	-25.5285	1	295.8177	-4.950673	-2.402386E-006	-0.0004129	9
	7	42	59859.37	300.3502	-28.97402	1	301.7445	-5.510128	2.569388E-005	-0.0009948	9
	8	45	47578.12	306.0683	-33.09988	1	307.8529	-6.172287	-1.444978E-006	-0.0004091	9
	9	47	37828.12	312.396	-38.18459	1	314.721	-6.968774	-1.870275E-005	0.000354	9
	10	50	30046.88	319.2056	-44.72465	1	322.3236	-7.975924	-1.690714E-005	0.0010434	9
	11	52	23859.38	327.1808	-51.50785	1	331.2104	-8.946606	4.115701E-007	0.000631	9
	12	55	18984.38	334.7433	-60.43476	1	340.155	-10.23397	-2.1788E-005	0.001024	9
	13	57	15046.87	342.605	-69.9174	1	349.6664	-11.5343	-1.026823E-005	0.0009607	9
	14	59	11953.13	353.1609	-82.59089	1	362.6897	-13.16274	8.566572E-006	-0.0006884	9
	15	62	9515.62	364.7202	-96.6884	1	377.3188	-14.84774	2.459905E-005	-0.0002121	9
	16	64	7546.875	375.2852	-112.7738	1	391.8633	-16.72561	-2.259555E-005	0.000974	9
	17	66	5928.309	387.9518	-131.0534	1	409.4894	-18.66541	6.383773E-006	-0.0038714	8
	18	69	4733.456	401.771	-151.746	1	429.4727	-20.6912	-9.994146E-006	0.0017095	8
	19	71	3796.875	414.1702	-176.2786	1	450.1234	-23.05551	-7.636742E-006	0.0055536	8
	20	73	2987.132	428.2029	-211.7693	1	477.707	-26.31487	-4.146891E-006	0.0048805	8
	21	76	2390.625	439.9624	-251.2923	1	506.6703	-29.73361	1.048162E-005	-0.0003039	8
	22	78	1884.191	454.1487	-302.382	1	545.606	-33.65654	1.354165E-005	-0.0020788	8
	23	80	1516.544	465.0003	-365.3241	1	591.3434	-38.15469	-1.274216E-005	0.0053434	8
	24	83	1193.986	477.3849	-449.332	1	655.588	-43.26612	1.314415E-005	-0.0019455	8
	25	85	946.5144	490.51	-553.3999	1	739.4941	-48.44759	2.311057E-006	-0.003121	8
	26	88	751.7689	509.6307	-685.3223	1	854.0433	-53.36416	-8.42986E-006	0.0057442	8
	27	90	597.4265	528.5585	-846.9352	1	998.335	-58.03238	-6.975504E-006	8.1756E-005	8
	28	93	477.4305	548.7871	-1046.188	1	1181.388	-62.32035	-1.00697E-007	0.000667	8
	29	95	376.6741	577.1264	-1308.637	1	1430.247	-66.20188	-6.650713E-008	0.0006325	8
	30	97	298.2954	612.6393	-1631.855	1	1743.066	-69.42261	-6.387739E-008	0.0006306	8
	31	99	237.7717	657.0225	-2022.369	1	2126.418	-72.00217	-1.004003E-007	0.0006451	8
	32	102	189.0121	714.4456	-2512.137	1	2611.755	-74.12438	-7.53647E-008	0.0006472	8
	33	104	150.2404	788.5522	-3119.612	1	3217.731	-75.81435	-9.937749E-008	0.0006453	8
	34	107	119.1737	884.4648	-3876.923	1	3976.532	-77.14872	-6.942123E-008	0.0006333	8
	35	109	95.0169	1008.301	-4800.864	1	4905.605	-78.13885	-2.438856E-008	0.0006218	7
	36	112	75.60484	1163.239	-5940.371	1	6053.192	-78.92059	-2.210457E-008	0.0006134	7
	37	114	54.50582	1458.997	-8046.094	1	8177.304	-79.72224	-3.026203E-008	0.0006623	7
	38	117	45.95588	1660.11	-9425.342	1	9570.42	-80.0108	-2.062238E-008	0.0006107	7
	39	119	37.20238	1965.381	-11459.96	1	11627.26	-80.26846	-2.485153E-008	0.0006271	7
	40	121	30.04808	2358.501	-13964.46	1	14162.22	-80.4136	-2.295009E-008	0.0005993	7
	41	124	23.91582	2901.956	-17235.38	1	17477.97	-80.44263	-3.036091E-008	0.00066	7
	42	126	18.60119	3699.554	-21720.63	1	22033.44	-80.33389	-2.084259E-008	0.0006011	7
	43	128	15.02404	4611.226	-26408.08	1	26807.65	-80.0952	-2.753035E-008	0.0006258	7
	44	131	12.01923	5886.408	-32377.18	1	32907.93	-79.69576	-2.537167E-008	0.0006322	7
	45	133	9.450605	7744.558	-40214.89	1	40953.82	-79.09946	-2.437273E-008	0.0005882	7
	46	136	7.512019	10191.86	-49351.19	1	50392.6	-78.33148	-9.685501E-010	0.000675	6
	47	138	5.978954	13384.08	-60270.26	1	61738.46	-77.47963	-1.633453E-009	0.0006744	6
	48	141	4.734848	17769.38	-73756.94	1	75867.23	-76.45454	-2.821259E-009	0.0006673	6
	49	145	3.75601	23438.83	-89641.91	1	92655.55	-75.34682	-1.678894E-009	0.0006602	6
	50	148	3.004808	30516.08	-107607.2	1	111850.5	-74.16731	-2.606925E-009	0.0006873	6
	51	152	2.372217	40198.38	-130031.4	1	136103.2	-72.82134	-2.495111E-009	0.0006643	6
	52	156	1.878005	52652.05	-155950.4	1	164598.8	-71.34426	-2.08435E-009	0.0006447	6
	53	161	1.512097	66418.04	-183452.3	1	195105.4	-70.09745	-2.887116E-009	0.000747	6
	54	166	1.201923	84452.3	-217101.1	1	232948.6	-68.74397	-2.534973E-009	0.0006454	6
	55	172	0.956633	105623.9	-255750.1	1	276702.9	-67.55954	-4.284222E-009	1.97859E-005	6
