EXPLAIN
TAG	EISPOT
TITLE	LABEL	Potentiostatic EIS	Test Identifier
DATE	LABEL	8/22/2020	Date
TIME	LABEL	2:57:10	Time
NOTES	NOTES	1	Notes...
	
PSTAT	PSTAT	REF3000-16137	Potentiostat
VDC	POTEN	0.00000E+000	T	DC Voltage (V)
FREQINIT	QUANT	3.00000E+005	Initial Freq. (Hz)
FREQFINAL	QUANT	1.00000E+000	Final Freq. (Hz)
PTSPERDEC	QUANT	1.00000E+001	Points/decade
VAC	QUANT	5.00000E+001	AC Voltage (mV rms)
AREA	QUANT	1.00000E+000	Sample Area (cm^2)
SPEED	SELECTOR	2	Optimize for:
ZGUESS	QUANT	1.00000E+003	Estimated Z (ohms)
EOC	QUANT	0	Open Circuit (V)
SEQUENCER	TOGGLE	TRUE	Run as Sequence
PSTATMODEL	IQUANT	5	Pstat Model
PSTATSECTION	LABEL	REF3000-16137	Pstat Section
PSTATSERIALNO	LABEL	16137	Pstat Serial Number
CTRLMODE	IQUANT	1	Control Mode
IESTAB	IQUANT	0	I/E Stability
CASPEED	IQUANT	1	Control Amp Speed
CONVENTION	IQUANT	1	Current Convention
ICHRANGE	IQUANT	2	Ich Range
ICHRANGEMODE	TOGGLE	F	Ich Auto Range
ICHOFFSETENABLE	TOGGLE	T	Ich Offset Enable
ICHOFFSET	QUANT	0	Ich Offset (V)
ICHFILTER	IQUANT	3	Ich Filter
VCHRANGE	IQUANT	2	Vch Range
VCHRANGEMODE	TOGGLE	F	Vch Auto Range
VCHOFFSETENABLE	TOGGLE	T	Vch Offset Enable
VCHOFFSET	QUANT	0	Vch Offset (V)
VCHFILTER	IQUANT	3	Vch Filter
ACHRANGE	IQUANT	2	Ach Range
ACHOFFSETENABLE	TOGGLE	F	Ach Offset Enable
ACHOFFSET	QUANT	0	Ach Offset (V)
ACHFILTER	IQUANT	3	Ach Filter
IERANGELOWERLIMIT	IQUANT	2	I/E Range Lower Limit
IERANGEMODE	TOGGLE	F	I/E AutoRange
IERANGE	IQUANT	11	I/E Range
POSFEEDENABLE	TOGGLE	F	Positive Feedback IR Comp
POSFEEDRESISTANCE	QUANT	0	Positive Feedback Resistance (ohm)
ACHSELECT	IQUANT	0	Ach Select
CABLEID	IQUANT	13	Cable ID
DCCALDATE	LABEL	7/31/2020	DC Calibration Date
ACCALDATE	LABEL	7/31/2020	AC Calibration Date
THERMOSELECT	IQUANT	1	Thermo Select
FRAMEWORKVERSION	QUANT	6.33	Framework Version
INSTRUMENTVERSION	LABEL	3.50	Instrument Version
COMPLIANCEVOLTAGE	IQUANT	0	Compliance Voltage
ZCURVE	TABLE
	Pt	Time	Freq	Zreal	Zimag	Zsig	Zmod	Zphz	Idc	Vdc	IERange
	#	s	Hz	ohm	ohm	V	ohm	°	A	V	#
	0	21	300046.9	996.924	-251.8849	1	1028.252	-14.17971	2.53587E-005	0.0008006	9
	1	37	238359.4	811.4778	-135.8913	1	822.7774	-9.50663	-1.95665E-005	0.0014458	9
	2	66	189328.1	768.7465	-104.8341	1	775.8616	-7.765535	-3.029205E-005	-0.0009206	9
	3	73	150421.9	724.2212	-82.91321	1	728.952	-6.531131	-9.046607E-005	0.0022698	9
	4	83	119484.4	682.6179	-65.38151	1	685.7418	-5.471131	-2.903887E-005	-0.0008252	9
	5	91	94921.88	666.8319	-39.65564	1	668.01	-3.403298	-1.746065E-005	0.0058102	8
	6	94	75421.88	655.0767	-40.50724	1	656.3279	-3.538429	1.809256E-005	-0.0051867	8
	7	97	59859.37	646.6607	-42.75821	1	648.0728	-3.782979	-8.196466E-006	-0.0004261	8
	8	99	47578.12	637.0389	-47.19245	1	638.7846	-4.236786	4.933446E-007	0.0045369	8
	9	102	37828.12	629.4421	-50.78751	1	631.4877	-4.613005	-1.434305E-005	0.0039226	8
	10	105	30046.88	621.267	-56.40722	1	623.8224	-5.18788	1.700544E-005	-0.0032918	8
	11	107	23859.38	614.4292	-62.49023	1	617.5988	-5.807271	-5.910962E-006	0.0061499	8
	12	110	18984.38	608.0358	-73.33961	1	612.4428	-6.877635	1.706397E-005	-0.0048614	8
	13	112	15046.87	606.9764	-82.55608	1	612.565	-7.745385	-1.601049E-005	0.0064901	8
	14	114	11953.13	603.2969	-98.9201	1	611.3529	-9.31169	-7.675746E-006	-0.0001765	8
	15	117	9515.62	601.4601	-111.5382	1	611.7148	-10.5059	-1.589136E-005	0.0042893	8
	16	119	7546.875	601.2587	-131.3128	1	615.4308	-12.31975	1.254852E-005	-0.0055745	8
	17	121	5928.309	607.1763	-152.1656	1	625.9532	-14.06924	-7.735034E-006	-0.0003042	8
	18	124	4733.456	608.8243	-174.5073	1	633.3403	-15.99389	-1.192076E-005	0.0016634	8
	19	126	3796.875	612.6799	-199.2461	1	644.2637	-18.01475	-1.422877E-005	0.0066088	8
	20	129	2987.132	616.6818	-230.4555	1	658.3359	-20.49084	1.475838E-005	-0.0052491	8
	21	132	2390.625	623.0381	-266.6733	1	677.7102	-23.17193	1.604505E-005	-0.0033582	8
	22	134	1884.191	627.4076	-314.7468	1	701.9301	-26.6412	-5.347007E-006	0.0058303	8
	23	137	1516.544	628.9456	-367.6647	1	728.5258	-30.30941	-1.357219E-005	0.0028841	8
	24	139	1193.986	631.1233	-442.6953	1	770.9058	-35.04737	1.591411E-005	-0.0045083	8
	25	142	946.5144	637.2515	-537.3261	1	833.5519	-40.13736	-7.404684E-006	-0.0002198	8
	26	144	751.7689	639.22	-656.0522	1	915.9731	-45.74452	-1.454488E-005	0.0040747	8
	27	147	597.4265	645.4778	-804.4938	1	1031.432	-51.25853	1.432054E-005	-0.005024	8
	28	149	477.4305	657.782	-990.475	1	1188.999	-56.41156	-1.883201E-007	0.0006481	8
	29	152	376.6741	679.4357	-1233.779	1	1408.49	-61.15866	-2.03779E-007	0.0006362	8
	30	154	298.2954	711.4143	-1533.33	1	1690.329	-65.11027	-2.281261E-007	0.0006806	8
	31	156	237.7717	757.1403	-1894.239	1	2039.952	-68.21307	-1.888471E-007	0.0006327	8
	32	159	189.0121	824.1089	-2345.859	1	2486.405	-70.64344	-1.883439E-007	0.0006325	8
	33	161	150.2404	920.3572	-2903.065	1	3045.463	-72.40985	-2.144412E-007	0.0006365	8
	34	164	119.1737	1059.981	-3595.49	1	3748.48	-73.57403	-1.877242E-007	0.0006474	8
	35	166	95.0169	1256.129	-4429.141	1	4603.819	-74.16637	-1.490125E-007	0.0006028	7
	36	169	75.60484	1523.02	-5448.937	1	5657.783	-74.38391	-1.566705E-007	0.0006166	7
	37	171	54.50582	2115.864	-7281.654	1	7582.833	-73.79747	-1.645884E-007	0.0006212	7
	38	174	45.95588	2547.811	-8446.895	1	8822.775	-73.21527	-1.636277E-007	0.0006131	7
	39	176	37.20238	3260.931	-10099.11	1	10612.53	-72.1051	-1.707632E-007	0.0006322	7
	40	178	30.04808	4247.743	-12016.41	1	12745.1	-70.53175	-1.727805E-007	0.0006104	7
	41	181	23.91582	5662.855	-14369.77	1	15445.33	-68.49154	-1.788899E-007	0.0006313	7
	42	183	18.60119	7751.778	-17259.99	1	18920.82	-65.81428	-1.819267E-007	0.0006267	7
	43	185	15.02404	10122.41	-19891.6	1	22319.03	-63.02943	-1.889856E-007	0.0006183	7
	44	188	12.01923	13235.93	-22698.95	1	26276.07	-59.75322	-1.974481E-007	0.0006114	7
	45	190	9.450605	17495.54	-25470.32	1	30900.34	-55.51487	-1.95264E-007	0.0006123	7
	46	193	7.512019	22233.8	-27682.16	1	35505.55	-51.22921	-1.991453E-007	0.0006176	7
	47	196	5.978954	27473.66	-28810.86	1	39810.39	-46.36097	-2.066836E-007	0.0006187	7
	48	200	4.734848	33046.62	-29303.68	1	44167.7	-41.56461	-2.036892E-007	0.0006713	6
	49	205	3.75601	38421.98	-28799.45	1	48017.25	-36.85363	-2.096924E-007	0.0006798	6
	50	210	3.004808	43045.61	-27509.79	1	51085.35	-32.58202	-2.134005E-007	0.0006622	6
	51	217	2.372217	47670.33	-26070.51	1	54333.53	-28.67389	-2.21123E-007	0.0006539	6
	52	224	1.878005	51081.8	-23624.04	1	56280.06	-24.81935	-2.281033E-007	0.0006933	6
	53	233	1.512097	53804.56	-21678.58	1	58007.69	-21.94517	-2.320701E-007	0.0005813	6
	54	244	1.201923	56370.26	-19731.72	1	59723.93	-19.29198	-2.34109E-007	0.0006935	6
	55	257	0.956633	58483.36	-17816.29	1	61136.92	-16.94276	-2.461643E-007	5.1851E-005	6
