EXPLAIN
TAG	EISPOT
TITLE	LABEL	Potentiostatic EIS	Test Identifier
DATE	LABEL	8/22/2020	Date
TIME	LABEL	3:17:06	Time
NOTES	NOTES	1	Notes...
	
PSTAT	PSTAT	REF3000-16137	Potentiostat
VDC	POTEN	0.00000E+000	T	DC Voltage (V)
FREQINIT	QUANT	3.00000E+005	Initial Freq. (Hz)
FREQFINAL	QUANT	1.00000E+000	Final Freq. (Hz)
PTSPERDEC	QUANT	1.00000E+001	Points/decade
VAC	QUANT	5.00000E+001	AC Voltage (mV rms)
AREA	QUANT	1.00000E+000	Sample Area (cm^2)
SPEED	SELECTOR	2	Optimize for:
ZGUESS	QUANT	1.00000E+003	Estimated Z (ohms)
EOC	QUANT	0	Open Circuit (V)
SEQUENCER	TOGGLE	TRUE	Run as Sequence
PSTATMODEL	IQUANT	5	Pstat Model
PSTATSECTION	LABEL	REF3000-16137	Pstat Section
PSTATSERIALNO	LABEL	16137	Pstat Serial Number
CTRLMODE	IQUANT	1	Control Mode
IESTAB	IQUANT	0	I/E Stability
CASPEED	IQUANT	1	Control Amp Speed
CONVENTION	IQUANT	1	Current Convention
ICHRANGE	IQUANT	2	Ich Range
ICHRANGEMODE	TOGGLE	F	Ich Auto Range
ICHOFFSETENABLE	TOGGLE	T	Ich Offset Enable
ICHOFFSET	QUANT	0	Ich Offset (V)
ICHFILTER	IQUANT	3	Ich Filter
VCHRANGE	IQUANT	2	Vch Range
VCHRANGEMODE	TOGGLE	F	Vch Auto Range
VCHOFFSETENABLE	TOGGLE	T	Vch Offset Enable
VCHOFFSET	QUANT	0	Vch Offset (V)
VCHFILTER	IQUANT	3	Vch Filter
ACHRANGE	IQUANT	2	Ach Range
ACHOFFSETENABLE	TOGGLE	F	Ach Offset Enable
ACHOFFSET	QUANT	0	Ach Offset (V)
ACHFILTER	IQUANT	3	Ach Filter
IERANGELOWERLIMIT	IQUANT	2	I/E Range Lower Limit
IERANGEMODE	TOGGLE	F	I/E AutoRange
IERANGE	IQUANT	11	I/E Range
POSFEEDENABLE	TOGGLE	F	Positive Feedback IR Comp
POSFEEDRESISTANCE	QUANT	0	Positive Feedback Resistance (ohm)
ACHSELECT	IQUANT	0	Ach Select
CABLEID	IQUANT	13	Cable ID
DCCALDATE	LABEL	7/31/2020	DC Calibration Date
ACCALDATE	LABEL	7/31/2020	AC Calibration Date
THERMOSELECT	IQUANT	1	Thermo Select
FRAMEWORKVERSION	QUANT	6.33	Framework Version
INSTRUMENTVERSION	LABEL	3.50	Instrument Version
COMPLIANCEVOLTAGE	IQUANT	0	Compliance Voltage
ZCURVE	TABLE
	Pt	Time	Freq	Zreal	Zimag	Zsig	Zmod	Zphz	Idc	Vdc	IERange
	#	s	Hz	ohm	ohm	V	ohm	°	A	V	#
	0	7	300046.9	87.25667	-4.922271	1	87.39539	-3.228714	1.501868E-005	-0.0011383	9
	1	10	238359.4	88.2067	-5.832721	1	88.39934	-3.78321	6.614193E-005	-0.002721	9
	2	13	189328.1	88.39426	-7.563384	1	88.71725	-4.890555	-7.831119E-005	0.0026257	9
	3	16	150421.9	89.45611	-9.383895	1	89.94695	-5.988394	-9.408421E-006	-0.0009828	9
	4	19	119484.4	90.21889	-11.09485	1	90.89854	-7.010862	-7.849581E-005	0.0023024	9
	5	21	94921.88	91.52037	-12.80496	1	92.41183	-7.964767	-1.895268E-005	0.0007602	9
	6	24	75421.88	92.84859	-15.18457	1	94.08205	-9.287997	1.186982E-005	7.860599E-005	9
	7	26	59859.37	94.33351	-17.82314	1	96.0025	-10.6992	1.206691E-005	0.0001687	9
	8	29	47578.12	96.1012	-20.8028	1	98.327	-12.21422	1.295391E-005	-0.0006387	9
	9	31	37828.12	98.122	-24.10997	1	101.0407	-13.80489	2.211696E-005	-0.0007015	9
	10	34	30046.88	100.2914	-27.93564	1	104.1094	-15.5649	3.19025E-006	0.000534	9
	11	36	23859.38	102.6836	-32.40001	1	107.674	-17.51218	-1.20198E-005	0.0007516	9
	12	39	18984.38	105.1721	-37.55032	1	111.6745	-19.64845	-2.026616E-005	0.0006132	9
	13	41	15046.87	107.6651	-43.71606	1	116.2018	-22.09899	1.817829E-005	-0.0006992	9
	14	43	11953.13	110.0452	-51.3498	1	121.4362	-25.01492	-9.645857E-006	9.28691E-006	9
	15	46	9515.62	112.376	-60.58546	1	127.6674	-28.33051	2.153489E-005	-0.0006746	9
	16	48	7546.875	114.5899	-72.4521	1	135.5734	-32.30406	-1.963669E-005	0.0006773	9
	17	50	5928.309	116.9404	-88.43069	1	146.6119	-37.09668	2.414538E-005	-0.0005926	9
	18	52	4733.456	119.1994	-107.3795	1	160.4334	-42.01377	2.182682E-005	-0.0006504	9
	19	55	3796.875	121.6847	-130.5052	1	178.4342	-47.00314	1.857544E-005	-0.0001632	9
	20	57	2987.132	125.1152	-162.0945	1	204.7643	-52.33668	2.407679E-005	-0.0004682	9
	21	59	2390.625	128.8891	-198.9441	1	237.0467	-57.06216	1.244407E-005	0.0001748	9
	22	62	1884.191	134.345	-248.0826	1	282.1233	-61.56298	3.361081E-006	0.0004403	9
	23	64	1516.544	140.8777	-303.4262	1	334.5355	-65.09504	-1.64262E-005	0.0003945	9
	24	66	1193.986	149.296	-379.4648	1	407.778	-68.52343	1.243186E-005	-0.0006302	9
	25	69	946.5144	159.8925	-470.1539	1	496.5987	-71.21758	-4.247687E-006	0.0026229	8
	26	71	751.7689	174.8567	-582.5001	1	608.1786	-73.29113	4.935785E-006	-2.213329E-006	8
	27	73	597.4265	194.7468	-723.0172	1	748.7858	-74.92499	3.139202E-006	0.0008286	8
	28	76	477.4305	220.9884	-888.7246	1	915.7878	-76.03615	2.513396E-007	0.0006454	8
	29	78	376.6741	257.4448	-1106.199	1	1135.761	-76.89881	2.351353E-007	0.0006432	8
	30	80	298.2954	305.3819	-1370.406	1	1404.019	-77.43744	2.430167E-007	0.0006431	8
	31	83	237.7717	367.3717	-1685.09	1	1724.671	-77.70121	2.389426E-007	0.0006545	8
	32	85	189.0121	450.407	-2074.073	1	2122.415	-77.74785	2.597159E-007	0.0006431	8
	33	88	150.2404	560.8928	-2548.448	1	2609.442	-77.58756	2.471972E-007	0.0006526	8
	34	90	119.1737	709.7708	-3133.117	1	3212.507	-77.23576	2.563593E-007	0.0006443	8
	35	92	95.0169	902.9341	-3824.46	1	3929.603	-76.71603	2.60375E-007	0.0006438	8
	36	95	75.60484	1166.466	-4675.829	1	4819.13	-75.99249	2.215814E-008	0.0006144	7
	37	97	54.50582	1700.124	-6183.434	1	6412.899	-74.6265	1.88452E-008	0.000609	7
	38	100	45.95588	2078.336	-7134.387	1	7430.946	-73.7585	2.791998E-008	0.0006157	7
	39	102	37.20238	2681.143	-8487.97	1	8901.357	-72.46994	2.693834E-008	0.00062	7
	40	105	30.04808	3473.168	-10066.25	1	10648.58	-70.96398	2.427885E-008	0.0006152	7
	41	107	23.91582	4576.889	-11994.38	1	12837.95	-69.11384	1.886749E-008	0.0006131	7
	42	110	18.60119	6165.29	-14406.28	1	15670.09	-66.83109	3.215156E-008	0.00062	7
	43	112	15.02404	7918.168	-16666.81	1	18452.1	-64.58826	2.385048E-008	0.0006131	7
	44	114	12.01923	10216.49	-19198.28	1	21747.43	-61.98003	2.694172E-008	0.0006264	7
	45	117	9.450605	13250.75	-22029.6	1	25707.7	-58.97319	2.698926E-008	0.0006147	7
	46	119	7.512019	16783.26	-24711.44	1	29871.94	-55.81685	2.952516E-008	0.0006301	7
	47	122	5.978954	20854.88	-27190.38	1	34267.23	-52.51198	2.55088E-008	0.0006149	7
	48	125	4.734848	25617.78	-29280.13	1	38904.97	-48.81667	2.5954E-008	0.000641	7
	49	128	3.75601	30815.1	-30895.94	1	43636.33	-45.07505	-4.383402E-009	0.0006579	6
	50	131	3.004808	35959.74	-31747.47	1	47968.79	-41.44004	-1.071172E-008	0.0006953	6
	51	135	2.372217	41440.68	-31673.3	1	52158.68	-37.39085	-4.011066E-009	0.0007111	6
	52	139	1.878005	45829.64	-29231.74	1	54358.54	-32.53114	-7.77356E-009	0.0006409	6
	53	148	1.512097	49061.58	-27039.65	1	56019.47	-28.86078	-7.889059E-009	0.0007685	6
	54	159	1.201923	51965.04	-24728.62	1	57548.85	-25.44839	-7.369505E-009	0.0006408	6
	55	172	0.956633	55118	-23092.04	1	59759.82	-22.73156	-2.893124E-008	2.367278E-005	6
