EXPLAIN
TAG	EISPOT
TITLE	LABEL	Potentiostatic EIS	Test Identifier
DATE	LABEL	8/22/2020	Date
TIME	LABEL	1:29:39	Time
NOTES	NOTES	1	Notes...
	
PSTAT	PSTAT	REF3000-16137	Potentiostat
VDC	POTEN	0.00000E+000	T	DC Voltage (V)
FREQINIT	QUANT	3.00000E+005	Initial Freq. (Hz)
FREQFINAL	QUANT	1.00000E+000	Final Freq. (Hz)
PTSPERDEC	QUANT	1.00000E+001	Points/decade
VAC	QUANT	5.00000E+001	AC Voltage (mV rms)
AREA	QUANT	1.00000E+000	Sample Area (cm^2)
SPEED	SELECTOR	2	Optimize for:
ZGUESS	QUANT	1.00000E+003	Estimated Z (ohms)
EOC	QUANT	0	Open Circuit (V)
SEQUENCER	TOGGLE	TRUE	Run as Sequence
PSTATMODEL	IQUANT	5	Pstat Model
PSTATSECTION	LABEL	REF3000-16137	Pstat Section
PSTATSERIALNO	LABEL	16137	Pstat Serial Number
CTRLMODE	IQUANT	1	Control Mode
IESTAB	IQUANT	0	I/E Stability
CASPEED	IQUANT	1	Control Amp Speed
CONVENTION	IQUANT	1	Current Convention
ICHRANGE	IQUANT	2	Ich Range
ICHRANGEMODE	TOGGLE	F	Ich Auto Range
ICHOFFSETENABLE	TOGGLE	T	Ich Offset Enable
ICHOFFSET	QUANT	0	Ich Offset (V)
ICHFILTER	IQUANT	3	Ich Filter
VCHRANGE	IQUANT	2	Vch Range
VCHRANGEMODE	TOGGLE	F	Vch Auto Range
VCHOFFSETENABLE	TOGGLE	T	Vch Offset Enable
VCHOFFSET	QUANT	0	Vch Offset (V)
VCHFILTER	IQUANT	3	Vch Filter
ACHRANGE	IQUANT	2	Ach Range
ACHOFFSETENABLE	TOGGLE	F	Ach Offset Enable
ACHOFFSET	QUANT	0	Ach Offset (V)
ACHFILTER	IQUANT	3	Ach Filter
IERANGELOWERLIMIT	IQUANT	2	I/E Range Lower Limit
IERANGEMODE	TOGGLE	F	I/E AutoRange
IERANGE	IQUANT	11	I/E Range
POSFEEDENABLE	TOGGLE	F	Positive Feedback IR Comp
POSFEEDRESISTANCE	QUANT	0	Positive Feedback Resistance (ohm)
ACHSELECT	IQUANT	0	Ach Select
CABLEID	IQUANT	13	Cable ID
DCCALDATE	LABEL	7/31/2020	DC Calibration Date
ACCALDATE	LABEL	7/31/2020	AC Calibration Date
THERMOSELECT	IQUANT	1	Thermo Select
FRAMEWORKVERSION	QUANT	6.33	Framework Version
INSTRUMENTVERSION	LABEL	3.50	Instrument Version
COMPLIANCEVOLTAGE	IQUANT	0	Compliance Voltage
ZCURVE	TABLE
	Pt	Time	Freq	Zreal	Zimag	Zsig	Zmod	Zphz	Idc	Vdc	IERange
	#	s	Hz	ohm	ohm	V	ohm	°	A	V	#
	0	23	300046.9	1394.609	-4294.852	1	4515.605	-72.01053	2.061798E-005	0.0009217	9
	1	41	238359.4	2069.571	-4974.56	1	5387.891	-67.41118	2.81093E-005	-0.0020656	9
	2	56	189328.1	3041.939	-6143.058	1	6854.965	-63.65616	1.96182E-005	-0.0009075	9
	3	65	150421.9	4177.965	-6665.736	1	7866.856	-57.92125	-2.199925E-005	0.0015691	9
	4	72	119484.4	5762.862	-7228.961	1	9244.915	-51.43847	4.687005E-006	0.014927	8
	5	80	94921.88	7281.556	-7616.552	1	10537.22	-46.28812	2.211545E-005	-0.0095743	8
	6	89	75421.88	9001.481	-7883.845	1	11965.85	-41.21313	2.224259E-005	-0.0096474	8
	7	97	59859.37	11052.42	-7836.166	1	13548.49	-35.33663	-2.605193E-005	0.007445	8
	8	106	47578.12	12385.37	-7249.971	1	14351.29	-30.34324	8.314035E-006	0.0040683	8
	9	114	37828.12	14877.25	-5540.855	1	15875.57	-20.42725	-7.531623E-007	-0.0138675	7
	10	121	30046.88	15804.49	-4833.648	1	16527.13	-17.00573	-3.872222E-006	0.0252615	7
	11	127	23859.38	16565.99	-4244.21	1	17101.04	-14.3701	1.598323E-007	0.0166808	7
	12	131	18984.38	16975.19	-3639.875	1	17361.04	-12.10229	2.427141E-006	0.009102	7
	13	136	15046.87	17496.83	-3078.381	1	17765.57	-9.97846	-6.364954E-006	0.0250695	7
	14	140	11953.13	17802.92	-2685.236	1	18004.29	-8.577338	-2.010899E-006	0.0220553	7
	15	144	9515.62	18136.45	-2345.343	1	18287.46	-7.368402	-6.413073E-006	0.0244253	7
	16	148	7546.875	18429.93	-2135.791	1	18553.28	-6.610354	-3.928707E-006	0.0251779	7
	17	152	5928.309	18819.69	-1911.786	1	18916.54	-5.800458	3.623156E-006	-0.0242881	7
	18	157	4733.456	19090.67	-1755.618	1	19171.23	-5.254259	2.482108E-006	0.0091462	7
	19	161	3796.875	19262.22	-1771.016	1	19343.47	-5.253146	-2.97181E-006	-0.0060511	7
	20	165	2987.132	19452.05	-1825.088	1	19537.48	-5.360081	-6.475449E-006	0.0249595	7
	21	170	2390.625	20313.99	-1591.02	1	20376.2	-4.478341	6.533648E-006	-0.0258799	7
	22	174	1884.191	20143.79	-1776.262	1	20221.96	-5.039258	5.409478E-006	-0.0262564	7
	23	178	1516.544	20414.97	-1941.071	1	20507.04	-5.4314	3.623253E-006	-0.0242891	7
	24	182	1193.986	20822.4	-2315.998	1	20950.8	-6.34671	-6.479682E-006	0.0251534	7
	25	187	946.5144	21609.02	-2708.045	1	21778.05	-7.143074	-7.120388E-006	0.0174999	7
	26	189	751.7689	21692.16	-2558.474	1	21842.52	-6.726653	3.581109E-006	-0.0242702	7
	27	192	597.4265	21808.54	-3611.168	1	22105.49	-9.402018	-2.970823E-006	-0.0063705	7
	28	195	477.4305	22163.83	-3328.777	1	22412.41	-8.54139	-9.043852E-008	0.0005754	7
	29	197	376.6741	22588.32	-3835.469	1	22911.64	-9.63684	-9.90343E-008	0.000669	7
	30	199	298.2954	23048.75	-4433.411	1	23471.26	-10.88783	-9.303233E-008	0.0006672	7
	31	202	237.7717	23552.51	-5100.566	1	24098.47	-12.21937	-8.793829E-008	0.0005699	7
	32	204	189.0121	24126.07	-5904.015	1	24837.97	-13.7509	-8.709458E-008	0.0005638	7
	33	207	150.2404	24768.92	-6820.687	1	25690.88	-15.39611	-8.892793E-008	0.0005702	7
	34	209	119.1737	25419.33	-7989.516	1	26645.35	-17.44839	-8.987556E-008	0.0005821	7
	35	211	95.0169	26121.53	-9212.828	1	27698.57	-19.42729	-8.644854E-008	0.0005666	7
	36	214	75.60484	26845.04	-10746	1	28915.96	-21.8161	-9.406553E-008	0.0006614	7
	37	216	54.50582	27788.92	-13558.58	1	30920.21	-26.00836	-9.498203E-008	0.0006488	7
	38	219	45.95588	28378.36	-15429.64	1	32301.78	-28.53342	-9.046752E-008	0.000573	7
	39	221	37.20238	29012.42	-18219.13	1	34258.68	-32.12786	-8.617541E-008	0.0005683	7
	40	224	30.04808	29646.8	-21713.75	1	36748.05	-36.21959	-8.683934E-008	0.0005617	7
	41	226	23.91582	30472.41	-26435.81	1	40341.3	-40.94271	-1.092352E-008	0.0006704	6
	42	229	18.60119	31320.42	-33014.71	1	45507.58	-46.50856	-9.331802E-009	0.0006922	6
	43	231	15.02404	32100.1	-39985.03	1	51275.91	-51.2424	-1.04379E-008	0.0006702	6
	44	233	12.01923	33120.77	-49091.33	1	59219.46	-55.99338	-8.988093E-009	0.0006356	6
	45	236	9.450605	34415.05	-61400.35	1	70387.48	-60.72926	-9.561868E-009	0.0006094	6
	46	238	7.512019	35981.18	-76057.46	1	84139.07	-64.68215	-9.665108E-009	0.0006245	6
	47	241	5.978954	37956.5	-94312.21	1	101663.6	-68.07739	-1.006856E-008	0.0006995	6
	48	244	4.734848	40502.96	-117525.2	1	124308.8	-70.98441	-1.014608E-008	0.0006709	6
	49	247	3.75601	43707.87	-146208	1	152601.3	-73.35632	-9.852445E-009	0.0006861	6
	50	252	3.004808	47699.41	-180385.8	1	186585.9	-75.18829	-9.480981E-009	0.0006797	6
	51	259	2.372217	53330.27	-225089.9	1	231321.4	-76.67077	-9.719846E-009	0.0006829	6
	52	263	1.878005	60164.18	-281174.9	1	287539.7	-77.92231	-1.008183E-008	0.0006469	6
	53	268	1.512097	67750.11	-344065.2	1	350672.2	-78.86037	-9.738813E-009	0.0006097	6
	54	273	1.201923	79338.41	-427977.2	1	435268.9	-79.49773	-1.002359E-008	0.0006364	6
	55	279	0.956633	93950.24	-530368	1	538625	-79.95474	-1.181273E-009	7.869032E-006	5
