EXPLAIN
TAG	EISPOT
TITLE	LABEL	Potentiostatic EIS	Test Identifier
DATE	LABEL	8/22/2020	Date
TIME	LABEL	0:48:58	Time
NOTES	NOTES	1	Notes...
	
PSTAT	PSTAT	REF3000-16137	Potentiostat
VDC	POTEN	0.00000E+000	T	DC Voltage (V)
FREQINIT	QUANT	3.00000E+005	Initial Freq. (Hz)
FREQFINAL	QUANT	1.00000E+000	Final Freq. (Hz)
PTSPERDEC	QUANT	1.00000E+001	Points/decade
VAC	QUANT	5.00000E+001	AC Voltage (mV rms)
AREA	QUANT	1.00000E+000	Sample Area (cm^2)
SPEED	SELECTOR	2	Optimize for:
ZGUESS	QUANT	1.00000E+003	Estimated Z (ohms)
EOC	QUANT	0	Open Circuit (V)
SEQUENCER	TOGGLE	TRUE	Run as Sequence
PSTATMODEL	IQUANT	5	Pstat Model
PSTATSECTION	LABEL	REF3000-16137	Pstat Section
PSTATSERIALNO	LABEL	16137	Pstat Serial Number
CTRLMODE	IQUANT	1	Control Mode
IESTAB	IQUANT	0	I/E Stability
CASPEED	IQUANT	1	Control Amp Speed
CONVENTION	IQUANT	1	Current Convention
ICHRANGE	IQUANT	2	Ich Range
ICHRANGEMODE	TOGGLE	F	Ich Auto Range
ICHOFFSETENABLE	TOGGLE	T	Ich Offset Enable
ICHOFFSET	QUANT	0	Ich Offset (V)
ICHFILTER	IQUANT	3	Ich Filter
VCHRANGE	IQUANT	2	Vch Range
VCHRANGEMODE	TOGGLE	F	Vch Auto Range
VCHOFFSETENABLE	TOGGLE	T	Vch Offset Enable
VCHOFFSET	QUANT	0	Vch Offset (V)
VCHFILTER	IQUANT	3	Vch Filter
ACHRANGE	IQUANT	2	Ach Range
ACHOFFSETENABLE	TOGGLE	F	Ach Offset Enable
ACHOFFSET	QUANT	0	Ach Offset (V)
ACHFILTER	IQUANT	3	Ach Filter
IERANGELOWERLIMIT	IQUANT	2	I/E Range Lower Limit
IERANGEMODE	TOGGLE	F	I/E AutoRange
IERANGE	IQUANT	11	I/E Range
POSFEEDENABLE	TOGGLE	F	Positive Feedback IR Comp
POSFEEDRESISTANCE	QUANT	0	Positive Feedback Resistance (ohm)
ACHSELECT	IQUANT	0	Ach Select
CABLEID	IQUANT	13	Cable ID
DCCALDATE	LABEL	7/31/2020	DC Calibration Date
ACCALDATE	LABEL	7/31/2020	AC Calibration Date
THERMOSELECT	IQUANT	1	Thermo Select
FRAMEWORKVERSION	QUANT	6.33	Framework Version
INSTRUMENTVERSION	LABEL	3.50	Instrument Version
COMPLIANCEVOLTAGE	IQUANT	0	Compliance Voltage
ZCURVE	TABLE
	Pt	Time	Freq	Zreal	Zimag	Zsig	Zmod	Zphz	Idc	Vdc	IERange
	#	s	Hz	ohm	ohm	V	ohm	°	A	V	#
	0	7	300046.9	174.0615	-10.10073	1	174.3543	-3.321129	7.304798E-005	-0.0031233	9
	1	10	238359.4	175.7113	-12.01	1	176.1213	-3.910129	-9.323066E-005	0.0031343	9
	2	14	189328.1	176.9599	-13.55205	1	177.4781	-4.379312	7.090688E-005	-0.0016276	9
	3	17	150421.9	178.3655	-15.50436	1	179.0381	-4.96793	1.878094E-005	-0.0012649	9
	4	20	119484.4	180.0489	-17.62816	1	180.9098	-5.591873	2.047423E-005	-0.0015311	9
	5	23	94921.88	182.1059	-20.45212	1	183.2508	-6.407978	-2.054427E-005	0.0008893	9
	6	25	75421.88	184.3999	-23.48376	1	185.8892	-7.257683	-2.307766E-005	0.0008595	9
	7	28	59859.37	187.1471	-27.14096	1	189.1049	-8.251778	-1.498745E-005	0.0009572	9
	8	30	47578.12	190.3894	-31.31295	1	192.9472	-9.339706	-1.914063E-005	0.0003334	9
	9	33	37828.12	193.4303	-36.02631	1	196.7566	-10.55043	2.57044E-005	-0.0006508	9
	10	35	30046.88	197.271	-41.33364	1	201.5548	-11.83383	-1.533832E-005	0.0008977	9
	11	38	23859.38	201.4154	-47.70921	1	206.9887	-13.32603	-2.111274E-005	0.0005104	9
	12	40	18984.38	205.8069	-54.87652	1	212.9975	-14.93003	1.010699E-006	-0.0004853	9
	13	43	15046.87	210.6421	-63.27897	1	219.9416	-16.72079	7.920996E-006	-0.0005677	9
	14	45	11953.13	215.9369	-73.00414	1	227.9437	-18.67941	2.573705E-005	-0.0006458	9
	15	47	9515.62	220.579	-85.50182	1	236.5706	-21.18755	-2.114687E-005	0.0009167	9
	16	49	7546.875	225.5373	-100.0283	1	246.724	-23.91781	-1.784652E-005	0.0003309	9
	17	53	5928.309	217.2067	-115.9518	1	246.2185	-28.0947	1.105215E-005	0.0002613	9
	18	56	4733.456	207.0021	-132.1199	1	245.5718	-32.54823	2.404617E-005	-0.0002651	9
	19	60	3796.875	213.3013	-158.6814	1	265.8519	-36.6467	2.342861E-005	-0.0002713	9
	20	62	2987.132	219.4767	-194.4049	1	293.195	-41.53341	-1.603087E-006	-0.0003307	9
	21	65	2390.625	224.948	-236.6559	1	326.5082	-46.45292	2.373342E-005	-0.0002345	9
	22	67	1884.191	232.587	-293.4115	1	374.4156	-51.59618	2.670769E-005	-0.0006437	9
	23	69	1516.544	240.548	-358.3159	1	431.5711	-56.12537	6.772385E-006	-0.0005748	9
	24	72	1193.986	247.3459	-445.5565	1	509.6082	-60.96363	4.123811E-006	-0.0022777	8
	25	74	946.5144	258.645	-553.8312	1	611.2498	-64.96693	-8.455913E-006	0.0033135	8
	26	77	751.7689	270.9055	-689.2877	1	740.6127	-68.54406	8.335512E-006	-0.0026336	8
	27	79	597.4265	288.7227	-854.9051	1	902.3434	-71.33889	4.372292E-006	0.0011859	8
	28	81	477.4305	307.299	-1057.054	1	1100.816	-73.79018	8.961765E-008	0.0006494	8
	29	83	376.6741	333.8692	-1322.996	1	1364.473	-75.83665	8.50607E-008	0.0006323	8
	30	86	298.2954	367.2059	-1649.132	1	1689.52	-77.44696	6.323917E-008	0.0006587	8
	31	88	237.7717	410.3863	-2042.469	1	2083.29	-78.63903	7.894369E-008	0.0006426	8
	32	91	189.0121	467.4072	-2535.072	1	2577.801	-79.55334	7.856832E-008	0.0006459	8
	33	93	150.2404	541.6453	-3143.884	1	3190.201	-80.22474	7.97969E-008	0.0006284	8
	34	95	119.1737	637.3777	-3900.618	1	3952.35	-80.71964	9.412815E-008	0.0006344	8
	35	98	95.0169	762.472	-4824.691	1	4884.569	-81.01951	1.173846E-009	0.0006078	7
	36	100	75.60484	921.0891	-5961.601	1	6032.337	-81.21704	-4.436479E-010	0.0006108	7
	37	103	54.50582	1229.232	-8065.233	1	8158.37	-81.33418	-5.028693E-009	0.0006174	7
	38	105	45.95588	1439.451	-9432.424	1	9541.63	-81.32323	9.924718E-010	0.0006209	7
	39	108	37.20238	1762.784	-11454.53	1	11589.38	-81.25116	-6.104041E-010	0.0006166	7
	40	110	30.04808	2180.456	-13937.15	1	14106.68	-81.1082	-4.890172E-009	0.0006328	7
	41	113	23.91582	2746.619	-17155.64	1	17374.12	-80.90414	-3.353673E-009	0.0006141	7
	42	115	18.60119	3597.531	-21576.57	1	21874.43	-80.53397	-8.96541E-010	0.0006203	7
	43	117	15.02404	4557.942	-26188.02	1	26581.71	-80.12675	-4.662311E-009	0.0006282	7
	44	119	12.01923	5902.004	-32014.28	1	32553.77	-79.5545	-7.039634E-010	0.0006171	7
	45	122	9.450605	7838.48	-39658.58	1	40425.79	-78.81965	-1.240048E-009	0.0006334	7
	46	124	7.512019	10333.15	-48511.5	1	49599.8	-77.97546	1.430392E-009	0.0006777	6
	47	127	5.978954	13615.6	-59095.43	1	60643.67	-77.02546	8.692311E-011	0.0006623	6
	48	130	4.734848	18030.86	-72007.77	1	74230.92	-75.9421	1.232666E-009	0.0006977	6
	49	133	3.75601	23795.93	-87265.13	1	90451.36	-74.74711	-1.647597E-009	0.0006539	6
	50	137	3.004808	30939.62	-104475.3	1	108960.3	-73.50372	-6.33755E-010	0.0006785	6
	51	141	2.372217	40668.82	-125648.7	1	132066.4	-72.06474	-1.113998E-009	0.0007278	6
	52	145	1.878005	52825.39	-150457.6	1	159461.6	-70.65392	-1.64495E-009	0.0006502	6
	53	149	1.512097	66351.75	-176622.3	1	188674.3	-69.41029	-8.457262E-010	0.0005776	6
	54	155	1.201923	84321.99	-208565.2	1	224965.9	-67.98673	-1.414527E-009	0.0006527	6
	55	161	0.956633	105501	-244839	1	266601.9	-66.68882	-1.694089E-009	1.544308E-005	6
