EXPLAIN
TAG	EISPOT
TITLE	LABEL	Potentiostatic EIS	Test Identifier
DATE	LABEL	8/22/2020	Date
TIME	LABEL	0:07:13	Time
NOTES	NOTES	1	Notes...
	
PSTAT	PSTAT	REF3000-16137	Potentiostat
VDC	POTEN	0.00000E+000	T	DC Voltage (V)
FREQINIT	QUANT	3.00000E+005	Initial Freq. (Hz)
FREQFINAL	QUANT	1.00000E+000	Final Freq. (Hz)
PTSPERDEC	QUANT	1.00000E+001	Points/decade
VAC	QUANT	5.00000E+001	AC Voltage (mV rms)
AREA	QUANT	1.00000E+000	Sample Area (cm^2)
SPEED	SELECTOR	2	Optimize for:
ZGUESS	QUANT	1.00000E+003	Estimated Z (ohms)
EOC	QUANT	0	Open Circuit (V)
SEQUENCER	TOGGLE	TRUE	Run as Sequence
PSTATMODEL	IQUANT	5	Pstat Model
PSTATSECTION	LABEL	REF3000-16137	Pstat Section
PSTATSERIALNO	LABEL	16137	Pstat Serial Number
CTRLMODE	IQUANT	1	Control Mode
IESTAB	IQUANT	0	I/E Stability
CASPEED	IQUANT	1	Control Amp Speed
CONVENTION	IQUANT	1	Current Convention
ICHRANGE	IQUANT	2	Ich Range
ICHRANGEMODE	TOGGLE	F	Ich Auto Range
ICHOFFSETENABLE	TOGGLE	T	Ich Offset Enable
ICHOFFSET	QUANT	0	Ich Offset (V)
ICHFILTER	IQUANT	3	Ich Filter
VCHRANGE	IQUANT	2	Vch Range
VCHRANGEMODE	TOGGLE	F	Vch Auto Range
VCHOFFSETENABLE	TOGGLE	T	Vch Offset Enable
VCHOFFSET	QUANT	0	Vch Offset (V)
VCHFILTER	IQUANT	3	Vch Filter
ACHRANGE	IQUANT	2	Ach Range
ACHOFFSETENABLE	TOGGLE	F	Ach Offset Enable
ACHOFFSET	QUANT	0	Ach Offset (V)
ACHFILTER	IQUANT	3	Ach Filter
IERANGELOWERLIMIT	IQUANT	2	I/E Range Lower Limit
IERANGEMODE	TOGGLE	F	I/E AutoRange
IERANGE	IQUANT	11	I/E Range
POSFEEDENABLE	TOGGLE	F	Positive Feedback IR Comp
POSFEEDRESISTANCE	QUANT	0	Positive Feedback Resistance (ohm)
ACHSELECT	IQUANT	0	Ach Select
CABLEID	IQUANT	13	Cable ID
DCCALDATE	LABEL	7/31/2020	DC Calibration Date
ACCALDATE	LABEL	7/31/2020	AC Calibration Date
THERMOSELECT	IQUANT	1	Thermo Select
FRAMEWORKVERSION	QUANT	6.33	Framework Version
INSTRUMENTVERSION	LABEL	3.50	Instrument Version
COMPLIANCEVOLTAGE	IQUANT	0	Compliance Voltage
ZCURVE	TABLE
	Pt	Time	Freq	Zreal	Zimag	Zsig	Zmod	Zphz	Idc	Vdc	IERange
	#	s	Hz	ohm	ohm	V	ohm	°	A	V	#
	0	6	300046.9	88.47589	-4.576261	1	88.59416	-2.960886	-4.90235E-005	0.0006677	9
	1	10	238359.4	89.00717	-6.064386	1	89.21352	-3.897748	-4.66473E-006	0.0007506	9
	2	13	189328.1	89.72321	-7.519092	1	90.03773	-4.790376	1.309531E-005	-0.0014446	9
	3	15	150421.9	90.57526	-8.950423	1	91.01642	-5.643505	1.884004E-005	-0.0005245	9
	4	18	119484.4	91.59445	-10.86419	1	92.23651	-6.764353	-1.790351E-006	0.0009911	9
	5	20	94921.88	92.77266	-12.58642	1	93.62256	-7.726115	-1.393248E-006	-0.0003225	9
	6	23	75421.88	94.08204	-14.92308	1	95.2582	-9.013039	2.352629E-005	-0.0006382	9
	7	25	59859.37	95.6051	-17.56665	1	97.2055	-10.4115	1.139618E-005	0.0001835	9
	8	28	47578.12	97.4027	-20.47287	1	99.531	-11.8701	-1.930409E-005	0.0008521	9
	9	30	37828.12	99.4079	-23.85801	1	102.2308	-13.49579	-8.424863E-006	0.00071	9
	10	33	30046.88	101.5956	-27.53856	1	105.2618	-15.16619	-4.0451E-006	0.0006812	9
	11	35	23859.38	103.9506	-31.84335	1	108.7186	-17.03148	-1.250344E-005	0.0007908	9
	12	38	18984.38	106.4201	-37.05254	1	112.6859	-19.19671	1.179639E-005	0.0002519	9
	13	40	15046.87	109.0297	-43.25494	1	117.2965	-21.63952	2.25352E-005	-0.0003293	9
	14	42	11953.13	111.5079	-50.57642	1	122.4418	-24.39752	4.223251E-006	-0.0004028	9
	15	45	9515.62	113.7469	-59.91691	1	128.5628	-27.7783	2.359543E-005	-0.0005324	9
	16	47	7546.875	116.1211	-71.58063	1	136.4107	-31.65097	-1.680277E-005	0.0008673	9
	17	49	5928.309	118.3813	-87.39569	1	147.1466	-36.43682	2.253817E-005	-0.0002806	9
	18	52	4733.456	120.4508	-105.8585	1	160.3572	-41.3107	2.352934E-005	-0.000445	9
	19	54	3796.875	123.1791	-128.9126	1	178.3019	-46.3029	-4.120524E-006	0.0006846	9
	20	56	2987.132	126.41	-160.2662	1	204.1194	-51.73538	1.223143E-005	0.0001464	9
	21	59	2390.625	129.4826	-196.5899	1	235.4003	-56.62938	1.926773E-005	-0.0006462	9
	22	61	1884.191	135.181	-245.2131	1	280.006	-61.13295	3.437689E-006	0.0004408	9
	23	63	1516.544	141.0677	-299.6135	1	331.1621	-64.78743	1.782405E-005	-0.0006837	9
	24	66	1193.986	149.4935	-375.7409	1	404.3879	-68.30421	-1.919975E-005	0.0005045	9
	25	68	946.5144	160.133	-465.1183	1	491.9122	-71.0022	-1.320118E-006	0.0022035	8
	26	70	751.7689	175.0789	-577.0948	1	603.0681	-73.12326	-2.822473E-006	0.0025346	8
	27	73	597.4265	193.2968	-714.9045	1	740.5755	-74.87006	5.106224E-006	-1.931637E-005	8
	28	75	477.4305	218.0986	-881.2438	1	907.8312	-76.09921	2.385108E-007	0.0006384	8
	29	77	376.6741	252.5429	-1097.702	1	1126.378	-77.04369	2.181489E-007	0.000671	8
	30	80	298.2954	297.6234	-1360.962	1	1393.125	-77.66441	2.470443E-007	0.0006422	8
	31	82	237.7717	355.2927	-1674.409	1	1711.688	-78.0201	2.336247E-007	0.000642	8
	32	84	189.0121	431.7419	-2062.628	1	2107.329	-78.17774	2.331263E-007	0.0006461	8
	33	87	150.2404	531.5052	-2536.76	1	2591.843	-78.1665	2.526461E-007	0.0006364	8
	34	89	119.1737	663.8038	-3121.635	1	3191.432	-77.99509	2.518343E-007	0.0006479	8
	35	92	95.0169	831.4797	-3817.224	1	3906.732	-77.7116	2.562024E-007	0.0006443	8
	36	94	75.60484	1057.075	-4679.832	1	4797.732	-77.27169	2.765374E-008	0.0006181	7
	37	97	54.50582	1501.541	-6223.737	1	6402.306	-76.436	2.886899E-008	0.0006065	7
	38	99	45.95588	1814.378	-7213.623	1	7438.301	-75.88176	3.801174E-008	0.0006176	7
	39	101	37.20238	2301.949	-8635.166	1	8936.726	-75.0733	3.506658E-008	0.0006194	7
	40	104	30.04808	2949.743	-10334.36	1	10747.09	-74.06963	3.32675E-008	0.0006116	7
	41	106	23.91582	3849.566	-12479.53	1	13059.78	-72.85655	3.156172E-008	0.000619	7
	42	109	18.60119	5161.572	-15248.08	1	16098.01	-71.29871	3.547201E-008	0.0006491	7
	43	111	15.02404	6634.316	-17990.33	1	19174.62	-69.75748	3.531184E-008	0.0006192	7
	44	113	12.01923	8618.665	-21241.12	1	22923.05	-67.91496	3.687569E-008	0.0006169	7
	45	116	9.450605	11330.91	-25172.08	1	27604.77	-65.76568	3.726698E-008	0.0006152	7
	46	118	7.512019	14590.83	-29320.66	1	32750.47	-63.54371	3.733181E-008	0.0006351	7
	47	121	5.978954	18683.03	-33738.8	1	38566.33	-61.02429	3.072203E-008	0.0006136	7
	48	124	4.734848	23753.62	-38506.65	1	45243.75	-58.33079	1.060293E-008	0.0006618	6
	49	127	3.75601	29763.23	-43242.66	1	52495.5	-55.46098	4.577383E-009	0.0006527	6
	50	131	3.004808	36540.82	-47505.75	1	59933.53	-52.43298	7.528311E-009	0.0006367	6
	51	134	2.372217	44740.65	-51658.25	1	68339.6	-49.10452	2.984471E-009	0.0006216	6
	52	138	1.878005	53823.38	-54331.68	1	76478.02	-45.26927	1.998556E-009	0.0006606	6
	53	143	1.512097	62398.84	-54465.09	1	82825.48	-41.11622	3.075304E-009	0.0005507	6
	54	154	1.201923	71289.87	-53707.91	1	89256.85	-36.99341	1.992944E-009	0.000679	6
	55	167	0.956633	79843.92	-52525.88	1	95572.1	-33.3392	-4.793033E-009	2.098253E-005	6
