EXPLAIN
TAG	EISPOT
TITLE	LABEL	Potentiostatic EIS	Test Identifier
DATE	LABEL	8/22/2020	Date
TIME	LABEL	0:32:21	Time
NOTES	NOTES	1	Notes...
	
PSTAT	PSTAT	REF3000-16137	Potentiostat
VDC	POTEN	0.00000E+000	T	DC Voltage (V)
FREQINIT	QUANT	3.00000E+005	Initial Freq. (Hz)
FREQFINAL	QUANT	1.00000E+000	Final Freq. (Hz)
PTSPERDEC	QUANT	1.00000E+001	Points/decade
VAC	QUANT	5.00000E+001	AC Voltage (mV rms)
AREA	QUANT	1.00000E+000	Sample Area (cm^2)
SPEED	SELECTOR	2	Optimize for:
ZGUESS	QUANT	1.00000E+003	Estimated Z (ohms)
EOC	QUANT	0	Open Circuit (V)
SEQUENCER	TOGGLE	TRUE	Run as Sequence
PSTATMODEL	IQUANT	5	Pstat Model
PSTATSECTION	LABEL	REF3000-16137	Pstat Section
PSTATSERIALNO	LABEL	16137	Pstat Serial Number
CTRLMODE	IQUANT	1	Control Mode
IESTAB	IQUANT	0	I/E Stability
CASPEED	IQUANT	1	Control Amp Speed
CONVENTION	IQUANT	1	Current Convention
ICHRANGE	IQUANT	2	Ich Range
ICHRANGEMODE	TOGGLE	F	Ich Auto Range
ICHOFFSETENABLE	TOGGLE	T	Ich Offset Enable
ICHOFFSET	QUANT	0	Ich Offset (V)
ICHFILTER	IQUANT	3	Ich Filter
VCHRANGE	IQUANT	2	Vch Range
VCHRANGEMODE	TOGGLE	F	Vch Auto Range
VCHOFFSETENABLE	TOGGLE	T	Vch Offset Enable
VCHOFFSET	QUANT	0	Vch Offset (V)
VCHFILTER	IQUANT	3	Vch Filter
ACHRANGE	IQUANT	2	Ach Range
ACHOFFSETENABLE	TOGGLE	F	Ach Offset Enable
ACHOFFSET	QUANT	0	Ach Offset (V)
ACHFILTER	IQUANT	3	Ach Filter
IERANGELOWERLIMIT	IQUANT	2	I/E Range Lower Limit
IERANGEMODE	TOGGLE	F	I/E AutoRange
IERANGE	IQUANT	11	I/E Range
POSFEEDENABLE	TOGGLE	F	Positive Feedback IR Comp
POSFEEDRESISTANCE	QUANT	0	Positive Feedback Resistance (ohm)
ACHSELECT	IQUANT	0	Ach Select
CABLEID	IQUANT	13	Cable ID
DCCALDATE	LABEL	7/31/2020	DC Calibration Date
ACCALDATE	LABEL	7/31/2020	AC Calibration Date
THERMOSELECT	IQUANT	1	Thermo Select
FRAMEWORKVERSION	QUANT	6.33	Framework Version
INSTRUMENTVERSION	LABEL	3.50	Instrument Version
COMPLIANCEVOLTAGE	IQUANT	0	Compliance Voltage
ZCURVE	TABLE
	Pt	Time	Freq	Zreal	Zimag	Zsig	Zmod	Zphz	Idc	Vdc	IERange
	#	s	Hz	ohm	ohm	V	ohm	°	A	V	#
	0	6	300046.9	119.1946	-6.925529	1	119.3957	-3.3253	2.790011E-005	0.0001537	9
	1	10	238359.4	120.2019	-8.31122	1	120.4889	-3.955353	-1.28275E-005	-0.0012789	9
	2	13	189328.1	121.1886	-10.19615	1	121.6167	-4.809228	1.666551E-005	-0.0004957	9
	3	15	150421.9	122.5828	-11.9839	1	123.1672	-5.583589	-9.082652E-006	-0.0011376	9
	4	18	119484.4	123.7036	-13.70333	1	124.4603	-6.3212	-1.245199E-005	0.0010949	9
	5	20	94921.88	125.1751	-15.95398	1	126.1877	-7.263379	-1.802674E-005	0.0003974	9
	6	23	75421.88	126.881	-18.77926	1	128.2632	-8.419052	6.691838E-006	-0.000565	9
	7	25	59859.37	128.8168	-21.83043	1	130.6535	-9.61846	-1.602026E-005	0.0007913	9
	8	28	47578.12	131.1689	-25.35246	1	133.5965	-10.9393	1.369568E-005	-0.0006974	9
	9	30	37828.12	133.7903	-29.32445	1	136.9663	-12.36271	-3.158924E-006	-0.0002795	9
	10	33	30046.88	136.5612	-33.78173	1	140.6775	-13.89456	-1.664306E-005	0.000252	9
	11	35	23859.38	139.6342	-39.07593	1	144.9988	-15.63401	2.027195E-005	-0.0007962	9
	12	38	18984.38	142.9017	-45.29572	1	149.9086	-17.58711	-2.091978E-005	0.0007543	9
	13	40	15046.87	146.4767	-52.57663	1	155.6268	-19.7452	2.212359E-005	-0.0007609	9
	14	42	11953.13	149.2637	-61.29498	1	161.359	-22.32545	-1.369076E-005	0.000898	9
	15	45	9515.62	152.5643	-72.05679	1	168.7248	-25.28157	-1.354304E-005	0.0008469	9
	16	47	7546.875	155.717	-85.66701	1	177.7262	-28.81719	1.41001E-005	-0.000719	9
	17	49	5928.309	158.3774	-104.0589	1	189.5037	-33.30617	1.937413E-005	-0.0007359	9
	18	52	4733.456	161.0623	-126.0374	1	204.5152	-38.04453	2.502711E-005	-0.0004698	9
	19	54	3796.875	163.3765	-152.6708	1	223.6074	-43.05992	2.605007E-005	-0.0006472	9
	20	56	2987.132	166.8127	-189.6558	1	252.5783	-48.66661	-1.48959E-005	0.0001751	9
	21	58	2390.625	170.731	-232.5631	1	288.5042	-53.71658	-1.797644E-005	0.000417	9
	22	61	1884.191	174.5079	-292.1328	1	340.286	-59.14766	-2.110372E-005	0.000658	9
	23	63	1516.544	180.9624	-356.7196	1	399.9954	-63.10151	1.367464E-005	-0.0006903	9
	24	65	1193.986	186.9203	-446.7793	1	484.3046	-67.2969	-6.226074E-006	0.0030663	8
	25	68	946.5144	196.4554	-556.3937	1	590.0582	-70.55253	-3.528708E-006	0.0030818	8
	26	70	751.7689	209.8214	-692.3672	1	723.4621	-73.14061	3.795295E-006	0.0009655	8
	27	72	597.4265	226.7596	-863.0005	1	892.2947	-75.27792	-1.394863E-006	-0.0003351	8
	28	75	477.4305	247.5139	-1067.642	1	1095.957	-76.94757	1.674762E-007	0.0006523	8
	29	77	376.6741	277.605	-1336.406	1	1364.934	-78.26511	1.704181E-007	0.0006414	8
	30	79	298.2954	317.1041	-1665.52	1	1695.439	-79.22028	1.691683E-007	0.0006486	8
	31	82	237.7717	367.6778	-2060.823	1	2093.365	-79.88412	1.770945E-007	0.0006465	8
	32	84	189.0121	434.7037	-2554.157	1	2590.885	-80.34112	1.775739E-007	0.0006549	8
	33	87	150.2404	522.4666	-3162.689	1	3205.553	-80.61963	1.857722E-007	0.0006474	8
	34	89	119.1737	638.2035	-3919.877	1	3971.491	-80.75269	1.697325E-007	0.0006536	8
	35	91	95.0169	786.051	-4840.327	1	4903.738	-80.7759	1.068472E-008	0.0006208	7
	36	94	75.60484	977.5	-5971.639	1	6051.114	-80.70368	1.075839E-008	0.0006172	7
	37	96	54.50582	1359.683	-8055.864	1	8169.803	-80.41981	9.664246E-009	0.0006306	7
	38	99	45.95588	1628.203	-9414.454	1	9554.21	-80.18792	1.622822E-008	0.0006183	7
	39	101	37.20238	2048.964	-11403.92	1	11586.53	-79.81424	1.473004E-008	0.0006125	7
	40	104	30.04808	2604.829	-13820.18	1	14063.52	-79.3261	1.169119E-008	0.0006185	7
	41	106	23.91582	3388.319	-16928.62	1	17264.38	-78.68163	9.043674E-009	0.0006192	7
	42	108	18.60119	4601.044	-21162.35	1	21656.74	-77.73384	1.103358E-008	0.0006281	7
	43	111	15.02404	5956.938	-25485.51	1	26172.43	-76.84398	1.131615E-008	0.0006344	7
	44	113	12.01923	7861.775	-30838.32	1	31824.67	-75.69793	1.591006E-008	0.0006244	7
	45	115	9.450605	10558.92	-37660.79	1	39112.99	-74.33815	1.487892E-008	0.0006487	7
	46	118	7.512019	14058.28	-45345.79	1	47475.01	-72.77531	5.517504E-009	0.0006674	6
	47	121	5.978954	18498.85	-54149	1	57221.68	-71.13836	5.42838E-009	0.0006788	6
	48	124	4.734848	24359.98	-64492.17	1	68939.45	-69.30745	4.724262E-009	0.0006839	6
	49	127	3.75601	31591.14	-76230.7	1	82517.39	-67.49015	3.097525E-009	0.0006926	6
	50	130	3.004808	40102.76	-88825.55	1	97458.8	-65.70188	1.206415E-009	0.0007347	6
	51	134	2.372217	51322.41	-103753.1	1	115752.7	-63.68028	1.86424E-009	0.0007293	6
	52	138	1.878005	64679.01	-120124.7	1	136430.6	-61.70054	4.139794E-010	0.0006482	6
	53	143	1.512097	79233.69	-136702.1	1	158004.5	-59.90305	6.190432E-010	0.000626	6
	54	148	1.201923	98260.9	-155791.1	1	184190.3	-57.75947	-7.523875E-011	0.0006409	6
	55	155	0.956633	120351.7	-175850.2	1	213091.1	-55.6123	-1.41029E-009	1.976599E-005	6
