EXPLAIN
TAG	EISPOT
TITLE	LABEL	Potentiostatic EIS	Test Identifier
DATE	LABEL	8/22/2020	Date
TIME	LABEL	3:44:28	Time
NOTES	NOTES	1	Notes...
	
PSTAT	PSTAT	REF3000-16137	Potentiostat
VDC	POTEN	0.00000E+000	T	DC Voltage (V)
FREQINIT	QUANT	3.00000E+005	Initial Freq. (Hz)
FREQFINAL	QUANT	1.00000E+000	Final Freq. (Hz)
PTSPERDEC	QUANT	1.00000E+001	Points/decade
VAC	QUANT	5.00000E+001	AC Voltage (mV rms)
AREA	QUANT	1.00000E+000	Sample Area (cm^2)
SPEED	SELECTOR	2	Optimize for:
ZGUESS	QUANT	1.00000E+003	Estimated Z (ohms)
EOC	QUANT	0	Open Circuit (V)
SEQUENCER	TOGGLE	TRUE	Run as Sequence
PSTATMODEL	IQUANT	5	Pstat Model
PSTATSECTION	LABEL	REF3000-16137	Pstat Section
PSTATSERIALNO	LABEL	16137	Pstat Serial Number
CTRLMODE	IQUANT	1	Control Mode
IESTAB	IQUANT	0	I/E Stability
CASPEED	IQUANT	1	Control Amp Speed
CONVENTION	IQUANT	1	Current Convention
ICHRANGE	IQUANT	2	Ich Range
ICHRANGEMODE	TOGGLE	F	Ich Auto Range
ICHOFFSETENABLE	TOGGLE	T	Ich Offset Enable
ICHOFFSET	QUANT	0	Ich Offset (V)
ICHFILTER	IQUANT	3	Ich Filter
VCHRANGE	IQUANT	2	Vch Range
VCHRANGEMODE	TOGGLE	F	Vch Auto Range
VCHOFFSETENABLE	TOGGLE	T	Vch Offset Enable
VCHOFFSET	QUANT	0	Vch Offset (V)
VCHFILTER	IQUANT	3	Vch Filter
ACHRANGE	IQUANT	2	Ach Range
ACHOFFSETENABLE	TOGGLE	F	Ach Offset Enable
ACHOFFSET	QUANT	0	Ach Offset (V)
ACHFILTER	IQUANT	3	Ach Filter
IERANGELOWERLIMIT	IQUANT	2	I/E Range Lower Limit
IERANGEMODE	TOGGLE	F	I/E AutoRange
IERANGE	IQUANT	11	I/E Range
POSFEEDENABLE	TOGGLE	F	Positive Feedback IR Comp
POSFEEDRESISTANCE	QUANT	0	Positive Feedback Resistance (ohm)
ACHSELECT	IQUANT	0	Ach Select
CABLEID	IQUANT	13	Cable ID
DCCALDATE	LABEL	7/31/2020	DC Calibration Date
ACCALDATE	LABEL	7/31/2020	AC Calibration Date
THERMOSELECT	IQUANT	1	Thermo Select
FRAMEWORKVERSION	QUANT	6.33	Framework Version
INSTRUMENTVERSION	LABEL	3.50	Instrument Version
COMPLIANCEVOLTAGE	IQUANT	0	Compliance Voltage
ZCURVE	TABLE
	Pt	Time	Freq	Zreal	Zimag	Zsig	Zmod	Zphz	Idc	Vdc	IERange
	#	s	Hz	ohm	ohm	V	ohm	°	A	V	#
	0	7	300046.9	86.36425	-4.684968	1	86.49123	-3.105058	-8.046389E-005	0.0025185	9
	1	10	238359.4	86.99834	-6.276702	1	87.22446	-4.126591	-6.394646E-005	0.0024326	9
	2	13	189328.1	87.68101	-7.500364	1	88.00122	-4.889264	6.692749E-005	-0.0025224	9
	3	16	150421.9	88.56141	-9.335529	1	89.05209	-6.0175	1.233171E-005	-0.0010432	9
	4	18	119484.4	89.56676	-11.02602	1	90.24288	-7.018024	6.283917E-005	-0.0014516	9
	5	21	94921.88	90.77487	-12.85905	1	91.68114	-8.062799	1.870606E-005	-0.0002136	9
	6	23	75421.88	92.09558	-15.23147	1	93.34663	-9.391006	-2.074144E-005	0.0007654	9
	7	26	59859.37	93.61977	-17.81655	1	95.3	-10.77497	-1.93557E-005	0.0006471	9
	8	28	47578.12	95.3868	-20.79381	1	97.627	-12.29778	3.924914E-006	0.0004543	9
	9	31	37828.12	97.348	-24.10825	1	100.2888	-13.90946	2.438122E-005	-0.0004597	9
	10	33	30046.88	99.5599	-27.88672	1	103.3917	-15.64756	-2.906014E-006	-0.0002227	9
	11	36	23859.38	101.981	-32.35636	1	106.9909	-17.6031	1.109839E-005	0.0001229	9
	12	38	18984.38	104.3732	-37.48629	1	110.9008	-19.75607	1.217838E-005	-0.0006168	9
	13	41	15046.87	106.8246	-43.703	1	115.4186	-22.24996	2.188346E-005	-0.0002787	9
	14	43	11953.13	109.3114	-51.42508	1	120.8036	-25.19444	1.139861E-005	0.0001185	9
	15	45	9515.62	111.4849	-60.54861	1	126.8661	-28.50685	-1.700995E-005	0.0004247	9
	16	47	7546.875	113.6609	-72.69318	1	134.9189	-32.60143	1.246953E-005	0.0000958	9
	17	50	5928.309	115.9321	-88.75404	1	146.0052	-37.43656	-1.977855E-005	0.0006306	9
	18	52	4733.456	118.0831	-107.678	1	159.8067	-42.36115	-3.019441E-006	-0.0002174	9
	19	54	3796.875	121.0407	-130.8419	1	178.2427	-47.22835	-1.444211E-005	0.0002168	9
	20	57	2987.132	124.103	-162.6551	1	204.5928	-52.657	-1.465021E-005	0.0001922	9
	21	59	2390.625	127.7261	-200.2261	1	237.4962	-57.46582	-1.956872E-005	0.0007306	9
	22	61	1884.191	133.4095	-249.5099	1	282.9369	-61.86719	5.61095E-006	-0.0004737	9
	23	65	1516.544	139.8305	-305.5445	1	336.0208	-65.4091	1.726103E-005	-0.0006566	9
	24	67	1193.986	149.8663	-381.8767	1	410.2313	-68.57264	-1.023413E-005	2.214867E-005	9
	25	70	946.5144	160.4189	-472.4141	1	498.9081	-71.24392	6.160516E-006	-0.0012414	8
	26	72	751.7689	175.2735	-587.2827	1	612.8799	-73.38235	-2.6357E-006	0.00242	8
	27	75	597.4265	194.8081	-726.3263	1	751.9974	-74.98605	-3.96161E-006	0.0025986	8
	28	77	477.4305	221.8079	-893.4238	1	920.5459	-76.05723	2.436844E-007	0.0006465	8
	29	79	376.6741	258.7348	-1111.469	1	1141.187	-76.89571	2.439543E-007	0.000641	8
	30	82	298.2954	307.0315	-1376.13	1	1409.966	-77.42261	2.501775E-007	0.0006417	8
	31	84	237.7717	368.9438	-1691.032	1	1730.812	-77.69226	2.378433E-007	0.0006488	8
	32	86	189.0121	451.1237	-2080.298	1	2128.65	-77.76455	2.607414E-007	0.0006454	8
	33	89	150.2404	559.3126	-2555.098	1	2615.599	-77.65267	2.452248E-007	0.0006434	8
	34	91	119.1737	703.1414	-3140.347	1	3218.103	-77.37931	2.489839E-007	0.0006559	8
	35	93	95.0169	889.8951	-3833.506	1	3935.439	-76.93105	2.670715E-007	0.0006335	8
	36	96	75.60484	1141.804	-4689.373	1	4826.378	-76.31548	2.012612E-008	0.0006601	7
	37	99	54.50582	1649.118	-6212.181	1	6427.347	-75.13287	2.48825E-008	0.0006226	7
	38	101	45.95588	2008.95	-7177.025	1	7452.89	-74.36233	3.392487E-008	0.0006218	7
	39	103	37.20238	2577.16	-8555.481	1	8935.212	-73.23617	2.570002E-008	0.0006272	7
	40	106	30.04808	3328.12	-10168.65	1	10699.43	-71.87713	2.863841E-008	0.0006168	7
	41	108	23.91582	4380.357	-12177.3	1	12941.18	-70.21558	2.488803E-008	0.0006194	7
	42	111	18.60119	5905.197	-14703.64	1	15845.13	-68.11888	1.723305E-008	0.0006283	7
	43	113	15.02404	7597.939	-17112.5	1	18723.42	-66.05882	3.062677E-008	0.0006313	7
	44	115	12.01923	9828.43	-19845.81	1	22146.2	-63.65357	1.823307E-008	0.0006198	7
	45	118	9.450605	12827.18	-23005.46	1	26339.85	-60.85722	2.615426E-008	0.0006248	7
	46	120	7.512019	16325.92	-26060.97	1	30752.39	-57.93486	2.203848E-008	0.0006141	7
	47	123	5.978954	20475.85	-29018.66	1	35515.39	-54.79284	2.15367E-008	0.0006374	7
	48	126	4.734848	25408.39	-31798.47	1	40702.93	-51.37359	2.536215E-009	0.0006687	6
	49	129	3.75601	30843.34	-34105.98	1	45984.01	-47.87575	-1.606116E-009	0.0006647	6
	50	133	3.004808	36415.75	-35472.2	1	50836.83	-44.24802	4.303535E-009	0.0006282	6
	51	136	2.372217	42619	-36421.26	1	56061.46	-40.51647	-4.781508E-009	0.0006181	6
	52	141	1.878005	48358.21	-35490.18	1	59983.91	-36.27501	-2.968239E-009	0.0006842	6
	53	145	1.512097	52275.17	-32487.79	1	61547.95	-31.85998	-2.426029E-009	0.0005847	6
	54	156	1.201923	55538.92	-29259.06	1	62774.71	-27.78119	-4.776028E-009	0.0006755	6
	55	169	0.956633	58434.16	-26632.45	1	64217.12	-24.502	-1.665148E-008	2.375461E-005	6
