EXPLAIN
TAG	EISPOT
TITLE	LABEL	Potentiostatic EIS	Test Identifier
DATE	LABEL	8/22/2020	Date
TIME	LABEL	3:23:11	Time
NOTES	NOTES	1	Notes...
	
PSTAT	PSTAT	REF3000-16137	Potentiostat
VDC	POTEN	0.00000E+000	T	DC Voltage (V)
FREQINIT	QUANT	3.00000E+005	Initial Freq. (Hz)
FREQFINAL	QUANT	1.00000E+000	Final Freq. (Hz)
PTSPERDEC	QUANT	1.00000E+001	Points/decade
VAC	QUANT	5.00000E+001	AC Voltage (mV rms)
AREA	QUANT	1.00000E+000	Sample Area (cm^2)
SPEED	SELECTOR	2	Optimize for:
ZGUESS	QUANT	1.00000E+003	Estimated Z (ohms)
EOC	QUANT	0	Open Circuit (V)
SEQUENCER	TOGGLE	TRUE	Run as Sequence
PSTATMODEL	IQUANT	5	Pstat Model
PSTATSECTION	LABEL	REF3000-16137	Pstat Section
PSTATSERIALNO	LABEL	16137	Pstat Serial Number
CTRLMODE	IQUANT	1	Control Mode
IESTAB	IQUANT	0	I/E Stability
CASPEED	IQUANT	1	Control Amp Speed
CONVENTION	IQUANT	1	Current Convention
ICHRANGE	IQUANT	2	Ich Range
ICHRANGEMODE	TOGGLE	F	Ich Auto Range
ICHOFFSETENABLE	TOGGLE	T	Ich Offset Enable
ICHOFFSET	QUANT	0	Ich Offset (V)
ICHFILTER	IQUANT	3	Ich Filter
VCHRANGE	IQUANT	2	Vch Range
VCHRANGEMODE	TOGGLE	F	Vch Auto Range
VCHOFFSETENABLE	TOGGLE	T	Vch Offset Enable
VCHOFFSET	QUANT	0	Vch Offset (V)
VCHFILTER	IQUANT	3	Vch Filter
ACHRANGE	IQUANT	2	Ach Range
ACHOFFSETENABLE	TOGGLE	F	Ach Offset Enable
ACHOFFSET	QUANT	0	Ach Offset (V)
ACHFILTER	IQUANT	3	Ach Filter
IERANGELOWERLIMIT	IQUANT	2	I/E Range Lower Limit
IERANGEMODE	TOGGLE	F	I/E AutoRange
IERANGE	IQUANT	11	I/E Range
POSFEEDENABLE	TOGGLE	F	Positive Feedback IR Comp
POSFEEDRESISTANCE	QUANT	0	Positive Feedback Resistance (ohm)
ACHSELECT	IQUANT	0	Ach Select
CABLEID	IQUANT	13	Cable ID
DCCALDATE	LABEL	7/31/2020	DC Calibration Date
ACCALDATE	LABEL	7/31/2020	AC Calibration Date
THERMOSELECT	IQUANT	1	Thermo Select
FRAMEWORKVERSION	QUANT	6.33	Framework Version
INSTRUMENTVERSION	LABEL	3.50	Instrument Version
COMPLIANCEVOLTAGE	IQUANT	0	Compliance Voltage
ZCURVE	TABLE
	Pt	Time	Freq	Zreal	Zimag	Zsig	Zmod	Zphz	Idc	Vdc	IERange
	#	s	Hz	ohm	ohm	V	ohm	°	A	V	#
	0	6	300046.9	86.6457	-4.657779	1	86.7708	-3.077065	-2.845384E-005	-0.0005677	9
	1	10	238359.4	87.15361	-6.133451	1	87.36916	-4.025564	-1.062132E-005	0.0005612	9
	2	13	189328.1	87.86408	-7.583855	1	88.19077	-4.933172	-5.051545E-005	0.0007493	9
	3	15	150421.9	88.77353	-9.076831	1	89.23636	-5.838036	-1.021332E-005	0.0009208	9
	4	18	119484.4	89.71038	-10.9085	1	90.37117	-6.93295	6.637932E-006	-0.0014034	9
	5	20	94921.88	90.95079	-12.77428	1	91.8435	-7.995048	-1.179498E-005	0.0007101	9
	6	23	75421.88	92.26788	-15.13331	1	93.50069	-9.314429	2.165274E-005	-0.0003006	9
	7	25	59859.37	93.74953	-17.76616	1	95.4181	-10.73068	-3.81543E-006	0.0006593	9
	8	28	47578.12	95.5348	-20.73236	1	97.7585	-12.24412	-1.41121E-005	0.0001677	9
	9	31	37828.12	97.5596	-24.04671	1	100.4794	-13.84639	3.027136E-006	0.0003981	9
	10	33	30046.88	99.6765	-27.81962	1	103.486	-15.59436	5.163251E-006	-0.0004583	9
	11	36	23859.38	102.0899	-32.31052	1	107.0809	-17.5621	4.240906E-006	0.0004536	9
	12	38	18984.38	104.5437	-37.35555	1	111.0172	-19.66282	-2.335827E-006	-0.0002399	9
	13	40	15046.87	107.0705	-43.70488	1	115.647	-22.20468	-2.342231E-006	-0.00025	9
	14	42	11953.13	109.435	-51.18428	1	120.8132	-25.06616	1.909939E-005	-9.375854E-005	9
	15	45	9515.62	111.6743	-60.46176	1	126.9912	-28.43164	4.998967E-006	-0.0004608	9
	16	47	7546.875	113.9529	-72.54118	1	135.0833	-32.48039	4.887884E-006	-0.0004565	9
	17	49	5928.309	116.3644	-88.17121	1	145.996	-37.1518	-1.440117E-005	0.0001892	9
	18	52	4733.456	118.5613	-107.1382	1	159.7979	-42.10262	1.839179E-005	-0.0006808	9
	19	54	3796.875	121.0089	-130.2712	1	177.8026	-47.111	4.834606E-006	-0.000441	9
	20	56	2987.132	124.383	-161.9123	1	204.1733	-52.46809	1.965747E-005	-0.0001561	9
	21	59	2390.625	128.5202	-198.1253	1	236.159	-57.02927	-1.6682E-005	0.0004189	9
	22	61	1884.191	133.0734	-246.8098	1	280.399	-61.66761	-1.824826E-005	0.0004716	9
	23	63	1516.544	140.0659	-302.8971	1	333.7141	-65.1832	-9.901732E-006	2.901339E-005	9
	24	66	1193.986	149.0806	-379.4374	1	407.6736	-68.55018	1.815074E-005	-0.0006868	9
	25	68	946.5144	159.7243	-469.6149	1	496.0342	-71.21593	2.902988E-006	-0.0011032	8
	26	70	751.7689	175.0959	-581.8169	1	607.5932	-73.251	2.823246E-006	-0.0010635	8
	27	73	597.4265	194.7454	-720.3362	1	746.197	-74.87155	-4.769014E-006	0.0025075	8
	28	75	477.4305	220.8182	-887.0209	1	914.0934	-76.02074	2.427466E-007	0.0006442	8
	29	77	376.6741	257.3099	-1103.854	1	1133.447	-76.87859	2.432079E-007	0.0006392	8
	30	80	298.2954	305.2419	-1367.23	1	1400.889	-77.41477	2.463064E-007	0.0006465	8
	31	82	237.7717	367.0054	-1680.706	1	1720.31	-77.68203	2.564856E-007	0.0006391	8
	32	85	189.0121	449.3991	-2068.4	1	2116.657	-77.74192	2.554877E-007	0.0006472	8
	33	87	150.2404	558.6364	-2541.033	1	2601.716	-77.60099	2.635046E-007	0.0006447	8
	34	89	119.1737	704.395	-3123.243	1	3201.69	-77.29054	2.719128E-007	0.0006462	8
	35	92	95.0169	894.9501	-3812.699	1	3916.326	-76.79018	2.681706E-007	0.0006455	8
	36	94	75.60484	1153.101	-4662.626	1	4803.095	-76.10906	2.520211E-008	0.0006173	7
	37	97	54.50582	1673.543	-6170.391	1	6393.314	-74.82521	2.46354E-008	0.0006111	7
	38	99	45.95588	2044.245	-7125.625	1	7413.06	-73.99254	2.69285E-008	0.0006688	7
	39	102	37.20238	2629.146	-8482.935	1	8881.023	-72.78004	2.508965E-008	0.0006254	7
	40	104	30.04808	3399.356	-10066.24	1	10624.73	-71.34024	2.604909E-008	0.0006118	7
	41	107	23.91582	4465.229	-12003.73	1	12807.33	-69.59547	1.822998E-008	0.0006185	7
	42	109	18.60119	6036.831	-14464.12	1	15673.35	-67.346	1.81237E-008	0.0006199	7
	43	111	15.02404	7758.284	-16784.82	1	18491.11	-65.19267	3.121794E-008	0.0006265	7
	44	113	12.01923	10016.74	-19391.36	1	21825.67	-62.68107	2.852773E-008	0.0006235	7
	45	116	9.450605	13026.24	-22353.46	1	25871.99	-59.76897	1.617441E-008	0.0006195	7
	46	118	7.512019	16545.58	-25185.56	1	30134.18	-56.6972	1.751006E-008	0.0006602	7
	47	121	5.978954	20626.37	-27866.23	1	34669.49	-53.49144	2.194334E-008	0.0006187	7
	48	124	4.734848	25445.54	-30235.04	1	39517.5	-49.91633	2.075066E-008	0.0005919	7
	49	127	3.75601	30716.02	-31986.4	1	44346.4	-46.16069	2.534758E-009	0.0006825	6
	50	131	3.004808	36078.28	-33071.2	1	48942.28	-42.50996	2.454095E-009	0.0006525	6
	51	135	2.372217	41829.32	-33386.09	1	53519.36	-38.59513	-5.019681E-009	0.000585	6
	52	139	1.878005	46551.21	-30954.33	1	55903.36	-33.62201	-2.379202E-009	0.0006646	6
	53	148	1.512097	49978.51	-28614.99	1	57590.53	-29.79312	-4.493338E-009	0.0005931	6
	54	158	1.201923	53352.74	-26531.76	1	59585.65	-26.44068	-6.549411E-009	0.0006895	6
	55	171	0.956633	56484.39	-24552.13	1	61589.72	-23.49319	-2.290514E-008	2.610301E-005	6
