EXPLAIN
TAG	EISPOT
TITLE	LABEL	Potentiostatic EIS	Test Identifier
DATE	LABEL	8/22/2020	Date
TIME	LABEL	2:02:47	Time
NOTES	NOTES	1	Notes...
	
PSTAT	PSTAT	REF3000-16137	Potentiostat
VDC	POTEN	0.00000E+000	T	DC Voltage (V)
FREQINIT	QUANT	3.00000E+005	Initial Freq. (Hz)
FREQFINAL	QUANT	1.00000E+000	Final Freq. (Hz)
PTSPERDEC	QUANT	1.00000E+001	Points/decade
VAC	QUANT	5.00000E+001	AC Voltage (mV rms)
AREA	QUANT	1.00000E+000	Sample Area (cm^2)
SPEED	SELECTOR	2	Optimize for:
ZGUESS	QUANT	1.00000E+003	Estimated Z (ohms)
EOC	QUANT	0	Open Circuit (V)
SEQUENCER	TOGGLE	TRUE	Run as Sequence
PSTATMODEL	IQUANT	5	Pstat Model
PSTATSECTION	LABEL	REF3000-16137	Pstat Section
PSTATSERIALNO	LABEL	16137	Pstat Serial Number
CTRLMODE	IQUANT	1	Control Mode
IESTAB	IQUANT	0	I/E Stability
CASPEED	IQUANT	1	Control Amp Speed
CONVENTION	IQUANT	1	Current Convention
ICHRANGE	IQUANT	2	Ich Range
ICHRANGEMODE	TOGGLE	F	Ich Auto Range
ICHOFFSETENABLE	TOGGLE	T	Ich Offset Enable
ICHOFFSET	QUANT	0	Ich Offset (V)
ICHFILTER	IQUANT	3	Ich Filter
VCHRANGE	IQUANT	2	Vch Range
VCHRANGEMODE	TOGGLE	F	Vch Auto Range
VCHOFFSETENABLE	TOGGLE	T	Vch Offset Enable
VCHOFFSET	QUANT	0	Vch Offset (V)
VCHFILTER	IQUANT	3	Vch Filter
ACHRANGE	IQUANT	2	Ach Range
ACHOFFSETENABLE	TOGGLE	F	Ach Offset Enable
ACHOFFSET	QUANT	0	Ach Offset (V)
ACHFILTER	IQUANT	3	Ach Filter
IERANGELOWERLIMIT	IQUANT	2	I/E Range Lower Limit
IERANGEMODE	TOGGLE	F	I/E AutoRange
IERANGE	IQUANT	11	I/E Range
POSFEEDENABLE	TOGGLE	F	Positive Feedback IR Comp
POSFEEDRESISTANCE	QUANT	0	Positive Feedback Resistance (ohm)
ACHSELECT	IQUANT	0	Ach Select
CABLEID	IQUANT	13	Cable ID
DCCALDATE	LABEL	7/31/2020	DC Calibration Date
ACCALDATE	LABEL	7/31/2020	AC Calibration Date
THERMOSELECT	IQUANT	1	Thermo Select
FRAMEWORKVERSION	QUANT	6.33	Framework Version
INSTRUMENTVERSION	LABEL	3.50	Instrument Version
COMPLIANCEVOLTAGE	IQUANT	0	Compliance Voltage
ZCURVE	TABLE
	Pt	Time	Freq	Zreal	Zimag	Zsig	Zmod	Zphz	Idc	Vdc	IERange
	#	s	Hz	ohm	ohm	V	ohm	°	A	V	#
	0	17	300046.9	-99.3739	-4938.983	1	4939.982	-91.15266	2.554504E-005	-0.0017218	9
	1	31	238359.4	-72.61041	-5844.355	1	5844.807	-90.71181	2.657334E-005	-0.0016676	9
	2	45	189328.1	-94.888	-7474.414	1	7475.016	-90.72733	-2.884198E-005	-0.001143	9
	3	52	150421.9	-112.2378	-9246.891	1	9247.571	-90.69542	1.458421E-006	-0.00192	9
	4	61	119484.4	457.1348	-11544.75	1	11553.8	-87.73246	7.721384E-005	-0.0231232	8
	5	68	94921.88	633.2507	-14372.37	1	14386.32	-87.47717	2.299447E-005	-0.0028001	8
	6	77	75421.88	809.4439	-18008.89	1	18027.08	-87.42647	-2.680936E-005	0.0097244	8
	7	85	59859.37	1025.318	-22924.31	1	22947.22	-87.43908	-2.66255E-005	0.007644	8
	8	94	47578.12	4017.25	-29815.68	1	30085.1	-82.3264	4.970384E-006	-0.0007291	7
	9	101	37828.12	841.0549	-35520.3	1	35530.26	-88.64359	8.33233E-006	0.0042734	8
	10	110	30046.88	996.307	-43739.68	1	43751.02	-88.69514	2.590924E-005	-0.0090022	8
	11	119	23859.38	1581.39	-60180.34	1	60201.12	-88.49476	-1.206425E-006	-0.0051717	8
	12	125	18984.38	5652.328	-71215.37	1	71439.33	-85.46198	3.556278E-006	-0.0249883	7
	13	130	15046.87	4081.236	-90528.73	1	90620.67	-87.41872	7.869937E-006	-0.0250144	7
	14	137	11953.13	3402.212	-101143.7	1	101200.9	-88.07345	-1.61543E-005	0.0006195	8
	15	144	9515.62	5390.632	-139157.7	1	139262.1	-87.78161	-6.857406E-006	0.012317	7
	16	151	7546.875	12162.29	-180960.4	1	181368.7	-86.15495	-5.409322E-006	0.0036119	7
	17	156	5928.309	-7822.063	-244156.4	1	244281.7	-91.83496	-3.783468E-006	0.025709	7
	18	162	4733.456	7198.444	-225247.6	1	225362.6	-88.16957	-1.598836E-005	0.0005939	8
	19	170	3796.875	868.4776	-333517.9	1	333519	-89.8508	6.931145E-006	-0.0274212	7
	20	178	2987.132	121239.2	-271139.5	1	297011	-65.90834	-9.56923E-006	-0.0021603	8
	21	185	2390.625	-77576.3	-336162.5	1	344997.6	-102.9947	-3.623519E-006	-0.0053841	7
	22	192	1884.191	-25522	-729773.4	1	730219.6	-92.00296	-7.442407E-006	0.0190872	7
	23	198	1516.544	-143571	-1049588	1	1059362	-97.789	-7.451173E-006	0.01913	7
	24	206	1193.986	-406560	-710498.9	1	818596.2	-119.779	6.936684E-006	-0.0274273	7
	25	214	946.5144	-121607.4	-679235.6	1	690035.8	-100.1504	6.706113E-006	-0.0103187	7
	26	220	751.7689	-52827.75	-548888.9	1	551425.3	-95.4975	-5.409072E-006	0.0035654	7
	27	226	597.4265	-482370.3	-2961166	1	3000197	-99.2521	7.78903E-006	-0.0248424	7
	28	230	477.4305	348043.1	-2739456	1	2761476	-82.75946	-9.277572E-008	0.0005756	7
	29	239	376.6741	960110	-3500162	1	3629455	-74.66081	-1.028459E-009	0.0006702	5
	30	242	298.2954	1230708	-4316205	1	4488237	-74.08521	-9.617714E-010	0.000611	5
	31	245	237.7717	1558396	-5355727	1	5577850	-73.77619	-9.7974E-010	0.0006214	5
	32	248	189.0121	2223708	-6422113	1	6796206	-70.90118	-1.007122E-009	0.0006775	5
	33	251	150.2404	2843823	-7703361	1	8211523	-69.73754	-1.07915E-009	0.0006755	5
	34	254	119.1737	3165447	-7072071	1	7748176	-65.8868	-9.770946E-010	0.0006246	5
	35	256	95.0169	6060405	-1.067267E+007	1	1.227332E+007	-60.41021	-1.098181E-009	0.0006855	5
	36	259	75.60484	7305614	-1.21957E+007	1	1.421644E+007	-59.07705	-1.056775E-009	0.0006919	5
	37	262	54.50582	1.221106E+007	-1.333209E+007	1	1.807912E+007	-47.51298	-9.953465E-010	0.0005896	5
	38	265	45.95588	1.578858E+007	-1.346384E+007	1	2.07498E+007	-40.45615	-1.312846E-010	0.0006976	4
	39	268	37.20238	1.927617E+007	-1.214134E+007	1	2.278119E+007	-32.20529	-6.925087E-011	0.0006934	4
	40	270	30.04808	2.152412E+007	-1.269983E+007	1	2.499147E+007	-30.54178	-9.438057E-011	0.0006791	4
	41	273	23.91582	2.410451E+007	-1.357272E+007	1	2.766308E+007	-29.38291	-1.072941E-009	0.0006851	5
	42	277	18.60119	2.475468E+007	-1.323628E+007	1	2.807122E+007	-28.13333	-9.762356E-010	0.0005908	5
	43	281	15.02404	2.797029E+007	-1.107132E+007	1	3.008174E+007	-21.59486	-1.030811E-009	0.0006936	5
	44	284	12.01923	3.018744E+007	-9.947124E+006	1	3.178406E+007	-18.23767	-1.046996E-009	0.0006823	5
	45	288	9.450605	3.174582E+007	-8773179	1	3.293578E+007	-15.44851	-1.094184E-009	0.0006888	5
	46	292	7.512019	3.348861E+007	-7699091	1	3.436223E+007	-12.94742	-9.823494E-010	0.0005845	5
	47	297	5.978954	3.533634E+007	-7295647	1	3.608162E+007	-11.66555	-9.598807E-010	0.0006169	5
	48	302	4.734848	3.663345E+007	-6506752	1	3.720682E+007	-10.07171	-1.005679E-009	0.0006095	5
	49	308	3.75601	3.85139E+007	-5297331	1	3.88765E+007	-7.831514	-1.073989E-010	0.0005849	4
	50	315	3.004808	4.085712E+007	-5215634	1	4.118868E+007	-7.274773	-1.005946E-010	0.0006406	4
	51	325	2.372217	4.396718E+007	-1846657	1	4.400595E+007	-2.405055	-9.433804E-012	0.000752	3
	52	329	1.878005	4.507108E+007	-2135043	1	4.512162E+007	-2.712107	-9.254212E-012	0.0006992	3
	53	334	1.512097	4.642152E+007	-2457466	1	4.648652E+007	-3.030299	-1.294752E-011	0.0008102	3
	54	339	1.201923	4.812735E+007	-2906418	1	4.821503E+007	-3.455903	-6.802105E-012	0.0007183	3
	55	345	0.956633	5.014799E+007	-3356477	1	5.026019E+007	-3.829178	-4.511269E-011	0.0001222	3
