EXPLAIN
TAG	EISPOT
TITLE	LABEL	Potentiostatic EIS	Test Identifier
DATE	LABEL	8/22/2020	Date
TIME	LABEL	0:54:50	Time
NOTES	NOTES	1	Notes...
	
PSTAT	PSTAT	REF3000-16137	Potentiostat
VDC	POTEN	0.00000E+000	T	DC Voltage (V)
FREQINIT	QUANT	3.00000E+005	Initial Freq. (Hz)
FREQFINAL	QUANT	1.00000E+000	Final Freq. (Hz)
PTSPERDEC	QUANT	1.00000E+001	Points/decade
VAC	QUANT	5.00000E+001	AC Voltage (mV rms)
AREA	QUANT	1.00000E+000	Sample Area (cm^2)
SPEED	SELECTOR	2	Optimize for:
ZGUESS	QUANT	1.00000E+003	Estimated Z (ohms)
EOC	QUANT	0	Open Circuit (V)
SEQUENCER	TOGGLE	TRUE	Run as Sequence
PSTATMODEL	IQUANT	5	Pstat Model
PSTATSECTION	LABEL	REF3000-16137	Pstat Section
PSTATSERIALNO	LABEL	16137	Pstat Serial Number
CTRLMODE	IQUANT	1	Control Mode
IESTAB	IQUANT	0	I/E Stability
CASPEED	IQUANT	1	Control Amp Speed
CONVENTION	IQUANT	1	Current Convention
ICHRANGE	IQUANT	2	Ich Range
ICHRANGEMODE	TOGGLE	F	Ich Auto Range
ICHOFFSETENABLE	TOGGLE	T	Ich Offset Enable
ICHOFFSET	QUANT	0	Ich Offset (V)
ICHFILTER	IQUANT	3	Ich Filter
VCHRANGE	IQUANT	2	Vch Range
VCHRANGEMODE	TOGGLE	F	Vch Auto Range
VCHOFFSETENABLE	TOGGLE	T	Vch Offset Enable
VCHOFFSET	QUANT	0	Vch Offset (V)
VCHFILTER	IQUANT	3	Vch Filter
ACHRANGE	IQUANT	2	Ach Range
ACHOFFSETENABLE	TOGGLE	F	Ach Offset Enable
ACHOFFSET	QUANT	0	Ach Offset (V)
ACHFILTER	IQUANT	3	Ach Filter
IERANGELOWERLIMIT	IQUANT	2	I/E Range Lower Limit
IERANGEMODE	TOGGLE	F	I/E AutoRange
IERANGE	IQUANT	11	I/E Range
POSFEEDENABLE	TOGGLE	F	Positive Feedback IR Comp
POSFEEDRESISTANCE	QUANT	0	Positive Feedback Resistance (ohm)
ACHSELECT	IQUANT	0	Ach Select
CABLEID	IQUANT	13	Cable ID
DCCALDATE	LABEL	7/31/2020	DC Calibration Date
ACCALDATE	LABEL	7/31/2020	AC Calibration Date
THERMOSELECT	IQUANT	1	Thermo Select
FRAMEWORKVERSION	QUANT	6.33	Framework Version
INSTRUMENTVERSION	LABEL	3.50	Instrument Version
COMPLIANCEVOLTAGE	IQUANT	0	Compliance Voltage
ZCURVE	TABLE
	Pt	Time	Freq	Zreal	Zimag	Zsig	Zmod	Zphz	Idc	Vdc	IERange
	#	s	Hz	ohm	ohm	V	ohm	°	A	V	#
	0	19	300046.9	526.1457	-60.76402	1	529.6429	-6.587844	-3.546206E-005	-0.00105	9
	1	29	238359.4	541.0839	-56.45585	1	544.0211	-5.956599	1.250582E-006	-0.0018448	9
	2	37	189328.1	556.6925	-52.76638	1	559.1877	-5.414633	2.669908E-005	0.0008534	9
	3	45	150421.9	571.9482	-49.19523	1	574.0601	-4.916107	-0.0001022	0.0037113	9
	4	55	119484.4	584.0042	-47.88906	1	585.9644	-4.687836	5.04963E-005	2.552626E-005	9
	5	61	94921.88	592.5206	-29.55424	1	593.2573	-2.85548	-2.645063E-006	-0.0023609	8
	6	64	75421.88	597.8081	-33.3736	1	598.739	-3.195312	9.710331E-006	-0.005667	8
	7	66	59859.37	605.0122	-38.0652	1	606.2085	-3.6001	-1.371971E-005	0.0067962	8
	8	69	47578.12	609.3215	-43.1539	1	610.8478	-4.051087	1.595224E-005	-0.0058146	8
	9	71	37828.12	616.4876	-48.70629	1	618.4087	-4.517334	-1.451233E-005	0.0074237	8
	10	74	30046.88	625.0981	-57.30942	1	627.7197	-5.238272	-1.771749E-006	-0.0030882	8
	11	77	23859.38	632.9976	-66.32937	1	636.4633	-5.981972	-1.204816E-005	0.0013512	8
	12	79	18984.38	642.9711	-74.54774	1	647.2783	-6.613492	-5.804072E-006	0.0062506	8
	13	81	15046.87	653.3234	-87.90392	1	659.2106	-7.66306	-1.636841E-005	0.0066791	8
	14	84	11953.13	664.5323	-102.0793	1	672.3268	-8.732989	1.28946E-005	-0.0059005	8
	15	86	9515.62	677.7597	-118.4029	1	688.0243	-9.90942	1.878159E-005	-0.0050948	8
	16	89	7546.875	692.7311	-136.5258	1	706.0564	-11.14916	7.975807E-006	0.0022129	8
	17	92	5928.309	707.1273	-163.5247	1	725.7888	-13.02089	1.300052E-005	-0.0003986	8
	18	94	4733.456	725.8187	-190.0438	1	750.2863	-14.67258	-1.238277E-005	0.0015184	8
	19	97	3796.875	744.5953	-220.3994	1	776.5295	-16.4887	1.819484E-005	-0.004956	8
	20	99	2987.132	764.9534	-254.2481	1	806.0991	-18.38529	-1.223978E-005	0.0015285	8
	21	102	2390.625	786.4496	-296.8206	1	840.5983	-20.67743	-6.657296E-006	0.0067036	8
	22	104	1884.191	809.8517	-350.5118	1	882.4502	-23.40344	1.670112E-005	-0.0058354	8
	23	107	1516.544	827.2053	-409.882	1	923.1857	-26.35852	-1.147477E-005	0.0073958	8
	24	110	1193.986	851.1038	-496.299	1	985.236	-30.24748	-1.502967E-005	0.0073877	8
	25	113	946.5144	867.5914	-593.0634	1	1050.923	-34.35552	-1.494607E-005	0.0029597	8
	26	116	751.7689	890.739	-727.7267	1	1150.218	-39.24855	-1.475474E-005	0.0028536	8
	27	118	597.4265	907.9792	-886.3536	1	1268.877	-44.30949	-1.68209E-005	0.0067411	8
	28	121	477.4305	931.5833	-1088.074	1	1432.394	-49.43064	-1.640079E-007	0.000629	8
	29	123	376.6741	959.508	-1353.964	1	1659.48	-54.67612	-2.100201E-007	0.0006506	8
	30	125	298.2954	993.38	-1683.506	1	1954.737	-59.4566	-1.927387E-007	0.0006382	8
	31	128	237.7717	1035.123	-2083.412	1	2326.389	-63.57996	-1.943996E-007	0.0006365	8
	32	130	189.0121	1088.921	-2586.828	1	2806.675	-67.17142	-1.721732E-007	0.0006377	8
	33	133	150.2404	1158.354	-3213.021	1	3415.449	-70.17483	-1.745987E-007	0.0006434	8
	34	135	119.1737	1248.324	-3997.838	1	4188.201	-72.65904	-1.620826E-007	0.0006276	8
	35	137	95.0169	1367.843	-4954.951	1	5140.286	-74.56752	-4.515222E-008	0.0006621	7
	36	140	75.60484	1516.618	-6138.251	1	6322.836	-76.12151	-3.979036E-008	0.0005891	7
	37	142	54.50582	1803.092	-8331.173	1	8524.059	-77.78799	-3.959642E-008	0.0006194	7
	38	145	45.95588	1997.649	-9764.37	1	9966.62	-78.43766	-3.974105E-008	0.0005997	7
	39	147	37.20238	2293.59	-11885.01	1	12104.3	-79.07723	-3.938137E-008	0.000591	7
	40	150	30.04808	2674.615	-14488.54	1	14733.34	-79.54083	-3.771042E-008	0.0006078	7
	41	152	23.91582	3197.072	-17902.3	1	18185.53	-79.8746	-4.419112E-008	0.0006333	7
	42	155	18.60119	3953.705	-22589.79	1	22933.18	-80.07255	-3.662053E-008	0.0006114	7
	43	157	15.02404	4838.917	-27517.49	1	27939.71	-80.02658	-3.94709E-008	0.000593	7
	44	159	12.01923	6058.571	-33777	1	34316.06	-79.83101	-3.602234E-008	0.0005987	7
	45	162	9.450605	7824.951	-42056.3	1	42778.05	-79.46013	-4.147795E-008	0.0005854	7
	46	164	7.512019	10139.27	-51759.33	1	52743.09	-78.91653	-4.216036E-009	0.0006692	6
	47	167	5.978954	13229.32	-63396.14	1	64761.76	-78.21284	-2.906879E-009	0.0006433	6
	48	170	4.734848	17501.82	-77868.13	1	79810.77	-77.33258	-4.287271E-009	0.0006366	6
	49	173	3.75601	23080.94	-95030.3	1	97793	-76.34835	-3.634421E-009	0.0006548	6
	50	176	3.004808	30166.34	-114581.3	1	118485.8	-75.25019	-5.439162E-009	0.0007225	6
	51	180	2.372217	39915.62	-139159.4	1	144770.8	-73.99532	-4.423859E-009	0.0007281	6
	52	184	1.878005	52405.87	-167500.6	1	175507.3	-72.62668	-4.95689E-009	0.0006322	6
	53	189	1.512097	66821.16	-197718.1	1	208704.4	-71.32671	-4.817329E-009	0.0007287	6
	54	194	1.201923	85393.26	-235438.2	1	250446	-70.06433	-4.593338E-009	0.0006269	6
	55	201	0.956633	107661.7	-278285.1	1	298385	-68.84975	-5.542876E-009	1.690265E-005	6
