EXPLAIN
TAG	EISPOT
TITLE	LABEL	Potentiostatic EIS	Test Identifier
DATE	LABEL	8/22/2020	Date
TIME	LABEL	0:46:10	Time
NOTES	NOTES	1	Notes...
	
PSTAT	PSTAT	REF3000-16137	Potentiostat
VDC	POTEN	0.00000E+000	T	DC Voltage (V)
FREQINIT	QUANT	3.00000E+005	Initial Freq. (Hz)
FREQFINAL	QUANT	1.00000E+000	Final Freq. (Hz)
PTSPERDEC	QUANT	1.00000E+001	Points/decade
VAC	QUANT	5.00000E+001	AC Voltage (mV rms)
AREA	QUANT	1.00000E+000	Sample Area (cm^2)
SPEED	SELECTOR	2	Optimize for:
ZGUESS	QUANT	1.00000E+003	Estimated Z (ohms)
EOC	QUANT	0	Open Circuit (V)
SEQUENCER	TOGGLE	TRUE	Run as Sequence
PSTATMODEL	IQUANT	5	Pstat Model
PSTATSECTION	LABEL	REF3000-16137	Pstat Section
PSTATSERIALNO	LABEL	16137	Pstat Serial Number
CTRLMODE	IQUANT	1	Control Mode
IESTAB	IQUANT	0	I/E Stability
CASPEED	IQUANT	1	Control Amp Speed
CONVENTION	IQUANT	1	Current Convention
ICHRANGE	IQUANT	2	Ich Range
ICHRANGEMODE	TOGGLE	F	Ich Auto Range
ICHOFFSETENABLE	TOGGLE	T	Ich Offset Enable
ICHOFFSET	QUANT	0	Ich Offset (V)
ICHFILTER	IQUANT	3	Ich Filter
VCHRANGE	IQUANT	2	Vch Range
VCHRANGEMODE	TOGGLE	F	Vch Auto Range
VCHOFFSETENABLE	TOGGLE	T	Vch Offset Enable
VCHOFFSET	QUANT	0	Vch Offset (V)
VCHFILTER	IQUANT	3	Vch Filter
ACHRANGE	IQUANT	2	Ach Range
ACHOFFSETENABLE	TOGGLE	F	Ach Offset Enable
ACHOFFSET	QUANT	0	Ach Offset (V)
ACHFILTER	IQUANT	3	Ach Filter
IERANGELOWERLIMIT	IQUANT	2	I/E Range Lower Limit
IERANGEMODE	TOGGLE	F	I/E AutoRange
IERANGE	IQUANT	11	I/E Range
POSFEEDENABLE	TOGGLE	F	Positive Feedback IR Comp
POSFEEDRESISTANCE	QUANT	0	Positive Feedback Resistance (ohm)
ACHSELECT	IQUANT	0	Ach Select
CABLEID	IQUANT	13	Cable ID
DCCALDATE	LABEL	7/31/2020	DC Calibration Date
ACCALDATE	LABEL	7/31/2020	AC Calibration Date
THERMOSELECT	IQUANT	1	Thermo Select
FRAMEWORKVERSION	QUANT	6.33	Framework Version
INSTRUMENTVERSION	LABEL	3.50	Instrument Version
COMPLIANCEVOLTAGE	IQUANT	0	Compliance Voltage
ZCURVE	TABLE
	Pt	Time	Freq	Zreal	Zimag	Zsig	Zmod	Zphz	Idc	Vdc	IERange
	#	s	Hz	ohm	ohm	V	ohm	°	A	V	#
	0	7	300046.9	161.3211	-9.61706	1	161.6075	-3.411614	1.914198E-005	-0.0015032	9
	1	10	238359.4	162.3912	-11.2213	1	162.7785	-3.952879	-1.36338E-005	0.0011127	9
	2	13	189328.1	163.3428	-12.69325	1	163.8353	-4.443481	9.563648E-006	-0.0016457	9
	3	16	150421.9	165.0224	-15.04416	1	165.7068	-5.208932	-7.945062E-005	0.0021552	9
	4	18	119484.4	166.2467	-17.07841	1	167.1217	-5.86538	-6.965613E-005	0.0031506	9
	5	21	94921.88	168.3582	-19.45488	1	169.4785	-6.591664	-1.712314E-005	0.0002953	9
	6	24	75421.88	170.6313	-22.48708	1	172.1067	-7.507606	-2.04749E-005	0.0004852	9
	7	26	59859.37	173.0853	-25.96835	1	175.0225	-8.532566	7.497282E-006	-0.0006089	9
	8	29	47578.12	175.6947	-30.22372	1	178.2753	-9.76072	-5.324878E-006	-0.0002382	9
	9	31	37828.12	179.0714	-34.63159	1	182.3895	-10.94561	1.482704E-005	-0.0007591	9
	10	34	30046.88	182.6325	-39.78017	1	186.9147	-12.28797	2.652316E-005	-0.0006305	9
	11	36	23859.38	186.5674	-45.74897	1	192.0947	-13.77788	-1.548015E-005	0.0001674	9
	12	39	18984.38	190.7077	-52.87834	1	197.9028	-15.49733	-1.668145E-006	-0.0003432	9
	13	41	15046.87	195.1105	-60.928	1	204.4024	-17.34224	-1.529969E-005	0.0001631	9
	14	43	11953.13	199.979	-70.54097	1	212.0557	-19.42988	-1.473974E-005	0.0001624	9
	15	46	9515.62	204.4067	-82.38351	1	220.3841	-21.95127	-1.517533E-006	-0.0003438	9
	16	48	7546.875	208.9671	-97.0559	1	230.4064	-24.91277	2.642012E-005	-0.0006639	9
	17	50	5928.309	212.9199	-116.0653	1	242.4996	-28.59536	2.679103E-005	-0.0006432	9
	18	53	4733.456	216.3844	-138.8274	1	257.09	-32.68333	2.52913E-005	-0.0007655	9
	19	56	3796.875	220.0979	-167.4462	1	276.5526	-37.26316	-1.743295E-006	-0.0003401	9
	20	60	2987.132	224.6548	-206.1941	1	304.9357	-42.54654	-2.244756E-005	0.0006713	9
	21	62	2390.625	227.9033	-252.2921	1	339.9871	-47.90751	2.032694E-005	-6.679028E-005	9
	22	64	1884.191	231.8573	-312.4559	1	389.0841	-53.42281	-1.511496E-005	0.0009418	9
	23	67	1516.544	237.4298	-383.4608	1	451.0156	-58.23519	-7.900049E-006	0.0036826	8
	24	69	1193.986	243.881	-480.6482	1	538.9811	-63.09676	-2.121057E-006	0.0032438	8
	25	71	946.5144	250.9108	-600.1887	1	650.525	-67.31248	-4.835321E-006	0.0004928	8
	26	74	751.7689	263.1817	-747.9695	1	792.9206	-70.61499	9.193116E-006	-0.0012763	8
	27	76	597.4265	279.6724	-930.2407	1	971.372	-73.26685	-4.866037E-006	0.0037647	8
	28	78	477.4305	298.8605	-1153.458	1	1191.547	-75.47412	7.957514E-008	0.0006483	8
	29	81	376.6741	325.7587	-1446.614	1	1482.839	-77.30942	9.953845E-008	0.0006457	8
	30	83	298.2954	360.918	-1806.874	1	1842.568	-78.70399	9.473822E-008	0.000647	8
	31	85	237.7717	406.0471	-2241.315	1	2277.799	-79.7314	9.567206E-008	0.0006384	8
	32	88	189.0121	466.0668	-2785.689	1	2824.409	-80.50195	8.704417E-008	0.0006468	8
	33	90	150.2404	545.0813	-3459.836	1	3502.51	-81.04691	8.525613E-008	0.0006472	8
	34	93	119.1737	652.4269	-4309.094	1	4358.205	-81.39041	3.01675E-009	0.0006313	7
	35	95	95.0169	785.5605	-5327.492	1	5385.097	-81.61195	1.982821E-009	0.0006223	7
	36	97	75.60484	959.279	-6592.394	1	6661.822	-81.72083	2.611975E-009	0.0006108	7
	37	100	54.50582	1301.256	-8931.991	1	9026.28	-81.71118	-6.076204E-010	0.0006326	7
	38	102	45.95588	1538.748	-10462.96	1	10575.5	-81.6337	5.344286E-009	0.0006113	7
	39	105	37.20238	1906.139	-12716.72	1	12858.78	-81.47527	1.759834E-009	0.0006225	7
	40	107	30.04808	2384.514	-15468.23	1	15650.94	-81.23652	-7.904154E-010	0.0006263	7
	41	110	23.91582	3059.456	-19087.83	1	19331.47	-80.89391	3.391909E-009	0.0006062	7
	42	112	18.60119	4068.254	-23998.07	1	24340.46	-80.37845	4.951326E-009	0.000623	7
	43	114	15.02404	5220.958	-29118.27	1	29582.63	-79.83478	1.03164E-009	0.0006167	7
	44	117	12.01923	6815.773	-35572.19	1	36219.27	-79.15336	1.692607E-009	0.0006171	7
	45	119	9.450605	9190.73	-43994.04	1	44943.79	-78.20013	1.149938E-009	0.0006665	6
	46	121	7.512019	12172.71	-53732.46	1	55094.03	-77.2355	2.124909E-009	0.0006789	6
	47	124	5.978954	16139.23	-65317.42	1	67281.8	-76.12083	1.405919E-009	0.0006638	6
	48	127	4.734848	21541.7	-79327.17	1	82200.03	-74.80741	1.802088E-009	0.0006944	6
	49	130	3.75601	28557.87	-95741.8	1	99910.2	-73.39121	1.83064E-010	0.0006497	6
	50	134	3.004808	37145.32	-114062.4	1	119958.3	-71.96175	1.994048E-010	0.0006842	6
	51	138	2.372217	48833.79	-136616.7	1	145082.3	-70.33051	4.398188E-010	0.0007392	6
	52	142	1.878005	63030.03	-162137.6	1	173958	-68.75671	-4.564404E-010	0.0006412	6
	53	147	1.512097	78722.4	-188407.5	1	204192.5	-67.32333	-1.891567E-011	0.0006537	6
	54	152	1.201923	99477.1	-221146.7	1	242490.3	-65.78064	3.673053E-011	0.0006478	6
	55	158	0.956633	123823.4	-257801	1	285995.8	-64.34474	-6.933519E-010	2.15072E-005	6
