EXPLAIN
TAG	EISPOT
TITLE	LABEL	Potentiostatic EIS	Test Identifier
DATE	LABEL	8/22/2020	Date
TIME	LABEL	3:29:15	Time
NOTES	NOTES	1	Notes...
	
PSTAT	PSTAT	REF3000-16137	Potentiostat
VDC	POTEN	0.00000E+000	T	DC Voltage (V)
FREQINIT	QUANT	3.00000E+005	Initial Freq. (Hz)
FREQFINAL	QUANT	1.00000E+000	Final Freq. (Hz)
PTSPERDEC	QUANT	1.00000E+001	Points/decade
VAC	QUANT	5.00000E+001	AC Voltage (mV rms)
AREA	QUANT	1.00000E+000	Sample Area (cm^2)
SPEED	SELECTOR	2	Optimize for:
ZGUESS	QUANT	1.00000E+003	Estimated Z (ohms)
EOC	QUANT	0	Open Circuit (V)
SEQUENCER	TOGGLE	TRUE	Run as Sequence
PSTATMODEL	IQUANT	5	Pstat Model
PSTATSECTION	LABEL	REF3000-16137	Pstat Section
PSTATSERIALNO	LABEL	16137	Pstat Serial Number
CTRLMODE	IQUANT	1	Control Mode
IESTAB	IQUANT	0	I/E Stability
CASPEED	IQUANT	1	Control Amp Speed
CONVENTION	IQUANT	1	Current Convention
ICHRANGE	IQUANT	2	Ich Range
ICHRANGEMODE	TOGGLE	F	Ich Auto Range
ICHOFFSETENABLE	TOGGLE	T	Ich Offset Enable
ICHOFFSET	QUANT	0	Ich Offset (V)
ICHFILTER	IQUANT	3	Ich Filter
VCHRANGE	IQUANT	2	Vch Range
VCHRANGEMODE	TOGGLE	F	Vch Auto Range
VCHOFFSETENABLE	TOGGLE	T	Vch Offset Enable
VCHOFFSET	QUANT	0	Vch Offset (V)
VCHFILTER	IQUANT	3	Vch Filter
ACHRANGE	IQUANT	2	Ach Range
ACHOFFSETENABLE	TOGGLE	F	Ach Offset Enable
ACHOFFSET	QUANT	0	Ach Offset (V)
ACHFILTER	IQUANT	3	Ach Filter
IERANGELOWERLIMIT	IQUANT	2	I/E Range Lower Limit
IERANGEMODE	TOGGLE	F	I/E AutoRange
IERANGE	IQUANT	11	I/E Range
POSFEEDENABLE	TOGGLE	F	Positive Feedback IR Comp
POSFEEDRESISTANCE	QUANT	0	Positive Feedback Resistance (ohm)
ACHSELECT	IQUANT	0	Ach Select
CABLEID	IQUANT	13	Cable ID
DCCALDATE	LABEL	7/31/2020	DC Calibration Date
ACCALDATE	LABEL	7/31/2020	AC Calibration Date
THERMOSELECT	IQUANT	1	Thermo Select
FRAMEWORKVERSION	QUANT	6.33	Framework Version
INSTRUMENTVERSION	LABEL	3.50	Instrument Version
COMPLIANCEVOLTAGE	IQUANT	0	Compliance Voltage
ZCURVE	TABLE
	Pt	Time	Freq	Zreal	Zimag	Zsig	Zmod	Zphz	Idc	Vdc	IERange
	#	s	Hz	ohm	ohm	V	ohm	°	A	V	#
	0	7	300046.9	86.38078	-4.71629	1	86.50943	-3.12518	-6.938913E-005	0.0024101	9
	1	10	238359.4	87.04395	-5.913566	1	87.2446	-3.886571	6.959495E-005	-0.0026762	9
	2	13	189328.1	87.77732	-7.765634	1	88.12016	-5.055778	-8.952205E-006	0.0008148	9
	3	16	150421.9	88.49241	-9.154121	1	88.96462	-5.905971	1.174741E-005	-0.0008056	9
	4	18	119484.4	89.53771	-10.99695	1	90.2105	-7.001957	-3.20318E-005	-0.0001823	9
	5	21	94921.88	90.81665	-12.81997	1	91.71704	-8.034966	-1.171881E-005	0.0007032	9
	6	24	75421.88	92.10944	-15.13455	1	93.34454	-9.330926	-1.212734E-005	0.0007247	9
	7	26	59859.37	93.63712	-17.77183	1	95.3087	-10.74662	-1.632871E-005	0.0008484	9
	8	29	47578.12	95.4175	-20.74972	1	97.6476	-12.26866	3.277427E-006	0.0003815	9
	9	31	37828.12	97.3981	-24.00642	1	100.313	-13.84613	-1.930632E-005	0.0005467	9
	10	34	30046.88	99.5791	-27.83148	1	103.3953	-15.61521	2.240029E-005	-0.0006532	9
	11	36	23859.38	101.9505	-32.29974	1	106.9447	-17.57913	-1.091591E-005	3.998189E-005	9
	12	39	18984.38	104.3725	-37.45976	1	110.8912	-19.74329	2.427233E-005	-0.0005782	9
	13	41	15046.87	106.8422	-43.62879	1	115.4068	-22.21255	-1.425712E-005	0.0002185	9
	14	43	11953.13	109.2477	-51.1484	1	120.6284	-25.08841	2.987415E-006	0.0004061	9
	15	45	9515.62	111.5465	-60.42409	1	126.8609	-28.44416	-1.62129E-005	0.0008473	9
	16	48	7546.875	113.5656	-72.47981	1	134.7237	-32.54682	2.429185E-005	-0.000395	9
	17	50	5928.309	116.1279	-88.29227	1	145.8808	-37.24579	2.230842E-005	-0.000663	9
	18	52	4733.456	118.1184	-107.3913	1	159.6398	-42.27661	1.886175E-005	-0.0001364	9
	19	55	3796.875	120.8351	-130.6456	1	177.959	-47.23404	-1.211144E-005	0.000756	9
	20	57	2987.132	124.1663	-161.9739	1	204.0902	-52.52687	-1.443476E-005	0.0001818	9
	21	59	2390.625	127.9373	-198.8712	1	236.4692	-57.24612	1.970965E-005	-0.0001193	9
	22	62	1884.191	133.8815	-248.4842	1	282.2563	-61.68453	1.868481E-005	-0.0001313	9
	23	64	1516.544	139.9734	-303.7157	1	334.4186	-65.25645	-1.013259E-005	3.519306E-005	9
	24	66	1193.986	148.3862	-380.0594	1	407.9995	-68.67289	-1.947817E-005	0.000772	9
	25	69	946.5144	158.9747	-470.3346	1	496.4752	-71.32458	-4.102519E-006	0.0025573	8
	26	71	751.7689	174.2847	-582.7028	1	608.2086	-73.34823	8.630558E-007	-0.0006036	8
	27	73	597.4265	194.9513	-721.6375	1	747.5069	-74.88235	5.564211E-006	-0.0014273	8
	28	76	477.4305	220.9282	-888.6478	1	915.6988	-76.03864	2.36497E-007	0.0006461	8
	29	78	376.6741	257.4977	-1105.784	1	1135.369	-76.89146	2.577466E-007	0.0006406	8
	30	80	298.2954	305.4631	-1369.461	1	1403.115	-77.42581	2.52148E-007	0.0006501	8
	31	83	237.7717	367.0994	-1683.258	1	1722.823	-77.69708	2.603135E-007	0.0006429	8
	32	85	189.0121	449.283	-2071.267	1	2119.435	-77.76144	2.479493E-007	0.0006466	8
	33	87	150.2404	557.8584	-2544.568	1	2605.001	-77.63439	2.438382E-007	0.0006467	8
	34	90	119.1737	702.7295	-3127.746	1	3205.718	-77.33729	2.687352E-007	0.0006413	8
	35	92	95.0169	891.306	-3818.311	1	3920.96	-76.86076	2.557665E-007	0.0006932	8
	36	95	75.60484	1146.565	-4670.554	1	4809.229	-76.20732	2.260666E-008	0.0006161	7
	37	97	54.50582	1661.025	-6183.318	1	6402.533	-74.96362	2.18004E-008	0.0006552	7
	38	100	45.95588	2026.546	-7143.302	1	7425.204	-74.16143	2.787782E-008	0.0006289	7
	39	102	37.20238	2606.311	-8509.562	1	8899.748	-72.97121	3.210843E-008	0.0006206	7
	40	105	30.04808	3368.454	-10107.53	1	10654.05	-71.56874	2.668973E-008	0.0006208	7
	41	107	23.91582	4428.811	-12067.5	1	12854.53	-69.84671	2.229887E-008	0.000616	7
	42	109	18.60119	5973.95	-14563.69	1	15741.32	-67.69681	3.437431E-008	0.000647	7
	43	112	15.02404	7686.588	-16925.25	1	18588.91	-65.57487	3.052391E-008	0.0006651	7
	44	114	12.01923	9937.89	-19589.89	1	21966.46	-63.10146	1.812239E-008	0.0006151	7
	45	117	9.450605	12939.67	-22585.73	1	26029.8	-60.19103	3.254318E-008	0.0006135	7
	46	119	7.512019	16433.57	-25538.02	1	30368.61	-57.23895	3.414426E-008	0.0006308	7
	47	122	5.978954	20560.24	-28338.74	1	35011.54	-54.03847	2.820902E-008	0.0006165	7
	48	125	4.734848	25450.99	-30878.53	1	40015.46	-50.50365	2.706581E-008	0.0006192	7
	49	128	3.75601	30801.77	-32958.44	1	45111.05	-46.93727	2.439099E-009	0.0006696	6
	50	131	3.004808	36244.56	-34279.27	1	49887.23	-43.40375	-5.535814E-009	0.0007288	6
	51	135	2.372217	42206.02	-34681.16	1	54627.2	-39.41033	1.717172E-009	0.000693	6
	52	139	1.878005	47255.3	-32355.87	1	57270.98	-34.39958	-2.203613E-009	0.0006407	6
	53	148	1.512097	50928.3	-30033.83	1	59124.64	-30.52903	-3.098014E-009	0.0007456	6
	54	159	1.201923	54219.45	-27455.93	1	60774.8	-26.85698	-3.560349E-009	0.0006542	6
	55	172	0.956633	57651.79	-25626.9	1	63090.94	-23.96571	-2.472251E-008	2.341591E-005	6
