EXPLAIN
TAG	EISPOT
TITLE	LABEL	Potentiostatic EIS	Test Identifier
DATE	LABEL	8/22/2020	Date
TIME	LABEL	2:33:55	Time
NOTES	NOTES	1	Notes...
	
PSTAT	PSTAT	REF3000-16137	Potentiostat
VDC	POTEN	0.00000E+000	T	DC Voltage (V)
FREQINIT	QUANT	3.00000E+005	Initial Freq. (Hz)
FREQFINAL	QUANT	1.00000E+000	Final Freq. (Hz)
PTSPERDEC	QUANT	1.00000E+001	Points/decade
VAC	QUANT	5.00000E+001	AC Voltage (mV rms)
AREA	QUANT	1.00000E+000	Sample Area (cm^2)
SPEED	SELECTOR	2	Optimize for:
ZGUESS	QUANT	1.00000E+003	Estimated Z (ohms)
EOC	QUANT	0	Open Circuit (V)
SEQUENCER	TOGGLE	TRUE	Run as Sequence
PSTATMODEL	IQUANT	5	Pstat Model
PSTATSECTION	LABEL	REF3000-16137	Pstat Section
PSTATSERIALNO	LABEL	16137	Pstat Serial Number
CTRLMODE	IQUANT	1	Control Mode
IESTAB	IQUANT	0	I/E Stability
CASPEED	IQUANT	1	Control Amp Speed
CONVENTION	IQUANT	1	Current Convention
ICHRANGE	IQUANT	2	Ich Range
ICHRANGEMODE	TOGGLE	F	Ich Auto Range
ICHOFFSETENABLE	TOGGLE	T	Ich Offset Enable
ICHOFFSET	QUANT	0	Ich Offset (V)
ICHFILTER	IQUANT	3	Ich Filter
VCHRANGE	IQUANT	2	Vch Range
VCHRANGEMODE	TOGGLE	F	Vch Auto Range
VCHOFFSETENABLE	TOGGLE	T	Vch Offset Enable
VCHOFFSET	QUANT	0	Vch Offset (V)
VCHFILTER	IQUANT	3	Vch Filter
ACHRANGE	IQUANT	2	Ach Range
ACHOFFSETENABLE	TOGGLE	F	Ach Offset Enable
ACHOFFSET	QUANT	0	Ach Offset (V)
ACHFILTER	IQUANT	3	Ach Filter
IERANGELOWERLIMIT	IQUANT	2	I/E Range Lower Limit
IERANGEMODE	TOGGLE	F	I/E AutoRange
IERANGE	IQUANT	11	I/E Range
POSFEEDENABLE	TOGGLE	F	Positive Feedback IR Comp
POSFEEDRESISTANCE	QUANT	0	Positive Feedback Resistance (ohm)
ACHSELECT	IQUANT	0	Ach Select
CABLEID	IQUANT	13	Cable ID
DCCALDATE	LABEL	7/31/2020	DC Calibration Date
ACCALDATE	LABEL	7/31/2020	AC Calibration Date
THERMOSELECT	IQUANT	1	Thermo Select
FRAMEWORKVERSION	QUANT	6.33	Framework Version
INSTRUMENTVERSION	LABEL	3.50	Instrument Version
COMPLIANCEVOLTAGE	IQUANT	0	Compliance Voltage
ZCURVE	TABLE
	Pt	Time	Freq	Zreal	Zimag	Zsig	Zmod	Zphz	Idc	Vdc	IERange
	#	s	Hz	ohm	ohm	V	ohm	°	A	V	#
	0	20	300046.9	-101.7811	-4856.733	1	4857.799	-91.20055	-5.886632E-005	0.0004243	9
	1	38	238359.4	87.10721	-6075.888	1	6076.513	-89.17863	-1.999044E-005	0.0014421	9
	2	52	189328.1	134.965	-7749.819	1	7750.994	-89.00228	1.887189E-006	0.001709	9
	3	64	150421.9	380.101	-9448.713	1	9456.355	-87.69636	-2.23607E-005	0.0015805	9
	4	75	119484.4	551.3328	-11488.7	1	11501.92	-87.25253	4.974905E-005	-0.001938	8
	5	82	94921.88	573.5228	-14736.61	1	14747.76	-87.77127	-2.038195E-005	0.0028308	8
	6	91	75421.88	657.5247	-18074.98	1	18086.94	-87.91663	2.626785E-005	-0.0051623	8
	7	99	59859.37	637.4201	-22911.11	1	22919.98	-88.40636	-2.71326E-005	0.0097138	8
	8	108	47578.12	386.1174	-28624.89	1	28627.5	-89.22719	-2.358519E-006	0.0077611	8
	9	118	37828.12	4189.477	-37120.79	1	37356.45	-83.56081	4.158199E-007	0.0164688	7
	10	125	30046.88	4342.188	-46089.64	1	46293.73	-84.61794	-6.836644E-006	0.0121656	7
	11	133	23859.38	4429.337	-57224.68	1	57395.84	-85.57398	6.945284E-006	-0.0273709	7
	12	138	18984.38	4353.93	-72166.37	1	72297.59	-86.54742	7.798336E-006	-0.024688	7
	13	144	15046.87	2855.817	-91625	1	91669.49	-88.21475	-1.930635E-006	0.0225504	7
	14	149	11953.13	5037.925	-114527.6	1	114638.3	-87.48125	-9.280362E-007	-0.0138768	7
	15	154	9515.62	3029.71	-144945.1	1	144976.7	-88.80255	-1.183704E-006	-0.0135216	7
	16	161	7546.875	13068.75	-187639.6	1	188094.2	-86.01588	7.733777E-006	-0.0250777	7
	17	166	5928.309	12022.3	-216891.6	1	217224.6	-86.82734	-5.429046E-006	0.0036381	7
	18	171	4733.456	4395.868	-310827.6	1	310858.7	-89.18975	-3.464734E-006	-0.0051992	7
	19	177	3796.875	-32083.54	-390354.1	1	391670.4	-94.69863	-7.366908E-006	0.0182889	7
	20	183	2987.132	-18937.39	-407909.7	1	408349.1	-92.65807	7.675703E-006	-0.0187105	7
	21	190	2390.625	77051.93	-603119.1	1	608021.1	-82.71957	7.683167E-006	-0.0186845	7
	22	197	1884.191	140267.7	-691798.7	1	705875.7	-78.5382	1.324929E-006	-0.0203616	7
	23	205	1516.544	63672.6	-894799.3	1	897061.8	-85.92978	1.833283E-007	-0.0215118	6
	24	210	1193.986	55996.33	-1091108	1	1092544	-87.06213	-2.176717E-007	0.0228508	6
	25	216	946.5144	-114857.1	-1326182	1	1331146	-94.94988	2.164789E-007	0.0111142	6
	26	219	751.7689	106705.2	-1534207	1	1537913	-86.02145	-5.950204E-009	0.0177238	6
	27	223	597.4265	14298.07	-2696379	1	2696417	-89.69618	-2.120752E-007	0.02277	6
	28	228	477.4305	90558.23	-2814000	1	2815457	-88.15678	-9.624951E-009	0.0006621	6
	29	232	376.6741	478809.4	-3672975	1	3704052	-82.5728	-1.001878E-009	0.0005898	5
	30	236	298.2954	525091.4	-4557381	1	4587531	-83.42749	-9.89188E-010	0.0006088	5
	31	238	237.7717	462171.1	-5760730	1	5779240	-85.41311	-1.0973E-009	0.0006634	5
	32	241	189.0121	536197.1	-7060871	1	7081201	-85.65734	-9.807906E-010	0.0006112	5
	33	244	150.2404	658443.4	-9326610	1	9349824	-85.96171	-1.067523E-009	0.0006929	5
	34	247	119.1737	874430.2	-1.685222E+007	1	1.687489E+007	-87.02969	-9.341401E-010	0.0005982	5
	35	250	95.0169	453389.2	-1.363912E+007	1	1.364665E+007	-88.09608	-1.046625E-009	0.0006887	5
	36	252	75.60484	34680.72	-1.820279E+007	1	1.820283E+007	-89.89084	-1.035383E-009	0.0006777	5
	37	255	54.50582	1459068	-2.42279E+007	1	2.42718E+007	-86.55366	-1.066391E-009	0.0006727	5
	38	259	45.95588	1303041	-2.988595E+007	1	2.991435E+007	-87.50346	-9.605239E-010	0.0006194	5
	39	262	37.20238	59424.6	-3.729695E+007	1	3.7297E+007	-89.90871	-9.703074E-010	0.0006264	5
	40	266	30.04808	5047538	-4.409695E+007	1	4.438489E+007	-83.47009	-9.247557E-011	0.0007009	4
	41	270	23.91582	1.048277E+007	-5.439356E+007	1	5.539447E+007	-79.09165	-1.391841E-010	0.0006146	4
	42	274	18.60119	-293662.8	-9.517803E+007	1	9.517849E+007	-90.17678	-2.176244E-010	0.0006526	4
	43	277	15.02404	5852147	-8.731326E+007	1	8.750915E+007	-86.1655	-1.013748E-010	0.0006636	4
	44	281	12.01923	1.193493E+007	-1.101097E+008	1	1.107546E+008	-83.81378	-8.21088E-011	0.0006167	4
	45	285	9.450605	1302522	-1.379017E+008	1	1.379078E+008	-89.45884	-8.323939E-011	0.0006225	4
	46	289	7.512019	1.787535E+007	-1.702418E+008	1	1.711777E+008	-84.00592	-1.031327E-010	0.0006156	4
	47	293	5.978954	1.340104E+007	-2.208339E+008	1	2.212402E+008	-86.52733	-9.613416E-011	0.0006981	4
	48	299	4.734848	4.930878E+007	-2.842694E+008	1	2.885142E+008	-80.15951	-1.006196E-011	0.0007931	3
	49	304	3.75601	-1.897162E+007	-3.560904E+008	1	3.565955E+008	-93.04969	-1.070313E-009	0.0007322	5
	50	312	3.004808	2.172771E+007	-4.63341E+008	1	4.638501E+008	-87.31516	-9.845136E-010	0.0005991	5
	51	321	2.372217	7.310334E+007	-5.398416E+008	1	5.447688E+008	-82.28813	-1.068557E-011	0.0006618	3
	52	327	1.878005	8.504426E+007	-6.751227E+008	1	6.80458E+008	-82.82035	-1.029902E-011	0.0007205	3
	53	336	1.512097	9.961257E+007	-8.247219E+008	1	8.307158E+008	-83.11299	-1.014605E-011	0.0007199	3
	54	342	1.201923	1.280047E+008	-1.037334E+009	1	1.045202E+009	-82.96539	-1.027033E-011	0.0007488	3
	55	355	0.956633	1.689974E+008	-1.292367E+009	1	1.303369E+009	-82.54994	-1.031621E-011	7.900052E-005	3
