EXPLAIN
TAG	EISPOT
TITLE	LABEL	Potentiostatic EIS	Test Identifier
DATE	LABEL	8/22/2020	Date
TIME	LABEL	0:58:20	Time
NOTES	NOTES	1	Notes...
	
PSTAT	PSTAT	REF3000-16137	Potentiostat
VDC	POTEN	0.00000E+000	T	DC Voltage (V)
FREQINIT	QUANT	3.00000E+005	Initial Freq. (Hz)
FREQFINAL	QUANT	1.00000E+000	Final Freq. (Hz)
PTSPERDEC	QUANT	1.00000E+001	Points/decade
VAC	QUANT	5.00000E+001	AC Voltage (mV rms)
AREA	QUANT	1.00000E+000	Sample Area (cm^2)
SPEED	SELECTOR	2	Optimize for:
ZGUESS	QUANT	1.00000E+003	Estimated Z (ohms)
EOC	QUANT	0	Open Circuit (V)
SEQUENCER	TOGGLE	TRUE	Run as Sequence
PSTATMODEL	IQUANT	5	Pstat Model
PSTATSECTION	LABEL	REF3000-16137	Pstat Section
PSTATSERIALNO	LABEL	16137	Pstat Serial Number
CTRLMODE	IQUANT	1	Control Mode
IESTAB	IQUANT	0	I/E Stability
CASPEED	IQUANT	1	Control Amp Speed
CONVENTION	IQUANT	1	Current Convention
ICHRANGE	IQUANT	2	Ich Range
ICHRANGEMODE	TOGGLE	F	Ich Auto Range
ICHOFFSETENABLE	TOGGLE	T	Ich Offset Enable
ICHOFFSET	QUANT	0	Ich Offset (V)
ICHFILTER	IQUANT	3	Ich Filter
VCHRANGE	IQUANT	2	Vch Range
VCHRANGEMODE	TOGGLE	F	Vch Auto Range
VCHOFFSETENABLE	TOGGLE	T	Vch Offset Enable
VCHOFFSET	QUANT	0	Vch Offset (V)
VCHFILTER	IQUANT	3	Vch Filter
ACHRANGE	IQUANT	2	Ach Range
ACHOFFSETENABLE	TOGGLE	F	Ach Offset Enable
ACHOFFSET	QUANT	0	Ach Offset (V)
ACHFILTER	IQUANT	3	Ach Filter
IERANGELOWERLIMIT	IQUANT	2	I/E Range Lower Limit
IERANGEMODE	TOGGLE	F	I/E AutoRange
IERANGE	IQUANT	11	I/E Range
POSFEEDENABLE	TOGGLE	F	Positive Feedback IR Comp
POSFEEDRESISTANCE	QUANT	0	Positive Feedback Resistance (ohm)
ACHSELECT	IQUANT	0	Ach Select
CABLEID	IQUANT	13	Cable ID
DCCALDATE	LABEL	7/31/2020	DC Calibration Date
ACCALDATE	LABEL	7/31/2020	AC Calibration Date
THERMOSELECT	IQUANT	1	Thermo Select
FRAMEWORKVERSION	QUANT	6.33	Framework Version
INSTRUMENTVERSION	LABEL	3.50	Instrument Version
COMPLIANCEVOLTAGE	IQUANT	0	Compliance Voltage
ZCURVE	TABLE
	Pt	Time	Freq	Zreal	Zimag	Zsig	Zmod	Zphz	Idc	Vdc	IERange
	#	s	Hz	ohm	ohm	V	ohm	°	A	V	#
	0	14	300046.9	778.955	-131.0529	1	789.9023	-9.55012	-9.256622E-005	0.002129	9
	1	28	238359.4	807.0877	-127.6808	1	817.1248	-8.989659	5.152062E-005	-6.42818E-005	9
	2	44	189328.1	829.6978	-105.7695	1	836.4124	-7.264855	2.373756E-005	0.0009482	9
	3	56	150421.9	843.9332	-92.11539	1	848.9455	-6.22918	2.549246E-005	0.0009325	9
	4	64	119484.4	863.9022	-57.36048	1	865.8044	-3.79869	5.748182E-005	-0.0177804	8
	5	70	94921.88	869.8426	-52.05683	1	871.3989	-3.424854	-1.52583E-006	0.0057322	8
	6	73	75421.88	874.5824	-54.63951	1	876.2875	-3.574906	1.592429E-005	-0.0007467	8
	7	76	59859.37	882.2426	-57.69678	1	884.1272	-3.741693	1.852006E-005	-0.0065232	8
	8	79	47578.12	892.511	-60.12304	1	894.5338	-3.853846	-2.039991E-005	0.006499	8
	9	82	37828.12	901.2345	-66.49055	1	903.6839	-4.219477	-7.244955E-006	0.0072122	8
	10	84	30046.88	909.374	-72.953	1	912.2956	-4.586635	1.413934E-005	-0.0002711	8
	11	87	23859.38	918.551	-81.52572	1	922.1618	-5.07198	1.866154E-005	-0.0065462	8
	12	89	18984.38	929.863	-91.70478	1	934.3741	-5.632401	1.851237E-005	-0.0064657	8
	13	92	15046.87	940.9988	-106.0566	1	946.9565	-6.430467	1.074014E-005	-0.0064242	8
	14	94	11953.13	953.547	-120.6755	1	961.153	-7.212684	-8.286387E-006	-0.000829	8
	15	97	9515.62	968.24	-139.0089	1	978.168	-8.170044	-1.308812E-005	0.0082462	8
	16	100	7546.875	985.678	-160.2506	1	998.62	-9.2343	1.819517E-005	-0.0026297	8
	17	103	5928.309	1002.11	-188.4143	1	1019.669	-10.6483	-1.332302E-005	0.0014083	8
	18	106	4733.456	1025.825	-218.538	1	1048.845	-12.0263	-7.298199E-006	0.0072989	8
	19	109	3796.875	1048.722	-250.0797	1	1078.127	-13.41235	-2.396119E-006	-0.0032467	8
	20	112	2987.132	1077.563	-293.6519	1	1116.859	-15.24378	-1.893836E-005	0.0073835	8
	21	116	2390.625	1103.539	-340.0099	1	1154.731	-17.12452	1.986842E-005	-0.0041778	8
	22	119	1884.191	1133.891	-399.2354	1	1202.123	-19.39682	-1.395337E-007	0.0054215	8
	23	123	1516.544	1163.642	-461.5815	1	1251.847	-21.63672	2.015069E-005	-0.0056313	8
	24	126	1193.986	1194.061	-544.4197	1	1312.316	-24.51013	-8.672226E-006	-0.0007839	8
	25	130	946.5144	1221.72	-652.2386	1	1384.925	-28.09637	-1.323255E-005	0.0083465	8
	26	133	751.7689	1247.771	-781.1278	1	1472.105	-32.04734	-1.339083E-005	0.0013816	8
	27	135	597.4265	1279.602	-945.2255	1	1590.859	-36.45281	1.081748E-005	-0.0064865	8
	28	138	477.4305	1306.331	-1142.202	1	1735.26	-41.1651	-2.474909E-007	0.0006347	8
	29	140	376.6741	1337.129	-1410.798	1	1943.775	-46.53568	-2.311818E-007	0.0006225	8
	30	142	298.2954	1372.72	-1745.258	1	2220.425	-51.81344	-2.71127E-007	0.0006493	8
	31	145	237.7717	1414.959	-2153.427	1	2576.694	-56.69216	-2.677306E-007	0.0006436	8
	32	147	189.0121	1468.462	-2669.25	1	3046.519	-61.18303	-2.666524E-007	0.0006515	8
	33	150	150.2404	1537.208	-3312.035	1	3651.381	-65.10267	-2.685852E-007	0.0006684	8
	34	152	119.1737	1629.313	-4126.249	1	4436.281	-68.45265	-5.318363E-008	0.0006344	7
	35	154	95.0169	1742.083	-5106.883	1	5395.842	-71.16423	-4.750566E-008	0.0006099	7
	36	157	75.60484	1887.991	-6329.171	1	6604.765	-73.39017	-4.923767E-008	0.0006199	7
	37	159	54.50582	2167.82	-8595.806	1	8864.949	-75.84545	-5.083699E-008	0.0005826	7
	38	162	45.95588	2361.794	-10082.23	1	10355.17	-76.81602	-5.328764E-008	0.0006231	7
	39	164	37.20238	2651.646	-12274.22	1	12557.38	-77.80952	-4.922646E-008	0.0005855	7
	40	167	30.04808	3024.931	-14976.81	1	15279.24	-78.58134	-5.771702E-008	0.0006707	7
	41	169	23.91582	3529.366	-18513.46	1	18846.87	-79.20676	-5.621657E-008	0.0006214	7
	42	172	18.60119	4279.309	-23386.41	1	23774.7	-79.63058	-4.88163E-008	0.0006191	7
	43	174	15.02404	5102.589	-28504.58	1	28957.69	-79.85101	-5.50436E-008	0.0006159	7
	44	176	12.01923	6260.269	-35032.24	1	35587.2	-79.86818	-4.96524E-008	0.0005855	7
	45	179	9.450605	7908.456	-43674.74	1	44384.98	-79.73631	-5.202357E-008	0.0006204	7
	46	181	7.512019	10116.38	-53857.3	1	54799.18	-79.36171	-4.045025E-009	0.0006476	6
	47	184	5.978954	13035.5	-66192.98	1	67464.33	-78.85921	-5.929496E-009	0.0006933	6
	48	187	4.734848	17035	-81556.5	1	83316.59	-78.20204	-4.826501E-009	0.0006892	6
	49	190	3.75601	22436.15	-99879.5	1	102368.5	-77.33968	-7.182331E-009	0.0006862	6
	50	193	3.004808	29292.11	-120922.6	1	124419.9	-76.38306	-6.050605E-009	0.0006841	6
	51	197	2.372217	39012.59	-147360.6	1	152437.3	-75.17157	-5.985669E-009	0.0007029	6
	52	201	1.878005	51214.26	-178805.9	1	185995.8	-74.01703	-6.564293E-009	0.0006406	6
	53	206	1.512097	65269.55	-212180.6	1	221992.6	-72.90141	-6.024659E-009	0.0006368	6
	54	212	1.201923	84535.77	-254171.2	1	267860.6	-71.60319	-6.223298E-009	0.000633	6
	55	218	0.956633	107715.9	-302279.8	1	320898.4	-70.38673	-6.512623E-009	2.059913E-005	6
