EXPLAIN
TAG	EISPOT
TITLE	LABEL	Potentiostatic EIS	Test Identifier
DATE	LABEL	8/22/2020	Date
TIME	LABEL	0:43:23	Time
NOTES	NOTES	1	Notes...
	
PSTAT	PSTAT	REF3000-16137	Potentiostat
VDC	POTEN	0.00000E+000	T	DC Voltage (V)
FREQINIT	QUANT	3.00000E+005	Initial Freq. (Hz)
FREQFINAL	QUANT	1.00000E+000	Final Freq. (Hz)
PTSPERDEC	QUANT	1.00000E+001	Points/decade
VAC	QUANT	5.00000E+001	AC Voltage (mV rms)
AREA	QUANT	1.00000E+000	Sample Area (cm^2)
SPEED	SELECTOR	2	Optimize for:
ZGUESS	QUANT	1.00000E+003	Estimated Z (ohms)
EOC	QUANT	0	Open Circuit (V)
SEQUENCER	TOGGLE	TRUE	Run as Sequence
PSTATMODEL	IQUANT	5	Pstat Model
PSTATSECTION	LABEL	REF3000-16137	Pstat Section
PSTATSERIALNO	LABEL	16137	Pstat Serial Number
CTRLMODE	IQUANT	1	Control Mode
IESTAB	IQUANT	0	I/E Stability
CASPEED	IQUANT	1	Control Amp Speed
CONVENTION	IQUANT	1	Current Convention
ICHRANGE	IQUANT	2	Ich Range
ICHRANGEMODE	TOGGLE	F	Ich Auto Range
ICHOFFSETENABLE	TOGGLE	T	Ich Offset Enable
ICHOFFSET	QUANT	0	Ich Offset (V)
ICHFILTER	IQUANT	3	Ich Filter
VCHRANGE	IQUANT	2	Vch Range
VCHRANGEMODE	TOGGLE	F	Vch Auto Range
VCHOFFSETENABLE	TOGGLE	T	Vch Offset Enable
VCHOFFSET	QUANT	0	Vch Offset (V)
VCHFILTER	IQUANT	3	Vch Filter
ACHRANGE	IQUANT	2	Ach Range
ACHOFFSETENABLE	TOGGLE	F	Ach Offset Enable
ACHOFFSET	QUANT	0	Ach Offset (V)
ACHFILTER	IQUANT	3	Ach Filter
IERANGELOWERLIMIT	IQUANT	2	I/E Range Lower Limit
IERANGEMODE	TOGGLE	F	I/E AutoRange
IERANGE	IQUANT	11	I/E Range
POSFEEDENABLE	TOGGLE	F	Positive Feedback IR Comp
POSFEEDRESISTANCE	QUANT	0	Positive Feedback Resistance (ohm)
ACHSELECT	IQUANT	0	Ach Select
CABLEID	IQUANT	13	Cable ID
DCCALDATE	LABEL	7/31/2020	DC Calibration Date
ACCALDATE	LABEL	7/31/2020	AC Calibration Date
THERMOSELECT	IQUANT	1	Thermo Select
FRAMEWORKVERSION	QUANT	6.33	Framework Version
INSTRUMENTVERSION	LABEL	3.50	Instrument Version
COMPLIANCEVOLTAGE	IQUANT	0	Compliance Voltage
ZCURVE	TABLE
	Pt	Time	Freq	Zreal	Zimag	Zsig	Zmod	Zphz	Idc	Vdc	IERange
	#	s	Hz	ohm	ohm	V	ohm	°	A	V	#
	0	7	300046.9	149.946	-8.743678	1	150.2007	-3.337262	-8.844783E-006	0.0011134	9
	1	10	238359.4	151.0231	-10.21862	1	151.3685	-3.870881	2.038507E-005	-0.0006455	9
	2	13	189328.1	152.1071	-11.97809	1	152.578	-4.502622	2.693803E-005	0.0004536	9
	3	16	150421.9	153.857	-14.2245	1	154.5131	-5.282137	-7.445457E-005	0.0032644	9
	4	18	119484.4	155.1893	-16.13063	1	156.0254	-5.934107	1.773155E-005	-0.0003169	9
	5	21	94921.88	156.9242	-18.57636	1	158.0199	-6.751138	-2.171296E-005	0.0006231	9
	6	23	75421.88	159.0535	-21.54827	1	160.5065	-7.715349	7.041147E-006	-0.0005863	9
	7	26	59859.37	161.4071	-25.02828	1	163.336	-8.814261	1.200965E-005	0.0002436	9
	8	28	47578.12	164.1742	-28.83547	1	166.6873	-9.96179	-2.092369E-005	0.0005002	9
	9	31	37828.12	167.2128	-33.25212	1	170.487	-11.24718	-2.279467E-005	0.0007945	9
	10	33	30046.88	170.6237	-38.202	1	174.848	-12.62018	-1.522548E-005	0.0002368	9
	11	36	23859.38	174.1857	-44.18746	1	179.703	-14.23453	-1.462795E-005	0.0009522	9
	12	38	18984.38	178.1164	-51.04445	1	185.2862	-15.9912	1.128588E-005	0.0001922	9
	13	41	15046.87	182.0209	-58.97159	1	191.3354	-17.95142	1.464748E-005	-0.0007255	9
	14	43	11953.13	186.8436	-68.40713	1	198.9725	-20.10867	2.595523E-005	-0.0006643	9
	15	45	9515.62	190.7295	-79.77194	1	206.7397	-22.69695	-2.336139E-006	-0.0003046	9
	16	48	7546.875	194.8424	-94.27494	1	216.4517	-25.82012	-9.749911E-006	-3.09079E-005	9
	17	50	5928.309	198.5711	-113.3141	1	228.6276	-29.71113	-2.107415E-005	0.0005023	9
	18	52	4733.456	201.4622	-135.9607	1	243.048	-34.01423	-2.174503E-005	0.0008244	9
	19	54	3796.875	206.004	-163.8948	1	263.2473	-38.50541	-2.108883E-005	0.0008083	9
	20	58	2987.132	208.6441	-202.253	1	290.5833	-44.10889	-1.787269E-005	0.0003634	9
	21	61	2390.625	212.6316	-248.4277	1	326.9993	-49.43948	1.111206E-005	0.0002227	9
	22	64	1884.191	216.0922	-310.7163	1	378.4712	-55.18275	6.876209E-006	-0.0005728	9
	23	66	1516.544	221.7037	-377.6903	1	437.9526	-59.58713	-7.425751E-006	0.0034868	8
	24	68	1193.986	228.7964	-474.0555	1	526.3805	-64.23635	8.835152E-006	-0.002202	8
	25	71	946.5144	238.7503	-590.8851	1	637.2966	-67.99857	4.097274E-006	-0.0021433	8
	26	73	751.7689	248.6856	-735.2594	1	776.1771	-71.313	1.112194E-006	0.0022273	8
	27	75	597.4265	264.9914	-916.9631	1	954.485	-73.88134	1.062597E-006	0.0022588	8
	28	78	477.4305	284.5901	-1136.37	1	1171.465	-75.94016	9.913074E-008	0.0006485	8
	29	80	376.6741	312.1463	-1424.715	1	1458.509	-77.64211	9.578896E-008	0.0006439	8
	30	82	298.2954	348.2413	-1778.928	1	1812.693	-78.9239	1.053625E-007	0.0006549	8
	31	85	237.7717	394.6013	-2205.581	1	2240.602	-79.85651	1.004987E-007	0.0006394	8
	32	87	189.0121	456.138	-2739.904	1	2777.613	-80.54811	1.029122E-007	0.000649	8
	33	90	150.2404	536.9631	-3400.801	1	3442.932	-81.02747	1.092366E-007	0.0006505	8
	34	92	119.1737	644.4617	-4226.379	1	4275.232	-81.33001	1.228885E-007	0.0006428	8
	35	94	95.0169	782.4404	-5230.813	1	5289.009	-81.49261	3.405918E-009	0.0006301	7
	36	97	75.60484	960.068	-6468.926	1	6539.781	-81.55823	4.040168E-009	0.0006252	7
	37	99	54.50582	1311.913	-8758.941	1	8856.646	-81.48157	4.166977E-009	0.0006092	7
	38	102	45.95588	1554.049	-10255	1	10372.08	-81.38293	7.154492E-009	0.0006311	7
	39	104	37.20238	1933.36	-12452.13	1	12601.33	-81.17454	3.324326E-009	0.0006526	7
	40	107	30.04808	2438.958	-15162.51	1	15357.42	-80.86199	1.582731E-009	0.0006284	7
	41	109	23.91582	3134.631	-18654.7	1	18916.23	-80.46145	4.351312E-009	0.0006201	7
	42	111	18.60119	4199.894	-23431.59	1	23805.01	-79.83817	3.873166E-009	0.0006136	7
	43	114	15.02404	5415.963	-28393.09	1	28905.02	-79.2006	9.259436E-009	0.0006214	7
	44	116	12.01923	7102.295	-34602.09	1	35323.47	-78.40079	9.1869E-009	0.0006092	7
	45	118	9.450605	9539.14	-42690.2	1	43742.98	-77.40415	-1.348771E-010	0.0006559	6
	46	121	7.512019	12645.08	-51985.59	1	53501.4	-76.32877	-8.197255E-010	0.0006434	6
	47	124	5.978954	16740.11	-62977.6	1	65164.48	-75.11439	9.69661E-011	0.000658	6
	48	127	4.734848	22292.69	-76233.03	1	79425.69	-73.69958	5.596476E-010	0.0006472	6
	49	130	3.75601	29361.97	-91638.48	1	96227.5	-72.23397	9.238746E-010	0.0006693	6
	50	133	3.004808	37974.18	-108700.5	1	115142.7	-70.74329	2.264786E-009	0.0006328	6
	51	137	2.372217	49521.25	-129590.6	1	138730.3	-69.08634	3.190927E-010	0.0005897	6
	52	141	1.878005	63661.95	-152959.7	1	165679	-67.40289	9.319678E-010	0.0007017	6
	53	146	1.512097	79396.76	-177428.2	1	194382.6	-65.89212	8.805723E-010	0.0005895	6
	54	151	1.201923	99527	-207453.4	1	230092.4	-64.37037	4.96102E-010	0.0006894	6
	55	158	0.956633	123332	-241031	1	270752.1	-62.90185	-5.833767E-010	2.559844E-005	6
