EXPLAIN
TAG	EISPOT
TITLE	LABEL	Potentiostatic EIS	Test Identifier
DATE	LABEL	8/22/2020	Date
TIME	LABEL	1:56:49	Time
NOTES	NOTES	1	Notes...
	
PSTAT	PSTAT	REF3000-16137	Potentiostat
VDC	POTEN	0.00000E+000	T	DC Voltage (V)
FREQINIT	QUANT	3.00000E+005	Initial Freq. (Hz)
FREQFINAL	QUANT	1.00000E+000	Final Freq. (Hz)
PTSPERDEC	QUANT	1.00000E+001	Points/decade
VAC	QUANT	5.00000E+001	AC Voltage (mV rms)
AREA	QUANT	1.00000E+000	Sample Area (cm^2)
SPEED	SELECTOR	2	Optimize for:
ZGUESS	QUANT	1.00000E+003	Estimated Z (ohms)
EOC	QUANT	0	Open Circuit (V)
SEQUENCER	TOGGLE	TRUE	Run as Sequence
PSTATMODEL	IQUANT	5	Pstat Model
PSTATSECTION	LABEL	REF3000-16137	Pstat Section
PSTATSERIALNO	LABEL	16137	Pstat Serial Number
CTRLMODE	IQUANT	1	Control Mode
IESTAB	IQUANT	0	I/E Stability
CASPEED	IQUANT	1	Control Amp Speed
CONVENTION	IQUANT	1	Current Convention
ICHRANGE	IQUANT	2	Ich Range
ICHRANGEMODE	TOGGLE	F	Ich Auto Range
ICHOFFSETENABLE	TOGGLE	T	Ich Offset Enable
ICHOFFSET	QUANT	0	Ich Offset (V)
ICHFILTER	IQUANT	3	Ich Filter
VCHRANGE	IQUANT	2	Vch Range
VCHRANGEMODE	TOGGLE	F	Vch Auto Range
VCHOFFSETENABLE	TOGGLE	T	Vch Offset Enable
VCHOFFSET	QUANT	0	Vch Offset (V)
VCHFILTER	IQUANT	3	Vch Filter
ACHRANGE	IQUANT	2	Ach Range
ACHOFFSETENABLE	TOGGLE	F	Ach Offset Enable
ACHOFFSET	QUANT	0	Ach Offset (V)
ACHFILTER	IQUANT	3	Ach Filter
IERANGELOWERLIMIT	IQUANT	2	I/E Range Lower Limit
IERANGEMODE	TOGGLE	F	I/E AutoRange
IERANGE	IQUANT	11	I/E Range
POSFEEDENABLE	TOGGLE	F	Positive Feedback IR Comp
POSFEEDRESISTANCE	QUANT	0	Positive Feedback Resistance (ohm)
ACHSELECT	IQUANT	0	Ach Select
CABLEID	IQUANT	13	Cable ID
DCCALDATE	LABEL	7/31/2020	DC Calibration Date
ACCALDATE	LABEL	7/31/2020	AC Calibration Date
THERMOSELECT	IQUANT	1	Thermo Select
FRAMEWORKVERSION	QUANT	6.33	Framework Version
INSTRUMENTVERSION	LABEL	3.50	Instrument Version
COMPLIANCEVOLTAGE	IQUANT	0	Compliance Voltage
ZCURVE	TABLE
	Pt	Time	Freq	Zreal	Zimag	Zsig	Zmod	Zphz	Idc	Vdc	IERange
	#	s	Hz	ohm	ohm	V	ohm	°	A	V	#
	0	19	300046.9	-132.6726	-4846.679	1	4848.495	-91.56802	-8.928638E-005	0.0042331	9
	1	36	238359.4	87.77372	-5866.703	1	5867.36	-89.14285	2.358363E-005	-0.0004077	9
	2	56	189328.1	72.06358	-7429.194	1	7429.543	-89.44424	-4.992655E-007	0.0017128	9
	3	63	150421.9	202.2441	-9136.803	1	9139.041	-88.73196	1.962188E-005	-0.0020389	9
	4	71	119484.4	590.8586	-11370.58	1	11385.92	-87.02537	-7.956616E-005	0.0362521	8
	5	78	94921.88	641.8681	-14518.43	1	14532.61	-87.46857	-1.2526E-006	-0.0051972	8
	6	87	75421.88	698.2566	-18052.04	1	18065.54	-87.78489	1.633739E-005	-0.0093392	8
	7	95	59859.37	943.4734	-22534.72	1	22554.46	-87.60257	-2.076241E-005	0.0028652	8
	8	104	47578.12	1083.559	-28117.71	1	28138.58	-87.79311	-2.733631E-005	0.0098836	8
	9	114	37828.12	1146.612	-35661.41	1	35679.84	-88.15842	2.632584E-005	-0.0090453	8
	10	123	30046.88	1322.605	-44681.5	1	44701.07	-88.3045	8.060606E-006	-0.0077773	8
	11	131	23859.38	7251.887	-53930.6	1	54415.99	-82.34155	7.583043E-006	-0.0188146	7
	12	137	18984.38	6839.46	-70757.02	1	71086.8	-84.47887	4.973358E-006	-0.0005176	7
	13	142	15046.87	6901.102	-88353.08	1	88622.19	-85.5338	6.648216E-006	-0.0100484	7
	14	147	11953.13	11401.85	-110893.5	1	111478.1	-84.12959	-3.936721E-006	0.0258469	7
	15	154	9515.62	12456.46	-144408.3	1	144944.6	-85.06995	2.992999E-006	0.0079621	7
	16	160	7546.875	9730.39	-175937	1	176205.8	-86.83442	5.427001E-006	-0.0271876	7
	17	166	5928.309	18883.01	-195946.3	1	196854.1	-84.49551	4.727592E-007	0.0164965	7
	18	172	4733.456	63532.59	-291647.1	1	298486.9	-77.71065	5.970253E-007	-0.0279899	6
	19	177	3796.875	5897.732	-455587.3	1	455625.5	-89.25833	2.633695E-005	-0.0049917	8
	20	184	2987.132	310904.2	-604358.6	1	679640.1	-62.77705	-2.503814E-005	0.0111476	8
	21	192	2390.625	-79873.48	-708981.4	1	713466.5	-96.4278	-9.64327E-006	-0.002156	8
	22	201	1884.191	96655.8	-714005.5	1	720518	-82.29066	2.807958E-006	0.0085975	7
	23	209	1516.544	73697.05	-416716.2	1	423182.8	-79.97083	8.062875E-006	-0.0077813	8
	24	218	1193.986	567057.4	-633012.5	1	849858.2	-48.14577	7.704742E-006	-0.0245605	7
	25	224	946.5144	234796.4	-67219.4	1	244229	-15.97578	-2.372375E-005	0.0004395	9
	26	233	751.7689	327013.7	141439.7	1	356290.8	23.38941	-2.621592E-005	0.0075908	8
	27	241	597.4265	349876.5	-291654.2	1	455495	-39.81431	8.132107E-006	-0.0077022	8
	28	248	477.4305	1252365	-1975186	1	2338756	-57.62329	-9.42477E-008	0.0005882	7
	29	254	376.6741	2021765	-2037427	1	2870304	-45.22108	-9.468625E-010	0.0006489	5
	30	256	298.2954	2211703	-2256846	1	3159902	-45.5788	-9.244279E-009	0.0006137	6
	31	260	237.7717	2920561	-2162087	1	3633772	-36.51249	-1.017018E-009	0.0006495	5
	32	264	189.0121	3380676	-2045259	1	3951209	-31.17332	-9.716168E-010	0.0005966	5
	33	268	150.2404	3682639	-1948816	1	4166499	-27.88735	-1.076518E-009	0.0006428	5
	34	271	119.1737	3775662	-2223623	1	4381795	-30.49536	-1.009752E-009	0.0006036	5
	35	275	95.0169	4449404	-1520099	1	4701903	-18.86227	-9.757221E-010	0.0006307	5
	36	278	75.60484	4701086	-1304394	1	4878694	-15.50756	-1.041491E-009	0.0005921	5
	37	281	54.50582	4959623	-1112374	1	5082838	-12.64144	-1.032861E-009	0.0006341	5
	38	284	45.95588	5442906	-381671.3	1	5456272	-4.011169	-1.803806E-010	0.000603	4
	39	286	37.20238	5562911	-386369.3	1	5576313	-3.97307	-1.92264E-010	0.0006103	4
	40	289	30.04808	5555629	-356010.8	1	5567023	-3.666564	-1.522415E-010	0.0006901	4
	41	292	23.91582	5610687	-356796	1	5622021	-3.638666	-1.193563E-010	0.0006034	4
	42	295	18.60119	5842745	-301910	1	5850540	-2.957993	-3.517937E-010	0.0006388	4
	43	297	15.02404	5769926	-364585.2	1	5781433	-3.61555	-7.360228E-011	0.0006311	4
	44	300	12.01923	5847923	-373305.7	1	5859826	-3.652554	-2.220536E-010	0.0006944	4
	45	302	9.450605	5942470	-401875.5	1	5956043	-3.86889	-1.498094E-010	0.0006044	4
	46	305	7.512019	6064505	-458592.8	1	6081819	-4.324429	-3.800616E-011	0.0006106	4
	47	308	5.978954	6210593	-509663.7	1	6231470	-4.691387	-4.452431E-011	0.000632	4
	48	312	4.734848	6375710	-578631.8	1	6401913	-5.18571	-1.550868E-010	0.000676	4
	49	316	3.75601	6562057	-663480.4	1	6595514	-5.773476	-1.905251E-010	0.0006917	4
	50	321	3.004808	6806494	-753415	1	6848065	-6.316392	-5.204146E-011	0.0005958	4
	51	328	2.372217	7059623	-861392.8	1	7111981	-6.956662	-1.80063E-010	0.0005968	4
	52	332	1.878005	7285048	-1003334	1	7353815	-7.841732	-7.968756E-011	0.0006587	4
	53	337	1.512097	7548985	-1162976	1	7638042	-8.757977	3.275055E-013	0.0005596	4
	54	342	1.201923	7870604	-1339378	1	7983755	-9.65778	-1.502878E-010	0.0006782	4
	55	348	0.956633	8248649	-1571375	1	8396989	-10.78566	-2.549109E-010	1.169364E-005	4
