EXPLAIN
TAG	EISPOT
TITLE	LABEL	Potentiostatic EIS	Test Identifier
DATE	LABEL	8/22/2020	Date
TIME	LABEL	1:06:26	Time
NOTES	NOTES	1	Notes...
	
PSTAT	PSTAT	REF3000-16137	Potentiostat
VDC	POTEN	0.00000E+000	T	DC Voltage (V)
FREQINIT	QUANT	3.00000E+005	Initial Freq. (Hz)
FREQFINAL	QUANT	1.00000E+000	Final Freq. (Hz)
PTSPERDEC	QUANT	1.00000E+001	Points/decade
VAC	QUANT	5.00000E+001	AC Voltage (mV rms)
AREA	QUANT	1.00000E+000	Sample Area (cm^2)
SPEED	SELECTOR	2	Optimize for:
ZGUESS	QUANT	1.00000E+003	Estimated Z (ohms)
EOC	QUANT	0	Open Circuit (V)
SEQUENCER	TOGGLE	TRUE	Run as Sequence
PSTATMODEL	IQUANT	5	Pstat Model
PSTATSECTION	LABEL	REF3000-16137	Pstat Section
PSTATSERIALNO	LABEL	16137	Pstat Serial Number
CTRLMODE	IQUANT	1	Control Mode
IESTAB	IQUANT	0	I/E Stability
CASPEED	IQUANT	1	Control Amp Speed
CONVENTION	IQUANT	1	Current Convention
ICHRANGE	IQUANT	2	Ich Range
ICHRANGEMODE	TOGGLE	F	Ich Auto Range
ICHOFFSETENABLE	TOGGLE	T	Ich Offset Enable
ICHOFFSET	QUANT	0	Ich Offset (V)
ICHFILTER	IQUANT	3	Ich Filter
VCHRANGE	IQUANT	2	Vch Range
VCHRANGEMODE	TOGGLE	F	Vch Auto Range
VCHOFFSETENABLE	TOGGLE	T	Vch Offset Enable
VCHOFFSET	QUANT	0	Vch Offset (V)
VCHFILTER	IQUANT	3	Vch Filter
ACHRANGE	IQUANT	2	Ach Range
ACHOFFSETENABLE	TOGGLE	F	Ach Offset Enable
ACHOFFSET	QUANT	0	Ach Offset (V)
ACHFILTER	IQUANT	3	Ach Filter
IERANGELOWERLIMIT	IQUANT	2	I/E Range Lower Limit
IERANGEMODE	TOGGLE	F	I/E AutoRange
IERANGE	IQUANT	11	I/E Range
POSFEEDENABLE	TOGGLE	F	Positive Feedback IR Comp
POSFEEDRESISTANCE	QUANT	0	Positive Feedback Resistance (ohm)
ACHSELECT	IQUANT	0	Ach Select
CABLEID	IQUANT	13	Cable ID
DCCALDATE	LABEL	7/31/2020	DC Calibration Date
ACCALDATE	LABEL	7/31/2020	AC Calibration Date
THERMOSELECT	IQUANT	1	Thermo Select
FRAMEWORKVERSION	QUANT	6.33	Framework Version
INSTRUMENTVERSION	LABEL	3.50	Instrument Version
COMPLIANCEVOLTAGE	IQUANT	0	Compliance Voltage
ZCURVE	TABLE
	Pt	Time	Freq	Zreal	Zimag	Zsig	Zmod	Zphz	Idc	Vdc	IERange
	#	s	Hz	ohm	ohm	V	ohm	°	A	V	#
	0	17	300046.9	1422.867	-461.1747	1	1495.738	-17.95837	1.07144E-006	-0.0020923	9
	1	32	238359.4	1496.326	-389.4749	1	1546.183	-14.58964	-9.113988E-005	0.0041497	9
	2	52	189328.1	1561.891	-361.5389	1	1603.188	-13.03301	-2.963014E-005	-0.0010237	9
	3	63	150421.9	1610.444	-323.1464	1	1642.545	-11.34611	2.683256E-005	0.0010302	9
	4	73	119484.4	1645.511	-225.6379	1	1660.909	-7.807894	1.309993E-005	-0.0069995	8
	5	79	94921.88	1675.713	-189.6951	1	1686.416	-6.458537	-2.201122E-005	0.0082929	8
	6	83	75421.88	1693.485	-170.1116	1	1702.008	-5.736155	2.186307E-005	-0.0076967	8
	7	88	59859.37	1712.203	-155.927	1	1719.288	-5.203463	2.111408E-005	-0.0075504	8
	8	92	47578.12	1734.942	-148.7954	1	1741.311	-4.901915	2.158782E-005	-0.0075755	8
	9	95	37828.12	1751.211	-143.0247	1	1757.042	-4.669094	1.826423E-005	-0.0080271	8
	10	99	30046.88	1767.493	-135.021	1	1772.643	-4.36841	-2.051429E-005	0.0048746	8
	11	102	23859.38	1782.604	-141.242	1	1788.191	-4.530281	8.031441E-006	0.0032818	8
	12	106	18984.38	1805.406	-148.3104	1	1811.487	-4.696185	-2.02592E-005	0.0093799	8
	13	109	15046.87	1823.695	-160.4929	1	1830.744	-5.029315	-2.053465E-005	0.0049222	8
	14	112	11953.13	1849.042	-178.4825	1	1857.636	-5.51351	-2.224685E-005	0.0068032	8
	15	116	9515.62	1868.067	-196.6996	1	1878.394	-6.010857	2.051918E-005	-0.002812	8
	16	119	7546.875	1900.109	-223.2523	1	1913.179	-6.701216	-2.010798E-005	0.0095	8
	17	123	5928.309	1927.446	-257.0533	1	1944.511	-7.596412	1.839809E-005	-0.0081066	8
	18	127	4733.456	1962.801	-292.2829	1	1984.443	-8.469744	-8.855287E-007	0.0063803	8
	19	131	3796.875	1994.761	-330.8374	1	2022.01	-9.416963	-3.138154E-007	0.0062342	8
	20	136	2987.132	2039.592	-382.1063	1	2075.076	-10.61105	1.85302E-005	-0.0081404	8
	21	140	2390.625	2089.912	-449.0972	1	2137.62	-12.12775	2.159749E-005	-0.007457	8
	22	144	1884.191	2144.941	-519.7851	1	2207.022	-13.62193	5.816116E-006	-0.0062322	8
	23	149	1516.544	2179.639	-606.223	1	2262.374	-15.54284	-1.60929E-005	0.0096382	8
	24	153	1193.986	2246.828	-700.5333	1	2353.505	-17.31684	2.192434E-005	-0.0076959	8
	25	157	946.5144	2304.727	-818.8891	1	2445.884	-19.56056	1.617961E-005	-6.980767E-005	8
	26	160	751.7689	2396.347	-972.358	1	2586.109	-22.08568	1.325471E-005	-0.0077883	8
	27	164	597.4265	2447.38	-1078.392	1	2674.435	-23.77978	-1.526434E-005	3.678657E-005	9
	28	167	477.4305	2501.933	-1326.27	1	2831.724	-27.92797	-3.151512E-007	0.0006458	8
	29	171	376.6741	2559.381	-1596.94	1	3016.728	-31.96233	-3.51531E-007	0.0006473	8
	30	173	298.2954	2615.377	-1935.858	1	3253.881	-36.50822	-3.526386E-007	0.0006557	8
	31	175	237.7717	2672.944	-2352.416	1	3560.687	-41.35051	-3.269121E-007	0.0006381	8
	32	178	189.0121	2745.143	-2889.788	1	3985.811	-46.47042	-6.423178E-008	0.0005841	7
	33	180	150.2404	2818.761	-3560.164	1	4540.945	-51.62957	-6.805527E-008	0.0005963	7
	34	183	119.1737	2909.532	-4407.75	1	5281.443	-56.57141	-6.390685E-008	0.0005908	7
	35	185	95.0169	3018.673	-5444.062	1	6224.966	-60.99211	-6.296995E-008	0.0005982	7
	36	187	75.60484	3159.729	-6742.84	1	7446.461	-64.89197	-6.536317E-008	0.0006133	7
	37	190	54.50582	3426.607	-9163.743	1	9783.45	-69.49767	-6.954274E-008	0.0006557	7
	38	193	45.95588	3613.264	-10757.79	1	11348.38	-71.43414	-7.33883E-008	0.0006664	7
	39	195	37.20238	3891.734	-13111.43	1	13676.81	-73.46806	-7.470791E-008	0.00067	7
	40	197	30.04808	4245.16	-16016.07	1	16569.12	-75.15475	-6.777989E-008	0.0005801	7
	41	200	23.91582	4721.454	-19820.96	1	20375.54	-76.60155	-6.294496E-008	0.000596	7
	42	202	18.60119	5386.925	-25066.33	1	25638.64	-77.87122	-6.708652E-008	0.0005842	7
	43	204	15.02404	6142.234	-30585.42	1	31196.07	-78.64478	-6.320851E-008	0.0006034	7
	44	207	12.01923	7128.747	-37661.21	1	38329.96	-79.28152	-7.02878E-008	0.000657	7
	45	209	9.450605	8578.383	-47118.08	1	47892.61	-79.68166	-8.314141E-009	0.0006764	6
	46	212	7.512019	10374.07	-58298.82	1	59214.64	-79.91003	-8.106364E-009	0.0006835	6
	47	214	5.978954	12800.29	-71999.69	1	73128.67	-79.91914	-7.126836E-009	0.0006214	6
	48	217	4.734848	16113.99	-89234.97	1	90678.23	-79.76388	-7.706201E-009	0.0006345	6
	49	221	3.75601	20637.46	-110230.5	1	112145.7	-79.39579	-6.364261E-009	0.0006344	6
	50	224	3.004808	26456.48	-134759.3	1	137331.8	-78.89273	-7.399434E-009	0.0006397	6
	51	228	2.372217	34989.57	-166302.8	1	169943.8	-78.11845	-7.587315E-009	0.0005998	6
	52	233	1.878005	45863.72	-204452.1	1	209533.1	-77.35643	-6.930339E-009	0.0006554	6
	53	237	1.512097	58922.32	-245899.6	1	252860.5	-76.52489	-7.52887E-009	0.0006772	6
	54	243	1.201923	77685.32	-299195.9	1	309116.8	-75.44473	-7.239787E-009	0.0006748	6
	55	249	0.956633	101317.3	-361236.9	1	375176.3	-74.33262	-8.189723E-009	2.021792E-005	6
