EXPLAIN
TAG	EISPOT
TITLE	LABEL	Potentiostatic EIS	Test Identifier
DATE	LABEL	2/27/2021	Date
TIME	LABEL	11:16:36	Time
NOTES	NOTES	1	Notes...
	
PSTAT	PSTAT	REF3000-16137	Potentiostat
VDC	POTEN	0.00000E+000	T	DC Voltage (V)
FREQINIT	QUANT	3.00000E+005	Initial Freq. (Hz)
FREQFINAL	QUANT	1.00000E+000	Final Freq. (Hz)
PTSPERDEC	QUANT	1.00000E+001	Points/decade
VAC	QUANT	5.00000E+001	AC Voltage (mV rms)
AREA	QUANT	1.00000E+000	Sample Area (cm^2)
SPEED	SELECTOR	2	Optimize for:
ZGUESS	QUANT	1.00000E+003	Estimated Z (ohms)
EOC	QUANT	0	Open Circuit (V)
SEQUENCER	TOGGLE	TRUE	Run as Sequence
PSTATMODEL	IQUANT	5	Pstat Model
PSTATSECTION	LABEL	REF3000-16137	Pstat Section
PSTATSERIALNO	LABEL	16137	Pstat Serial Number
CTRLMODE	IQUANT	1	Control Mode
IESTAB	IQUANT	0	I/E Stability
CASPEED	IQUANT	1	Control Amp Speed
CONVENTION	IQUANT	1	Current Convention
ICHRANGE	IQUANT	2	Ich Range
ICHRANGEMODE	TOGGLE	F	Ich Auto Range
ICHOFFSETENABLE	TOGGLE	T	Ich Offset Enable
ICHOFFSET	QUANT	0	Ich Offset (V)
ICHFILTER	IQUANT	3	Ich Filter
VCHRANGE	IQUANT	2	Vch Range
VCHRANGEMODE	TOGGLE	F	Vch Auto Range
VCHOFFSETENABLE	TOGGLE	T	Vch Offset Enable
VCHOFFSET	QUANT	0	Vch Offset (V)
VCHFILTER	IQUANT	3	Vch Filter
ACHRANGE	IQUANT	2	Ach Range
ACHOFFSETENABLE	TOGGLE	F	Ach Offset Enable
ACHOFFSET	QUANT	0	Ach Offset (V)
ACHFILTER	IQUANT	3	Ach Filter
IERANGELOWERLIMIT	IQUANT	2	I/E Range Lower Limit
IERANGEMODE	TOGGLE	F	I/E AutoRange
IERANGE	IQUANT	11	I/E Range
POSFEEDENABLE	TOGGLE	F	Positive Feedback IR Comp
POSFEEDRESISTANCE	QUANT	0	Positive Feedback Resistance (ohm)
ACHSELECT	IQUANT	0	Ach Select
CABLEID	IQUANT	13	Cable ID
DCCALDATE	LABEL	7/31/2020	DC Calibration Date
ACCALDATE	LABEL	7/31/2020	AC Calibration Date
THERMOSELECT	IQUANT	1	Thermo Select
FRAMEWORKVERSION	QUANT	6.33	Framework Version
INSTRUMENTVERSION	LABEL	3.50	Instrument Version
COMPLIANCEVOLTAGE	IQUANT	0	Compliance Voltage
ZCURVE	TABLE
	Pt	Time	Freq	Zreal	Zimag	Zsig	Zmod	Zphz	Idc	Vdc	IERange
	#	s	Hz	ohm	ohm	V	ohm	°	A	V	#
	0	22	300046.9	2094.909	-2330.564	1	3133.716	-48.0481	2.569098E-005	-0.0020264	9
	1	42	238359.4	2552.696	-2350.571	1	3470.078	-42.63946	2.095768E-005	-0.0004723	9
	2	57	189328.1	3021.129	-2269.385	1	3778.535	-36.91282	2.630567E-005	-0.0018645	9
	3	64	150421.9	3382.69	-2228.544	1	4050.802	-33.37722	8.378761E-005	-0.0033112	9
	4	72	119484.4	3843.793	-2016.924	1	4340.821	-27.68701	-7.42609E-005	0.0342847	8
	5	79	94921.88	4185.687	-1919.75	1	4604.934	-24.63839	-1.256066E-006	0.0071247	8
	6	87	75421.88	4450.374	-1815.443	1	4806.418	-22.19205	7.045606E-006	-0.0070203	8
	7	94	59859.37	4692.581	-1761.889	1	5012.441	-20.57928	2.444841E-005	-0.0084313	8
	8	101	47578.12	4920.621	-1666.459	1	5195.151	-18.70962	-1.964244E-005	0.0030364	8
	9	109	37828.12	5141.873	-1706.588	1	5417.684	-18.36101	2.480487E-005	-0.0049894	8
	10	116	30046.88	5302.939	-1743.582	1	5582.226	-18.20063	-1.968544E-005	0.0029759	8
	11	124	23859.38	5449.298	-1862.741	1	5758.876	-18.87204	2.096304E-005	-0.0089986	8
	12	129	18984.38	5608.918	-2012.382	1	5958.997	-19.7371	-1.469925E-006	-0.0046157	8
	13	135	15046.87	5976.244	-2009.067	1	6304.906	-18.58138	6.455028E-006	-0.0138172	7
	14	138	11953.13	6066.807	-2501.444	1	6562.268	-22.40716	-1.795453E-005	0.0105536	8
	15	144	9515.62	6298.939	-2808.207	1	6896.569	-24.02837	-1.797215E-005	0.0105487	8
	16	149	7546.875	6592.398	-3261.042	1	7354.87	-26.32009	8.929275E-006	0.0035487	8
	17	154	5928.309	6934.474	-3723.567	1	7870.952	-28.23423	-1.794267E-005	0.0105933	8
	18	161	4733.456	7366.254	-4392.79	1	8576.614	-30.8093	2.583474E-005	-0.0070081	8
	19	167	3796.875	7830.904	-5057.301	1	9321.981	-32.85491	-2.282761E-005	0.0104015	8
	20	173	2987.132	8352.154	-5865.845	1	10206.21	-35.08095	8.541606E-006	0.0037454	8
	21	180	2390.625	9007.113	-6762.591	1	11263.25	-36.89943	3.606164E-006	-0.0220516	7
	22	184	1884.191	9804.86	-7925.016	1	12607.19	-38.94771	1.750729E-006	-0.0186397	7
	23	188	1516.544	10655.29	-9123.748	1	14027.76	-40.57228	-5.902227E-006	0.021939	7
	24	192	1193.986	11484.09	-10683.62	1	15685.16	-42.93196	3.599432E-006	-0.0220907	7
	25	197	946.5144	12692.12	-12459.41	1	17785.58	-44.46989	6.351879E-006	-0.0141954	7
	26	199	751.7689	13824.7	-14427.6	1	19981.94	-46.22248	5.180591E-006	-0.0236883	7
	27	202	597.4265	15846.75	-16636.05	1	22975.59	-46.39196	-3.579163E-006	0.0222471	7
	28	205	477.4305	17547.69	-19272.11	1	26064.07	-47.68143	-6.73222E-008	0.0006112	7
	29	207	376.6741	19777.79	-22330.91	1	29830.02	-48.46969	-6.493331E-008	0.0005907	7
	30	209	298.2954	22354.84	-25757.46	1	34105.51	-49.04536	-6.976014E-008	0.0006052	7
	31	212	237.7717	25242.41	-29568.45	1	38877.66	-49.51281	-7.439533E-008	0.000649	7
	32	214	189.0121	28891.66	-33837.32	1	44493.73	-49.50798	-1.767691E-008	0.0006389	6
	33	216	150.2404	32794.37	-38795.23	1	50799.02	-49.7915	-1.787661E-008	0.0006653	6
	34	219	119.1737	37304.45	-44444.77	1	58025.51	-49.99178	-1.855655E-008	0.0006952	6
	35	221	95.0169	42532.54	-50752.32	1	66217.93	-50.0356	-1.841053E-008	0.0007143	6
	36	224	75.60484	48511.96	-57884.94	1	75525.34	-50.03444	-1.794295E-008	0.0006986	6
	37	226	54.50582	59004.89	-69849.63	1	91436.03	-49.81083	-1.754641E-008	0.0006519	6
	38	229	45.95588	65001.45	-76766.24	1	100589.5	-49.7439	-1.856944E-008	0.0007205	6
	39	231	37.20238	73666.7	-86255.04	1	113431.5	-49.50079	-1.739883E-008	0.0006937	6
	40	233	30.04808	83747.7	-97047	1	128186.6	-49.20712	-1.767324E-008	0.0006375	6
	41	236	23.91582	95727.4	-109613.1	1	145529.3	-48.86861	-1.757493E-008	0.0007159	6
	42	239	18.60119	111800.3	-125118.1	1	167791	-48.21735	-1.880566E-008	0.000715	6
	43	241	15.02404	126930.7	-140177.7	1	189106.3	-47.83922	-1.824721E-008	0.0006952	6
	44	244	12.01923	145283.3	-156933.3	1	213858.1	-47.20759	-1.799935E-008	0.0006511	6
	45	246	9.450605	168031.7	-176817.4	1	243924.3	-46.45942	-1.795289E-008	0.0007054	6
	46	249	7.512019	193085.2	-197234.8	1	276013.5	-45.60911	-1.800438E-008	0.0007092	6
	47	252	5.978954	221505.7	-219092	1	311554.3	-44.68612	-1.814494E-008	0.000719	6
	48	256	4.734848	254757	-242916.3	1	352007.7	-43.63707	-1.684752E-008	0.0006542	6
	49	260	3.75601	292270.9	-267160	1	395975.7	-42.42991	-1.764674E-008	0.0007362	6
	50	265	3.004808	333952.5	-291775.6	1	443460.6	-41.14384	-1.190288E-008	0.0007351	5
	51	271	2.372217	382424.8	-317313.5	1	496927.2	-39.68388	-1.152584E-008	0.0006556	5
	52	276	1.878005	435950.3	-341891.1	1	554023.7	-38.10508	-1.125462E-008	0.0006609	5
	53	280	1.512097	489869.7	-363990.3	1	610296	-36.61364	-1.139389E-008	0.000734	5
	54	286	1.201923	552556.1	-385283	1	673618	-34.88706	-1.127517E-008	0.0006753	5
	55	292	0.956633	619366.9	-403648.9	1	739288.7	-33.09277	-1.267129E-008	2.03961E-005	5
