EXPLAIN
TAG	EISPOT
TITLE	LABEL	Potentiostatic EIS	Test Identifier
DATE	LABEL	2/27/2021	Date
TIME	LABEL	11:52:19	Time
NOTES	NOTES	1	Notes...
	
PSTAT	PSTAT	REF3000-16137	Potentiostat
VDC	POTEN	0.00000E+000	T	DC Voltage (V)
FREQINIT	QUANT	3.00000E+005	Initial Freq. (Hz)
FREQFINAL	QUANT	1.00000E+000	Final Freq. (Hz)
PTSPERDEC	QUANT	1.00000E+001	Points/decade
VAC	QUANT	5.00000E+001	AC Voltage (mV rms)
AREA	QUANT	1.00000E+000	Sample Area (cm^2)
SPEED	SELECTOR	2	Optimize for:
ZGUESS	QUANT	1.00000E+003	Estimated Z (ohms)
EOC	QUANT	0	Open Circuit (V)
SEQUENCER	TOGGLE	TRUE	Run as Sequence
PSTATMODEL	IQUANT	5	Pstat Model
PSTATSECTION	LABEL	REF3000-16137	Pstat Section
PSTATSERIALNO	LABEL	16137	Pstat Serial Number
CTRLMODE	IQUANT	1	Control Mode
IESTAB	IQUANT	0	I/E Stability
CASPEED	IQUANT	1	Control Amp Speed
CONVENTION	IQUANT	1	Current Convention
ICHRANGE	IQUANT	2	Ich Range
ICHRANGEMODE	TOGGLE	F	Ich Auto Range
ICHOFFSETENABLE	TOGGLE	T	Ich Offset Enable
ICHOFFSET	QUANT	0	Ich Offset (V)
ICHFILTER	IQUANT	3	Ich Filter
VCHRANGE	IQUANT	2	Vch Range
VCHRANGEMODE	TOGGLE	F	Vch Auto Range
VCHOFFSETENABLE	TOGGLE	T	Vch Offset Enable
VCHOFFSET	QUANT	0	Vch Offset (V)
VCHFILTER	IQUANT	3	Vch Filter
ACHRANGE	IQUANT	2	Ach Range
ACHOFFSETENABLE	TOGGLE	F	Ach Offset Enable
ACHOFFSET	QUANT	0	Ach Offset (V)
ACHFILTER	IQUANT	3	Ach Filter
IERANGELOWERLIMIT	IQUANT	2	I/E Range Lower Limit
IERANGEMODE	TOGGLE	F	I/E AutoRange
IERANGE	IQUANT	11	I/E Range
POSFEEDENABLE	TOGGLE	F	Positive Feedback IR Comp
POSFEEDRESISTANCE	QUANT	0	Positive Feedback Resistance (ohm)
ACHSELECT	IQUANT	0	Ach Select
CABLEID	IQUANT	13	Cable ID
DCCALDATE	LABEL	7/31/2020	DC Calibration Date
ACCALDATE	LABEL	7/31/2020	AC Calibration Date
THERMOSELECT	IQUANT	1	Thermo Select
FRAMEWORKVERSION	QUANT	6.33	Framework Version
INSTRUMENTVERSION	LABEL	3.50	Instrument Version
COMPLIANCEVOLTAGE	IQUANT	0	Compliance Voltage
ZCURVE	TABLE
	Pt	Time	Freq	Zreal	Zimag	Zsig	Zmod	Zphz	Idc	Vdc	IERange
	#	s	Hz	ohm	ohm	V	ohm	°	A	V	#
	0	25	300046.9	19.91198	-4556.956	1	4556.999	-89.74964	-2.046266E-005	0.0015187	9
	1	39	238359.4	178.4128	-5640.626	1	5643.447	-88.18834	5.154719E-005	8.390699E-005	9
	2	54	189328.1	147.0829	-6748.843	1	6750.446	-88.7515	-3.439379E-007	0.0016952	9
	3	63	150421.9	675.2047	-8181.485	1	8209.3	-85.28217	-1.480568E-005	0.0017546	9
	4	70	119484.4	1065.775	-11179.04	1	11229.73	-84.55406	4.194558E-005	-0.0187796	8
	5	78	94921.88	820.7481	-13556.88	1	13581.7	-86.53548	-2.353673E-005	0.0051691	8
	6	86	75421.88	1829.88	-16947.64	1	17046.14	-83.8375	-1.593575E-005	0.0006817	8
	7	95	59859.37	1907.217	-21601.13	1	21685.16	-84.9543	1.636885E-005	-0.0092355	8
	8	104	47578.12	6302.923	-27740.8	1	28447.83	-77.19928	-6.395948E-006	0.0256243	7
	9	111	37828.12	7156.306	-34201.1	1	34941.78	-78.18182	7.458128E-006	-0.0181488	7
	10	119	30046.88	7060.036	-41641.66	1	42235.91	-80.37743	2.55252E-005	-0.0009446	9
	11	127	23859.38	11899.54	-52366.28	1	53701.27	-77.19769	-1.614427E-005	0.0007701	8
	12	135	18984.38	15890.29	-65131.5	1	67041.88	-76.28925	5.140031E-007	0.0160124	7
	13	140	15046.87	23908.2	-78949.23	1	82489.9	-73.15211	-6.650205E-006	0.011838	7
	14	145	11953.13	20580.91	-94106.73	1	96330.9	-77.66378	-1.568002E-005	0.0007062	8
	15	153	9515.62	44165.82	-116739.9	1	124815.2	-69.27704	-7.203625E-006	0.0183405	7
	16	159	7546.875	64874.55	-132887.5	1	147877.7	-63.97876	-2.300492E-005	0.0050524	8
	17	167	5928.309	53781.95	-200557.4	1	207643.4	-74.9886	2.615429E-005	-0.008892	8
	18	174	4733.456	133927.6	-122620.9	1	181583.2	-42.47648	8.421399E-006	0.0041474	8
	19	181	3796.875	158902.6	-210306.8	1	263588.7	-52.9262	-7.196185E-006	0.023401	7
	20	188	2987.132	193123.8	-228464.4	1	299153.4	-49.79175	7.522105E-006	-0.0183948	7
	21	194	2390.625	252478	-219505.5	1	334556.2	-41.00384	-7.313598E-006	0.0188708	7
	22	201	1884.191	258388.2	-180778.4	1	315349.5	-34.97814	5.311948E-006	-0.0264737	7
	23	207	1516.544	219681.6	-205196	1	300608.3	-43.04733	-1.119564E-006	-0.0050133	8
	24	215	1193.986	369701.3	-213060.9	1	426701.3	-29.95508	5.850934E-007	-0.02738	6
	25	220	946.5144	412811.1	-177388.2	1	449310.1	-23.25358	7.589867E-007	-0.0223364	6
	26	224	751.7689	326808.4	-277460	1	428704.8	-40.33122	-3.357008E-006	-0.0051164	7
	27	229	597.4265	391632.1	-280079.6	1	481477.2	-35.57084	-1.641137E-006	0.0215152	7
	28	234	477.4305	490473	-215313.4	1	535652.5	-23.70106	-7.540431E-009	0.0006358	6
	29	237	376.6741	555249.9	-180807	1	583946.6	-18.0369	-1.061687E-009	0.0006331	5
	30	240	298.2954	572471.4	-204165.5	1	607788.7	-19.6282	-1.257136E-009	0.000703	5
	31	242	237.7717	589229	-228903.5	1	632129.4	-21.23014	-9.214691E-010	0.0006237	5
	32	245	189.0121	612193.9	-263686.9	1	666567.5	-23.30273	-1.033572E-009	0.0006126	5
	33	247	150.2404	640995	-305019	1	709867	-25.44756	-1.130541E-009	0.0006919	5
	34	250	119.1737	672907.8	-363302.5	1	764717.9	-28.36459	-9.427824E-010	0.0006175	5
	35	252	95.0169	708148.8	-409008.2	1	817778.9	-30.00961	-1.139863E-009	0.0006129	5
	36	255	75.60484	746575	-480380.8	1	887772.4	-32.7591	-1.010673E-009	0.0007086	5
	37	258	54.50582	830712.3	-594721.2	1	1021654	-35.59953	-1.036719E-009	0.0006921	5
	38	261	45.95588	865977.9	-673000.3	1	1096744	-37.85279	-1.107321E-009	0.000632	5
	39	263	37.20238	939544.1	-767854.3	1	1213402	-39.25785	-9.924451E-010	0.0007035	5
	40	266	30.04808	1010246	-890567.9	1	1346740	-41.39733	-1.111019E-009	0.0006874	5
	41	268	23.91582	1105259	-1029895	1	1510722	-42.97848	-1.203125E-009	0.0006883	5
	42	271	18.60119	1257383	-1232381	1	1760618	-44.42467	-6.391372E-010	0.0006334	5
	43	274	15.02404	1349358	-1420017	1	1958881	-46.46154	-1.011847E-009	0.0007151	5
	44	276	12.01923	1493351	-1648133	1	2224059	-47.8207	-9.529655E-010	0.0006089	5
	45	279	9.450605	1680535	-1940686	1	2567189	-49.1091	-1.026212E-009	0.000635	5
	46	281	7.512019	1887765	-2261628	1	2945949	-50.14849	-8.005285E-009	0.0007168	6
	47	286	5.978954	2133431	-2639061	1	3393549	-51.04774	-7.147411E-009	0.0006266	6
	48	291	4.734848	2467489	-3089013	1	3953543	-51.38231	-7.059433E-009	0.0006181	6
	49	297	3.75601	2852431	-3602570	1	4595093	-51.62864	-1.106059E-009	0.0006561	5
	50	304	3.004808	3327566	-4146874	1	5316885	-51.25548	-3.407662E-010	0.0006551	4
	51	311	2.372217	3853279	-4836879	1	6184105	-51.45757	-3.61527E-010	0.0006436	4
	52	315	1.878005	4478080	-5600334	1	7170561	-51.35384	-3.552909E-010	0.0006665	4
	53	320	1.512097	5161426	-6409691	1	8229487	-51.15712	-3.342878E-010	0.0005584	4
	54	325	1.201923	6013004	-7385800	1	9.523983E+006	-50.84992	-3.470074E-010	0.0006676	4
	55	331	0.956633	7003452	-8468973	1	1.098962E+007	-50.41081	-3.48977E-010	2.106964E-005	4
