EXPLAIN
TAG	EISPOT
TITLE	LABEL	Potentiostatic EIS	Test Identifier
DATE	LABEL	2/27/2021	Date
TIME	LABEL	11:26:42	Time
NOTES	NOTES	1	Notes...
	
PSTAT	PSTAT	REF3000-16137	Potentiostat
VDC	POTEN	0.00000E+000	T	DC Voltage (V)
FREQINIT	QUANT	3.00000E+005	Initial Freq. (Hz)
FREQFINAL	QUANT	1.00000E+000	Final Freq. (Hz)
PTSPERDEC	QUANT	1.00000E+001	Points/decade
VAC	QUANT	5.00000E+001	AC Voltage (mV rms)
AREA	QUANT	1.00000E+000	Sample Area (cm^2)
SPEED	SELECTOR	2	Optimize for:
ZGUESS	QUANT	1.00000E+003	Estimated Z (ohms)
EOC	QUANT	0	Open Circuit (V)
SEQUENCER	TOGGLE	TRUE	Run as Sequence
PSTATMODEL	IQUANT	5	Pstat Model
PSTATSECTION	LABEL	REF3000-16137	Pstat Section
PSTATSERIALNO	LABEL	16137	Pstat Serial Number
CTRLMODE	IQUANT	1	Control Mode
IESTAB	IQUANT	0	I/E Stability
CASPEED	IQUANT	1	Control Amp Speed
CONVENTION	IQUANT	1	Current Convention
ICHRANGE	IQUANT	2	Ich Range
ICHRANGEMODE	TOGGLE	F	Ich Auto Range
ICHOFFSETENABLE	TOGGLE	T	Ich Offset Enable
ICHOFFSET	QUANT	0	Ich Offset (V)
ICHFILTER	IQUANT	3	Ich Filter
VCHRANGE	IQUANT	2	Vch Range
VCHRANGEMODE	TOGGLE	F	Vch Auto Range
VCHOFFSETENABLE	TOGGLE	T	Vch Offset Enable
VCHOFFSET	QUANT	0	Vch Offset (V)
VCHFILTER	IQUANT	3	Vch Filter
ACHRANGE	IQUANT	2	Ach Range
ACHOFFSETENABLE	TOGGLE	F	Ach Offset Enable
ACHOFFSET	QUANT	0	Ach Offset (V)
ACHFILTER	IQUANT	3	Ach Filter
IERANGELOWERLIMIT	IQUANT	2	I/E Range Lower Limit
IERANGEMODE	TOGGLE	F	I/E AutoRange
IERANGE	IQUANT	11	I/E Range
POSFEEDENABLE	TOGGLE	F	Positive Feedback IR Comp
POSFEEDRESISTANCE	QUANT	0	Positive Feedback Resistance (ohm)
ACHSELECT	IQUANT	0	Ach Select
CABLEID	IQUANT	13	Cable ID
DCCALDATE	LABEL	7/31/2020	DC Calibration Date
ACCALDATE	LABEL	7/31/2020	AC Calibration Date
THERMOSELECT	IQUANT	1	Thermo Select
FRAMEWORKVERSION	QUANT	6.33	Framework Version
INSTRUMENTVERSION	LABEL	3.50	Instrument Version
COMPLIANCEVOLTAGE	IQUANT	0	Compliance Voltage
ZCURVE	TABLE
	Pt	Time	Freq	Zreal	Zimag	Zsig	Zmod	Zphz	Idc	Vdc	IERange
	#	s	Hz	ohm	ohm	V	ohm	°	A	V	#
	0	14	300046.9	1664.336	-3672.646	1	4032.164	-65.62135	-2.417846E-005	-0.0011975	9
	1	28	238359.4	2288.34	-4124.966	1	4717.187	-60.98051	1.991127E-005	-0.0009323	9
	2	44	189328.1	2803.738	-4669.783	1	5446.818	-59.01939	7.744748E-005	-0.0016155	9
	3	51	150421.9	4304.823	-4848.842	1	6484.04	-48.40119	-8.931343E-005	0.0022322	9
	4	60	119484.4	5230.876	-5121.807	1	7320.859	-44.39639	2.527444E-005	0.0078343	8
	5	68	94921.88	6203.533	-5091.268	1	8025.262	-39.37588	-1.974797E-005	0.0028634	8
	6	77	75421.88	7404.323	-5075.916	1	8977.133	-34.43196	7.523398E-006	-0.0072735	8
	7	85	59859.37	8170.111	-4890.089	1	9521.75	-30.90195	-1.580072E-005	0.0008335	8
	8	93	47578.12	8826.586	-4799.851	1	10047.25	-28.53711	1.029809E-005	-0.0007624	9
	9	102	37828.12	10387.39	-3728.702	1	11036.35	-19.74633	3.580078E-006	-0.0232202	7
	10	106	30046.88	10828.26	-3611.568	1	11414.67	-18.44517	-6.134173E-006	0.023686	7
	11	112	23859.38	11231.04	-3531.371	1	11773.14	-17.4547	-1.875653E-006	0.0208381	7
	12	116	18984.38	11559.41	-3655.089	1	12123.52	-17.54697	-7.368324E-007	-0.0130264	7
	13	120	15046.87	11902.34	-3771.044	1	12485.45	-17.57988	-2.770644E-006	-0.0058901	7
	14	125	11953.13	12251.62	-4075.084	1	12911.56	-18.39795	6.964269E-006	-0.0162092	7
	15	129	9515.62	12676.09	-4418.65	1	13424.15	-19.2176	-4.70515E-006	0.0023385	7
	16	133	7546.875	13116.88	-4883.87	1	13996.6	-20.42205	4.296372E-006	0.0005826	7
	17	137	5928.309	13683.99	-5523.785	1	14756.82	-21.98233	-6.200701E-006	0.0238476	7
	18	142	4733.456	14217.23	-6248.902	1	15529.92	-23.72694	4.326057E-006	0.000602	7
	19	146	3796.875	14857.03	-7344.595	1	16573.31	-26.30556	-2.857541E-006	-0.0057724	7
	20	150	2987.132	15618.9	-8415.351	1	17741.71	-28.31547	-2.834235E-006	-0.0057864	7
	21	154	2390.625	16632.33	-10039.5	1	19427.45	-31.11575	2.26756E-006	0.0089894	7
	22	159	1884.191	17482.87	-11595.43	1	20978.67	-33.55415	7.18577E-006	-0.0221579	7
	23	163	1516.544	18448.64	-12981.72	1	22558.32	-35.13283	2.317851E-006	0.0089272	7
	24	167	1193.986	19986.21	-15736.64	1	25437.97	-38.21601	-6.819581E-006	0.0215703	7
	25	172	946.5144	21963.88	-18137.24	1	28484.58	-39.54906	-6.11797E-006	0.0234989	7
	26	175	751.7689	23449.4	-21680.32	1	31936.04	-42.75516	3.597852E-006	-0.0237348	7
	27	179	597.4265	26023.08	-24540.28	1	35769.07	-43.32025	-5.039975E-006	0.024423	7
	28	183	477.4305	28514.95	-28729	1	40477.87	-45.21424	-6.72007E-008	0.0005792	7
	29	186	376.6741	32149.68	-33269.59	1	46265.19	-45.98074	-1.391314E-008	0.0006998	6
	30	188	298.2954	35831.63	-38758.37	1	52783.68	-47.247	-1.278757E-008	0.0006317	6
	31	191	237.7717	39989.85	-44926.22	1	60146.1	-48.32699	-1.29795E-008	0.0006309	6
	32	193	189.0121	45038.83	-52074.59	1	68849.54	-49.14378	-1.423534E-008	0.0007119	6
	33	196	150.2404	50910.45	-60186.68	1	78830.89	-49.77293	-1.358251E-008	0.0007119	6
	34	199	119.1737	58065.94	-69642.25	1	90673.57	-50.17951	-1.382012E-008	0.0007014	6
	35	201	95.0169	65956.48	-79800.37	1	103529.5	-50.42564	-1.28133E-008	0.0006231	6
	36	203	75.60484	75414.6	-91699.48	1	118727.2	-50.56577	-1.30367E-008	0.0006475	6
	37	206	54.50582	92197.2	-110925.8	1	144238.9	-50.26797	-1.356849E-008	0.0006746	6
	38	208	45.95588	101380	-122482.4	1	158996.4	-50.38507	-1.298048E-008	0.000717	6
	39	211	37.20238	115239.8	-138115.8	1	179878.2	-50.15937	-1.317894E-008	0.0007113	6
	40	213	30.04808	131256.7	-155620.5	1	203583.1	-49.85435	-1.325693E-008	0.0007222	6
	41	216	23.91582	150445.4	-177064.3	1	232348	-49.64661	-1.367265E-008	0.0006874	6
	42	218	18.60119	175847.5	-202750.1	1	268383.9	-49.06453	-1.204233E-008	0.0006496	6
	43	221	15.02404	199548.2	-226097.3	1	301561.7	-48.56913	-1.281897E-008	0.0006277	6
	44	223	12.01923	228047.8	-254092.6	1	341421.8	-48.09206	-1.301467E-008	0.0007026	6
	45	226	9.450605	263235.3	-286987.7	1	389428.8	-47.47186	-1.260632E-008	0.0006858	6
	46	228	7.512019	302750.2	-322319.9	1	442207.9	-46.79324	-6.677342E-009	0.0006705	5
	47	231	5.978954	346192.5	-361111.2	1	500250.5	-46.20832	-6.835243E-009	0.0007139	5
	48	236	4.734848	397827.9	-404085.8	1	567055.9	-45.44711	-6.400095E-009	0.0007347	5
	49	239	3.75601	456658	-451097.7	1	641892.3	-44.64905	-6.425306E-009	0.0007072	5
	50	245	3.004808	522123.1	-500037.9	1	722945.6	-43.76224	-6.311353E-009	0.0005974	5
	51	251	2.372217	601328.9	-553914.3	1	817568	-42.64973	-6.564834E-009	0.0005916	5
	52	255	1.878005	687710.8	-609590.6	1	918992.3	-41.55395	-6.318909E-009	0.0006748	5
	53	260	1.512097	778261.1	-662266.9	1	1021904	-40.39636	-6.281922E-009	0.0005995	5
	54	265	1.201923	888508.8	-720578.5	1	1143976	-39.04197	-6.395236E-009	0.0006963	5
	55	272	0.956633	1008882	-778364.6	1	1274243	-37.6506	-6.725968E-009	2.328088E-005	5
