EXPLAIN
TAG	EISPOT
TITLE	LABEL	Potentiostatic EIS	Test Identifier
DATE	LABEL	2/27/2021	Date
TIME	LABEL	11:46:49	Time
NOTES	NOTES	1	Notes...
	
PSTAT	PSTAT	REF3000-16137	Potentiostat
VDC	POTEN	0.00000E+000	T	DC Voltage (V)
FREQINIT	QUANT	3.00000E+005	Initial Freq. (Hz)
FREQFINAL	QUANT	1.00000E+000	Final Freq. (Hz)
PTSPERDEC	QUANT	1.00000E+001	Points/decade
VAC	QUANT	5.00000E+001	AC Voltage (mV rms)
AREA	QUANT	1.00000E+000	Sample Area (cm^2)
SPEED	SELECTOR	2	Optimize for:
ZGUESS	QUANT	1.00000E+003	Estimated Z (ohms)
EOC	QUANT	0	Open Circuit (V)
SEQUENCER	TOGGLE	TRUE	Run as Sequence
PSTATMODEL	IQUANT	5	Pstat Model
PSTATSECTION	LABEL	REF3000-16137	Pstat Section
PSTATSERIALNO	LABEL	16137	Pstat Serial Number
CTRLMODE	IQUANT	1	Control Mode
IESTAB	IQUANT	0	I/E Stability
CASPEED	IQUANT	1	Control Amp Speed
CONVENTION	IQUANT	1	Current Convention
ICHRANGE	IQUANT	2	Ich Range
ICHRANGEMODE	TOGGLE	F	Ich Auto Range
ICHOFFSETENABLE	TOGGLE	T	Ich Offset Enable
ICHOFFSET	QUANT	0	Ich Offset (V)
ICHFILTER	IQUANT	3	Ich Filter
VCHRANGE	IQUANT	2	Vch Range
VCHRANGEMODE	TOGGLE	F	Vch Auto Range
VCHOFFSETENABLE	TOGGLE	T	Vch Offset Enable
VCHOFFSET	QUANT	0	Vch Offset (V)
VCHFILTER	IQUANT	3	Vch Filter
ACHRANGE	IQUANT	2	Ach Range
ACHOFFSETENABLE	TOGGLE	F	Ach Offset Enable
ACHOFFSET	QUANT	0	Ach Offset (V)
ACHFILTER	IQUANT	3	Ach Filter
IERANGELOWERLIMIT	IQUANT	2	I/E Range Lower Limit
IERANGEMODE	TOGGLE	F	I/E AutoRange
IERANGE	IQUANT	11	I/E Range
POSFEEDENABLE	TOGGLE	F	Positive Feedback IR Comp
POSFEEDRESISTANCE	QUANT	0	Positive Feedback Resistance (ohm)
ACHSELECT	IQUANT	0	Ach Select
CABLEID	IQUANT	13	Cable ID
DCCALDATE	LABEL	7/31/2020	DC Calibration Date
ACCALDATE	LABEL	7/31/2020	AC Calibration Date
THERMOSELECT	IQUANT	1	Thermo Select
FRAMEWORKVERSION	QUANT	6.33	Framework Version
INSTRUMENTVERSION	LABEL	3.50	Instrument Version
COMPLIANCEVOLTAGE	IQUANT	0	Compliance Voltage
ZCURVE	TABLE
	Pt	Time	Freq	Zreal	Zimag	Zsig	Zmod	Zphz	Idc	Vdc	IERange
	#	s	Hz	ohm	ohm	V	ohm	°	A	V	#
	0	17	300046.9	136.0748	-4537.792	1	4539.831	-88.28239	7.94348E-005	-0.0017854	9
	1	31	238359.4	427.6637	-5551.802	1	5568.249	-85.59512	2.496224E-005	-0.0004498	9
	2	57	189328.1	651.0198	-7078.566	1	7108.44	-84.74525	-1.568003E-005	0.0016967	9
	3	64	150421.9	1374.165	-8612.557	1	8721.494	-80.93466	1.92658E-005	-0.0020117	9
	4	73	119484.4	1560.588	-10859.27	1	10970.83	-81.822	-7.797109E-005	0.0356458	8
	5	80	94921.88	2042.51	-13383.58	1	13538.54	-81.32286	1.73661E-005	0.0003691	8
	6	89	75421.88	3292.299	-16783.87	1	17103.73	-78.90186	-9.732479E-007	-0.0050472	8
	7	97	59859.37	3972.774	-20407.25	1	20790.36	-78.98375	2.315931E-005	-0.0028148	8
	8	106	47578.12	9144.229	-25968.88	1	27531.79	-70.60168	3.487351E-006	-0.0241643	7
	9	113	37828.12	11654.75	-31362.41	1	33457.94	-69.61417	6.814931E-006	-0.0266549	7
	10	121	30046.88	11881.04	-37820.82	1	39643.08	-72.56039	2.806192E-005	-0.0004165	9
	11	130	23859.38	18289.66	-45658.34	1	49185.32	-68.17012	-1.60149E-005	0.0007168	8
	12	136	18984.38	28366.24	-52998.94	1	60112.65	-61.8433	5.500343E-007	0.0159619	7
	13	141	15046.87	38804.34	-58902.53	1	70535.7	-56.62355	2.684143E-006	0.0083086	7
	14	147	11953.13	50356.73	-67248.16	1	84012.59	-53.17341	-5.327459E-006	0.0262932	7
	15	152	9515.62	63097.52	-71948.96	1	95697.2	-48.75001	7.385095E-006	-0.0180534	7
	16	158	7546.875	79293.67	-76577.35	1	110234.2	-44.00163	-1.738008E-006	0.0216333	7
	17	164	5928.309	80795.87	-98009.3	1	127018.9	-50.49887	-2.651968E-005	0.0096015	8
	18	171	4733.456	85218.62	-95649.1	1	128105.3	-48.30055	1.738272E-005	0.0003198	8
	19	180	3796.875	125775.6	-77566.15	1	147770.1	-31.66225	-3.321099E-006	-0.0049653	7
	20	186	2987.132	134355.3	-73808.61	1	153294	-28.78237	-7.276211E-006	0.0188042	7
	21	192	2390.625	146844.7	-69686.05	1	162540.8	-25.38697	5.351718E-006	-0.0265412	7
	22	198	1884.191	162291	-66483.35	1	175380.8	-22.27671	7.471438E-006	-0.0182596	7
	23	205	1516.544	160716.9	-83111.92	1	180935.1	-27.34495	-7.26937E-006	0.018805	7
	24	210	1193.986	169545.9	-61270.03	1	180277.1	-19.8687	-6.657742E-006	0.0120295	7
	25	217	946.5144	202261.1	-101541.9	1	226319	-26.65819	-6.258128E-006	0.0249648	7
	26	220	751.7689	170502.7	-91493.77	1	193500	-28.21854	3.539402E-006	-0.0244477	7
	27	224	597.4265	199300	-87576.63	1	217692.8	-23.7217	-6.454843E-007	0.0105763	6
	28	228	477.4305	211046.6	-99249.9	1	233219.2	-25.18641	-7.29767E-009	0.0006347	6
	29	230	376.6741	221207.6	-112963.6	1	248381.9	-27.05193	-8.359299E-009	0.0007175	6
	30	232	298.2954	233463.1	-128848.4	1	266658.8	-28.89432	-6.859863E-009	0.0006282	6
	31	235	237.7717	245829.2	-149153.3	1	287539.1	-31.24667	-7.623102E-009	0.0006582	6
	32	237	189.0121	260681.8	-172539.8	1	312609.9	-33.49975	-7.965351E-009	0.0007209	6
	33	240	150.2404	278676.3	-200253	1	343164.3	-35.7005	-8.327381E-009	0.0007165	6
	34	242	119.1737	299864.2	-235145.7	1	381067	-38.10262	-8.377697E-009	0.0007125	6
	35	245	95.0169	332211.7	-262646.9	1	423494.9	-38.32993	-1.626975E-009	0.0006893	5
	36	247	75.60484	358975.4	-310179.5	1	474420.4	-40.82927	-1.424756E-009	0.000684	5
	37	250	54.50582	413300.2	-379855.1	1	561343.9	-42.58543	-1.551122E-009	0.0006645	5
	38	253	45.95588	436047.7	-436745.5	1	617158.3	-45.04581	-1.501205E-009	0.0007061	5
	39	255	37.20238	476496.7	-503922.2	1	693532.1	-46.60233	-1.494583E-009	0.0007018	5
	40	257	30.04808	527426.6	-580448.8	1	784282.9	-47.74004	-1.466285E-009	0.0006067	5
	41	260	23.91582	590935.8	-679040.9	1	900167.6	-48.96856	-1.586496E-009	0.0006518	5
	42	263	18.60119	659944.4	-813848.9	1	1047796	-50.96164	-2.020991E-009	0.00071	5
	43	265	15.02404	753088.4	-920884	1	1189609	-50.72409	-1.352549E-009	0.0006213	5
	44	268	12.01923	853995	-1063392	1	1363859	-51.23255	-1.558776E-009	0.000632	5
	45	270	9.450605	983515	-1243143	1	1585152	-51.65065	-1.37924E-009	0.0007006	5
	46	273	7.512019	1132291	-1441075	1	1832697	-51.84234	-1.39479E-009	0.0006629	5
	47	276	5.978954	1301446	-1657961	1	2107747	-51.86923	-1.458434E-009	0.0006091	5
	48	280	4.734848	1518501	-1914761	1	2443800	-51.58383	-1.38976E-009	0.0007092	5
	49	285	3.75601	1767353	-2204031	1	2825117	-51.27481	-7.523993E-009	0.0006357	6
	50	292	3.004808	2059266	-2527951	1	3260539	-50.83379	-7.897933E-009	0.0006638	6
	51	300	2.372217	2414426	-2892638	1	3767865	-50.14893	-1.418259E-009	0.0005794	5
	52	304	1.878005	2839840	-3290364	1	4346399	-49.20325	-6.504279E-010	0.000674	4
	53	309	1.512097	3261018	-3701375	1	4932993	-48.61902	-6.40899E-010	0.0006359	4
	54	314	1.201923	3789882	-4191130	1	5650555	-47.87814	-6.506942E-010	0.0006918	4
	55	320	0.956633	4390678	-4734264	1	6456880	-47.15637	-7.180151E-010	2.493995E-005	4
