EXPLAIN
TAG	EISPOT
TITLE	LABEL	Potentiostatic EIS	Test Identifier
DATE	LABEL	2/27/2021	Date
TIME	LABEL	10:56:52	Time
NOTES	NOTES	1	Notes...
	
PSTAT	PSTAT	REF3000-16137	Potentiostat
VDC	POTEN	0.00000E+000	T	DC Voltage (V)
FREQINIT	QUANT	3.00000E+005	Initial Freq. (Hz)
FREQFINAL	QUANT	1.00000E+000	Final Freq. (Hz)
PTSPERDEC	QUANT	1.00000E+001	Points/decade
VAC	QUANT	5.00000E+001	AC Voltage (mV rms)
AREA	QUANT	1.00000E+000	Sample Area (cm^2)
SPEED	SELECTOR	2	Optimize for:
ZGUESS	QUANT	1.00000E+003	Estimated Z (ohms)
EOC	QUANT	0	Open Circuit (V)
SEQUENCER	TOGGLE	TRUE	Run as Sequence
PSTATMODEL	IQUANT	5	Pstat Model
PSTATSECTION	LABEL	REF3000-16137	Pstat Section
PSTATSERIALNO	LABEL	16137	Pstat Serial Number
CTRLMODE	IQUANT	1	Control Mode
IESTAB	IQUANT	0	I/E Stability
CASPEED	IQUANT	1	Control Amp Speed
CONVENTION	IQUANT	1	Current Convention
ICHRANGE	IQUANT	2	Ich Range
ICHRANGEMODE	TOGGLE	F	Ich Auto Range
ICHOFFSETENABLE	TOGGLE	T	Ich Offset Enable
ICHOFFSET	QUANT	0	Ich Offset (V)
ICHFILTER	IQUANT	3	Ich Filter
VCHRANGE	IQUANT	2	Vch Range
VCHRANGEMODE	TOGGLE	F	Vch Auto Range
VCHOFFSETENABLE	TOGGLE	T	Vch Offset Enable
VCHOFFSET	QUANT	0	Vch Offset (V)
VCHFILTER	IQUANT	3	Vch Filter
ACHRANGE	IQUANT	2	Ach Range
ACHOFFSETENABLE	TOGGLE	F	Ach Offset Enable
ACHOFFSET	QUANT	0	Ach Offset (V)
ACHFILTER	IQUANT	3	Ach Filter
IERANGELOWERLIMIT	IQUANT	2	I/E Range Lower Limit
IERANGEMODE	TOGGLE	F	I/E AutoRange
IERANGE	IQUANT	11	I/E Range
POSFEEDENABLE	TOGGLE	F	Positive Feedback IR Comp
POSFEEDRESISTANCE	QUANT	0	Positive Feedback Resistance (ohm)
ACHSELECT	IQUANT	0	Ach Select
CABLEID	IQUANT	13	Cable ID
DCCALDATE	LABEL	7/31/2020	DC Calibration Date
ACCALDATE	LABEL	7/31/2020	AC Calibration Date
THERMOSELECT	IQUANT	1	Thermo Select
FRAMEWORKVERSION	QUANT	6.33	Framework Version
INSTRUMENTVERSION	LABEL	3.50	Instrument Version
COMPLIANCEVOLTAGE	IQUANT	0	Compliance Voltage
ZCURVE	TABLE
	Pt	Time	Freq	Zreal	Zimag	Zsig	Zmod	Zphz	Idc	Vdc	IERange
	#	s	Hz	ohm	ohm	V	ohm	°	A	V	#
	0	14	300046.9	1494.104	-769.4152	1	1680.579	-27.247	-6.111935E-005	0.0003999	9
	1	40	238359.4	1592.931	-718.0228	1	1747.28	-24.26374	-1.788856E-005	0.0010766	9
	2	54	189328.1	1647.933	-655.2668	1	1773.431	-21.68423	-1.973995E-005	0.0014604	9
	3	60	150421.9	1765.895	-641.4934	1	1878.802	-19.96447	8.249115E-005	-0.0032082	9
	4	68	119484.4	1845.159	-565.386	1	1929.838	-17.0359	3.521262E-005	-0.0169282	8
	5	75	94921.88	1890.464	-573.3036	1	1975.483	-16.87049	-2.219247E-006	-0.0037931	8
	6	78	75421.88	1948.003	-591.4095	1	2035.8	-16.88818	1.285854E-005	-0.0075528	8
	7	82	59859.37	1997.789	-627.5288	1	2094.028	-17.43811	-1.835592E-005	0.0031257	8
	8	85	47578.12	2045.286	-689.8635	1	2158.497	-18.63896	2.269896E-005	-0.0046677	8
	9	92	37828.12	2110.793	-762.6624	1	2244.349	-19.86558	1.633013E-005	-0.0001968	8
	10	96	30046.88	2187.987	-864.9072	1	2352.733	-21.56879	2.291619E-005	-0.0046911	8
	11	100	23859.38	2270.759	-979.618	1	2473.055	-23.33563	-1.565576E-005	0.009573	8
	12	104	18984.38	2369.262	-1138.314	1	2628.528	-25.66201	-2.613306E-005	0.0009422	9
	13	109	15046.87	2492.334	-1286.352	1	2804.715	-27.29931	2.173911E-005	-0.0077217	8
	14	115	11953.13	2621.114	-1492.729	1	3016.369	-29.6616	-1.521389E-005	0.0093927	8
	15	120	9515.62	2783.732	-1717.776	1	3271.073	-31.67776	-1.553159E-005	0.0095699	8
	16	125	7546.875	2970.295	-1986.151	1	3573.156	-33.7695	8.594856E-006	0.0031075	8
	17	131	5928.309	3193.569	-2328.337	1	3952.219	-36.09468	-2.232707E-005	0.006901	8
	18	136	4733.456	3448.995	-2659.491	1	4355.279	-37.63552	-1.495065E-005	0.0013032	8
	19	141	3796.875	3704.372	-3059.526	1	4804.484	-39.55409	2.285539E-005	-0.0046986	8
	20	147	2987.132	4049.95	-3549.933	1	5385.547	-41.23579	1.292423E-005	-0.0075981	8
	21	152	2390.625	4457.647	-4077.488	1	6041.235	-42.4497	2.207234E-005	-0.0077161	8
	22	157	1884.191	4861.49	-4683.394	1	6750.427	-43.93105	-2.013288E-005	0.0095039	8
	23	163	1516.544	5410.69	-5366.468	1	7620.666	-44.7649	-8.85624E-006	0.008545	8
	24	168	1193.986	6036.19	-6161.405	1	8625.457	-45.58815	-4.387733E-006	0.0185031	7
	25	173	946.5144	6667.1	-7029.271	1	9688.18	-46.51471	3.431368E-006	-0.0185817	7
	26	175	751.7689	7564.665	-8105.292	1	11086.92	-46.97597	5.241759E-006	-0.0176783	7
	27	178	597.4265	8512.975	-9387.813	1	12672.88	-47.7979	-8.745948E-007	0.0150866	7
	28	181	477.4305	9503.15	-10639.83	1	14265.89	-48.2298	-6.988651E-008	0.0006439	7
	29	183	376.6741	10759.9	-12235.37	1	16293.54	-48.67131	-6.20173E-008	0.0006014	7
	30	185	298.2954	12197.93	-14033.4	1	18593.71	-49.0026	-6.852102E-008	0.000669	7
	31	187	237.7717	13814.92	-16010.54	1	21146.85	-49.21026	-7.025405E-008	0.0006437	7
	32	190	189.0121	15713.75	-18268.64	1	24096.99	-49.29956	-6.210978E-008	0.000612	7
	33	192	150.2404	17920.21	-20823.08	1	27472.44	-49.28492	-6.610887E-008	0.0006546	7
	34	195	119.1737	20484.67	-23706.62	1	31330.91	-49.17001	-6.766393E-008	0.0006636	7
	35	197	95.0169	23425.72	-26854.3	1	35635.91	-48.90094	-6.933065E-008	0.0006352	7
	36	200	75.60484	26830.24	-30369.47	1	40523.65	-48.54066	-7.057309E-008	0.0006661	7
	37	202	54.50582	32630.15	-35933.53	1	48538.08	-47.75836	-2.716929E-008	0.0006745	6
	38	205	45.95588	36181.36	-39288.63	1	53410.55	-47.35766	-2.499806E-008	0.0006713	6
	39	207	37.20238	41022.15	-43658.34	1	59907.16	-46.7831	-2.545364E-008	0.0007179	6
	40	209	30.04808	46596.25	-48379.65	1	67169.95	-46.07574	-2.580044E-008	0.0006971	6
	41	212	23.91582	53276.58	-53835.34	1	75740.59	-45.29889	-2.426257E-008	0.0006454	6
	42	214	18.60119	61779.81	-60093.63	1	86185.78	-44.20733	-2.573335E-008	0.0006753	6
	43	217	15.02404	69983.43	-65945.52	1	96158.7	-43.29847	-2.527739E-008	0.0006675	6
	44	219	12.01923	79575.1	-72084.23	1	107370.1	-42.1723	-2.450798E-008	0.0006489	6
	45	222	9.450605	91241.03	-78795.41	1	120555.6	-40.81377	-2.799429E-008	0.0006784	6
	46	224	7.512019	103586.2	-85314.83	1	134196.6	-39.47528	-2.585788E-008	0.0006902	6
	47	227	5.978954	117102.4	-91450.34	1	148580.4	-37.98781	-2.541139E-008	0.0006412	6
	48	231	4.734848	132193.3	-97387.7	1	164193.3	-36.37933	-2.791057E-008	0.0006697	6
	49	235	3.75601	148290.7	-102726	1	180396.1	-34.71167	-2.783486E-008	0.0006468	6
	50	241	3.004808	164649.9	-107385.7	1	196573.9	-33.11265	-2.624912E-008	0.0006336	6
	51	247	2.372217	182715.7	-111507.2	1	214053.5	-31.39475	-2.728138E-008	0.0006844	6
	52	254	1.878005	201206.8	-114970.9	1	231738	-29.74394	-2.737919E-008	0.0006838	6
	53	263	1.512097	219063.3	-118329.4	1	248979.1	-28.37618	-2.705893E-008	0.0005717	6
	54	274	1.201923	238315.1	-121480.3	1	267491.3	-27.01005	-2.731936E-008	0.000659	6
	55	287	0.956633	257925.6	-124987.7	1	286613.9	-25.85428	-2.88964E-008	2.46718E-005	6
