EXPLAIN
TAG	EISPOT
TITLE	LABEL	Potentiostatic EIS	Test Identifier
DATE	LABEL	9/22/2020	Date
TIME	LABEL	0:55:24	Time
NOTES	NOTES	1	Notes...
	
PSTAT	PSTAT	REF3000-16137	Potentiostat
VDC	POTEN	0.00000E+000	T	DC Voltage (V)
FREQINIT	QUANT	3.00000E+005	Initial Freq. (Hz)
FREQFINAL	QUANT	1.00000E+000	Final Freq. (Hz)
PTSPERDEC	QUANT	1.00000E+001	Points/decade
VAC	QUANT	5.00000E+001	AC Voltage (mV rms)
AREA	QUANT	1.00000E+000	Sample Area (cm^2)
SPEED	SELECTOR	2	Optimize for:
ZGUESS	QUANT	1.00000E+003	Estimated Z (ohms)
EOC	QUANT	0	Open Circuit (V)
SEQUENCER	TOGGLE	TRUE	Run as Sequence
PSTATMODEL	IQUANT	5	Pstat Model
PSTATSECTION	LABEL	REF3000-16137	Pstat Section
PSTATSERIALNO	LABEL	16137	Pstat Serial Number
CTRLMODE	IQUANT	1	Control Mode
IESTAB	IQUANT	0	I/E Stability
CASPEED	IQUANT	1	Control Amp Speed
CONVENTION	IQUANT	1	Current Convention
ICHRANGE	IQUANT	2	Ich Range
ICHRANGEMODE	TOGGLE	F	Ich Auto Range
ICHOFFSETENABLE	TOGGLE	T	Ich Offset Enable
ICHOFFSET	QUANT	0	Ich Offset (V)
ICHFILTER	IQUANT	3	Ich Filter
VCHRANGE	IQUANT	2	Vch Range
VCHRANGEMODE	TOGGLE	F	Vch Auto Range
VCHOFFSETENABLE	TOGGLE	T	Vch Offset Enable
VCHOFFSET	QUANT	0	Vch Offset (V)
VCHFILTER	IQUANT	3	Vch Filter
ACHRANGE	IQUANT	2	Ach Range
ACHOFFSETENABLE	TOGGLE	F	Ach Offset Enable
ACHOFFSET	QUANT	0	Ach Offset (V)
ACHFILTER	IQUANT	3	Ach Filter
IERANGELOWERLIMIT	IQUANT	2	I/E Range Lower Limit
IERANGEMODE	TOGGLE	F	I/E AutoRange
IERANGE	IQUANT	11	I/E Range
POSFEEDENABLE	TOGGLE	F	Positive Feedback IR Comp
POSFEEDRESISTANCE	QUANT	0	Positive Feedback Resistance (ohm)
ACHSELECT	IQUANT	0	Ach Select
CABLEID	IQUANT	13	Cable ID
DCCALDATE	LABEL	7/31/2020	DC Calibration Date
ACCALDATE	LABEL	7/31/2020	AC Calibration Date
THERMOSELECT	IQUANT	1	Thermo Select
FRAMEWORKVERSION	QUANT	6.33	Framework Version
INSTRUMENTVERSION	LABEL	3.50	Instrument Version
COMPLIANCEVOLTAGE	IQUANT	0	Compliance Voltage
ZCURVE	TABLE
	Pt	Time	Freq	Zreal	Zimag	Zsig	Zmod	Zphz	Idc	Vdc	IERange
	#	s	Hz	ohm	ohm	V	ohm	°	A	V	#
	0	8	300046.9	19.07163	2.03861	1	19.18028	6.101308	-2.305703E-005	0.0003617	10
	1	11	238359.4	19.08428	1.598626	1	19.15112	4.788294	1.424148E-005	0.0002352	10
	2	14	189328.1	19.07781	1.267843	1	19.1199	3.802081	-0.0000964	0.0004814	10
	3	17	150421.9	19.08016	0.989696	1	19.10581	2.969295	-5.053322E-005	0.0006435	10
	4	19	119484.4	19.10621	0.7496926	1	19.12092	2.247028	1.62891E-005	0.0005972	10
	5	22	94921.88	19.11185	0.5744491	1	19.12048	1.721634	-2.365029E-005	0.0006362	10
	6	25	75421.88	19.13028	0.4018981	1	19.1345	1.20352	1.671556E-005	0.0006587	10
	7	27	59859.37	19.14925	0.2574597	1	19.15098	0.7702895	-3.03685E-005	0.0006419	10
	8	30	47578.12	19.16999	0.1307815	1	19.17044	0.3908772	-2.400107E-005	0.0006532	10
	9	32	37828.12	19.18907	0.0122057	1	19.18908	0.0364444	1.912435E-005	0.0006152	10
	10	35	30046.88	19.2129	-0.1024755	1	19.21317	-0.3055947	2.133041E-005	0.000671	10
	11	37	23859.38	19.23499	-0.222237	1	19.23628	-0.6619539	1.328538E-005	0.0005935	10
	12	40	18984.38	19.26122	-0.3452953	1	19.26432	-1.02703	-2.445453E-005	0.0007264	10
	13	42	15046.87	19.28572	-0.4851951	1	19.29182	-1.441158	4.704046E-006	0.0005973	10
	14	44	11953.13	19.31283	-0.6557417	1	19.32396	-1.944656	1.272059E-005	0.0005868	10
	15	46	9515.62	19.3518	-0.8425891	1	19.37013	-2.493119	-2.037829E-005	0.0007319	10
	16	49	7546.875	19.39317	-1.069025	1	19.42261	-3.155166	-2.283122E-005	0.0007315	10
	17	51	5928.309	19.43461	-1.373028	1	19.48305	-4.041151	1.947707E-005	0.0006512	10
	18	53	4733.456	19.48792	-1.709613	1	19.56277	-5.013542	-2.645592E-005	0.0006948	10
	19	56	3796.875	19.55059	-2.106812	1	19.66378	-6.150576	1.11176E-005	0.0005945	10
	20	58	2987.132	19.62131	-2.644818	1	19.79876	-7.676807	4.809508E-006	0.0006651	10
	21	60	2390.625	19.71368	-3.252066	1	19.98011	-9.367431	-1.12509E-005	0.0006587	10
	22	63	1884.191	19.81514	-4.073485	1	20.22951	-11.61671	-2.850183E-005	0.0006875	10
	23	65	1516.544	19.94692	-4.989484	1	20.56149	-14.04369	-1.865107E-005	0.0006543	10
	24	67	1193.986	20.11702	-6.233873	1	21.06076	-17.2172	-2.542098E-005	0.0006709	10
	25	70	946.5144	20.32344	-7.736095	1	21.74602	-20.83927	-1.282884E-005	0.0007168	10
	26	72	751.7689	20.57287	-9.57545	1	22.69212	-24.95919	-2.949485E-005	0.0006753	10
	27	74	597.4265	20.90237	-11.83645	1	24.02105	-29.52171	-2.56575E-005	0.0006763	10
	28	77	477.4305	21.29944	-14.54979	1	25.79462	-34.33724	-2.565233E-006	0.0006669	10
	29	79	376.6741	21.82596	-18.08871	1	28.34738	-39.65094	-2.838915E-006	0.0006624	10
	30	81	298.2954	22.48407	-22.39898	1	31.73716	-44.89137	-2.583731E-006	0.0006606	10
	31	84	237.7717	23.29724	-27.55639	1	36.08484	-49.78754	-2.862594E-006	0.0006577	10
	32	86	189.0121	24.31271	-33.92197	1	41.73497	-54.3699	1.140102E-006	5.82088E-005	9
	33	89	150.2404	25.64489	-41.7768	1	49.02001	-58.45612	1.082096E-006	5.669148E-005	9
	34	91	119.1737	27.34731	-51.48936	1	58.3012	-62.02609	1.180236E-006	6.202716E-005	9
	35	93	95.0169	29.43983	-63.09288	1	69.62337	-64.98573	1.1639E-006	6.080081E-005	9
	36	96	75.60484	32.05843	-77.36627	1	83.74535	-67.49225	1.103112E-006	6.007985E-005	9
	37	98	54.50582	36.85397	-103.4367	1	109.806	-70.38927	1.107587E-006	5.940969E-005	9
	38	101	45.95588	39.94218	-120.3144	1	126.7712	-71.63477	1.122566E-006	6.290802E-005	9
	39	103	37.20238	44.39759	-145.0426	1	151.6856	-72.98064	1.085714E-006	6.563045E-005	9
	40	106	30.04808	49.78158	-175.31	1	182.2411	-74.14741	1.11901E-006	6.298728E-005	9
	41	108	23.91582	56.6867	-214.6828	1	222.0407	-75.20872	1.028668E-006	4.874398E-005	9
	42	110	18.60119	66.14364	-268.6469	1	276.6697	-76.1683	1.08171E-006	6.51422E-005	9
	43	113	15.02404	76.13578	-325.3794	1	334.1682	-76.83026	1.295805E-006	7.037674E-005	9
	44	115	12.01923	89.22502	-397.3934	1	407.2869	-77.34549	1.283747E-006	5.940016E-005	9
	45	117	9.450605	106.7561	-491.2617	1	502.7275	-77.73968	5.164416E-007	0.0006365	8
	46	120	7.512019	129.0301	-603.7667	1	617.4002	-77.93687	5.32805E-007	0.0006446	8
	47	123	5.978954	157.3162	-740.4907	1	757.0171	-78.00592	5.299889E-007	0.0006354	8
	48	126	4.734848	196.0489	-912.534	1	933.356	-77.87488	4.702979E-007	0.0006488	8
	49	129	3.75601	246.2824	-1120.551	1	1147.296	-77.60423	4.937183E-007	0.0006408	8
	50	132	3.004808	309.8102	-1362.855	1	1397.625	-77.19292	4.430758E-007	0.0006738	8
	51	136	2.372217	398.1113	-1673.952	1	1720.642	-76.62204	4.797652E-007	0.0006928	8
	52	140	1.878005	517.4089	-2045.449	1	2109.876	-75.80446	4.907833E-007	0.0006085	8
	53	145	1.512097	660.2747	-2454.924	1	2542.167	-74.94601	4.88679E-007	0.0007369	8
	54	150	1.201923	852.9333	-2973.146	1	3093.072	-73.99292	4.985321E-007	0.0006366	8
	55	157	0.956633	1098.434	-3580.788	1	3745.477	-72.94621	4.267349E-007	-3.229845E-006	8
