EXPLAIN
TAG	EISPOT
TITLE	LABEL	Potentiostatic EIS	Test Identifier
DATE	LABEL	9/22/2020	Date
TIME	LABEL	1:09:20	Time
NOTES	NOTES	1	Notes...
	
PSTAT	PSTAT	REF3000-16137	Potentiostat
VDC	POTEN	0.00000E+000	T	DC Voltage (V)
FREQINIT	QUANT	3.00000E+005	Initial Freq. (Hz)
FREQFINAL	QUANT	1.00000E+000	Final Freq. (Hz)
PTSPERDEC	QUANT	1.00000E+001	Points/decade
VAC	QUANT	5.00000E+001	AC Voltage (mV rms)
AREA	QUANT	1.00000E+000	Sample Area (cm^2)
SPEED	SELECTOR	2	Optimize for:
ZGUESS	QUANT	1.00000E+003	Estimated Z (ohms)
EOC	QUANT	0	Open Circuit (V)
SEQUENCER	TOGGLE	TRUE	Run as Sequence
PSTATMODEL	IQUANT	5	Pstat Model
PSTATSECTION	LABEL	REF3000-16137	Pstat Section
PSTATSERIALNO	LABEL	16137	Pstat Serial Number
CTRLMODE	IQUANT	1	Control Mode
IESTAB	IQUANT	0	I/E Stability
CASPEED	IQUANT	1	Control Amp Speed
CONVENTION	IQUANT	1	Current Convention
ICHRANGE	IQUANT	2	Ich Range
ICHRANGEMODE	TOGGLE	F	Ich Auto Range
ICHOFFSETENABLE	TOGGLE	T	Ich Offset Enable
ICHOFFSET	QUANT	0	Ich Offset (V)
ICHFILTER	IQUANT	3	Ich Filter
VCHRANGE	IQUANT	2	Vch Range
VCHRANGEMODE	TOGGLE	F	Vch Auto Range
VCHOFFSETENABLE	TOGGLE	T	Vch Offset Enable
VCHOFFSET	QUANT	0	Vch Offset (V)
VCHFILTER	IQUANT	3	Vch Filter
ACHRANGE	IQUANT	2	Ach Range
ACHOFFSETENABLE	TOGGLE	F	Ach Offset Enable
ACHOFFSET	QUANT	0	Ach Offset (V)
ACHFILTER	IQUANT	3	Ach Filter
IERANGELOWERLIMIT	IQUANT	2	I/E Range Lower Limit
IERANGEMODE	TOGGLE	F	I/E AutoRange
IERANGE	IQUANT	11	I/E Range
POSFEEDENABLE	TOGGLE	F	Positive Feedback IR Comp
POSFEEDRESISTANCE	QUANT	0	Positive Feedback Resistance (ohm)
ACHSELECT	IQUANT	0	Ach Select
CABLEID	IQUANT	13	Cable ID
DCCALDATE	LABEL	7/31/2020	DC Calibration Date
ACCALDATE	LABEL	7/31/2020	AC Calibration Date
THERMOSELECT	IQUANT	1	Thermo Select
FRAMEWORKVERSION	QUANT	6.33	Framework Version
INSTRUMENTVERSION	LABEL	3.50	Instrument Version
COMPLIANCEVOLTAGE	IQUANT	0	Compliance Voltage
ZCURVE	TABLE
	Pt	Time	Freq	Zreal	Zimag	Zsig	Zmod	Zphz	Idc	Vdc	IERange
	#	s	Hz	ohm	ohm	V	ohm	°	A	V	#
	0	6	300046.9	24.87341	1.558903	1	24.92222	3.586233	-0.0001096	-0.0003826	11
	1	11	238359.4	24.9077	1.488545	1	24.95214	3.420067	-5.575925E-006	0.0002612	10
	2	16	189328.1	24.90492	0.956899	1	24.9233	2.200341	3.861789E-005	0.0007491	11
	3	19	150421.9	24.93308	0.8935798	1	24.94908	2.052552	-2.60531E-005	0.0005896	10
	4	23	119484.4	24.99394	0.6993136	1	25.00372	1.602679	-3.860672E-005	0.0005173	10
	5	27	94921.88	25.00283	0.5224475	1	25.00829	1.197052	2.419801E-005	0.0005837	10
	6	29	75421.88	25.03161	0.3627329	1	25.03424	0.8302147	-3.265109E-006	0.0005873	10
	7	32	59859.37	25.05546	0.2248689	1	25.05647	0.514207	2.237912E-005	0.0006414	10
	8	34	47578.12	25.08824	0.1013608	1	25.08844	0.2314835	-2.043216E-005	0.0007229	10
	9	37	37828.12	25.11515	-0.0171133	1	25.11516	-0.039041	1.636821E-005	0.0006279	10
	10	39	30046.88	25.1462	-0.1294321	1	25.14653	-0.2949092	1.263746E-005	0.0006886	10
	11	42	23859.38	25.17826	-0.2489583	1	25.17949	-0.5665124	1.993099E-006	0.0006023	10
	12	44	18984.38	25.20812	-0.3737186	1	25.21089	-0.8493662	-3.449663E-006	0.0007158	10
	13	46	15046.87	25.23775	-0.5165445	1	25.24304	-1.172517	1.546395E-005	0.0006322	10
	14	49	11953.13	25.2759	-0.6864591	1	25.28522	-1.555693	-6.268345E-006	0.0006525	10
	15	51	9515.62	25.3212	-0.8801229	1	25.33649	-1.990705	-6.232719E-006	0.0006569	10
	16	53	7546.875	25.36285	-1.116703	1	25.38742	-2.521053	-1.745532E-005	0.0006624	10
	17	56	5928.309	25.42194	-1.420971	1	25.46162	-3.199246	2.405451E-005	0.0006079	10
	18	58	4733.456	25.48333	-1.770984	1	25.54479	-3.975424	-1.525816E-005	0.0007041	10
	19	60	3796.875	25.54267	-2.184898	1	25.63595	-4.88913	-2.569645E-005	0.0006554	10
	20	63	2987.132	25.6287	-2.733057	1	25.77401	-6.087045	-4.459666E-006	0.0006194	10
	21	65	2390.625	25.7254	-3.375309	1	25.94588	-7.474814	-1.258885E-005	0.0006357	10
	22	67	1884.191	25.84691	-4.214437	1	26.18824	-9.2608	-2.91589E-005	0.0006854	10
	23	70	1516.544	25.97807	-5.1581	1	26.4852	-11.23035	1.576246E-005	0.0006664	10
	24	72	1193.986	26.15824	-6.442611	1	26.93995	-13.83621	2.45706E-005	0.0006575	10
	25	74	946.5144	26.37697	-7.990827	1	27.5608	-16.85403	-2.648795E-005	0.0007369	10
	26	77	751.7689	26.65443	-9.889	1	28.42976	-20.35525	-2.737058E-005	0.0006803	10
	27	79	597.4265	26.97803	-12.23887	1	29.62438	-24.40194	2.362408E-005	0.0006192	10
	28	81	477.4305	27.38356	-15.03949	1	31.24173	-28.7763	-2.229336E-006	0.000662	10
	29	84	376.6741	27.92303	-18.70148	1	33.60716	-33.81223	-2.034822E-006	0.0006596	10
	30	86	298.2954	28.59457	-23.16418	1	36.79984	-39.0106	-2.483834E-006	0.0006676	10
	31	88	237.7717	29.38357	-28.47216	1	40.91526	-44.09749	1.135612E-006	6.845132E-005	9
	32	91	189.0121	30.43734	-35.10744	1	46.46466	-49.07547	1.155921E-006	6.703673E-005	9
	33	93	150.2404	31.77304	-43.26516	1	53.67868	-53.7072	1.200712E-006	6.652239E-005	9
	34	96	119.1737	33.4911	-53.37613	1	63.01321	-57.89359	1.216172E-006	6.287669E-005	9
	35	98	95.0169	35.61879	-65.47948	1	74.54033	-61.45519	1.161336E-006	6.120811E-005	9
	36	101	75.60484	38.3144	-80.38515	1	89.04923	-64.51588	1.145532E-006	6.450162E-005	9
	37	103	54.50582	43.32887	-107.6089	1	116.0046	-68.06775	1.052118E-006	6.055245E-005	9
	38	106	45.95588	46.58836	-125.1962	1	133.5836	-69.58862	1.146156E-006	6.926723E-005	9
	39	108	37.20238	51.33355	-150.9278	1	159.4187	-71.21581	1.034448E-006	9.367652E-005	9
	40	110	30.04808	57.04065	-182.3199	1	191.0345	-72.62717	1.268672E-006	6.142475E-005	9
	41	113	23.91582	64.36213	-223.2199	1	232.3136	-73.91587	1.01445E-006	9.486831E-005	9
	42	115	18.60119	74.20161	-278.9702	1	288.6698	-75.1051	1.211777E-006	6.635336E-005	9
	43	117	15.02404	84.51266	-337.5404	1	347.9597	-75.94338	1.284972E-006	7.602749E-005	9
	44	120	12.01923	97.6313	-412.0522	1	423.4606	-76.67021	1.201279E-006	6.686126E-005	9
	45	122	9.450605	115.0436	-509.0659	1	521.9033	-77.26566	5.137761E-007	0.0006374	8
	46	125	7.512019	136.8216	-625.4818	1	640.2715	-77.66113	5.170444E-007	0.0006503	8
	47	128	5.978954	164.2644	-767.6607	1	785.0387	-77.92197	5.040873E-007	0.0006402	8
	48	131	4.734848	201.5018	-946.3983	1	967.612	-77.98038	4.981862E-007	0.0006592	8
	49	134	3.75601	249.3357	-1164.029	1	1190.433	-77.9099	4.665347E-007	0.0006343	8
	50	137	3.004808	309.6201	-1418.517	1	1451.914	-77.68715	4.353875E-007	0.0006757	8
	51	141	2.372217	394.3348	-1747.592	1	1791.53	-77.28446	4.756496E-007	0.0007131	8
	52	145	1.878005	505.7947	-2141.237	1	2200.164	-76.70943	4.662037E-007	0.0006142	8
	53	150	1.512097	642.6599	-2576.952	1	2655.879	-75.99679	4.905377E-007	0.000719	8
	54	155	1.201923	826.2258	-3136.489	1	3243.488	-75.2422	4.922112E-007	0.0006156	8
	55	162	0.956633	1062.948	-3795.326	1	3941.365	-74.35416	4.339185E-007	5.379032E-006	8
