EXPLAIN
TAG	EISPOT
TITLE	LABEL	Potentiostatic EIS	Test Identifier
DATE	LABEL	9/21/2020	Date
TIME	LABEL	23:37:52	Time
NOTES	NOTES	1	Notes...
	
PSTAT	PSTAT	REF3000-16137	Potentiostat
VDC	POTEN	0.00000E+000	T	DC Voltage (V)
FREQINIT	QUANT	3.00000E+005	Initial Freq. (Hz)
FREQFINAL	QUANT	1.00000E+000	Final Freq. (Hz)
PTSPERDEC	QUANT	1.00000E+001	Points/decade
VAC	QUANT	5.00000E+001	AC Voltage (mV rms)
AREA	QUANT	1.00000E+000	Sample Area (cm^2)
SPEED	SELECTOR	2	Optimize for:
ZGUESS	QUANT	1.00000E+003	Estimated Z (ohms)
EOC	QUANT	0	Open Circuit (V)
SEQUENCER	TOGGLE	TRUE	Run as Sequence
PSTATMODEL	IQUANT	5	Pstat Model
PSTATSECTION	LABEL	REF3000-16137	Pstat Section
PSTATSERIALNO	LABEL	16137	Pstat Serial Number
CTRLMODE	IQUANT	1	Control Mode
IESTAB	IQUANT	0	I/E Stability
CASPEED	IQUANT	1	Control Amp Speed
CONVENTION	IQUANT	1	Current Convention
ICHRANGE	IQUANT	2	Ich Range
ICHRANGEMODE	TOGGLE	F	Ich Auto Range
ICHOFFSETENABLE	TOGGLE	T	Ich Offset Enable
ICHOFFSET	QUANT	0	Ich Offset (V)
ICHFILTER	IQUANT	3	Ich Filter
VCHRANGE	IQUANT	2	Vch Range
VCHRANGEMODE	TOGGLE	F	Vch Auto Range
VCHOFFSETENABLE	TOGGLE	T	Vch Offset Enable
VCHOFFSET	QUANT	0	Vch Offset (V)
VCHFILTER	IQUANT	3	Vch Filter
ACHRANGE	IQUANT	2	Ach Range
ACHOFFSETENABLE	TOGGLE	F	Ach Offset Enable
ACHOFFSET	QUANT	0	Ach Offset (V)
ACHFILTER	IQUANT	3	Ach Filter
IERANGELOWERLIMIT	IQUANT	2	I/E Range Lower Limit
IERANGEMODE	TOGGLE	F	I/E AutoRange
IERANGE	IQUANT	11	I/E Range
POSFEEDENABLE	TOGGLE	F	Positive Feedback IR Comp
POSFEEDRESISTANCE	QUANT	0	Positive Feedback Resistance (ohm)
ACHSELECT	IQUANT	0	Ach Select
CABLEID	IQUANT	13	Cable ID
DCCALDATE	LABEL	7/31/2020	DC Calibration Date
ACCALDATE	LABEL	7/31/2020	AC Calibration Date
THERMOSELECT	IQUANT	1	Thermo Select
FRAMEWORKVERSION	QUANT	6.33	Framework Version
INSTRUMENTVERSION	LABEL	3.50	Instrument Version
COMPLIANCEVOLTAGE	IQUANT	0	Compliance Voltage
ZCURVE	TABLE
	Pt	Time	Freq	Zreal	Zimag	Zsig	Zmod	Zphz	Idc	Vdc	IERange
	#	s	Hz	ohm	ohm	V	ohm	°	A	V	#
	0	11	300046.9	6.518337	2.237051	1	6.891525	18.94189	-1.48101E-005	0.0002328	10
	1	14	238359.4	6.505631	1.770048	1	6.742129	15.22056	-4.627451E-005	5.883536E-005	10
	2	17	189328.1	6.486382	1.393766	1	6.634436	12.12708	2.886185E-005	0.0001736	10
	3	19	150421.9	6.479077	1.084314	1	6.569184	9.50076	1.012433E-005	0.0003656	10
	4	22	119484.4	6.46889	0.8450336	1	6.52385	7.442428	2.57619E-005	0.0006173	10
	5	24	94921.88	6.469516	0.6647604	1	6.50358	5.866707	-2.831889E-005	0.0005301	10
	6	27	75421.88	6.46741	0.4855766	1	6.485613	4.293742	-1.408182E-005	0.0005353	10
	7	29	59859.37	6.468227	0.3313495	1	6.476708	2.932542	-1.819356E-005	0.0005935	10
	8	32	47578.12	6.47288	0.1978235	1	6.475903	1.750522	2.303259E-006	0.0005884	10
	9	35	37828.12	6.480151	0.0778501	1	6.480618	0.6882969	1.085022E-005	0.0005994	10
	10	37	30046.88	6.48913	-0.0349107	1	6.489224	-0.3082412	-3.02887E-005	0.0006384	10
	11	40	23859.38	6.4992	-0.1475628	1	6.500875	-1.300663	1.461353E-005	0.0006533	10
	12	42	18984.38	6.509307	-0.264189	1	6.514666	-2.324151	-1.909468E-005	0.0006484	10
	13	44	15046.87	6.523241	-0.3944264	1	6.535155	-3.460165	2.060292E-005	0.0006522	10
	14	47	11953.13	6.538802	-0.5410948	1	6.561152	-4.730526	-2.871418E-005	0.0006962	10
	15	49	9515.62	6.557092	-0.7097361	1	6.595391	-6.177614	2.365301E-006	0.0006306	10
	16	51	7546.875	6.580534	-0.9141016	1	6.64372	-7.908346	1.935141E-005	0.0006332	10
	17	53	5928.309	6.611656	-1.17292	1	6.714889	-10.05971	-2.534573E-005	0.0007132	10
	18	56	4733.456	6.646462	-1.466516	1	6.80633	-12.44273	9.121E-006	0.0006173	10
	19	58	3796.875	6.690117	-1.817913	1	6.932711	-15.20198	-4.083378E-006	0.0007003	10
	20	60	2987.132	6.748101	-2.286052	1	7.124808	-18.71482	-2.715418E-005	0.0006775	10
	21	63	2390.625	6.816426	-2.82239	1	7.377638	-22.49235	-1.989307E-005	0.000711	10
	22	65	1884.191	6.908483	-3.529101	1	7.757686	-27.05958	-2.188587E-005	0.000688	10
	23	67	1516.544	7.016366	-4.320122	1	8.239712	-31.62147	1.372686E-005	0.0006558	10
	24	70	1193.986	7.167254	-5.39373	1	8.970054	-36.96336	3.080634E-006	0.0006569	10
	25	72	946.5144	7.352782	-6.686739	1	9.93861	-42.28389	-2.793313E-005	0.0006616	10
	26	74	751.7689	7.593093	-8.258851	1	11.2189	-47.40493	-1.314041E-005	0.0006505	10
	27	77	597.4265	7.896714	-10.2009	1	12.90025	-52.25584	-1.639507E-005	0.0006891	10
	28	79	477.4305	8.278786	-12.50812	1	14.99971	-56.5005	-3.135344E-006	0.0006649	10
	29	81	376.6741	8.793089	-15.50574	1	17.82544	-60.44303	-3.683929E-006	0.0006594	10
	30	84	298.2954	9.43528	-19.12996	1	21.33026	-63.74657	-3.826327E-006	0.0006616	10
	31	86	237.7717	10.21306	-23.43538	1	25.5641	-66.45258	-3.812142E-006	0.0006637	10
	32	89	189.0121	11.1835	-28.75254	1	30.85092	-68.7461	-3.352092E-006	0.0006596	10
	33	91	150.2404	12.36327	-35.25226	1	37.35736	-70.6738	-3.400932E-006	0.0006642	10
	34	93	119.1737	13.79129	-43.24244	1	45.38842	-72.31098	6.672894E-007	6.401944E-005	9
	35	96	95.0169	15.50041	-52.87631	1	55.10142	-73.66178	5.631064E-007	6.028761E-005	9
	36	98	75.60484	17.59682	-64.80108	1	67.1478	-74.80762	5.42692E-007	6.46189E-005	9
	37	101	54.50582	21.47309	-86.79696	1	89.41368	-76.10435	5.54897E-007	5.979085E-005	9
	38	103	45.95588	24.0507	-101.1485	1	103.9685	-76.6248	5.56986E-007	6.76812E-005	9
	39	106	37.20238	27.91679	-122.2412	1	125.3885	-77.13572	4.259061E-007	0.0001057	9
	40	108	30.04808	32.86735	-148.1222	1	151.7249	-77.48914	6.25821E-007	6.443272E-005	9
	41	110	23.91582	39.59819	-181.758	1	186.0214	-77.70947	5.830776E-007	6.161884E-005	9
	42	113	18.60119	49.44211	-227.7326	1	233.0379	-77.75084	4.544174E-007	6.518128E-005	9
	43	115	15.02404	60.59496	-275.5224	1	282.107	-77.59654	6.379954E-007	5.773358E-005	9
	44	117	12.01923	75.79321	-335.8869	1	344.3321	-77.28412	4.927836E-007	0.0001087	9
	45	120	9.450605	97.6873	-414.7583	1	426.1071	-76.74677	7.388427E-007	6.674384E-005	9
	46	122	7.512019	125.0404	-504.4387	1	519.7052	-76.07813	-2.069896E-008	0.0006528	8
	47	125	5.978954	161.5515	-612.8081	1	633.7449	-75.23141	2.513297E-008	0.0006405	8
	48	128	4.734848	210.9642	-745.4679	1	774.744	-74.19872	1.742616E-007	0.0006685	8
	49	131	3.75601	276.0886	-901.4953	1	942.8248	-72.97247	-4.272253E-008	0.0006305	8
	50	135	3.004808	357.4235	-1077.047	1	1134.805	-71.64132	8.680249E-008	0.000622	8
	51	138	2.372217	468.8012	-1293.376	1	1375.717	-70.07629	3.128128E-008	0.0006332	8
	52	143	1.878005	614.4836	-1542.203	1	1660.115	-68.27542	2.539262E-008	0.0006499	8
	53	147	1.512097	783.1303	-1804.069	1	1966.713	-66.53477	6.455807E-008	0.0005304	8
	54	153	1.201923	1009.855	-2116.563	1	2345.133	-64.49325	2.360655E-008	0.0006557	8
	55	159	0.956633	1291.631	-2459.752	1	2778.253	-62.29576	-3.994233E-008	-3.767221E-006	8
