EXPLAIN
TAG	EISPOT
TITLE	LABEL	Potentiostatic EIS	Test Identifier
DATE	LABEL	9/22/2020	Date
TIME	LABEL	0:58:10	Time
NOTES	NOTES	1	Notes...
	
PSTAT	PSTAT	REF3000-16137	Potentiostat
VDC	POTEN	0.00000E+000	T	DC Voltage (V)
FREQINIT	QUANT	3.00000E+005	Initial Freq. (Hz)
FREQFINAL	QUANT	1.00000E+000	Final Freq. (Hz)
PTSPERDEC	QUANT	1.00000E+001	Points/decade
VAC	QUANT	5.00000E+001	AC Voltage (mV rms)
AREA	QUANT	1.00000E+000	Sample Area (cm^2)
SPEED	SELECTOR	2	Optimize for:
ZGUESS	QUANT	1.00000E+003	Estimated Z (ohms)
EOC	QUANT	0	Open Circuit (V)
SEQUENCER	TOGGLE	TRUE	Run as Sequence
PSTATMODEL	IQUANT	5	Pstat Model
PSTATSECTION	LABEL	REF3000-16137	Pstat Section
PSTATSERIALNO	LABEL	16137	Pstat Serial Number
CTRLMODE	IQUANT	1	Control Mode
IESTAB	IQUANT	0	I/E Stability
CASPEED	IQUANT	1	Control Amp Speed
CONVENTION	IQUANT	1	Current Convention
ICHRANGE	IQUANT	2	Ich Range
ICHRANGEMODE	TOGGLE	F	Ich Auto Range
ICHOFFSETENABLE	TOGGLE	T	Ich Offset Enable
ICHOFFSET	QUANT	0	Ich Offset (V)
ICHFILTER	IQUANT	3	Ich Filter
VCHRANGE	IQUANT	2	Vch Range
VCHRANGEMODE	TOGGLE	F	Vch Auto Range
VCHOFFSETENABLE	TOGGLE	T	Vch Offset Enable
VCHOFFSET	QUANT	0	Vch Offset (V)
VCHFILTER	IQUANT	3	Vch Filter
ACHRANGE	IQUANT	2	Ach Range
ACHOFFSETENABLE	TOGGLE	F	Ach Offset Enable
ACHOFFSET	QUANT	0	Ach Offset (V)
ACHFILTER	IQUANT	3	Ach Filter
IERANGELOWERLIMIT	IQUANT	2	I/E Range Lower Limit
IERANGEMODE	TOGGLE	F	I/E AutoRange
IERANGE	IQUANT	11	I/E Range
POSFEEDENABLE	TOGGLE	F	Positive Feedback IR Comp
POSFEEDRESISTANCE	QUANT	0	Positive Feedback Resistance (ohm)
ACHSELECT	IQUANT	0	Ach Select
CABLEID	IQUANT	13	Cable ID
DCCALDATE	LABEL	7/31/2020	DC Calibration Date
ACCALDATE	LABEL	7/31/2020	AC Calibration Date
THERMOSELECT	IQUANT	1	Thermo Select
FRAMEWORKVERSION	QUANT	6.33	Framework Version
INSTRUMENTVERSION	LABEL	3.50	Instrument Version
COMPLIANCEVOLTAGE	IQUANT	0	Compliance Voltage
ZCURVE	TABLE
	Pt	Time	Freq	Zreal	Zimag	Zsig	Zmod	Zphz	Idc	Vdc	IERange
	#	s	Hz	ohm	ohm	V	ohm	°	A	V	#
	0	8	300046.9	20.05842	2.011789	1	20.15905	5.727412	-2.187322E-005	0.0002923	10
	1	11	238359.4	20.07718	1.581209	1	20.13935	4.503124	1.423032E-005	0.0002316	10
	2	14	189328.1	20.08055	1.243446	1	20.11901	3.543397	-1.220673E-006	0.0005767	10
	3	17	150421.9	20.11201	0.968402	1	20.13531	2.756687	-0.0001014	0.0005788	10
	4	19	119484.4	20.09951	0.7443826	1	20.11329	2.120972	-1.709114E-005	0.0006847	10
	5	22	94921.88	20.10843	0.5643951	1	20.11635	1.607732	-2.335343E-005	0.0006364	10
	6	24	75421.88	20.12862	0.3964705	1	20.13252	1.128401	-2.273083E-005	0.0007056	10
	7	27	59859.37	20.14937	0.2505517	1	20.15093	0.7124202	-4.649502E-006	0.000598	10
	8	30	47578.12	20.16973	0.1260108	1	20.17012	0.3579519	2.191711E-005	0.0006153	10
	9	32	37828.12	20.19412	0.0081741	1	20.19413	0.0231919	1.275145E-005	0.0005851	10
	10	35	30046.88	20.21662	-0.1062753	1	20.2169	-0.3011914	-2.464708E-005	0.0006815	10
	11	37	23859.38	20.24368	-0.2236976	1	20.24492	-0.6331065	-4.851414E-006	0.0006124	10
	12	39	18984.38	20.26685	-0.353154	1	20.26993	-0.99829	2.432122E-005	0.0006224	10
	13	42	15046.87	20.29383	-0.4963979	1	20.29991	-1.401206	-2.412875E-005	0.0007329	10
	14	44	11953.13	20.32243	-0.6595328	1	20.33313	-1.858793	2.206984E-005	0.0006261	10
	15	46	9515.62	20.35892	-0.8493243	1	20.37663	-2.388854	5.028262E-006	0.0005889	10
	16	49	7546.875	20.39855	-1.083866	1	20.42733	-3.041519	2.250105E-005	0.0005974	10
	17	51	5928.309	20.45097	-1.382169	1	20.49762	-3.86643	-2.284525E-005	0.000699	10
	18	53	4733.456	20.50389	-1.715338	1	20.57552	-4.78218	-2.424905E-005	0.000663	10
	19	56	3796.875	20.55908	-2.11868	1	20.66796	-5.883747	-2.640435E-005	0.0006986	10
	20	58	2987.132	20.64102	-2.65885	1	20.81156	-7.340074	-1.865809E-005	0.0006459	10
	21	60	2390.625	20.72839	-3.284474	1	20.987	-9.003828	2.412828E-005	0.000663	10
	22	63	1884.191	20.83805	-4.099569	1	21.23748	-11.12993	-1.737068E-005	0.0006483	10
	23	65	1516.544	20.96949	-5.022388	1	21.56256	-13.46915	1.835533E-005	0.000592	10
	24	67	1193.986	21.13838	-6.27367	1	22.04972	-16.53039	1.293617E-005	0.0005861	10
	25	70	946.5144	21.34906	-7.780183	1	22.72254	-20.02313	2.093481E-005	0.000619	10
	26	72	751.7689	21.60424	-9.63529	1	23.65549	-24.03642	-2.883172E-005	0.0006924	10
	27	74	597.4265	21.93451	-11.91781	1	24.96311	-28.51683	2.372203E-005	0.0006426	10
	28	77	477.4305	22.3298	-14.64198	1	26.7022	-33.25344	-3.077264E-006	0.0006574	10
	29	79	376.6741	22.85876	-18.20446	1	29.222	-38.53341	-2.448153E-006	0.0006579	10
	30	81	298.2954	23.51908	-22.54312	1	32.57821	-43.78621	-2.545375E-006	0.000663	10
	31	84	237.7717	24.33323	-27.73576	1	36.89687	-48.73877	-2.522341E-006	0.0006625	10
	32	86	189.0121	25.35053	-34.14757	1	42.52888	-53.41048	1.105828E-006	5.872633E-005	9
	33	89	150.2404	26.68162	-42.05847	1	49.80787	-57.60923	1.073373E-006	5.12818E-005	9
	34	91	119.1737	28.388	-51.85003	1	59.11264	-61.29921	1.069506E-006	6.877531E-005	9
	35	93	95.0169	30.48969	-63.54918	1	70.48489	-64.36919	1.116471E-006	5.676641E-005	9
	36	96	75.60484	33.12431	-77.94097	1	84.68775	-66.97488	1.103736E-006	5.512678E-005	9
	37	98	54.50582	37.97229	-104.2275	1	110.9291	-69.98224	8.05461E-007	0.0000982	9
	38	101	45.95588	41.08781	-121.2297	1	128.0033	-71.27718	1.10624E-006	6.118928E-005	9
	39	103	37.20238	45.60636	-146.1642	1	153.1141	-72.67096	1.091571E-006	6.361865E-005	9
	40	106	30.04808	51.03389	-176.6118	1	183.8374	-73.88278	1.014658E-006	5.690031E-005	9
	41	108	23.91582	58.04877	-216.3114	1	223.9649	-74.97818	1.108191E-006	5.700941E-005	9
	42	111	18.60119	67.5082	-270.5807	1	278.8751	-75.99106	1.044603E-006	6.760316E-005	9
	43	113	15.02404	77.63356	-327.5431	1	336.6177	-76.66594	1.113358E-006	9.287611E-005	9
	44	115	12.01923	90.66284	-400.1602	1	410.3023	-77.23422	1.352179E-006	5.976498E-005	9
	45	118	9.450605	108.0842	-494.5573	1	506.2303	-77.672	4.652454E-007	0.0006245	8
	46	120	7.512019	130.2542	-607.8947	1	621.6929	-77.90604	5.284297E-007	0.0006466	8
	47	123	5.978954	158.3928	-745.7023	1	762.3387	-78.00817	5.245962E-007	0.0006407	8
	48	126	4.734848	196.7802	-919.2153	1	940.0421	-77.91683	4.707817E-007	0.0006382	8
	49	129	3.75601	246.2774	-1129.066	1	1155.614	-77.6951	5.014894E-007	0.0006436	8
	50	133	3.004808	308.7757	-1373.314	1	1407.598	-77.32835	4.505375E-007	0.0006612	8
	51	136	2.372217	399.0226	-1685.306	1	1731.9	-76.67962	4.611441E-007	0.0005954	8
	52	141	1.878005	514.113	-2065.187	1	2128.217	-76.02079	5.257136E-007	0.0006275	8
	53	145	1.512097	649.5266	-2477.989	1	2561.701	-75.31215	4.685911E-007	0.0006876	8
	54	151	1.201923	845.3375	-3006.718	1	3123.291	-74.29669	5.053699E-007	0.0006526	8
	55	157	0.956633	1091.588	-3622.624	1	3783.512	-73.23111	4.384094E-007	-1.169677E-006	8
