EXPLAIN
TAG	EISPOT
TITLE	LABEL	Potentiostatic EIS	Test Identifier
DATE	LABEL	9/21/2020	Date
TIME	LABEL	23:18:16	Time
NOTES	NOTES	1	Notes...
	
PSTAT	PSTAT	REF3000-16137	Potentiostat
VDC	POTEN	0.00000E+000	T	DC Voltage (V)
FREQINIT	QUANT	3.00000E+005	Initial Freq. (Hz)
FREQFINAL	QUANT	1.00000E+000	Final Freq. (Hz)
PTSPERDEC	QUANT	1.00000E+001	Points/decade
VAC	QUANT	5.00000E+001	AC Voltage (mV rms)
AREA	QUANT	1.00000E+000	Sample Area (cm^2)
SPEED	SELECTOR	2	Optimize for:
ZGUESS	QUANT	1.00000E+003	Estimated Z (ohms)
EOC	QUANT	0	Open Circuit (V)
SEQUENCER	TOGGLE	TRUE	Run as Sequence
PSTATMODEL	IQUANT	5	Pstat Model
PSTATSECTION	LABEL	REF3000-16137	Pstat Section
PSTATSERIALNO	LABEL	16137	Pstat Serial Number
CTRLMODE	IQUANT	1	Control Mode
IESTAB	IQUANT	0	I/E Stability
CASPEED	IQUANT	1	Control Amp Speed
CONVENTION	IQUANT	1	Current Convention
ICHRANGE	IQUANT	2	Ich Range
ICHRANGEMODE	TOGGLE	F	Ich Auto Range
ICHOFFSETENABLE	TOGGLE	T	Ich Offset Enable
ICHOFFSET	QUANT	0	Ich Offset (V)
ICHFILTER	IQUANT	3	Ich Filter
VCHRANGE	IQUANT	2	Vch Range
VCHRANGEMODE	TOGGLE	F	Vch Auto Range
VCHOFFSETENABLE	TOGGLE	T	Vch Offset Enable
VCHOFFSET	QUANT	0	Vch Offset (V)
VCHFILTER	IQUANT	3	Vch Filter
ACHRANGE	IQUANT	2	Ach Range
ACHOFFSETENABLE	TOGGLE	F	Ach Offset Enable
ACHOFFSET	QUANT	0	Ach Offset (V)
ACHFILTER	IQUANT	3	Ach Filter
IERANGELOWERLIMIT	IQUANT	2	I/E Range Lower Limit
IERANGEMODE	TOGGLE	F	I/E AutoRange
IERANGE	IQUANT	11	I/E Range
POSFEEDENABLE	TOGGLE	F	Positive Feedback IR Comp
POSFEEDRESISTANCE	QUANT	0	Positive Feedback Resistance (ohm)
ACHSELECT	IQUANT	0	Ach Select
CABLEID	IQUANT	13	Cable ID
DCCALDATE	LABEL	7/31/2020	DC Calibration Date
ACCALDATE	LABEL	7/31/2020	AC Calibration Date
THERMOSELECT	IQUANT	1	Thermo Select
FRAMEWORKVERSION	QUANT	6.33	Framework Version
INSTRUMENTVERSION	LABEL	3.50	Instrument Version
COMPLIANCEVOLTAGE	IQUANT	0	Compliance Voltage
ZCURVE	TABLE
	Pt	Time	Freq	Zreal	Zimag	Zsig	Zmod	Zphz	Idc	Vdc	IERange
	#	s	Hz	ohm	ohm	V	ohm	°	A	V	#
	0	10	300046.9	5.484495	2.230747	1	5.920804	22.13339	2.937693E-005	0.000258	10
	1	13	238359.4	5.461734	1.776735	1	5.743459	18.02002	7.083981E-005	-0.0003483	10
	2	17	189328.1	5.442258	1.402904	1	5.62017	14.455	2.507121E-005	0.0001181	10
	3	19	150421.9	5.426325	1.091848	1	5.535082	11.37675	2.054285E-005	0.0004155	10
	4	22	119484.4	5.422545	0.852819	1	5.489198	8.937857	-8.959899E-005	0.0004682	10
	5	24	94921.88	5.420334	0.6667136	1	5.461184	7.01229	1.535295E-005	0.0004701	10
	6	27	75421.88	5.415561	0.4907125	1	5.437747	5.177522	-1.091946E-005	0.0005383	10
	7	29	59859.37	5.414749	0.3384733	1	5.425317	3.576877	1.177397E-005	0.0005579	10
	8	32	47578.12	5.417997	0.2070036	1	5.42195	2.188016	2.014221E-006	0.0005613	10
	9	34	37828.12	5.422445	0.0878854	1	5.423158	0.9285515	5.12484E-006	0.0005888	10
	10	37	30046.88	5.428124	-0.0242702	1	5.428178	-0.2561792	5.026749E-006	0.0006048	10
	11	39	23859.38	5.436312	-0.1352089	1	5.437993	-1.424735	3.827689E-006	0.0006052	10
	12	42	18984.38	5.445916	-0.2492073	1	5.451615	-2.62005	-2.155772E-005	0.0006742	10
	13	44	15046.87	5.455738	-0.376488	1	5.468713	-3.947592	2.194223E-006	0.000628	10
	14	46	11953.13	5.470087	-0.5190163	1	5.494655	-5.420148	1.983343E-005	0.000657	10
	15	49	9515.62	5.487043	-0.6833383	1	5.529429	-7.098879	-4.537234E-006	0.0006935	10
	16	51	7546.875	5.508039	-0.8822628	1	5.578251	-9.100182	-2.271464E-005	0.0006494	10
	17	53	5928.309	5.53624	-1.132	1	5.650785	-11.55603	-2.48364E-005	0.0006816	10
	18	56	4733.456	5.56914	-1.41626	1	5.7464	-14.26815	-2.658154E-005	0.0006875	10
	19	58	3796.875	5.609343	-1.755468	1	5.877618	-17.37773	-2.604482E-005	0.0006608	10
	20	60	2987.132	5.665782	-2.207475	1	6.080627	-21.28665	1.883194E-005	0.0006275	10
	21	62	2390.625	5.732348	-2.726143	1	6.347572	-25.43444	2.121608E-005	0.0006509	10
	22	65	1884.191	5.823992	-3.406264	1	6.746964	-30.32198	-2.764635E-005	0.0006806	10
	23	67	1516.544	5.929185	-4.168076	1	7.247626	-35.1063	1.984123E-005	0.0006333	10
	24	69	1193.986	6.07769	-5.201641	1	7.999711	-40.55884	1.943307E-005	0.0006425	10
	25	72	946.5144	6.260492	-6.446684	1	8.986296	-45.83947	-2.812839E-005	0.000709	10
	26	74	751.7689	6.501351	-7.95985	1	10.27749	-50.75915	-6.526283E-006	0.0006354	10
	27	77	597.4265	6.80063	-9.81506	1	11.94085	-55.28279	1.98301E-005	0.000652	10
	28	79	477.4305	7.179792	-12.02967	1	14.00937	-59.16954	-3.47558E-006	0.0006696	10
	29	81	376.6741	7.684618	-14.89402	1	16.75963	-62.70837	-3.631841E-006	0.0006623	10
	30	83	298.2954	8.306983	-18.35453	1	20.14683	-65.64922	-3.519032E-006	0.0006726	10
	31	86	237.7717	9.052824	-22.46443	1	24.21992	-68.05132	-3.383623E-006	0.0006619	10
	32	88	189.0121	9.97344	-27.54708	1	29.29694	-70.09718	-3.852158E-006	0.0007099	10
	33	91	150.2404	11.08475	-33.77097	1	35.54364	-71.82845	-3.47585E-006	0.0006708	10
	34	93	119.1737	12.43152	-41.43695	1	43.26157	-73.30021	3.330391E-007	6.594316E-005	9
	35	95	95.0169	14.05026	-50.69638	1	52.60734	-74.50954	2.670446E-007	6.054416E-005	9
	36	98	75.60484	16.05552	-62.175	1	64.21456	-75.52075	2.171686E-007	6.097841E-005	9
	37	101	54.50582	19.8229	-83.36115	1	85.68563	-76.62376	5.786632E-008	5.591393E-005	9
	38	103	45.95588	22.35699	-97.1725	1	99.7112	-77.04313	4.335593E-007	6.428309E-005	9
	39	105	37.20238	26.20477	-117.4789	1	120.366	-77.42549	2.123471E-007	6.751528E-005	9
	40	108	30.04808	31.18448	-142.3851	1	145.7601	-77.64642	3.431608E-007	5.510318E-005	9
	41	110	23.91582	37.99244	-174.6287	1	178.7138	-77.72593	3.288816E-007	5.849395E-005	9
	42	113	18.60119	48.0841	-218.6057	1	223.8315	-77.59487	5.266768E-007	6.822792E-005	9
	43	115	15.02404	59.46851	-264.251	1	270.8599	-77.31713	2.043081E-007	6.563684E-005	9
	44	117	12.01923	75.16164	-321.5384	1	330.2063	-76.84299	5.756555E-007	6.171765E-005	9
	45	120	9.450605	97.5279	-396.3023	1	408.1264	-76.17455	2.552596E-007	6.438045E-005	9
	46	122	7.512019	125.7896	-480.4359	1	496.6303	-75.32794	-4.58587E-007	0.0006321	8
	47	125	5.978954	163.0088	-582.1779	1	604.5684	-74.35785	-3.92052E-007	0.0006427	8
	48	128	4.734848	213.647	-705.339	1	736.9858	-73.14845	-3.501623E-007	0.0006193	8
	49	131	3.75601	279.2152	-849.1812	1	893.907	-71.79887	-1.547324E-007	0.0006602	8
	50	135	3.004808	360.8082	-1009.876	1	1072.396	-70.33923	-1.62975E-007	0.0006306	8
	51	138	2.372217	473.5428	-1207.319	1	1296.867	-68.58356	-2.653118E-007	0.0005667	8
	52	142	1.878005	613.4788	-1430.657	1	1556.642	-66.78989	-2.011103E-007	0.0006599	8
	53	147	1.512097	777.4604	-1659.677	1	1832.75	-64.89969	-2.002309E-007	0.0005829	8
	54	153	1.201923	996.807	-1936.894	1	2178.344	-62.76773	-2.380236E-007	0.0006704	8
	55	159	0.956633	1266.586	-2233.737	1	2567.844	-60.44566	-3.945275E-007	2.23413E-006	8
