EXPLAIN
TAG	EISPOT
TITLE	LABEL	Potentiostatic EIS	Test Identifier
DATE	LABEL	9/22/2020	Date
TIME	LABEL	1:59:08	Time
NOTES	NOTES	1	Notes...
	
PSTAT	PSTAT	REF3000-16137	Potentiostat
VDC	POTEN	0.00000E+000	T	DC Voltage (V)
FREQINIT	QUANT	3.00000E+005	Initial Freq. (Hz)
FREQFINAL	QUANT	1.00000E+000	Final Freq. (Hz)
PTSPERDEC	QUANT	1.00000E+001	Points/decade
VAC	QUANT	5.00000E+001	AC Voltage (mV rms)
AREA	QUANT	1.00000E+000	Sample Area (cm^2)
SPEED	SELECTOR	2	Optimize for:
ZGUESS	QUANT	1.00000E+003	Estimated Z (ohms)
EOC	QUANT	0	Open Circuit (V)
SEQUENCER	TOGGLE	TRUE	Run as Sequence
PSTATMODEL	IQUANT	5	Pstat Model
PSTATSECTION	LABEL	REF3000-16137	Pstat Section
PSTATSERIALNO	LABEL	16137	Pstat Serial Number
CTRLMODE	IQUANT	1	Control Mode
IESTAB	IQUANT	0	I/E Stability
CASPEED	IQUANT	1	Control Amp Speed
CONVENTION	IQUANT	1	Current Convention
ICHRANGE	IQUANT	2	Ich Range
ICHRANGEMODE	TOGGLE	F	Ich Auto Range
ICHOFFSETENABLE	TOGGLE	T	Ich Offset Enable
ICHOFFSET	QUANT	0	Ich Offset (V)
ICHFILTER	IQUANT	3	Ich Filter
VCHRANGE	IQUANT	2	Vch Range
VCHRANGEMODE	TOGGLE	F	Vch Auto Range
VCHOFFSETENABLE	TOGGLE	T	Vch Offset Enable
VCHOFFSET	QUANT	0	Vch Offset (V)
VCHFILTER	IQUANT	3	Vch Filter
ACHRANGE	IQUANT	2	Ach Range
ACHOFFSETENABLE	TOGGLE	F	Ach Offset Enable
ACHOFFSET	QUANT	0	Ach Offset (V)
ACHFILTER	IQUANT	3	Ach Filter
IERANGELOWERLIMIT	IQUANT	2	I/E Range Lower Limit
IERANGEMODE	TOGGLE	F	I/E AutoRange
IERANGE	IQUANT	11	I/E Range
POSFEEDENABLE	TOGGLE	F	Positive Feedback IR Comp
POSFEEDRESISTANCE	QUANT	0	Positive Feedback Resistance (ohm)
ACHSELECT	IQUANT	0	Ach Select
CABLEID	IQUANT	13	Cable ID
DCCALDATE	LABEL	7/31/2020	DC Calibration Date
ACCALDATE	LABEL	7/31/2020	AC Calibration Date
THERMOSELECT	IQUANT	1	Thermo Select
FRAMEWORKVERSION	QUANT	6.33	Framework Version
INSTRUMENTVERSION	LABEL	3.50	Instrument Version
COMPLIANCEVOLTAGE	IQUANT	0	Compliance Voltage
ZCURVE	TABLE
	Pt	Time	Freq	Zreal	Zimag	Zsig	Zmod	Zphz	Idc	Vdc	IERange
	#	s	Hz	ohm	ohm	V	ohm	°	A	V	#
	0	7	300046.9	81.85914	1.422031	1	81.87149	0.995224	-1.08339E-005	0.0004438	9
	1	10	238359.4	82.10149	0.968791	1	82.10721	0.6760539	-9.666718E-006	0.0005549	9
	2	13	189328.1	82.32342	0.6961648	1	82.32636	0.484508	-2.914107E-005	-0.0004084	9
	3	16	150421.9	82.58442	0.4149629	1	82.58546	0.2878923	-6.880415E-006	0.001144	9
	4	18	119484.4	82.52345	0.281336	1	82.52393	0.19533	-6.33695E-005	0.0026053	9
	5	21	94921.88	82.76128	0.4406852	1	82.76245	0.3050843	-1.831531E-005	0.0005509	9
	6	23	75421.88	82.80705	0.2558458	1	82.80745	0.177024	5.219417E-006	-0.0005109	9
	7	26	59859.37	82.94225	0.0474818	1	82.94227	0.0328	2.285506E-005	-0.0004257	9
	8	28	47578.12	83.07669	-0.1002466	1	83.07675	-0.0691374	-1.567787E-005	0.0003481	9
	9	31	37828.12	83.18278	-0.2189181	1	83.18307	-0.1507891	-1.955982E-005	0.0007522	9
	10	33	30046.88	83.31485	-0.2948552	1	83.31537	-0.2027717	1.643593E-005	-0.0001709	9
	11	36	23859.38	83.43661	-0.409481	1	83.43761	-0.2811877	1.197989E-005	-0.0006123	9
	12	38	18984.38	83.56099	-0.5415227	1	83.56274	-0.371304	-2.090752E-005	0.0007646	9
	13	40	15046.87	83.6861	-0.6566913	1	83.68868	-0.4495951	-1.83207E-005	0.0004324	9
	14	43	11953.13	83.73945	-0.859807	1	83.74387	-0.5882721	-1.492683E-005	0.0007767	9
	15	45	9515.62	83.8953	-1.06634	1	83.90208	-0.7282111	1.168804E-005	-0.0006091	9
	16	47	7546.875	84.02472	-1.303302	1	84.03483	-0.8886399	-1.524376E-005	0.000354	9
	17	50	5928.309	84.16509	-1.709992	1	84.18246	-1.163925	-1.562545E-005	0.0007524	9
	18	52	4733.456	84.37846	-2.076549	1	84.40401	-1.409761	1.147196E-005	0.0001307	9
	19	54	3796.875	84.4488	-2.474028	1	84.48503	-1.678068	5.477054E-006	-0.0004571	9
	20	57	2987.132	84.57906	-3.205572	1	84.63979	-2.170488	2.023015E-005	-0.0002394	9
	21	59	2390.625	84.80084	-3.892559	1	84.89014	-2.628167	-1.377732E-005	0.0001482	9
	22	61	1884.191	85.07526	-4.928107	1	85.21787	-3.315236	2.157325E-005	-0.000285	9
	23	64	1516.544	85.25326	-5.890592	1	85.45652	-3.952582	1.816173E-005	-0.0006799	9
	24	66	1193.986	85.51633	-7.425652	1	85.83812	-4.962725	1.717407E-005	-0.0001092	9
	25	68	946.5144	85.84985	-9.181009	1	86.33938	-6.104161	-1.68259E-005	0.0003633	9
	26	71	751.7689	86.16562	-11.33608	1	86.90812	-7.494876	-1.336278E-005	0.0001426	9
	27	73	597.4265	86.60219	-14.02846	1	87.73105	-9.201266	-1.753638E-005	0.0004342	9
	28	75	477.4305	87.15345	-17.28194	1	88.85037	-11.21587	1.237904E-006	6.405277E-005	9
	29	78	376.6741	87.80565	-21.51327	1	90.40273	-13.76685	1.159696E-006	5.976438E-005	9
	30	80	298.2954	88.59683	-26.6789	1	92.52655	-16.75846	1.157876E-006	5.624897E-005	9
	31	82	237.7717	89.55443	-32.87553	1	95.3981	-20.15824	1.129248E-006	5.420482E-005	9
	32	85	189.0121	90.75072	-40.59307	1	99.4157	-24.09911	1.139223E-006	5.316037E-005	9
	33	87	150.2404	92.24265	-50.096	1	104.9682	-28.50591	1.205593E-006	5.783109E-005	9
	34	90	119.1737	94.11869	-61.90645	1	112.6532	-33.33487	1.075068E-006	5.817959E-005	9
	35	92	95.0169	96.4102	-76.09614	1	122.8232	-38.28388	1.153242E-006	5.495239E-005	9
	36	95	75.60484	99.2992	-93.66891	1	136.5072	-43.32873	1.247087E-006	5.453288E-005	9
	37	97	54.50582	104.7245	-126.0006	1	163.8395	-50.2686	1.153581E-006	5.355073E-005	9
	38	100	45.95588	108.3924	-147.0126	1	182.6516	-53.59866	1.171391E-006	6.202486E-005	9
	39	102	37.20238	113.8744	-177.8232	1	211.1598	-57.36533	1.188245E-006	6.335512E-005	9
	40	104	30.04808	120.744	-215.4178	1	246.9493	-60.7289	1.158331E-006	5.953665E-005	9
	41	107	23.91582	129.8865	-264.1819	1	294.3851	-63.8187	1.264154E-006	5.532203E-005	9
	42	109	18.60119	142.4878	-330.2685	1	359.6944	-66.66317	1.312235E-006	5.932218E-005	9
	43	112	15.02404	154.9961	-397.3091	1	426.4719	-68.68851	3.015856E-007	0.0006437	8
	44	114	12.01923	171.5501	-483.6111	1	513.1366	-70.46901	1.357662E-007	0.0006327	8
	45	116	9.450605	193.1302	-597.7546	1	628.1798	-72.09473	2.493837E-007	0.000641	8
	46	119	7.512019	218.015	-731.8505	1	763.6332	-73.41145	2.795444E-007	0.0006422	8
	47	122	5.978954	247.5238	-895.3975	1	928.9805	-74.54707	2.714283E-007	0.0006345	8
	48	125	4.734848	284.2578	-1101.999	1	1138.07	-75.536	1.992487E-007	0.0006137	8
	49	128	3.75601	330.053	-1353.509	1	1393.17	-76.29588	2.558417E-007	0.0006729	8
	50	131	3.004808	384.7468	-1650.734	1	1694.978	-76.87994	2.484205E-007	0.0006282	8
	51	135	2.372217	460.3842	-2041.217	1	2092.491	-77.28996	2.273409E-007	0.0005648	8
	52	139	1.878005	551.6965	-2516.478	1	2576.243	-77.63448	2.679667E-007	0.000635	8
	53	144	1.512097	663.6096	-3046.939	1	3118.367	-77.71311	2.307231E-007	0.0005963	8
	54	149	1.201923	815.5005	-3749.993	1	3837.641	-77.73107	2.505655E-007	0.0006611	8
	55	156	0.956633	1015.419	-4602.035	1	4712.728	-77.5573	-1.661165E-008	-3.348518E-005	7
