EXPLAIN
TAG	EISPOT
TITLE	LABEL	Potentiostatic EIS	Test Identifier
DATE	LABEL	9/22/2020	Date
TIME	LABEL	4:11:50	Time
NOTES	NOTES	1	Notes...
	
PSTAT	PSTAT	REF3000-16137	Potentiostat
VDC	POTEN	0.00000E+000	T	DC Voltage (V)
FREQINIT	QUANT	3.00000E+005	Initial Freq. (Hz)
FREQFINAL	QUANT	1.00000E+000	Final Freq. (Hz)
PTSPERDEC	QUANT	1.00000E+001	Points/decade
VAC	QUANT	5.00000E+001	AC Voltage (mV rms)
AREA	QUANT	1.00000E+000	Sample Area (cm^2)
SPEED	SELECTOR	2	Optimize for:
ZGUESS	QUANT	1.00000E+003	Estimated Z (ohms)
EOC	QUANT	0	Open Circuit (V)
SEQUENCER	TOGGLE	TRUE	Run as Sequence
PSTATMODEL	IQUANT	5	Pstat Model
PSTATSECTION	LABEL	REF3000-16137	Pstat Section
PSTATSERIALNO	LABEL	16137	Pstat Serial Number
CTRLMODE	IQUANT	1	Control Mode
IESTAB	IQUANT	0	I/E Stability
CASPEED	IQUANT	1	Control Amp Speed
CONVENTION	IQUANT	1	Current Convention
ICHRANGE	IQUANT	2	Ich Range
ICHRANGEMODE	TOGGLE	F	Ich Auto Range
ICHOFFSETENABLE	TOGGLE	T	Ich Offset Enable
ICHOFFSET	QUANT	0	Ich Offset (V)
ICHFILTER	IQUANT	3	Ich Filter
VCHRANGE	IQUANT	2	Vch Range
VCHRANGEMODE	TOGGLE	F	Vch Auto Range
VCHOFFSETENABLE	TOGGLE	T	Vch Offset Enable
VCHOFFSET	QUANT	0	Vch Offset (V)
VCHFILTER	IQUANT	3	Vch Filter
ACHRANGE	IQUANT	2	Ach Range
ACHOFFSETENABLE	TOGGLE	F	Ach Offset Enable
ACHOFFSET	QUANT	0	Ach Offset (V)
ACHFILTER	IQUANT	3	Ach Filter
IERANGELOWERLIMIT	IQUANT	2	I/E Range Lower Limit
IERANGEMODE	TOGGLE	F	I/E AutoRange
IERANGE	IQUANT	11	I/E Range
POSFEEDENABLE	TOGGLE	F	Positive Feedback IR Comp
POSFEEDRESISTANCE	QUANT	0	Positive Feedback Resistance (ohm)
ACHSELECT	IQUANT	0	Ach Select
CABLEID	IQUANT	13	Cable ID
DCCALDATE	LABEL	7/31/2020	DC Calibration Date
ACCALDATE	LABEL	7/31/2020	AC Calibration Date
THERMOSELECT	IQUANT	1	Thermo Select
FRAMEWORKVERSION	QUANT	6.33	Framework Version
INSTRUMENTVERSION	LABEL	3.50	Instrument Version
COMPLIANCEVOLTAGE	IQUANT	0	Compliance Voltage
ZCURVE	TABLE
	Pt	Time	Freq	Zreal	Zimag	Zsig	Zmod	Zphz	Idc	Vdc	IERange
	#	s	Hz	ohm	ohm	V	ohm	°	A	V	#
	0	19	300046.9	448.8674	-4100.325	1	4124.821	-83.75264	9.063902E-005	-0.002722	9
	1	34	238359.4	710.8621	-5013.777	1	5063.92	-81.93029	8.163252E-005	-0.0015878	9
	2	51	189328.1	770.702	-6048.952	1	6097.852	-82.73902	2.271912E-005	-0.0008608	9
	3	61	150421.9	3139.373	-8102.037	1	8688.996	-68.81967	2.077564E-005	-0.0003746	9
	4	68	119484.4	2461.056	-9197.124	1	9520.71	-75.01922	-8.495916E-005	0.0223291	8
	5	77	94921.88	3398.034	-11220.99	1	11724.22	-73.1522	-1.595879E-005	0.000634	8
	6	85	75421.88	4551.888	-13530.74	1	14275.88	-71.40651	2.580092E-005	-0.0051382	8
	7	94	59859.37	6153.355	-16511.86	1	17621.16	-69.56145	2.590139E-005	-0.0089381	8
	8	103	47578.12	7634.6	-19808.13	1	21228.49	-68.92196	2.707324E-005	-0.0073743	8
	9	111	37828.12	12070.97	-21842.5	1	24956.02	-61.07333	-2.688995E-005	0.0009243	9
	10	121	30046.88	16988.62	-27029.29	1	31924.84	-57.84956	1.622518E-005	-0.0092977	8
	11	129	23859.38	24191.92	-28280.42	1	37216.01	-49.45533	2.623528E-006	0.0083349	7
	12	135	18984.38	29912.84	-29581.91	1	42069.79	-44.6813	6.350746E-006	-0.0097243	7
	13	140	15046.87	36702.52	-30370.1	1	47638.41	-39.60661	3.796379E-007	0.0157643	7
	14	145	11953.13	43191.44	-30282.7	1	52749.8	-35.03535	6.356979E-006	-0.0096908	7
	15	151	9515.62	48833.47	-28644.07	1	56614.41	-30.39445	-3.22999E-006	-0.0051128	7
	16	156	7546.875	54577.37	-25966.52	1	60439.63	-25.44391	-5.11131E-006	0.0259277	7
	17	161	5928.309	60069.05	-23703.21	1	64576.57	-21.53416	-5.187975E-006	0.0257687	7
	18	167	4733.456	58986.19	-19891.48	1	62249.83	-18.63527	4.455127E-007	0.0157234	7
	19	172	3796.875	69711.73	-10931.1	1	70563.55	-8.911658	-7.268393E-007	0.0223984	6
	20	176	2987.132	70915.49	-12721.84	1	72047.57	-10.17036	3.395219E-006	-0.0238511	7
	21	182	2390.625	68582.07	-10869.18	1	69438.02	-9.005583	-3.709182E-006	0.024743	7
	22	187	1884.191	68997.37	-9535.1	1	69653.1	-7.868165	-7.010393E-006	0.0227459	7
	23	192	1516.544	69401.05	-6277.98	1	69684.42	-5.168877	-6.508455E-006	0.0115034	7
	24	198	1193.986	72167.35	-6406.437	1	72451.15	-5.07296	7.286005E-006	-0.0177854	7
	25	203	946.5144	73110.9	10418.02	1	73849.43	8.109828	-2.639938E-005	0.0094988	8
	26	209	751.7689	84508.27	4968.719	1	84654.21	3.364869	7.842491E-006	-0.0075528	8
	27	216	597.4265	75989.03	-2705.244	1	76037.17	-2.038895	2.983994E-007	0.0163711	7
	28	221	477.4305	75985.02	-1807.304	1	76006.51	-1.362523	-1.196731E-008	0.0006342	6
	29	223	376.6741	76356.54	-1466.303	1	76370.62	-1.100137	-1.299094E-008	0.0006979	6
	30	226	298.2954	76556.41	-1186.25	1	76565.6	-0.8877337	-1.244572E-008	0.0006537	6
	31	228	237.7717	76836.83	-1012.575	1	76843.5	-0.7550147	-1.303054E-008	0.0006813	6
	32	230	189.0121	77210.11	-870.3978	1	77215.02	-0.6458741	-1.356429E-008	0.0006837	6
	33	233	150.2404	77385.8	-724.5445	1	77389.2	-0.5364308	-1.301092E-008	0.0006872	6
	34	235	119.1737	77505.59	-609.9601	1	77507.99	-0.4509019	-1.19644E-008	0.0006197	6
	35	238	95.0169	77995.11	-595.8745	1	77997.38	-0.4377253	-1.274268E-008	0.0006317	6
	36	240	75.60484	78281.49	-600.1791	1	78283.79	-0.4392744	-1.246862E-008	0.0006106	6
	37	243	54.50582	78674.23	-648.9935	1	78676.91	-0.4726293	-1.262891E-008	0.0006175	6
	38	245	45.95588	78865.38	-584.975	1	78867.55	-0.4249772	-1.154938E-008	0.0006855	6
	39	248	37.20238	79172.59	-610.2227	1	79174.95	-0.4415984	-1.005606E-008	0.0006409	6
	40	250	30.04808	79385.65	-663.4724	1	79388.42	-0.4788433	-9.139129E-009	0.0006915	6
	41	252	23.91582	79744.67	-792.9299	1	79748.62	-0.5696937	-1.012407E-008	0.0006176	6
	42	255	18.60119	80099.52	-875.8101	1	80104.31	-0.6264485	-1.121018E-008	0.0006471	6
	43	257	15.02404	80247.32	-1054.237	1	80254.24	-0.7526711	-6.313112E-009	0.0006476	6
	44	259	12.01923	80641.17	-1256.002	1	80650.95	-0.8923206	-1.057247E-008	0.0006919	6
	45	262	9.450605	80870.7	-1490.511	1	80884.43	-1.055887	-5.059895E-009	0.0006885	6
	46	264	7.512019	81307.84	-1853.656	1	81328.96	-1.306003	-1.90982E-009	0.000698	6
	47	267	5.978954	81679.93	-2284.8	1	81711.88	-1.602294	-1.795486E-009	0.0006947	6
	48	270	4.734848	82161.79	-2772.053	1	82208.54	-1.932367	-1.266009E-008	0.0006153	6
	49	273	3.75601	82660.96	-3460.728	1	82733.38	-2.397376	3.03758E-009	0.000624	6
	50	277	3.004808	83246.51	-4132.863	1	83349.03	-2.842178	-1.412705E-009	0.0006122	6
	51	281	2.372217	83840.96	-5087.174	1	83995.16	-3.472249	-4.795857E-009	0.0005842	6
	52	285	1.878005	84623.66	-6340.747	1	84860.88	-4.285095	1.42166E-009	0.0006511	6
	53	290	1.512097	85557.09	-7683.741	1	85901.43	-5.131871	3.47751E-009	0.0006129	6
	54	295	1.201923	86390.76	-9386.354	1	86899.17	-6.200862	-6.223598E-009	0.0006749	6
	55	301	0.956633	87921.34	-11465.72	1	88665.8	-7.42995	-2.796217E-008	1.343474E-005	6
