EXPLAIN
TAG	EISPOT
TITLE	LABEL	Potentiostatic EIS	Test Identifier
DATE	LABEL	9/22/2020	Date
TIME	LABEL	3:05:50	Time
NOTES	NOTES	1	Notes...
	
PSTAT	PSTAT	REF3000-16137	Potentiostat
VDC	POTEN	0.00000E+000	T	DC Voltage (V)
FREQINIT	QUANT	3.00000E+005	Initial Freq. (Hz)
FREQFINAL	QUANT	1.00000E+000	Final Freq. (Hz)
PTSPERDEC	QUANT	1.00000E+001	Points/decade
VAC	QUANT	5.00000E+001	AC Voltage (mV rms)
AREA	QUANT	1.00000E+000	Sample Area (cm^2)
SPEED	SELECTOR	2	Optimize for:
ZGUESS	QUANT	1.00000E+003	Estimated Z (ohms)
EOC	QUANT	0	Open Circuit (V)
SEQUENCER	TOGGLE	TRUE	Run as Sequence
PSTATMODEL	IQUANT	5	Pstat Model
PSTATSECTION	LABEL	REF3000-16137	Pstat Section
PSTATSERIALNO	LABEL	16137	Pstat Serial Number
CTRLMODE	IQUANT	1	Control Mode
IESTAB	IQUANT	0	I/E Stability
CASPEED	IQUANT	1	Control Amp Speed
CONVENTION	IQUANT	1	Current Convention
ICHRANGE	IQUANT	2	Ich Range
ICHRANGEMODE	TOGGLE	F	Ich Auto Range
ICHOFFSETENABLE	TOGGLE	T	Ich Offset Enable
ICHOFFSET	QUANT	0	Ich Offset (V)
ICHFILTER	IQUANT	3	Ich Filter
VCHRANGE	IQUANT	2	Vch Range
VCHRANGEMODE	TOGGLE	F	Vch Auto Range
VCHOFFSETENABLE	TOGGLE	T	Vch Offset Enable
VCHOFFSET	QUANT	0	Vch Offset (V)
VCHFILTER	IQUANT	3	Vch Filter
ACHRANGE	IQUANT	2	Ach Range
ACHOFFSETENABLE	TOGGLE	F	Ach Offset Enable
ACHOFFSET	QUANT	0	Ach Offset (V)
ACHFILTER	IQUANT	3	Ach Filter
IERANGELOWERLIMIT	IQUANT	2	I/E Range Lower Limit
IERANGEMODE	TOGGLE	F	I/E AutoRange
IERANGE	IQUANT	11	I/E Range
POSFEEDENABLE	TOGGLE	F	Positive Feedback IR Comp
POSFEEDRESISTANCE	QUANT	0	Positive Feedback Resistance (ohm)
ACHSELECT	IQUANT	0	Ach Select
CABLEID	IQUANT	13	Cable ID
DCCALDATE	LABEL	7/31/2020	DC Calibration Date
ACCALDATE	LABEL	7/31/2020	AC Calibration Date
THERMOSELECT	IQUANT	1	Thermo Select
FRAMEWORKVERSION	QUANT	6.33	Framework Version
INSTRUMENTVERSION	LABEL	3.50	Instrument Version
COMPLIANCEVOLTAGE	IQUANT	0	Compliance Voltage
ZCURVE	TABLE
	Pt	Time	Freq	Zreal	Zimag	Zsig	Zmod	Zphz	Idc	Vdc	IERange
	#	s	Hz	ohm	ohm	V	ohm	°	A	V	#
	0	19	300046.9	891.2579	-237.0301	1	922.2385	-14.89308	5.024672E-005	-0.0001106	9
	1	42	238359.4	929.7701	-205.7598	1	952.266	-12.47854	1.89332E-005	-0.0020955	9
	2	66	189328.1	955.204	-173.0825	1	970.758	-10.27053	-3.025309E-005	-0.0009314	9
	3	76	150421.9	979.786	-144.6562	1	990.407	-8.398512	-8.997275E-005	0.0022176	9
	4	86	119484.4	999.607	-124.7622	1	1007.362	-7.114371	2.524304E-005	-0.0013564	9
	5	102	94921.88	1014.094	-70.95457	1	1016.574	-4.002372	1.907748E-005	-0.0067533	8
	6	106	75421.88	1021.488	-60.28987	1	1023.266	-3.37777	-2.976564E-006	-0.0030849	8
	7	108	59859.37	1023.766	-46.90678	1	1024.84	-2.623337	7.465915E-006	0.0026173	8
	8	111	47578.12	1027.195	-41.81644	1	1028.046	-2.331187	-1.85174E-005	0.0046019	8
	9	114	37828.12	1031.423	-32.26268	1	1031.928	-1.791615	-8.806077E-006	-0.0008552	8
	10	116	30046.88	1035.647	-27.78208	1	1036.019	-1.536638	1.463512E-005	-0.0003957	8
	11	119	23859.38	1037.392	-20.9791	1	1037.604	-1.158531	-1.964561E-005	0.0076903	8
	12	121	18984.38	1040.377	-17.92767	1	1040.531	-0.987218	-1.982723E-006	-0.0032639	8
	13	125	15046.87	1042.421	-13.23929	1	1042.505	-0.7276472	-1.645208E-005	0.0028909	8
	14	128	11953.13	1046.331	-14.21384	1	1046.427	-0.7782844	-1.970419E-005	0.0061878	8
	15	131	9515.62	1049.997	-10.11363	1	1050.046	-0.551859	-1.784529E-005	0.0085389	8
	16	133	7546.875	1052.685	-12.83665	1	1052.763	-0.6986416	-1.649787E-005	0.0029685	8
	17	136	5928.309	1056.043	-5.520906	1	1056.058	-0.2995348	7.867112E-006	0.002649	8
	18	140	4733.456	1055.476	-8.616063	1	1055.511	-0.4677067	-1.351327E-005	0.0084279	8
	19	143	3796.875	1064.458	-7.595647	1	1064.486	-0.4088381	-1.97902E-005	0.0076244	8
	20	146	2987.132	1062.092	-11.06445	1	1062.149	-0.5968633	-7.444057E-006	0.007433	8
	21	149	2390.625	1066.451	-7.656148	1	1066.478	-0.4113246	2.073185E-005	-0.0058288	8
	22	152	1884.191	1068.409	-13.31057	1	1068.492	-0.7137719	-8.737839E-006	-0.0008585	8
	23	155	1516.544	1073.043	-8.851512	1	1073.079	-0.4726213	7.875963E-006	0.0026804	8
	24	159	1193.986	1073.709	-9.079349	1	1073.747	-0.4844851	2.01263E-005	-0.0042052	8
	25	163	946.5144	1079.63	-15.96478	1	1079.748	-0.8471863	1.915168E-005	-0.0028039	8
	26	165	751.7689	1084.945	-11.67793	1	1085.008	-0.6166862	-1.621815E-005	0.002893	8
	27	168	597.4265	1083.683	-20.86515	1	1083.884	-1.103032	-7.734287E-006	0.0076629	8
	28	170	477.4305	1086.957	-23.94798	1	1087.221	-1.262144	-2.561358E-007	0.0006444	8
	29	173	376.6741	1089.876	-29.38132	1	1090.272	-1.544228	-2.511624E-007	0.0006439	8
	30	175	298.2954	1092.879	-36.11409	1	1093.475	-1.892645	-2.308429E-007	0.0006417	8
	31	177	237.7717	1096.13	-44.24312	1	1097.023	-2.311376	-2.256461E-007	0.0006417	8
	32	180	189.0121	1099.61	-54.45223	1	1100.958	-2.834946	-2.284175E-007	0.0006185	8
	33	182	150.2404	1103.447	-67.07309	1	1105.484	-3.478446	-2.051676E-007	0.0006332	8
	34	185	119.1737	1107.597	-82.83463	1	1110.69	-4.277056	-2.647235E-007	0.0006527	8
	35	187	95.0169	1112.378	-101.8823	1	1117.034	-5.2331	-2.155853E-007	0.0006213	8
	36	190	75.60484	1117.844	-125.5952	1	1124.877	-6.410577	-2.297439E-007	0.0006544	8
	37	192	54.50582	1126.181	-169.5495	1	1138.873	-8.561724	-2.572731E-007	0.0006414	8
	38	195	45.95588	1132.559	-198.1195	1	1149.757	-9.9224	-1.788648E-007	0.000644	8
	39	197	37.20238	1140.617	-240.6345	1	1165.724	-11.91292	-2.200102E-007	0.0006359	8
	40	199	30.04808	1150.559	-292.509	1	1187.159	-14.26424	-2.710479E-007	0.0006388	8
	41	202	23.91582	1162.628	-360.5044	1	1217.238	-17.22747	-1.96231E-007	0.0006527	8
	42	204	18.60119	1179.774	-454.3919	1	1264.255	-21.06427	-4.044876E-007	0.0006245	8
	43	207	15.02404	1197.92	-549.2327	1	1317.827	-24.63092	-3.609624E-007	0.0006458	8
	44	209	12.01923	1220.409	-672.5311	1	1393.448	-28.85785	-1.629969E-007	0.0006487	8
	45	211	9.450605	1249.653	-836.0139	1	1503.513	-33.78241	-2.410241E-007	0.0006457	8
	46	214	7.512019	1285.27	-1027.604	1	1645.566	-38.64316	-2.821866E-007	0.0006496	8
	47	217	5.978954	1329.959	-1259.965	1	1832.022	-43.45193	-2.348979E-007	0.0006423	8
	48	220	4.734848	1385.2	-1553.025	1	2081.025	-48.26906	-2.478386E-007	0.0006027	8
	49	223	3.75601	1454.996	-1908.443	1	2399.826	-52.67812	-2.204328E-007	0.0006722	8
	50	226	3.004808	1538.916	-2326.529	1	2789.444	-56.51678	-1.968626E-007	0.0006238	8
	51	230	2.372217	1651.158	-2864.537	1	3306.342	-60.04026	-2.353935E-007	0.0006019	8
	52	234	1.878005	1790.289	-3528.792	1	3956.957	-63.0996	-2.090261E-007	0.0006254	8
	53	239	1.512097	1944.251	-4272.799	1	4694.35	-65.53305	-5.187574E-008	0.0006473	7
	54	244	1.201923	2154.841	-5233.977	1	5660.199	-67.62292	-3.55366E-008	0.0006271	7
	55	251	0.956633	2400.066	-6386.128	1	6822.239	-69.40253	-6.249718E-008	-2.801452E-005	7
