EXPLAIN
TAG	EISPOT
TITLE	LABEL	Potentiostatic EIS	Test Identifier
DATE	LABEL	9/21/2020	Date
TIME	LABEL	23:49:00	Time
NOTES	NOTES	1	Notes...
	
PSTAT	PSTAT	REF3000-16137	Potentiostat
VDC	POTEN	0.00000E+000	T	DC Voltage (V)
FREQINIT	QUANT	3.00000E+005	Initial Freq. (Hz)
FREQFINAL	QUANT	1.00000E+000	Final Freq. (Hz)
PTSPERDEC	QUANT	1.00000E+001	Points/decade
VAC	QUANT	5.00000E+001	AC Voltage (mV rms)
AREA	QUANT	1.00000E+000	Sample Area (cm^2)
SPEED	SELECTOR	2	Optimize for:
ZGUESS	QUANT	1.00000E+003	Estimated Z (ohms)
EOC	QUANT	0	Open Circuit (V)
SEQUENCER	TOGGLE	TRUE	Run as Sequence
PSTATMODEL	IQUANT	5	Pstat Model
PSTATSECTION	LABEL	REF3000-16137	Pstat Section
PSTATSERIALNO	LABEL	16137	Pstat Serial Number
CTRLMODE	IQUANT	1	Control Mode
IESTAB	IQUANT	0	I/E Stability
CASPEED	IQUANT	1	Control Amp Speed
CONVENTION	IQUANT	1	Current Convention
ICHRANGE	IQUANT	2	Ich Range
ICHRANGEMODE	TOGGLE	F	Ich Auto Range
ICHOFFSETENABLE	TOGGLE	T	Ich Offset Enable
ICHOFFSET	QUANT	0	Ich Offset (V)
ICHFILTER	IQUANT	3	Ich Filter
VCHRANGE	IQUANT	2	Vch Range
VCHRANGEMODE	TOGGLE	F	Vch Auto Range
VCHOFFSETENABLE	TOGGLE	T	Vch Offset Enable
VCHOFFSET	QUANT	0	Vch Offset (V)
VCHFILTER	IQUANT	3	Vch Filter
ACHRANGE	IQUANT	2	Ach Range
ACHOFFSETENABLE	TOGGLE	F	Ach Offset Enable
ACHOFFSET	QUANT	0	Ach Offset (V)
ACHFILTER	IQUANT	3	Ach Filter
IERANGELOWERLIMIT	IQUANT	2	I/E Range Lower Limit
IERANGEMODE	TOGGLE	F	I/E AutoRange
IERANGE	IQUANT	11	I/E Range
POSFEEDENABLE	TOGGLE	F	Positive Feedback IR Comp
POSFEEDRESISTANCE	QUANT	0	Positive Feedback Resistance (ohm)
ACHSELECT	IQUANT	0	Ach Select
CABLEID	IQUANT	13	Cable ID
DCCALDATE	LABEL	7/31/2020	DC Calibration Date
ACCALDATE	LABEL	7/31/2020	AC Calibration Date
THERMOSELECT	IQUANT	1	Thermo Select
FRAMEWORKVERSION	QUANT	6.33	Framework Version
INSTRUMENTVERSION	LABEL	3.50	Instrument Version
COMPLIANCEVOLTAGE	IQUANT	0	Compliance Voltage
ZCURVE	TABLE
	Pt	Time	Freq	Zreal	Zimag	Zsig	Zmod	Zphz	Idc	Vdc	IERange
	#	s	Hz	ohm	ohm	V	ohm	°	A	V	#
	0	8	300046.9	7.354637	2.236674	1	7.687223	16.91543	-8.783529E-005	8.975875E-005	10
	1	11	238359.4	7.325631	1.758153	1	7.533656	13.49575	7.584749E-005	-0.0001999	10
	2	14	189328.1	7.310751	1.39169	1	7.442035	10.77799	-0.0001107	0.0002382	10
	3	17	150421.9	7.297416	1.07716	1	7.376486	8.396708	5.262464E-005	0.0003515	10
	4	19	119484.4	7.29753	0.840305	1	7.345751	6.568636	-0.0000984	0.0005389	10
	5	22	94921.88	7.297816	0.6601355	1	7.327612	5.168714	-1.261708E-005	0.0005384	10
	6	24	75421.88	7.295735	0.4804533	1	7.311538	3.767716	2.060209E-005	0.0005824	10
	7	27	59859.37	7.298517	0.3257749	1	7.305784	2.555744	2.253198E-005	0.0005875	10
	8	29	47578.12	7.303996	0.1915631	1	7.306508	1.502361	1.743051E-005	0.0005729	10
	9	32	37828.12	7.312489	0.0719633	1	7.312843	0.5638381	-1.753618E-005	0.0006325	10
	10	35	30046.88	7.322764	-0.0416797	1	7.322883	-0.3261128	7.327398E-006	0.000662	10
	11	37	23859.38	7.332401	-0.1549256	1	7.334037	-1.210417	2.214963E-005	0.0006339	10
	12	39	18984.38	7.343972	-0.2729788	1	7.349043	-2.12873	-3.57642E-006	0.0006279	10
	13	42	15046.87	7.358051	-0.4047566	1	7.369175	-3.148591	-3.195617E-005	0.0006625	10
	14	44	11953.13	7.375054	-0.5539021	1	7.395825	-4.295125	-2.819786E-005	0.0006517	10
	15	46	9515.62	7.39566	-0.725144	1	7.431126	-5.599948	-2.314825E-005	0.0007147	10
	16	49	7546.875	7.418623	-0.9335819	1	7.477135	-7.17257	-1.966961E-005	0.0006662	10
	17	51	5928.309	7.450322	-1.196069	1	7.545719	-9.120396	-1.614415E-005	0.0006854	10
	18	53	4733.456	7.486746	-1.495583	1	7.634666	-11.29694	-7.029276E-006	0.0006863	10
	19	56	3796.875	7.530127	-1.851712	1	7.754459	-13.81532	-2.19726E-005	0.000666	10
	20	58	2987.132	7.589474	-2.329653	1	7.93898	-17.06431	1.520565E-005	0.0006558	10
	21	60	2390.625	7.660406	-2.873822	1	8.181728	-20.56372	1.400964E-005	0.0006098	10
	22	62	1884.191	7.753227	-3.593322	1	8.545437	-24.8659	-1.796828E-005	0.000655	10
	23	65	1516.544	7.862439	-4.400413	1	9.010082	-29.23466	2.321492E-006	0.0006173	10
	24	67	1193.986	8.013809	-5.496062	1	9.7174	-34.44326	-2.581202E-005	0.0006741	10
	25	70	946.5144	8.205582	-6.806408	1	10.66109	-39.6752	1.04754E-005	0.0006114	10
	26	72	751.7689	8.437585	-8.426406	1	11.92464	-44.96202	-7.057567E-006	0.0006813	10
	27	74	597.4265	8.739848	-10.39991	1	13.58466	-49.95707	5.117226E-006	0.0006579	10
	28	77	477.4305	9.125717	-12.76456	1	15.69117	-54.43803	-3.653546E-006	0.0006631	10
	29	79	376.6741	9.64151	-15.83379	1	18.53827	-58.66193	-3.413989E-006	0.0006594	10
	30	81	298.2954	10.28908	-19.54897	1	22.09134	-62.24113	-3.337676E-006	0.0006676	10
	31	83	237.7717	11.0805	-23.96307	1	26.40087	-65.18423	-3.196683E-006	0.0006609	10
	32	86	189.0121	12.07297	-29.41656	1	31.79765	-67.68607	-3.117746E-006	0.000657	10
	33	88	150.2404	13.28855	-36.07585	1	38.44545	-69.77871	-3.789373E-006	0.0007118	10
	34	91	119.1737	14.75956	-44.25337	1	46.64981	-71.55521	7.467749E-007	6.82086E-005	9
	35	93	95.0169	16.51912	-54.10026	1	56.56606	-73.02033	6.585926E-007	6.227392E-005	9
	36	96	75.60484	18.67062	-66.27986	1	68.85937	-74.26781	5.915132E-007	5.566552E-005	9
	37	98	54.50582	22.617	-88.73596	1	91.57292	-75.70091	6.421931E-007	5.40679E-005	9
	38	101	45.95588	25.20523	-103.3669	1	106.3956	-76.29629	6.394025E-007	6.861862E-005	9
	39	103	37.20238	29.09146	-124.9053	1	128.2484	-76.88908	8.040948E-007	5.860893E-005	9
	40	105	30.04808	33.98199	-151.2849	1	155.0545	-77.34021	6.506892E-007	5.947801E-005	9
	41	108	23.91582	40.68501	-185.7655	1	190.1686	-77.64655	6.988497E-007	5.913439E-005	9
	42	110	18.60119	50.31127	-232.7415	1	238.1172	-77.80217	9.586728E-007	5.662677E-005	9
	43	112	15.02404	61.20962	-281.7924	1	288.3636	-77.74485	9.232831E-007	7.135302E-005	9
	44	115	12.01923	75.94894	-343.7076	1	351.9987	-77.5396	6.41041E-007	5.585863E-005	9
	45	117	9.450605	96.6528	-423.3611	1	434.2539	-77.13985	4.936997E-008	0.0006445	8
	46	120	7.512019	123.7423	-517.5339	1	532.1217	-76.55303	3.642511E-008	0.0006576	8
	47	122	5.978954	159.1097	-630.1683	1	649.9446	-75.82969	1.483204E-007	0.0006404	8
	48	125	4.734848	207.234	-768.1499	1	795.6131	-74.902	9.364586E-008	0.0006149	8
	49	129	3.75601	271.2455	-931.5786	1	970.264	-73.76615	2.167762E-007	0.0006531	8
	50	132	3.004808	350.5021	-1116.131	1	1169.872	-72.56599	2.326187E-007	0.0006299	8
	51	136	2.372217	462.65	-1345.806	1	1423.109	-71.02849	1.702514E-007	0.0005616	8
	52	140	1.878005	602.5555	-1611.584	1	1720.545	-69.49972	2.503623E-007	0.0006428	8
	53	145	1.512097	766.8951	-1889.077	1	2038.808	-67.90467	2.110406E-007	0.0006239	8
	54	150	1.201923	993.735	-2233.594	1	2444.678	-66.01553	2.335221E-007	0.0006581	8
	55	156	0.956633	1277.16	-2613.829	1	2909.165	-63.9591	7.416185E-008	3.039877E-007	8
