EXPLAIN
TAG	EISPOT
TITLE	LABEL	Potentiostatic EIS	Test Identifier
DATE	LABEL	9/22/2020	Date
TIME	LABEL	2:58:37	Time
NOTES	NOTES	1	Notes...
	
PSTAT	PSTAT	REF3000-16137	Potentiostat
VDC	POTEN	0.00000E+000	T	DC Voltage (V)
FREQINIT	QUANT	3.00000E+005	Initial Freq. (Hz)
FREQFINAL	QUANT	1.00000E+000	Final Freq. (Hz)
PTSPERDEC	QUANT	1.00000E+001	Points/decade
VAC	QUANT	5.00000E+001	AC Voltage (mV rms)
AREA	QUANT	1.00000E+000	Sample Area (cm^2)
SPEED	SELECTOR	2	Optimize for:
ZGUESS	QUANT	1.00000E+003	Estimated Z (ohms)
EOC	QUANT	0	Open Circuit (V)
SEQUENCER	TOGGLE	TRUE	Run as Sequence
PSTATMODEL	IQUANT	5	Pstat Model
PSTATSECTION	LABEL	REF3000-16137	Pstat Section
PSTATSERIALNO	LABEL	16137	Pstat Serial Number
CTRLMODE	IQUANT	1	Control Mode
IESTAB	IQUANT	0	I/E Stability
CASPEED	IQUANT	1	Control Amp Speed
CONVENTION	IQUANT	1	Current Convention
ICHRANGE	IQUANT	2	Ich Range
ICHRANGEMODE	TOGGLE	F	Ich Auto Range
ICHOFFSETENABLE	TOGGLE	T	Ich Offset Enable
ICHOFFSET	QUANT	0	Ich Offset (V)
ICHFILTER	IQUANT	3	Ich Filter
VCHRANGE	IQUANT	2	Vch Range
VCHRANGEMODE	TOGGLE	F	Vch Auto Range
VCHOFFSETENABLE	TOGGLE	T	Vch Offset Enable
VCHOFFSET	QUANT	0	Vch Offset (V)
VCHFILTER	IQUANT	3	Vch Filter
ACHRANGE	IQUANT	2	Ach Range
ACHOFFSETENABLE	TOGGLE	F	Ach Offset Enable
ACHOFFSET	QUANT	0	Ach Offset (V)
ACHFILTER	IQUANT	3	Ach Filter
IERANGELOWERLIMIT	IQUANT	2	I/E Range Lower Limit
IERANGEMODE	TOGGLE	F	I/E AutoRange
IERANGE	IQUANT	11	I/E Range
POSFEEDENABLE	TOGGLE	F	Positive Feedback IR Comp
POSFEEDRESISTANCE	QUANT	0	Positive Feedback Resistance (ohm)
ACHSELECT	IQUANT	0	Ach Select
CABLEID	IQUANT	13	Cable ID
DCCALDATE	LABEL	7/31/2020	DC Calibration Date
ACCALDATE	LABEL	7/31/2020	AC Calibration Date
THERMOSELECT	IQUANT	1	Thermo Select
FRAMEWORKVERSION	QUANT	6.33	Framework Version
INSTRUMENTVERSION	LABEL	3.50	Instrument Version
COMPLIANCEVOLTAGE	IQUANT	0	Compliance Voltage
ZCURVE	TABLE
	Pt	Time	Freq	Zreal	Zimag	Zsig	Zmod	Zphz	Idc	Vdc	IERange
	#	s	Hz	ohm	ohm	V	ohm	°	A	V	#
	0	15	300046.9	660.1578	-124.5445	1	671.8032	-10.68377	-6.331078E-005	0.0004728	9
	1	22	238359.4	671.6776	-103.8304	1	679.6554	-8.787439	-1.022958E-005	0.0016867	9
	2	31	189328.1	683.9227	-82.87716	1	688.9259	-6.909364	-0.000104	0.0036953	9
	3	40	150421.9	691.147	-69.57494	1	694.6401	-5.748366	8.395989E-005	-0.002426	9
	4	46	119484.4	701.6099	-38.1262	1	702.645	-3.110452	-6.060437E-006	0.0098986	8
	5	50	94921.88	705.7582	-27.64372	1	706.2994	-2.243062	-1.503094E-005	0.0029365	8
	6	53	75421.88	706.4373	-24.48391	1	706.8614	-1.984979	-1.731577E-005	0.0044985	8
	7	55	59859.37	707.2703	-19.28118	1	707.5331	-1.561577	-8.204423E-006	-0.0004223	8
	8	58	47578.12	711.3726	-15.87801	1	711.5498	-1.278643	-1.504918E-005	0.0028783	8
	9	60	37828.12	711.1818	-15.93921	1	711.3604	-1.283915	1.675069E-005	-0.0059046	8
	10	63	30046.88	714.3693	-11.75537	1	714.466	-0.9427512	9.188681E-006	-0.0056003	8
	11	65	23859.38	714.8561	-8.795103	1	714.9102	-0.7048927	-1.303092E-005	0.0016642	8
	12	67	18984.38	716.5145	-7.49161	1	716.5536	-0.5990416	1.330937E-005	-0.0002803	8
	13	70	15046.87	720.2892	-7.407106	1	720.3273	-0.5891814	9.209494E-006	-0.0054327	8
	14	73	11953.13	717.2831	-9.405149	1	717.3447	-0.7512299	1.712291E-005	-0.006	8
	15	75	9515.62	721.4876	-6.137714	1	721.5137	-0.4874049	-1.250579E-005	0.0015974	8
	16	78	7546.875	723.4996	-4.14213	1	723.5114	-0.3280223	3.632302E-007	0.0048571	8
	17	80	5928.309	724.972	-4.934018	1	724.9888	-0.3899379	3.968385E-006	-0.0045596	8
	18	83	4733.456	727.7968	-4.686689	1	727.8119	-0.3689543	-1.195166E-005	0.0076453	8
	19	86	3796.875	730.6738	-5.870206	1	730.6973	-0.4603023	1.912518E-005	-0.0053158	8
	20	88	2987.132	727.4288	-3.554265	1	727.4375	-0.2799487	1.343964E-005	-0.0003079	8
	21	91	2390.625	731.0956	-6.623663	1	731.1257	-0.5190806	-1.71865E-005	0.0069433	8
	22	93	1884.191	734.2812	-10.11787	1	734.351	-0.7894448	7.380497E-006	0.0024173	8
	23	96	1516.544	734.8915	-8.771072	1	734.9439	-0.6838037	9.143611E-006	-0.0056787	8
	24	98	1193.986	736.1187	-9.116035	1	736.1752	-0.7095101	-2.204742E-006	-0.0027594	8
	25	101	946.5144	736.8767	-12.23261	1	736.9782	-0.951058	-1.1659E-005	0.0076316	8
	26	104	751.7689	740.7267	-16.94895	1	740.9207	-1.310786	-1.229368E-005	0.0014385	8
	27	106	597.4265	741.0934	-19.02256	1	741.3375	-1.470359	-6.675763E-006	0.0068507	8
	28	109	477.4305	743.1971	-22.47503	1	743.5369	-1.732154	-1.647039E-007	0.0006256	8
	29	111	376.6741	745.2996	-27.71884	1	745.8148	-2.129936	-1.723512E-007	0.0006392	8
	30	114	298.2954	747.4762	-34.22907	1	748.2595	-2.621906	-2.060461E-007	0.0006601	8
	31	116	237.7717	749.8997	-42.06544	1	751.0786	-3.210628	-1.928939E-007	0.0006596	8
	32	118	189.0121	752.5316	-51.8395	1	754.315	-3.940698	-1.814801E-007	0.0006546	8
	33	121	150.2404	755.5037	-63.99049	1	758.2089	-4.841346	-1.86851E-007	0.0006424	8
	34	123	119.1737	758.9047	-79.15002	1	763.0211	-5.954141	-1.546167E-007	0.0006366	8
	35	126	95.0169	762.7387	-97.4043	1	768.933	-7.277472	-2.012857E-007	0.0006521	8
	36	128	75.60484	767.2922	-120.1512	1	776.6425	-8.899742	-1.666568E-007	0.0006221	8
	37	131	54.50582	774.6523	-162.2136	1	791.454	-11.82695	-1.630827E-007	0.0006326	8
	38	133	45.95588	780.0372	-189.6239	1	802.7548	-13.66334	-1.425183E-007	0.0006441	8
	39	136	37.20238	787.2695	-230.2068	1	820.2368	-16.29954	-1.194436E-007	0.0006267	8
	40	138	30.04808	796.253	-279.7821	1	843.9768	-19.36012	-2.022723E-007	0.0006435	8
	41	140	23.91582	807.7545	-344.4172	1	878.1176	-23.09284	-2.144651E-007	0.000638	8
	42	143	18.60119	823.3054	-432.9953	1	930.2239	-27.74092	-3.323072E-007	0.0006599	8
	43	145	15.02404	840.158	-524.68	1	990.532	-31.98484	-2.110537E-007	0.000636	8
	44	147	12.01923	861.339	-641.6443	1	1074.063	-36.68383	-1.486878E-007	0.0006388	8
	45	150	9.450605	889.9215	-796.0836	1	1194.031	-41.81438	-2.643914E-007	0.0006527	8
	46	152	7.512019	923.8572	-978.063	1	1345.406	-46.63251	-2.614001E-007	0.0006523	8
	47	155	5.978954	965.692	-1199.952	1	1540.275	-51.17376	-1.813975E-007	0.0006315	8
	48	158	4.734848	1019.771	-1477.095	1	1794.921	-55.3792	-1.849569E-007	0.0006063	8
	49	161	3.75601	1087.288	-1815.096	1	2115.838	-59.07734	-1.785756E-007	0.0006537	8
	50	165	3.004808	1167.974	-2210.431	1	2500.034	-62.14839	-1.547262E-007	0.0006195	8
	51	169	2.372217	1277.464	-2724.356	1	3008.992	-64.87788	-1.853333E-007	0.0005626	8
	52	173	1.878005	1404.982	-3344.42	1	3627.55	-67.21285	-1.759182E-007	0.0006476	8
	53	178	1.512097	1559.644	-4043.613	1	4333.97	-68.9081	-5.007477E-008	0.0005208	7
	54	183	1.201923	1743.979	-4951.86	1	5249.988	-70.59842	-4.173528E-008	0.0006426	7
	55	189	0.956633	1966.097	-6046.642	1	6358.255	-71.98779	-5.031641E-008	-2.938185E-005	7
