EXPLAIN
TAG	EISPOT
TITLE	LABEL	Potentiostatic EIS	Test Identifier
DATE	LABEL	9/22/2020	Date
TIME	LABEL	2:10:08	Time
NOTES	NOTES	1	Notes...
	
PSTAT	PSTAT	REF3000-16137	Potentiostat
VDC	POTEN	0.00000E+000	T	DC Voltage (V)
FREQINIT	QUANT	3.00000E+005	Initial Freq. (Hz)
FREQFINAL	QUANT	1.00000E+000	Final Freq. (Hz)
PTSPERDEC	QUANT	1.00000E+001	Points/decade
VAC	QUANT	5.00000E+001	AC Voltage (mV rms)
AREA	QUANT	1.00000E+000	Sample Area (cm^2)
SPEED	SELECTOR	2	Optimize for:
ZGUESS	QUANT	1.00000E+003	Estimated Z (ohms)
EOC	QUANT	0	Open Circuit (V)
SEQUENCER	TOGGLE	TRUE	Run as Sequence
PSTATMODEL	IQUANT	5	Pstat Model
PSTATSECTION	LABEL	REF3000-16137	Pstat Section
PSTATSERIALNO	LABEL	16137	Pstat Serial Number
CTRLMODE	IQUANT	1	Control Mode
IESTAB	IQUANT	0	I/E Stability
CASPEED	IQUANT	1	Control Amp Speed
CONVENTION	IQUANT	1	Current Convention
ICHRANGE	IQUANT	2	Ich Range
ICHRANGEMODE	TOGGLE	F	Ich Auto Range
ICHOFFSETENABLE	TOGGLE	T	Ich Offset Enable
ICHOFFSET	QUANT	0	Ich Offset (V)
ICHFILTER	IQUANT	3	Ich Filter
VCHRANGE	IQUANT	2	Vch Range
VCHRANGEMODE	TOGGLE	F	Vch Auto Range
VCHOFFSETENABLE	TOGGLE	T	Vch Offset Enable
VCHOFFSET	QUANT	0	Vch Offset (V)
VCHFILTER	IQUANT	3	Vch Filter
ACHRANGE	IQUANT	2	Ach Range
ACHOFFSETENABLE	TOGGLE	F	Ach Offset Enable
ACHOFFSET	QUANT	0	Ach Offset (V)
ACHFILTER	IQUANT	3	Ach Filter
IERANGELOWERLIMIT	IQUANT	2	I/E Range Lower Limit
IERANGEMODE	TOGGLE	F	I/E AutoRange
IERANGE	IQUANT	11	I/E Range
POSFEEDENABLE	TOGGLE	F	Positive Feedback IR Comp
POSFEEDRESISTANCE	QUANT	0	Positive Feedback Resistance (ohm)
ACHSELECT	IQUANT	0	Ach Select
CABLEID	IQUANT	13	Cable ID
DCCALDATE	LABEL	7/31/2020	DC Calibration Date
ACCALDATE	LABEL	7/31/2020	AC Calibration Date
THERMOSELECT	IQUANT	1	Thermo Select
FRAMEWORKVERSION	QUANT	6.33	Framework Version
INSTRUMENTVERSION	LABEL	3.50	Instrument Version
COMPLIANCEVOLTAGE	IQUANT	0	Compliance Voltage
ZCURVE	TABLE
	Pt	Time	Freq	Zreal	Zimag	Zsig	Zmod	Zphz	Idc	Vdc	IERange
	#	s	Hz	ohm	ohm	V	ohm	°	A	V	#
	0	7	300046.9	113.6432	-0.0132237	1	113.6432	-0.006667	-7.554705E-005	0.0017135	9
	1	10	238359.4	113.9008	-0.3522882	1	113.9013	-0.1772118	4.741346E-005	-0.0005278	9
	2	13	189328.1	114.137	-0.4687439	1	114.138	-0.235304	1.741461E-005	-0.0013445	9
	3	15	150421.9	114.312	-0.0113402	1	114.312	-0.005684	6.739031E-005	-0.0025652	9
	4	18	119484.4	114.5278	-0.2477415	1	114.5281	-0.1239395	6.630826E-005	-0.002446	9
	5	20	94921.88	114.7762	-0.149714	1	114.7763	-0.0747365	5.928776E-006	-0.0005669	9
	6	23	75421.88	114.9219	-0.3010659	1	114.9223	-0.1500999	-1.584133E-005	0.0002756	9
	7	26	59859.37	115.1375	-0.3706455	1	115.1381	-0.1844434	1.809533E-005	-8.493043E-005	9
	8	28	47578.12	115.3705	-0.4414544	1	115.3713	-0.2192359	1.840948E-005	-8.029766E-005	9
	9	31	37828.12	115.5328	-0.458889	1	115.5337	-0.227574	1.87184E-006	0.0005347	9
	10	33	30046.88	115.7	-0.5300431	1	115.7012	-0.2624807	1.13331E-005	0.0002146	9
	11	36	23859.38	115.8704	-0.5993275	1	115.8719	-0.2963538	-1.776645E-005	0.0008601	9
	12	38	18984.38	116.0939	-0.7251774	1	116.0961	-0.357892	-2.014618E-005	0.000466	9
	13	40	15046.87	116.3317	-0.818737	1	116.3346	-0.4032384	-2.012258E-005	0.0004682	9
	14	43	11953.13	116.3481	-0.973902	1	116.3521	-0.4795884	1.194067E-005	0.0001989	9
	15	45	9515.62	116.5806	-1.189799	1	116.5867	-0.5847296	2.321272E-005	-0.000445	9
	16	47	7546.875	116.6556	-1.630545	1	116.667	-0.8007955	-2.161285E-005	0.0008679	9
	17	50	5928.309	116.9985	-1.818627	1	117.0126	-0.8905354	-1.61408E-005	0.0003247	9
	18	52	4733.456	117.1885	-2.154598	1	117.2083	-1.053307	2.398946E-005	-0.0004584	9
	19	54	3796.875	117.3074	-2.766288	1	117.34	-1.350872	2.46937E-005	-0.0005763	9
	20	57	2987.132	117.5722	-3.227857	1	117.6165	-1.572617	-8.673203E-006	-5.19151E-005	9
	21	59	2390.625	117.7522	-4.082591	1	117.8229	-1.985709	2.2914E-005	-0.0002576	9
	22	61	1884.191	118.1517	-5.006897	1	118.2577	-2.426564	2.57487E-006	0.0004888	9
	23	64	1516.544	118.2658	-6.181939	1	118.4273	-2.992216	-1.433423E-005	0.0008748	9
	24	66	1193.986	118.6754	-7.670093	1	118.923	-3.697932	-1.907177E-005	0.0004624	9
	25	68	946.5144	119.0503	-9.6548	1	119.4412	-4.636454	-6.186841E-006	0.0007784	9
	26	71	751.7689	119.4878	-11.81438	1	120.0705	-5.646777	-9.287414E-006	-5.166955E-005	9
	27	73	597.4265	119.9719	-14.59687	1	120.8566	-6.937028	-2.029796E-005	0.0007505	9
	28	75	477.4305	120.5398	-17.94271	1	121.8679	-8.466478	1.12142E-006	6.50686E-005	9
	29	78	376.6741	121.2536	-22.32914	1	123.2924	-10.43426	1.092515E-006	5.729071E-005	9
	30	80	298.2954	122.1096	-27.695	1	125.2109	-12.77875	1.154663E-006	5.640495E-005	9
	31	82	237.7717	123.1274	-34.13572	1	127.7716	-15.49545	1.139239E-006	6.066687E-005	9
	32	85	189.0121	124.3897	-42.16806	1	131.3428	-18.72664	1.098308E-006	5.937078E-005	9
	33	87	150.2404	125.9515	-52.06416	1	136.2882	-22.45857	1.128709E-006	5.01356E-005	9
	34	90	119.1737	127.9154	-64.37454	1	143.2007	-26.71422	1.070187E-006	5.550373E-005	9
	35	92	95.0169	130.2999	-79.17085	1	152.4666	-31.28308	1.16245E-006	5.671581E-005	9
	36	95	75.60484	133.3027	-97.4856	1	165.1456	-36.17839	1.119598E-006	6.212697E-005	9
	37	97	54.50582	138.8645	-131.1943	1	191.0374	-43.37313	1.090206E-006	5.130443E-005	9
	38	100	45.95588	142.6421	-153.1065	1	209.2567	-47.02644	1.190294E-006	5.761885E-005	9
	39	102	37.20238	148.2392	-185.3079	1	237.3055	-51.34152	1.086104E-006	6.410719E-005	9
	40	104	30.04808	155.2547	-224.6738	1	273.0977	-55.35464	1.097533E-006	0.0001019	9
	41	107	23.91582	164.6017	-275.7685	1	321.1573	-59.16772	1.170192E-006	5.750967E-005	9
	42	109	18.60119	177.6732	-345.2295	1	388.2669	-62.76727	1.106822E-006	6.127523E-005	9
	43	111	15.02404	190.5916	-415.6418	1	457.2562	-65.36628	8.045772E-008	0.0006324	8
	44	114	12.01923	208.2831	-506.4172	1	547.5767	-67.64324	1.880532E-007	0.0006333	8
	45	116	9.450605	231.4945	-626.0233	1	667.454	-69.70632	9.592909E-008	0.0006437	8
	46	119	7.512019	258.577	-766.0773	1	808.5397	-71.34872	8.969013E-008	0.0006352	8
	47	121	5.978954	290.3282	-936.3944	1	980.37	-72.774	1.261442E-007	0.0006394	8
	48	124	4.734848	330.3607	-1150.211	1	1196.713	-73.97501	1.392926E-007	0.0006115	8
	49	128	3.75601	378.0594	-1411.733	1	1461.479	-75.00808	1.603432E-007	0.0006582	8
	50	131	3.004808	434.7278	-1720.116	1	1774.2	-75.81654	1.634052E-007	0.0006182	8
	51	135	2.372217	510.7894	-2124.154	1	2184.705	-76.47896	1.412602E-007	0.0005591	8
	52	139	1.878005	601.0991	-2617.913	1	2686.036	-77.06846	1.73191E-007	0.0006395	8
	53	144	1.512097	709.9631	-3169.532	1	3248.073	-77.37437	1.4663E-007	0.0005991	8
	54	149	1.201923	856.4764	-3903.637	1	3996.49	-77.62511	1.679503E-007	0.0006606	8
	55	155	0.956633	1049.201	-4796.028	1	4909.451	-77.66012	-1.828546E-008	-4.717062E-005	7
