EXPLAIN
TAG	EISPOT
TITLE	LABEL	Potentiostatic EIS	Test Identifier
DATE	LABEL	9/22/2020	Date
TIME	LABEL	1:48:08	Time
NOTES	NOTES	1	Notes...
	
PSTAT	PSTAT	REF3000-16137	Potentiostat
VDC	POTEN	0.00000E+000	T	DC Voltage (V)
FREQINIT	QUANT	3.00000E+005	Initial Freq. (Hz)
FREQFINAL	QUANT	1.00000E+000	Final Freq. (Hz)
PTSPERDEC	QUANT	1.00000E+001	Points/decade
VAC	QUANT	5.00000E+001	AC Voltage (mV rms)
AREA	QUANT	1.00000E+000	Sample Area (cm^2)
SPEED	SELECTOR	2	Optimize for:
ZGUESS	QUANT	1.00000E+003	Estimated Z (ohms)
EOC	QUANT	0	Open Circuit (V)
SEQUENCER	TOGGLE	TRUE	Run as Sequence
PSTATMODEL	IQUANT	5	Pstat Model
PSTATSECTION	LABEL	REF3000-16137	Pstat Section
PSTATSERIALNO	LABEL	16137	Pstat Serial Number
CTRLMODE	IQUANT	1	Control Mode
IESTAB	IQUANT	0	I/E Stability
CASPEED	IQUANT	1	Control Amp Speed
CONVENTION	IQUANT	1	Current Convention
ICHRANGE	IQUANT	2	Ich Range
ICHRANGEMODE	TOGGLE	F	Ich Auto Range
ICHOFFSETENABLE	TOGGLE	T	Ich Offset Enable
ICHOFFSET	QUANT	0	Ich Offset (V)
ICHFILTER	IQUANT	3	Ich Filter
VCHRANGE	IQUANT	2	Vch Range
VCHRANGEMODE	TOGGLE	F	Vch Auto Range
VCHOFFSETENABLE	TOGGLE	T	Vch Offset Enable
VCHOFFSET	QUANT	0	Vch Offset (V)
VCHFILTER	IQUANT	3	Vch Filter
ACHRANGE	IQUANT	2	Ach Range
ACHOFFSETENABLE	TOGGLE	F	Ach Offset Enable
ACHOFFSET	QUANT	0	Ach Offset (V)
ACHFILTER	IQUANT	3	Ach Filter
IERANGELOWERLIMIT	IQUANT	2	I/E Range Lower Limit
IERANGEMODE	TOGGLE	F	I/E AutoRange
IERANGE	IQUANT	11	I/E Range
POSFEEDENABLE	TOGGLE	F	Positive Feedback IR Comp
POSFEEDRESISTANCE	QUANT	0	Positive Feedback Resistance (ohm)
ACHSELECT	IQUANT	0	Ach Select
CABLEID	IQUANT	13	Cable ID
DCCALDATE	LABEL	7/31/2020	DC Calibration Date
ACCALDATE	LABEL	7/31/2020	AC Calibration Date
THERMOSELECT	IQUANT	1	Thermo Select
FRAMEWORKVERSION	QUANT	6.33	Framework Version
INSTRUMENTVERSION	LABEL	3.50	Instrument Version
COMPLIANCEVOLTAGE	IQUANT	0	Compliance Voltage
ZCURVE	TABLE
	Pt	Time	Freq	Zreal	Zimag	Zsig	Zmod	Zphz	Idc	Vdc	IERange
	#	s	Hz	ohm	ohm	V	ohm	°	A	V	#
	0	7	300046.9	60.46276	2.022428	1	60.49657	1.915781	-5.207325E-006	0.0004219	9
	1	10	238359.4	60.69089	1.500698	1	60.70944	1.416459	1.161742E-005	-0.0013392	9
	2	13	189328.1	60.83279	1.189831	1	60.84443	1.120507	-5.951523E-005	0.002221	9
	3	15	150421.9	60.92305	0.9040892	1	60.92976	0.8501985	1.23246E-005	0.0005861	9
	4	18	119484.4	60.97887	0.6573213	1	60.98241	0.6175956	1.128822E-005	-0.0009464	9
	5	20	94921.88	61.14444	0.6743921	1	61.14816	0.6319177	-1.487321E-005	0.0002799	9
	6	23	75421.88	61.16672	0.464492	1	61.16848	0.4350882	1.070772E-005	-0.0005759	9
	7	26	59859.37	61.23272	0.2621831	1	61.23328	0.2453246	-2.479371E-006	-0.0002187	9
	8	28	47578.12	61.31668	0.0858778	1	61.31674	0.0802462	-1.45046E-005	0.0003505	9
	9	31	37828.12	61.40356	-0.0518463	1	61.40358	-0.0483779	-1.684707E-005	0.0006794	9
	10	33	30046.88	61.48465	-0.1931746	1	61.48496	-0.1800133	-1.73107E-005	0.0006181	9
	11	36	23859.38	61.58929	-0.3119341	1	61.59008	-0.2901861	-1.615642E-005	0.0005938	9
	12	38	18984.38	61.65559	-0.4534777	1	61.65726	-0.4214036	-1.698393E-005	0.0005721	9
	13	40	15046.87	61.78934	-0.6201239	1	61.79246	-0.5750068	4.054593E-006	-0.000384	9
	14	43	11953.13	61.80986	-0.8141583	1	61.81522	-0.7546553	1.064687E-005	0.0001415	9
	15	45	9515.62	61.91384	-1.00059	1	61.92192	-0.9258771	1.552147E-005	-0.0005764	9
	16	47	7546.875	61.99285	-1.242219	1	62.00529	-1.147945	-1.675661E-005	0.0004106	9
	17	50	5928.309	62.12575	-1.596169	1	62.14625	-1.471751	1.960161E-005	-0.0005838	9
	18	52	4733.456	62.21474	-1.976247	1	62.24612	-1.819385	1.626141E-005	-0.0001223	9
	19	54	3796.875	62.37059	-2.483963	1	62.42004	-2.280649	1.07146E-005	0.0001423	9
	20	57	2987.132	62.49992	-3.069648	1	62.57525	-2.81179	1.725961E-005	-0.00013	9
	21	59	2390.625	62.62602	-3.749639	1	62.73817	-3.426409	1.089427E-005	0.0001407	9
	22	61	1884.191	62.79963	-4.629073	1	62.97001	-4.21575	-1.452452E-005	0.0003461	9
	23	63	1516.544	63.00443	-5.731689	1	63.26461	-5.198049	-1.31769E-005	0.0002022	9
	24	66	1193.986	63.24	-7.137087	1	63.64146	-6.438994	-8.42021E-006	8.390308E-006	9
	25	68	946.5144	63.51061	-8.892927	1	64.1302	-7.970886	-1.700698E-005	0.0006256	9
	26	71	751.7689	63.8222	-10.94378	1	64.75368	-9.73005	-1.673794E-005	0.000654	9
	27	73	597.4265	64.21711	-13.56425	1	65.63403	-11.92698	-1.349437E-005	0.0002004	9
	28	75	477.4305	64.70969	-16.69497	1	66.82863	-14.46672	1.288424E-006	6.331518E-005	9
	29	78	376.6741	65.32342	-20.77781	1	68.54828	-17.64462	1.23799E-006	6.426108E-005	9
	30	80	298.2954	66.07397	-25.76049	1	70.91807	-21.29949	1.19607E-006	6.927845E-005	9
	31	82	237.7717	66.9863	-31.73272	1	74.1224	-25.34783	1.208761E-006	5.807744E-005	9
	32	85	189.0121	68.13125	-39.16423	1	78.58565	-29.8918	1.210408E-006	6.193887E-005	9
	33	87	150.2404	69.56444	-48.31015	1	84.69405	-34.77867	1.164707E-006	6.287709E-005	9
	34	90	119.1737	71.37474	-59.67659	1	93.03574	-39.89907	1.204356E-006	5.829661E-005	9
	35	92	95.0169	73.59554	-73.33924	1	103.8987	-44.90006	1.246428E-006	6.225164E-005	9
	36	94	75.60484	76.41313	-90.24618	1	118.2512	-49.74479	1.249665E-006	6.365791E-005	9
	37	97	54.50582	81.75291	-121.3216	1	146.2958	-56.02582	1.183068E-006	6.481989E-005	9
	38	100	45.95588	85.3614	-141.4887	1	165.2441	-58.89704	1.315674E-006	6.802494E-005	9
	39	102	37.20238	90.74453	-171.0147	1	193.5991	-62.0485	1.303371E-006	6.878444E-005	9
	40	104	30.04808	97.4439	-206.9674	1	228.7593	-64.78812	1.241788E-006	5.427659E-005	9
	41	107	23.91582	106.2702	-253.5072	1	274.8805	-67.25658	1.154907E-006	6.260328E-005	9
	42	109	18.60119	118.3104	-316.6084	1	337.9915	-69.51025	1.277317E-006	9.447759E-005	9
	43	111	15.02404	130.6519	-382.2239	1	403.9369	-71.12853	1.297913E-006	6.769429E-005	9
	44	114	12.01923	145.5177	-463.5291	1	485.834	-72.57114	1.95292E-007	0.0006429	8
	45	116	9.450605	165.5093	-573.1832	1	596.6006	-73.89368	2.765879E-007	0.0006462	8
	46	119	7.512019	188.8663	-702.668	1	727.6076	-74.95535	2.441631E-007	0.0006403	8
	47	121	5.978954	216.8976	-860.4971	1	887.4118	-75.85268	2.48561E-007	0.0006421	8
	48	124	4.734848	252.3376	-1060.344	1	1089.956	-76.61391	3.470495E-007	0.0006524	8
	49	128	3.75601	296.9714	-1303.734	1	1337.129	-77.16781	2.651884E-007	0.0006215	8
	50	131	3.004808	351.4665	-1590.941	1	1629.301	-77.54246	3.027676E-007	0.0006498	8
	51	135	2.372217	428.2046	-1964.588	1	2010.713	-77.70403	3.184294E-007	0.0006802	8
	52	139	1.878005	522.5572	-2426.128	1	2481.766	-77.84491	2.685968E-007	0.0006231	8
	53	144	1.512097	633.64	-2936.413	1	3004.001	-77.82302	3.266713E-007	0.0006028	8
	54	149	1.201923	796.0444	-3608.303	1	3695.07	-77.559	2.960667E-007	0.0006193	8
	55	155	0.956633	1006.449	-4417.446	1	4530.648	-77.1651	-1.921797E-008	-3.028163E-005	7
