EXPLAIN
TAG	EISPOT
TITLE	LABEL	Potentiostatic EIS	Test Identifier
DATE	LABEL	9/22/2020	Date
TIME	LABEL	1:26:07	Time
NOTES	NOTES	1	Notes...
	
PSTAT	PSTAT	REF3000-16137	Potentiostat
VDC	POTEN	0.00000E+000	T	DC Voltage (V)
FREQINIT	QUANT	3.00000E+005	Initial Freq. (Hz)
FREQFINAL	QUANT	1.00000E+000	Final Freq. (Hz)
PTSPERDEC	QUANT	1.00000E+001	Points/decade
VAC	QUANT	5.00000E+001	AC Voltage (mV rms)
AREA	QUANT	1.00000E+000	Sample Area (cm^2)
SPEED	SELECTOR	2	Optimize for:
ZGUESS	QUANT	1.00000E+003	Estimated Z (ohms)
EOC	QUANT	0	Open Circuit (V)
SEQUENCER	TOGGLE	TRUE	Run as Sequence
PSTATMODEL	IQUANT	5	Pstat Model
PSTATSECTION	LABEL	REF3000-16137	Pstat Section
PSTATSERIALNO	LABEL	16137	Pstat Serial Number
CTRLMODE	IQUANT	1	Control Mode
IESTAB	IQUANT	0	I/E Stability
CASPEED	IQUANT	1	Control Amp Speed
CONVENTION	IQUANT	1	Current Convention
ICHRANGE	IQUANT	2	Ich Range
ICHRANGEMODE	TOGGLE	F	Ich Auto Range
ICHOFFSETENABLE	TOGGLE	T	Ich Offset Enable
ICHOFFSET	QUANT	0	Ich Offset (V)
ICHFILTER	IQUANT	3	Ich Filter
VCHRANGE	IQUANT	2	Vch Range
VCHRANGEMODE	TOGGLE	F	Vch Auto Range
VCHOFFSETENABLE	TOGGLE	T	Vch Offset Enable
VCHOFFSET	QUANT	0	Vch Offset (V)
VCHFILTER	IQUANT	3	Vch Filter
ACHRANGE	IQUANT	2	Ach Range
ACHOFFSETENABLE	TOGGLE	F	Ach Offset Enable
ACHOFFSET	QUANT	0	Ach Offset (V)
ACHFILTER	IQUANT	3	Ach Filter
IERANGELOWERLIMIT	IQUANT	2	I/E Range Lower Limit
IERANGEMODE	TOGGLE	F	I/E AutoRange
IERANGE	IQUANT	11	I/E Range
POSFEEDENABLE	TOGGLE	F	Positive Feedback IR Comp
POSFEEDRESISTANCE	QUANT	0	Positive Feedback Resistance (ohm)
ACHSELECT	IQUANT	0	Ach Select
CABLEID	IQUANT	13	Cable ID
DCCALDATE	LABEL	7/31/2020	DC Calibration Date
ACCALDATE	LABEL	7/31/2020	AC Calibration Date
THERMOSELECT	IQUANT	1	Thermo Select
FRAMEWORKVERSION	QUANT	6.33	Framework Version
INSTRUMENTVERSION	LABEL	3.50	Instrument Version
COMPLIANCEVOLTAGE	IQUANT	0	Compliance Voltage
ZCURVE	TABLE
	Pt	Time	Freq	Zreal	Zimag	Zsig	Zmod	Zphz	Idc	Vdc	IERange
	#	s	Hz	ohm	ohm	V	ohm	°	A	V	#
	0	6	300046.9	35.47638	1.553289	1	35.51037	2.507023	7.395561E-005	-0.0001702	10
	1	11	238359.4	35.54383	1.252854	1	35.5659	2.018734	-6.014884E-005	0.0004946	10
	2	14	189328.1	35.57478	0.972169	1	35.58807	1.565359	7.827074E-005	0.0001896	10
	3	16	150421.9	35.59574	0.7448487	1	35.60353	1.198752	7.444395E-005	0.0002261	10
	4	19	119484.4	35.66744	0.5699736	1	35.672	0.9155213	1.994102E-006	0.0008346	10
	5	21	94921.88	35.69027	0.7802311	1	35.69879	1.252354	8.595055E-006	-0.0003942	9
	6	24	75421.88	35.71712	0.5494303	1	35.72134	0.8813016	-1.103653E-005	0.0002625	9
	7	27	59859.37	35.74525	0.3652805	1	35.74712	0.5854849	-1.263839E-005	0.0004183	9
	8	29	47578.12	35.77782	0.2037735	1	35.7784	0.3263261	1.303827E-005	-0.0004859	9
	9	32	37828.12	35.82184	0.059522	1	35.82189	0.0952033	-8.634965E-006	0.0004715	9
	10	34	30046.88	35.85577	-0.0874777	1	35.85587	-0.1397848	-7.394637E-006	5.865325E-005	9
	11	37	23859.38	35.90452	-0.2277331	1	35.90524	-0.3634075	1.782296E-005	-0.0003373	9
	12	39	18984.38	35.95597	-0.368025	1	35.95786	-0.5864266	-1.225709E-005	0.00035	9
	13	41	15046.87	36.01208	-0.5390757	1	36.01611	-0.8576139	-1.694945E-005	0.0005219	9
	14	44	11953.13	36.05384	-0.698144	1	36.0606	-1.109333	-8.437954E-006	0.0004946	9
	15	46	9515.62	36.11406	-0.9083303	1	36.12548	-1.440783	-1.324412E-005	0.0005637	9
	16	48	7546.875	36.16755	-1.159703	1	36.18613	-1.836545	-1.500515E-005	0.0004484	9
	17	51	5928.309	36.24319	-1.472579	1	36.27309	-2.326677	2.612408E-006	0.0002785	9
	18	53	4733.456	36.31813	-1.856347	1	36.36554	-2.926043	-2.365628E-006	-0.000105	9
	19	55	3796.875	36.39003	-2.267046	1	36.46058	-3.564837	3.05901E-006	-0.0002518	9
	20	57	2987.132	36.49925	-2.84984	1	36.61034	-4.464562	-1.184322E-005	0.0002064	9
	21	60	2390.625	36.61562	-3.504367	1	36.78293	-5.466949	-1.155958E-005	0.0002681	9
	22	62	1884.191	36.70787	-4.380684	1	36.96834	-6.805441	1.635996E-005	-0.0002068	9
	23	64	1516.544	36.89553	-5.373363	1	37.28476	-8.286143	1.486024E-005	-0.0001402	9
	24	67	1193.986	37.09214	-6.712957	1	37.6947	-10.25838	-1.415763E-005	0.0003929	9
	25	69	946.5144	37.31833	-8.327471	1	38.23617	-12.57929	-7.573723E-006	6.204399E-005	9
	26	72	751.7689	37.59035	-10.30228	1	38.97655	-15.32655	-8.237107E-006	8.830232E-005	9
	27	74	597.4265	37.95633	-12.74984	1	40.0405	-18.56762	-1.451464E-005	0.0004033	9
	28	76	477.4305	38.38505	-15.67888	1	41.46371	-22.21821	1.223758E-006	6.412216E-005	9
	29	79	376.6741	38.94941	-19.50419	1	43.55995	-26.59974	1.316022E-006	6.368803E-005	9
	30	81	298.2954	39.64476	-24.16562	1	46.42934	-31.36456	1.351695E-006	5.914818E-005	9
	31	83	237.7717	40.49553	-29.74834	1	50.2479	-36.3013	1.265568E-006	6.667126E-005	9
	32	86	189.0121	41.57342	-36.69407	1	55.45091	-41.43268	1.297025E-006	6.336471E-005	9
	33	88	150.2404	42.93381	-45.24052	1	62.37	-46.49856	1.340806E-006	5.86058E-005	9
	34	91	119.1737	44.67122	-55.85421	1	71.52071	-51.34779	1.270167E-006	6.832581E-005	9
	35	93	95.0169	46.82244	-68.59228	1	83.04963	-55.68179	1.325778E-006	6.56889E-005	9
	36	96	75.60484	49.56953	-84.31944	1	97.8106	-59.54967	1.329503E-006	6.261096E-005	9
	37	98	54.50582	54.76754	-113.1008	1	125.6633	-64.16203	1.245465E-006	5.808193E-005	9
	38	101	45.95588	58.23163	-131.7115	1	144.0099	-66.14906	1.256303E-006	6.469712E-005	9
	39	103	37.20238	63.29612	-158.8949	1	171.038	-68.28004	1.250054E-006	6.747618E-005	9
	40	105	30.04808	69.48167	-192.0043	1	204.1895	-70.10604	1.234106E-006	7.151596E-005	9
	41	108	23.91582	77.4109	-234.9028	1	247.3293	-71.76066	1.295833E-006	5.799366E-005	9
	42	110	18.60119	88.02314	-293.3819	1	306.3021	-73.29922	1.408595E-006	6.162679E-005	9
	43	112	15.02404	99.0139	-354.4254	1	367.9961	-74.39153	1.318407E-006	7.148322E-005	9
	44	115	12.01923	112.2759	-430.4475	1	444.8494	-75.38097	4.799318E-007	0.0006459	8
	45	117	9.450605	130.5021	-533.3443	1	549.0782	-76.25066	3.83172E-007	0.0006312	8
	46	120	7.512019	152.2247	-655.1538	1	672.606	-76.91945	4.523491E-007	0.0006403	8
	47	122	5.978954	179.2576	-803.4861	1	823.2394	-77.42329	4.548253E-007	0.0006424	8
	48	125	4.734848	214.3869	-990.912	1	1013.839	-77.79204	3.723481E-007	0.0006179	8
	49	129	3.75601	260.6424	-1219.33	1	1246.876	-77.93411	4.544051E-007	0.000654	8
	50	132	3.004808	317.6194	-1487.688	1	1521.216	-77.94836	4.250094E-007	0.000641	8
	51	136	2.372217	399.3458	-1836.879	1	1879.788	-77.7345	4.093267E-007	0.0005944	8
	52	140	1.878005	500.9625	-2260.051	1	2314.907	-77.50191	4.666333E-007	0.0006383	8
	53	145	1.512097	626.0168	-2724.878	1	2795.865	-77.06132	4.152531E-007	0.000611	8
	54	150	1.201923	800.929	-3335.243	1	3430.063	-76.49662	4.409379E-007	0.0006704	8
	55	157	0.956633	1027.058	-4055.962	1	4183.979	-75.79015	3.995807E-007	-4.910271E-007	8
