EXPLAIN
TAG	EISPOT
TITLE	LABEL	Potentiostatic EIS	Test Identifier
DATE	LABEL	9/22/2020	Date
TIME	LABEL	1:12:12	Time
NOTES	NOTES	1	Notes...
	
PSTAT	PSTAT	REF3000-16137	Potentiostat
VDC	POTEN	0.00000E+000	T	DC Voltage (V)
FREQINIT	QUANT	3.00000E+005	Initial Freq. (Hz)
FREQFINAL	QUANT	1.00000E+000	Final Freq. (Hz)
PTSPERDEC	QUANT	1.00000E+001	Points/decade
VAC	QUANT	5.00000E+001	AC Voltage (mV rms)
AREA	QUANT	1.00000E+000	Sample Area (cm^2)
SPEED	SELECTOR	2	Optimize for:
ZGUESS	QUANT	1.00000E+003	Estimated Z (ohms)
EOC	QUANT	0	Open Circuit (V)
SEQUENCER	TOGGLE	TRUE	Run as Sequence
PSTATMODEL	IQUANT	5	Pstat Model
PSTATSECTION	LABEL	REF3000-16137	Pstat Section
PSTATSERIALNO	LABEL	16137	Pstat Serial Number
CTRLMODE	IQUANT	1	Control Mode
IESTAB	IQUANT	0	I/E Stability
CASPEED	IQUANT	1	Control Amp Speed
CONVENTION	IQUANT	1	Current Convention
ICHRANGE	IQUANT	2	Ich Range
ICHRANGEMODE	TOGGLE	F	Ich Auto Range
ICHOFFSETENABLE	TOGGLE	T	Ich Offset Enable
ICHOFFSET	QUANT	0	Ich Offset (V)
ICHFILTER	IQUANT	3	Ich Filter
VCHRANGE	IQUANT	2	Vch Range
VCHRANGEMODE	TOGGLE	F	Vch Auto Range
VCHOFFSETENABLE	TOGGLE	T	Vch Offset Enable
VCHOFFSET	QUANT	0	Vch Offset (V)
VCHFILTER	IQUANT	3	Vch Filter
ACHRANGE	IQUANT	2	Ach Range
ACHOFFSETENABLE	TOGGLE	F	Ach Offset Enable
ACHOFFSET	QUANT	0	Ach Offset (V)
ACHFILTER	IQUANT	3	Ach Filter
IERANGELOWERLIMIT	IQUANT	2	I/E Range Lower Limit
IERANGEMODE	TOGGLE	F	I/E AutoRange
IERANGE	IQUANT	11	I/E Range
POSFEEDENABLE	TOGGLE	F	Positive Feedback IR Comp
POSFEEDRESISTANCE	QUANT	0	Positive Feedback Resistance (ohm)
ACHSELECT	IQUANT	0	Ach Select
CABLEID	IQUANT	13	Cable ID
DCCALDATE	LABEL	7/31/2020	DC Calibration Date
ACCALDATE	LABEL	7/31/2020	AC Calibration Date
THERMOSELECT	IQUANT	1	Thermo Select
FRAMEWORKVERSION	QUANT	6.33	Framework Version
INSTRUMENTVERSION	LABEL	3.50	Instrument Version
COMPLIANCEVOLTAGE	IQUANT	0	Compliance Voltage
ZCURVE	TABLE
	Pt	Time	Freq	Zreal	Zimag	Zsig	Zmod	Zphz	Idc	Vdc	IERange
	#	s	Hz	ohm	ohm	V	ohm	°	A	V	#
	0	7	300046.9	26.35752	1.48549	1	26.39935	3.225734	-5.161694E-005	-0.0003606	11
	1	11	238359.4	26.36539	1.461621	1	26.40587	3.173064	5.940889E-006	0.0006219	10
	2	14	189328.1	26.38426	1.155912	1	26.40957	2.508562	-1.76141E-005	0.0005912	10
	3	18	150421.9	26.44915	0.8942115	1	26.46426	1.936359	6.956891E-005	0.0005812	10
	4	22	119484.4	26.46932	0.6800006	1	26.47806	1.471613	-3.269139E-006	0.0004519	10
	5	26	94921.88	26.48694	0.5096746	1	26.49184	1.102377	2.622507E-005	0.0006351	10
	6	28	75421.88	26.51874	0.3527705	1	26.52109	0.7621429	-2.81572E-005	0.0006356	10
	7	31	59859.37	26.54597	0.2146102	1	26.54684	0.4631962	-2.858106E-005	0.0006507	10
	8	33	47578.12	26.5792	0.0946916	1	26.57936	0.2041222	7.803873E-006	0.0006937	10
	9	36	37828.12	26.60664	-0.022764	1	26.60665	-0.0490209	2.326073E-005	0.0006763	10
	10	38	30046.88	26.63578	-0.1353185	1	26.63612	-0.2910788	2.384281E-005	0.0005931	10
	11	41	23859.38	26.67023	-0.2513734	1	26.67142	-0.5400106	-2.163943E-005	0.0007319	10
	12	43	18984.38	26.70552	-0.3790257	1	26.70821	-0.8131321	2.383288E-005	0.0005953	10
	13	46	15046.87	26.74429	-0.5314095	1	26.74957	-1.138318	-3.005477E-005	0.0006606	10
	14	48	11953.13	26.7803	-0.696762	1	26.78936	-1.490368	-2.115002E-005	0.000733	10
	15	50	9515.62	26.82092	-0.8900031	1	26.83568	-1.900559	1.876509E-005	0.0006312	10
	16	53	7546.875	26.86853	-1.12882	1	26.89223	-2.405736	1.379652E-005	0.0005854	10
	17	55	5928.309	26.9241	-1.435578	1	26.96234	-3.052089	2.369922E-005	0.0006556	10
	18	57	4733.456	26.98783	-1.787614	1	27.04696	-3.789609	-2.992806E-005	0.0006956	10
	19	60	3796.875	27.0601	-2.205943	1	27.14987	-4.660455	7.507104E-006	0.0007039	10
	20	62	2987.132	27.14029	-2.761152	1	27.28038	-5.809072	2.285907E-005	0.0006511	10
	21	64	2390.625	27.24099	-3.395433	1	27.45178	-7.104948	2.50349E-005	0.0006594	10
	22	66	1884.191	27.35843	-4.238598	1	27.68482	-8.806728	-1.644573E-005	0.0007041	10
	23	69	1516.544	27.50033	-5.198934	1	27.98745	-10.70541	1.954893E-005	0.0006634	10
	24	71	1193.986	27.68072	-6.485859	1	28.43042	-13.18706	-2.197544E-005	0.0007162	10
	25	74	946.5144	27.89998	-8.052423	1	29.03877	-16.09907	6.773481E-006	0.000704	10
	26	76	751.7689	28.1703	-9.96696	1	29.88153	-19.48433	-2.247723E-005	0.0007055	10
	27	78	597.4265	28.50759	-12.321	1	31.05623	-23.37403	-2.094082E-005	0.0007185	10
	28	82	477.4305	28.92448	-15.14647	1	32.65028	-27.63907	-2.601442E-006	0.0006688	10
	29	84	376.6741	29.46802	-18.83531	1	34.97332	-32.58582	-2.405018E-006	0.0006703	10
	30	86	298.2954	30.10641	-23.30163	1	38.07048	-37.739	1.184696E-006	7.185642E-005	9
	31	88	237.7717	30.93427	-28.67738	1	42.182	-42.83182	8.606313E-007	0.000112	9
	32	91	189.0121	31.99006	-35.36444	1	47.68655	-47.86806	1.179067E-006	6.991731E-005	9
	33	93	150.2404	33.32968	-43.58433	1	54.86767	-52.59424	1.194401E-006	6.40681E-005	9
	34	96	119.1737	35.0481	-53.77967	1	64.19207	-56.9078	1.16598E-006	6.129481E-005	9
	35	98	95.0169	37.18036	-65.98743	1	75.74114	-60.60109	1.208762E-006	5.569485E-005	9
	36	101	75.60484	39.88533	-81.02709	1	90.31184	-63.79143	1.094519E-006	5.687671E-005	9
	37	103	54.50582	44.93735	-108.5033	1	117.4408	-67.50279	1.075555E-006	5.771084E-005	9
	38	106	45.95588	48.24601	-126.2563	1	135.1604	-69.08676	1.119754E-006	6.251731E-005	9
	39	108	37.20238	53.04051	-152.2054	1	161.1825	-70.78759	1.184534E-006	5.619695E-005	9
	40	110	30.04808	58.81583	-183.8647	1	193.0428	-72.26123	1.151821E-006	5.946519E-005	9
	41	113	23.91582	66.23768	-225.0414	1	234.587	-73.59897	1.082725E-006	6.319691E-005	9
	42	115	18.60119	76.1664	-281.2406	1	291.3719	-74.84649	1.287162E-006	6.002517E-005	9
	43	118	15.02404	86.54014	-340.1047	1	350.9421	-75.72396	1.278891E-006	6.19133E-005	9
	44	120	12.01923	99.4059	-413.5138	1	425.2943	-76.48296	5.351998E-007	0.000635	8
	45	122	9.450605	117.2363	-512.9697	1	526.196	-77.12647	3.853879E-007	0.0006464	8
	46	125	7.512019	138.6284	-630.1757	1	645.2436	-77.59348	4.196306E-007	0.0006245	8
	47	128	5.978954	166.1776	-773.511	1	791.1601	-77.87513	4.220071E-007	0.000642	8
	48	131	4.734848	203.2188	-953.63	1	975.042	-77.97019	4.389378E-007	0.0006225	8
	49	134	3.75601	250.6107	-1173.127	1	1199.597	-77.94138	4.776975E-007	0.0006518	8
	50	137	3.004808	309.9816	-1430.396	1	1463.599	-77.77249	5.13207E-007	0.0006137	8
	51	141	2.372217	393.1721	-1759.214	1	1802.614	-77.40182	4.752097E-007	0.0006395	8
	52	145	1.878005	504.7297	-2162.284	1	2220.411	-76.86103	4.392584E-007	0.0006386	8
	53	150	1.512097	632.7528	-2605.079	1	2680.823	-76.34769	4.797332E-007	0.0005618	8
	54	155	1.201923	819.8596	-3172.659	1	3276.879	-75.51093	4.436327E-007	0.00063	8
	55	162	0.956633	1056.423	-3839.259	1	3981.952	-74.61506	4.359028E-007	1.471177E-006	8
