EXPLAIN
TAG	EISPOT
TITLE	LABEL	Potentiostatic EIS	Test Identifier
DATE	LABEL	9/21/2020	Date
TIME	LABEL	23:46:14	Time
NOTES	NOTES	1	Notes...
	
PSTAT	PSTAT	REF3000-16137	Potentiostat
VDC	POTEN	0.00000E+000	T	DC Voltage (V)
FREQINIT	QUANT	3.00000E+005	Initial Freq. (Hz)
FREQFINAL	QUANT	1.00000E+000	Final Freq. (Hz)
PTSPERDEC	QUANT	1.00000E+001	Points/decade
VAC	QUANT	5.00000E+001	AC Voltage (mV rms)
AREA	QUANT	1.00000E+000	Sample Area (cm^2)
SPEED	SELECTOR	2	Optimize for:
ZGUESS	QUANT	1.00000E+003	Estimated Z (ohms)
EOC	QUANT	0	Open Circuit (V)
SEQUENCER	TOGGLE	TRUE	Run as Sequence
PSTATMODEL	IQUANT	5	Pstat Model
PSTATSECTION	LABEL	REF3000-16137	Pstat Section
PSTATSERIALNO	LABEL	16137	Pstat Serial Number
CTRLMODE	IQUANT	1	Control Mode
IESTAB	IQUANT	0	I/E Stability
CASPEED	IQUANT	1	Control Amp Speed
CONVENTION	IQUANT	1	Current Convention
ICHRANGE	IQUANT	2	Ich Range
ICHRANGEMODE	TOGGLE	F	Ich Auto Range
ICHOFFSETENABLE	TOGGLE	T	Ich Offset Enable
ICHOFFSET	QUANT	0	Ich Offset (V)
ICHFILTER	IQUANT	3	Ich Filter
VCHRANGE	IQUANT	2	Vch Range
VCHRANGEMODE	TOGGLE	F	Vch Auto Range
VCHOFFSETENABLE	TOGGLE	T	Vch Offset Enable
VCHOFFSET	QUANT	0	Vch Offset (V)
VCHFILTER	IQUANT	3	Vch Filter
ACHRANGE	IQUANT	2	Ach Range
ACHOFFSETENABLE	TOGGLE	F	Ach Offset Enable
ACHOFFSET	QUANT	0	Ach Offset (V)
ACHFILTER	IQUANT	3	Ach Filter
IERANGELOWERLIMIT	IQUANT	2	I/E Range Lower Limit
IERANGEMODE	TOGGLE	F	I/E AutoRange
IERANGE	IQUANT	11	I/E Range
POSFEEDENABLE	TOGGLE	F	Positive Feedback IR Comp
POSFEEDRESISTANCE	QUANT	0	Positive Feedback Resistance (ohm)
ACHSELECT	IQUANT	0	Ach Select
CABLEID	IQUANT	13	Cable ID
DCCALDATE	LABEL	7/31/2020	DC Calibration Date
ACCALDATE	LABEL	7/31/2020	AC Calibration Date
THERMOSELECT	IQUANT	1	Thermo Select
FRAMEWORKVERSION	QUANT	6.33	Framework Version
INSTRUMENTVERSION	LABEL	3.50	Instrument Version
COMPLIANCEVOLTAGE	IQUANT	0	Compliance Voltage
ZCURVE	TABLE
	Pt	Time	Freq	Zreal	Zimag	Zsig	Zmod	Zphz	Idc	Vdc	IERange
	#	s	Hz	ohm	ohm	V	ohm	°	A	V	#
	0	8	300046.9	7.142627	2.207228	1	7.475893	17.17229	3.077606E-005	-1.188956E-005	10
	1	11	238359.4	7.100399	1.760724	1	7.315451	13.92701	6.119138E-005	-0.0002224	10
	2	14	189328.1	7.083784	1.388487	1	7.218579	11.0899	6.811847E-005	-7.957288E-006	10
	3	17	150421.9	7.071805	1.090461	1	7.155384	8.765877	-5.327409E-005	0.0004622	10
	4	20	119484.4	7.073064	0.8414084	1	7.122935	6.783998	-1.681492E-005	0.0004814	10
	5	22	94921.88	7.074221	0.6600135	1	7.104944	5.330174	1.766676E-005	0.0005197	10
	6	25	75421.88	7.073485	0.4818627	1	7.089879	3.897104	1.036234E-005	0.0005207	10
	7	27	59859.37	7.076356	0.3274417	1	7.083928	2.649337	-1.213392E-005	0.0006418	10
	8	30	47578.12	7.080549	0.1932396	1	7.083186	1.563306	1.516817E-005	0.0005909	10
	9	32	37828.12	7.089827	0.0735094	1	7.090208	0.5940384	-9.964113E-006	0.0006261	10
	10	35	30046.88	7.099249	-0.0400605	1	7.099362	-0.3233123	7.774241E-006	0.0006624	10
	11	37	23859.38	7.108666	-0.1529711	1	7.110312	-1.232755	1.346286E-005	0.000608	10
	12	40	18984.38	7.120394	-0.2710744	1	7.125552	-2.180205	-2.837675E-005	0.0007054	10
	13	42	15046.87	7.133587	-0.4023171	1	7.144923	-3.227924	-2.497385E-005	0.0006624	10
	14	44	11953.13	7.150331	-0.5497929	1	7.171437	-4.396853	-2.003055E-005	0.0006593	10
	15	46	9515.62	7.169295	-0.7210966	1	7.205468	-5.743564	1.86296E-005	0.0006313	10
	16	49	7546.875	7.195031	-0.9282906	1	7.254667	-7.351593	-2.333261E-005	0.00075	10
	17	51	5928.309	7.225227	-1.189566	1	7.322498	-9.349342	4.193256E-006	0.0006146	10
	18	53	4733.456	7.261882	-1.48768	1	7.4127	-11.57751	-2.411381E-005	0.0007209	10
	19	56	3796.875	7.305097	-1.843626	1	7.534149	-14.16426	1.641414E-005	0.0006662	10
	20	58	2987.132	7.363854	-2.318306	1	7.720161	-17.47517	-1.487005E-005	0.0006829	10
	21	60	2390.625	7.432471	-2.861745	1	7.964372	-21.05834	1.170054E-006	0.0006336	10
	22	63	1884.191	7.526999	-3.579175	1	8.33464	-25.43163	3.675317E-006	0.0006577	10
	23	65	1516.544	7.635768	-4.380881	1	8.803242	-29.84425	-2.469113E-005	0.0006751	10
	24	67	1193.986	7.786036	-5.471281	1	9.51616	-35.09587	-2.645778E-005	0.0006848	10
	25	70	946.5144	7.978421	-6.774746	1	10.46673	-40.33571	-9.581504E-006	0.0006598	10
	26	72	751.7689	8.212934	-8.382225	1	11.73516	-45.58447	1.898634E-005	0.0006242	10
	27	74	597.4265	8.519352	-10.35109	1	13.40613	-50.54428	-2.576149E-005	0.0007251	10
	28	77	477.4305	8.898255	-12.70107	1	15.50794	-54.98526	-3.50772E-006	0.0006716	10
	29	79	376.6741	9.414165	-15.75211	1	18.3509	-59.13558	-3.987732E-006	0.0006628	10
	30	81	298.2954	10.06082	-19.44489	1	21.89346	-62.64288	-3.743887E-006	0.0006721	10
	31	84	237.7717	10.84861	-23.83169	1	26.18476	-65.52413	-3.694413E-006	0.0006618	10
	32	86	189.0121	11.83635	-29.25058	1	31.55465	-67.96912	-4.22146E-006	0.0006611	10
	33	88	150.2404	13.04233	-35.86909	1	38.16666	-70.01827	-3.619335E-006	0.0006609	10
	34	91	119.1737	14.50334	-43.99952	1	46.32822	-71.75648	6.885746E-007	6.186092E-005	9
	35	93	95.0169	16.24946	-53.79255	1	56.19327	-73.19167	6.663437E-007	6.524802E-005	9
	36	96	75.60484	18.38666	-65.9043	1	68.4211	-74.41142	6.276039E-007	5.282175E-005	9
	37	98	54.50582	22.31246	-88.24688	1	91.02394	-75.81064	5.317565E-007	5.979096E-005	9
	38	101	45.95588	24.90817	-102.8077	1	105.7821	-76.38086	7.938428E-007	6.556393E-005	9
	39	103	37.20238	28.76607	-124.24	1	127.5267	-76.96366	7.08987E-007	6.975159E-005	9
	40	106	30.04808	33.68357	-150.5059	1	154.2291	-77.38495	5.788864E-007	6.6861E-005	9
	41	108	23.91582	40.41407	-184.816	1	189.1831	-77.66518	5.480804E-007	0.0000992	9
	42	110	18.60119	50.11131	-231.4461	1	236.8089	-77.78323	8.821165E-007	6.674388E-005	9
	43	113	15.02404	60.95757	-280.1583	1	286.7132	-77.72476	7.70053E-007	6.584565E-005	9
	44	115	12.01923	75.83073	-341.7585	1	350.0702	-77.48966	8.861899E-007	6.684789E-005	9
	45	117	9.450605	96.8596	-420.8797	1	431.8813	-77.03984	-8.428387E-009	0.000644	8
	46	120	7.512019	123.9781	-514.129	1	528.866	-76.44241	2.664063E-008	0.0006502	8
	47	123	5.978954	159.799	-625.8158	1	645.8956	-75.67588	8.570505E-008	0.0006561	8
	48	126	4.734848	208.8255	-762.6335	1	790.7073	-74.68655	1.215362E-007	0.0006295	8
	49	129	3.75601	272.5457	-924.0283	1	963.384	-73.56637	1.836592E-007	0.0006591	8
	50	132	3.004808	352.9412	-1106.464	1	1161.391	-72.30829	2.237902E-007	0.0006115	8
	51	136	2.372217	464.0648	-1334.104	1	1412.511	-70.81989	1.332839E-007	0.0005692	8
	52	140	1.878005	605.7646	-1593.76	1	1704.999	-69.18894	2.007171E-007	0.000654	8
	53	145	1.512097	772.8194	-1866.143	1	2019.836	-67.50425	1.882249E-007	0.0005884	8
	54	150	1.201923	998.812	-2203.114	1	2418.954	-65.61219	1.629718E-007	0.0006692	8
	55	157	0.956633	1282.005	-2574.759	1	2876.268	-63.53071	4.776995E-008	-4.666053E-007	8
