EXPLAIN
TAG	EISPOT
TITLE	LABEL	Potentiostatic EIS	Test Identifier
DATE	LABEL	9/22/2020	Date
TIME	LABEL	0:30:29	Time
NOTES	NOTES	1	Notes...
	
PSTAT	PSTAT	REF3000-16137	Potentiostat
VDC	POTEN	0.00000E+000	T	DC Voltage (V)
FREQINIT	QUANT	3.00000E+005	Initial Freq. (Hz)
FREQFINAL	QUANT	1.00000E+000	Final Freq. (Hz)
PTSPERDEC	QUANT	1.00000E+001	Points/decade
VAC	QUANT	5.00000E+001	AC Voltage (mV rms)
AREA	QUANT	1.00000E+000	Sample Area (cm^2)
SPEED	SELECTOR	2	Optimize for:
ZGUESS	QUANT	1.00000E+003	Estimated Z (ohms)
EOC	QUANT	0	Open Circuit (V)
SEQUENCER	TOGGLE	TRUE	Run as Sequence
PSTATMODEL	IQUANT	5	Pstat Model
PSTATSECTION	LABEL	REF3000-16137	Pstat Section
PSTATSERIALNO	LABEL	16137	Pstat Serial Number
CTRLMODE	IQUANT	1	Control Mode
IESTAB	IQUANT	0	I/E Stability
CASPEED	IQUANT	1	Control Amp Speed
CONVENTION	IQUANT	1	Current Convention
ICHRANGE	IQUANT	2	Ich Range
ICHRANGEMODE	TOGGLE	F	Ich Auto Range
ICHOFFSETENABLE	TOGGLE	T	Ich Offset Enable
ICHOFFSET	QUANT	0	Ich Offset (V)
ICHFILTER	IQUANT	3	Ich Filter
VCHRANGE	IQUANT	2	Vch Range
VCHRANGEMODE	TOGGLE	F	Vch Auto Range
VCHOFFSETENABLE	TOGGLE	T	Vch Offset Enable
VCHOFFSET	QUANT	0	Vch Offset (V)
VCHFILTER	IQUANT	3	Vch Filter
ACHRANGE	IQUANT	2	Ach Range
ACHOFFSETENABLE	TOGGLE	F	Ach Offset Enable
ACHOFFSET	QUANT	0	Ach Offset (V)
ACHFILTER	IQUANT	3	Ach Filter
IERANGELOWERLIMIT	IQUANT	2	I/E Range Lower Limit
IERANGEMODE	TOGGLE	F	I/E AutoRange
IERANGE	IQUANT	11	I/E Range
POSFEEDENABLE	TOGGLE	F	Positive Feedback IR Comp
POSFEEDRESISTANCE	QUANT	0	Positive Feedback Resistance (ohm)
ACHSELECT	IQUANT	0	Ach Select
CABLEID	IQUANT	13	Cable ID
DCCALDATE	LABEL	7/31/2020	DC Calibration Date
ACCALDATE	LABEL	7/31/2020	AC Calibration Date
THERMOSELECT	IQUANT	1	Thermo Select
FRAMEWORKVERSION	QUANT	6.33	Framework Version
INSTRUMENTVERSION	LABEL	3.50	Instrument Version
COMPLIANCEVOLTAGE	IQUANT	0	Compliance Voltage
ZCURVE	TABLE
	Pt	Time	Freq	Zreal	Zimag	Zsig	Zmod	Zphz	Idc	Vdc	IERange
	#	s	Hz	ohm	ohm	V	ohm	°	A	V	#
	0	8	300046.9	12.6433	2.12878	1	12.82126	9.55737	2.399915E-005	0.0001422	10
	1	11	238359.4	12.60877	1.695894	1	12.72231	7.660374	1.22448E-005	0.0002236	10
	2	14	189328.1	12.60572	1.340953	1	12.67684	6.072093	-0.000099	0.0003683	10
	3	17	150421.9	12.59092	1.053576	1	12.63493	4.78322	3.745374E-005	0.0005037	10
	4	19	119484.4	12.59834	0.801573	1	12.62382	3.640552	2.487709E-005	0.0005638	10
	5	22	94921.88	12.60149	0.6246088	1	12.61696	2.837616	2.142176E-005	0.0006226	10
	6	25	75421.88	12.60907	0.4449028	1	12.61691	2.020807	2.491445E-005	0.0006007	10
	7	27	59859.37	12.62152	0.292968	1	12.62492	1.329698	-2.543812E-005	0.0006752	10
	8	30	47578.12	12.63316	0.1620307	1	12.6342	0.7348254	-2.407455E-005	0.0006826	10
	9	32	37828.12	12.6468	0.0426041	1	12.64687	0.1930155	-1.549944E-005	0.0006528	10
	10	35	30046.88	12.6606	-0.0725341	1	12.6608	-0.328251	2.438638E-005	0.000638	10
	11	37	23859.38	12.67705	-0.1896374	1	12.67847	-0.8570301	-3.046112E-005	0.0006542	10
	12	39	18984.38	12.69395	-0.3120068	1	12.69778	-1.408	5.075048E-006	0.0006109	10
	13	42	15046.87	12.71242	-0.4494774	1	12.72037	-2.024982	8.449221E-007	0.0006098	10
	14	44	11953.13	12.73735	-0.6065819	1	12.75179	-2.726496	-1.204385E-005	0.000722	10
	15	46	9515.62	12.7629	-0.7911313	1	12.7874	-3.547042	-1.898549E-005	0.000648	10
	16	49	7546.875	12.79486	-1.011942	1	12.83482	-4.522093	-2.634662E-005	0.0007165	10
	17	51	5928.309	12.83069	-1.293774	1	12.89576	-5.757917	1.097224E-005	0.0006059	10
	18	53	4733.456	12.8755	-1.614197	1	12.97629	-7.145869	-2.224383E-005	0.0006988	10
	19	56	3796.875	12.92536	-1.995729	1	13.07853	-8.777389	2.361496E-005	0.0006617	10
	20	58	2987.132	12.99245	-2.509558	1	13.2326	-10.93234	3.450189E-006	0.0006065	10
	21	60	2390.625	13.06774	-3.093923	1	13.42901	-13.3201	2.025351E-005	0.0006316	10
	22	63	1884.191	13.16939	-3.871556	1	13.72668	-16.38236	2.421181E-005	0.0006378	10
	23	65	1516.544	13.28496	-4.739496	1	14.10507	-19.63419	-1.69872E-005	0.0006609	10
	24	67	1193.986	13.44547	-5.918543	1	14.69047	-23.75855	-2.441939E-005	0.0007212	10
	25	70	946.5144	13.63973	-7.338943	1	15.48878	-28.28276	1.364703E-005	0.0006387	10
	26	72	751.7689	13.88816	-9.083371	1	16.59484	-33.18618	-4.235717E-006	0.0006256	10
	27	74	597.4265	14.19725	-11.2253	1	18.09888	-38.33228	-2.537556E-005	0.0006819	10
	28	77	477.4305	14.57784	-13.79317	1	20.069	-43.41575	-3.462629E-006	0.0006661	10
	29	79	376.6741	15.09417	-17.1398	1	22.83871	-48.63124	-3.033884E-006	0.0006645	10
	30	81	298.2954	15.74534	-21.20975	1	26.41532	-53.41115	-2.807337E-006	0.0006631	10
	31	84	237.7717	16.55883	-26.07217	1	30.88613	-57.57976	-2.791016E-006	0.0007071	10
	32	86	189.0121	17.59798	-32.08717	1	36.59611	-61.25774	-3.29693E-006	0.0007069	10
	33	88	150.2404	18.88564	-39.39743	1	43.6901	-64.38869	9.787202E-007	5.94392E-005	9
	34	91	119.1737	20.53344	-48.46481	1	52.63516	-67.03873	1.006619E-006	6.455631E-005	9
	35	93	95.0169	22.51652	-59.28593	1	63.41778	-69.20345	9.212853E-007	6.87643E-005	9
	36	96	75.60484	24.94538	-72.60683	1	76.77255	-71.03892	9.337517E-007	6.258773E-005	9
	37	98	54.50582	29.32918	-97.0263	1	101.3622	-73.18094	9.051607E-007	5.791588E-005	9
	38	101	45.95588	32.13995	-112.9016	1	117.3872	-74.10982	9.871071E-007	6.84937E-005	9
	39	103	37.20238	36.2415	-136.2442	1	140.9821	-75.10404	9.768353E-007	6.512261E-005	9
	40	106	30.04808	41.25646	-164.8633	1	169.9471	-75.95047	1.041153E-006	6.046129E-005	9
	41	108	23.91582	47.8513	-202.1819	1	207.7673	-76.68456	9.375803E-007	6.561891E-005	9
	42	110	18.60119	57.03788	-253.2959	1	259.6385	-77.30965	1.187561E-006	6.424359E-005	9
	43	113	15.02404	67.16531	-306.909	1	314.1724	-77.65575	1.08439E-006	5.40101E-005	9
	44	115	12.01923	80.47992	-375.052	1	383.5897	-77.88894	1.240951E-006	6.70044E-005	9
	45	117	9.450605	98.7752	-463.3228	1	473.7346	-77.96535	4.155034E-007	0.0006265	8
	46	120	7.512019	122.5295	-568.9128	1	581.9582	-77.8456	4.845926E-007	0.0006494	8
	47	123	5.978954	153.1501	-696.4854	1	713.1248	-77.5986	4.557707E-007	0.0006382	8
	48	126	4.734848	194.7024	-855.884	1	877.7507	-77.18407	3.335876E-007	0.0006188	8
	49	129	3.75601	249.9654	-1046.787	1	1076.218	-76.56968	4.635691E-007	0.0006717	8
	50	132	3.004808	319.83	-1267.201	1	1306.939	-75.83489	4.141522E-007	0.0006444	8
	51	136	2.372217	418.8516	-1545.717	1	1601.461	-74.83834	3.874545E-007	0.0006111	8
	52	140	1.878005	546.8992	-1879.811	1	1957.75	-73.77853	4.626166E-007	0.0006256	8
	53	145	1.512097	694.8644	-2239.869	1	2345.176	-72.76478	4.088837E-007	0.0007046	8
	54	150	1.201923	905.7743	-2691.014	1	2839.363	-71.39717	4.487526E-007	0.0006341	8
	55	157	0.956633	1167.91	-3210.129	1	3415.983	-70.00759	3.428167E-007	1.571221E-006	8
