EXPLAIN
TAG	EISPOT
TITLE	LABEL	Potentiostatic EIS	Test Identifier
DATE	LABEL	9/21/2020	Date
TIME	LABEL	23:40:40	Time
NOTES	NOTES	1	Notes...
	
PSTAT	PSTAT	REF3000-16137	Potentiostat
VDC	POTEN	0.00000E+000	T	DC Voltage (V)
FREQINIT	QUANT	3.00000E+005	Initial Freq. (Hz)
FREQFINAL	QUANT	1.00000E+000	Final Freq. (Hz)
PTSPERDEC	QUANT	1.00000E+001	Points/decade
VAC	QUANT	5.00000E+001	AC Voltage (mV rms)
AREA	QUANT	1.00000E+000	Sample Area (cm^2)
SPEED	SELECTOR	2	Optimize for:
ZGUESS	QUANT	1.00000E+003	Estimated Z (ohms)
EOC	QUANT	0	Open Circuit (V)
SEQUENCER	TOGGLE	TRUE	Run as Sequence
PSTATMODEL	IQUANT	5	Pstat Model
PSTATSECTION	LABEL	REF3000-16137	Pstat Section
PSTATSERIALNO	LABEL	16137	Pstat Serial Number
CTRLMODE	IQUANT	1	Control Mode
IESTAB	IQUANT	0	I/E Stability
CASPEED	IQUANT	1	Control Amp Speed
CONVENTION	IQUANT	1	Current Convention
ICHRANGE	IQUANT	2	Ich Range
ICHRANGEMODE	TOGGLE	F	Ich Auto Range
ICHOFFSETENABLE	TOGGLE	T	Ich Offset Enable
ICHOFFSET	QUANT	0	Ich Offset (V)
ICHFILTER	IQUANT	3	Ich Filter
VCHRANGE	IQUANT	2	Vch Range
VCHRANGEMODE	TOGGLE	F	Vch Auto Range
VCHOFFSETENABLE	TOGGLE	T	Vch Offset Enable
VCHOFFSET	QUANT	0	Vch Offset (V)
VCHFILTER	IQUANT	3	Vch Filter
ACHRANGE	IQUANT	2	Ach Range
ACHOFFSETENABLE	TOGGLE	F	Ach Offset Enable
ACHOFFSET	QUANT	0	Ach Offset (V)
ACHFILTER	IQUANT	3	Ach Filter
IERANGELOWERLIMIT	IQUANT	2	I/E Range Lower Limit
IERANGEMODE	TOGGLE	F	I/E AutoRange
IERANGE	IQUANT	11	I/E Range
POSFEEDENABLE	TOGGLE	F	Positive Feedback IR Comp
POSFEEDRESISTANCE	QUANT	0	Positive Feedback Resistance (ohm)
ACHSELECT	IQUANT	0	Ach Select
CABLEID	IQUANT	13	Cable ID
DCCALDATE	LABEL	7/31/2020	DC Calibration Date
ACCALDATE	LABEL	7/31/2020	AC Calibration Date
THERMOSELECT	IQUANT	1	Thermo Select
FRAMEWORKVERSION	QUANT	6.33	Framework Version
INSTRUMENTVERSION	LABEL	3.50	Instrument Version
COMPLIANCEVOLTAGE	IQUANT	0	Compliance Voltage
ZCURVE	TABLE
	Pt	Time	Freq	Zreal	Zimag	Zsig	Zmod	Zphz	Idc	Vdc	IERange
	#	s	Hz	ohm	ohm	V	ohm	°	A	V	#
	0	9	300046.9	6.736753	2.23116	1	7.096612	18.32447	1.869217E-005	0.0001546	10
	1	13	238359.4	6.688456	1.765582	1	6.917566	14.78732	6.026377E-005	-0.000245	10
	2	16	189328.1	6.678574	1.394716	1	6.822652	11.7958	-4.843891E-005	0.0003098	10
	3	18	150421.9	6.663967	1.098824	1	6.753952	9.363268	6.361322E-005	0.0001668	10
	4	21	119484.4	6.661572	0.8443936	1	6.714875	7.224053	-1.649144E-005	0.0005439	10
	5	23	94921.88	6.660495	0.6617375	1	6.693287	5.673864	2.202623E-005	0.0005139	10
	6	26	75421.88	6.659651	0.4845594	1	6.677256	4.161535	-2.01161E-005	0.0005567	10
	7	28	59859.37	6.661445	0.3302803	1	6.669628	2.838451	1.627825E-005	0.0006094	10
	8	31	47578.12	6.667405	0.1969086	1	6.670311	1.691625	-2.144212E-005	0.0006481	10
	9	33	37828.12	6.674066	0.0764345	1	6.674504	0.6561496	2.216291E-005	0.0006219	10
	10	36	30046.88	6.682166	-0.036838	1	6.682268	-0.3158613	-1.911802E-005	0.0006354	10
	11	39	23859.38	6.692388	-0.1492693	1	6.694053	-1.277733	-3.21475E-005	0.0006455	10
	12	41	18984.38	6.703155	-0.2666589	1	6.708457	-2.278088	-3.778725E-006	0.0006292	10
	13	43	15046.87	6.716773	-0.3973035	1	6.728513	-3.385155	2.229963E-005	0.0006433	10
	14	45	11953.13	6.733324	-0.5439743	1	6.755262	-4.618802	-1.838457E-005	0.0007085	10
	15	48	9515.62	6.752129	-0.7132742	1	6.789698	-6.030186	-1.006101E-005	0.0006614	10
	16	50	7546.875	6.774487	-0.9182601	1	6.836437	-7.719215	2.369873E-005	0.0006179	10
	17	52	5928.309	6.806596	-1.178452	1	6.907857	-9.82247	-2.484577E-005	0.0006735	10
	18	55	4733.456	6.841251	-1.474215	1	6.998288	-12.16066	-2.21421E-005	0.0006837	10
	19	57	3796.875	6.884108	-1.827268	1	7.122488	-14.86539	-2.837281E-005	0.0006587	10
	20	59	2987.132	6.943758	-2.297256	1	7.313902	-18.30616	-2.728935E-005	0.0006879	10
	21	62	2390.625	7.011591	-2.836646	1	7.563661	-22.02654	2.067163E-005	0.0006438	10
	22	64	1884.191	7.10658	-3.544555	1	7.941495	-26.50869	-2.707063E-005	0.0006804	10
	23	66	1516.544	7.212572	-4.340095	1	8.417697	-31.03702	2.005444E-005	0.0006431	10
	24	68	1193.986	7.363029	-5.417248	1	9.141158	-36.34327	1.943913E-005	0.0006293	10
	25	71	946.5144	7.550901	-6.715425	1	10.1051	-41.64843	-1.262656E-005	0.0007101	10
	26	73	751.7689	7.792418	-8.302194	1	11.38632	-46.81416	-1.310482E-005	0.000649	10
	27	76	597.4265	8.093981	-10.25078	1	13.06105	-51.70549	-2.635286E-005	0.0006873	10
	28	78	477.4305	8.475337	-12.57292	1	15.16277	-56.01631	-3.689106E-006	0.0006614	10
	29	80	376.6741	8.989993	-15.58803	1	17.99463	-60.02691	-4.067577E-006	0.0006591	10
	30	82	298.2954	9.63453	-19.23563	1	21.51357	-63.39514	-3.061654E-006	0.0006546	10
	31	85	237.7717	10.41635	-23.56685	1	25.7662	-66.15498	-3.949418E-006	0.0006542	10
	32	87	189.0121	11.39205	-28.91845	1	31.08143	-68.49867	-3.399751E-006	0.0006624	10
	33	90	150.2404	12.58005	-35.45668	1	37.62225	-70.46529	-3.568817E-006	0.0006573	10
	34	92	119.1737	14.01867	-43.49321	1	45.69664	-72.1349	6.673904E-007	6.237872E-005	9
	35	94	95.0169	15.73997	-53.17915	1	55.45961	-73.51229	5.936903E-007	6.145352E-005	9
	36	97	75.60484	17.85037	-65.17107	1	67.57148	-74.68235	5.441797E-007	5.915801E-005	9
	37	100	54.50582	21.74421	-87.28339	1	89.9511	-76.01112	5.517738E-007	6.293542E-005	9
	38	102	45.95588	24.32317	-101.7047	1	104.5728	-76.55006	5.601104E-007	6.204854E-005	9
	39	104	37.20238	28.18053	-122.9058	1	126.0951	-77.08612	6.411191E-007	5.964431E-005	9
	40	107	30.04808	33.11161	-148.936	1	152.5723	-77.46579	5.629363E-007	6.199181E-005	9
	41	109	23.91582	39.89161	-182.8454	1	187.1464	-77.69256	6.294803E-007	6.336881E-005	9
	42	112	18.60119	49.67048	-228.957	1	234.2829	-77.75979	4.622288E-007	6.791579E-005	9
	43	114	15.02404	60.66331	-276.9934	1	283.5584	-77.6469	7.042672E-007	6.20695E-005	9
	44	116	12.01923	75.7868	-337.8583	1	346.2541	-77.35696	5.589372E-007	5.830644E-005	9
	45	119	9.450605	97.3713	-417.3397	1	428.5482	-76.86701	6.555198E-007	7.314979E-005	9
	46	121	7.512019	124.6542	-507.7267	1	522.805	-76.2059	2.332144E-008	0.0006504	8
	47	124	5.978954	161.0103	-617.1614	1	637.8185	-75.37811	6.70354E-008	0.0006441	8
	48	127	4.734848	210.4411	-750.8675	1	779.7996	-74.34373	1.924267E-007	0.0006668	8
	49	130	3.75601	275.5301	-908.9891	1	949.8306	-73.13705	8.943797E-008	0.0006409	8
	50	134	3.004808	356.5044	-1086.724	1	1143.707	-71.83771	2.522952E-008	0.0006769	8
	51	137	2.372217	469.4797	-1307.166	1	1388.918	-70.24381	8.742379E-008	0.000722	8
	52	141	1.878005	610.953	-1559.43	1	1674.839	-68.60576	1.800806E-009	0.0006228	8
	53	146	1.512097	778.2814	-1822.004	1	1981.268	-66.86993	5.98702E-008	0.0006903	8
	54	152	1.201923	1005.342	-2144.507	1	2368.464	-64.88289	6.811018E-008	0.0006109	8
	55	158	0.956633	1288.853	-2498.564	1	2811.399	-62.71362	-5.305213E-008	1.145105E-005	8
