EXPLAIN
TAG	EISPOT
TITLE	LABEL	Potentiostatic EIS	Test Identifier
DATE	LABEL	9/22/2020	Date
TIME	LABEL	2:48:32	Time
NOTES	NOTES	1	Notes...
	
PSTAT	PSTAT	REF3000-16137	Potentiostat
VDC	POTEN	0.00000E+000	T	DC Voltage (V)
FREQINIT	QUANT	3.00000E+005	Initial Freq. (Hz)
FREQFINAL	QUANT	1.00000E+000	Final Freq. (Hz)
PTSPERDEC	QUANT	1.00000E+001	Points/decade
VAC	QUANT	5.00000E+001	AC Voltage (mV rms)
AREA	QUANT	1.00000E+000	Sample Area (cm^2)
SPEED	SELECTOR	2	Optimize for:
ZGUESS	QUANT	1.00000E+003	Estimated Z (ohms)
EOC	QUANT	0	Open Circuit (V)
SEQUENCER	TOGGLE	TRUE	Run as Sequence
PSTATMODEL	IQUANT	5	Pstat Model
PSTATSECTION	LABEL	REF3000-16137	Pstat Section
PSTATSERIALNO	LABEL	16137	Pstat Serial Number
CTRLMODE	IQUANT	1	Control Mode
IESTAB	IQUANT	0	I/E Stability
CASPEED	IQUANT	1	Control Amp Speed
CONVENTION	IQUANT	1	Current Convention
ICHRANGE	IQUANT	2	Ich Range
ICHRANGEMODE	TOGGLE	F	Ich Auto Range
ICHOFFSETENABLE	TOGGLE	T	Ich Offset Enable
ICHOFFSET	QUANT	0	Ich Offset (V)
ICHFILTER	IQUANT	3	Ich Filter
VCHRANGE	IQUANT	2	Vch Range
VCHRANGEMODE	TOGGLE	F	Vch Auto Range
VCHOFFSETENABLE	TOGGLE	T	Vch Offset Enable
VCHOFFSET	QUANT	0	Vch Offset (V)
VCHFILTER	IQUANT	3	Vch Filter
ACHRANGE	IQUANT	2	Ach Range
ACHOFFSETENABLE	TOGGLE	F	Ach Offset Enable
ACHOFFSET	QUANT	0	Ach Offset (V)
ACHFILTER	IQUANT	3	Ach Filter
IERANGELOWERLIMIT	IQUANT	2	I/E Range Lower Limit
IERANGEMODE	TOGGLE	F	I/E AutoRange
IERANGE	IQUANT	11	I/E Range
POSFEEDENABLE	TOGGLE	F	Positive Feedback IR Comp
POSFEEDRESISTANCE	QUANT	0	Positive Feedback Resistance (ohm)
ACHSELECT	IQUANT	0	Ach Select
CABLEID	IQUANT	13	Cable ID
DCCALDATE	LABEL	7/31/2020	DC Calibration Date
ACCALDATE	LABEL	7/31/2020	AC Calibration Date
THERMOSELECT	IQUANT	1	Thermo Select
FRAMEWORKVERSION	QUANT	6.33	Framework Version
INSTRUMENTVERSION	LABEL	3.50	Instrument Version
COMPLIANCEVOLTAGE	IQUANT	0	Compliance Voltage
ZCURVE	TABLE
	Pt	Time	Freq	Zreal	Zimag	Zsig	Zmod	Zphz	Idc	Vdc	IERange
	#	s	Hz	ohm	ohm	V	ohm	°	A	V	#
	0	17	300046.9	440.8056	-50.42383	1	443.6802	-6.52571	7.645621E-005	-0.0034146	9
	1	26	238359.4	446.5141	-42.86382	1	448.5668	-5.483396	-9.017925E-005	0.0021457	9
	2	33	189328.1	449.4998	-37.0837	1	451.0269	-4.716216	1.570638E-005	-0.0019021	9
	3	39	150421.9	455.8513	-29.79251	1	456.8238	-3.739292	1.54204E-005	-0.0018586	9
	4	47	119484.4	458.993	-9.436539	1	459.09	-1.177791	6.312905E-006	-0.0062928	8
	5	49	94921.88	459.5418	-6.064061	1	459.5818	-0.7560246	-1.432315E-005	0.0057816	8
	6	52	75421.88	460.089	-5.346905	1	460.12	-0.6658306	6.442624E-006	0.001883	8
	7	54	59859.37	460.7503	-4.395749	1	460.7713	-0.5466089	1.185362E-005	-0.0006157	8
	8	57	47578.12	461.6308	-4.480744	1	461.6526	-0.5561147	1.522307E-005	-0.0033254	8
	9	59	37828.12	462.4725	-4.125883	1	462.4909	-0.5111427	7.702581E-006	-0.0046616	8
	10	62	30046.88	463.7153	-3.169099	1	463.7261	-0.3915617	-1.447928E-005	0.0048488	8
	11	65	23859.38	464.7803	-3.381351	1	464.7926	-0.4168286	-1.402793E-005	0.0038541	8
	12	67	18984.38	465.3278	-2.903264	1	465.3368	-0.3574741	-6.775686E-006	-0.0003586	8
	13	69	15046.87	468.1999	-4.797792	1	468.2244	-0.5871075	1.528802E-005	-0.0031057	8
	14	71	11953.13	466.1245	-2.331792	1	466.1304	-0.2866203	2.714707E-006	-0.0035422	8
	15	74	9515.62	466.9538	-2.04995	1	466.9583	-0.2515296	-9.46526E-006	0.0065036	8
	16	76	7546.875	469.0093	-4.000377	1	469.0264	-0.4886879	-1.441465E-005	0.0041094	8
	17	78	5928.309	470.1815	-3.384844	1	470.1936	-0.4124661	1.481658E-005	-0.0020963	8
	18	81	4733.456	472.1174	-3.068372	1	472.1274	-0.3723699	6.184967E-006	0.0019968	8
	19	83	3796.875	471.4418	-5.080281	1	471.4691	-0.6173984	6.796364E-006	0.0019689	8
	20	85	2987.132	472.277	-3.79684	1	472.2923	-0.4606157	-7.806269E-006	-0.0001328	8
	21	88	2390.625	473.5999	-5.110065	1	473.6274	-0.6181881	-1.094955E-005	0.0015671	8
	22	90	1884.191	474.8566	-6.118309	1	474.896	-0.7381889	1.538996E-005	-0.0032712	8
	23	92	1516.544	474.3471	-7.991446	1	474.4144	-0.965185	1.174192E-005	-0.0052714	8
	24	95	1193.986	476.2093	-8.528288	1	476.2856	-1.025983	-1.299768E-005	0.0065125	8
	25	97	946.5144	478.9915	-11.99433	1	479.1416	-1.434432	-1.472311E-005	0.0050172	8
	26	99	751.7689	475.4962	-14.31362	1	475.7115	-1.724226	1.630509E-005	-0.0045942	8
	27	102	597.4265	478.4995	-18.16182	1	478.8441	-2.173662	1.225503E-005	-0.0052429	8
	28	104	477.4305	480.5226	-21.11023	1	480.9861	-2.51549	-1.22486E-007	0.0006475	8
	29	106	376.6741	481.9856	-26.17273	1	482.6957	-3.108216	-9.25403E-008	0.0006324	8
	30	109	298.2954	483.59	-32.36924	1	484.6721	-3.829398	-1.049696E-007	0.0006447	8
	31	111	237.7717	485.3803	-39.85764	1	487.0141	-4.694385	-1.124943E-007	0.0006367	8
	32	114	189.0121	487.4067	-49.22001	1	489.8856	-5.766377	-1.238777E-007	0.0006548	8
	33	116	150.2404	489.7399	-60.79531	1	493.499	-7.076379	-1.353974E-007	0.0006666	8
	34	118	119.1737	492.485	-75.21828	1	498.196	-8.683799	-1.378714E-007	0.0006534	8
	35	121	95.0169	495.7062	-92.62743	1	504.2861	-10.5842	-9.216046E-008	0.0006291	8
	36	123	75.60484	499.5898	-114.2776	1	512.4932	-12.88433	-1.385654E-007	0.0006445	8
	37	126	54.50582	506.2651	-154.2679	1	529.2476	-16.94691	-1.042696E-007	0.0006525	8
	38	128	45.95588	511.0013	-180.351	1	541.8937	-19.43979	-1.704848E-007	0.0006575	8
	39	131	37.20238	517.6455	-218.7098	1	561.9527	-22.90449	-1.654856E-007	0.0006423	8
	40	133	30.04808	525.9022	-265.6176	1	589.1739	-26.79699	-1.303127E-007	0.0006441	8
	41	136	23.91582	536.5936	-326.7016	1	628.225	-31.33488	-8.149232E-008	0.0006263	8
	42	138	18.60119	551.3486	-410.0403	1	687.1087	-36.63834	-1.779844E-007	0.0006452	8
	43	140	15.02404	566.8156	-496.9534	1	753.8187	-41.24254	-1.22363E-007	0.0006394	8
	44	143	12.01923	587.1813	-607.4445	1	844.8495	-45.97176	-1.623914E-008	0.0006281	8
	45	145	9.450605	614.1976	-753.5927	1	972.183	-50.81907	-1.554558E-007	0.0006468	8
	46	148	7.512019	646.6125	-925.5997	1	1129.089	-55.06232	-1.123886E-007	0.0006535	8
	47	150	5.978954	687.122	-1133.878	1	1325.826	-58.78443	-1.05583E-007	0.0006502	8
	48	153	4.734848	738.6995	-1394.684	1	1578.233	-62.0919	-8.895108E-008	0.0006791	8
	49	157	3.75601	803.832	-1711.806	1	1891.144	-64.84613	-1.26675E-007	0.0006389	8
	50	160	3.004808	879.3047	-2081.211	1	2259.339	-67.0961	-9.521023E-008	0.0006568	8
	51	164	2.372217	980.603	-2561.62	1	2742.896	-69.05285	-1.077914E-007	0.0007143	8
	52	168	1.878005	1096.546	-3143.277	1	3329.054	-70.76846	-1.255277E-007	0.0006141	8
	53	173	1.512097	1229.01	-3789.574	1	3983.885	-72.03142	-1.020878E-007	0.0006877	8
	54	178	1.201923	1398.309	-4657.397	1	4862.779	-73.28846	-3.445975E-008	0.0005798	7
	55	184	0.956633	1600.851	-5693.784	1	5914.55	-74.29626	-4.299782E-008	-2.654899E-005	7
