EXPLAIN
TAG	EISPOT
TITLE	LABEL	Potentiostatic EIS	Test Identifier
DATE	LABEL	9/22/2020	Date
TIME	LABEL	2:21:09	Time
NOTES	NOTES	1	Notes...
	
PSTAT	PSTAT	REF3000-16137	Potentiostat
VDC	POTEN	0.00000E+000	T	DC Voltage (V)
FREQINIT	QUANT	3.00000E+005	Initial Freq. (Hz)
FREQFINAL	QUANT	1.00000E+000	Final Freq. (Hz)
PTSPERDEC	QUANT	1.00000E+001	Points/decade
VAC	QUANT	5.00000E+001	AC Voltage (mV rms)
AREA	QUANT	1.00000E+000	Sample Area (cm^2)
SPEED	SELECTOR	2	Optimize for:
ZGUESS	QUANT	1.00000E+003	Estimated Z (ohms)
EOC	QUANT	0	Open Circuit (V)
SEQUENCER	TOGGLE	TRUE	Run as Sequence
PSTATMODEL	IQUANT	5	Pstat Model
PSTATSECTION	LABEL	REF3000-16137	Pstat Section
PSTATSERIALNO	LABEL	16137	Pstat Serial Number
CTRLMODE	IQUANT	1	Control Mode
IESTAB	IQUANT	0	I/E Stability
CASPEED	IQUANT	1	Control Amp Speed
CONVENTION	IQUANT	1	Current Convention
ICHRANGE	IQUANT	2	Ich Range
ICHRANGEMODE	TOGGLE	F	Ich Auto Range
ICHOFFSETENABLE	TOGGLE	T	Ich Offset Enable
ICHOFFSET	QUANT	0	Ich Offset (V)
ICHFILTER	IQUANT	3	Ich Filter
VCHRANGE	IQUANT	2	Vch Range
VCHRANGEMODE	TOGGLE	F	Vch Auto Range
VCHOFFSETENABLE	TOGGLE	T	Vch Offset Enable
VCHOFFSET	QUANT	0	Vch Offset (V)
VCHFILTER	IQUANT	3	Vch Filter
ACHRANGE	IQUANT	2	Ach Range
ACHOFFSETENABLE	TOGGLE	F	Ach Offset Enable
ACHOFFSET	QUANT	0	Ach Offset (V)
ACHFILTER	IQUANT	3	Ach Filter
IERANGELOWERLIMIT	IQUANT	2	I/E Range Lower Limit
IERANGEMODE	TOGGLE	F	I/E AutoRange
IERANGE	IQUANT	11	I/E Range
POSFEEDENABLE	TOGGLE	F	Positive Feedback IR Comp
POSFEEDRESISTANCE	QUANT	0	Positive Feedback Resistance (ohm)
ACHSELECT	IQUANT	0	Ach Select
CABLEID	IQUANT	13	Cable ID
DCCALDATE	LABEL	7/31/2020	DC Calibration Date
ACCALDATE	LABEL	7/31/2020	AC Calibration Date
THERMOSELECT	IQUANT	1	Thermo Select
FRAMEWORKVERSION	QUANT	6.33	Framework Version
INSTRUMENTVERSION	LABEL	3.50	Instrument Version
COMPLIANCEVOLTAGE	IQUANT	0	Compliance Voltage
ZCURVE	TABLE
	Pt	Time	Freq	Zreal	Zimag	Zsig	Zmod	Zphz	Idc	Vdc	IERange
	#	s	Hz	ohm	ohm	V	ohm	°	A	V	#
	0	8	300046.9	161.4266	-3.708766	1	161.4692	-1.316136	5.052386E-005	-0.0005193	9
	1	11	238359.4	162.0418	-2.766754	1	162.0654	-0.978192	7.048778E-005	-0.0030052	9
	2	14	189328.1	162.5861	-2.47245	1	162.6049	-0.8712308	1.821322E-005	-0.0017486	9
	3	17	150421.9	163.3536	-1.990411	1	163.3658	-0.698096	-8.633162E-006	0.0014727	9
	4	20	119484.4	163.3409	-2.071942	1	163.354	-0.7267449	-1.31179E-005	0.0009882	9
	5	22	94921.88	163.663	-1.492425	1	163.6698	-0.5224594	2.552816E-005	-0.0006557	9
	6	25	75421.88	164.0583	-1.355595	1	164.0639	-0.4734176	-1.793823E-005	0.000311	9
	7	27	59859.37	164.2948	-1.188645	1	164.2991	-0.4145178	-8.133792E-006	0.0008546	9
	8	30	47578.12	164.8856	-1.101467	1	164.8893	-0.3827408	1.904697E-005	-0.0001067	9
	9	32	37828.12	164.9209	-1.04493	1	164.9242	-0.363018	2.598164E-005	-0.0006676	9
	10	35	30046.88	165.1907	-1.031021	1	165.194	-0.3576011	2.544281E-005	-0.0004635	9
	11	38	23859.38	165.5244	-0.8313228	1	165.5265	-0.2877575	-1.816454E-005	0.0003005	9
	12	40	18984.38	165.7592	-1.007696	1	165.7623	-0.3483127	1.431024E-005	-0.0007572	9
	13	42	15046.87	165.9461	-1.490692	1	165.9528	-0.5146737	2.185478E-005	-0.0001167	9
	14	44	11953.13	166.2695	-1.204597	1	166.2739	-0.4150918	1.427806E-005	-0.0007473	9
	15	47	9515.62	166.4526	-1.377391	1	166.4583	-0.4741102	-1.477231E-005	0.0007962	9
	16	49	7546.875	166.8311	-1.910038	1	166.8421	-0.6559466	-2.18623E-006	-0.0003443	9
	17	51	5928.309	166.9737	-2.10254	1	166.987	-0.7214326	-2.070879E-005	0.0009215	9
	18	54	4733.456	167.599	-2.37774	1	167.6159	-0.8128051	6.313003E-006	-0.0005763	9
	19	56	3796.875	167.6839	-3.020193	1	167.7111	-1.031856	-8.893028E-006	0.0007862	9
	20	58	2987.132	167.8773	-3.706757	1	167.9182	-1.264895	-1.103973E-006	-0.0003851	9
	21	61	2390.625	168.3155	-4.174079	1	168.3673	-1.420595	2.576619E-005	-0.0007824	9
	22	63	1884.191	169.1631	-5.011498	1	169.2373	-1.696905	1.355999E-005	-0.0007291	9
	23	65	1516.544	169.0289	-6.566482	1	169.1564	-2.224724	1.369107E-006	0.000577	9
	24	68	1193.986	169.4018	-8.085821	1	169.5947	-2.732746	2.253539E-005	-0.0002297	9
	25	70	946.5144	169.7589	-9.86398	1	170.0452	-3.325479	-2.049138E-005	0.0004928	9
	26	73	751.7689	170.2325	-12.16473	1	170.6666	-4.087379	-1.845794E-005	0.000344	9
	27	75	597.4265	170.7725	-15.20533	1	171.4481	-5.088112	1.543367E-005	-0.0007748	9
	28	77	477.4305	171.6109	-18.68554	1	172.6252	-6.214069	1.070122E-006	6.560668E-005	9
	29	79	376.6741	172.4211	-23.25065	1	173.9817	-7.679896	1.043475E-006	5.834974E-005	9
	30	82	298.2954	173.364	-28.8304	1	175.7449	-9.44187	1.162823E-006	5.691743E-005	9
	31	84	237.7717	174.4844	-35.54403	1	178.0679	-11.51412	1.085672E-006	5.973467E-005	9
	32	87	189.0121	175.8513	-43.91644	1	181.2521	-14.02202	1.189806E-006	5.787695E-005	9
	33	89	150.2404	177.5181	-54.24521	1	185.6212	-16.99187	1.168747E-006	6.160692E-005	9
	34	92	119.1737	179.5896	-67.10645	1	191.7178	-20.48898	1.076925E-006	6.888233E-005	9
	35	94	95.0169	182.1049	-82.57897	1	199.9538	-24.39282	1.105535E-006	5.792142E-005	9
	36	96	75.60484	185.2603	-101.7432	1	211.36	-28.77517	1.141548E-006	5.475204E-005	9
	37	99	54.50582	191.0489	-137.0125	1	235.1002	-35.64655	1.070774E-006	6.240798E-005	9
	38	102	45.95588	194.9821	-159.9554	1	252.1979	-39.36407	1.007029E-006	6.086095E-005	9
	39	104	37.20238	200.783	-193.6862	1	278.9769	-43.96931	1.092927E-006	5.764215E-005	9
	40	106	30.04808	207.9814	-234.9155	1	313.754	-48.48006	1.168009E-006	5.596279E-005	9
	41	109	23.91582	217.5297	-288.5009	1	361.3198	-52.98371	1.130305E-006	5.335305E-005	9
	42	111	18.60119	229.8791	-360.1172	1	427.2339	-57.44806	-6.2015E-009	0.0006294	8
	43	113	15.02404	244.1949	-435.7149	1	499.4783	-60.7317	5.950906E-008	0.0006279	8
	44	116	12.01923	262.5995	-531.5787	1	592.9034	-63.71067	8.123929E-008	0.0006317	8
	45	118	9.450605	287.3391	-657.8015	1	717.8207	-66.40346	3.778524E-009	0.0006457	8
	46	121	7.512019	316.2031	-805.4997	1	865.3405	-68.56725	4.113947E-008	0.0006566	8
	47	123	5.978954	351.2442	-984.056	1	1044.863	-70.35673	7.516083E-008	0.0006377	8
	48	126	4.734848	394.8676	-1207.919	1	1270.822	-71.89748	8.916825E-008	0.000656	8
	49	130	3.75601	446.4032	-1480.674	1	1546.503	-73.22265	6.866266E-008	0.0006173	8
	50	133	3.004808	506.7437	-1801.607	1	1871.518	-74.29013	6.367872E-008	0.0006741	8
	51	137	2.372217	585.606	-2222.271	1	2298.134	-75.2372	7.813931E-008	0.0007106	8
	52	141	1.878005	679.2878	-2733.98	1	2817.105	-76.04677	6.233655E-008	0.0006077	8
	53	146	1.512097	792.1755	-3315.899	1	3409.212	-76.56376	8.106633E-008	0.0007353	8
	54	151	1.201923	936.0715	-4073.77	1	4179.932	-77.0592	8.434807E-008	0.0006113	8
	55	157	0.956633	1120.453	-5006.246	1	5130.099	-77.38447	-2.921836E-008	-3.238195E-005	7
