EXPLAIN
TAG	EISPOT
TITLE	LABEL	Potentiostatic EIS	Test Identifier
DATE	LABEL	9/22/2020	Date
TIME	LABEL	1:34:23	Time
NOTES	NOTES	1	Notes...
	
PSTAT	PSTAT	REF3000-16137	Potentiostat
VDC	POTEN	0.00000E+000	T	DC Voltage (V)
FREQINIT	QUANT	3.00000E+005	Initial Freq. (Hz)
FREQFINAL	QUANT	1.00000E+000	Final Freq. (Hz)
PTSPERDEC	QUANT	1.00000E+001	Points/decade
VAC	QUANT	5.00000E+001	AC Voltage (mV rms)
AREA	QUANT	1.00000E+000	Sample Area (cm^2)
SPEED	SELECTOR	2	Optimize for:
ZGUESS	QUANT	1.00000E+003	Estimated Z (ohms)
EOC	QUANT	0	Open Circuit (V)
SEQUENCER	TOGGLE	TRUE	Run as Sequence
PSTATMODEL	IQUANT	5	Pstat Model
PSTATSECTION	LABEL	REF3000-16137	Pstat Section
PSTATSERIALNO	LABEL	16137	Pstat Serial Number
CTRLMODE	IQUANT	1	Control Mode
IESTAB	IQUANT	0	I/E Stability
CASPEED	IQUANT	1	Control Amp Speed
CONVENTION	IQUANT	1	Current Convention
ICHRANGE	IQUANT	2	Ich Range
ICHRANGEMODE	TOGGLE	F	Ich Auto Range
ICHOFFSETENABLE	TOGGLE	T	Ich Offset Enable
ICHOFFSET	QUANT	0	Ich Offset (V)
ICHFILTER	IQUANT	3	Ich Filter
VCHRANGE	IQUANT	2	Vch Range
VCHRANGEMODE	TOGGLE	F	Vch Auto Range
VCHOFFSETENABLE	TOGGLE	T	Vch Offset Enable
VCHOFFSET	QUANT	0	Vch Offset (V)
VCHFILTER	IQUANT	3	Vch Filter
ACHRANGE	IQUANT	2	Ach Range
ACHOFFSETENABLE	TOGGLE	F	Ach Offset Enable
ACHOFFSET	QUANT	0	Ach Offset (V)
ACHFILTER	IQUANT	3	Ach Filter
IERANGELOWERLIMIT	IQUANT	2	I/E Range Lower Limit
IERANGEMODE	TOGGLE	F	I/E AutoRange
IERANGE	IQUANT	11	I/E Range
POSFEEDENABLE	TOGGLE	F	Positive Feedback IR Comp
POSFEEDRESISTANCE	QUANT	0	Positive Feedback Resistance (ohm)
ACHSELECT	IQUANT	0	Ach Select
CABLEID	IQUANT	13	Cable ID
DCCALDATE	LABEL	7/31/2020	DC Calibration Date
ACCALDATE	LABEL	7/31/2020	AC Calibration Date
THERMOSELECT	IQUANT	1	Thermo Select
FRAMEWORKVERSION	QUANT	6.33	Framework Version
INSTRUMENTVERSION	LABEL	3.50	Instrument Version
COMPLIANCEVOLTAGE	IQUANT	0	Compliance Voltage
ZCURVE	TABLE
	Pt	Time	Freq	Zreal	Zimag	Zsig	Zmod	Zphz	Idc	Vdc	IERange
	#	s	Hz	ohm	ohm	V	ohm	°	A	V	#
	0	7	300046.9	42.89127	2.411422	1	42.95901	3.21788	-5.68648E-005	0.0016405	9
	1	10	238359.4	42.98566	1.824756	1	43.02437	2.430766	5.092506E-005	-0.0017927	9
	2	13	189328.1	43.12956	1.390657	1	43.15197	1.846789	1.27207E-005	-0.0009976	9
	3	16	150421.9	43.11009	1.036168	1	43.12254	1.376862	-5.208469E-005	0.0020455	9
	4	18	119484.4	43.15461	0.8059403	1	43.16213	1.069911	-1.176392E-005	0.00073	9
	5	21	94921.88	43.25935	0.7559811	1	43.26595	1.001174	-1.357413E-005	0.0004205	9
	6	23	75421.88	43.28595	0.5386927	1	43.2893	0.7130079	-1.408054E-005	0.0004413	9
	7	26	59859.37	43.32519	0.3561791	1	43.32665	0.4710216	-7.91986E-006	7.385615E-005	9
	8	28	47578.12	43.36772	0.1839263	1	43.36811	0.242995	-1.311475E-005	0.0003256	9
	9	31	37828.12	43.41568	0.0265525	1	43.41569	0.0350414	-1.377016E-005	0.0002918	9
	10	33	30046.88	43.46979	-0.1037513	1	43.46991	-0.1367502	8.884753E-006	6.051666E-005	9
	11	36	23859.38	43.52802	-0.2494724	1	43.52874	-0.3283761	1.902295E-005	-0.0003673	9
	12	38	18984.38	43.58949	-0.3955554	1	43.59128	-0.5199197	1.752425E-005	-0.0005253	9
	13	40	15046.87	43.64935	-0.5337135	1	43.65261	-0.7005375	-1.464751E-005	0.0005149	9
	14	43	11953.13	43.70216	-0.7432002	1	43.70847	-0.97428	1.353496E-005	-0.0005015	9
	15	45	9515.62	43.77566	-0.944779	1	43.78585	-1.236382	9.167504E-006	-0.000439	9
	16	47	7546.875	43.84615	-1.209061	1	43.86282	-1.579535	-1.499561E-005	0.000561	9
	17	50	5928.309	43.92075	-1.534306	1	43.94754	-2.000729	-8.834154E-006	6.626257E-005	9
	18	52	4733.456	44.00992	-1.887465	1	44.05037	-2.455755	1.928457E-005	-0.0003644	9
	19	54	3796.875	44.11593	-2.347347	1	44.17834	-3.045756	-1.009194E-005	0.0005297	9
	20	57	2987.132	44.22541	-2.909814	1	44.32103	-3.764355	-1.549424E-005	0.0005153	9
	21	59	2390.625	44.34466	-3.590117	1	44.48975	-4.628537	-1.769164E-005	0.0006638	9
	22	61	1884.191	44.49501	-4.524596	1	44.72447	-5.806319	1.883672E-005	-0.0004383	9
	23	64	1516.544	44.64154	-5.500314	1	44.97911	-7.024051	1.487494E-005	-0.0001289	9
	24	66	1193.986	44.84631	-6.859563	1	45.36789	-8.696395	1.931887E-005	-0.0003755	9
	25	68	946.5144	45.08336	-8.516925	1	45.8808	-10.69796	-1.374282E-005	0.0003227	9
	26	71	751.7689	45.43186	-10.55836	1	46.6426	-13.08329	-1.445898E-005	0.0003883	9
	27	73	597.4265	45.7527	-13.05081	1	47.57766	-15.92063	-8.152413E-006	0.00057	9
	28	75	477.4305	46.19765	-16.03787	1	48.90231	-19.14484	1.307691E-006	6.145736E-005	9
	29	78	376.6741	46.77546	-19.95432	1	50.8539	-23.103	1.277392E-006	6.221253E-005	9
	30	80	298.2954	47.48814	-24.72963	1	53.54137	-27.50842	1.252135E-006	6.849718E-005	9
	31	82	237.7717	48.35727	-30.44839	1	57.14481	-32.19677	1.310936E-006	6.282057E-005	9
	32	85	189.0121	49.45812	-37.56532	1	62.10683	-37.21805	1.283841E-006	7.169518E-005	9
	33	87	150.2404	50.8387	-46.32193	1	68.77714	-42.33838	1.214314E-006	6.570853E-005	9
	34	90	119.1737	52.59333	-57.2028	1	77.70597	-47.40399	1.25074E-006	6.713461E-005	9
	35	92	95.0169	54.76352	-70.2743	1	89.09276	-52.07134	9.698872E-007	0.0001146	9
	36	94	75.60484	57.52831	-86.4257	1	103.8215	-56.35072	1.224275E-006	6.043914E-005	9
	37	97	54.50582	62.78477	-116.0458	1	131.9415	-61.58509	1.221834E-006	5.543547E-005	9
	38	99	45.95588	66.3084	-135.2125	1	150.5962	-63.8766	1.232477E-006	6.158747E-005	9
	39	102	37.20238	71.53048	-163.2246	1	178.2102	-66.33536	1.183654E-006	6.998581E-005	9
	40	104	30.04808	77.92798	-197.3122	1	212.1436	-68.44858	1.23658E-006	6.518807E-005	9
	41	107	23.91582	86.19608	-241.443	1	256.3679	-70.35324	1.175843E-006	6.272826E-005	9
	42	109	18.60119	97.3281	-301.4798	1	316.8009	-72.10812	1.306337E-006	7.041549E-005	9
	43	111	15.02404	108.7386	-364.1457	1	380.0344	-73.3737	1.252202E-006	5.656162E-005	9
	44	114	12.01923	122.5283	-441.8105	1	458.4863	-74.49959	3.115325E-007	0.0006378	8
	45	116	9.450605	141.2366	-547.1647	1	565.0991	-75.52648	2.958739E-007	0.0006474	8
	46	119	7.512019	163.1783	-671.619	1	691.1579	-76.34387	3.374757E-007	0.0006493	8
	47	121	5.978954	190.4856	-823.315	1	845.0635	-76.97302	3.218698E-007	0.0006465	8
	48	124	4.734848	225.4346	-1015.539	1	1040.26	-77.48414	4.159752E-007	0.0006611	8
	49	128	3.75601	270.359	-1249.296	1	1278.215	-77.78897	3.210351E-007	0.0006312	8
	50	131	3.004808	326.6316	-1524.632	1	1559.227	-77.90794	3.604729E-007	0.000666	8
	51	135	2.372217	405.9669	-1883.967	1	1927.211	-77.83955	3.852704E-007	0.000715	8
	52	139	1.878005	504.5875	-2319.744	1	2373.988	-77.72826	3.585194E-007	0.0006159	8
	53	144	1.512097	629.3538	-2804.101	1	2873.859	-77.35014	3.921189E-007	0.0007148	8
	54	149	1.201923	796.3776	-3435.221	1	3526.324	-76.94785	3.906751E-007	0.0006172	8
	55	155	0.956633	1013.672	-4186.795	1	4307.758	-76.38992	3.443874E-007	7.508934E-007	8
