EXPLAIN
TAG	EISPOT
TITLE	LABEL	Potentiostatic EIS	Test Identifier
DATE	LABEL	9/22/2020	Date
TIME	LABEL	5:07:15	Time
NOTES	NOTES	1	Notes...
	
PSTAT	PSTAT	REF3000-16137	Potentiostat
VDC	POTEN	0.00000E+000	T	DC Voltage (V)
FREQINIT	QUANT	3.00000E+005	Initial Freq. (Hz)
FREQFINAL	QUANT	1.00000E+000	Final Freq. (Hz)
PTSPERDEC	QUANT	1.00000E+001	Points/decade
VAC	QUANT	5.00000E+001	AC Voltage (mV rms)
AREA	QUANT	1.00000E+000	Sample Area (cm^2)
SPEED	SELECTOR	2	Optimize for:
ZGUESS	QUANT	1.00000E+003	Estimated Z (ohms)
EOC	QUANT	0	Open Circuit (V)
SEQUENCER	TOGGLE	TRUE	Run as Sequence
PSTATMODEL	IQUANT	5	Pstat Model
PSTATSECTION	LABEL	REF3000-16137	Pstat Section
PSTATSERIALNO	LABEL	16137	Pstat Serial Number
CTRLMODE	IQUANT	1	Control Mode
IESTAB	IQUANT	0	I/E Stability
CASPEED	IQUANT	1	Control Amp Speed
CONVENTION	IQUANT	1	Current Convention
ICHRANGE	IQUANT	2	Ich Range
ICHRANGEMODE	TOGGLE	F	Ich Auto Range
ICHOFFSETENABLE	TOGGLE	T	Ich Offset Enable
ICHOFFSET	QUANT	0	Ich Offset (V)
ICHFILTER	IQUANT	3	Ich Filter
VCHRANGE	IQUANT	2	Vch Range
VCHRANGEMODE	TOGGLE	F	Vch Auto Range
VCHOFFSETENABLE	TOGGLE	T	Vch Offset Enable
VCHOFFSET	QUANT	0	Vch Offset (V)
VCHFILTER	IQUANT	3	Vch Filter
ACHRANGE	IQUANT	2	Ach Range
ACHOFFSETENABLE	TOGGLE	F	Ach Offset Enable
ACHOFFSET	QUANT	0	Ach Offset (V)
ACHFILTER	IQUANT	3	Ach Filter
IERANGELOWERLIMIT	IQUANT	2	I/E Range Lower Limit
IERANGEMODE	TOGGLE	F	I/E AutoRange
IERANGE	IQUANT	11	I/E Range
POSFEEDENABLE	TOGGLE	F	Positive Feedback IR Comp
POSFEEDRESISTANCE	QUANT	0	Positive Feedback Resistance (ohm)
ACHSELECT	IQUANT	0	Ach Select
CABLEID	IQUANT	13	Cable ID
DCCALDATE	LABEL	7/31/2020	DC Calibration Date
ACCALDATE	LABEL	7/31/2020	AC Calibration Date
THERMOSELECT	IQUANT	1	Thermo Select
FRAMEWORKVERSION	QUANT	6.33	Framework Version
INSTRUMENTVERSION	LABEL	3.50	Instrument Version
COMPLIANCEVOLTAGE	IQUANT	0	Compliance Voltage
ZCURVE	TABLE
	Pt	Time	Freq	Zreal	Zimag	Zsig	Zmod	Zphz	Idc	Vdc	IERange
	#	s	Hz	ohm	ohm	V	ohm	°	A	V	#
	0	14	300046.9	-32.55167	-4490.93	1	4491.048	-90.41529	9.357358E-005	-0.0027094	9
	1	30	238359.4	13.56752	-5599.195	1	5599.212	-89.86117	-2.544514E-005	-0.0011517	9
	2	46	189328.1	347.9493	-7127.951	1	7136.438	-87.20534	-1.502895E-005	0.0017439	9
	3	53	150421.9	233.609	-8607.733	1	8610.902	-88.4454	1.565037E-006	-0.00193	9
	4	61	119484.4	816.7466	-10450.37	1	10482.24	-85.53114	-7.84465E-005	0.035826	8
	5	68	94921.88	744.7476	-13465.45	1	13486.03	-86.8343	2.618243E-005	-0.0089765	8
	6	77	75421.88	1017.856	-17031.07	1	17061.46	-86.5798	-2.640337E-005	0.0075336	8
	7	85	59859.37	848.0811	-21024.76	1	21041.86	-87.6901	-1.999767E-005	0.0113092	8
	8	94	47578.12	764.937	-26771.77	1	26782.7	-88.36336	2.314385E-005	-0.0028167	8
	9	101	37828.12	1651.12	-33055.48	1	33096.69	-87.14046	-2.70072E-005	0.0096754	8
	10	110	30046.88	1160.58	-43398.31	1	43413.82	-88.46813	2.624934E-005	-0.0090676	8
	11	119	23859.38	2089.964	-51269.54	1	51312.12	-87.66567	-2.048105E-005	0.0027763	8
	12	125	18984.38	3953.397	-64046.08	1	64167.98	-86.46777	-9.493888E-006	-0.0021541	8
	13	132	15046.87	1999.887	-83109.38	1	83133.43	-88.62154	-2.581693E-005	0.0074617	8
	14	138	11953.13	434.831	-115245.1	1	115245.9	-89.78382	-1.23141E-005	0.0103864	8
	15	145	9515.62	7914.253	-128260.4	1	128504.3	-86.46906	2.74967E-006	0.0084604	7
	16	150	7546.875	10785.05	-158454.2	1	158820.8	-86.10622	6.682235E-006	-0.0100292	7
	17	155	5928.309	15278.44	-207395.3	1	207957.3	-85.78674	7.586407E-006	-0.0241786	7
	18	162	4733.456	4282.17	-231490	1	231529.6	-88.94025	-3.708254E-006	0.0253459	7
	19	168	3796.875	8163.688	-326703.7	1	326805.7	-88.56859	-6.536581E-006	0.0258165	7
	20	174	2987.132	-371766.4	-203868.1	1	423995.8	-151.2607	8.17738E-006	-0.0077661	8
	21	182	2390.625	29340.22	-502390.5	1	503246.5	-86.65765	2.746494E-006	0.0084441	7
	22	190	1884.191	390166.1	-493812.9	1	629349.4	-51.68742	-5.31051E-006	0.0265475	7
	23	196	1516.544	19972.68	-666168	1	666467.3	-88.28271	-5.277674E-006	0.026474	7
	24	203	1193.986	-103155.4	-337947.6	1	353340.6	-106.9743	8.03398E-006	-0.0077209	8
	25	213	946.5144	-1828855	-951695	1	2061658	-152.5085	-7.019911E-006	0.0227899	7
	26	218	751.7689	-145464.9	-626735.9	1	643395.7	-103.0669	5.241625E-006	-0.0261504	7
	27	224	597.4265	962071	-1244555	1	1573054	-52.2951	6.773889E-006	-0.0262942	7
	28	229	477.4305	274397	-2462978	1	2478216	-83.64297	-8.677702E-008	0.0005694	7
	29	235	376.6741	783610.3	-3145725	1	3241856	-76.01212	-9.913322E-010	0.0006784	5
	30	238	298.2954	625929.6	-3828768	1	3879595	-80.71538	-9.744918E-009	0.0006921	6
	31	243	237.7717	1285923	-4806385	1	4975433	-75.02162	-9.625541E-010	0.0005819	5
	32	246	189.0121	1610521	-5837622	1	6055709	-74.57654	-1.082041E-009	0.000689	5
	33	250	150.2404	2131775	-7114419	1	7426940	-73.31961	-1.070468E-009	0.0006737	5
	34	253	119.1737	2166949	-7280911	1	7596535	-73.42591	-9.771471E-010	0.0006388	5
	35	256	95.0169	4376994	-1.044763E+007	1	1.132745E+007	-67.26894	-1.00485E-009	0.0005856	5
	36	259	75.60484	5175357	-1.182629E+007	1	1.290912E+007	-66.3651	-1.073996E-009	0.0006301	5
	37	262	54.50582	8551730	-1.511218E+007	1	1.736405E+007	-60.4952	-1.050907E-009	0.0006806	5
	38	265	45.95588	1.332339E+007	-1.729334E+007	1	2.183054E+007	-52.3881	-1.146731E-010	0.0006007	4
	39	268	37.20238	1.55539E+007	-1.61532E+007	1	2.242431E+007	-46.08282	-3.191074E-011	0.0006469	4
	40	270	30.04808	1.993832E+007	-1.843892E+007	1	2.715751E+007	-42.76259	-1.191445E-010	0.0006672	4
	41	273	23.91582	2.011833E+007	-2.015211E+007	1	2.847551E+007	-45.04807	-9.963687E-010	0.0006528	5
	42	277	18.60119	1.935699E+007	-2.883037E+007	1	3.472583E+007	-56.12221	-1.366847E-009	0.0006817	5
	43	280	15.02404	3.189367E+007	-1.798699E+007	1	3.66161E+007	-29.42158	-1.03957E-009	0.0006396	5
	44	284	12.01923	3.409131E+007	-1.552386E+007	1	3.745941E+007	-24.48268	-1.082136E-009	0.0006703	5
	45	288	9.450605	3.758296E+007	-1.33586E+007	1	3.988648E+007	-19.56739	-9.503301E-011	0.0006439	4
	46	292	7.512019	4.03271E+007	-1.116591E+007	1	4.184438E+007	-15.47653	-1.089558E-010	0.0005899	4
	47	296	5.978954	4.189471E+007	-1.003701E+007	1	4.308026E+007	-13.47282	-8.459003E-011	0.0005982	4
	48	302	4.734848	4.297178E+007	-8203736	1	4.374786E+007	-10.80827	-9.9589E-011	0.0007184	4
	49	308	3.75601	4.462252E+007	-6678032	1	4.511945E+007	-8.511495	-9.637219E-011	0.0006929	4
	50	315	3.004808	4.489509E+007	-5841015	1	4.527346E+007	-7.412752	-1.137068E-010	0.000616	4
	51	323	2.372217	4.795486E+007	-1515117	1	4.797878E+007	-1.809639	-1.482476E-011	0.0006386	3
	52	327	1.878005	4.83359E+007	-1228012	1	4.83515E+007	-1.455331	-1.269173E-011	0.0007208	3
	53	332	1.512097	4.88589E+007	-1035288	1	4.886987E+007	-1.213878	-1.307678E-011	0.000653	3
	54	337	1.201923	4.949398E+007	-881048.3	1	4.950182E+007	-1.019821	-1.141941E-011	0.0007447	3
	55	343	0.956633	5.024034E+007	-790381.5	1	5.024656E+007	-0.9013033	-2.3662E-011	7.044931E-005	3
