EXPLAIN
TAG	EISPOT
TITLE	LABEL	Potentiostatic EIS	Test Identifier
DATE	LABEL	9/22/2020	Date
TIME	LABEL	2:42:03	Time
NOTES	NOTES	1	Notes...
	
PSTAT	PSTAT	REF3000-16137	Potentiostat
VDC	POTEN	0.00000E+000	T	DC Voltage (V)
FREQINIT	QUANT	3.00000E+005	Initial Freq. (Hz)
FREQFINAL	QUANT	1.00000E+000	Final Freq. (Hz)
PTSPERDEC	QUANT	1.00000E+001	Points/decade
VAC	QUANT	5.00000E+001	AC Voltage (mV rms)
AREA	QUANT	1.00000E+000	Sample Area (cm^2)
SPEED	SELECTOR	2	Optimize for:
ZGUESS	QUANT	1.00000E+003	Estimated Z (ohms)
EOC	QUANT	0	Open Circuit (V)
SEQUENCER	TOGGLE	TRUE	Run as Sequence
PSTATMODEL	IQUANT	5	Pstat Model
PSTATSECTION	LABEL	REF3000-16137	Pstat Section
PSTATSERIALNO	LABEL	16137	Pstat Serial Number
CTRLMODE	IQUANT	1	Control Mode
IESTAB	IQUANT	0	I/E Stability
CASPEED	IQUANT	1	Control Amp Speed
CONVENTION	IQUANT	1	Current Convention
ICHRANGE	IQUANT	2	Ich Range
ICHRANGEMODE	TOGGLE	F	Ich Auto Range
ICHOFFSETENABLE	TOGGLE	T	Ich Offset Enable
ICHOFFSET	QUANT	0	Ich Offset (V)
ICHFILTER	IQUANT	3	Ich Filter
VCHRANGE	IQUANT	2	Vch Range
VCHRANGEMODE	TOGGLE	F	Vch Auto Range
VCHOFFSETENABLE	TOGGLE	T	Vch Offset Enable
VCHOFFSET	QUANT	0	Vch Offset (V)
VCHFILTER	IQUANT	3	Vch Filter
ACHRANGE	IQUANT	2	Ach Range
ACHOFFSETENABLE	TOGGLE	F	Ach Offset Enable
ACHOFFSET	QUANT	0	Ach Offset (V)
ACHFILTER	IQUANT	3	Ach Filter
IERANGELOWERLIMIT	IQUANT	2	I/E Range Lower Limit
IERANGEMODE	TOGGLE	F	I/E AutoRange
IERANGE	IQUANT	11	I/E Range
POSFEEDENABLE	TOGGLE	F	Positive Feedback IR Comp
POSFEEDRESISTANCE	QUANT	0	Positive Feedback Resistance (ohm)
ACHSELECT	IQUANT	0	Ach Select
CABLEID	IQUANT	13	Cable ID
DCCALDATE	LABEL	7/31/2020	DC Calibration Date
ACCALDATE	LABEL	7/31/2020	AC Calibration Date
THERMOSELECT	IQUANT	1	Thermo Select
FRAMEWORKVERSION	QUANT	6.33	Framework Version
INSTRUMENTVERSION	LABEL	3.50	Instrument Version
COMPLIANCEVOLTAGE	IQUANT	0	Compliance Voltage
ZCURVE	TABLE
	Pt	Time	Freq	Zreal	Zimag	Zsig	Zmod	Zphz	Idc	Vdc	IERange
	#	s	Hz	ohm	ohm	V	ohm	°	A	V	#
	0	19	300046.9	343.3563	-28.78835	1	344.561	-4.792695	-9.852814E-006	0.0013869	9
	1	26	238359.4	346.7122	-24.2529	1	347.5594	-4.001385	2.410695E-005	-0.0019071	9
	2	35	189328.1	348.3503	-25.70397	1	349.2974	-4.220076	2.55302E-005	0.0004742	10
	3	39	150421.9	350.3148	-21.55083	1	350.9771	-3.520312	1.845733E-005	0.0005103	10
	4	46	119484.4	352.8768	-12.80871	1	353.1092	-2.078808	7.640294E-005	-0.0030156	9
	5	50	94921.88	354.7283	-11.0798	1	354.9013	-1.78903	-2.460101E-005	0.000885	9
	6	54	75421.88	355.8787	-9.128183	1	355.9957	-1.469298	2.303957E-005	-0.0002479	9
	7	57	59859.37	356.816	-7.511867	1	356.8951	-1.206041	2.729893E-005	-0.0005094	9
	8	59	47578.12	357.4816	-6.677684	1	357.5439	-1.070149	-1.743547E-005	0.0009637	9
	9	62	37828.12	358.8981	-4.706324	1	358.9289	-0.7512914	-1.886623E-005	0.0003057	9
	10	64	30046.88	358.8562	-4.361029	1	358.8827	-0.6962572	4.330879E-007	0.0006128	9
	11	67	23859.38	358.5402	-1.482851	1	358.5433	-0.2369625	-4.154591E-006	0.0050427	8
	12	69	18984.38	358.8611	-1.459467	1	358.864	-0.2330173	-4.075848E-006	0.0048899	8
	13	71	15046.87	358.7446	-1.754564	1	358.7489	-0.2802225	-1.910569E-006	0.0041561	8
	14	74	11953.13	359.6884	-1.386594	1	359.6911	-0.2208734	1.331779E-005	-0.0019933	8
	15	76	9515.62	362.3396	-2.592141	1	362.3489	-0.4098811	-2.549319E-005	0.0007224	9
	16	78	7546.875	363.5409	-2.927649	1	363.5527	-0.4614014	1.096182E-005	0.000353	9
	17	81	5928.309	363.4201	-2.597249	1	363.4294	-0.4094678	-2.385769E-005	0.0008452	9
	18	83	4733.456	364.1477	-2.396116	1	364.1556	-0.3770045	2.729125E-005	-0.0008211	9
	19	86	3796.875	365.0078	-4.585352	1	365.0366	-0.7197312	1.027904E-005	0.0003434	9
	20	88	2987.132	366.0579	-4.228204	1	366.0823	-0.6617737	7.875549E-006	-0.0006903	9
	21	91	2390.625	364.5971	-4.765178	1	364.6282	-0.7487965	-1.202258E-005	0.0025476	8
	22	93	1884.191	366.5463	-7.606384	1	366.6252	-1.188803	2.591107E-005	-0.0004443	9
	23	95	1516.544	367.7389	-7.95267	1	367.8249	-1.238877	2.817745E-005	-0.0006725	9
	24	98	1193.986	368.9315	-8.447414	1	369.0282	-1.311671	2.681072E-005	-0.0006244	9
	25	100	946.5144	369.4677	-11.23896	1	369.6385	-1.742363	1.084284E-005	0.0002935	9
	26	103	751.7689	369.7024	-13.97928	1	369.9666	-2.165451	1.388579E-005	-0.0037307	8
	27	105	597.4265	371.9976	-16.58022	1	372.3669	-2.552027	2.70276E-005	-0.000644	9
	28	108	477.4305	372.6157	-20.53793	1	373.1813	-3.154851	9.252989E-007	6.110143E-005	9
	29	110	376.6741	372.245	-25.34135	1	373.1065	-3.894521	-8.378277E-008	0.000626	8
	30	112	298.2954	373.6055	-31.37982	1	374.9211	-4.801109	-7.024205E-008	0.0006382	8
	31	114	237.7717	375.1435	-38.66117	1	377.1303	-5.883961	-1.031364E-007	0.0006666	8
	32	117	189.0121	376.9214	-47.76105	1	379.9353	-7.221664	-6.508452E-008	0.0006364	8
	33	119	150.2404	379.0195	-59.00312	1	383.5846	-8.848387	-6.995906E-008	0.0006304	8
	34	122	119.1737	381.5133	-73.0225	1	388.4388	-10.83549	-7.455582E-008	0.0006481	8
	35	124	95.0169	384.4674	-89.9367	1	394.8465	-13.16619	-6.774828E-008	0.0006375	8
	36	127	75.60484	388.0967	-110.9424	1	403.6425	-15.95326	-6.384604E-008	0.0006274	8
	37	129	54.50582	394.4605	-149.6985	1	421.9108	-20.78185	-9.000284E-008	0.0006224	8
	38	132	45.95588	398.9279	-174.9523	1	435.6051	-23.68015	-2.39111E-008	0.0006261	8
	39	134	37.20238	405.3108	-212.0608	1	457.4348	-27.61881	-5.247713E-008	0.0006382	8
	40	137	30.04808	413.2271	-257.4496	1	486.8644	-31.92381	-5.960838E-008	0.0006391	8
	41	139	23.91582	423.5585	-316.4971	1	528.7459	-36.76831	-7.249293E-008	0.0006416	8
	42	141	18.60119	437.812	-397.0923	1	591.0682	-42.20781	-2.56923E-009	0.0006343	8
	43	144	15.02404	452.8333	-481.1937	1	660.7612	-46.73917	-3.092554E-008	0.0006425	8
	44	146	12.01923	472.6447	-587.9223	1	754.3511	-51.20337	-1.394587E-007	0.000637	8
	45	148	9.450605	498.9601	-728.8705	1	883.2969	-55.60578	-2.478324E-008	0.0006532	8
	46	151	7.512019	530.4845	-894.7892	1	1040.222	-59.33801	-5.064944E-008	0.0006699	8
	47	154	5.978954	570.4001	-1095.825	1	1235.39	-62.50208	-7.00169E-008	0.0006475	8
	48	157	4.734848	621.0764	-1346.526	1	1482.858	-65.23879	-4.83011E-008	0.0006647	8
	49	160	3.75601	682.5914	-1650.884	1	1786.434	-67.53635	-8.199114E-008	0.0006236	8
	50	163	3.004808	754.109	-2006.623	1	2143.646	-69.40327	-9.459799E-008	0.0006465	8
	51	167	2.372217	849.0988	-2464.926	1	2607.073	-70.99258	-7.030972E-008	0.0006775	8
	52	171	1.878005	960.157	-3031.992	1	3180.39	-72.42828	-9.834228E-008	0.0006341	8
	53	176	1.512097	1077.119	-3662.763	1	3817.855	-73.61283	-7.101445E-008	0.0005787	8
	54	181	1.201923	1243.607	-4500.742	1	4669.394	-74.55391	-3.672257E-008	0.0005946	7
	55	188	0.956633	1436.143	-5504.211	1	5688.484	-75.37657	-3.640531E-008	-2.606765E-005	7
