EXPLAIN
TAG	EISPOT
TITLE	LABEL	Potentiostatic EIS	Test Identifier
DATE	LABEL	9/22/2020	Date
TIME	LABEL	0:47:06	Time
NOTES	NOTES	1	Notes...
	
PSTAT	PSTAT	REF3000-16137	Potentiostat
VDC	POTEN	0.00000E+000	T	DC Voltage (V)
FREQINIT	QUANT	3.00000E+005	Initial Freq. (Hz)
FREQFINAL	QUANT	1.00000E+000	Final Freq. (Hz)
PTSPERDEC	QUANT	1.00000E+001	Points/decade
VAC	QUANT	5.00000E+001	AC Voltage (mV rms)
AREA	QUANT	1.00000E+000	Sample Area (cm^2)
SPEED	SELECTOR	2	Optimize for:
ZGUESS	QUANT	1.00000E+003	Estimated Z (ohms)
EOC	QUANT	0	Open Circuit (V)
SEQUENCER	TOGGLE	TRUE	Run as Sequence
PSTATMODEL	IQUANT	5	Pstat Model
PSTATSECTION	LABEL	REF3000-16137	Pstat Section
PSTATSERIALNO	LABEL	16137	Pstat Serial Number
CTRLMODE	IQUANT	1	Control Mode
IESTAB	IQUANT	0	I/E Stability
CASPEED	IQUANT	1	Control Amp Speed
CONVENTION	IQUANT	1	Current Convention
ICHRANGE	IQUANT	2	Ich Range
ICHRANGEMODE	TOGGLE	F	Ich Auto Range
ICHOFFSETENABLE	TOGGLE	T	Ich Offset Enable
ICHOFFSET	QUANT	0	Ich Offset (V)
ICHFILTER	IQUANT	3	Ich Filter
VCHRANGE	IQUANT	2	Vch Range
VCHRANGEMODE	TOGGLE	F	Vch Auto Range
VCHOFFSETENABLE	TOGGLE	T	Vch Offset Enable
VCHOFFSET	QUANT	0	Vch Offset (V)
VCHFILTER	IQUANT	3	Vch Filter
ACHRANGE	IQUANT	2	Ach Range
ACHOFFSETENABLE	TOGGLE	F	Ach Offset Enable
ACHOFFSET	QUANT	0	Ach Offset (V)
ACHFILTER	IQUANT	3	Ach Filter
IERANGELOWERLIMIT	IQUANT	2	I/E Range Lower Limit
IERANGEMODE	TOGGLE	F	I/E AutoRange
IERANGE	IQUANT	11	I/E Range
POSFEEDENABLE	TOGGLE	F	Positive Feedback IR Comp
POSFEEDRESISTANCE	QUANT	0	Positive Feedback Resistance (ohm)
ACHSELECT	IQUANT	0	Ach Select
CABLEID	IQUANT	13	Cable ID
DCCALDATE	LABEL	7/31/2020	DC Calibration Date
ACCALDATE	LABEL	7/31/2020	AC Calibration Date
THERMOSELECT	IQUANT	1	Thermo Select
FRAMEWORKVERSION	QUANT	6.33	Framework Version
INSTRUMENTVERSION	LABEL	3.50	Instrument Version
COMPLIANCEVOLTAGE	IQUANT	0	Compliance Voltage
ZCURVE	TABLE
	Pt	Time	Freq	Zreal	Zimag	Zsig	Zmod	Zphz	Idc	Vdc	IERange
	#	s	Hz	ohm	ohm	V	ohm	°	A	V	#
	0	8	300046.9	16.50809	2.048578	1	16.63471	7.073978	9.907805E-006	0.000218	10
	1	11	238359.4	16.48453	1.640975	1	16.566	5.68486	2.065377E-005	0.0002498	10
	2	14	189328.1	16.4827	1.29506	1	16.53349	4.49255	-5.396363E-005	0.0005574	10
	3	17	150421.9	16.47523	1.005123	1	16.50587	3.491181	1.835668E-006	0.0006376	10
	4	19	119484.4	16.4912	0.7749284	1	16.5094	2.690373	-9.237356E-005	0.0006331	10
	5	22	94921.88	16.49684	0.5944788	1	16.50755	2.063813	-3.043728E-005	0.0006217	10
	6	24	75421.88	16.51079	0.4193376	1	16.51612	1.454873	2.123705E-005	0.0006359	10
	7	27	59859.37	16.52777	0.2718453	1	16.53001	0.9423037	-1.898821E-005	0.0006195	10
	8	29	47578.12	16.54523	0.1431988	1	16.54585	0.495882	-1.129156E-005	0.0006156	10
	9	32	37828.12	16.5638	0.0247099	1	16.56382	0.0854739	-2.113997E-005	0.000713	10
	10	34	30046.88	16.58068	-0.0920567	1	16.58093	-0.3181056	-4.408567E-007	0.0006272	10
	11	37	23859.38	16.60228	-0.2089335	1	16.6036	-0.7210079	-3.004862E-005	0.0006498	10
	12	39	18984.38	16.62405	-0.3352889	1	16.62743	-1.155437	1.281429E-005	0.0005946	10
	13	42	15046.87	16.6463	-0.4785801	1	16.65318	-1.646796	2.379466E-005	0.0006262	10
	14	44	11953.13	16.67441	-0.6398514	1	16.68668	-2.197548	1.733111E-005	0.0005941	10
	15	46	9515.62	16.70561	-0.8233579	1	16.72589	-2.821614	-2.050174E-005	0.0007251	10
	16	48	7546.875	16.74014	-1.05378	1	16.77327	-3.601978	2.290878E-005	0.0006288	10
	17	51	5928.309	16.78453	-1.342939	1	16.83817	-4.574521	-1.746214E-005	0.0006646	10
	18	53	4733.456	16.82968	-1.673034	1	16.91264	-5.677105	1.175969E-005	0.0005974	10
	19	55	3796.875	16.88865	-2.066931	1	17.01466	-6.977494	6.394503E-006	0.0006935	10
	20	58	2987.132	16.95898	-2.594852	1	17.15635	-8.699216	1.235497E-005	0.0005978	10
	21	60	2390.625	17.04268	-3.205069	1	17.34143	-10.65073	4.308736E-006	0.0006023	10
	22	62	1884.191	17.14845	-4.00054	1	17.60891	-13.1316	1.690147E-005	0.0006028	10
	23	65	1516.544	17.27138	-4.90234	1	17.95365	-15.84616	3.139309E-006	0.0006006	10
	24	67	1193.986	17.43656	-6.123599	1	18.48059	-19.35092	2.185854E-005	0.0006469	10
	25	69	946.5144	17.63609	-7.60016	1	19.20401	-23.31332	-6.392708E-006	0.0006151	10
	26	72	751.7689	17.89124	-9.393796	1	20.20742	-27.70172	-1.955647E-005	0.0006553	10
	27	74	597.4265	18.20929	-11.61932	1	21.60062	-32.54188	1.825456E-005	0.000602	10
	28	76	477.4305	18.5971	-14.28176	1	23.44826	-37.52269	-3.603275E-006	0.0006582	10
	29	79	376.6741	19.11847	-17.75227	1	26.08944	-42.87794	-3.646681E-006	0.0006548	10
	30	81	298.2954	19.77517	-21.98284	1	29.56861	-48.02629	-2.932313E-006	0.0006529	10
	31	83	237.7717	20.58627	-27.03767	1	33.98278	-52.71464	-2.999871E-006	0.0006549	10
	32	86	189.0121	21.6306	-33.31076	1	39.71762	-57.00202	-2.959072E-006	0.0006554	10
	33	88	150.2404	22.9304	-40.95104	1	46.9339	-60.7535	1.088742E-006	5.486904E-005	9
	34	91	119.1737	24.62108	-50.43906	1	56.1275	-63.98137	1.11296E-006	6.096248E-005	9
	35	93	95.0169	26.68294	-61.76566	1	67.28281	-66.63552	1.051465E-006	6.172153E-005	9
	36	96	75.60484	29.24286	-75.69595	1	81.14814	-68.87746	1.081553E-006	5.65564E-005	9
	37	98	54.50582	33.89729	-101.1699	1	106.6976	-71.47642	1.062081E-006	5.482984E-005	9
	38	101	45.95588	36.88176	-117.6687	1	123.3134	-72.59707	1.136705E-006	5.855659E-005	9
	39	103	37.20238	41.1979	-141.9054	1	147.7647	-73.81096	1.170277E-006	5.453705E-005	9
	40	105	30.04808	46.42777	-171.5851	1	177.7554	-74.85937	1.073833E-006	5.677664E-005	9
	41	108	23.91582	53.20916	-210.3049	1	216.9317	-75.80158	1.102567E-006	6.06187E-005	9
	42	110	18.60119	62.50982	-263.2113	1	270.5322	-76.64037	9.93827E-007	5.838438E-005	9
	43	113	15.02404	72.5039	-318.8541	1	326.9935	-77.1894	1.197687E-006	7.091011E-005	9
	44	115	12.01923	85.5757	-389.6331	1	398.92	-77.61272	1.014147E-006	4.847586E-005	9
	45	117	9.450605	103.2687	-481.5417	1	492.4905	-77.896	5.232965E-007	0.0006355	8
	46	120	7.512019	125.9375	-591.6851	1	604.9392	-77.98416	5.31431E-007	0.0006447	8
	47	123	5.978954	154.9951	-725.3436	1	741.7188	-77.93815	5.233073E-007	0.0006376	8
	48	126	4.734848	194.1532	-893.1299	1	913.9894	-77.73556	4.149527E-007	0.000618	8
	49	129	3.75601	246.0106	-1095.62	1	1122.9	-77.3447	5.193218E-007	0.0006507	8
	50	132	3.004808	311.4872	-1330.22	1	1366.203	-76.82095	4.50899E-007	0.0006591	8
	51	136	2.372217	406.1997	-1629.396	1	1679.265	-76.0018	4.573461E-007	0.0005906	8
	52	140	1.878005	525.2398	-1990.236	1	2058.377	-75.21623	5.119071E-007	0.0006392	8
	53	145	1.512097	670.7523	-2378.044	1	2470.83	-74.24834	4.621874E-007	0.0005973	8
	54	150	1.201923	868.7645	-2877.266	1	3005.563	-73.19878	4.881561E-007	0.0006708	8
	55	157	0.956633	1121.341	-3455.542	1	3632.93	-72.02149	4.310232E-007	5.194206E-007	8
