EXPLAIN
TAG	EISPOT
TITLE	LABEL	Potentiostatic EIS	Test Identifier
DATE	LABEL	9/22/2020	Date
TIME	LABEL	4:33:32	Time
NOTES	NOTES	1	Notes...
	
PSTAT	PSTAT	REF3000-16137	Potentiostat
VDC	POTEN	0.00000E+000	T	DC Voltage (V)
FREQINIT	QUANT	3.00000E+005	Initial Freq. (Hz)
FREQFINAL	QUANT	1.00000E+000	Final Freq. (Hz)
PTSPERDEC	QUANT	1.00000E+001	Points/decade
VAC	QUANT	5.00000E+001	AC Voltage (mV rms)
AREA	QUANT	1.00000E+000	Sample Area (cm^2)
SPEED	SELECTOR	2	Optimize for:
ZGUESS	QUANT	1.00000E+003	Estimated Z (ohms)
EOC	QUANT	0	Open Circuit (V)
SEQUENCER	TOGGLE	TRUE	Run as Sequence
PSTATMODEL	IQUANT	5	Pstat Model
PSTATSECTION	LABEL	REF3000-16137	Pstat Section
PSTATSERIALNO	LABEL	16137	Pstat Serial Number
CTRLMODE	IQUANT	1	Control Mode
IESTAB	IQUANT	0	I/E Stability
CASPEED	IQUANT	1	Control Amp Speed
CONVENTION	IQUANT	1	Current Convention
ICHRANGE	IQUANT	2	Ich Range
ICHRANGEMODE	TOGGLE	F	Ich Auto Range
ICHOFFSETENABLE	TOGGLE	T	Ich Offset Enable
ICHOFFSET	QUANT	0	Ich Offset (V)
ICHFILTER	IQUANT	3	Ich Filter
VCHRANGE	IQUANT	2	Vch Range
VCHRANGEMODE	TOGGLE	F	Vch Auto Range
VCHOFFSETENABLE	TOGGLE	T	Vch Offset Enable
VCHOFFSET	QUANT	0	Vch Offset (V)
VCHFILTER	IQUANT	3	Vch Filter
ACHRANGE	IQUANT	2	Ach Range
ACHOFFSETENABLE	TOGGLE	F	Ach Offset Enable
ACHOFFSET	QUANT	0	Ach Offset (V)
ACHFILTER	IQUANT	3	Ach Filter
IERANGELOWERLIMIT	IQUANT	2	I/E Range Lower Limit
IERANGEMODE	TOGGLE	F	I/E AutoRange
IERANGE	IQUANT	11	I/E Range
POSFEEDENABLE	TOGGLE	F	Positive Feedback IR Comp
POSFEEDRESISTANCE	QUANT	0	Positive Feedback Resistance (ohm)
ACHSELECT	IQUANT	0	Ach Select
CABLEID	IQUANT	13	Cable ID
DCCALDATE	LABEL	7/31/2020	DC Calibration Date
ACCALDATE	LABEL	7/31/2020	AC Calibration Date
THERMOSELECT	IQUANT	1	Thermo Select
FRAMEWORKVERSION	QUANT	6.33	Framework Version
INSTRUMENTVERSION	LABEL	3.50	Instrument Version
COMPLIANCEVOLTAGE	IQUANT	0	Compliance Voltage
ZCURVE	TABLE
	Pt	Time	Freq	Zreal	Zimag	Zsig	Zmod	Zphz	Idc	Vdc	IERange
	#	s	Hz	ohm	ohm	V	ohm	°	A	V	#
	0	14	300046.9	104.8044	-4350.61	1	4351.872	-88.62003	9.115605E-005	-0.002778	9
	1	37	238359.4	224.9734	-5364.035	1	5368.75	-87.59836	2.604396E-005	-0.0020456	9
	2	52	189328.1	492.1565	-6675.247	1	6693.365	-85.78329	2.609059E-005	-0.0004067	9
	3	65	150421.9	863.4412	-8638.354	1	8681.399	-84.29199	8.657188E-005	-0.0024923	9
	4	73	119484.4	659.921	-10259.78	1	10280.98	-86.31974	1.008923E-006	-0.0018506	9
	5	83	94921.88	880.0228	-12784.46	1	12814.71	-86.06223	2.442762E-005	-0.0001538	9
	6	91	75421.88	1492.716	-15989.51	1	16059.04	-84.66656	-1.218371E-005	0.0102883	8
	7	99	59859.37	2142.938	-19881.02	1	19996.17	-83.84795	-2.678967E-005	0.0096176	8
	8	107	47578.12	3000.671	-25008.9	1	25188.28	-83.15813	-2.048495E-005	0.0027881	8
	9	116	37828.12	4815.226	-30126.22	1	30508.61	-80.91894	2.603594E-005	-0.0090751	8
	10	125	30046.88	5798.398	-38346.07	1	38781.98	-81.40131	2.609794E-005	-0.0051519	8
	11	135	23859.38	6276.68	-48247.85	1	48654.41	-82.58788	-1.239023E-006	-0.0051851	8
	12	142	18984.38	14135.44	-59223.77	1	60887.31	-76.57588	-5.290242E-006	0.0263509	7
	13	147	15046.87	16767.83	-75460.64	1	77301.16	-77.47206	-3.394899E-006	0.0244082	7
	14	153	11953.13	26143.81	-84121.14	1	88090.09	-72.7354	-2.397169E-005	0.0051985	8
	15	160	9515.62	36698.62	-105576.7	1	111773.1	-70.83247	-1.998402E-005	0.0113684	8
	16	168	7546.875	33203.5	-134370	1	138411.6	-76.11997	-2.670195E-005	0.0095763	8
	17	175	5928.309	47967.09	-146906.8	1	154539.5	-71.91743	2.248698E-005	-0.0097168	8
	18	183	4733.456	161943.8	-288827.2	1	331129.8	-60.72089	-2.095883E-006	0.0077532	8
	19	190	3796.875	122594	-208314.8	1	241711.3	-59.52304	-3.347179E-006	-0.0050816	7
	20	197	2987.132	1650.003	-316417.9	1	316422.2	-89.70123	1.618178E-005	-0.0092787	8
	21	204	2390.625	237698.2	-287167.3	1	372780.8	-50.38428	-6.209404E-006	0.0249681	7
	22	212	1884.191	271456.3	-159139.5	1	314664.8	-30.38069	2.796545E-006	0.0082052	7
	23	220	1516.544	326759.8	-274712.1	1	426894.3	-40.05429	-1.727221E-006	0.0215964	7
	24	226	1193.986	405050.9	-232661.3	1	467116.2	-29.87306	-2.843739E-007	-0.0071802	6
	25	232	946.5144	434995.7	-227838.8	1	491051.7	-27.64432	-7.246861E-007	0.0227552	6
	26	235	751.7689	514783.9	-155885.4	1	537868.7	-16.84721	-6.496658E-006	0.0115372	7
	27	240	597.4265	456876.5	-66783.13	1	461731.7	-8.316215	-3.190445E-006	-0.005594	7
	28	245	477.4305	545746.9	-150740.5	1	566182.3	-15.44066	-8.937013E-008	0.0005641	7
	29	249	376.6741	567373.3	-119485.7	1	579818.3	-11.8924	-9.123618E-009	0.000619	6
	30	251	298.2954	600434.2	-50999	1	602596.1	-4.854871	-1.630226E-009	0.0006165	5
	31	253	237.7717	605514.1	-41334.86	1	606923.3	-3.905185	-1.490631E-009	0.0005823	5
	32	256	189.0121	606947.5	-33293.56	1	607859.9	-3.139762	-1.601548E-009	0.0006728	5
	33	258	150.2404	610989.5	-27313.1	1	611599.7	-2.559592	-1.403992E-009	0.0006815	5
	34	261	119.1737	623601.2	-32728.12	1	624459.4	-3.004267	-1.277463E-009	0.0006019	5
	35	263	95.0169	616270.1	-17848.15	1	616528.5	-1.658912	-1.343091E-009	0.0005796	5
	36	266	75.60484	621772.5	-13470.89	1	621918.4	-1.241137	-1.309416E-009	0.000577	5
	37	269	54.50582	631565	-14038.19	1	631721	-1.273339	-1.527335E-009	0.0005939	5
	38	271	45.95588	625967.3	-10570.58	1	626056.5	-0.96745	-1.403853E-009	0.0006796	5
	39	274	37.20238	628630.8	-9945.66	1	628709.5	-0.9064096	-1.46277E-009	0.0005968	5
	40	276	30.04808	631866.3	-7432.852	1	631910	-0.6739581	-1.515669E-009	0.0006809	5
	41	279	23.91582	635792.3	-7020.108	1	635831.1	-0.6326063	-1.360693E-009	0.0006425	5
	42	282	18.60119	637077.9	-1393.617	1	637079.4	-0.1253351	-8.534186E-010	0.0005885	5
	43	284	15.02404	640718.5	-5112.217	1	640738.9	-0.4571466	-1.451345E-009	0.0006832	5
	44	286	12.01923	643715.6	-4392.28	1	643730.6	-0.3909416	-1.5039E-009	0.0006741	5
	45	289	9.450605	647348.6	-4414.215	1	647363.6	-0.390689	-1.684224E-009	0.0006562	5
	46	292	7.512019	650060.4	-4261.134	1	650074.3	-0.3755674	-1.405802E-009	0.0005779	5
	47	295	5.978954	654262.1	-4610.62	1	654278.4	-0.4037597	-1.195057E-009	0.0006652	5
	48	299	4.734848	658927.6	-5092.615	1	658947.3	-0.4428097	-1.396225E-009	0.0005682	5
	49	302	3.75601	664339.8	-5964.33	1	664366.5	-0.514378	-1.696694E-009	0.0006762	5
	50	308	3.004808	671794.9	-6745.081	1	671828.8	-0.5752525	-1.109388E-009	0.000658	5
	51	314	2.372217	678274.7	-7397.038	1	678315	-0.6248239	-1.523389E-009	0.0006266	5
	52	319	1.878005	684029	-8902.743	1	684086.9	-0.7456713	-1.519326E-009	0.0006424	5
	53	323	1.512097	690492.6	-10672.92	1	690575.1	-0.8855483	-1.209316E-009	0.0005376	5
	54	329	1.201923	698223.9	-13057.79	1	698346	-1.071389	-1.5894E-009	0.0006351	5
	55	335	0.956633	707080.2	-15945.89	1	707259.9	-1.2919	-2.577695E-009	-6.659057E-006	5
