EXPLAIN
TAG	EISPOT
TITLE	LABEL	Potentiostatic EIS	Test Identifier
DATE	LABEL	9/22/2020	Date
TIME	LABEL	3:46:18	Time
NOTES	NOTES	1	Notes...
	
PSTAT	PSTAT	REF3000-16137	Potentiostat
VDC	POTEN	0.00000E+000	T	DC Voltage (V)
FREQINIT	QUANT	3.00000E+005	Initial Freq. (Hz)
FREQFINAL	QUANT	1.00000E+000	Final Freq. (Hz)
PTSPERDEC	QUANT	1.00000E+001	Points/decade
VAC	QUANT	5.00000E+001	AC Voltage (mV rms)
AREA	QUANT	1.00000E+000	Sample Area (cm^2)
SPEED	SELECTOR	2	Optimize for:
ZGUESS	QUANT	1.00000E+003	Estimated Z (ohms)
EOC	QUANT	0	Open Circuit (V)
SEQUENCER	TOGGLE	TRUE	Run as Sequence
PSTATMODEL	IQUANT	5	Pstat Model
PSTATSECTION	LABEL	REF3000-16137	Pstat Section
PSTATSERIALNO	LABEL	16137	Pstat Serial Number
CTRLMODE	IQUANT	1	Control Mode
IESTAB	IQUANT	0	I/E Stability
CASPEED	IQUANT	1	Control Amp Speed
CONVENTION	IQUANT	1	Current Convention
ICHRANGE	IQUANT	2	Ich Range
ICHRANGEMODE	TOGGLE	F	Ich Auto Range
ICHOFFSETENABLE	TOGGLE	T	Ich Offset Enable
ICHOFFSET	QUANT	0	Ich Offset (V)
ICHFILTER	IQUANT	3	Ich Filter
VCHRANGE	IQUANT	2	Vch Range
VCHRANGEMODE	TOGGLE	F	Vch Auto Range
VCHOFFSETENABLE	TOGGLE	T	Vch Offset Enable
VCHOFFSET	QUANT	0	Vch Offset (V)
VCHFILTER	IQUANT	3	Vch Filter
ACHRANGE	IQUANT	2	Ach Range
ACHOFFSETENABLE	TOGGLE	F	Ach Offset Enable
ACHOFFSET	QUANT	0	Ach Offset (V)
ACHFILTER	IQUANT	3	Ach Filter
IERANGELOWERLIMIT	IQUANT	2	I/E Range Lower Limit
IERANGEMODE	TOGGLE	F	I/E AutoRange
IERANGE	IQUANT	11	I/E Range
POSFEEDENABLE	TOGGLE	F	Positive Feedback IR Comp
POSFEEDRESISTANCE	QUANT	0	Positive Feedback Resistance (ohm)
ACHSELECT	IQUANT	0	Ach Select
CABLEID	IQUANT	13	Cable ID
DCCALDATE	LABEL	7/31/2020	DC Calibration Date
ACCALDATE	LABEL	7/31/2020	AC Calibration Date
THERMOSELECT	IQUANT	1	Thermo Select
FRAMEWORKVERSION	QUANT	6.33	Framework Version
INSTRUMENTVERSION	LABEL	3.50	Instrument Version
COMPLIANCEVOLTAGE	IQUANT	0	Compliance Voltage
ZCURVE	TABLE
	Pt	Time	Freq	Zreal	Zimag	Zsig	Zmod	Zphz	Idc	Vdc	IERange
	#	s	Hz	ohm	ohm	V	ohm	°	A	V	#
	0	26	300046.9	1496.609	-3125.801	1	3465.612	-64.41528	-0.000113	0.0037164	9
	1	42	238359.4	2059.809	-3525.258	1	4082.922	-59.70225	5.12595E-005	0.0001303	9
	2	65	189328.1	2750.829	-3828.605	1	4714.37	-54.30299	-2.998207E-005	-0.0010739	9
	3	73	150421.9	3658.6	-4150.113	1	5532.521	-48.60169	-0.000106	0.0037397	9
	4	82	119484.4	4592.394	-4286.718	1	6282.199	-43.02829	-1.559808E-005	0.0159974	8
	5	91	94921.88	5600.727	-4346.373	1	7089.365	-37.8128	1.718636E-005	0.0001128	8
	6	98	75421.88	6510.669	-4222.16	1	7759.861	-32.96335	-1.581553E-005	0.0008078	8
	7	106	59859.37	7311.817	-3916.24	1	8294.553	-28.17369	2.537456E-005	-0.0051604	8
	8	115	47578.12	8199.327	-3585.571	1	8949.038	-23.61979	-1.41636E-006	-0.0048168	8
	9	123	37828.12	9233.858	-2401.928	1	9541.14	-14.58076	6.347982E-006	-0.0242655	7
	10	130	30046.88	9553.36	-2020.138	1	9764.61	-11.93978	1.420945E-006	-0.0186819	7
	11	136	23859.38	9778.17	-1722.347	1	9928.7	-9.98973	-6.15021E-007	-0.012973	7
	12	140	18984.38	9959.68	-1413.167	1	10059.44	-8.075724	-4.696543E-006	0.0023432	7
	13	144	15046.87	10107.56	-1176.892	1	10175.85	-6.641434	6.330735E-006	-0.0239679	7
	14	148	11953.13	10192.89	-940.5968	1	10236.19	-5.272307	4.174706E-006	0.000482	7
	15	153	9515.62	10311.58	-781.4385	1	10341.15	-4.333739	-6.577061E-006	0.0206489	7
	16	157	7546.875	10402.76	-633.6205	1	10422.04	-3.485516	2.221135E-007	0.015295	7
	17	161	5928.309	10463.97	-499.9812	1	10475.9	-2.735582	-5.91881E-006	0.0098539	7
	18	165	4733.456	10555.54	-426.9608	1	10564.17	-2.316293	6.831805E-008	0.0156221	7
	19	170	3796.875	10641.57	-374.7049	1	10648.17	-2.016633	-3.591135E-006	0.023643	7
	20	174	2987.132	10669.4	-281.3586	1	10673.11	-1.510574	-5.037532E-006	0.02419	7
	21	178	2390.625	10740.82	-238.8464	1	10743.48	-1.27389	2.173888E-006	0.0087763	7
	22	182	1884.191	10742.13	-215.3504	1	10744.29	-1.14847	6.76236E-006	-0.0157561	7
	23	187	1516.544	10894.64	-176.6337	1	10896.07	-0.9288491	5.781024E-006	-0.0080652	7
	24	191	1193.986	10924.43	-116.3309	1	10925.05	-0.6101021	-6.738609E-007	-0.012952	7
	25	195	946.5144	10920.7	-52.08112	1	10920.83	-0.273243	6.791728E-006	-0.0211517	7
	26	198	751.7689	10957.58	-154.6634	1	10958.67	-0.8086612	-2.030961E-006	0.0210059	7
	27	201	597.4265	11000.29	43.43257	1	11000.38	0.2262203	4.98587E-006	-0.0243719	7
	28	203	477.4305	11034.11	-83.62852	1	11034.42	-0.4342417	-9.439958E-008	0.0006462	7
	29	206	376.6741	11059.87	-81.65997	1	11060.17	-0.4230326	-8.397126E-008	0.0005576	7
	30	208	298.2954	11090.76	-82.20683	1	11091.06	-0.4246795	-8.974141E-008	0.0005798	7
	31	210	237.7717	11127.93	-87.4765	1	11128.27	-0.4503922	-9.030278E-008	0.0005788	7
	32	213	189.0121	11155.4	-96.4697	1	11155.82	-0.4954702	-8.863807E-008	0.0005939	7
	33	215	150.2404	11192.29	-108.8981	1	11192.82	-0.5574555	-9.268902E-008	0.0006306	7
	34	218	119.1737	11223.33	-131.3484	1	11224.1	-0.6705105	-7.671579E-008	0.0005699	7
	35	220	95.0169	11256.87	-150.0367	1	11257.87	-0.7636192	-8.13683E-008	0.0005555	7
	36	222	75.60484	11297.23	-179.7796	1	11298.66	-0.9117054	-1.073239E-007	0.0006504	7
	37	225	54.50582	11336.54	-232.9201	1	11338.93	-1.177032	-8.442795E-008	0.0006467	7
	38	227	45.95588	11378.38	-274.1274	1	11381.68	-1.3801	-1.237386E-007	0.000636	7
	39	230	37.20238	11411.75	-330.619	1	11416.53	-1.659498	-1.328184E-007	0.000614	7
	40	232	30.04808	11453.92	-395.9272	1	11460.76	-1.979753	-7.980314E-008	0.0005578	7
	41	235	23.91582	11498.04	-489.8105	1	11508.47	-2.439295	-1.282817E-007	0.0006467	7
	42	237	18.60119	11556.28	-617.7512	1	11572.78	-3.059884	1.225239E-008	0.0006477	7
	43	239	15.02404	11592.32	-724.189	1	11614.91	-3.574706	-4.314158E-008	0.0005994	7
	44	242	12.01923	11634.85	-893.5273	1	11669.11	-4.391551	-1.541132E-007	0.0006277	7
	45	244	9.450605	11710.23	-1092.828	1	11761.11	-5.331543	-1.597696E-007	0.0006567	7
	46	247	7.512019	11778.17	-1362.7	1	11856.74	-6.599616	-1.298949E-007	0.0006064	7
	47	249	5.978954	11857.91	-1690.385	1	11977.79	-8.113046	-1.214376E-007	0.0005624	7
	48	252	4.734848	11991.52	-2108.498	1	12175.48	-9.97252	-3.970763E-008	0.0006137	7
	49	256	3.75601	12109.78	-2616.486	1	12389.22	-12.19212	-1.447487E-007	0.0006403	7
	50	259	3.004808	12254.14	-3158.391	1	12654.62	-14.4529	-9.544641E-008	0.0005995	7
	51	263	2.372217	12438.87	-3923.13	1	13042.87	-17.5049	-1.10815E-007	0.0006563	7
	52	267	1.878005	12675.7	-4842.83	1	13569.32	-20.90967	-1.149348E-007	0.0005997	7
	53	272	1.512097	12934.8	-5860.046	1	14200.33	-24.37266	-1.054618E-007	0.0005535	7
	54	277	1.201923	13255.27	-7216.389	1	15092.33	-28.5646	-9.94646E-008	0.0006022	7
	55	283	0.956633	13656.78	-8837.995	1	16267.08	-32.90895	-9.994952E-008	-3.433827E-005	7
