EXPLAIN
TAG	EISPOT
TITLE	LABEL	Potentiostatic EIS	Test Identifier
DATE	LABEL	9/22/2020	Date
TIME	LABEL	3:18:09	Time
NOTES	NOTES	1	Notes...
	
PSTAT	PSTAT	REF3000-16137	Potentiostat
VDC	POTEN	0.00000E+000	T	DC Voltage (V)
FREQINIT	QUANT	3.00000E+005	Initial Freq. (Hz)
FREQFINAL	QUANT	1.00000E+000	Final Freq. (Hz)
PTSPERDEC	QUANT	1.00000E+001	Points/decade
VAC	QUANT	5.00000E+001	AC Voltage (mV rms)
AREA	QUANT	1.00000E+000	Sample Area (cm^2)
SPEED	SELECTOR	2	Optimize for:
ZGUESS	QUANT	1.00000E+003	Estimated Z (ohms)
EOC	QUANT	0	Open Circuit (V)
SEQUENCER	TOGGLE	TRUE	Run as Sequence
PSTATMODEL	IQUANT	5	Pstat Model
PSTATSECTION	LABEL	REF3000-16137	Pstat Section
PSTATSERIALNO	LABEL	16137	Pstat Serial Number
CTRLMODE	IQUANT	1	Control Mode
IESTAB	IQUANT	0	I/E Stability
CASPEED	IQUANT	1	Control Amp Speed
CONVENTION	IQUANT	1	Current Convention
ICHRANGE	IQUANT	2	Ich Range
ICHRANGEMODE	TOGGLE	F	Ich Auto Range
ICHOFFSETENABLE	TOGGLE	T	Ich Offset Enable
ICHOFFSET	QUANT	0	Ich Offset (V)
ICHFILTER	IQUANT	3	Ich Filter
VCHRANGE	IQUANT	2	Vch Range
VCHRANGEMODE	TOGGLE	F	Vch Auto Range
VCHOFFSETENABLE	TOGGLE	T	Vch Offset Enable
VCHOFFSET	QUANT	0	Vch Offset (V)
VCHFILTER	IQUANT	3	Vch Filter
ACHRANGE	IQUANT	2	Ach Range
ACHOFFSETENABLE	TOGGLE	F	Ach Offset Enable
ACHOFFSET	QUANT	0	Ach Offset (V)
ACHFILTER	IQUANT	3	Ach Filter
IERANGELOWERLIMIT	IQUANT	2	I/E Range Lower Limit
IERANGEMODE	TOGGLE	F	I/E AutoRange
IERANGE	IQUANT	11	I/E Range
POSFEEDENABLE	TOGGLE	F	Positive Feedback IR Comp
POSFEEDRESISTANCE	QUANT	0	Positive Feedback Resistance (ohm)
ACHSELECT	IQUANT	0	Ach Select
CABLEID	IQUANT	13	Cable ID
DCCALDATE	LABEL	7/31/2020	DC Calibration Date
ACCALDATE	LABEL	7/31/2020	AC Calibration Date
THERMOSELECT	IQUANT	1	Thermo Select
FRAMEWORKVERSION	QUANT	6.33	Framework Version
INSTRUMENTVERSION	LABEL	3.50	Instrument Version
COMPLIANCEVOLTAGE	IQUANT	0	Compliance Voltage
ZCURVE	TABLE
	Pt	Time	Freq	Zreal	Zimag	Zsig	Zmod	Zphz	Idc	Vdc	IERange
	#	s	Hz	ohm	ohm	V	ohm	°	A	V	#
	0	18	300046.9	1398.193	-657.9751	1	1545.275	-25.20119	1.799148E-005	-0.002288	9
	1	31	238359.4	1501.811	-588.9684	1	1613.171	-21.41373	7.711077E-005	-0.0016701	9
	2	44	189328.1	1566.128	-530.3502	1	1653.49	-18.70805	7.460701E-005	-0.0015433	9
	3	55	150421.9	1666.665	-450.8379	1	1726.565	-15.13643	2.511761E-005	0.0010219	9
	4	63	119484.4	1731.562	-318.1376	1	1760.545	-10.41077	1.522122E-005	-0.0112434	8
	5	69	94921.88	1775.747	-258.8124	1	1794.509	-8.292382	-1.80868E-005	0.0030145	8
	6	72	75421.88	1796.583	-218.1471	1	1809.779	-6.923152	-1.799099E-005	0.0029483	8
	7	75	59859.37	1810.107	-180.4297	1	1819.077	-5.692385	2.286633E-005	-0.0064169	8
	8	78	47578.12	1826.749	-145.0429	1	1832.499	-4.539729	2.146738E-005	-0.0076002	8
	9	81	37828.12	1844.416	-121.1158	1	1848.388	-3.757004	2.244132E-005	-0.004651	8
	10	85	30046.88	1852.841	-100.9637	1	1855.589	-3.119039	1.561906E-005	-0.0001793	8
	11	88	23859.38	1862.022	-76.26636	1	1863.584	-2.34546	-1.542815E-005	0.0094313	8
	12	92	18984.38	1870.531	-64.18365	1	1871.631	-1.965223	-1.549445E-005	0.0094998	8
	13	95	15046.87	1872.195	-53.75956	1	1872.967	-1.644781	2.232526E-005	-0.0046517	8
	14	98	11953.13	1884.809	-42.91515	1	1885.298	-1.30434	-9.002248E-006	-0.001392	8
	15	103	9515.62	1890.91	-34.24966	1	1891.22	-1.037673	-2.457385E-006	-0.0037928	8
	16	107	7546.875	1897.64	-28.97618	1	1897.861	-0.8748149	2.305768E-005	-0.0064123	8
	17	110	5928.309	1904.525	-28.69809	1	1904.741	-0.8632889	1.258718E-005	-0.0075236	8
	18	115	4733.456	1922.448	-25.69	1	1922.619	-0.7656078	-9.308342E-006	-0.001227	8
	19	119	3796.875	1918.58	-17.74221	1	1918.662	-0.5298319	-2.222337E-005	0.0067909	8
	20	122	2987.132	1923.929	-21.56546	1	1924.05	-0.6422055	-1.813409E-005	0.0029962	8
	21	126	2390.625	1932.54	-17.53896	1	1932.62	-0.5199794	-2.035477E-005	0.0094571	8
	22	130	1884.191	1934.947	-8.501728	1	1934.966	-0.2517433	5.47769E-006	-0.0060638	8
	23	135	1516.544	1948.423	-11.73425	1	1948.458	-0.345056	-1.464846E-005	0.0011766	8
	24	139	1193.986	1951.661	-12.85024	1	1951.704	-0.3772445	-5.47894E-007	0.0062647	8
	25	143	946.5144	1962.441	-21.35412	1	1962.557	-0.623434	-1.939275E-005	0.0092467	8
	26	146	751.7689	1962.59	-22.53634	1	1962.719	-0.6578962	2.026042E-005	-0.0026629	8
	27	149	597.4265	1982.229	-14.7667	1	1982.284	-0.4268195	2.118448E-005	-0.0030232	8
	28	151	477.4305	1978.867	-27.52942	1	1979.058	-0.7970306	-2.758832E-007	0.0006205	8
	29	154	376.6741	1983.945	-33.03831	1	1984.22	-0.954049	-3.026256E-007	0.0006338	8
	30	156	298.2954	1988.94	-40.06348	1	1989.343	-1.15396	-2.888335E-007	0.0006206	8
	31	158	237.7717	1994.587	-48.56387	1	1995.178	-1.394753	-3.126038E-007	0.0006381	8
	32	161	189.0121	2000.316	-59.35392	1	2001.196	-1.699598	-3.088221E-007	0.0006524	8
	33	163	150.2404	2006.603	-72.79254	1	2007.923	-2.07758	-3.158561E-007	0.0006498	8
	34	166	119.1737	2013.255	-89.56904	1	2015.247	-2.54739	-2.382906E-007	0.0006179	8
	35	168	95.0169	2020.269	-110.1049	1	2023.267	-3.11954	-2.969021E-007	0.0006531	8
	36	170	75.60484	2028.17	-135.3188	1	2032.679	-3.817096	-2.496803E-007	0.0006159	8
	37	173	54.50582	2039.216	-181.9661	1	2047.319	-5.09919	-2.620095E-007	0.0006125	8
	38	175	45.95588	2047.564	-212.7619	1	2058.589	-5.932302	-2.78061E-007	0.0006509	8
	39	178	37.20238	2057.885	-258.9255	1	2074.11	-7.171338	-3.67421E-007	0.0006409	8
	40	180	30.04808	2070.904	-313.8866	1	2094.557	-8.618713	-3.046266E-007	0.0006361	8
	41	183	23.91582	2084.996	-387.8058	1	2120.755	-10.53652	-1.695775E-007	0.0006181	8
	42	185	18.60119	2103.115	-489.0238	1	2159.221	-13.09002	-8.220987E-008	0.0006297	8
	43	187	15.02404	2124.889	-589.5229	1	2205.151	-15.50599	-3.596485E-007	0.0006276	8
	44	190	12.01923	2148.542	-723.8655	1	2267.204	-18.61919	-2.385254E-007	0.0006275	8
	45	192	9.450605	2183.058	-898.5723	1	2360.758	-22.37264	-2.122971E-007	0.0006429	8
	46	195	7.512019	2222.028	-1110.197	1	2483.938	-26.5482	-2.368794E-007	0.00067	8
	47	197	5.978954	2272.633	-1361.92	1	2649.469	-30.93298	-2.46591E-007	0.0006206	8
	48	200	4.734848	2333.083	-1678.998	1	2874.424	-35.7406	-2.75012E-007	0.0006762	8
	49	204	3.75601	2411.266	-2063.677	1	3173.794	-40.5585	-3.110787E-007	0.0006506	8
	50	207	3.004808	2501.877	-2517.399	1	3549.181	-45.17718	-2.850107E-007	0.0006661	8
	51	211	2.372217	2630.632	-3114.726	1	4076.977	-49.81628	-4.993448E-008	0.0006816	7
	52	215	1.878005	2776.107	-3831.549	1	4731.547	-54.0752	-6.281648E-008	0.0005808	7
	53	220	1.512097	2951.007	-4636.125	1	5495.644	-57.52225	-5.340281E-008	0.000705	7
	54	225	1.201923	3170.267	-5689.072	1	6512.767	-60.87102	-5.723316E-008	0.0005814	7
	55	231	0.956633	3443.087	-6958.373	1	7763.62	-63.67324	-7.699359E-008	-2.717597E-005	7
