EXPLAIN
TAG	EISPOT
TITLE	LABEL	Potentiostatic EIS	Test Identifier
DATE	LABEL	9/22/2020	Date
TIME	LABEL	1:45:23	Time
NOTES	NOTES	1	Notes...
	
PSTAT	PSTAT	REF3000-16137	Potentiostat
VDC	POTEN	0.00000E+000	T	DC Voltage (V)
FREQINIT	QUANT	3.00000E+005	Initial Freq. (Hz)
FREQFINAL	QUANT	1.00000E+000	Final Freq. (Hz)
PTSPERDEC	QUANT	1.00000E+001	Points/decade
VAC	QUANT	5.00000E+001	AC Voltage (mV rms)
AREA	QUANT	1.00000E+000	Sample Area (cm^2)
SPEED	SELECTOR	2	Optimize for:
ZGUESS	QUANT	1.00000E+003	Estimated Z (ohms)
EOC	QUANT	0	Open Circuit (V)
SEQUENCER	TOGGLE	TRUE	Run as Sequence
PSTATMODEL	IQUANT	5	Pstat Model
PSTATSECTION	LABEL	REF3000-16137	Pstat Section
PSTATSERIALNO	LABEL	16137	Pstat Serial Number
CTRLMODE	IQUANT	1	Control Mode
IESTAB	IQUANT	0	I/E Stability
CASPEED	IQUANT	1	Control Amp Speed
CONVENTION	IQUANT	1	Current Convention
ICHRANGE	IQUANT	2	Ich Range
ICHRANGEMODE	TOGGLE	F	Ich Auto Range
ICHOFFSETENABLE	TOGGLE	T	Ich Offset Enable
ICHOFFSET	QUANT	0	Ich Offset (V)
ICHFILTER	IQUANT	3	Ich Filter
VCHRANGE	IQUANT	2	Vch Range
VCHRANGEMODE	TOGGLE	F	Vch Auto Range
VCHOFFSETENABLE	TOGGLE	T	Vch Offset Enable
VCHOFFSET	QUANT	0	Vch Offset (V)
VCHFILTER	IQUANT	3	Vch Filter
ACHRANGE	IQUANT	2	Ach Range
ACHOFFSETENABLE	TOGGLE	F	Ach Offset Enable
ACHOFFSET	QUANT	0	Ach Offset (V)
ACHFILTER	IQUANT	3	Ach Filter
IERANGELOWERLIMIT	IQUANT	2	I/E Range Lower Limit
IERANGEMODE	TOGGLE	F	I/E AutoRange
IERANGE	IQUANT	11	I/E Range
POSFEEDENABLE	TOGGLE	F	Positive Feedback IR Comp
POSFEEDRESISTANCE	QUANT	0	Positive Feedback Resistance (ohm)
ACHSELECT	IQUANT	0	Ach Select
CABLEID	IQUANT	13	Cable ID
DCCALDATE	LABEL	7/31/2020	DC Calibration Date
ACCALDATE	LABEL	7/31/2020	AC Calibration Date
THERMOSELECT	IQUANT	1	Thermo Select
FRAMEWORKVERSION	QUANT	6.33	Framework Version
INSTRUMENTVERSION	LABEL	3.50	Instrument Version
COMPLIANCEVOLTAGE	IQUANT	0	Compliance Voltage
ZCURVE	TABLE
	Pt	Time	Freq	Zreal	Zimag	Zsig	Zmod	Zphz	Idc	Vdc	IERange
	#	s	Hz	ohm	ohm	V	ohm	°	A	V	#
	0	7	300046.9	56.31448	1.986246	1	56.3495	2.02002	1.396001E-005	-0.0008523	9
	1	10	238359.4	56.47972	1.664267	1	56.50424	1.687825	5.814424E-005	-0.0022396	9
	2	13	189328.1	56.57673	1.217464	1	56.58983	1.232747	-8.529264E-006	0.0005528	9
	3	16	150421.9	56.69468	0.9378164	1	56.70244	0.947673	1.136935E-005	0.0005479	9
	4	18	119484.4	56.74268	0.7054217	1	56.74707	0.7122611	9.867437E-006	0.0005293	9
	5	21	94921.88	56.87493	0.720505	1	56.87949	0.7257976	9.902078E-006	1.260739E-005	9
	6	23	75421.88	56.91684	0.4810875	1	56.91887	0.4842789	-1.586497E-005	0.0003857	9
	7	26	59859.37	56.96232	0.2941478	1	56.96308	0.2958671	9.615498E-006	4.159881E-005	9
	8	28	47578.12	57.02438	0.1160855	1	57.0245	0.1166379	-1.655475E-005	0.0003861	9
	9	31	37828.12	57.10264	-0.0574858	1	57.10267	-0.0576802	1.221581E-006	-0.000309	9
	10	33	30046.88	57.19062	-0.1728449	1	57.19088	-0.1731622	9.77327E-006	6.570423E-005	9
	11	36	23859.38	57.26281	-0.3013769	1	57.26361	-0.3015476	-8.966693E-006	1.259163E-005	9
	12	38	18984.38	57.33316	-0.4359837	1	57.33482	-0.4356911	-1.59694E-005	0.0006557	9
	13	40	15046.87	57.43519	-0.5429047	1	57.43776	-0.5415707	-9.449001E-006	0.000674	9
	14	43	11953.13	57.50583	-0.7565563	1	57.5108	-0.7537494	-8.844592E-006	1.406026E-005	9
	15	45	9515.62	57.58666	-0.980041	1	57.595	-0.974997	-1.663381E-005	0.0005603	9
	16	47	7546.875	57.69529	-1.281751	1	57.70953	-1.272666	3.645563E-006	0.0003689	9
	17	50	5928.309	57.78504	-1.588866	1	57.80688	-1.575017	-1.730547E-005	0.0006567	9
	18	52	4733.456	57.8317	-1.962102	1	57.86497	-1.943174	2.003689E-005	-0.0003751	9
	19	54	3796.875	57.96498	-2.407423	1	58.01495	-2.378263	-1.693612E-005	0.0005947	9
	20	57	2987.132	58.11934	-2.999845	1	58.19671	-2.954715	1.908767E-005	-0.0005831	9
	21	59	2390.625	58.23211	-3.708376	1	58.35007	-3.643827	-1.958177E-005	0.0006646	9
	22	61	1884.191	58.39839	-4.669329	1	58.58477	-4.571443	2.460192E-006	0.00036	9
	23	64	1516.544	58.61165	-5.669524	1	58.88522	-5.52505	3.395659E-006	0.0003337	9
	24	66	1193.986	58.84289	-7.109815	1	59.27086	-6.889484	-1.747412E-005	0.0005657	9
	25	68	946.5144	59.13923	-8.807926	1	59.79153	-8.471104	-1.422463E-005	0.0006514	9
	26	71	751.7689	59.41226	-10.91416	1	60.40642	-10.4093	-1.629761E-005	0.0004484	9
	27	73	597.4265	59.81	-13.46043	1	61.30595	-12.68328	1.060047E-005	0.0001087	9
	28	75	477.4305	60.29251	-16.55569	1	62.52422	-15.35438	1.213686E-006	6.835836E-005	9
	29	78	376.6741	60.8973	-20.60391	1	64.28844	-18.69266	1.283557E-006	5.663106E-005	9
	30	80	298.2954	61.63627	-25.54283	1	66.71931	-22.50972	1.248234E-006	5.923534E-005	9
	31	82	237.7717	62.53891	-31.46185	1	70.00688	-26.70589	1.214123E-006	6.123049E-005	9
	32	85	189.0121	63.67593	-38.82735	1	74.58007	-31.37338	1.165489E-006	6.656803E-005	9
	33	87	150.2404	65.09631	-47.89139	1	80.81532	-36.34194	1.235344E-006	6.100837E-005	9
	34	90	119.1737	66.89216	-59.15722	1	89.29803	-41.48848	1.233552E-006	6.044522E-005	9
	35	92	95.0169	69.10087	-72.69101	1	100.2941	-46.45041	1.287108E-006	5.996397E-005	9
	36	95	75.60484	71.90824	-89.44073	1	114.7625	-51.20154	1.236074E-006	5.833787E-005	9
	37	97	54.50582	77.22102	-120.2174	1	142.8822	-57.28555	1.150845E-006	6.347238E-005	9
	38	100	45.95588	80.81425	-140.1771	1	161.8041	-60.03589	1.186388E-006	6.468924E-005	9
	39	102	37.20238	86.18736	-169.3908	1	190.0566	-63.03265	1.221151E-006	5.698798E-005	9
	40	104	30.04808	92.84876	-204.9315	1	224.9841	-65.62605	1.23313E-006	5.874238E-005	9
	41	107	23.91582	101.5619	-250.9625	1	270.7342	-67.96733	1.180999E-006	6.011891E-005	9
	42	109	18.60119	113.3784	-313.4366	1	333.3125	-70.11359	1.133617E-006	6.518137E-005	9
	43	111	15.02404	125.5539	-378.3219	1	398.6117	-71.64051	1.246133E-006	6.067639E-005	9
	44	114	12.01923	140.144	-458.8444	1	479.7692	-73.01585	3.573242E-007	0.0006461	8
	45	116	9.450605	159.8082	-567.6264	1	589.6935	-74.27609	3.262034E-007	0.0006333	8
	46	119	7.512019	182.7854	-696.0013	1	719.6029	-75.28515	3.453918E-007	0.0006421	8
	47	121	5.978954	210.6434	-852.4836	1	878.1224	-76.12058	3.6522E-007	0.0006349	8
	48	124	4.734848	246.2796	-1050.903	1	1079.375	-76.81072	2.929131E-007	0.0006333	8
	49	128	3.75601	290.6423	-1292.763	1	1325.031	-77.32929	3.579087E-007	0.0006456	8
	50	131	3.004808	344.6489	-1577.88	1	1615.081	-77.67867	3.038263E-007	0.0006593	8
	51	135	2.372217	420.9142	-1946.644	1	1991.63	-77.79902	3.155936E-007	0.0006134	8
	52	139	1.878005	518.265	-2404.084	1	2459.313	-77.83453	3.55665E-007	0.000624	8
	53	144	1.512097	632.6846	-2915.506	1	2983.364	-77.75626	3.352508E-007	0.0007341	8
	54	149	1.201923	797.1099	-3573.552	1	3661.374	-77.42556	3.557118E-007	0.000625	8
	55	155	0.956633	1006.651	-4372.36	1	4486.745	-77.03468	-2.521347E-008	-2.687767E-005	7
