EXPLAIN
TAG	EISPOT
TITLE	LABEL	Potentiostatic EIS	Test Identifier
DATE	LABEL	9/21/2020	Date
TIME	LABEL	23:54:32	Time
NOTES	NOTES	1	Notes...
	
PSTAT	PSTAT	REF3000-16137	Potentiostat
VDC	POTEN	0.00000E+000	T	DC Voltage (V)
FREQINIT	QUANT	3.00000E+005	Initial Freq. (Hz)
FREQFINAL	QUANT	1.00000E+000	Final Freq. (Hz)
PTSPERDEC	QUANT	1.00000E+001	Points/decade
VAC	QUANT	5.00000E+001	AC Voltage (mV rms)
AREA	QUANT	1.00000E+000	Sample Area (cm^2)
SPEED	SELECTOR	2	Optimize for:
ZGUESS	QUANT	1.00000E+003	Estimated Z (ohms)
EOC	QUANT	0	Open Circuit (V)
SEQUENCER	TOGGLE	TRUE	Run as Sequence
PSTATMODEL	IQUANT	5	Pstat Model
PSTATSECTION	LABEL	REF3000-16137	Pstat Section
PSTATSERIALNO	LABEL	16137	Pstat Serial Number
CTRLMODE	IQUANT	1	Control Mode
IESTAB	IQUANT	0	I/E Stability
CASPEED	IQUANT	1	Control Amp Speed
CONVENTION	IQUANT	1	Current Convention
ICHRANGE	IQUANT	2	Ich Range
ICHRANGEMODE	TOGGLE	F	Ich Auto Range
ICHOFFSETENABLE	TOGGLE	T	Ich Offset Enable
ICHOFFSET	QUANT	0	Ich Offset (V)
ICHFILTER	IQUANT	3	Ich Filter
VCHRANGE	IQUANT	2	Vch Range
VCHRANGEMODE	TOGGLE	F	Vch Auto Range
VCHOFFSETENABLE	TOGGLE	T	Vch Offset Enable
VCHOFFSET	QUANT	0	Vch Offset (V)
VCHFILTER	IQUANT	3	Vch Filter
ACHRANGE	IQUANT	2	Ach Range
ACHOFFSETENABLE	TOGGLE	F	Ach Offset Enable
ACHOFFSET	QUANT	0	Ach Offset (V)
ACHFILTER	IQUANT	3	Ach Filter
IERANGELOWERLIMIT	IQUANT	2	I/E Range Lower Limit
IERANGEMODE	TOGGLE	F	I/E AutoRange
IERANGE	IQUANT	11	I/E Range
POSFEEDENABLE	TOGGLE	F	Positive Feedback IR Comp
POSFEEDRESISTANCE	QUANT	0	Positive Feedback Resistance (ohm)
ACHSELECT	IQUANT	0	Ach Select
CABLEID	IQUANT	13	Cable ID
DCCALDATE	LABEL	7/31/2020	DC Calibration Date
ACCALDATE	LABEL	7/31/2020	AC Calibration Date
THERMOSELECT	IQUANT	1	Thermo Select
FRAMEWORKVERSION	QUANT	6.33	Framework Version
INSTRUMENTVERSION	LABEL	3.50	Instrument Version
COMPLIANCEVOLTAGE	IQUANT	0	Compliance Voltage
ZCURVE	TABLE
	Pt	Time	Freq	Zreal	Zimag	Zsig	Zmod	Zphz	Idc	Vdc	IERange
	#	s	Hz	ohm	ohm	V	ohm	°	A	V	#
	0	8	300046.9	7.83236	2.195158	1	8.134162	15.65647	6.880065E-005	-0.0002469	10
	1	11	238359.4	7.802476	1.755044	1	7.997426	12.6768	5.693685E-005	1.472516E-005	10
	2	14	189328.1	7.789753	1.385695	1	7.912042	10.08666	-4.874132E-005	0.0003647	10
	3	17	150421.9	7.79072	1.081571	1	7.865438	7.903749	-2.254829E-005	0.0003683	10
	4	19	119484.4	7.776291	0.8370989	1	7.821217	6.144093	8.673059E-006	0.0004558	10
	5	22	94921.88	7.777326	0.6575333	1	7.805072	4.832574	-2.11996E-005	0.0005935	10
	6	24	75421.88	7.774304	0.4777164	1	7.788968	3.516297	-1.736201E-005	0.0005747	10
	7	27	59859.37	7.778356	0.3218255	1	7.785011	2.369232	1.117275E-005	0.0005533	10
	8	29	47578.12	7.785464	0.1883049	1	7.787741	1.385527	5.423275E-006	0.0005826	10
	9	32	37828.12	7.794909	0.0689432	1	7.795214	0.5067477	-2.398841E-005	0.000676	10
	10	34	30046.88	7.804224	-0.0452489	1	7.804356	-0.3321972	2.503574E-005	0.0006246	10
	11	37	23859.38	7.813826	-0.1587313	1	7.815438	-1.163755	1.983492E-005	0.0006005	10
	12	39	18984.38	7.826687	-0.2775177	1	7.831606	-2.030736	4.306547E-006	0.0006143	10
	13	41	15046.87	7.840034	-0.4104036	1	7.850769	-2.996537	1.124268E-005	0.0006258	10
	14	44	11953.13	7.858649	-0.5589072	1	7.878499	-4.068027	1.564938E-005	0.000627	10
	15	46	9515.62	7.878953	-0.733011	1	7.912978	-5.315159	9.144431E-006	0.0006076	10
	16	48	7546.875	7.904242	-0.9425813	1	7.960245	-6.800411	-1.245543E-005	0.0007098	10
	17	51	5928.309	7.936083	-1.20726	1	8.027384	-8.649682	-2.053209E-005	0.0006854	10
	18	53	4733.456	7.972767	-1.50935	1	8.114379	-10.71999	2.074504E-005	0.0006182	10
	19	55	3796.875	8.016957	-1.869462	1	8.23204	-13.12615	2.05341E-005	0.0006602	10
	20	58	2987.132	8.077011	-2.351228	1	8.412275	-16.23034	-2.688082E-005	0.0006862	10
	21	60	2390.625	8.146582	-2.902244	1	8.64811	-19.60859	-1.977828E-005	0.0006625	10
	22	62	1884.191	8.241854	-3.628512	1	9.005235	-23.7617	-5.705187E-006	0.000681	10
	23	64	1516.544	8.351712	-4.442069	1	9.459549	-28.0074	-4.446726E-006	0.0006254	10
	24	67	1193.986	8.502923	-5.546971	1	10.15227	-33.11884	1.929408E-005	0.0006256	10
	25	69	946.5144	8.694482	-6.876719	1	11.08527	-38.3415	-2.314219E-005	0.000709	10
	26	72	751.7689	8.928376	-8.503471	1	12.32984	-43.60368	-2.582686E-005	0.0006715	10
	27	74	597.4265	9.235271	-10.50189	1	13.98499	-48.67189	1.838962E-005	0.0006519	10
	28	76	477.4305	9.61585	-12.89224	1	16.08336	-53.28207	-3.293352E-006	0.0006632	10
	29	79	376.6741	10.13159	-15.99676	1	18.93529	-57.65177	-3.372333E-006	0.0006569	10
	30	81	298.2954	10.78096	-19.75661	1	22.50673	-61.37919	-3.500863E-006	0.0006615	10
	31	83	237.7717	11.57706	-24.22601	1	26.8501	-64.45792	-6.776762E-006	0.0007101	10
	32	86	189.0121	12.58109	-29.74968	1	32.30058	-67.07658	-2.872448E-006	0.0006708	10
	33	88	150.2404	13.80965	-36.4894	1	39.01516	-69.27053	-3.172953E-006	0.0006593	10
	34	90	119.1737	15.30399	-44.76608	1	47.30976	-71.1262	7.579056E-007	5.726137E-005	9
	35	93	95.0169	17.09096	-54.72169	1	57.32856	-72.65511	7.080793E-007	6.041022E-005	9
	36	95	75.60484	19.27065	-67.03345	1	69.74841	-73.96122	8.243095E-007	5.68456E-005	9
	37	98	54.50582	23.25246	-89.70548	1	92.67011	-75.46825	7.057644E-007	6.545472E-005	9
	38	100	45.95588	25.86224	-104.5005	1	107.6532	-76.09949	8.02592E-007	6.429084E-005	9
	39	103	37.20238	29.74837	-126.2585	1	129.7158	-76.74207	9.140485E-007	6.045473E-005	9
	40	105	30.04808	34.66072	-152.9443	1	156.8226	-77.23113	8.554923E-007	5.65746E-005	9
	41	108	23.91582	41.32639	-187.8085	1	192.3016	-77.5901	8.461822E-007	5.943139E-005	9
	42	110	18.60119	50.79863	-235.2357	1	240.6582	-77.81422	5.883904E-007	7.318911E-005	9
	43	112	15.02404	61.58529	-284.8586	1	291.4398	-77.80064	9.417839E-007	6.630106E-005	9
	44	114	12.01923	76.12457	-347.5944	1	355.8325	-77.64703	9.898401E-007	6.07153E-005	9
	45	117	9.450605	96.5749	-428.384	1	439.135	-77.29562	8.262931E-008	0.0006366	8
	46	119	7.512019	122.9893	-523.9786	1	538.2193	-76.79054	8.7098E-008	0.0006335	8
	47	122	5.978954	157.8489	-638.7114	1	657.9275	-76.11827	1.972645E-007	0.0006347	8
	48	125	4.734848	204.9743	-779.7055	1	806.1979	-75.27097	1.356065E-007	0.0006175	8
	49	128	3.75601	267.7374	-946.3591	1	983.503	-74.20309	3.075098E-007	0.0006562	8
	50	132	3.004808	346.0198	-1135.919	1	1187.452	-73.05839	2.516069E-007	0.0006426	8
	51	136	2.372217	456.8196	-1371.274	1	1445.364	-71.57527	2.225643E-007	0.0005861	8
	52	140	1.878005	596.0197	-1647.047	1	1751.572	-70.10625	2.974062E-007	0.000631	8
	53	144	1.512097	758.2765	-1938.495	1	2081.525	-68.63618	2.377736E-007	0.0007044	8
	54	150	1.201923	984.906	-2293.574	1	2496.101	-66.76036	2.813177E-007	0.0006426	8
	55	156	0.956633	1265.763	-2691.774	1	2974.526	-64.81551	1.003058E-007	-4.601288E-006	8
