EXPLAIN
TAG	EISPOT
TITLE	LABEL	Potentiostatic EIS	Test Identifier
DATE	LABEL	9/22/2020	Date
TIME	LABEL	0:08:21	Time
NOTES	NOTES	1	Notes...
	
PSTAT	PSTAT	REF3000-16137	Potentiostat
VDC	POTEN	0.00000E+000	T	DC Voltage (V)
FREQINIT	QUANT	3.00000E+005	Initial Freq. (Hz)
FREQFINAL	QUANT	1.00000E+000	Final Freq. (Hz)
PTSPERDEC	QUANT	1.00000E+001	Points/decade
VAC	QUANT	5.00000E+001	AC Voltage (mV rms)
AREA	QUANT	1.00000E+000	Sample Area (cm^2)
SPEED	SELECTOR	2	Optimize for:
ZGUESS	QUANT	1.00000E+003	Estimated Z (ohms)
EOC	QUANT	0	Open Circuit (V)
SEQUENCER	TOGGLE	TRUE	Run as Sequence
PSTATMODEL	IQUANT	5	Pstat Model
PSTATSECTION	LABEL	REF3000-16137	Pstat Section
PSTATSERIALNO	LABEL	16137	Pstat Serial Number
CTRLMODE	IQUANT	1	Control Mode
IESTAB	IQUANT	0	I/E Stability
CASPEED	IQUANT	1	Control Amp Speed
CONVENTION	IQUANT	1	Current Convention
ICHRANGE	IQUANT	2	Ich Range
ICHRANGEMODE	TOGGLE	F	Ich Auto Range
ICHOFFSETENABLE	TOGGLE	T	Ich Offset Enable
ICHOFFSET	QUANT	0	Ich Offset (V)
ICHFILTER	IQUANT	3	Ich Filter
VCHRANGE	IQUANT	2	Vch Range
VCHRANGEMODE	TOGGLE	F	Vch Auto Range
VCHOFFSETENABLE	TOGGLE	T	Vch Offset Enable
VCHOFFSET	QUANT	0	Vch Offset (V)
VCHFILTER	IQUANT	3	Vch Filter
ACHRANGE	IQUANT	2	Ach Range
ACHOFFSETENABLE	TOGGLE	F	Ach Offset Enable
ACHOFFSET	QUANT	0	Ach Offset (V)
ACHFILTER	IQUANT	3	Ach Filter
IERANGELOWERLIMIT	IQUANT	2	I/E Range Lower Limit
IERANGEMODE	TOGGLE	F	I/E AutoRange
IERANGE	IQUANT	11	I/E Range
POSFEEDENABLE	TOGGLE	F	Positive Feedback IR Comp
POSFEEDRESISTANCE	QUANT	0	Positive Feedback Resistance (ohm)
ACHSELECT	IQUANT	0	Ach Select
CABLEID	IQUANT	13	Cable ID
DCCALDATE	LABEL	7/31/2020	DC Calibration Date
ACCALDATE	LABEL	7/31/2020	AC Calibration Date
THERMOSELECT	IQUANT	1	Thermo Select
FRAMEWORKVERSION	QUANT	6.33	Framework Version
INSTRUMENTVERSION	LABEL	3.50	Instrument Version
COMPLIANCEVOLTAGE	IQUANT	0	Compliance Voltage
ZCURVE	TABLE
	Pt	Time	Freq	Zreal	Zimag	Zsig	Zmod	Zphz	Idc	Vdc	IERange
	#	s	Hz	ohm	ohm	V	ohm	°	A	V	#
	0	8	300046.9	9.265253	2.172664	1	9.51658	13.19718	5.965836E-005	-0.0001787	10
	1	11	238359.4	9.239709	1.739792	1	9.40208	10.66366	3.999618E-005	0.0001818	10
	2	14	189328.1	9.232812	1.373806	1	9.334461	8.463294	-9.416669E-005	0.0003603	10
	3	16	150421.9	9.219297	1.080457	1	9.282393	6.684298	2.727788E-005	0.0004731	10
	4	19	119484.4	9.220281	0.826753	1	9.257273	5.123826	7.156774E-005	0.0002992	10
	5	22	94921.88	9.221506	0.6475694	1	9.244216	4.016934	2.058488E-005	0.0005394	10
	6	24	75421.88	9.221786	0.4685427	1	9.233682	2.908596	1.299564E-005	0.0005693	10
	7	27	59859.37	9.227865	0.3123741	1	9.23315	1.938789	2.103987E-005	0.0005765	10
	8	29	47578.12	9.238179	0.180272	1	9.239938	1.117916	1.958301E-005	0.0006422	10
	9	32	37828.12	9.248567	0.0597646	1	9.248759	0.3702423	-1.581257E-005	0.0006539	10
	10	34	30046.88	9.259183	-0.0540346	1	9.25934	-0.3343623	-2.515674E-005	0.0006786	10
	11	37	23859.38	9.272355	-0.1687096	1	9.27389	-1.042376	-1.911348E-005	0.0007045	10
	12	39	18984.38	9.285298	-0.2893964	1	9.289807	-1.785169	-1.988685E-005	0.0007271	10
	13	41	15046.87	9.300478	-0.424492	1	9.310161	-2.613278	2.671449E-006	0.0006354	10
	14	44	11953.13	9.319283	-0.5770004	1	9.337128	-3.542928	2.983147E-006	0.0006066	10
	15	46	9515.62	9.342707	-0.7532896	1	9.373026	-4.609708	-1.189378E-005	0.0007163	10
	16	48	7546.875	9.368271	-0.966543	1	9.417999	-5.890477	-1.189688E-005	0.0006503	10
	17	51	5928.309	9.402788	-1.238052	1	9.483944	-7.500908	-2.776593E-005	0.0006832	10
	18	53	4733.456	9.440838	-1.546711	1	9.5667	-9.304225	1.964741E-005	0.0006505	10
	19	55	3796.875	9.484474	-1.913483	1	9.67557	-11.40625	-1.313389E-006	0.0006408	10
	20	58	2987.132	9.54892	-2.405756	1	9.84731	-14.14082	3.164369E-006	0.0006153	10
	21	60	2390.625	9.62123	-2.969437	1	10.06904	-17.152	-2.621219E-005	0.0007075	10
	22	62	1884.191	9.71769	-3.7152	1	10.40366	-20.92251	-2.871043E-005	0.0006882	10
	23	64	1516.544	9.82807	-4.548264	1	10.82948	-24.83389	2.075815E-005	0.0006458	10
	24	67	1193.986	9.98163	-5.682405	1	11.48576	-29.65227	1.845642E-005	0.0006451	10
	25	69	946.5144	10.17577	-7.03782	1	12.37244	-34.66872	-1.799573E-005	0.0006664	10
	26	72	751.7689	10.41389	-8.71409	1	13.57883	-39.92177	-2.467329E-005	0.000672	10
	27	74	597.4265	10.7187	-10.76183	1	15.18906	-45.11504	-5.489698E-006	0.000621	10
	28	76	477.4305	11.0983	-13.21918	1	17.26033	-49.9845	-3.056376E-006	0.0006683	10
	29	79	376.6741	11.61384	-16.4136	1	20.1069	-54.71777	-2.705739E-006	0.0006593	10
	30	81	298.2954	12.26634	-20.28944	1	23.70917	-58.84421	-3.02347E-006	0.0006594	10
	31	83	237.7717	13.07206	-24.90553	1	28.12764	-62.30655	-3.203632E-006	0.0006703	10
	32	86	189.0121	14.09396	-30.60472	1	33.69404	-65.27317	-3.048606E-006	0.0006651	10
	33	88	150.2404	15.35974	-37.56441	1	40.58333	-67.7608	-3.079473E-006	0.0006644	10
	34	90	119.1737	16.90891	-46.10033	1	49.10348	-69.85773	9.725393E-007	6.937087E-005	9
	35	93	95.0169	18.76817	-56.35524	1	59.39829	-71.58053	8.452949E-007	6.46289E-005	9
	36	95	75.60484	21.03492	-69.01374	1	72.14821	-73.04913	6.014355E-007	0.0001078	9
	37	98	54.50582	25.13187	-92.29639	1	95.6569	-74.76792	8.360275E-007	6.170462E-005	9
	38	100	45.95588	27.79646	-107.4714	1	111.0079	-75.49877	8.513372E-007	6.825157E-005	9
	39	103	37.20238	31.73219	-129.7846	1	133.6076	-76.2608	8.345604E-007	6.689046E-005	9
	40	105	30.04808	36.62791	-157.1993	1	161.4101	-76.88393	8.270433E-007	7.300663E-005	9
	41	108	23.91582	43.14988	-192.8468	1	197.6153	-77.38769	9.827334E-007	5.810327E-005	9
	42	110	18.60119	52.56822	-241.7748	1	247.4236	-77.73331	9.246892E-007	6.182172E-005	9
	43	112	15.02404	62.88646	-292.88	1	299.5553	-77.88159	1.054795E-006	6.929557E-005	9
	44	114	12.01923	76.91697	-357.624	1	365.8021	-77.86186	9.582407E-007	6.045458E-005	9
	45	117	9.450605	96.5667	-441.2989	1	451.7409	-77.65688	3.663557E-007	0.0006521	8
	46	119	7.512019	121.6486	-540.7664	1	554.2803	-77.32202	3.525981E-007	0.0006604	8
	47	122	5.978954	155.0113	-660.3738	1	678.323	-76.78996	3.617434E-007	0.0006407	8
	48	125	4.734848	200.6574	-808.0944	1	832.6343	-76.05496	3.781651E-007	0.0006656	8
	49	128	3.75601	260.3312	-984.435	1	1018.276	-75.18737	2.627629E-007	0.0006233	8
	50	132	3.004808	335.3886	-1185.913	1	1232.427	-74.20854	3.037158E-007	0.0006466	8
	51	136	2.372217	441.1648	-1437.343	1	1503.522	-72.93713	3.124451E-007	0.0006932	8
	52	140	1.878005	576.8845	-1735.871	1	1829.219	-71.61673	2.59494E-007	0.0006182	8
	53	144	1.512097	733.9523	-2051.671	1	2179	-70.31615	3.07967E-007	0.0005925	8
	54	150	1.201923	954.996	-2444.903	1	2624.799	-68.66404	2.791154E-007	0.0006181	8
	55	156	0.956633	1230.97	-2889.088	1	3140.401	-66.92233	2.41559E-007	-5.020864E-006	8
