EXPLAIN
TAG	EISPOT
TITLE	LABEL	Potentiostatic EIS	Test Identifier
DATE	LABEL	9/22/2020	Date
TIME	LABEL	4:06:11	Time
NOTES	NOTES	1	Notes...
	
PSTAT	PSTAT	REF3000-16137	Potentiostat
VDC	POTEN	0.00000E+000	T	DC Voltage (V)
FREQINIT	QUANT	3.00000E+005	Initial Freq. (Hz)
FREQFINAL	QUANT	1.00000E+000	Final Freq. (Hz)
PTSPERDEC	QUANT	1.00000E+001	Points/decade
VAC	QUANT	5.00000E+001	AC Voltage (mV rms)
AREA	QUANT	1.00000E+000	Sample Area (cm^2)
SPEED	SELECTOR	2	Optimize for:
ZGUESS	QUANT	1.00000E+003	Estimated Z (ohms)
EOC	QUANT	0	Open Circuit (V)
SEQUENCER	TOGGLE	TRUE	Run as Sequence
PSTATMODEL	IQUANT	5	Pstat Model
PSTATSECTION	LABEL	REF3000-16137	Pstat Section
PSTATSERIALNO	LABEL	16137	Pstat Serial Number
CTRLMODE	IQUANT	1	Control Mode
IESTAB	IQUANT	0	I/E Stability
CASPEED	IQUANT	1	Control Amp Speed
CONVENTION	IQUANT	1	Current Convention
ICHRANGE	IQUANT	2	Ich Range
ICHRANGEMODE	TOGGLE	F	Ich Auto Range
ICHOFFSETENABLE	TOGGLE	T	Ich Offset Enable
ICHOFFSET	QUANT	0	Ich Offset (V)
ICHFILTER	IQUANT	3	Ich Filter
VCHRANGE	IQUANT	2	Vch Range
VCHRANGEMODE	TOGGLE	F	Vch Auto Range
VCHOFFSETENABLE	TOGGLE	T	Vch Offset Enable
VCHOFFSET	QUANT	0	Vch Offset (V)
VCHFILTER	IQUANT	3	Vch Filter
ACHRANGE	IQUANT	2	Ach Range
ACHOFFSETENABLE	TOGGLE	F	Ach Offset Enable
ACHOFFSET	QUANT	0	Ach Offset (V)
ACHFILTER	IQUANT	3	Ach Filter
IERANGELOWERLIMIT	IQUANT	2	I/E Range Lower Limit
IERANGEMODE	TOGGLE	F	I/E AutoRange
IERANGE	IQUANT	11	I/E Range
POSFEEDENABLE	TOGGLE	F	Positive Feedback IR Comp
POSFEEDRESISTANCE	QUANT	0	Positive Feedback Resistance (ohm)
ACHSELECT	IQUANT	0	Ach Select
CABLEID	IQUANT	13	Cable ID
DCCALDATE	LABEL	7/31/2020	DC Calibration Date
ACCALDATE	LABEL	7/31/2020	AC Calibration Date
THERMOSELECT	IQUANT	1	Thermo Select
FRAMEWORKVERSION	QUANT	6.33	Framework Version
INSTRUMENTVERSION	LABEL	3.50	Instrument Version
COMPLIANCEVOLTAGE	IQUANT	0	Compliance Voltage
ZCURVE	TABLE
	Pt	Time	Freq	Zreal	Zimag	Zsig	Zmod	Zphz	Idc	Vdc	IERange
	#	s	Hz	ohm	ohm	V	ohm	°	A	V	#
	0	21	300046.9	666.8289	-4046.868	1	4101.439	-80.64308	6.077132E-006	-0.0021686	9
	1	54	238359.4	843.8918	-4890.232	1	4962.512	-80.20908	-9.391014E-005	0.0021666	9
	2	88	189328.1	1350.33	-5794.288	1	5949.551	-76.88165	-9.057415E-005	0.0021768	9
	3	95	150421.9	1932.209	-6924.203	1	7188.743	-74.40816	8.594324E-005	-0.0024205	9
	4	104	119484.4	2672.722	-8891.583	1	9284.595	-73.26974	-6.0005E-005	0.0005576	9
	5	113	94921.88	4126.223	-10577.17	1	11353.52	-68.68893	1.583993E-005	-0.0091523	8
	6	122	75421.88	5618.616	-12508.98	1	13712.89	-65.81197	-2.38452E-005	0.0052281	8
	7	130	59859.37	7789.344	-14376.7	1	16351.25	-61.55102	-9.825811E-006	-0.0020313	8
	8	139	47578.12	12776.46	-16219.17	1	20647.02	-51.77114	-3.679702E-006	0.0244792	7
	9	145	37828.12	15991.79	-17694.12	1	23849.93	-47.893	3.484813E-007	0.0158126	7
	10	152	30046.88	19748.94	-18733.73	1	27220.83	-43.48883	-6.42345E-006	0.0112989	7
	11	159	23859.38	22292.29	-20457.35	1	30256.4	-42.54221	-9.735864E-006	-0.0020644	8
	12	165	18984.38	27874.3	-18741.73	1	33589.12	-33.91555	3.369107E-007	0.0159058	7
	13	171	15046.87	31031.23	-18880.27	1	36323.57	-31.31751	-1.999734E-006	0.0076197	8
	14	177	11953.13	35101.46	-17071.4	1	39032.62	-25.93572	5.174647E-006	-0.0256019	7
	15	183	9515.62	37693.25	-15367.56	1	40705.56	-22.18075	-2.627942E-005	0.0075599	8
	16	189	7546.875	41459.17	-13030.05	1	43458.54	-17.44723	-2.627877E-005	0.0076153	8
	17	196	5928.309	43244.66	-9876.43	1	44358.14	-12.86485	-1.595961E-005	0.000645	8
	18	203	4733.456	44645.03	-8862.081	1	45516.1	-11.22732	-6.967749E-006	0.0224857	7
	19	209	3796.875	45579.2	-7371.262	1	46171.41	-9.186577	3.443196E-007	0.0157428	7
	20	214	2987.132	47834.05	-2731.294	1	47911.96	-3.268004	-1.525557E-008	0.017044	6
	21	218	2390.625	48072.85	-2177.761	1	48122.15	-2.593798	5.730359E-007	-0.0265748	6
	22	221	1884.191	46934.04	-5120.619	1	47212.54	-6.226484	7.253787E-006	-0.0175568	7
	23	227	1516.544	48541.36	-2909.941	1	48628.5	-3.430643	4.152213E-007	0.0156918	7
	24	232	1193.986	48758.51	-1270.549	1	48775.06	-1.492675	6.98258E-007	-0.0150639	6
	25	237	946.5144	49090.31	-1456.789	1	49111.92	-1.699793	-6.818809E-006	0.0223345	7
	26	240	751.7689	42824.86	-21220.13	1	47793.96	-26.35885	2.550854E-005	-0.0087849	8
	27	245	597.4265	47133.52	-10411.5	1	48269.74	-12.45626	-6.964069E-007	-0.0051984	8
	28	250	477.4305	49740.75	-1263.723	1	49756.8	-1.455354	-8.723799E-008	0.0005929	7
	29	252	376.6741	50077.05	-459.5828	1	50079.16	-0.525818	-1.320273E-008	0.0006012	6
	30	255	298.2954	50206.48	-382.7926	1	50207.95	-0.4368355	-1.304153E-008	0.0006269	6
	31	257	237.7717	50342.5	-347.9634	1	50343.71	-0.3960176	-1.31286E-008	0.0006975	6
	32	259	189.0121	50584.13	-314.0276	1	50585.11	-0.3556891	-1.269041E-008	0.0006196	6
	33	262	150.2404	50676.43	-294.1296	1	50677.29	-0.332545	-1.378228E-008	0.0006819	6
	34	264	119.1737	50782.09	-331.0878	1	50783.17	-0.3735503	-1.366629E-008	0.0006258	6
	35	266	95.0169	51071.22	-312.0406	1	51072.18	-0.3500678	-1.22436E-008	0.0006356	6
	36	269	75.60484	51220.71	-303.4104	1	51221.61	-0.3393927	-1.43448E-008	0.0006909	6
	37	271	54.50582	51415.22	-419.7774	1	51416.93	-0.4677786	-1.440821E-008	0.0006869	6
	38	274	45.95588	51576.95	-394.2302	1	51578.45	-0.4379337	-1.021965E-008	0.0006072	6
	39	276	37.20238	51825.22	-456.9448	1	51827.24	-0.5051658	-9.905547E-009	0.0006963	6
	40	279	30.04808	51939.05	-533.8505	1	51941.79	-0.5888883	-1.826776E-008	0.000667	6
	41	281	23.91582	52174.01	-664.6371	1	52178.24	-0.7298432	-2.0895E-008	0.0006214	6
	42	284	18.60119	52344.78	-779.7386	1	52350.59	-0.8534266	-1.77749E-008	0.0006005	6
	43	286	15.02404	52490.37	-931.7844	1	52498.64	-1.016981	-1.567893E-008	0.0006916	6
	44	288	12.01923	52715.66	-1107.793	1	52727.3	-1.203864	-2.645955E-008	0.0006078	6
	45	291	9.450605	52927.02	-1371.653	1	52944.79	-1.484541	-2.922209E-008	0.0006993	6
	46	293	7.512019	53135.84	-1720.638	1	53163.7	-1.854696	-3.294509E-008	0.000653	6
	47	296	5.978954	53423.51	-2138.082	1	53466.27	-2.291833	-3.030935E-008	0.0006535	6
	48	299	4.734848	53768.79	-2569.038	1	53830.13	-2.735475	-8.912724E-009	0.0006642	6
	49	302	3.75601	54169.41	-3207.57	1	54264.3	-3.388736	-2.800364E-008	0.0006787	6
	50	306	3.004808	54442.71	-3902.187	1	54582.37	-4.099669	6.978963E-010	0.0005996	6
	51	309	2.372217	55059.9	-4722.5	1	55262.05	-4.902275	-3.019539E-008	0.000638	6
	52	313	1.878005	55515.12	-5800.372	1	55817.32	-5.964778	-2.267355E-008	0.0006617	6
	53	318	1.512097	56011.31	-7177.951	1	56469.37	-7.302754	-5.207387E-009	0.0005505	6
	54	324	1.201923	56888.21	-8756.997	1	57558.26	-8.751047	-2.36992E-008	0.000661	6
	55	330	0.956633	57809.54	-10827.47	1	58814.77	-10.60834	-2.884242E-008	1.298654E-005	6
