EXPLAIN
TAG	EISPOT
TITLE	LABEL	Potentiostatic EIS	Test Identifier
DATE	LABEL	9/22/2020	Date
TIME	LABEL	0:13:52	Time
NOTES	NOTES	1	Notes...
	
PSTAT	PSTAT	REF3000-16137	Potentiostat
VDC	POTEN	0.00000E+000	T	DC Voltage (V)
FREQINIT	QUANT	3.00000E+005	Initial Freq. (Hz)
FREQFINAL	QUANT	1.00000E+000	Final Freq. (Hz)
PTSPERDEC	QUANT	1.00000E+001	Points/decade
VAC	QUANT	5.00000E+001	AC Voltage (mV rms)
AREA	QUANT	1.00000E+000	Sample Area (cm^2)
SPEED	SELECTOR	2	Optimize for:
ZGUESS	QUANT	1.00000E+003	Estimated Z (ohms)
EOC	QUANT	0	Open Circuit (V)
SEQUENCER	TOGGLE	TRUE	Run as Sequence
PSTATMODEL	IQUANT	5	Pstat Model
PSTATSECTION	LABEL	REF3000-16137	Pstat Section
PSTATSERIALNO	LABEL	16137	Pstat Serial Number
CTRLMODE	IQUANT	1	Control Mode
IESTAB	IQUANT	0	I/E Stability
CASPEED	IQUANT	1	Control Amp Speed
CONVENTION	IQUANT	1	Current Convention
ICHRANGE	IQUANT	2	Ich Range
ICHRANGEMODE	TOGGLE	F	Ich Auto Range
ICHOFFSETENABLE	TOGGLE	T	Ich Offset Enable
ICHOFFSET	QUANT	0	Ich Offset (V)
ICHFILTER	IQUANT	3	Ich Filter
VCHRANGE	IQUANT	2	Vch Range
VCHRANGEMODE	TOGGLE	F	Vch Auto Range
VCHOFFSETENABLE	TOGGLE	T	Vch Offset Enable
VCHOFFSET	QUANT	0	Vch Offset (V)
VCHFILTER	IQUANT	3	Vch Filter
ACHRANGE	IQUANT	2	Ach Range
ACHOFFSETENABLE	TOGGLE	F	Ach Offset Enable
ACHOFFSET	QUANT	0	Ach Offset (V)
ACHFILTER	IQUANT	3	Ach Filter
IERANGELOWERLIMIT	IQUANT	2	I/E Range Lower Limit
IERANGEMODE	TOGGLE	F	I/E AutoRange
IERANGE	IQUANT	11	I/E Range
POSFEEDENABLE	TOGGLE	F	Positive Feedback IR Comp
POSFEEDRESISTANCE	QUANT	0	Positive Feedback Resistance (ohm)
ACHSELECT	IQUANT	0	Ach Select
CABLEID	IQUANT	13	Cable ID
DCCALDATE	LABEL	7/31/2020	DC Calibration Date
ACCALDATE	LABEL	7/31/2020	AC Calibration Date
THERMOSELECT	IQUANT	1	Thermo Select
FRAMEWORKVERSION	QUANT	6.33	Framework Version
INSTRUMENTVERSION	LABEL	3.50	Instrument Version
COMPLIANCEVOLTAGE	IQUANT	0	Compliance Voltage
ZCURVE	TABLE
	Pt	Time	Freq	Zreal	Zimag	Zsig	Zmod	Zphz	Idc	Vdc	IERange
	#	s	Hz	ohm	ohm	V	ohm	°	A	V	#
	0	8	300046.9	9.94797	2.177646	1	10.18353	12.34748	1.085637E-005	0.0002573	10
	1	11	238359.4	9.94063	1.728099	1	10.08972	9.86185	1.952862E-005	0.0001177	10
	2	15	189328.1	9.93224	1.367338	1	10.02592	7.838447	-3.02195E-005	0.0002752	10
	3	17	150421.9	9.93249	1.063142	1	9.98923	6.109494	-2.733182E-005	0.0004203	10
	4	20	119484.4	9.92052	0.822178	1	9.95453	4.737648	5.846261E-005	0.00051	10
	5	22	94921.88	9.92347	0.6441739	1	9.94436	3.714096	1.924315E-005	0.0005427	10
	6	25	75421.88	9.92468	0.4634179	1	9.93549	2.673398	3.90885E-006	0.0005503	10
	7	27	59859.37	9.93057	0.3078374	1	9.93534	1.775542	1.92904E-005	0.0005926	10
	8	30	47578.12	9.94256	0.1759155	1	9.94412	1.013638	-2.207834E-006	0.0006814	10
	9	32	37828.12	9.95274	0.0574174	1	9.9529	0.330536	-7.100438E-006	0.0006954	10
	10	35	30046.88	9.96422	-0.057949	1	9.96439	-0.3332119	-1.15118E-005	0.0006463	10
	11	37	23859.38	9.97654	-0.1735293	1	9.97805	-0.996487	-1.745665E-005	0.0007033	10
	12	40	18984.38	9.99195	-0.2941813	1	9.99628	-1.686406	-1.528417E-005	0.0006636	10
	13	42	15046.87	10.00778	-0.4306821	1	10.01704	-2.464188	-2.721754E-005	0.0007067	10
	14	44	11953.13	10.02745	-0.5834614	1	10.04441	-3.330081	-2.295306E-005	0.0007382	10
	15	47	9515.62	10.05007	-0.7617458	1	10.07889	-4.334452	-8.139433E-006	0.000646	10
	16	49	7546.875	10.07762	-0.97837	1	10.125	-5.545097	1.593595E-005	0.0006161	10
	17	51	5928.309	10.11314	-1.251215	1	10.19025	-7.052888	2.17722E-005	0.0006435	10
	18	53	4733.456	10.15268	-1.562184	1	10.27216	-8.747453	-2.735194E-005	0.0006791	10
	19	56	3796.875	10.19858	-1.934064	1	10.38034	-10.73809	1.136993E-005	0.0006351	10
	20	58	2987.132	10.26309	-2.429935	1	10.54682	-13.32032	-1.318203E-005	0.000642	10
	21	60	2390.625	10.33619	-2.997378	1	10.76202	-16.17156	2.976026E-006	0.0006142	10
	22	63	1884.191	10.43339	-3.749406	1	11.08664	-19.76672	-1.78598E-005	0.0006563	10
	23	65	1516.544	10.54554	-4.593146	1	11.50241	-23.5357	-1.819572E-005	0.0006604	10
	24	67	1193.986	10.69856	-5.738543	1	12.14043	-28.20842	-6.030319E-006	0.0006854	10
	25	70	946.5144	10.8892	-7.119073	1	13.00984	-33.1756	-1.949248E-005	0.0006479	10
	26	72	751.7689	11.13343	-8.804069	1	14.19383	-38.33617	-5.451761E-006	0.0006869	10
	27	74	597.4265	11.43481	-10.87142	1	15.77792	-43.55319	2.204244E-005	0.0006422	10
	28	77	477.4305	11.8185	-13.35529	1	17.8337	-48.49341	-2.640609E-006	0.0006627	10
	29	79	376.6741	12.3333	-16.58699	1	20.66975	-53.36725	-3.072035E-006	0.000663	10
	30	81	298.2954	12.98522	-20.51006	1	24.27506	-57.6615	-3.589394E-006	0.0006585	10
	31	84	237.7717	13.79393	-25.18542	1	28.71546	-61.29069	-3.676246E-006	0.0006631	10
	32	86	189.0121	14.82138	-30.96023	1	34.32505	-64.41848	-2.775685E-006	0.0006636	10
	33	88	150.2404	16.10112	-38.01385	1	41.28316	-67.04446	-3.134615E-006	0.0006584	10
	34	91	119.1737	17.6709	-46.66189	1	49.89582	-69.25828	9.655068E-007	6.150934E-005	9
	35	93	95.0169	19.56012	-57.04736	1	60.30754	-71.07443	8.498093E-007	6.013105E-005	9
	36	96	75.60484	21.86494	-69.85696	1	73.19884	-72.62009	8.638329E-007	5.882993E-005	9
	37	98	54.50582	26.02358	-93.40464	1	96.9621	-74.43156	8.471603E-007	5.688105E-005	9
	38	101	45.95588	28.71407	-108.7387	1	112.466	-75.20785	8.625076E-007	6.254099E-005	9
	39	103	37.20238	32.66704	-131.3138	1	135.3161	-76.03006	5.99328E-007	0.0001046	9
	40	105	30.04808	37.5658	-158.9805	1	163.3585	-76.70532	8.582907E-007	6.272682E-005	9
	41	108	23.91582	44.16153	-195.1502	1	200.0846	-77.24901	8.743035E-007	6.063445E-005	9
	42	110	18.60119	53.42884	-244.4647	1	250.2352	-77.67161	7.571268E-007	6.186151E-005	9
	43	113	15.02404	63.72777	-296.2824	1	303.0586	-77.86112	8.481456E-007	5.527262E-005	9
	44	115	12.01923	77.56665	-361.7829	1	370.0047	-77.89893	1.090716E-006	6.20824E-005	9
	45	117	9.450605	96.7362	-446.6993	1	457.0538	-77.78083	3.74529E-007	0.0006299	8
	46	120	7.512019	121.7416	-547.7624	1	561.128	-77.46954	4.040131E-007	0.0006411	8
	47	123	5.978954	154.2274	-669.1708	1	686.7136	-77.02137	4.057329E-007	0.0006416	8
	48	126	4.734848	199.137	-820.1021	1	843.933	-76.3516	3.625975E-007	0.0006572	8
	49	129	3.75601	257.7541	-1000.114	1	1032.795	-75.54797	3.410316E-007	0.0006342	8
	50	132	3.004808	331.5915	-1206.762	1	1251.49	-74.63558	3.069345E-007	0.0006806	8
	51	136	2.372217	435.1602	-1467.376	1	1530.542	-73.48193	3.477751E-007	0.0007081	8
	52	140	1.878005	569.4923	-1770.476	1	1859.813	-72.16906	3.168544E-007	0.0006223	8
	53	145	1.512097	729.6004	-2096.372	1	2219.706	-70.81057	3.333764E-007	0.0007306	8
	54	150	1.201923	944.3605	-2503.811	1	2675.983	-69.33507	3.67273E-007	0.0006099	8
	55	157	0.956633	1215.255	-2969.116	1	3208.192	-67.74078	2.470975E-007	-2.089191E-006	8
