EXPLAIN
TAG	EISPOT
TITLE	LABEL	Potentiostatic EIS	Test Identifier
DATE	LABEL	9/21/2020	Date
TIME	LABEL	23:35:04	Time
NOTES	NOTES	1	Notes...
	
PSTAT	PSTAT	REF3000-16137	Potentiostat
VDC	POTEN	0.00000E+000	T	DC Voltage (V)
FREQINIT	QUANT	3.00000E+005	Initial Freq. (Hz)
FREQFINAL	QUANT	1.00000E+000	Final Freq. (Hz)
PTSPERDEC	QUANT	1.00000E+001	Points/decade
VAC	QUANT	5.00000E+001	AC Voltage (mV rms)
AREA	QUANT	1.00000E+000	Sample Area (cm^2)
SPEED	SELECTOR	2	Optimize for:
ZGUESS	QUANT	1.00000E+003	Estimated Z (ohms)
EOC	QUANT	0	Open Circuit (V)
SEQUENCER	TOGGLE	TRUE	Run as Sequence
PSTATMODEL	IQUANT	5	Pstat Model
PSTATSECTION	LABEL	REF3000-16137	Pstat Section
PSTATSERIALNO	LABEL	16137	Pstat Serial Number
CTRLMODE	IQUANT	1	Control Mode
IESTAB	IQUANT	0	I/E Stability
CASPEED	IQUANT	1	Control Amp Speed
CONVENTION	IQUANT	1	Current Convention
ICHRANGE	IQUANT	2	Ich Range
ICHRANGEMODE	TOGGLE	F	Ich Auto Range
ICHOFFSETENABLE	TOGGLE	T	Ich Offset Enable
ICHOFFSET	QUANT	0	Ich Offset (V)
ICHFILTER	IQUANT	3	Ich Filter
VCHRANGE	IQUANT	2	Vch Range
VCHRANGEMODE	TOGGLE	F	Vch Auto Range
VCHOFFSETENABLE	TOGGLE	T	Vch Offset Enable
VCHOFFSET	QUANT	0	Vch Offset (V)
VCHFILTER	IQUANT	3	Vch Filter
ACHRANGE	IQUANT	2	Ach Range
ACHOFFSETENABLE	TOGGLE	F	Ach Offset Enable
ACHOFFSET	QUANT	0	Ach Offset (V)
ACHFILTER	IQUANT	3	Ach Filter
IERANGELOWERLIMIT	IQUANT	2	I/E Range Lower Limit
IERANGEMODE	TOGGLE	F	I/E AutoRange
IERANGE	IQUANT	11	I/E Range
POSFEEDENABLE	TOGGLE	F	Positive Feedback IR Comp
POSFEEDRESISTANCE	QUANT	0	Positive Feedback Resistance (ohm)
ACHSELECT	IQUANT	0	Ach Select
CABLEID	IQUANT	13	Cable ID
DCCALDATE	LABEL	7/31/2020	DC Calibration Date
ACCALDATE	LABEL	7/31/2020	AC Calibration Date
THERMOSELECT	IQUANT	1	Thermo Select
FRAMEWORKVERSION	QUANT	6.33	Framework Version
INSTRUMENTVERSION	LABEL	3.50	Instrument Version
COMPLIANCEVOLTAGE	IQUANT	0	Compliance Voltage
ZCURVE	TABLE
	Pt	Time	Freq	Zreal	Zimag	Zsig	Zmod	Zphz	Idc	Vdc	IERange
	#	s	Hz	ohm	ohm	V	ohm	°	A	V	#
	0	11	300046.9	6.332807	2.228458	1	6.713454	19.38651	-7.1821E-006	0.0002514	10
	1	14	238359.4	6.314536	1.772544	1	6.558603	15.67988	2.330617E-005	5.101855E-005	10
	2	17	189328.1	6.297677	1.397786	1	6.450933	12.51408	2.339563E-005	0.0002921	10
	3	19	150421.9	6.300668	1.094286	1	6.394989	9.85272	-2.469298E-005	0.0003276	10
	4	22	119484.4	6.285667	0.8473752	1	6.342528	7.677795	-8.589583E-005	0.0005674	10
	5	25	94921.88	6.286674	0.664445	1	6.32169	6.033251	-1.364468E-005	0.000549	10
	6	27	75421.88	6.283408	0.4864319	1	6.302208	4.426741	2.028767E-005	0.0005639	10
	7	30	59859.37	6.28465	0.3329837	1	6.293465	3.032903	-2.958635E-005	0.0005934	10
	8	32	47578.12	6.290186	0.1995914	1	6.293352	1.81742	-2.148976E-005	0.0006614	10
	9	35	37828.12	6.295358	0.0790389	1	6.295855	0.7193164	1.935063E-005	0.0006024	10
	10	37	30046.88	6.305152	-0.0333655	1	6.30524	-0.3031945	-1.550398E-005	0.0006527	10
	11	40	23859.38	6.313216	-0.146015	1	6.314904	-1.324927	1.921081E-005	0.0006235	10
	12	42	18984.38	6.324646	-0.2621582	1	6.330076	-2.373566	2.123254E-005	0.0006371	10
	13	44	15046.87	6.337615	-0.3926672	1	6.349767	-3.545411	2.302046E-006	0.0006053	10
	14	47	11953.13	6.352862	-0.53747	1	6.375557	-4.835869	1.763751E-005	0.0006522	10
	15	49	9515.62	6.370908	-0.7063029	1	6.40994	-6.326193	1.724763E-006	0.0006357	10
	16	51	7546.875	6.395302	-0.9097519	1	6.459686	-8.096186	-3.182878E-005	0.000658	10
	17	54	5928.309	6.425224	-1.166919	1	6.53033	-10.2936	-4.638815E-006	0.000636	10
	18	56	4733.456	6.459691	-1.459791	1	6.622582	-12.73407	1.945687E-005	0.000644	10
	19	58	3796.875	6.502999	-1.807435	1	6.749505	-15.53267	-1.04571E-005	0.0006634	10
	20	61	2987.132	6.560607	-2.27534	1	6.943971	-19.12749	2.001934E-005	0.000646	10
	21	63	2390.625	6.628432	-2.809413	1	7.19923	-22.96931	-1.944072E-005	0.0006627	10
	22	65	1884.191	6.722143	-3.51095	1	7.583797	-27.57789	2.079892E-005	0.0006367	10
	23	67	1516.544	6.829911	-4.298254	1	8.069862	-32.18336	1.851251E-006	0.0006162	10
	24	70	1193.986	6.980554	-5.365366	1	8.804276	-37.54646	9.51586E-006	0.0006143	10
	25	72	946.5144	7.164445	-6.653481	1	9.77743	-42.88226	-2.047044E-005	0.0006501	10
	26	75	751.7689	7.402522	-8.22039	1	11.06219	-47.99673	-1.672952E-005	0.0006771	10
	27	77	597.4265	7.714347	-10.14213	1	12.74261	-52.74252	1.604233E-006	0.0006217	10
	28	79	477.4305	8.090978	-12.44309	1	14.84231	-56.96651	-3.140541E-006	0.0006681	10
	29	82	376.6741	8.60436	-15.42136	1	17.65937	-60.84064	-3.3402E-006	0.0006619	10
	30	84	298.2954	9.244308	-19.02291	1	21.15014	-64.08227	-3.723901E-006	0.0006714	10
	31	86	237.7717	10.0191	-23.30049	1	25.36326	-66.73252	-6.857669E-006	0.0007055	10
	32	89	189.0121	10.9824	-28.58459	1	30.62175	-68.98286	-4.002915E-006	0.0006643	10
	33	91	150.2404	12.15293	-35.04454	1	37.09196	-70.87421	-3.864237E-006	0.0006668	10
	34	93	119.1737	13.56898	-42.98795	1	45.07861	-72.4819	5.569442E-007	6.23494E-005	9
	35	96	95.0169	15.26582	-52.56896	1	54.74067	-73.80691	5.785112E-007	6.625259E-005	9
	36	98	75.60484	17.34922	-64.43446	1	66.72927	-74.93028	4.990985E-007	6.079087E-005	9
	37	101	54.50582	21.21241	-86.31473	1	88.88306	-76.19282	9.399963E-008	0.0001032	9
	38	103	45.95588	23.77623	-100.5829	1	103.3549	-76.7003	6.461198E-007	6.516575E-005	9
	39	106	37.20238	27.65086	-121.5998	1	124.704	-77.18922	3.400696E-007	0.0001054	9
	40	108	30.04808	32.60315	-147.3148	1	150.8795	-77.52067	4.854686E-007	5.984958E-005	9
	41	111	23.91582	39.33518	-180.7641	1	184.9943	-77.72353	4.933981E-007	5.47438E-005	9
	42	113	18.60119	49.26955	-226.4285	1	231.7269	-77.72412	8.164969E-007	6.584535E-005	9
	43	115	15.02404	60.35843	-273.9097	1	280.4811	-77.57297	5.058457E-007	6.977756E-005	9
	44	117	12.01923	75.74607	-333.864	1	342.3488	-77.21729	6.858806E-007	7.029814E-005	9
	45	120	9.450605	97.7773	-412.2078	1	423.6457	-76.65584	7.751584E-007	6.430232E-005	9
	46	122	7.512019	125.4639	-500.8233	1	516.2995	-75.93597	1.515591E-007	0.0006539	8
	47	125	5.978954	162.1694	-608.3486	1	629.5927	-75.07358	1.278447E-007	0.0006421	8
	48	128	4.734848	212.416	-739.4437	1	769.3488	-73.97251	1.239064E-007	0.0006703	8
	49	131	3.75601	277.6116	-893.5756	1	935.7059	-72.74129	-3.998829E-008	0.0006343	8
	50	135	3.004808	358.908	-1066.778	1	1125.535	-71.40494	-1.054401E-008	0.00065	8
	51	139	2.372217	472.4454	-1279.052	1	1363.517	-69.72721	-1.226455E-009	0.0006832	8
	52	143	1.878005	616.0659	-1526.028	1	1645.691	-68.01581	-8.239886E-008	0.0006309	8
	53	147	1.512097	782.5659	-1782.861	1	1947.05	-66.30149	1.44614E-010	0.0005673	8
	54	153	1.201923	1011.119	-2089.168	1	2320.988	-64.17386	-3.24145E-008	0.0006344	8
	55	159	0.956633	1293.35	-2423.014	1	2746.589	-61.90771	-7.23916E-008	-1.547916E-005	8
