EXPLAIN
TAG	EISPOT
TITLE	LABEL	Potentiostatic EIS	Test Identifier
DATE	LABEL	9/22/2020	Date
TIME	LABEL	0:24:57	Time
NOTES	NOTES	1	Notes...
	
PSTAT	PSTAT	REF3000-16137	Potentiostat
VDC	POTEN	0.00000E+000	T	DC Voltage (V)
FREQINIT	QUANT	3.00000E+005	Initial Freq. (Hz)
FREQFINAL	QUANT	1.00000E+000	Final Freq. (Hz)
PTSPERDEC	QUANT	1.00000E+001	Points/decade
VAC	QUANT	5.00000E+001	AC Voltage (mV rms)
AREA	QUANT	1.00000E+000	Sample Area (cm^2)
SPEED	SELECTOR	2	Optimize for:
ZGUESS	QUANT	1.00000E+003	Estimated Z (ohms)
EOC	QUANT	0	Open Circuit (V)
SEQUENCER	TOGGLE	TRUE	Run as Sequence
PSTATMODEL	IQUANT	5	Pstat Model
PSTATSECTION	LABEL	REF3000-16137	Pstat Section
PSTATSERIALNO	LABEL	16137	Pstat Serial Number
CTRLMODE	IQUANT	1	Control Mode
IESTAB	IQUANT	0	I/E Stability
CASPEED	IQUANT	1	Control Amp Speed
CONVENTION	IQUANT	1	Current Convention
ICHRANGE	IQUANT	2	Ich Range
ICHRANGEMODE	TOGGLE	F	Ich Auto Range
ICHOFFSETENABLE	TOGGLE	T	Ich Offset Enable
ICHOFFSET	QUANT	0	Ich Offset (V)
ICHFILTER	IQUANT	3	Ich Filter
VCHRANGE	IQUANT	2	Vch Range
VCHRANGEMODE	TOGGLE	F	Vch Auto Range
VCHOFFSETENABLE	TOGGLE	T	Vch Offset Enable
VCHOFFSET	QUANT	0	Vch Offset (V)
VCHFILTER	IQUANT	3	Vch Filter
ACHRANGE	IQUANT	2	Ach Range
ACHOFFSETENABLE	TOGGLE	F	Ach Offset Enable
ACHOFFSET	QUANT	0	Ach Offset (V)
ACHFILTER	IQUANT	3	Ach Filter
IERANGELOWERLIMIT	IQUANT	2	I/E Range Lower Limit
IERANGEMODE	TOGGLE	F	I/E AutoRange
IERANGE	IQUANT	11	I/E Range
POSFEEDENABLE	TOGGLE	F	Positive Feedback IR Comp
POSFEEDRESISTANCE	QUANT	0	Positive Feedback Resistance (ohm)
ACHSELECT	IQUANT	0	Ach Select
CABLEID	IQUANT	13	Cable ID
DCCALDATE	LABEL	7/31/2020	DC Calibration Date
ACCALDATE	LABEL	7/31/2020	AC Calibration Date
THERMOSELECT	IQUANT	1	Thermo Select
FRAMEWORKVERSION	QUANT	6.33	Framework Version
INSTRUMENTVERSION	LABEL	3.50	Instrument Version
COMPLIANCEVOLTAGE	IQUANT	0	Compliance Voltage
ZCURVE	TABLE
	Pt	Time	Freq	Zreal	Zimag	Zsig	Zmod	Zphz	Idc	Vdc	IERange
	#	s	Hz	ohm	ohm	V	ohm	°	A	V	#
	0	7	300046.9	11.63538	2.175392	1	11.83699	10.58996	-8.496013E-005	0.0003266	10
	1	11	238359.4	11.60713	1.707921	1	11.73212	8.370667	1.463944E-005	0.0001789	10
	2	14	189328.1	11.60117	1.348383	1	11.67927	6.629639	1.576498E-005	0.0003019	10
	3	16	150421.9	11.60068	1.061757	1	11.64916	5.229451	4.924324E-005	0.0006034	10
	4	19	119484.4	11.59735	0.8118539	1	11.62573	4.004368	1.424653E-005	0.0007173	10
	5	21	94921.88	11.59882	0.6326574	1	11.61607	3.122102	2.351496E-005	0.0006013	10
	6	24	75421.88	11.60306	0.453036	1	11.6119	2.235951	2.0043E-005	0.0006227	10
	7	26	59859.37	11.61198	0.297838	1	11.6158	1.469268	2.221194E-005	0.0005812	10
	8	29	47578.12	11.62607	0.1673121	1	11.62728	0.8244932	-2.302113E-005	0.000618	10
	9	32	37828.12	11.63747	0.0481338	1	11.63757	0.2369801	1.8713E-005	0.0006053	10
	10	34	30046.88	11.65115	-0.0665947	1	11.65134	-0.3274832	8.060357E-006	0.0006759	10
	11	37	23859.38	11.66587	-0.183751	1	11.66732	-0.9024004	1.624602E-005	0.0006666	10
	12	39	18984.38	11.68156	-0.306141	1	11.68557	-1.501219	4.480561E-006	0.0006042	10
	13	41	15046.87	11.7008	-0.4429782	1	11.70918	-2.168115	-1.620213E-005	0.0006683	10
	14	44	11953.13	11.72138	-0.5995708	1	11.7367	-2.928235	-1.748014E-005	0.0006639	10
	15	46	9515.62	11.74711	-0.7810841	1	11.77305	-3.804089	-1.993543E-005	0.0006427	10
	16	48	7546.875	11.77771	-1.001825	1	11.82024	-4.86194	-1.427417E-005	0.0006664	10
	17	51	5928.309	11.81388	-1.278842	1	11.8829	-6.178158	-4.546832E-006	0.0006308	10
	18	53	4733.456	11.8549	-1.596072	1	11.96186	-7.667851	1.928015E-005	0.0006529	10
	19	55	3796.875	11.90538	-1.972274	1	12.06764	-9.406328	-1.796265E-006	0.0006421	10
	20	58	2987.132	11.96991	-2.480445	1	12.22421	-11.70733	2.0341E-005	0.0006234	10
	21	60	2390.625	12.04336	-3.062701	1	12.42669	-14.26822	-3.031972E-005	0.0006764	10
	22	62	1884.191	12.1447	-3.830771	1	12.73454	-17.5067	2.264161E-005	0.0006399	10
	23	64	1516.544	12.26015	-4.688073	1	13.1259	-20.92601	-1.319379E-005	0.0006526	10
	24	67	1193.986	12.41703	-5.855791	1	13.72855	-25.24826	-2.549311E-005	0.0007238	10
	25	69	946.5144	12.61242	-7.261714	1	14.55354	-29.93158	-2.003617E-005	0.0007318	10
	26	72	751.7689	12.85569	-8.98316	1	15.6833	-34.94466	-1.290426E-005	0.0006501	10
	27	74	597.4265	13.1623	-11.10862	1	17.22345	-40.16345	-5.484206E-006	0.0006898	10
	28	76	477.4305	13.54362	-13.64192	1	19.2232	-45.20718	-3.240407E-006	0.0006676	10
	29	79	376.6741	14.05933	-16.94885	1	22.02109	-50.32378	-3.2422E-006	0.0006565	10
	30	81	298.2954	14.71108	-20.96994	1	25.61551	-54.94912	-3.220503E-006	0.0006638	10
	31	83	237.7717	15.52175	-25.76797	1	30.08177	-58.93666	-2.878278E-006	0.0006672	10
	32	86	189.0121	16.56006	-31.70112	1	35.76586	-62.4183	-3.780582E-006	0.0007113	10
	33	88	150.2404	17.83879	-38.90746	1	42.80202	-65.36888	9.318511E-007	5.869663E-005	9
	34	91	119.1737	19.46912	-47.8442	1	51.65379	-67.85725	1.054561E-006	6.58061E-005	9
	35	93	95.0169	21.4222	-58.51279	1	62.31098	-69.89175	9.420451E-007	6.431629E-005	9
	36	96	75.60484	23.8061	-71.6531	1	75.50429	-71.6214	9.120362E-007	6.31111E-005	9
	37	98	54.50582	28.11011	-95.768	1	99.8083	-73.64183	9.573026E-007	6.137265E-005	9
	38	101	45.95588	30.87366	-111.4453	1	115.6427	-74.51569	9.791386E-007	6.225155E-005	9
	39	103	37.20238	34.91951	-134.5125	1	138.9712	-75.44723	9.976338E-007	5.99081E-005	9
	40	105	30.04808	39.87746	-162.8218	1	167.634	-76.2383	9.726043E-007	5.052676E-005	9
	41	108	23.91582	46.42398	-199.6538	1	204.9801	-76.91005	1.071789E-006	6.879063E-005	9
	42	110	18.60119	55.68414	-250.2983	1	256.4176	-77.4576	1.049681E-006	5.967344E-005	9
	43	112	15.02404	65.71824	-303.231	1	310.2708	-77.7716	1.147586E-006	7.752482E-005	9
	44	115	12.01923	79.24894	-370.4907	1	378.8717	-77.92623	1.069754E-006	6.519443E-005	9
	45	117	9.450605	97.8999	-457.6694	1	468.0232	-77.92584	4.566324E-007	0.000632	8
	46	120	7.512019	121.8228	-561.4802	1	574.544	-77.75843	4.314586E-007	0.0006583	8
	47	122	5.978954	153.2605	-687.2975	1	704.178	-77.42928	4.099037E-007	0.0006438	8
	48	125	4.734848	196.4293	-843.5319	1	866.1008	-76.89141	4.239776E-007	0.0006594	8
	49	129	3.75601	252.56	-1031.54	1	1062.008	-76.24246	4.185662E-007	0.00064	8
	50	132	3.004808	323.1882	-1247.413	1	1288.6	-75.4748	3.418168E-007	0.0006762	8
	51	136	2.372217	422.6064	-1518.856	1	1576.553	-74.45131	3.781357E-007	0.0006435	8
	52	140	1.878005	554.5414	-1843.239	1	1924.85	-73.256	4.312471E-007	0.0006219	8
	53	145	1.512097	706.9239	-2194.291	1	2305.353	-72.14287	3.896175E-007	0.00073	8
	54	150	1.201923	919.3047	-2628.169	1	2784.313	-70.72073	4.202816E-007	0.0006267	8
	55	157	0.956633	1183.518	-3129.13	1	3345.47	-69.28209	3.115992E-007	-4.582967E-006	8
