EXPLAIN
TAG	EISPOT
TITLE	LABEL	Potentiostatic EIS	Test Identifier
DATE	LABEL	9/22/2020	Date
TIME	LABEL	1:53:38	Time
NOTES	NOTES	1	Notes...
	
PSTAT	PSTAT	REF3000-16137	Potentiostat
VDC	POTEN	0.00000E+000	T	DC Voltage (V)
FREQINIT	QUANT	3.00000E+005	Initial Freq. (Hz)
FREQFINAL	QUANT	1.00000E+000	Final Freq. (Hz)
PTSPERDEC	QUANT	1.00000E+001	Points/decade
VAC	QUANT	5.00000E+001	AC Voltage (mV rms)
AREA	QUANT	1.00000E+000	Sample Area (cm^2)
SPEED	SELECTOR	2	Optimize for:
ZGUESS	QUANT	1.00000E+003	Estimated Z (ohms)
EOC	QUANT	0	Open Circuit (V)
SEQUENCER	TOGGLE	TRUE	Run as Sequence
PSTATMODEL	IQUANT	5	Pstat Model
PSTATSECTION	LABEL	REF3000-16137	Pstat Section
PSTATSERIALNO	LABEL	16137	Pstat Serial Number
CTRLMODE	IQUANT	1	Control Mode
IESTAB	IQUANT	0	I/E Stability
CASPEED	IQUANT	1	Control Amp Speed
CONVENTION	IQUANT	1	Current Convention
ICHRANGE	IQUANT	2	Ich Range
ICHRANGEMODE	TOGGLE	F	Ich Auto Range
ICHOFFSETENABLE	TOGGLE	T	Ich Offset Enable
ICHOFFSET	QUANT	0	Ich Offset (V)
ICHFILTER	IQUANT	3	Ich Filter
VCHRANGE	IQUANT	2	Vch Range
VCHRANGEMODE	TOGGLE	F	Vch Auto Range
VCHOFFSETENABLE	TOGGLE	T	Vch Offset Enable
VCHOFFSET	QUANT	0	Vch Offset (V)
VCHFILTER	IQUANT	3	Vch Filter
ACHRANGE	IQUANT	2	Ach Range
ACHOFFSETENABLE	TOGGLE	F	Ach Offset Enable
ACHOFFSET	QUANT	0	Ach Offset (V)
ACHFILTER	IQUANT	3	Ach Filter
IERANGELOWERLIMIT	IQUANT	2	I/E Range Lower Limit
IERANGEMODE	TOGGLE	F	I/E AutoRange
IERANGE	IQUANT	11	I/E Range
POSFEEDENABLE	TOGGLE	F	Positive Feedback IR Comp
POSFEEDRESISTANCE	QUANT	0	Positive Feedback Resistance (ohm)
ACHSELECT	IQUANT	0	Ach Select
CABLEID	IQUANT	13	Cable ID
DCCALDATE	LABEL	7/31/2020	DC Calibration Date
ACCALDATE	LABEL	7/31/2020	AC Calibration Date
THERMOSELECT	IQUANT	1	Thermo Select
FRAMEWORKVERSION	QUANT	6.33	Framework Version
INSTRUMENTVERSION	LABEL	3.50	Instrument Version
COMPLIANCEVOLTAGE	IQUANT	0	Compliance Voltage
ZCURVE	TABLE
	Pt	Time	Freq	Zreal	Zimag	Zsig	Zmod	Zphz	Idc	Vdc	IERange
	#	s	Hz	ohm	ohm	V	ohm	°	A	V	#
	0	7	300046.9	70.17587	1.7141	1	70.1968	1.399216	5.858065E-005	-0.0018796	9
	1	10	238359.4	70.39703	1.2851	1	70.40876	1.04582	-3.155218E-005	-0.0005312	9
	2	13	189328.1	70.55228	0.974349	1	70.55901	0.7912225	4.296522E-005	-0.0005705	9
	3	16	150421.9	70.55412	0.8128803	1	70.5588	0.6600969	-6.496738E-005	0.0017381	9
	4	18	119484.4	70.77285	0.5001287	1	70.77462	0.4048839	-7.020953E-005	0.0024812	9
	5	21	94921.88	70.91924	0.5871894	1	70.92167	0.4743805	1.8366E-005	-0.0006811	9
	6	23	75421.88	71.0061	0.3616982	1	71.00702	0.2918566	-1.631196E-005	0.0006268	9
	7	26	59859.37	71.0605	0.1934278	1	71.06077	0.1559597	-1.786233E-005	0.0007902	9
	8	28	47578.12	71.16319	0.0424761	1	71.16321	0.0341989	-1.723829E-005	0.0007014	9
	9	31	37828.12	71.26936	-0.128903	1	71.26947	-0.1036293	-2.338251E-006	-0.0002462	9
	10	33	30046.88	71.36682	-0.2333196	1	71.3672	-0.1873164	2.21805E-005	-0.0004198	9
	11	36	23859.38	71.48492	-0.3450781	1	71.48575	-0.276581	3.573538E-006	0.0004073	9
	12	38	18984.38	71.55436	-0.4985222	1	71.5561	-0.3991756	2.099486E-005	-0.0004281	9
	13	40	15046.87	71.68398	-0.6335303	1	71.68678	-0.5063568	1.696573E-005	-0.0006429	9
	14	43	11953.13	71.73179	-0.7936407	1	71.73618	-0.6338947	-1.530032E-005	0.0003675	9
	15	45	9515.62	71.86072	-1.035432	1	71.86818	-0.8255105	-2.328797E-006	-0.0002337	9
	16	47	7546.875	71.99144	-1.29642	1	72.00311	-1.031669	2.069035E-005	-0.0002355	9
	17	50	5928.309	72.1153	-1.653527	1	72.13425	-1.313501	-9.16621E-006	3.109913E-005	9
	18	52	4733.456	72.20013	-2.000845	1	72.22784	-1.587402	-1.0821E-005	0.000725	9
	19	54	3796.875	72.40192	-2.503862	1	72.44521	-1.980659	8.435247E-006	-0.0005609	9
	20	57	2987.132	72.49378	-3.126684	1	72.56118	-2.469658	2.108469E-005	-0.0003893	9
	21	59	2390.625	72.68007	-3.842375	1	72.78156	-3.026237	2.146155E-006	0.0003845	9
	22	61	1884.191	72.818	-4.749117	1	72.9727	-3.731489	1.716548E-005	-0.0006516	9
	23	64	1516.544	73.08755	-5.862224	1	73.32228	-4.585776	1.696846E-005	-0.0001061	9
	24	66	1193.986	73.33122	-7.29791	1	73.69347	-5.683352	4.245036E-006	-0.0004022	9
	25	68	946.5144	73.64689	-9.046882	1	74.20047	-7.003204	-1.180982E-005	0.0007196	9
	26	71	751.7689	73.91033	-11.17319	1	74.7501	-8.596442	-1.256683E-005	0.0001568	9
	27	73	597.4265	74.36752	-13.83507	1	75.64349	-10.53863	-4.909756E-006	0.0006105	9
	28	75	477.4305	74.86913	-16.98276	1	76.7711	-12.78028	1.233475E-006	6.452165E-005	9
	29	78	376.6741	75.49972	-21.13863	1	78.40312	-15.64134	1.168987E-006	8.242056E-005	9
	30	80	298.2954	76.26968	-26.21039	1	80.64767	-18.96549	1.143033E-006	6.387051E-005	9
	31	82	237.7717	77.20002	-32.29087	1	83.68121	-22.69836	1.154581E-006	6.200043E-005	9
	32	85	189.0121	78.37041	-39.86218	1	87.92562	-26.95962	1.2482E-006	6.856994E-005	9
	33	87	150.2404	79.8282	-49.18171	1	93.76237	-31.63699	1.180468E-006	6.665278E-005	9
	34	90	119.1737	81.6717	-60.76456	1	101.7969	-36.64962	1.214609E-006	6.667525E-005	9
	35	92	95.0169	83.9239	-74.6809	1	112.3408	-41.66475	1.248215E-006	6.269227E-005	9
	36	95	75.60484	86.77352	-91.90954	1	126.4002	-46.64644	1.200919E-006	6.14159E-005	9
	37	97	54.50582	92.14207	-123.5984	1	154.1646	-53.29562	1.193029E-006	6.250579E-005	9
	38	100	45.95588	95.7796	-144.1839	1	173.0974	-56.40438	1.206388E-006	6.608743E-005	9
	39	102	37.20238	101.2049	-174.3471	1	201.592	-59.86572	1.167641E-006	6.955609E-005	9
	40	104	30.04808	108.0198	-211.0952	1	237.1275	-62.90065	1.210279E-006	5.94975E-005	9
	41	107	23.91582	117.0056	-258.751	1	283.9761	-65.66782	1.364443E-006	6.113433E-005	9
	42	109	18.60119	129.3035	-323.2553	1	348.1571	-68.19839	1.337428E-006	5.920475E-005	9
	43	111	15.02404	142.0517	-390.4138	1	415.4535	-70.00613	1.23629E-006	6.334552E-005	9
	44	114	12.01923	157.4963	-473.2045	1	498.726	-71.59105	1.840043E-007	0.0006338	8
	45	116	9.450605	178.1571	-585.0303	1	611.5557	-73.06313	2.278717E-007	0.0006526	8
	46	119	7.512019	201.9456	-716.7506	1	744.6566	-74.26473	2.728328E-007	0.0006578	8
	47	121	5.978954	231.013	-877.2656	1	907.1725	-75.24706	2.415388E-007	0.0006423	8
	48	124	4.734848	266.8581	-1080.32	1	1112.791	-76.12469	3.199506E-007	0.0006686	8
	49	128	3.75601	311.8308	-1328.028	1	1364.147	-76.78591	2.240231E-007	0.0006239	8
	50	131	3.004808	365.7519	-1620.324	1	1661.092	-77.27995	2.75796E-007	0.000639	8
	51	135	2.372217	441.2205	-1999.797	1	2047.893	-77.55801	2.768066E-007	0.0006672	8
	52	139	1.878005	535.8853	-2470.746	1	2528.193	-77.76254	2.426677E-007	0.0006371	8
	53	144	1.512097	643.4311	-2993.337	1	3061.71	-77.86861	2.906978E-007	0.0005955	8
	54	149	1.201923	803.1157	-3679.553	1	3766.179	-77.68747	2.624774E-007	0.0006201	8
	55	156	0.956633	1008.635	-4508.886	1	4620.325	-77.39057	-1.727849E-008	-2.930964E-005	7
