EXPLAIN
TAG	EISPOT
TITLE	LABEL	Potentiostatic EIS	Test Identifier
DATE	LABEL	9/22/2020	Date
TIME	LABEL	1:50:53	Time
NOTES	NOTES	1	Notes...
	
PSTAT	PSTAT	REF3000-16137	Potentiostat
VDC	POTEN	0.00000E+000	T	DC Voltage (V)
FREQINIT	QUANT	3.00000E+005	Initial Freq. (Hz)
FREQFINAL	QUANT	1.00000E+000	Final Freq. (Hz)
PTSPERDEC	QUANT	1.00000E+001	Points/decade
VAC	QUANT	5.00000E+001	AC Voltage (mV rms)
AREA	QUANT	1.00000E+000	Sample Area (cm^2)
SPEED	SELECTOR	2	Optimize for:
ZGUESS	QUANT	1.00000E+003	Estimated Z (ohms)
EOC	QUANT	0	Open Circuit (V)
SEQUENCER	TOGGLE	TRUE	Run as Sequence
PSTATMODEL	IQUANT	5	Pstat Model
PSTATSECTION	LABEL	REF3000-16137	Pstat Section
PSTATSERIALNO	LABEL	16137	Pstat Serial Number
CTRLMODE	IQUANT	1	Control Mode
IESTAB	IQUANT	0	I/E Stability
CASPEED	IQUANT	1	Control Amp Speed
CONVENTION	IQUANT	1	Current Convention
ICHRANGE	IQUANT	2	Ich Range
ICHRANGEMODE	TOGGLE	F	Ich Auto Range
ICHOFFSETENABLE	TOGGLE	T	Ich Offset Enable
ICHOFFSET	QUANT	0	Ich Offset (V)
ICHFILTER	IQUANT	3	Ich Filter
VCHRANGE	IQUANT	2	Vch Range
VCHRANGEMODE	TOGGLE	F	Vch Auto Range
VCHOFFSETENABLE	TOGGLE	T	Vch Offset Enable
VCHOFFSET	QUANT	0	Vch Offset (V)
VCHFILTER	IQUANT	3	Vch Filter
ACHRANGE	IQUANT	2	Ach Range
ACHOFFSETENABLE	TOGGLE	F	Ach Offset Enable
ACHOFFSET	QUANT	0	Ach Offset (V)
ACHFILTER	IQUANT	3	Ach Filter
IERANGELOWERLIMIT	IQUANT	2	I/E Range Lower Limit
IERANGEMODE	TOGGLE	F	I/E AutoRange
IERANGE	IQUANT	11	I/E Range
POSFEEDENABLE	TOGGLE	F	Positive Feedback IR Comp
POSFEEDRESISTANCE	QUANT	0	Positive Feedback Resistance (ohm)
ACHSELECT	IQUANT	0	Ach Select
CABLEID	IQUANT	13	Cable ID
DCCALDATE	LABEL	7/31/2020	DC Calibration Date
ACCALDATE	LABEL	7/31/2020	AC Calibration Date
THERMOSELECT	IQUANT	1	Thermo Select
FRAMEWORKVERSION	QUANT	6.33	Framework Version
INSTRUMENTVERSION	LABEL	3.50	Instrument Version
COMPLIANCEVOLTAGE	IQUANT	0	Compliance Voltage
ZCURVE	TABLE
	Pt	Time	Freq	Zreal	Zimag	Zsig	Zmod	Zphz	Idc	Vdc	IERange
	#	s	Hz	ohm	ohm	V	ohm	°	A	V	#
	0	7	300046.9	65.27136	1.939394	1	65.30017	1.701917	-6.594018E-005	0.0014318	9
	1	10	238359.4	65.32744	1.490867	1	65.34444	1.307346	6.435335E-005	-0.0023097	9
	2	13	189328.1	65.50567	1.161605	1	65.51597	1.015913	3.812355E-005	-0.0006792	9
	3	15	150421.9	65.5307	0.764449	1	65.53516	0.6683542	-1.043117E-005	0.0006487	9
	4	18	119484.4	65.67707	0.587392	1	65.6797	0.5124191	9.067481E-006	-0.0006786	9
	5	20	94921.88	65.80637	0.6294667	1	65.80939	0.5480425	9.531921E-006	4.665334E-005	9
	6	23	75421.88	65.85773	0.4303705	1	65.85914	0.3744141	1.072006E-005	3.002145E-005	9
	7	26	59859.37	65.95824	0.2271414	1	65.95863	0.1973095	1.020097E-005	-0.000629	9
	8	28	47578.12	66.01167	0.0611862	1	66.0117	0.0531074	-4.326054E-006	0.0005768	9
	9	31	37828.12	66.10384	-0.0801073	1	66.10388	-0.0694333	-1.518056E-005	0.0006728	9
	10	33	30046.88	66.21155	-0.2109182	1	66.21188	-0.1825162	-1.838491E-005	0.0005356	9
	11	36	23859.38	66.29739	-0.3304661	1	66.29821	-0.2855943	-1.29716E-005	0.0001849	9
	12	38	18984.38	66.36727	-0.4630654	1	66.36889	-0.3997642	4.863978E-006	-0.0004368	9
	13	40	15046.87	66.44986	-0.6362067	1	66.4529	-0.5485467	-1.890314E-006	-0.0002195	9
	14	43	11953.13	66.54352	-0.8182154	1	66.54855	-0.7044702	1.943264E-005	-0.0006065	9
	15	45	9515.62	66.67158	-1.021327	1	66.6794	-0.8776326	-1.695401E-005	0.0004575	9
	16	47	7546.875	66.78616	-1.296029	1	66.79874	-1.111722	2.323405E-006	0.0003566	9
	17	50	5928.309	66.88607	-1.634318	1	66.90604	-1.399707	-1.784293E-005	0.0005533	9
	18	52	4733.456	66.97932	-2.02494	1	67.00992	-1.731657	2.0562E-005	-0.0005044	9
	19	54	3796.875	67.1631	-2.462491	1	67.20823	-2.099771	-8.412992E-006	-1.132964E-005	9
	20	57	2987.132	67.30364	-3.046971	1	67.37258	-2.592125	-1.326908E-005	0.0001718	9
	21	59	2390.625	67.42889	-3.835551	1	67.53789	-3.255642	1.319072E-005	-4.360305E-005	9
	22	61	1884.191	67.61771	-4.659548	1	67.77807	-3.94203	-1.738523E-005	0.0005686	9
	23	63	1516.544	67.77325	-5.809134	1	68.02176	-4.899091	-1.513822E-005	0.0007435	9
	24	66	1193.986	68.04904	-7.209125	1	68.42985	-6.047366	2.127881E-005	-0.0003944	9
	25	68	946.5144	68.35676	-8.942961	1	68.93927	-7.453546	1.715556E-005	-0.0001094	9
	26	71	751.7689	68.69028	-11.08461	1	69.5789	-9.166842	-2.976554E-006	-0.0002009	9
	27	73	597.4265	69.04768	-13.69934	1	70.39357	-11.22198	-1.856506E-005	0.0005865	9
	28	75	477.4305	69.55408	-16.83593	1	71.56269	-13.60702	1.238684E-006	6.516392E-005	9
	29	78	376.6741	70.17447	-20.95512	1	73.23642	-16.62639	1.1952E-006	5.845398E-005	9
	30	80	298.2954	70.93593	-25.98241	1	75.54463	-20.11677	1.154315E-006	7.688251E-005	9
	31	82	237.7717	71.85546	-32.00859	1	78.6623	-24.01096	1.273659E-006	6.533181E-005	9
	32	85	189.0121	73.01293	-39.50889	1	83.01711	-28.41879	1.295167E-006	6.626533E-005	9
	33	87	150.2404	74.46176	-48.74192	1	88.99623	-33.20836	1.261773E-006	6.245994E-005	9
	34	90	119.1737	76.28716	-60.21527	1	97.1885	-38.28487	1.280718E-006	5.865801E-005	9
	35	92	95.0169	78.52437	-74.00201	1	107.8998	-43.30169	1.264227E-006	6.759723E-005	9
	36	95	75.60484	81.35449	-91.06831	1	122.1147	-48.22448	1.313254E-006	5.875923E-005	9
	37	97	54.50582	86.70258	-122.4535	1	150.0407	-54.6998	1.208651E-006	6.062049E-005	9
	38	100	45.95588	90.32965	-142.8255	1	168.9928	-57.68879	1.272241E-006	7.431422E-005	9
	39	102	37.20238	95.7331	-172.6557	1	197.4204	-60.99277	1.316358E-006	7.113833E-005	9
	40	104	30.04808	102.496	-209.0214	1	232.799	-63.87846	1.18092E-006	6.156781E-005	9
	41	107	23.91582	111.3923	-256.0839	1	279.2619	-66.49174	9.483607E-007	0.0001021	9
	42	109	18.60119	123.5177	-319.9092	1	342.9265	-68.88831	1.186582E-006	7.537641E-005	9
	43	111	15.02404	136.1631	-386.2649	1	409.562	-70.58183	1.257916E-006	7.153558E-005	9
	44	114	12.01923	151.1769	-468.2907	1	492.0881	-72.10851	2.47294E-007	0.0006365	8
	45	116	9.450605	171.6002	-579.0393	1	603.9314	-73.49264	2.654274E-007	0.0006537	8
	46	119	7.512019	194.9794	-709.4731	1	735.7778	-74.63319	2.786198E-007	0.0006588	8
	47	121	5.978954	223.6579	-868.7518	1	897.08	-75.56286	2.673853E-007	0.0006405	8
	48	124	4.734848	259.67	-1069.432	1	1100.506	-76.35207	3.242668E-007	0.000671	8
	49	128	3.75601	304.7334	-1316.102	1	1350.92	-76.96333	2.944454E-007	0.0006476	8
	50	131	3.004808	358.7374	-1606.668	1	1646.23	-77.41343	2.688683E-007	0.0006807	8
	51	135	2.372217	431.2084	-1984.421	1	2030.731	-77.74039	2.892304E-007	0.0006775	8
	52	139	1.878005	529.0799	-2446.949	1	2503.495	-77.79932	2.948967E-007	0.0006143	8
	53	144	1.512097	646.0045	-2967.247	1	3036.754	-77.7177	2.996586E-007	0.0007376	8
	54	149	1.201923	802.1953	-3643.026	1	3730.302	-77.58163	3.207469E-007	0.000627	8
	55	155	0.956633	1006.735	-4463.239	1	4575.371	-77.28899	-2.441785E-008	-2.671471E-005	7
