EXPLAIN
TAG	EISPOT
TITLE	LABEL	Potentiostatic EIS	Test Identifier
DATE	LABEL	9/22/2020	Date
TIME	LABEL	4:17:00	Time
NOTES	NOTES	1	Notes...
	
PSTAT	PSTAT	REF3000-16137	Potentiostat
VDC	POTEN	0.00000E+000	T	DC Voltage (V)
FREQINIT	QUANT	3.00000E+005	Initial Freq. (Hz)
FREQFINAL	QUANT	1.00000E+000	Final Freq. (Hz)
PTSPERDEC	QUANT	1.00000E+001	Points/decade
VAC	QUANT	5.00000E+001	AC Voltage (mV rms)
AREA	QUANT	1.00000E+000	Sample Area (cm^2)
SPEED	SELECTOR	2	Optimize for:
ZGUESS	QUANT	1.00000E+003	Estimated Z (ohms)
EOC	QUANT	0	Open Circuit (V)
SEQUENCER	TOGGLE	TRUE	Run as Sequence
PSTATMODEL	IQUANT	5	Pstat Model
PSTATSECTION	LABEL	REF3000-16137	Pstat Section
PSTATSERIALNO	LABEL	16137	Pstat Serial Number
CTRLMODE	IQUANT	1	Control Mode
IESTAB	IQUANT	0	I/E Stability
CASPEED	IQUANT	1	Control Amp Speed
CONVENTION	IQUANT	1	Current Convention
ICHRANGE	IQUANT	2	Ich Range
ICHRANGEMODE	TOGGLE	F	Ich Auto Range
ICHOFFSETENABLE	TOGGLE	T	Ich Offset Enable
ICHOFFSET	QUANT	0	Ich Offset (V)
ICHFILTER	IQUANT	3	Ich Filter
VCHRANGE	IQUANT	2	Vch Range
VCHRANGEMODE	TOGGLE	F	Vch Auto Range
VCHOFFSETENABLE	TOGGLE	T	Vch Offset Enable
VCHOFFSET	QUANT	0	Vch Offset (V)
VCHFILTER	IQUANT	3	Vch Filter
ACHRANGE	IQUANT	2	Ach Range
ACHOFFSETENABLE	TOGGLE	F	Ach Offset Enable
ACHOFFSET	QUANT	0	Ach Offset (V)
ACHFILTER	IQUANT	3	Ach Filter
IERANGELOWERLIMIT	IQUANT	2	I/E Range Lower Limit
IERANGEMODE	TOGGLE	F	I/E AutoRange
IERANGE	IQUANT	11	I/E Range
POSFEEDENABLE	TOGGLE	F	Positive Feedback IR Comp
POSFEEDRESISTANCE	QUANT	0	Positive Feedback Resistance (ohm)
ACHSELECT	IQUANT	0	Ach Select
CABLEID	IQUANT	13	Cable ID
DCCALDATE	LABEL	7/31/2020	DC Calibration Date
ACCALDATE	LABEL	7/31/2020	AC Calibration Date
THERMOSELECT	IQUANT	1	Thermo Select
FRAMEWORKVERSION	QUANT	6.33	Framework Version
INSTRUMENTVERSION	LABEL	3.50	Instrument Version
COMPLIANCEVOLTAGE	IQUANT	0	Compliance Voltage
ZCURVE	TABLE
	Pt	Time	Freq	Zreal	Zimag	Zsig	Zmod	Zphz	Idc	Vdc	IERange
	#	s	Hz	ohm	ohm	V	ohm	°	A	V	#
	0	14	300046.9	317.57	-4178.89	1	4190.939	-85.65423	9.359535E-005	-0.0027684	9
	1	31	238359.4	597.1769	-5146.77	1	5181.299	-83.3816	8.083308E-005	-0.0036175	9
	2	45	189328.1	872.884	-6120.032	1	6181.967	-81.8828	-4.143764E-007	-0.0019993	9
	3	52	150421.9	1288.617	-7365.775	1	7477.646	-80.07673	-9.083097E-005	0.0022422	9
	4	61	119484.4	1763.752	-9362.511	1	9527.19	-79.3314	-9.115255E-005	0.0043018	9
	5	76	94921.88	2468.102	-11758.45	1	12014.68	-78.14569	1.731845E-005	0.0002594	8
	6	84	75421.88	3504.452	-14636.88	1	15050.56	-76.53535	2.71723E-005	-0.0074851	8
	7	92	59859.37	5290.149	-17839.62	1	18607.46	-73.48283	-2.030967E-005	0.0027951	8
	8	101	47578.12	9752.11	-21954.66	1	24023.13	-66.04955	-3.688861E-006	0.0247474	7
	9	108	37828.12	9465.146	-25724.72	1	27410.77	-69.79943	7.888016E-006	-0.0076552	8
	10	117	30046.88	16549.41	-30797.11	1	34962.05	-61.74779	7.415555E-006	-0.023548	7
	11	124	23859.38	21453.65	-35485.7	1	41466.78	-58.84403	-7.122249E-006	0.0186812	7
	12	130	18984.38	25277.27	-41338.77	1	48454.45	-58.55561	-1.980702E-005	0.0113782	8
	13	136	15046.87	33286.51	-45221.43	1	56151.3	-53.64402	-9.349365E-006	-0.0021871	8
	14	143	11953.13	46183.16	-48629.38	1	67064.91	-46.47794	-2.733977E-005	0.0098567	8
	15	149	9515.62	58122.05	-50183.3	1	76788.91	-40.80774	2.568531E-005	-0.0088785	8
	16	156	7546.875	69176.33	-47008.25	1	83636.95	-34.19777	-1.620483E-005	0.0007913	8
	17	164	5928.309	78832.69	-43764.52	1	90166.1	-29.03715	-3.289931E-006	-0.0050681	7
	18	171	4733.456	86351.24	-36162.84	1	93617.77	-22.72334	6.675699E-006	-0.0263573	7
	19	176	3796.875	94639.41	-37516.07	1	101804.1	-21.62391	7.341313E-006	-0.0179703	7
	20	182	2987.132	110013.8	-42280.66	1	117858.8	-21.02283	-1.190127E-005	0.0102131	8
	21	189	2390.625	106106.1	-25252.16	1	109069.6	-13.38677	-7.074285E-006	0.0229119	7
	22	196	1884.191	101312.3	-20324.16	1	103330.8	-11.34348	-7.048189E-006	0.022929	7
	23	202	1516.544	118882.4	-16684.82	1	120047.5	-7.989122	4.800488E-006	-0.0006166	7
	24	207	1193.986	116098.1	-16040.75	1	117201	-7.866496	-7.159343E-006	0.01841	7
	25	214	946.5144	111709.6	-30351.47	1	115759.4	-15.20031	-8.852995E-007	-0.013414	7
	26	218	751.7689	115265.9	-6656.558	1	115457.9	-3.305138	-6.747876E-009	0.0172672	6
	27	221	597.4265	117579	-6342.434	1	117749.9	-3.087651	5.738281E-007	-0.0067269	6
	28	223	477.4305	118548.1	-5239.953	1	118663.8	-2.530888	-1.190328E-008	0.0006312	6
	29	225	376.6741	119038.5	-4277.207	1	119115.3	-2.057826	-1.139112E-008	0.0006454	6
	30	228	298.2954	119348.5	-3490.875	1	119399.6	-1.67539	-1.128319E-008	0.0006779	6
	31	230	237.7717	120115.4	-2854.193	1	120149.3	-1.361211	-1.128246E-008	0.000608	6
	32	233	189.0121	120518.9	-2386.779	1	120542.6	-1.134548	-1.193853E-008	0.0007002	6
	33	235	150.2404	121103.8	-1925.56	1	121119.1	-0.9109309	-1.10108E-008	0.0006223	6
	34	238	119.1737	121328.1	-2150.167	1	121347.1	-1.015285	-1.031863E-008	0.0006077	6
	35	240	95.0169	122175.2	-1380.002	1	122183	-0.6471439	-1.208129E-008	0.0006907	6
	36	243	75.60484	122466.9	-1277.384	1	122473.6	-0.5975983	-1.182441E-008	0.0006491	6
	37	245	54.50582	123394.2	-1177.682	1	123399.8	-0.5468181	-1.221457E-008	0.0006107	6
	38	248	45.95588	123413.5	-991.821	1	123417.4	-0.4604517	-1.06977E-008	0.0006946	6
	39	250	37.20238	124017.9	-1040.956	1	124022.3	-0.4809064	-1.204365E-008	0.0006985	6
	40	252	30.04808	124437.4	-979.712	1	124441.3	-0.4510877	-1.267303E-008	0.0006947	6
	41	255	23.91582	125063.5	-1094.077	1	125068.3	-0.5012204	-1.036193E-008	0.0006009	6
	42	258	18.60119	125263.6	-1182.845	1	125269.2	-0.5410189	-1.280314E-008	0.0006529	6
	43	260	15.02404	125992.4	-1264.549	1	125998.8	-0.5750415	-1.56058E-008	0.0006435	6
	44	262	12.01923	126403.9	-1467.271	1	126412.5	-0.6650476	-1.025056E-008	0.0006115	6
	45	265	9.450605	127003.4	-1817.79	1	127016.4	-0.8200142	-6.954565E-009	0.0006807	6
	46	268	7.512019	127558.3	-2070.42	1	127575.1	-0.9298956	-7.650934E-009	0.0006441	6
	47	271	5.978954	128357.8	-2488.242	1	128381.9	-1.110551	-6.433162E-009	0.0006108	6
	48	275	4.734848	129191.1	-3037.444	1	129226.8	-1.346847	-1.417302E-008	0.0005905	6
	49	278	3.75601	130153.8	-3677.903	1	130205.8	-1.61864	-5.817515E-009	0.0006171	6
	50	284	3.004808	131424.5	-4441.159	1	131499.5	-1.93543	-9.320582E-009	0.000613	6
	51	290	2.372217	132744.8	-5420.86	1	132855.4	-2.338472	-4.938171E-009	0.0006315	6
	52	294	1.878005	133919.6	-6681.568	1	134086.2	-2.856255	-2.747557E-009	0.0006458	6
	53	299	1.512097	135122.1	-8014.683	1	135359.6	-3.394486	-5.370133E-009	0.0007135	6
	54	304	1.201923	136678.6	-10025.05	1	137045.8	-4.194998	-4.073263E-009	0.0006576	6
	55	311	0.956633	138711.8	-12216.67	1	139248.7	-5.033185	-2.522762E-008	1.904025E-005	6
