EXPLAIN
TAG	EISPOT
TITLE	LABEL	Potentiostatic EIS	Test Identifier
DATE	LABEL	9/22/2020	Date
TIME	LABEL	2:23:56	Time
NOTES	NOTES	1	Notes...
	
PSTAT	PSTAT	REF3000-16137	Potentiostat
VDC	POTEN	0.00000E+000	T	DC Voltage (V)
FREQINIT	QUANT	3.00000E+005	Initial Freq. (Hz)
FREQFINAL	QUANT	1.00000E+000	Final Freq. (Hz)
PTSPERDEC	QUANT	1.00000E+001	Points/decade
VAC	QUANT	5.00000E+001	AC Voltage (mV rms)
AREA	QUANT	1.00000E+000	Sample Area (cm^2)
SPEED	SELECTOR	2	Optimize for:
ZGUESS	QUANT	1.00000E+003	Estimated Z (ohms)
EOC	QUANT	0	Open Circuit (V)
SEQUENCER	TOGGLE	TRUE	Run as Sequence
PSTATMODEL	IQUANT	5	Pstat Model
PSTATSECTION	LABEL	REF3000-16137	Pstat Section
PSTATSERIALNO	LABEL	16137	Pstat Serial Number
CTRLMODE	IQUANT	1	Control Mode
IESTAB	IQUANT	0	I/E Stability
CASPEED	IQUANT	1	Control Amp Speed
CONVENTION	IQUANT	1	Current Convention
ICHRANGE	IQUANT	2	Ich Range
ICHRANGEMODE	TOGGLE	F	Ich Auto Range
ICHOFFSETENABLE	TOGGLE	T	Ich Offset Enable
ICHOFFSET	QUANT	0	Ich Offset (V)
ICHFILTER	IQUANT	3	Ich Filter
VCHRANGE	IQUANT	2	Vch Range
VCHRANGEMODE	TOGGLE	F	Vch Auto Range
VCHOFFSETENABLE	TOGGLE	T	Vch Offset Enable
VCHOFFSET	QUANT	0	Vch Offset (V)
VCHFILTER	IQUANT	3	Vch Filter
ACHRANGE	IQUANT	2	Ach Range
ACHOFFSETENABLE	TOGGLE	F	Ach Offset Enable
ACHOFFSET	QUANT	0	Ach Offset (V)
ACHFILTER	IQUANT	3	Ach Filter
IERANGELOWERLIMIT	IQUANT	2	I/E Range Lower Limit
IERANGEMODE	TOGGLE	F	I/E AutoRange
IERANGE	IQUANT	11	I/E Range
POSFEEDENABLE	TOGGLE	F	Positive Feedback IR Comp
POSFEEDRESISTANCE	QUANT	0	Positive Feedback Resistance (ohm)
ACHSELECT	IQUANT	0	Ach Select
CABLEID	IQUANT	13	Cable ID
DCCALDATE	LABEL	7/31/2020	DC Calibration Date
ACCALDATE	LABEL	7/31/2020	AC Calibration Date
THERMOSELECT	IQUANT	1	Thermo Select
FRAMEWORKVERSION	QUANT	6.33	Framework Version
INSTRUMENTVERSION	LABEL	3.50	Instrument Version
COMPLIANCEVOLTAGE	IQUANT	0	Compliance Voltage
ZCURVE	TABLE
	Pt	Time	Freq	Zreal	Zimag	Zsig	Zmod	Zphz	Idc	Vdc	IERange
	#	s	Hz	ohm	ohm	V	ohm	°	A	V	#
	0	7	300046.9	177.2055	-5.199055	1	177.2818	-1.680526	3.269705E-005	0.0003416	9
	1	10	238359.4	177.8827	-4.350533	1	177.9359	-1.401021	-1.767829E-005	0.0009197	9
	2	13	189328.1	178.888	-3.83514	1	178.9291	-1.228164	-1.390054E-005	0.0011262	9
	3	16	150421.9	178.8798	-3.233523	1	178.909	-1.035595	7.263401E-005	-0.0027563	9
	4	18	119484.4	179.4004	-2.765677	1	179.4217	-0.8832146	4.829926E-005	-0.0002041	9
	5	21	94921.88	179.6092	-2.157129	1	179.6221	-0.6880965	2.285064E-005	-0.0002342	9
	6	23	75421.88	179.9499	-1.923264	1	179.9601	-0.6123413	-2.537508E-005	0.0007072	9
	7	26	59859.37	180.4683	-1.560331	1	180.475	-0.4953676	-2.025511E-005	0.0004226	9
	8	28	47578.12	180.8005	-1.527384	1	180.8069	-0.4840173	1.076518E-005	0.000218	9
	9	31	37828.12	181.0804	-1.290186	1	181.085	-0.4082216	2.441852E-005	-0.0007767	9
	10	33	30046.88	181.3467	-1.15339	1	181.3504	-0.3644042	-2.299504E-005	0.0008553	9
	11	36	23859.38	181.6483	-1.199155	1	181.6523	-0.3782339	-1.006395E-005	-7.844596E-005	9
	12	38	18984.38	181.9736	-1.077599	1	181.9768	-0.3392863	6.337761E-007	0.0005471	9
	13	41	15046.87	181.5519	-1.244516	1	181.5562	-0.3927494	-4.943428E-006	-0.0003719	9
	14	43	11953.13	182.3777	-1.01525	1	182.3805	-0.3189476	2.452519E-005	-0.0002347	9
	15	45	9515.62	182.8257	-1.507959	1	182.8319	-0.4725688	-8.006458E-006	0.0007828	9
	16	48	7546.875	183.1141	-1.726136	1	183.1222	-0.5400862	-1.475005E-005	0.0001084	9
	17	50	5928.309	183.2321	-2.017248	1	183.2432	-0.6307583	-2.147763E-005	0.0004826	9
	18	52	4733.456	183.8228	-2.677882	1	183.8423	-0.8346107	2.500109E-005	-0.0004366	9
	19	54	3796.875	183.9868	-2.880566	1	184.0094	-0.8969707	-2.25395E-005	0.0008457	9
	20	57	2987.132	184.3188	-3.496359	1	184.352	-1.086718	-1.561513E-006	-0.0003815	9
	21	59	2390.625	184.7965	-4.4207	1	184.8494	-1.370367	2.3487E-005	-0.0002328	9
	22	61	1884.191	185.4815	-6.121309	1	185.5825	-1.890204	1.023893E-005	0.0002629	9
	23	64	1516.544	185.6076	-6.518052	1	185.722	-2.011251	-2.249817E-005	0.0008349	9
	24	66	1193.986	185.8957	-8.116758	1	186.0728	-2.500116	-1.625972E-005	0.0009642	9
	25	69	946.5144	186.6283	-9.95895	1	186.8938	-3.054548	-8.382131E-006	0.0008592	9
	26	71	751.7689	186.8262	-12.67855	1	187.2559	-3.882302	-1.50044E-005	0.0009315	9
	27	73	597.4265	187.6331	-15.18443	1	188.2466	-4.626646	-9.452357E-006	-0.0000956	9
	28	76	477.4305	188.3105	-18.89002	1	189.2556	-5.728358	1.072899E-006	6.622286E-005	9
	29	78	376.6741	189.1525	-23.50274	1	190.607	-7.082865	1.05502E-006	5.946967E-005	9
	30	80	298.2954	190.1273	-29.14384	1	192.348	-8.714805	1.039656E-006	6.191732E-005	9
	31	83	237.7717	191.2907	-35.91862	1	194.6337	-10.63459	1.026135E-006	6.524245E-005	9
	32	85	189.0121	192.6839	-44.37824	1	197.7284	-12.96997	1.123991E-006	5.814998E-005	9
	33	87	150.2404	194.3865	-54.82523	1	201.9701	-15.7507	1.122655E-006	6.009049E-005	9
	34	90	119.1737	196.4854	-67.83117	1	207.8643	-19.04582	1.07458E-006	6.05916E-005	9
	35	92	95.0169	199.0469	-83.48401	1	215.8454	-22.7541	1.065752E-006	6.047695E-005	9
	36	95	75.60484	202.2461	-102.8773	1	226.908	-26.96125	9.992175E-007	5.790766E-005	9
	37	97	54.50582	208.0935	-138.5736	1	250.0111	-33.66043	9.770313E-007	5.738822E-005	9
	38	100	45.95588	212.1105	-161.8149	1	266.7863	-37.3393	1.114111E-006	6.396249E-005	9
	39	102	37.20238	217.9541	-195.9202	1	293.0677	-41.95256	1.058448E-006	6.147043E-005	9
	40	105	30.04808	225.2026	-237.6431	1	327.3995	-46.53965	1.110696E-006	6.531794E-005	9
	41	107	23.91582	234.829	-291.9006	1	374.634	-51.18393	1.185675E-006	5.444712E-005	9
	42	109	18.60119	247.1486	-364.362	1	440.2751	-55.85076	1.257004E-007	0.0006295	8
	43	112	15.02404	261.6138	-441.1393	1	512.8798	-59.33031	8.768399E-008	0.000646	8
	44	114	12.01923	280.2743	-538.2424	1	606.8431	-62.49304	-5.498678E-008	0.0006386	8
	45	116	9.450605	305.0745	-666.2353	1	732.7618	-65.39658	7.928575E-009	0.0006481	8
	46	119	7.512019	334.4169	-816.0376	1	881.9025	-67.7159	5.523976E-008	0.0006476	8
	47	122	5.978954	370.3475	-997.055	1	1063.614	-69.62292	3.637525E-008	0.0006331	8
	48	125	4.734848	413.9441	-1224.233	1	1292.322	-71.31831	6.855386E-008	0.0006699	8
	49	128	3.75601	466.96	-1500.354	1	1571.341	-72.71212	1.620772E-008	0.0006207	8
	50	131	3.004808	527.7665	-1824.338	1	1899.144	-73.86526	4.113761E-008	0.000645	8
	51	135	2.372217	610.0137	-2245.497	1	2326.88	-74.80177	5.84462E-008	0.0006845	8
	52	139	1.878005	703.9158	-2767.471	1	2855.59	-75.72924	2.51374E-008	0.0006167	8
	53	144	1.512097	809.9103	-3348.332	1	3444.892	-76.40221	6.289526E-008	0.0006131	8
	54	150	1.201923	958.342	-4120.765	1	4230.736	-76.90779	4.003979E-008	0.0006085	8
	55	156	0.956633	1146.071	-5061.982	1	5190.101	-77.24287	-2.653982E-008	-3.235777E-005	7
