EXPLAIN
TAG	EISPOT
TITLE	LABEL	Potentiostatic EIS	Test Identifier
DATE	LABEL	9/22/2020	Date
TIME	LABEL	2:15:39	Time
NOTES	NOTES	1	Notes...
	
PSTAT	PSTAT	REF3000-16137	Potentiostat
VDC	POTEN	0.00000E+000	T	DC Voltage (V)
FREQINIT	QUANT	3.00000E+005	Initial Freq. (Hz)
FREQFINAL	QUANT	1.00000E+000	Final Freq. (Hz)
PTSPERDEC	QUANT	1.00000E+001	Points/decade
VAC	QUANT	5.00000E+001	AC Voltage (mV rms)
AREA	QUANT	1.00000E+000	Sample Area (cm^2)
SPEED	SELECTOR	2	Optimize for:
ZGUESS	QUANT	1.00000E+003	Estimated Z (ohms)
EOC	QUANT	0	Open Circuit (V)
SEQUENCER	TOGGLE	TRUE	Run as Sequence
PSTATMODEL	IQUANT	5	Pstat Model
PSTATSECTION	LABEL	REF3000-16137	Pstat Section
PSTATSERIALNO	LABEL	16137	Pstat Serial Number
CTRLMODE	IQUANT	1	Control Mode
IESTAB	IQUANT	0	I/E Stability
CASPEED	IQUANT	1	Control Amp Speed
CONVENTION	IQUANT	1	Current Convention
ICHRANGE	IQUANT	2	Ich Range
ICHRANGEMODE	TOGGLE	F	Ich Auto Range
ICHOFFSETENABLE	TOGGLE	T	Ich Offset Enable
ICHOFFSET	QUANT	0	Ich Offset (V)
ICHFILTER	IQUANT	3	Ich Filter
VCHRANGE	IQUANT	2	Vch Range
VCHRANGEMODE	TOGGLE	F	Vch Auto Range
VCHOFFSETENABLE	TOGGLE	T	Vch Offset Enable
VCHOFFSET	QUANT	0	Vch Offset (V)
VCHFILTER	IQUANT	3	Vch Filter
ACHRANGE	IQUANT	2	Ach Range
ACHOFFSETENABLE	TOGGLE	F	Ach Offset Enable
ACHOFFSET	QUANT	0	Ach Offset (V)
ACHFILTER	IQUANT	3	Ach Filter
IERANGELOWERLIMIT	IQUANT	2	I/E Range Lower Limit
IERANGEMODE	TOGGLE	F	I/E AutoRange
IERANGE	IQUANT	11	I/E Range
POSFEEDENABLE	TOGGLE	F	Positive Feedback IR Comp
POSFEEDRESISTANCE	QUANT	0	Positive Feedback Resistance (ohm)
ACHSELECT	IQUANT	0	Ach Select
CABLEID	IQUANT	13	Cable ID
DCCALDATE	LABEL	7/31/2020	DC Calibration Date
ACCALDATE	LABEL	7/31/2020	AC Calibration Date
THERMOSELECT	IQUANT	1	Thermo Select
FRAMEWORKVERSION	QUANT	6.33	Framework Version
INSTRUMENTVERSION	LABEL	3.50	Instrument Version
COMPLIANCEVOLTAGE	IQUANT	0	Compliance Voltage
ZCURVE	TABLE
	Pt	Time	Freq	Zreal	Zimag	Zsig	Zmod	Zphz	Idc	Vdc	IERange
	#	s	Hz	ohm	ohm	V	ohm	°	A	V	#
	0	7	300046.9	135.151	-1.505887	1	135.1594	-0.6383775	-7.246523E-006	-0.0015401	9
	1	10	238359.4	135.2606	-1.4533	1	135.2684	-0.6155874	-7.132287E-005	0.0029054	9
	2	13	189328.1	135.2628	-1.166296	1	135.2678	-0.4940173	1.577939E-005	-0.0001867	9
	3	16	150421.9	135.9063	-1.039256	1	135.9102	-0.4381241	1.453792E-005	-0.0008742	9
	4	18	119484.4	136.2844	-1.044282	1	136.2884	-0.4390216	-4.774373E-006	0.0013273	9
	5	21	94921.88	136.4826	-0.7713401	1	136.4848	-0.3238072	2.326784E-005	-0.0007678	9
	6	23	75421.88	136.7499	-0.632064	1	136.7514	-0.2648217	1.588226E-005	3.558752E-005	9
	7	26	59859.37	136.9872	-0.7290674	1	136.9891	-0.3049343	2.256207E-005	-0.0007082	9
	8	28	47578.12	137.2532	-0.6484123	1	137.2547	-0.2706751	2.351898E-005	-0.0007178	9
	9	31	37828.12	137.5218	-0.6780007	1	137.5234	-0.2824736	1.957517E-005	-0.0007958	9
	10	33	30046.88	137.7967	-0.6787227	1	137.7984	-0.2822101	2.354047E-005	-0.0002686	9
	11	36	23859.38	137.8716	-0.7412543	1	137.8736	-0.3080427	-1.504846E-005	0.0001718	9
	12	38	18984.38	138.105	-0.7587361	1	138.1071	-0.3147745	1.440727E-005	0.0001076	9
	13	40	15046.87	138.4194	-1.015649	1	138.4231	-0.4203989	2.472611E-005	-0.0006458	9
	14	43	11953.13	138.6586	-1.255455	1	138.6643	-0.5187582	1.962239E-005	-0.0007532	9
	15	45	9515.62	138.7959	-1.265364	1	138.8017	-0.5223351	-1.464389E-005	0.0001683	9
	16	47	7546.875	138.9522	-1.496794	1	138.9603	-0.6171666	-2.147771E-005	0.0008358	9
	17	50	5928.309	139.1515	-1.808102	1	139.1632	-0.7444462	-2.212008E-005	0.0006521	9
	18	52	4733.456	139.3484	-2.360465	1	139.3683	-0.970458	-8.649688E-006	-6.941496E-005	9
	19	54	3796.875	139.7014	-2.813556	1	139.7298	-1.153768	1.043025E-005	0.0002866	9
	20	57	2987.132	139.8022	-3.557724	1	139.8474	-1.457764	-9.89982E-006	-6.359458E-005	9
	21	59	2390.625	140.1306	-4.161002	1	140.1924	-1.700826	2.620435E-005	-0.0006133	9
	22	61	1884.191	140.434	-4.957303	1	140.5214	-2.021695	-1.58487E-006	-0.0003288	9
	23	63	1516.544	140.8237	-6.371746	1	140.9677	-2.590654	1.170569E-005	0.0002078	9
	24	66	1193.986	141.1921	-7.839567	1	141.4096	-3.178035	-1.522153E-005	0.0009178	9
	25	68	946.5144	141.623	-9.69546	1	141.9544	-3.916341	-1.425494E-005	0.00016	9
	26	71	751.7689	142.2196	-12.15359	1	142.7379	-4.884432	2.392126E-005	-0.0007488	9
	27	73	597.4265	142.6938	-14.84366	1	143.4637	-5.93881	-1.754108E-005	0.0003373	9
	28	75	477.4305	143.2192	-18.30446	1	144.3842	-7.283332	1.184088E-006	6.746416E-005	9
	29	78	376.6741	143.977	-22.7734	1	145.767	-8.98823	1.087568E-006	6.874011E-005	9
	30	80	298.2954	144.8781	-28.24677	1	147.6061	-11.03251	1.150325E-006	6.975608E-005	9
	31	82	237.7717	145.9363	-34.81675	1	150.0321	-13.41851	1.052694E-006	6.141465E-005	9
	32	85	189.0121	147.2359	-43.01785	1	153.3915	-16.28676	9.330881E-007	8.678241E-005	9
	33	87	150.2404	148.8488	-53.12595	1	158.0453	-19.6421	1.106643E-006	6.13338E-005	9
	34	90	119.1737	150.8615	-65.7015	1	164.5475	-23.53355	1.132096E-006	6.11678E-005	9
	35	92	95.0169	153.3168	-80.8272	1	173.3179	-27.79778	1.136112E-006	5.486867E-005	9
	36	94	75.60484	156.3837	-99.5502	1	185.381	-32.47986	1.045698E-006	5.861065E-005	9
	37	97	54.50582	162.046	-134.0128	1	210.2815	-39.5909	1.163147E-006	5.96149E-005	9
	38	100	45.95588	165.895	-156.4407	1	228.0238	-43.31996	1.10452E-006	6.486104E-005	9
	39	102	37.20238	171.5768	-189.3625	1	255.5323	-47.82105	1.000074E-006	7.57381E-005	9
	40	104	30.04808	178.693	-229.6529	1	290.9839	-52.11349	1.182481E-006	5.945857E-005	9
	41	107	23.91582	188.1345	-281.9511	1	338.9558	-56.28643	1.157568E-006	5.875966E-005	9
	42	109	18.60119	201.3103	-353.1873	1	406.5305	-60.31765	1.193142E-006	6.400963E-005	9
	43	111	15.02404	214.617	-425.502	1	476.563	-63.23429	1.657021E-008	0.0006331	8
	44	114	12.01923	232.5628	-518.5931	1	568.3522	-65.84618	7.506753E-008	0.0006334	8
	45	116	9.450605	256.5476	-641.4677	1	690.8672	-68.20163	4.866732E-008	0.0006424	8
	46	119	7.512019	284.4768	-785.2604	1	835.2011	-70.08603	8.211256E-008	0.0006585	8
	47	121	5.978954	318.0543	-959.272	1	1010.624	-71.65664	8.705681E-008	0.0006404	8
	48	124	4.734848	358.9323	-1178.605	1	1232.048	-73.06242	1.553716E-007	0.0006598	8
	49	128	3.75601	408.3426	-1445.151	1	1501.734	-74.22179	7.070848E-008	0.0006293	8
	50	131	3.004808	465.7292	-1759.455	1	1820.051	-75.17379	1.250111E-007	0.0006189	8
	51	135	2.372217	542.8561	-2166.989	1	2233.95	-75.93616	1.196451E-007	0.0006679	8
	52	139	1.878005	636.616	-2674.67	1	2749.389	-76.61176	8.138846E-008	0.0006306	8
	53	144	1.512097	740.6022	-3244.416	1	3327.871	-77.14142	1.219779E-007	0.0005524	8
	54	149	1.201923	891.7205	-3988.729	1	4087.19	-77.39816	9.755748E-008	0.0006479	8
	55	155	0.956633	1079.251	-4898.094	1	5015.586	-77.57394	-2.008961E-008	-3.051572E-005	7
