EXPLAIN
TAG	EISPOT
TITLE	LABEL	Potentiostatic EIS	Test Identifier
DATE	LABEL	9/22/2020	Date
TIME	LABEL	4:55:46	Time
NOTES	NOTES	1	Notes...
	
PSTAT	PSTAT	REF3000-16137	Potentiostat
VDC	POTEN	0.00000E+000	T	DC Voltage (V)
FREQINIT	QUANT	3.00000E+005	Initial Freq. (Hz)
FREQFINAL	QUANT	1.00000E+000	Final Freq. (Hz)
PTSPERDEC	QUANT	1.00000E+001	Points/decade
VAC	QUANT	5.00000E+001	AC Voltage (mV rms)
AREA	QUANT	1.00000E+000	Sample Area (cm^2)
SPEED	SELECTOR	2	Optimize for:
ZGUESS	QUANT	1.00000E+003	Estimated Z (ohms)
EOC	QUANT	0	Open Circuit (V)
SEQUENCER	TOGGLE	TRUE	Run as Sequence
PSTATMODEL	IQUANT	5	Pstat Model
PSTATSECTION	LABEL	REF3000-16137	Pstat Section
PSTATSERIALNO	LABEL	16137	Pstat Serial Number
CTRLMODE	IQUANT	1	Control Mode
IESTAB	IQUANT	0	I/E Stability
CASPEED	IQUANT	1	Control Amp Speed
CONVENTION	IQUANT	1	Current Convention
ICHRANGE	IQUANT	2	Ich Range
ICHRANGEMODE	TOGGLE	F	Ich Auto Range
ICHOFFSETENABLE	TOGGLE	T	Ich Offset Enable
ICHOFFSET	QUANT	0	Ich Offset (V)
ICHFILTER	IQUANT	3	Ich Filter
VCHRANGE	IQUANT	2	Vch Range
VCHRANGEMODE	TOGGLE	F	Vch Auto Range
VCHOFFSETENABLE	TOGGLE	T	Vch Offset Enable
VCHOFFSET	QUANT	0	Vch Offset (V)
VCHFILTER	IQUANT	3	Vch Filter
ACHRANGE	IQUANT	2	Ach Range
ACHOFFSETENABLE	TOGGLE	F	Ach Offset Enable
ACHOFFSET	QUANT	0	Ach Offset (V)
ACHFILTER	IQUANT	3	Ach Filter
IERANGELOWERLIMIT	IQUANT	2	I/E Range Lower Limit
IERANGEMODE	TOGGLE	F	I/E AutoRange
IERANGE	IQUANT	11	I/E Range
POSFEEDENABLE	TOGGLE	F	Positive Feedback IR Comp
POSFEEDRESISTANCE	QUANT	0	Positive Feedback Resistance (ohm)
ACHSELECT	IQUANT	0	Ach Select
CABLEID	IQUANT	13	Cable ID
DCCALDATE	LABEL	7/31/2020	DC Calibration Date
ACCALDATE	LABEL	7/31/2020	AC Calibration Date
THERMOSELECT	IQUANT	1	Thermo Select
FRAMEWORKVERSION	QUANT	6.33	Framework Version
INSTRUMENTVERSION	LABEL	3.50	Instrument Version
COMPLIANCEVOLTAGE	IQUANT	0	Compliance Voltage
ZCURVE	TABLE
	Pt	Time	Freq	Zreal	Zimag	Zsig	Zmod	Zphz	Idc	Vdc	IERange
	#	s	Hz	ohm	ohm	V	ohm	°	A	V	#
	0	24	300046.9	33.71785	-4480.723	1	4480.85	-89.56886	-2.375476E-005	0.0014442	9
	1	38	238359.4	41.09624	-5584.217	1	5584.368	-89.57835	-6.084775E-005	0.0004228	9
	2	53	189328.1	-158.7176	-6864.909	1	6866.744	-91.32445	1.347964E-006	0.0017434	9
	3	61	150421.9	54.66122	-8048.352	1	8048.537	-89.61088	-2.837538E-005	-0.0010432	9
	4	69	119484.4	727.0428	-10669.57	1	10694.31	-86.10179	-1.833789E-005	0.0171081	8
	5	76	94921.88	857.6023	-13535.73	1	13562.87	-86.37468	-2.055464E-005	0.002775	8
	6	84	75421.88	961.135	-16756.79	1	16784.33	-86.71722	-2.03552E-005	0.002764	8
	7	92	59859.37	922.8459	-20960.96	1	20981.26	-87.47907	8.0974E-006	0.004309	8
	8	101	47578.12	4502.684	-27417.2	1	27784.47	-80.67365	-6.401138E-006	0.0255318	7
	9	107	37828.12	2144.684	-34399.71	1	34466.51	-86.43246	-2.250115E-006	0.0078063	8
	10	116	30046.88	1076.92	-41135.66	1	41149.76	-88.50036	-1.224754E-005	0.0103639	8
	11	124	23859.38	1392.002	-52460.04	1	52478.51	-88.48004	1.637526E-005	-0.0093106	8
	12	131	18984.38	5558.453	-65517.45	1	65752.82	-85.15068	2.708961E-006	0.008463	7
	13	136	15046.87	5880.313	-83196.11	1	83403.66	-85.95705	-3.749259E-006	0.0252643	7
	14	142	11953.13	7541.19	-102649.6	1	102926.2	-85.79829	5.312417E-006	-0.026386	7
	15	147	9515.62	16894.52	-137824.2	1	138855.8	-83.01153	-1.933224E-005	0.0111482	8
	16	154	7546.875	12864.9	-156937.6	1	157464	-85.31368	-3.388124E-006	-0.0049884	7
	17	161	5928.309	21660.29	-199388.6	1	200561.7	-83.80007	-6.454795E-006	0.0256772	7
	18	166	4733.456	49217.02	-264880.8	1	269414.4	-79.47401	-5.3103E-006	0.0035185	7
	19	173	3796.875	8914.43	-264285.9	1	264436.3	-88.06813	2.619118E-005	-0.0089695	8
	20	180	2987.132	19993.36	-196004.2	1	197021.3	-84.1757	-1.998248E-005	0.0113758	8
	21	189	2390.625	29561.64	-480790.1	1	481698.1	-86.48157	7.560132E-006	-0.018442	7
	22	195	1884.191	358370.8	-593499.8	1	693304.9	-58.87532	6.754858E-006	-0.0267607	7
	23	203	1516.544	221192.8	-718343.2	1	751627	-72.88531	-5.32747E-006	0.0035771	7
	24	209	1193.986	620808.8	-869552.8	1	1068422	-54.47543	-1.148267E-006	-0.0131122	7
	25	217	946.5144	163113.1	-1330092	1	1340057	-83.00856	3.864787E-007	-0.0245055	6
	26	221	751.7689	262142.6	-1213027	1	1241029	-77.80556	7.577638E-007	-0.0221899	6
	27	226	597.4265	9.552831E+006	-2286355	1	9.822627E+006	-13.45986	3.285715E-007	0.016583	7
	28	232	477.4305	798218.9	-2085786	1	2233306	-69.05842	-9.658296E-009	0.0006222	6
	29	238	376.6741	1437464	-2446435	1	2837489	-59.56257	-9.73689E-010	0.0006186	5
	30	240	298.2954	1572732	-2869410	1	3272155	-61.27273	-9.996003E-009	0.0006543	6
	31	244	237.7717	2351441	-3139750	1	3922665	-53.16949	-9.888763E-010	0.0006114	5
	32	248	189.0121	3042677	-3429946	1	4585021	-48.42403	-9.826768E-010	0.000594	5
	33	252	150.2404	3806718	-3615026	1	5249716	-43.52047	-1.006723E-009	0.0006116	5
	34	255	119.1737	5495290	-4083534	1	6846420	-36.61593	-9.001184E-010	0.0005959	5
	35	258	95.0169	5345272	-3558265	1	6421307	-33.65109	-1.096662E-009	0.0006705	5
	36	261	75.60484	5925053	-3110658	1	6691969	-27.69951	-1.121324E-009	0.0006556	5
	37	263	54.50582	6855308	-2730624	1	7379129	-21.71851	-1.059339E-009	0.0006804	5
	38	267	45.95588	8016758	-1890903	1	8236742	-13.27171	-1.123852E-010	0.0006362	4
	39	269	37.20238	7975515	-1636574	1	8141696	-11.59611	-4.332532E-011	0.0006095	4
	40	272	30.04808	8195012	-1188861	1	8280798	-8.254386	-1.031745E-010	0.0006021	4
	41	275	23.91582	8220733	-940381.1	1	8274344	-6.525779	-7.019024E-011	0.0005939	4
	42	278	18.60119	8007560	-1227293	1	8101065	-8.71373	1.485581E-010	0.0006843	4
	43	280	15.02404	8539878	-658358	1	8565218	-4.408339	-1.037467E-010	0.0006015	4
	44	282	12.01923	8562937	-558132.1	1	8581107	-3.729263	-1.292901E-010	0.000687	4
	45	285	9.450605	8659455	-462352.4	1	8671789	-3.056279	-1.078279E-010	0.0006847	4
	46	288	7.512019	8677886	-363480.8	1	8685495	-2.398481	-1.318183E-010	0.0007101	4
	47	291	5.978954	8825984	-280584.9	1	8830443	-1.820864	-9.126443E-011	0.0005919	4
	48	295	4.734848	8869666	-248670.1	1	8873151	-1.605925	-1.148792E-010	0.0006879	4
	49	299	3.75601	8970771	-205498.6	1	8973124	-1.312278	-1.228216E-010	0.0006652	4
	50	304	3.004808	9118974	-187451.9	1	9120900	-1.177621	-9.322523E-011	0.0005697	4
	51	311	2.372217	9198514	-141411.6	1	9199601	-0.8807562	-1.167852E-010	0.0006173	4
	52	315	1.878005	9294023	-120659.3	1	9294806	-0.7437987	-1.138984E-010	0.0006473	4
	53	320	1.512097	9401882	-105505.4	1	9402474	-0.6429312	-1.197027E-010	0.0005372	4
	54	325	1.201923	9.530133E+006	-95627.7	1	9.530613E+006	-0.5749006	-1.139823E-010	0.000647	4
	55	331	0.956633	9.66662E+006	-91032.06	1	9.667049E+006	-0.5395473	-1.809292E-010	3.312409E-006	4
