EXPLAIN
TAG	EISPOT
TITLE	LABEL	Potentiostatic EIS	Test Identifier
DATE	LABEL	9/22/2020	Date
TIME	LABEL	3:31:58	Time
NOTES	NOTES	1	Notes...
	
PSTAT	PSTAT	REF3000-16137	Potentiostat
VDC	POTEN	0.00000E+000	T	DC Voltage (V)
FREQINIT	QUANT	3.00000E+005	Initial Freq. (Hz)
FREQFINAL	QUANT	1.00000E+000	Final Freq. (Hz)
PTSPERDEC	QUANT	1.00000E+001	Points/decade
VAC	QUANT	5.00000E+001	AC Voltage (mV rms)
AREA	QUANT	1.00000E+000	Sample Area (cm^2)
SPEED	SELECTOR	2	Optimize for:
ZGUESS	QUANT	1.00000E+003	Estimated Z (ohms)
EOC	QUANT	0	Open Circuit (V)
SEQUENCER	TOGGLE	TRUE	Run as Sequence
PSTATMODEL	IQUANT	5	Pstat Model
PSTATSECTION	LABEL	REF3000-16137	Pstat Section
PSTATSERIALNO	LABEL	16137	Pstat Serial Number
CTRLMODE	IQUANT	1	Control Mode
IESTAB	IQUANT	0	I/E Stability
CASPEED	IQUANT	1	Control Amp Speed
CONVENTION	IQUANT	1	Current Convention
ICHRANGE	IQUANT	2	Ich Range
ICHRANGEMODE	TOGGLE	F	Ich Auto Range
ICHOFFSETENABLE	TOGGLE	T	Ich Offset Enable
ICHOFFSET	QUANT	0	Ich Offset (V)
ICHFILTER	IQUANT	3	Ich Filter
VCHRANGE	IQUANT	2	Vch Range
VCHRANGEMODE	TOGGLE	F	Vch Auto Range
VCHOFFSETENABLE	TOGGLE	T	Vch Offset Enable
VCHOFFSET	QUANT	0	Vch Offset (V)
VCHFILTER	IQUANT	3	Vch Filter
ACHRANGE	IQUANT	2	Ach Range
ACHOFFSETENABLE	TOGGLE	F	Ach Offset Enable
ACHOFFSET	QUANT	0	Ach Offset (V)
ACHFILTER	IQUANT	3	Ach Filter
IERANGELOWERLIMIT	IQUANT	2	I/E Range Lower Limit
IERANGEMODE	TOGGLE	F	I/E AutoRange
IERANGE	IQUANT	11	I/E Range
POSFEEDENABLE	TOGGLE	F	Positive Feedback IR Comp
POSFEEDRESISTANCE	QUANT	0	Positive Feedback Resistance (ohm)
ACHSELECT	IQUANT	0	Ach Select
CABLEID	IQUANT	13	Cable ID
DCCALDATE	LABEL	7/31/2020	DC Calibration Date
ACCALDATE	LABEL	7/31/2020	AC Calibration Date
THERMOSELECT	IQUANT	1	Thermo Select
FRAMEWORKVERSION	QUANT	6.33	Framework Version
INSTRUMENTVERSION	LABEL	3.50	Instrument Version
COMPLIANCEVOLTAGE	IQUANT	0	Compliance Voltage
ZCURVE	TABLE
	Pt	Time	Freq	Zreal	Zimag	Zsig	Zmod	Zphz	Idc	Vdc	IERange
	#	s	Hz	ohm	ohm	V	ohm	°	A	V	#
	0	14	300046.9	1840.377	-1750.306	1	2539.795	-43.56305	2.74446E-005	-0.0016678	9
	1	28	238359.4	2202.002	-1741.123	1	2807.191	-38.33343	1.94238E-005	-0.0021993	9
	2	49	189328.1	2528.696	-1708.514	1	3051.773	-34.04494	2.641065E-005	0.0010374	9
	3	59	150421.9	2746.539	-1567.176	1	3162.201	-29.70909	2.29877E-005	-0.0003108	9
	4	68	119484.4	3184.21	-1419.793	1	3486.403	-24.03139	-2.824919E-005	-0.0009552	9
	5	76	94921.88	3423.257	-1144.117	1	3609.39	-18.4806	8.436374E-006	0.0035058	8
	6	82	75421.88	3602.254	-987.714	1	3735.212	-15.33327	2.345662E-005	-0.0082906	8
	7	90	59859.37	3743.436	-833.6843	1	3835.145	-12.5552	-9.565665E-006	-0.001603	8
	8	97	47578.12	3854.614	-695.2	1	3916.803	-10.22369	-2.225655E-005	0.0102501	8
	9	103	37828.12	3936.627	-597.9497	1	3981.78	-8.636863	2.515171E-005	-0.0069576	8
	10	111	30046.88	4010.199	-482.5385	1	4039.126	-6.86129	-1.746168E-005	0.0103234	8
	11	118	23859.38	4051.168	-399.5519	1	4070.824	-5.632657	2.448099E-005	-0.0051302	8
	12	124	18984.38	4093.187	-323.2381	1	4105.93	-4.515265	-9.546423E-006	-0.0016168	8
	13	129	15046.87	4142.834	-281.4409	1	4152.383	-3.886382	-1.540166E-005	0.0009515	8
	14	134	11953.13	4170.37	-229.7335	1	4176.692	-3.15307	2.334108E-005	-0.0080682	8
	15	140	9515.62	4179.699	-173.6596	1	4183.305	-2.379177	8.852528E-006	0.0033461	8
	16	145	7546.875	4238.353	-140.5972	1	4240.685	-1.899953	-1.933331E-005	0.0029674	8
	17	150	5928.309	4256.118	-132.7009	1	4258.186	-1.785838	-1.168532E-006	0.0069282	8
	18	156	4733.456	4295.865	-42.83305	1	4296.079	-0.5712637	3.412545E-006	0.0021786	7
	19	160	3796.875	4299.967	-82.96272	1	4300.767	-1.105317	-2.444103E-005	0.0092327	8
	20	165	2987.132	4284.554	-68.59879	1	4285.104	-0.9172682	-1.063046E-006	0.0069161	8
	21	171	2390.625	4354.245	-26.90438	1	4354.328	-0.3540195	3.446105E-006	-0.0206167	7
	22	173	1884.191	4382.256	-5.929311	1	4382.26	-0.0775227	-1.165704E-007	-0.0129494	7
	23	177	1516.544	4376.5	-30.95549	1	4376.609	-0.4052529	4.990566E-006	-0.0056814	7
	24	181	1193.986	4399.267	-44.46294	1	4399.491	-0.5790629	1.412245E-005	-0.0083398	8
	25	187	946.5144	4425.777	-97.6075	1	4426.854	-1.263414	-2.368166E-005	0.0069339	8
	26	190	751.7689	4496.226	-81.31283	1	4496.961	-1.036063	-1.796452E-005	0.0105664	8
	27	194	597.4265	4400.471	-54.59612	1	4400.81	-0.7108254	2.530566E-005	-0.007151	8
	28	198	477.4305	4458.828	-39.66487	1	4459.004	-0.5096787	-3.874625E-007	0.0006596	8
	29	201	376.6741	4483.541	-38.97463	1	4483.71	-0.4980496	-8.090337E-008	0.0005643	7
	30	204	298.2954	4497.114	-46.47502	1	4497.354	-0.592097	-9.445162E-008	0.0006383	7
	31	206	237.7717	4509.629	-55.66776	1	4509.973	-0.7072346	-7.232606E-008	0.0006127	7
	32	208	189.0121	4521.057	-67.53531	1	4521.562	-0.8558176	-1.063077E-007	0.000634	7
	33	211	150.2404	4536.479	-82.39114	1	4537.227	-1.040487	-7.44032E-008	0.000559	7
	34	213	119.1737	4548.021	-100.8074	1	4549.138	-1.269759	-1.059795E-007	0.0005694	7
	35	216	95.0169	4563.788	-123.3541	1	4565.455	-1.548265	-8.028112E-008	0.0006535	7
	36	218	75.60484	4577.721	-150.6968	1	4580.201	-1.885474	-6.438174E-008	0.0005877	7
	37	221	54.50582	4598.532	-203.3386	1	4603.026	-2.531864	-8.098058E-008	0.0005875	7
	38	223	45.95588	4613.847	-235.6547	1	4619.861	-2.923872	-1.461502E-008	0.0006268	7
	39	226	37.20238	4630.509	-287.0725	1	4639.399	-3.547563	-4.14752E-008	0.0006006	7
	40	228	30.04808	4652.666	-348.2927	1	4665.684	-4.281105	-5.60204E-008	0.000648	7
	41	230	23.91582	4672.074	-428.6734	1	4691.699	-5.24234	-5.507118E-008	0.0006164	7
	42	233	18.60119	4710.733	-538.2071	1	4741.379	-6.517851	-2.842782E-007	0.0006459	7
	43	235	15.02404	4740.634	-650.2756	1	4785.026	-7.810553	1.087039E-007	0.0005702	7
	44	237	12.01923	4765.191	-797.0176	1	4831.386	-9.495299	-1.628192E-007	0.0005651	7
	45	240	9.450605	4802.735	-992.928	1	4904.301	-11.68088	-3.108418E-008	0.0006298	7
	46	242	7.512019	4837.868	-1223.124	1	4990.09	-14.18837	3.876178E-008	0.0006426	7
	47	245	5.978954	4906.025	-1519.375	1	5135.912	-17.20753	-1.45107E-008	0.0006473	7
	48	248	4.734848	4979.548	-1867.802	1	5318.326	-20.5608	-4.035194E-008	0.0005857	7
	49	251	3.75601	5078.726	-2304.337	1	5577.044	-24.40491	-5.563405E-008	0.0006406	7
	50	255	3.004808	5182.767	-2811.089	1	5896.04	-28.47503	-8.032876E-008	0.0006018	7
	51	259	2.372217	5324.481	-3471.278	1	6356.089	-33.1022	-6.141774E-008	0.0005955	7
	52	263	1.878005	5501.406	-4275.241	1	6967.292	-37.85142	-5.883703E-008	0.0005929	7
	53	267	1.512097	5695.841	-5183.698	1	7701.515	-42.30485	-6.643628E-008	0.0006812	7
	54	273	1.201923	5949.417	-6360.356	1	8709.173	-46.912	-6.327853E-008	0.0006077	7
	55	279	0.956633	6259.7	-7786.421	1	9990.61	-51.20332	-9.116134E-008	-3.295839E-005	7
