EXPLAIN
TAG	EISPOT
TITLE	LABEL	Potentiostatic EIS	Test Identifier
DATE	LABEL	9/22/2020	Date
TIME	LABEL	1:00:56	Time
NOTES	NOTES	1	Notes...
	
PSTAT	PSTAT	REF3000-16137	Potentiostat
VDC	POTEN	0.00000E+000	T	DC Voltage (V)
FREQINIT	QUANT	3.00000E+005	Initial Freq. (Hz)
FREQFINAL	QUANT	1.00000E+000	Final Freq. (Hz)
PTSPERDEC	QUANT	1.00000E+001	Points/decade
VAC	QUANT	5.00000E+001	AC Voltage (mV rms)
AREA	QUANT	1.00000E+000	Sample Area (cm^2)
SPEED	SELECTOR	2	Optimize for:
ZGUESS	QUANT	1.00000E+003	Estimated Z (ohms)
EOC	QUANT	0	Open Circuit (V)
SEQUENCER	TOGGLE	TRUE	Run as Sequence
PSTATMODEL	IQUANT	5	Pstat Model
PSTATSECTION	LABEL	REF3000-16137	Pstat Section
PSTATSERIALNO	LABEL	16137	Pstat Serial Number
CTRLMODE	IQUANT	1	Control Mode
IESTAB	IQUANT	0	I/E Stability
CASPEED	IQUANT	1	Control Amp Speed
CONVENTION	IQUANT	1	Current Convention
ICHRANGE	IQUANT	2	Ich Range
ICHRANGEMODE	TOGGLE	F	Ich Auto Range
ICHOFFSETENABLE	TOGGLE	T	Ich Offset Enable
ICHOFFSET	QUANT	0	Ich Offset (V)
ICHFILTER	IQUANT	3	Ich Filter
VCHRANGE	IQUANT	2	Vch Range
VCHRANGEMODE	TOGGLE	F	Vch Auto Range
VCHOFFSETENABLE	TOGGLE	T	Vch Offset Enable
VCHOFFSET	QUANT	0	Vch Offset (V)
VCHFILTER	IQUANT	3	Vch Filter
ACHRANGE	IQUANT	2	Ach Range
ACHOFFSETENABLE	TOGGLE	F	Ach Offset Enable
ACHOFFSET	QUANT	0	Ach Offset (V)
ACHFILTER	IQUANT	3	Ach Filter
IERANGELOWERLIMIT	IQUANT	2	I/E Range Lower Limit
IERANGEMODE	TOGGLE	F	I/E AutoRange
IERANGE	IQUANT	11	I/E Range
POSFEEDENABLE	TOGGLE	F	Positive Feedback IR Comp
POSFEEDRESISTANCE	QUANT	0	Positive Feedback Resistance (ohm)
ACHSELECT	IQUANT	0	Ach Select
CABLEID	IQUANT	13	Cable ID
DCCALDATE	LABEL	7/31/2020	DC Calibration Date
ACCALDATE	LABEL	7/31/2020	AC Calibration Date
THERMOSELECT	IQUANT	1	Thermo Select
FRAMEWORKVERSION	QUANT	6.33	Framework Version
INSTRUMENTVERSION	LABEL	3.50	Instrument Version
COMPLIANCEVOLTAGE	IQUANT	0	Compliance Voltage
ZCURVE	TABLE
	Pt	Time	Freq	Zreal	Zimag	Zsig	Zmod	Zphz	Idc	Vdc	IERange
	#	s	Hz	ohm	ohm	V	ohm	°	A	V	#
	0	8	300046.9	21.13835	2.00162	1	21.23291	5.409287	-0.0001008	0.0003652	10
	1	11	238359.4	21.14255	1.560829	1	21.20009	4.222148	-2.813834E-005	0.0002382	10
	2	15	189328.1	21.14938	1.229102	1	21.18506	3.32602	-2.010503E-005	0.0005426	10
	3	17	150421.9	21.16882	0.964517	1	21.19078	2.60877	4.923728E-006	0.0007392	10
	4	20	119484.4	21.17817	0.7382345	1	21.19103	1.996424	-5.234752E-005	0.0007247	10
	5	22	94921.88	21.18542	0.5542313	1	21.19267	1.498572	-2.400571E-005	0.000708	10
	6	25	75421.88	21.20199	0.3888212	1	21.20556	1.050624	-1.834447E-005	0.0006417	10
	7	27	59859.37	21.2269	0.2457323	1	21.22832	0.6632525	2.43966E-005	0.0006094	10
	8	30	47578.12	21.24833	0.1194424	1	21.24867	0.322071	5.088014E-006	0.0006154	10
	9	32	37828.12	21.27181	0.0029632	1	21.27181	0.0079813	1.935249E-005	0.0005741	10
	10	35	30046.88	21.29735	-0.1126562	1	21.29764	-0.3030736	-1.233281E-005	0.0006201	10
	11	37	23859.38	21.32463	-0.2298995	1	21.32586	-0.6176785	7.693673E-006	0.0006881	10
	12	40	18984.38	21.35025	-0.3563897	1	21.35322	-0.956323	-3.134298E-005	0.0006568	10
	13	42	15046.87	21.38393	-0.5045214	1	21.38988	-1.351556	2.391736E-005	0.0006625	10
	14	44	11953.13	21.40818	-0.6699941	1	21.41866	-1.792554	1.807332E-005	0.0005927	10
	15	47	9515.62	21.44614	-0.8579327	1	21.46329	-2.290843	-1.273043E-005	0.0006275	10
	16	49	7546.875	21.49219	-1.092089	1	21.51992	-2.908885	-3.435875E-006	0.0006097	10
	17	51	5928.309	21.54013	-1.39002	1	21.58494	-3.692272	-2.482165E-005	0.0007138	10
	18	54	4733.456	21.59584	-1.728845	1	21.66493	-4.577025	-2.723316E-005	0.0006755	10
	19	56	3796.875	21.65419	-2.136952	1	21.75938	-5.636008	-2.451695E-005	0.000669	10
	20	58	2987.132	21.73296	-2.677495	1	21.89727	-7.023433	1.586491E-005	0.0006584	10
	21	61	2390.625	21.83062	-3.30748	1	22.07975	-8.615163	1.361118E-005	0.0006949	10
	22	63	1884.191	21.94171	-4.125625	1	22.32621	-10.6488	-1.166098E-005	0.0006405	10
	23	65	1516.544	22.07062	-5.056998	1	22.64256	-12.90531	-2.61926E-005	0.0006695	10
	24	67	1193.986	22.24036	-6.316798	1	23.12003	-15.85582	-2.989326E-005	0.0006886	10
	25	70	946.5144	22.45278	-7.837422	1	23.78135	-19.24217	-2.766045E-005	0.0006663	10
	26	72	751.7689	22.71248	-9.69673	1	24.69582	-23.11929	-2.752031E-005	0.0006957	10
	27	75	597.4265	23.03867	-11.97933	1	25.96699	-27.4729	5.928559E-006	0.0005982	10
	28	77	477.4305	23.43775	-14.73664	1	27.68568	-32.1599	-2.342608E-006	0.000667	10
	29	79	376.6741	23.96952	-18.32299	1	30.17068	-37.39534	-2.319609E-006	0.000662	10
	30	82	298.2954	24.63202	-22.69149	1	33.4909	-42.65186	-2.578352E-006	0.0006675	10
	31	84	237.7717	25.44858	-27.91936	1	37.77725	-47.65074	-2.700844E-006	0.0006602	10
	32	86	189.0121	26.46459	-34.37741	1	43.38411	-52.41002	1.159732E-006	5.924402E-005	9
	33	89	150.2404	27.79697	-42.34791	1	50.65586	-56.71929	1.111657E-006	5.851479E-005	9
	34	91	119.1737	29.5069	-52.21647	1	59.9768	-60.52974	1.112464E-006	5.272046E-005	9
	35	94	95.0169	31.61616	-64.0143	1	71.39616	-63.7156	1.02669E-006	5.60911E-005	9
	36	96	75.60484	34.2689	-78.52908	1	85.68066	-66.42428	1.090614E-006	5.784552E-005	9
	37	99	54.50582	39.1515	-105.0306	1	112.0905	-69.55642	1.111005E-006	6.00543E-005	9
	38	101	45.95588	42.31392	-122.1737	1	129.2938	-70.89687	1.16178E-006	6.612668E-005	9
	39	104	37.20238	46.87742	-147.3009	1	154.5802	-72.34671	1.039819E-006	7.494681E-005	9
	40	106	30.04808	52.37086	-177.953	1	185.4993	-73.60105	1.113998E-006	5.100221E-005	9
	41	109	23.91582	59.41908	-217.8801	1	225.8371	-74.74556	1.097098E-006	6.05253E-005	9
	42	111	18.60119	69.03199	-272.5505	1	281.1569	-75.78694	1.009841E-006	6.588418E-005	9
	43	113	15.02404	79.16131	-329.96	1	339.323	-76.50904	1.21999E-006	0.0001066	9
	44	115	12.01923	92.15797	-403.0165	1	413.4191	-77.11961	1.08172E-006	6.387939E-005	9
	45	118	9.450605	109.5064	-498.0423	1	509.939	-77.59949	5.153281E-007	0.0006284	8
	46	120	7.512019	131.4872	-612.3057	1	626.2645	-77.8803	4.978793E-007	0.0006351	8
	47	123	5.978954	159.554	-750.9842	1	767.7465	-78.0053	5.017492E-007	0.0006358	8
	48	126	4.734848	197.2307	-925.1462	1	945.9363	-77.96535	4.14328E-007	0.0006192	8
	49	129	3.75601	246.7853	-1136.864	1	1163.342	-77.75251	5.069918E-007	0.0006613	8
	50	133	3.004808	309.3544	-1384.299	1	1418.444	-77.40288	5.102914E-007	0.000606	8
	51	137	2.372217	396.2903	-1703.128	1	1748.625	-76.90128	4.710199E-007	0.000566	8
	52	141	1.878005	512.4	-2083.018	1	2145.115	-76.18024	4.670939E-007	0.0006453	8
	53	146	1.512097	652.5156	-2504.302	1	2587.916	-75.39585	4.80064E-007	0.0005298	8
	54	151	1.201923	842.3712	-3037.761	1	3152.393	-74.5013	4.742238E-007	0.0006617	8
	55	157	0.956633	1084.748	-3664.544	1	3821.722	-73.51063	4.499454E-007	-8.636411E-006	8
