EXPLAIN
TAG	EISPOT
TITLE	LABEL	Potentiostatic EIS	Test Identifier
DATE	LABEL	9/22/2020	Date
TIME	LABEL	0:41:34	Time
NOTES	NOTES	1	Notes...
	
PSTAT	PSTAT	REF3000-16137	Potentiostat
VDC	POTEN	0.00000E+000	T	DC Voltage (V)
FREQINIT	QUANT	3.00000E+005	Initial Freq. (Hz)
FREQFINAL	QUANT	1.00000E+000	Final Freq. (Hz)
PTSPERDEC	QUANT	1.00000E+001	Points/decade
VAC	QUANT	5.00000E+001	AC Voltage (mV rms)
AREA	QUANT	1.00000E+000	Sample Area (cm^2)
SPEED	SELECTOR	2	Optimize for:
ZGUESS	QUANT	1.00000E+003	Estimated Z (ohms)
EOC	QUANT	0	Open Circuit (V)
SEQUENCER	TOGGLE	TRUE	Run as Sequence
PSTATMODEL	IQUANT	5	Pstat Model
PSTATSECTION	LABEL	REF3000-16137	Pstat Section
PSTATSERIALNO	LABEL	16137	Pstat Serial Number
CTRLMODE	IQUANT	1	Control Mode
IESTAB	IQUANT	0	I/E Stability
CASPEED	IQUANT	1	Control Amp Speed
CONVENTION	IQUANT	1	Current Convention
ICHRANGE	IQUANT	2	Ich Range
ICHRANGEMODE	TOGGLE	F	Ich Auto Range
ICHOFFSETENABLE	TOGGLE	T	Ich Offset Enable
ICHOFFSET	QUANT	0	Ich Offset (V)
ICHFILTER	IQUANT	3	Ich Filter
VCHRANGE	IQUANT	2	Vch Range
VCHRANGEMODE	TOGGLE	F	Vch Auto Range
VCHOFFSETENABLE	TOGGLE	T	Vch Offset Enable
VCHOFFSET	QUANT	0	Vch Offset (V)
VCHFILTER	IQUANT	3	Vch Filter
ACHRANGE	IQUANT	2	Ach Range
ACHOFFSETENABLE	TOGGLE	F	Ach Offset Enable
ACHOFFSET	QUANT	0	Ach Offset (V)
ACHFILTER	IQUANT	3	Ach Filter
IERANGELOWERLIMIT	IQUANT	2	I/E Range Lower Limit
IERANGEMODE	TOGGLE	F	I/E AutoRange
IERANGE	IQUANT	11	I/E Range
POSFEEDENABLE	TOGGLE	F	Positive Feedback IR Comp
POSFEEDRESISTANCE	QUANT	0	Positive Feedback Resistance (ohm)
ACHSELECT	IQUANT	0	Ach Select
CABLEID	IQUANT	13	Cable ID
DCCALDATE	LABEL	7/31/2020	DC Calibration Date
ACCALDATE	LABEL	7/31/2020	AC Calibration Date
THERMOSELECT	IQUANT	1	Thermo Select
FRAMEWORKVERSION	QUANT	6.33	Framework Version
INSTRUMENTVERSION	LABEL	3.50	Instrument Version
COMPLIANCEVOLTAGE	IQUANT	0	Compliance Voltage
ZCURVE	TABLE
	Pt	Time	Freq	Zreal	Zimag	Zsig	Zmod	Zphz	Idc	Vdc	IERange
	#	s	Hz	ohm	ohm	V	ohm	°	A	V	#
	0	8	300046.9	15.04863	2.117248	1	15.19685	8.008587	-5.347146E-005	0.0003616	10
	1	11	238359.4	15.02574	1.667071	1	15.11793	6.330941	2.277873E-005	0.0002361	10
	2	14	189328.1	15.01842	1.310198	1	15.07547	4.985826	7.205185E-005	0.0001647	10
	3	16	150421.9	15.03124	1.027711	1	15.06634	3.911319	4.920786E-005	0.0006534	10
	4	19	119484.4	15.02753	0.7842165	1	15.04798	2.987288	1.783079E-005	0.0005571	10
	5	21	94921.88	15.02974	0.6062112	1	15.04196	2.309722	-5.365503E-006	0.0005713	10
	6	24	75421.88	15.04092	0.4293542	1	15.04704	1.635107	-2.930183E-005	0.0006136	10
	7	27	59859.37	15.05411	0.2799674	1	15.05672	1.06543	-2.338317E-005	0.0006374	10
	8	29	47578.12	15.07119	0.1504706	1	15.07194	0.5720215	-6.769258E-006	0.000633	10
	9	32	37828.12	15.08843	0.0321242	1	15.08847	0.121986	-3.550012E-006	0.000701	10
	10	34	30046.88	15.10472	-0.0844609	1	15.10496	-0.320377	-1.331795E-005	0.0007142	10
	11	37	23859.38	15.12234	-0.2003901	1	15.12366	-0.7591971	9.992656E-006	0.000672	10
	12	39	18984.38	15.14369	-0.325659	1	15.14719	-1.231933	-2.951275E-005	0.0006947	10
	13	41	15046.87	15.16468	-0.4663557	1	15.17185	-1.761448	-1.240554E-005	0.0007151	10
	14	44	11953.13	15.19061	-0.6270918	1	15.20355	-2.363916	1.718816E-005	0.0006719	10
	15	46	9515.62	15.21953	-0.8119063	1	15.24117	-3.053626	-1.815195E-005	0.0006704	10
	16	48	7546.875	15.25406	-1.037843	1	15.28933	-3.892242	-2.416318E-005	0.0006909	10
	17	51	5928.309	15.2951	-1.325946	1	15.35246	-4.954635	-1.747154E-005	0.0006496	10
	18	53	4733.456	15.34138	-1.653096	1	15.43019	-6.150122	-2.562869E-005	0.0006938	10
	19	55	3796.875	15.39507	-2.041958	1	15.5299	-7.555446	-2.405382E-005	0.0006911	10
	20	58	2987.132	15.46584	-2.564987	1	15.6771	-9.416707	-2.966664E-005	0.0006779	10
	21	60	2390.625	15.54307	-3.166866	1	15.86241	-11.51626	-1.295236E-005	0.000633	10
	22	62	1884.191	15.65075	-3.957941	1	16.14346	-14.19206	-2.78113E-005	0.0006748	10
	23	65	1516.544	15.77055	-4.843722	1	16.49763	-17.07367	-3.99292E-006	0.0006128	10
	24	67	1193.986	15.93254	-6.053033	1	17.04362	-20.80261	-2.321592E-005	0.0007155	10
	25	69	946.5144	16.13727	-7.50391	1	17.79663	-24.93866	2.138237E-005	0.0006061	10
	26	72	751.7689	16.38306	-9.294097	1	18.83574	-29.5662	-2.925188E-005	0.0006763	10
	27	74	597.4265	16.69459	-11.4837	1	20.26289	-34.5229	2.151754E-005	0.0006453	10
	28	76	477.4305	17.082	-14.11222	1	22.15738	-39.56167	-3.157137E-006	0.0006554	10
	29	79	376.6741	17.60049	-17.54157	1	24.84922	-44.90393	-3.4835E-006	0.0006526	10
	30	81	298.2954	18.25637	-21.71777	1	28.37176	-49.94895	-2.828071E-006	0.000662	10
	31	83	237.7717	19.0664	-26.70533	1	32.81314	-54.47488	-3.354136E-006	0.0007053	10
	32	86	189.0121	20.1097	-32.89175	1	38.55214	-58.55878	-2.709872E-006	0.0006594	10
	33	88	150.2404	21.40666	-40.42073	1	45.73927	-62.09448	1.142194E-006	6.029829E-005	9
	34	91	119.1737	23.0865	-49.76347	1	54.8579	-65.11225	1.063838E-006	6.033762E-005	9
	35	93	95.0169	25.12391	-60.91375	1	65.89155	-67.58627	1.021836E-006	6.490208E-005	9
	36	96	75.60484	27.64214	-74.63033	1	79.58501	-69.676	1.032649E-006	6.528276E-005	9
	37	98	54.50582	32.20316	-99.7279	1	104.7984	-72.1042	9.886495E-007	6.668492E-005	9
	38	101	45.95588	35.1243	-116.0165	1	121.2169	-73.15617	1.059524E-006	6.55175E-005	9
	39	103	37.20238	39.35134	-139.9283	1	145.3563	-74.29269	1.054271E-006	6.827681E-005	9
	40	105	30.04808	44.48152	-169.2114	1	174.9603	-75.27158	1.081644E-006	5.606058E-005	9
	41	108	23.91582	51.15915	-207.4225	1	213.6384	-76.14497	1.02148E-006	6.477493E-005	9
	42	110	18.60119	60.44061	-259.7854	1	266.7237	-76.90279	1.021167E-006	6.350174E-005	9
	43	112	15.02404	70.36568	-314.7447	1	322.5144	-77.39793	1.017507E-006	5.376209E-005	9
	44	115	12.01923	83.54599	-384.5412	1	393.5122	-77.74233	1.210746E-006	6.192652E-005	9
	45	117	9.450605	101.49	-475.378	1	486.091	-77.94866	3.256472E-007	0.000658	8
	46	120	7.512019	124.401	-583.9802	1	597.0834	-77.97445	3.870811E-007	0.0006473	8
	47	122	5.978954	154.0406	-715.5555	1	731.9482	-77.85111	3.887421E-007	0.0006446	8
	48	125	4.734848	193.9112	-880.5116	1	901.6109	-77.58025	5.264242E-007	0.0006611	8
	49	129	3.75601	247.4686	-1078.658	1	1106.681	-77.07865	4.160943E-007	0.0006262	8
	50	132	3.004808	314.6899	-1309.069	1	1346.363	-76.48302	4.171456E-007	0.0006703	8
	51	136	2.372217	409.8713	-1604.144	1	1655.678	-75.66713	4.62399E-007	0.0007114	8
	52	140	1.878005	531.9242	-1952.515	1	2023.675	-74.76073	4.445418E-007	0.0006162	8
	53	145	1.512097	681.5448	-2332.165	1	2429.712	-73.70969	4.634377E-007	0.000721	8
	54	150	1.201923	881.559	-2813.993	1	2948.848	-72.60543	4.677891E-007	0.0006055	8
	55	157	0.956633	1136.833	-3373.229	1	3559.643	-71.37534	4.009012E-007	-5.415308E-006	8
