EXPLAIN
TAG	EISPOT
TITLE	LABEL	Potentiostatic EIS	Test Identifier
DATE	LABEL	9/22/2020	Date
TIME	LABEL	2:51:46	Time
NOTES	NOTES	1	Notes...
	
PSTAT	PSTAT	REF3000-16137	Potentiostat
VDC	POTEN	0.00000E+000	T	DC Voltage (V)
FREQINIT	QUANT	3.00000E+005	Initial Freq. (Hz)
FREQFINAL	QUANT	1.00000E+000	Final Freq. (Hz)
PTSPERDEC	QUANT	1.00000E+001	Points/decade
VAC	QUANT	5.00000E+001	AC Voltage (mV rms)
AREA	QUANT	1.00000E+000	Sample Area (cm^2)
SPEED	SELECTOR	2	Optimize for:
ZGUESS	QUANT	1.00000E+003	Estimated Z (ohms)
EOC	QUANT	0	Open Circuit (V)
SEQUENCER	TOGGLE	TRUE	Run as Sequence
PSTATMODEL	IQUANT	5	Pstat Model
PSTATSECTION	LABEL	REF3000-16137	Pstat Section
PSTATSERIALNO	LABEL	16137	Pstat Serial Number
CTRLMODE	IQUANT	1	Control Mode
IESTAB	IQUANT	0	I/E Stability
CASPEED	IQUANT	1	Control Amp Speed
CONVENTION	IQUANT	1	Current Convention
ICHRANGE	IQUANT	2	Ich Range
ICHRANGEMODE	TOGGLE	F	Ich Auto Range
ICHOFFSETENABLE	TOGGLE	T	Ich Offset Enable
ICHOFFSET	QUANT	0	Ich Offset (V)
ICHFILTER	IQUANT	3	Ich Filter
VCHRANGE	IQUANT	2	Vch Range
VCHRANGEMODE	TOGGLE	F	Vch Auto Range
VCHOFFSETENABLE	TOGGLE	T	Vch Offset Enable
VCHOFFSET	QUANT	0	Vch Offset (V)
VCHFILTER	IQUANT	3	Vch Filter
ACHRANGE	IQUANT	2	Ach Range
ACHOFFSETENABLE	TOGGLE	F	Ach Offset Enable
ACHOFFSET	QUANT	0	Ach Offset (V)
ACHFILTER	IQUANT	3	Ach Filter
IERANGELOWERLIMIT	IQUANT	2	I/E Range Lower Limit
IERANGEMODE	TOGGLE	F	I/E AutoRange
IERANGE	IQUANT	11	I/E Range
POSFEEDENABLE	TOGGLE	F	Positive Feedback IR Comp
POSFEEDRESISTANCE	QUANT	0	Positive Feedback Resistance (ohm)
ACHSELECT	IQUANT	0	Ach Select
CABLEID	IQUANT	13	Cable ID
DCCALDATE	LABEL	7/31/2020	DC Calibration Date
ACCALDATE	LABEL	7/31/2020	AC Calibration Date
THERMOSELECT	IQUANT	1	Thermo Select
FRAMEWORKVERSION	QUANT	6.33	Framework Version
INSTRUMENTVERSION	LABEL	3.50	Instrument Version
COMPLIANCEVOLTAGE	IQUANT	0	Compliance Voltage
ZCURVE	TABLE
	Pt	Time	Freq	Zreal	Zimag	Zsig	Zmod	Zphz	Idc	Vdc	IERange
	#	s	Hz	ohm	ohm	V	ohm	°	A	V	#
	0	20	300046.9	503.4038	-66.9502	1	507.8363	-7.575597	8.22984E-005	-0.0034189	9
	1	33	238359.4	512.1335	-58.14529	1	515.4238	-6.477363	-0.0001043	0.0035677	9
	2	46	189328.1	523.6295	-48.51494	1	525.8722	-5.293415	-8.47574E-005	0.003742	9
	3	54	150421.9	526.1854	-40.04163	1	527.7067	-4.351704	7.388934E-005	-0.0014613	9
	4	61	119484.4	527.3783	-33.12357	1	528.4175	-3.593912	2.394147E-005	-0.0013653	9
	5	66	94921.88	531.377	-9.75679	1	531.4666	-1.051909	-7.964652E-006	-0.000114	8
	6	68	75421.88	532.1975	-9.83869	1	532.2885	-1.059101	-1.120232E-005	0.0013914	8
	7	71	59859.37	533.8085	-7.488659	1	533.8611	-0.8037347	-2.470803E-006	-0.0021797	8
	8	74	47578.12	533.6624	-7.292885	1	533.7122	-0.7829399	6.55774E-007	0.004177	8
	9	76	37828.12	535.6982	-6.41712	1	535.7367	-0.6863124	-1.370027E-005	0.0028157	8
	10	79	30046.88	536.7639	-5.088472	1	536.788	-0.5431424	-1.008826E-005	0.0066407	8
	11	81	23859.38	538.379	-4.189968	1	538.3953	-0.445899	5.636487E-006	0.0021254	8
	12	84	18984.38	538.7742	-4.036887	1	538.7894	-0.4292935	1.557189E-005	-0.0054578	8
	13	86	15046.87	538.0703	-3.235582	1	538.08	-0.3445329	1.671245E-005	-0.0047225	8
	14	88	11953.13	540.4468	-3.810564	1	540.4602	-0.4039725	8.80774E-006	-0.0052886	8
	15	91	9515.62	541.5557	-3.71584	1	541.5685	-0.3931241	-1.423974E-005	0.0031269	8
	16	93	7546.875	544.1646	-3.262817	1	544.1744	-0.343542	1.556098E-005	-0.0022996	8
	17	95	5928.309	543.019	-3.678961	1	543.0314	-0.3881738	2.907517E-006	-0.0038103	8
	18	98	4733.456	544.5886	-4.318221	1	544.6057	-0.4543074	1.244405E-005	-0.0003313	8
	19	100	3796.875	546.7734	-4.75174	1	546.794	-0.4979171	-1.643168E-005	0.0055496	8
	20	103	2987.132	548.1597	-3.060642	1	548.1683	-0.3199069	-1.003129E-005	0.0068066	8
	21	105	2390.625	548.9471	-6.734019	1	548.9885	-0.7028208	1.507526E-005	-0.0052071	8
	22	108	1884.191	548.7573	-8.226147	1	548.8189	-0.8588281	1.211654E-005	-0.0055091	8
	23	110	1516.544	551.1484	-7.324487	1	551.1971	-0.7613874	-1.084202E-005	0.0069998	8
	24	113	1193.986	550.5974	-9.91473	1	550.6866	-1.031626	1.542397E-005	-0.0023132	8
	25	115	946.5144	553.3926	-13.52667	1	553.5579	-1.400212	-2.692986E-006	-0.0023652	8
	26	118	751.7689	553.966	-13.47853	1	554.1299	-1.393787	-1.406449E-005	0.0069124	8
	27	120	597.4265	555.8632	-16.91027	1	556.1204	-1.742494	1.2287E-005	-0.0004328	8
	28	122	477.4305	557.1558	-21.53553	1	557.5718	-2.21353	-1.553041E-007	0.000644	8
	29	125	376.6741	558.7855	-26.67797	1	559.4219	-2.733384	-1.323113E-007	0.0006288	8
	30	127	298.2954	560.5523	-32.97722	1	561.5215	-3.366823	-1.559811E-007	0.0006502	8
	31	129	237.7717	562.5117	-40.57753	1	563.9733	-4.125961	-1.483944E-007	0.0006441	8
	32	132	189.0121	564.7281	-50.08266	1	566.9445	-5.067993	-1.256059E-007	0.0006345	8
	33	134	150.2404	567.2219	-61.82598	1	570.5814	-6.220561	-1.355469E-007	0.000634	8
	34	137	119.1737	570.1599	-76.50401	1	575.2696	-7.642297	-1.356929E-007	0.000643	8
	35	139	95.0169	573.5437	-94.21739	1	581.2308	-9.328796	-1.518203E-007	0.0006475	8
	36	141	75.60484	577.601	-116.2222	1	589.1778	-11.37687	-1.543615E-007	0.0006376	8
	37	144	54.50582	584.4616	-156.9176	1	605.1599	-15.02849	-1.211731E-007	0.0006241	8
	38	147	45.95588	589.3918	-183.4511	1	617.282	-17.28901	-1.921237E-007	0.0006431	8
	39	149	37.20238	596.2322	-222.5617	1	636.4169	-20.46961	-1.327048E-007	0.0006406	8
	40	151	30.04808	604.683	-270.3647	1	662.3735	-24.09028	-1.505648E-007	0.0006349	8
	41	154	23.91582	615.597	-332.6499	1	699.7254	-28.38544	-7.703904E-008	0.0006459	8
	42	156	18.60119	630.7396	-417.8151	1	756.5724	-33.52133	-2.563763E-007	0.0006343	8
	43	158	15.02404	646.714	-506.132	1	821.2239	-38.04749	-2.020315E-007	0.0006267	8
	44	161	12.01923	667.4133	-618.772	1	910.1205	-42.83421	-3.51044E-008	0.0006386	8
	45	163	9.450605	694.392	-767.707	1	1035.159	-47.87061	-1.440989E-007	0.0006239	8
	46	166	7.512019	727.2235	-943.2971	1	1191.077	-52.37001	-1.650929E-007	0.0006464	8
	47	168	5.978954	768.2161	-1155.979	1	1387.964	-56.39363	-1.154011E-007	0.0006424	8
	48	171	4.734848	821.7115	-1422.879	1	1643.105	-59.99359	-1.053344E-007	0.0006383	8
	49	175	3.75601	885.9868	-1747.417	1	1959.194	-63.11378	-1.230166E-007	0.0006615	8
	50	178	3.004808	963.21	-2125.613	1	2333.667	-65.6226	-1.349022E-007	0.0006619	8
	51	182	2.372217	1065.71	-2611.188	1	2820.291	-67.79803	-1.455853E-007	0.0006186	8
	52	186	1.878005	1190.293	-3211.271	1	3424.771	-69.66222	-1.173002E-007	0.000627	8
	53	191	1.512097	1322.773	-3880.59	1	4099.842	-71.17735	-1.358615E-007	0.0007253	8
	54	196	1.201923	1504.805	-4757.151	1	4989.482	-72.44654	-1.759055E-008	0.0006096	7
	55	202	0.956633	1711.808	-5808.351	1	6055.347	-73.57896	-4.670055E-008	-2.648145E-005	7
