EXPLAIN
TAG	EISPOT
TITLE	LABEL	Potentiostatic EIS	Test Identifier
DATE	LABEL	9/22/2020	Date
TIME	LABEL	1:42:38	Time
NOTES	NOTES	1	Notes...
	
PSTAT	PSTAT	REF3000-16137	Potentiostat
VDC	POTEN	0.00000E+000	T	DC Voltage (V)
FREQINIT	QUANT	3.00000E+005	Initial Freq. (Hz)
FREQFINAL	QUANT	1.00000E+000	Final Freq. (Hz)
PTSPERDEC	QUANT	1.00000E+001	Points/decade
VAC	QUANT	5.00000E+001	AC Voltage (mV rms)
AREA	QUANT	1.00000E+000	Sample Area (cm^2)
SPEED	SELECTOR	2	Optimize for:
ZGUESS	QUANT	1.00000E+003	Estimated Z (ohms)
EOC	QUANT	0	Open Circuit (V)
SEQUENCER	TOGGLE	TRUE	Run as Sequence
PSTATMODEL	IQUANT	5	Pstat Model
PSTATSECTION	LABEL	REF3000-16137	Pstat Section
PSTATSERIALNO	LABEL	16137	Pstat Serial Number
CTRLMODE	IQUANT	1	Control Mode
IESTAB	IQUANT	0	I/E Stability
CASPEED	IQUANT	1	Control Amp Speed
CONVENTION	IQUANT	1	Current Convention
ICHRANGE	IQUANT	2	Ich Range
ICHRANGEMODE	TOGGLE	F	Ich Auto Range
ICHOFFSETENABLE	TOGGLE	T	Ich Offset Enable
ICHOFFSET	QUANT	0	Ich Offset (V)
ICHFILTER	IQUANT	3	Ich Filter
VCHRANGE	IQUANT	2	Vch Range
VCHRANGEMODE	TOGGLE	F	Vch Auto Range
VCHOFFSETENABLE	TOGGLE	T	Vch Offset Enable
VCHOFFSET	QUANT	0	Vch Offset (V)
VCHFILTER	IQUANT	3	Vch Filter
ACHRANGE	IQUANT	2	Ach Range
ACHOFFSETENABLE	TOGGLE	F	Ach Offset Enable
ACHOFFSET	QUANT	0	Ach Offset (V)
ACHFILTER	IQUANT	3	Ach Filter
IERANGELOWERLIMIT	IQUANT	2	I/E Range Lower Limit
IERANGEMODE	TOGGLE	F	I/E AutoRange
IERANGE	IQUANT	11	I/E Range
POSFEEDENABLE	TOGGLE	F	Positive Feedback IR Comp
POSFEEDRESISTANCE	QUANT	0	Positive Feedback Resistance (ohm)
ACHSELECT	IQUANT	0	Ach Select
CABLEID	IQUANT	13	Cable ID
DCCALDATE	LABEL	7/31/2020	DC Calibration Date
ACCALDATE	LABEL	7/31/2020	AC Calibration Date
THERMOSELECT	IQUANT	1	Thermo Select
FRAMEWORKVERSION	QUANT	6.33	Framework Version
INSTRUMENTVERSION	LABEL	3.50	Instrument Version
COMPLIANCEVOLTAGE	IQUANT	0	Compliance Voltage
ZCURVE	TABLE
	Pt	Time	Freq	Zreal	Zimag	Zsig	Zmod	Zphz	Idc	Vdc	IERange
	#	s	Hz	ohm	ohm	V	ohm	°	A	V	#
	0	7	300046.9	52.481	2.219641	1	52.52791	2.421835	-6.41628E-006	0.0003764	9
	1	10	238359.4	52.64473	1.663845	1	52.67101	1.81024	-4.212034E-005	0.0003396	9
	2	13	189328.1	52.74448	1.347332	1	52.76168	1.463275	5.771168E-005	-0.0019977	9
	3	16	150421.9	52.786	1.001164	1	52.7955	1.086568	-5.976551E-005	0.0015352	9
	4	18	119484.4	52.89954	0.7290868	1	52.90456	0.7896279	2.053346E-006	-0.0009333	9
	5	21	94921.88	52.99415	0.7428627	1	52.99936	0.8031096	1.803339E-005	-0.0005477	9
	6	23	75421.88	53.03394	0.5205868	1	53.0365	0.5624034	1.074621E-005	4.159494E-005	9
	7	26	59859.37	53.08475	0.3159591	1	53.08569	0.341019	-9.63881E-006	0.0005524	9
	8	28	47578.12	53.13841	0.1278301	1	53.13857	0.1378309	4.313226E-006	-0.000394	9
	9	31	37828.12	53.22515	-0.0265927	1	53.22516	-0.0286265	4.030351E-007	-0.0002968	9
	10	33	30046.88	53.29312	-0.147766	1	53.29332	-0.1588638	-8.539592E-006	8.618947E-006	9
	11	36	23859.38	53.36825	-0.2984459	1	53.36909	-0.3204061	1.861387E-005	-0.0005755	9
	12	38	18984.38	53.42808	-0.433208	1	53.42984	-0.4645581	-8.445105E-006	1.244329E-005	9
	13	40	15046.87	53.50778	-0.5889146	1	53.51102	-0.6305804	-1.58952E-005	0.0005555	9
	14	43	11953.13	53.57917	-0.7779341	1	53.58482	-0.8318383	-1.191779E-005	0.000197	9
	15	45	9515.62	53.64624	-0.974385	1	53.65509	-1.040558	1.830046E-005	-0.0002609	9
	16	47	7546.875	53.76246	-1.242149	1	53.77681	-1.323549	-1.369889E-005	0.0003505	9
	17	50	5928.309	53.82543	-1.561978	1	53.84809	-1.662219	-1.419112E-005	0.0003567	9
	18	52	4733.456	53.90646	-1.920633	1	53.94067	-2.040528	-9.706086E-006	0.0006486	9
	19	54	3796.875	54.03496	-2.412343	1	54.08878	-2.556222	-1.575778E-005	0.0005902	9
	20	57	2987.132	54.15108	-2.983631	1	54.23321	-3.15371	1.764848E-005	-0.0005144	9
	21	59	2390.625	54.29461	-3.689666	1	54.41983	-3.887637	1.701994E-005	-0.0001153	9
	22	61	1884.191	54.46122	-4.626807	1	54.6574	-4.85596	-1.501339E-005	0.0003705	9
	23	64	1516.544	54.62738	-5.625396	1	54.91626	-5.879457	-1.20034E-005	0.000171	9
	24	66	1193.986	54.86108	-7.01394	1	55.30763	-7.285689	-1.34833E-005	0.0006777	9
	25	68	946.5144	55.12596	-8.741677	1	55.81477	-9.01073	-1.049438E-005	0.0006412	9
	26	71	751.7689	55.43579	-10.80192	1	56.47839	-11.02619	-1.009229E-005	0.0006542	9
	27	73	597.4265	55.81981	-13.36317	1	57.39709	-13.46313	-1.377365E-005	0.0003422	9
	28	75	477.4305	56.27622	-16.42251	1	58.62347	-16.26829	1.296837E-006	6.399208E-005	9
	29	78	376.6741	56.87355	-20.43552	1	60.43352	-19.76412	1.199539E-006	5.68481E-005	9
	30	80	298.2954	57.60674	-25.33291	1	62.93086	-23.73778	1.205268E-006	6.702157E-005	9
	31	82	237.7717	58.49915	-31.19917	1	66.29885	-28.0722	1.208205E-006	6.061099E-005	9
	32	85	189.0121	59.62474	-38.49998	1	70.97434	-32.85052	1.236872E-006	6.0533E-005	9
	33	87	150.2404	61.03392	-47.4856	1	77.3306	-37.88362	1.219262E-006	6.408735E-005	9
	34	90	119.1737	62.81891	-58.64626	1	85.93951	-43.03251	1.233361E-006	5.91168E-005	9
	35	92	95.0169	65.01636	-72.06259	1	97.0574	-47.94257	1.283089E-006	6.354653E-005	9
	36	94	75.60484	67.80864	-88.66039	1	111.6184	-52.59076	1.242397E-006	6.404846E-005	9
	37	97	54.50582	73.10955	-119.1435	1	139.7862	-58.46563	1.276519E-006	6.088447E-005	9
	38	100	45.95588	76.68642	-138.8929	1	158.657	-61.09576	1.243962E-006	6.907191E-005	9
	39	102	37.20238	82.02824	-167.802	1	186.7783	-63.94879	1.23951E-006	6.659732E-005	9
	40	104	30.04808	88.60025	-202.9672	1	221.4626	-66.41753	1.31496E-006	6.151592E-005	9
	41	107	23.91582	97.2048	-248.4621	1	266.7999	-68.63327	1.303645E-006	5.854057E-005	9
	42	109	18.60119	108.8477	-310.3382	1	328.8733	-70.67225	1.237983E-006	6.275951E-005	9
	43	111	15.02404	120.757	-374.6035	1	393.5861	-72.13278	1.250951E-006	6.064992E-005	9
	44	114	12.01923	135.2309	-454.3558	1	474.0534	-73.4253	2.498059E-007	0.0006361	8
	45	116	9.450605	154.5756	-562.2499	1	583.1111	-74.62783	2.714813E-007	0.000653	8
	46	119	7.512019	177.1575	-689.5515	1	711.9453	-75.59137	3.245669E-007	0.0006569	8
	47	121	5.978954	204.9785	-844.8878	1	869.3973	-76.36294	3.249613E-007	0.0006417	8
	48	124	4.734848	240.1145	-1040.808	1	1068.146	-77.00915	3.722792E-007	0.0006689	8
	49	128	3.75601	285.0234	-1280.873	1	1312.202	-77.45478	3.0505E-007	0.0006251	8
	50	131	3.004808	340.1412	-1563.702	1	1600.269	-77.72802	3.228782E-007	0.0006627	8
	51	135	2.372217	416.8623	-1933.588	1	1978.013	-77.83381	3.41534E-007	0.000723	8
	52	139	1.878005	513.0738	-2381.818	1	2436.453	-77.84352	3.248438E-007	0.0006142	8
	53	144	1.512097	633.5874	-2881.402	1	2950.239	-77.59867	3.590862E-007	0.0007009	8
	54	149	1.201923	794.5235	-3536.67	1	3624.818	-77.33854	3.506381E-007	0.0006236	8
	55	156	0.956633	1008.013	-4327.464	1	4443.314	-76.88769	-2.403966E-008	-2.450295E-005	7
