EXPLAIN
TAG	EISPOT
TITLE	LABEL	Potentiostatic EIS	Test Identifier
DATE	LABEL	9/22/2020	Date
TIME	LABEL	2:01:53	Time
NOTES	NOTES	1	Notes...
	
PSTAT	PSTAT	REF3000-16137	Potentiostat
VDC	POTEN	0.00000E+000	T	DC Voltage (V)
FREQINIT	QUANT	3.00000E+005	Initial Freq. (Hz)
FREQFINAL	QUANT	1.00000E+000	Final Freq. (Hz)
PTSPERDEC	QUANT	1.00000E+001	Points/decade
VAC	QUANT	5.00000E+001	AC Voltage (mV rms)
AREA	QUANT	1.00000E+000	Sample Area (cm^2)
SPEED	SELECTOR	2	Optimize for:
ZGUESS	QUANT	1.00000E+003	Estimated Z (ohms)
EOC	QUANT	0	Open Circuit (V)
SEQUENCER	TOGGLE	TRUE	Run as Sequence
PSTATMODEL	IQUANT	5	Pstat Model
PSTATSECTION	LABEL	REF3000-16137	Pstat Section
PSTATSERIALNO	LABEL	16137	Pstat Serial Number
CTRLMODE	IQUANT	1	Control Mode
IESTAB	IQUANT	0	I/E Stability
CASPEED	IQUANT	1	Control Amp Speed
CONVENTION	IQUANT	1	Current Convention
ICHRANGE	IQUANT	2	Ich Range
ICHRANGEMODE	TOGGLE	F	Ich Auto Range
ICHOFFSETENABLE	TOGGLE	T	Ich Offset Enable
ICHOFFSET	QUANT	0	Ich Offset (V)
ICHFILTER	IQUANT	3	Ich Filter
VCHRANGE	IQUANT	2	Vch Range
VCHRANGEMODE	TOGGLE	F	Vch Auto Range
VCHOFFSETENABLE	TOGGLE	T	Vch Offset Enable
VCHOFFSET	QUANT	0	Vch Offset (V)
VCHFILTER	IQUANT	3	Vch Filter
ACHRANGE	IQUANT	2	Ach Range
ACHOFFSETENABLE	TOGGLE	F	Ach Offset Enable
ACHOFFSET	QUANT	0	Ach Offset (V)
ACHFILTER	IQUANT	3	Ach Filter
IERANGELOWERLIMIT	IQUANT	2	I/E Range Lower Limit
IERANGEMODE	TOGGLE	F	I/E AutoRange
IERANGE	IQUANT	11	I/E Range
POSFEEDENABLE	TOGGLE	F	Positive Feedback IR Comp
POSFEEDRESISTANCE	QUANT	0	Positive Feedback Resistance (ohm)
ACHSELECT	IQUANT	0	Ach Select
CABLEID	IQUANT	13	Cable ID
DCCALDATE	LABEL	7/31/2020	DC Calibration Date
ACCALDATE	LABEL	7/31/2020	AC Calibration Date
THERMOSELECT	IQUANT	1	Thermo Select
FRAMEWORKVERSION	QUANT	6.33	Framework Version
INSTRUMENTVERSION	LABEL	3.50	Instrument Version
COMPLIANCEVOLTAGE	IQUANT	0	Compliance Voltage
ZCURVE	TABLE
	Pt	Time	Freq	Zreal	Zimag	Zsig	Zmod	Zphz	Idc	Vdc	IERange
	#	s	Hz	ohm	ohm	V	ohm	°	A	V	#
	0	7	300046.9	88.50383	1.122225	1	88.51095	0.7264695	4.603031E-005	-0.0007083	9
	1	10	238359.4	88.91631	0.7150942	1	88.91918	0.4607816	1.361681E-005	-0.0014052	9
	2	13	189328.1	88.81753	0.410343	1	88.81847	0.2647085	1.124255E-005	0.000534	9
	3	16	150421.9	89.26852	0.2728957	1	89.26894	0.1751538	-6.889048E-005	0.0018656	9
	4	18	119484.4	89.32197	0.2419964	1	89.3223	0.1552288	1.095082E-005	-0.0006236	9
	5	21	94921.88	89.58307	0.3108571	1	89.58361	0.198818	-2.294425E-006	-0.0003003	9
	6	23	75421.88	89.67811	0.1621248	1	89.67825	0.1035822	1.218491E-005	-0.0006623	9
	7	26	59859.37	89.83289	-0.019467	1	89.83289	-0.0124162	-1.863775E-005	0.0004072	9
	8	28	47578.12	89.95512	-0.1495614	1	89.95524	-0.0952612	1.052496E-005	0.0001154	9
	9	31	37828.12	90.10855	-0.2596783	1	90.10892	-0.1651168	1.02958E-005	0.0001231	9
	10	34	30046.88	90.24646	-0.3321284	1	90.24707	-0.2108611	2.317694E-005	-0.0005628	9
	11	36	23859.38	90.33158	-0.4431585	1	90.33266	-0.2810856	-6.399088E-006	0.0006415	9
	12	38	18984.38	90.48347	-0.5652013	1	90.48523	-0.3578911	4.769067E-006	-0.000479	9
	13	41	15046.87	90.65749	-0.6608335	1	90.6599	-0.4176411	-1.304105E-005	0.0007654	9
	14	43	11953.13	90.70545	-0.8352118	1	90.7093	-0.5275621	2.198587E-005	-0.0006595	9
	15	45	9515.62	90.86859	-1.11496	1	90.87543	-0.7029857	-1.847881E-005	0.000726	9
	16	48	7546.875	91.10394	-1.329512	1	91.11363	-0.8360783	-2.237865E-005	0.0007236	9
	17	50	5928.309	91.13121	-1.679655	1	91.14669	-1.055909	2.213969E-005	-0.0005419	9
	18	52	4733.456	91.2664	-2.11948	1	91.29101	-1.330341	1.720368E-005	-0.0006802	9
	19	55	3796.875	91.48783	-2.544623	1	91.52321	-1.593202	2.2311E-005	-0.000681	9
	20	57	2987.132	91.67593	-3.191205	1	91.73145	-1.99364	1.015043E-005	0.0001853	9
	21	59	2390.625	91.8466	-3.948938	1	91.93146	-2.461912	-1.938421E-005	0.0007594	9
	22	62	1884.191	91.9648	-5.00581	1	92.10094	-3.115638	-1.437508E-005	0.0001824	9
	23	64	1516.544	92.33006	-5.995472	1	92.52451	-3.715298	-1.994705E-005	0.0007555	9
	24	66	1193.986	92.57767	-7.463723	1	92.87804	-4.609286	2.252276E-005	-0.0005438	9
	25	69	946.5144	92.89547	-9.318098	1	93.36163	-5.728028	2.908122E-006	0.0004056	9
	26	71	751.7689	93.38432	-11.39071	1	94.07645	-6.954399	2.168698E-005	-0.0002669	9
	27	73	597.4265	93.78739	-14.21549	1	94.8586	-8.618803	1.001216E-005	0.0001822	9
	28	76	477.4305	94.27416	-17.44053	1	95.8738	-10.4811	1.183912E-006	5.65702E-005	9
	29	78	376.6741	94.93875	-21.70775	1	97.3889	-12.87928	1.144075E-006	5.858404E-005	9
	30	80	298.2954	95.741	-26.92292	1	99.4544	-15.70629	1.217073E-006	5.422643E-005	9
	31	83	237.7717	96.7109	-33.17685	1	102.2433	-18.93463	1.138123E-006	5.89984E-005	9
	32	85	189.0121	97.9217	-40.97337	1	106.1483	-22.7059	1.159048E-006	6.289624E-005	9
	33	87	150.2404	99.4285	-50.56833	1	111.549	-26.95742	1.143487E-006	6.567605E-005	9
	34	90	119.1737	101.3216	-62.49891	1	119.0469	-31.66783	1.133854E-006	6.596253E-005	9
	35	92	95.0169	103.6347	-76.83541	1	129.011	-36.55346	1.154022E-006	5.70342E-005	9
	36	95	75.60484	106.5519	-94.58231	1	142.475	-41.59432	1.164591E-006	5.507979E-005	9
	37	97	54.50582	111.9953	-127.2431	1	169.5103	-48.64678	1.126823E-006	5.8951E-005	9
	38	100	45.95588	115.691	-148.4682	1	188.2212	-52.07318	1.171312E-006	5.82753E-005	9
	39	102	37.20238	121.1683	-179.6414	1	216.6859	-56.0003	9.306483E-007	0.0001004	9
	40	105	30.04808	128.1133	-217.661	1	252.5655	-59.51932	1.075851E-006	5.7577E-005	9
	41	107	23.91582	137.2979	-266.9811	1	300.216	-62.78502	1.157897E-006	5.349397E-005	9
	42	109	18.60119	149.9839	-333.8691	1	366.0107	-65.80897	1.072293E-006	6.553285E-005	9
	43	112	15.02404	162.7615	-401.666	1	433.39	-67.94142	2.391563E-007	0.0006457	8
	44	114	12.01923	179.596	-489.1135	1	521.0439	-69.83743	1.131893E-007	0.0006318	8
	45	116	9.450605	201.365	-604.5161	1	637.1715	-71.57703	1.649469E-007	0.0006468	8
	46	119	7.512019	226.7663	-739.8094	1	773.7836	-72.95866	1.698524E-007	0.0006198	8
	47	122	5.978954	256.929	-905.0948	1	940.8556	-74.15237	2.039585E-007	0.000637	8
	48	125	4.734848	294.1642	-1113.011	1	1151.228	-75.19547	1.668117E-007	0.0006145	8
	49	128	3.75601	340.4698	-1367.185	1	1408.941	-76.01609	2.547791E-007	0.0006545	8
	50	131	3.004808	394.8745	-1667.086	1	1713.214	-76.67422	2.190127E-007	0.0006362	8
	51	135	2.372217	471.5097	-2058.576	1	2111.885	-77.09914	2.050215E-007	0.0005974	8
	52	139	1.878005	562.0544	-2541.305	1	2602.718	-77.52879	2.501477E-007	0.000625	8
	53	144	1.512097	668.4561	-3078.132	1	3149.878	-77.74772	2.13528E-007	0.0006538	8
	54	149	1.201923	822.4836	-3789.438	1	3877.67	-77.7541	2.412076E-007	0.0006455	8
	55	156	0.956633	1021.039	-4649.728	1	4760.513	-77.61492	-2.129649E-008	-2.213575E-005	7
