EXPLAIN
TAG	EISPOT
TITLE	LABEL	Potentiostatic EIS	Test Identifier
DATE	LABEL	9/22/2020	Date
TIME	LABEL	3:36:46	Time
NOTES	NOTES	1	Notes...
	
PSTAT	PSTAT	REF3000-16137	Potentiostat
VDC	POTEN	0.00000E+000	T	DC Voltage (V)
FREQINIT	QUANT	3.00000E+005	Initial Freq. (Hz)
FREQFINAL	QUANT	1.00000E+000	Final Freq. (Hz)
PTSPERDEC	QUANT	1.00000E+001	Points/decade
VAC	QUANT	5.00000E+001	AC Voltage (mV rms)
AREA	QUANT	1.00000E+000	Sample Area (cm^2)
SPEED	SELECTOR	2	Optimize for:
ZGUESS	QUANT	1.00000E+003	Estimated Z (ohms)
EOC	QUANT	0	Open Circuit (V)
SEQUENCER	TOGGLE	TRUE	Run as Sequence
PSTATMODEL	IQUANT	5	Pstat Model
PSTATSECTION	LABEL	REF3000-16137	Pstat Section
PSTATSERIALNO	LABEL	16137	Pstat Serial Number
CTRLMODE	IQUANT	1	Control Mode
IESTAB	IQUANT	0	I/E Stability
CASPEED	IQUANT	1	Control Amp Speed
CONVENTION	IQUANT	1	Current Convention
ICHRANGE	IQUANT	2	Ich Range
ICHRANGEMODE	TOGGLE	F	Ich Auto Range
ICHOFFSETENABLE	TOGGLE	T	Ich Offset Enable
ICHOFFSET	QUANT	0	Ich Offset (V)
ICHFILTER	IQUANT	3	Ich Filter
VCHRANGE	IQUANT	2	Vch Range
VCHRANGEMODE	TOGGLE	F	Vch Auto Range
VCHOFFSETENABLE	TOGGLE	T	Vch Offset Enable
VCHOFFSET	QUANT	0	Vch Offset (V)
VCHFILTER	IQUANT	3	Vch Filter
ACHRANGE	IQUANT	2	Ach Range
ACHOFFSETENABLE	TOGGLE	F	Ach Offset Enable
ACHOFFSET	QUANT	0	Ach Offset (V)
ACHFILTER	IQUANT	3	Ach Filter
IERANGELOWERLIMIT	IQUANT	2	I/E Range Lower Limit
IERANGEMODE	TOGGLE	F	I/E AutoRange
IERANGE	IQUANT	11	I/E Range
POSFEEDENABLE	TOGGLE	F	Positive Feedback IR Comp
POSFEEDRESISTANCE	QUANT	0	Positive Feedback Resistance (ohm)
ACHSELECT	IQUANT	0	Ach Select
CABLEID	IQUANT	13	Cable ID
DCCALDATE	LABEL	7/31/2020	DC Calibration Date
ACCALDATE	LABEL	7/31/2020	AC Calibration Date
THERMOSELECT	IQUANT	1	Thermo Select
FRAMEWORKVERSION	QUANT	6.33	Framework Version
INSTRUMENTVERSION	LABEL	3.50	Instrument Version
COMPLIANCEVOLTAGE	IQUANT	0	Compliance Voltage
ZCURVE	TABLE
	Pt	Time	Freq	Zreal	Zimag	Zsig	Zmod	Zphz	Idc	Vdc	IERange
	#	s	Hz	ohm	ohm	V	ohm	°	A	V	#
	0	22	300046.9	1833.062	-2262.392	1	2911.792	-50.98452	8.039462E-005	-0.0017692	9
	1	42	238359.4	2274.879	-2335.395	1	3260.237	-45.75203	-2.058898E-005	0.0014778	9
	2	58	189328.1	2832.814	-2441.127	1	3739.51	-40.75254	-2.856504E-005	-0.0010112	9
	3	70	150421.9	3312.199	-2359.499	1	4066.681	-35.46479	-2.010446E-005	0.001255	9
	4	77	119484.4	3846.249	-2058.958	1	4362.676	-28.16084	-7.06604E-006	-0.0128851	8
	5	85	94921.88	4227.647	-1882.414	1	4627.795	-24.00163	6.584272E-006	-0.0069149	8
	6	92	75421.88	4541.573	-1680.441	1	4842.496	-20.30512	8.491971E-006	0.003617	8
	7	100	59859.37	4813.742	-1416.385	1	5017.794	-16.39588	-1.556928E-005	0.0009256	8
	8	107	47578.12	5025.049	-1236.292	1	5174.895	-13.82174	2.055185E-005	-0.0090102	8
	9	115	37828.12	5144.62	-1016.961	1	5244.171	-11.18177	-1.207336E-006	0.0069649	8
	10	122	30046.88	5461.561	-468.3483	1	5481.605	-4.901327	1.762261E-006	0.0091957	7
	11	125	23859.38	5518.725	-379.7804	1	5531.777	-3.936699	-6.166892E-006	0.0191378	7
	12	129	18984.38	5526.618	-306.6387	1	5535.118	-3.175741	3.439162E-006	-0.0214597	7
	13	132	15046.87	5567.94	-255.676	1	5573.807	-2.629137	-2.329131E-006	-0.006152	7
	14	135	11953.13	5598.054	-196.1766	1	5601.49	-2.007035	5.311002E-006	-0.0064155	7
	15	140	9515.62	5605.315	-162.0689	1	5607.658	-1.656157	-4.055458E-006	0.0011177	7
	16	143	7546.875	5638.857	-132.5633	1	5640.415	-1.346713	-3.656731E-006	0.0221583	7
	17	146	5928.309	5630.663	-118.6649	1	5631.913	-1.207317	6.273095E-006	-0.0139497	7
	18	150	4733.456	5636.754	-93.16389	1	5637.524	-0.9468945	3.665506E-006	0.0016465	7
	19	154	3796.875	5686.42	-65.51064	1	5686.798	-0.6600491	-2.315272E-006	-0.0062681	7
	20	157	2987.132	5725.836	-68.69725	1	5726.249	-0.6873884	-3.473936E-007	-0.0127941	7
	21	162	2390.625	5748.013	-54.6016	1	5748.272	-0.5442484	-3.659775E-006	0.0222008	7
	22	165	1884.191	5762.43	-44.17042	1	5762.6	-0.4391774	4.921693E-006	-0.0227846	7
	23	169	1516.544	5791.024	-40.87018	1	5791.168	-0.4043585	-2.343362E-006	-0.0061917	7
	24	173	1193.986	5820.506	-20.86115	1	5820.544	-0.2053517	-6.186081E-006	0.0190958	7
	25	178	946.5144	5796.838	-121.0294	1	5798.102	-1.196077	2.532322E-005	-0.0068172	8
	26	182	751.7689	5805.912	2.487987	1	5805.912	0.0245528	-2.011663E-005	0.0030166	8
	27	185	597.4265	5968.706	-87.97157	1	5969.354	-0.8444099	-9.811636E-006	0.0092979	8
	28	189	477.4305	5893.354	-49.57504	1	5893.563	-0.4819621	-3.993283E-007	0.0006511	8
	29	191	376.6741	5924.746	-45.34341	1	5924.919	-0.438489	-7.655888E-008	0.0005608	7
	30	194	298.2954	5940.261	-52.49335	1	5940.493	-0.5063025	-8.534131E-008	0.0005791	7
	31	196	237.7717	5959.225	-61.19555	1	5959.539	-0.5883522	-8.980973E-008	0.0006302	7
	32	198	189.0121	5973.012	-72.82182	1	5973.456	-0.6985046	-1.043078E-007	0.0006421	7
	33	201	150.2404	5993.084	-87.74126	1	5993.727	-0.8387742	-8.790195E-008	0.000607	7
	34	203	119.1737	6009.15	-106.8832	1	6010.101	-1.018998	-8.03548E-008	0.0006289	7
	35	206	95.0169	6027.535	-129.3487	1	6028.923	-1.229358	-9.878768E-008	0.0006046	7
	36	208	75.60484	6049.114	-158.4489	1	6051.188	-1.500448	-6.971576E-008	0.0006363	7
	37	211	54.50582	6071.609	-212.1457	1	6075.314	-2.001135	-1.051008E-007	0.0005757	7
	38	213	45.95588	6093.667	-245.9363	1	6098.627	-2.311165	-7.182209E-008	0.0006234	7
	39	216	37.20238	6114.684	-298.555	1	6121.968	-2.795299	-3.349468E-008	0.0006051	7
	40	218	30.04808	6141.285	-357.6976	1	6151.693	-3.333412	-1.42585E-007	0.000563	7
	41	220	23.91582	6160.305	-443.3984	1	6176.242	-4.116862	1.315925E-008	0.0006403	7
	42	223	18.60119	6193.4	-562.9244	1	6218.93	-5.193402	4.138589E-009	0.0005777	7
	43	225	15.02404	6233.36	-667.3154	1	6268.978	-6.110555	-1.790036E-007	0.0005738	7
	44	227	12.01923	6267.443	-807.865	1	6319.295	-7.34485	-2.578529E-007	0.0006081	7
	45	230	9.450605	6315.428	-1021.172	1	6397.455	-9.184936	-8.090375E-009	0.0006134	7
	46	232	7.512019	6353.585	-1288.966	1	6483.015	-11.46809	-2.06689E-007	0.000633	7
	47	235	5.978954	6431.19	-1576.475	1	6621.592	-13.77331	-1.384019E-007	0.0005841	7
	48	238	4.734848	6504.701	-1945.152	1	6789.312	-16.64865	-1.446812E-007	0.0006241	7
	49	241	3.75601	6606.202	-2388.684	1	7024.793	-19.87908	-4.912856E-008	0.000626	7
	50	245	3.004808	6731.653	-2922.474	1	7338.666	-23.46755	-4.328298E-008	0.0005561	7
	51	249	2.372217	6881.881	-3593.653	1	7763.674	-27.57314	-8.376203E-008	0.000533	7
	52	253	1.878005	7065.549	-4444.275	1	8347.069	-32.17015	-6.07439E-008	0.0006116	7
	53	258	1.512097	7269.791	-5381.437	1	9044.872	-36.51056	-7.193017E-008	0.0005863	7
	54	263	1.201923	7545.991	-6607.285	1	10029.87	-41.20546	-7.122053E-008	0.0006268	7
	55	269	0.956633	7882.648	-8092.279	1	11296.95	-45.75182	-9.327233E-008	-3.435694E-005	7
