EXPLAIN
TAG	EISPOT
TITLE	LABEL	Potentiostatic EIS	Test Identifier
DATE	LABEL	9/22/2020	Date
TIME	LABEL	1:06:30	Time
NOTES	NOTES	1	Notes...
	
PSTAT	PSTAT	REF3000-16137	Potentiostat
VDC	POTEN	0.00000E+000	T	DC Voltage (V)
FREQINIT	QUANT	3.00000E+005	Initial Freq. (Hz)
FREQFINAL	QUANT	1.00000E+000	Final Freq. (Hz)
PTSPERDEC	QUANT	1.00000E+001	Points/decade
VAC	QUANT	5.00000E+001	AC Voltage (mV rms)
AREA	QUANT	1.00000E+000	Sample Area (cm^2)
SPEED	SELECTOR	2	Optimize for:
ZGUESS	QUANT	1.00000E+003	Estimated Z (ohms)
EOC	QUANT	0	Open Circuit (V)
SEQUENCER	TOGGLE	TRUE	Run as Sequence
PSTATMODEL	IQUANT	5	Pstat Model
PSTATSECTION	LABEL	REF3000-16137	Pstat Section
PSTATSERIALNO	LABEL	16137	Pstat Serial Number
CTRLMODE	IQUANT	1	Control Mode
IESTAB	IQUANT	0	I/E Stability
CASPEED	IQUANT	1	Control Amp Speed
CONVENTION	IQUANT	1	Current Convention
ICHRANGE	IQUANT	2	Ich Range
ICHRANGEMODE	TOGGLE	F	Ich Auto Range
ICHOFFSETENABLE	TOGGLE	T	Ich Offset Enable
ICHOFFSET	QUANT	0	Ich Offset (V)
ICHFILTER	IQUANT	3	Ich Filter
VCHRANGE	IQUANT	2	Vch Range
VCHRANGEMODE	TOGGLE	F	Vch Auto Range
VCHOFFSETENABLE	TOGGLE	T	Vch Offset Enable
VCHOFFSET	QUANT	0	Vch Offset (V)
VCHFILTER	IQUANT	3	Vch Filter
ACHRANGE	IQUANT	2	Ach Range
ACHOFFSETENABLE	TOGGLE	F	Ach Offset Enable
ACHOFFSET	QUANT	0	Ach Offset (V)
ACHFILTER	IQUANT	3	Ach Filter
IERANGELOWERLIMIT	IQUANT	2	I/E Range Lower Limit
IERANGEMODE	TOGGLE	F	I/E AutoRange
IERANGE	IQUANT	11	I/E Range
POSFEEDENABLE	TOGGLE	F	Positive Feedback IR Comp
POSFEEDRESISTANCE	QUANT	0	Positive Feedback Resistance (ohm)
ACHSELECT	IQUANT	0	Ach Select
CABLEID	IQUANT	13	Cable ID
DCCALDATE	LABEL	7/31/2020	DC Calibration Date
ACCALDATE	LABEL	7/31/2020	AC Calibration Date
THERMOSELECT	IQUANT	1	Thermo Select
FRAMEWORKVERSION	QUANT	6.33	Framework Version
INSTRUMENTVERSION	LABEL	3.50	Instrument Version
COMPLIANCEVOLTAGE	IQUANT	0	Compliance Voltage
ZCURVE	TABLE
	Pt	Time	Freq	Zreal	Zimag	Zsig	Zmod	Zphz	Idc	Vdc	IERange
	#	s	Hz	ohm	ohm	V	ohm	°	A	V	#
	0	7	300046.9	23.48631	1.90885	1	23.56375	4.646503	2.40216E-005	-0.0002199	10
	1	10	238359.4	23.52151	1.517649	1	23.57043	3.691706	2.071585E-005	0.0003153	10
	2	13	189328.1	23.52614	0.991977	1	23.54705	2.414439	-2.002717E-005	0.0004607	11
	3	17	150421.9	23.56474	0.9366174	1	23.58335	2.276112	-2.044918E-005	0.000678	10
	4	19	119484.4	23.5676	0.5788357	1	23.57471	1.406939	-7.169549E-005	0.0006592	11
	5	23	94921.88	23.59871	0.5358348	1	23.6048	1.30074	-2.592951E-005	0.0006931	10
	6	26	75421.88	23.61088	0.282297	1	23.61257	0.6850086	-4.244305E-005	0.0005869	11
	7	29	59859.37	23.66238	0.2316453	1	23.66351	0.5608851	2.615862E-005	0.0006423	10
	8	33	47578.12	23.67532	0.0517767	1	23.67537	0.1253027	-1.34067E-005	0.0006339	11
	9	36	37828.12	23.72715	-0.0087297	1	23.72716	-0.0210803	2.263264E-005	0.0006669	10
	10	39	30046.88	23.75481	-0.1211514	1	23.75512	-0.2922105	-2.914684E-005	0.0006626	10
	11	41	23859.38	23.78413	-0.2412691	1	23.78535	-0.5811956	-2.501213E-005	0.0006836	10
	12	44	18984.38	23.81372	-0.3667131	1	23.81655	-0.8822414	2.289218E-005	0.0006226	10
	13	46	15046.87	23.84828	-0.5073218	1	23.85368	-1.218663	6.052771E-006	0.0005911	10
	14	48	11953.13	23.88004	-0.6741648	1	23.88956	-1.617105	4.791772E-006	0.0005942	10
	15	51	9515.62	23.92071	-0.8721152	1	23.93661	-2.087998	2.032708E-005	0.0006398	10
	16	53	7546.875	23.96757	-1.114955	1	23.99349	-2.663439	-1.211201E-005	0.0006426	10
	17	55	5928.309	24.01786	-1.412558	1	24.05936	-3.365849	-1.906582E-005	0.0006462	10
	18	58	4733.456	24.0708	-1.753192	1	24.13456	-4.165771	-6.382786E-006	0.0006887	10
	19	60	3796.875	24.14014	-2.165318	1	24.23706	-5.125591	-1.244745E-005	0.0006332	10
	20	62	2987.132	24.22513	-2.717614	1	24.37709	-6.400771	-2.777222E-005	0.0006853	10
	21	65	2390.625	24.31448	-3.348027	1	24.5439	-7.840144	1.988969E-005	0.0006358	10
	22	67	1884.191	24.44439	-4.182858	1	24.79969	-9.71025	6.031674E-006	0.0005917	10
	23	69	1516.544	24.56536	-5.120049	1	25.09327	-11.77335	1.251256E-005	0.0005989	10
	24	72	1193.986	24.74571	-6.400697	1	25.5601	-14.50222	-2.198751E-005	0.000704	10
	25	74	946.5144	24.95799	-7.936029	1	26.18935	-17.63939	-2.83781E-005	0.0007042	10
	26	76	751.7689	25.22417	-9.82635	1	27.07057	-21.28393	-2.035917E-005	0.0007062	10
	27	79	597.4265	25.55603	-12.15476	1	28.29928	-25.43633	-2.192715E-005	0.0006996	10
	28	81	477.4305	25.95555	-14.93591	1	29.94615	-29.91793	-2.416468E-006	0.0006672	10
	29	83	376.6741	26.49264	-18.57133	1	32.35359	-35.03044	-2.481314E-006	0.0006629	10
	30	86	298.2954	27.1602	-23.00172	1	35.59151	-40.26095	-2.2382E-006	0.0006611	10
	31	88	237.7717	27.94845	-28.2704	1	39.75338	-45.32811	1.163903E-006	6.443342E-005	9
	32	90	189.0121	28.99909	-34.85676	1	45.34248	-50.24123	1.152311E-006	6.016172E-005	9
	33	93	150.2404	30.3341	-42.94925	1	52.58132	-54.76729	1.155205E-006	6.310441E-005	9
	34	95	119.1737	32.04853	-52.97968	1	61.91894	-58.82937	1.149278E-006	7.105034E-005	9
	35	98	95.0169	34.17018	-64.97796	1	73.41483	-62.26131	1.162337E-006	6.053867E-005	9
	36	100	75.60484	36.85188	-79.75076	1	87.85354	-65.1989	1.173575E-006	6.011895E-005	9
	37	103	54.50582	41.82291	-106.7194	1	114.6219	-68.59998	1.178674E-006	6.084554E-005	9
	38	105	45.95588	45.05673	-124.159	1	132.0817	-70.05441	1.078742E-006	7.532204E-005	9
	39	108	37.20238	49.75119	-149.6878	1	157.7391	-71.61493	1.162367E-006	6.798387E-005	9
	40	110	30.04808	55.37841	-180.828	1	189.1178	-72.97284	1.168031E-006	6.66855E-005	9
	41	112	23.91582	62.58253	-221.3337	1	230.0113	-74.21165	1.175375E-006	6.743135E-005	9
	42	115	18.60119	72.36136	-276.7713	1	286.0743	-75.34809	1.201622E-006	6.451717E-005	9
	43	117	15.02404	82.54028	-334.8152	1	344.8393	-76.15131	1.299671E-006	7.011602E-005	9
	44	119	12.01923	95.7203	-408.9251	1	419.9787	-76.82553	1.324785E-006	7.14963E-005	9
	45	122	9.450605	113.0964	-505.1791	1	517.684	-77.38105	3.890209E-007	0.0006335	8
	46	124	7.512019	134.8319	-620.7989	1	635.2723	-77.74619	3.803951E-007	0.0006298	8
	47	127	5.978954	162.4877	-762.058	1	779.1884	-77.96352	4.665932E-007	0.0006409	8
	48	130	4.734848	199.4669	-939.0381	1	959.989	-78.0077	4.057238E-007	0.0006249	8
	49	133	3.75601	248.287	-1154.61	1	1181.004	-77.86395	4.894544E-007	0.0006593	8
	50	137	3.004808	309.2564	-1406.194	1	1439.799	-77.59671	4.846686E-007	0.0006203	8
	51	141	2.372217	394.4933	-1732.453	1	1776.8	-77.17202	4.73165E-007	0.0005756	8
	52	145	1.878005	508.0934	-2121.667	1	2181.657	-76.53252	4.709006E-007	0.0006549	8
	53	150	1.512097	644.3297	-2555.086	1	2635.076	-75.84651	4.791618E-007	0.0005443	8
	54	155	1.201923	832.034	-3103.989	1	3213.57	-74.99445	4.662817E-007	0.0006569	8
	55	161	0.956633	1070.378	-3750.466	1	3900.219	-74.07133	4.409075E-007	-2.04584E-007	8
