EXPLAIN
TAG	EISPOT
TITLE	LABEL	Potentiostatic EIS	Test Identifier
DATE	LABEL	9/22/2020	Date
TIME	LABEL	4:39:16	Time
NOTES	NOTES	1	Notes...
	
PSTAT	PSTAT	REF3000-16137	Potentiostat
VDC	POTEN	0.00000E+000	T	DC Voltage (V)
FREQINIT	QUANT	3.00000E+005	Initial Freq. (Hz)
FREQFINAL	QUANT	1.00000E+000	Final Freq. (Hz)
PTSPERDEC	QUANT	1.00000E+001	Points/decade
VAC	QUANT	5.00000E+001	AC Voltage (mV rms)
AREA	QUANT	1.00000E+000	Sample Area (cm^2)
SPEED	SELECTOR	2	Optimize for:
ZGUESS	QUANT	1.00000E+003	Estimated Z (ohms)
EOC	QUANT	0	Open Circuit (V)
SEQUENCER	TOGGLE	TRUE	Run as Sequence
PSTATMODEL	IQUANT	5	Pstat Model
PSTATSECTION	LABEL	REF3000-16137	Pstat Section
PSTATSERIALNO	LABEL	16137	Pstat Serial Number
CTRLMODE	IQUANT	1	Control Mode
IESTAB	IQUANT	0	I/E Stability
CASPEED	IQUANT	1	Control Amp Speed
CONVENTION	IQUANT	1	Current Convention
ICHRANGE	IQUANT	2	Ich Range
ICHRANGEMODE	TOGGLE	F	Ich Auto Range
ICHOFFSETENABLE	TOGGLE	T	Ich Offset Enable
ICHOFFSET	QUANT	0	Ich Offset (V)
ICHFILTER	IQUANT	3	Ich Filter
VCHRANGE	IQUANT	2	Vch Range
VCHRANGEMODE	TOGGLE	F	Vch Auto Range
VCHOFFSETENABLE	TOGGLE	T	Vch Offset Enable
VCHOFFSET	QUANT	0	Vch Offset (V)
VCHFILTER	IQUANT	3	Vch Filter
ACHRANGE	IQUANT	2	Ach Range
ACHOFFSETENABLE	TOGGLE	F	Ach Offset Enable
ACHOFFSET	QUANT	0	Ach Offset (V)
ACHFILTER	IQUANT	3	Ach Filter
IERANGELOWERLIMIT	IQUANT	2	I/E Range Lower Limit
IERANGEMODE	TOGGLE	F	I/E AutoRange
IERANGE	IQUANT	11	I/E Range
POSFEEDENABLE	TOGGLE	F	Positive Feedback IR Comp
POSFEEDRESISTANCE	QUANT	0	Positive Feedback Resistance (ohm)
ACHSELECT	IQUANT	0	Ach Select
CABLEID	IQUANT	13	Cable ID
DCCALDATE	LABEL	7/31/2020	DC Calibration Date
ACCALDATE	LABEL	7/31/2020	AC Calibration Date
THERMOSELECT	IQUANT	1	Thermo Select
FRAMEWORKVERSION	QUANT	6.33	Framework Version
INSTRUMENTVERSION	LABEL	3.50	Instrument Version
COMPLIANCEVOLTAGE	IQUANT	0	Compliance Voltage
ZCURVE	TABLE
	Pt	Time	Freq	Zreal	Zimag	Zsig	Zmod	Zphz	Idc	Vdc	IERange
	#	s	Hz	ohm	ohm	V	ohm	°	A	V	#
	0	15	300046.9	78.97397	-4389.748	1	4390.458	-88.96933	4.560174E-007	0.0016152	9
	1	28	238359.4	156.2928	-5378.184	1	5380.455	-88.33543	2.490146E-005	0.0009467	9
	2	42	189328.1	223.3573	-6784.946	1	6788.622	-88.11453	2.017743E-005	-0.0004136	9
	3	50	150421.9	267.0203	-8289.577	1	8293.877	-88.15505	-9.139595E-005	0.0022147	9
	4	62	119484.4	712.3632	-10483.89	1	10508.06	-86.11282	8.203289E-005	-0.003371	9
	5	73	94921.88	1019.923	-13032.34	1	13072.19	-85.5251	-2.344157E-006	0.007763	8
	6	81	75421.88	1128.872	-16208.48	1	16247.74	-86.01595	2.601642E-005	-0.005198	8
	7	90	59859.37	1693.232	-20507.18	1	20576.96	-85.27992	-1.161697E-006	-0.0051402	8
	8	98	47578.12	5124.925	-26356.03	1	26849.68	-78.99616	-6.644273E-006	0.0118958	7
	9	105	37828.12	6172.314	-32373.35	1	32956.51	-79.20552	-3.731218E-006	0.0251083	7
	10	112	30046.88	4666.761	-40370.14	1	40638.98	-83.40591	2.231949E-005	-0.0096684	8
	11	121	23859.38	5940.774	-49957.88	1	50309.87	-83.21848	2.616212E-005	-0.0090375	8
	12	127	18984.38	8019.609	-60675.57	1	61203.25	-82.47075	2.740545E-005	-0.0074213	8
	13	133	15046.87	14945.41	-78178.45	1	79594.2	-79.17732	3.927096E-007	0.016107	7
	14	140	11953.13	18868.64	-94371.11	1	96238.9	-78.69333	-3.338618E-006	-0.0051039	7
	15	145	9515.62	21433.54	-112903	1	114919.5	-79.25086	-1.600684E-005	0.0005834	8
	16	153	7546.875	36166.09	-144411	1	148870.8	-75.9401	-6.48708E-006	0.0260672	7
	17	159	5928.309	35503.17	-180993.1	1	184442.3	-78.90191	4.853701E-006	-0.0006183	7
	18	166	4733.456	63911.84	-201476.9	1	211370.9	-72.4001	6.5168E-006	-0.0100167	7
	19	171	3796.875	106252.8	-256244.5	1	277400.2	-67.47846	5.306675E-006	-0.026429	7
	20	177	2987.132	238061.2	-190142.4	1	304675.6	-38.61479	1.61705E-005	-0.0092647	8
	21	185	2390.625	198404.7	-365360.2	1	415755.3	-61.49632	4.190211E-007	0.0161794	7
	22	193	1884.191	135395.5	-626955.5	1	641408.7	-77.81372	-6.645706E-006	0.011883	7
	23	199	1516.544	440154	-645655.3	1	781413	-55.71709	3.424108E-006	-0.0242882	7
	24	206	1193.986	401629	-495411.6	1	637760.6	-50.9684	6.745727E-006	-0.0268026	7
	25	213	946.5144	309808.8	-133670.7	1	337415.7	-23.33837	2.808366E-006	0.0078189	7
	26	218	751.7689	475979.6	54990.39	1	479145.7	6.590219	6.637268E-006	-0.0261557	7
	27	223	597.4265	910709.9	-855825.1	1	1249732	-43.22044	-1.873816E-006	0.021795	7
	28	228	477.4305	853276.4	-393266.9	1	939542.1	-24.74452	-1.005937E-008	0.0006963	6
	29	233	376.6741	989089	-256825.9	1	1021888	-14.55592	-1.143467E-009	0.0006368	5
	30	235	298.2954	1017428	-216360.4	1	1040179	-12.00535	-1.147625E-009	0.000692	5
	31	237	237.7717	1042243	-175787.1	1	1056963	-9.57354	-1.161455E-009	0.0006184	5
	32	240	189.0121	1061426	-146829.4	1	1071533	-7.875872	-1.28541E-009	0.0006789	5
	33	243	150.2404	1075384	-122422.5	1	1082330	-6.494635	-1.224552E-009	0.0006183	5
	34	246	119.1737	1125520	-108054.6	1	1130695	-5.483828	-1.124793E-009	0.000674	5
	35	248	95.0169	1096339	-83528.56	1	1099517	-4.356869	-1.275137E-009	0.0006845	5
	36	251	75.60484	1111687	-71428.55	1	1113980	-3.676337	-1.140951E-009	0.0006359	5
	37	253	54.50582	1113010	-32804.84	1	1113494	-1.688245	-1.079811E-009	0.0005862	5
	38	256	45.95588	1125723	-45079.67	1	1126626	-2.293188	-1.256574E-009	0.0006681	5
	39	259	37.20238	1127500	-40655.04	1	1128233	-2.065058	-1.157314E-009	0.0006685	5
	40	261	30.04808	1135085	-30149.94	1	1135486	-1.521523	-1.130247E-009	0.0005901	5
	41	264	23.91582	1141821	-26559.71	1	1142130	-1.332507	-1.210765E-009	0.0006184	5
	42	267	18.60119	1155667	-9510.51	1	1155706	-0.4715024	-1.566732E-009	0.0006089	5
	43	269	15.02404	1151759	-17210.82	1	1151888	-0.8561111	-1.306121E-009	0.0006966	5
	44	271	12.01923	1157188	-14631.95	1	1157281	-0.7244318	-1.143823E-009	0.0006694	5
	45	274	9.450605	1165474	-12985.01	1	1165546	-0.6383286	-1.189122E-009	0.0006615	5
	46	277	7.512019	1171232	-11647.23	1	1171290	-0.5697546	-1.282049E-009	0.0006287	5
	47	280	5.978954	1178049	-10851.43	1	1178099	-0.5277566	-1.252845E-009	0.0006441	5
	48	284	4.734848	1187738	-9890.68	1	1187779	-0.4771093	-1.222522E-009	0.0006425	5
	49	288	3.75601	1198259	-9967.16	1	1198300	-0.4765773	-1.09628E-009	0.0006367	5
	50	293	3.004808	1211792	-9991.7	1	1211834	-0.4724153	-1.265413E-009	0.0007095	5
	51	300	2.372217	1224347	-10199.53	1	1224389	-0.4772966	-1.167417E-009	0.0006201	5
	52	304	1.878005	1234946	-11516.82	1	1235000	-0.5343118	-1.008046E-009	0.0006294	5
	53	309	1.512097	1247098	-13396.37	1	1247170	-0.6154497	-9.87125E-010	0.0006936	5
	54	314	1.201923	1261585	-15800.95	1	1261684	-0.7175738	-9.891366E-010	0.000642	5
	55	320	0.956633	1276779	-18480.63	1	1276912	-0.8292654	-2.111059E-009	-4.778065E-006	5
