EXPLAIN
TAG	EISPOT
TITLE	LABEL	Potentiostatic EIS	Test Identifier
DATE	LABEL	9/21/2020	Date
TIME	LABEL	23:15:28	Time
NOTES	NOTES	1	Notes...
	
PSTAT	PSTAT	REF3000-16137	Potentiostat
VDC	POTEN	0.00000E+000	T	DC Voltage (V)
FREQINIT	QUANT	3.00000E+005	Initial Freq. (Hz)
FREQFINAL	QUANT	1.00000E+000	Final Freq. (Hz)
PTSPERDEC	QUANT	1.00000E+001	Points/decade
VAC	QUANT	5.00000E+001	AC Voltage (mV rms)
AREA	QUANT	1.00000E+000	Sample Area (cm^2)
SPEED	SELECTOR	2	Optimize for:
ZGUESS	QUANT	1.00000E+003	Estimated Z (ohms)
EOC	QUANT	0	Open Circuit (V)
SEQUENCER	TOGGLE	TRUE	Run as Sequence
PSTATMODEL	IQUANT	5	Pstat Model
PSTATSECTION	LABEL	REF3000-16137	Pstat Section
PSTATSERIALNO	LABEL	16137	Pstat Serial Number
CTRLMODE	IQUANT	1	Control Mode
IESTAB	IQUANT	0	I/E Stability
CASPEED	IQUANT	1	Control Amp Speed
CONVENTION	IQUANT	1	Current Convention
ICHRANGE	IQUANT	2	Ich Range
ICHRANGEMODE	TOGGLE	F	Ich Auto Range
ICHOFFSETENABLE	TOGGLE	T	Ich Offset Enable
ICHOFFSET	QUANT	0	Ich Offset (V)
ICHFILTER	IQUANT	3	Ich Filter
VCHRANGE	IQUANT	2	Vch Range
VCHRANGEMODE	TOGGLE	F	Vch Auto Range
VCHOFFSETENABLE	TOGGLE	T	Vch Offset Enable
VCHOFFSET	QUANT	0	Vch Offset (V)
VCHFILTER	IQUANT	3	Vch Filter
ACHRANGE	IQUANT	2	Ach Range
ACHOFFSETENABLE	TOGGLE	F	Ach Offset Enable
ACHOFFSET	QUANT	0	Ach Offset (V)
ACHFILTER	IQUANT	3	Ach Filter
IERANGELOWERLIMIT	IQUANT	2	I/E Range Lower Limit
IERANGEMODE	TOGGLE	F	I/E AutoRange
IERANGE	IQUANT	11	I/E Range
POSFEEDENABLE	TOGGLE	F	Positive Feedback IR Comp
POSFEEDRESISTANCE	QUANT	0	Positive Feedback Resistance (ohm)
ACHSELECT	IQUANT	0	Ach Select
CABLEID	IQUANT	13	Cable ID
DCCALDATE	LABEL	7/31/2020	DC Calibration Date
ACCALDATE	LABEL	7/31/2020	AC Calibration Date
THERMOSELECT	IQUANT	1	Thermo Select
FRAMEWORKVERSION	QUANT	6.33	Framework Version
INSTRUMENTVERSION	LABEL	3.50	Instrument Version
COMPLIANCEVOLTAGE	IQUANT	0	Compliance Voltage
ZCURVE	TABLE
	Pt	Time	Freq	Zreal	Zimag	Zsig	Zmod	Zphz	Idc	Vdc	IERange
	#	s	Hz	ohm	ohm	V	ohm	°	A	V	#
	0	10	300046.9	5.518909	2.257072	1	5.962612	22.24312	-4.758697E-005	0.0002123	10
	1	13	238359.4	5.484037	1.778982	1	5.765366	17.97269	-3.586861E-006	-0.0001961	10
	2	16	189328.1	5.460499	1.40668	1	5.638777	14.44588	-4.810945E-005	0.0002176	10
	3	19	150421.9	5.436383	1.101866	1	5.546925	11.4577	-2.974776E-005	0.0002568	10
	4	22	119484.4	5.433139	0.8533764	1	5.49975	8.926447	-0.0001072	0.0004146	10
	5	24	94921.88	5.428144	0.667054	1	5.468977	7.00584	1.534508E-005	0.0004821	10
	6	27	75421.88	5.42248	0.4909601	1	5.444661	5.173547	-1.681704E-005	0.0005439	10
	7	29	59859.37	5.419865	0.339324	1	5.430476	3.582468	-2.566636E-005	0.0005788	10
	8	32	47578.12	5.420802	0.207464	1	5.42477	2.191745	1.61529E-005	0.000608	10
	9	34	37828.12	5.422969	0.0883992	1	5.42369	0.9338897	9.92956E-006	0.000574	10
	10	37	30046.88	5.427537	-0.023385	1	5.427588	-0.2468617	-3.797438E-006	0.0006699	10
	11	39	23859.38	5.432703	-0.1340899	1	5.434358	-1.413886	-3.326689E-005	0.0006412	10
	12	42	18984.38	5.439471	-0.2482453	1	5.445133	-2.613038	1.500258E-005	0.0006031	10
	13	44	15046.87	5.447904	-0.3751067	1	5.460802	-3.938793	-2.713539E-005	0.0006593	10
	14	46	11953.13	5.45966	-0.5167927	1	5.484064	-5.407311	1.20505E-005	0.0006342	10
	15	49	9515.62	5.475215	-0.6811235	1	5.517419	-7.091234	-8.855651E-006	0.0006262	10
	16	51	7546.875	5.494961	-0.8791744	1	5.564849	-9.090079	3.363691E-006	0.0006148	10
	17	53	5928.309	5.520549	-1.128119	1	5.634635	-11.54933	3.459749E-006	0.000652	10
	18	56	4733.456	5.552384	-1.411565	1	5.729004	-14.26395	-2.434034E-005	0.0006737	10
	19	58	3796.875	5.591058	-1.749559	1	5.858403	-17.37599	2.206923E-005	0.0006548	10
	20	60	2987.132	5.645564	-2.199405	1	6.058859	-21.28495	-7.56433E-006	0.0006269	10
	21	62	2390.625	5.71006	-2.713613	1	6.322062	-25.41864	1.953498E-005	0.0006352	10
	22	65	1884.191	5.799776	-3.392951	1	6.719338	-30.32824	-1.75346E-005	0.0006634	10
	23	67	1516.544	5.902778	-4.153063	1	7.217391	-35.12936	-2.735416E-005	0.0006817	10
	24	69	1193.986	6.049467	-5.181012	1	7.964856	-40.57811	2.045573E-006	0.0006252	10
	25	72	946.5144	6.229725	-6.419922	1	8.945662	-45.86142	9.954472E-006	0.0006149	10
	26	74	751.7689	6.468463	-7.925259	1	10.22989	-50.77925	1.830331E-005	0.0006339	10
	27	77	597.4265	6.770863	-9.77423	1	11.89034	-55.28864	8.237291E-006	0.0006117	10
	28	79	477.4305	7.142603	-11.97886	1	13.94668	-59.19376	-3.683911E-006	0.0006599	10
	29	81	376.6741	7.643862	-14.83008	1	16.68412	-62.73207	-4.36009E-006	0.0006624	10
	30	83	298.2954	8.262025	-18.27291	1	20.05393	-65.67007	-4.134431E-006	0.0006665	10
	31	86	237.7717	9.002265	-22.36263	1	24.10659	-68.07233	-3.565529E-006	0.0006622	10
	32	88	189.0121	9.91427	-27.42083	1	29.15809	-70.12205	-3.809775E-006	0.0006673	10
	33	91	150.2404	11.01782	-33.61538	1	35.37494	-71.85285	-3.245345E-006	0.0006591	10
	34	93	119.1737	12.35361	-41.24482	1	43.05516	-73.32604	1.981788E-007	6.742718E-005	9
	35	95	95.0169	13.95914	-50.46144	1	52.35661	-74.53697	1.142637E-007	6.240792E-005	9
	36	98	75.60484	15.95196	-61.88596	1	63.90881	-75.54586	7.023259E-008	6.335292E-005	9
	37	100	54.50582	19.69443	-82.97617	1	85.28139	-76.6479	-7.849447E-009	6.111874E-005	9
	38	103	45.95588	22.2125	-96.7252	1	99.2429	-77.06654	1.62955E-007	6.780624E-005	9
	39	105	37.20238	26.03477	-116.9587	1	119.8213	-77.45068	1.502432E-007	6.010328E-005	9
	40	108	30.04808	30.97068	-141.719	1	145.0637	-77.67262	1.080901E-007	5.842333E-005	9
	41	110	23.91582	37.78163	-173.8286	1	177.8872	-77.7375	-8.764848E-008	6.035329E-005	9
	42	112	18.60119	47.80861	-217.5057	1	222.698	-77.60329	2.993517E-007	5.67827E-005	9
	43	115	15.02404	59.01817	-262.9159	1	269.4586	-77.34822	3.769498E-007	7.575393E-005	9
	44	117	12.01923	74.65355	-320.0395	1	328.6311	-76.86977	1.710608E-008	7.009032E-005	9
	45	120	9.450605	96.7913	-394.3028	1	406.0089	-76.20806	2.724854E-007	0.0001093	9
	46	122	7.512019	124.6539	-478.2096	1	494.1892	-75.38994	-4.413096E-007	0.0006611	8
	47	125	5.978954	161.8408	-579.1008	1	601.2905	-74.38596	-4.632519E-007	0.0006455	8
	48	128	4.734848	211.8152	-702.3298	1	733.5754	-73.21725	-3.250641E-007	0.0006515	8
	49	131	3.75601	276.5692	-845.5439	1	889.6263	-71.88758	-4.366692E-007	0.0006621	8
	50	134	3.004808	356.9681	-1005.381	1	1066.873	-70.45222	-2.61304E-007	0.0006101	8
	51	138	2.372217	466.4117	-1202.604	1	1289.882	-68.80196	-3.958564E-007	0.0005729	8
	52	142	1.878005	606.1574	-1424.492	1	1548.097	-66.94902	-3.465411E-007	0.0006514	8
	53	147	1.512097	769.5317	-1655.201	1	1825.341	-65.06547	-3.251184E-007	0.0005381	8
	54	152	1.201923	984.26	-1930.642	1	2167.06	-62.98707	-3.796479E-007	0.0006673	8
	55	159	0.956633	1249.249	-2227.359	1	2553.772	-60.71344	-4.842715E-007	3.556606E-006	8
