EXPLAIN
TAG	EISPOT
TITLE	LABEL	Potentiostatic EIS	Test Identifier
DATE	LABEL	9/22/2020	Date
TIME	LABEL	4:44:46	Time
NOTES	NOTES	1	Notes...
	
PSTAT	PSTAT	REF3000-16137	Potentiostat
VDC	POTEN	0.00000E+000	T	DC Voltage (V)
FREQINIT	QUANT	3.00000E+005	Initial Freq. (Hz)
FREQFINAL	QUANT	1.00000E+000	Final Freq. (Hz)
PTSPERDEC	QUANT	1.00000E+001	Points/decade
VAC	QUANT	5.00000E+001	AC Voltage (mV rms)
AREA	QUANT	1.00000E+000	Sample Area (cm^2)
SPEED	SELECTOR	2	Optimize for:
ZGUESS	QUANT	1.00000E+003	Estimated Z (ohms)
EOC	QUANT	0	Open Circuit (V)
SEQUENCER	TOGGLE	TRUE	Run as Sequence
PSTATMODEL	IQUANT	5	Pstat Model
PSTATSECTION	LABEL	REF3000-16137	Pstat Section
PSTATSERIALNO	LABEL	16137	Pstat Serial Number
CTRLMODE	IQUANT	1	Control Mode
IESTAB	IQUANT	0	I/E Stability
CASPEED	IQUANT	1	Control Amp Speed
CONVENTION	IQUANT	1	Current Convention
ICHRANGE	IQUANT	2	Ich Range
ICHRANGEMODE	TOGGLE	F	Ich Auto Range
ICHOFFSETENABLE	TOGGLE	T	Ich Offset Enable
ICHOFFSET	QUANT	0	Ich Offset (V)
ICHFILTER	IQUANT	3	Ich Filter
VCHRANGE	IQUANT	2	Vch Range
VCHRANGEMODE	TOGGLE	F	Vch Auto Range
VCHOFFSETENABLE	TOGGLE	T	Vch Offset Enable
VCHOFFSET	QUANT	0	Vch Offset (V)
VCHFILTER	IQUANT	3	Vch Filter
ACHRANGE	IQUANT	2	Ach Range
ACHOFFSETENABLE	TOGGLE	F	Ach Offset Enable
ACHOFFSET	QUANT	0	Ach Offset (V)
ACHFILTER	IQUANT	3	Ach Filter
IERANGELOWERLIMIT	IQUANT	2	I/E Range Lower Limit
IERANGEMODE	TOGGLE	F	I/E AutoRange
IERANGE	IQUANT	11	I/E Range
POSFEEDENABLE	TOGGLE	F	Positive Feedback IR Comp
POSFEEDRESISTANCE	QUANT	0	Positive Feedback Resistance (ohm)
ACHSELECT	IQUANT	0	Ach Select
CABLEID	IQUANT	13	Cable ID
DCCALDATE	LABEL	7/31/2020	DC Calibration Date
ACCALDATE	LABEL	7/31/2020	AC Calibration Date
THERMOSELECT	IQUANT	1	Thermo Select
FRAMEWORKVERSION	QUANT	6.33	Framework Version
INSTRUMENTVERSION	LABEL	3.50	Instrument Version
COMPLIANCEVOLTAGE	IQUANT	0	Compliance Voltage
ZCURVE	TABLE
	Pt	Time	Freq	Zreal	Zimag	Zsig	Zmod	Zphz	Idc	Vdc	IERange
	#	s	Hz	ohm	ohm	V	ohm	°	A	V	#
	0	14	300046.9	33.32827	-4413.99	1	4414.116	-89.56739	8.513713E-005	-0.0037139	9
	1	30	238359.4	118.6017	-5411.827	1	5413.126	-88.74454	4.823488E-005	0.0001523	9
	2	45	189328.1	-393.2266	-6842.716	1	6854.005	-93.28897	8.160722E-005	-0.0034561	9
	3	53	150421.9	-480.8553	-8740.209	1	8753.427	-93.14903	2.788807E-005	-0.001943	9
	4	60	119484.4	657.7132	-10617.42	1	10637.77	-86.45525	3.580818E-006	0.0152281	8
	5	68	94921.88	496.1816	-13479.19	1	13488.32	-87.89184	1.992703E-005	4.231086E-005	9
	6	76	75421.88	1146.54	-16574.65	1	16614.26	-86.04291	2.725781E-005	-0.0073859	8
	7	84	59859.37	1335.455	-20894.88	1	20937.52	-86.34303	-2.413498E-005	0.0052007	8
	8	92	47578.12	4631.359	-26857.4	1	27253.8	-80.216	-5.188602E-006	0.0261452	7
	9	100	37828.12	2772.67	-32941.22	1	33057.7	-85.18874	2.311558E-005	-0.0027616	8
	10	109	30046.88	3251.319	-40695.33	1	40825	-85.43211	2.578715E-005	-0.008851	8
	11	117	23859.38	3712.989	-52032.39	1	52164.7	-85.91833	-2.006836E-005	0.0114562	8
	12	125	18984.38	2591.372	-63087.06	1	63140.26	-87.64783	-2.505357E-005	0.0111863	8
	13	131	15046.87	4301.609	-77149.73	1	77269.55	-86.80869	-2.69302E-005	0.0097093	8
	14	138	11953.13	14570.54	-90859.73	1	92020.6	-80.88945	-2.232846E-006	0.0078205	8
	15	146	9515.62	17982.59	-125195.1	1	126480	-81.82614	4.828552E-006	-0.0002297	7
	16	151	7546.875	25880.66	-156531.3	1	158656.4	-80.61173	-6.568035E-006	0.0115199	7
	17	158	5928.309	40790.36	-187204.3	1	191596.8	-77.70782	-7.305216E-006	0.0188243	7
	18	163	4733.456	12105.25	-238420.7	1	238727.8	-87.09344	-1.73972E-006	0.0217652	7
	19	169	3796.875	56266.81	-299254.6	1	304498.4	-79.35139	1.292316E-006	-0.01978	7
	20	175	2987.132	135538.5	-358371.4	1	383145.8	-69.28304	-3.42337E-009	0.0172295	6
	21	181	2390.625	169297.1	-433193.4	1	465100.1	-68.65385	7.192627E-007	-0.0156044	6
	22	186	1884.191	266209.4	-484515.9	1	552831.9	-61.21412	-5.546155E-007	0.026348	6
	23	191	1516.544	326232.9	-599841.4	1	682816	-61.45977	-5.573844E-007	0.0263426	6
	24	197	1193.986	423608.2	-717919.3	1	833577.9	-59.45728	5.813662E-007	-0.027339	6
	25	202	946.5144	642994.9	-774047.5	1	1006276	-50.28387	-7.144297E-007	0.0167137	6
	26	206	751.7689	758003.8	-937623.9	1	1205698	-51.04687	4.242865E-007	0.002305	6
	27	211	597.4265	973100	-733474.8	1	1218569	-37.00717	1.661488E-007	-0.0211295	6
	28	214	477.4305	1110933	-881543.8	1	1418200	-38.43259	-9.491397E-009	0.0006571	6
	29	217	376.6741	1438304	-732787.5	1	1614217	-26.99794	-1.177767E-009	0.0006145	5
	30	220	298.2954	1570934	-664560.4	1	1705718	-22.93007	-1.15471E-009	0.0006352	5
	31	223	237.7717	1686671	-595392.1	1	1788673	-19.44295	-1.169803E-009	0.0006678	5
	32	225	189.0121	1769345	-508547.5	1	1840979	-16.03578	-1.048072E-009	0.0005871	5
	33	228	150.2404	1837923	-433999.7	1	1888470	-13.28621	-1.171229E-009	0.0006491	5
	34	231	119.1737	1806764	-382504.9	1	1846810	-11.95343	-9.968815E-010	0.0005877	5
	35	234	95.0169	1933835	-297163.1	1	1956533	-8.736034	-1.186107E-009	0.0006826	5
	36	237	75.60484	1956189	-259594	1	1973338	-7.559209	-1.201434E-009	0.0006744	5
	37	239	54.50582	1996940	-184163.1	1	2005414	-5.269065	-1.118191E-009	0.0006734	5
	38	243	45.95588	2010362	-171451	1	2017660	-4.874597	-1.097966E-009	0.0005854	5
	39	245	37.20238	2030186	-146560.2	1	2035470	-4.12905	-1.133921E-009	0.0006704	5
	40	248	30.04808	2053761	-109651.4	1	2056686	-3.056151	-1.136841E-009	0.0006803	5
	41	251	23.91582	2059144	-89592.62	1	2061092	-2.491348	-1.157233E-009	0.00058	5
	42	254	18.60119	2046848	-96848.3	1	2049138	-2.708976	-8.549529E-010	0.0006826	5
	43	256	15.02404	2093691	-61968.17	1	2094607	-1.695321	-1.187497E-009	0.000616	5
	44	258	12.01923	2102891	-50657.88	1	2103501	-1.379967	-1.133374E-009	0.0006185	5
	45	261	9.450605	2116042	-37599.73	1	2116376	-1.017976	-1.143608E-009	0.0006081	5
	46	264	7.512019	2132063	-33994.19	1	2132334	-0.913462	-1.125278E-009	0.0006799	5
	47	267	5.978954	2149137	-29168.71	1	2149335	-0.7775874	-1.185113E-009	0.0006655	5
	48	271	4.734848	2162883	-25259.46	1	2163031	-0.6691045	-1.136873E-009	0.0006881	5
	49	275	3.75601	2182840	-23226.16	1	2182964	-0.6096236	-1.111314E-009	0.0006667	5
	50	280	3.004808	2207912	-20774.91	1	2208010	-0.5390972	-1.10982E-009	0.0006305	5
	51	287	2.372217	2232798	-19077.59	1	2232879	-0.4895377	-1.115849E-009	0.0006868	5
	52	291	1.878005	2252906	-19051.22	1	2252987	-0.484498	-1.176411E-009	0.0006118	5
	53	296	1.512097	2276316	-20177.72	1	2276405	-0.5078681	-1.237032E-009	0.0007276	5
	54	301	1.201923	2303411	-20328.38	1	2303501	-0.5056416	-1.222374E-009	0.0006073	5
	55	307	0.956633	2331304	-23438.57	1	2331421	-0.5760237	-1.653713E-009	2.254413E-006	5
