EXPLAIN
TAG	EISPOT
TITLE	LABEL	Potentiostatic EIS	Test Identifier
DATE	LABEL	9/22/2020	Date
TIME	LABEL	2:55:18	Time
NOTES	NOTES	1	Notes...
	
PSTAT	PSTAT	REF3000-16137	Potentiostat
VDC	POTEN	0.00000E+000	T	DC Voltage (V)
FREQINIT	QUANT	3.00000E+005	Initial Freq. (Hz)
FREQFINAL	QUANT	1.00000E+000	Final Freq. (Hz)
PTSPERDEC	QUANT	1.00000E+001	Points/decade
VAC	QUANT	5.00000E+001	AC Voltage (mV rms)
AREA	QUANT	1.00000E+000	Sample Area (cm^2)
SPEED	SELECTOR	2	Optimize for:
ZGUESS	QUANT	1.00000E+003	Estimated Z (ohms)
EOC	QUANT	0	Open Circuit (V)
SEQUENCER	TOGGLE	TRUE	Run as Sequence
PSTATMODEL	IQUANT	5	Pstat Model
PSTATSECTION	LABEL	REF3000-16137	Pstat Section
PSTATSERIALNO	LABEL	16137	Pstat Serial Number
CTRLMODE	IQUANT	1	Control Mode
IESTAB	IQUANT	0	I/E Stability
CASPEED	IQUANT	1	Control Amp Speed
CONVENTION	IQUANT	1	Current Convention
ICHRANGE	IQUANT	2	Ich Range
ICHRANGEMODE	TOGGLE	F	Ich Auto Range
ICHOFFSETENABLE	TOGGLE	T	Ich Offset Enable
ICHOFFSET	QUANT	0	Ich Offset (V)
ICHFILTER	IQUANT	3	Ich Filter
VCHRANGE	IQUANT	2	Vch Range
VCHRANGEMODE	TOGGLE	F	Vch Auto Range
VCHOFFSETENABLE	TOGGLE	T	Vch Offset Enable
VCHOFFSET	QUANT	0	Vch Offset (V)
VCHFILTER	IQUANT	3	Vch Filter
ACHRANGE	IQUANT	2	Ach Range
ACHOFFSETENABLE	TOGGLE	F	Ach Offset Enable
ACHOFFSET	QUANT	0	Ach Offset (V)
ACHFILTER	IQUANT	3	Ach Filter
IERANGELOWERLIMIT	IQUANT	2	I/E Range Lower Limit
IERANGEMODE	TOGGLE	F	I/E AutoRange
IERANGE	IQUANT	11	I/E Range
POSFEEDENABLE	TOGGLE	F	Positive Feedback IR Comp
POSFEEDRESISTANCE	QUANT	0	Positive Feedback Resistance (ohm)
ACHSELECT	IQUANT	0	Ach Select
CABLEID	IQUANT	13	Cable ID
DCCALDATE	LABEL	7/31/2020	DC Calibration Date
ACCALDATE	LABEL	7/31/2020	AC Calibration Date
THERMOSELECT	IQUANT	1	Thermo Select
FRAMEWORKVERSION	QUANT	6.33	Framework Version
INSTRUMENTVERSION	LABEL	3.50	Instrument Version
COMPLIANCEVOLTAGE	IQUANT	0	Compliance Voltage
ZCURVE	TABLE
	Pt	Time	Freq	Zreal	Zimag	Zsig	Zmod	Zphz	Idc	Vdc	IERange
	#	s	Hz	ohm	ohm	V	ohm	°	A	V	#
	0	17	300046.9	577.3103	-93.32347	1	584.8046	-9.182553	2.21023E-005	-0.00217	9
	1	24	238359.4	586.6027	-77.82928	1	591.7433	-7.557749	-1.186213E-005	0.0015722	9
	2	34	189328.1	594.9459	-62.75563	1	598.2465	-6.021363	2.34032E-005	-0.0018255	9
	3	41	150421.9	606.567	-49.19577	1	608.5588	-4.636839	2.484028E-005	-0.0013889	9
	4	49	119484.4	608.071	-27.15877	1	608.6772	-2.557348	-2.49551E-005	0.0153163	8
	5	53	94921.88	611.8936	-18.02938	1	612.1592	-1.687725	-5.750893E-006	0.0062165	8
	6	55	75421.88	612.933	-15.29627	1	613.1238	-1.429568	-1.556334E-005	0.0039726	8
	7	58	59859.37	613.8452	-11.53783	1	613.9536	-1.076805	-9.548986E-006	0.0060547	8
	8	60	47578.12	614.7211	-8.546754	1	614.7805	-0.7965586	-1.650673E-005	0.0082906	8
	9	63	37828.12	616.9329	-9.009976	1	616.9987	-0.8367149	1.613278E-005	-0.0057213	8
	10	65	30046.88	617.6133	-8.424944	1	617.6708	-0.7815307	1.374644E-005	-0.0060387	8
	11	68	23859.38	618.7027	-5.788218	1	618.7298	-0.5360099	1.284552E-005	-0.0004014	8
	12	70	18984.38	620.775	-5.571568	1	620.8	-0.5142262	-1.456331E-005	0.0073179	8
	13	72	15046.87	618.4755	-4.392856	1	618.4911	-0.4069488	1.748093E-005	-0.0049359	8
	14	75	11953.13	624.3403	-3.534562	1	624.3503	-0.3243637	1.370214E-005	-0.0058537	8
	15	77	9515.62	624.4533	-4.198722	1	624.4674	-0.3852417	3.829658E-006	-0.0044281	8
	16	80	7546.875	626.0755	-4.232179	1	626.0898	-0.3873052	-1.149202E-005	0.0013566	8
	17	82	5928.309	627.2608	-4.799638	1	627.2792	-0.438404	1.311442E-005	-0.0059444	8
	18	85	4733.456	628.4168	-3.666745	1	628.4275	-0.3343109	1.348483E-005	-0.0058537	8
	19	87	3796.875	630.123	-2.453084	1	630.1278	-0.2230527	-1.210486E-005	0.0013775	8
	20	90	2987.132	631.7047	-6.322596	1	631.7363	-0.5734419	-1.618739E-005	0.0042279	8
	21	92	2390.625	631.8065	-6.018217	1	631.8351	-0.5457494	-6.360113E-006	0.0064428	8
	22	95	1884.191	634.4164	-6.987914	1	634.4549	-0.631071	7.02521E-006	0.0023429	8
	23	97	1516.544	634.27	-7.036001	1	634.309	-0.6355599	-5.480149E-006	0.0061491	8
	24	100	1193.986	634.7135	-10.40167	1	634.7987	-0.9388777	1.296705E-005	-0.0003017	8
	25	102	946.5144	638.2623	-12.31902	1	638.3812	-1.105721	8.582668E-006	-0.0052963	8
	26	105	751.7689	640.6329	-14.6338	1	640.8	-1.308564	-1.126104E-005	0.0073419	8
	27	107	597.4265	640.5054	-16.56658	1	640.7196	-1.481617	-1.066167E-005	0.0070258	8
	28	110	477.4305	642.6473	-21.97622	1	643.0229	-1.958546	-1.505733E-007	0.0006393	8
	29	112	376.6741	644.4628	-27.19865	1	645.0365	-2.416654	-1.293509E-007	0.0006219	8
	30	115	298.2954	646.43	-33.58048	1	647.3016	-2.973705	-1.428052E-007	0.0006285	8
	31	117	237.7717	648.6008	-41.30046	1	649.9144	-3.643461	-1.687045E-007	0.0006426	8
	32	119	189.0121	651.013	-50.94875	1	653.0036	-4.474888	-1.377923E-007	0.0006318	8
	33	122	150.2404	653.7247	-62.88318	1	656.7421	-5.494499	-1.720349E-007	0.0006521	8
	34	124	119.1737	656.8563	-77.763	1	661.4434	-6.751628	-1.468639E-007	0.0006308	8
	35	126	95.0169	660.4429	-95.7724	1	667.3509	-8.251078	-1.287526E-007	0.0006338	8
	36	129	75.60484	664.7546	-118.1394	1	675.1708	-10.07732	-1.812575E-007	0.0006367	8
	37	132	54.50582	671.809	-159.5143	1	690.4869	-13.35696	-1.819877E-007	0.0006346	8
	38	134	45.95588	676.9717	-186.5217	1	702.1973	-15.40414	-1.031778E-007	0.0006324	8
	39	136	37.20238	683.9897	-226.3391	1	720.4661	-18.3099	-8.427126E-008	0.0006296	8
	40	139	30.04808	692.6881	-275.0404	1	745.2946	-21.65617	-1.547566E-007	0.0006258	8
	41	141	23.91582	703.8901	-338.4852	1	781.0464	-25.68188	-1.235509E-007	0.00063	8
	42	144	18.60119	719.3141	-425.3946	1	835.6874	-30.59961	-2.877801E-007	0.0006355	8
	43	146	15.02404	735.6622	-515.5237	1	898.3116	-35.02129	-7.053143E-008	0.0006497	8
	44	148	12.01923	756.584	-629.9402	1	984.502	-39.78114	-2.699418E-007	0.0006433	8
	45	151	9.450605	784.2222	-781.9443	1	1107.448	-44.91666	-1.860676E-007	0.0006489	8
	46	153	7.512019	817.6837	-960.745	1	1261.601	-49.59912	-1.560048E-007	0.000646	8
	47	156	5.978954	859.0945	-1177.376	1	1457.483	-53.88294	-1.565025E-007	0.00063	8
	48	159	4.734848	912.7955	-1450.722	1	1713.998	-57.82186	-1.42365E-007	0.0006547	8
	49	162	3.75601	978.523	-1781.583	1	2032.62	-61.2225	-1.901355E-007	0.0006434	8
	50	166	3.004808	1056.918	-2167.896	1	2411.814	-64.00931	-1.22997E-007	0.0006148	8
	51	169	2.372217	1161.196	-2665.548	1	2907.494	-66.46055	-1.510701E-007	0.0006524	8
	52	174	1.878005	1290.544	-3277.319	1	3522.261	-68.50645	-1.765554E-007	0.000641	8
	53	178	1.512097	1430.918	-3967.782	1	4217.917	-70.16896	-3.294302E-008	0.0005279	7
	54	184	1.201923	1616.351	-4853.957	1	5116.003	-71.58242	-4.909367E-008	0.000611	7
	55	190	0.956633	1831.127	-5923.784	1	6200.342	-72.82287	-4.658471E-008	-2.672705E-005	7
