EXPLAIN
TAG	EISPOT
TITLE	LABEL	Potentiostatic EIS	Test Identifier
DATE	LABEL	9/22/2020	Date
TIME	LABEL	1:28:53	Time
NOTES	NOTES	1	Notes...
	
PSTAT	PSTAT	REF3000-16137	Potentiostat
VDC	POTEN	0.00000E+000	T	DC Voltage (V)
FREQINIT	QUANT	3.00000E+005	Initial Freq. (Hz)
FREQFINAL	QUANT	1.00000E+000	Final Freq. (Hz)
PTSPERDEC	QUANT	1.00000E+001	Points/decade
VAC	QUANT	5.00000E+001	AC Voltage (mV rms)
AREA	QUANT	1.00000E+000	Sample Area (cm^2)
SPEED	SELECTOR	2	Optimize for:
ZGUESS	QUANT	1.00000E+003	Estimated Z (ohms)
EOC	QUANT	0	Open Circuit (V)
SEQUENCER	TOGGLE	TRUE	Run as Sequence
PSTATMODEL	IQUANT	5	Pstat Model
PSTATSECTION	LABEL	REF3000-16137	Pstat Section
PSTATSERIALNO	LABEL	16137	Pstat Serial Number
CTRLMODE	IQUANT	1	Control Mode
IESTAB	IQUANT	0	I/E Stability
CASPEED	IQUANT	1	Control Amp Speed
CONVENTION	IQUANT	1	Current Convention
ICHRANGE	IQUANT	2	Ich Range
ICHRANGEMODE	TOGGLE	F	Ich Auto Range
ICHOFFSETENABLE	TOGGLE	T	Ich Offset Enable
ICHOFFSET	QUANT	0	Ich Offset (V)
ICHFILTER	IQUANT	3	Ich Filter
VCHRANGE	IQUANT	2	Vch Range
VCHRANGEMODE	TOGGLE	F	Vch Auto Range
VCHOFFSETENABLE	TOGGLE	T	Vch Offset Enable
VCHOFFSET	QUANT	0	Vch Offset (V)
VCHFILTER	IQUANT	3	Vch Filter
ACHRANGE	IQUANT	2	Ach Range
ACHOFFSETENABLE	TOGGLE	F	Ach Offset Enable
ACHOFFSET	QUANT	0	Ach Offset (V)
ACHFILTER	IQUANT	3	Ach Filter
IERANGELOWERLIMIT	IQUANT	2	I/E Range Lower Limit
IERANGEMODE	TOGGLE	F	I/E AutoRange
IERANGE	IQUANT	11	I/E Range
POSFEEDENABLE	TOGGLE	F	Positive Feedback IR Comp
POSFEEDRESISTANCE	QUANT	0	Positive Feedback Resistance (ohm)
ACHSELECT	IQUANT	0	Ach Select
CABLEID	IQUANT	13	Cable ID
DCCALDATE	LABEL	7/31/2020	DC Calibration Date
ACCALDATE	LABEL	7/31/2020	AC Calibration Date
THERMOSELECT	IQUANT	1	Thermo Select
FRAMEWORKVERSION	QUANT	6.33	Framework Version
INSTRUMENTVERSION	LABEL	3.50	Instrument Version
COMPLIANCEVOLTAGE	IQUANT	0	Compliance Voltage
ZCURVE	TABLE
	Pt	Time	Freq	Zreal	Zimag	Zsig	Zmod	Zphz	Idc	Vdc	IERange
	#	s	Hz	ohm	ohm	V	ohm	°	A	V	#
	0	7	300046.9	37.78125	2.475047	1	37.86223	3.748086	-5.556124E-005	0.0008465	9
	1	10	238359.4	37.78602	1.86217	1	37.83188	2.821367	-1.493795E-006	6.588257E-005	9
	2	13	189328.1	37.84519	1.434167	1	37.87235	2.17022	-4.310138E-006	0.0002155	9
	3	16	150421.9	37.8955	1.089561	1	37.91116	1.646899	2.031293E-006	-0.0009612	9
	4	18	119484.4	37.94133	0.8515376	1	37.95088	1.285704	-8.638156E-006	0.0008141	9
	5	21	94921.88	38.01595	0.7638789	1	38.02363	1.151126	-1.252766E-005	0.0003776	9
	6	23	75421.88	38.03284	0.544722	1	38.03675	0.8205576	-1.127308E-005	0.0002566	9
	7	26	59859.37	38.06607	0.3626607	1	38.0678	0.5458482	-2.020819E-006	0.0004012	9
	8	28	47578.12	38.09857	0.2009516	1	38.0991	0.3022048	-2.336797E-006	0.0004164	9
	9	31	37828.12	38.13774	0.0507275	1	38.13778	0.0762099	8.964779E-006	7.148513E-005	9
	10	33	30046.88	38.1926	-0.0894872	1	38.1927	-0.1342466	-2.888905E-006	-0.0001468	9
	11	36	23859.38	38.24178	-0.2322222	1	38.24249	-0.3479228	1.712849E-005	-0.0003622	9
	12	38	18984.38	38.29269	-0.3807285	1	38.29458	-0.5696496	3.19845E-006	0.0002875	9
	13	41	15046.87	38.34428	-0.5344812	1	38.34801	-0.7985944	-8.087276E-006	5.171592E-005	9
	14	43	11953.13	38.40855	-0.72433	1	38.41538	-1.080388	1.609936E-005	-0.0004795	9
	15	45	9515.62	38.46106	-0.918942	1	38.47204	-1.368695	-1.431255E-005	0.0005051	9
	16	47	7546.875	38.523	-1.17341	1	38.54087	-1.744689	1.783508E-005	-0.0003549	9
	17	50	5928.309	38.59008	-1.494593	1	38.61901	-2.217956	2.891371E-006	0.0002819	9
	18	52	4733.456	38.67072	-1.846139	1	38.71476	-2.733224	-2.285716E-006	-0.0001305	9
	19	54	3796.875	38.74272	-2.285484	1	38.81007	-3.376041	-7.246243E-006	3.076313E-005	9
	20	57	2987.132	38.86165	-2.865766	1	38.96717	-4.217516	3.475225E-006	0.000264	9
	21	59	2390.625	38.97518	-3.544592	1	39.13603	-5.196461	-4.076971E-006	0.0004296	9
	22	61	1884.191	39.1296	-4.437112	1	39.38037	-6.469438	-1.500585E-005	0.0004773	9
	23	64	1516.544	39.27614	-5.412975	1	39.64739	-7.846982	8.925642E-006	6.908274E-005	9
	24	66	1193.986	39.46344	-6.754548	1	40.03732	-9.71261	2.806833E-006	-0.0002784	9
	25	69	946.5144	39.70404	-8.379636	1	40.57867	-11.91752	-1.39539E-005	0.0005725	9
	26	71	751.7689	39.98328	-10.38659	1	41.31033	-14.56205	1.261824E-005	-0.0004513	9
	27	73	597.4265	40.35064	-12.845	1	42.34582	-17.65807	-8.523402E-006	8.078569E-005	9
	28	76	477.4305	40.78109	-15.79629	1	43.73352	-21.17356	1.313245E-006	6.099718E-005	9
	29	78	376.6741	41.34797	-19.65098	1	45.78008	-25.41981	1.201793E-006	5.739501E-005	9
	30	80	298.2954	42.04918	-24.35018	1	48.59078	-30.07462	1.315239E-006	5.524224E-005	9
	31	82	237.7717	42.90509	-29.97633	1	52.33954	-34.9407	1.24392E-006	6.263661E-005	9
	32	85	189.0121	43.98932	-36.97803	1	57.46682	-40.05087	1.247708E-006	6.385325E-005	9
	33	87	150.2404	45.35614	-45.59268	1	64.31075	-45.14901	1.19843E-006	6.278543E-005	9
	34	90	119.1737	47.09502	-56.29353	1	73.39552	-50.08424	1.24781E-006	6.95858E-005	9
	35	92	95.0169	49.25311	-69.13867	1	84.88831	-54.53463	1.312993E-006	5.829535E-005	9
	36	95	75.60484	52.0101	-85.01146	1	99.6594	-58.54166	1.044446E-006	0.0001084	9
	37	97	54.50582	57.22957	-114.0659	1	127.6176	-63.356	1.310987E-006	5.895094E-005	9
	38	100	45.95588	60.71632	-132.8568	1	146.0732	-65.43932	1.319112E-006	6.197826E-005	9
	39	102	37.20238	65.82853	-160.3073	1	173.2969	-67.675	1.293802E-006	6.329667E-005	9
	40	104	30.04808	72.08311	-193.7301	1	206.7059	-69.59077	1.361961E-006	6.254461E-005	9
	41	107	23.91582	80.1283	-237.0103	1	250.1888	-71.32066	1.28271E-006	5.783779E-005	9
	42	109	18.60119	90.93732	-295.997	1	309.6512	-72.9218	1.27263E-006	6.807132E-005	9
	43	112	15.02404	101.9659	-357.5272	1	371.7831	-74.08198	1.375837E-006	6.900938E-005	9
	44	114	12.01923	115.4633	-434.0648	1	449.1593	-75.104	4.218631E-007	0.0006399	8
	45	116	9.450605	133.8329	-537.855	1	554.2556	-76.02702	4.524435E-007	0.0006403	8
	46	119	7.512019	155.5645	-660.1829	1	678.2637	-76.74078	4.273574E-007	0.0006642	8
	47	122	5.978954	182.6357	-809.9552	1	830.2911	-77.29297	4.448372E-007	0.0006389	8
	48	125	4.734848	218.0944	-999.398	1	1022.918	-77.68958	3.659445E-007	0.0006382	8
	49	128	3.75601	263.0668	-1229.503	1	1257.332	-77.92299	4.500579E-007	0.0006562	8
	50	131	3.004808	319.3601	-1500.066	1	1533.685	-77.98132	3.953595E-007	0.0006523	8
	51	135	2.372217	400.2298	-1849.858	1	1892.659	-77.79182	4.065615E-007	0.000606	8
	52	139	1.878005	502.4977	-2280.309	1	2335.019	-77.57269	4.465625E-007	0.0006284	8
	53	144	1.512097	622.3425	-2756.649	1	2826.027	-77.27815	4.08987E-007	0.0007142	8
	54	149	1.201923	799.0441	-3371.149	1	3464.552	-76.66559	4.436768E-007	0.0006458	8
	55	156	0.956633	1022.109	-4099.465	1	4224.964	-76.00004	3.742045E-007	2.335246E-006	8
