EXPLAIN
TAG	EISPOT
TITLE	LABEL	Potentiostatic EIS	Test Identifier
DATE	LABEL	9/22/2020	Date
TIME	LABEL	2:29:28	Time
NOTES	NOTES	1	Notes...
	
PSTAT	PSTAT	REF3000-16137	Potentiostat
VDC	POTEN	0.00000E+000	T	DC Voltage (V)
FREQINIT	QUANT	3.00000E+005	Initial Freq. (Hz)
FREQFINAL	QUANT	1.00000E+000	Final Freq. (Hz)
PTSPERDEC	QUANT	1.00000E+001	Points/decade
VAC	QUANT	5.00000E+001	AC Voltage (mV rms)
AREA	QUANT	1.00000E+000	Sample Area (cm^2)
SPEED	SELECTOR	2	Optimize for:
ZGUESS	QUANT	1.00000E+003	Estimated Z (ohms)
EOC	QUANT	0	Open Circuit (V)
SEQUENCER	TOGGLE	TRUE	Run as Sequence
PSTATMODEL	IQUANT	5	Pstat Model
PSTATSECTION	LABEL	REF3000-16137	Pstat Section
PSTATSERIALNO	LABEL	16137	Pstat Serial Number
CTRLMODE	IQUANT	1	Control Mode
IESTAB	IQUANT	0	I/E Stability
CASPEED	IQUANT	1	Control Amp Speed
CONVENTION	IQUANT	1	Current Convention
ICHRANGE	IQUANT	2	Ich Range
ICHRANGEMODE	TOGGLE	F	Ich Auto Range
ICHOFFSETENABLE	TOGGLE	T	Ich Offset Enable
ICHOFFSET	QUANT	0	Ich Offset (V)
ICHFILTER	IQUANT	3	Ich Filter
VCHRANGE	IQUANT	2	Vch Range
VCHRANGEMODE	TOGGLE	F	Vch Auto Range
VCHOFFSETENABLE	TOGGLE	T	Vch Offset Enable
VCHOFFSET	QUANT	0	Vch Offset (V)
VCHFILTER	IQUANT	3	Vch Filter
ACHRANGE	IQUANT	2	Ach Range
ACHOFFSETENABLE	TOGGLE	F	Ach Offset Enable
ACHOFFSET	QUANT	0	Ach Offset (V)
ACHFILTER	IQUANT	3	Ach Filter
IERANGELOWERLIMIT	IQUANT	2	I/E Range Lower Limit
IERANGEMODE	TOGGLE	F	I/E AutoRange
IERANGE	IQUANT	11	I/E Range
POSFEEDENABLE	TOGGLE	F	Positive Feedback IR Comp
POSFEEDRESISTANCE	QUANT	0	Positive Feedback Resistance (ohm)
ACHSELECT	IQUANT	0	Ach Select
CABLEID	IQUANT	13	Cable ID
DCCALDATE	LABEL	7/31/2020	DC Calibration Date
ACCALDATE	LABEL	7/31/2020	AC Calibration Date
THERMOSELECT	IQUANT	1	Thermo Select
FRAMEWORKVERSION	QUANT	6.33	Framework Version
INSTRUMENTVERSION	LABEL	3.50	Instrument Version
COMPLIANCEVOLTAGE	IQUANT	0	Compliance Voltage
ZCURVE	TABLE
	Pt	Time	Freq	Zreal	Zimag	Zsig	Zmod	Zphz	Idc	Vdc	IERange
	#	s	Hz	ohm	ohm	V	ohm	°	A	V	#
	0	8	300046.9	215.1384	-9.297885	1	215.3392	-2.474679	-5.595712E-005	0.0006165	9
	1	12	238359.4	215.812	-7.623072	1	215.9466	-2.023003	-2.82226E-005	-0.0008675	9
	2	16	189328.1	216.2105	-5.922651	1	216.2916	-1.56911	-8.895212E-005	0.003196	9
	3	19	150421.9	216.8785	-5.511066	1	216.9485	-1.455621	-7.372344E-005	0.0033498	9
	4	22	119484.4	217.7445	-4.505828	1	217.7912	-1.185463	-8.996194E-005	0.0033705	9
	5	24	94921.88	218.1702	-3.367392	1	218.1961	-0.8842733	-2.709026E-005	0.0008109	9
	6	27	75421.88	218.7747	-3.127681	1	218.797	-0.8190652	-2.091807E-005	0.0004265	9
	7	29	59859.37	219.208	-2.523592	1	219.2225	-0.659578	-1.509456E-005	0.0001094	9
	8	32	47578.12	219.7099	-2.026871	1	219.7192	-0.528551	-1.515568E-005	0.0002359	9
	9	34	37828.12	220.6721	-2.240667	1	220.6835	-0.5817516	3.074746E-005	-0.0006022	9
	10	37	30046.88	220.372	-1.647531	1	220.3782	-0.4283431	6.41608E-006	0.0003803	9
	11	39	23859.38	220.9245	-1.755927	1	220.9314	-0.4553822	-2.159965E-005	0.0005252	9
	12	42	18984.38	221.1463	-1.544648	1	221.1517	-0.4001892	-1.05236E-005	-7.380539E-005	9
	13	44	15046.87	221.4388	-1.148329	1	221.4417	-0.2971197	-5.563923E-006	-0.0002438	9
	14	46	11953.13	221.9162	-1.640955	1	221.9223	-0.423665	2.353082E-005	-0.0002334	9
	15	49	9515.62	222.2625	-1.713598	1	222.2691	-0.4417299	2.27426E-005	-0.0002505	9
	16	51	7546.875	222.504	-1.790568	1	222.5112	-0.4610694	1.546554E-005	-0.0007811	9
	17	53	5928.309	223.2494	-2.475807	1	223.2631	-0.6353767	2.287252E-005	-0.000236	9
	18	56	4733.456	223.1866	-2.407008	1	223.1996	-0.6178957	-1.888988E-006	-0.0003885	9
	19	58	3796.875	223.6789	-3.793945	1	223.7111	-0.971733	-2.62613E-005	0.0010548	9
	20	60	2987.132	224.0282	-4.132108	1	224.0663	-1.056677	1.872457E-005	-3.679049E-005	9
	21	63	2390.625	224.6767	-4.314543	1	224.7181	-1.100135	1.485332E-005	-0.0007874	9
	22	65	1884.191	224.9886	-4.587601	1	225.0353	-1.16812	7.291282E-006	-0.0006463	9
	23	67	1516.544	225.3755	-6.649463	1	225.4736	-1.689961	-2.401758E-005	0.000852	9
	24	70	1193.986	226.0519	-8.396253	1	226.2078	-2.127161	-2.260191E-005	0.000657	9
	25	72	946.5144	226.7846	-10.45116	1	227.0253	-2.638558	-2.412937E-005	0.0006708	9
	26	74	751.7689	226.7051	-12.99795	1	227.0774	-3.281415	1.017168E-005	0.0003054	9
	27	77	597.4265	227.7852	-15.27716	1	228.297	-3.836984	2.558409E-005	-0.0004632	9
	28	79	477.4305	228.7385	-19.32431	1	229.5534	-4.829001	9.93219E-007	5.682218E-005	9
	29	81	376.6741	229.6727	-24.03512	1	230.9269	-5.974228	1.063005E-006	5.48948E-005	9
	30	84	298.2954	230.7318	-29.79347	1	232.6474	-7.357662	9.859282E-007	6.303725E-005	9
	31	86	237.7717	231.9741	-36.71414	1	234.8615	-8.993506	8.306694E-007	0.0000997	9
	32	89	189.0121	233.4424	-45.37115	1	237.8106	-10.99871	1.041576E-006	5.452718E-005	9
	33	91	150.2404	235.2613	-56.0618	1	241.8487	-13.40338	1.145843E-006	5.83717E-005	9
	34	93	119.1737	237.4496	-69.37633	1	247.377	-16.28693	1.114916E-006	6.15289E-005	9
	35	96	95.0169	240.0979	-85.40779	1	254.8362	-19.58153	1.113475E-006	5.897605E-005	9
	36	98	75.60484	243.3941	-105.2881	1	265.191	-23.39249	1.080115E-006	5.749406E-005	9
	37	101	54.50582	249.3772	-141.8977	1	286.9215	-29.64024	1.101393E-006	5.539608E-005	9
	38	103	45.95588	253.4922	-165.701	1	302.845	-33.17155	1.057827E-006	6.083783E-005	9
	39	106	37.20238	259.4535	-200.6812	1	328.0077	-37.72112	1.081971E-006	5.937085E-005	9
	40	108	30.04808	266.881	-243.4469	1	361.2366	-42.37085	1.077755E-006	6.343666E-005	9
	41	111	23.91582	275.4935	-297.8313	1	405.7094	-47.23122	5.307486E-008	0.0006219	8
	42	113	18.60119	289.0401	-373.4573	1	472.2442	-52.26165	-4.889386E-008	0.0006348	8
	43	115	15.02404	303.5038	-452.2864	1	544.6811	-56.13667	6.234842E-008	0.00063	8
	44	117	12.01923	322.4905	-552.1349	1	639.4162	-59.71169	3.578738E-008	0.0006346	8
	45	120	9.450605	348.006	-683.9808	1	767.4229	-63.03324	3.457667E-008	0.0006227	8
	46	122	7.512019	378.1937	-838.2625	1	919.6274	-65.71683	-7.28119E-009	0.0006194	8
	47	125	5.978954	415.4821	-1024.632	1	1105.665	-67.92773	1.457473E-008	0.0006474	8
	48	128	4.734848	461.1667	-1257.972	1	1339.839	-69.8673	-3.120823E-008	0.0006048	8
	49	132	3.75601	517.7287	-1541.617	1	1626.231	-71.43616	6.958498E-009	0.0006358	8
	50	135	3.004808	581.8964	-1874.405	1	1962.651	-72.7534	3.587218E-008	0.0005968	8
	51	139	2.372217	662.8497	-2308.28	1	2401.567	-73.97796	9.920222E-010	0.0005753	8
	52	143	1.878005	763.6653	-2836.866	1	2937.855	-74.93352	1.140089E-008	0.0006466	8
	53	148	1.512097	880.5278	-3433.751	1	3544.852	-75.61737	-4.739158E-009	0.0005413	8
	54	153	1.201923	1027.717	-4226.934	1	4350.078	-76.33453	-2.153786E-008	0.0006479	7
	55	159	0.956633	1209.541	-5181.55	1	5320.85	-76.8606	-2.756981E-008	-2.510963E-005	7
