EXPLAIN
TAG	EISPOT
TITLE	LABEL	Potentiostatic EIS	Test Identifier
DATE	LABEL	9/22/2020	Date
TIME	LABEL	2:12:54	Time
NOTES	NOTES	1	Notes...
	
PSTAT	PSTAT	REF3000-16137	Potentiostat
VDC	POTEN	0.00000E+000	T	DC Voltage (V)
FREQINIT	QUANT	3.00000E+005	Initial Freq. (Hz)
FREQFINAL	QUANT	1.00000E+000	Final Freq. (Hz)
PTSPERDEC	QUANT	1.00000E+001	Points/decade
VAC	QUANT	5.00000E+001	AC Voltage (mV rms)
AREA	QUANT	1.00000E+000	Sample Area (cm^2)
SPEED	SELECTOR	2	Optimize for:
ZGUESS	QUANT	1.00000E+003	Estimated Z (ohms)
EOC	QUANT	0	Open Circuit (V)
SEQUENCER	TOGGLE	TRUE	Run as Sequence
PSTATMODEL	IQUANT	5	Pstat Model
PSTATSECTION	LABEL	REF3000-16137	Pstat Section
PSTATSERIALNO	LABEL	16137	Pstat Serial Number
CTRLMODE	IQUANT	1	Control Mode
IESTAB	IQUANT	0	I/E Stability
CASPEED	IQUANT	1	Control Amp Speed
CONVENTION	IQUANT	1	Current Convention
ICHRANGE	IQUANT	2	Ich Range
ICHRANGEMODE	TOGGLE	F	Ich Auto Range
ICHOFFSETENABLE	TOGGLE	T	Ich Offset Enable
ICHOFFSET	QUANT	0	Ich Offset (V)
ICHFILTER	IQUANT	3	Ich Filter
VCHRANGE	IQUANT	2	Vch Range
VCHRANGEMODE	TOGGLE	F	Vch Auto Range
VCHOFFSETENABLE	TOGGLE	T	Vch Offset Enable
VCHOFFSET	QUANT	0	Vch Offset (V)
VCHFILTER	IQUANT	3	Vch Filter
ACHRANGE	IQUANT	2	Ach Range
ACHOFFSETENABLE	TOGGLE	F	Ach Offset Enable
ACHOFFSET	QUANT	0	Ach Offset (V)
ACHFILTER	IQUANT	3	Ach Filter
IERANGELOWERLIMIT	IQUANT	2	I/E Range Lower Limit
IERANGEMODE	TOGGLE	F	I/E AutoRange
IERANGE	IQUANT	11	I/E Range
POSFEEDENABLE	TOGGLE	F	Positive Feedback IR Comp
POSFEEDRESISTANCE	QUANT	0	Positive Feedback Resistance (ohm)
ACHSELECT	IQUANT	0	Ach Select
CABLEID	IQUANT	13	Cable ID
DCCALDATE	LABEL	7/31/2020	DC Calibration Date
ACCALDATE	LABEL	7/31/2020	AC Calibration Date
THERMOSELECT	IQUANT	1	Thermo Select
FRAMEWORKVERSION	QUANT	6.33	Framework Version
INSTRUMENTVERSION	LABEL	3.50	Instrument Version
COMPLIANCEVOLTAGE	IQUANT	0	Compliance Voltage
ZCURVE	TABLE
	Pt	Time	Freq	Zreal	Zimag	Zsig	Zmod	Zphz	Idc	Vdc	IERange
	#	s	Hz	ohm	ohm	V	ohm	°	A	V	#
	0	7	300046.9	123.6485	-0.7523476	1	123.6508	-0.3486157	-1.426096E-005	0.000942	9
	1	10	238359.4	123.8952	-0.6991547	1	123.8971	-0.3233233	7.580594E-006	-0.0016765	9
	2	13	189328.1	124.1627	-0.8924903	1	124.1659	-0.411839	1.916237E-005	-0.0005266	9
	3	15	150421.9	124.5402	-0.8583984	1	124.5432	-0.3949071	-7.454347E-005	0.0019828	9
	4	18	119484.4	125.0207	-0.6242121	1	125.0223	-0.2860679	1.109022E-005	-0.0013785	9
	5	21	94921.88	125.1174	-0.407279	1	125.1181	-0.1865071	-1.392004E-005	0.0000985	9
	6	23	75421.88	125.2842	-0.464085	1	125.2851	-0.2122373	1.868129E-005	-0.0002034	9
	7	26	59859.37	125.4879	-0.5113353	1	125.489	-0.2334663	-6.939516E-006	0.0006751	9
	8	28	47578.12	125.9072	-0.6633675	1	125.909	-0.3018715	2.189912E-005	-0.0006593	9
	9	31	37828.12	125.9611	-0.5594686	1	125.9623	-0.2544832	-1.440836E-005	0.0008246	9
	10	33	30046.88	126.0274	-0.6702957	1	126.0292	-0.3047334	1.420029E-005	-0.0006614	9
	11	36	23859.38	126.3544	-0.6797633	1	126.3562	-0.3082378	2.381884E-005	-0.0007502	9
	12	38	18984.38	126.5043	-0.7727805	1	126.5067	-0.35	2.521772E-005	-0.0006539	9
	13	41	15046.87	126.6237	-0.8763816	1	126.6267	-0.3965465	-2.32614E-006	-0.0003185	9
	14	43	11953.13	127.0083	-1.094175	1	127.013	-0.4935904	1.168686E-005	0.0001592	9
	15	45	9515.62	127.1724	-1.295475	1	127.179	-0.5836384	-2.518678E-005	0.0008583	9
	16	47	7546.875	127.3919	-1.559353	1	127.4015	-0.7012995	-1.767466E-005	0.0003466	9
	17	50	5928.309	127.4673	-1.828968	1	127.4804	-0.8220536	2.275237E-005	-0.0006971	9
	18	52	4733.456	127.673	-2.30964	1	127.6939	-1.036384	1.158218E-005	0.000185	9
	19	54	3796.875	128.0232	-2.737436	1	128.0524	-1.224932	2.032835E-005	-0.0007481	9
	20	57	2987.132	128.1264	-3.408324	1	128.1717	-1.523781	-1.949693E-005	0.000887	9
	21	59	2390.625	128.3256	-4.206382	1	128.3945	-1.877425	-6.578842E-006	0.0008041	9
	22	61	1884.191	128.8092	-5.012355	1	128.9067	-2.228427	-2.027663E-005	0.0004988	9
	23	64	1516.544	129.0328	-6.298455	1	129.1864	-2.794551	-7.343387E-006	0.0007811	9
	24	66	1193.986	129.3506	-7.773631	1	129.584	-3.439188	2.386771E-005	-0.0004397	9
	25	69	946.5144	129.7147	-9.71861	1	130.0783	-4.284765	-2.035858E-005	0.0004775	9
	26	71	751.7689	130.2988	-11.85058	1	130.8366	-5.196711	-1.760601E-005	0.0003401	9
	27	73	597.4265	130.8167	-14.74435	1	131.645	-6.430665	-8.714603E-006	-6.256319E-005	9
	28	75	477.4305	131.2828	-18.11762	1	132.527	-7.857447	1.099199E-006	6.805443E-005	9
	29	78	376.6741	132.0199	-22.54884	1	133.9317	-9.69252	1.116472E-006	6.236888E-005	9
	30	80	298.2954	132.8871	-27.96123	1	135.7969	-11.88247	1.058923E-006	6.807209E-005	9
	31	82	237.7717	133.9316	-34.47226	1	138.2968	-14.4339	1.13667E-006	6.487423E-005	9
	32	85	189.0121	135.2146	-42.58985	1	141.7635	-17.48337	1.103582E-006	6.835512E-005	9
	33	87	150.2404	136.8003	-52.59193	1	146.5613	-21.02892	1.11361E-006	6.890544E-005	9
	34	90	119.1737	138.779	-65.02936	1	153.2593	-25.10695	1.187852E-006	6.795463E-005	9
	35	92	95.0169	141.1964	-79.9861	1	162.2781	-29.53105	1.117924E-006	6.634201E-005	9
	36	95	75.60484	144.2294	-98.5038	1	174.6572	-34.33176	1.117098E-006	6.211127E-005	9
	37	97	54.50582	149.8433	-132.5816	1	200.0772	-41.50246	1.081514E-006	5.977102E-005	9
	38	100	45.95588	153.6591	-154.7476	1	218.0779	-45.20221	1.172639E-006	6.675151E-005	9
	39	102	37.20238	159.2936	-187.3035	1	245.8801	-49.62026	1.155141E-006	5.958573E-005	9
	40	104	30.04808	166.3521	-227.1252	1	281.5296	-53.78003	1.148362E-006	6.171154E-005	9
	41	107	23.91582	175.7282	-278.802	1	329.5618	-57.77688	1.24631E-006	6.37906E-005	9
	42	109	18.60119	188.8333	-349.1855	1	396.9742	-61.59626	1.072371E-006	6.416537E-005	9
	43	111	15.02404	201.9384	-420.4747	1	466.4526	-64.34676	6.884459E-008	0.0006451	8
	44	114	12.01923	219.8468	-512.353	1	557.5287	-66.77619	7.329724E-008	0.0006354	8
	45	116	9.450605	243.3937	-633.5924	1	678.734	-68.98579	7.322606E-008	0.0006496	8
	46	119	7.512019	270.7503	-775.1898	1	821.1121	-70.74724	8.73139E-008	0.0006149	8
	47	121	5.978954	303.5256	-947.594	1	995.019	-72.23912	9.439199E-008	0.0006428	8
	48	124	4.734848	344.199	-1163.682	1	1213.52	-73.52261	1.046965E-007	0.0006218	8
	49	128	3.75601	393.0127	-1427.992	1	1481.088	-74.61201	1.470467E-007	0.0006528	8
	50	131	3.004808	450.1742	-1739.12	1	1796.439	-75.48743	1.496407E-007	0.000611	8
	51	135	2.372217	526.1314	-2147.772	1	2211.276	-76.23553	1.21009E-007	0.000561	8
	52	139	1.878005	617.4999	-2645.235	1	2716.353	-76.86026	1.468218E-007	0.0006445	8
	53	144	1.512097	728.0632	-3203.141	1	3284.843	-77.19444	1.221185E-007	0.0005821	8
	54	149	1.201923	873.0668	-3943.461	1	4038.951	-77.5163	1.391666E-007	0.0006618	8
	55	155	0.956633	1062.969	-4846.361	1	4961.564	-77.62902	-2.067403E-008	-2.875506E-005	7
