EXPLAIN
TAG	EISPOT
TITLE	LABEL	Potentiostatic EIS	Test Identifier
DATE	LABEL	9/21/2020	Date
TIME	LABEL	23:21:04	Time
NOTES	NOTES	1	Notes...
	
PSTAT	PSTAT	REF3000-16137	Potentiostat
VDC	POTEN	0.00000E+000	T	DC Voltage (V)
FREQINIT	QUANT	3.00000E+005	Initial Freq. (Hz)
FREQFINAL	QUANT	1.00000E+000	Final Freq. (Hz)
PTSPERDEC	QUANT	1.00000E+001	Points/decade
VAC	QUANT	5.00000E+001	AC Voltage (mV rms)
AREA	QUANT	1.00000E+000	Sample Area (cm^2)
SPEED	SELECTOR	2	Optimize for:
ZGUESS	QUANT	1.00000E+003	Estimated Z (ohms)
EOC	QUANT	0	Open Circuit (V)
SEQUENCER	TOGGLE	TRUE	Run as Sequence
PSTATMODEL	IQUANT	5	Pstat Model
PSTATSECTION	LABEL	REF3000-16137	Pstat Section
PSTATSERIALNO	LABEL	16137	Pstat Serial Number
CTRLMODE	IQUANT	1	Control Mode
IESTAB	IQUANT	0	I/E Stability
CASPEED	IQUANT	1	Control Amp Speed
CONVENTION	IQUANT	1	Current Convention
ICHRANGE	IQUANT	2	Ich Range
ICHRANGEMODE	TOGGLE	F	Ich Auto Range
ICHOFFSETENABLE	TOGGLE	T	Ich Offset Enable
ICHOFFSET	QUANT	0	Ich Offset (V)
ICHFILTER	IQUANT	3	Ich Filter
VCHRANGE	IQUANT	2	Vch Range
VCHRANGEMODE	TOGGLE	F	Vch Auto Range
VCHOFFSETENABLE	TOGGLE	T	Vch Offset Enable
VCHOFFSET	QUANT	0	Vch Offset (V)
VCHFILTER	IQUANT	3	Vch Filter
ACHRANGE	IQUANT	2	Ach Range
ACHOFFSETENABLE	TOGGLE	F	Ach Offset Enable
ACHOFFSET	QUANT	0	Ach Offset (V)
ACHFILTER	IQUANT	3	Ach Filter
IERANGELOWERLIMIT	IQUANT	2	I/E Range Lower Limit
IERANGEMODE	TOGGLE	F	I/E AutoRange
IERANGE	IQUANT	11	I/E Range
POSFEEDENABLE	TOGGLE	F	Positive Feedback IR Comp
POSFEEDRESISTANCE	QUANT	0	Positive Feedback Resistance (ohm)
ACHSELECT	IQUANT	0	Ach Select
CABLEID	IQUANT	13	Cable ID
DCCALDATE	LABEL	7/31/2020	DC Calibration Date
ACCALDATE	LABEL	7/31/2020	AC Calibration Date
THERMOSELECT	IQUANT	1	Thermo Select
FRAMEWORKVERSION	QUANT	6.33	Framework Version
INSTRUMENTVERSION	LABEL	3.50	Instrument Version
COMPLIANCEVOLTAGE	IQUANT	0	Compliance Voltage
ZCURVE	TABLE
	Pt	Time	Freq	Zreal	Zimag	Zsig	Zmod	Zphz	Idc	Vdc	IERange
	#	s	Hz	ohm	ohm	V	ohm	°	A	V	#
	0	10	300046.9	5.568713	2.231327	1	5.999115	21.83548	2.498737E-005	0.000227	10
	1	14	238359.4	5.545157	1.780303	1	5.823937	17.79951	2.158104E-005	-3.188861E-005	10
	2	17	189328.1	5.533608	1.407831	1	5.709887	14.27405	-3.168538E-005	6.860597E-005	10
	3	19	150421.9	5.514414	1.091906	1	5.621478	11.20022	3.86751E-006	0.0003763	10
	4	22	119484.4	5.512247	0.8507993	1	5.57752	8.774199	5.538173E-005	0.0004137	10
	5	24	94921.88	5.51216	0.6665126	1	5.55231	6.89455	7.460253E-006	0.0004767	10
	6	27	75421.88	5.508349	0.4896098	1	5.530066	5.079388	2.132552E-005	0.0005088	10
	7	29	59859.37	5.508228	0.3374309	1	5.518554	3.505525	2.018388E-005	0.000561	10
	8	32	47578.12	5.512204	0.2059657	1	5.51605	2.139885	1.997601E-005	0.0006045	10
	9	34	37828.12	5.51821	0.0869786	1	5.518895	0.9030275	-2.068747E-005	0.0006491	10
	10	37	30046.88	5.524926	-0.0257903	1	5.524986	-0.2674537	2.005533E-005	0.0006418	10
	11	40	23859.38	5.532358	-0.1367929	1	5.534049	-1.416404	1.476194E-005	0.0006229	10
	12	42	18984.38	5.542605	-0.2513843	1	5.548303	-2.596864	3.399631E-006	0.0006135	10
	13	44	15046.87	5.554965	-0.3789551	1	5.567876	-3.902623	-1.194444E-005	0.0006528	10
	14	46	11953.13	5.569169	-0.5219597	1	5.593575	-5.354297	-3.232325E-005	0.0006531	10
	15	49	9515.62	5.586259	-0.6864527	1	5.628278	-7.00552	1.020611E-005	0.000615	10
	16	51	7546.875	5.6083	-0.8864935	1	5.677931	-8.98232	-2.194128E-005	0.0006462	10
	17	53	5928.309	5.637144	-1.137475	1	5.75076	-11.40808	1.950612E-005	0.0006516	10
	18	56	4733.456	5.671206	-1.423523	1	5.847136	-14.09064	-1.849858E-005	0.0006691	10
	19	58	3796.875	5.712348	-1.764612	1	5.978694	-17.16654	-3.170609E-005	0.0006652	10
	20	60	2987.132	5.769391	-2.219651	1	6.181643	-21.04317	-7.161999E-006	0.00068	10
	21	63	2390.625	5.836918	-2.736946	1	6.446742	-25.122	1.551893E-005	0.0006237	10
	22	65	1884.191	5.928431	-3.42383	1	6.846087	-30.0076	2.12692E-005	0.000646	10
	23	67	1516.544	6.035544	-4.190122	1	7.347443	-34.76996	-1.925639E-005	0.0006634	10
	24	70	1193.986	6.182894	-5.230249	1	8.098375	-40.22863	-2.248583E-005	0.0006872	10
	25	72	946.5144	6.375019	-6.473332	1	9.085423	-45.43841	-4.626365E-006	0.0006392	10
	26	74	751.7689	6.608117	-8.000861	1	10.37695	-50.44582	2.064336E-005	0.0006376	10
	27	77	597.4265	6.914808	-9.87256	1	12.0533	-54.99234	1.967776E-005	0.0006475	10
	28	79	477.4305	7.290155	-12.09924	1	14.12579	-58.92978	-3.817571E-006	0.0006715	10
	29	81	376.6741	7.797038	-14.98235	1	16.88978	-62.50686	-3.938231E-006	0.0006623	10
	30	84	298.2954	8.42377	-18.46627	1	20.29688	-65.47893	-4.120555E-006	0.0006695	10
	31	86	237.7717	9.17533	-22.60336	1	24.39464	-67.9064	-3.885258E-006	0.0006614	10
	32	88	189.0121	10.10309	-27.72	1	29.50374	-69.97475	-3.76719E-006	0.0006633	10
	33	91	150.2404	11.22582	-33.98184	1	35.78805	-71.71915	-3.869576E-006	0.0006546	10
	34	93	119.1737	12.5853	-41.69373	1	43.55177	-73.20349	3.73566E-007	7.039601E-005	9
	35	96	95.0169	14.21626	-51.0071	1	52.95117	-74.42624	3.342818E-007	6.137568E-005	9
	36	98	75.60484	16.2406	-62.55329	1	64.62717	-75.44573	2.440431E-007	6.232937E-005	9
	37	101	54.50582	20.02786	-83.85276	1	86.21137	-76.56683	7.837184E-008	6.046467E-005	9
	38	103	45.95588	22.57266	-97.7551	1	100.3274	-76.99771	2.948981E-007	6.646256E-005	9
	39	106	37.20238	26.43801	-118.1878	1	121.1088	-77.39081	1.924275E-007	7.329653E-005	9
	40	108	30.04808	31.39014	-143.182	1	146.5824	-77.63453	3.16862E-007	6.206281E-005	9
	41	110	23.91582	38.22638	-175.6102	1	179.7226	-77.71957	1.884229E-007	6.091579E-005	9
	42	113	18.60119	48.33245	-219.9337	1	225.1819	-77.60574	5.399565E-007	6.982942E-005	9
	43	115	15.02404	59.6879	-265.8699	1	272.4875	-77.34687	1.649871E-007	5.669171E-005	9
	44	117	12.01923	75.45126	-323.5978	1	332.2776	-76.87519	5.900674E-007	6.680896E-005	9
	45	120	9.450605	97.9603	-398.9336	1	410.7849	-76.20368	2.090436E-007	6.423394E-005	9
	46	122	7.512019	126.16	-483.8853	1	500.0614	-75.38699	-3.743881E-007	0.0006513	8
	47	125	5.978954	163.5709	-586.2513	1	608.6428	-74.41029	-3.394088E-007	0.0006538	8
	48	128	4.734848	214.6421	-711.0818	1	742.7709	-73.20341	-1.830443E-007	0.0006433	8
	49	131	3.75601	280.3897	-856.5891	1	901.312	-71.87503	-2.421012E-007	0.000642	8
	50	135	3.004808	362.4377	-1018.8	1	1081.348	-70.41699	-8.061925E-008	0.0006046	8
	51	138	2.372217	474.1758	-1218.805	1	1307.795	-68.74149	-2.066704E-007	0.0005749	8
	52	143	1.878005	617.587	-1443.703	1	1570.252	-66.83973	-2.010661E-007	0.0006508	8
	53	147	1.512097	784.5757	-1677.937	1	1852.305	-64.93999	-1.599433E-007	0.0005336	8
	54	153	1.201923	1005.233	-1956.464	1	2199.601	-62.80587	-2.237165E-007	0.0006601	8
	55	159	0.956633	1277.068	-2255.762	1	2592.174	-60.48425	-3.135362E-007	-1.136189E-006	8
