EXPLAIN
TAG	EISPOT
TITLE	LABEL	Potentiostatic EIS	Test Identifier
DATE	LABEL	9/22/2020	Date
TIME	LABEL	0:22:10	Time
NOTES	NOTES	1	Notes...
	
PSTAT	PSTAT	REF3000-16137	Potentiostat
VDC	POTEN	0.00000E+000	T	DC Voltage (V)
FREQINIT	QUANT	3.00000E+005	Initial Freq. (Hz)
FREQFINAL	QUANT	1.00000E+000	Final Freq. (Hz)
PTSPERDEC	QUANT	1.00000E+001	Points/decade
VAC	QUANT	5.00000E+001	AC Voltage (mV rms)
AREA	QUANT	1.00000E+000	Sample Area (cm^2)
SPEED	SELECTOR	2	Optimize for:
ZGUESS	QUANT	1.00000E+003	Estimated Z (ohms)
EOC	QUANT	0	Open Circuit (V)
SEQUENCER	TOGGLE	TRUE	Run as Sequence
PSTATMODEL	IQUANT	5	Pstat Model
PSTATSECTION	LABEL	REF3000-16137	Pstat Section
PSTATSERIALNO	LABEL	16137	Pstat Serial Number
CTRLMODE	IQUANT	1	Control Mode
IESTAB	IQUANT	0	I/E Stability
CASPEED	IQUANT	1	Control Amp Speed
CONVENTION	IQUANT	1	Current Convention
ICHRANGE	IQUANT	2	Ich Range
ICHRANGEMODE	TOGGLE	F	Ich Auto Range
ICHOFFSETENABLE	TOGGLE	T	Ich Offset Enable
ICHOFFSET	QUANT	0	Ich Offset (V)
ICHFILTER	IQUANT	3	Ich Filter
VCHRANGE	IQUANT	2	Vch Range
VCHRANGEMODE	TOGGLE	F	Vch Auto Range
VCHOFFSETENABLE	TOGGLE	T	Vch Offset Enable
VCHOFFSET	QUANT	0	Vch Offset (V)
VCHFILTER	IQUANT	3	Vch Filter
ACHRANGE	IQUANT	2	Ach Range
ACHOFFSETENABLE	TOGGLE	F	Ach Offset Enable
ACHOFFSET	QUANT	0	Ach Offset (V)
ACHFILTER	IQUANT	3	Ach Filter
IERANGELOWERLIMIT	IQUANT	2	I/E Range Lower Limit
IERANGEMODE	TOGGLE	F	I/E AutoRange
IERANGE	IQUANT	11	I/E Range
POSFEEDENABLE	TOGGLE	F	Positive Feedback IR Comp
POSFEEDRESISTANCE	QUANT	0	Positive Feedback Resistance (ohm)
ACHSELECT	IQUANT	0	Ach Select
CABLEID	IQUANT	13	Cable ID
DCCALDATE	LABEL	7/31/2020	DC Calibration Date
ACCALDATE	LABEL	7/31/2020	AC Calibration Date
THERMOSELECT	IQUANT	1	Thermo Select
FRAMEWORKVERSION	QUANT	6.33	Framework Version
INSTRUMENTVERSION	LABEL	3.50	Instrument Version
COMPLIANCEVOLTAGE	IQUANT	0	Compliance Voltage
ZCURVE	TABLE
	Pt	Time	Freq	Zreal	Zimag	Zsig	Zmod	Zphz	Idc	Vdc	IERange
	#	s	Hz	ohm	ohm	V	ohm	°	A	V	#
	0	8	300046.9	11.16776	2.14301	1	11.37152	10.86258	6.187836E-005	0.0001043	10
	1	12	238359.4	11.15443	1.716936	1	11.2858	8.750527	4.57319E-005	0.0003006	10
	2	15	189328.1	11.13997	1.351581	1	11.22166	6.917721	6.931502E-005	0.000098	10
	3	17	150421.9	11.12823	1.054246	1	11.17806	5.411831	-2.503342E-005	0.0004844	10
	4	20	119484.4	11.14181	0.8147992	1	11.17157	4.182587	-2.960093E-005	0.0004932	10
	5	22	94921.88	11.14005	0.6370209	1	11.15825	3.272777	-2.470453E-005	0.0006081	10
	6	25	75421.88	11.14424	0.4553315	1	11.15354	2.33969	1.801977E-005	0.0006226	10
	7	27	59859.37	11.15438	0.3015248	1	11.15846	1.54844	-1.39788E-005	0.0006223	10
	8	30	47578.12	11.16605	0.168869	1	11.16733	0.8664429	1.696432E-005	0.0006516	10
	9	32	37828.12	11.17728	0.0503175	1	11.17739	0.2579307	2.151705E-005	0.0006537	10
	10	35	30046.88	11.19119	-0.0643801	1	11.19137	-0.3296046	-2.773539E-006	0.0007003	10
	11	38	23859.38	11.20506	-0.1811681	1	11.20652	-0.9263015	2.097929E-006	0.0006997	10
	12	40	18984.38	11.21994	-0.3033511	1	11.22404	-1.548716	1.67866E-005	0.0006035	10
	13	42	15046.87	11.23826	-0.4414614	1	11.24693	-2.249536	2.354542E-005	0.0006489	10
	14	44	11953.13	11.25908	-0.5948687	1	11.27479	-3.024385	-1.186733E-005	0.0007146	10
	15	47	9515.62	11.28302	-0.7755428	1	11.30964	-3.932064	2.053942E-005	0.0006262	10
	16	49	7546.875	11.31373	-0.994594	1	11.35737	-5.023975	1.641785E-005	0.0006806	10
	17	51	5928.309	11.34909	-1.272388	1	11.42019	-6.396928	4.292269E-006	0.0006061	10
	18	54	4733.456	11.38923	-1.587593	1	11.49935	-7.935566	2.046284E-005	0.0006518	10
	19	56	3796.875	11.43822	-1.965374	1	11.60584	-9.74965	2.309936E-005	0.0006437	10
	20	58	2987.132	11.5026	-2.468635	1	11.76452	-12.11282	2.34126E-005	0.000634	10
	21	61	2390.625	11.57855	-3.043909	1	11.97197	-14.72932	1.024807E-005	0.0005948	10
	22	63	1884.191	11.67635	-3.807504	1	12.28146	-18.06047	1.445788E-005	0.0006571	10
	23	65	1516.544	11.79142	-4.664863	1	12.68063	-21.58451	6.466344E-006	0.0006579	10
	24	68	1193.986	11.94755	-5.827535	1	13.29301	-26.00126	4.417647E-006	0.0006656	10
	25	70	946.5144	12.13992	-7.230485	1	14.13003	-30.77785	-2.604507E-005	0.0006532	10
	26	72	751.7689	12.38538	-8.939895	1	15.27479	-35.82215	-2.8081E-005	0.0006824	10
	27	75	597.4265	12.69538	-11.04296	1	16.82616	-41.01807	-2.550369E-005	0.0007202	10
	28	77	477.4305	13.07273	-13.56829	1	18.84131	-46.06567	-3.33067E-006	0.0006688	10
	29	79	376.6741	13.58845	-16.8564	1	21.65142	-51.12667	-2.857671E-006	0.0006653	10
	30	82	298.2954	14.23881	-20.8521	1	25.24983	-55.67287	-2.997419E-006	0.000669	10
	31	84	237.7717	15.05048	-25.61946	1	29.71319	-59.56734	-2.271738E-006	0.0006656	10
	32	87	189.0121	16.08566	-31.51242	1	35.38052	-62.95775	-2.261171E-006	0.0006607	10
	33	89	150.2404	17.36092	-38.66726	1	42.38583	-65.82076	1.015047E-006	6.160069E-005	9
	34	91	119.1737	18.9812	-47.5412	1	51.19035	-68.23525	1.037279E-006	6.4068E-005	9
	35	94	95.0169	20.91722	-58.13453	1	61.78312	-70.21091	9.333377E-007	5.83681E-005	9
	36	96	75.60484	23.28468	-71.19026	1	74.90147	-71.88828	9.348477E-007	6.368906E-005	9
	37	99	54.50582	27.5454	-95.1583	1	99.0649	-73.8559	8.324135E-007	6.390179E-005	9
	38	101	45.95588	30.29642	-110.7454	1	114.8147	-74.70004	1.02437E-006	6.618111E-005	9
	39	104	37.20238	34.30867	-133.696	1	138.0279	-75.60749	9.706819E-007	5.883372E-005	9
	40	106	30.04808	39.24962	-161.8395	1	166.531	-76.36772	1.026832E-006	6.005766E-005	9
	41	109	23.91582	45.81256	-198.5171	1	203.7347	-77.00513	9.449244E-007	5.658767E-005	9
	42	111	18.60119	55.08572	-248.7706	1	254.7964	-77.51436	9.43049E-007	6.436098E-005	9
	43	113	15.02404	65.2333	-301.4363	1	308.4141	-77.78902	1.03356E-006	5.367121E-005	9
	44	116	12.01923	78.79086	-368.2881	1	376.622	-77.92429	1.198599E-006	6.691277E-005	9
	45	118	9.450605	97.5762	-454.8148	1	465.1641	-77.89128	3.14291E-007	0.000641	8
	46	121	7.512019	121.9286	-558.0732	1	571.2375	-77.6756	2.672988E-007	0.0006387	8
	47	123	5.978954	153.3394	-682.6823	1	699.6914	-77.34072	2.896653E-007	0.0006417	8
	48	126	4.734848	197.0268	-837.8735	1	860.7274	-76.76725	3.76518E-007	0.0006329	8
	49	130	3.75601	253.6661	-1023.675	1	1054.636	-76.08249	3.382016E-007	0.0006426	8
	50	133	3.004808	325.4834	-1237.204	1	1279.302	-75.26062	4.182994E-007	0.0006064	8
	51	137	2.372217	425.3338	-1507.327	1	1566.188	-74.24213	3.76937E-007	0.0006089	8
	52	141	1.878005	558.3037	-1824.733	1	1908.233	-72.98775	3.69036E-007	0.0006486	8
	53	146	1.512097	713.9354	-2170.16	1	2284.578	-71.78992	3.821641E-007	0.000533	8
	54	151	1.201923	925.8473	-2597.066	1	2757.163	-70.37898	3.517864E-007	0.0006593	8
	55	157	0.956633	1191.802	-3088.562	1	3310.53	-68.89958	3.304818E-007	-7.098615E-007	8
