EXPLAIN
TAG	EISPOT
TITLE	LABEL	Potentiostatic EIS	Test Identifier
DATE	LABEL	9/22/2020	Date
TIME	LABEL	1:37:08	Time
NOTES	NOTES	1	Notes...
	
PSTAT	PSTAT	REF3000-16137	Potentiostat
VDC	POTEN	0.00000E+000	T	DC Voltage (V)
FREQINIT	QUANT	3.00000E+005	Initial Freq. (Hz)
FREQFINAL	QUANT	1.00000E+000	Final Freq. (Hz)
PTSPERDEC	QUANT	1.00000E+001	Points/decade
VAC	QUANT	5.00000E+001	AC Voltage (mV rms)
AREA	QUANT	1.00000E+000	Sample Area (cm^2)
SPEED	SELECTOR	2	Optimize for:
ZGUESS	QUANT	1.00000E+003	Estimated Z (ohms)
EOC	QUANT	0	Open Circuit (V)
SEQUENCER	TOGGLE	TRUE	Run as Sequence
PSTATMODEL	IQUANT	5	Pstat Model
PSTATSECTION	LABEL	REF3000-16137	Pstat Section
PSTATSERIALNO	LABEL	16137	Pstat Serial Number
CTRLMODE	IQUANT	1	Control Mode
IESTAB	IQUANT	0	I/E Stability
CASPEED	IQUANT	1	Control Amp Speed
CONVENTION	IQUANT	1	Current Convention
ICHRANGE	IQUANT	2	Ich Range
ICHRANGEMODE	TOGGLE	F	Ich Auto Range
ICHOFFSETENABLE	TOGGLE	T	Ich Offset Enable
ICHOFFSET	QUANT	0	Ich Offset (V)
ICHFILTER	IQUANT	3	Ich Filter
VCHRANGE	IQUANT	2	Vch Range
VCHRANGEMODE	TOGGLE	F	Vch Auto Range
VCHOFFSETENABLE	TOGGLE	T	Vch Offset Enable
VCHOFFSET	QUANT	0	Vch Offset (V)
VCHFILTER	IQUANT	3	Vch Filter
ACHRANGE	IQUANT	2	Ach Range
ACHOFFSETENABLE	TOGGLE	F	Ach Offset Enable
ACHOFFSET	QUANT	0	Ach Offset (V)
ACHFILTER	IQUANT	3	Ach Filter
IERANGELOWERLIMIT	IQUANT	2	I/E Range Lower Limit
IERANGEMODE	TOGGLE	F	I/E AutoRange
IERANGE	IQUANT	11	I/E Range
POSFEEDENABLE	TOGGLE	F	Positive Feedback IR Comp
POSFEEDRESISTANCE	QUANT	0	Positive Feedback Resistance (ohm)
ACHSELECT	IQUANT	0	Ach Select
CABLEID	IQUANT	13	Cable ID
DCCALDATE	LABEL	7/31/2020	DC Calibration Date
ACCALDATE	LABEL	7/31/2020	AC Calibration Date
THERMOSELECT	IQUANT	1	Thermo Select
FRAMEWORKVERSION	QUANT	6.33	Framework Version
INSTRUMENTVERSION	LABEL	3.50	Instrument Version
COMPLIANCEVOLTAGE	IQUANT	0	Compliance Voltage
ZCURVE	TABLE
	Pt	Time	Freq	Zreal	Zimag	Zsig	Zmod	Zphz	Idc	Vdc	IERange
	#	s	Hz	ohm	ohm	V	ohm	°	A	V	#
	0	7	300046.9	45.78828	2.310704	1	45.84655	2.888979	-3.048937E-007	0.0001625	9
	1	10	238359.4	45.94093	1.766898	1	45.97489	2.202523	-5.654274E-005	0.0011172	9
	2	13	189328.1	45.95729	1.374811	1	45.97785	1.71349	-1.246176E-006	8.62674E-005	9
	3	16	150421.9	46.06283	1.036484	1	46.07449	1.289025	-5.910673E-005	0.0019587	9
	4	18	119484.4	46.14315	0.8105081	1	46.15027	1.006301	-7.772821E-006	0.000576	9
	5	21	94921.88	46.23857	0.7510532	1	46.24467	0.9305736	3.440198E-006	0.0002212	9
	6	23	75421.88	46.26035	0.5504355	1	46.26362	0.68171	4.917303E-006	-0.000367	9
	7	26	59859.37	46.30024	0.3411863	1	46.3015	0.4222048	1.425225E-005	-0.0005612	9
	8	28	47578.12	46.34216	0.1734637	1	46.34249	0.2144632	-1.348956E-005	0.0002885	9
	9	31	37828.12	46.40063	0.0215809	1	46.40064	0.0266482	-2.387645E-006	-0.000185	9
	10	33	30046.88	46.4664	-0.1264567	1	46.46657	-0.1559281	1.014157E-005	0.0000987	9
	11	36	23859.38	46.5345	-0.2557706	1	46.5352	-0.3149153	1.618084E-005	-0.0001404	9
	12	38	18984.38	46.5928	-0.4100365	1	46.59461	-0.5042143	1.79803E-005	-0.0002736	9
	13	40	15046.87	46.65668	-0.5460472	1	46.65988	-0.6705314	-5.015553E-006	-6.732097E-005	9
	14	43	11953.13	46.71561	-0.7375644	1	46.72143	-0.9045331	-1.605482E-005	0.0004027	9
	15	45	9515.62	46.78746	-0.9441332	1	46.79699	-1.156026	1.874533E-005	-0.0002889	9
	16	47	7546.875	46.84916	-1.21003	1	46.86478	-1.479519	3.621556E-006	-0.0003249	9
	17	50	5928.309	46.95163	-1.536025	1	46.97675	-1.873766	-7.716038E-006	2.256808E-005	9
	18	52	4733.456	47.04248	-1.898053	1	47.08076	-2.310496	1.526225E-005	-0.000132	9
	19	54	3796.875	47.12608	-2.353376	1	47.1848	-2.858854	-1.199569E-005	0.0002018	9
	20	57	2987.132	47.24988	-2.935618	1	47.34098	-3.555197	-1.434964E-005	0.0003491	9
	21	59	2390.625	47.36957	-3.617187	1	47.50748	-4.366687	-8.103666E-006	0.0006055	9
	22	61	1884.191	47.52458	-4.479268	1	47.7352	-5.384313	-1.244901E-005	0.0006175	9
	23	64	1516.544	47.70593	-5.526811	1	48.02501	-6.608351	1.757105E-005	-0.0005298	9
	24	66	1193.986	47.90386	-6.918802	1	48.40093	-8.218454	-1.626847E-005	0.0005228	9
	25	68	946.5144	48.16563	-8.592886	1	48.92612	-10.11531	-1.198936E-005	0.0006456	9
	26	71	751.7689	48.46106	-10.62505	1	49.61215	-12.36638	-3.050271E-006	-0.0001351	9
	27	73	597.4265	48.84781	-13.14773	1	50.58627	-15.06455	-1.352642E-005	0.0006555	9
	28	75	477.4305	49.2756	-16.16263	1	51.85861	-18.15973	1.16282E-006	0.000098	9
	29	78	376.6741	49.86066	-20.11289	1	53.76443	-21.96826	1.302218E-006	5.996412E-005	9
	30	80	298.2954	50.57856	-24.92723	1	56.38756	-26.236	1.297881E-006	6.676984E-005	9
	31	82	237.7717	51.45566	-30.69425	1	59.91512	-30.81685	1.264115E-006	6.350165E-005	9
	32	85	189.0121	52.564	-37.87005	1	64.78514	-35.7711	1.323972E-006	5.997648E-005	9
	33	87	150.2404	53.95354	-46.70074	1	71.35786	-40.87859	1.380511E-006	5.98949E-005	9
	34	90	119.1737	55.71621	-57.67432	1	80.19117	-45.98933	1.321046E-006	5.927324E-005	9
	35	92	95.0169	57.89314	-70.85579	1	91.4995	-50.74926	1.287829E-006	6.358528E-005	9
	36	95	75.60484	60.66692	-87.15482	1	106.1906	-55.15891	1.298096E-006	5.968134E-005	9
	37	97	54.50582	65.93866	-117.0576	1	134.3517	-60.6074	1.306105E-006	6.182207E-005	9
	38	100	45.95588	69.48375	-136.42	1	153.096	-63.00856	1.223183E-006	6.666523E-005	9
	39	102	37.20238	74.73885	-164.7384	1	180.8995	-65.59705	1.329736E-006	6.572822E-005	9
	40	104	30.04808	81.22693	-199.1751	1	215.1012	-67.81355	1.301876E-006	6.514188E-005	9
	41	107	23.91582	89.6243	-243.7644	1	259.7183	-69.81316	1.346923E-006	5.515017E-005	9
	42	109	18.60119	100.8753	-304.3427	1	320.6248	-71.66207	1.214782E-006	7.877492E-005	9
	43	111	15.02404	112.5401	-367.5285	1	384.3728	-72.97501	1.367348E-006	6.962119E-005	9
	44	114	12.01923	126.4193	-445.8505	1	463.4269	-74.1695	3.039428E-007	0.0006304	8
	45	116	9.450605	145.3461	-552.0499	1	570.863	-75.24966	2.951815E-007	0.0006481	8
	46	119	7.512019	167.4026	-677.1371	1	697.523	-76.1137	3.8255E-007	0.0006571	8
	47	121	5.978954	194.8469	-830.3688	1	852.923	-76.7944	3.558045E-007	0.0006543	8
	48	124	4.734848	230.4951	-1023.285	1	1048.923	-77.30597	3.903766E-007	0.0006662	8
	49	128	3.75601	275.1901	-1259.511	1	1289.223	-77.67515	3.29975E-007	0.0006311	8
	50	131	3.004808	330.7886	-1537.531	1	1572.711	-77.8583	3.469151E-007	0.0006731	8
	51	135	2.372217	406.84	-1901.073	1	1944.119	-77.9206	3.711604E-007	0.0007129	8
	52	139	1.878005	507.4008	-2339.888	1	2394.271	-77.76494	3.642173E-007	0.0006069	8
	53	144	1.512097	630.7689	-2831.752	1	2901.153	-77.44245	3.819846E-007	0.0007307	8
	54	149	1.201923	795.0233	-3468.723	1	3558.665	-77.0909	3.804403E-007	0.0006112	8
	55	155	0.956633	1012.676	-4239.085	1	4358.367	-76.5644	-2.764588E-008	-2.176554E-005	7
