EXPLAIN
TAG	EISPOT
TITLE	LABEL	Potentiostatic EIS	Test Identifier
DATE	LABEL	9/22/2020	Date
TIME	LABEL	1:15:03	Time
NOTES	NOTES	1	Notes...
	
PSTAT	PSTAT	REF3000-16137	Potentiostat
VDC	POTEN	0.00000E+000	T	DC Voltage (V)
FREQINIT	QUANT	3.00000E+005	Initial Freq. (Hz)
FREQFINAL	QUANT	1.00000E+000	Final Freq. (Hz)
PTSPERDEC	QUANT	1.00000E+001	Points/decade
VAC	QUANT	5.00000E+001	AC Voltage (mV rms)
AREA	QUANT	1.00000E+000	Sample Area (cm^2)
SPEED	SELECTOR	2	Optimize for:
ZGUESS	QUANT	1.00000E+003	Estimated Z (ohms)
EOC	QUANT	0	Open Circuit (V)
SEQUENCER	TOGGLE	TRUE	Run as Sequence
PSTATMODEL	IQUANT	5	Pstat Model
PSTATSECTION	LABEL	REF3000-16137	Pstat Section
PSTATSERIALNO	LABEL	16137	Pstat Serial Number
CTRLMODE	IQUANT	1	Control Mode
IESTAB	IQUANT	0	I/E Stability
CASPEED	IQUANT	1	Control Amp Speed
CONVENTION	IQUANT	1	Current Convention
ICHRANGE	IQUANT	2	Ich Range
ICHRANGEMODE	TOGGLE	F	Ich Auto Range
ICHOFFSETENABLE	TOGGLE	T	Ich Offset Enable
ICHOFFSET	QUANT	0	Ich Offset (V)
ICHFILTER	IQUANT	3	Ich Filter
VCHRANGE	IQUANT	2	Vch Range
VCHRANGEMODE	TOGGLE	F	Vch Auto Range
VCHOFFSETENABLE	TOGGLE	T	Vch Offset Enable
VCHOFFSET	QUANT	0	Vch Offset (V)
VCHFILTER	IQUANT	3	Vch Filter
ACHRANGE	IQUANT	2	Ach Range
ACHOFFSETENABLE	TOGGLE	F	Ach Offset Enable
ACHOFFSET	QUANT	0	Ach Offset (V)
ACHFILTER	IQUANT	3	Ach Filter
IERANGELOWERLIMIT	IQUANT	2	I/E Range Lower Limit
IERANGEMODE	TOGGLE	F	I/E AutoRange
IERANGE	IQUANT	11	I/E Range
POSFEEDENABLE	TOGGLE	F	Positive Feedback IR Comp
POSFEEDRESISTANCE	QUANT	0	Positive Feedback Resistance (ohm)
ACHSELECT	IQUANT	0	Ach Select
CABLEID	IQUANT	13	Cable ID
DCCALDATE	LABEL	7/31/2020	DC Calibration Date
ACCALDATE	LABEL	7/31/2020	AC Calibration Date
THERMOSELECT	IQUANT	1	Thermo Select
FRAMEWORKVERSION	QUANT	6.33	Framework Version
INSTRUMENTVERSION	LABEL	3.50	Instrument Version
COMPLIANCEVOLTAGE	IQUANT	0	Compliance Voltage
ZCURVE	TABLE
	Pt	Time	Freq	Zreal	Zimag	Zsig	Zmod	Zphz	Idc	Vdc	IERange
	#	s	Hz	ohm	ohm	V	ohm	°	A	V	#
	0	7	300046.9	27.91478	1.438625	1	27.95183	2.950204	-0.0001204	-0.0005379	11
	1	11	238359.4	27.96561	1.429674	1	28.00213	2.926559	-8.618916E-005	0.000585	10
	2	14	189328.1	27.97677	1.11915	1	27.99914	2.290773	-8.493583E-005	0.0006352	10
	3	17	150421.9	28.02349	0.866491	1	28.03688	1.771031	-0.0001026	0.0006027	10
	4	19	119484.4	28.03785	0.6545715	1	28.04549	1.337384	-1.22857E-005	0.0007453	10
	5	22	94921.88	28.06583	0.4971386	1	28.07023	1.014791	-2.830906E-005	0.0006366	10
	6	24	75421.88	28.09599	0.3400306	1	28.09805	0.6933861	-1.925233E-005	0.0007139	10
	7	27	59859.37	28.12399	0.2065919	1	28.12475	0.4208731	-2.684335E-005	0.0006581	10
	8	30	47578.12	28.1572	0.0845886	1	28.15733	0.1721249	2.168067E-005	0.0006438	10
	9	32	37828.12	28.1911	-0.0302406	1	28.19112	-0.0614611	-2.956962E-005	0.0007077	10
	10	35	30046.88	28.22594	-0.1402429	1	28.22629	-0.2846764	6.374809E-006	0.0005863	10
	11	37	23859.38	28.26141	-0.2619235	1	28.26262	-0.5309956	6.504834E-006	0.0005745	10
	12	39	18984.38	28.2968	-0.3883903	1	28.29947	-0.786369	2.475241E-005	0.000635	10
	13	42	15046.87	28.32431	-0.5327918	1	28.32932	-1.07763	-1.661891E-005	0.000677	10
	14	44	11953.13	28.37551	-0.6968564	1	28.38407	-1.406808	1.863478E-005	0.0005887	10
	15	46	9515.62	28.41252	-0.9021578	1	28.42684	-1.818651	2.665476E-005	0.0006051	10
	16	49	7546.875	28.47249	-1.135872	1	28.49514	-2.284527	1.447207E-005	0.0005931	10
	17	51	5928.309	28.52709	-1.440973	1	28.56346	-2.891692	-1.726808E-005	0.0006571	10
	18	53	4733.456	28.58794	-1.796018	1	28.6443	-3.594844	5.61077E-006	0.0005919	10
	19	56	3796.875	28.65958	-2.213032	1	28.7449	-4.415495	3.027541E-006	0.0006066	10
	20	58	2987.132	28.75456	-2.775332	1	28.88819	-5.512995	-2.877878E-005	0.0006926	10
	21	60	2390.625	28.84911	-3.415761	1	29.05062	-6.752437	-1.857359E-005	0.0006667	10
	22	63	1884.191	28.97782	-4.289119	1	29.29353	-8.419438	-1.554657E-005	0.0007055	10
	23	65	1516.544	29.10879	-5.226519	1	29.57428	-10.17907	2.379695E-005	0.0006509	10
	24	67	1193.986	29.29449	-6.530195	1	30.01351	-12.56665	1.286465E-005	0.0005859	10
	25	70	946.5144	29.51922	-8.098761	1	30.61003	-15.34192	2.398896E-005	0.0005968	10
	26	72	751.7689	29.78463	-10.03302	1	31.42906	-18.61622	-2.268536E-006	0.0006122	10
	27	74	597.4265	30.12125	-12.40578	1	32.57596	-22.38487	2.26104E-005	0.000648	10
	28	77	477.4305	30.54306	-15.25225	1	34.13956	-26.53611	-2.591034E-006	0.0006649	10
	29	79	376.6741	31.09042	-18.96766	1	36.41958	-31.38656	-2.12093E-006	0.0006576	10
	30	81	298.2954	31.73152	-23.46782	1	39.46679	-36.48568	1.211687E-006	6.12229E-005	9
	31	84	237.7717	32.56197	-28.8826	1	43.5257	-41.57316	1.183597E-006	6.679425E-005	9
	32	86	189.0121	33.62156	-35.61836	1	48.98037	-46.65189	1.155142E-006	6.689997E-005	9
	33	89	150.2404	34.96382	-43.90253	1	56.12397	-51.46631	1.20299E-006	6.216724E-005	9
	34	91	119.1737	36.68547	-54.1789	1	65.4307	-55.89739	1.209337E-006	6.079661E-005	9
	35	93	95.0169	38.82074	-66.49297	1	76.99587	-59.72224	1.171491E-006	6.138658E-005	9
	36	96	75.60484	41.53704	-81.66819	1	91.62434	-63.04178	1.132718E-006	5.999383E-005	9
	37	99	54.50582	46.62486	-109.3924	1	118.9142	-66.9155	1.064622E-006	5.576764E-005	9
	38	101	45.95588	49.96042	-127.3093	1	136.7614	-68.5733	1.131471E-006	6.569691E-005	9
	39	103	37.20238	54.81395	-153.5028	1	162.996	-70.34899	1.145767E-006	6.380439E-005	9
	40	106	30.04808	60.66846	-185.4367	1	195.1088	-71.8837	1.192053E-006	5.899006E-005	9
	41	108	23.91582	68.18566	-226.9341	1	236.9564	-73.27634	1.064914E-006	9.282148E-005	9
	42	111	18.60119	78.25986	-283.5894	1	294.1897	-74.57253	1.197948E-006	7.55328E-005	9
	43	113	15.02404	88.68546	-342.9333	1	354.2151	-75.50049	1.369079E-006	7.21734E-005	9
	44	115	12.01923	101.6741	-416.7111	1	428.9356	-76.28821	3.422599E-007	0.0006391	8
	45	118	9.450605	119.4117	-516.8785	1	530.4927	-76.99149	3.760427E-007	0.0006528	8
	46	120	7.512019	140.8318	-635.0217	1	650.4507	-77.49562	4.705572E-007	0.0006629	8
	47	123	5.978954	168.2798	-779.3187	1	797.2802	-77.81509	4.800966E-007	0.0006385	8
	48	126	4.734848	205.1253	-961.121	1	982.766	-77.95251	4.708189E-007	0.0006576	8
	49	129	3.75601	251.5311	-1182.555	1	1209.01	-77.99207	4.977935E-007	0.0006512	8
	50	133	3.004808	310.3723	-1440.856	1	1473.906	-77.84377	4.614349E-007	0.0006418	8
	51	136	2.372217	394.885	-1773.852	1	1817.274	-77.44978	4.592402E-007	0.0006041	8
	52	141	1.878005	503.5968	-2181.507	1	2238.88	-77.00109	5.085782E-007	0.0006262	8
	53	145	1.512097	630.7556	-2630.985	1	2705.538	-76.51829	4.714765E-007	0.0007202	8
	54	151	1.201923	816.785	-3205.554	1	3307.978	-75.70505	5.063689E-007	0.0006329	8
	55	157	0.956633	1049.624	-3882.486	1	4021.866	-74.87183	4.324201E-007	-1.727967E-006	8
