EXPLAIN
TAG	EISPOT
TITLE	LABEL	Potentiostatic EIS	Test Identifier
DATE	LABEL	9/21/2020	Date
TIME	LABEL	23:26:40	Time
NOTES	NOTES	1	Notes...
	
PSTAT	PSTAT	REF3000-16137	Potentiostat
VDC	POTEN	0.00000E+000	T	DC Voltage (V)
FREQINIT	QUANT	3.00000E+005	Initial Freq. (Hz)
FREQFINAL	QUANT	1.00000E+000	Final Freq. (Hz)
PTSPERDEC	QUANT	1.00000E+001	Points/decade
VAC	QUANT	5.00000E+001	AC Voltage (mV rms)
AREA	QUANT	1.00000E+000	Sample Area (cm^2)
SPEED	SELECTOR	2	Optimize for:
ZGUESS	QUANT	1.00000E+003	Estimated Z (ohms)
EOC	QUANT	0	Open Circuit (V)
SEQUENCER	TOGGLE	TRUE	Run as Sequence
PSTATMODEL	IQUANT	5	Pstat Model
PSTATSECTION	LABEL	REF3000-16137	Pstat Section
PSTATSERIALNO	LABEL	16137	Pstat Serial Number
CTRLMODE	IQUANT	1	Control Mode
IESTAB	IQUANT	0	I/E Stability
CASPEED	IQUANT	1	Control Amp Speed
CONVENTION	IQUANT	1	Current Convention
ICHRANGE	IQUANT	2	Ich Range
ICHRANGEMODE	TOGGLE	F	Ich Auto Range
ICHOFFSETENABLE	TOGGLE	T	Ich Offset Enable
ICHOFFSET	QUANT	0	Ich Offset (V)
ICHFILTER	IQUANT	3	Ich Filter
VCHRANGE	IQUANT	2	Vch Range
VCHRANGEMODE	TOGGLE	F	Vch Auto Range
VCHOFFSETENABLE	TOGGLE	T	Vch Offset Enable
VCHOFFSET	QUANT	0	Vch Offset (V)
VCHFILTER	IQUANT	3	Vch Filter
ACHRANGE	IQUANT	2	Ach Range
ACHOFFSETENABLE	TOGGLE	F	Ach Offset Enable
ACHOFFSET	QUANT	0	Ach Offset (V)
ACHFILTER	IQUANT	3	Ach Filter
IERANGELOWERLIMIT	IQUANT	2	I/E Range Lower Limit
IERANGEMODE	TOGGLE	F	I/E AutoRange
IERANGE	IQUANT	11	I/E Range
POSFEEDENABLE	TOGGLE	F	Positive Feedback IR Comp
POSFEEDRESISTANCE	QUANT	0	Positive Feedback Resistance (ohm)
ACHSELECT	IQUANT	0	Ach Select
CABLEID	IQUANT	13	Cable ID
DCCALDATE	LABEL	7/31/2020	DC Calibration Date
ACCALDATE	LABEL	7/31/2020	AC Calibration Date
THERMOSELECT	IQUANT	1	Thermo Select
FRAMEWORKVERSION	QUANT	6.33	Framework Version
INSTRUMENTVERSION	LABEL	3.50	Instrument Version
COMPLIANCEVOLTAGE	IQUANT	0	Compliance Voltage
ZCURVE	TABLE
	Pt	Time	Freq	Zreal	Zimag	Zsig	Zmod	Zphz	Idc	Vdc	IERange
	#	s	Hz	ohm	ohm	V	ohm	°	A	V	#
	0	10	300046.9	5.844221	2.224747	1	6.253353	20.84056	3.758114E-005	0.0002119	10
	1	14	238359.4	5.828177	1.780006	1	6.093937	16.98339	-5.641344E-005	-2.953931E-005	10
	2	17	189328.1	5.807134	1.402208	1	5.974026	13.57496	-2.05175E-005	0.00012	10
	3	19	150421.9	5.791252	1.088402	1	5.892641	10.64395	3.90676E-005	0.0004059	10
	4	22	119484.4	5.788311	0.8488303	1	5.850219	8.34271	9.791049E-006	0.0004516	10
	5	24	94921.88	5.787158	0.6668193	1	5.825449	6.57286	-1.66523E-005	0.0005268	10
	6	27	75421.88	5.785863	0.4886735	1	5.806463	4.827739	-2.613564E-006	0.0005284	10
	7	30	59859.37	5.787014	0.3363925	1	5.796783	3.326795	-2.229361E-005	0.0006322	10
	8	32	47578.12	5.789032	0.2029359	1	5.792588	2.007695	1.22946E-005	0.000595	10
	9	35	37828.12	5.796793	0.0840156	1	5.797402	0.8303562	-9.817698E-006	0.0006293	10
	10	37	30046.88	5.804136	-0.0290908	1	5.804209	-0.2871687	1.962289E-005	0.0006149	10
	11	40	23859.38	5.813232	-0.1402778	1	5.814925	-1.382323	-5.93947E-006	0.0006457	10
	12	42	18984.38	5.82236	-0.2558446	1	5.827979	-2.516057	1.544783E-005	0.0006324	10
	13	44	15046.87	5.836344	-0.3835624	1	5.848934	-3.760051	-2.199441E-005	0.0006885	10
	14	47	11953.13	5.850346	-0.528388	1	5.874159	-5.160803	1.602043E-005	0.0006187	10
	15	49	9515.62	5.868607	-0.6951998	1	5.90964	-6.75582	-2.870322E-005	0.0006544	10
	16	51	7546.875	5.890917	-0.89608	1	5.95868	-8.649082	-2.959145E-005	0.0006692	10
	17	54	5928.309	5.920513	-1.149538	1	6.031079	-10.98794	9.161636E-006	0.0006175	10
	18	56	4733.456	5.954809	-1.438488	1	6.126091	-13.58062	1.855855E-005	0.0006489	10
	19	58	3796.875	5.997989	-1.782725	1	6.257314	-16.55302	-1.882826E-005	0.0007074	10
	20	60	2987.132	6.054605	-2.242605	1	6.456587	-20.32446	-2.189288E-005	0.0006834	10
	21	63	2390.625	6.122781	-2.768552	1	6.719623	-24.33117	6.833702E-006	0.0006797	10
	22	65	1884.191	6.214496	-3.460305	1	7.112923	-29.10958	-6.373867E-006	0.0006865	10
	23	67	1516.544	6.322362	-4.234987	1	7.60969	-33.81586	-1.837522E-005	0.000668	10
	24	70	1193.986	6.470013	-5.287026	1	8.35546	-39.25427	1.288105E-005	0.0006589	10
	25	72	946.5144	6.658479	-6.546763	1	9.337851	-44.51529	1.650156E-005	0.0006385	10
	26	75	751.7689	6.896189	-8.090451	1	10.63075	-49.55619	1.986216E-005	0.0006305	10
	27	77	597.4265	7.20154	-9.98523	1	12.31125	-54.20013	1.93942E-005	0.0006608	10
	28	79	477.4305	7.580546	-12.24243	1	14.39937	-58.2341	-3.913029E-006	0.0006698	10
	29	81	376.6741	8.090486	-15.16511	1	17.18826	-61.92037	-3.496448E-006	0.0006635	10
	30	84	298.2954	8.723944	-18.69687	1	20.63202	-64.98629	-3.64144E-006	0.0006709	10
	31	86	237.7717	9.48594	-22.89174	1	24.77932	-67.49173	-3.400907E-006	0.0006657	10
	32	89	189.0121	10.42842	-28.07653	1	29.95069	-69.62357	-3.832815E-006	0.0006729	10
	33	91	150.2404	11.57159	-34.41888	1	36.31199	-71.4174	-3.98662E-006	0.0006706	10
	34	93	119.1737	12.95386	-42.2259	1	44.16819	-72.94529	4.528508E-007	7.204645E-005	9
	35	96	95.0169	14.61272	-51.64938	1	53.67672	-74.20265	3.799821E-007	6.690581E-005	9
	36	98	75.60484	16.66061	-63.32515	1	65.48016	-75.25974	4.641115E-007	7.057225E-005	9
	37	101	54.50582	20.47774	-84.86268	1	87.29841	-76.43362	2.935888E-007	6.760312E-005	9
	38	103	45.95588	23.0318	-98.9098	1	101.5559	-76.89188	3.440369E-007	6.627491E-005	9
	39	106	37.20238	26.89402	-119.564	1	122.5514	-77.32322	4.987492E-007	5.895098E-005	9
	40	108	30.04808	31.84651	-144.8509	1	148.3105	-77.6004	4.637905E-007	7.115761E-005	9
	41	110	23.91582	38.68144	-177.7367	1	181.8972	-77.72198	3.146624E-007	6.411866E-005	9
	42	113	18.60119	48.73897	-222.5888	1	227.8623	-77.6492	5.883895E-007	7.150925E-005	9
	43	115	15.02404	60.0289	-269.1854	1	275.7975	-77.42862	7.167659E-007	7.68868E-005	9
	44	117	12.01923	75.67787	-327.8012	1	336.4235	-77.00017	2.595082E-007	6.148337E-005	9
	45	120	9.450605	98.0017	-404.3354	1	416.0426	-76.37554	5.389182E-007	7.913629E-005	9
	46	122	7.512019	125.9409	-490.979	1	506.8742	-75.61325	-1.348432E-007	0.0006631	8
	47	125	5.978954	163.4253	-595.2565	1	617.2829	-74.64793	-1.697877E-007	0.0006483	8
	48	128	4.734848	213.7397	-722.3166	1	753.2768	-73.51606	3.878204E-008	0.0006753	8
	49	131	3.75601	279.7377	-871.107	1	914.9211	-72.19667	-2.105526E-007	0.0006341	8
	50	135	3.004808	361.8214	-1037.602	1	1098.878	-70.77587	-1.098629E-007	0.0006441	8
	51	138	2.372217	476.0672	-1240.791	1	1328.985	-69.00917	-1.101217E-007	0.0006965	8
	52	143	1.878005	618.9922	-1475.992	1	1600.533	-67.24811	-2.218727E-007	0.0006347	8
	53	147	1.512097	783.4724	-1718.468	1	1888.64	-65.49113	-1.360013E-007	0.0005893	8
	54	153	1.201923	1010.543	-2007.106	1	2247.148	-63.27554	-1.661403E-007	0.0006266	8
	55	159	0.956633	1288.714	-2317.558	1	2651.766	-60.92308	-2.361991E-007	5.022766E-007	8
