EXPLAIN
TAG	EISPOT
TITLE	LABEL	Potentiostatic EIS	Test Identifier
DATE	LABEL	2/28/2021	Date
TIME	LABEL	3:09:10	Time
NOTES	NOTES	1	Notes...
	
PSTAT	PSTAT	REF3000-16137	Potentiostat
VDC	POTEN	0.00000E+000	T	DC Voltage (V)
FREQINIT	QUANT	3.00000E+005	Initial Freq. (Hz)
FREQFINAL	QUANT	1.00000E+000	Final Freq. (Hz)
PTSPERDEC	QUANT	1.00000E+001	Points/decade
VAC	QUANT	5.00000E+001	AC Voltage (mV rms)
AREA	QUANT	1.00000E+000	Sample Area (cm^2)
SPEED	SELECTOR	2	Optimize for:
ZGUESS	QUANT	1.00000E+003	Estimated Z (ohms)
EOC	QUANT	0	Open Circuit (V)
SEQUENCER	TOGGLE	TRUE	Run as Sequence
PSTATMODEL	IQUANT	5	Pstat Model
PSTATSECTION	LABEL	REF3000-16137	Pstat Section
PSTATSERIALNO	LABEL	16137	Pstat Serial Number
CTRLMODE	IQUANT	1	Control Mode
IESTAB	IQUANT	0	I/E Stability
CASPEED	IQUANT	1	Control Amp Speed
CONVENTION	IQUANT	1	Current Convention
ICHRANGE	IQUANT	2	Ich Range
ICHRANGEMODE	TOGGLE	F	Ich Auto Range
ICHOFFSETENABLE	TOGGLE	T	Ich Offset Enable
ICHOFFSET	QUANT	0	Ich Offset (V)
ICHFILTER	IQUANT	3	Ich Filter
VCHRANGE	IQUANT	2	Vch Range
VCHRANGEMODE	TOGGLE	F	Vch Auto Range
VCHOFFSETENABLE	TOGGLE	T	Vch Offset Enable
VCHOFFSET	QUANT	0	Vch Offset (V)
VCHFILTER	IQUANT	3	Vch Filter
ACHRANGE	IQUANT	2	Ach Range
ACHOFFSETENABLE	TOGGLE	F	Ach Offset Enable
ACHOFFSET	QUANT	0	Ach Offset (V)
ACHFILTER	IQUANT	3	Ach Filter
IERANGELOWERLIMIT	IQUANT	2	I/E Range Lower Limit
IERANGEMODE	TOGGLE	F	I/E AutoRange
IERANGE	IQUANT	11	I/E Range
POSFEEDENABLE	TOGGLE	F	Positive Feedback IR Comp
POSFEEDRESISTANCE	QUANT	0	Positive Feedback Resistance (ohm)
ACHSELECT	IQUANT	0	Ach Select
CABLEID	IQUANT	13	Cable ID
DCCALDATE	LABEL	7/31/2020	DC Calibration Date
ACCALDATE	LABEL	7/31/2020	AC Calibration Date
THERMOSELECT	IQUANT	1	Thermo Select
FRAMEWORKVERSION	QUANT	6.33	Framework Version
INSTRUMENTVERSION	LABEL	3.50	Instrument Version
COMPLIANCEVOLTAGE	IQUANT	0	Compliance Voltage
ZCURVE	TABLE
	Pt	Time	Freq	Zreal	Zimag	Zsig	Zmod	Zphz	Idc	Vdc	IERange
	#	s	Hz	ohm	ohm	V	ohm	°	A	V	#
	0	14	300046.9	-70.86654	-4834.002	1	4834.521	-90.8399	-5.894955E-005	0.0003358	9
	1	28	238359.4	-96.5403	-5998.9	1	5999.677	-90.92198	-1.399862E-007	-0.0019994	9
	2	44	189328.1	138.3384	-7907.02	1	7908.23	-88.99767	1.880456E-005	-0.0020176	9
	3	53	150421.9	335.2375	-9340.139	1	9346.153	-87.94441	-2.115503E-005	0.0015535	9
	4	60	119484.4	217.396	-12172.64	1	12174.58	-88.97684	-2.053218E-005	0.0015734	9
	5	69	94921.88	536.3236	-14611.85	1	14621.69	-87.89792	8.238414E-006	0.0042043	8
	6	76	75421.88	480.6202	-18512.54	1	18518.78	-88.51283	-1.576496E-005	0.000609	8
	7	84	59859.37	655.7026	-23046.42	1	23055.75	-88.37029	-2.46918E-005	0.0110572	8
	8	93	47578.12	813.3303	-28364.22	1	28375.88	-88.35752	1.741258E-005	0.0003414	8
	9	102	37828.12	2885.986	-34410.27	1	34531.08	-85.20583	-9.933424E-007	-0.0050773	8
	10	111	30046.88	4451.284	-46672.38	1	46884.16	-84.55201	-6.729891E-006	0.0120233	7
	11	119	23859.38	4888.394	-58358.4	1	58562.78	-85.21179	-3.337904E-006	-0.0052217	7
	12	124	18984.38	4800.18	-72303.15	1	72462.31	-86.20173	6.925511E-006	-0.0271504	7
	13	129	15046.87	4269.093	-90575.71	1	90676.27	-87.30148	5.498145E-006	-0.0270442	7
	14	135	11953.13	5435.483	-113878.2	1	114007.9	-87.26731	-7.421564E-006	0.0190734	7
	15	141	9515.62	1210.209	-142522.4	1	142527.5	-89.51349	1.716608E-005	0.0005777	8
	16	149	7546.875	6950.759	-182538.7	1	182670.9	-87.81933	4.94601E-006	-0.0006921	7
	17	155	5928.309	12267.88	-213459.3	1	213811.5	-86.71073	6.9282E-006	-0.0271512	7
	18	160	4733.456	-8394.467	-267043.9	1	267175.8	-91.80048	-2.615444E-005	0.0075242	8
	19	169	3796.875	-177875.2	-448831.6	1	482793.3	-111.6188	-9.705504E-007	-0.0051128	8
	20	178	2987.132	45292.29	-474291.6	1	476449.3	-84.5451	-2.817137E-007	-0.0073043	6
	21	183	2390.625	44630.38	-573168.2	1	574903.2	-85.54758	1.768922E-007	-0.0211113	6
	22	188	1884.191	35213.03	-719655.8	1	720516.8	-87.19873	-6.857946E-007	0.0263601	6
	23	194	1516.544	1894163	400577.5	1	1936057	11.94097	-2.030283E-005	0.0028103	8
	24	202	1193.986	-156812	-1060812	1	1072340	-98.4087	5.43692E-006	-0.0269256	7
	25	210	946.5144	-227014	-204644.6	1	305638.3	-137.9665	2.333252E-005	-0.0027929	8
	26	217	751.7689	292269.2	-473245.8	1	556221.9	-58.30117	2.27222E-005	-0.0096602	8
	27	225	597.4265	626004.4	-97928.1	1	633617.7	-8.890924	2.758821E-006	0.0087846	7
	28	230	477.4305	22822.2	-2832207	1	2832300	-89.53831	-6.673975E-008	0.0006703	7
	29	234	376.6741	448443.1	-3712041	1	3739031	-83.11161	-5.920823E-010	0.0006142	5
	30	238	298.2954	491864.8	-4599857	1	4626080	-83.89653	-6.512036E-010	0.0006259	5
	31	242	237.7717	525694.4	-5788156	1	5811980	-84.81049	-6.224478E-010	0.0006066	5
	32	246	189.0121	488007.2	-7214684	1	7231170	-86.13036	-6.283896E-010	0.0006021	5
	33	250	150.2404	390743.9	-8753033	1	8761750	-87.44395	-6.806913E-010	0.0005999	5
	34	253	119.1737	1576028	-1.01985E+007	1	1.031956E+007	-81.21527	-6.256956E-010	0.0006027	5
	35	256	95.0169	300490.1	-1.437252E+007	1	1.437566E+007	-88.80228	-6.664427E-010	0.000646	5
	36	259	75.60484	822143.5	-1.978381E+007	1	1.980089E+007	-87.62036	-7.723386E-010	0.0006206	5
	37	261	54.50582	1055076	-2.682981E+007	1	2.685055E+007	-87.74802	-7.863441E-010	0.0006561	5
	38	265	45.95588	4042286	-3.325222E+007	1	3.349701E+007	-83.06888	-7.285356E-010	0.0006031	5
	39	268	37.20238	5901757	-3.639787E+007	1	3.687324E+007	-80.78989	-8.358498E-010	0.0006555	5
	40	272	30.04808	3708760	-4.58268E+007	1	4.597662E+007	-85.37314	-7.517788E-011	0.0005967	4
	41	276	23.91582	7632312	-6.200176E+007	1	6.246975E+007	-82.98229	-8.820521E-011	0.0006007	4
	42	280	18.60119	-2.359966E+008	-7.087877E+007	1	2.464107E+008	-163.283	3.513119E-010	0.0006815	4
	43	284	15.02404	5529628	-9.188565E+007	1	9.205188E+007	-86.55612	-7.306647E-010	0.0006706	5
	44	289	12.01923	2909763	-1.084916E+008	1	1.085306E+008	-88.46368	-7.367199E-011	0.0006027	4
	45	292	9.450605	3.008755E+007	-1.38858E+008	1	1.420802E+008	-77.77422	-1.131131E-010	0.0006639	4
	46	296	7.512019	6478168	-1.738805E+008	1	1.740011E+008	-87.86635	-6.936642E-011	0.0006925	4
	47	301	5.978954	3.976371E+007	-2.610526E+008	1	2.640637E+008	-81.33924	-9.411552E-011	0.0006438	4
	48	306	4.734848	-1860094	-2.959419E+008	1	2.959478E+008	-90.36012	-7.74631E-010	0.0006995	5
	49	314	3.75601	5.132745E+007	-2.96805E+008	1	3.012104E+008	-80.18869	-7.552743E-010	0.0006886	5
	50	322	3.004808	-3.130855E+007	-3.481462E+008	1	3.495512E+008	-95.1387	-7.34901E-010	0.000684	5
	51	331	2.372217	5.012322E+007	-5.657974E+008	1	5.680132E+008	-84.93746	-5.918728E-012	0.0006583	3
	52	338	1.878005	5.049345E+007	-7.115652E+008	1	7.133546E+008	-85.94103	-5.596654E-012	0.0007214	3
	53	347	1.512097	5.008454E+007	-8.763314E+008	1	8.777615E+008	-86.72896	-5.783808E-012	0.0006902	3
	54	354	1.201923	4.939833E+007	-1.102068E+009	1	1.103175E+009	-87.43353	-5.479928E-012	0.0007443	3
	55	367	0.956633	4.347585E+007	-1.378858E+009	1	1.379543E+009	-88.19405	-5.473174E-012	7.811741E-005	3
