EXPLAIN
TAG	EISPOT
TITLE	LABEL	Potentiostatic EIS	Test Identifier
DATE	LABEL	2/28/2021	Date
TIME	LABEL	3:32:20	Time
NOTES	NOTES	1	Notes...
	
PSTAT	PSTAT	REF3000-16137	Potentiostat
VDC	POTEN	0.00000E+000	T	DC Voltage (V)
FREQINIT	QUANT	3.00000E+005	Initial Freq. (Hz)
FREQFINAL	QUANT	1.00000E+000	Final Freq. (Hz)
PTSPERDEC	QUANT	1.00000E+001	Points/decade
VAC	QUANT	5.00000E+001	AC Voltage (mV rms)
AREA	QUANT	1.00000E+000	Sample Area (cm^2)
SPEED	SELECTOR	2	Optimize for:
ZGUESS	QUANT	1.00000E+003	Estimated Z (ohms)
EOC	QUANT	0	Open Circuit (V)
SEQUENCER	TOGGLE	TRUE	Run as Sequence
PSTATMODEL	IQUANT	5	Pstat Model
PSTATSECTION	LABEL	REF3000-16137	Pstat Section
PSTATSERIALNO	LABEL	16137	Pstat Serial Number
CTRLMODE	IQUANT	1	Control Mode
IESTAB	IQUANT	0	I/E Stability
CASPEED	IQUANT	1	Control Amp Speed
CONVENTION	IQUANT	1	Current Convention
ICHRANGE	IQUANT	2	Ich Range
ICHRANGEMODE	TOGGLE	F	Ich Auto Range
ICHOFFSETENABLE	TOGGLE	T	Ich Offset Enable
ICHOFFSET	QUANT	0	Ich Offset (V)
ICHFILTER	IQUANT	3	Ich Filter
VCHRANGE	IQUANT	2	Vch Range
VCHRANGEMODE	TOGGLE	F	Vch Auto Range
VCHOFFSETENABLE	TOGGLE	T	Vch Offset Enable
VCHOFFSET	QUANT	0	Vch Offset (V)
VCHFILTER	IQUANT	3	Vch Filter
ACHRANGE	IQUANT	2	Ach Range
ACHOFFSETENABLE	TOGGLE	F	Ach Offset Enable
ACHOFFSET	QUANT	0	Ach Offset (V)
ACHFILTER	IQUANT	3	Ach Filter
IERANGELOWERLIMIT	IQUANT	2	I/E Range Lower Limit
IERANGEMODE	TOGGLE	F	I/E AutoRange
IERANGE	IQUANT	11	I/E Range
POSFEEDENABLE	TOGGLE	F	Positive Feedback IR Comp
POSFEEDRESISTANCE	QUANT	0	Positive Feedback Resistance (ohm)
ACHSELECT	IQUANT	0	Ach Select
CABLEID	IQUANT	13	Cable ID
DCCALDATE	LABEL	7/31/2020	DC Calibration Date
ACCALDATE	LABEL	7/31/2020	AC Calibration Date
THERMOSELECT	IQUANT	1	Thermo Select
FRAMEWORKVERSION	QUANT	6.33	Framework Version
INSTRUMENTVERSION	LABEL	3.50	Instrument Version
COMPLIANCEVOLTAGE	IQUANT	0	Compliance Voltage
ZCURVE	TABLE
	Pt	Time	Freq	Zreal	Zimag	Zsig	Zmod	Zphz	Idc	Vdc	IERange
	#	s	Hz	ohm	ohm	V	ohm	°	A	V	#
	0	10	300046.9	299.3746	-24.4447	1	300.3709	-4.667992	9.468554E-006	-0.0019851	9
	1	17	238359.4	269.0312	-27.27445	1	270.4102	-5.788881	3.327566E-005	0.0005226	10
	2	27	189328.1	252.5877	-22.47119	1	253.5853	-5.083872	5.784725E-006	0.0012237	9
	3	31	150421.9	242.3065	-27.98524	1	243.9173	-6.588198	-9.129915E-005	0.0008192	10
	4	35	119484.4	234.7714	-28.39441	1	236.4822	-6.896141	-9.174962E-005	0.0033694	9
	5	38	94921.88	228.5572	-32.09056	1	230.799	-7.992365	1.982659E-005	-0.0001134	9
	6	42	75421.88	225.371	-37.35271	1	228.4455	-9.410585	-2.305117E-005	0.0006381	9
	7	45	59859.37	223.2572	-43.31488	1	227.4203	-10.97974	2.002189E-005	-5.239988E-005	9
	8	47	47578.12	221.8219	-50.02005	1	227.3917	-12.70745	-1.047415E-006	-0.0003776	9
	9	50	37828.12	221.5567	-57.94855	1	229.0096	-14.65747	2.635731E-005	-0.0006514	9
	10	52	30046.88	221.766	-67.2655	1	231.743	-16.87347	-1.489512E-005	0.0001336	9
	11	55	23859.38	223.697	-77.38826	1	236.7051	-19.08312	2.352114E-005	-0.00021	9
	12	57	18984.38	224.3231	-88.92867	1	241.3072	-21.62491	2.757881E-005	0.0006149	10
	13	61	15046.87	228.4369	-101.2974	1	249.8891	-23.91428	2.448029E-005	-0.0007733	9
	14	63	11953.13	233.1203	-116.3972	1	260.5636	-26.533	2.242984E-005	-0.0002474	9
	15	65	9515.62	234.9509	-133.2968	1	270.1295	-29.56793	-1.777809E-005	0.0003205	9
	16	69	7546.875	240.0256	-153.6537	1	284.9943	-32.62555	-1.462409E-005	0.0001526	9
	17	71	5928.309	245.4687	-180.7691	1	304.8481	-36.36883	-1.464166E-005	0.0009259	9
	18	74	4733.456	250.3843	-211.3836	1	327.6818	-40.17229	-2.060342E-005	0.0005036	9
	19	76	3796.875	254.8083	-248.0069	1	355.5766	-44.22502	1.193438E-005	0.0002622	9
	20	78	2987.132	261.3825	-300.1383	1	397.9998	-48.94826	6.674238E-006	-0.0005661	9
	21	81	2390.625	266.7034	-358.2979	1	446.6633	-53.33739	7.800347E-006	-0.0023274	8
	22	83	1884.191	275.4724	-435.9196	1	515.6655	-57.70981	8.727137E-006	-0.0015667	8
	23	86	1516.544	286.1134	-525.1107	1	597.9985	-61.41566	-6.080315E-006	0.0014602	8
	24	88	1193.986	301.3062	-645.3824	1	712.2526	-64.9738	-6.236465E-006	0.0014986	8
	25	90	946.5144	321.3528	-789.5743	1	852.4642	-67.85393	1.296015E-006	-0.0012466	8
	26	93	751.7689	341.3399	-969.342	1	1027.686	-70.60102	-1.495494E-006	0.0027602	8
	27	95	597.4265	370.7067	-1186.695	1	1243.249	-72.65194	-6.987178E-006	0.0029338	8
	28	98	477.4305	407.2402	-1444.728	1	1501.028	-74.2579	2.491018E-007	0.0006494	8
	29	100	376.6741	454.7899	-1783.361	1	1840.437	-75.69346	2.469051E-007	0.0006507	8
	30	102	298.2954	514.2035	-2194.718	1	2254.15	-76.81393	2.742372E-007	0.0006434	8
	31	104	237.7717	587.0754	-2684.953	1	2748.386	-77.66617	2.511841E-007	0.0006503	8
	32	107	189.0121	681.551	-3293.25	1	3363.035	-78.30748	2.881341E-007	0.0006392	8
	33	109	150.2404	801.6935	-4036.538	1	4115.38	-78.76671	2.973134E-007	0.0006443	8
	34	112	119.1737	960.251	-4963.189	1	5055.228	-79.05001	2.519222E-008	0.0006242	7
	35	114	95.0169	1150.933	-6054.75	1	6163.169	-79.23719	2.163643E-008	0.0006286	7
	36	117	75.60484	1392.292	-7392.929	1	7522.89	-79.33455	2.336354E-008	0.0006175	7
	37	119	54.50582	1841.741	-9844.88	1	10015.67	-79.40381	2.207789E-008	0.0006169	7
	38	122	45.95588	2130.871	-11400.53	1	11597.96	-79.41302	2.835535E-008	0.0006224	7
	39	124	37.20238	2564.53	-13695.5	1	13933.54	-79.39399	2.429874E-008	0.0006206	7
	40	127	30.04808	3091.279	-16473.56	1	16761.09	-79.37199	2.621645E-008	0.0006118	7
	41	129	23.91582	3805.968	-20108.77	1	20465.78	-79.28246	2.594586E-008	0.0006212	7
	42	131	18.60119	4765.284	-24977.39	1	25427.9	-79.19869	2.59404E-008	0.0006293	7
	43	134	15.02404	5865.12	-30063.03	1	30629.81	-78.96059	3.057911E-008	0.0006184	7
	44	136	12.01923	7362.388	-36439.54	1	37175.86	-78.57751	2.869596E-008	0.0006192	7
	45	139	9.450605	9457.147	-44802.48	1	45789.74	-78.08067	1.935191E-009	0.0006826	6
	46	141	7.512019	12247.72	-54365.03	1	55727.58	-77.30398	2.025657E-009	0.0006798	6
	47	144	5.978954	15930.27	-65533.23	1	67441.66	-76.33715	1.523992E-009	0.0006713	6
	48	148	4.734848	21618.13	-78835.69	1	81746.01	-74.66544	2.767539E-009	0.0006884	6
	49	152	3.75601	28805.96	-94035.78	1	98348.9	-72.96861	7.899602E-010	0.0006549	6
	50	157	3.004808	38287.87	-109992.9	1	116466.3	-70.8073	1.191563E-009	0.0006648	6
	51	163	2.372217	51500.73	-128639.1	1	138565.3	-68.18128	1.374403E-010	0.0007227	6
	52	168	1.878005	68170.56	-147261.2	1	162274.7	-65.1595	-1.538167E-009	0.0006575	6
	53	172	1.512097	85601.23	-158070.8	1	179760.8	-61.56281	-8.398512E-010	0.0006131	6
	54	178	1.201923	106723.5	-168354.2	1	199331.5	-57.62847	-1.47989E-009	0.0006575	6
	55	184	0.956633	124928.4	-173498	1	213795.8	-54.24397	-2.250149E-009	2.218912E-005	6
