EXPLAIN
TAG	EISPOT
TITLE	LABEL	Potentiostatic EIS	Test Identifier
DATE	LABEL	2/28/2021	Date
TIME	LABEL	3:41:05	Time
NOTES	NOTES	1	Notes...
	
PSTAT	PSTAT	REF3000-16137	Potentiostat
VDC	POTEN	0.00000E+000	T	DC Voltage (V)
FREQINIT	QUANT	3.00000E+005	Initial Freq. (Hz)
FREQFINAL	QUANT	1.00000E+000	Final Freq. (Hz)
PTSPERDEC	QUANT	1.00000E+001	Points/decade
VAC	QUANT	5.00000E+001	AC Voltage (mV rms)
AREA	QUANT	1.00000E+000	Sample Area (cm^2)
SPEED	SELECTOR	2	Optimize for:
ZGUESS	QUANT	1.00000E+003	Estimated Z (ohms)
EOC	QUANT	0	Open Circuit (V)
SEQUENCER	TOGGLE	TRUE	Run as Sequence
PSTATMODEL	IQUANT	5	Pstat Model
PSTATSECTION	LABEL	REF3000-16137	Pstat Section
PSTATSERIALNO	LABEL	16137	Pstat Serial Number
CTRLMODE	IQUANT	1	Control Mode
IESTAB	IQUANT	0	I/E Stability
CASPEED	IQUANT	1	Control Amp Speed
CONVENTION	IQUANT	1	Current Convention
ICHRANGE	IQUANT	2	Ich Range
ICHRANGEMODE	TOGGLE	F	Ich Auto Range
ICHOFFSETENABLE	TOGGLE	T	Ich Offset Enable
ICHOFFSET	QUANT	0	Ich Offset (V)
ICHFILTER	IQUANT	3	Ich Filter
VCHRANGE	IQUANT	2	Vch Range
VCHRANGEMODE	TOGGLE	F	Vch Auto Range
VCHOFFSETENABLE	TOGGLE	T	Vch Offset Enable
VCHOFFSET	QUANT	0	Vch Offset (V)
VCHFILTER	IQUANT	3	Vch Filter
ACHRANGE	IQUANT	2	Ach Range
ACHOFFSETENABLE	TOGGLE	F	Ach Offset Enable
ACHOFFSET	QUANT	0	Ach Offset (V)
ACHFILTER	IQUANT	3	Ach Filter
IERANGELOWERLIMIT	IQUANT	2	I/E Range Lower Limit
IERANGEMODE	TOGGLE	F	I/E AutoRange
IERANGE	IQUANT	11	I/E Range
POSFEEDENABLE	TOGGLE	F	Positive Feedback IR Comp
POSFEEDRESISTANCE	QUANT	0	Positive Feedback Resistance (ohm)
ACHSELECT	IQUANT	0	Ach Select
CABLEID	IQUANT	13	Cable ID
DCCALDATE	LABEL	7/31/2020	DC Calibration Date
ACCALDATE	LABEL	7/31/2020	AC Calibration Date
THERMOSELECT	IQUANT	1	Thermo Select
FRAMEWORKVERSION	QUANT	6.33	Framework Version
INSTRUMENTVERSION	LABEL	3.50	Instrument Version
COMPLIANCEVOLTAGE	IQUANT	0	Compliance Voltage
ZCURVE	TABLE
	Pt	Time	Freq	Zreal	Zimag	Zsig	Zmod	Zphz	Idc	Vdc	IERange
	#	s	Hz	ohm	ohm	V	ohm	°	A	V	#
	0	7	300046.9	25.29942	-4.710143	1	25.73414	-10.54635	2.820999E-005	-0.0002356	11
	1	11	238359.4	26.03065	-5.807615	1	26.67065	-12.57709	2.671663E-005	0.0006195	10
	2	15	189328.1	26.78443	-7.33913	1	27.77172	-15.32336	2.669402E-005	0.0007515	10
	3	18	150421.9	27.69495	-8.907088	1	29.09203	-17.82853	-0.0001043	0.0006225	10
	4	21	119484.4	28.70564	-10.61787	1	30.60642	-20.29882	7.621515E-005	0.0004226	10
	5	23	94921.88	29.82956	-12.46638	1	32.32976	-22.68104	-1.260698E-005	0.0007335	10
	6	26	75421.88	31.05296	-14.5898	1	34.30959	-25.16583	-2.866282E-005	0.0006573	10
	7	28	59859.37	32.37044	-16.95675	1	36.54281	-27.6471	-1.368216E-005	0.0006362	10
	8	31	47578.12	33.78922	-19.51258	1	39.01861	-30.00556	4.606343E-006	0.0002186	9
	9	33	37828.12	35.19381	-22.81647	1	41.94277	-32.95571	-7.630197E-006	0.0004989	9
	10	36	30046.88	36.69501	-26.89947	1	45.49841	-36.24348	-6.05942E-006	0.0003971	9
	11	38	23859.38	38.28598	-31.8044	1	49.77285	-39.71662	-1.042558E-005	0.0005277	9
	12	41	18984.38	40.05257	-37.83102	1	55.09441	-43.36615	-1.096747E-005	0.0004852	9
	13	43	15046.87	42.09322	-45.4016	1	61.9124	-47.16545	-1.195301E-005	0.000446	9
	14	45	11953.13	44.34635	-54.72794	1	70.43966	-50.98196	1.618696E-005	-0.0002907	9
	15	48	9515.62	47.05056	-66.05178	1	81.0962	-54.53665	-1.207144E-005	0.0003414	9
	16	50	7546.875	50.43582	-79.95568	1	94.53403	-57.75639	5.042481E-006	0.0001837	9
	17	52	5928.309	54.67794	-97.9752	1	112.1999	-60.83501	6.132393E-006	-0.0002479	9
	18	55	4733.456	59.42984	-118.5883	1	132.6465	-63.38253	1.557662E-005	-0.0002242	9
	19	57	3796.875	65.09741	-142.8607	1	156.9932	-65.50265	2.888825E-007	0.0003279	9
	20	59	2987.132	72.96992	-175.1807	1	189.7707	-67.38628	-3.88109E-006	2.263841E-005	9
	21	62	2390.625	80.97637	-212.2196	1	227.1439	-69.11471	1.635836E-005	-0.0002887	9
	22	64	1884.191	92.89169	-260.0593	1	276.1516	-70.34356	-1.223362E-005	0.0003958	9
	23	66	1516.544	106.2803	-312.6169	1	330.1891	-71.22351	-7.679647E-006	0.0001475	9
	24	69	1193.986	123.4286	-384.2433	1	403.5809	-72.19167	1.475497E-005	-0.0003379	9
	25	71	946.5144	145.8075	-466.5698	1	488.8222	-72.64548	2.155963E-006	8.636318E-006	8
	26	73	751.7689	172.8368	-569.3086	1	594.9662	-73.1122	1.554884E-006	0.0001106	8
	27	76	597.4265	209.1612	-692.7812	1	723.6672	-73.20013	1.468469E-006	0.0001242	8
	28	78	477.4305	255.045	-838.6223	1	876.5474	-73.08424	7.91918E-008	0.0006499	8
	29	80	376.6741	319.0668	-1025.039	1	1073.549	-72.71005	1.160476E-007	0.0006114	8
	30	83	298.2954	403.2523	-1246.083	1	1309.709	-72.0676	1.35456E-007	0.0006497	8
	31	85	237.7717	513.3484	-1501.827	1	1587.139	-71.12875	1.589766E-007	0.0006501	8
	32	87	189.0121	662.2215	-1806.662	1	1924.205	-69.86988	1.529669E-007	0.0006509	8
	33	90	150.2404	861.2878	-2160.002	1	2325.387	-68.26066	1.500893E-007	0.0006534	8
	34	92	119.1737	1128.716	-2564.028	1	2801.471	-66.24033	1.555445E-007	0.0006549	8
	35	95	95.0169	1470.453	-2998.829	1	3339.941	-63.87933	1.562455E-007	0.0006285	8
	36	97	75.60484	1908.62	-3462.453	1	3953.658	-61.13497	1.411235E-007	0.0006528	8
	37	100	54.50582	2716.593	-4136.9	1	4949.124	-56.70815	-3.930792E-007	0.0006283	7
	38	102	45.95588	3214.801	-4465.605	1	5502.416	-54.24979	-4.079135E-007	0.0006426	7
	39	105	37.20238	3883.619	-4838.931	1	6204.656	-51.25024	-4.028649E-007	0.0006395	7
	40	107	30.04808	4601.13	-5175.422	1	6924.983	-48.36179	-4.260233E-007	0.0006455	7
	41	110	23.91582	5401.425	-5504.951	1	7712.32	-45.54385	-4.426311E-007	0.0006051	7
	42	112	18.60119	6272.985	-5857.595	1	8582.643	-43.03877	-4.137441E-007	0.0006327	7
	43	114	15.02404	7022.74	-6167.357	1	9346.398	-41.28954	-4.421722E-007	0.0006485	7
	44	116	12.01923	7824.854	-6528.851	1	10190.89	-39.84072	-4.661757E-007	0.0006114	7
	45	119	9.450605	8731.807	-6986.721	1	11182.96	-38.66491	-4.421318E-007	0.0006372	7
	46	121	7.512019	9675.42	-7488.055	1	12234.57	-37.73721	-4.421877E-007	0.000636	7
	47	124	5.978954	10707	-8023.329	1	13379.59	-36.8462	-4.526698E-007	0.0006381	7
	48	127	4.734848	11911.68	-8585.59	1	14683.34	-35.78296	-4.722193E-007	0.0006288	7
	49	131	3.75601	13215.68	-9122.474	1	16058.45	-34.61641	-4.651513E-007	0.0006518	7
	50	134	3.004808	14599.15	-9562.3	1	17452.01	-33.22441	-4.787177E-007	0.0006242	7
	51	138	2.372217	16167.65	-9893.16	1	18954.35	-31.46291	-4.913331E-007	0.0005641	7
	52	142	1.878005	17776.91	-10103.77	1	20447.61	-29.61237	-4.917544E-007	0.0006457	7
	53	147	1.512097	19281.13	-10149.84	1	21789.48	-27.7629	-4.999652E-007	0.0005732	7
	54	152	1.201923	20860.03	-10066.61	1	23161.98	-25.76099	-5.116867E-007	0.0006586	7
	55	158	0.956633	22346.14	-9749.8	1	24380.5	-23.57203	-5.58288E-007	-8.154791E-006	7
