EXPLAIN
TAG	EISPOT
TITLE	LABEL	Potentiostatic EIS	Test Identifier
DATE	LABEL	2/28/2021	Date
TIME	LABEL	0:51:09	Time
NOTES	NOTES	1	Notes...
	
PSTAT	PSTAT	REF3000-16137	Potentiostat
VDC	POTEN	0.00000E+000	T	DC Voltage (V)
FREQINIT	QUANT	3.00000E+005	Initial Freq. (Hz)
FREQFINAL	QUANT	1.00000E+000	Final Freq. (Hz)
PTSPERDEC	QUANT	1.00000E+001	Points/decade
VAC	QUANT	5.00000E+001	AC Voltage (mV rms)
AREA	QUANT	1.00000E+000	Sample Area (cm^2)
SPEED	SELECTOR	2	Optimize for:
ZGUESS	QUANT	1.00000E+003	Estimated Z (ohms)
EOC	QUANT	0	Open Circuit (V)
SEQUENCER	TOGGLE	TRUE	Run as Sequence
PSTATMODEL	IQUANT	5	Pstat Model
PSTATSECTION	LABEL	REF3000-16137	Pstat Section
PSTATSERIALNO	LABEL	16137	Pstat Serial Number
CTRLMODE	IQUANT	1	Control Mode
IESTAB	IQUANT	0	I/E Stability
CASPEED	IQUANT	1	Control Amp Speed
CONVENTION	IQUANT	1	Current Convention
ICHRANGE	IQUANT	2	Ich Range
ICHRANGEMODE	TOGGLE	F	Ich Auto Range
ICHOFFSETENABLE	TOGGLE	T	Ich Offset Enable
ICHOFFSET	QUANT	0	Ich Offset (V)
ICHFILTER	IQUANT	3	Ich Filter
VCHRANGE	IQUANT	2	Vch Range
VCHRANGEMODE	TOGGLE	F	Vch Auto Range
VCHOFFSETENABLE	TOGGLE	T	Vch Offset Enable
VCHOFFSET	QUANT	0	Vch Offset (V)
VCHFILTER	IQUANT	3	Vch Filter
ACHRANGE	IQUANT	2	Ach Range
ACHOFFSETENABLE	TOGGLE	F	Ach Offset Enable
ACHOFFSET	QUANT	0	Ach Offset (V)
ACHFILTER	IQUANT	3	Ach Filter
IERANGELOWERLIMIT	IQUANT	2	I/E Range Lower Limit
IERANGEMODE	TOGGLE	F	I/E AutoRange
IERANGE	IQUANT	11	I/E Range
POSFEEDENABLE	TOGGLE	F	Positive Feedback IR Comp
POSFEEDRESISTANCE	QUANT	0	Positive Feedback Resistance (ohm)
ACHSELECT	IQUANT	0	Ach Select
CABLEID	IQUANT	13	Cable ID
DCCALDATE	LABEL	7/31/2020	DC Calibration Date
ACCALDATE	LABEL	7/31/2020	AC Calibration Date
THERMOSELECT	IQUANT	1	Thermo Select
FRAMEWORKVERSION	QUANT	6.33	Framework Version
INSTRUMENTVERSION	LABEL	3.50	Instrument Version
COMPLIANCEVOLTAGE	IQUANT	0	Compliance Voltage
ZCURVE	TABLE
	Pt	Time	Freq	Zreal	Zimag	Zsig	Zmod	Zphz	Idc	Vdc	IERange
	#	s	Hz	ohm	ohm	V	ohm	°	A	V	#
	0	7	300046.9	27.92725	-5.118272	1	28.39239	-10.38544	-0.0001127	-0.0005254	11
	1	11	238359.4	28.7616	-6.262144	1	29.43542	-12.28308	-0.0001024	0.000422	10
	2	14	189328.1	29.63341	-7.833201	1	30.65123	-14.80672	-8.357754E-005	0.0006877	10
	3	17	150421.9	30.61625	-9.57152	1	32.07755	-17.36075	-1.429163E-005	0.0006321	10
	4	19	119484.4	31.77373	-11.32298	1	33.73099	-19.61417	-8.696422E-005	0.0008331	10
	5	22	94921.88	33.03767	-13.30687	1	35.61686	-21.93853	7.465932E-006	0.0006053	10
	6	24	75421.88	34.46416	-15.23478	1	37.68126	-23.84768	-9.356892E-006	0.0005159	9
	7	27	59859.37	35.90592	-17.79415	1	40.07327	-26.36196	-3.901205E-006	1.449376E-005	9
	8	30	47578.12	37.37945	-20.77643	1	42.76545	-29.06639	-1.052953E-005	0.0005427	9
	9	32	37828.12	38.91891	-24.32158	1	45.89358	-32.00248	-4.154301E-006	0.0004884	9
	10	35	30046.88	40.57403	-28.64644	1	49.6676	-35.2232	1.427921E-005	-0.0001568	9
	11	37	23859.38	42.28955	-33.86992	1	54.18098	-38.69142	-1.215824E-005	0.0004048	9
	12	39	18984.38	44.14723	-40.41911	1	59.85551	-42.47575	-1.268663E-005	0.0004571	9
	13	42	15046.87	46.23891	-48.51861	1	67.02307	-46.37817	2.46738E-006	-0.0001698	9
	14	44	11953.13	48.66415	-58.51409	1	76.10583	-50.25087	-1.28088E-005	0.0005254	9
	15	46	9515.62	51.52902	-70.61035	1	87.41316	-53.87931	1.808126E-005	-0.0003024	9
	16	49	7546.875	54.79283	-85.84691	1	101.8428	-57.45145	1.788214E-005	-0.0003253	9
	17	51	5928.309	59.20562	-105.2593	1	120.7676	-60.64337	1.413065E-005	-0.0003718	9
	18	53	4733.456	64.05608	-127.5736	1	142.7522	-63.33828	-1.25707E-005	0.0004876	9
	19	56	3796.875	69.42212	-154.3902	1	169.2802	-65.78876	-1.319432E-005	0.0003973	9
	20	58	2987.132	77.36652	-189.5959	1	204.7735	-67.80159	1.63357E-005	-0.0003642	9
	21	60	2390.625	85.82181	-229.7045	1	245.2133	-69.51339	6.819759E-007	0.0003515	9
	22	63	1884.191	97.3204	-281.8336	1	298.1635	-70.94962	-1.113891E-005	0.0002756	9
	23	65	1516.544	109.3195	-341.0751	1	358.1661	-72.22858	-1.18455E-005	0.0003823	9
	24	67	1193.986	126.0501	-419.6817	1	438.2024	-73.28252	1.098179E-005	-0.0003442	9
	25	70	946.5144	143.3029	-512.1177	1	531.7897	-74.3671	-2.302079E-006	0.001168	8
	26	72	751.7689	166.4689	-625.4948	1	647.2678	-75.09678	-1.819567E-006	0.0013785	8
	27	74	597.4265	195.3851	-766.0021	1	790.528	-75.69061	3.48801E-006	-2.219948E-005	8
	28	77	477.4305	229.2215	-931.4464	1	959.237	-76.17469	5.679987E-007	0.0006394	8
	29	79	376.6741	273.6217	-1146.404	1	1178.606	-76.5759	5.438087E-007	0.0006566	8
	30	81	298.2954	327.8154	-1406.492	1	1444.189	-76.88012	5.47376E-007	0.0006613	8
	31	84	237.7717	393.0003	-1715.259	1	1759.705	-77.09512	5.608642E-007	0.0006595	8
	32	86	189.0121	474.6226	-2096.516	1	2149.569	-77.24403	5.736653E-007	0.0006447	8
	33	88	150.2404	575.8383	-2562.762	1	2626.659	-77.33628	5.507537E-007	0.0006604	8
	34	91	119.1737	702.7034	-3138.909	1	3216.604	-77.38132	5.640641E-007	0.0006611	8
	35	93	95.0169	857.9477	-3826.957	1	3921.948	-77.36405	5.575527E-007	0.0006598	8
	36	96	75.60484	1057.204	-4684.584	1	4802.396	-77.28269	3.887919E-008	0.0006377	7
	37	98	54.50582	1436.222	-6237.449	1	6400.665	-77.0332	3.978247E-008	0.0006418	7
	38	101	45.95588	1698.708	-7240.057	1	7436.668	-76.79575	4.625112E-008	0.0006373	7
	39	103	37.20238	2100.668	-8698.952	1	8948.999	-76.42384	4.208245E-008	0.0006293	7
	40	106	30.04808	2638.809	-10473.06	1	10800.39	-75.85803	4.017726E-008	0.0006278	7
	41	108	23.91582	3388.677	-12743.81	1	13186.65	-75.10918	4.139645E-008	0.0006282	7
	42	110	18.60119	4469.155	-15758.88	1	16380.34	-74.16688	4.698807E-008	0.0006357	7
	43	113	15.02404	5732.716	-18812.52	1	19666.59	-73.05251	4.74438E-008	0.000644	7
	44	115	12.01923	7476.56	-22541.68	1	23749.23	-71.6505	3.428445E-008	0.0006288	7
	45	117	9.450605	9963.92	-27248.51	1	29013.12	-69.91414	3.652922E-008	0.0006444	7
	46	120	7.512019	13047.02	-32388.88	1	34917.96	-68.05924	4.253834E-008	0.0006334	7
	47	123	5.978954	16978.38	-38115.15	1	41725.66	-65.98943	4.637589E-008	0.000632	7
	48	126	4.734848	22123.47	-44493.13	1	49689.9	-63.5619	-1.216929E-008	0.0006674	6
	49	129	3.75601	28444.3	-51258.61	1	58621.86	-60.97334	-6.412379E-009	0.0007006	6
	50	135	3.004808	35663.05	-58080.11	1	68155.35	-58.44874	-6.530524E-009	0.0006613	6
	51	141	2.372217	44544.95	-65349.78	1	79087.59	-55.72013	-6.479111E-009	0.0006229	6
	52	145	1.878005	54325.63	-72686.88	1	90745.01	-53.22583	-4.859785E-009	0.0006832	6
	53	150	1.512097	63684.71	-78881.59	1	101380.7	-51.08448	-5.74313E-009	0.0006747	6
	54	156	1.201923	74592.79	-86153.26	1	113958.2	-49.11349	-6.593561E-009	0.0007039	6
	55	162	0.956633	86018.23	-94209.4	1	127571.7	-47.60225	-1.20643E-008	3.748434E-005	6
