EXPLAIN
TAG	EISPOT
TITLE	LABEL	Potentiostatic EIS	Test Identifier
DATE	LABEL	2/28/2021	Date
TIME	LABEL	3:03:01	Time
NOTES	NOTES	1	Notes...
	
PSTAT	PSTAT	REF3000-16137	Potentiostat
VDC	POTEN	0.00000E+000	T	DC Voltage (V)
FREQINIT	QUANT	3.00000E+005	Initial Freq. (Hz)
FREQFINAL	QUANT	1.00000E+000	Final Freq. (Hz)
PTSPERDEC	QUANT	1.00000E+001	Points/decade
VAC	QUANT	5.00000E+001	AC Voltage (mV rms)
AREA	QUANT	1.00000E+000	Sample Area (cm^2)
SPEED	SELECTOR	2	Optimize for:
ZGUESS	QUANT	1.00000E+003	Estimated Z (ohms)
EOC	QUANT	0	Open Circuit (V)
SEQUENCER	TOGGLE	TRUE	Run as Sequence
PSTATMODEL	IQUANT	5	Pstat Model
PSTATSECTION	LABEL	REF3000-16137	Pstat Section
PSTATSERIALNO	LABEL	16137	Pstat Serial Number
CTRLMODE	IQUANT	1	Control Mode
IESTAB	IQUANT	0	I/E Stability
CASPEED	IQUANT	1	Control Amp Speed
CONVENTION	IQUANT	1	Current Convention
ICHRANGE	IQUANT	2	Ich Range
ICHRANGEMODE	TOGGLE	F	Ich Auto Range
ICHOFFSETENABLE	TOGGLE	T	Ich Offset Enable
ICHOFFSET	QUANT	0	Ich Offset (V)
ICHFILTER	IQUANT	3	Ich Filter
VCHRANGE	IQUANT	2	Vch Range
VCHRANGEMODE	TOGGLE	F	Vch Auto Range
VCHOFFSETENABLE	TOGGLE	T	Vch Offset Enable
VCHOFFSET	QUANT	0	Vch Offset (V)
VCHFILTER	IQUANT	3	Vch Filter
ACHRANGE	IQUANT	2	Ach Range
ACHOFFSETENABLE	TOGGLE	F	Ach Offset Enable
ACHOFFSET	QUANT	0	Ach Offset (V)
ACHFILTER	IQUANT	3	Ach Filter
IERANGELOWERLIMIT	IQUANT	2	I/E Range Lower Limit
IERANGEMODE	TOGGLE	F	I/E AutoRange
IERANGE	IQUANT	11	I/E Range
POSFEEDENABLE	TOGGLE	F	Positive Feedback IR Comp
POSFEEDRESISTANCE	QUANT	0	Positive Feedback Resistance (ohm)
ACHSELECT	IQUANT	0	Ach Select
CABLEID	IQUANT	13	Cable ID
DCCALDATE	LABEL	7/31/2020	DC Calibration Date
ACCALDATE	LABEL	7/31/2020	AC Calibration Date
THERMOSELECT	IQUANT	1	Thermo Select
FRAMEWORKVERSION	QUANT	6.33	Framework Version
INSTRUMENTVERSION	LABEL	3.50	Instrument Version
COMPLIANCEVOLTAGE	IQUANT	0	Compliance Voltage
ZCURVE	TABLE
	Pt	Time	Freq	Zreal	Zimag	Zsig	Zmod	Zphz	Idc	Vdc	IERange
	#	s	Hz	ohm	ohm	V	ohm	°	A	V	#
	0	14	300046.9	-98.6454	-4901.719	1	4902.712	-91.1529	1.92286E-005	-0.0010523	9
	1	28	238359.4	40.55489	-6057.006	1	6057.142	-89.61638	-2.004799E-005	0.0010793	9
	2	43	189328.1	470.9558	-7911.525	1	7925.53	-86.59333	2.250836E-005	-0.0003163	9
	3	55	150421.9	-51.54568	-8812.617	1	8812.768	-90.33512	-1.970557E-005	0.001228	9
	4	63	119484.4	423.1011	-11439.1	1	11446.92	-87.88175	1.968284E-005	-0.0088883	8
	5	70	94921.88	518.8096	-14387.24	1	14396.59	-87.93478	1.658052E-005	-0.0092527	8
	6	79	75421.88	150.6082	-17708.52	1	17709.16	-89.51272	-2.657114E-005	0.0095754	8
	7	88	59859.37	749.2327	-23116.13	1	23128.27	-88.1436	2.729328E-005	-0.0072797	8
	8	96	47578.12	720.6743	-28743.43	1	28752.46	-88.56374	-1.208944E-005	0.0103301	8
	9	106	37828.12	4548.654	-37419.37	1	37694.82	-83.0692	-7.411236E-006	0.0190224	7
	10	114	30046.88	4523.218	-46526.32	1	46745.67	-84.44724	5.419816E-006	-0.0268064	7
	11	121	23859.38	4565.048	-58023.83	1	58203.13	-85.5015	-6.621971E-006	0.0262074	7
	12	126	18984.38	5230.458	-72687.38	1	72875.32	-85.88419	-5.406665E-006	0.0268144	7
	13	132	15046.87	5581.85	-91565.23	1	91735.21	-86.51154	2.768659E-006	0.0085789	7
	14	137	11953.13	3767.516	-109382.7	1	109447.6	-88.02731	-2.631838E-005	0.0094307	8
	15	145	9515.62	4414.748	-135184	1	135256	-88.12954	2.347037E-005	-0.0027583	8
	16	152	7546.875	4292.954	-188462.5	1	188511.4	-88.6951	-9.477423E-006	-0.0020941	8
	17	160	5928.309	25527.12	-206586.5	1	208157.6	-82.95588	4.763187E-007	0.0163669	7
	18	165	4733.456	37235.94	-300554.1	1	302851.9	-82.93756	-6.881208E-007	0.0264133	6
	19	170	3796.875	46021.92	-324232.2	1	327482.1	-81.92133	-2.322324E-006	0.0078008	8
	20	177	2987.132	1815.791	-444728.4	1	444732.2	-89.76607	-3.343371E-006	-0.0053096	7
	21	184	2390.625	-4514.027	-578601.3	1	578618.9	-90.44699	3.612534E-006	-0.0247063	7
	22	190	1884.191	537921.3	-1021069	1	1154097	-62.21876	1.340215E-006	-0.0200554	7
	23	197	1516.544	85909.13	-949520	1	953398	-84.83016	2.227164E-007	0.0104267	6
	24	203	1193.986	62133.16	-1105139	1	1106884	-86.7821	-2.800822E-007	-0.0073488	6
	25	209	946.5144	160322.2	-1333036	1	1342642	-83.14206	-7.459106E-007	0.0231413	6
	26	213	751.7689	-54116.2	-1779795	1	1780617	-91.74159	-6.534719E-007	0.0101272	6
	27	217	597.4265	522532.9	-2090443	1	2154761	-75.96577	-2.090014E-007	0.0223824	6
	28	222	477.4305	73363.81	-2838487	1	2839435	-88.51945	-6.153055E-009	0.0006255	6
	29	225	376.6741	78339.69	-3593943	1	3594796	-88.75128	-6.26532E-009	0.0006218	6
	30	229	298.2954	481122.6	-4599324	1	4624420	-84.02817	-7.2822E-010	0.0006929	5
	31	232	237.7717	459641.4	-5728822	1	5747231	-85.4128	-7.390306E-010	0.0006904	5
	32	236	189.0121	558972.9	-7173132	1	7194878	-85.54418	-7.507913E-010	0.0006999	5
	33	240	150.2404	711705.3	-8839478	1	8868083	-85.3968	-7.142842E-010	0.0006944	5
	34	243	119.1737	254363.9	-1.018448E+007	1	1.018766E+007	-88.5693	-7.443782E-010	0.0006636	5
	35	246	95.0169	962682	-1.405837E+007	1	1.40913E+007	-86.08264	-8.269694E-010	0.000631	5
	36	249	75.60484	357176.9	-1.609435E+007	1	1.609831E+007	-88.72866	-7.740695E-010	0.0006114	5
	37	252	54.50582	1204767	-2.432481E+007	1	2.435463E+007	-87.16455	-6.934794E-010	0.0006378	5
	38	255	45.95588	5093479	-3.031179E+007	1	3.073675E+007	-80.46134	-7.707891E-010	0.0006703	5
	39	259	37.20238	-2513412	-3.227439E+007	1	3.237211E+007	-94.453	-8.442394E-010	0.0007071	5
	40	262	30.04808	2494021	-4.365358E+007	1	4.372477E+007	-86.73013	-8.120484E-010	0.0006935	5
	41	267	23.91582	5679923	-4.590314E+007	1	4.625321E+007	-82.94624	-1.901707E-010	0.0006539	4
	42	270	18.60119	3650016	-3.751474E+007	1	3.769189E+007	-84.44287	-4.659417E-010	0.0006185	4
	43	274	15.02404	776888.6	-8.555746E+007	1	8.556098E+007	-89.47975	-9.594003E-011	0.0007033	4
	44	277	12.01923	4452487	-1.113768E+008	1	1.114657E+008	-87.71072	-6.598894E-011	0.0006063	4
	45	281	9.450605	-1.024192E+007	-1.39025E+008	1	1.394017E+008	-94.21335	-3.913456E-011	0.0006377	4
	46	285	7.512019	5268432	-1.84758E+008	1	1.848331E+008	-88.36664	-7.597138E-011	0.0006286	4
	47	290	5.978954	-2.687385E+007	-2.380678E+008	1	2.395798E+008	-96.4405	-4.26388E-011	0.0006833	4
	48	295	4.734848	6984199	-2.811871E+008	1	2.812738E+008	-88.57716	-6.974717E-010	0.0006136	5
	49	303	3.75601	1161628	-3.578308E+008	1	3.578327E+008	-89.814	-7.258942E-010	0.0006424	5
	50	311	3.004808	-4.971118E+007	-3.738395E+008	1	3.771302E+008	-97.5744	-6.695504E-010	0.0005893	5
	51	320	2.372217	5.191396E+007	-5.630796E+008	1	5.654676E+008	-84.73242	-6.072922E-012	0.0007247	3
	52	327	1.878005	5.45451E+007	-7.080906E+008	1	7.101883E+008	-85.59513	-5.789104E-012	0.0007217	3
	53	336	1.512097	5.394666E+007	-8.74873E+008	1	8.765346E+008	-86.47148	-5.758752E-012	0.0008137	3
	54	345	1.201923	5.644886E+007	-1.097771E+009	1	1.099222E+009	-87.05637	-5.510529E-012	0.0007231	3
	55	358	0.956633	5.561176E+007	-1.382287E+009	1	1.383405E+009	-87.69614	-5.468669E-012	8.955562E-005	3
