EXPLAIN
TAG	EISPOT
TITLE	LABEL	Potentiostatic EIS	Test Identifier
DATE	LABEL	2/28/2021	Date
TIME	LABEL	1:33:50	Time
NOTES	NOTES	1	Notes...
	
PSTAT	PSTAT	REF3000-16137	Potentiostat
VDC	POTEN	0.00000E+000	T	DC Voltage (V)
FREQINIT	QUANT	3.00000E+005	Initial Freq. (Hz)
FREQFINAL	QUANT	1.00000E+000	Final Freq. (Hz)
PTSPERDEC	QUANT	1.00000E+001	Points/decade
VAC	QUANT	5.00000E+001	AC Voltage (mV rms)
AREA	QUANT	1.00000E+000	Sample Area (cm^2)
SPEED	SELECTOR	2	Optimize for:
ZGUESS	QUANT	1.00000E+003	Estimated Z (ohms)
EOC	QUANT	0	Open Circuit (V)
SEQUENCER	TOGGLE	TRUE	Run as Sequence
PSTATMODEL	IQUANT	5	Pstat Model
PSTATSECTION	LABEL	REF3000-16137	Pstat Section
PSTATSERIALNO	LABEL	16137	Pstat Serial Number
CTRLMODE	IQUANT	1	Control Mode
IESTAB	IQUANT	0	I/E Stability
CASPEED	IQUANT	1	Control Amp Speed
CONVENTION	IQUANT	1	Current Convention
ICHRANGE	IQUANT	2	Ich Range
ICHRANGEMODE	TOGGLE	F	Ich Auto Range
ICHOFFSETENABLE	TOGGLE	T	Ich Offset Enable
ICHOFFSET	QUANT	0	Ich Offset (V)
ICHFILTER	IQUANT	3	Ich Filter
VCHRANGE	IQUANT	2	Vch Range
VCHRANGEMODE	TOGGLE	F	Vch Auto Range
VCHOFFSETENABLE	TOGGLE	T	Vch Offset Enable
VCHOFFSET	QUANT	0	Vch Offset (V)
VCHFILTER	IQUANT	3	Vch Filter
ACHRANGE	IQUANT	2	Ach Range
ACHOFFSETENABLE	TOGGLE	F	Ach Offset Enable
ACHOFFSET	QUANT	0	Ach Offset (V)
ACHFILTER	IQUANT	3	Ach Filter
IERANGELOWERLIMIT	IQUANT	2	I/E Range Lower Limit
IERANGEMODE	TOGGLE	F	I/E AutoRange
IERANGE	IQUANT	11	I/E Range
POSFEEDENABLE	TOGGLE	F	Positive Feedback IR Comp
POSFEEDRESISTANCE	QUANT	0	Positive Feedback Resistance (ohm)
ACHSELECT	IQUANT	0	Ach Select
CABLEID	IQUANT	13	Cable ID
DCCALDATE	LABEL	7/31/2020	DC Calibration Date
ACCALDATE	LABEL	7/31/2020	AC Calibration Date
THERMOSELECT	IQUANT	1	Thermo Select
FRAMEWORKVERSION	QUANT	6.33	Framework Version
INSTRUMENTVERSION	LABEL	3.50	Instrument Version
COMPLIANCEVOLTAGE	IQUANT	0	Compliance Voltage
ZCURVE	TABLE
	Pt	Time	Freq	Zreal	Zimag	Zsig	Zmod	Zphz	Idc	Vdc	IERange
	#	s	Hz	ohm	ohm	V	ohm	°	A	V	#
	0	7	300046.9	96.7011	-8.260454	1	97.0533	-4.882499	1.980806E-005	-0.0007789	9
	1	10	238359.4	97.8961	-10.59368	1	98.4676	-6.176146	-7.956042E-005	0.0025534	9
	2	13	189328.1	99.0162	-13.15742	1	99.8866	-7.569204	1.2799E-005	-0.0012476	9
	3	16	150421.9	100.8957	-16.36468	1	102.2142	-9.212811	6.374571E-005	-0.001621	9
	4	19	119484.4	102.677	-19.66779	1	104.5437	-10.84367	-7.719867E-005	0.0027862	9
	5	21	94921.88	104.9857	-23.2424	1	107.5277	-12.48316	-1.257046E-005	0.0007817	9
	6	24	75421.88	107.494	-27.51533	1	110.9597	-14.35776	-1.163655E-005	4.184485E-005	9
	7	26	59859.37	110.454	-32.51307	1	115.1398	-16.40224	2.236689E-005	-0.0006504	9
	8	29	47578.12	114.0055	-38.08322	1	120.1981	-18.47175	2.198048E-005	-0.0002487	9
	9	31	37828.12	117.8574	-44.40119	1	125.9437	-20.64323	-1.96645E-005	0.0004958	9
	10	34	30046.88	122.3755	-51.61725	1	132.816	-22.86973	-1.800783E-005	0.0008431	9
	11	36	23859.38	127.3163	-59.88353	1	140.6964	-25.19005	-1.514018E-005	0.0002352	9
	12	39	18984.38	132.6264	-69.37093	1	149.6733	-27.61204	-5.104898E-006	0.0006595	9
	13	41	15046.87	138.3612	-80.55487	1	160.1028	-30.20827	2.141146E-005	-0.0002632	9
	14	43	11953.13	144.1109	-94.3195	1	172.2327	-33.20445	3.026081E-006	0.0004454	9
	15	46	9515.62	149.7442	-110.5102	1	186.107	-36.42708	-5.769453E-006	0.0007735	9
	16	48	7546.875	155.9642	-131.4424	1	203.9655	-40.12328	-1.897955E-005	0.0004674	9
	17	50	5928.309	162.7734	-157.9918	1	226.8404	-44.14597	1.285481E-005	-0.0006165	9
	18	52	4733.456	169.7408	-189.5219	1	254.4219	-48.15153	2.411273E-005	-0.0004336	9
	19	55	3796.875	177.3405	-227.325	1	288.3163	-52.04153	2.571339E-005	-0.0005359	9
	20	57	2987.132	187.0596	-278.6574	1	335.6207	-56.12697	1.291955E-005	-0.000627	9
	21	59	2390.625	198.3447	-337.4297	1	391.4069	-59.55254	-8.785531E-006	-1.252897E-005	9
	22	62	1884.191	209.6385	-415.4873	1	465.3794	-63.22629	-5.651402E-006	0.0022026	8
	23	64	1516.544	223.5191	-501.9664	1	549.4825	-65.99722	6.932781E-006	-0.0008151	8
	24	67	1193.986	241.2377	-621.306	1	666.4959	-68.78004	3.490475E-006	0.0008749	8
	25	69	946.5144	263.5944	-763.8812	1	808.082	-70.96185	-4.234127E-006	0.0028501	8
	26	71	751.7689	288.4363	-940.1768	1	983.427	-72.94454	6.995368E-006	-0.0008255	8
	27	74	597.4265	326.098	-1154.185	1	1199.367	-74.22314	6.118887E-006	-0.0016308	8
	28	76	477.4305	361.9186	-1417.818	1	1463.281	-75.68021	2.943408E-007	0.000665	8
	29	78	376.6741	411.7414	-1758.41	1	1805.973	-76.82131	3.136705E-007	0.0006608	8
	30	81	298.2954	472.41	-2174.177	1	2224.908	-77.7412	3.232523E-007	0.0006562	8
	31	83	237.7717	545.7626	-2673.247	1	2728.389	-78.46122	3.165584E-007	0.000653	8
	32	85	189.0121	638.4174	-3296.355	1	3357.608	-79.03902	2.967984E-007	0.0006619	8
	33	88	150.2404	754.9661	-4064.383	1	4133.906	-79.47714	3.160599E-007	0.000653	8
	34	90	119.1737	905.9338	-5030.325	1	5111.251	-79.79078	2.560344E-008	0.0006368	7
	35	93	95.0169	1089.928	-6183.408	1	6278.732	-80.00336	2.722818E-008	0.0006305	7
	36	95	75.60484	1325.281	-7611.725	1	7726.236	-80.12321	2.750665E-008	0.0006254	7
	37	98	54.50582	1775.97	-10233.44	1	10386.41	-80.15462	2.527136E-008	0.0006312	7
	38	100	45.95588	2072.272	-11940.97	1	12119.45	-80.15477	2.781389E-008	0.0006489	7
	39	103	37.20238	2523.204	-14434.01	1	14652.89	-80.08434	2.411026E-008	0.0006462	7
	40	105	30.04808	3086.777	-17486.62	1	17756.97	-79.98915	2.455884E-008	0.0006348	7
	41	107	23.91582	3823.93	-21459.42	1	21797.46	-79.89631	2.337389E-008	0.0006473	7
	42	110	18.60119	4867.879	-26872.52	1	27309.87	-79.73238	2.895221E-008	0.0006429	7
	43	112	15.02404	5965.796	-32504.94	1	33047.87	-79.59996	2.589233E-008	0.0006294	7
	44	114	12.01923	7440.81	-39672.76	1	40364.51	-79.37732	2.699395E-008	0.0006284	7
	45	117	9.450605	9460.99	-49159.42	1	50061.55	-79.10632	2.149548E-009	0.0006694	6
	46	119	7.512019	11956.31	-60312.92	1	61486.6	-78.78718	1.692938E-009	0.0006725	6
	47	122	5.978954	15226.74	-73899.17	1	75451.58	-78.35729	2.548228E-009	0.0006768	6
	48	127	4.734848	19603.09	-90862.01	1	92952.6	-77.82529	1.634572E-009	0.0006631	6
	49	130	3.75601	25476.79	-111438.3	1	114313.4	-77.12246	2.614325E-009	0.0007046	6
	50	135	3.004808	32994.37	-135363.6	1	139326.7	-76.30148	2.31286E-009	0.0006627	6
	51	142	2.372217	43898.2	-166000.2	1	171706.5	-75.1874	1.907712E-009	0.0006047	6
	52	146	1.878005	58123.34	-202300	1	210484.3	-73.96998	2.857597E-009	0.0006744	6
	53	151	1.512097	75643.27	-241426.6	1	252999.4	-72.60329	2.42638E-009	0.0006634	6
	54	156	1.201923	100951.4	-290990.2	1	308004	-70.86713	2.358474E-009	0.000704	6
	55	162	0.956633	133863.4	-346938.1	1	371867.5	-68.90127	7.83332E-010	3.821815E-005	6
