EXPLAIN
TAG	EISPOT
TITLE	LABEL	Potentiostatic EIS	Test Identifier
DATE	LABEL	2/28/2021	Date
TIME	LABEL	1:39:33	Time
NOTES	NOTES	1	Notes...
	
PSTAT	PSTAT	REF3000-16137	Potentiostat
VDC	POTEN	0.00000E+000	T	DC Voltage (V)
FREQINIT	QUANT	3.00000E+005	Initial Freq. (Hz)
FREQFINAL	QUANT	1.00000E+000	Final Freq. (Hz)
PTSPERDEC	QUANT	1.00000E+001	Points/decade
VAC	QUANT	5.00000E+001	AC Voltage (mV rms)
AREA	QUANT	1.00000E+000	Sample Area (cm^2)
SPEED	SELECTOR	2	Optimize for:
ZGUESS	QUANT	1.00000E+003	Estimated Z (ohms)
EOC	QUANT	0	Open Circuit (V)
SEQUENCER	TOGGLE	TRUE	Run as Sequence
PSTATMODEL	IQUANT	5	Pstat Model
PSTATSECTION	LABEL	REF3000-16137	Pstat Section
PSTATSERIALNO	LABEL	16137	Pstat Serial Number
CTRLMODE	IQUANT	1	Control Mode
IESTAB	IQUANT	0	I/E Stability
CASPEED	IQUANT	1	Control Amp Speed
CONVENTION	IQUANT	1	Current Convention
ICHRANGE	IQUANT	2	Ich Range
ICHRANGEMODE	TOGGLE	F	Ich Auto Range
ICHOFFSETENABLE	TOGGLE	T	Ich Offset Enable
ICHOFFSET	QUANT	0	Ich Offset (V)
ICHFILTER	IQUANT	3	Ich Filter
VCHRANGE	IQUANT	2	Vch Range
VCHRANGEMODE	TOGGLE	F	Vch Auto Range
VCHOFFSETENABLE	TOGGLE	T	Vch Offset Enable
VCHOFFSET	QUANT	0	Vch Offset (V)
VCHFILTER	IQUANT	3	Vch Filter
ACHRANGE	IQUANT	2	Ach Range
ACHOFFSETENABLE	TOGGLE	F	Ach Offset Enable
ACHOFFSET	QUANT	0	Ach Offset (V)
ACHFILTER	IQUANT	3	Ach Filter
IERANGELOWERLIMIT	IQUANT	2	I/E Range Lower Limit
IERANGEMODE	TOGGLE	F	I/E AutoRange
IERANGE	IQUANT	11	I/E Range
POSFEEDENABLE	TOGGLE	F	Positive Feedback IR Comp
POSFEEDRESISTANCE	QUANT	0	Positive Feedback Resistance (ohm)
ACHSELECT	IQUANT	0	Ach Select
CABLEID	IQUANT	13	Cable ID
DCCALDATE	LABEL	7/31/2020	DC Calibration Date
ACCALDATE	LABEL	7/31/2020	AC Calibration Date
THERMOSELECT	IQUANT	1	Thermo Select
FRAMEWORKVERSION	QUANT	6.33	Framework Version
INSTRUMENTVERSION	LABEL	3.50	Instrument Version
COMPLIANCEVOLTAGE	IQUANT	0	Compliance Voltage
ZCURVE	TABLE
	Pt	Time	Freq	Zreal	Zimag	Zsig	Zmod	Zphz	Idc	Vdc	IERange
	#	s	Hz	ohm	ohm	V	ohm	°	A	V	#
	0	7	300046.9	128.2529	-9.93089	1	128.6368	-4.427698	7.10126E-005	-0.0019415	9
	1	10	238359.4	129.6611	-12.48595	1	130.2609	-5.50044	-1.504171E-005	0.0009469	9
	2	13	189328.1	131.0371	-15.55886	1	131.9575	-6.771388	-1.201812E-005	0.0008214	9
	3	16	150421.9	133.1383	-19.04365	1	134.4933	-8.14018	-8.205185E-005	0.0029382	9
	4	19	119484.4	134.9959	-22.0713	1	136.7883	-9.28548	1.753056E-005	-0.0013604	9
	5	22	94921.88	137.5237	-26.04951	1	139.9691	-10.7258	-2.119589E-005	0.0008264	9
	6	25	75421.88	140.4638	-30.89072	1	143.8204	-12.40302	-2.320671E-005	0.0006474	9
	7	27	59859.37	143.7854	-36.57977	1	148.3655	-14.27355	1.110769E-005	0.000185	9
	8	30	47578.12	147.6515	-42.78806	1	153.7264	-16.1611	2.529416E-005	-0.0005986	9
	9	32	37828.12	152.2735	-49.99285	1	160.2701	-18.1755	-2.144732E-005	0.0007884	9
	10	35	30046.88	157.3328	-58.28177	1	167.7807	-20.32645	-2.199039E-006	-0.0002859	9
	11	37	23859.38	163.2681	-67.73014	1	176.7592	-22.53063	2.386947E-005	-0.0002439	9
	12	40	18984.38	169.7829	-78.5693	1	187.0811	-24.83297	-2.128124E-005	0.0007917	9
	13	42	15046.87	176.9785	-91.31824	1	199.1493	-27.29305	-1.760865E-005	0.0008039	9
	14	44	11953.13	184.4002	-105.6915	1	212.5421	-29.81977	-1.359428E-005	0.0009193	9
	15	47	9515.62	192.0538	-123.3345	1	228.2457	-32.70805	6.435806E-006	-0.0005236	9
	16	49	7546.875	200.2478	-144.5681	1	246.9801	-35.82725	-1.395105E-005	0.0008561	9
	17	51	5928.309	208.8536	-173.0921	1	271.2576	-39.65099	-6.302267E-006	0.0007642	9
	18	54	4733.456	217.1881	-205.8788	1	299.2603	-43.46874	-1.506997E-005	0.0001879	9
	19	56	3796.875	226.2796	-245.6335	1	333.9735	-47.34848	-9.917872E-006	-1.557976E-005	9
	20	58	2987.132	237.8124	-299.0865	1	382.1093	-51.51077	1.973284E-005	-0.0007362	9
	21	61	2390.625	248.2462	-359.9225	1	437.2303	-55.40515	-1.857902E-005	0.0009396	9
	22	63	1884.191	261.9894	-441.0457	1	512.991	-59.2889	3.618555E-006	-0.0017869	8
	23	65	1516.544	276.1049	-533.8412	1	601.0161	-62.65181	6.522618E-006	-8.331551E-005	8
	24	67	1193.986	296.4838	-658.7692	1	722.4123	-65.76953	-7.03841E-006	0.002069	8
	25	70	946.5144	321.6696	-811.67	1	873.0862	-68.38129	-5.337984E-006	0.0033687	8
	26	72	751.7689	346.0524	-995.557	1	1053.986	-70.83272	-1.628209E-006	-0.0003273	8
	27	75	597.4265	380.2521	-1229.196	1	1286.668	-72.81054	-1.605177E-006	0.0028609	8
	28	77	477.4305	421.9784	-1503.471	1	1561.567	-74.32219	2.480683E-007	0.0006543	8
	29	79	376.6741	473.3927	-1864.278	1	1923.443	-75.75212	2.385289E-007	0.0006473	8
	30	82	298.2954	535.6914	-2305.316	1	2366.738	-76.91821	2.441876E-007	0.0006495	8
	31	84	237.7717	610.2263	-2835.306	1	2900.23	-77.85384	2.372307E-007	0.0006541	8
	32	87	189.0121	703.2408	-3496.92	1	3566.931	-78.62932	2.338317E-007	0.000666	8
	33	89	150.2404	822.0475	-4322.835	1	4400.303	-79.23296	1.791864E-008	0.0006306	7
	34	91	119.1737	969.301	-5344.217	1	5431.409	-79.7198	2.121535E-008	0.0006221	7
	35	94	95.0169	1149.928	-6576.782	1	6676.556	-80.08228	1.925131E-008	0.0006193	7
	36	96	75.60484	1380.472	-8107.873	1	8224.555	-80.3373	1.697973E-008	0.0006267	7
	37	99	54.50582	1822.12	-10926.02	1	11076.92	-80.53198	1.788836E-008	0.0006215	7
	38	101	45.95588	2115.48	-12766.96	1	12941.04	-80.5916	1.714712E-008	0.0006406	7
	39	104	37.20238	2560.567	-15471.56	1	15682.02	-80.60265	1.893428E-008	0.000627	7
	40	106	30.04808	3123.656	-18765.64	1	19023.84	-80.54941	1.663863E-008	0.0006273	7
	41	108	23.91582	3885.042	-23099.17	1	23423.6	-80.4528	1.54439E-008	0.0006377	7
	42	111	18.60119	4931.659	-28919.52	1	29337.01	-80.32242	1.844402E-008	0.0006182	7
	43	113	15.02404	6058.988	-35064.81	1	35584.44	-80.19644	1.766222E-008	0.000638	7
	44	115	12.01923	7537.635	-42849.87	1	43507.78	-80.02328	5.126869E-010	0.0006742	6
	45	118	9.450605	9526.86	-53153.99	1	54001	-79.83869	2.433675E-009	0.0006969	6
	46	120	7.512019	12021.09	-65341.68	1	66438.25	-79.5757	1.818513E-009	0.0007035	6
	47	123	5.978954	15176.97	-80173.22	1	81597.09	-79.28062	1.858163E-009	0.0006751	6
	48	128	4.734848	19427.07	-98823.3	1	100714.7	-78.8784	1.495574E-009	0.0006507	6
	49	131	3.75601	25038.98	-121441.3	1	123995.7	-78.34991	2.16864E-009	0.0006825	6
	50	137	3.004808	32143.37	-147732.3	1	151188.7	-77.72498	1.774411E-009	0.0006584	6
	51	143	2.372217	42491.04	-181828	1	186726.8	-76.8467	1.264568E-009	0.0005946	6
	52	147	1.878005	55856.88	-222747	1	229643.7	-75.92258	1.743597E-009	0.0006768	6
	53	152	1.512097	72624.51	-267391.5	1	277078.5	-74.80482	1.611763E-009	0.000621	6
	54	157	1.201923	96462.4	-325048.1	1	339059.4	-73.47103	1.290471E-009	0.0006991	6
	55	164	0.956633	127853.9	-391828.2	1	412160.1	-71.92845	5.32959E-010	2.505452E-005	6
