EXPLAIN
TAG	EISPOT
TITLE	LABEL	Potentiostatic EIS	Test Identifier
DATE	LABEL	2/28/2021	Date
TIME	LABEL	3:27:27	Time
NOTES	NOTES	1	Notes...
	
PSTAT	PSTAT	REF3000-16137	Potentiostat
VDC	POTEN	0.00000E+000	T	DC Voltage (V)
FREQINIT	QUANT	3.00000E+005	Initial Freq. (Hz)
FREQFINAL	QUANT	1.00000E+000	Final Freq. (Hz)
PTSPERDEC	QUANT	1.00000E+001	Points/decade
VAC	QUANT	5.00000E+001	AC Voltage (mV rms)
AREA	QUANT	1.00000E+000	Sample Area (cm^2)
SPEED	SELECTOR	2	Optimize for:
ZGUESS	QUANT	1.00000E+003	Estimated Z (ohms)
EOC	QUANT	0	Open Circuit (V)
SEQUENCER	TOGGLE	TRUE	Run as Sequence
PSTATMODEL	IQUANT	5	Pstat Model
PSTATSECTION	LABEL	REF3000-16137	Pstat Section
PSTATSERIALNO	LABEL	16137	Pstat Serial Number
CTRLMODE	IQUANT	1	Control Mode
IESTAB	IQUANT	0	I/E Stability
CASPEED	IQUANT	1	Control Amp Speed
CONVENTION	IQUANT	1	Current Convention
ICHRANGE	IQUANT	2	Ich Range
ICHRANGEMODE	TOGGLE	F	Ich Auto Range
ICHOFFSETENABLE	TOGGLE	T	Ich Offset Enable
ICHOFFSET	QUANT	0	Ich Offset (V)
ICHFILTER	IQUANT	3	Ich Filter
VCHRANGE	IQUANT	2	Vch Range
VCHRANGEMODE	TOGGLE	F	Vch Auto Range
VCHOFFSETENABLE	TOGGLE	T	Vch Offset Enable
VCHOFFSET	QUANT	0	Vch Offset (V)
VCHFILTER	IQUANT	3	Vch Filter
ACHRANGE	IQUANT	2	Ach Range
ACHOFFSETENABLE	TOGGLE	F	Ach Offset Enable
ACHOFFSET	QUANT	0	Ach Offset (V)
ACHFILTER	IQUANT	3	Ach Filter
IERANGELOWERLIMIT	IQUANT	2	I/E Range Lower Limit
IERANGEMODE	TOGGLE	F	I/E AutoRange
IERANGE	IQUANT	11	I/E Range
POSFEEDENABLE	TOGGLE	F	Positive Feedback IR Comp
POSFEEDRESISTANCE	QUANT	0	Positive Feedback Resistance (ohm)
ACHSELECT	IQUANT	0	Ach Select
CABLEID	IQUANT	13	Cable ID
DCCALDATE	LABEL	7/31/2020	DC Calibration Date
ACCALDATE	LABEL	7/31/2020	AC Calibration Date
THERMOSELECT	IQUANT	1	Thermo Select
FRAMEWORKVERSION	QUANT	6.33	Framework Version
INSTRUMENTVERSION	LABEL	3.50	Instrument Version
COMPLIANCEVOLTAGE	IQUANT	0	Compliance Voltage
ZCURVE	TABLE
	Pt	Time	Freq	Zreal	Zimag	Zsig	Zmod	Zphz	Idc	Vdc	IERange
	#	s	Hz	ohm	ohm	V	ohm	°	A	V	#
	0	21	300046.9	89.56185	-4793.564	1	4794.4	-88.92963	1.286129E-007	-0.0021058	9
	1	44	238359.4	443.3994	-5937.433	1	5953.966	-85.72916	6.789755E-007	0.0015053	9
	2	58	189328.1	776.6001	-7010.269	1	7053.153	-83.67853	1.126709E-006	-0.0019524	9
	3	65	150421.9	2167.834	-8689.472	1	8955.804	-75.9919	-2.017085E-005	0.001246	9
	4	73	119484.4	4169.002	-10066.85	1	10895.96	-67.50401	2.125057E-005	-0.0176806	8
	5	80	94921.88	6754.33	-10336.62	1	12347.74	-56.8379	1.620223E-005	-0.009081	8
	6	89	75421.88	9458.436	-9119.759	1	13138.95	-43.95562	-2.568464E-005	0.0074191	8
	7	97	59859.37	10330.35	-6356.991	1	12129.61	-31.60691	-1.975916E-006	0.0076523	8
	8	106	47578.12	11198.2	-3335.189	1	11684.31	-16.58524	7.344064E-006	-0.0223335	7
	9	112	37828.12	9963.57	-1891.248	1	10141.48	-10.7478	1.717109E-006	-0.0196449	7
	10	118	30046.88	8627.006	-1079.346	1	8694.264	-7.13136	5.337505E-006	-0.0249202	7
	11	125	23859.38	7561.381	-695.4378	1	7593.294	-5.254842	1.813125E-006	-0.0195554	7
	12	129	18984.38	6792.051	-505.2228	1	6810.815	-4.254079	-1.517119E-007	-0.0143791	7
	13	133	15046.87	6215.326	-454.7048	1	6231.937	-4.184227	-6.59696E-006	0.020035	7
	14	136	11953.13	5724.79	-425.7115	1	5740.596	-4.252848	-6.366519E-006	0.0192852	7
	15	140	9515.62	5245.168	-435.0114	1	5263.177	-4.741012	-2.398098E-006	0.0212912	7
	16	143	7546.875	4930.947	-489.7595	1	4955.21	-5.67222	-3.966126E-006	0.0229743	7
	17	146	5928.309	4575.221	-553.8444	1	4608.621	-6.902244	-5.154731E-007	0.0166484	7
	18	150	4733.456	4285.394	-662.795	1	4336.346	-8.791918	5.194674E-006	-0.0227882	7
	19	154	3796.875	3870.639	-773.5507	1	3947.179	-11.30172	-2.384536E-005	0.0070842	8
	20	159	2987.132	3526.13	-863.1874	1	3630.246	-13.75535	2.022097E-005	-0.0086727	8
	21	164	2390.625	3241.849	-960.892	1	3381.257	-16.50996	1.998207E-005	-0.0085383	8
	22	170	1884.191	3028.313	-1062.952	1	3209.447	-19.34131	-1.671231E-005	0.0099521	8
	23	175	1516.544	2816.499	-1194.669	1	3059.395	-22.98512	-2.08036E-005	0.0096288	8
	24	180	1193.986	2676.538	-1334.16	1	2990.625	-26.49464	1.866813E-005	-0.0009129	9
	25	186	946.5144	2588.415	-1471.875	1	2977.635	-29.62427	-9.454505E-006	-0.000159	9
	26	190	751.7689	2541.444	-1692.883	1	3053.652	-33.66801	5.919818E-006	-0.006046	8
	27	194	597.4265	2438.049	-1975.309	1	3137.823	-39.01441	-8.696202E-006	0.0082902	8
	28	197	477.4305	2452.823	-2275.58	1	3345.834	-42.85329	-1.359589E-007	0.0006433	8
	29	200	376.6741	2457.987	-2722.563	1	3667.977	-47.92361	-1.195115E-007	0.0006456	8
	30	202	298.2954	2479.111	-3283.964	1	4114.658	-52.95032	-3.901554E-008	0.0006538	7
	31	204	237.7717	2499.555	-3961.31	1	4683.989	-57.74841	-3.539109E-008	0.0005936	7
	32	207	189.0121	2541.68	-4812.205	1	5442.191	-62.15816	-3.54381E-008	0.000603	7
	33	209	150.2404	2609.84	-5866.207	1	6420.564	-66.01601	-3.731413E-008	0.0006487	7
	34	212	119.1737	2713.118	-7183.64	1	7678.912	-69.30945	-2.970151E-008	0.0006035	7
	35	214	95.0169	2850.192	-8767.571	1	9219.214	-71.99152	-3.505305E-008	0.0006446	7
	36	216	75.60484	3033.737	-10733.49	1	11153.99	-74.21748	-2.880147E-008	0.0006107	7
	37	219	54.50582	3437.462	-14398.24	1	14802.89	-76.57245	-3.06496E-008	0.0005949	7
	38	222	45.95588	3666.342	-16744.84	1	17141.52	-77.64979	-3.264929E-008	0.00064	7
	39	224	37.20238	4051.423	-20223.88	1	20625.7	-78.67196	-3.174339E-008	0.0006402	7
	40	226	30.04808	4554.707	-24505.99	1	24925.67	-79.47109	-3.025962E-008	0.000637	7
	41	229	23.91582	5246.473	-30082.02	1	30536.1	-80.1068	-2.686351E-008	0.0006369	7
	42	231	18.60119	6167.188	-37704.61	1	38205.65	-80.71062	-2.139743E-008	0.0005846	7
	43	233	15.02404	7301.797	-45670.05	1	46250.07	-80.91634	-2.161385E-009	0.0006622	6
	44	236	12.01923	8719.227	-55740.5	1	56418.33	-81.10954	-2.847638E-009	0.0006345	6
	45	238	9.450605	10596	-69084.95	1	69892.81	-81.28014	-2.158683E-009	0.0006475	6
	46	241	7.512019	13004.49	-84626.91	1	85620.27	-81.26378	-2.155659E-009	0.0006604	6
	47	244	5.978954	15895.77	-103294.1	1	104510	-81.25147	-1.880119E-009	0.0006539	6
	48	248	4.734848	19630.29	-126659.1	1	128171.2	-81.19009	-2.067144E-009	0.0006362	6
	49	251	3.75601	24199.07	-154503	1	156386.6	-81.09835	-1.579792E-009	0.0006724	6
	50	257	3.004808	29608.68	-186376	1	188713.2	-80.97312	-1.522189E-009	0.0006744	6
	51	263	2.372217	37037.82	-227939.7	1	230929.2	-80.7707	-1.826711E-009	0.000697	6
	52	268	1.878005	47292.31	-279297.3	1	283272.9	-80.38949	-1.371639E-009	0.0006473	6
	53	272	1.512097	59090.54	-335671	1	340832.3	-80.01611	-1.381788E-009	0.0007491	6
	54	278	1.201923	77483.69	-407613.9	1	414913	-79.23701	-9.536477E-010	0.0006708	6
	55	284	0.956633	102785.2	-491445.5	1	502079.2	-78.18694	-5.960253E-010	4.88731E-006	5
