EXPLAIN
TAG	EISPOT
TITLE	LABEL	Potentiostatic EIS	Test Identifier
DATE	LABEL	2/28/2021	Date
TIME	LABEL	1:30:59	Time
NOTES	NOTES	1	Notes...
	
PSTAT	PSTAT	REF3000-16137	Potentiostat
VDC	POTEN	0.00000E+000	T	DC Voltage (V)
FREQINIT	QUANT	3.00000E+005	Initial Freq. (Hz)
FREQFINAL	QUANT	1.00000E+000	Final Freq. (Hz)
PTSPERDEC	QUANT	1.00000E+001	Points/decade
VAC	QUANT	5.00000E+001	AC Voltage (mV rms)
AREA	QUANT	1.00000E+000	Sample Area (cm^2)
SPEED	SELECTOR	2	Optimize for:
ZGUESS	QUANT	1.00000E+003	Estimated Z (ohms)
EOC	QUANT	0	Open Circuit (V)
SEQUENCER	TOGGLE	TRUE	Run as Sequence
PSTATMODEL	IQUANT	5	Pstat Model
PSTATSECTION	LABEL	REF3000-16137	Pstat Section
PSTATSERIALNO	LABEL	16137	Pstat Serial Number
CTRLMODE	IQUANT	1	Control Mode
IESTAB	IQUANT	0	I/E Stability
CASPEED	IQUANT	1	Control Amp Speed
CONVENTION	IQUANT	1	Current Convention
ICHRANGE	IQUANT	2	Ich Range
ICHRANGEMODE	TOGGLE	F	Ich Auto Range
ICHOFFSETENABLE	TOGGLE	T	Ich Offset Enable
ICHOFFSET	QUANT	0	Ich Offset (V)
ICHFILTER	IQUANT	3	Ich Filter
VCHRANGE	IQUANT	2	Vch Range
VCHRANGEMODE	TOGGLE	F	Vch Auto Range
VCHOFFSETENABLE	TOGGLE	T	Vch Offset Enable
VCHOFFSET	QUANT	0	Vch Offset (V)
VCHFILTER	IQUANT	3	Vch Filter
ACHRANGE	IQUANT	2	Ach Range
ACHOFFSETENABLE	TOGGLE	F	Ach Offset Enable
ACHOFFSET	QUANT	0	Ach Offset (V)
ACHFILTER	IQUANT	3	Ach Filter
IERANGELOWERLIMIT	IQUANT	2	I/E Range Lower Limit
IERANGEMODE	TOGGLE	F	I/E AutoRange
IERANGE	IQUANT	11	I/E Range
POSFEEDENABLE	TOGGLE	F	Positive Feedback IR Comp
POSFEEDRESISTANCE	QUANT	0	Positive Feedback Resistance (ohm)
ACHSELECT	IQUANT	0	Ach Select
CABLEID	IQUANT	13	Cable ID
DCCALDATE	LABEL	7/31/2020	DC Calibration Date
ACCALDATE	LABEL	7/31/2020	AC Calibration Date
THERMOSELECT	IQUANT	1	Thermo Select
FRAMEWORKVERSION	QUANT	6.33	Framework Version
INSTRUMENTVERSION	LABEL	3.50	Instrument Version
COMPLIANCEVOLTAGE	IQUANT	0	Compliance Voltage
ZCURVE	TABLE
	Pt	Time	Freq	Zreal	Zimag	Zsig	Zmod	Zphz	Idc	Vdc	IERange
	#	s	Hz	ohm	ohm	V	ohm	°	A	V	#
	0	7	300046.9	85.46835	-7.555926	1	85.8017	-5.052164	5.442193E-006	-0.0015727	9
	1	10	238359.4	86.37992	-9.97427	1	86.95388	-6.586762	6.482075E-007	0.0007401	9
	2	13	189328.1	87.47127	-13.00713	1	88.43307	-8.458006	1.386414E-006	0.0009043	9
	3	15	150421.9	89.17246	-15.44285	1	90.49978	-9.82501	-1.123219E-006	0.0010749	9
	4	18	119484.4	90.95593	-18.64547	1	92.84737	-11.58482	3.247953E-005	0.000154	9
	5	20	94921.88	93.04695	-21.92588	1	95.5954	-13.25947	4.106972E-006	0.0004226	9
	6	23	75421.88	95.3919	-26.05856	1	98.8871	-15.27892	2.305449E-005	-0.0004239	9
	7	26	59859.37	98.2603	-30.71362	1	102.9486	-17.35789	-1.846564E-005	0.0005204	9
	8	28	47578.12	101.5324	-35.96875	1	107.7153	-19.50714	-1.942252E-005	0.0006638	9
	9	31	37828.12	105.1983	-41.90799	1	113.2385	-21.72092	1.210112E-005	0.0001929	9
	10	33	30046.88	109.3232	-48.67817	1	119.6709	-24.0019	-1.942756E-005	0.0008002	9
	11	36	23859.38	113.8154	-56.45133	1	127.046	-26.38096	-1.566427E-005	0.0008479	9
	12	38	18984.38	118.6635	-65.5334	1	135.5569	-28.91022	2.324444E-005	-0.0005747	9
	13	40	15046.87	123.6432	-76.38516	1	145.3353	-31.70722	-9.99247E-006	0.0007961	9
	14	43	11953.13	128.7646	-89.64248	1	156.8952	-34.84461	1.227353E-005	0.0001903	9
	15	45	9515.62	134.0476	-105.573	1	170.6294	-38.22319	2.160574E-005	-0.0006629	9
	16	47	7546.875	139.4582	-125.8409	1	187.8417	-42.0617	2.183947E-005	-0.0002921	9
	17	50	5928.309	145.7757	-152.0882	1	210.6689	-46.21406	-9.563754E-006	2.965377E-005	9
	18	52	4733.456	152.1848	-182.8008	1	237.8579	-50.22204	-1.944662E-005	0.0006394	9
	19	54	3796.875	159.0493	-219.5273	1	271.0884	-54.07637	-1.064178E-005	0.000801	9
	20	56	2987.132	168.4669	-269.7433	1	318.0292	-58.01336	2.158107E-005	-0.0006281	9
	21	59	2390.625	178.8513	-326.0991	1	371.9252	-61.25713	-1.933178E-005	0.0007644	9
	22	61	1884.191	190.4918	-402.443	1	445.2499	-64.67001	-1.904448E-005	0.0007689	9
	23	64	1516.544	204.2218	-487.321	1	528.3827	-67.26289	4.419756E-006	-0.0013121	8
	24	66	1193.986	221.4963	-603.8073	1	643.1515	-69.8553	5.071034E-006	2.826352E-005	8
	25	69	946.5144	244.5284	-744.8882	1	783.9979	-71.82627	3.169145E-006	0.0008148	8
	26	71	751.7689	269.5725	-913.4273	1	952.375	-73.55751	5.543461E-006	-0.0013747	8
	27	73	597.4265	299.7758	-1127.224	1	1166.405	-75.10738	6.405324E-006	-0.0006973	8
	28	76	477.4305	339.0927	-1379.965	1	1421.016	-76.19449	3.276798E-007	0.0006562	8
	29	78	376.6741	388.3542	-1711.182	1	1754.698	-77.21327	3.231837E-007	0.0006492	8
	30	80	298.2954	448.6762	-2115.324	1	2162.385	-78.02462	3.28252E-007	0.0006536	8
	31	82	237.7717	521.7216	-2600.188	1	2652.013	-78.6544	3.404794E-007	0.0006465	8
	32	85	189.0121	614.2116	-3205.025	1	3263.348	-79.15136	3.448336E-007	0.0006518	8
	33	87	150.2404	730.6771	-3950.083	1	4017.094	-79.52002	3.257492E-007	0.0006554	8
	34	90	119.1737	882.3008	-4887.331	1	4966.332	-79.76672	3.287715E-008	0.000604	7
	35	92	95.0169	1066.22	-6003.077	1	6097.029	-79.9286	3.096432E-008	0.0006246	7
	36	95	75.60484	1300.786	-7383.069	1	7496.783	-80.00789	2.88083E-008	0.0006243	7
	37	97	54.50582	1748.291	-9923.05	1	10075.88	-80.00789	2.918654E-008	0.0006213	7
	38	100	45.95588	2048.571	-11563.04	1	11743.11	-79.95341	3.128124E-008	0.0006249	7
	39	102	37.20238	2493.526	-13964.15	1	14185.04	-79.87562	2.739653E-008	0.0006373	7
	40	104	30.04808	3055.606	-16927.59	1	17201.16	-79.7677	2.880248E-008	0.0006228	7
	41	107	23.91582	3792.778	-20749.5	1	21093.29	-79.64133	3.101011E-008	0.0006243	7
	42	109	18.60119	4806.577	-25952.5	1	26393.85	-79.50733	3.08351E-008	0.00063	7
	43	111	15.02404	5930.477	-31377.28	1	31932.81	-79.29704	3.325172E-008	0.0006318	7
	44	114	12.01923	7383.741	-38263.25	1	38969.16	-79.07777	2.749136E-008	0.0006295	7
	45	116	9.450605	9381.455	-47386.29	1	48306.02	-78.80149	3.257004E-009	0.0006731	6
	46	119	7.512019	11899.25	-58111.72	1	59317.49	-78.42779	2.959681E-009	0.0006852	6
	47	122	5.978954	15153.7	-71143.53	1	72739.51	-77.9756	2.552505E-009	0.0006765	6
	48	126	4.734848	19572.24	-87459.95	1	89623.19	-77.38589	1.785664E-009	0.0006639	6
	49	129	3.75601	25494.4	-107090	1	110082.8	-76.60913	2.77756E-009	0.0006959	6
	50	135	3.004808	33117.39	-129871.3	1	134027.3	-75.69437	2.261694E-009	0.0006731	6
	51	141	2.372217	44238.52	-158775.8	1	164823.6	-74.43096	2.210593E-009	0.0006141	6
	52	146	1.878005	58788.4	-193310	1	202051.5	-73.08472	3.164055E-009	0.0006622	6
	53	150	1.512097	76582.81	-230381.7	1	242776.9	-71.6123	2.309434E-009	0.0007538	6
	54	156	1.201923	102285.3	-275993.8	1	294338	-69.66492	2.842819E-009	0.0006777	6
	55	162	0.956633	135192.3	-327065.1	1	353904.7	-67.54226	5.200003E-010	3.458258E-005	6
