EXPLAIN
TAG	EISPOT
TITLE	LABEL	Potentiostatic EIS	Test Identifier
DATE	LABEL	2/28/2021	Date
TIME	LABEL	4:03:30	Time
NOTES	NOTES	1	Notes...
	
PSTAT	PSTAT	REF3000-16137	Potentiostat
VDC	POTEN	0.00000E+000	T	DC Voltage (V)
FREQINIT	QUANT	3.00000E+005	Initial Freq. (Hz)
FREQFINAL	QUANT	1.00000E+000	Final Freq. (Hz)
PTSPERDEC	QUANT	1.00000E+001	Points/decade
VAC	QUANT	5.00000E+001	AC Voltage (mV rms)
AREA	QUANT	1.00000E+000	Sample Area (cm^2)
SPEED	SELECTOR	2	Optimize for:
ZGUESS	QUANT	1.00000E+003	Estimated Z (ohms)
EOC	QUANT	0	Open Circuit (V)
SEQUENCER	TOGGLE	TRUE	Run as Sequence
PSTATMODEL	IQUANT	5	Pstat Model
PSTATSECTION	LABEL	REF3000-16137	Pstat Section
PSTATSERIALNO	LABEL	16137	Pstat Serial Number
CTRLMODE	IQUANT	1	Control Mode
IESTAB	IQUANT	0	I/E Stability
CASPEED	IQUANT	1	Control Amp Speed
CONVENTION	IQUANT	1	Current Convention
ICHRANGE	IQUANT	2	Ich Range
ICHRANGEMODE	TOGGLE	F	Ich Auto Range
ICHOFFSETENABLE	TOGGLE	T	Ich Offset Enable
ICHOFFSET	QUANT	0	Ich Offset (V)
ICHFILTER	IQUANT	3	Ich Filter
VCHRANGE	IQUANT	2	Vch Range
VCHRANGEMODE	TOGGLE	F	Vch Auto Range
VCHOFFSETENABLE	TOGGLE	T	Vch Offset Enable
VCHOFFSET	QUANT	0	Vch Offset (V)
VCHFILTER	IQUANT	3	Vch Filter
ACHRANGE	IQUANT	2	Ach Range
ACHOFFSETENABLE	TOGGLE	F	Ach Offset Enable
ACHOFFSET	QUANT	0	Ach Offset (V)
ACHFILTER	IQUANT	3	Ach Filter
IERANGELOWERLIMIT	IQUANT	2	I/E Range Lower Limit
IERANGEMODE	TOGGLE	F	I/E AutoRange
IERANGE	IQUANT	11	I/E Range
POSFEEDENABLE	TOGGLE	F	Positive Feedback IR Comp
POSFEEDRESISTANCE	QUANT	0	Positive Feedback Resistance (ohm)
ACHSELECT	IQUANT	0	Ach Select
CABLEID	IQUANT	13	Cable ID
DCCALDATE	LABEL	7/31/2020	DC Calibration Date
ACCALDATE	LABEL	7/31/2020	AC Calibration Date
THERMOSELECT	IQUANT	1	Thermo Select
FRAMEWORKVERSION	QUANT	6.33	Framework Version
INSTRUMENTVERSION	LABEL	3.50	Instrument Version
COMPLIANCEVOLTAGE	IQUANT	0	Compliance Voltage
ZCURVE	TABLE
	Pt	Time	Freq	Zreal	Zimag	Zsig	Zmod	Zphz	Idc	Vdc	IERange
	#	s	Hz	ohm	ohm	V	ohm	°	A	V	#
	0	7	300046.9	24.34998	-4.78161	1	24.81503	-11.10982	1.583673E-005	-6.99792E-005	11
	1	12	238359.4	25.18866	-5.92251	1	25.87556	-13.2314	5.216011E-005	0.0005915	10
	2	15	189328.1	26.01373	-7.433663	1	27.05501	-15.94777	7.900409E-005	0.000363	10
	3	19	150421.9	26.92562	-9.065039	1	28.41063	-18.60682	4.754038E-005	0.0006816	10
	4	21	119484.4	27.99788	-10.74542	1	29.98909	-20.99651	1.02938E-005	0.0008247	10
	5	24	94921.88	29.15805	-12.59147	1	31.76062	-23.35639	-2.267022E-005	0.0007428	10
	6	26	75421.88	30.44683	-14.68086	1	33.80144	-25.74245	-1.94897E-006	0.0006245	10
	7	29	59859.37	31.77075	-17.12353	1	36.09149	-28.32341	-1.614833E-005	0.0006711	10
	8	31	47578.12	33.20932	-19.70746	1	38.61661	-30.68624	1.652133E-006	-0.0001259	9
	9	34	37828.12	34.64112	-23.05383	1	41.61113	-33.64395	1.652999E-005	-0.0002268	9
	10	36	30046.88	36.15639	-27.1791	1	45.2326	-36.93253	1.299641E-005	-0.0003197	9
	11	39	23859.38	37.81031	-32.20055	1	49.66382	-40.41884	1.028625E-005	4.892727E-005	9
	12	41	18984.38	39.61601	-38.36723	1	55.14955	-44.08257	1.441213E-006	-0.0001162	9
	13	44	15046.87	41.74717	-46.09393	1	62.18904	-47.83293	-1.867658E-006	0.0003064	9
	14	46	11953.13	44.11937	-55.47483	1	70.88	-51.50462	-1.27699E-005	0.0004002	9
	15	48	9515.62	47.06582	-66.73573	1	81.66302	-54.80634	-7.614067E-006	0.0005032	9
	16	50	7546.875	50.61625	-80.96678	1	95.4863	-57.98851	1.487996E-005	-0.0002924	9
	17	53	5928.309	54.9109	-99.0864	1	113.2843	-61.00602	1.555421E-005	-0.0002826	9
	18	55	4733.456	59.98111	-119.6898	1	133.8782	-63.3828	-3.4348E-006	2.082578E-005	9
	19	58	3796.875	66.05985	-144.0619	1	158.4858	-65.36609	1.294481E-005	-0.0003411	9
	20	60	2987.132	73.55595	-176.9054	1	191.5881	-67.42281	9.345726E-006	8.958928E-006	9
	21	62	2390.625	83.51138	-212.83	1	228.628	-68.57568	-1.051672E-005	0.0003642	9
	22	64	1884.191	93.51622	-261.7252	1	277.9305	-70.33784	-8.189413E-006	0.0004581	9
	23	67	1516.544	107.6159	-314.9364	1	332.8154	-71.13436	9.738398E-006	-0.0003049	9
	24	69	1193.986	125.4994	-385.7649	1	405.6657	-71.97894	1.39868E-006	-0.0001217	9
	25	72	946.5144	144.9818	-469.796	1	491.6584	-72.84946	-4.099336E-008	0.0004987	8
	26	74	751.7689	172.0087	-571.8619	1	597.1709	-73.25939	-2.123961E-006	0.0011638	8
	27	76	597.4265	206.2956	-696.7947	1	726.6916	-73.50789	-2.259958E-006	0.0011139	8
	28	79	477.4305	248.0077	-844.5556	1	880.217	-73.63488	2.185991E-007	0.0006538	8
	29	81	376.6741	306.3355	-1034.428	1	1078.834	-73.50387	2.193033E-007	0.00065	8
	30	83	298.2954	382.497	-1261.65	1	1318.356	-73.13416	2.198591E-007	0.000658	8
	31	86	237.7717	481.0448	-1527.145	1	1601.117	-72.51577	2.139893E-007	0.0006605	8
	32	88	189.0121	614.5424	-1847.638	1	1947.159	-71.60237	2.170147E-007	0.0006616	8
	33	91	150.2404	794.2103	-2225.957	1	2363.398	-70.36385	2.224142E-007	0.0006602	8
	34	93	119.1737	1037.927	-2670.348	1	2864.969	-68.7596	2.350319E-007	0.0006607	8
	35	95	95.0169	1355.656	-3164.429	1	3442.588	-66.80949	2.218775E-007	0.0006634	8
	36	98	75.60484	1774.81	-3716.033	1	4118.112	-64.47045	2.187515E-007	0.0006439	8
	37	100	54.50582	2588.347	-4571.078	1	5253.027	-60.47954	-3.117891E-007	0.0006319	7
	38	103	45.95588	3115.446	-5020.231	1	5908.361	-58.17717	-3.112599E-007	0.0006491	7
	39	105	37.20238	3858.552	-5552.454	1	6761.521	-55.20351	-3.097569E-007	0.0006491	7
	40	108	30.04808	4707.309	-6056.929	1	7671.059	-52.14645	-3.084472E-007	0.0006398	7
	41	110	23.91582	5662.072	-6538.779	1	8649.549	-49.10999	-3.137888E-007	0.000634	7
	42	113	18.60119	6765.167	-7015.606	1	9746.09	-46.04113	-3.004351E-007	0.000641	7
	43	115	15.02404	7709.674	-7413.455	1	10695.72	-43.87788	-2.899594E-007	0.0006471	7
	44	117	12.01923	8706.5	-7855.713	1	11726.7	-42.05935	-3.186401E-007	0.0006378	7
	45	120	9.450605	9798.1	-8395.779	1	12903.17	-40.59256	-2.95388E-007	0.000641	7
	46	122	7.512019	10916.66	-9031.732	1	14168.47	-39.60214	-3.051116E-007	0.0006559	7
	47	125	5.978954	12117.64	-9739.28	1	15546.41	-38.7898	-3.02484E-007	0.0006409	7
	48	128	4.734848	13504.79	-10558.66	1	17142.48	-38.01991	-2.957437E-007	0.0006698	7
	49	131	3.75601	15085.69	-11426.98	1	18924.96	-37.14289	-3.078649E-007	0.0006253	7
	50	135	3.004808	16800.85	-12266.49	1	20802.29	-36.13359	-3.095519E-007	0.0006747	7
	51	138	2.372217	18863.53	-13118.62	1	22976.75	-34.81664	-2.96376E-007	0.0006863	7
	52	143	1.878005	21082.06	-13802.77	1	25198.61	-33.21343	-2.983151E-007	0.0006184	7
	53	147	1.512097	23318.98	-14348.17	1	27379.64	-31.60398	-2.992484E-007	0.0007386	7
	54	153	1.201923	25816.59	-14731.33	1	29723.87	-29.70972	-2.979109E-007	0.0006293	7
	55	159	0.956633	28362.71	-14921.48	1	32048.31	-27.74864	-3.219844E-007	-5.801383E-006	7
