EXPLAIN
TAG	EISPOT
TITLE	LABEL	Potentiostatic EIS	Test Identifier
DATE	LABEL	2/28/2021	Date
TIME	LABEL	2:17:59	Time
NOTES	NOTES	1	Notes...
	
PSTAT	PSTAT	REF3000-16137	Potentiostat
VDC	POTEN	0.00000E+000	T	DC Voltage (V)
FREQINIT	QUANT	3.00000E+005	Initial Freq. (Hz)
FREQFINAL	QUANT	1.00000E+000	Final Freq. (Hz)
PTSPERDEC	QUANT	1.00000E+001	Points/decade
VAC	QUANT	5.00000E+001	AC Voltage (mV rms)
AREA	QUANT	1.00000E+000	Sample Area (cm^2)
SPEED	SELECTOR	2	Optimize for:
ZGUESS	QUANT	1.00000E+003	Estimated Z (ohms)
EOC	QUANT	0	Open Circuit (V)
SEQUENCER	TOGGLE	TRUE	Run as Sequence
PSTATMODEL	IQUANT	5	Pstat Model
PSTATSECTION	LABEL	REF3000-16137	Pstat Section
PSTATSERIALNO	LABEL	16137	Pstat Serial Number
CTRLMODE	IQUANT	1	Control Mode
IESTAB	IQUANT	0	I/E Stability
CASPEED	IQUANT	1	Control Amp Speed
CONVENTION	IQUANT	1	Current Convention
ICHRANGE	IQUANT	2	Ich Range
ICHRANGEMODE	TOGGLE	F	Ich Auto Range
ICHOFFSETENABLE	TOGGLE	T	Ich Offset Enable
ICHOFFSET	QUANT	0	Ich Offset (V)
ICHFILTER	IQUANT	3	Ich Filter
VCHRANGE	IQUANT	2	Vch Range
VCHRANGEMODE	TOGGLE	F	Vch Auto Range
VCHOFFSETENABLE	TOGGLE	T	Vch Offset Enable
VCHOFFSET	QUANT	0	Vch Offset (V)
VCHFILTER	IQUANT	3	Vch Filter
ACHRANGE	IQUANT	2	Ach Range
ACHOFFSETENABLE	TOGGLE	F	Ach Offset Enable
ACHOFFSET	QUANT	0	Ach Offset (V)
ACHFILTER	IQUANT	3	Ach Filter
IERANGELOWERLIMIT	IQUANT	2	I/E Range Lower Limit
IERANGEMODE	TOGGLE	F	I/E AutoRange
IERANGE	IQUANT	11	I/E Range
POSFEEDENABLE	TOGGLE	F	Positive Feedback IR Comp
POSFEEDRESISTANCE	QUANT	0	Positive Feedback Resistance (ohm)
ACHSELECT	IQUANT	0	Ach Select
CABLEID	IQUANT	13	Cable ID
DCCALDATE	LABEL	7/31/2020	DC Calibration Date
ACCALDATE	LABEL	7/31/2020	AC Calibration Date
THERMOSELECT	IQUANT	1	Thermo Select
FRAMEWORKVERSION	QUANT	6.33	Framework Version
INSTRUMENTVERSION	LABEL	3.50	Instrument Version
COMPLIANCEVOLTAGE	IQUANT	0	Compliance Voltage
ZCURVE	TABLE
	Pt	Time	Freq	Zreal	Zimag	Zsig	Zmod	Zphz	Idc	Vdc	IERange
	#	s	Hz	ohm	ohm	V	ohm	°	A	V	#
	0	26	300046.9	2410.222	-2300	1	3331.542	-43.65949	-2.020221E-005	0.0014083	9
	1	42	238359.4	2904.527	-2295.906	1	3702.359	-38.32489	-3.104515E-005	-0.0010823	9
	2	59	189328.1	3583.739	-2424.197	1	4326.652	-34.07612	-2.799158E-005	-0.0009866	9
	3	72	150421.9	3995.723	-2287.294	1	4604.076	-29.78836	-1.852447E-005	0.0012445	9
	4	84	119484.4	4318.199	-1812.275	1	4683.074	-22.76697	-8.802259E-005	0.0315374	8
	5	92	94921.88	4691.224	-1594.443	1	4954.778	-18.77176	-1.578998E-006	0.007198	8
	6	99	75421.88	4971.354	-1431.603	1	5173.379	-16.06483	2.596218E-005	-0.0070489	8
	7	107	59859.37	5190.783	-1250.995	1	5339.402	-13.55007	7.492964E-006	-0.0071712	8
	8	114	47578.12	5388.817	-1079.137	1	5495.806	-11.32397	2.501763E-005	-0.0049157	8
	9	122	37828.12	5547.004	-939.759	1	5626.047	-9.6156	1.536944E-005	-0.0086886	8
	10	129	30046.88	5742.169	-847.1848	1	5804.329	-8.392725	-1.833269E-005	0.0107462	8
	11	137	23859.38	5893.439	-788.4378	1	5945.945	-7.619916	-1.769579E-005	0.010518	8
	12	142	18984.38	6003.083	-698.307	1	6043.562	-6.635095	2.239937E-005	-0.0027681	8
	13	147	15046.87	6127.104	-689.9859	1	6165.832	-6.425128	-1.518498E-005	0.0007095	8
	14	153	11953.13	6209.292	-654.222	1	6243.662	-6.014594	1.539571E-005	-0.0086923	8
	15	158	9515.62	6332.758	-689.6415	1	6370.198	-6.215057	7.576313E-006	-0.0071975	8
	16	163	7546.875	6496.982	-567.8114	1	6521.747	-4.994741	-2.137894E-007	-0.0139953	7
	17	167	5928.309	6627.963	-666.8655	1	6661.427	-5.745419	-2.627287E-007	0.0167104	7
	18	172	4733.456	6751.979	-774.025	1	6796.201	-6.539655	-2.483071E-007	-0.0139866	7
	19	176	3796.875	6803.871	-891.559	1	6862.036	-7.465334	6.725373E-006	-0.0150147	7
	20	179	2987.132	7004.445	-1088.49	1	7088.516	-8.833109	1.846133E-006	-0.019455	7
	21	183	2390.625	7145.121	-1265.06	1	7256.247	-10.0403	6.554601E-006	-0.0239	7
	22	187	1884.191	7391.72	-1527.68	1	7547.935	-11.67717	-6.156003E-006	0.0228724	7
	23	192	1516.544	7562.968	-1726.025	1	7757.425	-12.8559	3.772056E-006	-0.0230702	7
	24	196	1193.986	7799.472	-2044.608	1	8063.014	-14.68938	1.909896E-006	0.0099622	7
	25	200	946.5144	8009.703	-2434.664	1	8371.555	-16.9074	-1.438849E-007	0.0166389	7
	26	203	751.7689	8346.009	-2822.309	1	8810.295	-18.68362	6.798731E-006	-0.0150334	7
	27	206	597.4265	8650.484	-3273.252	1	9249.057	-20.72611	6.58679E-006	-0.0243873	7
	28	208	477.4305	9015.24	-3855.329	1	9805	-23.15377	-5.450844E-008	0.0006266	7
	29	211	376.6741	9412.494	-4511.018	1	10437.64	-25.60647	-6.129773E-008	0.0006658	7
	30	213	298.2954	9836.11	-5266.018	1	11157.06	-28.16353	-5.187109E-008	0.0006	7
	31	215	237.7717	10280.05	-6138.145	1	11973.15	-30.84112	-5.91236E-008	0.0006605	7
	32	218	189.0121	10741.68	-7193.25	1	12927.75	-33.80854	-6.085383E-008	0.000664	7
	33	220	150.2404	11212.23	-8481.711	1	14058.93	-37.1064	-5.81337E-008	0.0006617	7
	34	223	119.1737	11697.2	-10097.43	1	15452.59	-40.80191	-5.385259E-008	0.0005768	7
	35	225	95.0169	12197.47	-12063.57	1	17155.41	-44.68376	-5.818382E-008	0.0006039	7
	36	228	75.60484	12738.06	-14534.22	1	19326.19	-48.76809	-5.636265E-008	0.0005916	7
	37	230	54.50582	13566.05	-19190.36	1	23501.22	-54.74275	-5.338482E-008	0.0005741	7
	38	233	45.95588	14103.61	-22239.4	1	26334.44	-57.61827	-5.829322E-008	0.0006714	7
	39	235	37.20238	14825.52	-26795.06	1	30623.05	-61.04456	-5.396292E-008	0.0005808	7
	40	237	30.04808	15674.12	-32445.58	1	36033.23	-64.2153	-6.189497E-008	0.0006328	7
	41	240	23.91582	16764.3	-39892.68	1	43272.02	-67.20615	-7.43696E-009	0.0006621	6
	42	242	18.60119	18168.38	-49961.9	1	53162.78	-70.01647	-5.194005E-009	0.0006657	6
	43	245	15.02404	19592.68	-60832.18	1	63909.53	-72.14742	-6.413324E-009	0.0007044	6
	44	247	12.01923	21392.99	-74644.41	1	77649.52	-74.00777	-6.502475E-009	0.0007105	6
	45	250	9.450605	23677.41	-93060.62	1	96025.5	-75.72512	-5.926847E-009	0.0007016	6
	46	252	7.512019	26444.66	-115060.4	1	118060.2	-77.05634	-6.523972E-009	0.0007288	6
	47	255	5.978954	29837.41	-142098.3	1	145197.1	-78.14147	-5.74254E-009	0.0006278	6
	48	259	4.734848	34077.18	-176503.3	1	179762.8	-79.07246	-6.670196E-009	0.0007129	6
	49	263	3.75601	39266.61	-218843.1	1	222338	-79.82777	-6.321248E-009	0.0007205	6
	50	268	3.004808	45487.38	-269285.7	1	273100.5	-80.41218	-6.547756E-009	0.0007336	6
	51	275	2.372217	54165.71	-335182.8	1	339531.3	-80.82034	-6.579728E-009	0.0006324	6
	52	279	1.878005	64176.25	-417475.1	1	422379.1	-81.26064	-6.381879E-009	0.0006582	6
	53	284	1.512097	75482.06	-510783.1	1	516330.2	-81.59383	-7.949864E-010	0.0007288	5
	54	289	1.201923	91592.2	-633362.8	1	639951.2	-81.77135	-6.308548E-010	0.0006556	5
	55	295	0.956633	110698.5	-782933.2	1	790720.3	-81.95232	-7.993572E-010	1.271387E-005	5
