EXPLAIN
TAG	EISPOT
TITLE	LABEL	Potentiostatic EIS	Test Identifier
DATE	LABEL	2/28/2021	Date
TIME	LABEL	0:42:35	Time
NOTES	NOTES	1	Notes...
	
PSTAT	PSTAT	REF3000-16137	Potentiostat
VDC	POTEN	0.00000E+000	T	DC Voltage (V)
FREQINIT	QUANT	3.00000E+005	Initial Freq. (Hz)
FREQFINAL	QUANT	1.00000E+000	Final Freq. (Hz)
PTSPERDEC	QUANT	1.00000E+001	Points/decade
VAC	QUANT	5.00000E+001	AC Voltage (mV rms)
AREA	QUANT	1.00000E+000	Sample Area (cm^2)
SPEED	SELECTOR	2	Optimize for:
ZGUESS	QUANT	1.00000E+003	Estimated Z (ohms)
EOC	QUANT	0	Open Circuit (V)
SEQUENCER	TOGGLE	TRUE	Run as Sequence
PSTATMODEL	IQUANT	5	Pstat Model
PSTATSECTION	LABEL	REF3000-16137	Pstat Section
PSTATSERIALNO	LABEL	16137	Pstat Serial Number
CTRLMODE	IQUANT	1	Control Mode
IESTAB	IQUANT	0	I/E Stability
CASPEED	IQUANT	1	Control Amp Speed
CONVENTION	IQUANT	1	Current Convention
ICHRANGE	IQUANT	2	Ich Range
ICHRANGEMODE	TOGGLE	F	Ich Auto Range
ICHOFFSETENABLE	TOGGLE	T	Ich Offset Enable
ICHOFFSET	QUANT	0	Ich Offset (V)
ICHFILTER	IQUANT	3	Ich Filter
VCHRANGE	IQUANT	2	Vch Range
VCHRANGEMODE	TOGGLE	F	Vch Auto Range
VCHOFFSETENABLE	TOGGLE	T	Vch Offset Enable
VCHOFFSET	QUANT	0	Vch Offset (V)
VCHFILTER	IQUANT	3	Vch Filter
ACHRANGE	IQUANT	2	Ach Range
ACHOFFSETENABLE	TOGGLE	F	Ach Offset Enable
ACHOFFSET	QUANT	0	Ach Offset (V)
ACHFILTER	IQUANT	3	Ach Filter
IERANGELOWERLIMIT	IQUANT	2	I/E Range Lower Limit
IERANGEMODE	TOGGLE	F	I/E AutoRange
IERANGE	IQUANT	11	I/E Range
POSFEEDENABLE	TOGGLE	F	Positive Feedback IR Comp
POSFEEDRESISTANCE	QUANT	0	Positive Feedback Resistance (ohm)
ACHSELECT	IQUANT	0	Ach Select
CABLEID	IQUANT	13	Cable ID
DCCALDATE	LABEL	7/31/2020	DC Calibration Date
ACCALDATE	LABEL	7/31/2020	AC Calibration Date
THERMOSELECT	IQUANT	1	Thermo Select
FRAMEWORKVERSION	QUANT	6.33	Framework Version
INSTRUMENTVERSION	LABEL	3.50	Instrument Version
COMPLIANCEVOLTAGE	IQUANT	0	Compliance Voltage
ZCURVE	TABLE
	Pt	Time	Freq	Zreal	Zimag	Zsig	Zmod	Zphz	Idc	Vdc	IERange
	#	s	Hz	ohm	ohm	V	ohm	°	A	V	#
	0	7	300046.9	24.3852	-4.475284	1	24.79246	-10.39946	-0.0001204	-0.0006094	11
	1	11	238359.4	25.14075	-5.61299	1	25.75971	-12.5856	6.977185E-007	0.0005749	10
	2	15	189328.1	25.84981	-7.338875	1	26.8714	-15.84948	6.595761E-005	0.0006344	11
	3	19	150421.9	26.84633	-8.63708	1	28.2015	-17.83417	2.912605E-005	0.0005989	10
	4	22	119484.4	27.83659	-10.26775	1	29.66989	-20.24689	2.543271E-005	0.0006463	10
	5	24	94921.88	28.99255	-12.0873	1	31.41132	-22.63177	6.026205E-006	0.0006163	10
	6	27	75421.88	30.16729	-14.13298	1	33.31376	-25.10247	-1.082435E-005	0.0006452	10
	7	29	59859.37	31.46818	-16.4953	1	35.52944	-27.66308	-2.563876E-005	0.0006825	10
	8	32	47578.12	32.84699	-19.02242	1	37.95757	-30.07608	1.103094E-005	-0.0003108	9
	9	34	37828.12	34.24408	-22.31476	1	40.87304	-33.08982	8.679648E-006	3.247944E-006	9
	10	37	30046.88	35.69552	-26.33676	1	44.35984	-36.42054	1.3392E-005	-0.00015	9
	11	39	23859.38	37.24778	-31.30292	1	48.6546	-40.04359	-1.217262E-005	0.0004512	9
	12	41	18984.38	38.96954	-37.3043	1	53.94661	-43.74929	1.488941E-005	-0.0001169	9
	13	44	15046.87	40.97065	-44.8237	1	60.72691	-47.57144	-3.713995E-006	0.0004503	9
	14	46	11953.13	43.27501	-54.08897	1	69.27007	-51.33772	1.003699E-005	4.510685E-005	9
	15	48	9515.62	46.09008	-65.18444	1	79.83299	-54.73695	-2.827973E-006	3.906785E-005	9
	16	51	7546.875	49.38869	-79.12765	1	93.27608	-58.02905	-1.016542E-005	0.0003832	9
	17	53	5928.309	53.34657	-97.167	1	110.8481	-61.23237	-3.577844E-007	0.0003162	9
	18	55	4733.456	58.05495	-117.4961	1	131.0562	-63.70598	-1.046313E-005	0.0002799	9
	19	58	3796.875	63.23302	-142.1868	1	155.6133	-66.02443	-1.103348E-005	0.0004538	9
	20	60	2987.132	70.57477	-174.2085	1	187.9612	-67.94631	1.593339E-005	-0.0002839	9
	21	62	2390.625	78.68894	-211.027	1	225.2206	-69.55023	1.527985E-005	-0.0002277	9
	22	65	1884.191	88.11919	-258.8265	1	273.4157	-71.19852	-4.19654E-007	0.0003142	9
	23	67	1516.544	99.7617	-312.8766	1	328.3963	-72.31496	-2.316977E-007	0.0003198	9
	24	69	1193.986	116.1356	-383.623	1	400.8168	-73.15718	-3.127045E-006	2.444925E-005	9
	25	72	946.5144	133.5979	-468.2827	1	486.9672	-74.0769	-1.497314E-006	0.0012887	8
	26	74	751.7689	155.6576	-572.3972	1	593.1844	-74.78688	1.139527E-006	0.0003076	8
	27	76	597.4265	182.8777	-699.4183	1	722.9316	-75.34686	-1.89319E-006	0.0012019	8
	28	79	477.4305	215.0517	-849.7849	1	876.5737	-75.79854	5.377228E-007	0.0006636	8
	29	81	376.6741	257.7905	-1044.641	1	1075.979	-76.13784	5.682857E-007	0.0006522	8
	30	83	298.2954	310.3582	-1279.821	1	1316.915	-76.36884	5.756636E-007	0.0006522	8
	31	85	237.7717	373.6419	-1558.895	1	1603.047	-76.52139	5.698926E-007	0.0006551	8
	32	88	189.0121	453.4501	-1902.896	1	1956.177	-76.59669	5.788995E-007	0.0006491	8
	33	90	150.2404	553.4005	-2322.254	1	2387.282	-76.59623	5.566776E-007	0.0006584	8
	34	93	119.1737	680.354	-2839.711	1	2920.075	-76.52672	5.684495E-007	0.0006596	8
	35	95	95.0169	838.1658	-3455.595	1	3555.792	-76.36602	5.760008E-007	0.0006595	8
	36	98	75.60484	1041.768	-4211.316	1	4338.256	-76.10548	5.806075E-007	0.0006597	8
	37	100	54.50582	1447.011	-5593.521	1	5777.657	-75.49589	3.308693E-008	0.0006345	7
	38	103	45.95588	1722.042	-6470.139	1	6695.381	-75.0961	3.357484E-008	0.0006424	7
	39	105	37.20238	2161.99	-7746.453	1	8042.496	-74.40589	3.351375E-008	0.0006377	7
	40	107	30.04808	2723.537	-9258.01	1	9650.31	-73.60709	2.75582E-008	0.0006376	7
	41	110	23.91582	3522.879	-11184.59	1	11726.28	-72.51682	2.944757E-008	0.0006327	7
	42	112	18.60119	4683.614	-13675.42	1	14455.22	-71.09448	1.906123E-008	0.0006481	7
	43	114	15.02404	5990.663	-16152.22	1	17227.37	-69.65079	3.619078E-008	0.0006438	7
	44	117	12.01923	7763.025	-19107.18	1	20623.99	-67.88867	4.028599E-008	0.0006403	7
	45	119	9.450605	10183.82	-22674.83	1	24856.75	-65.814	3.938424E-008	0.000632	7
	46	122	7.512019	13139.09	-26446.42	1	29530.47	-63.58093	4.598905E-008	0.0006507	7
	47	124	5.978954	16745.46	-30474.48	1	34772.18	-61.2116	4.039072E-008	0.0006393	7
	48	127	4.734848	21197.86	-34789.05	1	40738.53	-58.64498	4.596345E-008	0.000667	7
	49	131	3.75601	26381.53	-39155.08	1	47213.4	-56.02908	-2.336259E-008	0.000672	6
	50	136	3.004808	32024.48	-43485.92	1	54005.49	-53.63083	-2.140557E-008	0.0006923	6
	51	142	2.372217	38637.27	-48045.67	1	61654.07	-51.19453	-2.390668E-008	0.0007255	6
	52	147	1.878005	45798.34	-52697.78	1	69817.94	-49.0069	-2.591523E-008	0.0006775	6
	53	151	1.512097	52769.63	-57134.84	1	77775.47	-47.27449	-2.256713E-008	0.0005916	6
	54	157	1.201923	60588.55	-62192.84	1	86826.97	-45.7486	-2.376474E-008	0.0006923	6
	55	163	0.956633	68761.09	-67783.56	1	96554.1	-44.58982	-2.514835E-008	3.978309E-005	6
