EXPLAIN
TAG	EISPOT
TITLE	LABEL	Potentiostatic EIS	Test Identifier
DATE	LABEL	2/28/2021	Date
TIME	LABEL	1:51:16	Time
NOTES	NOTES	1	Notes...
	
PSTAT	PSTAT	REF3000-16137	Potentiostat
VDC	POTEN	0.00000E+000	T	DC Voltage (V)
FREQINIT	QUANT	3.00000E+005	Initial Freq. (Hz)
FREQFINAL	QUANT	1.00000E+000	Final Freq. (Hz)
PTSPERDEC	QUANT	1.00000E+001	Points/decade
VAC	QUANT	5.00000E+001	AC Voltage (mV rms)
AREA	QUANT	1.00000E+000	Sample Area (cm^2)
SPEED	SELECTOR	2	Optimize for:
ZGUESS	QUANT	1.00000E+003	Estimated Z (ohms)
EOC	QUANT	0	Open Circuit (V)
SEQUENCER	TOGGLE	TRUE	Run as Sequence
PSTATMODEL	IQUANT	5	Pstat Model
PSTATSECTION	LABEL	REF3000-16137	Pstat Section
PSTATSERIALNO	LABEL	16137	Pstat Serial Number
CTRLMODE	IQUANT	1	Control Mode
IESTAB	IQUANT	0	I/E Stability
CASPEED	IQUANT	1	Control Amp Speed
CONVENTION	IQUANT	1	Current Convention
ICHRANGE	IQUANT	2	Ich Range
ICHRANGEMODE	TOGGLE	F	Ich Auto Range
ICHOFFSETENABLE	TOGGLE	T	Ich Offset Enable
ICHOFFSET	QUANT	0	Ich Offset (V)
ICHFILTER	IQUANT	3	Ich Filter
VCHRANGE	IQUANT	2	Vch Range
VCHRANGEMODE	TOGGLE	F	Vch Auto Range
VCHOFFSETENABLE	TOGGLE	T	Vch Offset Enable
VCHOFFSET	QUANT	0	Vch Offset (V)
VCHFILTER	IQUANT	3	Vch Filter
ACHRANGE	IQUANT	2	Ach Range
ACHOFFSETENABLE	TOGGLE	F	Ach Offset Enable
ACHOFFSET	QUANT	0	Ach Offset (V)
ACHFILTER	IQUANT	3	Ach Filter
IERANGELOWERLIMIT	IQUANT	2	I/E Range Lower Limit
IERANGEMODE	TOGGLE	F	I/E AutoRange
IERANGE	IQUANT	11	I/E Range
POSFEEDENABLE	TOGGLE	F	Positive Feedback IR Comp
POSFEEDRESISTANCE	QUANT	0	Positive Feedback Resistance (ohm)
ACHSELECT	IQUANT	0	Ach Select
CABLEID	IQUANT	13	Cable ID
DCCALDATE	LABEL	7/31/2020	DC Calibration Date
ACCALDATE	LABEL	7/31/2020	AC Calibration Date
THERMOSELECT	IQUANT	1	Thermo Select
FRAMEWORKVERSION	QUANT	6.33	Framework Version
INSTRUMENTVERSION	LABEL	3.50	Instrument Version
COMPLIANCEVOLTAGE	IQUANT	0	Compliance Voltage
ZCURVE	TABLE
	Pt	Time	Freq	Zreal	Zimag	Zsig	Zmod	Zphz	Idc	Vdc	IERange
	#	s	Hz	ohm	ohm	V	ohm	°	A	V	#
	0	11	300046.9	265.9666	-21.4762	1	266.8322	-4.616489	1.984274E-005	-0.0010713	9
	1	16	238359.4	267.6898	-22.40952	1	268.6262	-4.785329	-5.91707E-005	0.0006108	9
	2	21	189328.1	270.58	-24.11134	1	271.6522	-5.092168	8.025462E-005	-0.0029514	9
	3	26	150421.9	274.8069	-27.30057	1	276.1597	-5.673408	7.224364E-005	-0.0015749	9
	4	31	119484.4	278.4141	-31.29275	1	280.1672	-6.412927	2.103808E-005	-0.0015504	9
	5	38	94921.88	282.0069	-35.7567	1	284.2647	-7.226183	1.133344E-006	0.0005864	9
	6	41	75421.88	286.11	-41.35794	1	289.0838	-8.225278	1.140865E-005	0.0003114	9
	7	43	59859.37	290.4534	-48.79096	1	294.5229	-9.53564	1.101052E-005	0.0002705	9
	8	46	47578.12	294.8472	-57.04805	1	300.3154	-10.95048	1.745715E-006	0.0005765	9
	9	48	37828.12	301.7772	-66.34061	1	308.9831	-12.3983	2.792135E-005	-0.0006289	9
	10	51	30046.88	309.0158	-77.63738	1	318.6194	-14.10314	-2.103233E-005	0.001002	9
	11	54	23859.38	317.2201	-90.46892	1	329.8685	-15.91777	1.950868E-005	-0.0008966	9
	12	56	18984.38	326.7111	-106.1492	1	343.5226	-17.9991	1.840046E-005	-0.0008505	9
	13	59	15046.87	337.3699	-123.7811	1	359.3609	-20.14809	-1.539181E-005	0.0001291	9
	14	61	11953.13	350.2218	-143.1006	1	378.3294	-22.22492	-1.522797E-005	0.000111	9
	15	63	9515.62	363.5746	-164.7248	1	399.1501	-24.37386	2.150059E-006	-0.0025928	8
	16	66	7546.875	380.1876	-191.4664	1	425.6783	-26.73029	8.966753E-006	-0.0037624	8
	17	68	5928.309	395.2494	-223.9537	1	454.2878	-29.53649	-2.168041E-006	-0.0012604	8
	18	70	4733.456	412.1727	-260.9725	1	487.8452	-32.34048	-6.839409E-006	0.0050535	8
	19	73	3796.875	428.1244	-304.1081	1	525.1402	-35.38719	-1.204258E-005	0.0043651	8
	20	75	2987.132	447.886	-361.2436	1	575.4119	-38.888	-1.105663E-005	0.0047926	8
	21	77	2390.625	463.7373	-430.1462	1	632.5173	-42.8479	1.283369E-005	-0.0019694	8
	22	80	1884.191	483.6755	-518.7512	1	709.2565	-47.004	-3.379141E-006	0.004467	8
	23	82	1516.544	505.6795	-621.0558	1	800.8883	-50.84664	9.885012E-006	-0.0003315	8
	24	84	1193.986	530.8528	-761.0905	1	927.935	-55.10462	-1.134224E-005	0.0033675	8
	25	87	946.5144	558.6779	-933.4686	1	1087.881	-59.09962	1.152744E-005	-0.003858	8
	26	89	751.7689	596.9131	-1143.395	1	1289.828	-62.43303	2.175108E-006	-0.0026837	8
	27	92	597.4265	632.5568	-1390.859	1	1527.945	-65.54416	6.053091E-006	-0.0035349	8
	28	95	477.4305	678.7179	-1709.792	1	1839.578	-68.34894	9.441719E-008	0.0006435	8
	29	97	376.6741	737.8265	-2116.469	1	2241.389	-70.78083	9.517166E-008	0.000645	8
	30	99	298.2954	808.1162	-2613.721	1	2735.798	-72.81932	8.844491E-008	0.00064	8
	31	102	237.7717	890.9417	-3211.847	1	3333.128	-74.4964	9.46646E-008	0.0006451	8
	32	104	189.0121	992.213	-3958.817	1	4081.264	-75.92959	8.604287E-008	0.0006419	8
	33	106	150.2404	1119.734	-4892.987	1	5019.475	-77.11012	-1.140783E-009	0.0006146	7
	34	109	119.1737	1273.031	-6051.145	1	6183.604	-78.11945	-2.785685E-010	0.0006092	7
	35	111	95.0169	1457.667	-7449.528	1	7590.801	-78.92868	-5.07102E-009	0.0006359	7
	36	114	75.60484	1688.696	-9192.957	1	9346.772	-79.59112	-1.09507E-009	0.0006235	7
	37	116	54.50582	2117.613	-12426.84	1	12605.97	-80.32932	-5.887923E-009	0.0006367	7
	38	119	45.95588	2412.687	-14540.03	1	14738.84	-80.57852	-1.834078E-009	0.000621	7
	39	121	37.20238	2848.724	-17657.63	1	17885.95	-80.83538	-1.645582E-009	0.0006171	7
	40	124	30.04808	3392.113	-21486.64	1	21752.75	-81.02871	-4.948129E-009	0.0006423	7
	41	126	23.91582	4137.822	-26518.8	1	26839.68	-81.13145	-2.366137E-009	0.000613	7
	42	129	18.60119	5133.845	-33363.52	1	33756.19	-81.25217	-6.681648E-010	0.0006247	7
	43	131	15.02404	6262.195	-40573.15	1	41053.57	-81.22601	-2.315472E-009	0.000646	7
	44	133	12.01923	7756.288	-49711.53	1	50312.98	-81.13187	-9.25277E-010	0.0006526	6
	45	136	9.450605	9719.3	-61861.69	1	62620.55	-81.07105	-2.21745E-010	0.0006796	6
	46	138	7.512019	12101.23	-76187.71	1	77142.77	-80.97485	-8.587202E-011	0.0006683	6
	47	141	5.978954	15067.57	-93731.38	1	94934.73	-80.86768	-3.296196E-010	0.0006536	6
	48	145	4.734848	18955.61	-115794.1	1	117335.4	-80.70309	4.672336E-011	0.0006716	6
	49	149	3.75601	23822.72	-142968.3	1	144939.5	-80.53976	-3.556809E-010	0.0006521	6
	50	154	3.004808	29825.16	-175065.4	1	177587.8	-80.33158	-4.150403E-010	0.0006864	6
	51	161	2.372217	38135.28	-217057.4	1	220382	-80.03529	-7.042702E-010	0.0007409	6
	52	165	1.878005	49190.33	-268139.3	1	272614	-79.60464	-7.282154E-010	0.0006406	6
	53	170	1.512097	62927.78	-326046.3	1	332063.3	-79.07608	-6.392852E-010	0.0007633	6
	54	175	1.201923	81792.09	-401255.8	1	409507.2	-78.47865	-5.179583E-010	0.0006462	6
	55	181	0.956633	107168.3	-491709.3	1	503252.5	-77.70464	-6.15498E-010	4.896699E-006	5
