EXPLAIN
TAG	EISPOT
TITLE	LABEL	Potentiostatic EIS	Test Identifier
DATE	LABEL	2/28/2021	Date
TIME	LABEL	1:19:34	Time
NOTES	NOTES	1	Notes...
	
PSTAT	PSTAT	REF3000-16137	Potentiostat
VDC	POTEN	0.00000E+000	T	DC Voltage (V)
FREQINIT	QUANT	3.00000E+005	Initial Freq. (Hz)
FREQFINAL	QUANT	1.00000E+000	Final Freq. (Hz)
PTSPERDEC	QUANT	1.00000E+001	Points/decade
VAC	QUANT	5.00000E+001	AC Voltage (mV rms)
AREA	QUANT	1.00000E+000	Sample Area (cm^2)
SPEED	SELECTOR	2	Optimize for:
ZGUESS	QUANT	1.00000E+003	Estimated Z (ohms)
EOC	QUANT	0	Open Circuit (V)
SEQUENCER	TOGGLE	TRUE	Run as Sequence
PSTATMODEL	IQUANT	5	Pstat Model
PSTATSECTION	LABEL	REF3000-16137	Pstat Section
PSTATSERIALNO	LABEL	16137	Pstat Serial Number
CTRLMODE	IQUANT	1	Control Mode
IESTAB	IQUANT	0	I/E Stability
CASPEED	IQUANT	1	Control Amp Speed
CONVENTION	IQUANT	1	Current Convention
ICHRANGE	IQUANT	2	Ich Range
ICHRANGEMODE	TOGGLE	F	Ich Auto Range
ICHOFFSETENABLE	TOGGLE	T	Ich Offset Enable
ICHOFFSET	QUANT	0	Ich Offset (V)
ICHFILTER	IQUANT	3	Ich Filter
VCHRANGE	IQUANT	2	Vch Range
VCHRANGEMODE	TOGGLE	F	Vch Auto Range
VCHOFFSETENABLE	TOGGLE	T	Vch Offset Enable
VCHOFFSET	QUANT	0	Vch Offset (V)
VCHFILTER	IQUANT	3	Vch Filter
ACHRANGE	IQUANT	2	Ach Range
ACHOFFSETENABLE	TOGGLE	F	Ach Offset Enable
ACHOFFSET	QUANT	0	Ach Offset (V)
ACHFILTER	IQUANT	3	Ach Filter
IERANGELOWERLIMIT	IQUANT	2	I/E Range Lower Limit
IERANGEMODE	TOGGLE	F	I/E AutoRange
IERANGE	IQUANT	11	I/E Range
POSFEEDENABLE	TOGGLE	F	Positive Feedback IR Comp
POSFEEDRESISTANCE	QUANT	0	Positive Feedback Resistance (ohm)
ACHSELECT	IQUANT	0	Ach Select
CABLEID	IQUANT	13	Cable ID
DCCALDATE	LABEL	7/31/2020	DC Calibration Date
ACCALDATE	LABEL	7/31/2020	AC Calibration Date
THERMOSELECT	IQUANT	1	Thermo Select
FRAMEWORKVERSION	QUANT	6.33	Framework Version
INSTRUMENTVERSION	LABEL	3.50	Instrument Version
COMPLIANCEVOLTAGE	IQUANT	0	Compliance Voltage
ZCURVE	TABLE
	Pt	Time	Freq	Zreal	Zimag	Zsig	Zmod	Zphz	Idc	Vdc	IERange
	#	s	Hz	ohm	ohm	V	ohm	°	A	V	#
	0	6	300046.9	55.5357	-6.047475	1	55.86399	-6.21465	5.271364E-005	-0.0019254	9
	1	10	238359.4	56.50309	-8.108442	1	57.08193	-8.166442	-4.563473E-005	0.0005113	9
	2	13	189328.1	57.6586	-10.33998	1	58.5784	-10.16684	6.043545E-005	-0.0022753	9
	3	15	150421.9	58.88614	-12.77507	1	60.25595	-12.24037	8.673985E-006	-0.0010854	9
	4	18	119484.4	60.39626	-15.45787	1	62.34303	-14.35616	2.929305E-005	0.0001279	9
	5	20	94921.88	62.3168	-18.24864	1	64.93378	-16.32196	3.379957E-006	0.0002732	9
	6	23	75421.88	64.25332	-21.61615	1	67.79194	-18.594	-3.170173E-006	0.0004813	9
	7	25	59859.37	66.50759	-25.41967	1	71.19985	-20.91721	-9.276706E-006	0.0006303	9
	8	28	47578.12	69.0285	-29.62324	1	75.11638	-23.22635	2.110219E-005	-0.0004941	9
	9	30	37828.12	71.77235	-34.39231	1	79.58707	-25.60309	-2.429177E-006	-0.000188	9
	10	33	30046.88	74.85051	-39.9023	1	84.82212	-28.06178	-1.683258E-005	0.0006367	9
	11	36	23859.38	77.98979	-46.53045	1	90.8157	-30.82125	1.547734E-005	-0.0005415	9
	12	38	18984.38	81.23945	-54.3791	1	97.7596	-33.79709	1.743101E-005	-0.0001701	9
	13	40	15046.87	84.64474	-64.20484	1	106.2403	-37.1811	-8.886934E-006	0.0006291	9
	14	42	11953.13	88.0403	-76.11506	1	116.3813	-40.84499	2.090885E-005	-0.0002471	9
	15	45	9515.62	91.82465	-90.88358	1	129.196	-44.70489	2.039334E-005	-0.0004057	9
	16	47	7546.875	95.8478	-109.6872	1	145.6643	-48.8521	-1.662474E-005	0.0006641	9
	17	49	5928.309	100.9412	-133.6585	1	167.4925	-52.93927	-1.674591E-005	0.0004942	9
	18	52	4733.456	106.2837	-161.826	1	193.6075	-56.70399	-1.468568E-005	0.0003838	9
	19	54	3796.875	111.8492	-195.8847	1	225.5683	-60.27385	-1.71204E-005	0.0004793	9
	20	56	2987.132	120.2839	-241.3166	1	269.6329	-63.50611	-2.329108E-006	0.0005309	9
	21	59	2390.625	129.7795	-293.2126	1	320.6499	-66.12523	-9.093283E-006	0.0007368	9
	22	61	1884.191	141.0938	-363.2921	1	389.7289	-68.77505	-2.835869E-006	0.000554	9
	23	63	1516.544	153.091	-437.9799	1	463.9647	-70.7335	8.894473E-007	0.0012637	8
	24	66	1193.986	170.3645	-542.121	1	568.2599	-72.55438	5.041158E-006	-0.0005203	8
	25	68	946.5144	190.9781	-667.4301	1	694.2158	-74.03209	-3.546628E-006	0.0018898	8
	26	70	751.7689	216.4984	-821.4708	1	849.5209	-75.23544	3.532382E-006	-0.0007192	8
	27	73	597.4265	246.0024	-1009.007	1	1038.562	-76.29823	3.453036E-006	-0.0006808	8
	28	75	477.4305	283.5208	-1236.049	1	1268.148	-77.08115	4.201553E-007	0.0006694	8
	29	77	376.6741	332.7133	-1530.534	1	1566.28	-77.73563	4.252676E-007	0.0006574	8
	30	80	298.2954	393.5664	-1888.577	1	1929.15	-78.22843	4.328187E-007	0.0006585	8
	31	82	237.7717	467.9478	-2316.131	1	2362.93	-78.5778	4.394224E-007	0.0006573	8
	32	85	189.0121	562.3881	-2847.02	1	2902.035	-78.8259	4.396522E-007	0.0006343	8
	33	87	150.2404	681.23	-3496.528	1	3562.272	-78.97515	4.350184E-007	0.0006397	8
	34	89	119.1737	833.8569	-4308.537	1	4388.485	-79.04662	4.214613E-008	0.0006317	7
	35	92	95.0169	1016.632	-5271.178	1	5368.32	-79.08362	3.864995E-008	0.0006302	7
	36	94	75.60484	1244.747	-6457.141	1	6576.021	-79.0889	3.831408E-008	0.0006312	7
	37	97	54.50582	1664.737	-8629.929	1	8789.028	-79.0816	4.171134E-008	0.0006086	7
	38	99	45.95588	1940.155	-10033.69	1	10219.54	-79.05611	4.09987E-008	0.0006411	7
	39	102	37.20238	2348.223	-12104.24	1	12329.92	-79.021	3.86069E-008	0.0006333	7
	40	104	30.04808	2849.451	-14622.89	1	14897.93	-78.97339	3.643427E-008	0.0006342	7
	41	106	23.91582	3502.213	-17912.24	1	18251.41	-78.93706	3.830727E-008	0.0006246	7
	42	109	18.60119	4463.152	-22418.09	1	22858.05	-78.74037	4.264805E-008	0.0006248	7
	43	111	15.02404	5484.876	-27089.33	1	27639.02	-78.55385	4.047479E-008	0.000621	7
	44	113	12.01923	6903.352	-33028.21	1	33741.95	-78.19435	3.921809E-008	0.0006355	7
	45	116	9.450605	8917.029	-40926.24	1	41886.4	-77.70847	4.069902E-008	0.0006238	7
	46	118	7.512019	11512.37	-50041.16	1	51348.34	-77.04408	3.324386E-009	0.0006905	6
	47	121	5.978954	14947.69	-61063.82	1	62866.71	-76.24516	2.052988E-009	0.0006785	6
	48	125	4.734848	19732.89	-74681.13	1	77244.15	-75.19907	2.670627E-009	0.0006841	6
	49	128	3.75601	26098.39	-90846.59	1	94521.05	-73.97171	2.822075E-009	0.0006823	6
	50	134	3.004808	34328.76	-109198.9	1	114467.8	-72.54847	1.50844E-009	0.0007176	6
	51	140	2.372217	45939.47	-131940.8	1	139709.7	-70.80277	2.56734E-009	0.0007149	6
	52	144	1.878005	61588.52	-157667.8	1	169269.8	-68.66328	2.091845E-009	0.0006493	6
	53	149	1.512097	80161.55	-184263.6	1	200945.1	-66.48916	1.439847E-009	0.0007691	6
	54	154	1.201923	105191.9	-215519.6	1	239820.8	-63.98368	2.667645E-009	0.0006478	6
	55	161	0.956633	135659.9	-248357.5	1	282993	-61.35538	-3.023227E-010	3.607159E-005	6
