EXPLAIN
TAG	EISPOT
TITLE	LABEL	Potentiostatic EIS	Test Identifier
DATE	LABEL	2/28/2021	Date
TIME	LABEL	1:13:54	Time
NOTES	NOTES	1	Notes...
	
PSTAT	PSTAT	REF3000-16137	Potentiostat
VDC	POTEN	0.00000E+000	T	DC Voltage (V)
FREQINIT	QUANT	3.00000E+005	Initial Freq. (Hz)
FREQFINAL	QUANT	1.00000E+000	Final Freq. (Hz)
PTSPERDEC	QUANT	1.00000E+001	Points/decade
VAC	QUANT	5.00000E+001	AC Voltage (mV rms)
AREA	QUANT	1.00000E+000	Sample Area (cm^2)
SPEED	SELECTOR	2	Optimize for:
ZGUESS	QUANT	1.00000E+003	Estimated Z (ohms)
EOC	QUANT	0	Open Circuit (V)
SEQUENCER	TOGGLE	TRUE	Run as Sequence
PSTATMODEL	IQUANT	5	Pstat Model
PSTATSECTION	LABEL	REF3000-16137	Pstat Section
PSTATSERIALNO	LABEL	16137	Pstat Serial Number
CTRLMODE	IQUANT	1	Control Mode
IESTAB	IQUANT	0	I/E Stability
CASPEED	IQUANT	1	Control Amp Speed
CONVENTION	IQUANT	1	Current Convention
ICHRANGE	IQUANT	2	Ich Range
ICHRANGEMODE	TOGGLE	F	Ich Auto Range
ICHOFFSETENABLE	TOGGLE	T	Ich Offset Enable
ICHOFFSET	QUANT	0	Ich Offset (V)
ICHFILTER	IQUANT	3	Ich Filter
VCHRANGE	IQUANT	2	Vch Range
VCHRANGEMODE	TOGGLE	F	Vch Auto Range
VCHOFFSETENABLE	TOGGLE	T	Vch Offset Enable
VCHOFFSET	QUANT	0	Vch Offset (V)
VCHFILTER	IQUANT	3	Vch Filter
ACHRANGE	IQUANT	2	Ach Range
ACHOFFSETENABLE	TOGGLE	F	Ach Offset Enable
ACHOFFSET	QUANT	0	Ach Offset (V)
ACHFILTER	IQUANT	3	Ach Filter
IERANGELOWERLIMIT	IQUANT	2	I/E Range Lower Limit
IERANGEMODE	TOGGLE	F	I/E AutoRange
IERANGE	IQUANT	11	I/E Range
POSFEEDENABLE	TOGGLE	F	Positive Feedback IR Comp
POSFEEDRESISTANCE	QUANT	0	Positive Feedback Resistance (ohm)
ACHSELECT	IQUANT	0	Ach Select
CABLEID	IQUANT	13	Cable ID
DCCALDATE	LABEL	7/31/2020	DC Calibration Date
ACCALDATE	LABEL	7/31/2020	AC Calibration Date
THERMOSELECT	IQUANT	1	Thermo Select
FRAMEWORKVERSION	QUANT	6.33	Framework Version
INSTRUMENTVERSION	LABEL	3.50	Instrument Version
COMPLIANCEVOLTAGE	IQUANT	0	Compliance Voltage
ZCURVE	TABLE
	Pt	Time	Freq	Zreal	Zimag	Zsig	Zmod	Zphz	Idc	Vdc	IERange
	#	s	Hz	ohm	ohm	V	ohm	°	A	V	#
	0	7	300046.9	46.67257	-5.508727	1	46.99654	-6.731433	4.382375E-005	-0.0010508	9
	1	10	238359.4	47.60548	-7.53603	1	48.19828	-8.995377	1.341414E-005	1.025018E-005	9
	2	13	189328.1	48.60629	-9.64206	1	49.55341	-11.22014	2.772409E-006	0.0003864	9
	3	16	150421.9	49.93556	-12.05371	1	51.36975	-13.57075	1.037015E-005	-0.0010572	9
	4	18	119484.4	51.29646	-14.30454	1	53.25361	-15.58167	5.581856E-005	-0.0018828	9
	5	21	94921.88	52.99263	-16.85188	1	55.6076	-17.64088	-1.360602E-005	0.0003528	9
	6	23	75421.88	54.78593	-19.94229	1	58.3026	-20.0017	1.884818E-005	-0.000469	9
	7	26	59859.37	56.85277	-23.42194	1	61.48841	-22.39046	-1.526618E-005	0.0006053	9
	8	28	47578.12	59.1198	-27.24835	1	65.09703	-24.745	1.428318E-005	-0.0004935	9
	9	31	37828.12	61.61041	-31.70112	1	69.28783	-27.22771	-2.834887E-006	0.0004585	9
	10	33	30046.88	64.17599	-36.87083	1	74.01362	-29.87852	-1.271678E-005	0.0006425	9
	11	36	23859.38	66.8344	-43.05372	1	79.50132	-32.78903	1.380888E-005	-0.0004672	9
	12	38	18984.38	69.62205	-50.48555	1	86.00011	-35.94727	1.972949E-005	-0.0003878	9
	13	41	15046.87	72.50773	-59.82397	1	94.00148	-39.52503	1.383825E-005	-0.0005036	9
	14	43	11953.13	75.54128	-71.40071	1	103.9449	-43.38593	1.938639E-005	-0.0003893	9
	15	45	9515.62	78.88327	-85.67812	1	116.4616	-47.36444	1.970738E-005	-0.0002308	9
	16	48	7546.875	82.70927	-103.6139	1	132.577	-51.40155	1.184404E-005	0.0001071	9
	17	50	5928.309	87.47109	-126.8396	1	154.0762	-55.4091	1.415736E-005	-0.0004985	9
	18	52	4733.456	92.35097	-153.7999	1	179.3965	-59.01678	1.986901E-005	-0.0004734	9
	19	54	3796.875	98.7714	-185.9743	1	210.576	-62.02712	-9.217377E-006	0.0001303	9
	20	57	2987.132	105.9225	-229.9762	1	253.1968	-65.27013	4.520491E-006	0.0003002	9
	21	59	2390.625	115.2254	-279.4587	1	302.2815	-67.59284	2.009225E-005	-0.0004857	9
	22	61	1884.191	125.2984	-345.7324	1	367.7371	-70.07876	1.789956E-005	-0.0005077	9
	23	64	1516.544	138.5051	-419.5099	1	441.7831	-71.72888	4.824415E-006	0.0002991	9
	24	66	1193.986	155.2351	-515.9367	1	538.7844	-73.25451	1.078486E-006	-5.654391E-005	8
	25	69	946.5144	175.1164	-635.5771	1	659.2602	-74.59587	2.405488E-006	0.0006637	8
	26	71	751.7689	200.6262	-780.5695	1	805.9402	-75.58554	3.201428E-006	-0.0005156	8
	27	73	597.4265	231.7726	-959.081	1	986.689	-76.41431	-3.17586E-006	0.0015798	8
	28	75	477.4305	269.4259	-1171.963	1	1202.534	-77.05306	4.654641E-007	0.0006691	8
	29	78	376.6741	319.2469	-1448.876	1	1483.631	-77.57394	4.710018E-007	0.0006559	8
	30	80	298.2954	380.7109	-1784.468	1	1824.628	-77.95667	4.715135E-007	0.0006606	8
	31	82	237.7717	455.2739	-2184.104	1	2231.05	-78.22537	4.660163E-007	0.0006592	8
	32	85	189.0121	549.114	-2678.474	1	2734.181	-78.41432	4.759387E-007	0.0006637	8
	33	87	150.2404	665.424	-3283.626	1	3350.372	-78.5442	4.774402E-007	0.0006605	8
	34	90	119.1737	810.6545	-4030.126	1	4110.848	-78.6268	4.686117E-007	0.0006631	8
	35	92	95.0169	987.672	-4932.646	1	5030.555	-78.6773	4.358383E-008	0.0006324	7
	36	95	75.60484	1202.831	-6035.652	1	6154.34	-78.72932	4.222593E-008	0.0006331	7
	37	97	54.50582	1600.175	-8058.46	1	8215.799	-78.76883	4.191835E-008	0.000632	7
	38	100	45.95588	1857.361	-9372.386	1	9554.65	-78.79071	4.663873E-008	0.000633	7
	39	102	37.20238	2240.226	-11295.8	1	11515.8	-78.78244	4.227402E-008	0.0006342	7
	40	104	30.04808	2722.958	-13652.39	1	13921.29	-78.72041	4.238114E-008	0.0006285	7
	41	107	23.91582	3366.884	-16717.86	1	17053.53	-78.61327	4.140581E-008	0.000631	7
	42	109	18.60119	4339.478	-20949.77	1	21394.48	-78.29741	3.944871E-008	0.0006303	7
	43	111	15.02404	5375.348	-25299.38	1	25864.13	-78.00477	4.403222E-008	0.0006275	7
	44	114	12.01923	6840.265	-30838.62	1	31588.12	-77.49379	4.56902E-008	0.0006299	7
	45	116	9.450605	8920.405	-38140.33	1	39169.61	-76.83607	4.388985E-008	0.000626	7
	46	119	7.512019	11641.96	-46510.52	1	47945.42	-75.94714	3.035928E-009	0.0006934	6
	47	121	5.978954	15243.47	-56551.91	1	58570.32	-74.91455	2.491621E-009	0.0006851	6
	48	125	4.734848	20217.13	-68778.73	1	71688.54	-73.61959	-6.73319E-010	0.0006604	6
	49	128	3.75601	26952.1	-83145.81	1	87405.05	-72.03966	2.360031E-009	0.0006956	6
	50	134	3.004808	35481.64	-99174.5	1	105330.6	-70.31433	1.668949E-009	0.0006761	6
	51	140	2.372217	47541.06	-118460.5	1	127644.2	-68.13321	2.108229E-009	0.0006378	6
	52	145	1.878005	63062.78	-140098.6	1	153637.7	-65.76599	3.218258E-009	0.0006747	6
	53	149	1.512097	80931.55	-161505.3	1	180648.5	-63.38419	2.159507E-009	0.0007447	6
	54	155	1.201923	104544	-185345.4	1	212796.5	-60.57483	2.582436E-009	0.0006871	6
	55	161	0.956633	132047.6	-209384.6	1	247544.9	-57.76257	-1.036713E-009	7.389635E-006	6
