EXPLAIN
TAG	EISPOT
TITLE	LABEL	Potentiostatic EIS	Test Identifier
DATE	LABEL	2/28/2021	Date
TIME	LABEL	3:43:53	Time
NOTES	NOTES	1	Notes...
	
PSTAT	PSTAT	REF3000-16137	Potentiostat
VDC	POTEN	0.00000E+000	T	DC Voltage (V)
FREQINIT	QUANT	3.00000E+005	Initial Freq. (Hz)
FREQFINAL	QUANT	1.00000E+000	Final Freq. (Hz)
PTSPERDEC	QUANT	1.00000E+001	Points/decade
VAC	QUANT	5.00000E+001	AC Voltage (mV rms)
AREA	QUANT	1.00000E+000	Sample Area (cm^2)
SPEED	SELECTOR	2	Optimize for:
ZGUESS	QUANT	1.00000E+003	Estimated Z (ohms)
EOC	QUANT	0	Open Circuit (V)
SEQUENCER	TOGGLE	TRUE	Run as Sequence
PSTATMODEL	IQUANT	5	Pstat Model
PSTATSECTION	LABEL	REF3000-16137	Pstat Section
PSTATSERIALNO	LABEL	16137	Pstat Serial Number
CTRLMODE	IQUANT	1	Control Mode
IESTAB	IQUANT	0	I/E Stability
CASPEED	IQUANT	1	Control Amp Speed
CONVENTION	IQUANT	1	Current Convention
ICHRANGE	IQUANT	2	Ich Range
ICHRANGEMODE	TOGGLE	F	Ich Auto Range
ICHOFFSETENABLE	TOGGLE	T	Ich Offset Enable
ICHOFFSET	QUANT	0	Ich Offset (V)
ICHFILTER	IQUANT	3	Ich Filter
VCHRANGE	IQUANT	2	Vch Range
VCHRANGEMODE	TOGGLE	F	Vch Auto Range
VCHOFFSETENABLE	TOGGLE	T	Vch Offset Enable
VCHOFFSET	QUANT	0	Vch Offset (V)
VCHFILTER	IQUANT	3	Vch Filter
ACHRANGE	IQUANT	2	Ach Range
ACHOFFSETENABLE	TOGGLE	F	Ach Offset Enable
ACHOFFSET	QUANT	0	Ach Offset (V)
ACHFILTER	IQUANT	3	Ach Filter
IERANGELOWERLIMIT	IQUANT	2	I/E Range Lower Limit
IERANGEMODE	TOGGLE	F	I/E AutoRange
IERANGE	IQUANT	11	I/E Range
POSFEEDENABLE	TOGGLE	F	Positive Feedback IR Comp
POSFEEDRESISTANCE	QUANT	0	Positive Feedback Resistance (ohm)
ACHSELECT	IQUANT	0	Ach Select
CABLEID	IQUANT	13	Cable ID
DCCALDATE	LABEL	7/31/2020	DC Calibration Date
ACCALDATE	LABEL	7/31/2020	AC Calibration Date
THERMOSELECT	IQUANT	1	Thermo Select
FRAMEWORKVERSION	QUANT	6.33	Framework Version
INSTRUMENTVERSION	LABEL	3.50	Instrument Version
COMPLIANCEVOLTAGE	IQUANT	0	Compliance Voltage
ZCURVE	TABLE
	Pt	Time	Freq	Zreal	Zimag	Zsig	Zmod	Zphz	Idc	Vdc	IERange
	#	s	Hz	ohm	ohm	V	ohm	°	A	V	#
	0	6	300046.9	24.4278	-4.635324	1	24.86371	-10.74448	3.873405E-005	-0.0000987	11
	1	11	238359.4	25.21299	-5.751757	1	25.86073	-12.85079	-9.255946E-006	0.0005742	10
	2	16	189328.1	25.99539	-7.272944	1	26.99363	-15.63046	2.706247E-006	0.0006784	10
	3	19	150421.9	26.94779	-8.825305	1	28.35612	-18.13344	2.309658E-005	0.0008481	10
	4	22	119484.4	27.92741	-10.51868	1	29.84264	-20.63856	-2.971605E-005	0.000558	10
	5	25	94921.88	29.07809	-12.37244	1	31.60083	-23.04927	-1.625387E-005	0.0006422	10
	6	27	75421.88	30.36429	-14.42378	1	33.616	-25.40886	6.420816E-006	0.000603	10
	7	30	59859.37	31.66133	-16.78403	1	35.83495	-27.92857	2.759129E-005	0.0006874	10
	8	32	47578.12	33.10566	-19.33894	1	38.34031	-30.29169	1.24425E-005	-0.0003427	9
	9	35	37828.12	34.51705	-22.66237	1	41.29176	-33.28714	1.271147E-005	-0.000163	9
	10	37	30046.88	35.99691	-26.65833	1	44.79335	-36.52264	-1.113592E-005	0.0003673	9
	11	40	23859.38	37.61313	-31.6376	1	49.14962	-40.06826	-1.295842E-005	0.0004804	9
	12	42	18984.38	39.40753	-37.58912	1	54.46003	-43.64711	-1.070999E-005	0.0003776	9
	13	44	15046.87	41.46491	-45.14341	1	61.29654	-47.43206	1.220612E-005	-0.0003321	9
	14	47	11953.13	43.78742	-54.41629	1	69.84605	-51.17724	1.307113E-005	-0.0003377	9
	15	49	9515.62	46.64402	-65.46851	1	80.38526	-54.53146	-1.082599E-005	0.0003821	9
	16	51	7546.875	49.92854	-79.58247	1	93.94801	-57.89661	-2.438475E-006	0.0002839	9
	17	54	5928.309	54.31093	-97.3505	1	111.4756	-60.84327	-1.101817E-005	0.000478	9
	18	56	4733.456	59.23602	-117.6729	1	131.7414	-63.27951	5.532598E-006	-0.0002363	9
	19	58	3796.875	64.97674	-141.8582	1	156.0312	-65.39032	1.110621E-005	-2.742321E-005	9
	20	61	2987.132	72.93812	-173.6584	1	188.354	-67.21716	-1.100246E-005	0.0002642	9
	21	63	2390.625	81.07717	-210.8181	1	225.8711	-68.96407	-6.542202E-006	0.000397	9
	22	65	1884.191	93.24615	-257.8477	1	274.1903	-70.11835	8.987941E-006	4.511371E-007	9
	23	68	1516.544	105.9583	-310.9807	1	328.5363	-71.18484	-4.92081E-006	0.0004006	9
	24	70	1193.986	123.2799	-381.2055	1	400.644	-72.07906	9.233067E-006	2.310087E-006	9
	25	72	946.5144	146.3941	-462.6982	1	485.305	-72.44303	7.034233E-007	0.0006353	8
	26	75	751.7689	174.5285	-563.2958	1	589.7138	-72.78521	2.53168E-006	7.864471E-005	8
	27	77	597.4265	211.257	-685.9861	1	717.7789	-72.88321	1.244511E-006	0.0001356	8
	28	79	477.4305	257.6462	-830.6484	1	869.6886	-72.76743	-4.792464E-008	0.0006373	8
	29	82	376.6741	323.0348	-1014.925	1	1065.094	-72.34454	-7.738327E-008	0.0006519	8
	30	84	298.2954	409.4206	-1233.382	1	1299.56	-71.63644	-7.043025E-008	0.0006599	8
	31	86	237.7717	522.2578	-1485.467	1	1574.6	-70.62944	-6.977148E-008	0.0006547	8
	32	89	189.0121	675.4322	-1784.57	1	1908.114	-69.26912	-3.851168E-008	0.0006207	8
	33	91	150.2404	881.2008	-2128.515	1	2303.713	-67.51054	-6.439222E-008	0.0006472	8
	34	94	119.1737	1156.813	-2518.988	1	2771.916	-65.33364	-7.508155E-008	0.0006512	8
	35	96	95.0169	1506.161	-2940.248	1	3303.57	-62.87592	-6.456762E-008	0.0006482	8
	36	99	75.60484	1958.949	-3362.356	1	3891.391	-59.77441	-6.545442E-008	0.0006499	8
	37	101	54.50582	2782.131	-3973.784	1	4850.898	-55.00332	-5.962225E-007	0.0006214	7
	38	104	45.95588	3281.196	-4259.053	1	5376.409	-52.38916	-5.892514E-007	0.0006346	7
	39	106	37.20238	3945.501	-4569.765	1	6037.361	-49.19292	-5.943183E-007	0.0005983	7
	40	109	30.04808	4658.253	-4834.062	1	6713.232	-46.06106	-5.882526E-007	0.0006287	7
	41	111	23.91582	5431.843	-5068.303	1	7429.173	-43.01707	-5.845943E-007	0.0006271	7
	42	113	18.60119	6272.41	-5314.225	1	8220.956	-40.27254	-6.194432E-007	0.000637	7
	43	116	15.02404	6992.107	-5523.33	1	8910.485	-38.30654	-5.971572E-007	0.0005967	7
	44	118	12.01923	7737.065	-5771.853	1	9652.8	-36.72295	-5.814313E-007	0.0006155	7
	45	120	9.450605	8568.343	-6079.356	1	10505.95	-35.35622	-5.924372E-007	0.0006232	7
	46	123	7.512019	9436.802	-6423.245	1	11415.4	-34.24152	-5.759616E-007	0.0006202	7
	47	126	5.978954	10367.43	-6789.395	1	12392.72	-33.21987	-5.804056E-007	0.0006338	7
	48	129	4.734848	11410.05	-7149.116	1	13464.74	-32.06974	-5.843812E-007	0.0006174	7
	49	132	3.75601	12553.51	-7493.032	1	14619.71	-30.83245	-5.637202E-007	0.0006622	7
	50	135	3.004808	13739.88	-7766.967	1	15783.23	-29.47888	-5.590032E-007	0.0006079	7
	51	139	2.372217	15091.03	-7963.407	1	17063.27	-27.82023	-5.74035E-007	0.0005804	7
	52	143	1.878005	16436.82	-8056.564	1	18305.12	-26.11194	-5.639126E-007	0.0006469	7
	53	148	1.512097	17685.65	-8041.702	1	19428.11	-24.45139	-5.621259E-007	0.0005369	7
	54	154	1.201923	19036.76	-7955.611	1	20632.26	-22.68043	-5.641141E-007	0.0006639	7
	55	160	0.956633	20286.42	-7751.666	1	21716.98	-20.91241	-5.891619E-007	-2.474175E-006	7
