EXPLAIN
TAG	EISPOT
TITLE	LABEL	Potentiostatic EIS	Test Identifier
DATE	LABEL	2/28/2021	Date
TIME	LABEL	2:33:17	Time
NOTES	NOTES	1	Notes...
	
PSTAT	PSTAT	REF3000-16137	Potentiostat
VDC	POTEN	0.00000E+000	T	DC Voltage (V)
FREQINIT	QUANT	3.00000E+005	Initial Freq. (Hz)
FREQFINAL	QUANT	1.00000E+000	Final Freq. (Hz)
PTSPERDEC	QUANT	1.00000E+001	Points/decade
VAC	QUANT	5.00000E+001	AC Voltage (mV rms)
AREA	QUANT	1.00000E+000	Sample Area (cm^2)
SPEED	SELECTOR	2	Optimize for:
ZGUESS	QUANT	1.00000E+003	Estimated Z (ohms)
EOC	QUANT	0	Open Circuit (V)
SEQUENCER	TOGGLE	TRUE	Run as Sequence
PSTATMODEL	IQUANT	5	Pstat Model
PSTATSECTION	LABEL	REF3000-16137	Pstat Section
PSTATSERIALNO	LABEL	16137	Pstat Serial Number
CTRLMODE	IQUANT	1	Control Mode
IESTAB	IQUANT	0	I/E Stability
CASPEED	IQUANT	1	Control Amp Speed
CONVENTION	IQUANT	1	Current Convention
ICHRANGE	IQUANT	2	Ich Range
ICHRANGEMODE	TOGGLE	F	Ich Auto Range
ICHOFFSETENABLE	TOGGLE	T	Ich Offset Enable
ICHOFFSET	QUANT	0	Ich Offset (V)
ICHFILTER	IQUANT	3	Ich Filter
VCHRANGE	IQUANT	2	Vch Range
VCHRANGEMODE	TOGGLE	F	Vch Auto Range
VCHOFFSETENABLE	TOGGLE	T	Vch Offset Enable
VCHOFFSET	QUANT	0	Vch Offset (V)
VCHFILTER	IQUANT	3	Vch Filter
ACHRANGE	IQUANT	2	Ach Range
ACHOFFSETENABLE	TOGGLE	F	Ach Offset Enable
ACHOFFSET	QUANT	0	Ach Offset (V)
ACHFILTER	IQUANT	3	Ach Filter
IERANGELOWERLIMIT	IQUANT	2	I/E Range Lower Limit
IERANGEMODE	TOGGLE	F	I/E AutoRange
IERANGE	IQUANT	11	I/E Range
POSFEEDENABLE	TOGGLE	F	Positive Feedback IR Comp
POSFEEDRESISTANCE	QUANT	0	Positive Feedback Resistance (ohm)
ACHSELECT	IQUANT	0	Ach Select
CABLEID	IQUANT	13	Cable ID
DCCALDATE	LABEL	7/31/2020	DC Calibration Date
ACCALDATE	LABEL	7/31/2020	AC Calibration Date
THERMOSELECT	IQUANT	1	Thermo Select
FRAMEWORKVERSION	QUANT	6.33	Framework Version
INSTRUMENTVERSION	LABEL	3.50	Instrument Version
COMPLIANCEVOLTAGE	IQUANT	0	Compliance Voltage
ZCURVE	TABLE
	Pt	Time	Freq	Zreal	Zimag	Zsig	Zmod	Zphz	Idc	Vdc	IERange
	#	s	Hz	ohm	ohm	V	ohm	°	A	V	#
	0	14	300046.9	236.2322	-4785.975	1	4791.801	-87.17422	3.167556E-007	0.0015181	9
	1	28	238359.4	432.575	-5812.612	1	5828.686	-85.74389	-2.08167E-005	0.0014878	9
	2	53	189328.1	1093.899	-7487.061	1	7566.551	-81.6876	-2.920699E-005	-0.0010169	9
	3	64	150421.9	1225.151	-9229.893	1	9310.849	-82.43892	1.880428E-005	-0.0019991	9
	4	78	119484.4	1898.126	-11368.31	1	11525.68	-80.52097	4.182458E-005	-0.0187581	8
	5	87	94921.88	2522.351	-14190.46	1	14412.89	-79.92096	-2.483507E-005	0.0110465	8
	6	96	75421.88	3600.517	-17421.37	1	17789.54	-78.32294	2.332175E-005	-0.0027438	8
	7	104	59859.37	5324.746	-21576.14	1	22223.47	-76.13706	-2.383153E-005	0.0051999	8
	8	113	47578.12	10929.68	-26871.56	1	29009.29	-67.86656	1.355186E-006	-0.0201318	7
	9	120	37828.12	11602.9	-30042.21	1	32205	-68.88245	2.621622E-005	-0.0089019	8
	10	129	30046.88	14631.96	-38768.61	1	41437.89	-69.32261	-1.984391E-006	0.0076583	8
	11	138	23859.38	25216.67	-45013.72	1	51595.69	-60.74246	6.941007E-006	-0.0270152	7
	12	144	18984.38	30338.58	-52911.31	1	60992.1	-60.17066	2.266545E-005	-0.0096618	8
	13	150	15046.87	43456.2	-55427.27	1	70431.7	-51.90277	1.753127E-005	0.0003644	8
	14	157	11953.13	58455.66	-60377.04	1	84038.39	-45.92632	-5.357562E-006	0.0266353	7
	15	162	9515.62	72020.14	-65371.46	1	97264.2	-42.22949	-3.310904E-006	-0.0053099	7
	16	167	7546.875	86252.79	-65274.73	1	108168.1	-37.11785	-3.331108E-006	-0.0056487	7
	17	173	5928.309	99664.2	-68748.11	1	121075.4	-34.59781	6.903771E-006	-0.0269764	7
	18	178	4733.456	122667.5	-78932.95	1	145868.8	-32.7601	-1.196064E-005	0.0102503	8
	19	186	3796.875	123091.1	-50907.62	1	133202.8	-22.46885	-6.720094E-006	0.011992	7
	20	192	2987.132	131796.7	-43768.29	1	138874.1	-18.37078	7.600215E-006	-0.0183706	7
	21	198	2390.625	146616	-42944.28	1	152775.8	-16.32548	4.937445E-006	-0.0005563	7
	22	204	1884.191	145958.1	-46464.45	1	153175.5	-17.6584	-3.759796E-006	0.0254222	7
	23	211	1516.544	161751.7	-26069.83	1	163839	-9.155736	7.768033E-007	-0.0229359	6
	24	216	1193.986	164807.7	-22569.06	1	166345.8	-7.797684	7.759179E-007	-0.0229544	6
	25	221	946.5144	166604.2	-17830.14	1	167555.6	-6.108598	7.249685E-007	-0.0155295	6
	26	223	751.7689	167793.5	-16413.52	1	168594.4	-5.586883	-7.400624E-007	0.0177593	6
	27	226	597.4265	169318.9	-19254.88	1	170410.2	-6.487781	7.28104E-007	-0.0157626	6
	28	228	477.4305	176636.5	-17451.61	1	177496.5	-5.642485	-6.881201E-009	0.0006143	6
	29	231	376.6741	179209.2	-17968.95	1	180107.8	-5.725795	-7.398653E-009	0.0006993	6
	30	233	298.2954	182216.7	-19118.07	1	183216.8	-5.989527	-6.469337E-009	0.0006573	6
	31	235	237.7717	184823.1	-20849.89	1	185995.4	-6.436325	-6.671911E-009	0.0006905	6
	32	238	189.0121	188192.2	-23285.74	1	189627.4	-7.053573	-6.64408E-009	0.0006758	6
	33	240	150.2404	191835	-26447.09	1	193649.5	-7.849529	-7.068611E-009	0.0007072	6
	34	243	119.1737	196254	-31220.1	1	198721.8	-9.038876	-7.425531E-009	0.0006692	6
	35	245	95.0169	200290.1	-35347.36	1	203385.2	-10.00855	-7.697858E-009	0.0007171	6
	36	248	75.60484	205390.6	-41695.08	1	209580	-11.47533	-6.428799E-009	0.0006511	6
	37	251	54.50582	212725.3	-53133.95	1	219260.7	-14.02423	-6.965604E-009	0.0006965	6
	38	253	45.95588	218771.3	-57837.05	1	226287.4	-14.80862	-6.048519E-009	0.0006247	6
	39	255	37.20238	225696.2	-66962.16	1	235420.3	-16.52518	-6.762289E-009	0.0006954	6
	40	258	30.04808	233860.5	-77678.7	1	246423.8	-18.37434	-6.644736E-009	0.0006332	6
	41	261	23.91582	242888.3	-91427.53	1	259525.9	-20.62724	-7.286669E-009	0.0006314	6
	42	263	18.60119	254519.1	-108587.2	1	276714.9	-23.10487	-6.83532E-009	0.0006307	6
	43	265	15.02404	266073.7	-124089.1	1	293586.9	-25.00299	-6.56427E-009	0.0007191	6
	44	268	12.01923	278345.3	-143764.1	1	313279.8	-27.31615	-6.59574E-009	0.0007149	6
	45	270	9.450605	292416.4	-169440.5	1	337960.7	-30.09012	-6.857974E-009	0.0006645	6
	46	273	7.512019	307244.4	-198979.5	1	366049.1	-32.92815	-6.421538E-009	0.0006331	6
	47	276	5.978954	324414.5	-234273.3	1	400160.9	-35.83464	-8.502778E-010	0.0006402	5
	48	280	4.734848	341704.4	-279278.1	1	441314.1	-39.25944	-5.46258E-010	0.0006997	5
	49	284	3.75601	360753.6	-334794.9	1	492169.5	-42.86265	-5.98441E-010	0.0006245	5
	50	289	3.004808	382210.3	-401469.2	1	554312.4	-46.40776	-7.943387E-010	0.0007024	5
	51	296	2.372217	405927.7	-488632	1	635246.9	-50.28212	-8.298816E-010	0.0005891	5
	52	300	1.878005	430043.4	-598750	1	737183.1	-54.31276	-6.834711E-010	0.0006428	5
	53	305	1.512097	455318.7	-723210.9	1	854604.7	-57.80633	-8.091718E-010	0.0006689	5
	54	310	1.201923	489057.6	-889584.1	1	1015154	-61.19977	-7.051313E-010	0.0006685	5
	55	316	0.956633	527392.9	-1092588	1	1213216	-64.23338	-8.327071E-010	1.478227E-005	5
