EXPLAIN
TAG	EISPOT
TITLE	LABEL	Potentiostatic EIS	Test Identifier
DATE	LABEL	2/28/2021	Date
TIME	LABEL	3:57:54	Time
NOTES	NOTES	1	Notes...
	
PSTAT	PSTAT	REF3000-16137	Potentiostat
VDC	POTEN	0.00000E+000	T	DC Voltage (V)
FREQINIT	QUANT	3.00000E+005	Initial Freq. (Hz)
FREQFINAL	QUANT	1.00000E+000	Final Freq. (Hz)
PTSPERDEC	QUANT	1.00000E+001	Points/decade
VAC	QUANT	5.00000E+001	AC Voltage (mV rms)
AREA	QUANT	1.00000E+000	Sample Area (cm^2)
SPEED	SELECTOR	2	Optimize for:
ZGUESS	QUANT	1.00000E+003	Estimated Z (ohms)
EOC	QUANT	0	Open Circuit (V)
SEQUENCER	TOGGLE	TRUE	Run as Sequence
PSTATMODEL	IQUANT	5	Pstat Model
PSTATSECTION	LABEL	REF3000-16137	Pstat Section
PSTATSERIALNO	LABEL	16137	Pstat Serial Number
CTRLMODE	IQUANT	1	Control Mode
IESTAB	IQUANT	0	I/E Stability
CASPEED	IQUANT	1	Control Amp Speed
CONVENTION	IQUANT	1	Current Convention
ICHRANGE	IQUANT	2	Ich Range
ICHRANGEMODE	TOGGLE	F	Ich Auto Range
ICHOFFSETENABLE	TOGGLE	T	Ich Offset Enable
ICHOFFSET	QUANT	0	Ich Offset (V)
ICHFILTER	IQUANT	3	Ich Filter
VCHRANGE	IQUANT	2	Vch Range
VCHRANGEMODE	TOGGLE	F	Vch Auto Range
VCHOFFSETENABLE	TOGGLE	T	Vch Offset Enable
VCHOFFSET	QUANT	0	Vch Offset (V)
VCHFILTER	IQUANT	3	Vch Filter
ACHRANGE	IQUANT	2	Ach Range
ACHOFFSETENABLE	TOGGLE	F	Ach Offset Enable
ACHOFFSET	QUANT	0	Ach Offset (V)
ACHFILTER	IQUANT	3	Ach Filter
IERANGELOWERLIMIT	IQUANT	2	I/E Range Lower Limit
IERANGEMODE	TOGGLE	F	I/E AutoRange
IERANGE	IQUANT	11	I/E Range
POSFEEDENABLE	TOGGLE	F	Positive Feedback IR Comp
POSFEEDRESISTANCE	QUANT	0	Positive Feedback Resistance (ohm)
ACHSELECT	IQUANT	0	Ach Select
CABLEID	IQUANT	13	Cable ID
DCCALDATE	LABEL	7/31/2020	DC Calibration Date
ACCALDATE	LABEL	7/31/2020	AC Calibration Date
THERMOSELECT	IQUANT	1	Thermo Select
FRAMEWORKVERSION	QUANT	6.33	Framework Version
INSTRUMENTVERSION	LABEL	3.50	Instrument Version
COMPLIANCEVOLTAGE	IQUANT	0	Compliance Voltage
ZCURVE	TABLE
	Pt	Time	Freq	Zreal	Zimag	Zsig	Zmod	Zphz	Idc	Vdc	IERange
	#	s	Hz	ohm	ohm	V	ohm	°	A	V	#
	0	7	300046.9	24.34645	-4.772522	1	24.8098	-11.0908	7.120082E-005	-0.000295	11
	1	11	238359.4	25.15256	-5.881611	1	25.83108	-13.16141	3.050909E-005	0.0006962	10
	2	17	189328.1	25.94958	-7.373177	1	26.97674	-15.86169	-5.915459E-006	0.0004367	10
	3	21	150421.9	26.90676	-8.960184	1	28.35946	-18.4182	7.970673E-005	0.0003812	10
	4	23	119484.4	27.95027	-10.66932	1	29.91742	-20.8931	-0.0001037	0.0006616	10
	5	26	94921.88	29.1093	-12.52503	1	31.68955	-23.28105	-1.868569E-005	0.0007372	10
	6	28	75421.88	30.36854	-14.60331	1	33.69725	-25.68148	-2.495644E-006	0.0007177	10
	7	31	59859.37	31.71172	-16.96776	1	35.96579	-28.14958	-2.513806E-005	0.000701	10
	8	33	47578.12	33.13625	-19.6004	1	38.49917	-30.60471	1.538671E-005	-0.0003402	9
	9	36	37828.12	34.5625	-22.93456	1	41.47963	-33.56697	9.855488E-006	2.217352E-005	9
	10	38	30046.88	36.0752	-27.03612	1	45.08184	-36.84927	-7.783426E-006	0.0001378	9
	11	41	23859.38	37.71899	-32.03912	1	49.48967	-40.34511	1.42732E-005	-0.0001302	9
	12	43	18984.38	39.53722	-38.1735	1	54.95823	-43.99464	-1.269123E-005	0.0003784	9
	13	45	15046.87	41.62864	-45.77981	1	61.87677	-47.71902	-3.88937E-006	1.974003E-005	9
	14	48	11953.13	44.12333	-55.08471	1	70.57757	-51.30497	1.436469E-005	-0.0003367	9
	15	50	9515.62	47.01764	-66.33705	1	81.30968	-54.67217	9.900599E-006	-0.0003103	9
	16	52	7546.875	50.35981	-80.62978	1	95.0646	-58.01189	-8.065127E-006	0.0004421	9
	17	55	5928.309	54.83141	-98.5562	1	112.7822	-60.91078	1.375873E-005	-0.0001543	9
	18	57	4733.456	59.90222	-119.0294	1	133.2526	-63.28591	-3.665952E-006	1.663081E-005	9
	19	59	3796.875	66.13065	-143.305	1	157.8277	-65.22819	1.071561E-005	-0.0003084	9
	20	62	2987.132	73.77007	-175.8695	1	190.7147	-67.24393	1.536336E-005	-0.0002913	9
	21	64	2390.625	83.45663	-211.797	1	227.6466	-68.49355	-1.118159E-005	0.0004632	9
	22	66	1884.191	94.12263	-260.4129	1	276.9006	-70.12831	1.558123E-005	-0.0002331	9
	23	69	1516.544	108.3101	-312.4766	1	330.7154	-70.88275	-1.116908E-005	0.00035	9
	24	71	1193.986	126.717	-383.2714	1	403.6758	-71.70511	5.624344E-006	-0.0002362	9
	25	73	946.5144	147.3858	-466.4913	1	489.2205	-72.4663	-1.995673E-007	0.0004941	8
	26	76	751.7689	176.2716	-567.9043	1	594.6318	-72.7562	7.349759E-007	0.0002951	8
	27	78	597.4265	211.5057	-691.0246	1	722.6684	-72.98193	1.545439E-007	0.0008718	8
	28	80	477.4305	257.4745	-836.2839	1	875.0222	-72.88748	6.886233E-008	0.0006529	8
	29	83	376.6741	320.9717	-1022.359	1	1071.56	-72.57021	6.890755E-008	0.0006532	8
	30	85	298.2954	404.5879	-1243.775	1	1307.925	-71.9808	6.277948E-008	0.0006583	8
	31	87	237.7717	513.642	-1500.475	1	1585.955	-71.10292	6.661838E-008	0.0006508	8
	32	90	189.0121	661.9952	-1806.758	1	1924.217	-69.87719	5.78674E-008	0.0006558	8
	33	92	150.2404	861.0375	-2162.986	1	2328.067	-68.29358	6.061725E-008	0.0006512	8
	34	95	119.1737	1129.652	-2572.379	1	2809.492	-66.29148	5.981008E-008	0.0006523	8
	35	97	95.0169	1474.97	-3016.114	1	3357.451	-63.93998	7.750467E-008	0.0006552	8
	36	100	75.60484	1922.394	-3493.06	1	3987.112	-61.17396	8.007679E-008	0.0006506	8
	37	102	54.50582	2763.583	-4183.324	1	5013.74	-56.55049	-4.628201E-007	0.0006269	7
	38	105	45.95588	3283.443	-4529.517	1	5594.418	-54.06168	-4.48815E-007	0.0006321	7
	39	107	37.20238	4000.057	-4934.26	1	6351.958	-50.96935	-4.470247E-007	0.0006242	7
	40	109	30.04808	4667.136	-5935.867	1	7550.939	-51.82344	-3.038572E-007	0.0006287	7
	41	112	23.91582	5570.241	-6623.311	1	8654.238	-49.93598	-2.491333E-007	0.0006287	7
	42	114	18.60119	6635.692	-7267.006	1	9840.82	-47.59998	-2.032089E-007	0.0006326	7
	43	116	15.02404	7572.454	-7679.721	1	10785.18	-45.40295	-2.165817E-007	0.0006434	7
	44	119	12.01923	8554.75	-8178.735	1	11835.35	-43.71273	-2.403026E-007	0.0006339	7
	45	121	9.450605	9650.18	-8822.645	1	13075.36	-42.43501	-2.384112E-007	0.0006251	7
	46	124	7.512019	10775.68	-9557.51	1	14403.52	-41.57149	-2.472631E-007	0.0006197	7
	47	126	5.978954	12014.96	-10379.98	1	15877.76	-40.82444	-2.38101E-007	0.0006301	7
	48	130	4.734848	13462.89	-11365.28	1	17618.71	-40.17083	-2.514039E-007	0.0006105	7
	49	133	3.75601	15101.26	-12368.78	1	19520.11	-39.31939	-2.367458E-007	0.0006166	7
	50	136	3.004808	16916.19	-13360.04	1	21555.7	-38.30091	-2.451928E-007	0.0006178	7
	51	140	2.372217	19108.42	-14348.66	1	23895.94	-36.90316	-2.513486E-007	0.0005583	7
	52	144	1.878005	21494.52	-15244.14	1	26351.44	-35.34466	-2.469602E-007	0.000633	7
	53	149	1.512097	23866.56	-15916.89	1	28687.29	-33.69979	-2.526367E-007	0.000582	7
	54	154	1.201923	26602.64	-16427.58	1	31266.05	-31.69603	-2.562493E-007	0.0006537	7
	55	161	0.956633	29401.2	-16667.53	1	33797	-29.54889	-2.77337E-007	-1.354671E-005	7
