EXPLAIN
TAG	EISPOT
TITLE	LABEL	Potentiostatic EIS	Test Identifier
DATE	LABEL	2/28/2021	Date
TIME	LABEL	0:45:27	Time
NOTES	NOTES	1	Notes...
	
PSTAT	PSTAT	REF3000-16137	Potentiostat
VDC	POTEN	0.00000E+000	T	DC Voltage (V)
FREQINIT	QUANT	3.00000E+005	Initial Freq. (Hz)
FREQFINAL	QUANT	1.00000E+000	Final Freq. (Hz)
PTSPERDEC	QUANT	1.00000E+001	Points/decade
VAC	QUANT	5.00000E+001	AC Voltage (mV rms)
AREA	QUANT	1.00000E+000	Sample Area (cm^2)
SPEED	SELECTOR	2	Optimize for:
ZGUESS	QUANT	1.00000E+003	Estimated Z (ohms)
EOC	QUANT	0	Open Circuit (V)
SEQUENCER	TOGGLE	TRUE	Run as Sequence
PSTATMODEL	IQUANT	5	Pstat Model
PSTATSECTION	LABEL	REF3000-16137	Pstat Section
PSTATSERIALNO	LABEL	16137	Pstat Serial Number
CTRLMODE	IQUANT	1	Control Mode
IESTAB	IQUANT	0	I/E Stability
CASPEED	IQUANT	1	Control Amp Speed
CONVENTION	IQUANT	1	Current Convention
ICHRANGE	IQUANT	2	Ich Range
ICHRANGEMODE	TOGGLE	F	Ich Auto Range
ICHOFFSETENABLE	TOGGLE	T	Ich Offset Enable
ICHOFFSET	QUANT	0	Ich Offset (V)
ICHFILTER	IQUANT	3	Ich Filter
VCHRANGE	IQUANT	2	Vch Range
VCHRANGEMODE	TOGGLE	F	Vch Auto Range
VCHOFFSETENABLE	TOGGLE	T	Vch Offset Enable
VCHOFFSET	QUANT	0	Vch Offset (V)
VCHFILTER	IQUANT	3	Vch Filter
ACHRANGE	IQUANT	2	Ach Range
ACHOFFSETENABLE	TOGGLE	F	Ach Offset Enable
ACHOFFSET	QUANT	0	Ach Offset (V)
ACHFILTER	IQUANT	3	Ach Filter
IERANGELOWERLIMIT	IQUANT	2	I/E Range Lower Limit
IERANGEMODE	TOGGLE	F	I/E AutoRange
IERANGE	IQUANT	11	I/E Range
POSFEEDENABLE	TOGGLE	F	Positive Feedback IR Comp
POSFEEDRESISTANCE	QUANT	0	Positive Feedback Resistance (ohm)
ACHSELECT	IQUANT	0	Ach Select
CABLEID	IQUANT	13	Cable ID
DCCALDATE	LABEL	7/31/2020	DC Calibration Date
ACCALDATE	LABEL	7/31/2020	AC Calibration Date
THERMOSELECT	IQUANT	1	Thermo Select
FRAMEWORKVERSION	QUANT	6.33	Framework Version
INSTRUMENTVERSION	LABEL	3.50	Instrument Version
COMPLIANCEVOLTAGE	IQUANT	0	Compliance Voltage
ZCURVE	TABLE
	Pt	Time	Freq	Zreal	Zimag	Zsig	Zmod	Zphz	Idc	Vdc	IERange
	#	s	Hz	ohm	ohm	V	ohm	°	A	V	#
	0	7	300046.9	25.4006	-4.677002	1	25.8276	-10.43299	-4.581245E-005	-0.0003026	11
	1	11	238359.4	26.18862	-5.797575	1	26.82267	-12.48269	8.350825E-005	0.0002407	10
	2	15	189328.1	26.95958	-7.300828	1	27.93064	-15.15263	-1.68609E-005	0.0005575	10
	3	17	150421.9	27.92071	-8.896447	1	29.3038	-17.67357	-1.062369E-006	0.0004637	10
	4	20	119484.4	28.97358	-10.62082	1	30.85888	-20.13137	3.094032E-005	0.0006262	10
	5	22	94921.88	30.10123	-12.4448	1	32.57234	-22.46175	7.363715E-006	0.0006321	10
	6	25	75421.88	31.39921	-14.57207	1	34.61583	-24.89557	2.611649E-005	0.000643	10
	7	27	59859.37	32.70249	-16.92472	1	36.82254	-27.3632	-1.449271E-005	0.0007516	10
	8	30	47578.12	34.16012	-19.53201	1	39.34988	-29.75998	1.062847E-005	-0.0003065	9
	9	32	37828.12	35.55528	-22.92747	1	42.30658	-32.81554	1.692753E-005	-0.0002815	9
	10	35	30046.88	37.06354	-27.02283	1	45.86872	-36.09559	-8.893333E-006	0.0005727	9
	11	37	23859.38	38.67205	-32.12239	1	50.27301	-39.71424	-3.447704E-006	1.324038E-005	9
	12	40	18984.38	40.47807	-38.29018	1	55.71904	-43.40895	1.430946E-005	-0.0002044	9
	13	42	15046.87	42.47529	-46.02047	1	62.62614	-47.29407	1.700299E-005	-0.0002001	9
	14	44	11953.13	44.90548	-55.39662	1	71.3112	-50.97116	-3.018193E-006	4.644229E-005	9
	15	47	9515.62	47.55922	-67.08833	1	82.23579	-54.667	-9.179565E-006	0.0004718	9
	16	49	7546.875	51.02888	-81.19141	1	95.8957	-57.8506	1.666507E-006	-0.0001108	9
	17	51	5928.309	55.06173	-99.8275	1	114.0058	-61.12025	-3.035686E-007	0.0003245	9
	18	54	4733.456	59.77156	-120.8753	1	134.8461	-63.68808	-4.783908E-006	0.0004356	9
	19	56	3796.875	65.76631	-145.5442	1	159.7133	-65.68346	-1.146852E-005	0.0005069	9
	20	58	2987.132	72.7981	-178.9943	1	193.2318	-67.86811	2.022726E-006	-0.0001276	9
	21	61	2390.625	80.05904	-217.5585	1	231.8214	-69.79697	-4.345663E-006	0.0003807	9
	22	63	1884.191	91.55692	-266.4838	1	281.7734	-71.0386	1.446968E-005	-0.0001414	9
	23	65	1516.544	102.6431	-321.8303	1	337.8022	-72.31067	-4.615933E-007	0.0003358	9
	24	68	1193.986	118.4404	-395.1235	1	412.4933	-73.31361	1.56231E-005	-0.0003315	9
	25	70	946.5144	136.5363	-481.9473	1	500.9145	-74.1825	-2.359624E-007	0.0011093	8
	26	72	751.7689	158.9421	-589.1905	1	610.2524	-74.90305	-1.283139E-007	0.0011086	8
	27	75	597.4265	187.5629	-719.2713	1	743.3243	-75.38457	-1.535414E-006	0.0009733	8
	28	77	477.4305	219.8573	-874.8416	1	902.0449	-75.89308	5.479997E-007	0.0006661	8
	29	79	376.6741	263.1243	-1075.725	1	1107.438	-76.25523	5.459179E-007	0.0006654	8
	30	82	298.2954	316.0444	-1318.536	1	1355.884	-76.52087	5.621404E-007	0.0006624	8
	31	84	237.7717	379.7012	-1606.526	1	1650.787	-76.70221	5.579348E-007	0.0006699	8
	32	86	189.0121	459.5523	-1961.93	1	2015.033	-76.817	5.67426E-007	0.0006631	8
	33	89	150.2404	559.0692	-2395.526	1	2459.899	-76.86341	5.680374E-007	0.0006662	8
	34	91	119.1737	684.674	-2931.507	1	3010.401	-76.85383	5.733417E-007	0.0006692	8
	35	94	95.0169	839.7531	-3570.399	1	3667.824	-76.76466	5.797623E-007	0.0006652	8
	36	96	75.60484	1042.312	-4364.643	1	4487.374	-76.56886	3.505872E-008	0.0006411	7
	37	99	54.50582	1431.442	-5794.011	1	5968.215	-76.12265	3.580089E-008	0.0006373	7
	38	101	45.95588	1704.856	-6720.709	1	6933.576	-75.76591	4.36604E-008	0.000648	7
	39	103	37.20238	2128.95	-8059.177	1	8335.632	-75.2025	3.791822E-008	0.0006388	7
	40	106	30.04808	2677.544	-9659.03	1	10023.28	-74.50629	3.39764E-008	0.0006432	7
	41	108	23.91582	3453.203	-11691.57	1	12190.87	-73.54505	3.614625E-008	0.0006412	7
	42	111	18.60119	4599.605	-14357.18	1	15075.97	-72.23611	2.662403E-008	0.0006528	7
	43	113	15.02404	5896.479	-17056.63	1	18047.08	-70.92973	3.423887E-008	0.0006349	7
	44	115	12.01923	7652.94	-20276.17	1	21672.35	-69.32173	4.28551E-008	0.0006511	7
	45	118	9.450605	10152.5	-24180.66	1	26225.52	-67.22439	3.010559E-008	0.0006391	7
	46	120	7.512019	13163.79	-28455.78	1	31353.1	-65.17449	4.657689E-008	0.0006369	7
	47	123	5.978954	16887.54	-32996.63	1	37067.05	-62.89682	4.222193E-008	0.000641	7
	48	126	4.734848	21597.45	-37996.51	1	43705.66	-60.38584	-1.93449E-008	0.0006697	6
	49	129	3.75601	27174.76	-43124.29	1	50972.27	-57.78293	-1.19858E-008	0.0007013	6
	50	135	3.004808	33349.02	-48192.43	1	58606.04	-55.31688	-1.52E-008	0.0007111	6
	51	141	2.372217	40688.63	-53588.97	1	67285.53	-52.7916	-1.175702E-008	0.0006571	6
	52	145	1.878005	48686.04	-59020.47	1	76509.78	-50.48075	-1.031835E-008	0.0006788	6
	53	150	1.512097	56460.96	-64196.98	1	85493.23	-48.66851	-1.191606E-008	0.0007317	6
	54	156	1.201923	65229.46	-69951.78	1	95645.9	-47.00072	-1.226052E-008	0.0007003	6
	55	162	0.956633	74456.39	-76365.05	1	106655.4	-45.72505	-1.993245E-008	4.819204E-005	6
