EXPLAIN
TAG	EISPOT
TITLE	LABEL	Potentiostatic EIS	Test Identifier
DATE	LABEL	2/28/2021	Date
TIME	LABEL	3:46:42	Time
NOTES	NOTES	1	Notes...
	
PSTAT	PSTAT	REF3000-16137	Potentiostat
VDC	POTEN	0.00000E+000	T	DC Voltage (V)
FREQINIT	QUANT	3.00000E+005	Initial Freq. (Hz)
FREQFINAL	QUANT	1.00000E+000	Final Freq. (Hz)
PTSPERDEC	QUANT	1.00000E+001	Points/decade
VAC	QUANT	5.00000E+001	AC Voltage (mV rms)
AREA	QUANT	1.00000E+000	Sample Area (cm^2)
SPEED	SELECTOR	2	Optimize for:
ZGUESS	QUANT	1.00000E+003	Estimated Z (ohms)
EOC	QUANT	0	Open Circuit (V)
SEQUENCER	TOGGLE	TRUE	Run as Sequence
PSTATMODEL	IQUANT	5	Pstat Model
PSTATSECTION	LABEL	REF3000-16137	Pstat Section
PSTATSERIALNO	LABEL	16137	Pstat Serial Number
CTRLMODE	IQUANT	1	Control Mode
IESTAB	IQUANT	0	I/E Stability
CASPEED	IQUANT	1	Control Amp Speed
CONVENTION	IQUANT	1	Current Convention
ICHRANGE	IQUANT	2	Ich Range
ICHRANGEMODE	TOGGLE	F	Ich Auto Range
ICHOFFSETENABLE	TOGGLE	T	Ich Offset Enable
ICHOFFSET	QUANT	0	Ich Offset (V)
ICHFILTER	IQUANT	3	Ich Filter
VCHRANGE	IQUANT	2	Vch Range
VCHRANGEMODE	TOGGLE	F	Vch Auto Range
VCHOFFSETENABLE	TOGGLE	T	Vch Offset Enable
VCHOFFSET	QUANT	0	Vch Offset (V)
VCHFILTER	IQUANT	3	Vch Filter
ACHRANGE	IQUANT	2	Ach Range
ACHOFFSETENABLE	TOGGLE	F	Ach Offset Enable
ACHOFFSET	QUANT	0	Ach Offset (V)
ACHFILTER	IQUANT	3	Ach Filter
IERANGELOWERLIMIT	IQUANT	2	I/E Range Lower Limit
IERANGEMODE	TOGGLE	F	I/E AutoRange
IERANGE	IQUANT	11	I/E Range
POSFEEDENABLE	TOGGLE	F	Positive Feedback IR Comp
POSFEEDRESISTANCE	QUANT	0	Positive Feedback Resistance (ohm)
ACHSELECT	IQUANT	0	Ach Select
CABLEID	IQUANT	13	Cable ID
DCCALDATE	LABEL	7/31/2020	DC Calibration Date
ACCALDATE	LABEL	7/31/2020	AC Calibration Date
THERMOSELECT	IQUANT	1	Thermo Select
FRAMEWORKVERSION	QUANT	6.33	Framework Version
INSTRUMENTVERSION	LABEL	3.50	Instrument Version
COMPLIANCEVOLTAGE	IQUANT	0	Compliance Voltage
ZCURVE	TABLE
	Pt	Time	Freq	Zreal	Zimag	Zsig	Zmod	Zphz	Idc	Vdc	IERange
	#	s	Hz	ohm	ohm	V	ohm	°	A	V	#
	0	7	300046.9	24.36764	-4.666662	1	24.81047	-10.84148	1.765739E-005	-0.0001229	11
	1	11	238359.4	25.13678	-5.740026	1	25.78383	-12.86303	1.367892E-005	0.0003841	10
	2	14	189328.1	25.89868	-7.249335	1	26.89413	-15.63754	-5.426372E-005	0.0006813	10
	3	18	150421.9	26.81505	-8.839258	1	28.23436	-18.24418	-5.344459E-005	0.0007024	10
	4	21	119484.4	27.85565	-10.5816	1	29.79778	-20.80042	-2.19999E-005	0.0006231	10
	5	23	94921.88	29.01351	-12.42296	1	31.56127	-23.17957	-2.843814E-005	0.0006685	10
	6	26	75421.88	30.28668	-14.49599	1	33.57703	-25.57699	1.586346E-005	0.0006515	10
	7	28	59859.37	31.62157	-16.8514	1	35.83146	-28.05352	2.122325E-005	0.000651	10
	8	31	47578.12	33.04954	-19.40645	1	38.326	-30.42115	8.170819E-006	-6.251795E-006	9
	9	34	37828.12	34.44273	-22.68591	1	41.2426	-33.37114	-1.016495E-005	0.0005124	9
	10	36	30046.88	35.96954	-26.75021	1	44.82613	-36.63784	1.498922E-005	-0.0002315	9
	11	39	23859.38	37.57097	-31.71522	1	49.1674	-40.16911	5.529925E-006	-0.0002207	9
	12	41	18984.38	39.39957	-37.6966	1	54.52852	-43.73461	9.224092E-006	-0.000285	9
	13	43	15046.87	41.46669	-45.23363	1	61.36422	-47.48781	5.725552E-006	-0.000221	9
	14	46	11953.13	43.81445	-54.54807	1	69.96569	-51.22765	3.195131E-006	0.0001431	9
	15	48	9515.62	46.65764	-65.6692	1	80.55669	-54.6064	-4.890775E-006	0.0004607	9
	16	50	7546.875	50.03372	-79.70579	1	94.10838	-57.88227	2.251144E-006	0.0001776	9
	17	53	5928.309	54.47654	-97.4617	1	111.6534	-60.79685	-3.826563E-006	2.726332E-005	9
	18	55	4733.456	59.31091	-117.9584	1	132.0302	-63.3062	-8.474311E-007	0.000311	9
	19	57	3796.875	65.62128	-141.6473	1	156.1093	-65.14301	-7.882485E-006	0.0001955	9
	20	59	2987.132	72.88909	-174.25	1	188.8806	-67.30035	3.884918E-006	0.0001704	9
	21	62	2390.625	81.15237	-211.0059	1	226.0734	-68.96337	-9.310025E-006	0.00044	9
	22	64	1884.191	93.54703	-257.8755	1	274.3188	-70.06123	-1.074678E-005	0.0002696	9
	23	66	1516.544	106.515	-310.6096	1	328.3653	-71.07201	1.546987E-005	-0.0002922	9
	24	69	1193.986	125.1639	-380.0432	1	400.1236	-71.77116	-1.158884E-005	0.0003518	9
	25	71	946.5144	146.2802	-463.2756	1	485.8211	-72.47639	1.856432E-006	4.134653E-005	8
	26	74	751.7689	175.0741	-563.9111	1	590.4631	-72.75231	2.602621E-006	8.113618E-005	8
	27	76	597.4265	211.5863	-686.2859	1	718.1624	-72.86514	2.593777E-006	6.603384E-005	8
	28	78	477.4305	258.1114	-830.7108	1	869.8862	-72.73938	-5.098045E-008	0.0006605	8
	29	81	376.6741	323.2016	-1015.186	1	1065.393	-72.34025	-5.127414E-008	0.000661	8
	30	83	298.2954	409.1353	-1233.908	1	1299.97	-71.65568	-5.260188E-008	0.0006694	8
	31	85	237.7717	521.504	-1486.641	1	1575.458	-70.66946	-1.838061E-008	0.0006443	8
	32	88	189.0121	674.1449	-1786.509	1	1909.472	-69.32584	-3.963466E-008	0.0006632	8
	33	90	150.2404	879.0642	-2132.725	1	2306.788	-67.59958	-4.198531E-008	0.0006619	8
	34	93	119.1737	1153.406	-2527.052	1	2777.83	-65.46693	-3.527994E-008	0.0006602	8
	35	95	95.0169	1505.001	-2948.324	1	3310.233	-62.95752	-2.576997E-008	0.0006657	8
	36	98	75.60484	1955.566	-3392.585	1	3915.848	-60.03984	-3.319074E-008	0.0006629	8
	37	100	54.50582	2788.416	-4024.844	1	4896.39	-55.28574	-5.65901E-007	0.0006389	7
	38	103	45.95588	3296.881	-4324.072	1	5437.557	-52.67635	-5.689453E-007	0.0006506	7
	39	105	37.20238	3982.673	-4653.483	1	6125.079	-49.44151	-5.542367E-007	0.0006448	7
	40	107	30.04808	4733.69	-4939.244	1	6841.341	-46.21738	-5.615459E-007	0.0006344	7
	41	110	23.91582	5543.581	-5201.158	1	7601.535	-43.17466	-5.496664E-007	0.0006388	7
	42	112	18.60119	6424.942	-5429.387	1	8411.784	-40.19943	-5.324751E-007	0.0006471	7
	43	114	15.02404	7174.363	-5621.182	1	9114.229	-38.07904	-5.311911E-007	0.0006473	7
	44	117	12.01923	7956.336	-5828.854	1	9863	-36.2267	-5.732656E-007	0.0006405	7
	45	119	9.450605	8809.241	-6106.708	1	10718.89	-34.73032	-5.437234E-007	0.0006513	7
	46	122	7.512019	9699.89	-6419.453	1	11631.74	-33.49686	-5.45885E-007	0.0006617	7
	47	124	5.978954	10655.95	-6766.423	1	12622.74	-32.41516	-5.295915E-007	0.0006436	7
	48	128	4.734848	11718.22	-7096.803	1	13699.68	-31.19998	-5.431809E-007	0.0006256	7
	49	131	3.75601	12849.93	-7388.95	1	14822.86	-29.89971	-5.212059E-007	0.0006598	7
	50	134	3.004808	14029.11	-7615.315	1	15962.73	-28.49411	-5.268352E-007	0.0006483	7
	51	138	2.372217	15302.76	-7756.112	1	17156.1	-26.8779	-5.260832E-007	0.0005834	7
	52	142	1.878005	16641.2	-7843.279	1	18396.91	-25.2353	-5.14006E-007	0.0006382	7
	53	147	1.512097	17789.47	-7854.552	1	19446.32	-23.82281	-5.178244E-007	0.0005844	7
	54	152	1.201923	19052.05	-7761.225	1	20572.25	-22.16448	-5.190471E-007	0.0006684	7
	55	159	0.956633	20288.67	-7555.531	1	21649.85	-20.42541	-5.541602E-007	-1.558154E-005	7
