EXPLAIN
TAG	EISPOT
TITLE	LABEL	Potentiostatic EIS	Test Identifier
DATE	LABEL	2/28/2021	Date
TIME	LABEL	2:04:42	Time
NOTES	NOTES	1	Notes...
	
PSTAT	PSTAT	REF3000-16137	Potentiostat
VDC	POTEN	0.00000E+000	T	DC Voltage (V)
FREQINIT	QUANT	3.00000E+005	Initial Freq. (Hz)
FREQFINAL	QUANT	1.00000E+000	Final Freq. (Hz)
PTSPERDEC	QUANT	1.00000E+001	Points/decade
VAC	QUANT	5.00000E+001	AC Voltage (mV rms)
AREA	QUANT	1.00000E+000	Sample Area (cm^2)
SPEED	SELECTOR	2	Optimize for:
ZGUESS	QUANT	1.00000E+003	Estimated Z (ohms)
EOC	QUANT	0	Open Circuit (V)
SEQUENCER	TOGGLE	TRUE	Run as Sequence
PSTATMODEL	IQUANT	5	Pstat Model
PSTATSECTION	LABEL	REF3000-16137	Pstat Section
PSTATSERIALNO	LABEL	16137	Pstat Serial Number
CTRLMODE	IQUANT	1	Control Mode
IESTAB	IQUANT	0	I/E Stability
CASPEED	IQUANT	1	Control Amp Speed
CONVENTION	IQUANT	1	Current Convention
ICHRANGE	IQUANT	2	Ich Range
ICHRANGEMODE	TOGGLE	F	Ich Auto Range
ICHOFFSETENABLE	TOGGLE	T	Ich Offset Enable
ICHOFFSET	QUANT	0	Ich Offset (V)
ICHFILTER	IQUANT	3	Ich Filter
VCHRANGE	IQUANT	2	Vch Range
VCHRANGEMODE	TOGGLE	F	Vch Auto Range
VCHOFFSETENABLE	TOGGLE	T	Vch Offset Enable
VCHOFFSET	QUANT	0	Vch Offset (V)
VCHFILTER	IQUANT	3	Vch Filter
ACHRANGE	IQUANT	2	Ach Range
ACHOFFSETENABLE	TOGGLE	F	Ach Offset Enable
ACHOFFSET	QUANT	0	Ach Offset (V)
ACHFILTER	IQUANT	3	Ach Filter
IERANGELOWERLIMIT	IQUANT	2	I/E Range Lower Limit
IERANGEMODE	TOGGLE	F	I/E AutoRange
IERANGE	IQUANT	11	I/E Range
POSFEEDENABLE	TOGGLE	F	Positive Feedback IR Comp
POSFEEDRESISTANCE	QUANT	0	Positive Feedback Resistance (ohm)
ACHSELECT	IQUANT	0	Ach Select
CABLEID	IQUANT	13	Cable ID
DCCALDATE	LABEL	7/31/2020	DC Calibration Date
ACCALDATE	LABEL	7/31/2020	AC Calibration Date
THERMOSELECT	IQUANT	1	Thermo Select
FRAMEWORKVERSION	QUANT	6.33	Framework Version
INSTRUMENTVERSION	LABEL	3.50	Instrument Version
COMPLIANCEVOLTAGE	IQUANT	0	Compliance Voltage
ZCURVE	TABLE
	Pt	Time	Freq	Zreal	Zimag	Zsig	Zmod	Zphz	Idc	Vdc	IERange
	#	s	Hz	ohm	ohm	V	ohm	°	A	V	#
	0	16	300046.9	828.6039	-146.6511	1	841.4814	-10.0366	-1.99131E-005	0.0014493	9
	1	25	238359.4	850.9918	-131.3335	1	861.0665	-8.773237	7.624084E-005	-0.0016454	9
	2	37	189328.1	872.7127	-129.0117	1	882.197	-8.40904	5.129992E-005	0.0001035	9
	3	49	150421.9	895.6388	-102.4729	1	901.4819	-6.527013	2.481141E-006	0.001604	9
	4	57	119484.4	915.4923	-72.23118	1	918.3373	-4.511219	-6.015071E-005	0.0160834	8
	5	63	94921.88	925.119	-73.30531	1	928.0187	-4.530582	-1.844617E-005	0.0073667	8
	6	66	75421.88	930.4712	-75.82086	1	933.5553	-4.658541	1.394572E-005	-0.0001702	8
	7	70	59859.37	941.1991	-81.54013	1	944.7246	-4.951417	-1.900089E-005	0.0060156	8
	8	74	47578.12	952.572	-94.2725	1	957.226	-5.651945	-1.323942E-005	0.0082864	8
	9	76	37828.12	963.047	-105.8479	1	968.846	-6.272171	1.12017E-005	-0.0065101	8
	10	79	30046.88	971.882	-119.6168	1	979.216	-7.016535	7.973428E-006	0.0024537	8
	11	81	23859.38	985.676	-137.394	1	995.206	-7.935365	-1.916973E-005	0.0060463	8
	12	84	18984.38	1002.794	-161.1912	1	1015.666	-9.13173	-8.529523E-006	-0.0007164	8
	13	87	15046.87	1019.773	-190.105	1	1037.341	-10.55981	-1.871117E-005	0.0074078	8
	14	89	11953.13	1043.093	-220.228	1	1066.087	-11.92177	-7.371937E-006	0.0073552	8
	15	92	9515.62	1067.13	-258.787	1	1098.061	-13.63149	-1.721616E-005	0.0083177	8
	16	95	7546.875	1095.617	-302.1436	1	1136.516	-15.41751	4.54306E-006	-0.005161	8
	17	97	5928.309	1134.977	-356.2469	1	1189.573	-17.42605	4.833237E-006	-0.0051842	8
	18	100	4733.456	1174.301	-413.53	1	1244.986	-19.39971	-1.927647E-005	0.0061218	8
	19	104	3796.875	1214.857	-480.3214	1	1306.363	-21.5725	-1.914088E-005	0.0073596	8
	20	108	2987.132	1270.83	-564.1014	1	1390.403	-23.93567	-1.717096E-005	0.0082597	8
	21	111	2390.625	1324.275	-653.1184	1	1476.573	-26.25202	1.868629E-005	-0.0026156	8
	22	114	1884.191	1381.563	-768.4023	1	1580.873	-29.08208	-7.304912E-008	0.0055194	8
	23	118	1516.544	1446.495	-886.0625	1	1696.306	-31.4899	1.449032E-005	-0.0001885	8
	24	123	1193.986	1510.037	-1052.128	1	1840.431	-34.86711	2.067233E-005	-0.0056577	8
	25	127	946.5144	1572.022	-1246.178	1	2006.044	-38.40469	-1.948068E-005	0.0061224	8
	26	130	751.7689	1642.959	-1474.197	1	2207.39	-41.90104	1.459852E-005	-0.0002031	8
	27	132	597.4265	1728.072	-1757.118	1	2464.487	-45.47751	-1.845814E-005	0.0046228	8
	28	135	477.4305	1791.291	-2127.068	1	2780.853	-49.89789	-8.37809E-008	0.0006561	8
	29	138	376.6741	1877.199	-2599.806	1	3206.691	-54.1687	-1.142965E-007	0.0006598	8
	30	141	298.2954	1974.473	-3182.083	1	3744.889	-58.18052	-9.829611E-008	0.0006483	8
	31	143	237.7717	2091.893	-3891.656	1	4418.258	-61.74051	-3.214101E-008	0.0006504	7
	32	146	189.0121	2224.229	-4775.078	1	5267.69	-65.02392	-3.376019E-008	0.0006598	7
	33	148	150.2404	2382.065	-5869.654	1	6334.594	-67.91135	-3.459594E-008	0.0006528	7
	34	150	119.1737	2573.248	-7237.184	1	7681.043	-70.42668	-3.283736E-008	0.0006525	7
	35	153	95.0169	2798.158	-8892.329	1	9322.188	-72.53272	-3.406029E-008	0.0006248	7
	36	155	75.60484	3071.276	-10956.17	1	11378.51	-74.34055	-3.071015E-008	0.000596	7
	37	158	54.50582	3570.429	-14785.08	1	15210.08	-76.42365	-2.924817E-008	0.0005888	7
	38	160	45.95588	3884.981	-17294	1	17725	-77.33907	-2.82171E-008	0.0006134	7
	39	163	37.20238	4353.386	-21003.21	1	21449.64	-78.28999	-2.807919E-008	0.0006076	7
	40	165	30.04808	4935.858	-25583.29	1	26055.08	-79.07993	-3.609513E-008	0.0006377	7
	41	168	23.91582	5695.845	-31584.87	1	32094.34	-79.77746	-3.589447E-008	0.0006448	7
	42	170	18.60119	6712.363	-39825.18	1	40386.89	-80.43296	-3.56847E-008	0.0006444	7
	43	172	15.02404	7891.434	-48546.13	1	49183.34	-80.76702	-3.43641E-009	0.0006541	6
	44	175	12.01923	9340.89	-59669.96	1	60396.66	-81.10298	-3.043372E-009	0.0006494	6
	45	177	9.450605	11333.61	-74526.87	1	75383.72	-81.35304	-3.706847E-009	0.0006746	6
	46	180	7.512019	13704.71	-92145.99	1	93159.55	-81.54051	-4.014353E-009	0.0006724	6
	47	183	5.978954	16681.09	-113674.4	1	114891.8	-81.65174	-3.851832E-009	0.0006923	6
	48	187	4.734848	20521.46	-140970.9	1	142456.7	-81.7175	-4.057939E-009	0.0006479	6
	49	190	3.75601	25400.78	-174470.8	1	176310.1	-81.71664	-3.205538E-009	0.000654	6
	50	196	3.004808	31345.28	-214092.6	1	216375.1	-81.67051	-4.175595E-009	0.0006689	6
	51	202	2.372217	39527.01	-266108.4	1	269028	-81.55122	-3.87122E-009	0.0005943	6
	52	206	1.878005	49077.91	-329772.1	1	333404.1	-81.53516	-3.695438E-009	0.0006695	6
	53	211	1.512097	60464.61	-400943.4	1	405477	-81.42409	-4.004185E-009	0.0006405	6
	54	217	1.201923	75783.12	-496090.6	1	501845.5	-81.31461	-3.846264E-010	0.0006769	5
	55	223	0.956633	94773.05	-611406.4	1	618708.1	-81.1888	-5.339573E-010	9.647429E-006	5
