EXPLAIN
TAG	EISPOT
TITLE	LABEL	Potentiostatic EIS	Test Identifier
DATE	LABEL	2/28/2021	Date
TIME	LABEL	3:49:30	Time
NOTES	NOTES	1	Notes...
	
PSTAT	PSTAT	REF3000-16137	Potentiostat
VDC	POTEN	0.00000E+000	T	DC Voltage (V)
FREQINIT	QUANT	3.00000E+005	Initial Freq. (Hz)
FREQFINAL	QUANT	1.00000E+000	Final Freq. (Hz)
PTSPERDEC	QUANT	1.00000E+001	Points/decade
VAC	QUANT	5.00000E+001	AC Voltage (mV rms)
AREA	QUANT	1.00000E+000	Sample Area (cm^2)
SPEED	SELECTOR	2	Optimize for:
ZGUESS	QUANT	1.00000E+003	Estimated Z (ohms)
EOC	QUANT	0	Open Circuit (V)
SEQUENCER	TOGGLE	TRUE	Run as Sequence
PSTATMODEL	IQUANT	5	Pstat Model
PSTATSECTION	LABEL	REF3000-16137	Pstat Section
PSTATSERIALNO	LABEL	16137	Pstat Serial Number
CTRLMODE	IQUANT	1	Control Mode
IESTAB	IQUANT	0	I/E Stability
CASPEED	IQUANT	1	Control Amp Speed
CONVENTION	IQUANT	1	Current Convention
ICHRANGE	IQUANT	2	Ich Range
ICHRANGEMODE	TOGGLE	F	Ich Auto Range
ICHOFFSETENABLE	TOGGLE	T	Ich Offset Enable
ICHOFFSET	QUANT	0	Ich Offset (V)
ICHFILTER	IQUANT	3	Ich Filter
VCHRANGE	IQUANT	2	Vch Range
VCHRANGEMODE	TOGGLE	F	Vch Auto Range
VCHOFFSETENABLE	TOGGLE	T	Vch Offset Enable
VCHOFFSET	QUANT	0	Vch Offset (V)
VCHFILTER	IQUANT	3	Vch Filter
ACHRANGE	IQUANT	2	Ach Range
ACHOFFSETENABLE	TOGGLE	F	Ach Offset Enable
ACHOFFSET	QUANT	0	Ach Offset (V)
ACHFILTER	IQUANT	3	Ach Filter
IERANGELOWERLIMIT	IQUANT	2	I/E Range Lower Limit
IERANGEMODE	TOGGLE	F	I/E AutoRange
IERANGE	IQUANT	11	I/E Range
POSFEEDENABLE	TOGGLE	F	Positive Feedback IR Comp
POSFEEDRESISTANCE	QUANT	0	Positive Feedback Resistance (ohm)
ACHSELECT	IQUANT	0	Ach Select
CABLEID	IQUANT	13	Cable ID
DCCALDATE	LABEL	7/31/2020	DC Calibration Date
ACCALDATE	LABEL	7/31/2020	AC Calibration Date
THERMOSELECT	IQUANT	1	Thermo Select
FRAMEWORKVERSION	QUANT	6.33	Framework Version
INSTRUMENTVERSION	LABEL	3.50	Instrument Version
COMPLIANCEVOLTAGE	IQUANT	0	Compliance Voltage
ZCURVE	TABLE
	Pt	Time	Freq	Zreal	Zimag	Zsig	Zmod	Zphz	Idc	Vdc	IERange
	#	s	Hz	ohm	ohm	V	ohm	°	A	V	#
	0	7	300046.9	24.32442	-4.645629	1	24.76407	-10.8125	-4.310325E-005	-0.0003304	11
	1	11	238359.4	25.10821	-5.798393	1	25.76905	-13.00369	-1.145358E-005	0.0005767	10
	2	14	189328.1	25.8226	-7.520513	1	26.89544	-16.23755	-3.048674E-005	0.0005303	11
	3	18	150421.9	26.82162	-8.943551	1	28.27343	-18.44073	1.808131E-005	0.0007957	10
	4	21	119484.4	27.87413	-10.6351	1	29.83408	-20.88387	1.965442E-006	0.000747	10
	5	23	94921.88	29.059	-12.43988	1	31.60975	-23.1753	1.383275E-005	0.000593	10
	6	26	75421.88	30.26886	-14.51253	1	33.5681	-25.61558	-8.319946E-006	0.0006311	10
	7	28	59859.37	31.60392	-16.88533	1	35.83186	-28.11467	-1.739948E-005	0.0006467	10
	8	31	47578.12	33.05973	-19.47478	1	38.36942	-30.50143	-1.236697E-005	0.0003684	9
	9	33	37828.12	34.49256	-22.75556	1	41.32254	-33.41379	1.25864E-005	-0.0003401	9
	10	36	30046.88	35.9864	-26.85601	1	44.90285	-36.73333	-4.820501E-006	0.0003733	9
	11	39	23859.38	37.62094	-31.74723	1	49.22623	-40.16005	-1.063338E-005	0.00038	9
	12	41	18984.38	39.41271	-37.81052	1	54.61682	-43.81143	-7.8096E-006	0.0005055	9
	13	43	15046.87	41.50095	-45.44456	1	61.54297	-47.597	1.631433E-006	-0.0001395	9
	14	45	11953.13	43.88545	-54.7103	1	70.13664	-51.26542	8.310337E-006	-7.853027E-006	9
	15	48	9515.62	46.65924	-65.99866	1	80.8264	-54.74074	-1.216651E-005	0.0003357	9
	16	50	7546.875	50.26233	-79.76801	1	94.28275	-57.78471	-1.136283E-005	0.0004776	9
	17	52	5928.309	54.51745	-97.7545	1	111.929	-60.8517	-1.118245E-005	0.0003434	9
	18	55	4733.456	59.48724	-118.1889	1	132.3154	-63.28283	1.256718E-005	-0.0003327	9
	19	57	3796.875	65.06595	-142.6321	1	156.7721	-65.47846	5.400654E-006	-0.0002311	9
	20	59	2987.132	73.10072	-174.5932	1	189.2789	-67.28134	1.565451E-005	-0.0002978	9
	21	62	2390.625	82.40146	-210.758	1	226.2939	-68.64566	-4.105447E-006	0.0004282	9
	22	64	1884.191	94.07269	-257.9895	1	274.6056	-69.96624	-1.09295E-005	0.0003336	9
	23	66	1516.544	107.1689	-311.0958	1	329.0377	-70.99176	-1.236278E-005	0.0004043	9
	24	69	1193.986	124.8763	-382.6078	1	402.4709	-71.92425	-1.102407E-005	0.0004765	9
	25	71	946.5144	146.7114	-464.4094	1	487.0322	-72.46817	1.287033E-006	0.0001353	8
	26	74	751.7689	174.9388	-564.9016	1	591.3691	-72.79328	2.372995E-006	0.0001482	8
	27	76	597.4265	211.6525	-688.1067	1	719.9219	-72.90279	2.303137E-006	-1.845678E-005	8
	28	78	477.4305	257.4102	-832.3354	1	871.2303	-72.81512	-2.119093E-008	0.0006493	8
	29	81	376.6741	321.6541	-1017.306	1	1066.946	-72.45398	-2.211826E-008	0.00065	8
	30	83	298.2954	406.3359	-1237.082	1	1302.107	-71.81656	-1.719671E-008	0.0006507	8
	31	85	237.7717	516.8533	-1491.37	1	1578.392	-70.8856	-4.335837E-009	0.00065	8
	32	88	189.0121	666.8859	-1793.946	1	1913.891	-69.60777	-5.291836E-009	0.0006542	8
	33	90	150.2404	868.5677	-2145.121	1	2314.293	-67.95679	-1.109577E-008	0.0006523	8
	34	93	119.1737	1140.348	-2546.8	1	2790.445	-65.8792	2.99813E-009	0.0006521	8
	35	95	95.0169	1488.694	-2978.815	1	3330.098	-63.44593	-1.015341E-008	0.0006484	8
	36	98	75.60484	1939.917	-3438.633	1	3948.098	-60.57033	-5.260113E-009	0.0006287	8
	37	100	54.50582	2780.604	-4098.781	1	4952.955	-55.84712	-5.398581E-007	0.0006265	7
	38	103	45.95588	3301.829	-4415.224	1	5513.282	-53.20982	-5.41577E-007	0.0006437	7
	39	105	37.20238	4010.204	-4757.421	1	6222.121	-49.87124	-5.289213E-007	0.0006355	7
	40	107	30.04808	4780.001	-5047.276	1	6951.503	-46.5579	-5.410849E-007	0.0006252	7
	41	110	23.91582	5633.51	-5286.215	1	7725.316	-43.17836	-5.513867E-007	0.0006298	7
	42	112	18.60119	6546.11	-5500.655	1	8550.366	-40.04012	-5.460342E-007	0.0006416	7
	43	114	15.02404	7324.304	-5667.729	1	9261.133	-37.7336	-5.318344E-007	0.0006257	7
	44	117	12.01923	8122.21	-5846.308	1	10007.48	-35.74606	-5.503715E-007	0.0006287	7
	45	119	9.450605	8988.381	-6082.117	1	10852.79	-34.08481	-5.146227E-007	0.0006258	7
	46	122	7.512019	9861.04	-6350.313	1	11728.88	-32.78073	-5.185096E-007	0.0006253	7
	47	125	5.978954	10788.68	-6639.234	1	12667.88	-31.60768	-5.21323E-007	0.0006397	7
	48	128	4.734848	11815.36	-6947.924	1	13706.8	-30.4573	-5.287643E-007	0.0006087	7
	49	131	3.75601	12935.72	-7222.509	1	14815.45	-29.1763	-5.14995E-007	0.0006417	7
	50	134	3.004808	14077.67	-7452.071	1	15928.41	-27.89469	-5.015702E-007	0.0006051	7
	51	138	2.372217	15383.08	-7615.977	1	17165.15	-26.33945	-5.155279E-007	0.0005983	7
	52	142	1.878005	16674.74	-7658.07	1	18349.2	-24.66751	-5.118738E-007	0.0006371	7
	53	147	1.512097	17877.55	-7625.92	1	19436.09	-23.10135	-5.078903E-007	0.0005306	7
	54	153	1.201923	19127.78	-7493.068	1	20543.08	-21.39214	-5.09648E-007	0.000639	7
	55	159	0.956633	20299.19	-7274.342	1	21563.24	-19.71546	-5.265008E-007	-5.501218E-005	7
