EXPLAIN
TAG	EISPOT
TITLE	LABEL	Potentiostatic EIS	Test Identifier
DATE	LABEL	2/28/2021	Date
TIME	LABEL	3:52:18	Time
NOTES	NOTES	1	Notes...
	
PSTAT	PSTAT	REF3000-16137	Potentiostat
VDC	POTEN	0.00000E+000	T	DC Voltage (V)
FREQINIT	QUANT	3.00000E+005	Initial Freq. (Hz)
FREQFINAL	QUANT	1.00000E+000	Final Freq. (Hz)
PTSPERDEC	QUANT	1.00000E+001	Points/decade
VAC	QUANT	5.00000E+001	AC Voltage (mV rms)
AREA	QUANT	1.00000E+000	Sample Area (cm^2)
SPEED	SELECTOR	2	Optimize for:
ZGUESS	QUANT	1.00000E+003	Estimated Z (ohms)
EOC	QUANT	0	Open Circuit (V)
SEQUENCER	TOGGLE	TRUE	Run as Sequence
PSTATMODEL	IQUANT	5	Pstat Model
PSTATSECTION	LABEL	REF3000-16137	Pstat Section
PSTATSERIALNO	LABEL	16137	Pstat Serial Number
CTRLMODE	IQUANT	1	Control Mode
IESTAB	IQUANT	0	I/E Stability
CASPEED	IQUANT	1	Control Amp Speed
CONVENTION	IQUANT	1	Current Convention
ICHRANGE	IQUANT	2	Ich Range
ICHRANGEMODE	TOGGLE	F	Ich Auto Range
ICHOFFSETENABLE	TOGGLE	T	Ich Offset Enable
ICHOFFSET	QUANT	0	Ich Offset (V)
ICHFILTER	IQUANT	3	Ich Filter
VCHRANGE	IQUANT	2	Vch Range
VCHRANGEMODE	TOGGLE	F	Vch Auto Range
VCHOFFSETENABLE	TOGGLE	T	Vch Offset Enable
VCHOFFSET	QUANT	0	Vch Offset (V)
VCHFILTER	IQUANT	3	Vch Filter
ACHRANGE	IQUANT	2	Ach Range
ACHOFFSETENABLE	TOGGLE	F	Ach Offset Enable
ACHOFFSET	QUANT	0	Ach Offset (V)
ACHFILTER	IQUANT	3	Ach Filter
IERANGELOWERLIMIT	IQUANT	2	I/E Range Lower Limit
IERANGEMODE	TOGGLE	F	I/E AutoRange
IERANGE	IQUANT	11	I/E Range
POSFEEDENABLE	TOGGLE	F	Positive Feedback IR Comp
POSFEEDRESISTANCE	QUANT	0	Positive Feedback Resistance (ohm)
ACHSELECT	IQUANT	0	Ach Select
CABLEID	IQUANT	13	Cable ID
DCCALDATE	LABEL	7/31/2020	DC Calibration Date
ACCALDATE	LABEL	7/31/2020	AC Calibration Date
THERMOSELECT	IQUANT	1	Thermo Select
FRAMEWORKVERSION	QUANT	6.33	Framework Version
INSTRUMENTVERSION	LABEL	3.50	Instrument Version
COMPLIANCEVOLTAGE	IQUANT	0	Compliance Voltage
ZCURVE	TABLE
	Pt	Time	Freq	Zreal	Zimag	Zsig	Zmod	Zphz	Idc	Vdc	IERange
	#	s	Hz	ohm	ohm	V	ohm	°	A	V	#
	0	7	300046.9	24.312	-4.697737	1	24.76171	-10.93632	1.709279E-005	-6.199405E-006	11
	1	11	238359.4	25.1478	-5.827408	1	25.81416	-13.04667	1.833917E-005	0.0004498	10
	2	16	189328.1	25.94561	-7.340505	1	26.96401	-15.79721	2.91707E-005	0.0008265	10
	3	19	150421.9	26.86917	-8.894318	1	28.30303	-18.31574	7.969887E-005	0.0003826	10
	4	22	119484.4	27.91726	-10.60695	1	29.86438	-20.80391	-5.973731E-006	0.000513	10
	5	24	94921.88	29.08321	-12.48408	1	31.64941	-23.23162	2.080375E-005	0.000605	10
	6	27	75421.88	30.33986	-14.55144	1	33.64894	-25.62306	2.031325E-005	0.0005976	10
	7	30	59859.37	31.64584	-16.95602	1	35.90217	-28.18266	-2.78346E-005	0.0006707	10
	8	32	47578.12	33.08088	-19.47713	1	38.38884	-30.48844	-1.161566E-005	0.0004236	9
	9	35	37828.12	34.50081	-22.8458	1	41.37918	-33.51178	-3.75453E-006	3.586876E-005	9
	10	37	30046.88	36.01911	-26.91573	1	44.96479	-36.76938	-1.143735E-005	0.0003211	9
	11	40	23859.38	37.6735	-31.87796	1	49.35075	-40.2367	1.418234E-005	-0.0002132	9
	12	42	18984.38	39.48573	-37.88864	1	54.72359	-43.81752	-3.639079E-006	4.751299E-005	9
	13	44	15046.87	41.52774	-45.6034	1	61.67839	-47.67812	-1.148313E-005	0.00032	9
	14	47	11953.13	43.9911	-54.74023	1	70.22614	-51.21346	5.737581E-006	-0.0002253	9
	15	49	9515.62	46.81085	-66.11859	1	81.01187	-54.70215	1.031596E-005	-5.376701E-005	9
	16	51	7546.875	50.27236	-79.94605	1	94.43877	-57.83715	-1.120456E-005	0.0004066	9
	17	53	5928.309	54.60705	-98.0577	1	112.2374	-60.88713	-1.076249E-005	0.0004692	9
	18	56	4733.456	59.59403	-118.3862	1	132.5396	-63.27993	-1.116698E-005	0.0002779	9
	19	58	3796.875	65.52278	-142.5882	1	156.9224	-65.32005	-4.701181E-006	0.0004401	9
	20	60	2987.132	73.38843	-175.0985	1	189.8561	-67.26015	9.76194E-006	-0.0003137	9
	21	63	2390.625	81.72027	-211.7047	1	226.9297	-68.89288	1.510799E-005	-0.0003337	9
	22	65	1884.191	94.17377	-259.559	1	276.1151	-70.05811	9.559692E-006	-0.0003061	9
	23	67	1516.544	107.4462	-311.6359	1	329.6386	-70.97677	5.72256E-006	-0.0002404	9
	24	70	1193.986	126.1213	-382.6025	1	402.8539	-71.75568	5.629861E-006	-0.0002397	9
	25	72	946.5144	146.6544	-464.6414	1	487.2362	-72.48277	1.625365E-006	0.0003781	8
	26	75	751.7689	174.1786	-565.9376	1	592.1347	-72.8932	-1.806469E-006	0.0012642	8
	27	77	597.4265	211.0018	-689.5051	1	721.068	-72.98488	-1.993506E-007	0.0005068	8
	28	79	477.4305	255.1298	-834.5482	1	872.6751	-73.00108	-1.054907E-008	0.0006623	8
	29	82	376.6741	317.9798	-1020.652	1	1069.038	-72.69581	1.664219E-009	0.0006502	8
	30	84	298.2954	400.8159	-1242.045	1	1305.117	-72.11478	1.786202E-009	0.0006543	8
	31	86	237.7717	508.6933	-1498.989	1	1582.952	-71.25497	1.72937E-009	0.0006517	8
	32	89	189.0121	655.4113	-1806.009	1	1921.258	-70.05386	-1.971632E-009	0.0006536	8
	33	91	150.2404	852.7222	-2163.833	1	2325.792	-68.49162	4.885957E-009	0.0006503	8
	34	94	119.1737	1119.098	-2576.551	1	2809.092	-66.5228	3.662263E-009	0.000655	8
	35	96	95.0169	1457.353	-3034.7	1	3366.494	-64.3483	2.47768E-008	0.0006526	8
	36	98	75.60484	1906.239	-3524.137	1	4006.656	-61.59062	3.181899E-008	0.0006501	8
	37	101	54.50582	2764.04	-4212.135	1	5038.055	-56.72676	-5.133562E-007	0.0006139	7
	38	104	45.95588	3301.919	-4448.018	1	5539.633	-53.41221	-5.181097E-007	0.0006432	7
	39	106	37.20238	4017.065	-4798.979	1	6258.355	-50.06843	-5.150615E-007	0.0006354	7
	40	108	30.04808	4787.726	-5093.782	1	6990.632	-46.77403	-5.141528E-007	0.0006294	7
	41	111	23.91582	5651.298	-5338.985	1	7774.44	-43.37225	-5.275828E-007	0.0006325	7
	42	113	18.60119	6580.26	-5560.785	1	8615.228	-40.20018	-4.944658E-007	0.0006264	7
	43	115	15.02404	7369.478	-5720.45	1	9329.135	-37.81989	-4.927535E-007	0.000645	7
	44	118	12.01923	8173.017	-5896.04	1	10077.77	-35.8068	-5.291012E-007	0.0006288	7
	45	120	9.450605	9052.158	-6121.25	1	10927.55	-34.06734	-5.296604E-007	0.0006427	7
	46	123	7.512019	9934.85	-6392.256	1	11813.64	-32.75793	-5.056823E-007	0.000655	7
	47	125	5.978954	10868.44	-6665.717	1	12749.7	-31.52118	-5.082182E-007	0.0006354	7
	48	128	4.734848	11925.36	-6984.695	1	13820.28	-30.35755	-4.934001E-007	0.0006546	7
	49	132	3.75601	13059.6	-7274.858	1	14949.14	-29.12001	-5.077618E-007	0.0006279	7
	50	135	3.004808	14236.09	-7503.985	1	16092.73	-27.79417	-4.914715E-007	0.0006099	7
	51	139	2.372217	15538.02	-7655.037	1	17321.36	-26.22785	-4.951134E-007	0.0006246	7
	52	143	1.878005	16844.21	-7690.036	1	18516.59	-24.53854	-4.927458E-007	0.0006271	7
	53	148	1.512097	18049.32	-7641.418	1	19600.23	-22.94601	-4.879219E-007	0.0005343	7
	54	153	1.201923	19317.32	-7512.477	1	20726.7	-21.25098	-4.86554E-007	0.0006203	7
	55	159	0.956633	20518.27	-7295.922	1	21776.82	-19.57446	-5.067764E-007	-1.054093E-005	7
