EXPLAIN
TAG	EISPOT
TITLE	LABEL	Potentiostatic EIS	Test Identifier
DATE	LABEL	2/28/2021	Date
TIME	LABEL	3:55:07	Time
NOTES	NOTES	1	Notes...
	
PSTAT	PSTAT	REF3000-16137	Potentiostat
VDC	POTEN	0.00000E+000	T	DC Voltage (V)
FREQINIT	QUANT	3.00000E+005	Initial Freq. (Hz)
FREQFINAL	QUANT	1.00000E+000	Final Freq. (Hz)
PTSPERDEC	QUANT	1.00000E+001	Points/decade
VAC	QUANT	5.00000E+001	AC Voltage (mV rms)
AREA	QUANT	1.00000E+000	Sample Area (cm^2)
SPEED	SELECTOR	2	Optimize for:
ZGUESS	QUANT	1.00000E+003	Estimated Z (ohms)
EOC	QUANT	0	Open Circuit (V)
SEQUENCER	TOGGLE	TRUE	Run as Sequence
PSTATMODEL	IQUANT	5	Pstat Model
PSTATSECTION	LABEL	REF3000-16137	Pstat Section
PSTATSERIALNO	LABEL	16137	Pstat Serial Number
CTRLMODE	IQUANT	1	Control Mode
IESTAB	IQUANT	0	I/E Stability
CASPEED	IQUANT	1	Control Amp Speed
CONVENTION	IQUANT	1	Current Convention
ICHRANGE	IQUANT	2	Ich Range
ICHRANGEMODE	TOGGLE	F	Ich Auto Range
ICHOFFSETENABLE	TOGGLE	T	Ich Offset Enable
ICHOFFSET	QUANT	0	Ich Offset (V)
ICHFILTER	IQUANT	3	Ich Filter
VCHRANGE	IQUANT	2	Vch Range
VCHRANGEMODE	TOGGLE	F	Vch Auto Range
VCHOFFSETENABLE	TOGGLE	T	Vch Offset Enable
VCHOFFSET	QUANT	0	Vch Offset (V)
VCHFILTER	IQUANT	3	Vch Filter
ACHRANGE	IQUANT	2	Ach Range
ACHOFFSETENABLE	TOGGLE	F	Ach Offset Enable
ACHOFFSET	QUANT	0	Ach Offset (V)
ACHFILTER	IQUANT	3	Ach Filter
IERANGELOWERLIMIT	IQUANT	2	I/E Range Lower Limit
IERANGEMODE	TOGGLE	F	I/E AutoRange
IERANGE	IQUANT	11	I/E Range
POSFEEDENABLE	TOGGLE	F	Positive Feedback IR Comp
POSFEEDRESISTANCE	QUANT	0	Positive Feedback Resistance (ohm)
ACHSELECT	IQUANT	0	Ach Select
CABLEID	IQUANT	13	Cable ID
DCCALDATE	LABEL	7/31/2020	DC Calibration Date
ACCALDATE	LABEL	7/31/2020	AC Calibration Date
THERMOSELECT	IQUANT	1	Thermo Select
FRAMEWORKVERSION	QUANT	6.33	Framework Version
INSTRUMENTVERSION	LABEL	3.50	Instrument Version
COMPLIANCEVOLTAGE	IQUANT	0	Compliance Voltage
ZCURVE	TABLE
	Pt	Time	Freq	Zreal	Zimag	Zsig	Zmod	Zphz	Idc	Vdc	IERange
	#	s	Hz	ohm	ohm	V	ohm	°	A	V	#
	0	7	300046.9	24.37457	-4.692338	1	24.82212	-10.89668	-6.146858E-005	-0.0002431	11
	1	11	238359.4	25.12307	-5.82333	1	25.78914	-13.05025	-0.0001042	0.0004147	10
	2	14	189328.1	25.90963	-7.336813	1	26.92838	-15.8105	-0.0001027	0.0005345	10
	3	18	150421.9	26.84942	-8.97722	1	28.31046	-18.48758	2.793416E-006	0.0007113	10
	4	20	119484.4	27.91865	-10.64256	1	29.87834	-20.86681	-7.295672E-006	0.0007676	10
	5	23	94921.88	29.10522	-12.52366	1	31.68526	-23.28168	2.45568E-005	0.0006252	10
	6	25	75421.88	30.36862	-14.60263	1	33.69703	-25.68039	2.598059E-005	0.0006289	10
	7	28	59859.37	31.68304	-16.9378	1	35.92637	-28.12902	-2.727988E-005	0.0007266	10
	8	30	47578.12	33.10806	-19.54754	1	38.44802	-30.5583	1.224455E-005	-0.0003255	9
	9	33	37828.12	34.55613	-22.89149	1	41.45052	-33.52223	1.29877E-005	-0.0001646	9
	10	36	30046.88	36.04811	-26.93173	1	44.9976	-36.7636	-9.770286E-006	0.0005084	9
	11	38	23859.38	37.68027	-31.93287	1	49.39141	-40.28024	-8.333172E-006	0.0005156	9
	12	40	18984.38	39.48263	-38.06311	1	54.84231	-43.95129	4.731805E-006	-0.0001659	9
	13	43	15046.87	41.59921	-45.5876	1	61.71485	-47.61919	-1.118159E-005	0.0004766	9
	14	45	11953.13	44.072	-54.87667	1	70.38317	-51.2317	-3.704466E-006	4.248169E-005	9
	15	47	9515.62	46.81691	-66.3351	1	81.19217	-54.78694	-1.255172E-005	0.0004249	9
	16	50	7546.875	50.46558	-80.17879	1	94.73866	-57.81316	9.63617E-006	-0.0003111	9
	17	52	5928.309	54.788	-98.2339	1	112.4795	-60.85029	-3.662281E-006	1.748994E-005	9
	18	54	4733.456	59.66829	-118.8301	1	132.9695	-63.33735	-8.069669E-007	0.0003026	9
	19	57	3796.875	65.36809	-143.3563	1	157.5564	-65.48781	-1.278115E-005	0.0004224	9
	20	59	2987.132	73.63153	-175.3057	1	190.1412	-67.21672	5.678679E-006	-0.0002434	9
	21	61	2390.625	83.47212	-211.1732	1	227.0721	-68.43221	-1.064062E-005	0.0002801	9
	22	64	1884.191	94.44707	-259.5135	1	276.1657	-70.00158	-1.112949E-005	0.0003406	9
	23	66	1516.544	106.6396	-312.2411	1	329.9493	-71.14343	-6.924031E-007	0.0003083	9
	24	68	1193.986	124.4484	-383.5036	1	403.1903	-72.02155	4.204581E-006	0.0001628	9
	25	71	946.5144	146.8101	-465.6402	1	488.2356	-72.50063	6.041807E-007	0.0002956	8
	26	73	751.7689	174.9455	-567.1777	1	593.5457	-72.85766	2.716128E-006	5.87319E-005	8
	27	75	597.4265	210.7681	-690.5817	1	722.0292	-73.02761	9.115066E-007	0.0006267	8
	28	78	477.4305	256.3108	-835.3393	1	873.7774	-72.94219	2.79461E-008	0.0006538	8
	29	80	376.6741	319.4409	-1021.396	1	1070.183	-72.63295	2.662769E-008	0.0006573	8
	30	82	298.2954	402.7398	-1242.599	1	1306.236	-72.04193	3.656633E-008	0.0006526	8
	31	85	237.7717	511.2833	-1499.307	1	1584.088	-71.16996	3.538203E-008	0.0006501	8
	32	87	189.0121	658.9653	-1805.726	1	1922.208	-69.95141	3.545703E-008	0.000647	8
	33	89	150.2404	857.5392	-2162.174	1	2326.02	-68.36624	3.738981E-008	0.0006461	8
	34	92	119.1737	1126.111	-2572.115	1	2807.829	-66.35546	4.597323E-008	0.0006452	8
	35	94	95.0169	1472.47	-3015.606	1	3355.898	-63.97452	4.795848E-008	0.0006528	8
	36	97	75.60484	1922.832	-3493.284	1	3987.52	-61.17	4.504682E-008	0.0006474	8
	37	99	54.50582	2773.81	-4167.201	1	5005.955	-56.35111	-4.885691E-007	0.0006257	7
	38	102	45.95588	3303.279	-4491.221	1	5575.188	-53.66563	-4.911752E-007	0.000636	7
	39	104	37.20238	4028.671	-4850.36	1	6305.25	-50.28724	-4.844666E-007	0.0006326	7
	40	107	30.04808	4818.014	-5148.088	1	7050.962	-46.89693	-4.826119E-007	0.0006261	7
	41	109	23.91582	5683.184	-5391.113	1	7833.433	-43.48925	-4.813201E-007	0.0006346	7
	42	111	18.60119	6625.899	-5605.009	1	8678.633	-40.22869	-4.883719E-007	0.0006327	7
	43	114	15.02404	7413.935	-5770.415	1	9394.898	-37.89434	-4.943903E-007	0.0006342	7
	44	116	12.01923	8221.86	-5940.546	1	10143.42	-35.84926	-4.99561E-007	0.0006335	7
	45	119	9.450605	9111.318	-6169.579	1	11003.63	-34.10324	-4.92827E-007	0.0006401	7
	46	121	7.512019	9985.53	-6440.737	1	11882.5	-32.82231	-4.806553E-007	0.0006426	7
	47	124	5.978954	10918.25	-6726.857	1	12824.15	-31.63769	-4.807805E-007	0.0006339	7
	48	127	4.734848	11952.68	-7042.504	1	13873.12	-30.50654	-4.601287E-007	0.0006601	7
	49	130	3.75601	13076.69	-7316.95	1	14984.57	-29.22883	-4.779565E-007	0.0006162	7
	50	133	3.004808	14233.79	-7542.347	1	16108.63	-27.91868	-4.790804E-007	0.0006555	7
	51	137	2.372217	15547.23	-7689.483	1	17344.87	-26.31647	-4.633576E-007	0.000709	7
	52	141	1.878005	16846.06	-7750.173	1	18543.33	-24.70519	-4.70397E-007	0.0006044	7
	53	146	1.512097	18073.7	-7726.431	1	19655.95	-23.1465	-4.667175E-007	0.0006613	7
	54	152	1.201923	19379.16	-7605.651	1	20818.21	-21.42829	-4.618971E-007	0.0006003	7
	55	158	0.956633	20630.48	-7398.116	1	21916.86	-19.7279	-4.88133E-007	-7.935612E-006	7
