EXPLAIN
TAG	EISPOT
TITLE	LABEL	Potentiostatic EIS	Test Identifier
DATE	LABEL	2/28/2021	Date
TIME	LABEL	0:54:00	Time
NOTES	NOTES	1	Notes...
	
PSTAT	PSTAT	REF3000-16137	Potentiostat
VDC	POTEN	0.00000E+000	T	DC Voltage (V)
FREQINIT	QUANT	3.00000E+005	Initial Freq. (Hz)
FREQFINAL	QUANT	1.00000E+000	Final Freq. (Hz)
PTSPERDEC	QUANT	1.00000E+001	Points/decade
VAC	QUANT	5.00000E+001	AC Voltage (mV rms)
AREA	QUANT	1.00000E+000	Sample Area (cm^2)
SPEED	SELECTOR	2	Optimize for:
ZGUESS	QUANT	1.00000E+003	Estimated Z (ohms)
EOC	QUANT	0	Open Circuit (V)
SEQUENCER	TOGGLE	TRUE	Run as Sequence
PSTATMODEL	IQUANT	5	Pstat Model
PSTATSECTION	LABEL	REF3000-16137	Pstat Section
PSTATSERIALNO	LABEL	16137	Pstat Serial Number
CTRLMODE	IQUANT	1	Control Mode
IESTAB	IQUANT	0	I/E Stability
CASPEED	IQUANT	1	Control Amp Speed
CONVENTION	IQUANT	1	Current Convention
ICHRANGE	IQUANT	2	Ich Range
ICHRANGEMODE	TOGGLE	F	Ich Auto Range
ICHOFFSETENABLE	TOGGLE	T	Ich Offset Enable
ICHOFFSET	QUANT	0	Ich Offset (V)
ICHFILTER	IQUANT	3	Ich Filter
VCHRANGE	IQUANT	2	Vch Range
VCHRANGEMODE	TOGGLE	F	Vch Auto Range
VCHOFFSETENABLE	TOGGLE	T	Vch Offset Enable
VCHOFFSET	QUANT	0	Vch Offset (V)
VCHFILTER	IQUANT	3	Vch Filter
ACHRANGE	IQUANT	2	Ach Range
ACHOFFSETENABLE	TOGGLE	F	Ach Offset Enable
ACHOFFSET	QUANT	0	Ach Offset (V)
ACHFILTER	IQUANT	3	Ach Filter
IERANGELOWERLIMIT	IQUANT	2	I/E Range Lower Limit
IERANGEMODE	TOGGLE	F	I/E AutoRange
IERANGE	IQUANT	11	I/E Range
POSFEEDENABLE	TOGGLE	F	Positive Feedback IR Comp
POSFEEDRESISTANCE	QUANT	0	Positive Feedback Resistance (ohm)
ACHSELECT	IQUANT	0	Ach Select
CABLEID	IQUANT	13	Cable ID
DCCALDATE	LABEL	7/31/2020	DC Calibration Date
ACCALDATE	LABEL	7/31/2020	AC Calibration Date
THERMOSELECT	IQUANT	1	Thermo Select
FRAMEWORKVERSION	QUANT	6.33	Framework Version
INSTRUMENTVERSION	LABEL	3.50	Instrument Version
COMPLIANCEVOLTAGE	IQUANT	0	Compliance Voltage
ZCURVE	TABLE
	Pt	Time	Freq	Zreal	Zimag	Zsig	Zmod	Zphz	Idc	Vdc	IERange
	#	s	Hz	ohm	ohm	V	ohm	°	A	V	#
	0	7	300046.9	29.36806	-5.42147	1	29.86428	-10.45929	6.96881E-005	-0.0002363	11
	1	11	238359.4	30.29137	-6.576483	1	30.99706	-12.24924	6.499919E-005	0.0003642	10
	2	14	189328.1	31.16654	-8.148357	1	32.21411	-14.65178	-2.812208E-005	0.0006267	10
	3	17	150421.9	32.23123	-9.86926	1	33.70837	-17.02469	-1.748501E-005	0.0006929	10
	4	20	119484.4	33.36606	-11.7333	1	35.36897	-19.37441	-1.451944E-005	0.0007732	10
	5	22	94921.88	34.8431	-13.44752	1	37.34806	-21.10384	6.397888E-006	0.0001053	9
	6	25	75421.88	36.17664	-15.75015	1	39.45652	-23.52677	-8.536891E-006	0.0005234	9
	7	27	59859.37	37.69723	-18.43854	1	41.965	-26.06427	-5.447524E-006	0.0004138	9
	8	30	47578.12	39.2369	-21.46874	1	44.7263	-28.68557	1.830052E-006	-0.0001654	9
	9	32	37828.12	40.86444	-25.11434	1	47.96491	-31.57392	-1.219201E-005	0.0005035	9
	10	35	30046.88	42.55193	-29.43446	1	51.74026	-34.67278	-1.095346E-005	0.0003758	9
	11	37	23859.38	44.37288	-34.87137	1	56.43549	-38.16279	1.549944E-005	-0.0001816	9
	12	40	18984.38	46.29269	-41.40772	1	62.10968	-41.81188	-3.854374E-006	2.370087E-005	9
	13	42	15046.87	48.39647	-49.79377	1	69.43802	-45.81529	1.816571E-005	-0.0003106	9
	14	44	11953.13	50.96807	-59.88835	1	78.64069	-49.6005	1.1274E-005	-0.0003666	9
	15	47	9515.62	53.84208	-72.26171	1	90.11506	-53.31027	7.307842E-006	-0.000289	9
	16	49	7546.875	57.12804	-87.99841	1	104.9158	-57.00861	1.513713E-005	-0.0003908	9
	17	51	5928.309	61.53158	-108.0074	1	124.305	-60.32992	-1.108793E-005	0.0005158	9
	18	53	4733.456	66.43516	-130.8133	1	146.7165	-63.07569	6.731717E-006	-0.0002747	9
	19	56	3796.875	71.84984	-158.4886	1	174.0145	-65.61312	1.496683E-005	-0.0003867	9
	20	58	2987.132	79.80825	-194.9382	1	210.6425	-67.73567	1.742991E-005	-0.0003182	9
	21	60	2390.625	89.6263	-235.4112	1	251.8955	-69.15706	-1.097598E-005	0.000387	9
	22	63	1884.191	99.8098	-290.9642	1	307.6071	-71.06643	-8.278567E-006	0.0001578	9
	23	65	1516.544	111.522	-351.0154	1	368.3055	-72.3743	5.282831E-006	0.0001928	9
	24	67	1193.986	128.3151	-430.2357	1	448.9627	-73.39312	1.186831E-006	0.0002083	8
	25	70	946.5144	148.9344	-526.7744	1	547.4237	-74.21286	-1.640414E-006	0.0010085	8
	26	72	751.7689	171.9229	-645.0943	1	667.6108	-75.07706	-2.133769E-006	0.0012957	8
	27	74	597.4265	200.8027	-789.3439	1	814.4849	-75.72717	2.73411E-006	-0.0001171	8
	28	77	477.4305	235.1961	-959.186	1	987.601	-76.22269	5.42063E-007	0.000659	8
	29	79	376.6741	280.4328	-1180.726	1	1213.572	-76.63931	5.502924E-007	0.0006518	8
	30	81	298.2954	335.6225	-1448.739	1	1487.107	-76.95665	5.487126E-007	0.0006619	8
	31	84	237.7717	401.9323	-1767.234	1	1812.364	-77.18684	5.473105E-007	0.0006564	8
	32	86	189.0121	484.628	-2160.802	1	2214.481	-77.3588	5.750029E-007	0.0006372	8
	33	89	150.2404	587.2798	-2641.542	1	2706.038	-77.46561	5.398171E-007	0.0006545	8
	34	91	119.1737	716.2462	-3235.682	1	3314.008	-77.51835	5.437806E-007	0.0006584	8
	35	93	95.0169	872.2672	-3945.935	1	4041.194	-77.53496	5.476516E-007	0.0006611	8
	36	96	75.60484	1072.666	-4830.489	1	4948.155	-77.47997	4.122918E-008	0.0006341	7
	37	98	54.50582	1452.167	-6433.382	1	6595.24	-77.28016	4.353167E-008	0.0006262	7
	38	101	45.95588	1709.966	-7474.171	1	7667.282	-77.11346	5.092783E-008	0.0006142	7
	39	103	37.20238	2108.234	-8986.791	1	9230.768	-76.79758	4.072111E-008	0.0006374	7
	40	106	30.04808	2624.154	-10818.55	1	11132.26	-76.36563	4.37809E-008	0.000624	7
	41	108	23.91582	3354.603	-13201.55	1	13621.1	-75.74252	4.309495E-008	0.0006304	7
	42	110	18.60119	4438.812	-16354.72	1	16946.38	-74.81523	3.567124E-008	0.0006418	7
	43	113	15.02404	5670.146	-19584.94	1	20389.22	-73.85344	4.465984E-008	0.0006408	7
	44	115	12.01923	7367.749	-23544.28	1	24670.16	-72.62345	4.814825E-008	0.0006335	7
	45	117	9.450605	9816.84	-28532.25	1	30173.82	-71.01364	4.410871E-008	0.0006232	7
	46	120	7.512019	12840.41	-34122.92	1	36458.88	-69.37875	4.580857E-008	0.000618	7
	47	123	5.978954	16913.9	-40345.68	1	43747.61	-67.25537	-1.017782E-008	0.000689	6
	48	126	4.734848	22165.72	-47397.36	1	52324.27	-64.93652	-1.066535E-008	0.0006544	6
	49	129	3.75601	28735.85	-55059.8	1	62107.41	-62.43983	-4.149988E-009	0.0006956	6
	50	135	3.004808	36363.18	-62788.21	1	72557.84	-59.92314	-4.605208E-009	0.0006737	6
	51	141	2.372217	45921.74	-71123.39	1	84660.16	-57.15117	-4.104856E-009	0.0006313	6
	52	145	1.878005	56701.91	-79586.32	1	97719.4	-54.53172	-2.073007E-009	0.0006702	6
	53	150	1.512097	67508.89	-87380.56	1	110421.1	-52.31087	-3.8368E-009	0.0007354	6
	54	155	1.201923	79889.43	-95772	1	124718.1	-50.16641	-3.461844E-009	0.0006772	6
	55	161	0.956633	92734.28	-104744.1	1	139896.3	-48.48022	-9.894658E-009	3.233952E-005	6
