EXPLAIN
TAG	EISPOT
TITLE	LABEL	Potentiostatic EIS	Test Identifier
DATE	LABEL	2/28/2021	Date
TIME	LABEL	2:23:04	Time
NOTES	NOTES	1	Notes...
	
PSTAT	PSTAT	REF3000-16137	Potentiostat
VDC	POTEN	0.00000E+000	T	DC Voltage (V)
FREQINIT	QUANT	3.00000E+005	Initial Freq. (Hz)
FREQFINAL	QUANT	1.00000E+000	Final Freq. (Hz)
PTSPERDEC	QUANT	1.00000E+001	Points/decade
VAC	QUANT	5.00000E+001	AC Voltage (mV rms)
AREA	QUANT	1.00000E+000	Sample Area (cm^2)
SPEED	SELECTOR	2	Optimize for:
ZGUESS	QUANT	1.00000E+003	Estimated Z (ohms)
EOC	QUANT	0	Open Circuit (V)
SEQUENCER	TOGGLE	TRUE	Run as Sequence
PSTATMODEL	IQUANT	5	Pstat Model
PSTATSECTION	LABEL	REF3000-16137	Pstat Section
PSTATSERIALNO	LABEL	16137	Pstat Serial Number
CTRLMODE	IQUANT	1	Control Mode
IESTAB	IQUANT	0	I/E Stability
CASPEED	IQUANT	1	Control Amp Speed
CONVENTION	IQUANT	1	Current Convention
ICHRANGE	IQUANT	2	Ich Range
ICHRANGEMODE	TOGGLE	F	Ich Auto Range
ICHOFFSETENABLE	TOGGLE	T	Ich Offset Enable
ICHOFFSET	QUANT	0	Ich Offset (V)
ICHFILTER	IQUANT	3	Ich Filter
VCHRANGE	IQUANT	2	Vch Range
VCHRANGEMODE	TOGGLE	F	Vch Auto Range
VCHOFFSETENABLE	TOGGLE	T	Vch Offset Enable
VCHOFFSET	QUANT	0	Vch Offset (V)
VCHFILTER	IQUANT	3	Vch Filter
ACHRANGE	IQUANT	2	Ach Range
ACHOFFSETENABLE	TOGGLE	F	Ach Offset Enable
ACHOFFSET	QUANT	0	Ach Offset (V)
ACHFILTER	IQUANT	3	Ach Filter
IERANGELOWERLIMIT	IQUANT	2	I/E Range Lower Limit
IERANGEMODE	TOGGLE	F	I/E AutoRange
IERANGE	IQUANT	11	I/E Range
POSFEEDENABLE	TOGGLE	F	Positive Feedback IR Comp
POSFEEDRESISTANCE	QUANT	0	Positive Feedback Resistance (ohm)
ACHSELECT	IQUANT	0	Ach Select
CABLEID	IQUANT	13	Cable ID
DCCALDATE	LABEL	7/31/2020	DC Calibration Date
ACCALDATE	LABEL	7/31/2020	AC Calibration Date
THERMOSELECT	IQUANT	1	Thermo Select
FRAMEWORKVERSION	QUANT	6.33	Framework Version
INSTRUMENTVERSION	LABEL	3.50	Instrument Version
COMPLIANCEVOLTAGE	IQUANT	0	Compliance Voltage
ZCURVE	TABLE
	Pt	Time	Freq	Zreal	Zimag	Zsig	Zmod	Zphz	Idc	Vdc	IERange
	#	s	Hz	ohm	ohm	V	ohm	°	A	V	#
	0	15	300046.9	1791.176	-4011.976	1	4393.662	-65.94128	1.983906E-005	-0.0022329	9
	1	41	238359.4	2536.899	-4522.733	1	5185.65	-60.71099	2.5403E-005	-0.0015598	9
	2	58	189328.1	3138.276	-4454.608	1	5449.065	-54.83527	5.247459E-005	0.0001294	9
	3	72	150421.9	4457.465	-5715.364	1	7248.06	-52.049	2.366427E-007	-0.0018548	9
	4	79	119484.4	5894.921	-5611.862	1	8138.986	-43.59085	4.114971E-005	-0.0184743	8
	5	87	94921.88	7064.619	-6056.378	1	9305.297	-40.60593	-1.537445E-005	5.06718E-005	9
	6	96	75421.88	8534.488	-5548.683	1	10179.65	-33.02984	-2.562171E-005	0.0074605	8
	7	104	59859.37	9702.54	-5211.928	1	11013.79	-28.24342	-9.368513E-006	-0.001967	8
	8	113	47578.12	11771.67	-3802.565	1	12370.6	-17.90185	3.735315E-006	-0.023941	7
	9	117	37828.12	12358.62	-3323.689	1	12797.75	-15.05279	1.409192E-007	0.0164348	7
	10	124	30046.88	12822.81	-2801.579	1	13125.29	-12.32454	-2.856895E-006	-0.00616	7
	11	129	23859.38	13196.34	-2479.446	1	13427.25	-10.64118	5.430302E-006	-0.0257096	7
	12	133	18984.38	13489.38	-2119.623	1	13654.9	-8.930021	-6.242309E-006	0.01044	7
	13	137	15046.87	13848	-1871.159	1	13973.84	-7.69527	4.394058E-006	0.0006198	7
	14	142	11953.13	14097.97	-1673.87	1	14196.99	-6.771101	4.505525E-006	0.0006864	7
	15	146	9515.62	14311.74	-1543.901	1	14394.77	-6.157063	6.174478E-006	-0.008461	7
	16	150	7546.875	14493.57	-1451.197	1	14566.04	-5.717798	7.428317E-006	-0.0227738	7
	17	154	5928.309	14938.18	-1338.349	1	14998.02	-5.119604	-4.851108E-006	0.0023324	7
	18	159	4733.456	15063.46	-1505.495	1	15138.51	-5.707388	3.672587E-006	-0.0239492	7
	19	163	3796.875	15311.23	-1544.02	1	15388.89	-5.758373	4.456291E-006	0.0005426	7
	20	167	2987.132	15562.07	-1568.614	1	15640.92	-5.755817	-7.020481E-006	0.0174391	7
	21	171	2390.625	15865.27	-1787.614	1	15965.66	-6.428669	-6.447525E-007	-0.0137888	7
	22	176	1884.191	16275.69	-2270.457	1	16433.29	-7.941508	2.389316E-006	0.0092689	7
	23	180	1516.544	16645.35	-2328.653	1	16807.44	-7.963887	-5.31999E-006	0.0256209	7
	24	184	1193.986	17124.5	-2758.378	1	17345.24	-9.150483	-6.414488E-006	0.0246948	7
	25	189	946.5144	17475	-3358.045	1	17794.72	-10.87752	4.47849E-006	0.0006625	7
	26	191	751.7689	17846.95	-3824.097	1	18252.05	-12.09399	2.419001E-006	0.0091942	7
	27	194	597.4265	18265.66	-4266.092	1	18757.23	-13.14623	-5.348409E-006	0.0256177	7
	28	197	477.4305	18872.94	-5206.242	1	19577.87	-15.42192	-6.592671E-008	0.0006643	7
	29	199	376.6741	19502.07	-6117.695	1	20439.1	-17.41636	-6.731958E-008	0.0006556	7
	30	201	298.2954	20219.31	-7163.599	1	21450.82	-19.50897	-5.987226E-008	0.0005784	7
	31	204	237.7717	20996.22	-8340.698	1	22592.22	-21.66533	-5.920787E-008	0.0006196	7
	32	206	189.0121	21881.34	-9716.85	1	23941.81	-23.94458	-6.221524E-008	0.0006043	7
	33	208	150.2404	22870.12	-11334.82	1	25524.9	-26.36379	-5.888346E-008	0.0005683	7
	34	211	119.1737	23932.22	-13216.6	1	27339.16	-28.90972	-5.862567E-008	0.0006235	7
	35	213	95.0169	25016.67	-15409.22	1	29381.59	-31.63132	-6.031139E-008	0.0006425	7
	36	216	75.60484	26170.25	-18085.27	1	31811.3	-34.64688	-6.278798E-008	0.000661	7
	37	218	54.50582	27726.33	-22993.33	1	36020.03	-39.66877	-5.847764E-008	0.0005733	7
	38	221	45.95588	28813.66	-26230.81	1	38965.15	-42.31348	-7.63678E-009	0.0006656	6
	39	223	37.20238	29965.11	-31057.25	1	43156.23	-46.02533	-6.654022E-009	0.0006556	6
	40	226	30.04808	31229.88	-37043.62	1	48451.37	-49.86721	-6.443513E-009	0.0006439	6
	41	228	23.91582	32739.93	-44952.03	1	55611.04	-53.93301	-6.588633E-009	0.0006256	6
	42	231	18.60119	34516.91	-56059.52	1	65833.78	-58.3786	-8.591547E-009	0.0007077	6
	43	233	15.02404	36351.78	-67585.99	1	76741.89	-61.72599	-7.283665E-009	0.0006992	6
	44	235	12.01923	38597.53	-82526.44	1	91106.43	-64.93456	-6.478658E-009	0.0006154	6
	45	238	9.450605	41338.67	-102654.6	1	110665.5	-68.06553	-7.050513E-009	0.0006827	6
	46	240	7.512019	44723.88	-126388.6	1	134068.2	-70.51315	-6.319343E-009	0.0006426	6
	47	243	5.978954	48726.98	-155807.5	1	163249.1	-72.63353	-6.531327E-009	0.0006301	6
	48	248	4.734848	53640.67	-193137	1	200447.6	-74.47823	-7.100258E-009	0.0006681	6
	49	251	3.75601	59575.01	-239286.3	1	246591	-76.01934	-6.619101E-009	0.0006237	6
	50	257	3.004808	66648.55	-294139.3	1	301595.7	-77.23302	-6.28863E-009	0.0006601	6
	51	263	2.372217	75957.76	-365838.6	1	373640.8	-78.27054	-6.724172E-009	0.0006785	6
	52	267	1.878005	87615.97	-456244.5	1	464581.1	-79.12941	-8.628501E-010	0.0006428	5
	53	272	1.512097	99340.8	-556648.2	1	565443	-79.88138	-6.32251E-010	0.000616	5
	54	277	1.201923	116294.2	-691133.1	1	700848.9	-80.44854	-7.976902E-010	0.0006214	5
	55	284	0.956633	136846.3	-854978.3	1	865860.8	-80.90647	-8.020545E-010	3.369551E-006	5
