EXPLAIN
TAG	EISPOT
TITLE	LABEL	Potentiostatic EIS	Test Identifier
DATE	LABEL	2/28/2021	Date
TIME	LABEL	2:50:13	Time
NOTES	NOTES	1	Notes...
	
PSTAT	PSTAT	REF3000-16137	Potentiostat
VDC	POTEN	0.00000E+000	T	DC Voltage (V)
FREQINIT	QUANT	3.00000E+005	Initial Freq. (Hz)
FREQFINAL	QUANT	1.00000E+000	Final Freq. (Hz)
PTSPERDEC	QUANT	1.00000E+001	Points/decade
VAC	QUANT	5.00000E+001	AC Voltage (mV rms)
AREA	QUANT	1.00000E+000	Sample Area (cm^2)
SPEED	SELECTOR	2	Optimize for:
ZGUESS	QUANT	1.00000E+003	Estimated Z (ohms)
EOC	QUANT	0	Open Circuit (V)
SEQUENCER	TOGGLE	TRUE	Run as Sequence
PSTATMODEL	IQUANT	5	Pstat Model
PSTATSECTION	LABEL	REF3000-16137	Pstat Section
PSTATSERIALNO	LABEL	16137	Pstat Serial Number
CTRLMODE	IQUANT	1	Control Mode
IESTAB	IQUANT	0	I/E Stability
CASPEED	IQUANT	1	Control Amp Speed
CONVENTION	IQUANT	1	Current Convention
ICHRANGE	IQUANT	2	Ich Range
ICHRANGEMODE	TOGGLE	F	Ich Auto Range
ICHOFFSETENABLE	TOGGLE	T	Ich Offset Enable
ICHOFFSET	QUANT	0	Ich Offset (V)
ICHFILTER	IQUANT	3	Ich Filter
VCHRANGE	IQUANT	2	Vch Range
VCHRANGEMODE	TOGGLE	F	Vch Auto Range
VCHOFFSETENABLE	TOGGLE	T	Vch Offset Enable
VCHOFFSET	QUANT	0	Vch Offset (V)
VCHFILTER	IQUANT	3	Vch Filter
ACHRANGE	IQUANT	2	Ach Range
ACHOFFSETENABLE	TOGGLE	F	Ach Offset Enable
ACHOFFSET	QUANT	0	Ach Offset (V)
ACHFILTER	IQUANT	3	Ach Filter
IERANGELOWERLIMIT	IQUANT	2	I/E Range Lower Limit
IERANGEMODE	TOGGLE	F	I/E AutoRange
IERANGE	IQUANT	11	I/E Range
POSFEEDENABLE	TOGGLE	F	Positive Feedback IR Comp
POSFEEDRESISTANCE	QUANT	0	Positive Feedback Resistance (ohm)
ACHSELECT	IQUANT	0	Ach Select
CABLEID	IQUANT	13	Cable ID
DCCALDATE	LABEL	7/31/2020	DC Calibration Date
ACCALDATE	LABEL	7/31/2020	AC Calibration Date
THERMOSELECT	IQUANT	1	Thermo Select
FRAMEWORKVERSION	QUANT	6.33	Framework Version
INSTRUMENTVERSION	LABEL	3.50	Instrument Version
COMPLIANCEVOLTAGE	IQUANT	0	Compliance Voltage
ZCURVE	TABLE
	Pt	Time	Freq	Zreal	Zimag	Zsig	Zmod	Zphz	Idc	Vdc	IERange
	#	s	Hz	ohm	ohm	V	ohm	°	A	V	#
	0	23	300046.9	-81.9922	-4812.094	1	4812.792	-90.97616	5.328771E-005	6.70073E-005	9
	1	39	238359.4	22.73574	-6009.397	1	6009.44	-89.78323	8.823086E-005	-0.0035064	9
	2	66	189328.1	274.1734	-7449.038	1	7454.082	-87.89209	9.547057E-007	0.0017102	9
	3	76	150421.9	689.1393	-9738.21	1	9762.57	-85.95213	1.32414E-006	0.0016262	9
	4	84	119484.4	449.2754	-11766.58	1	11775.15	-87.81338	2.492781E-005	0.0085505	8
	5	92	94921.88	588.9352	-14487.78	1	14499.75	-87.67218	1.657472E-005	-0.0092671	8
	6	100	75421.88	672.3495	-18340.31	1	18352.63	-87.9005	1.659745E-005	-0.0092806	8
	7	108	59859.37	808.1761	-22678.56	1	22692.96	-87.95906	-2.280841E-006	0.0078852	8
	8	115	47578.12	3829.55	-30110.39	1	30352.95	-82.75183	2.741205E-006	0.0086984	7
	9	122	37828.12	4272.063	-37042.24	1	37287.77	-83.42117	4.342794E-007	0.0163812	7
	10	129	30046.88	4454.737	-46238.96	1	46453.06	-84.49702	-6.533925E-006	0.026	7
	11	137	23859.38	5030.156	-57924.25	1	58142.25	-85.03687	4.415334E-007	0.0163991	7
	12	142	18984.38	5231.958	-72411.62	1	72600.38	-85.86739	3.410388E-006	-0.0246038	7
	13	147	15046.87	1215.294	-92136.51	1	92144.52	-89.2443	-2.041633E-005	0.0028396	8
	14	155	11953.13	5315.898	-104404	1	104539.2	-87.08521	2.703912E-005	-0.0073447	8
	15	164	9515.62	5639.821	-148835.6	1	148942.4	-87.82993	-1.59073E-005	0.0006563	8
	16	172	7546.875	4222.749	-179707	1	179756.6	-88.65392	7.761578E-006	-0.0245566	7
	17	179	5928.309	4502.611	-249886.1	1	249926.6	-88.96772	7.734558E-006	-0.0244672	7
	18	185	4733.456	1882.836	-251791.3	1	251798.3	-89.57156	2.272724E-005	-0.0096291	8
	19	193	3796.875	30348.49	-342949.5	1	344289.7	-84.94292	2.198304E-005	-0.009448	8
	20	202	2987.132	-11960.98	-354994.3	1	355195.7	-91.92976	-3.341933E-006	-0.0052761	7
	21	210	2390.625	48906.48	-586751.1	1	588785.8	-85.23534	5.872499E-007	-0.0279821	6
	22	216	1884.191	49620.19	-705940.1	1	707681.9	-85.97932	6.152877E-007	-0.0072361	6
	23	222	1516.544	65062.34	-893379.6	1	895745.6	-85.83466	-4.761495E-008	-0.0150809	6
	24	227	1193.986	237618.4	-977797	1	1006255	-76.34109	5.433419E-006	-0.0269202	7
	25	235	946.5144	423654.2	-838198.3	1	939180.1	-63.1864	6.930997E-006	-0.0271227	7
	26	241	751.7689	899392.4	-125971.7	1	908171.5	-7.973158	-7.314353E-006	0.0236916	7
	27	246	597.4265	-553021.7	-460655.6	1	719747.6	-140.2064	6.637833E-006	-0.0099252	7
	28	252	477.4305	151878.6	-2805375	1	2809484	-86.90112	-6.575602E-008	0.0006653	7
	29	258	376.6741	652593.4	-3642718	1	3700712	-79.8432	-6.566372E-010	0.0007015	5
	30	262	298.2954	835003.6	-4539059	1	4615224	-79.57643	-6.507465E-010	0.0006082	5
	31	266	237.7717	931066.9	-5575056	1	5652268	-80.51877	-7.218184E-010	0.0005986	5
	32	270	189.0121	1262856	-7003376	1	7116325	-79.77821	-7.311933E-010	0.0006631	5
	33	274	150.2404	1349802	-8803975	1	8906848	-81.28344	-7.704165E-010	0.0006761	5
	34	277	119.1737	2956283	-9.629021E+006	1	1.007262E+007	-72.93257	-6.560947E-010	0.0006063	5
	35	280	95.0169	2769365	-1.320736E+007	1	1.349458E+007	-78.15759	-6.93186E-010	0.0006978	5
	36	282	75.60484	2754079	-1.697628E+007	1	1.719823E+007	-80.78513	-8.560903E-010	0.0006983	5
	37	285	54.50582	9462403	-2.26075E+007	1	2.450788E+007	-67.28818	-7.497728E-010	0.0006256	5
	38	288	45.95588	1.416247E+007	-2.517332E+007	1	2.888376E+007	-60.63796	-6.115844E-010	0.0006038	5
	39	292	37.20238	1.221727E+007	-2.594794E+007	1	2.868026E+007	-64.78717	-6.703463E-010	0.0006959	5
	40	296	30.04808	2.035482E+007	-3.37447E+007	1	3.940842E+007	-58.9016	-7.385084E-010	0.000697	5
	41	300	23.91582	3.061949E+007	-3.398521E+007	1	4.574437E+007	-47.98225	-1.027888E-010	0.0006117	4
	42	304	18.60119	2.101808E+007	-2.61887E+007	1	3.357987E+007	-51.25077	-4.494843E-010	0.0007	4
	43	307	15.02404	4.298846E+007	-4.653241E+007	1	6.33504E+007	-47.26704	-6.771513E-010	0.000602	5
	44	311	12.01923	5.527612E+007	-4.708034E+007	1	7.26086E+007	-40.42204	-5.480705E-011	0.0006292	4
	45	315	9.450605	6.72347E+007	-4.984018E+007	1	8.369318E+007	-36.54905	-3.591282E-011	0.0006266	4
	46	319	7.512019	7.754098E+007	-4.217919E+007	1	8.827054E+007	-28.54442	-7.944236E-011	0.0006484	4
	47	323	5.978954	7.961126E+007	-3.368542E+007	1	8.644454E+007	-22.93438	-1.0419E-010	0.0006618	4
	48	329	4.734848	9.18278E+007	-3.406174E+007	1	9.794154E+007	-20.35136	-7.787692E-011	0.000643	4
	49	335	3.75601	9.856293E+007	-3.384084E+007	1	1.042106E+008	-18.94953	-8.34667E-011	0.0007027	4
	50	342	3.004808	1.133419E+008	-3.27195E+007	1	1.179701E+008	-16.10235	-6.04346E-011	0.0005863	4
	51	350	2.372217	1.251967E+008	-2.090044E+007	1	1.269293E+008	-9.477607	-1.060148E-011	0.000665	3
	52	354	1.878005	1.325066E+008	-1.979427E+007	1	1.339769E+008	-8.496205	-7.627308E-012	0.0007214	3
	53	363	1.512097	1.406132E+008	-1.930836E+007	1	1.419326E+008	-7.818698	-4.730969E-012	0.0006271	3
	54	368	1.201923	1.511476E+008	-1.926889E+007	1	1.523709E+008	-7.265105	-6.838401E-012	0.0007513	3
	55	380	0.956633	1.632157E+008	-1.976695E+007	1	1.644083E+008	-6.905426	-1.220811E-011	8.602501E-005	3
