EXPLAIN
TAG	EISPOT
TITLE	LABEL	Potentiostatic EIS	Test Identifier
DATE	LABEL	2/28/2021	Date
TIME	LABEL	2:56:43	Time
NOTES	NOTES	1	Notes...
	
PSTAT	PSTAT	REF3000-16137	Potentiostat
VDC	POTEN	0.00000E+000	T	DC Voltage (V)
FREQINIT	QUANT	3.00000E+005	Initial Freq. (Hz)
FREQFINAL	QUANT	1.00000E+000	Final Freq. (Hz)
PTSPERDEC	QUANT	1.00000E+001	Points/decade
VAC	QUANT	5.00000E+001	AC Voltage (mV rms)
AREA	QUANT	1.00000E+000	Sample Area (cm^2)
SPEED	SELECTOR	2	Optimize for:
ZGUESS	QUANT	1.00000E+003	Estimated Z (ohms)
EOC	QUANT	0	Open Circuit (V)
SEQUENCER	TOGGLE	TRUE	Run as Sequence
PSTATMODEL	IQUANT	5	Pstat Model
PSTATSECTION	LABEL	REF3000-16137	Pstat Section
PSTATSERIALNO	LABEL	16137	Pstat Serial Number
CTRLMODE	IQUANT	1	Control Mode
IESTAB	IQUANT	0	I/E Stability
CASPEED	IQUANT	1	Control Amp Speed
CONVENTION	IQUANT	1	Current Convention
ICHRANGE	IQUANT	2	Ich Range
ICHRANGEMODE	TOGGLE	F	Ich Auto Range
ICHOFFSETENABLE	TOGGLE	T	Ich Offset Enable
ICHOFFSET	QUANT	0	Ich Offset (V)
ICHFILTER	IQUANT	3	Ich Filter
VCHRANGE	IQUANT	2	Vch Range
VCHRANGEMODE	TOGGLE	F	Vch Auto Range
VCHOFFSETENABLE	TOGGLE	T	Vch Offset Enable
VCHOFFSET	QUANT	0	Vch Offset (V)
VCHFILTER	IQUANT	3	Vch Filter
ACHRANGE	IQUANT	2	Ach Range
ACHOFFSETENABLE	TOGGLE	F	Ach Offset Enable
ACHOFFSET	QUANT	0	Ach Offset (V)
ACHFILTER	IQUANT	3	Ach Filter
IERANGELOWERLIMIT	IQUANT	2	I/E Range Lower Limit
IERANGEMODE	TOGGLE	F	I/E AutoRange
IERANGE	IQUANT	11	I/E Range
POSFEEDENABLE	TOGGLE	F	Positive Feedback IR Comp
POSFEEDRESISTANCE	QUANT	0	Positive Feedback Resistance (ohm)
ACHSELECT	IQUANT	0	Ach Select
CABLEID	IQUANT	13	Cable ID
DCCALDATE	LABEL	7/31/2020	DC Calibration Date
ACCALDATE	LABEL	7/31/2020	AC Calibration Date
THERMOSELECT	IQUANT	1	Thermo Select
FRAMEWORKVERSION	QUANT	6.33	Framework Version
INSTRUMENTVERSION	LABEL	3.50	Instrument Version
COMPLIANCEVOLTAGE	IQUANT	0	Compliance Voltage
ZCURVE	TABLE
	Pt	Time	Freq	Zreal	Zimag	Zsig	Zmod	Zphz	Idc	Vdc	IERange
	#	s	Hz	ohm	ohm	V	ohm	°	A	V	#
	0	14	300046.9	-79.08649	-4842.568	1	4843.214	-90.93565	-0.0000962	0.0021307	9
	1	30	238359.4	-3.106672	-5964.014	1	5964.015	-90.02985	-1.920576E-005	0.0014819	9
	2	45	189328.1	-13.11676	-7088.406	1	7088.418	-90.10603	1.957421E-005	-0.0008597	9
	3	54	150421.9	-77.94624	-8958.622	1	8958.961	-90.4985	3.785958E-007	0.0016332	9
	4	61	119484.4	399.2565	-11715.07	1	11721.87	-88.04808	-3.01711E-005	-0.0065054	8
	5	69	94921.88	482.9133	-14438.61	1	14446.69	-88.0844	-2.043919E-005	0.0028425	8
	6	77	75421.88	308.2498	-18183.53	1	18186.14	-89.02881	-2.375477E-005	0.0051877	8
	7	86	59859.37	880.5925	-22821.83	1	22838.81	-87.79031	-1.571513E-005	0.0006185	8
	8	95	47578.12	4085.219	-30170.97	1	30446.29	-82.28892	-7.430458E-006	0.0190914	7
	9	101	37828.12	4267.799	-37326.78	1	37569.97	-83.47735	6.649519E-006	-0.0101541	7
	10	108	30046.88	4588.154	-46018.72	1	46246.88	-84.30632	7.637345E-006	-0.018639	7
	11	116	23859.38	4746.692	-57749.89	1	57944.64	-85.30119	7.7458E-006	-0.0245146	7
	12	121	18984.38	4542.375	-72642.32	1	72784.2	-86.42191	-5.406236E-006	0.02677	7
	13	127	15046.87	2810.427	-91297.2	1	91340.45	-88.23681	8.281411E-006	-0.0077132	8
	14	134	11953.13	3002.85	-110479.5	1	110520.3	-88.44308	-9.404878E-007	-0.0135355	7
	15	141	9515.62	5694.722	-141422.3	1	141536.9	-87.69409	-1.011811E-006	-0.0134957	7
	16	147	7546.875	4228.617	-175531	1	175581.9	-88.61999	3.435384E-006	-0.0245571	7
	17	154	5928.309	21119.51	-212653.8	1	213699.9	-84.32832	-3.35993E-006	-0.0052439	7
	18	160	4733.456	-53461.5	-200752.4	1	207749	-104.9121	8.342831E-006	0.0042324	8
	19	169	3796.875	2242.279	-347276.2	1	347283.4	-89.63006	-7.384756E-006	0.0191012	7
	20	174	2987.132	-27149.28	-451674.2	1	452489.4	-93.4398	7.62019E-006	-0.0184524	7
	21	182	2390.625	-1024.432	-498084.8	1	498085.8	-90.11784	-7.405266E-006	0.0190411	7
	22	188	1884.191	10684.03	-1188758	1	1188806	-89.48506	6.657175E-006	-0.0101153	7
	23	195	1516.544	432314	-886712.9	1	986486	-64.00861	7.624236E-006	-0.0184697	7
	24	202	1193.986	-586685.3	64444.76	1	590214.1	173.7314	-9.206251E-007	-0.0051002	8
	25	212	946.5144	760220.8	-3042519	1	3136057	-75.971	7.706542E-006	-0.0244129	7
	26	217	751.7689	1596228	-1568472	1	2237867	-44.4975	-5.341659E-006	0.0266877	7
	27	224	597.4265	-991384	-1421333	1	1732925	-124.8959	4.680622E-007	0.016376	7
	28	230	477.4305	87286.6	-2826281	1	2827628	-88.23104	-7.196689E-009	0.0007152	6
	29	234	376.6741	470289	-3696222	1	3726021	-82.74893	-8.198011E-010	0.0006958	5
	30	238	298.2954	514574.7	-4579734	1	4608552	-83.58919	-7.589236E-010	0.0006622	5
	31	242	237.7717	565725.1	-5747189	1	5774965	-84.3782	-7.161455E-010	0.0006029	5
	32	245	189.0121	576776	-7134716	1	7157991	-85.37821	-7.0961E-010	0.0006415	5
	33	250	150.2404	531973	-9159549	1	9174984	-86.67608	-7.82205E-010	0.0007047	5
	34	252	119.1737	2295431	-1.137001E+007	1	1.15994E+007	-78.58627	-8.109126E-010	0.0006895	5
	35	255	95.0169	1204607	-1.407556E+007	1	1.412702E+007	-85.10846	-6.811726E-010	0.0006227	5
	36	258	75.60484	981745	-1.986694E+007	1	1.989118E+007	-87.17097	-7.344588E-010	0.0006334	5
	37	261	54.50582	198839.8	-2.497647E+007	1	2.497726E+007	-89.54388	-7.442944E-010	0.0006981	5
	38	264	45.95588	-1581036	-3.094449E+007	1	3.098485E+007	-92.92485	-7.35974E-010	0.0006531	5
	39	268	37.20238	-2619363	-3.863001E+007	1	3.871871E+007	-93.87908	-7.435318E-010	0.0006924	5
	40	272	30.04808	7328839	-4.463541E+007	1	4.523308E+007	-80.67561	-8.259239E-011	0.000614	4
	41	276	23.91582	2038300	-4.700915E+007	1	4.705332E+007	-87.51723	-1.742094E-010	0.0006279	4
	42	280	18.60119	3.9805E+007	-5.298482E+007	1	6.627088E+007	-53.08419	-2.87105E-010	0.0007059	4
	43	283	15.02404	1.505333E+007	-8.70747E+007	1	8.836632E+007	-80.19175	-8.911955E-011	0.0005992	4
	44	287	12.01923	7283762	-1.07744E+008	1	1.079899E+008	-86.13255	-8.010766E-011	0.0006158	4
	45	291	9.450605	1.077749E+007	-1.492079E+008	1	1.495967E+008	-85.86862	-8.268941E-011	0.0006399	4
	46	295	7.512019	3.992144E+007	-1.767273E+008	1	1.811802E+008	-77.27094	-4.867658E-011	0.0006255	4
	47	299	5.978954	5.498482E+007	-2.737557E+008	1	2.792231E+008	-78.64305	-1.079641E-010	0.0006549	4
	48	304	4.734848	4.084501E+007	-2.713777E+008	1	2.744343E+008	-81.44067	-7.398253E-010	0.0006049	5
	49	312	3.75601	6.10061E+007	-3.360603E+008	1	3.415528E+008	-79.71096	-7.322589E-010	0.0006593	5
	50	320	3.004808	8.136672E+007	-3.50358E+008	1	3.596822E+008	-76.92547	-7.320637E-010	0.0006482	5
	51	330	2.372217	1.451944E+008	-5.354977E+008	1	5.548326E+008	-74.82961	-6.034031E-012	0.0008025	3
	52	337	1.878005	1.910055E+008	-6.659585E+008	1	6.928087E+008	-73.99643	-5.956782E-012	0.0007076	3
	53	346	1.512097	2.462601E+008	-8.112184E+008	1	8.477732E+008	-73.11338	-5.658318E-012	0.0008205	3
	54	355	1.201923	3.218521E+008	-1.003336E+009	1	1.053695E+009	-72.2147	-5.70105E-012	0.0006966	3
	55	368	0.956633	4.266633E+008	-1.23744E+009	1	1.308931E+009	-70.97606	-5.821158E-012	8.692271E-005	3
