EXPLAIN
TAG	EISPOT
TITLE	LABEL	Potentiostatic EIS	Test Identifier
DATE	LABEL	2/28/2021	Date
TIME	LABEL	1:16:44	Time
NOTES	NOTES	1	Notes...
	
PSTAT	PSTAT	REF3000-16137	Potentiostat
VDC	POTEN	0.00000E+000	T	DC Voltage (V)
FREQINIT	QUANT	3.00000E+005	Initial Freq. (Hz)
FREQFINAL	QUANT	1.00000E+000	Final Freq. (Hz)
PTSPERDEC	QUANT	1.00000E+001	Points/decade
VAC	QUANT	5.00000E+001	AC Voltage (mV rms)
AREA	QUANT	1.00000E+000	Sample Area (cm^2)
SPEED	SELECTOR	2	Optimize for:
ZGUESS	QUANT	1.00000E+003	Estimated Z (ohms)
EOC	QUANT	0	Open Circuit (V)
SEQUENCER	TOGGLE	TRUE	Run as Sequence
PSTATMODEL	IQUANT	5	Pstat Model
PSTATSECTION	LABEL	REF3000-16137	Pstat Section
PSTATSERIALNO	LABEL	16137	Pstat Serial Number
CTRLMODE	IQUANT	1	Control Mode
IESTAB	IQUANT	0	I/E Stability
CASPEED	IQUANT	1	Control Amp Speed
CONVENTION	IQUANT	1	Current Convention
ICHRANGE	IQUANT	2	Ich Range
ICHRANGEMODE	TOGGLE	F	Ich Auto Range
ICHOFFSETENABLE	TOGGLE	T	Ich Offset Enable
ICHOFFSET	QUANT	0	Ich Offset (V)
ICHFILTER	IQUANT	3	Ich Filter
VCHRANGE	IQUANT	2	Vch Range
VCHRANGEMODE	TOGGLE	F	Vch Auto Range
VCHOFFSETENABLE	TOGGLE	T	Vch Offset Enable
VCHOFFSET	QUANT	0	Vch Offset (V)
VCHFILTER	IQUANT	3	Vch Filter
ACHRANGE	IQUANT	2	Ach Range
ACHOFFSETENABLE	TOGGLE	F	Ach Offset Enable
ACHOFFSET	QUANT	0	Ach Offset (V)
ACHFILTER	IQUANT	3	Ach Filter
IERANGELOWERLIMIT	IQUANT	2	I/E Range Lower Limit
IERANGEMODE	TOGGLE	F	I/E AutoRange
IERANGE	IQUANT	11	I/E Range
POSFEEDENABLE	TOGGLE	F	Positive Feedback IR Comp
POSFEEDRESISTANCE	QUANT	0	Positive Feedback Resistance (ohm)
ACHSELECT	IQUANT	0	Ach Select
CABLEID	IQUANT	13	Cable ID
DCCALDATE	LABEL	7/31/2020	DC Calibration Date
ACCALDATE	LABEL	7/31/2020	AC Calibration Date
THERMOSELECT	IQUANT	1	Thermo Select
FRAMEWORKVERSION	QUANT	6.33	Framework Version
INSTRUMENTVERSION	LABEL	3.50	Instrument Version
COMPLIANCEVOLTAGE	IQUANT	0	Compliance Voltage
ZCURVE	TABLE
	Pt	Time	Freq	Zreal	Zimag	Zsig	Zmod	Zphz	Idc	Vdc	IERange
	#	s	Hz	ohm	ohm	V	ohm	°	A	V	#
	0	7	300046.9	50.86945	-5.641567	1	51.18132	-6.328405	-5.976017E-005	0.0013232	9
	1	10	238359.4	51.70798	-7.813476	1	52.29499	-8.592827	-5.858656E-007	0.0003844	9
	2	13	189328.1	52.73452	-9.96757	1	53.66826	-10.70344	5.933314E-005	-0.0022854	9
	3	16	150421.9	54.1717	-12.36161	1	55.56422	-12.8544	5.562561E-005	-0.001622	9
	4	19	119484.4	55.52667	-14.88507	1	57.48719	-15.00649	5.080413E-006	-0.0005942	9
	5	21	94921.88	57.29505	-17.48184	1	59.90273	-16.96797	-3.345312E-006	-0.0001411	9
	6	24	75421.88	59.14987	-20.75459	1	62.68541	-19.33503	-1.495406E-005	0.0003515	9
	7	26	59859.37	61.31728	-24.36177	1	65.97958	-21.66826	-1.66147E-005	0.0004608	9
	8	29	47578.12	63.73216	-28.40308	1	69.7748	-24.02077	-2.785945E-006	0.0004736	9
	9	31	37828.12	66.33018	-32.97895	1	74.07634	-26.43628	2.095357E-005	-0.0002724	9
	10	34	30046.88	69.17506	-38.2673	1	79.05425	-28.95115	1.414588E-005	-0.0005231	9
	11	36	23859.38	72.03958	-44.6192	1	84.73827	-31.77286	-1.231759E-005	0.0007163	9
	12	38	18984.38	74.9976	-52.34718	1	91.45965	-34.91446	-9.479855E-006	0.0006241	9
	13	41	15046.87	78.13285	-61.90117	1	99.682	-38.38821	1.035924E-005	7.889546E-005	9
	14	43	11953.13	81.31277	-73.61597	1	109.6863	-42.15591	-1.971166E-006	0.0005497	9
	15	45	9515.62	84.84046	-88.22939	1	122.4023	-46.12178	-1.544804E-005	0.0004053	9
	16	48	7546.875	88.74398	-106.429	1	138.5735	-50.17754	-1.355554E-005	0.0002379	9
	17	50	5928.309	93.6662	-130.0895	1	160.3017	-54.24561	-1.551694E-005	0.0006719	9
	18	52	4733.456	98.866	-157.8005	1	186.2135	-57.93182	-2.613225E-006	0.0005247	9
	19	55	3796.875	104.6025	-190.7645	1	217.561	-61.26259	1.910337E-005	-0.0005303	9
	20	57	2987.132	112.9247	-235.3953	1	261.0804	-64.37186	9.299633E-006	-0.0004436	9
	21	59	2390.625	122.5177	-285.2017	1	310.4039	-66.75249	-1.472488E-005	0.0004313	9
	22	62	1884.191	134.1317	-354.5655	1	379.0884	-69.27843	-8.465061E-006	0.0006498	9
	23	64	1516.544	144.9952	-427.3049	1	451.235	-71.25665	-2.368376E-006	0.0018819	8
	24	66	1193.986	162.1046	-528.7829	1	553.0726	-72.95646	-3.336073E-006	0.0017784	8
	25	69	946.5144	181.4028	-651.8665	1	676.6365	-74.44907	4.85651E-006	-0.0004374	8
	26	71	751.7689	207.7986	-800.9182	1	827.4359	-75.45528	3.371657E-006	-0.0006115	8
	27	73	597.4265	238.7278	-983.073	1	1011.643	-76.35059	9.550272E-007	-8.678422E-005	8
	28	76	477.4305	275.6522	-1203.818	1	1234.974	-77.10266	4.47627E-007	0.0006623	8
	29	78	376.6741	325.2145	-1489.472	1	1524.563	-77.68321	4.615494E-007	0.0006604	8
	30	80	298.2954	386.495	-1836.24	1	1876.474	-78.11378	4.611758E-007	0.0006596	8
	31	83	237.7717	461.2417	-2249.851	1	2296.644	-78.41433	4.576184E-007	0.0006558	8
	32	85	189.0121	555.7772	-2761.872	1	2817.237	-78.62221	4.501303E-007	0.0006605	8
	33	87	150.2404	673.739	-3389.24	1	3455.556	-78.75687	4.514046E-007	0.0006649	8
	34	90	119.1737	821.8642	-4163.395	1	4243.738	-78.83324	4.492823E-007	0.0006612	8
	35	92	95.0169	1003.42	-5099.468	1	5197.252	-78.86815	3.981971E-008	0.000632	7
	36	95	75.60484	1225.295	-6242.565	1	6361.68	-78.89512	3.948608E-008	0.0006359	7
	37	97	54.50582	1636.29	-8333.558	1	8492.681	-78.89132	4.120549E-008	0.0006333	7
	38	100	45.95588	1900.554	-9695.21	1	9879.74	-78.90894	4.441209E-008	0.0006319	7
	39	102	37.20238	2291.464	-11681.37	1	11904	-78.90156	4.160114E-008	0.0006345	7
	40	104	30.04808	2777.082	-14116.44	1	14387.01	-78.87051	4.06317E-008	0.000632	7
	41	107	23.91582	3451.887	-17320.69	1	17661.31	-78.72904	3.950731E-008	0.0006272	7
	42	109	18.60119	4402.148	-21645.18	1	22088.29	-78.5041	4.240585E-008	0.0006226	7
	43	112	15.02404	5421.918	-26174.48	1	26730.15	-78.29697	4.577187E-008	0.0006381	7
	44	114	12.01923	6858.521	-31896.62	1	32625.66	-77.86484	4.061436E-008	0.0006266	7
	45	116	9.450605	8905.057	-39474.39	1	40466.37	-77.28741	4.296707E-008	0.0006379	7
	46	119	7.512019	11555.57	-48247.31	1	49611.84	-76.53098	1.805021E-009	0.0006907	6
	47	122	5.978954	15116.74	-58767.57	1	60680.66	-75.57458	2.261203E-009	0.0006766	6
	48	125	4.734848	19968.06	-71694.63	1	74423.4	-74.43666	-1.550612E-010	0.0006542	6
	49	129	3.75601	26560.38	-86939.95	1	90906.59	-73.01196	2.87835E-009	0.0006915	6
	50	134	3.004808	34988.33	-104083.2	1	109806.6	-71.41955	1.967932E-009	0.0006716	6
	51	141	2.372217	47059.71	-125030.1	1	133593.2	-69.37431	2.017457E-009	0.0006132	6
	52	145	1.878005	62508.34	-148737.3	1	161338.4	-67.20493	3.063133E-009	0.0006753	6
	53	150	1.512097	80650.02	-172473.9	1	190398.7	-64.93887	2.727466E-009	0.0006685	6
	54	155	1.201923	105313.5	-199826	1	225879.1	-62.2096	2.083892E-009	0.000698	6
	55	161	0.956633	134615.5	-227963.7	1	264742.9	-59.43761	-5.213373E-010	3.505978E-005	6
