EXPLAIN
TAG	EISPOT
TITLE	LABEL	Potentiostatic EIS	Test Identifier
DATE	LABEL	2/24/2021	Date
TIME	LABEL	15:08:52	Time
NOTES	NOTES	1	Notes...
	
PSTAT	PSTAT	REF3000-16137	Potentiostat
VDC	POTEN	0.00000E+000	T	DC Voltage (V)
FREQINIT	QUANT	3.00000E+005	Initial Freq. (Hz)
FREQFINAL	QUANT	1.00000E+000	Final Freq. (Hz)
PTSPERDEC	QUANT	1.00000E+001	Points/decade
VAC	QUANT	5.00000E+001	AC Voltage (mV rms)
AREA	QUANT	1.00000E+000	Sample Area (cm^2)
SPEED	SELECTOR	2	Optimize for:
ZGUESS	QUANT	1.00000E+003	Estimated Z (ohms)
EOC	QUANT	0	Open Circuit (V)
SEQUENCER	TOGGLE	TRUE	Run as Sequence
PSTATMODEL	IQUANT	5	Pstat Model
PSTATSECTION	LABEL	REF3000-16137	Pstat Section
PSTATSERIALNO	LABEL	16137	Pstat Serial Number
CTRLMODE	IQUANT	1	Control Mode
IESTAB	IQUANT	0	I/E Stability
CASPEED	IQUANT	1	Control Amp Speed
CONVENTION	IQUANT	1	Current Convention
ICHRANGE	IQUANT	2	Ich Range
ICHRANGEMODE	TOGGLE	F	Ich Auto Range
ICHOFFSETENABLE	TOGGLE	T	Ich Offset Enable
ICHOFFSET	QUANT	0	Ich Offset (V)
ICHFILTER	IQUANT	3	Ich Filter
VCHRANGE	IQUANT	2	Vch Range
VCHRANGEMODE	TOGGLE	F	Vch Auto Range
VCHOFFSETENABLE	TOGGLE	T	Vch Offset Enable
VCHOFFSET	QUANT	0	Vch Offset (V)
VCHFILTER	IQUANT	3	Vch Filter
ACHRANGE	IQUANT	2	Ach Range
ACHOFFSETENABLE	TOGGLE	F	Ach Offset Enable
ACHOFFSET	QUANT	0	Ach Offset (V)
ACHFILTER	IQUANT	3	Ach Filter
IERANGELOWERLIMIT	IQUANT	2	I/E Range Lower Limit
IERANGEMODE	TOGGLE	F	I/E AutoRange
IERANGE	IQUANT	11	I/E Range
POSFEEDENABLE	TOGGLE	F	Positive Feedback IR Comp
POSFEEDRESISTANCE	QUANT	0	Positive Feedback Resistance (ohm)
ACHSELECT	IQUANT	0	Ach Select
CABLEID	IQUANT	13	Cable ID
DCCALDATE	LABEL	7/31/2020	DC Calibration Date
ACCALDATE	LABEL	7/31/2020	AC Calibration Date
THERMOSELECT	IQUANT	1	Thermo Select
FRAMEWORKVERSION	QUANT	6.33	Framework Version
INSTRUMENTVERSION	LABEL	3.50	Instrument Version
COMPLIANCEVOLTAGE	IQUANT	0	Compliance Voltage
ZCURVE	TABLE
	Pt	Time	Freq	Zreal	Zimag	Zsig	Zmod	Zphz	Idc	Vdc	IERange
	#	s	Hz	ohm	ohm	V	ohm	°	A	V	#
	0	10	300046.9	3.000492	2.261915	1	3.757554	37.01075	-0.000105	-0.000174	10
	1	14	238359.4	2.975901	1.785177	1	3.47028	30.95861	6.533358E-005	-0.0006858	10
	2	17	189328.1	3.048017	1.177864	1	3.267686	21.12834	-6.825598E-005	-0.0001517	12
	3	20	150421.9	2.953148	1.088163	1	3.14725	20.2276	-6.068464E-005	0.0003543	11
	4	23	119484.4	2.949555	0.8460236	1	3.06849	16.00453	1.199469E-005	0.000556	11
	5	25	94921.88	2.943836	0.6473539	1	3.014173	12.40203	-2.923611E-005	0.0005478	11
	6	28	75421.88	2.94266	0.48034	1	2.981606	9.270814	-3.906925E-005	0.0005611	11
	7	31	59859.37	2.945883	0.3395145	1	2.965383	6.574362	1.82324E-005	0.000677	11
	8	33	47578.12	2.948924	0.2175002	1	2.956934	4.218256	1.475297E-005	0.000672	11
	9	36	37828.12	2.955046	0.1087988	1	2.957049	2.108561	2.615633E-005	0.0007154	11
	10	38	30046.88	2.961921	0.0061956	1	2.961927	0.1198488	-5.040433E-006	0.0006931	11
	11	41	23859.38	2.969674	-0.094938	1	2.971191	-1.831074	-6.890088E-006	0.0006993	11
	12	43	18984.38	2.978641	-0.1983296	1	2.985237	-3.809354	-6.73005E-006	0.0007042	11
	13	45	15046.87	2.988499	-0.3124054	1	3.004784	-5.96779	1.880224E-005	0.000715	11
	14	48	11953.13	3.002059	-0.4393798	1	3.034042	-8.326661	6.436013E-006	0.0007133	11
	15	50	9515.62	3.016676	-0.585811	1	3.07303	-10.98954	-3.908297E-005	0.0006717	11
	16	52	7546.875	3.035723	-0.761645	1	3.129811	-14.08445	-3.230299E-005	0.0006702	11
	17	55	5928.309	3.06102	-0.983172	1	3.215039	-17.80655	1.428305E-005	0.0007281	11
	18	57	4733.456	3.090087	-1.235433	1	3.327902	-21.79178	-3.472081E-005	0.0007182	11
	19	59	3796.875	3.126141	-1.534973	1	3.482657	-26.1516	-2.203666E-005	0.0007416	11
	20	62	2987.132	3.174254	-1.936594	1	3.718372	-31.38712	-2.69456E-005	0.0007037	11
	21	64	2390.625	3.235354	-2.398093	1	4.027204	-36.5464	2.352615E-005	0.0006824	10
	22	66	1884.191	3.316177	-3.00156	1	4.472851	-42.14909	-3.120974E-006	0.0006703	10
	23	68	1516.544	3.409701	-3.678823	1	5.015954	-47.17424	2.117472E-005	0.0006754	10
	24	71	1193.986	3.541651	-4.596264	1	5.802494	-52.38395	4.485115E-006	0.0006936	10
	25	73	946.5144	3.70483	-5.697221	1	6.795888	-56.96457	7.7266E-006	0.0007036	10
	26	76	751.7689	3.914328	-7.03844	1	8.05367	-60.92	-5.220761E-006	0.0006907	10
	27	78	597.4265	4.180092	-8.680079	1	9.63416	-64.28579	2.159021E-005	0.0006757	10
	28	80	477.4305	4.50235	-10.64699	1	11.55983	-67.0777	-1.872394E-006	0.0006869	10
	29	83	376.6741	4.931851	-13.20035	1	14.09158	-69.51356	-1.178021E-006	0.0006832	10
	30	85	298.2954	5.465096	-16.30196	1	17.19363	-71.4667	-1.759609E-006	0.0006884	10
	31	87	237.7717	6.118303	-20.00262	1	20.91742	-72.99244	-2.529876E-006	0.0006863	10
	32	90	189.0121	6.953627	-24.59379	1	25.55792	-74.21233	-2.165251E-006	0.0006851	10
	33	92	150.2404	8.013156	-30.22617	1	31.27031	-75.15207	-1.670924E-006	0.0006846	10
	34	94	119.1737	9.376672	-37.18924	1	38.35312	-75.84874	-2.233055E-006	0.0006911	10
	35	97	95.0169	11.05868	-45.44959	1	46.77563	-76.32467	8.342461E-007	9.053819E-005	9
	36	99	75.60484	13.22922	-55.65612	1	57.20678	-76.62917	7.596307E-007	0.0001017	9
	37	102	54.50582	17.41548	-74.2202	1	76.23606	-76.79467	7.925757E-007	7.87945E-005	9
	38	104	45.95588	20.22071	-86.13151	1	88.47324	-76.78819	9.384412E-007	8.797779E-005	9
	39	107	37.20238	24.44561	-103.4351	1	106.2846	-76.70284	9.260586E-007	8.644076E-005	9
	40	109	30.04808	29.68958	-124.261	1	127.7587	-76.5623	8.248293E-007	8.225099E-005	9
	41	112	23.91582	36.46976	-150.8077	1	155.1548	-76.40519	8.266528E-007	7.936852E-005	9
	42	114	18.60119	45.67836	-186.6222	1	192.1311	-76.24647	1.066477E-006	8.467329E-005	9
	43	116	15.02404	55.07917	-223.2856	1	229.9787	-76.14315	1.055409E-006	9.189949E-005	9
	44	119	12.01923	66.69086	-269.4632	1	277.5934	-76.09891	7.603819E-007	8.467363E-005	9
	45	121	9.450605	81.44652	-330.0399	1	339.941	-76.13765	1.023812E-006	8.710474E-005	9
	46	124	7.512019	98.4191	-400.7847	1	412.692	-76.2031	1.107135E-006	0.0001061	9
	47	126	5.978954	118.4642	-484.9715	1	499.2306	-76.27314	3.93283E-007	0.0006664	8
	48	129	4.734848	144.4311	-592.6771	1	610.0217	-76.30438	3.547247E-007	0.0006826	8
	49	133	3.75601	176.3333	-723.7495	1	744.9206	-76.30731	3.683523E-007	0.0006655	8
	50	136	3.004808	214.9606	-877.7132	1	903.6529	-76.23857	3.157085E-007	0.000704	8
	51	140	2.372217	267.1433	-1076.808	1	1109.451	-76.0669	2.89413E-007	0.0007062	8
	52	144	1.878005	337.6731	-1319.274	1	1361.802	-75.64314	3.320155E-007	0.000643	8
	53	149	1.512097	421.1343	-1592.41	1	1647.156	-75.1865	3.30384E-007	0.0007659	8
	54	154	1.201923	539.7028	-1942.533	1	2016.113	-74.47286	3.563441E-007	0.0006432	8
	55	160	0.956633	697.9636	-2361.634	1	2462.614	-73.53534	2.428515E-007	1.726554E-005	8
