EXPLAIN
TAG	EISPOT
TITLE	LABEL	Potentiostatic EIS	Test Identifier
DATE	LABEL	2/24/2021	Date
TIME	LABEL	14:54:35	Time
NOTES	NOTES	1	Notes...
	
PSTAT	PSTAT	REF3000-16137	Potentiostat
VDC	POTEN	0.00000E+000	T	DC Voltage (V)
FREQINIT	QUANT	3.00000E+005	Initial Freq. (Hz)
FREQFINAL	QUANT	1.00000E+000	Final Freq. (Hz)
PTSPERDEC	QUANT	1.00000E+001	Points/decade
VAC	QUANT	5.00000E+001	AC Voltage (mV rms)
AREA	QUANT	1.00000E+000	Sample Area (cm^2)
SPEED	SELECTOR	2	Optimize for:
ZGUESS	QUANT	1.00000E+003	Estimated Z (ohms)
EOC	QUANT	0	Open Circuit (V)
SEQUENCER	TOGGLE	TRUE	Run as Sequence
PSTATMODEL	IQUANT	5	Pstat Model
PSTATSECTION	LABEL	REF3000-16137	Pstat Section
PSTATSERIALNO	LABEL	16137	Pstat Serial Number
CTRLMODE	IQUANT	1	Control Mode
IESTAB	IQUANT	0	I/E Stability
CASPEED	IQUANT	1	Control Amp Speed
CONVENTION	IQUANT	1	Current Convention
ICHRANGE	IQUANT	2	Ich Range
ICHRANGEMODE	TOGGLE	F	Ich Auto Range
ICHOFFSETENABLE	TOGGLE	T	Ich Offset Enable
ICHOFFSET	QUANT	0	Ich Offset (V)
ICHFILTER	IQUANT	3	Ich Filter
VCHRANGE	IQUANT	2	Vch Range
VCHRANGEMODE	TOGGLE	F	Vch Auto Range
VCHOFFSETENABLE	TOGGLE	T	Vch Offset Enable
VCHOFFSET	QUANT	0	Vch Offset (V)
VCHFILTER	IQUANT	3	Vch Filter
ACHRANGE	IQUANT	2	Ach Range
ACHOFFSETENABLE	TOGGLE	F	Ach Offset Enable
ACHOFFSET	QUANT	0	Ach Offset (V)
ACHFILTER	IQUANT	3	Ach Filter
IERANGELOWERLIMIT	IQUANT	2	I/E Range Lower Limit
IERANGEMODE	TOGGLE	F	I/E AutoRange
IERANGE	IQUANT	11	I/E Range
POSFEEDENABLE	TOGGLE	F	Positive Feedback IR Comp
POSFEEDRESISTANCE	QUANT	0	Positive Feedback Resistance (ohm)
ACHSELECT	IQUANT	0	Ach Select
CABLEID	IQUANT	13	Cable ID
DCCALDATE	LABEL	7/31/2020	DC Calibration Date
ACCALDATE	LABEL	7/31/2020	AC Calibration Date
THERMOSELECT	IQUANT	1	Thermo Select
FRAMEWORKVERSION	QUANT	6.33	Framework Version
INSTRUMENTVERSION	LABEL	3.50	Instrument Version
COMPLIANCEVOLTAGE	IQUANT	0	Compliance Voltage
ZCURVE	TABLE
	Pt	Time	Freq	Zreal	Zimag	Zsig	Zmod	Zphz	Idc	Vdc	IERange
	#	s	Hz	ohm	ohm	V	ohm	°	A	V	#
	0	10	300046.9	2.249298	2.217708	1	3.158729	44.59482	7.41091E-005	-0.0002933	11
	1	13	238359.4	2.207757	1.775035	1	2.832833	38.79925	-5.155312E-005	-0.0002028	11
	2	16	189328.1	2.25759	1.246922	1	2.579056	28.91294	-0.0001121	8.375087E-005	12
	3	20	150421.9	2.207059	0.974864	1	2.412773	23.83118	-3.045465E-005	0.0003803	12
	4	24	119484.4	2.178745	0.7642598	1	2.308901	19.32984	-5.035137E-005	0.0002282	12
	5	27	94921.88	2.141335	0.65826	1	2.240228	17.08776	-2.904611E-005	0.0005227	11
	6	30	75421.88	2.138024	0.4923158	1	2.193974	12.96728	1.580593E-005	0.0005747	11
	7	32	59859.37	2.138287	0.3516044	1	2.167001	9.337744	-9.992747E-006	0.0006	11
	8	35	47578.12	2.139425	0.2315088	1	2.151914	6.17599	-1.173879E-005	0.0006201	11
	9	37	37828.12	2.142318	0.1240778	1	2.145909	3.314726	-5.836394E-005	0.0006539	11
	10	40	30046.88	2.147372	0.0240098	1	2.147506	0.6405995	-3.096764E-005	0.0006723	11
	11	42	23859.38	2.152015	-0.074244	1	2.153296	-1.975906	-4.511129E-005	0.0006456	11
	12	45	18984.38	2.159967	-0.1735306	1	2.166926	-4.593248	-3.316706E-005	0.000689	11
	13	47	15046.87	2.168097	-0.2825594	1	2.186432	-7.425279	-1.990154E-006	0.0007022	11
	14	49	11953.13	2.179384	-0.4031729	1	2.216363	-10.48088	-4.516617E-005	0.000739	11
	15	52	9515.62	2.192442	-0.5407987	1	2.258155	-13.85626	1.493044E-005	0.000731	11
	16	54	7546.875	2.20944	-0.7053289	1	2.319292	-17.70486	1.309458E-005	0.0007245	11
	17	56	5928.309	2.232513	-0.9131511	1	2.412045	-22.24573	-2.861287E-005	0.0006865	11
	18	59	4733.456	2.260633	-1.148078	1	2.535457	-26.92406	-4.327555E-005	0.0007334	11
	19	61	3796.875	2.294791	-1.427351	1	2.702479	-31.88146	3.792478E-006	0.0007128	11
	20	63	2987.132	2.343223	-1.798379	1	2.953788	-37.50554	-2.826655E-005	0.000688	11
	21	65	2390.625	2.401718	-2.222329	1	3.272155	-42.77834	-1.433183E-005	0.0007087	11
	22	68	1884.191	2.481474	-2.777565	1	3.724591	-48.22242	-3.732448E-005	0.0006837	11
	23	70	1516.544	2.577062	-3.400652	1	4.266812	-52.84464	-2.603078E-005	0.0006816	10
	24	72	1193.986	2.707122	-4.238405	1	5.029173	-57.43312	3.377581E-006	0.0006805	10
	25	75	946.5144	2.866039	-5.244894	1	5.97688	-61.34588	2.053966E-005	0.000677	10
	26	77	751.7689	3.069164	-6.465894	1	7.157342	-64.60773	-2.498822E-005	0.0006905	10
	27	80	597.4265	3.324376	-7.964924	1	8.630845	-67.34547	2.099421E-005	0.0006716	10
	28	82	477.4305	3.632457	-9.75494	1	10.4093	-69.57613	-1.401077E-006	0.0006931	10
	29	84	376.6741	4.045039	-12.07867	1	12.738	-71.48476	-2.002594E-006	0.0006846	10
	30	86	298.2954	4.560922	-14.89873	1	15.58121	-72.97917	-2.792497E-006	0.0006925	10
	31	89	237.7717	5.195627	-18.25661	1	18.98153	-74.11424	-1.980768E-006	0.0006854	10
	32	91	189.0121	6.011061	-22.41397	1	23.20601	-74.98747	-2.156453E-006	0.0006882	10
	33	94	150.2404	7.046857	-27.49124	1	28.38004	-75.62287	-2.268764E-006	0.000687	10
	34	96	119.1737	8.380762	-33.76263	1	34.78724	-76.05946	-2.014801E-006	0.0006991	10
	35	98	95.0169	10.0349	-41.2085	1	42.41273	-76.31397	-2.221099E-006	0.0006862	10
	36	101	75.60484	12.12995	-50.26262	1	51.70558	-76.43216	-1.19507E-008	8.395453E-005	9
	37	104	54.50582	16.12645	-66.72501	1	68.64612	-76.413	-1.026657E-007	8.230984E-005	9
	38	106	45.95588	18.7605	-77.26233	1	79.50739	-76.35183	2.722445E-007	8.691529E-005	9
	39	108	37.20238	22.62573	-92.48839	1	95.2157	-76.25352	1.534638E-007	8.876502E-005	9
	40	111	30.04808	27.33118	-110.8537	1	114.1733	-76.14986	-9.228179E-008	9.159405E-005	9
	41	113	23.91582	33.27108	-134.3674	1	138.4253	-76.09257	-2.266997E-007	8.397784E-005	9
	42	116	18.60119	41.29925	-166.2216	1	171.2754	-76.04689	2.220142E-007	8.342322E-005	9
	43	118	15.02404	49.49446	-199.2517	1	205.3069	-76.04998	8.074021E-010	7.751172E-005	9
	44	120	12.01923	59.93578	-240.8184	1	248.1649	-76.02397	1.337401E-007	8.639199E-005	9
	45	123	9.450605	73.88353	-295.9866	1	305.0686	-75.98437	-2.431492E-008	8.183187E-005	9
	46	125	7.512019	90.38974	-360.3153	1	371.48	-75.91724	5.699799E-008	7.531144E-005	9
	47	128	5.978954	110.7975	-436.6971	1	450.5335	-75.7635	-4.875196E-007	0.000667	8
	48	131	4.734848	138.7291	-533.827	1	551.5588	-75.43241	-4.749785E-007	0.0006363	8
	49	134	3.75601	175.0094	-651.579	1	674.6729	-74.9656	-4.016298E-007	0.0006793	8
	50	138	3.004808	221.347	-788.1523	1	818.6443	-74.31297	-3.967566E-007	0.0006447	8
	51	141	2.372217	288.8581	-963.987	1	1006.335	-73.31918	-4.73935E-007	0.0005887	8
	52	145	1.878005	377.5856	-1172.237	1	1231.548	-72.1459	-3.966602E-007	0.0006707	8
	53	150	1.512097	490.1178	-1397.078	1	1480.555	-70.6683	-4.141517E-007	0.0006056	8
	54	156	1.201923	652.5103	-1680.754	1	1802.97	-68.78255	-3.807111E-007	0.0006881	8
	55	162	0.956633	870.8228	-1996.98	1	2178.592	-66.43944	-4.682803E-007	-2.575849E-005	8
