EXPLAIN
TAG	EISPOT
TITLE	LABEL	Potentiostatic EIS	Test Identifier
DATE	LABEL	2/24/2021	Date
TIME	LABEL	16:10:02	Time
NOTES	NOTES	1	Notes...
	
PSTAT	PSTAT	REF3000-16137	Potentiostat
VDC	POTEN	0.00000E+000	T	DC Voltage (V)
FREQINIT	QUANT	3.00000E+005	Initial Freq. (Hz)
FREQFINAL	QUANT	1.00000E+000	Final Freq. (Hz)
PTSPERDEC	QUANT	1.00000E+001	Points/decade
VAC	QUANT	5.00000E+001	AC Voltage (mV rms)
AREA	QUANT	1.00000E+000	Sample Area (cm^2)
SPEED	SELECTOR	2	Optimize for:
ZGUESS	QUANT	1.00000E+003	Estimated Z (ohms)
EOC	QUANT	0	Open Circuit (V)
SEQUENCER	TOGGLE	TRUE	Run as Sequence
PSTATMODEL	IQUANT	5	Pstat Model
PSTATSECTION	LABEL	REF3000-16137	Pstat Section
PSTATSERIALNO	LABEL	16137	Pstat Serial Number
CTRLMODE	IQUANT	1	Control Mode
IESTAB	IQUANT	0	I/E Stability
CASPEED	IQUANT	1	Control Amp Speed
CONVENTION	IQUANT	1	Current Convention
ICHRANGE	IQUANT	2	Ich Range
ICHRANGEMODE	TOGGLE	F	Ich Auto Range
ICHOFFSETENABLE	TOGGLE	T	Ich Offset Enable
ICHOFFSET	QUANT	0	Ich Offset (V)
ICHFILTER	IQUANT	3	Ich Filter
VCHRANGE	IQUANT	2	Vch Range
VCHRANGEMODE	TOGGLE	F	Vch Auto Range
VCHOFFSETENABLE	TOGGLE	T	Vch Offset Enable
VCHOFFSET	QUANT	0	Vch Offset (V)
VCHFILTER	IQUANT	3	Vch Filter
ACHRANGE	IQUANT	2	Ach Range
ACHOFFSETENABLE	TOGGLE	F	Ach Offset Enable
ACHOFFSET	QUANT	0	Ach Offset (V)
ACHFILTER	IQUANT	3	Ach Filter
IERANGELOWERLIMIT	IQUANT	2	I/E Range Lower Limit
IERANGEMODE	TOGGLE	F	I/E AutoRange
IERANGE	IQUANT	11	I/E Range
POSFEEDENABLE	TOGGLE	F	Positive Feedback IR Comp
POSFEEDRESISTANCE	QUANT	0	Positive Feedback Resistance (ohm)
ACHSELECT	IQUANT	0	Ach Select
CABLEID	IQUANT	13	Cable ID
DCCALDATE	LABEL	7/31/2020	DC Calibration Date
ACCALDATE	LABEL	7/31/2020	AC Calibration Date
THERMOSELECT	IQUANT	1	Thermo Select
FRAMEWORKVERSION	QUANT	6.33	Framework Version
INSTRUMENTVERSION	LABEL	3.50	Instrument Version
COMPLIANCEVOLTAGE	IQUANT	0	Compliance Voltage
ZCURVE	TABLE
	Pt	Time	Freq	Zreal	Zimag	Zsig	Zmod	Zphz	Idc	Vdc	IERange
	#	s	Hz	ohm	ohm	V	ohm	°	A	V	#
	0	13	300046.9	219.6906	-11.93436	1	220.0146	-3.109449	-7.962869E-005	0.0032556	9
	1	16	238359.4	222.1697	-10.42209	1	222.414	-2.685804	-2.874553E-006	-0.0015923	9
	2	19	189328.1	224.1384	-8.294595	1	224.2918	-2.119354	7.240002E-006	0.0011066	9
	3	22	150421.9	227.1877	-7.191164	1	227.3015	-1.812976	-5.599909E-005	0.0007749	9
	4	24	119484.4	228.1139	-5.983386	1	228.1924	-1.502513	-7.970581E-005	0.002152	9
	5	27	94921.88	229.8063	-5.062331	1	229.8621	-1.261947	2.657347E-005	-0.0004986	9
	6	30	75421.88	231.52	-4.312754	1	231.5602	-1.067182	-8.418495E-006	0.0008974	9
	7	32	59859.37	233.2582	-3.689941	1	233.2874	-0.9062936	8.504582E-006	-0.000626	9
	8	35	47578.12	234.8098	-3.179448	1	234.8313	-0.7757677	-9.78319E-006	-5.00481E-005	9
	9	37	37828.12	236.3056	-2.773717	1	236.3219	-0.6724977	1.100996E-005	0.0002652	9
	10	40	30046.88	238.1877	-2.394441	1	238.1997	-0.5759608	-1.869938E-005	0.0003459	9
	11	43	23859.38	240.4616	-2.330891	1	240.4729	-0.5553736	-2.340638E-005	0.0008484	9
	12	47	18984.38	242.6057	-2.121189	1	242.615	-0.5009448	2.217374E-005	-0.0008247	9
	13	50	15046.87	244.7571	-1.996443	1	244.7652	-0.4673418	1.586848E-005	-0.0007508	9
	14	54	11953.13	246.5666	-2.000346	1	246.5747	-0.464819	2.719584E-005	-0.000599	9
	15	57	9515.62	248.9728	-1.938644	1	248.9803	-0.4461287	-9.01458E-006	-7.426656E-005	9
	16	61	7546.875	251.8382	-2.023503	1	251.8463	-0.4603578	2.634778E-005	-0.0004613	9
	17	64	5928.309	253.3282	-2.548849	1	253.341	-0.5764592	1.085724E-005	0.0003295	9
	18	68	4733.456	256.0793	-3.152203	1	256.0987	-0.7052456	2.553425E-005	-0.0007326	9
	19	71	3796.875	258.1664	-2.680167	1	258.1803	-0.5947977	-7.107313E-006	-0.0001636	9
	20	75	2987.132	261.0716	-3.723086	1	261.0982	-0.8170273	-1.638953E-005	0.0010121	9
	21	79	2390.625	263.0157	-4.45285	1	263.0533	-0.969924	-1.537813E-005	0.0001614	9
	22	82	1884.191	265.9347	-4.328667	1	265.9699	-0.9325315	1.072272E-005	0.0003318	9
	23	86	1516.544	267.4691	-6.426509	1	267.5462	-1.376387	-1.332281E-006	-0.0003549	9
	24	88	1193.986	269.0507	-7.836351	1	269.1648	-1.668321	-9.827347E-006	-5.86573E-005	9
	25	91	946.5144	270.8942	-10.09619	1	271.0823	-2.134418	-2.099015E-005	0.0005095	9
	26	93	751.7689	273.5038	-11.70576	1	273.7542	-2.450722	2.60828E-005	-0.0007495	9
	27	97	597.4265	275.2905	-14.67472	1	275.6813	-3.05134	-1.168536E-006	-0.0003528	9
	28	99	477.4305	277.458	-18.22839	1	278.0562	-3.758806	1.201745E-006	9.375729E-005	9
	29	101	376.6741	279.5466	-22.67567	1	280.4648	-4.637444	1.266766E-006	0.0000963	9
	30	103	298.2954	281.7646	-28.13732	1	283.166	-5.702712	1.256298E-006	0.0000954	9
	31	106	237.7717	284.1919	-34.73579	1	286.3069	-6.9685	1.260326E-006	8.636394E-005	9
	32	108	189.0121	286.7769	-43.01531	1	289.985	-8.530527	1.204412E-006	0.0000958	9
	33	111	150.2404	289.6069	-53.27591	1	294.4664	-10.42356	1.278964E-006	9.029817E-005	9
	34	113	119.1737	292.7553	-66.14413	1	300.1345	-12.73145	1.280695E-006	9.176275E-005	9
	35	115	95.0169	296.2241	-81.7371	1	307.2941	-15.42578	1.261196E-006	0.0001337	9
	36	118	75.60484	300.2757	-101.1944	1	316.8687	-18.62407	1.275137E-006	8.518117E-005	9
	37	120	54.50582	306.3661	-137.3385	1	335.741	-24.14585	1.217751E-006	8.758327E-005	9
	38	123	45.95588	311.0385	-161.0209	1	350.2466	-27.37005	1.205712E-006	0.0001105	9
	39	125	37.20238	315.7816	-195.2513	1	371.2695	-31.72897	3.131507E-008	0.0006717	8
	40	128	30.04808	323.143	-238.1562	1	401.4222	-36.39019	2.941372E-008	0.0006723	8
	41	130	23.91582	332.4898	-294.265	1	444.006	-41.50994	-1.842503E-009	0.000665	8
	42	133	18.60119	345.0716	-371.205	1	506.8211	-47.08951	1.251938E-007	0.0006636	8
	43	135	15.02404	358.7681	-452.0333	1	577.1036	-51.56181	1.548536E-007	0.0006684	8
	44	137	12.01923	376.286	-554.6536	1	670.2475	-55.84639	6.721741E-008	0.0006596	8
	45	140	9.450605	399.8198	-691.0458	1	798.3734	-59.94753	3.58759E-008	0.0006849	8
	46	142	7.512019	428.5163	-851.5392	1	953.281	-63.28729	1.952669E-008	0.0006603	8
	47	145	5.978954	463.5304	-1047.501	1	1145.477	-66.13009	3.654269E-008	0.0006713	8
	48	148	4.734848	508.0508	-1293.641	1	1389.828	-68.5586	2.044119E-008	0.000639	8
	49	151	3.75601	563.9968	-1593.768	1	1690.618	-70.51233	7.691212E-008	0.0006986	8
	50	154	3.004808	629.572	-1947.193	1	2046.441	-72.08279	5.780788E-008	0.0006895	8
	51	158	2.372217	717.9705	-2405.017	1	2509.898	-73.37804	4.026714E-008	0.000651	8
	52	162	1.878005	827.888	-2973.558	1	3086.656	-74.44192	7.643157E-008	0.0006539	8
	53	167	1.512097	949.6635	-3612.198	1	3734.947	-75.27001	5.203674E-008	0.0007565	8
	54	173	1.201923	1122.411	-4452.123	1	4591.427	-75.8502	1.533491E-008	0.0006409	7
	55	179	0.956633	1329.545	-5459.775	1	5619.327	-76.31392	-2.59631E-008	5.609366E-006	7
