EXPLAIN
TAG	EISPOT
TITLE	LABEL	Potentiostatic EIS	Test Identifier
DATE	LABEL	2/24/2021	Date
TIME	LABEL	15:17:19	Time
NOTES	NOTES	1	Notes...
	
PSTAT	PSTAT	REF3000-16137	Potentiostat
VDC	POTEN	0.00000E+000	T	DC Voltage (V)
FREQINIT	QUANT	3.00000E+005	Initial Freq. (Hz)
FREQFINAL	QUANT	1.00000E+000	Final Freq. (Hz)
PTSPERDEC	QUANT	1.00000E+001	Points/decade
VAC	QUANT	5.00000E+001	AC Voltage (mV rms)
AREA	QUANT	1.00000E+000	Sample Area (cm^2)
SPEED	SELECTOR	2	Optimize for:
ZGUESS	QUANT	1.00000E+003	Estimated Z (ohms)
EOC	QUANT	0	Open Circuit (V)
SEQUENCER	TOGGLE	TRUE	Run as Sequence
PSTATMODEL	IQUANT	5	Pstat Model
PSTATSECTION	LABEL	REF3000-16137	Pstat Section
PSTATSERIALNO	LABEL	16137	Pstat Serial Number
CTRLMODE	IQUANT	1	Control Mode
IESTAB	IQUANT	0	I/E Stability
CASPEED	IQUANT	1	Control Amp Speed
CONVENTION	IQUANT	1	Current Convention
ICHRANGE	IQUANT	2	Ich Range
ICHRANGEMODE	TOGGLE	F	Ich Auto Range
ICHOFFSETENABLE	TOGGLE	T	Ich Offset Enable
ICHOFFSET	QUANT	0	Ich Offset (V)
ICHFILTER	IQUANT	3	Ich Filter
VCHRANGE	IQUANT	2	Vch Range
VCHRANGEMODE	TOGGLE	F	Vch Auto Range
VCHOFFSETENABLE	TOGGLE	T	Vch Offset Enable
VCHOFFSET	QUANT	0	Vch Offset (V)
VCHFILTER	IQUANT	3	Vch Filter
ACHRANGE	IQUANT	2	Ach Range
ACHOFFSETENABLE	TOGGLE	F	Ach Offset Enable
ACHOFFSET	QUANT	0	Ach Offset (V)
ACHFILTER	IQUANT	3	Ach Filter
IERANGELOWERLIMIT	IQUANT	2	I/E Range Lower Limit
IERANGEMODE	TOGGLE	F	I/E AutoRange
IERANGE	IQUANT	11	I/E Range
POSFEEDENABLE	TOGGLE	F	Positive Feedback IR Comp
POSFEEDRESISTANCE	QUANT	0	Positive Feedback Resistance (ohm)
ACHSELECT	IQUANT	0	Ach Select
CABLEID	IQUANT	13	Cable ID
DCCALDATE	LABEL	7/31/2020	DC Calibration Date
ACCALDATE	LABEL	7/31/2020	AC Calibration Date
THERMOSELECT	IQUANT	1	Thermo Select
FRAMEWORKVERSION	QUANT	6.33	Framework Version
INSTRUMENTVERSION	LABEL	3.50	Instrument Version
COMPLIANCEVOLTAGE	IQUANT	0	Compliance Voltage
ZCURVE	TABLE
	Pt	Time	Freq	Zreal	Zimag	Zsig	Zmod	Zphz	Idc	Vdc	IERange
	#	s	Hz	ohm	ohm	V	ohm	°	A	V	#
	0	10	300046.9	3.865177	2.229894	1	4.462289	29.98147	4.115992E-005	5.541408E-005	10
	1	13	238359.4	3.845274	1.777119	1	4.236069	24.80433	6.546413E-005	-0.0004953	10
	2	16	189328.1	3.830487	1.407368	1	4.080847	20.17395	-1.521503E-005	9.562136E-006	10
	3	19	150421.9	3.830765	1.103039	1	3.986409	16.06334	1.278023E-005	0.0001914	10
	4	21	119484.4	3.818403	0.8551376	1	3.912987	12.6232	1.773291E-005	0.0003432	10
	5	24	94921.88	3.818451	0.6679926	1	3.87644	9.9228	-1.20694E-005	0.0004514	10
	6	27	75421.88	3.822474	0.4947453	1	3.854359	7.374831	5.808452E-006	0.0005029	10
	7	29	59859.37	3.82629	0.3485898	1	3.842136	5.205497	-8.253874E-007	0.0005315	10
	8	32	47578.12	3.833163	0.2220312	1	3.839588	3.315083	-1.46977E-005	0.0006618	10
	9	34	37828.12	3.840065	0.1084697	1	3.841597	1.617994	-2.766106E-005	0.0006154	10
	10	37	30046.88	3.850163	0.0011538	1	3.850164	0.0171703	-9.856763E-006	0.0006745	10
	11	39	23859.38	3.861201	-0.1044908	1	3.862614	-1.550145	-2.031242E-005	0.0006908	10
	12	41	18984.38	3.872716	-0.2127848	1	3.878557	-3.144931	2.195286E-005	0.0006722	10
	13	44	15046.87	3.886555	-0.3309703	1	3.900622	-4.867437	-1.94102E-005	0.0007006	10
	14	46	11953.13	3.902165	-0.4632358	1	3.929565	-6.770041	-2.011489E-005	0.0007029	10
	15	48	9515.62	3.919743	-0.6150753	1	3.967707	-8.917976	7.097822E-006	0.0006572	10
	16	51	7546.875	3.941344	-0.7991815	1	4.021553	-11.46239	-3.051244E-005	0.0006704	10
	17	53	5928.309	3.968803	-1.030293	1	4.100354	-14.55263	-2.368019E-005	0.0006919	10
	18	55	4733.456	3.99965	-1.293401	1	4.20358	-17.9201	1.089045E-005	0.0006516	10
	19	58	3796.875	4.037935	-1.60689	1	4.345919	-21.7	-1.398647E-005	0.0006961	10
	20	60	2987.132	4.087626	-2.027354	1	4.562768	-26.38019	1.624079E-005	0.0006577	10
	21	62	2390.625	4.146428	-2.508995	1	4.846434	-31.17805	-1.880011E-005	0.0006824	10
	22	65	1884.191	4.228345	-3.143452	1	5.268794	-36.62799	-1.156397E-005	0.0006773	10
	23	67	1516.544	4.321333	-3.857434	1	5.792557	-41.75367	-5.91448E-006	0.000694	10
	24	69	1193.986	4.453865	-4.822671	1	6.564684	-47.2767	2.054843E-005	0.0006811	10
	25	72	946.5144	4.61846	-5.988562	1	7.562608	-52.3601	8.988205E-006	0.0006525	10
	26	74	751.7689	4.829626	-7.406132	1	8.841723	-56.89116	-2.131322E-005	0.0007148	10
	27	76	597.4265	5.097798	-9.151718	1	10.47576	-60.8808	-2.729025E-005	0.0006982	10
	28	79	477.4305	5.429126	-11.23236	1	12.47563	-64.20335	-2.679637E-006	0.0006824	10
	29	81	376.6741	5.869152	-13.9401	1	15.12526	-67.16763	-2.354164E-006	0.0006887	10
	30	83	298.2954	6.415429	-17.22974	1	18.38537	-69.57738	-2.325539E-006	0.0006951	10
	31	86	237.7717	7.082025	-21.15679	1	22.31064	-71.49254	-3.332858E-006	0.0006974	10
	32	88	189.0121	7.928982	-26.03298	1	27.21369	-73.0606	-2.589041E-006	0.0006911	10
	33	90	150.2404	8.999219	-32.02382	1	33.26426	-74.30376	-2.538435E-006	0.0007329	10
	34	93	119.1737	10.36609	-39.44453	1	40.7839	-75.27554	-2.693181E-006	0.0007235	10
	35	95	95.0169	12.05212	-48.27041	1	49.75225	-75.98106	1.172107E-006	0.0000951	9
	36	98	75.60484	14.23241	-59.20732	1	60.89391	-76.48354	1.047569E-006	9.354017E-005	9
	37	100	54.50582	18.4232	-79.17364	1	81.28886	-76.90074	8.944199E-007	9.108939E-005	9
	38	103	45.95588	21.25934	-92.04342	1	94.46667	-76.99442	1.227716E-006	0.0000952	9
	39	105	37.20238	25.57137	-110.8287	1	113.7405	-77.00758	1.125066E-006	8.896016E-005	9
	40	108	30.04808	30.99067	-133.5127	1	137.0623	-76.93204	8.743696E-007	9.497232E-005	9
	41	110	23.91582	38.19756	-162.5605	1	166.9879	-76.77684	1.013981E-006	8.797742E-005	9
	42	112	18.60119	48.00535	-201.4221	1	207.0638	-76.59467	8.49696E-007	9.104044E-005	9
	43	115	15.02404	58.37145	-241.4426	1	248.3984	-76.40889	9.107605E-007	8.827996E-005	9
	44	117	12.01923	71.18359	-291.276	1	299.848	-76.26692	1.250782E-006	8.745975E-005	9
	45	119	9.450605	87.65665	-356.5563	1	367.1731	-76.18818	1.233345E-006	8.064033E-005	9
	46	122	7.512019	105.7553	-430.7067	1	443.5002	-76.20456	5.214054E-007	0.0006578	8
	47	125	5.978954	127.651	-522.0646	1	537.4442	-76.26009	5.138825E-007	0.0006721	8
	48	128	4.734848	154.1215	-636.5679	1	654.9596	-76.38984	4.829738E-007	0.0006485	8
	49	131	3.75601	186.1531	-775.8906	1	797.9092	-76.50851	5.990043E-007	0.0006869	8
	50	134	3.004808	223.5248	-940.1181	1	966.326	-76.62554	5.341678E-007	0.0006961	8
	51	138	2.372217	272.7099	-1152.595	1	1184.418	-76.68832	4.814949E-007	0.0007067	8
	52	142	1.878005	336.9035	-1413.372	1	1452.971	-76.59268	5.183658E-007	0.0006563	8
	53	147	1.512097	409.3184	-1708.274	1	1756.628	-76.52544	5.142571E-007	0.0007699	8
	54	152	1.201923	510.6373	-2089.37	1	2150.865	-76.26626	5.356756E-007	0.0006561	8
	55	159	0.956633	640.7163	-2550.854	1	2630.09	-75.90029	4.625282E-007	2.350666E-005	8
