EXPLAIN
TAG	EISPOT
TITLE	LABEL	Potentiostatic EIS	Test Identifier
DATE	LABEL	2/24/2021	Date
TIME	LABEL	16:13:10	Time
NOTES	NOTES	1	Notes...
	
PSTAT	PSTAT	REF3000-16137	Potentiostat
VDC	POTEN	0.00000E+000	T	DC Voltage (V)
FREQINIT	QUANT	3.00000E+005	Initial Freq. (Hz)
FREQFINAL	QUANT	1.00000E+000	Final Freq. (Hz)
PTSPERDEC	QUANT	1.00000E+001	Points/decade
VAC	QUANT	5.00000E+001	AC Voltage (mV rms)
AREA	QUANT	1.00000E+000	Sample Area (cm^2)
SPEED	SELECTOR	2	Optimize for:
ZGUESS	QUANT	1.00000E+003	Estimated Z (ohms)
EOC	QUANT	0	Open Circuit (V)
SEQUENCER	TOGGLE	TRUE	Run as Sequence
PSTATMODEL	IQUANT	5	Pstat Model
PSTATSECTION	LABEL	REF3000-16137	Pstat Section
PSTATSERIALNO	LABEL	16137	Pstat Serial Number
CTRLMODE	IQUANT	1	Control Mode
IESTAB	IQUANT	0	I/E Stability
CASPEED	IQUANT	1	Control Amp Speed
CONVENTION	IQUANT	1	Current Convention
ICHRANGE	IQUANT	2	Ich Range
ICHRANGEMODE	TOGGLE	F	Ich Auto Range
ICHOFFSETENABLE	TOGGLE	T	Ich Offset Enable
ICHOFFSET	QUANT	0	Ich Offset (V)
ICHFILTER	IQUANT	3	Ich Filter
VCHRANGE	IQUANT	2	Vch Range
VCHRANGEMODE	TOGGLE	F	Vch Auto Range
VCHOFFSETENABLE	TOGGLE	T	Vch Offset Enable
VCHOFFSET	QUANT	0	Vch Offset (V)
VCHFILTER	IQUANT	3	Vch Filter
ACHRANGE	IQUANT	2	Ach Range
ACHOFFSETENABLE	TOGGLE	F	Ach Offset Enable
ACHOFFSET	QUANT	0	Ach Offset (V)
ACHFILTER	IQUANT	3	Ach Filter
IERANGELOWERLIMIT	IQUANT	2	I/E Range Lower Limit
IERANGEMODE	TOGGLE	F	I/E AutoRange
IERANGE	IQUANT	11	I/E Range
POSFEEDENABLE	TOGGLE	F	Positive Feedback IR Comp
POSFEEDRESISTANCE	QUANT	0	Positive Feedback Resistance (ohm)
ACHSELECT	IQUANT	0	Ach Select
CABLEID	IQUANT	13	Cable ID
DCCALDATE	LABEL	7/31/2020	DC Calibration Date
ACCALDATE	LABEL	7/31/2020	AC Calibration Date
THERMOSELECT	IQUANT	1	Thermo Select
FRAMEWORKVERSION	QUANT	6.33	Framework Version
INSTRUMENTVERSION	LABEL	3.50	Instrument Version
COMPLIANCEVOLTAGE	IQUANT	0	Compliance Voltage
ZCURVE	TABLE
	Pt	Time	Freq	Zreal	Zimag	Zsig	Zmod	Zphz	Idc	Vdc	IERange
	#	s	Hz	ohm	ohm	V	ohm	°	A	V	#
	0	17	300046.9	350.4665	-37.04137	1	352.4185	-6.033285	-1.856038E-005	0.0010131	9
	1	21	238359.4	357.762	-32.11299	1	359.2003	-5.129167	-5.799095E-005	0.0005463	9
	2	26	189328.1	364.2467	-26.03569	1	365.176	-4.088445	5.018015E-005	-2.966258E-005	9
	3	31	150421.9	372.8436	-20.7322	1	373.4195	-3.18269	-1.752507E-005	0.001393	9
	4	39	119484.4	379.7521	-19.0956	1	380.2319	-2.878659	-8.46652E-005	0.0022142	9
	5	45	94921.88	385.7613	-15.98267	1	386.0923	-2.372493	2.432181E-005	-0.0001779	9
	6	48	75421.88	389.4448	-13.22967	1	389.6694	-1.945623	-2.305859E-005	0.0009333	9
	7	51	59859.37	392.3338	-10.90832	1	392.4854	-1.592623	-2.428435E-005	0.0008509	9
	8	53	47578.12	395.4996	-9.144312	1	395.6053	-1.324495	1.056757E-005	0.0003106	9
	9	56	37828.12	396.5666	-2.986832	1	396.5779	-0.4315281	3.580923E-006	-0.0031664	8
	10	58	30046.88	399.4212	-3.005658	1	399.4326	-0.4311446	-2.686666E-006	-0.0016366	8
	11	61	23859.38	402.2185	-2.951076	1	402.2293	-0.4203714	1.387456E-005	-0.0020884	8
	12	63	18984.38	404.8648	-2.912866	1	404.8752	-0.4122167	-1.364927E-005	0.0047731	8
	13	66	15046.87	407.311	-3.53112	1	407.3264	-0.4967044	-1.276142E-005	0.0029094	8
	14	68	11953.13	410.2201	-2.361965	1	410.2269	-0.329894	-1.280346E-005	0.0028722	8
	15	70	9515.62	412.4237	-1.938867	1	412.4283	-0.2693543	-1.137119E-005	0.002494	8
	16	72	7546.875	415.2996	-2.576868	1	415.3076	-0.3555066	1.14602E-005	-0.0003593	8
	17	75	5928.309	418.9028	-3.039179	1	418.9138	-0.4156789	2.701038E-006	-0.0033713	8
	18	77	4733.456	421.0944	-3.569586	1	421.1095	-0.4856805	7.275811E-006	-0.0043093	8
	19	79	3796.875	423.8133	-3.927962	1	423.8315	-0.5310102	1.273254E-005	-0.0042812	8
	20	82	2987.132	426.4391	-4.028148	1	426.4581	-0.5412005	1.539809E-005	-0.0032333	8
	21	84	2390.625	428.9318	-4.902854	1	428.9598	-0.6548841	-1.271833E-005	0.0027653	8
	22	86	1884.191	431.8721	-7.70149	1	431.9407	-1.021636	-1.090554E-005	0.0017291	8
	23	89	1516.544	435.21	-7.749197	1	435.279	-1.020081	-1.392638E-005	0.0058995	8
	24	91	1193.986	438.9597	-8.729678	1	439.0465	-1.139302	-1.067225E-005	0.001659	8
	25	93	946.5144	440.4318	-10.39258	1	440.5544	-1.351721	-1.374015E-005	0.0058894	8
	26	96	751.7689	444.3772	-12.91234	1	444.5648	-1.664385	-4.459449E-006	0.0054168	8
	27	98	597.4265	448.179	-15.26593	1	448.4389	-1.950863	7.360124E-006	-0.0044251	8
	28	100	477.4305	450.5435	-19.20593	1	450.9526	-2.440948	6.032099E-010	0.0006684	8
	29	103	376.6741	453.9084	-23.81787	1	454.5329	-3.003718	2.365301E-009	0.0006744	8
	30	105	298.2954	457.4302	-29.50378	1	458.3807	-3.690408	3.115562E-008	0.0006545	8
	31	107	237.7717	461.1942	-36.3747	1	462.6264	-4.509622	3.30024E-008	0.0006625	8
	32	110	189.0121	465.1568	-44.97944	1	467.3264	-5.523179	2.025154E-008	0.0006583	8
	33	112	150.2404	469.3958	-55.664	1	472.6848	-6.762922	-1.411759E-008	0.0006777	8
	34	115	119.1737	473.9393	-69.05252	1	478.9433	-8.289614	1.556445E-008	0.0006681	8
	35	117	95.0169	478.8082	-85.28616	1	486.3445	-10.0997	1.582121E-009	0.0006604	8
	36	119	75.60484	484.3443	-105.5585	1	495.7137	-12.29485	2.414471E-009	0.000674	8
	37	122	54.50582	491.9438	-143.2287	1	512.3702	-16.23283	1.319119E-008	0.0006629	8
	38	125	45.95588	497.9692	-167.9777	1	525.5377	-18.64057	5.041864E-008	0.0006596	8
	39	127	37.20238	505.3695	-204.6168	1	545.2214	-22.04231	2.267358E-008	0.0006648	8
	40	129	30.04808	514.0098	-249.703	1	571.4522	-25.91022	2.008576E-008	0.0006552	8
	41	132	23.91582	524.6027	-308.855	1	608.7688	-30.48706	-2.812167E-008	0.0006607	8
	42	134	18.60119	538.1691	-390.0687	1	664.665	-35.93486	6.676145E-008	0.0006579	8
	43	136	15.02404	552.9662	-475.3803	1	729.2175	-40.68537	-2.504086E-008	0.0006824	8
	44	139	12.01923	571.7382	-584.11	1	817.3549	-45.61325	-7.219829E-008	0.0006631	8
	45	141	9.450605	596.5485	-728.9987	1	941.9709	-50.70612	3.50561E-008	0.0006808	8
	46	144	7.512019	626.3623	-899.991	1	1096.501	-55.16343	7.044171E-008	0.0006836	8
	47	146	5.978954	663.7517	-1109.114	1	1292.556	-59.1015	3.960607E-008	0.0006517	8
	48	149	4.734848	711.034	-1371.671	1	1545.008	-62.59911	2.722451E-008	0.0006963	8
	49	153	3.75601	770.8232	-1692.349	1	1859.627	-65.5119	-2.061934E-008	0.0006527	8
	50	156	3.004808	841.5256	-2069.514	1	2234.067	-67.87189	-1.701856E-008	0.0006898	8
	51	160	2.372217	938.0784	-2559.565	1	2726.053	-69.87216	6.097556E-009	0.0007237	8
	52	164	1.878005	1050.675	-3165.063	1	3334.898	-71.63588	-2.900621E-008	0.0006494	8
	53	169	1.512097	1177.064	-3840.717	1	4017.037	-72.96127	2.360298E-009	0.0006235	8
	54	174	1.201923	1359.787	-4743.282	1	4934.343	-74.00365	-2.751874E-008	0.0006332	7
	55	180	0.956633	1574.718	-5821.751	1	6030.964	-74.86433	-2.788243E-008	-3.661811E-006	7
