EXPLAIN
TAG	EISPOT
TITLE	LABEL	Potentiostatic EIS	Test Identifier
DATE	LABEL	2/24/2021	Date
TIME	LABEL	15:25:43	Time
NOTES	NOTES	1	Notes...
	
PSTAT	PSTAT	REF3000-16137	Potentiostat
VDC	POTEN	0.00000E+000	T	DC Voltage (V)
FREQINIT	QUANT	3.00000E+005	Initial Freq. (Hz)
FREQFINAL	QUANT	1.00000E+000	Final Freq. (Hz)
PTSPERDEC	QUANT	1.00000E+001	Points/decade
VAC	QUANT	5.00000E+001	AC Voltage (mV rms)
AREA	QUANT	1.00000E+000	Sample Area (cm^2)
SPEED	SELECTOR	2	Optimize for:
ZGUESS	QUANT	1.00000E+003	Estimated Z (ohms)
EOC	QUANT	0	Open Circuit (V)
SEQUENCER	TOGGLE	TRUE	Run as Sequence
PSTATMODEL	IQUANT	5	Pstat Model
PSTATSECTION	LABEL	REF3000-16137	Pstat Section
PSTATSERIALNO	LABEL	16137	Pstat Serial Number
CTRLMODE	IQUANT	1	Control Mode
IESTAB	IQUANT	0	I/E Stability
CASPEED	IQUANT	1	Control Amp Speed
CONVENTION	IQUANT	1	Current Convention
ICHRANGE	IQUANT	2	Ich Range
ICHRANGEMODE	TOGGLE	F	Ich Auto Range
ICHOFFSETENABLE	TOGGLE	T	Ich Offset Enable
ICHOFFSET	QUANT	0	Ich Offset (V)
ICHFILTER	IQUANT	3	Ich Filter
VCHRANGE	IQUANT	2	Vch Range
VCHRANGEMODE	TOGGLE	F	Vch Auto Range
VCHOFFSETENABLE	TOGGLE	T	Vch Offset Enable
VCHOFFSET	QUANT	0	Vch Offset (V)
VCHFILTER	IQUANT	3	Vch Filter
ACHRANGE	IQUANT	2	Ach Range
ACHOFFSETENABLE	TOGGLE	F	Ach Offset Enable
ACHOFFSET	QUANT	0	Ach Offset (V)
ACHFILTER	IQUANT	3	Ach Filter
IERANGELOWERLIMIT	IQUANT	2	I/E Range Lower Limit
IERANGEMODE	TOGGLE	F	I/E AutoRange
IERANGE	IQUANT	11	I/E Range
POSFEEDENABLE	TOGGLE	F	Positive Feedback IR Comp
POSFEEDRESISTANCE	QUANT	0	Positive Feedback Resistance (ohm)
ACHSELECT	IQUANT	0	Ach Select
CABLEID	IQUANT	13	Cable ID
DCCALDATE	LABEL	7/31/2020	DC Calibration Date
ACCALDATE	LABEL	7/31/2020	AC Calibration Date
THERMOSELECT	IQUANT	1	Thermo Select
FRAMEWORKVERSION	QUANT	6.33	Framework Version
INSTRUMENTVERSION	LABEL	3.50	Instrument Version
COMPLIANCEVOLTAGE	IQUANT	0	Compliance Voltage
ZCURVE	TABLE
	Pt	Time	Freq	Zreal	Zimag	Zsig	Zmod	Zphz	Idc	Vdc	IERange
	#	s	Hz	ohm	ohm	V	ohm	°	A	V	#
	0	10	300046.9	5.333239	2.239088	1	5.784198	22.77444	-4.4459E-005	0.0002204	10
	1	14	238359.4	5.308632	1.762124	1	5.593448	18.36284	1.087656E-005	-0.0001302	10
	2	17	189328.1	5.302312	1.396104	1	5.48303	14.75123	-8.068672E-005	0.0002599	10
	3	19	150421.9	5.289038	1.090613	1	5.400311	11.65123	-0.0001076	0.0003067	10
	4	22	119484.4	5.299501	0.8466504	1	5.366706	9.076891	1.13515E-005	0.000454	10
	5	24	94921.88	5.306942	0.6634305	1	5.348249	7.125683	2.970755E-006	0.0005152	10
	6	27	75421.88	5.311981	0.4899976	1	5.334533	5.270269	1.984243E-005	0.0005369	10
	7	29	59859.37	5.319987	0.341174	1	5.330915	3.669388	-2.750016E-005	0.0005919	10
	8	32	47578.12	5.330736	0.2110599	1	5.334913	2.267329	-9.094264E-006	0.0006128	10
	9	35	37828.12	5.344567	0.094549	1	5.345403	1.013495	6.441956E-006	0.0006213	10
	10	37	30046.88	5.359466	-0.0146585	1	5.359486	-0.1567075	-3.104644E-005	0.0006608	10
	11	40	23859.38	5.375672	-0.1223374	1	5.377064	-1.30369	1.900384E-005	0.0006907	10
	12	42	18984.38	5.391623	-0.2332852	1	5.396668	-2.477533	1.722428E-005	0.0006498	10
	13	44	15046.87	5.410337	-0.3551333	1	5.42198	-3.755494	-2.540551E-006	0.0007058	10
	14	47	11953.13	5.430071	-0.4927646	1	5.452384	-5.185237	-2.085543E-005	0.0006702	10
	15	49	9515.62	5.4525	-0.650732	1	5.491194	-6.805809	2.115989E-005	0.0006618	10
	16	51	7546.875	5.479175	-0.8423298	1	5.543544	-8.739826	-1.0036E-005	0.0006751	10
	17	53	5928.309	5.511515	-1.083905	1	5.617085	-11.12592	1.745628E-005	0.0006612	10
	18	56	4733.456	5.547597	-1.359802	1	5.711821	-13.77255	1.824839E-005	0.0006785	10
	19	58	3796.875	5.589964	-1.68908	1	5.83958	-16.81287	-2.439501E-005	0.0006738	10
	20	60	2987.132	5.645038	-2.129335	1	6.033285	-20.66671	-2.615344E-005	0.0006927	10
	21	63	2390.625	5.707966	-2.635951	1	6.287219	-24.78759	-5.748868E-006	0.0006539	10
	22	65	1884.191	5.791332	-3.303219	1	6.667142	-29.69926	1.93295E-005	0.0006782	10
	23	67	1516.544	5.888833	-4.05278	1	7.148663	-34.53631	4.243267E-006	0.0006557	10
	24	70	1193.986	6.023294	-5.073683	1	7.875426	-40.1089	2.104795E-005	0.0006803	10
	25	72	946.5144	6.193687	-6.299642	1	8.834435	-45.48591	-1.531922E-005	0.0006976	10
	26	74	751.7689	6.401301	-7.812796	1	10.10032	-50.67102	4.761001E-006	0.0006967	10
	27	77	597.4265	6.672126	-9.6597	1	11.73998	-55.36647	2.065504E-005	0.0006697	10
	28	79	477.4305	7.007827	-11.87978	1	13.79271	-59.46384	-2.391459E-006	0.0006932	10
	29	81	376.6741	7.457317	-14.76483	1	16.54121	-63.20288	-2.216148E-006	0.000692	10
	30	84	298.2954	8.018059	-18.2705	1	19.95246	-66.3056	-2.112909E-006	0.0006878	10
	31	86	237.7717	8.704225	-22.45806	1	24.08585	-68.81483	-1.983627E-006	0.000687	10
	32	89	189.0121	9.57417	-27.66141	1	29.27146	-70.90823	-1.612198E-006	0.000688	10
	33	91	150.2404	10.66275	-34.04898	1	35.67951	-72.61158	-1.935745E-006	0.0006895	10
	34	93	119.1737	12.03068	-41.92469	1	43.6167	-73.98868	1.276616E-006	9.415531E-005	9
	35	96	95.0169	13.73609	-51.42139	1	53.22442	-75.04391	1.219416E-006	0.0000963	9
	36	98	75.60484	15.91411	-63.15396	1	65.12819	-75.85654	1.203421E-006	9.368862E-005	9
	37	101	54.50582	20.09369	-84.6509	1	87.00305	-76.64677	1.121648E-006	8.930203E-005	9
	38	103	45.95588	22.93237	-98.5816	1	101.2137	-76.90456	1.159593E-006	0.0000978	9
	39	106	37.20238	27.21799	-118.9166	1	121.9917	-77.10803	1.296633E-006	0.0001017	9
	40	108	30.04808	32.64851	-143.5829	1	147.248	-77.18965	1.202793E-006	9.238152E-005	9
	41	110	23.91582	40.01052	-175.5225	1	180.0249	-77.15879	1.105536E-006	0.0001066	9
	42	113	18.60119	50.21087	-218.2403	1	223.9419	-77.04335	1.493786E-006	8.72907E-005	9
	43	115	15.02404	61.12567	-262.3257	1	269.3532	-76.88331	1.223625E-006	8.040249E-005	9
	44	117	12.01923	75.16018	-317.3783	1	326.1565	-76.6769	1.275025E-006	0.0001081	9
	45	120	9.450605	93.51516	-389.0409	1	400.1224	-76.48403	1.378089E-006	7.880425E-005	9
	46	122	7.512019	114.2785	-469.9205	1	483.6165	-76.33174	7.048678E-007	0.0006769	8
	47	125	5.978954	138.703	-569.3303	1	585.9825	-76.30805	5.938118E-007	0.0006679	8
	48	128	4.734848	168.2749	-693.3379	1	713.4661	-76.35794	6.883764E-007	0.0006815	8
	49	131	3.75601	203.0793	-843.1149	1	867.2278	-76.45726	5.665919E-007	0.0006529	8
	50	135	3.004808	242.6753	-1018.638	1	1047.146	-76.59992	6.443963E-007	0.0006569	8
	51	138	2.372217	295.1536	-1245.822	1	1280.307	-76.67152	6.426992E-007	0.0006982	8
	52	143	1.878005	356.4379	-1527.57	1	1568.604	-76.8658	5.641285E-007	0.0006547	8
	53	147	1.512097	423.1264	-1841.728	1	1889.708	-77.06115	6.235572E-007	0.000605	8
	54	153	1.201923	518.5146	-2255.353	1	2314.19	-77.05246	5.810683E-007	0.0006568	8
	55	159	0.956633	634.6149	-2753.853	1	2826.03	-77.02296	5.722139E-007	2.157313E-005	8
