EXPLAIN
TAG	EISPOT
TITLE	LABEL	Potentiostatic EIS	Test Identifier
DATE	LABEL	2/24/2021	Date
TIME	LABEL	15:06:03	Time
NOTES	NOTES	1	Notes...
	
PSTAT	PSTAT	REF3000-16137	Potentiostat
VDC	POTEN	0.00000E+000	T	DC Voltage (V)
FREQINIT	QUANT	3.00000E+005	Initial Freq. (Hz)
FREQFINAL	QUANT	1.00000E+000	Final Freq. (Hz)
PTSPERDEC	QUANT	1.00000E+001	Points/decade
VAC	QUANT	5.00000E+001	AC Voltage (mV rms)
AREA	QUANT	1.00000E+000	Sample Area (cm^2)
SPEED	SELECTOR	2	Optimize for:
ZGUESS	QUANT	1.00000E+003	Estimated Z (ohms)
EOC	QUANT	0	Open Circuit (V)
SEQUENCER	TOGGLE	TRUE	Run as Sequence
PSTATMODEL	IQUANT	5	Pstat Model
PSTATSECTION	LABEL	REF3000-16137	Pstat Section
PSTATSERIALNO	LABEL	16137	Pstat Serial Number
CTRLMODE	IQUANT	1	Control Mode
IESTAB	IQUANT	0	I/E Stability
CASPEED	IQUANT	1	Control Amp Speed
CONVENTION	IQUANT	1	Current Convention
ICHRANGE	IQUANT	2	Ich Range
ICHRANGEMODE	TOGGLE	F	Ich Auto Range
ICHOFFSETENABLE	TOGGLE	T	Ich Offset Enable
ICHOFFSET	QUANT	0	Ich Offset (V)
ICHFILTER	IQUANT	3	Ich Filter
VCHRANGE	IQUANT	2	Vch Range
VCHRANGEMODE	TOGGLE	F	Vch Auto Range
VCHOFFSETENABLE	TOGGLE	T	Vch Offset Enable
VCHOFFSET	QUANT	0	Vch Offset (V)
VCHFILTER	IQUANT	3	Vch Filter
ACHRANGE	IQUANT	2	Ach Range
ACHOFFSETENABLE	TOGGLE	F	Ach Offset Enable
ACHOFFSET	QUANT	0	Ach Offset (V)
ACHFILTER	IQUANT	3	Ach Filter
IERANGELOWERLIMIT	IQUANT	2	I/E Range Lower Limit
IERANGEMODE	TOGGLE	F	I/E AutoRange
IERANGE	IQUANT	11	I/E Range
POSFEEDENABLE	TOGGLE	F	Positive Feedback IR Comp
POSFEEDRESISTANCE	QUANT	0	Positive Feedback Resistance (ohm)
ACHSELECT	IQUANT	0	Ach Select
CABLEID	IQUANT	13	Cable ID
DCCALDATE	LABEL	7/31/2020	DC Calibration Date
ACCALDATE	LABEL	7/31/2020	AC Calibration Date
THERMOSELECT	IQUANT	1	Thermo Select
FRAMEWORKVERSION	QUANT	6.33	Framework Version
INSTRUMENTVERSION	LABEL	3.50	Instrument Version
COMPLIANCEVOLTAGE	IQUANT	0	Compliance Voltage
ZCURVE	TABLE
	Pt	Time	Freq	Zreal	Zimag	Zsig	Zmod	Zphz	Idc	Vdc	IERange
	#	s	Hz	ohm	ohm	V	ohm	°	A	V	#
	0	10	300046.9	2.810651	2.246247	1	3.59797	38.63153	3.11664E-005	-0.0001645	10
	1	14	238359.4	2.778654	1.787656	1	3.304033	32.75533	8.074669E-006	-0.0005632	10
	2	17	189328.1	2.839823	1.199768	1	3.082862	22.90307	-0.0001906	-0.0004699	12
	3	20	150421.9	2.747208	1.085115	1	2.953748	21.55344	1.386061E-005	0.0004078	11
	4	23	119484.4	2.741471	0.8488894	1	2.869891	17.205	-6.643097E-005	0.000517	11
	5	26	94921.88	2.73588	0.6495462	1	2.811929	13.35575	-2.692806E-005	0.0005881	11
	6	28	75421.88	2.734435	0.4826733	1	2.776708	10.01054	-1.659109E-007	0.0005882	11
	7	31	59859.37	2.736215	0.3422517	1	2.757537	7.129651	-2.615194E-005	0.0006253	11
	8	33	47578.12	2.738109	0.2205174	1	2.746974	4.604459	1.029035E-005	0.0006512	11
	9	36	37828.12	2.743602	0.1121976	1	2.745895	2.341764	2.187094E-005	0.0007106	11
	10	38	30046.88	2.748806	0.0099815	1	2.748825	0.2080513	-1.453139E-005	0.0006474	11
	11	41	23859.38	2.756055	-0.0906529	1	2.757546	-1.883908	1.163563E-005	0.0006924	11
	12	43	18984.38	2.764564	-0.1932051	1	2.771307	-3.99769	2.514698E-005	0.0007189	11
	13	45	15046.87	2.774908	-0.3060696	1	2.791736	-6.294225	1.659697E-005	0.0007228	11
	14	48	11953.13	2.788018	-0.4317682	1	2.821253	-8.803215	-2.098127E-005	0.0007107	11
	15	50	9515.62	2.802432	-0.5764738	1	2.861109	-11.62388	-3.488914E-006	0.0007081	11
	16	52	7546.875	2.821502	-0.7502614	1	2.919549	-14.89085	-2.817908E-005	0.0007035	11
	17	55	5928.309	2.845045	-0.968829	1	3.00548	-18.80536	-5.774223E-007	0.0007055	11
	18	57	4733.456	2.87335	-1.217515	1	3.120655	-22.96367	-1.584886E-005	0.0006894	11
	19	59	3796.875	2.908188	-1.513842	1	3.278609	-27.499	1.743508E-005	0.0007348	11
	20	61	2987.132	2.957289	-1.908624	1	3.519717	-32.83807	-3.367554E-005	0.0007219	11
	21	64	2390.625	3.018272	-2.362567	1	3.832974	-38.05223	9.672635E-006	0.0006932	10
	22	66	1884.191	3.098161	-2.956375	1	4.282377	-43.65849	2.186066E-005	0.0006675	10
	23	68	1516.544	3.19257	-3.622041	1	4.828218	-48.60613	1.65806E-005	0.0006612	10
	24	71	1193.986	3.324556	-4.522508	1	5.612998	-53.67989	2.229661E-005	0.0006728	10
	25	73	946.5144	3.493913	-5.600519	1	6.601003	-58.04181	2.111066E-005	0.0006672	10
	26	76	751.7689	3.698098	-6.920234	1	7.846373	-61.88044	2.059489E-005	0.0006726	10
	27	78	597.4265	3.957002	-8.535841	1	9.408424	-65.12874	4.324443E-006	0.0006873	10
	28	80	477.4305	4.279525	-10.46247	1	11.30387	-67.75368	-1.579903E-006	0.000684	10
	29	82	376.6741	4.705871	-12.96763	1	13.79509	-70.05448	-1.625046E-006	0.000682	10
	30	85	298.2954	5.23644	-16.01017	1	16.84475	-71.88865	-2.134555E-006	0.0006875	10
	31	87	237.7717	5.887291	-19.6384	1	20.50187	-73.31207	-2.140929E-006	0.0006828	10
	32	90	189.0121	6.719473	-24.13936	1	25.05714	-74.44484	-2.773597E-006	0.0006931	10
	33	92	150.2404	7.778023	-29.65549	1	30.65853	-75.30352	-1.995298E-006	0.0006877	10
	34	94	119.1737	9.138253	-36.46925	1	37.59672	-75.93279	-2.244575E-006	0.0006825	10
	35	97	95.0169	10.81674	-44.54673	1	45.84118	-76.35171	7.99365E-007	8.514157E-005	9
	36	99	75.60484	12.98267	-54.51949	1	56.04395	-76.60567	5.917514E-007	0.0001143	9
	37	102	54.50582	17.12864	-72.62076	1	74.61343	-76.72853	5.733502E-007	8.652839E-005	9
	38	104	45.95588	19.91829	-84.24387	1	86.56655	-76.6975	9.657805E-007	8.886849E-005	9
	39	107	37.20238	24.07759	-101.0701	1	103.8985	-76.60037	9.223486E-007	8.76126E-005	9
	40	109	30.04808	29.19192	-121.3153	1	124.7781	-76.47022	6.317466E-007	0.0001144	9
	41	112	23.91582	35.8717	-147.3264	1	151.6306	-76.31564	6.315125E-007	8.355595E-005	9
	42	114	18.60119	44.78753	-182.1007	1	187.5276	-76.1824	1.002418E-006	9.068877E-005	9
	43	116	15.02404	53.87133	-217.9789	1	224.5371	-76.11808	7.761354E-007	7.837116E-005	9
	44	118	12.01923	65.14254	-262.9883	1	270.9362	-76.08778	8.012632E-007	7.91395E-005	9
	45	121	9.450605	79.70148	-322.492	1	332.1948	-76.11795	8.69537E-007	7.536665E-005	9
	46	123	7.512019	96.4477	-391.8268	1	403.5225	-76.17162	1.04708E-006	0.0001046	9
	47	126	5.978954	116.3235	-474.1647	1	488.2246	-76.21624	2.038338E-007	0.0006674	8
	48	129	4.734848	142.3632	-579.7267	1	596.9509	-76.20292	2.93382E-007	0.0006571	8
	49	132	3.75601	174.4206	-708.0961	1	729.2617	-76.16219	1.976169E-007	0.0006546	8
	50	136	3.004808	214.0167	-858.458	1	884.7335	-76.00131	2.776228E-007	0.0006287	8
	51	139	2.372217	268.5073	-1053.249	1	1086.936	-75.69808	2.416664E-007	0.0006102	8
	52	144	1.878005	342.0818	-1289.134	1	1333.749	-75.13862	2.137043E-007	0.000668	8
	53	148	1.512097	431.6482	-1551.868	1	1610.781	-74.45622	2.148572E-007	0.0005635	8
	54	154	1.201923	556.5443	-1892.417	1	1972.558	-73.61182	2.324744E-007	0.0006876	8
	55	160	0.956633	726.5579	-2295.384	1	2407.629	-72.43586	1.771626E-007	1.999545E-005	8
