EXPLAIN
TAG	EISPOT
TITLE	LABEL	Potentiostatic EIS	Test Identifier
DATE	LABEL	2/24/2021	Date
TIME	LABEL	15:39:39	Time
NOTES	NOTES	1	Notes...
	
PSTAT	PSTAT	REF3000-16137	Potentiostat
VDC	POTEN	0.00000E+000	T	DC Voltage (V)
FREQINIT	QUANT	3.00000E+005	Initial Freq. (Hz)
FREQFINAL	QUANT	1.00000E+000	Final Freq. (Hz)
PTSPERDEC	QUANT	1.00000E+001	Points/decade
VAC	QUANT	5.00000E+001	AC Voltage (mV rms)
AREA	QUANT	1.00000E+000	Sample Area (cm^2)
SPEED	SELECTOR	2	Optimize for:
ZGUESS	QUANT	1.00000E+003	Estimated Z (ohms)
EOC	QUANT	0	Open Circuit (V)
SEQUENCER	TOGGLE	TRUE	Run as Sequence
PSTATMODEL	IQUANT	5	Pstat Model
PSTATSECTION	LABEL	REF3000-16137	Pstat Section
PSTATSERIALNO	LABEL	16137	Pstat Serial Number
CTRLMODE	IQUANT	1	Control Mode
IESTAB	IQUANT	0	I/E Stability
CASPEED	IQUANT	1	Control Amp Speed
CONVENTION	IQUANT	1	Current Convention
ICHRANGE	IQUANT	2	Ich Range
ICHRANGEMODE	TOGGLE	F	Ich Auto Range
ICHOFFSETENABLE	TOGGLE	T	Ich Offset Enable
ICHOFFSET	QUANT	0	Ich Offset (V)
ICHFILTER	IQUANT	3	Ich Filter
VCHRANGE	IQUANT	2	Vch Range
VCHRANGEMODE	TOGGLE	F	Vch Auto Range
VCHOFFSETENABLE	TOGGLE	T	Vch Offset Enable
VCHOFFSET	QUANT	0	Vch Offset (V)
VCHFILTER	IQUANT	3	Vch Filter
ACHRANGE	IQUANT	2	Ach Range
ACHOFFSETENABLE	TOGGLE	F	Ach Offset Enable
ACHOFFSET	QUANT	0	Ach Offset (V)
ACHFILTER	IQUANT	3	Ach Filter
IERANGELOWERLIMIT	IQUANT	2	I/E Range Lower Limit
IERANGEMODE	TOGGLE	F	I/E AutoRange
IERANGE	IQUANT	11	I/E Range
POSFEEDENABLE	TOGGLE	F	Positive Feedback IR Comp
POSFEEDRESISTANCE	QUANT	0	Positive Feedback Resistance (ohm)
ACHSELECT	IQUANT	0	Ach Select
CABLEID	IQUANT	13	Cable ID
DCCALDATE	LABEL	7/31/2020	DC Calibration Date
ACCALDATE	LABEL	7/31/2020	AC Calibration Date
THERMOSELECT	IQUANT	1	Thermo Select
FRAMEWORKVERSION	QUANT	6.33	Framework Version
INSTRUMENTVERSION	LABEL	3.50	Instrument Version
COMPLIANCEVOLTAGE	IQUANT	0	Compliance Voltage
ZCURVE	TABLE
	Pt	Time	Freq	Zreal	Zimag	Zsig	Zmod	Zphz	Idc	Vdc	IERange
	#	s	Hz	ohm	ohm	V	ohm	°	A	V	#
	0	8	300046.9	11.07479	2.129917	1	11.27774	10.88628	2.909465E-005	0.000365	10
	1	11	238359.4	11.10377	1.699701	1	11.2331	8.702954	-5.29461E-005	0.0002828	10
	2	14	189328.1	11.11406	1.339611	1	11.1945	6.872879	-1.57073E-005	0.0004165	10
	3	17	150421.9	11.13006	1.054914	1	11.17994	5.414353	2.128858E-005	0.000501	10
	4	19	119484.4	11.16075	0.8078125	1	11.18995	4.139835	-0.0000984	0.0006104	10
	5	22	94921.88	11.18524	0.6311105	1	11.20303	3.229406	-1.487173E-005	0.0006391	10
	6	24	75421.88	11.21337	0.4548069	1	11.22259	2.322605	-2.826867E-005	0.0006234	10
	7	27	59859.37	11.24646	0.3026112	1	11.25053	1.541299	-1.235319E-005	0.0006397	10
	8	29	47578.12	11.28172	0.1730514	1	11.28305	0.8787962	2.549528E-005	0.0006615	10
	9	32	37828.12	11.31744	0.0576392	1	11.31758	0.2918021	2.329153E-005	0.0006523	10
	10	34	30046.88	11.35435	-0.0525151	1	11.35447	-0.2649973	-2.815897E-005	0.0006683	10
	11	37	23859.38	11.39152	-0.1639685	1	11.3927	-0.8246532	-2.597398E-005	0.0006689	10
	12	39	18984.38	11.42912	-0.2809004	1	11.43258	-1.407909	-1.903236E-005	0.000663	10
	13	42	15046.87	11.4675	-0.411162	1	11.47487	-2.053434	-1.708095E-005	0.0006925	10
	14	44	11953.13	11.50886	-0.5594044	1	11.52245	-2.782752	1.412978E-005	0.0006592	10
	15	46	9515.62	11.55521	-0.7297336	1	11.57823	-3.61354	2.41649E-005	0.0006882	10
	16	50	7546.875	11.61767	-0.9391303	1	11.65556	-4.621535	-2.333904E-005	0.0007108	10
	17	52	5928.309	11.67145	-1.200784	1	11.73306	-5.874048	1.879112E-005	0.0006463	10
	18	54	4733.456	11.72992	-1.501134	1	11.82558	-7.292774	2.312047E-005	0.0006783	10
	19	56	3796.875	11.79726	-1.862126	1	11.94332	-8.969789	-2.783557E-005	0.0006859	10
	20	59	2987.132	11.87395	-2.343607	1	12.10302	-11.16518	1.504609E-005	0.0006907	10
	21	61	2390.625	11.9594	-2.897415	1	12.30538	-13.6187	-2.642296E-006	0.0007358	10
	22	63	1884.191	12.06489	-3.627638	1	12.59847	-16.73484	-1.799026E-005	0.0006861	10
	23	66	1516.544	12.18285	-4.454816	1	12.97178	-20.0856	-3.590657E-006	0.0006661	10
	24	68	1193.986	12.33567	-5.580265	1	13.53913	-24.34049	2.261365E-005	0.0006595	10
	25	70	946.5144	12.51988	-6.940157	1	14.31479	-29.00096	1.825446E-005	0.0006657	10
	26	73	751.7689	12.74707	-8.617217	1	15.38649	-34.05931	-2.141661E-005	0.0007206	10
	27	75	597.4265	13.03184	-10.67598	1	16.84653	-39.32511	1.864195E-005	0.000644	10
	28	77	477.4305	13.37651	-13.15771	1	18.76316	-44.52755	-2.49827E-006	0.0006872	10
	29	80	376.6741	13.84193	-16.39604	1	21.45762	-49.82814	-1.70151E-006	0.0006855	10
	30	82	298.2954	14.42561	-20.34697	1	24.94188	-54.66408	-2.503544E-006	0.000684	10
	31	84	237.7717	15.14889	-25.07893	1	29.29917	-58.86599	-2.006306E-006	0.0006844	10
	32	87	189.0121	16.06878	-30.95901	1	34.88074	-62.56916	-1.890987E-006	0.0006867	10
	33	89	150.2404	17.20492	-38.14121	1	41.8421	-65.72059	9.879707E-007	0.0001325	9
	34	92	119.1737	18.66899	-47.102	1	50.66685	-68.37897	1.161782E-006	0.0001163	9
	35	94	95.0169	20.46361	-57.84638	1	61.35929	-70.51837	1.255355E-006	8.5081E-005	9
	36	96	75.60484	22.71781	-71.14948	1	74.68833	-72.29188	1.265679E-006	9.075146E-005	9
	37	99	54.50582	26.95506	-95.6194	1	99.346	-74.25687	1.222714E-006	9.001443E-005	9
	38	102	45.95588	29.8018	-111.5522	1	115.4644	-75.04243	1.280913E-006	9.338376E-005	9
	39	104	37.20238	34.06897	-134.9087	1	139.144	-75.82722	1.2357E-006	0.0000978	9
	40	106	30.04808	39.43957	-163.4564	1	168.1472	-76.43468	1.30578E-006	9.134643E-005	9
	41	109	23.91582	46.69309	-200.5199	1	205.8846	-76.89169	1.175061E-006	8.813401E-005	9
	42	111	18.60119	57.01626	-250.8837	1	257.2809	-77.19633	1.408637E-006	8.740754E-005	9
	43	113	15.02404	68.2707	-303.2676	1	310.8571	-77.31323	1.265325E-006	8.016788E-005	9
	44	116	12.01923	82.97572	-369.1158	1	378.3272	-77.33075	1.426966E-006	9.093586E-005	9
	45	118	9.450605	102.7712	-453.5732	1	465.0705	-77.23341	6.937226E-007	0.0006724	8
	46	121	7.512019	126.8305	-553.7033	1	568.0434	-77.09847	5.824298E-007	0.0006849	8
	47	123	5.978954	156.7321	-673.2546	1	691.2574	-76.8951	5.583435E-007	0.0006755	8
	48	126	4.734848	194.6838	-821.5342	1	844.2869	-76.66821	6.211188E-007	0.0006528	8
	49	129	3.75601	239.5924	-999.037	1	1027.365	-76.51383	6.500574E-007	0.0006856	8
	50	133	3.004808	290.9313	-1204.576	1	1239.211	-76.42185	6.332388E-007	0.0006621	8
	51	137	2.372217	357.3355	-1468.872	1	1511.713	-76.32714	5.99071E-007	0.0006194	8
	52	141	1.878005	431.527	-1792.418	1	1843.631	-76.46357	6.608927E-007	0.0006665	8
	53	147	1.512097	513.1865	-2155.137	1	2215.395	-76.60603	6.317049E-007	0.0007677	8
	54	152	1.201923	617.3466	-2623.871	1	2695.517	-76.7602	6.506491E-007	0.0006531	8
	55	158	0.956633	737.7047	-3194.102	1	3278.185	-76.99509	6.058665E-007	2.226601E-005	8
