EXPLAIN
TAG	EISPOT
TITLE	LABEL	Potentiostatic EIS	Test Identifier
DATE	LABEL	2/24/2021	Date
TIME	LABEL	15:20:07	Time
NOTES	NOTES	1	Notes...
	
PSTAT	PSTAT	REF3000-16137	Potentiostat
VDC	POTEN	0.00000E+000	T	DC Voltage (V)
FREQINIT	QUANT	3.00000E+005	Initial Freq. (Hz)
FREQFINAL	QUANT	1.00000E+000	Final Freq. (Hz)
PTSPERDEC	QUANT	1.00000E+001	Points/decade
VAC	QUANT	5.00000E+001	AC Voltage (mV rms)
AREA	QUANT	1.00000E+000	Sample Area (cm^2)
SPEED	SELECTOR	2	Optimize for:
ZGUESS	QUANT	1.00000E+003	Estimated Z (ohms)
EOC	QUANT	0	Open Circuit (V)
SEQUENCER	TOGGLE	TRUE	Run as Sequence
PSTATMODEL	IQUANT	5	Pstat Model
PSTATSECTION	LABEL	REF3000-16137	Pstat Section
PSTATSERIALNO	LABEL	16137	Pstat Serial Number
CTRLMODE	IQUANT	1	Control Mode
IESTAB	IQUANT	0	I/E Stability
CASPEED	IQUANT	1	Control Amp Speed
CONVENTION	IQUANT	1	Current Convention
ICHRANGE	IQUANT	2	Ich Range
ICHRANGEMODE	TOGGLE	F	Ich Auto Range
ICHOFFSETENABLE	TOGGLE	T	Ich Offset Enable
ICHOFFSET	QUANT	0	Ich Offset (V)
ICHFILTER	IQUANT	3	Ich Filter
VCHRANGE	IQUANT	2	Vch Range
VCHRANGEMODE	TOGGLE	F	Vch Auto Range
VCHOFFSETENABLE	TOGGLE	T	Vch Offset Enable
VCHOFFSET	QUANT	0	Vch Offset (V)
VCHFILTER	IQUANT	3	Vch Filter
ACHRANGE	IQUANT	2	Ach Range
ACHOFFSETENABLE	TOGGLE	F	Ach Offset Enable
ACHOFFSET	QUANT	0	Ach Offset (V)
ACHFILTER	IQUANT	3	Ach Filter
IERANGELOWERLIMIT	IQUANT	2	I/E Range Lower Limit
IERANGEMODE	TOGGLE	F	I/E AutoRange
IERANGE	IQUANT	11	I/E Range
POSFEEDENABLE	TOGGLE	F	Positive Feedback IR Comp
POSFEEDRESISTANCE	QUANT	0	Positive Feedback Resistance (ohm)
ACHSELECT	IQUANT	0	Ach Select
CABLEID	IQUANT	13	Cable ID
DCCALDATE	LABEL	7/31/2020	DC Calibration Date
ACCALDATE	LABEL	7/31/2020	AC Calibration Date
THERMOSELECT	IQUANT	1	Thermo Select
FRAMEWORKVERSION	QUANT	6.33	Framework Version
INSTRUMENTVERSION	LABEL	3.50	Instrument Version
COMPLIANCEVOLTAGE	IQUANT	0	Compliance Voltage
ZCURVE	TABLE
	Pt	Time	Freq	Zreal	Zimag	Zsig	Zmod	Zphz	Idc	Vdc	IERange
	#	s	Hz	ohm	ohm	V	ohm	°	A	V	#
	0	10	300046.9	4.275161	2.223022	1	4.818592	27.47378	7.608335E-005	-0.0001178	10
	1	13	238359.4	4.244121	1.777407	1	4.601275	22.72358	1.006628E-005	-0.0001927	10
	2	16	189328.1	4.233308	1.404689	1	4.460274	18.35679	-9.175551E-005	2.310353E-005	10
	3	19	150421.9	4.231315	1.094023	1	4.370459	14.49658	1.039944E-005	0.0002422	10
	4	22	119484.4	4.223217	0.8544358	1	4.308784	11.43762	1.690104E-005	0.0003734	10
	5	24	94921.88	4.224024	0.6654674	1	4.276123	8.952989	1.379928E-005	0.0004704	10
	6	27	75421.88	4.227558	0.4931484	1	4.256224	6.653533	-1.529137E-005	0.0005168	10
	7	29	59859.37	4.234149	0.3461946	1	4.248279	4.674249	2.502721E-005	0.0005694	10
	8	32	47578.12	4.242302	0.2191286	1	4.247958	2.956884	-1.531052E-005	0.0006582	10
	9	34	37828.12	4.250581	0.1042862	1	4.251861	1.405446	1.394374E-005	0.000606	10
	10	37	30046.88	4.262138	-0.0035713	1	4.262139	-0.0480095	-2.047462E-005	0.0006848	10
	11	39	23859.38	4.272841	-0.1102692	1	4.274263	-1.478304	-1.26522E-005	0.0006493	10
	12	42	18984.38	4.28711	-0.2188392	1	4.292692	-2.922176	-1.343103E-005	0.0006858	10
	13	44	15046.87	4.302125	-0.3385539	1	4.315425	-4.499594	-1.99868E-005	0.0007161	10
	14	46	11953.13	4.318543	-0.4726614	1	4.344332	-6.24612	-2.162346E-006	0.0007053	10
	15	48	9515.62	4.337205	-0.6268138	1	4.382265	-8.223461	-2.590656E-005	0.0006866	10
	16	51	7546.875	4.360417	-0.8130358	1	4.435568	-10.56199	1.671416E-005	0.0006582	10
	17	53	5928.309	4.389103	-1.047159	1	4.512291	-13.41887	-1.683232E-005	0.0006844	10
	18	55	4733.456	4.421388	-1.314579	1	4.612677	-16.55841	-2.089212E-005	0.0007115	10
	19	58	3796.875	4.459537	-1.632227	1	4.748856	-20.10304	1.56838E-005	0.0006706	10
	20	60	2987.132	4.511146	-2.059697	1	4.959112	-24.54047	1.805783E-005	0.0006788	10
	21	62	2390.625	4.57286	-2.547976	1	5.234809	-29.12635	-1.919149E-005	0.0007494	10
	22	65	1884.191	4.653203	-3.194448	1	5.644183	-34.4698	1.862496E-005	0.0006808	10
	23	67	1516.544	4.747835	-3.919665	1	6.156761	-39.54202	-2.611987E-005	0.000707	10
	24	69	1193.986	4.880052	-4.903533	1	6.918059	-45.13751	3.321537E-006	0.0006961	10
	25	72	946.5144	5.044419	-6.088501	1	7.906707	-50.35772	-2.579262E-005	0.0006914	10
	26	74	751.7689	5.257284	-7.537285	1	9.189651	-55.10408	1.328291E-005	0.0006836	10
	27	76	597.4265	5.525781	-9.311233	1	10.82743	-59.31285	2.081203E-005	0.0006795	10
	28	79	477.4305	5.859017	-11.4398	1	12.8529	-62.88025	-1.696214E-006	0.0006966	10
	29	81	376.6741	6.302323	-14.20325	1	15.53871	-66.07198	-2.876674E-006	0.00069	10
	30	83	298.2954	6.85368	-17.56143	1	18.85143	-68.68084	-2.873245E-006	0.0006963	10
	31	86	237.7717	7.525505	-21.57092	1	22.84596	-70.76752	-3.472897E-006	0.0006906	10
	32	88	189.0121	8.377619	-26.54867	1	27.83912	-72.48654	-3.363395E-006	0.000692	10
	33	90	150.2404	9.453305	-32.66704	1	34.00736	-73.86043	-3.041578E-006	0.0006926	10
	34	93	119.1737	10.82461	-40.24922	1	41.67939	-74.94707	-2.049875E-006	0.0006927	10
	35	95	95.0169	12.51069	-49.27473	1	50.83814	-75.75382	1.058553E-006	0.0000962	9
	36	98	75.60484	14.68929	-60.46567	1	62.22437	-76.34531	1.015231E-006	9.304025E-005	9
	37	100	54.50582	18.88124	-80.9231	1	83.09662	-76.86653	9.781066E-007	8.984885E-005	9
	38	103	45.95588	21.71573	-94.14816	1	96.6201	-77.0116	1.147484E-006	9.400099E-005	9
	39	105	37.20238	26.02476	-113.4194	1	116.3669	-77.07684	1.118619E-006	8.978043E-005	9
	40	107	30.04808	31.44646	-136.7156	1	140.2855	-77.04649	1.071945E-006	9.236854E-005	9
	41	110	23.91582	38.74383	-166.736	1	171.1782	-76.91853	1.21287E-006	8.324355E-005	9
	42	112	18.60119	48.74261	-206.8145	1	212.4808	-76.73838	1.368405E-006	8.58839E-005	9
	43	115	15.02404	59.33682	-248.0693	1	255.0671	-76.54791	1.394315E-006	0.0001077	9
	44	117	12.01923	72.58429	-299.594	1	308.2613	-76.38105	1.039783E-006	8.699056E-005	9
	45	119	9.450605	89.64228	-366.6348	1	377.4345	-76.26072	1.31411E-006	8.264172E-005	9
	46	122	7.512019	108.5821	-442.9235	1	456.0387	-76.22567	5.899215E-007	0.000661	8
	47	125	5.978954	131.1445	-536.5449	1	552.3398	-76.26483	6.222051E-007	0.000667	8
	48	128	4.734848	158.7431	-654.1959	1	673.1803	-76.36059	5.505029E-007	0.0006645	8
	49	131	3.75601	191.0232	-796.6142	1	819.1972	-76.51543	6.329231E-007	0.0006819	8
	50	134	3.004808	229.1321	-964.406	1	991.252	-76.63496	5.597269E-007	0.0006981	8
	51	138	2.372217	278.0899	-1182.235	1	1214.501	-76.76329	5.382667E-007	0.0007124	8
	52	142	1.878005	341.3356	-1448.698	1	1488.367	-76.74204	5.666286E-007	0.0006454	8
	53	147	1.512097	411.7859	-1750.926	1	1798.697	-76.76558	5.730505E-007	0.0007594	8
	54	152	1.201923	509.6553	-2141.154	1	2200.975	-76.61113	5.695633E-007	0.0006483	8
	55	159	0.956633	633.152	-2615.869	1	2691.404	-76.39365	5.096137E-007	2.207749E-005	8
