EXPLAIN
TAG	EISPOT
TITLE	LABEL	Potentiostatic EIS	Test Identifier
DATE	LABEL	2/24/2021	Date
TIME	LABEL	15:34:06	Time
NOTES	NOTES	1	Notes...
	
PSTAT	PSTAT	REF3000-16137	Potentiostat
VDC	POTEN	0.00000E+000	T	DC Voltage (V)
FREQINIT	QUANT	3.00000E+005	Initial Freq. (Hz)
FREQFINAL	QUANT	1.00000E+000	Final Freq. (Hz)
PTSPERDEC	QUANT	1.00000E+001	Points/decade
VAC	QUANT	5.00000E+001	AC Voltage (mV rms)
AREA	QUANT	1.00000E+000	Sample Area (cm^2)
SPEED	SELECTOR	2	Optimize for:
ZGUESS	QUANT	1.00000E+003	Estimated Z (ohms)
EOC	QUANT	0	Open Circuit (V)
SEQUENCER	TOGGLE	TRUE	Run as Sequence
PSTATMODEL	IQUANT	5	Pstat Model
PSTATSECTION	LABEL	REF3000-16137	Pstat Section
PSTATSERIALNO	LABEL	16137	Pstat Serial Number
CTRLMODE	IQUANT	1	Control Mode
IESTAB	IQUANT	0	I/E Stability
CASPEED	IQUANT	1	Control Amp Speed
CONVENTION	IQUANT	1	Current Convention
ICHRANGE	IQUANT	2	Ich Range
ICHRANGEMODE	TOGGLE	F	Ich Auto Range
ICHOFFSETENABLE	TOGGLE	T	Ich Offset Enable
ICHOFFSET	QUANT	0	Ich Offset (V)
ICHFILTER	IQUANT	3	Ich Filter
VCHRANGE	IQUANT	2	Vch Range
VCHRANGEMODE	TOGGLE	F	Vch Auto Range
VCHOFFSETENABLE	TOGGLE	T	Vch Offset Enable
VCHOFFSET	QUANT	0	Vch Offset (V)
VCHFILTER	IQUANT	3	Vch Filter
ACHRANGE	IQUANT	2	Ach Range
ACHOFFSETENABLE	TOGGLE	F	Ach Offset Enable
ACHOFFSET	QUANT	0	Ach Offset (V)
ACHFILTER	IQUANT	3	Ach Filter
IERANGELOWERLIMIT	IQUANT	2	I/E Range Lower Limit
IERANGEMODE	TOGGLE	F	I/E AutoRange
IERANGE	IQUANT	11	I/E Range
POSFEEDENABLE	TOGGLE	F	Positive Feedback IR Comp
POSFEEDRESISTANCE	QUANT	0	Positive Feedback Resistance (ohm)
ACHSELECT	IQUANT	0	Ach Select
CABLEID	IQUANT	13	Cable ID
DCCALDATE	LABEL	7/31/2020	DC Calibration Date
ACCALDATE	LABEL	7/31/2020	AC Calibration Date
THERMOSELECT	IQUANT	1	Thermo Select
FRAMEWORKVERSION	QUANT	6.33	Framework Version
INSTRUMENTVERSION	LABEL	3.50	Instrument Version
COMPLIANCEVOLTAGE	IQUANT	0	Compliance Voltage
ZCURVE	TABLE
	Pt	Time	Freq	Zreal	Zimag	Zsig	Zmod	Zphz	Idc	Vdc	IERange
	#	s	Hz	ohm	ohm	V	ohm	°	A	V	#
	0	8	300046.9	7.986162	2.172163	1	8.276297	15.21584	6.366073E-005	2.30726E-005	10
	1	11	238359.4	7.981289	1.734776	1	8.167645	12.2628	7.710062E-005	-9.371278E-005	10
	2	14	189328.1	7.986364	1.370194	1	8.103052	9.73527	-2.637258E-005	0.000265	10
	3	17	150421.9	7.98724	1.060158	1	8.057291	7.560756	6.014201E-005	0.0002431	10
	4	19	119484.4	8.003286	0.8298874	1	8.046198	5.920033	-4.065402E-005	0.0006321	10
	5	22	94921.88	8.018738	0.6528759	1	8.045272	4.654685	5.129555E-006	0.0005601	10
	6	24	75421.88	8.031428	0.4748685	1	8.045455	3.383747	2.162542E-005	0.0005806	10
	7	27	59859.37	8.051483	0.3227656	1	8.05795	2.295628	-9.258774E-006	0.0006436	10
	8	29	47578.12	8.072749	0.1918764	1	8.075029	1.361573	1.284059E-005	0.0006298	10
	9	32	37828.12	8.098095	0.0755082	1	8.098447	0.5342217	-2.134369E-006	0.0007024	10
	10	34	30046.88	8.122505	-0.0345381	1	8.122579	-0.243629	2.218165E-005	0.00067	10
	11	37	23859.38	8.147474	-0.144134	1	8.148749	-1.013493	-2.057813E-006	0.0007137	10
	12	39	18984.38	8.173109	-0.258367	1	8.177192	-1.810622	-2.147812E-005	0.000725	10
	13	42	15046.87	8.200284	-0.3864283	1	8.209384	-2.697997	2.225899E-005	0.0006689	10
	14	44	11953.13	8.229062	-0.5292785	1	8.246066	-3.680092	2.043021E-005	0.0006574	10
	15	46	9515.62	8.262793	-0.6948315	1	8.291956	-4.806785	2.222771E-005	0.0006718	10
	16	49	7546.875	8.299225	-0.8952902	1	8.347376	-6.15705	-2.531218E-005	0.000708	10
	17	51	5928.309	8.341256	-1.148415	1	8.419941	-7.839135	1.688674E-005	0.0006464	10
	18	53	4733.456	8.387745	-1.438535	1	8.510208	-9.7318	-1.843617E-005	0.000685	10
	19	56	3796.875	8.439953	-1.785635	1	8.626778	-11.94587	-2.146795E-005	0.0006712	10
	20	58	2987.132	8.505166	-2.249374	1	8.797586	-14.81393	-2.599572E-005	0.0007094	10
	21	60	2390.625	8.577633	-2.782769	1	9.017737	-17.97418	1.13067E-005	0.0006477	10
	22	62	1884.191	8.671227	-3.486142	1	9.345767	-21.90189	-4.117062E-006	0.0006639	10
	23	65	1516.544	8.775647	-4.280455	1	9.76393	-26.00151	2.298931E-005	0.000672	10
	24	67	1193.986	8.916122	-5.36079	1	10.40362	-31.01625	1.891865E-005	0.0006854	10
	25	70	946.5144	9.094721	-6.658137	1	11.27141	-36.20742	-1.141813E-005	0.0006842	10
	26	72	751.7689	9.30592	-8.268452	1	12.44859	-41.62158	-2.671395E-005	0.0007042	10
	27	74	597.4265	9.58073	-10.23915	1	14.0225	-46.90268	-2.728405E-005	0.0007024	10
	28	77	477.4305	9.92245	-12.60808	1	16.04427	-51.79755	-2.521682E-006	0.0006936	10
	29	79	376.6741	10.37943	-15.69565	1	18.81717	-56.5236	-2.894071E-006	0.000695	10
	30	81	298.2954	10.95408	-19.45535	1	22.32717	-60.61888	-2.71793E-006	0.0006923	10
	31	83	237.7717	11.66134	-23.94763	1	26.63599	-64.03616	-2.893134E-006	0.000691	10
	32	86	189.0121	12.56247	-29.53399	1	32.09474	-66.95721	-2.155124E-006	0.0006981	10
	33	88	150.2404	13.68999	-36.38927	1	38.87923	-69.38322	-2.134236E-006	0.0006926	10
	34	91	119.1737	15.09474	-44.84629	1	47.3185	-71.39737	1.330909E-006	9.128464E-005	9
	35	93	95.0169	16.83658	-55.04725	1	57.56448	-72.99339	1.278846E-006	9.385831E-005	9
	36	96	75.60484	19.03945	-67.67429	1	70.30156	-74.28661	1.252478E-006	8.649333E-005	9
	37	98	54.50582	23.22136	-90.87511	1	93.79509	-75.66591	1.235212E-006	8.322809E-005	9
	38	101	45.95588	26.05027	-105.9611	1	109.1163	-76.1879	1.280833E-006	9.46497E-005	9
	39	103	37.20238	30.31953	-128.0357	1	131.5767	-76.67747	1.386469E-006	8.86963E-005	9
	40	105	30.04808	35.72208	-154.963	1	159.0271	-77.01894	1.240356E-006	9.238165E-005	9
	41	108	23.91582	43.04195	-189.8176	1	194.6364	-77.22398	1.354422E-006	8.744631E-005	9
	42	110	18.60119	53.35519	-237.0333	1	242.9641	-77.31439	1.153579E-006	8.854033E-005	9
	43	112	15.02404	64.51543	-285.8727	1	293.0621	-77.28259	1.224352E-006	8.596225E-005	9
	44	115	12.01923	79.24936	-347.1105	1	356.0423	-77.13914	1.474032E-006	8.923023E-005	9
	45	117	9.450605	98.5801	-425.3556	1	436.6296	-76.95154	7.310241E-007	0.0006738	8
	46	120	7.512019	121.62	-517.5122	1	531.611	-76.77496	6.730214E-007	0.0006902	8
	47	122	5.978954	149.9049	-627.7817	1	645.4311	-76.5701	5.909634E-007	0.000674	8
	48	125	4.734848	183.9985	-764.646	1	786.4725	-76.47002	7.254438E-007	0.0006915	8
	49	129	3.75601	224.6375	-928.765	1	955.545	-76.40317	5.996625E-007	0.0006544	8
	50	132	3.004808	270.2185	-1120.275	1	1152.404	-76.43888	6.649939E-007	0.0006558	8
	51	136	2.372217	328.7337	-1366.358	1	1405.347	-76.47224	6.65072E-007	0.0006918	8
	52	140	1.878005	395.9198	-1670.929	1	1717.194	-76.66984	6.017332E-007	0.0006528	8
	53	145	1.512097	466.7283	-2009.253	1	2062.749	-76.92271	6.572265E-007	0.0006144	8
	54	150	1.201923	564.694	-2456.157	1	2520.236	-77.05215	6.107104E-007	0.0006601	8
	55	156	0.956633	679.2683	-2994.649	1	3070.721	-77.22	6.136348E-007	2.232533E-005	8
