EXPLAIN
TAG	EISPOT
TITLE	LABEL	Potentiostatic EIS	Test Identifier
DATE	LABEL	2/24/2021	Date
TIME	LABEL	15:42:26	Time
NOTES	NOTES	1	Notes...
	
PSTAT	PSTAT	REF3000-16137	Potentiostat
VDC	POTEN	0.00000E+000	T	DC Voltage (V)
FREQINIT	QUANT	3.00000E+005	Initial Freq. (Hz)
FREQFINAL	QUANT	1.00000E+000	Final Freq. (Hz)
PTSPERDEC	QUANT	1.00000E+001	Points/decade
VAC	QUANT	5.00000E+001	AC Voltage (mV rms)
AREA	QUANT	1.00000E+000	Sample Area (cm^2)
SPEED	SELECTOR	2	Optimize for:
ZGUESS	QUANT	1.00000E+003	Estimated Z (ohms)
EOC	QUANT	0	Open Circuit (V)
SEQUENCER	TOGGLE	TRUE	Run as Sequence
PSTATMODEL	IQUANT	5	Pstat Model
PSTATSECTION	LABEL	REF3000-16137	Pstat Section
PSTATSERIALNO	LABEL	16137	Pstat Serial Number
CTRLMODE	IQUANT	1	Control Mode
IESTAB	IQUANT	0	I/E Stability
CASPEED	IQUANT	1	Control Amp Speed
CONVENTION	IQUANT	1	Current Convention
ICHRANGE	IQUANT	2	Ich Range
ICHRANGEMODE	TOGGLE	F	Ich Auto Range
ICHOFFSETENABLE	TOGGLE	T	Ich Offset Enable
ICHOFFSET	QUANT	0	Ich Offset (V)
ICHFILTER	IQUANT	3	Ich Filter
VCHRANGE	IQUANT	2	Vch Range
VCHRANGEMODE	TOGGLE	F	Vch Auto Range
VCHOFFSETENABLE	TOGGLE	T	Vch Offset Enable
VCHOFFSET	QUANT	0	Vch Offset (V)
VCHFILTER	IQUANT	3	Vch Filter
ACHRANGE	IQUANT	2	Ach Range
ACHOFFSETENABLE	TOGGLE	F	Ach Offset Enable
ACHOFFSET	QUANT	0	Ach Offset (V)
ACHFILTER	IQUANT	3	Ach Filter
IERANGELOWERLIMIT	IQUANT	2	I/E Range Lower Limit
IERANGEMODE	TOGGLE	F	I/E AutoRange
IERANGE	IQUANT	11	I/E Range
POSFEEDENABLE	TOGGLE	F	Positive Feedback IR Comp
POSFEEDRESISTANCE	QUANT	0	Positive Feedback Resistance (ohm)
ACHSELECT	IQUANT	0	Ach Select
CABLEID	IQUANT	13	Cable ID
DCCALDATE	LABEL	7/31/2020	DC Calibration Date
ACCALDATE	LABEL	7/31/2020	AC Calibration Date
THERMOSELECT	IQUANT	1	Thermo Select
FRAMEWORKVERSION	QUANT	6.33	Framework Version
INSTRUMENTVERSION	LABEL	3.50	Instrument Version
COMPLIANCEVOLTAGE	IQUANT	0	Compliance Voltage
ZCURVE	TABLE
	Pt	Time	Freq	Zreal	Zimag	Zsig	Zmod	Zphz	Idc	Vdc	IERange
	#	s	Hz	ohm	ohm	V	ohm	°	A	V	#
	0	8	300046.9	13.34007	2.122095	1	13.5078	9.038692	-0.000114	0.0001913	10
	1	12	238359.4	13.36353	1.669183	1	13.46737	7.119708	-2.095514E-005	0.0002349	10
	2	15	189328.1	13.39132	1.314236	1	13.45565	5.605111	8.173056E-006	0.0005689	10
	3	17	150421.9	13.39667	1.019124	1	13.43537	4.35028	-9.795859E-006	0.00055	10
	4	20	119484.4	13.45225	0.7888622	1	13.47536	3.356077	4.495917E-005	0.0006601	10
	5	22	94921.88	13.4877	0.6130778	1	13.50163	2.602564	-2.212235E-005	0.0006911	10
	6	25	75421.88	13.52617	0.4373855	1	13.53324	1.852084	-1.888446E-006	0.0006838	10
	7	27	59859.37	13.57032	0.2877715	1	13.57337	1.21483	2.488398E-005	0.0006502	10
	8	30	47578.12	13.61593	0.1622442	1	13.61689	0.6826906	-2.237582E-005	0.0007009	10
	9	32	37828.12	13.66192	0.0463801	1	13.662	0.1945095	-2.04416E-005	0.0007336	10
	10	35	30046.88	13.70642	-0.0645281	1	13.70657	-0.2697395	2.369268E-005	0.0006387	10
	11	37	23859.38	13.75319	-0.176585	1	13.75433	-0.7356124	1.948797E-005	0.0006469	10
	12	40	18984.38	13.79958	-0.2933926	1	13.80269	-1.217981	-1.690676E-005	0.0006767	10
	13	42	15046.87	13.85082	-0.4257477	1	13.85737	-1.760608	1.783418E-005	0.0007195	10
	14	44	11953.13	13.89974	-0.5763067	1	13.91168	-2.37422	-2.810426E-005	0.0006822	10
	15	47	9515.62	13.95434	-0.7511435	1	13.97454	-3.081182	1.419309E-005	0.0006443	10
	16	49	7546.875	14.01339	-0.961951	1	14.04637	-3.926918	-3.098374E-005	0.0006854	10
	17	51	5928.309	14.07756	-1.230702	1	14.13126	-4.996263	-4.934263E-006	0.0007034	10
	18	53	4733.456	14.14577	-1.535173	1	14.22883	-6.193796	1.943484E-005	0.0006466	10
	19	56	3796.875	14.22158	-1.903311	1	14.34838	-7.622747	2.333451E-005	0.0006715	10
	20	58	2987.132	14.30953	-2.395564	1	14.50867	-9.50378	-2.543105E-005	0.0007158	10
	21	60	2390.625	14.40362	-2.961363	1	14.7049	-11.61803	-7.707494E-006	0.0006655	10
	22	63	1884.191	14.5196	-3.711565	1	14.98648	-14.33914	2.465003E-005	0.0006669	10
	23	65	1516.544	14.64804	-4.550881	1	15.33869	-17.25908	-2.714653E-005	0.0007012	10
	24	67	1193.986	14.81069	-5.701293	1	15.87014	-21.05393	-2.488203E-005	0.0006958	10
	25	70	946.5144	15.00539	-7.088994	1	16.59565	-25.28744	-2.625363E-005	0.000736	10
	26	72	751.7689	15.23749	-8.802015	1	17.59706	-30.01311	-2.534336E-005	0.0007013	10
	27	74	597.4265	15.52941	-10.90816	1	18.97763	-35.08497	-3.091416E-006	0.0006588	10
	28	77	477.4305	15.88359	-13.45406	1	20.81586	-40.26598	-2.425402E-006	0.0006969	10
	29	79	376.6741	16.35443	-16.77538	1	23.4282	-45.72797	-2.107743E-006	0.0006874	10
	30	81	298.2954	16.94341	-20.827	1	26.84852	-50.87058	-2.622454E-006	0.0006876	10
	31	84	237.7717	17.67595	-25.68619	1	31.18043	-55.4662	-1.762234E-006	0.0006871	10
	32	86	189.0121	18.60688	-31.7272	1	36.78085	-59.60988	-1.728703E-006	0.0006871	10
	33	88	150.2404	19.75873	-39.1109	1	43.81861	-63.19721	1.29094E-006	8.691285E-005	9
	34	91	119.1737	21.24567	-48.32447	1	52.78857	-66.26749	1.368892E-006	8.979041E-005	9
	35	93	95.0169	23.06953	-59.38191	1	63.70568	-68.76913	1.314951E-006	8.755263E-005	9
	36	96	75.60484	25.3649	-73.06288	1	77.34056	-70.85477	1.3013E-006	8.543853E-005	9
	37	98	54.50582	29.65368	-98.2181	1	102.597	-73.20007	1.181894E-006	8.910662E-005	9
	38	101	45.95588	32.53009	-114.6077	1	119.1349	-74.15401	1.122175E-006	0.0001028	9
	39	103	37.20238	36.81303	-138.6443	1	143.4484	-75.12986	1.2773E-006	9.102053E-005	9
	40	105	30.04808	42.21329	-168.0863	1	173.306	-75.90226	1.291392E-006	8.288325E-005	9
	41	108	23.91582	49.46544	-206.2824	1	212.1302	-76.51539	1.346454E-006	8.593098E-005	9
	42	110	18.60119	59.74819	-258.2941	1	265.1144	-76.97551	1.449649E-006	9.146987E-005	9
	43	112	15.02404	70.86446	-312.5518	1	320.4846	-77.22537	1.188001E-006	8.980349E-005	9
	44	115	12.01923	85.6673	-380.779	1	390.2968	-77.32076	1.484017E-006	9.077999E-005	9
	45	117	9.450605	105.4544	-468.7524	1	480.468	-77.32135	7.047767E-007	0.0006648	8
	46	120	7.512019	129.6149	-572.621	1	587.1072	-77.24581	6.385973E-007	0.0006871	8
	47	122	5.978954	160.2598	-697.722	1	715.8905	-77.06411	5.500602E-007	0.0006766	8
	48	125	4.734848	199.1332	-853.0989	1	876.0318	-76.86108	6.407806E-007	0.0006723	8
	49	129	3.75601	246.2146	-1038.684	1	1067.467	-76.66447	5.955798E-007	0.0006724	8
	50	132	3.004808	300.9368	-1253.232	1	1288.857	-76.4973	6.402592E-007	0.0006366	8
	51	136	2.372217	370.9541	-1530.002	1	1574.329	-76.37143	5.998087E-007	0.0005865	8
	52	140	1.878005	450.4479	-1862.367	1	1916.068	-76.40308	6.231344E-007	0.0006738	8
	53	145	1.512097	539.5522	-2232.023	1	2296.311	-76.41045	5.86104E-007	0.0006037	8
	54	150	1.201923	646.6384	-2720.133	1	2795.937	-76.62768	6.114386E-007	0.0006966	8
	55	156	0.956633	774.74	-3309.093	1	3398.576	-76.82299	5.924019E-007	2.606385E-005	8
