EXPLAIN
TAG	EISPOT
TITLE	LABEL	Potentiostatic EIS	Test Identifier
DATE	LABEL	2/24/2021	Date
TIME	LABEL	15:50:42	Time
NOTES	NOTES	1	Notes...
	
PSTAT	PSTAT	REF3000-16137	Potentiostat
VDC	POTEN	0.00000E+000	T	DC Voltage (V)
FREQINIT	QUANT	3.00000E+005	Initial Freq. (Hz)
FREQFINAL	QUANT	1.00000E+000	Final Freq. (Hz)
PTSPERDEC	QUANT	1.00000E+001	Points/decade
VAC	QUANT	5.00000E+001	AC Voltage (mV rms)
AREA	QUANT	1.00000E+000	Sample Area (cm^2)
SPEED	SELECTOR	2	Optimize for:
ZGUESS	QUANT	1.00000E+003	Estimated Z (ohms)
EOC	QUANT	0	Open Circuit (V)
SEQUENCER	TOGGLE	TRUE	Run as Sequence
PSTATMODEL	IQUANT	5	Pstat Model
PSTATSECTION	LABEL	REF3000-16137	Pstat Section
PSTATSERIALNO	LABEL	16137	Pstat Serial Number
CTRLMODE	IQUANT	1	Control Mode
IESTAB	IQUANT	0	I/E Stability
CASPEED	IQUANT	1	Control Amp Speed
CONVENTION	IQUANT	1	Current Convention
ICHRANGE	IQUANT	2	Ich Range
ICHRANGEMODE	TOGGLE	F	Ich Auto Range
ICHOFFSETENABLE	TOGGLE	T	Ich Offset Enable
ICHOFFSET	QUANT	0	Ich Offset (V)
ICHFILTER	IQUANT	3	Ich Filter
VCHRANGE	IQUANT	2	Vch Range
VCHRANGEMODE	TOGGLE	F	Vch Auto Range
VCHOFFSETENABLE	TOGGLE	T	Vch Offset Enable
VCHOFFSET	QUANT	0	Vch Offset (V)
VCHFILTER	IQUANT	3	Vch Filter
ACHRANGE	IQUANT	2	Ach Range
ACHOFFSETENABLE	TOGGLE	F	Ach Offset Enable
ACHOFFSET	QUANT	0	Ach Offset (V)
ACHFILTER	IQUANT	3	Ach Filter
IERANGELOWERLIMIT	IQUANT	2	I/E Range Lower Limit
IERANGEMODE	TOGGLE	F	I/E AutoRange
IERANGE	IQUANT	11	I/E Range
POSFEEDENABLE	TOGGLE	F	Positive Feedback IR Comp
POSFEEDRESISTANCE	QUANT	0	Positive Feedback Resistance (ohm)
ACHSELECT	IQUANT	0	Ach Select
CABLEID	IQUANT	13	Cable ID
DCCALDATE	LABEL	7/31/2020	DC Calibration Date
ACCALDATE	LABEL	7/31/2020	AC Calibration Date
THERMOSELECT	IQUANT	1	Thermo Select
FRAMEWORKVERSION	QUANT	6.33	Framework Version
INSTRUMENTVERSION	LABEL	3.50	Instrument Version
COMPLIANCEVOLTAGE	IQUANT	0	Compliance Voltage
ZCURVE	TABLE
	Pt	Time	Freq	Zreal	Zimag	Zsig	Zmod	Zphz	Idc	Vdc	IERange
	#	s	Hz	ohm	ohm	V	ohm	°	A	V	#
	0	6	300046.9	25.16613	1.435584	1	25.20704	3.264859	6.636896E-005	-0.0003328	11
	1	11	238359.4	25.30248	1.448872	1	25.34393	3.277296	-2.296132E-005	0.0005061	10
	2	14	189328.1	25.41151	0.9006812	1	25.42747	2.029932	6.081292E-005	0.0006674	11
	3	17	150421.9	25.53658	0.8349394	1	25.55023	1.872665	1.355397E-005	0.0005368	10
	4	20	119484.4	25.67635	0.6666198	1	25.685	1.487202	-2.292427E-005	0.0006082	10
	5	23	94921.88	25.76372	0.5065535	1	25.7687	1.126376	2.540401E-005	0.0006899	10
	6	26	75421.88	25.86678	0.3457741	1	25.86909	0.7658557	-2.499843E-005	0.0006567	10
	7	29	59859.37	25.96958	0.2129012	1	25.97045	0.4697059	-2.041427E-005	0.0006879	10
	8	31	47578.12	26.07165	0.0956383	1	26.07182	0.2101764	-1.781225E-005	0.0006641	10
	9	34	37828.12	26.17474	-0.0143153	1	26.17474	-0.0313357	-2.086333E-005	0.0007117	10
	10	36	30046.88	26.27943	-0.1201969	1	26.2797	-0.2620578	-1.971632E-005	0.0007549	10
	11	39	23859.38	26.39316	-0.230342	1	26.39417	-0.5000268	-2.55742E-005	0.0007425	10
	12	41	18984.38	26.48275	-0.3547859	1	26.48512	-0.7675383	1.873432E-005	0.0006597	10
	13	43	15046.87	26.58502	-0.4865472	1	26.58947	-1.048485	7.601781E-006	0.0006307	10
	14	46	11953.13	26.69378	-0.6464143	1	26.70161	-1.387199	-2.145328E-005	0.0007062	10
	15	48	9515.62	26.80453	-0.8295236	1	26.81736	-1.772575	-2.069318E-005	0.0007683	10
	16	50	7546.875	26.92579	-1.048234	1	26.94619	-2.229427	-2.719657E-005	0.0007291	10
	17	52	5928.309	27.03955	-1.33783	1	27.07262	-2.832502	1.373245E-005	0.0006273	10
	18	55	4733.456	27.16158	-1.664195	1	27.21252	-3.50614	-2.186528E-005	0.0007334	10
	19	57	3796.875	27.29592	-2.054343	1	27.37312	-4.304075	-2.840607E-005	0.0006791	10
	20	59	2987.132	27.44122	-2.587061	1	27.5629	-5.385724	-4.876267E-006	0.0007059	10
	21	62	2390.625	27.6026	-3.182872	1	27.78551	-6.577757	1.897234E-005	0.0006332	10
	22	64	1884.191	27.76862	-3.992879	1	28.05422	-8.182533	-1.541603E-005	0.0007221	10
	23	66	1516.544	27.9675	-4.888309	1	28.39149	-9.91431	-1.151635E-005	0.0006763	10
	24	69	1193.986	28.19084	-6.125635	1	28.84869	-12.25932	-2.854687E-005	0.00072	10
	25	71	946.5144	28.44564	-7.619302	1	29.4484	-14.99496	5.828642E-006	0.0006384	10
	26	73	751.7689	28.73784	-9.451173	1	30.25208	-18.20477	-2.631728E-005	0.0007217	10
	27	76	597.4265	29.08488	-11.72925	1	31.36089	-21.96307	-2.647772E-005	0.0007208	10
	28	78	477.4305	29.48619	-14.46127	1	32.84149	-26.12528	-2.133855E-006	0.0006952	10
	29	80	376.6741	30.00461	-18.05045	1	35.01564	-31.03066	-1.766616E-006	0.000686	10
	30	83	298.2954	30.6005	-22.4149	1	37.93176	-36.22282	1.197888E-006	0.0000961	9
	31	85	237.7717	31.37215	-27.68525	1	41.84119	-41.42771	1.273881E-006	8.893108E-005	9
	32	87	189.0121	32.34756	-34.26332	1	47.12048	-46.6474	1.215591E-006	0.0000953	9
	33	90	150.2404	33.57516	-42.37236	1	54.06208	-51.60727	1.208458E-006	9.459479E-005	9
	34	92	119.1737	35.13774	-52.46634	1	63.14568	-56.189	1.252982E-006	9.022014E-005	9
	35	95	95.0169	37.0652	-64.59808	1	74.47644	-60.15358	1.203798E-006	9.082839E-005	9
	36	97	75.60484	39.5062	-79.6198	1	88.88224	-63.61006	1.201781E-006	8.747001E-005	9
	37	100	54.50582	44.05491	-107.2362	1	115.9329	-67.66611	1.09333E-006	9.03273E-005	9
	38	102	45.95588	47.11478	-125.2139	1	133.7846	-69.37997	1.170374E-006	0.000095	9
	39	104	37.20238	51.63182	-151.6046	1	160.1556	-71.19276	1.103973E-006	9.153796E-005	9
	40	107	30.04808	57.22809	-183.9103	1	192.6086	-72.71523	1.304804E-006	8.740788E-005	9
	41	109	23.91582	64.61431	-225.902	1	234.9611	-74.03799	1.253961E-006	8.355577E-005	9
	42	112	18.60119	74.90557	-283.2802	1	293.0162	-75.18871	1.119208E-006	9.350108E-005	9
	43	114	15.02404	86.1264	-343.4185	1	354.0536	-75.92109	1.423229E-006	0.0000956	9
	44	116	12.01923	100.2964	-417.6759	1	429.5493	-76.49723	4.485145E-007	0.0006642	8
	45	119	9.450605	120.3313	-517.9575	1	531.7515	-76.92111	4.063434E-007	0.0006699	8
	46	121	7.512019	144.5106	-635.5482	1	651.7706	-77.18993	5.458054E-007	0.0006561	8
	47	124	5.978954	175.4457	-777.504	1	797.0531	-77.28404	5.721845E-007	0.0006755	8
	48	127	4.734848	216.0556	-955.334	1	979.461	-77.25652	5.340345E-007	0.000678	8
	49	130	3.75601	266.5243	-1169.163	1	1199.157	-77.15821	5.329096E-007	0.0006569	8
	50	133	3.004808	327.219	-1417.555	1	1454.831	-77.00189	5.044863E-007	0.0007064	8
	51	137	2.372217	409.3641	-1736.532	1	1784.13	-76.73546	5.355481E-007	0.0007412	8
	52	141	1.878005	504.6865	-2120.115	1	2179.357	-76.61013	4.97976E-007	0.0006514	8
	53	146	1.512097	609.8754	-2541.931	1	2614.07	-76.50828	5.447064E-007	0.0006461	8
	54	151	1.201923	749.0447	-3094.613	1	3183.975	-76.39337	5.167635E-007	0.0006433	8
	55	158	0.956633	909.1942	-3751.93	1	3860.52	-76.37827	5.180225E-007	2.096956E-005	8
