EXPLAIN
TAG	EISPOT
TITLE	LABEL	Potentiostatic EIS	Test Identifier
DATE	LABEL	2/24/2021	Date
TIME	LABEL	16:19:49	Time
NOTES	NOTES	1	Notes...
	
PSTAT	PSTAT	REF3000-16137	Potentiostat
VDC	POTEN	0.00000E+000	T	DC Voltage (V)
FREQINIT	QUANT	3.00000E+005	Initial Freq. (Hz)
FREQFINAL	QUANT	1.00000E+000	Final Freq. (Hz)
PTSPERDEC	QUANT	1.00000E+001	Points/decade
VAC	QUANT	5.00000E+001	AC Voltage (mV rms)
AREA	QUANT	1.00000E+000	Sample Area (cm^2)
SPEED	SELECTOR	2	Optimize for:
ZGUESS	QUANT	1.00000E+003	Estimated Z (ohms)
EOC	QUANT	0	Open Circuit (V)
SEQUENCER	TOGGLE	TRUE	Run as Sequence
PSTATMODEL	IQUANT	5	Pstat Model
PSTATSECTION	LABEL	REF3000-16137	Pstat Section
PSTATSERIALNO	LABEL	16137	Pstat Serial Number
CTRLMODE	IQUANT	1	Control Mode
IESTAB	IQUANT	0	I/E Stability
CASPEED	IQUANT	1	Control Amp Speed
CONVENTION	IQUANT	1	Current Convention
ICHRANGE	IQUANT	2	Ich Range
ICHRANGEMODE	TOGGLE	F	Ich Auto Range
ICHOFFSETENABLE	TOGGLE	T	Ich Offset Enable
ICHOFFSET	QUANT	0	Ich Offset (V)
ICHFILTER	IQUANT	3	Ich Filter
VCHRANGE	IQUANT	2	Vch Range
VCHRANGEMODE	TOGGLE	F	Vch Auto Range
VCHOFFSETENABLE	TOGGLE	T	Vch Offset Enable
VCHOFFSET	QUANT	0	Vch Offset (V)
VCHFILTER	IQUANT	3	Vch Filter
ACHRANGE	IQUANT	2	Ach Range
ACHOFFSETENABLE	TOGGLE	F	Ach Offset Enable
ACHOFFSET	QUANT	0	Ach Offset (V)
ACHFILTER	IQUANT	3	Ach Filter
IERANGELOWERLIMIT	IQUANT	2	I/E Range Lower Limit
IERANGEMODE	TOGGLE	F	I/E AutoRange
IERANGE	IQUANT	11	I/E Range
POSFEEDENABLE	TOGGLE	F	Positive Feedback IR Comp
POSFEEDRESISTANCE	QUANT	0	Positive Feedback Resistance (ohm)
ACHSELECT	IQUANT	0	Ach Select
CABLEID	IQUANT	13	Cable ID
DCCALDATE	LABEL	7/31/2020	DC Calibration Date
ACCALDATE	LABEL	7/31/2020	AC Calibration Date
THERMOSELECT	IQUANT	1	Thermo Select
FRAMEWORKVERSION	QUANT	6.33	Framework Version
INSTRUMENTVERSION	LABEL	3.50	Instrument Version
COMPLIANCEVOLTAGE	IQUANT	0	Compliance Voltage
ZCURVE	TABLE
	Pt	Time	Freq	Zreal	Zimag	Zsig	Zmod	Zphz	Idc	Vdc	IERange
	#	s	Hz	ohm	ohm	V	ohm	°	A	V	#
	0	14	300046.9	996.057	-342.8289	1	1053.404	-18.99276	5.793831E-005	-6.272036E-005	9
	1	37	238359.4	1098.647	-333.7812	1	1148.231	-16.89937	8.069834E-005	-0.0016521	9
	2	59	189328.1	1195.603	-305.211	1	1233.945	-14.3205	8.395409E-005	-0.0031587	9
	3	71	150421.9	1249.845	-274.7632	1	1279.691	-12.39855	1.816664E-005	-0.0007822	9
	4	79	119484.4	1311.458	-199.6561	1	1326.568	-8.656231	-7.317022E-005	0.027032	8
	5	86	94921.88	1354.967	-171.0521	1	1365.721	-7.195004	-2.799916E-006	-0.0032821	8
	6	92	75421.88	1386.556	-147.6416	1	1394.395	-6.077997	8.600661E-006	0.0026785	8
	7	94	59859.37	1416.764	-122.7662	1	1422.073	-4.952454	-1.760519E-005	0.0032108	8
	8	101	47578.12	1453.429	-106.7254	1	1457.342	-4.199696	-2.1124E-005	0.0067204	8
	9	107	37828.12	1481.54	-91.02567	1	1484.333	-3.515828	-2.002974E-005	0.0049786	8
	10	110	30046.88	1506.979	-77.89561	1	1508.991	-2.95898	2.18948E-005	-0.0046273	8
	11	116	23859.38	1533.361	-64.93478	1	1534.735	-2.424913	8.735929E-006	0.0028074	8
	12	119	18984.38	1551.466	-52.77335	1	1552.364	-1.948173	-2.630112E-006	-0.0034706	8
	13	122	15046.87	1571.247	-46.21521	1	1571.927	-1.684759	-2.919803E-006	-0.003358	8
	14	126	11953.13	1592.471	-40.62341	1	1592.99	-1.461279	8.511009E-006	0.0028513	8
	15	130	9515.62	1609.672	-31.47412	1	1609.98	-1.120169	3.338239E-007	0.0058029	8
	16	133	7546.875	1632.214	-26.76964	1	1632.433	-0.9396135	2.050117E-005	-0.0028729	8
	17	137	5928.309	1650.155	-18.17122	1	1650.255	-0.6309059	2.046213E-005	-0.0028857	8
	18	141	4733.456	1681.75	-20.88651	1	1681.88	-0.7115487	2.113251E-005	-0.0074202	8
	19	145	3796.875	1698.851	-23.96164	1	1699.02	-0.8080814	-2.149526E-005	0.0068505	8
	20	148	2987.132	1722.473	-19.73551	1	1722.586	-0.6564471	2.274737E-005	-0.0063551	8
	21	153	2390.625	1743.534	-14.62263	1	1743.596	-0.4805155	8.714533E-006	0.0029686	8
	22	156	1884.191	1768.25	-14.91469	1	1768.313	-0.4832622	-9.593003E-006	-0.0009302	8
	23	160	1516.544	1792.221	-17.06248	1	1792.302	-0.5454565	2.139701E-005	-0.0075007	8
	24	164	1193.986	1818.614	-18.70651	1	1818.71	-0.5893314	-1.921157E-005	0.0092523	8
	25	169	946.5144	1841.495	-17.81259	1	1841.581	-0.5541989	8.997889E-006	0.0029231	8
	26	171	751.7689	1852.029	-19.74647	1	1852.135	-0.6108686	2.273128E-005	-0.0047367	8
	27	174	597.4265	1873.664	-6.81373	1	1873.676	-0.2083598	-2.165504E-005	0.0084153	8
	28	177	477.4305	1888.518	-25.55548	1	1888.69	-0.7752811	-1.409807E-007	0.0006859	8
	29	179	376.6741	1904.211	-30.32519	1	1904.452	-0.9123772	-1.521776E-007	0.0006721	8
	30	181	298.2954	1920.136	-36.38115	1	1920.481	-1.085463	-1.413453E-007	0.0006592	8
	31	183	237.7717	1937.083	-44.14708	1	1937.586	-1.305573	-1.075029E-007	0.0006463	8
	32	186	189.0121	1954.268	-53.80726	1	1955.008	-1.577138	-1.490008E-007	0.0006761	8
	33	188	150.2404	1972.033	-65.86495	1	1973.132	-1.912941	-1.082555E-007	0.0006602	8
	34	191	119.1737	1990.031	-80.88179	1	1991.674	-2.327419	-1.368731E-007	0.0006679	8
	35	193	95.0169	2008.903	-99.4082	1	2011.361	-2.832903	-1.39727E-007	0.0006751	8
	36	196	75.60484	2028.945	-122.4635	1	2032.637	-3.454081	-1.252841E-007	0.000678	8
	37	198	54.50582	2051.702	-165.2353	1	2058.345	-4.60442	-1.468039E-007	0.0006738	8
	38	201	45.95588	2071.903	-193.2833	1	2080.898	-5.329576	-1.032705E-007	0.0006734	8
	39	203	37.20238	2093.366	-234.9475	1	2106.509	-6.403756	-1.181443E-007	0.0006565	8
	40	205	30.04808	2116.258	-286.2396	1	2135.528	-7.702933	-7.127962E-008	0.0006396	8
	41	208	23.91582	2140.443	-355.3639	1	2169.742	-9.426465	9.970249E-009	0.0006431	8
	42	210	18.60119	2168.211	-451.5392	1	2214.729	-11.76395	-3.720695E-007	0.000692	8
	43	212	15.02404	2198.675	-541.5653	1	2264.39	-13.83733	4.914669E-008	0.0006744	8
	44	215	12.01923	2226.63	-669.5667	1	2325.124	-16.73648	-2.111448E-007	0.0006548	8
	45	217	9.450605	2265.377	-840.52	1	2416.279	-20.3563	-2.176544E-008	0.0006656	8
	46	220	7.512019	2311.15	-1038.095	1	2533.585	-24.1881	-1.823219E-007	0.0006886	8
	47	222	5.978954	2364.433	-1285.629	1	2691.354	-28.53455	-1.615026E-007	0.0006619	8
	48	226	4.734848	2431.841	-1599.106	1	2910.496	-33.32772	-6.966792E-008	0.0006934	8
	49	229	3.75601	2511.363	-1980.927	1	3198.596	-38.26587	-1.307801E-007	0.0006407	8
	50	232	3.004808	2603.945	-2432.109	1	3563.1	-43.04576	-1.090562E-007	0.0006551	8
	51	236	2.372217	2730.255	-3026.034	1	4075.68	-47.94148	-3.999179E-008	0.0006589	7
	52	240	1.878005	2883.331	-3757.031	1	4735.914	-52.49559	-5.564207E-008	0.0006343	7
	53	245	1.512097	3058.193	-4583.359	1	5509.966	-56.28727	-4.608794E-008	0.0005402	7
	54	250	1.201923	3285.937	-5659.723	1	6544.452	-59.86129	-5.205227E-008	0.0006452	7
	55	256	0.956633	3560.657	-6969.582	1	7826.452	-62.93818	-5.063468E-008	-9.32958E-006	7
