EXPLAIN
TAG	EISPOT
TITLE	LABEL	Potentiostatic EIS	Test Identifier
DATE	LABEL	2/24/2021	Date
TIME	LABEL	15:11:42	Time
NOTES	NOTES	1	Notes...
	
PSTAT	PSTAT	REF3000-16137	Potentiostat
VDC	POTEN	0.00000E+000	T	DC Voltage (V)
FREQINIT	QUANT	3.00000E+005	Initial Freq. (Hz)
FREQFINAL	QUANT	1.00000E+000	Final Freq. (Hz)
PTSPERDEC	QUANT	1.00000E+001	Points/decade
VAC	QUANT	5.00000E+001	AC Voltage (mV rms)
AREA	QUANT	1.00000E+000	Sample Area (cm^2)
SPEED	SELECTOR	2	Optimize for:
ZGUESS	QUANT	1.00000E+003	Estimated Z (ohms)
EOC	QUANT	0	Open Circuit (V)
SEQUENCER	TOGGLE	TRUE	Run as Sequence
PSTATMODEL	IQUANT	5	Pstat Model
PSTATSECTION	LABEL	REF3000-16137	Pstat Section
PSTATSERIALNO	LABEL	16137	Pstat Serial Number
CTRLMODE	IQUANT	1	Control Mode
IESTAB	IQUANT	0	I/E Stability
CASPEED	IQUANT	1	Control Amp Speed
CONVENTION	IQUANT	1	Current Convention
ICHRANGE	IQUANT	2	Ich Range
ICHRANGEMODE	TOGGLE	F	Ich Auto Range
ICHOFFSETENABLE	TOGGLE	T	Ich Offset Enable
ICHOFFSET	QUANT	0	Ich Offset (V)
ICHFILTER	IQUANT	3	Ich Filter
VCHRANGE	IQUANT	2	Vch Range
VCHRANGEMODE	TOGGLE	F	Vch Auto Range
VCHOFFSETENABLE	TOGGLE	T	Vch Offset Enable
VCHOFFSET	QUANT	0	Vch Offset (V)
VCHFILTER	IQUANT	3	Vch Filter
ACHRANGE	IQUANT	2	Ach Range
ACHOFFSETENABLE	TOGGLE	F	Ach Offset Enable
ACHOFFSET	QUANT	0	Ach Offset (V)
ACHFILTER	IQUANT	3	Ach Filter
IERANGELOWERLIMIT	IQUANT	2	I/E Range Lower Limit
IERANGEMODE	TOGGLE	F	I/E AutoRange
IERANGE	IQUANT	11	I/E Range
POSFEEDENABLE	TOGGLE	F	Positive Feedback IR Comp
POSFEEDRESISTANCE	QUANT	0	Positive Feedback Resistance (ohm)
ACHSELECT	IQUANT	0	Ach Select
CABLEID	IQUANT	13	Cable ID
DCCALDATE	LABEL	7/31/2020	DC Calibration Date
ACCALDATE	LABEL	7/31/2020	AC Calibration Date
THERMOSELECT	IQUANT	1	Thermo Select
FRAMEWORKVERSION	QUANT	6.33	Framework Version
INSTRUMENTVERSION	LABEL	3.50	Instrument Version
COMPLIANCEVOLTAGE	IQUANT	0	Compliance Voltage
ZCURVE	TABLE
	Pt	Time	Freq	Zreal	Zimag	Zsig	Zmod	Zphz	Idc	Vdc	IERange
	#	s	Hz	ohm	ohm	V	ohm	°	A	V	#
	0	10	300046.9	3.240299	2.24932	1	3.944487	34.76725	-1.529616E-005	-5.504678E-005	10
	1	13	238359.4	3.224833	1.782942	1	3.684892	28.93728	1.946899E-005	-0.0004815	10
	2	16	189328.1	3.201497	1.410773	1	3.498552	23.78119	3.411938E-005	-7.595817E-005	10
	3	19	150421.9	3.200557	1.100746	1	3.384554	18.97929	7.454496E-005	-6.311564E-005	10
	4	21	119484.4	3.221868	0.7039075	1	3.297866	12.32422	-5.924062E-005	0.0003222	12
	5	25	94921.88	3.190337	0.6437489	1	3.254637	11.40801	1.210317E-005	0.0006237	11
	6	27	75421.88	3.189407	0.4768274	1	3.224854	8.50294	-9.765348E-006	0.0005969	11
	7	30	59859.37	3.194154	0.3365386	1	3.211834	6.014539	-3.426425E-005	0.0006462	11
	8	33	47578.12	3.198042	0.2147352	1	3.205243	3.841406	2.232384E-005	0.0007116	11
	9	35	37828.12	3.20316	0.1051115	1	3.204884	1.879483	-4.395447E-005	0.0006356	11
	10	38	30046.88	3.21106	0.0021288	1	3.211061	0.0379851	-5.239894E-005	0.0006547	11
	11	40	23859.38	3.219138	-0.0997317	1	3.220682	-1.774505	-4.457151E-005	0.0006605	11
	12	42	18984.38	3.228543	-0.2040221	1	3.234982	-3.615899	7.83905E-006	0.0007057	11
	13	45	15046.87	3.240961	-0.3193832	1	3.25666	-5.628089	-2.268579E-005	0.0006919	11
	14	47	11953.13	3.254628	-0.4481498	1	3.285337	-7.840107	2.636564E-005	0.000749	11
	15	49	9515.62	3.27104	-0.5956209	1	3.324826	-10.31987	-2.122884E-005	0.0007116	11
	16	52	7546.875	3.290819	-0.7738573	1	3.380583	-13.23305	-2.595425E-005	0.0007108	11
	17	54	5928.309	3.315239	-0.998421	1	3.46232	-16.76026	1.815076E-005	0.0007303	11
	18	56	4733.456	3.344905	-1.253974	1	3.572232	-20.55056	-1.163203E-005	0.0007089	11
	19	59	3796.875	3.38409	-1.558637	1	3.725777	-24.72976	2.328236E-005	0.0006628	10
	20	61	2987.132	3.433378	-1.967324	1	3.957076	-29.8127	-6.341702E-006	0.0006866	10
	21	63	2390.625	3.491646	-2.434693	1	4.25668	-34.88772	2.295823E-005	0.0006859	10
	22	66	1884.191	3.571999	-3.047947	1	4.695653	-40.47375	2.208562E-005	0.0006753	10
	23	68	1516.544	3.665775	-3.736763	1	5.234626	-45.54943	2.040449E-005	0.0006763	10
	24	70	1193.986	3.79763	-4.670433	1	6.019546	-50.8847	1.443269E-005	0.0006831	10
	25	73	946.5144	3.96223	-5.793718	1	7.019005	-55.63241	2.162937E-005	0.0006749	10
	26	75	751.7689	4.174739	-7.156427	1	8.285101	-59.74263	-2.884116E-006	0.0006648	10
	27	77	597.4265	4.439673	-8.839126	1	9.89145	-63.33076	-2.588016E-005	0.0006875	10
	28	80	477.4305	4.764154	-10.83777	1	11.83869	-66.27029	-1.75522E-006	0.0006873	10
	29	82	376.6741	5.196987	-13.44078	1	14.41052	-68.8606	-1.952271E-006	0.0006828	10
	30	84	298.2954	5.734138	-16.60251	1	17.56484	-70.94622	-2.477423E-006	0.0006879	10
	31	86	237.7717	6.391198	-20.37625	1	21.35507	-72.58549	-2.850165E-006	0.0006918	10
	32	89	189.0121	7.228674	-25.06167	1	26.08335	-73.91056	-1.660399E-006	0.0006904	10
	33	91	150.2404	8.293211	-30.81094	1	31.90754	-74.93505	-1.680818E-006	0.0006871	10
	34	94	119.1737	9.65635	-37.92442	1	39.13447	-75.71484	-2.146925E-006	0.0006924	10
	35	96	95.0169	11.34035	-46.36907	1	47.73567	-76.2571	1.001021E-006	8.84957E-005	9
	36	99	75.60484	13.51918	-56.81766	1	58.40389	-76.61594	8.757978E-007	8.663394E-005	9
	37	101	54.50582	17.70734	-75.83009	1	77.8701	-76.85619	7.775367E-007	8.593273E-005	9
	38	104	45.95588	20.53455	-88.07541	1	90.43752	-76.87608	9.856233E-007	9.416507E-005	9
	39	106	37.20238	24.80759	-105.8704	1	108.7381	-76.81236	9.692184E-007	8.957551E-005	9
	40	108	30.04808	30.10235	-127.2294	1	130.742	-76.68866	8.500862E-007	8.155463E-005	9
	41	111	23.91582	37.07894	-154.5754	1	158.9603	-76.51098	9.597657E-007	8.52122E-005	9
	42	113	18.60119	46.63527	-191.3678	1	196.9683	-76.30429	9.231279E-007	0.0000988	9
	43	115	15.02404	56.32433	-229.0828	1	235.9054	-76.18674	1.189124E-006	0.0001008	9
	44	118	12.01923	68.34992	-276.3212	1	284.6491	-76.10638	9.229568E-007	8.571518E-005	9
	45	120	9.450605	83.76813	-338.2921	1	348.5092	-76.09213	1.096295E-006	8.113792E-005	9
	46	123	7.512019	101.3691	-410.5501	1	422.8795	-76.13049	1.166699E-006	9.286965E-005	9
	47	125	5.978954	121.5447	-496.0857	1	510.7584	-76.23329	4.179107E-007	0.000667	8
	48	128	4.734848	147.0732	-605.5412	1	623.1458	-76.3484	4.936106E-007	0.0006994	8
	49	132	3.75601	179.0403	-739.1344	1	760.5098	-76.38354	4.074571E-007	0.0006583	8
	50	135	3.004808	216.8743	-895.6143	1	921.4984	-76.38777	4.386906E-007	0.0006811	8
	51	139	2.372217	269.1105	-1098.459	1	1130.943	-76.23428	4.3445E-007	0.000703	8
	52	143	1.878005	334.7866	-1348.721	1	1389.651	-76.0595	3.501158E-007	0.0006564	8
	53	148	1.512097	411.1282	-1627.528	1	1678.653	-75.82316	4.107336E-007	0.0005887	8
	54	153	1.201923	524.3552	-1989.975	1	2057.899	-75.23819	3.711727E-007	0.0006597	8
	55	159	0.956633	672.6055	-2423.311	1	2514.922	-74.48766	3.504189E-007	2.428972E-005	8
