EXPLAIN
TAG	EISPOT
TITLE	LABEL	Potentiostatic EIS	Test Identifier
DATE	LABEL	2/24/2021	Date
TIME	LABEL	15:00:19	Time
NOTES	NOTES	1	Notes...
	
PSTAT	PSTAT	REF3000-16137	Potentiostat
VDC	POTEN	0.00000E+000	T	DC Voltage (V)
FREQINIT	QUANT	3.00000E+005	Initial Freq. (Hz)
FREQFINAL	QUANT	1.00000E+000	Final Freq. (Hz)
PTSPERDEC	QUANT	1.00000E+001	Points/decade
VAC	QUANT	5.00000E+001	AC Voltage (mV rms)
AREA	QUANT	1.00000E+000	Sample Area (cm^2)
SPEED	SELECTOR	2	Optimize for:
ZGUESS	QUANT	1.00000E+003	Estimated Z (ohms)
EOC	QUANT	0	Open Circuit (V)
SEQUENCER	TOGGLE	TRUE	Run as Sequence
PSTATMODEL	IQUANT	5	Pstat Model
PSTATSECTION	LABEL	REF3000-16137	Pstat Section
PSTATSERIALNO	LABEL	16137	Pstat Serial Number
CTRLMODE	IQUANT	1	Control Mode
IESTAB	IQUANT	0	I/E Stability
CASPEED	IQUANT	1	Control Amp Speed
CONVENTION	IQUANT	1	Current Convention
ICHRANGE	IQUANT	2	Ich Range
ICHRANGEMODE	TOGGLE	F	Ich Auto Range
ICHOFFSETENABLE	TOGGLE	T	Ich Offset Enable
ICHOFFSET	QUANT	0	Ich Offset (V)
ICHFILTER	IQUANT	3	Ich Filter
VCHRANGE	IQUANT	2	Vch Range
VCHRANGEMODE	TOGGLE	F	Vch Auto Range
VCHOFFSETENABLE	TOGGLE	T	Vch Offset Enable
VCHOFFSET	QUANT	0	Vch Offset (V)
VCHFILTER	IQUANT	3	Vch Filter
ACHRANGE	IQUANT	2	Ach Range
ACHOFFSETENABLE	TOGGLE	F	Ach Offset Enable
ACHOFFSET	QUANT	0	Ach Offset (V)
ACHFILTER	IQUANT	3	Ach Filter
IERANGELOWERLIMIT	IQUANT	2	I/E Range Lower Limit
IERANGEMODE	TOGGLE	F	I/E AutoRange
IERANGE	IQUANT	11	I/E Range
POSFEEDENABLE	TOGGLE	F	Positive Feedback IR Comp
POSFEEDRESISTANCE	QUANT	0	Positive Feedback Resistance (ohm)
ACHSELECT	IQUANT	0	Ach Select
CABLEID	IQUANT	13	Cable ID
DCCALDATE	LABEL	7/31/2020	DC Calibration Date
ACCALDATE	LABEL	7/31/2020	AC Calibration Date
THERMOSELECT	IQUANT	1	Thermo Select
FRAMEWORKVERSION	QUANT	6.33	Framework Version
INSTRUMENTVERSION	LABEL	3.50	Instrument Version
COMPLIANCEVOLTAGE	IQUANT	0	Compliance Voltage
ZCURVE	TABLE
	Pt	Time	Freq	Zreal	Zimag	Zsig	Zmod	Zphz	Idc	Vdc	IERange
	#	s	Hz	ohm	ohm	V	ohm	°	A	V	#
	0	10	300046.9	2.494094	2.211411	1	3.333293	41.56209	6.879782E-005	-0.0001311	11
	1	13	238359.4	2.449723	1.770018	1	3.022269	35.84954	-4.730255E-005	-0.0002088	11
	2	16	189328.1	2.427927	1.394772	1	2.800039	29.87609	3.987226E-005	0.0002417	11
	3	19	150421.9	2.456282	0.965402	1	2.63919	21.45651	3.753718E-005	0.0002601	12
	4	22	119484.4	2.431212	0.7460625	1	2.543109	17.0596	-9.313207E-005	0.0004274	12
	5	26	94921.88	2.396704	0.6542541	1	2.4844	15.26863	-2.290852E-005	0.0005497	11
	6	28	75421.88	2.404748	0.4206367	1	2.44126	9.92175	-1.958002E-005	0.0005411	12
	7	32	59859.37	2.400929	0.2931211	1	2.418756	6.960595	-2.350558E-005	0.0005808	12
	8	36	47578.12	2.402406	0.1831754	1	2.409379	4.360175	-0.0001223	0.0005807	12
	9	39	37828.12	2.404614	0.1185221	1	2.407533	2.821793	-2.118768E-005	0.000662	11
	10	43	30046.88	2.40961	0.0169905	1	2.40967	0.4039946	1.726872E-005	0.0006896	11
	11	45	23859.38	2.415918	-0.0821416	1	2.417314	-1.947317	-2.563558E-005	0.0006722	11
	12	48	18984.38	2.423217	-0.1833051	1	2.43014	-4.325922	-4.897349E-005	0.0006533	11
	13	50	15046.87	2.432366	-0.2941165	1	2.450084	-6.89461	1.798123E-005	0.0007188	11
	14	52	11953.13	2.444667	-0.417258	1	2.48002	-9.68596	-2.468639E-005	0.0007125	11
	15	55	9515.62	2.458851	-0.5582895	1	2.521435	-12.79229	-1.979846E-005	0.0007154	11
	16	57	7546.875	2.476465	-0.7281061	1	2.581282	-16.38387	-1.517785E-005	0.0007132	11
	17	59	5928.309	2.498987	-0.9410718	1	2.670309	-20.63544	9.595953E-006	0.0007134	11
	18	62	4733.456	2.527334	-1.183005	1	2.790505	-25.08354	-3.665185E-005	0.0006835	11
	19	64	3796.875	2.562017	-1.469228	1	2.953399	-29.83278	2.245971E-005	0.0007273	11
	20	66	2987.132	2.61041	-1.8537	1	3.201632	-35.37926	1.63782E-005	0.0007227	11
	21	69	2390.625	2.667959	-2.292668	1	3.517717	-40.6736	2.20348E-005	0.0007349	11
	22	71	1884.191	2.751113	-2.86913	1	3.974988	-46.20295	1.404729E-005	0.0006778	10
	23	73	1516.544	2.845395	-3.513081	1	4.520842	-50.99451	-2.51168E-005	0.0006863	10
	24	75	1193.986	2.977226	-4.382006	1	5.297721	-55.807	1.843798E-005	0.000675	10
	25	78	946.5144	3.137764	-5.424877	1	6.266965	-59.95479	-1.974226E-005	0.0006695	10
	26	80	751.7689	3.346373	-6.695177	1	7.484892	-63.44327	-2.500907E-005	0.0006848	10
	27	83	597.4265	3.601696	-8.249128	1	9.00113	-66.41318	-2.56028E-005	0.000689	10
	28	85	477.4305	3.920961	-10.10728	1	10.84117	-68.79701	-1.95486E-006	0.0006824	10
	29	87	376.6741	4.342085	-12.52042	1	13.25197	-70.87344	-2.318559E-006	0.0006803	10
	30	90	298.2954	4.867377	-15.44983	1	16.19842	-72.51328	-1.309106E-006	0.0006809	10
	31	92	237.7717	5.512751	-18.94053	1	19.72648	-73.77206	-1.803346E-006	0.0006764	10
	32	94	189.0121	6.341231	-23.26439	1	24.11312	-74.75314	-1.863518E-006	0.0006857	10
	33	97	150.2404	7.393509	-28.55676	1	29.49835	-75.48453	-1.754829E-006	0.0006801	10
	34	99	119.1737	8.745247	-35.08702	1	36.16045	-76.0045	-1.753893E-006	0.0006854	10
	35	102	95.0169	10.41195	-42.81313	1	44.06102	-76.33128	5.921837E-007	8.169337E-005	9
	36	104	75.60484	12.5566	-52.33167	1	53.81702	-76.50737	4.743348E-007	8.528259E-005	9
	37	107	54.50582	16.65177	-69.57772	1	71.54258	-76.54078	2.816762E-007	7.526897E-005	9
	38	109	45.95588	19.36381	-80.62109	1	82.91391	-76.49435	5.968284E-007	0.0001036	9
	39	111	37.20238	23.40809	-96.6218	1	99.4168	-76.38161	4.867362E-007	8.994638E-005	9
	40	114	30.04808	28.29573	-115.8074	1	119.2141	-76.26968	4.521372E-007	8.949103E-005	9
	41	116	23.91582	34.56807	-140.3922	1	144.5854	-76.16751	3.777834E-007	8.289977E-005	9
	42	119	18.60119	43.04036	-173.6584	1	178.9126	-76.08003	3.829386E-007	8.619652E-005	9
	43	121	15.02404	51.60204	-207.9213	1	214.2289	-76.0619	7.593392E-007	0.0000956	9
	44	123	12.01923	62.32671	-251.1323	1	258.751	-76.0618	5.678181E-007	8.261581E-005	9
	45	126	9.450605	76.34413	-308.0345	1	317.3542	-76.08014	5.79854E-007	0.0000986	9
	46	128	7.512019	92.77339	-374.891	1	386.1997	-76.1004	7.82213E-007	0.0001079	9
	47	131	5.978954	112.6634	-454.2611	1	468.0237	-76.07087	-4.669574E-008	0.0006669	8
	48	134	4.734848	139.1952	-555.8503	1	573.0139	-75.94119	5.541245E-008	0.0006679	8
	49	137	3.75601	173.0922	-678.803	1	700.5244	-75.69466	-3.4397E-008	0.0006746	8
	50	141	3.004808	215.5165	-822.5854	1	850.3494	-75.31856	2.704154E-008	0.0006344	8
	51	144	2.372217	276.1494	-1008.65	1	1045.769	-74.68868	-4.801542E-008	0.0005948	8
	52	148	1.878005	355.5804	-1231.248	1	1281.565	-73.89146	1.534699E-008	0.0006796	8
	53	153	1.512097	456.1143	-1476.574	1	1545.416	-72.83405	-2.01614E-008	0.0005959	8
	54	159	1.201923	598.6678	-1791.967	1	1889.325	-71.52634	2.626399E-008	0.0006965	8
	55	165	0.956633	794.5421	-2156.06	1	2297.801	-69.77036	-8.416838E-008	2.212288E-005	8
