EXPLAIN
TAG	EISPOT
TITLE	LABEL	Potentiostatic EIS	Test Identifier
DATE	LABEL	2/25/2021	Date
TIME	LABEL	23:30:21	Time
NOTES	NOTES	1	Notes...
	
PSTAT	PSTAT	REF3000-16137	Potentiostat
VDC	POTEN	0.00000E+000	T	DC Voltage (V)
FREQINIT	QUANT	3.00000E+005	Initial Freq. (Hz)
FREQFINAL	QUANT	1.00000E+000	Final Freq. (Hz)
PTSPERDEC	QUANT	1.00000E+001	Points/decade
VAC	QUANT	5.00000E+001	AC Voltage (mV rms)
AREA	QUANT	1.00000E+000	Sample Area (cm^2)
SPEED	SELECTOR	2	Optimize for:
ZGUESS	QUANT	1.00000E+003	Estimated Z (ohms)
EOC	QUANT	0	Open Circuit (V)
SEQUENCER	TOGGLE	TRUE	Run as Sequence
PSTATMODEL	IQUANT	5	Pstat Model
PSTATSECTION	LABEL	REF3000-16137	Pstat Section
PSTATSERIALNO	LABEL	16137	Pstat Serial Number
CTRLMODE	IQUANT	1	Control Mode
IESTAB	IQUANT	0	I/E Stability
CASPEED	IQUANT	1	Control Amp Speed
CONVENTION	IQUANT	1	Current Convention
ICHRANGE	IQUANT	2	Ich Range
ICHRANGEMODE	TOGGLE	F	Ich Auto Range
ICHOFFSETENABLE	TOGGLE	T	Ich Offset Enable
ICHOFFSET	QUANT	0	Ich Offset (V)
ICHFILTER	IQUANT	3	Ich Filter
VCHRANGE	IQUANT	2	Vch Range
VCHRANGEMODE	TOGGLE	F	Vch Auto Range
VCHOFFSETENABLE	TOGGLE	T	Vch Offset Enable
VCHOFFSET	QUANT	0	Vch Offset (V)
VCHFILTER	IQUANT	3	Vch Filter
ACHRANGE	IQUANT	2	Ach Range
ACHOFFSETENABLE	TOGGLE	F	Ach Offset Enable
ACHOFFSET	QUANT	0	Ach Offset (V)
ACHFILTER	IQUANT	3	Ach Filter
IERANGELOWERLIMIT	IQUANT	2	I/E Range Lower Limit
IERANGEMODE	TOGGLE	F	I/E AutoRange
IERANGE	IQUANT	11	I/E Range
POSFEEDENABLE	TOGGLE	F	Positive Feedback IR Comp
POSFEEDRESISTANCE	QUANT	0	Positive Feedback Resistance (ohm)
ACHSELECT	IQUANT	0	Ach Select
CABLEID	IQUANT	13	Cable ID
DCCALDATE	LABEL	7/31/2020	DC Calibration Date
ACCALDATE	LABEL	7/31/2020	AC Calibration Date
THERMOSELECT	IQUANT	1	Thermo Select
FRAMEWORKVERSION	QUANT	6.33	Framework Version
INSTRUMENTVERSION	LABEL	3.50	Instrument Version
COMPLIANCEVOLTAGE	IQUANT	0	Compliance Voltage
ZCURVE	TABLE
	Pt	Time	Freq	Zreal	Zimag	Zsig	Zmod	Zphz	Idc	Vdc	IERange
	#	s	Hz	ohm	ohm	V	ohm	°	A	V	#
	0	17	300046.9	436.1065	-68.9128	1	441.5177	-8.979531	-1.871975E-005	0.0012787	9
	1	27	238359.4	442.7691	-58.5025	1	446.6173	-7.526818	1.528379E-005	-0.0019059	9
	2	35	189328.1	448.7486	-48.19007	1	451.3287	-6.129371	-5.937222E-005	0.0006593	9
	3	44	150421.9	453.4367	-42.42073	1	455.4167	-5.344681	2.283286E-005	-0.0016677	9
	4	49	119484.4	460.6947	-21.60421	1	461.201	-2.68491	8.522177E-006	0.0063442	8
	5	52	94921.88	462.5006	-17.38957	1	462.8274	-2.153251	-8.805969E-006	0.0061277	8
	6	54	75421.88	463.9204	-16.75828	1	464.223	-2.068806	7.194142E-006	-0.0046795	8
	7	57	59859.37	465.7857	-14.68941	1	466.0173	-1.806329	-1.233126E-005	0.0064499	8
	8	59	47578.12	467.2076	-13.39221	1	467.3995	-1.641897	-1.511058E-005	0.005119	8
	9	62	37828.12	468.9728	-12.9859	1	469.1526	-1.58612	1.488833E-005	-0.0022484	8
	10	64	30046.88	471.5453	-12.36457	1	471.7073	-1.50203	7.022088E-006	0.0018505	8
	11	67	23859.38	471.8622	-11.08181	1	471.9923	-1.345359	-1.462116E-005	0.0060856	8
	12	69	18984.38	474.0435	-10.37263	1	474.157	-1.253499	-1.200219E-005	0.0063596	8
	13	71	15046.87	475.2143	-12.36658	1	475.3752	-1.490681	-4.461013E-006	0.005445	8
	14	74	11953.13	477.6845	-11.01872	1	477.8116	-1.321404	1.158828E-005	-0.0051447	8
	15	76	9515.62	478.4207	-10.5926	1	478.538	-1.268365	1.430394E-005	-0.0021589	8
	16	78	7546.875	479.3253	-11.08478	1	479.4535	-1.324774	-4.650194E-006	0.0055694	8
	17	81	5928.309	480.9054	-12.93134	1	481.0793	-1.540288	-1.469031E-005	0.0051044	8
	18	83	4733.456	482.7815	-11.98231	1	482.9302	-1.42175	1.143537E-005	-0.0051506	8
	19	85	3796.875	484.2416	-12.67755	1	484.4075	-1.499673	-1.409113E-005	0.005994	8
	20	88	2987.132	486.9171	-14.38606	1	487.1296	-1.692322	-1.351642E-005	0.00299	8
	21	90	2390.625	488.5144	-18.20856	1	488.8536	-2.134617	1.562338E-006	-0.0032526	8
	22	92	1884.191	490.4157	-22.22991	1	490.9193	-2.595366	2.378921E-006	-0.0034769	8
	23	94	1516.544	491.6737	-22.7725	1	492.2008	-2.651832	1.563261E-005	-0.0044549	8
	24	97	1193.986	494.0775	-26.88642	1	494.8086	-3.114816	-1.494734E-005	0.0051647	8
	25	99	946.5144	497.1633	-32.72019	1	498.2389	-3.765421	-9.076668E-006	0.0062867	8
	26	102	751.7689	500.13	-37.67385	1	501.547	-4.307847	-1.146395E-005	0.0017537	8
	27	104	597.4265	503.0896	-43.38444	1	504.9568	-4.928766	-1.236431E-005	0.0064519	8
	28	106	477.4305	506.7337	-52.39248	1	509.435	-5.90298	-6.256001E-008	0.0006459	8
	29	108	376.6741	510.9022	-62.54349	1	514.7162	-6.979293	-9.858981E-008	0.0006538	8
	30	111	298.2954	515.5051	-74.70966	1	520.8906	-8.246186	-1.165835E-007	0.0006677	8
	31	113	237.7717	520.6091	-89.02459	1	528.166	-9.70377	-8.589977E-008	0.0006502	8
	32	116	189.0121	526.4556	-106.58	1	537.1357	-11.44475	-7.76509E-008	0.0006492	8
	33	118	150.2404	533.1409	-127.9146	1	548.2712	-13.49175	-6.400934E-008	0.0006421	8
	34	120	119.1737	540.8146	-154.0883	1	562.3376	-15.90325	-6.299382E-008	0.000656	8
	35	123	95.0169	549.4602	-185.2355	1	579.8437	-18.63013	-9.771199E-008	0.0006694	8
	36	125	75.60484	559.5306	-223.5182	1	602.5237	-21.77545	-7.237567E-008	0.0006579	8
	37	128	54.50582	576.5321	-293.4608	1	646.9224	-26.97657	-6.208545E-008	0.0006437	8
	38	130	45.95588	587.3007	-338.6554	1	677.9451	-29.96905	-8.56479E-008	0.0006744	8
	39	133	37.20238	602.3967	-404.9228	1	725.8404	-33.90845	-7.804113E-008	0.0006706	8
	40	135	30.04808	620.3453	-485.7188	1	787.8776	-38.06028	-7.616894E-008	0.0006491	8
	41	137	23.91582	642.9929	-590.6047	1	873.0714	-42.56823	-6.463348E-008	0.0006449	8
	42	140	18.60119	673.0057	-733.5648	1	995.517	-47.46532	-1.700934E-007	0.0006624	8
	43	142	15.02404	704.3174	-881.8519	1	1128.595	-51.38634	-6.211924E-008	0.0006652	8
	44	144	12.01923	743.6713	-1070.2	1	1303.217	-55.20495	-1.527402E-008	0.0006474	8
	45	147	9.450605	795.0837	-1319.461	1	1540.499	-58.92759	-2.959599E-008	0.000622	8
	46	149	7.512019	854.7403	-1610.364	1	1823.143	-62.04177	-6.688509E-008	0.000688	8
	47	152	5.978954	928.0781	-1963.747	1	2172.01	-64.70431	-8.154298E-008	0.0006607	8
	48	155	4.734848	1019.229	-2408.259	1	2615.06	-67.06084	-8.557976E-008	0.0006846	8
	49	158	3.75601	1129.299	-2946.152	1	3155.175	-69.02752	-1.128117E-007	0.0006699	8
	50	162	3.004808	1258.229	-3575.825	1	3790.734	-70.6145	-9.630106E-008	0.0006323	8
	51	165	2.372217	1429.574	-4406.364	1	4632.464	-72.02518	-6.699228E-008	0.0005645	7
	52	169	1.878005	1628.574	-5401.73	1	5641.892	-73.2224	-5.467773E-008	0.0006022	7
	53	174	1.512097	1858.131	-6515.441	1	6775.221	-74.08244	-7.079018E-008	0.0005812	7
	54	180	1.201923	2147.387	-7990.597	1	8274.11	-74.95777	-6.235724E-008	0.0006668	7
	55	186	0.956633	2505.609	-9771.13	1	10087.27	-75.61755	-7.110123E-008	-4.103553E-006	7
