EXPLAIN
TAG	EISPOT
TITLE	LABEL	Potentiostatic EIS	Test Identifier
DATE	LABEL	2/25/2021	Date
TIME	LABEL	23:17:36	Time
NOTES	NOTES	1	Notes...
	
PSTAT	PSTAT	REF3000-16137	Potentiostat
VDC	POTEN	0.00000E+000	T	DC Voltage (V)
FREQINIT	QUANT	3.00000E+005	Initial Freq. (Hz)
FREQFINAL	QUANT	1.00000E+000	Final Freq. (Hz)
PTSPERDEC	QUANT	1.00000E+001	Points/decade
VAC	QUANT	5.00000E+001	AC Voltage (mV rms)
AREA	QUANT	1.00000E+000	Sample Area (cm^2)
SPEED	SELECTOR	2	Optimize for:
ZGUESS	QUANT	1.00000E+003	Estimated Z (ohms)
EOC	QUANT	0	Open Circuit (V)
SEQUENCER	TOGGLE	TRUE	Run as Sequence
PSTATMODEL	IQUANT	5	Pstat Model
PSTATSECTION	LABEL	REF3000-16137	Pstat Section
PSTATSERIALNO	LABEL	16137	Pstat Serial Number
CTRLMODE	IQUANT	1	Control Mode
IESTAB	IQUANT	0	I/E Stability
CASPEED	IQUANT	1	Control Amp Speed
CONVENTION	IQUANT	1	Current Convention
ICHRANGE	IQUANT	2	Ich Range
ICHRANGEMODE	TOGGLE	F	Ich Auto Range
ICHOFFSETENABLE	TOGGLE	T	Ich Offset Enable
ICHOFFSET	QUANT	0	Ich Offset (V)
ICHFILTER	IQUANT	3	Ich Filter
VCHRANGE	IQUANT	2	Vch Range
VCHRANGEMODE	TOGGLE	F	Vch Auto Range
VCHOFFSETENABLE	TOGGLE	T	Vch Offset Enable
VCHOFFSET	QUANT	0	Vch Offset (V)
VCHFILTER	IQUANT	3	Vch Filter
ACHRANGE	IQUANT	2	Ach Range
ACHOFFSETENABLE	TOGGLE	F	Ach Offset Enable
ACHOFFSET	QUANT	0	Ach Offset (V)
ACHFILTER	IQUANT	3	Ach Filter
IERANGELOWERLIMIT	IQUANT	2	I/E Range Lower Limit
IERANGEMODE	TOGGLE	F	I/E AutoRange
IERANGE	IQUANT	11	I/E Range
POSFEEDENABLE	TOGGLE	F	Positive Feedback IR Comp
POSFEEDRESISTANCE	QUANT	0	Positive Feedback Resistance (ohm)
ACHSELECT	IQUANT	0	Ach Select
CABLEID	IQUANT	13	Cable ID
DCCALDATE	LABEL	7/31/2020	DC Calibration Date
ACCALDATE	LABEL	7/31/2020	AC Calibration Date
THERMOSELECT	IQUANT	1	Thermo Select
FRAMEWORKVERSION	QUANT	6.33	Framework Version
INSTRUMENTVERSION	LABEL	3.50	Instrument Version
COMPLIANCEVOLTAGE	IQUANT	0	Compliance Voltage
ZCURVE	TABLE
	Pt	Time	Freq	Zreal	Zimag	Zsig	Zmod	Zphz	Idc	Vdc	IERange
	#	s	Hz	ohm	ohm	V	ohm	°	A	V	#
	0	8	300046.9	323.8517	-37.09398	1	325.9692	-6.534184	7.196799E-006	0.0011586	9
	1	13	238359.4	327.0114	-31.58228	1	328.533	-5.516432	8.47712E-006	0.0013252	9
	2	19	189328.1	329.4038	-27.08364	1	330.5154	-4.700295	-3.151979E-005	-0.0006719	9
	3	24	150421.9	333.3333	-24.08472	1	334.2023	-4.132677	-1.61583E-005	0.0014295	9
	4	29	119484.4	335.2493	-19.9273	1	335.841	-3.401672	-1.648578E-005	0.0011914	9
	5	33	94921.88	337.0153	-17.49777	1	337.4693	-2.972116	1.65456E-005	-0.0008078	9
	6	36	75421.88	338.6619	-15.00697	1	338.9942	-2.537262	1.554206E-005	-0.0007796	9
	7	38	59859.37	339.468	-12.89722	1	339.7129	-2.175761	1.055563E-005	-0.0007637	9
	8	41	47578.12	342.3827	-11.10161	1	342.5627	-1.85714	1.889814E-005	-4.786843E-005	9
	9	43	37828.12	342.1207	-9.97412	1	342.2661	-1.669916	2.005663E-005	-0.0008512	9
	10	46	30046.88	343.7994	-9.64381	1	343.9346	-1.606766	2.796582E-005	-0.0006117	9
	11	48	23859.38	344.7175	-9.080536	1	344.8371	-1.508934	2.242768E-005	-0.0008216	9
	12	50	18984.38	345.7906	-8.606615	1	345.8977	-1.425779	2.518714E-005	-0.0002539	9
	13	53	15046.87	347.6615	-9.15365	1	347.782	-1.508204	-1.854441E-006	-0.0003709	9
	14	55	11953.13	347.2643	-9.61213	1	347.3973	-1.585518	2.837117E-005	-0.0005373	9
	15	57	9515.62	348.5347	-8.60922	1	348.641	-1.414986	-2.483118E-005	0.000881	9
	16	60	7546.875	349.7236	-9.073495	1	349.8412	-1.486192	3.04619E-005	-0.0005207	9
	17	62	5928.309	350.8224	-10.06332	1	350.9667	-1.643076	-1.019783E-006	-0.0003804	9
	18	65	4733.456	350.0343	-10.58156	1	350.1942	-1.731527	-7.005066E-006	0.0002756	8
	19	67	3796.875	352.3975	-12.51456	1	352.6197	-2.033869	2.756275E-007	0.0007213	9
	20	69	2987.132	352.547	-12.70948	1	352.776	-2.064645	1.364496E-005	-0.0037807	8
	21	72	2390.625	355.9917	-15.05901	1	356.31	-2.422258	7.68098E-006	-0.0005681	9
	22	74	1884.191	356.7491	-19.90014	1	357.3037	-3.192758	-2.425738E-005	0.0008968	9
	23	77	1516.544	358.5475	-20.58131	1	359.1377	-3.285282	-1.228742E-006	-0.000396	9
	24	79	1193.986	358.745	-24.45129	1	359.5773	-3.899127	-9.942092E-006	0.0016903	8
	25	81	946.5144	362.167	-28.58652	1	363.2934	-4.513107	-2.391848E-005	0.0009114	9
	26	84	751.7689	364.2548	-34.93529	1	365.9262	-5.478421	7.905517E-006	-0.0006377	9
	27	86	597.4265	364.6646	-40.53582	1	366.9106	-6.342914	1.33887E-005	-0.0020065	8
	28	88	477.4305	369.1243	-49.12595	1	372.379	-7.580823	1.109955E-006	8.729907E-005	9
	29	91	376.6741	370.7632	-58.94669	1	375.4198	-9.033701	-3.693766E-008	0.0006553	8
	30	93	298.2954	374.3399	-71.07916	1	381.0284	-10.75126	-2.860407E-008	0.000656	8
	31	95	237.7717	378.3319	-85.44855	1	387.8614	-12.72706	-5.73589E-008	0.0006605	8
	32	98	189.0121	382.9479	-103.2067	1	396.6115	-15.08319	-5.52797E-008	0.0006687	8
	33	100	150.2404	388.2771	-124.9134	1	407.8756	-17.83361	-5.304725E-008	0.0006657	8
	34	103	119.1737	394.5093	-151.7421	1	422.6857	-21.03849	-4.365973E-008	0.0006582	8
	35	105	95.0169	401.5938	-183.8939	1	441.6951	-24.60353	-3.730478E-008	0.000661	8
	36	107	75.60484	409.9869	-223.5908	1	466.9926	-28.60633	-4.812854E-008	0.0006622	8
	37	110	54.50582	424.6055	-296.5107	1	517.8884	-34.92739	-2.856302E-008	0.0006525	8
	38	112	45.95588	433.9925	-343.9829	1	553.7813	-38.40039	-4.844803E-008	0.0006667	8
	39	115	37.20238	447.4727	-413.6729	1	609.3907	-42.7523	-2.133691E-008	0.000666	8
	40	117	30.04808	463.8155	-498.8587	1	681.1643	-47.08475	-1.918171E-008	0.0006545	8
	41	120	23.91582	484.9106	-609.5875	1	778.9321	-51.49869	-3.922938E-008	0.0006585	8
	42	122	18.60119	513.5226	-760.6516	1	917.767	-55.97636	2.28597E-008	0.0006563	8
	43	124	15.02404	543.649	-918.0048	1	1066.905	-59.36568	-9.012501E-008	0.0006711	8
	44	126	12.01923	581.5638	-1117.508	1	1259.778	-62.50702	-3.045532E-008	0.0006782	8
	45	129	9.450605	632.0786	-1381.035	1	1518.809	-65.40715	-3.763266E-008	0.0006534	8
	46	131	7.512019	690.8777	-1691.181	1	1826.857	-67.77911	-4.419163E-008	0.0006703	8
	47	134	5.978954	761.9431	-2066.644	1	2202.629	-69.76176	-1.393405E-008	0.0006759	8
	48	137	4.734848	851.7874	-2538.333	1	2677.438	-71.44981	-4.163588E-008	0.0007077	8
	49	140	3.75601	959.254	-3113.665	1	3258.079	-72.87705	-1.615931E-008	0.0006494	8
	50	144	3.004808	1082.865	-3788.551	1	3940.268	-74.0487	-4.16229E-008	0.0006812	8
	51	148	2.372217	1254.544	-4674.392	1	4839.816	-74.97662	-4.244353E-008	0.0006938	7
	52	152	1.878005	1448.204	-5759.681	1	5938.958	-75.88622	-6.169534E-008	0.0006376	7
	53	156	1.512097	1659.303	-6970.654	1	7165.424	-76.61043	-4.610509E-008	0.0005836	7
	54	162	1.201923	1959.95	-8564.927	1	8786.317	-77.11068	-5.97261E-008	0.0006331	7
	55	168	0.956633	2313.634	-10486.01	1	10738.22	-77.55762	-5.932365E-008	-2.18682E-006	7
