EXPLAIN
TAG	EISPOT
TITLE	LABEL	Potentiostatic EIS	Test Identifier
DATE	LABEL	2/25/2021	Date
TIME	LABEL	23:23:58	Time
NOTES	NOTES	1	Notes...
	
PSTAT	PSTAT	REF3000-16137	Potentiostat
VDC	POTEN	0.00000E+000	T	DC Voltage (V)
FREQINIT	QUANT	3.00000E+005	Initial Freq. (Hz)
FREQFINAL	QUANT	1.00000E+000	Final Freq. (Hz)
PTSPERDEC	QUANT	1.00000E+001	Points/decade
VAC	QUANT	5.00000E+001	AC Voltage (mV rms)
AREA	QUANT	1.00000E+000	Sample Area (cm^2)
SPEED	SELECTOR	2	Optimize for:
ZGUESS	QUANT	1.00000E+003	Estimated Z (ohms)
EOC	QUANT	0	Open Circuit (V)
SEQUENCER	TOGGLE	TRUE	Run as Sequence
PSTATMODEL	IQUANT	5	Pstat Model
PSTATSECTION	LABEL	REF3000-16137	Pstat Section
PSTATSERIALNO	LABEL	16137	Pstat Serial Number
CTRLMODE	IQUANT	1	Control Mode
IESTAB	IQUANT	0	I/E Stability
CASPEED	IQUANT	1	Control Amp Speed
CONVENTION	IQUANT	1	Current Convention
ICHRANGE	IQUANT	2	Ich Range
ICHRANGEMODE	TOGGLE	F	Ich Auto Range
ICHOFFSETENABLE	TOGGLE	T	Ich Offset Enable
ICHOFFSET	QUANT	0	Ich Offset (V)
ICHFILTER	IQUANT	3	Ich Filter
VCHRANGE	IQUANT	2	Vch Range
VCHRANGEMODE	TOGGLE	F	Vch Auto Range
VCHOFFSETENABLE	TOGGLE	T	Vch Offset Enable
VCHOFFSET	QUANT	0	Vch Offset (V)
VCHFILTER	IQUANT	3	Vch Filter
ACHRANGE	IQUANT	2	Ach Range
ACHOFFSETENABLE	TOGGLE	F	Ach Offset Enable
ACHOFFSET	QUANT	0	Ach Offset (V)
ACHFILTER	IQUANT	3	Ach Filter
IERANGELOWERLIMIT	IQUANT	2	I/E Range Lower Limit
IERANGEMODE	TOGGLE	F	I/E AutoRange
IERANGE	IQUANT	11	I/E Range
POSFEEDENABLE	TOGGLE	F	Positive Feedback IR Comp
POSFEEDRESISTANCE	QUANT	0	Positive Feedback Resistance (ohm)
ACHSELECT	IQUANT	0	Ach Select
CABLEID	IQUANT	13	Cable ID
DCCALDATE	LABEL	7/31/2020	DC Calibration Date
ACCALDATE	LABEL	7/31/2020	AC Calibration Date
THERMOSELECT	IQUANT	1	Thermo Select
FRAMEWORKVERSION	QUANT	6.33	Framework Version
INSTRUMENTVERSION	LABEL	3.50	Instrument Version
COMPLIANCEVOLTAGE	IQUANT	0	Compliance Voltage
ZCURVE	TABLE
	Pt	Time	Freq	Zreal	Zimag	Zsig	Zmod	Zphz	Idc	Vdc	IERange
	#	s	Hz	ohm	ohm	V	ohm	°	A	V	#
	0	17	300046.9	371.7084	-49.20483	1	374.951	-7.540676	1.066232E-005	-0.0020479	9
	1	22	238359.4	377.4521	-41.52994	1	379.7299	-6.278831	-8.845308E-005	0.0020941	9
	2	26	189328.1	380.2609	-37.07801	1	382.0643	-5.569121	1.573454E-005	-0.0008796	9
	3	35	150421.9	383.6836	-30.93612	1	384.9287	-4.609743	-7.963661E-005	0.0036068	9
	4	41	119484.4	388.2478	-27.00914	1	389.1862	-3.979469	2.258173E-005	-0.0003661	9
	5	46	94921.88	390.5391	-22.57066	1	391.1908	-3.307649	8.43945E-006	-0.0006635	9
	6	48	75421.88	392.6537	-10.00518	1	392.7811	-1.459634	-3.297149E-006	-0.0015055	8
	7	51	59859.37	393.5027	-10.37374	1	393.6394	-1.510113	-1.311813E-005	0.0055394	8
	8	53	47578.12	395.0565	-9.71184	1	395.1758	-1.408242	-1.291083E-005	0.0055291	8
	9	56	37828.12	396.0002	-9.073581	1	396.1042	-1.312593	1.462511E-005	-0.0031926	8
	10	58	30046.88	397.4218	-8.826303	1	397.5198	-1.272267	1.456106E-005	-0.0032463	8
	11	61	23859.38	398.5773	-8.586786	1	398.6698	-1.234166	2.110483E-006	-0.0031569	8
	12	63	18984.38	399.9062	-8.806292	1	400.0031	-1.2615	-1.261965E-005	0.0029004	8
	13	65	15046.87	400.7949	-7.799382	1	400.8708	-1.114823	1.17416E-006	0.0036902	8
	14	68	11953.13	403.7506	-8.321036	1	403.8364	-1.180661	-2.51763E-006	-0.002202	8
	15	70	9515.62	403.0342	-8.352959	1	403.1208	-1.187296	1.171687E-005	-0.0012415	8
	16	72	7546.875	404.9041	-8.588478	1	404.9951	-1.215127	1.240772E-006	0.0036433	8
	17	75	5928.309	405.9517	-10.23671	1	406.0807	-1.444497	-1.352083E-005	0.0039158	8
	18	77	4733.456	406.8268	-11.80793	1	406.9981	-1.662512	6.981506E-006	-0.0042736	8
	19	79	3796.875	408.6595	-13.09632	1	408.8693	-1.835531	1.462916E-005	-0.0040951	8
	20	81	2987.132	410.2088	-14.68398	1	410.4716	-2.050104	1.440641E-005	-0.0040002	8
	21	84	2390.625	411.3873	-16.66026	1	411.7245	-2.319083	1.464614E-005	-0.0041374	8
	22	86	1884.191	414.5593	-16.33475	1	414.881	-2.25644	2.038902E-006	-0.003159	8
	23	88	1516.544	415.0443	-22.14435	1	415.6347	-3.054074	6.512177E-006	0.0016916	8
	24	91	1193.986	417.4839	-26.56346	1	418.3282	-3.640679	1.314754E-005	-0.0046013	8
	25	93	946.5144	418.5064	-29.63608	1	419.5544	-4.050577	1.061562E-005	-0.0047342	8
	26	95	751.7689	423.5062	-35.96258	1	425.0304	-4.853702	-1.085678E-005	0.0017342	8
	27	98	597.4265	424.4424	-43.18535	1	426.6337	-5.809629	1.330523E-005	-0.0046521	8
	28	100	477.4305	427.5693	-50.48882	1	430.5399	-6.734493	-6.147542E-008	0.0006539	8
	29	102	376.6741	431.2097	-60.55355	1	435.4406	-7.993612	-8.999767E-008	0.0006581	8
	30	105	298.2954	435.206	-72.64724	1	441.2277	-9.476785	-5.945294E-008	0.0006524	8
	31	107	237.7717	439.7199	-86.92039	1	448.2285	-11.18163	-5.748097E-008	0.0006575	8
	32	110	189.0121	444.8937	-104.4716	1	456.9954	-13.21498	-8.822597E-008	0.0006799	8
	33	112	150.2404	450.8091	-125.8495	1	468.0459	-15.5978	-9.189764E-008	0.0006706	8
	34	114	119.1737	457.6818	-152.1825	1	482.3195	-18.39234	-8.181111E-008	0.0006611	8
	35	117	95.0169	465.4387	-183.5935	1	500.3396	-21.52689	-7.216234E-008	0.0006549	8
	36	119	75.60484	474.5342	-222.277	1	524.0131	-25.09891	-1.11076E-007	0.0006762	8
	37	122	54.50582	490.1282	-293.1304	1	571.0964	-30.88233	-6.12653E-008	0.0006539	8
	38	124	45.95588	500.0623	-339.0334	1	604.1572	-34.13657	-9.863943E-008	0.0006658	8
	39	127	37.20238	514.1361	-406.3896	1	655.3537	-38.32397	-5.230091E-008	0.0006532	8
	40	129	30.04808	531.0031	-488.5367	1	721.5486	-42.61486	-4.989553E-008	0.0006583	8
	41	131	23.91582	552.5416	-595.2299	1	812.1581	-47.12998	-9.955288E-008	0.0006691	8
	42	134	18.60119	581.4829	-740.6294	1	941.6232	-51.86383	-1.474782E-007	0.0006814	8
	43	136	15.02404	611.8215	-892.0256	1	1081.682	-55.5546	-4.370911E-008	0.0006613	8
	44	138	12.01923	649.7848	-1083.374	1	1263.297	-59.04557	-1.105268E-007	0.0006649	8
	45	141	9.450605	700.4368	-1336.262	1	1508.711	-62.33754	-8.88881E-008	0.0006513	8
	46	143	7.512019	759.118	-1633.151	1	1800.956	-65.07014	-6.435253E-008	0.0006378	8
	47	146	5.978954	830.663	-1991.558	1	2157.848	-67.35938	-3.28359E-008	0.000642	8
	48	149	4.734848	921.0638	-2441.491	1	2609.452	-69.33079	-5.60834E-008	0.0006731	8
	49	152	3.75601	1028.821	-2988.015	1	3160.175	-71.00061	-7.370178E-008	0.000643	8
	50	156	3.004808	1154.83	-3627.255	1	3806.653	-72.33979	-7.749013E-008	0.0006941	8
	51	159	2.372217	1326.878	-4467.857	1	4660.724	-73.45947	-7.352445E-008	0.0007058	7
	52	163	1.878005	1518.923	-5483.325	1	5689.813	-74.51686	-8.853302E-008	0.0006199	7
	53	168	1.512097	1739.906	-6609.837	1	6835	-75.25259	-7.197941E-008	0.0006485	7
	54	174	1.201923	2032.483	-8104.271	1	8355.25	-75.92108	-8.424399E-008	0.00061	7
	55	180	0.956633	2392.081	-9897.21	1	10182.19	-76.41262	-8.745049E-008	-5.208047E-006	7
