EXPLAIN
TAG	EISPOT
TITLE	LABEL	Potentiostatic EIS	Test Identifier
DATE	LABEL	2/26/2021	Date
TIME	LABEL	22:50:07	Time
NOTES	NOTES	1	Notes...
	
PSTAT	PSTAT	REF3000-16137	Potentiostat
VDC	POTEN	0.00000E+000	T	DC Voltage (V)
FREQINIT	QUANT	3.00000E+005	Initial Freq. (Hz)
FREQFINAL	QUANT	1.00000E+000	Final Freq. (Hz)
PTSPERDEC	QUANT	1.00000E+001	Points/decade
VAC	QUANT	5.00000E+001	AC Voltage (mV rms)
AREA	QUANT	1.00000E+000	Sample Area (cm^2)
SPEED	SELECTOR	2	Optimize for:
ZGUESS	QUANT	1.00000E+003	Estimated Z (ohms)
EOC	QUANT	0	Open Circuit (V)
SEQUENCER	TOGGLE	TRUE	Run as Sequence
PSTATMODEL	IQUANT	5	Pstat Model
PSTATSECTION	LABEL	REF3000-16137	Pstat Section
PSTATSERIALNO	LABEL	16137	Pstat Serial Number
CTRLMODE	IQUANT	1	Control Mode
IESTAB	IQUANT	0	I/E Stability
CASPEED	IQUANT	1	Control Amp Speed
CONVENTION	IQUANT	1	Current Convention
ICHRANGE	IQUANT	2	Ich Range
ICHRANGEMODE	TOGGLE	F	Ich Auto Range
ICHOFFSETENABLE	TOGGLE	T	Ich Offset Enable
ICHOFFSET	QUANT	0	Ich Offset (V)
ICHFILTER	IQUANT	3	Ich Filter
VCHRANGE	IQUANT	2	Vch Range
VCHRANGEMODE	TOGGLE	F	Vch Auto Range
VCHOFFSETENABLE	TOGGLE	T	Vch Offset Enable
VCHOFFSET	QUANT	0	Vch Offset (V)
VCHFILTER	IQUANT	3	Vch Filter
ACHRANGE	IQUANT	2	Ach Range
ACHOFFSETENABLE	TOGGLE	F	Ach Offset Enable
ACHOFFSET	QUANT	0	Ach Offset (V)
ACHFILTER	IQUANT	3	Ach Filter
IERANGELOWERLIMIT	IQUANT	2	I/E Range Lower Limit
IERANGEMODE	TOGGLE	F	I/E AutoRange
IERANGE	IQUANT	11	I/E Range
POSFEEDENABLE	TOGGLE	F	Positive Feedback IR Comp
POSFEEDRESISTANCE	QUANT	0	Positive Feedback Resistance (ohm)
ACHSELECT	IQUANT	0	Ach Select
CABLEID	IQUANT	13	Cable ID
DCCALDATE	LABEL	7/31/2020	DC Calibration Date
ACCALDATE	LABEL	7/31/2020	AC Calibration Date
THERMOSELECT	IQUANT	1	Thermo Select
FRAMEWORKVERSION	QUANT	6.33	Framework Version
INSTRUMENTVERSION	LABEL	3.50	Instrument Version
COMPLIANCEVOLTAGE	IQUANT	0	Compliance Voltage
ZCURVE	TABLE
	Pt	Time	Freq	Zreal	Zimag	Zsig	Zmod	Zphz	Idc	Vdc	IERange
	#	s	Hz	ohm	ohm	V	ohm	°	A	V	#
	0	7	300046.9	49.19571	-11.20723	1	50.45612	-12.83349	5.80606E-005	-0.0023774	9
	1	10	238359.4	50.61487	-14.31735	1	52.60087	-15.79453	1.325926E-005	-3.216148E-005	9
	2	13	189328.1	52.40494	-17.58029	1	55.27517	-18.54506	4.199675E-006	-0.0010551	9
	3	16	150421.9	54.54728	-21.34417	1	58.57457	-21.37024	-5.877727E-005	0.0018334	9
	4	18	119484.4	56.88538	-25.33491	1	62.27201	-24.00665	4.482224E-006	-0.0005243	9
	5	21	94921.88	59.98542	-29.69751	1	66.93424	-26.33904	2.032612E-005	-0.0004767	9
	6	23	75421.88	63.15319	-34.5934	1	72.00714	-28.71259	-1.638347E-005	0.0006189	9
	7	26	59859.37	66.76794	-40.13756	1	77.90366	-31.01219	-1.631164E-005	0.0006356	9
	8	28	47578.12	70.5784	-46.36133	1	84.44337	-33.3	2.1479E-005	-0.0004099	9
	9	31	37828.12	74.45881	-53.45142	1	91.65789	-35.67327	-1.32813E-005	0.000238	9
	10	33	30046.88	78.44308	-61.76279	1	99.8397	-38.21541	1.637795E-006	-0.0002554	9
	11	36	23859.38	82.01707	-72.10036	1	109.2029	-41.31837	1.477302E-005	-3.525315E-006	9
	12	38	18984.38	85.41277	-84.68574	1	120.2789	-44.75511	-1.678239E-005	0.0005529	9
	13	40	15046.87	88.6551	-101.1107	1	134.4734	-48.75533	-3.260906E-006	-0.0001287	9
	14	43	11953.13	91.89821	-122.1239	1	152.8383	-53.03855	-1.299012E-005	0.0003354	9
	15	45	9515.62	94.46271	-148.5738	1	176.0607	-57.55194	-2.212319E-006	0.0004583	9
	16	47	7546.875	98.2807	-181.3433	1	206.2632	-61.54412	-1.24832E-005	0.0007247	9
	17	50	5928.309	101.9919	-226.0322	1	247.9776	-65.71381	-1.002981E-005	0.0001269	9
	18	52	4733.456	106.1351	-278.0669	1	297.6338	-69.10869	-1.541836E-005	0.0006767	9
	19	54	3796.875	110.2039	-342.9102	1	360.1837	-72.18372	-1.693091E-005	0.0005827	9
	20	56	2987.132	117.6326	-428.6584	1	444.5059	-74.65462	1.380106E-005	-0.0005154	9
	21	59	2390.625	123.9241	-527.311	1	541.6771	-76.77483	-6.118172E-007	0.0003556	8
	22	61	1884.191	134.0887	-661.5937	1	675.0452	-78.54276	4.741074E-006	-0.0003956	8
	23	63	1516.544	145.309	-812.6841	1	825.5726	-79.86256	-3.057213E-006	0.0012623	8
	24	66	1193.986	160.8451	-1021.312	1	1033.9	-81.05008	-2.959813E-006	0.0012397	8
	25	68	946.5144	176.256	-1277.369	1	1289.472	-82.14373	1.233279E-006	0.0010221	8
	26	70	751.7689	203.622	-1595.45	1	1608.391	-82.72684	3.307221E-008	0.0014374	8
	27	73	597.4265	231.4342	-1983.418	1	1996.875	-83.34457	2.594735E-006	0.0005745	8
	28	75	477.4305	269.6001	-2454.791	1	2469.551	-83.73254	4.500131E-007	0.0006624	8
	29	78	376.6741	320.0099	-3079.643	1	3096.225	-84.0676	4.581245E-007	0.0006537	8
	30	80	298.2954	384.3396	-3849.223	1	3868.363	-84.298	4.568502E-007	0.0006569	8
	31	82	237.7717	468.4966	-4789.507	1	4812.366	-84.41325	4.503929E-008	0.0006274	7
	32	85	189.0121	573.9657	-5962.336	1	5989.899	-84.50135	4.459321E-008	0.0006263	7
	33	87	150.2404	711.9484	-7419.789	1	7453.867	-84.5191	4.528206E-008	0.0006221	7
	34	89	119.1737	894.3587	-9247.676	1	9290.822	-84.47601	4.36177E-008	0.0006292	7
	35	92	95.0169	1128.438	-11468.38	1	11523.76	-84.38044	4.578991E-008	0.0006273	7
	36	94	75.60484	1439.532	-14240.47	1	14313.05	-84.22773	4.620133E-008	0.0006267	7
	37	97	54.50582	2063.804	-19374.57	1	19484.18	-83.91971	4.667261E-008	0.0006237	7
	38	99	45.95588	2504.832	-22760.88	1	22898.3	-83.71988	4.553332E-008	0.0006339	7
	39	102	37.20238	3174.942	-27706.41	1	27887.73	-83.46286	4.332287E-008	0.0006289	7
	40	104	30.04808	4063.194	-33798.68	1	34042.04	-83.14494	4.515477E-008	0.0006336	7
	41	106	23.91582	5364.625	-41860.36	1	42202.71	-82.69705	4.717285E-008	0.0006247	7
	42	109	18.60119	7219.399	-52692.45	1	53184.71	-82.19847	4.099265E-009	0.0006744	6
	43	111	15.02404	9190.375	-64092.3	1	64747.86	-81.83982	3.288788E-009	0.0006658	6
	44	114	12.01923	11908.33	-78517.23	1	79415.14	-81.37595	3.566322E-009	0.000674	6
	45	116	9.450605	15822.62	-97480.9	1	98756.7	-80.78044	3.497798E-009	0.0006541	6
	46	119	7.512019	20536.16	-119828.4	1	121575.4	-80.27514	3.489057E-009	0.0006672	6
	47	122	5.978954	26572.5	-146811.3	1	149196.7	-79.74067	3.779688E-009	0.0006742	6
	48	126	4.734848	34518.03	-180685.2	1	183952.8	-79.18456	3.907378E-009	0.0006094	6
	49	129	3.75601	44954.24	-221505.5	1	226021.2	-78.52772	3.920716E-009	0.0006944	6
	50	135	3.004808	57840.64	-269219.8	1	275363.1	-77.87458	3.510063E-009	0.0007008	6
	51	141	2.372217	75780.49	-330528.1	1	339104	-77.08691	3.484683E-009	0.0006994	6
	52	145	1.878005	99891.2	-404413.2	1	416567.3	-76.1255	3.593698E-009	0.000651	6
	53	150	1.512097	128835.4	-486334.1	1	503109.7	-75.16252	-8.580471E-010	0.00076	5
	54	155	1.201923	168428.6	-590496	1	614047	-74.08013	-7.745663E-010	0.000635	5
	55	162	0.956633	220039.4	-713418.5	1	746581.1	-72.85869	-1.133884E-009	1.196615E-005	5
