EXPLAIN
TAG	EISPOT
TITLE	LABEL	Potentiostatic EIS	Test Identifier
DATE	LABEL	2/27/2021	Date
TIME	LABEL	0:11:12	Time
NOTES	NOTES	1	Notes...
	
PSTAT	PSTAT	REF3000-16137	Potentiostat
VDC	POTEN	0.00000E+000	T	DC Voltage (V)
FREQINIT	QUANT	3.00000E+005	Initial Freq. (Hz)
FREQFINAL	QUANT	1.00000E+000	Final Freq. (Hz)
PTSPERDEC	QUANT	1.00000E+001	Points/decade
VAC	QUANT	5.00000E+001	AC Voltage (mV rms)
AREA	QUANT	1.00000E+000	Sample Area (cm^2)
SPEED	SELECTOR	2	Optimize for:
ZGUESS	QUANT	1.00000E+003	Estimated Z (ohms)
EOC	QUANT	0	Open Circuit (V)
SEQUENCER	TOGGLE	TRUE	Run as Sequence
PSTATMODEL	IQUANT	5	Pstat Model
PSTATSECTION	LABEL	REF3000-16137	Pstat Section
PSTATSERIALNO	LABEL	16137	Pstat Serial Number
CTRLMODE	IQUANT	1	Control Mode
IESTAB	IQUANT	0	I/E Stability
CASPEED	IQUANT	1	Control Amp Speed
CONVENTION	IQUANT	1	Current Convention
ICHRANGE	IQUANT	2	Ich Range
ICHRANGEMODE	TOGGLE	F	Ich Auto Range
ICHOFFSETENABLE	TOGGLE	T	Ich Offset Enable
ICHOFFSET	QUANT	0	Ich Offset (V)
ICHFILTER	IQUANT	3	Ich Filter
VCHRANGE	IQUANT	2	Vch Range
VCHRANGEMODE	TOGGLE	F	Vch Auto Range
VCHOFFSETENABLE	TOGGLE	T	Vch Offset Enable
VCHOFFSET	QUANT	0	Vch Offset (V)
VCHFILTER	IQUANT	3	Vch Filter
ACHRANGE	IQUANT	2	Ach Range
ACHOFFSETENABLE	TOGGLE	F	Ach Offset Enable
ACHOFFSET	QUANT	0	Ach Offset (V)
ACHFILTER	IQUANT	3	Ach Filter
IERANGELOWERLIMIT	IQUANT	2	I/E Range Lower Limit
IERANGEMODE	TOGGLE	F	I/E AutoRange
IERANGE	IQUANT	11	I/E Range
POSFEEDENABLE	TOGGLE	F	Positive Feedback IR Comp
POSFEEDRESISTANCE	QUANT	0	Positive Feedback Resistance (ohm)
ACHSELECT	IQUANT	0	Ach Select
CABLEID	IQUANT	13	Cable ID
DCCALDATE	LABEL	7/31/2020	DC Calibration Date
ACCALDATE	LABEL	7/31/2020	AC Calibration Date
THERMOSELECT	IQUANT	1	Thermo Select
FRAMEWORKVERSION	QUANT	6.33	Framework Version
INSTRUMENTVERSION	LABEL	3.50	Instrument Version
COMPLIANCEVOLTAGE	IQUANT	0	Compliance Voltage
ZCURVE	TABLE
	Pt	Time	Freq	Zreal	Zimag	Zsig	Zmod	Zphz	Idc	Vdc	IERange
	#	s	Hz	ohm	ohm	V	ohm	°	A	V	#
	0	21	300046.9	-95.7731	-4850.966	1	4851.912	-91.13105	-1.383755E-005	0.0016448	9
	1	45	238359.4	48.21158	-5998.7	1	5998.894	-89.53952	2.492205E-005	0.0009939	9
	2	60	189328.1	1257.542	-8091.95	1	8189.082	-81.16652	2.6624E-005	-0.0019025	9
	3	68	150421.9	198.0766	-8903.475	1	8905.678	-88.72555	6.022871E-007	-0.0018423	9
	4	75	119484.4	714.2158	-11641.38	1	11663.27	-86.48922	4.237693E-005	-0.0187054	8
	5	84	94921.88	553.2852	-14722.46	1	14732.86	-87.84778	-2.459536E-005	0.0109951	8
	6	92	75421.88	524.2471	-18233.59	1	18241.12	-88.3531	8.146223E-006	0.0042083	8
	7	100	59859.37	722.4673	-23099.88	1	23111.18	-88.20861	-9.336288E-006	-0.0021131	8
	8	107	47578.12	3824.098	-30128.76	1	30370.48	-82.7664	4.365408E-007	0.0164701	7
	9	114	37828.12	4900.771	-37824.67	1	38140.84	-82.61757	-7.265083E-006	0.023599	7
	10	121	30046.88	1310.088	-44721.63	1	44740.82	-88.32204	-1.5828E-005	0.0006448	8
	11	130	23859.38	4422.541	-59016.53	1	59182.01	-85.71442	5.393216E-006	-0.0270357	7
	12	135	18984.38	3645.134	-72207.9	1	72299.84	-87.1101	7.531047E-006	-0.0184153	7
	13	140	15046.87	3400.975	-90544.64	1	90608.49	-87.84891	-9.325432E-006	-0.0021087	8
	14	148	11953.13	4328.824	-114158	1	114240	-87.82841	-5.278751E-006	0.0037032	7
	15	154	9515.62	9063.007	-140197.5	1	140490.1	-86.30128	5.668909E-007	0.0162201	7
	16	160	7546.875	1204.923	-174129	1	174133.2	-89.60354	3.484044E-006	-0.0245869	7
	17	166	5928.309	18934.73	-217402.3	1	218225.3	-85.02236	-1.025219E-006	-0.0133114	7
	18	173	4733.456	40538.12	-301882	1	304591.7	-82.35181	7.262957E-007	-0.0270233	6
	19	177	3796.875	39503.23	-370428.1	1	372528.5	-83.91286	7.397502E-007	-0.0158704	6
	20	182	2987.132	-36212.31	-463935.9	1	465347	-94.46315	-6.697099E-006	0.0119887	7
	21	189	2390.625	3184.88	-603286.8	1	603295.2	-89.69753	-3.802151E-006	0.0255121	7
	22	195	1884.191	66622.8	-855640	1	858229.8	-85.54775	2.796875E-006	0.008505	7
	23	202	1516.544	-422256.8	-1147379	1	1222612	-110.2046	-2.456065E-005	0.0109363	8
	24	210	1193.986	470228.4	-410501	1	624200.2	-41.12038	2.600226E-005	-0.0050513	8
	25	219	946.5144	-277560.2	-597747.5	1	659046.1	-114.9075	1.404914E-006	-0.020512	7
	26	225	751.7689	302259.6	-1825566	1	1850419	-80.5988	7.233335E-007	-0.0159948	6
	27	229	597.4265	309192.3	-2446500	1	2465961	-82.79707	4.291871E-007	0.0024045	6
	28	232	477.4305	81768.97	-2831901	1	2833082	-88.34608	-6.736735E-009	0.000683	6
	29	237	376.6741	475997.5	-3684336	1	3714957	-82.63845	-7.896733E-010	0.000618	5
	30	241	298.2954	491343.2	-4542321	1	4568818	-83.82632	-7.203442E-010	0.0006068	5
	31	245	237.7717	574561.1	-5691702	1	5720628	-84.23568	-6.617564E-010	0.0006026	5
	32	249	189.0121	562235.6	-7116949	1	7139122	-85.48304	-7.829505E-010	0.0007045	5
	33	253	150.2404	521244.9	-8853078	1	8868409	-86.63047	-6.981916E-010	0.0006087	5
	34	258	119.1737	-76687.05	-1.291929E+007	1	1.291951E+007	-90.3401	-7.603334E-010	0.0006857	5
	35	260	95.0169	1195484	-1.408595E+007	1	1.413659E+007	-85.1489	-6.392589E-010	0.0006401	5
	36	263	75.60484	1147443	-1.979147E+007	1	1.98247E+007	-86.6819	-6.946043E-010	0.0006618	5
	37	266	54.50582	1304350	-2.557197E+007	1	2.560521E+007	-87.08004	-7.805512E-010	0.0006546	5
	38	269	45.95588	-1542685	-2.6451E+007	1	2.649595E+007	-93.33784	-6.168313E-010	0.0006104	5
	39	273	37.20238	5238567	-3.379558E+007	1	3.419918E+007	-81.18885	-7.714501E-010	0.0006908	5
	40	277	30.04808	3337863	-4.283752E+007	1	4.296737E+007	-85.54456	-7.764278E-010	0.000686	5
	41	281	23.91582	6002013	-5.130859E+007	1	5.165845E+007	-83.32793	-7.793106E-011	0.0006678	4
	42	285	18.60119	-3.567695E+007	-5.028916E+007	1	6.16591E+007	-125.3533	2.653051E-010	0.0006023	4
	43	288	15.02404	8021841	-9.277424E+007	1	9.31204E+007	-85.05814	-4.328859E-011	0.0006027	4
	44	292	12.01923	2.038793E+007	-1.182439E+008	1	1.199887E+008	-80.2171	-4.666818E-011	0.000677	4
	45	295	9.450605	2.291508E+007	-1.425107E+008	1	1.443413E+008	-80.86529	-5.303553E-011	0.0006065	4
	46	299	7.512019	2.116513E+007	-1.544291E+008	1	1.558727E+008	-82.19601	-9.605919E-011	0.0007025	4
	47	304	5.978954	2.467475E+007	-2.147141E+008	1	2.161273E+008	-83.44438	-7.263894E-011	0.0007052	4
	48	309	4.734848	7.903378E+007	-2.793572E+008	1	2.903219E+008	-74.2031	-5.508763E-012	0.0007441	3
	49	314	3.75601	6.720631E+007	-3.022234E+008	1	3.096057E+008	-77.46296	-7.695276E-010	0.0006848	5
	50	322	3.004808	1.446782E+007	-4.034196E+008	1	4.036789E+008	-87.94608	-8.198918E-010	0.000716	5
	51	331	2.372217	1.490032E+008	-5.200695E+008	1	5.409938E+008	-74.01265	-5.908926E-012	0.0006983	3
	52	338	1.878005	1.968602E+008	-6.442194E+008	1	6.736264E+008	-73.00793	-5.891078E-012	0.0007278	3
	53	347	1.512097	2.542008E+008	-7.844144E+008	1	8.24575E+008	-72.04433	-5.808223E-012	0.0005964	3
	54	354	1.201923	3.331843E+008	-9.641837E+008	1	1.020128E+009	-70.93685	-5.746703E-012	0.0007443	3
	55	367	0.956633	4.542194E+008	-1.181634E+009	1	1.265928E+009	-68.97327	-5.909839E-012	8.619015E-005	3
