EXPLAIN
TAG	EISPOT
TITLE	LABEL	Potentiostatic EIS	Test Identifier
DATE	LABEL	2/26/2021	Date
TIME	LABEL	22:18:38	Time
NOTES	NOTES	1	Notes...
	
PSTAT	PSTAT	REF3000-16137	Potentiostat
VDC	POTEN	0.00000E+000	T	DC Voltage (V)
FREQINIT	QUANT	3.00000E+005	Initial Freq. (Hz)
FREQFINAL	QUANT	1.00000E+000	Final Freq. (Hz)
PTSPERDEC	QUANT	1.00000E+001	Points/decade
VAC	QUANT	5.00000E+001	AC Voltage (mV rms)
AREA	QUANT	1.00000E+000	Sample Area (cm^2)
SPEED	SELECTOR	2	Optimize for:
ZGUESS	QUANT	1.00000E+003	Estimated Z (ohms)
EOC	QUANT	0	Open Circuit (V)
SEQUENCER	TOGGLE	TRUE	Run as Sequence
PSTATMODEL	IQUANT	5	Pstat Model
PSTATSECTION	LABEL	REF3000-16137	Pstat Section
PSTATSERIALNO	LABEL	16137	Pstat Serial Number
CTRLMODE	IQUANT	1	Control Mode
IESTAB	IQUANT	0	I/E Stability
CASPEED	IQUANT	1	Control Amp Speed
CONVENTION	IQUANT	1	Current Convention
ICHRANGE	IQUANT	2	Ich Range
ICHRANGEMODE	TOGGLE	F	Ich Auto Range
ICHOFFSETENABLE	TOGGLE	T	Ich Offset Enable
ICHOFFSET	QUANT	0	Ich Offset (V)
ICHFILTER	IQUANT	3	Ich Filter
VCHRANGE	IQUANT	2	Vch Range
VCHRANGEMODE	TOGGLE	F	Vch Auto Range
VCHOFFSETENABLE	TOGGLE	T	Vch Offset Enable
VCHOFFSET	QUANT	0	Vch Offset (V)
VCHFILTER	IQUANT	3	Vch Filter
ACHRANGE	IQUANT	2	Ach Range
ACHOFFSETENABLE	TOGGLE	F	Ach Offset Enable
ACHOFFSET	QUANT	0	Ach Offset (V)
ACHFILTER	IQUANT	3	Ach Filter
IERANGELOWERLIMIT	IQUANT	2	I/E Range Lower Limit
IERANGEMODE	TOGGLE	F	I/E AutoRange
IERANGE	IQUANT	11	I/E Range
POSFEEDENABLE	TOGGLE	F	Positive Feedback IR Comp
POSFEEDRESISTANCE	QUANT	0	Positive Feedback Resistance (ohm)
ACHSELECT	IQUANT	0	Ach Select
CABLEID	IQUANT	13	Cable ID
DCCALDATE	LABEL	7/31/2020	DC Calibration Date
ACCALDATE	LABEL	7/31/2020	AC Calibration Date
THERMOSELECT	IQUANT	1	Thermo Select
FRAMEWORKVERSION	QUANT	6.33	Framework Version
INSTRUMENTVERSION	LABEL	3.50	Instrument Version
COMPLIANCEVOLTAGE	IQUANT	0	Compliance Voltage
ZCURVE	TABLE
	Pt	Time	Freq	Zreal	Zimag	Zsig	Zmod	Zphz	Idc	Vdc	IERange
	#	s	Hz	ohm	ohm	V	ohm	°	A	V	#
	0	7	300046.9	22.74681	-7.886813	1	24.07528	-19.12254	1.283072E-006	-0.000175	11
	1	11	238359.4	23.94167	-9.53753	1	25.77146	-21.72061	-2.024938E-005	0.0005679	10
	2	14	189328.1	25.18622	-11.64015	1	27.74597	-24.80466	7.188833E-006	0.0007961	10
	3	18	150421.9	26.56796	-13.87674	1	29.97366	-27.57858	6.718588E-005	0.0005136	10
	4	21	119484.4	28.09458	-16.21011	1	32.43568	-29.98424	3.463622E-005	0.0008931	10
	5	23	94921.88	29.6729	-18.81235	1	35.13382	-32.37433	-2.776125E-005	0.000719	10
	6	26	75421.88	31.22873	-21.83805	1	38.10688	-34.96484	-1.918116E-005	0.0007566	10
	7	28	59859.37	32.86965	-25.22506	1	41.43329	-37.50361	-5.815821E-006	0.000483	9
	8	31	47578.12	34.29935	-29.73136	1	45.39162	-40.91939	-2.886004E-007	0.0002703	9
	9	33	37828.12	35.67566	-35.19675	1	50.11551	-44.61284	-3.781197E-006	0.000096	9
	10	36	30046.88	37.03191	-42.20652	1	56.14937	-48.73635	-1.019511E-005	0.0004245	9
	11	38	23859.38	38.45441	-51.0479	1	63.91111	-53.00927	-1.037384E-005	0.0004395	9
	12	41	18984.38	39.97874	-62.1941	1	73.93514	-57.26685	1.437422E-005	-0.0003311	9
	13	43	15046.87	41.60221	-76.39628	1	86.98928	-61.42914	1.502917E-005	-0.0003185	9
	14	45	11953.13	43.95781	-93.86092	1	103.6444	-64.90494	5.564704E-006	-0.0002015	9
	15	48	9515.62	46.52826	-115.5022	1	124.5216	-68.05873	-1.177342E-005	0.0005613	9
	16	50	7546.875	49.77348	-143.0441	1	151.4563	-70.81419	-6.363076E-006	0.0004932	9
	17	52	5928.309	53.67481	-179.1981	1	187.064	-73.32558	-3.599161E-006	0.0003938	9
	18	55	4733.456	58.78344	-220.9228	1	228.6097	-75.0999	1.463186E-005	-0.0001655	9
	19	57	3796.875	64.1921	-271.4814	1	278.9673	-76.69668	-6.423229E-006	0.0003874	9
	20	59	2987.132	74.64775	-338.8348	1	346.9601	-77.57579	1.513009E-005	-0.0003402	9
	21	62	2390.625	87.33712	-415.8059	1	424.8792	-78.13786	-2.96957E-006	0.0004357	9
	22	64	1884.191	101.434	-516.5967	1	526.4608	-78.89127	2.282287E-006	0.0001029	8
	23	66	1516.544	120.2311	-631.0507	1	642.4021	-79.21299	9.592912E-007	0.0004051	8
	24	69	1193.986	146.3152	-785.6693	1	799.1772	-79.45065	2.979141E-006	0.0001084	8
	25	71	946.5144	184.6589	-968.536	1	985.982	-79.20566	-1.395073E-006	0.0010269	8
	26	73	751.7689	226.0793	-1194.544	1	1215.75	-79.28297	2.669079E-007	0.0005874	8
	27	76	597.4265	281.2058	-1468.479	1	1495.161	-79.1594	2.969827E-006	1.591732E-005	8
	28	78	477.4305	349.9828	-1791.45	1	1825.317	-78.94576	5.75342E-007	0.0006722	8
	29	80	376.6741	444.4367	-2208.304	1	2252.583	-78.62083	5.744387E-007	0.000664	8
	30	83	298.2954	562.4557	-2709.031	1	2766.804	-78.27075	5.913212E-007	0.000657	8
	31	85	237.7717	706.8638	-3299.419	1	3374.289	-77.90781	5.920197E-007	0.0006683	8
	32	87	189.0121	890.141	-4021.892	1	4119.219	-77.52025	5.907876E-007	0.0006673	8
	33	90	150.2404	1121.903	-4905.428	1	5032.086	-77.11765	4.855317E-008	0.0006431	7
	34	92	119.1737	1407.316	-5976.102	1	6139.571	-76.74881	4.995087E-008	0.0006472	7
	35	94	95.0169	1753.981	-7239.461	1	7448.91	-76.38078	4.753083E-008	0.0006437	7
	36	97	75.60484	2183.915	-8777.167	1	9044.785	-76.02753	5.187481E-008	0.0006416	7
	37	99	54.50582	2986.509	-11543.92	1	11923.98	-75.49512	5.21074E-008	0.0006419	7
	38	102	45.95588	3489.953	-13310.74	1	13760.65	-75.30827	5.008115E-008	0.0006475	7
	39	104	37.20238	4256.241	-15863.17	1	16424.24	-74.98074	4.804864E-008	0.0006461	7
	40	107	30.04808	5177.396	-18931.76	1	19626.95	-74.70492	4.932798E-008	0.0006368	7
	41	109	23.91582	6434.447	-22919.7	1	23805.77	-74.31851	5.245154E-008	0.0006418	7
	42	112	18.60119	8101.078	-28174.59	1	29316.12	-73.9584	4.759185E-008	0.000634	7
	43	114	15.02404	9825.01	-33566.55	1	34974.9	-73.68511	5.276599E-008	0.0006469	7
	44	116	12.01923	12083.98	-40296.24	1	42069.11	-73.30714	4.981095E-008	0.0006389	7
	45	119	9.450605	15130.26	-49070.82	1	51350.47	-72.86363	-7.012447E-009	0.0007008	6
	46	121	7.512019	18798.47	-59070.68	1	61989.73	-72.34701	-6.499701E-009	0.0006911	6
	47	124	5.978954	23325.82	-70978.51	1	74713.06	-71.80782	-5.865634E-009	0.0006909	6
	48	128	4.734848	29280.06	-85613.66	1	90482.16	-71.1192	-6.233226E-009	0.0006681	6
	49	132	3.75601	36674.74	-102870.1	1	109212.1	-70.37807	-6.097391E-009	0.0006858	6
	50	137	3.004808	45754.64	-122509.5	1	130774.9	-69.52044	-5.586523E-009	0.0006502	6
	51	144	2.372217	58031.16	-147172.3	1	158200.2	-68.48031	-6.502242E-009	0.0006186	6
	52	148	1.878005	73602.47	-175143	1	189980	-67.2058	-6.010863E-009	0.0006938	6
	53	153	1.512097	91925.11	-205120.5	1	224776.9	-65.86038	-6.060001E-009	0.00059	6
	54	158	1.201923	116255.9	-241961.5	1	268441.5	-64.33698	-6.246348E-009	0.0007102	6
	55	164	0.956633	146392.8	-282828.3	1	318469.3	-62.63379	-6.756744E-009	4.030174E-005	6
