EXPLAIN
TAG	EISPOT
TITLE	LABEL	Potentiostatic EIS	Test Identifier
DATE	LABEL	2/26/2021	Date
TIME	LABEL	22:41:35	Time
NOTES	NOTES	1	Notes...
	
PSTAT	PSTAT	REF3000-16137	Potentiostat
VDC	POTEN	0.00000E+000	T	DC Voltage (V)
FREQINIT	QUANT	3.00000E+005	Initial Freq. (Hz)
FREQFINAL	QUANT	1.00000E+000	Final Freq. (Hz)
PTSPERDEC	QUANT	1.00000E+001	Points/decade
VAC	QUANT	5.00000E+001	AC Voltage (mV rms)
AREA	QUANT	1.00000E+000	Sample Area (cm^2)
SPEED	SELECTOR	2	Optimize for:
ZGUESS	QUANT	1.00000E+003	Estimated Z (ohms)
EOC	QUANT	0	Open Circuit (V)
SEQUENCER	TOGGLE	TRUE	Run as Sequence
PSTATMODEL	IQUANT	5	Pstat Model
PSTATSECTION	LABEL	REF3000-16137	Pstat Section
PSTATSERIALNO	LABEL	16137	Pstat Serial Number
CTRLMODE	IQUANT	1	Control Mode
IESTAB	IQUANT	0	I/E Stability
CASPEED	IQUANT	1	Control Amp Speed
CONVENTION	IQUANT	1	Current Convention
ICHRANGE	IQUANT	2	Ich Range
ICHRANGEMODE	TOGGLE	F	Ich Auto Range
ICHOFFSETENABLE	TOGGLE	T	Ich Offset Enable
ICHOFFSET	QUANT	0	Ich Offset (V)
ICHFILTER	IQUANT	3	Ich Filter
VCHRANGE	IQUANT	2	Vch Range
VCHRANGEMODE	TOGGLE	F	Vch Auto Range
VCHOFFSETENABLE	TOGGLE	T	Vch Offset Enable
VCHOFFSET	QUANT	0	Vch Offset (V)
VCHFILTER	IQUANT	3	Vch Filter
ACHRANGE	IQUANT	2	Ach Range
ACHOFFSETENABLE	TOGGLE	F	Ach Offset Enable
ACHOFFSET	QUANT	0	Ach Offset (V)
ACHFILTER	IQUANT	3	Ach Filter
IERANGELOWERLIMIT	IQUANT	2	I/E Range Lower Limit
IERANGEMODE	TOGGLE	F	I/E AutoRange
IERANGE	IQUANT	11	I/E Range
POSFEEDENABLE	TOGGLE	F	Positive Feedback IR Comp
POSFEEDRESISTANCE	QUANT	0	Positive Feedback Resistance (ohm)
ACHSELECT	IQUANT	0	Ach Select
CABLEID	IQUANT	13	Cable ID
DCCALDATE	LABEL	7/31/2020	DC Calibration Date
ACCALDATE	LABEL	7/31/2020	AC Calibration Date
THERMOSELECT	IQUANT	1	Thermo Select
FRAMEWORKVERSION	QUANT	6.33	Framework Version
INSTRUMENTVERSION	LABEL	3.50	Instrument Version
COMPLIANCEVOLTAGE	IQUANT	0	Compliance Voltage
ZCURVE	TABLE
	Pt	Time	Freq	Zreal	Zimag	Zsig	Zmod	Zphz	Idc	Vdc	IERange
	#	s	Hz	ohm	ohm	V	ohm	°	A	V	#
	0	7	300046.9	37.55815	-9.75077	1	38.80325	-14.55371	5.111929E-006	-0.001245	9
	1	10	238359.4	38.8375	-12.40787	1	40.77139	-17.71773	-4.229039E-006	-0.0010677	9
	2	13	189328.1	40.35815	-15.3226	1	43.169	-20.79005	-1.508245E-005	-0.0005267	9
	3	15	150421.9	42.26104	-18.48474	1	46.12679	-23.6243	5.114272E-005	-0.0015072	9
	4	18	119484.4	44.4627	-22.02543	1	49.61906	-26.35238	4.654846E-005	-0.0013265	9
	5	21	94921.88	47.02888	-25.58979	1	53.5402	-28.5519	1.898683E-005	-0.0004454	9
	6	23	75421.88	49.62892	-29.77463	1	57.87537	-30.96144	7.357245E-006	0.0000996	9
	7	26	59859.37	52.41716	-34.34007	1	62.66418	-33.23002	-1.437391E-005	0.0003546	9
	8	28	47578.12	55.16362	-39.77075	1	68.00542	-35.79008	-8.692145E-006	0.000127	9
	9	31	37828.12	57.88554	-46.16592	1	74.04072	-38.5737	-1.273295E-005	0.0002708	9
	10	33	30046.88	60.5083	-54.05115	1	81.13434	-41.77394	-1.313428E-005	0.0005705	9
	11	36	23859.38	62.95296	-63.79754	1	89.62813	-45.38177	1.51157E-007	0.0004364	9
	12	38	18984.38	65.18185	-76.32745	1	100.3721	-49.50345	-1.52722E-005	0.0004826	9
	13	40	15046.87	67.38698	-92.34903	1	114.3213	-53.88181	-1.407315E-005	0.0005294	9
	14	43	11953.13	69.83541	-112.4536	1	132.3737	-58.15908	1.851342E-005	-0.0004379	9
	15	45	9515.62	72.23127	-137.6246	1	155.4281	-62.3076	-4.597049E-006	-2.146232E-005	9
	16	47	7546.875	75.86427	-169.3798	1	185.5934	-65.87266	-9.257294E-006	0.0001695	9
	17	49	5928.309	79.11965	-212.1604	1	226.4332	-69.54832	1.191606E-005	-0.0004346	9
	18	52	4733.456	82.91168	-261.7384	1	274.5566	-72.4232	1.937866E-005	-0.0003038	9
	19	54	3796.875	86.78902	-322.0593	1	333.5484	-74.91812	2.151866E-006	-0.0002095	9
	20	56	2987.132	94.2475	-403.6357	1	414.4929	-76.85712	-1.056904E-005	0.0006118	9
	21	59	2390.625	101.2118	-496.4007	1	506.6138	-78.47585	-9.476327E-008	0.0004577	8
	22	61	1884.191	111.972	-623.0243	1	633.0063	-79.81139	-7.966848E-007	0.0014236	8
	23	63	1516.544	123.7528	-765.6848	1	775.621	-80.81904	-2.655262E-006	0.0014924	8
	24	66	1193.986	139.2343	-961.221	1	971.253	-81.75795	2.23664E-006	0.00054	8
	25	68	946.5144	157.6123	-1199.796	1	1210.104	-82.51614	3.181443E-006	0.0001803	8
	26	70	751.7689	187.3556	-1494.93	1	1506.625	-82.85651	4.025634E-006	-0.0002766	8
	27	73	597.4265	218.5311	-1856.315	1	1869.134	-83.28587	-1.540928E-006	0.001558	8
	28	75	477.4305	264.0892	-2297.909	1	2313.034	-83.44399	5.112234E-007	0.0006578	8
	29	77	376.6741	323.3442	-2877.264	1	2895.376	-83.58806	5.082289E-007	0.0006498	8
	30	80	298.2954	399.6222	-3589.616	1	3611.792	-83.64758	5.061345E-007	0.0006542	8
	31	82	237.7717	500.341	-4455.797	1	4483.801	-83.5931	4.985309E-008	0.0006262	7
	32	84	189.0121	629.3826	-5531.741	1	5567.431	-83.509	4.894004E-008	0.0006321	7
	33	87	150.2404	798.6741	-6863.044	1	6909.36	-83.36217	5.036948E-008	0.0006268	7
	34	89	119.1737	1023.679	-8523.483	1	8584.735	-83.15152	4.919306E-008	0.0006246	7
	35	91	95.0169	1315.226	-10526.07	1	10607.92	-82.87785	4.929949E-008	0.0006287	7
	36	94	75.60484	1697.462	-13011.65	1	13121.91	-82.56734	5.141632E-008	0.0006349	7
	37	96	54.50582	2464.801	-17561.72	1	17733.85	-82.01068	5.177536E-008	0.0006229	7
	38	99	45.95588	2996.331	-20562.17	1	20779.34	-81.70918	4.958112E-008	0.000631	7
	39	101	37.20238	3805.76	-24871.58	1	25161.07	-81.30029	4.727615E-008	0.0006359	7
	40	104	30.04808	4853.063	-30179.78	1	30567.49	-80.86475	4.995374E-008	0.0006302	7
	41	106	23.91582	6305.735	-37127.79	1	37659.46	-80.36094	5.221303E-008	0.0006281	7
	42	108	18.60119	8434.842	-46333.86	1	47095.36	-79.68258	3.402147E-009	0.0006728	6
	43	111	15.02404	10586.16	-55927.04	1	56920.13	-79.28157	3.2189E-009	0.0006868	6
	44	113	12.01923	13505.63	-68002.43	1	69330.6	-78.76694	3.052513E-009	0.0006778	6
	45	116	9.450605	17539.72	-83827.92	1	85643.23	-78.18222	2.657299E-009	0.0006538	6
	46	118	7.512019	22454.08	-102237.9	1	104674.6	-77.61304	2.707824E-009	0.0006586	6
	47	121	5.978954	28599.85	-124411.9	1	127656.9	-77.05375	3.039125E-009	0.0006725	6
	48	126	4.734848	36672.84	-151956.4	1	156319	-76.43181	2.54911E-009	0.0006472	6
	49	129	3.75601	47127.34	-185029	1	190936.4	-75.71046	3.056388E-009	0.0006892	6
	50	134	3.004808	59914	-223469.7	1	231362.1	-74.99152	2.824747E-009	0.0006948	6
	51	141	2.372217	77640.16	-272240.3	1	283095	-74.08239	2.715506E-009	0.0006937	6
	52	145	1.878005	101243.9	-330443.5	1	345605.6	-72.96556	2.820395E-009	0.0006478	6
	53	150	1.512097	129199	-394133.8	1	414769.7	-71.85061	2.735697E-009	0.0007748	6
	54	155	1.201923	167723.5	-473675.7	1	502493.6	-70.50149	-2.279379E-009	0.0006325	5
	55	161	0.956633	217121.5	-565825.2	1	606052.7	-69.00692	-2.784539E-009	8.133899E-006	5
