EXPLAIN
TAG	EISPOT
TITLE	LABEL	Potentiostatic EIS	Test Identifier
DATE	LABEL	2/26/2021	Date
TIME	LABEL	23:16:29	Time
NOTES	NOTES	1	Notes...
	
PSTAT	PSTAT	REF3000-16137	Potentiostat
VDC	POTEN	0.00000E+000	T	DC Voltage (V)
FREQINIT	QUANT	3.00000E+005	Initial Freq. (Hz)
FREQFINAL	QUANT	1.00000E+000	Final Freq. (Hz)
PTSPERDEC	QUANT	1.00000E+001	Points/decade
VAC	QUANT	5.00000E+001	AC Voltage (mV rms)
AREA	QUANT	1.00000E+000	Sample Area (cm^2)
SPEED	SELECTOR	2	Optimize for:
ZGUESS	QUANT	1.00000E+003	Estimated Z (ohms)
EOC	QUANT	0	Open Circuit (V)
SEQUENCER	TOGGLE	TRUE	Run as Sequence
PSTATMODEL	IQUANT	5	Pstat Model
PSTATSECTION	LABEL	REF3000-16137	Pstat Section
PSTATSERIALNO	LABEL	16137	Pstat Serial Number
CTRLMODE	IQUANT	1	Control Mode
IESTAB	IQUANT	0	I/E Stability
CASPEED	IQUANT	1	Control Amp Speed
CONVENTION	IQUANT	1	Current Convention
ICHRANGE	IQUANT	2	Ich Range
ICHRANGEMODE	TOGGLE	F	Ich Auto Range
ICHOFFSETENABLE	TOGGLE	T	Ich Offset Enable
ICHOFFSET	QUANT	0	Ich Offset (V)
ICHFILTER	IQUANT	3	Ich Filter
VCHRANGE	IQUANT	2	Vch Range
VCHRANGEMODE	TOGGLE	F	Vch Auto Range
VCHOFFSETENABLE	TOGGLE	T	Vch Offset Enable
VCHOFFSET	QUANT	0	Vch Offset (V)
VCHFILTER	IQUANT	3	Vch Filter
ACHRANGE	IQUANT	2	Ach Range
ACHOFFSETENABLE	TOGGLE	F	Ach Offset Enable
ACHOFFSET	QUANT	0	Ach Offset (V)
ACHFILTER	IQUANT	3	Ach Filter
IERANGELOWERLIMIT	IQUANT	2	I/E Range Lower Limit
IERANGEMODE	TOGGLE	F	I/E AutoRange
IERANGE	IQUANT	11	I/E Range
POSFEEDENABLE	TOGGLE	F	Positive Feedback IR Comp
POSFEEDRESISTANCE	QUANT	0	Positive Feedback Resistance (ohm)
ACHSELECT	IQUANT	0	Ach Select
CABLEID	IQUANT	13	Cable ID
DCCALDATE	LABEL	7/31/2020	DC Calibration Date
ACCALDATE	LABEL	7/31/2020	AC Calibration Date
THERMOSELECT	IQUANT	1	Thermo Select
FRAMEWORKVERSION	QUANT	6.33	Framework Version
INSTRUMENTVERSION	LABEL	3.50	Instrument Version
COMPLIANCEVOLTAGE	IQUANT	0	Compliance Voltage
ZCURVE	TABLE
	Pt	Time	Freq	Zreal	Zimag	Zsig	Zmod	Zphz	Idc	Vdc	IERange
	#	s	Hz	ohm	ohm	V	ohm	°	A	V	#
	0	18	300046.9	426.9384	-51.01692	1	429.9757	-6.814238	1.872664E-006	0.0012386	9
	1	23	238359.4	435.5899	-51.69095	1	438.6463	-6.767574	-8.498167E-005	0.0037634	9
	2	35	189328.1	445.4123	-54.9259	1	448.7861	-7.029924	1.653872E-005	-0.0018307	9
	3	41	150421.9	455.1483	-61.06607	1	459.2266	-7.641592	1.715979E-005	-0.0008093	9
	4	48	119484.4	461.9005	-49.85957	1	464.5837	-6.160903	-2.305805E-005	0.0142642	8
	5	51	94921.88	468.4905	-58.12494	1	472.0825	-7.072463	-1.409184E-005	0.0058677	8
	6	54	75421.88	473.8962	-70.13634	1	479.0581	-8.418628	1.482939E-005	-0.0051498	8
	7	56	59859.37	481.7181	-84.96003	1	489.1529	-10.00232	-1.22181E-005	0.0062957	8
	8	59	47578.12	490.2241	-102.7049	1	500.8672	-11.83267	-1.519494E-005	0.0062089	8
	9	61	37828.12	503.0487	-124.5114	1	518.2288	-13.90208	-2.353344E-006	-0.0018358	8
	10	64	30046.88	515.5888	-145.8244	1	535.8139	-15.79254	-7.369523E-006	-8.206133E-005	8
	11	66	23859.38	531.0016	-173.6169	1	558.6641	-18.10574	2.879942E-006	-0.0036801	8
	12	69	18984.38	550.3281	-204.7458	1	587.1813	-20.40738	-1.449834E-005	0.0050755	8
	13	71	15046.87	574.7983	-241.8609	1	623.6104	-22.82016	-1.333415E-005	0.0029361	8
	14	73	11953.13	602.4064	-282.5248	1	665.3674	-25.12628	2.796636E-006	-0.0036445	8
	15	76	9515.62	632.7897	-329.5002	1	713.4376	-27.50647	1.463843E-005	-0.0050776	8
	16	78	7546.875	672.0146	-380.7286	1	772.3716	-29.53364	-1.504552E-005	0.0050852	8
	17	80	5928.309	712.2579	-441.5647	1	838.0279	-31.79686	1.45463E-005	-0.0049903	8
	18	83	4733.456	756.0065	-503.8462	1	908.519	-33.68177	-1.146295E-005	0.0017002	8
	19	85	3796.875	795.2891	-579.111	1	983.796	-36.06124	1.637648E-005	-0.0045378	8
	20	88	2987.132	843.741	-671.3337	1	1078.234	-38.50798	-1.504154E-005	0.005119	8
	21	90	2390.625	885.6152	-781.2356	1	1180.95	-41.41677	-9.577843E-006	0.0065827	8
	22	93	1884.191	926.9618	-927.5159	1	1311.314	-45.01712	-1.338063E-005	0.0028335	8
	23	96	1516.544	963.073	-1089.98	1	1454.498	-48.53717	-2.382713E-006	-0.0021069	8
	24	99	1193.986	995.059	-1321.272	1	1654.057	-53.01634	-1.466206E-005	0.0060792	8
	25	103	946.5144	1047.741	-1601.549	1	1913.823	-56.8071	-1.484895E-005	0.0041153	8
	26	105	751.7689	1078.262	-1967.809	1	2243.863	-61.27945	6.68359E-007	0.0042368	8
	27	108	597.4265	1116.819	-2447.135	1	2689.936	-65.46909	-1.49253E-005	0.004106	8
	28	111	477.4305	1156.512	-2988.544	1	3204.515	-68.84447	1.66538E-008	0.0006155	8
	29	114	376.6741	1211.601	-3731.41	1	3923.187	-72.01122	5.968068E-009	0.0006373	8
	30	116	298.2954	1282.941	-4659.751	1	4833.137	-74.6065	-1.817369E-008	0.000634	7
	31	119	237.7717	1358.917	-5781.47	1	5939.027	-76.7729	-1.805034E-008	0.0006285	7
	32	121	189.0121	1452.869	-7198.317	1	7343.473	-78.58904	-1.54471E-008	0.0006179	7
	33	124	150.2404	1568.929	-8966.38	1	9102.609	-80.07492	-1.886347E-008	0.0006456	7
	34	126	119.1737	1711.981	-11200.5	1	11330.58	-81.30968	-1.606018E-008	0.0006167	7
	35	128	95.0169	1888.514	-13916.94	1	14044.49	-82.27222	-1.37268E-008	0.0006259	7
	36	131	75.60484	2107.14	-17337.8	1	17465.38	-83.07057	-1.925817E-008	0.0006387	7
	37	133	54.50582	2511.709	-23728.56	1	23861.12	-83.95764	-1.964139E-008	0.0006451	7
	38	136	45.95588	2791.265	-27992	1	28130.82	-84.30549	-1.393761E-008	0.0006151	7
	39	138	37.20238	3206.256	-34298.6	1	34448.13	-84.65947	-1.808101E-008	0.0005992	7
	40	141	30.04808	3731.29	-42148.51	1	42313.35	-84.94096	-1.456286E-008	0.0006061	7
	41	143	23.91582	4443.106	-52514.82	1	52702.45	-85.16391	-1.835191E-009	0.000656	6
	42	145	18.60119	5597.702	-66885.7	1	67119.53	-85.21603	-3.282053E-009	0.0006797	6
	43	148	15.02404	6577.746	-82068.11	1	82331.29	-85.41755	-1.798414E-009	0.0006672	6
	44	150	12.01923	8079.062	-101713.6	1	102034	-85.45856	-2.013544E-009	0.0006444	6
	45	153	9.450605	10229.89	-128156.6	1	128564.3	-85.43613	-2.003198E-009	0.0006461	6
	46	155	7.512019	12790.34	-159682.7	1	160194.1	-85.42047	-2.201128E-009	0.0006519	6
	47	158	5.978954	16232.38	-198671.9	1	199334	-85.32906	-1.99918E-009	0.0006823	6
	48	162	4.734848	20960.87	-248435.8	1	249318.5	-85.1773	-1.776564E-009	0.0006672	6
	49	166	3.75601	26995.78	-309828.4	1	311002.3	-85.02032	-2.239742E-009	0.000708	6
	50	172	3.004808	34622.7	-382874.8	1	384437	-84.83289	-2.161073E-009	0.0006315	6
	51	178	2.372217	46387.43	-479105.8	1	481346.2	-84.46981	-3.681419E-010	0.0005841	5
	52	182	1.878005	59805.11	-598063.2	1	601045.9	-84.28952	-2.286145E-010	0.0006502	5
	53	187	1.512097	75752.06	-731592.8	1	735504.2	-84.08843	-4.007964E-010	0.0006812	5
	54	192	1.201923	99643	-910311.9	1	915749.2	-83.75326	-2.579703E-010	0.0006626	5
	55	198	0.956633	129817.3	-1126506	1	1133961	-83.42629	-3.772961E-010	5.362424E-006	5
