EXPLAIN
TAG	EISPOT
TITLE	LABEL	Potentiostatic EIS	Test Identifier
DATE	LABEL	2/26/2021	Date
TIME	LABEL	23:37:47	Time
NOTES	NOTES	1	Notes...
	
PSTAT	PSTAT	REF3000-16137	Potentiostat
VDC	POTEN	0.00000E+000	T	DC Voltage (V)
FREQINIT	QUANT	3.00000E+005	Initial Freq. (Hz)
FREQFINAL	QUANT	1.00000E+000	Final Freq. (Hz)
PTSPERDEC	QUANT	1.00000E+001	Points/decade
VAC	QUANT	5.00000E+001	AC Voltage (mV rms)
AREA	QUANT	1.00000E+000	Sample Area (cm^2)
SPEED	SELECTOR	2	Optimize for:
ZGUESS	QUANT	1.00000E+003	Estimated Z (ohms)
EOC	QUANT	0	Open Circuit (V)
SEQUENCER	TOGGLE	TRUE	Run as Sequence
PSTATMODEL	IQUANT	5	Pstat Model
PSTATSECTION	LABEL	REF3000-16137	Pstat Section
PSTATSERIALNO	LABEL	16137	Pstat Serial Number
CTRLMODE	IQUANT	1	Control Mode
IESTAB	IQUANT	0	I/E Stability
CASPEED	IQUANT	1	Control Amp Speed
CONVENTION	IQUANT	1	Current Convention
ICHRANGE	IQUANT	2	Ich Range
ICHRANGEMODE	TOGGLE	F	Ich Auto Range
ICHOFFSETENABLE	TOGGLE	T	Ich Offset Enable
ICHOFFSET	QUANT	0	Ich Offset (V)
ICHFILTER	IQUANT	3	Ich Filter
VCHRANGE	IQUANT	2	Vch Range
VCHRANGEMODE	TOGGLE	F	Vch Auto Range
VCHOFFSETENABLE	TOGGLE	T	Vch Offset Enable
VCHOFFSET	QUANT	0	Vch Offset (V)
VCHFILTER	IQUANT	3	Vch Filter
ACHRANGE	IQUANT	2	Ach Range
ACHOFFSETENABLE	TOGGLE	F	Ach Offset Enable
ACHOFFSET	QUANT	0	Ach Offset (V)
ACHFILTER	IQUANT	3	Ach Filter
IERANGELOWERLIMIT	IQUANT	2	I/E Range Lower Limit
IERANGEMODE	TOGGLE	F	I/E AutoRange
IERANGE	IQUANT	11	I/E Range
POSFEEDENABLE	TOGGLE	F	Positive Feedback IR Comp
POSFEEDRESISTANCE	QUANT	0	Positive Feedback Resistance (ohm)
ACHSELECT	IQUANT	0	Ach Select
CABLEID	IQUANT	13	Cable ID
DCCALDATE	LABEL	7/31/2020	DC Calibration Date
ACCALDATE	LABEL	7/31/2020	AC Calibration Date
THERMOSELECT	IQUANT	1	Thermo Select
FRAMEWORKVERSION	QUANT	6.33	Framework Version
INSTRUMENTVERSION	LABEL	3.50	Instrument Version
COMPLIANCEVOLTAGE	IQUANT	0	Compliance Voltage
ZCURVE	TABLE
	Pt	Time	Freq	Zreal	Zimag	Zsig	Zmod	Zphz	Idc	Vdc	IERange
	#	s	Hz	ohm	ohm	V	ohm	°	A	V	#
	0	14	300046.9	2006.892	-3783.655	1	4282.95	-62.05803	-1.90229E-005	0.0011049	9
	1	28	238359.4	2711.338	-4254.659	1	5045.144	-57.49213	-5.963109E-005	0.0004066	9
	2	44	189328.1	3544.176	-4987.975	1	6118.911	-54.60453	1.900259E-005	-0.0008716	9
	3	54	150421.9	5037.302	-5553.358	1	7497.613	-47.78968	2.057232E-005	-0.000336	9
	4	61	119484.4	5837.854	-4905.118	1	7625.006	-40.03786	-2.981438E-005	-0.0059569	8
	5	69	94921.88	6939.842	-4752.762	1	8411.312	-34.40535	2.653653E-005	-0.0070993	8
	6	77	75421.88	7948.229	-4665.367	1	9216.29	-30.41163	-2.356744E-005	0.0106411	8
	7	86	59859.37	8928.173	-4282.133	1	9901.97	-25.62332	1.685045E-005	0.0002678	8
	8	94	47578.12	9821.02	-3928.862	1	10577.73	-21.8037	2.551094E-005	-0.004959	8
	9	103	37828.12	10502.38	-3498.907	1	11069.88	-18.42569	2.27463E-005	-0.0026993	8
	10	111	30046.88	11185.47	-3125.384	1	11613.91	-15.61113	-1.859115E-006	0.007545	8
	11	120	23859.38	11939.31	-2065.819	1	12116.71	-9.8165	-6.936973E-006	0.0216821	7
	12	124	18984.38	12213.51	-1850.112	1	12352.85	-8.61372	2.258596E-006	0.0093525	7
	13	128	15046.87	12441.87	-1642.434	1	12549.81	-7.520053	-1.266068E-008	0.0165817	7
	14	133	11953.13	12676.67	-1537.521	1	12769.57	-6.915484	6.072857E-006	-0.0082592	7
	15	137	9515.62	12936.96	-1544.824	1	13028.87	-6.809543	1.630216E-006	-0.0198757	7
	16	141	7546.875	13154.27	-1546.411	1	13244.86	-6.704894	3.675403E-006	-0.0236351	7
	17	145	5928.309	13279.79	-1734.042	1	13392.53	-7.439448	-4.786396E-006	0.0022574	7
	18	149	4733.456	13784.59	-1804.998	1	13902.26	-7.46005	7.356986E-006	-0.0225175	7
	19	154	3796.875	13962.84	-1940.631	1	14097.05	-7.912588	-4.767488E-006	0.002233	7
	20	158	2987.132	14295.18	-2297.914	1	14478.69	-9.13203	4.422739E-006	0.0007079	7
	21	162	2390.625	14657.96	-2580.01	1	14883.29	-9.98262	-5.420443E-006	0.0254437	7
	22	166	1884.191	14949.65	-3146.655	1	15277.22	-11.8863	-6.943406E-006	0.0218649	7
	23	171	1516.544	15333.85	-3492.357	1	15726.52	-12.83053	-4.831646E-006	0.0023196	7
	24	175	1193.986	15791.24	-4266.69	1	16357.5	-15.11991	6.153252E-006	-0.0084397	7
	25	179	946.5144	16626.61	-5079.954	1	17385.34	-16.98957	-1.943538E-006	0.021362	7
	26	182	751.7689	16921.04	-6232.397	1	18032.31	-20.21988	5.399962E-006	-0.0257218	7
	27	185	597.4265	17985.32	-6765.669	1	19215.78	-20.61516	7.127217E-006	-0.0164685	7
	28	187	477.4305	18656.64	-8151.779	1	20359.8	-23.60231	-6.165619E-008	0.0005859	7
	29	190	376.6741	19644.99	-9571.05	1	21852.47	-25.97537	-6.471706E-008	0.0006064	7
	30	192	298.2954	20773.9	-11165.37	1	23584.32	-28.25674	-6.821459E-008	0.0006458	7
	31	194	237.7717	22056.28	-12904.68	1	25554.06	-30.33105	-5.993239E-008	0.0005748	7
	32	197	189.0121	23472.9	-14879.85	1	27791.85	-32.37127	-6.459367E-008	0.0006609	7
	33	199	150.2404	25002.27	-17132.36	1	30308.93	-34.42019	-5.8636E-008	0.0006116	7
	34	201	119.1737	26582.86	-19747.78	1	33115.3	-36.60779	-6.426966E-008	0.0006099	7
	35	204	95.0169	28087.55	-22782.93	1	36165.9	-39.04688	-6.704926E-008	0.0006544	7
	36	206	75.60484	29693.31	-26532.79	1	39820.61	-41.78273	-7.495524E-009	0.0007083	6
	37	209	54.50582	31650.53	-33593.37	1	46154.86	-46.70566	-7.393998E-009	0.0007109	6
	38	211	45.95588	32587.01	-38385.29	1	50352.2	-49.67057	-7.076354E-009	0.0007021	6
	39	214	37.20238	33778.65	-45594.4	1	56743.69	-53.46707	-6.919129E-009	0.000686	6
	40	216	30.04808	35015.55	-54729.73	1	64972.55	-57.38928	-6.6919E-009	0.000621	6
	41	218	23.91582	36302.77	-66970.7	1	76177.2	-61.53923	-6.927058E-009	0.0006825	6
	42	221	18.60119	37810.51	-83983.05	1	92102.05	-65.76196	-6.61479E-009	0.0006358	6
	43	223	15.02404	39479.95	-102353.7	1	109703.9	-68.90734	-6.496293E-009	0.0006255	6
	44	226	12.01923	41425.86	-126145.3	1	132773.2	-71.81992	-6.460376E-009	0.0006245	6
	45	228	9.450605	43780.33	-158281.4	1	164224.6	-74.53866	-7.112531E-009	0.0007095	6
	46	231	7.512019	46583.58	-196922.4	1	202357.3	-76.69088	-6.398087E-009	0.0006394	6
	47	234	5.978954	50004.37	-244818.9	1	249873.4	-78.45609	-6.26627E-009	0.0006323	6
	48	238	4.734848	54361.63	-306344.2	1	311130.1	-79.93745	-6.249323E-009	0.0006736	6
	49	241	3.75601	59498.96	-382647.6	1	387245.8	-81.1617	-7.209158E-009	0.0007313	6
	50	247	3.004808	66393.04	-474601.4	1	479222.8	-82.03645	-7.56056E-010	0.0006097	5
	51	253	2.372217	75173.5	-595136.4	1	599865.3	-82.80092	-8.820226E-010	0.0006318	5
	52	258	1.878005	84796.45	-747000.7	1	751798.1	-83.52374	-7.292932E-010	0.0006434	5
	53	262	1.512097	94735.75	-919684.8	1	924551.2	-84.11877	-8.107149E-010	0.0007359	5
	54	268	1.201923	111098.9	-1149575	1	1154931	-84.47988	-7.224241E-010	0.0006495	5
	55	274	0.956633	129208.4	-1432327	1	1438143	-84.84538	-7.773562E-010	1.195135E-005	5
