EXPLAIN
TAG	EISPOT
TITLE	LABEL	Potentiostatic EIS	Test Identifier
DATE	LABEL	2/26/2021	Date
TIME	LABEL	23:58:42	Time
NOTES	NOTES	1	Notes...
	
PSTAT	PSTAT	REF3000-16137	Potentiostat
VDC	POTEN	0.00000E+000	T	DC Voltage (V)
FREQINIT	QUANT	3.00000E+005	Initial Freq. (Hz)
FREQFINAL	QUANT	1.00000E+000	Final Freq. (Hz)
PTSPERDEC	QUANT	1.00000E+001	Points/decade
VAC	QUANT	5.00000E+001	AC Voltage (mV rms)
AREA	QUANT	1.00000E+000	Sample Area (cm^2)
SPEED	SELECTOR	2	Optimize for:
ZGUESS	QUANT	1.00000E+003	Estimated Z (ohms)
EOC	QUANT	0	Open Circuit (V)
SEQUENCER	TOGGLE	TRUE	Run as Sequence
PSTATMODEL	IQUANT	5	Pstat Model
PSTATSECTION	LABEL	REF3000-16137	Pstat Section
PSTATSERIALNO	LABEL	16137	Pstat Serial Number
CTRLMODE	IQUANT	1	Control Mode
IESTAB	IQUANT	0	I/E Stability
CASPEED	IQUANT	1	Control Amp Speed
CONVENTION	IQUANT	1	Current Convention
ICHRANGE	IQUANT	2	Ich Range
ICHRANGEMODE	TOGGLE	F	Ich Auto Range
ICHOFFSETENABLE	TOGGLE	T	Ich Offset Enable
ICHOFFSET	QUANT	0	Ich Offset (V)
ICHFILTER	IQUANT	3	Ich Filter
VCHRANGE	IQUANT	2	Vch Range
VCHRANGEMODE	TOGGLE	F	Vch Auto Range
VCHOFFSETENABLE	TOGGLE	T	Vch Offset Enable
VCHOFFSET	QUANT	0	Vch Offset (V)
VCHFILTER	IQUANT	3	Vch Filter
ACHRANGE	IQUANT	2	Ach Range
ACHOFFSETENABLE	TOGGLE	F	Ach Offset Enable
ACHOFFSET	QUANT	0	Ach Offset (V)
ACHFILTER	IQUANT	3	Ach Filter
IERANGELOWERLIMIT	IQUANT	2	I/E Range Lower Limit
IERANGEMODE	TOGGLE	F	I/E AutoRange
IERANGE	IQUANT	11	I/E Range
POSFEEDENABLE	TOGGLE	F	Positive Feedback IR Comp
POSFEEDRESISTANCE	QUANT	0	Positive Feedback Resistance (ohm)
ACHSELECT	IQUANT	0	Ach Select
CABLEID	IQUANT	13	Cable ID
DCCALDATE	LABEL	7/31/2020	DC Calibration Date
ACCALDATE	LABEL	7/31/2020	AC Calibration Date
THERMOSELECT	IQUANT	1	Thermo Select
FRAMEWORKVERSION	QUANT	6.33	Framework Version
INSTRUMENTVERSION	LABEL	3.50	Instrument Version
COMPLIANCEVOLTAGE	IQUANT	0	Compliance Voltage
ZCURVE	TABLE
	Pt	Time	Freq	Zreal	Zimag	Zsig	Zmod	Zphz	Idc	Vdc	IERange
	#	s	Hz	ohm	ohm	V	ohm	°	A	V	#
	0	20	300046.9	-47.1241	-4798.183	1	4798.414	-90.5627	2.438758E-006	-0.0021037	9
	1	40	238359.4	74.97492	-5992.588	1	5993.058	-89.2832	8.685456E-005	-0.0034582	9
	2	63	189328.1	1362.152	-7223.279	1	7350.593	-79.32069	2.2863E-005	0.0010443	9
	3	72	150421.9	138.6531	-8386.246	1	8387.393	-89.0528	8.545133E-005	-0.0032653	9
	4	81	119484.4	205.425	-11860.15	1	11861.93	-89.0077	2.342425E-005	0.001196	9
	5	91	94921.88	789.2878	-14550.18	1	14571.58	-86.89498	-2.612656E-005	0.0074887	8
	6	100	75421.88	1226.415	-17945.76	1	17987.61	-86.09048	-9.411501E-006	-0.00212	8
	7	108	59859.37	1082.39	-22858.74	1	22884.35	-87.289	-2.65889E-005	0.00961	8
	8	117	47578.12	1709.434	-28806.96	1	28857.63	-86.60399	8.273639E-006	0.0042373	8
	9	127	37828.12	4822.394	-37269.59	1	37580.29	-82.62733	-6.718792E-006	0.0119541	7
	10	134	30046.88	1928.343	-44036.29	1	44078.49	-87.49263	-1.979065E-005	0.0112252	8
	11	143	23859.38	3303.898	-56924.48	1	57020.27	-86.67828	-9.36362E-006	-0.0021071	8
	12	150	18984.38	5632.989	-71927.65	1	72147.88	-85.52204	7.58412E-006	-0.0185145	7
	13	155	15046.87	7623.096	-88839.84	1	89166.3	-85.09563	3.456817E-006	-0.0243953	7
	14	161	11953.13	4915.236	-115156.7	1	115261.5	-87.55592	2.737859E-005	-0.0073414	8
	15	168	9515.62	10199.53	-137716.5	1	138093.7	-85.76431	-2.354937E-005	0.0051092	8
	16	175	7546.875	7126.946	-184784.2	1	184921.6	-87.79125	-2.651701E-005	0.0095189	8
	17	182	5928.309	104778.3	-196328.5	1	222538.5	-61.91166	2.600504E-005	-0.0050192	8
	18	189	4733.456	61612.36	-446910.7	1	451137.7	-82.15052	-2.355531E-005	0.0051237	8
	19	198	3796.875	-13523.3	-358021.1	1	358276.4	-92.16317	-2.616527E-005	0.0075234	8
	20	206	2987.132	266554.7	-390034.8	1	472417.7	-55.65081	2.733475E-005	-0.0072778	8
	21	215	2390.625	-70606.46	1088241	1	1090529	93.71222	8.650448E-006	0.0040128	8
	22	223	1884.191	144024.1	-718430.3	1	732724.4	-78.66415	-3.335658E-006	-0.0051967	7
	23	230	1516.544	465824.8	-747822.8	1	881040.1	-58.08089	-7.242413E-006	0.0235268	7
	24	238	1193.986	-41069	-801178.8	1	802230.7	-92.93446	-5.305959E-006	0.0035778	7
	25	246	946.5144	799872.1	1109736	1	1367958	54.2168	-6.752048E-006	0.0122549	7
	26	250	751.7689	-406501.5	-3414805	1	3438915	-96.7886	6.812221E-006	-0.0265688	7
	27	255	597.4265	-1123680	-2358125	1	2612165	-115.4785	7.833538E-006	-0.0247597	7
	28	261	477.4305	1030455	-2367103	1	2581668	-66.47539	-6.286228E-008	0.0006308	7
	29	269	376.6741	1831948	-2708354	1	3269742	-55.92533	-8.017538E-010	0.0006036	5
	30	273	298.2954	2079195	-3160015	1	3782691	-56.65628	-6.511435E-009	0.0006238	6
	31	277	237.7717	2987091	-3296434	1	4448504	-47.81845	-6.660116E-010	0.0006074	5
	32	281	189.0121	3747070	-3481934	1	5115115	-42.89952	-7.480379E-010	0.0007057	5
	33	285	150.2404	4617297	-3536219	1	5815864	-37.44719	-6.888435E-010	0.0006476	5
	34	289	119.1737	5123323	-3028755	1	5951621	-30.59031	-6.769825E-010	0.000619	5
	35	293	95.0169	6085563	-3408722	1	6975203	-29.25461	-6.542161E-010	0.0006668	5
	36	297	75.60484	6469127	-3165993	1	7202300	-26.07714	-8.741365E-010	0.0006565	5
	37	302	54.50582	7544184	-2642752	1	7993676	-19.30552	-7.859475E-010	0.000706	5
	38	305	45.95588	8620347	-1312932	1	8719758	-8.659946	-4.885744E-011	0.0006365	4
	39	307	37.20238	8494902	-1515352	1	8629001	-10.11425	-1.119185E-010	0.0006791	4
	40	310	30.04808	8831254	-1244222	1	8918472	-8.019531	-1.010924E-010	0.0006867	4
	41	313	23.91582	9266269	-893757.6	1	9309272	-5.509296	-1.884826E-010	0.0006411	4
	42	316	18.60119	1.003311E+007	-1289008	1	1.011557E+007	-7.320994	-4.360037E-010	0.0006206	4
	43	318	15.02404	9345207	-1011566	1	9399796	-6.177893	-1.19027E-010	0.0006029	4
	44	321	12.01923	9.504832E+006	-1069626	1	9.564828E+006	-6.420763	-8.157969E-011	0.0006677	4
	45	323	9.450605	9.757694E+006	-1197232	1	9.830867E+006	-6.99501	-1.443517E-011	0.0006735	4
	46	326	7.512019	9.926348E+006	-1238050	1	1.000326E+007	-7.109421	-1.452893E-010	0.0007053	4
	47	329	5.978954	1.032026E+007	-1335262	1	1.040628E+007	-7.372121	-1.279355E-010	0.0006845	4
	48	333	4.734848	1.058584E+007	-1600257	1	1.070611E+007	-8.596295	-1.105589E-010	0.0006937	4
	49	338	3.75601	1.107773E+007	-1820918	1	1.122639E+007	-9.334598	-1.186455E-010	0.0005993	4
	50	344	3.004808	1.153847E+007	-2135916	1	1.17345E+007	-10.48745	-5.618513E-011	0.0006005	4
	51	350	2.372217	1.212915E+007	-2562035	1	1.239679E+007	-11.92723	-1.269002E-010	0.0006442	4
	52	354	1.878005	1.269711E+007	-3045892	1	1.305733E+007	-13.4897	-1.022978E-010	0.0006607	4
	53	360	1.512097	1.335869E+007	-3581193	1	1.383039E+007	-15.00697	-7.143595E-011	0.00055	4
	54	365	1.201923	1.416042E+007	-4276364	1	1.479205E+007	-16.80401	-1.037817E-010	0.0006723	4
	55	372	0.956633	1.508907E+007	-5088464	1	1.592396E+007	-18.63557	-1.229623E-010	1.347134E-005	4
