EXPLAIN
TAG	EISPOT
TITLE	LABEL	Potentiostatic EIS	Test Identifier
DATE	LABEL	2/26/2021	Date
TIME	LABEL	22:30:08	Time
NOTES	NOTES	1	Notes...
	
PSTAT	PSTAT	REF3000-16137	Potentiostat
VDC	POTEN	0.00000E+000	T	DC Voltage (V)
FREQINIT	QUANT	3.00000E+005	Initial Freq. (Hz)
FREQFINAL	QUANT	1.00000E+000	Final Freq. (Hz)
PTSPERDEC	QUANT	1.00000E+001	Points/decade
VAC	QUANT	5.00000E+001	AC Voltage (mV rms)
AREA	QUANT	1.00000E+000	Sample Area (cm^2)
SPEED	SELECTOR	2	Optimize for:
ZGUESS	QUANT	1.00000E+003	Estimated Z (ohms)
EOC	QUANT	0	Open Circuit (V)
SEQUENCER	TOGGLE	TRUE	Run as Sequence
PSTATMODEL	IQUANT	5	Pstat Model
PSTATSECTION	LABEL	REF3000-16137	Pstat Section
PSTATSERIALNO	LABEL	16137	Pstat Serial Number
CTRLMODE	IQUANT	1	Control Mode
IESTAB	IQUANT	0	I/E Stability
CASPEED	IQUANT	1	Control Amp Speed
CONVENTION	IQUANT	1	Current Convention
ICHRANGE	IQUANT	2	Ich Range
ICHRANGEMODE	TOGGLE	F	Ich Auto Range
ICHOFFSETENABLE	TOGGLE	T	Ich Offset Enable
ICHOFFSET	QUANT	0	Ich Offset (V)
ICHFILTER	IQUANT	3	Ich Filter
VCHRANGE	IQUANT	2	Vch Range
VCHRANGEMODE	TOGGLE	F	Vch Auto Range
VCHOFFSETENABLE	TOGGLE	T	Vch Offset Enable
VCHOFFSET	QUANT	0	Vch Offset (V)
VCHFILTER	IQUANT	3	Vch Filter
ACHRANGE	IQUANT	2	Ach Range
ACHOFFSETENABLE	TOGGLE	F	Ach Offset Enable
ACHOFFSET	QUANT	0	Ach Offset (V)
ACHFILTER	IQUANT	3	Ach Filter
IERANGELOWERLIMIT	IQUANT	2	I/E Range Lower Limit
IERANGEMODE	TOGGLE	F	I/E AutoRange
IERANGE	IQUANT	11	I/E Range
POSFEEDENABLE	TOGGLE	F	Positive Feedback IR Comp
POSFEEDRESISTANCE	QUANT	0	Positive Feedback Resistance (ohm)
ACHSELECT	IQUANT	0	Ach Select
CABLEID	IQUANT	13	Cable ID
DCCALDATE	LABEL	7/31/2020	DC Calibration Date
ACCALDATE	LABEL	7/31/2020	AC Calibration Date
THERMOSELECT	IQUANT	1	Thermo Select
FRAMEWORKVERSION	QUANT	6.33	Framework Version
INSTRUMENTVERSION	LABEL	3.50	Instrument Version
COMPLIANCEVOLTAGE	IQUANT	0	Compliance Voltage
ZCURVE	TABLE
	Pt	Time	Freq	Zreal	Zimag	Zsig	Zmod	Zphz	Idc	Vdc	IERange
	#	s	Hz	ohm	ohm	V	ohm	°	A	V	#
	0	6	300046.9	28.07287	-9.209466	1	29.54489	-18.16237	-1.341583E-005	-0.0001246	11
	1	11	238359.4	29.36968	-11.07527	1	31.38853	-20.6614	-2.048017E-005	0.0005389	10
	2	14	189328.1	30.75154	-13.45438	1	33.56602	-23.63029	-0.0000989	0.0004744	10
	3	16	150421.9	32.41351	-16.03737	1	36.16397	-26.32502	7.037779E-005	0.00058	10
	4	19	119484.4	34.31475	-18.50879	1	38.98817	-28.34167	-5.486589E-007	-0.0003118	9
	5	21	94921.88	36.39282	-21.54896	1	42.29414	-30.63067	-3.639272E-006	0.0003731	9
	6	24	75421.88	38.36008	-24.94019	1	45.75488	-33.03032	1.711756E-005	-0.0002062	9
	7	27	59859.37	40.36362	-29.02591	1	49.71645	-35.72031	-8.818843E-006	0.0004839	9
	8	29	47578.12	42.24404	-33.82387	1	54.11666	-38.68348	-1.236467E-005	0.0003856	9
	9	32	37828.12	44.04822	-39.6701	1	59.27869	-42.0064	1.11419E-005	4.201317E-005	9
	10	34	30046.88	45.77118	-47.17207	1	65.72826	-45.86353	-1.093618E-005	0.0004585	9
	11	37	23859.38	47.56604	-56.48594	1	73.84571	-49.89973	1.083576E-005	-0.0003585	9
	12	39	18984.38	49.22875	-68.37141	1	84.25034	-54.24538	1.72875E-005	-0.0002676	9
	13	41	15046.87	51.08084	-83.32	1	97.7316	-58.48886	-1.131525E-005	0.0004121	9
	14	44	11953.13	53.03756	-102.4086	1	115.3279	-62.62031	1.170069E-005	2.118517E-005	9
	15	46	9515.62	55.21312	-126.1909	1	137.7411	-66.36887	-1.609175E-008	0.000293	9
	16	48	7546.875	57.90986	-156.1421	1	166.535	-69.65122	-1.218518E-005	0.0003693	9
	17	51	5928.309	61.89551	-195.2958	1	204.8695	-72.41492	1.755529E-005	-0.0003476	9
	18	53	4733.456	65.90884	-241.1716	1	250.0154	-74.71508	5.599154E-006	0.0001663	9
	19	55	3796.875	73.94755	-295.6361	1	304.744	-75.95673	-3.827836E-006	2.845853E-005	9
	20	58	2987.132	78.12639	-372.1395	1	380.252	-78.1436	1.782394E-005	-0.0002866	9
	21	60	2390.625	86.99221	-458.6038	1	466.7816	-79.25922	1.037282E-005	-0.0003575	9
	22	62	1884.191	99.6626	-572.1668	1	580.7818	-80.1191	2.673708E-006	0.0002647	8
	23	64	1516.544	113.634	-701.2737	1	710.4206	-80.79583	-6.29542E-007	0.0012394	8
	24	67	1193.986	134.3509	-878.6915	1	888.9033	-81.30687	-1.147442E-006	0.0013278	8
	25	69	946.5144	160.5912	-1092.4	1	1104.141	-81.63699	-1.096776E-006	0.0013715	8
	26	72	751.7689	195.9781	-1354.804	1	1368.905	-81.76901	9.088353E-007	0.0002945	8
	27	74	597.4265	239.5786	-1676.914	1	1693.941	-81.86925	-9.221889E-007	0.0008127	8
	28	76	477.4305	294.2843	-2069.884	1	2090.699	-81.90824	5.59796E-007	0.0006572	8
	29	79	376.6741	372.329	-2577.828	1	2604.578	-81.78131	5.551869E-007	0.000657	8
	30	81	298.2954	473.1709	-3196.785	1	3231.614	-81.58052	5.629989E-007	0.000656	8
	31	83	237.7717	600.7471	-3933.887	1	3979.493	-81.31739	5.623669E-007	0.0006555	8
	32	86	189.0121	772.7726	-4857.404	1	4918.491	-80.96047	5.193057E-008	0.0006272	7
	33	88	150.2404	989.826	-5976.477	1	6057.89	-80.59602	5.16553E-008	0.0006315	7
	34	91	119.1737	1272.431	-7356.515	1	7465.748	-80.18684	5.318731E-008	0.0006293	7
	35	93	95.0169	1625.511	-9000.64	1	9146.245	-79.76276	5.137647E-008	0.0006234	7
	36	95	75.60484	2080.083	-11014.45	1	11209.14	-79.30562	5.441805E-008	0.0006243	7
	37	98	54.50582	2931.368	-14654.15	1	14944.46	-78.68804	5.750701E-008	0.0005977	7
	38	100	45.95588	3515.132	-17000.69	1	17360.29	-78.31791	5.192183E-008	0.0006323	7
	39	103	37.20238	4390.02	-20426.95	1	20893.36	-77.87088	5.016201E-008	0.0006368	7
	40	105	30.04808	5445.204	-24495.44	1	25093.36	-77.46724	5.09869E-008	0.0006259	7
	41	108	23.91582	6906.197	-29878.56	1	30666.33	-76.98509	5.431498E-008	0.0006261	7
	42	110	18.60119	8896.549	-36995.96	1	38050.62	-76.47861	5.266508E-008	0.0006281	7
	43	112	15.02404	10945.82	-44215.07	1	45549.79	-76.09549	-1.853205E-009	0.0006735	6
	44	115	12.01923	13657.37	-53334	1	55054.87	-75.63676	2.303898E-011	0.0006756	6
	45	117	9.450605	17297.08	-65315.77	1	67567.29	-75.16727	-1.389743E-010	0.0006833	6
	46	119	7.512019	21721.44	-79015.47	1	81946.72	-74.62901	-8.649727E-011	0.0006896	6
	47	123	5.978954	27209.58	-95505.3	1	99305.7	-74.09769	-2.157578E-010	0.0006775	6
	48	127	4.734848	34400.44	-115941.1	1	120936.9	-73.47405	-9.795712E-010	0.0006591	6
	49	130	3.75601	43606.26	-140100.9	1	146730.3	-72.7113	9.520471E-011	0.0006871	6
	50	136	3.004808	54918.43	-167908.8	1	176661.9	-71.88848	-3.512784E-010	0.0007076	6
	51	142	2.372217	70325.16	-202975.6	1	214813.2	-70.89028	-4.480125E-010	0.0007201	6
	52	146	1.878005	90570.13	-243690.2	1	259976.7	-69.61187	-2.183906E-010	0.0006567	6
	53	151	1.512097	114083.9	-288056.7	1	309825.4	-68.39412	-4.075704E-010	0.0007746	6
	54	156	1.201923	146333.2	-342128.6	1	372109.4	-66.84293	-9.763385E-011	0.0006624	6
	55	163	0.956633	186825.2	-403054.9	1	444248.7	-65.1312	-6.779224E-009	2.476463E-005	5
