EXPLAIN
TAG	EISPOT
TITLE	LABEL	Potentiostatic EIS	Test Identifier
DATE	LABEL	2/26/2021	Date
TIME	LABEL	22:58:40	Time
NOTES	NOTES	1	Notes...
	
PSTAT	PSTAT	REF3000-16137	Potentiostat
VDC	POTEN	0.00000E+000	T	DC Voltage (V)
FREQINIT	QUANT	3.00000E+005	Initial Freq. (Hz)
FREQFINAL	QUANT	1.00000E+000	Final Freq. (Hz)
PTSPERDEC	QUANT	1.00000E+001	Points/decade
VAC	QUANT	5.00000E+001	AC Voltage (mV rms)
AREA	QUANT	1.00000E+000	Sample Area (cm^2)
SPEED	SELECTOR	2	Optimize for:
ZGUESS	QUANT	1.00000E+003	Estimated Z (ohms)
EOC	QUANT	0	Open Circuit (V)
SEQUENCER	TOGGLE	TRUE	Run as Sequence
PSTATMODEL	IQUANT	5	Pstat Model
PSTATSECTION	LABEL	REF3000-16137	Pstat Section
PSTATSERIALNO	LABEL	16137	Pstat Serial Number
CTRLMODE	IQUANT	1	Control Mode
IESTAB	IQUANT	0	I/E Stability
CASPEED	IQUANT	1	Control Amp Speed
CONVENTION	IQUANT	1	Current Convention
ICHRANGE	IQUANT	2	Ich Range
ICHRANGEMODE	TOGGLE	F	Ich Auto Range
ICHOFFSETENABLE	TOGGLE	T	Ich Offset Enable
ICHOFFSET	QUANT	0	Ich Offset (V)
ICHFILTER	IQUANT	3	Ich Filter
VCHRANGE	IQUANT	2	Vch Range
VCHRANGEMODE	TOGGLE	F	Vch Auto Range
VCHOFFSETENABLE	TOGGLE	T	Vch Offset Enable
VCHOFFSET	QUANT	0	Vch Offset (V)
VCHFILTER	IQUANT	3	Vch Filter
ACHRANGE	IQUANT	2	Ach Range
ACHOFFSETENABLE	TOGGLE	F	Ach Offset Enable
ACHOFFSET	QUANT	0	Ach Offset (V)
ACHFILTER	IQUANT	3	Ach Filter
IERANGELOWERLIMIT	IQUANT	2	I/E Range Lower Limit
IERANGEMODE	TOGGLE	F	I/E AutoRange
IERANGE	IQUANT	11	I/E Range
POSFEEDENABLE	TOGGLE	F	Positive Feedback IR Comp
POSFEEDRESISTANCE	QUANT	0	Positive Feedback Resistance (ohm)
ACHSELECT	IQUANT	0	Ach Select
CABLEID	IQUANT	13	Cable ID
DCCALDATE	LABEL	7/31/2020	DC Calibration Date
ACCALDATE	LABEL	7/31/2020	AC Calibration Date
THERMOSELECT	IQUANT	1	Thermo Select
FRAMEWORKVERSION	QUANT	6.33	Framework Version
INSTRUMENTVERSION	LABEL	3.50	Instrument Version
COMPLIANCEVOLTAGE	IQUANT	0	Compliance Voltage
ZCURVE	TABLE
	Pt	Time	Freq	Zreal	Zimag	Zsig	Zmod	Zphz	Idc	Vdc	IERange
	#	s	Hz	ohm	ohm	V	ohm	°	A	V	#
	0	7	300046.9	69.76057	-12.99923	1	70.96138	-10.55547	-3.259721E-005	-0.0003427	9
	1	10	238359.4	71.33561	-16.53972	1	73.22794	-13.05382	3.812881E-006	-0.0013476	9
	2	13	189328.1	73.10802	-20.53389	1	75.93697	-15.68849	1.357518E-005	0.0005455	9
	3	16	150421.9	75.28996	-24.83637	1	79.28066	-18.25649	-5.162266E-006	0.0007777	9
	4	18	119484.4	78.20177	-29.69457	1	83.64977	-20.79264	-6.734866E-005	0.0019943	9
	5	21	94921.88	81.71066	-35.02489	1	88.90093	-23.20217	1.165597E-005	6.657124E-005	9
	6	23	75421.88	85.56027	-41.07056	1	94.90707	-25.6419	-1.551421E-005	0.0003932	9
	7	26	59859.37	90.11709	-48.09428	1	102.1477	-28.08824	2.029913E-005	-0.0006218	9
	8	28	47578.12	95.1927	-55.60257	1	110.242	-30.28942	-1.441649E-005	0.000814	9
	9	31	37828.12	100.797	-64.02957	1	119.4145	-32.42507	-1.746929E-005	0.0007755	9
	10	33	30046.88	106.5965	-73.80173	1	129.6515	-34.69667	1.630887E-005	-0.0005929	9
	11	36	23859.38	112.596	-84.86073	1	140.9936	-37.00441	-4.391829E-006	-0.0001338	9
	12	38	18984.38	118.167	-98.4672	1	153.8156	-39.80405	2.271331E-005	-0.0004644	9
	13	40	15046.87	123.318	-115.5604	1	169.0016	-43.13997	-4.190832E-006	0.0005868	9
	14	43	11953.13	128.4597	-136.5185	1	187.4545	-46.74202	3.774849E-006	-0.0003866	9
	15	45	9515.62	132.9221	-163.2088	1	210.4885	-50.8396	-1.008238E-005	0.0007917	9
	16	47	7546.875	137.2869	-197.2883	1	240.3546	-55.16712	-1.46988E-006	-0.0002339	9
	17	50	5928.309	142.2132	-244.0564	1	282.4679	-59.77037	-9.749488E-006	7.658284E-005	9
	18	52	4733.456	147.8721	-298.3735	1	333.0059	-63.63726	3.062238E-006	-0.0003624	9
	19	54	3796.875	152.5806	-364.8974	1	395.5135	-67.30792	1.970918E-005	-0.0001218	9
	20	56	2987.132	159.1277	-454.3492	1	481.4092	-70.6981	-2.754746E-007	0.0018128	8
	21	59	2390.625	166.1103	-561.4348	1	585.4926	-73.51823	2.726845E-006	-0.0007569	8
	22	61	1884.191	176.12	-702.3947	1	724.1384	-75.92374	-2.957191E-006	0.0022645	8
	23	63	1516.544	187.2163	-861.7242	1	881.8268	-77.74253	2.235252E-006	-0.0007189	8
	24	66	1193.986	203.1905	-1083.936	1	1102.816	-79.38277	5.939781E-007	-0.0003169	8
	25	68	946.5144	215.0799	-1355.743	1	1372.697	-80.98552	4.929451E-006	-0.0011256	8
	26	70	751.7689	242.1478	-1688.17	1	1705.448	-81.83729	5.335068E-006	-0.0009883	8
	27	73	597.4265	267.9865	-2109.367	1	2126.322	-82.75959	4.817416E-006	-6.595661E-005	8
	28	77	477.4305	304.1746	-2609.596	1	2627.263	-83.3516	3.81798E-007	0.0006592	8
	29	79	376.6741	349.9652	-3277.263	1	3295.896	-83.90472	3.751727E-007	0.0006231	8
	30	81	298.2954	407.3011	-4100.539	1	4120.718	-84.32749	3.833014E-007	0.0006588	8
	31	83	237.7717	481.7169	-5108.402	1	5131.065	-84.613	3.582906E-008	0.0006395	7
	32	86	189.0121	572.5066	-6368.563	1	6394.245	-84.86316	3.495515E-008	0.0006401	7
	33	88	150.2404	689.723	-7938.633	1	7968.539	-85.03451	3.731502E-008	0.0006268	7
	34	91	119.1737	842.6373	-9916.53	1	9952.26	-85.14307	3.473945E-008	0.0006361	7
	35	93	95.0169	1037.913	-12317.87	1	12361.52	-85.18359	3.549208E-008	0.0006356	7
	36	96	75.60484	1291.178	-15332.94	1	15387.21	-85.18652	3.677517E-008	0.0006249	7
	37	98	54.50582	1817.226	-20960.38	1	21039.01	-85.04495	3.674354E-008	0.0006275	7
	38	101	45.95588	2148.184	-24652.62	1	24746.04	-85.01993	3.57759E-008	0.0006312	7
	39	103	37.20238	2713.561	-30154.71	1	30276.55	-84.85792	3.547567E-008	0.0006349	7
	40	105	30.04808	3415.458	-36934.4	1	37091.98	-84.71667	3.492184E-008	0.000638	7
	41	108	23.91582	4460.345	-45938.64	1	46154.67	-84.45433	2.493769E-009	0.0006721	6
	42	110	18.60119	5872.676	-58201.84	1	58497.37	-84.23825	4.439136E-009	0.0006729	6
	43	112	15.02404	7622.993	-71075.33	1	71482.95	-83.8783	3.729002E-009	0.0006946	6
	44	115	12.01923	9882.95	-87588.58	1	88144.38	-83.56232	3.051735E-009	0.0006742	6
	45	117	9.450605	13174.32	-109562.6	1	110351.8	-83.1434	3.34345E-009	0.0006694	6
	46	120	7.512019	17207.61	-135576.2	1	136663.8	-82.76658	3.411642E-009	0.0006737	6
	47	123	5.978954	22484.78	-167279.8	1	168784.2	-82.34452	3.445733E-009	0.0006799	6
	48	127	4.734848	29751.21	-207244.5	1	209369.1	-81.83066	3.37948E-009	0.0006975	6
	49	131	3.75601	38952.91	-255908	1	258855.6	-81.34518	3.372766E-009	0.0006973	6
	50	136	3.004808	50667.99	-313214.3	1	317286	-80.81099	3.53435E-009	0.0006555	6
	51	143	2.372217	67279.37	-387909.2	1	393700.5	-80.16045	3.131267E-009	0.0006131	6
	52	147	1.878005	88551.52	-478674.3	1	486796.1	-79.51916	-4.80792E-011	0.0006666	5
	53	152	1.512097	113607.4	-579504.6	1	590535.6	-78.90827	-2.482252E-010	0.0006938	5
	54	157	1.201923	150599.6	-712208.3	1	727956.7	-78.06043	-7.204635E-011	0.0006809	5
	55	163	0.956633	198739.1	-869809.8	1	892225.5	-77.12967	-3.399637E-010	2.279734E-005	5
