EXPLAIN
TAG	EISPOT
TITLE	LABEL	Potentiostatic EIS	Test Identifier
DATE	LABEL	2/26/2021	Date
TIME	LABEL	23:53:03	Time
NOTES	NOTES	1	Notes...
	
PSTAT	PSTAT	REF3000-16137	Potentiostat
VDC	POTEN	0.00000E+000	T	DC Voltage (V)
FREQINIT	QUANT	3.00000E+005	Initial Freq. (Hz)
FREQFINAL	QUANT	1.00000E+000	Final Freq. (Hz)
PTSPERDEC	QUANT	1.00000E+001	Points/decade
VAC	QUANT	5.00000E+001	AC Voltage (mV rms)
AREA	QUANT	1.00000E+000	Sample Area (cm^2)
SPEED	SELECTOR	2	Optimize for:
ZGUESS	QUANT	1.00000E+003	Estimated Z (ohms)
EOC	QUANT	0	Open Circuit (V)
SEQUENCER	TOGGLE	TRUE	Run as Sequence
PSTATMODEL	IQUANT	5	Pstat Model
PSTATSECTION	LABEL	REF3000-16137	Pstat Section
PSTATSERIALNO	LABEL	16137	Pstat Serial Number
CTRLMODE	IQUANT	1	Control Mode
IESTAB	IQUANT	0	I/E Stability
CASPEED	IQUANT	1	Control Amp Speed
CONVENTION	IQUANT	1	Current Convention
ICHRANGE	IQUANT	2	Ich Range
ICHRANGEMODE	TOGGLE	F	Ich Auto Range
ICHOFFSETENABLE	TOGGLE	T	Ich Offset Enable
ICHOFFSET	QUANT	0	Ich Offset (V)
ICHFILTER	IQUANT	3	Ich Filter
VCHRANGE	IQUANT	2	Vch Range
VCHRANGEMODE	TOGGLE	F	Vch Auto Range
VCHOFFSETENABLE	TOGGLE	T	Vch Offset Enable
VCHOFFSET	QUANT	0	Vch Offset (V)
VCHFILTER	IQUANT	3	Vch Filter
ACHRANGE	IQUANT	2	Ach Range
ACHOFFSETENABLE	TOGGLE	F	Ach Offset Enable
ACHOFFSET	QUANT	0	Ach Offset (V)
ACHFILTER	IQUANT	3	Ach Filter
IERANGELOWERLIMIT	IQUANT	2	I/E Range Lower Limit
IERANGEMODE	TOGGLE	F	I/E AutoRange
IERANGE	IQUANT	11	I/E Range
POSFEEDENABLE	TOGGLE	F	Positive Feedback IR Comp
POSFEEDRESISTANCE	QUANT	0	Positive Feedback Resistance (ohm)
ACHSELECT	IQUANT	0	Ach Select
CABLEID	IQUANT	13	Cable ID
DCCALDATE	LABEL	7/31/2020	DC Calibration Date
ACCALDATE	LABEL	7/31/2020	AC Calibration Date
THERMOSELECT	IQUANT	1	Thermo Select
FRAMEWORKVERSION	QUANT	6.33	Framework Version
INSTRUMENTVERSION	LABEL	3.50	Instrument Version
COMPLIANCEVOLTAGE	IQUANT	0	Compliance Voltage
ZCURVE	TABLE
	Pt	Time	Freq	Zreal	Zimag	Zsig	Zmod	Zphz	Idc	Vdc	IERange
	#	s	Hz	ohm	ohm	V	ohm	°	A	V	#
	0	20	300046.9	25.43522	-4800.119	1	4800.186	-89.6964	-0.0001084	0.0036409	9
	1	44	238359.4	228.9471	-5917.154	1	5921.582	-87.78421	8.795875E-005	-0.0034657	9
	2	62	189328.1	-145.5957	-7426.461	1	7427.888	-91.12314	8.77399E-005	-0.0025024	9
	3	70	150421.9	376.1297	-8866.156	1	8874.131	-87.57079	2.027841E-005	-0.0003597	9
	4	77	119484.4	706.8492	-11656.05	1	11677.46	-86.5297	2.455233E-005	0.0085305	8
	5	85	94921.88	1221.232	-14312.4	1	14364.4	-85.12294	8.173278E-006	0.0042535	8
	6	93	75421.88	857.6696	-18028.53	1	18048.92	-87.27633	8.229058E-006	-0.0076369	8
	7	102	59859.37	1284.235	-22635.41	1	22671.82	-86.75277	2.578614E-005	-0.0049916	8
	8	111	47578.12	3480.472	-27519.52	1	27738.74	-82.79191	2.253897E-005	-0.0095898	8
	9	119	37828.12	2381.146	-36100.07	1	36178.52	-86.22626	-1.966788E-005	0.0112134	8
	10	128	30046.88	4727.925	-44769.91	1	45018.86	-83.97163	-8.499875E-007	-0.0051073	8
	11	138	23859.38	10527.72	-56460.27	1	57433.39	-79.43778	-6.675026E-006	0.01198	7
	12	143	18984.38	14190.72	-70191.89	1	71612	-78.57055	-5.3108E-006	0.0037127	7
	13	148	15046.87	18251.16	-94313.7	1	96063.4	-79.04775	1.650405E-005	-0.009237	8
	14	156	11953.13	25763.11	-107897.2	1	110930.3	-76.57066	7.695167E-006	-0.0243054	7
	15	162	9515.62	36897.86	-135063.2	1	140012.6	-74.72023	4.273513E-007	0.0162889	7
	16	167	7546.875	48060.43	-172110.7	1	178695	-74.39806	4.14105E-007	0.0163225	7
	17	174	5928.309	85008.16	-215792.5	1	231932.7	-68.49879	2.771291E-006	0.008474	7
	18	179	4733.456	84705.3	-245431.8	1	259637.7	-70.95903	-6.692466E-006	0.0119846	7
	19	185	3796.875	172387.5	-254232.1	1	307166.7	-55.85993	-1.201311E-005	0.0102596	8
	20	193	2987.132	206830.1	-372002.1	1	425633.9	-60.9263	-2.364591E-005	0.0051775	8
	21	201	2390.625	231435.5	-379027.3	1	444099.2	-58.5916	-1.784171E-006	0.0219299	7
	22	208	1884.191	371037.2	-341701.4	1	504409	-42.64309	-7.356804E-007	0.0176743	6
	23	215	1516.544	452395.4	-369775.6	1	584290.7	-39.26162	7.741607E-007	-0.0229267	6
	24	221	1193.986	557971.8	-360626.9	1	664367.6	-32.87529	7.30036E-007	-0.0270673	6
	25	226	946.5144	560317.2	-405886.5	1	691880.9	-35.91908	4.219364E-007	0.0019581	6
	26	230	751.7689	703801.3	-351997.6	1	786917.1	-26.57136	-4.908441E-007	0.0010638	6
	27	234	597.4265	746205.4	-246261.9	1	785791	-18.26387	-5.512835E-007	0.0262439	6
	28	237	477.4305	793306.1	-249141.3	1	831508.2	-17.43513	-7.52798E-009	0.0007108	6
	29	242	376.6741	879582.6	-137425.3	1	890253.5	-8.880057	-8.627616E-010	0.0006611	5
	30	245	298.2954	897565.3	-115111.7	1	904916.6	-7.308224	-9.566036E-010	0.0006399	5
	31	247	237.7717	907780	-108617.6	1	914255.1	-6.823114	-8.358652E-010	0.0007063	5
	32	250	189.0121	921689	-103057.9	1	927432.8	-6.379979	-7.106524E-010	0.0006068	5
	33	253	150.2404	936932.9	-103096.9	1	942588	-6.279373	-8.389722E-010	0.000663	5
	34	256	119.1737	952849	-87653.68	1	956872	-5.255912	-7.97794E-010	0.0006261	5
	35	258	95.0169	970629	-106847.5	1	976492	-6.281868	-7.396004E-010	0.0007014	5
	36	261	75.60484	994395	-120080.1	1	1001619	-6.885525	-9.548282E-010	0.0006334	5
	37	263	54.50582	990855	-133226.5	1	999772	-7.657834	-7.852332E-010	0.000598	5
	38	266	45.95588	1036332	-153961.2	1	1047706	-8.450256	-1.027296E-009	0.0006052	5
	39	268	37.20238	1048660	-182391.8	1	1064404	-9.86666	-8.586675E-010	0.0006994	5
	40	271	30.04808	1079394	-205983.5	1	1098872	-10.804	-6.722732E-010	0.0006317	5
	41	274	23.91582	1104525	-241188.7	1	1130552	-12.31799	-8.411291E-010	0.0006496	5
	42	277	18.60119	1149343	-300618	1	1188007	-14.65772	-1.273135E-009	0.000611	5
	43	279	15.02404	1184191	-340775	1	1232248	-16.05425	-8.471607E-010	0.000597	5
	44	281	12.01923	1227668	-400664.5	1	1291395	-18.07472	-6.363708E-010	0.0007012	5
	45	284	9.450605	1284011	-477785.1	1	1370023	-20.41042	-7.437185E-010	0.0006634	5
	46	287	7.512019	1347482	-562534.1	1	1460189	-22.65911	-1.088695E-009	0.0006981	5
	47	290	5.978954	1430357	-661342.4	1	1575847	-24.81402	-8.766179E-010	0.0006682	5
	48	294	4.734848	1521294	-775771.5	1	1707676	-27.01894	-8.760433E-010	0.0006957	5
	49	298	3.75601	1634149	-906241.8	1	1868614	-29.01121	-8.183165E-010	0.0006926	5
	50	303	3.004808	1763547	-1055052	1	2055051	-30.89022	-8.35534E-010	0.0007329	5
	51	309	2.372217	1911522	-1230012	1	2273070	-32.76017	-8.242805E-010	0.0007275	5
	52	314	1.878005	2062473	-1434142	1	2512082	-34.81285	-9.025982E-010	0.0006357	5
	53	318	1.512097	2217352	-1650951	1	2764469	-36.66989	-8.559956E-010	0.0006406	5
	54	324	1.201923	2392416	-1925856	1	3071250	-38.83351	-8.483566E-010	0.0006273	5
	55	330	0.956633	2576633	-2262929	1	3429268	-41.29124	-8.426044E-010	-4.894332E-005	5
