EXPLAIN
TAG	EISPOT
TITLE	LABEL	Potentiostatic EIS	Test Identifier
DATE	LABEL	2/26/2021	Date
TIME	LABEL	23:07:17	Time
NOTES	NOTES	1	Notes...
	
PSTAT	PSTAT	REF3000-16137	Potentiostat
VDC	POTEN	0.00000E+000	T	DC Voltage (V)
FREQINIT	QUANT	3.00000E+005	Initial Freq. (Hz)
FREQFINAL	QUANT	1.00000E+000	Final Freq. (Hz)
PTSPERDEC	QUANT	1.00000E+001	Points/decade
VAC	QUANT	5.00000E+001	AC Voltage (mV rms)
AREA	QUANT	1.00000E+000	Sample Area (cm^2)
SPEED	SELECTOR	2	Optimize for:
ZGUESS	QUANT	1.00000E+003	Estimated Z (ohms)
EOC	QUANT	0	Open Circuit (V)
SEQUENCER	TOGGLE	TRUE	Run as Sequence
PSTATMODEL	IQUANT	5	Pstat Model
PSTATSECTION	LABEL	REF3000-16137	Pstat Section
PSTATSERIALNO	LABEL	16137	Pstat Serial Number
CTRLMODE	IQUANT	1	Control Mode
IESTAB	IQUANT	0	I/E Stability
CASPEED	IQUANT	1	Control Amp Speed
CONVENTION	IQUANT	1	Current Convention
ICHRANGE	IQUANT	2	Ich Range
ICHRANGEMODE	TOGGLE	F	Ich Auto Range
ICHOFFSETENABLE	TOGGLE	T	Ich Offset Enable
ICHOFFSET	QUANT	0	Ich Offset (V)
ICHFILTER	IQUANT	3	Ich Filter
VCHRANGE	IQUANT	2	Vch Range
VCHRANGEMODE	TOGGLE	F	Vch Auto Range
VCHOFFSETENABLE	TOGGLE	T	Vch Offset Enable
VCHOFFSET	QUANT	0	Vch Offset (V)
VCHFILTER	IQUANT	3	Vch Filter
ACHRANGE	IQUANT	2	Ach Range
ACHOFFSETENABLE	TOGGLE	F	Ach Offset Enable
ACHOFFSET	QUANT	0	Ach Offset (V)
ACHFILTER	IQUANT	3	Ach Filter
IERANGELOWERLIMIT	IQUANT	2	I/E Range Lower Limit
IERANGEMODE	TOGGLE	F	I/E AutoRange
IERANGE	IQUANT	11	I/E Range
POSFEEDENABLE	TOGGLE	F	Positive Feedback IR Comp
POSFEEDRESISTANCE	QUANT	0	Positive Feedback Resistance (ohm)
ACHSELECT	IQUANT	0	Ach Select
CABLEID	IQUANT	13	Cable ID
DCCALDATE	LABEL	7/31/2020	DC Calibration Date
ACCALDATE	LABEL	7/31/2020	AC Calibration Date
THERMOSELECT	IQUANT	1	Thermo Select
FRAMEWORKVERSION	QUANT	6.33	Framework Version
INSTRUMENTVERSION	LABEL	3.50	Instrument Version
COMPLIANCEVOLTAGE	IQUANT	0	Compliance Voltage
ZCURVE	TABLE
	Pt	Time	Freq	Zreal	Zimag	Zsig	Zmod	Zphz	Idc	Vdc	IERange
	#	s	Hz	ohm	ohm	V	ohm	°	A	V	#
	0	7	300046.9	148.4845	-18.10988	1	149.5848	-6.953722	2.882892E-005	0.0003268	9
	1	10	238359.4	151.4894	-22.0282	1	153.0826	-8.273439	4.908624E-005	-0.0004735	9
	2	13	189328.1	154.39	-26.70755	1	156.683	-9.81433	-8.785498E-005	0.0030716	9
	3	15	150421.9	157.2617	-31.90672	1	160.4659	-11.46902	6.926698E-005	-0.0016089	9
	4	18	119484.4	161.4804	-38.42462	1	165.9891	-13.38474	-5.494252E-006	0.0013739	9
	5	22	94921.88	166.167	-45.60476	1	172.3116	-15.34702	2.104046E-006	0.0005726	9
	6	24	75421.88	171.6347	-54.20439	1	179.9905	-17.52677	-2.071421E-005	0.0008537	9
	7	27	59859.37	177.7066	-64.3317	1	188.9926	-19.9008	-1.069562E-006	-0.0003561	9
	8	30	47578.12	185.0261	-75.65589	1	199.8962	-22.23931	-6.675395E-006	-0.0001456	9
	9	32	37828.12	193.7733	-88.69414	1	213.1073	-24.59457	2.592223E-005	-0.0006438	9
	10	35	30046.88	203.8693	-103.6338	1	228.6977	-26.9458	2.539348E-005	-0.0004165	9
	11	37	23859.38	215.8084	-120.0117	1	246.9333	-29.07857	-2.934293E-006	-0.0002768	9
	12	39	18984.38	228.592	-138.7838	1	267.4233	-31.26296	1.409945E-005	-0.0007102	9
	13	42	15046.87	243.5999	-160.1727	1	291.5411	-33.32586	-2.20692E-005	0.0007979	9
	14	44	11953.13	257.3322	-185.0575	1	316.9639	-35.72137	-2.241147E-005	0.0006652	9
	15	46	9515.62	272.6981	-212.8786	1	345.9503	-37.97697	2.654838E-005	-0.0006078	9
	16	49	7546.875	287.7266	-246.4316	1	378.8339	-40.57934	2.323399E-006	0.0006117	9
	17	51	5928.309	300.7375	-291.1138	1	418.5574	-44.06843	4.165561E-006	-0.0021811	8
	18	53	4733.456	312.92	-345.3743	1	466.0497	-47.82243	1.547262E-006	0.0021692	8
	19	55	3796.875	326.1337	-410.1176	1	523.9844	-51.50758	-1.456303E-006	0.003056	8
	20	58	2987.132	337.6459	-503.4263	1	606.1707	-56.15041	4.816739E-006	0.0010412	8
	21	60	2390.625	350.5496	-608.6391	1	702.3721	-60.05993	-4.980138E-006	0.0006365	8
	22	62	1884.191	363.9441	-756.1395	1	839.1675	-64.29762	-1.719298E-006	-0.0005987	8
	23	65	1516.544	377.9593	-923.511	1	997.861	-67.74251	1.366205E-006	0.0022774	8
	24	67	1193.986	397.7072	-1152.936	1	1219.604	-70.96804	1.018102E-006	-0.0015225	8
	25	70	946.5144	418.6689	-1434.81	1	1494.645	-73.73308	7.539046E-006	-0.0001969	8
	26	72	751.7689	444.4037	-1790.934	1	1845.248	-76.06406	9.887648E-006	-0.0019599	8
	27	75	597.4265	470.6795	-2226.48	1	2275.687	-78.06338	-6.8348E-006	0.0040241	8
	28	77	477.4305	509.6689	-2754.816	1	2801.567	-79.51822	1.880289E-007	0.000647	8
	29	80	376.6741	557.6226	-3457.443	1	3502.121	-80.83813	1.672268E-007	0.0006466	8
	30	82	298.2954	615.7529	-4324.821	1	4368.435	-81.89689	1.763858E-007	0.000644	8
	31	84	237.7717	691.7363	-5387.39	1	5431.618	-82.6833	9.435047E-009	0.0006193	7
	32	87	189.0121	781.2778	-6716.838	1	6762.123	-83.36538	8.557728E-009	0.0006348	7
	33	89	150.2404	893.7654	-8375.278	1	8422.832	-83.90875	8.223446E-009	0.0006295	7
	34	91	119.1737	1038.27	-10464.27	1	10515.65	-84.33363	1.153064E-008	0.0006207	7
	35	94	95.0169	1216.239	-13012.21	1	13068.93	-84.66013	8.528498E-009	0.0006227	7
	36	96	75.60484	1445.762	-16211.7	1	16276.04	-84.90384	7.549085E-009	0.0006359	7
	37	99	54.50582	1909.652	-22199.94	1	22281.92	-85.08349	1.081385E-008	0.0006179	7
	38	101	45.95588	2204.85	-26156.19	1	26248.96	-85.18161	1.215784E-008	0.0006204	7
	39	104	37.20238	2683.394	-32024.58	1	32136.8	-85.21028	8.8153E-009	0.0006115	7
	40	106	30.04808	3307.634	-39309.08	1	39448	-85.19022	9.962068E-009	0.0006291	7
	41	109	23.91582	4174.285	-48931	1	49108.73	-85.12392	-5.300563E-010	0.0006606	6
	42	111	18.60119	5516.638	-62128.09	1	62372.54	-84.92575	1.256131E-009	0.0006689	6
	43	113	15.02404	6848.064	-76208.55	1	76515.62	-84.86522	4.653111E-010	0.0006786	6
	44	116	12.01923	8763.945	-94232.24	1	94638.91	-84.68657	5.864717E-010	0.0006644	6
	45	118	9.450605	11525.83	-118373.3	1	118933.1	-84.43873	4.950449E-010	0.0006829	6
	46	121	7.512019	14975.06	-147015.6	1	147776.3	-84.18389	8.932658E-010	0.0006594	6
	47	124	5.978954	19550.67	-182140.8	1	183187.1	-83.87343	8.561286E-010	0.0006677	6
	48	128	4.734848	25735.42	-226761.5	1	228217.2	-83.52514	9.780922E-010	0.0006495	6
	49	131	3.75601	33604.91	-281332.3	1	283332.2	-83.18834	4.795274E-010	0.0006611	6
	50	137	3.004808	43597.62	-345993.8	1	348729.8	-82.81818	6.003579E-010	0.0006733	6
	51	143	2.372217	58021.92	-430066.5	1	433962.8	-82.3164	5.970494E-010	0.0006947	6
	52	148	1.878005	76697.42	-534266.1	1	539743.3	-81.83063	-2.52209E-010	0.0006447	5
	53	152	1.512097	97671.4	-651275.5	1	658558.6	-81.47095	-1.086868E-010	0.0005672	5
	54	158	1.201923	129196	-803984.8	1	814299.1	-80.87093	-2.245897E-010	0.0006693	5
	55	164	0.956633	168745.4	-988930	1	1003223	-80.31663	-2.363235E-010	1.430469E-005	5
