EXPLAIN
TAG	EISPOT
TITLE	LABEL	Potentiostatic EIS	Test Identifier
DATE	LABEL	2/26/2021	Date
TIME	LABEL	22:55:49	Time
NOTES	NOTES	1	Notes...
	
PSTAT	PSTAT	REF3000-16137	Potentiostat
VDC	POTEN	0.00000E+000	T	DC Voltage (V)
FREQINIT	QUANT	3.00000E+005	Initial Freq. (Hz)
FREQFINAL	QUANT	1.00000E+000	Final Freq. (Hz)
PTSPERDEC	QUANT	1.00000E+001	Points/decade
VAC	QUANT	5.00000E+001	AC Voltage (mV rms)
AREA	QUANT	1.00000E+000	Sample Area (cm^2)
SPEED	SELECTOR	2	Optimize for:
ZGUESS	QUANT	1.00000E+003	Estimated Z (ohms)
EOC	QUANT	0	Open Circuit (V)
SEQUENCER	TOGGLE	TRUE	Run as Sequence
PSTATMODEL	IQUANT	5	Pstat Model
PSTATSECTION	LABEL	REF3000-16137	Pstat Section
PSTATSERIALNO	LABEL	16137	Pstat Serial Number
CTRLMODE	IQUANT	1	Control Mode
IESTAB	IQUANT	0	I/E Stability
CASPEED	IQUANT	1	Control Amp Speed
CONVENTION	IQUANT	1	Current Convention
ICHRANGE	IQUANT	2	Ich Range
ICHRANGEMODE	TOGGLE	F	Ich Auto Range
ICHOFFSETENABLE	TOGGLE	T	Ich Offset Enable
ICHOFFSET	QUANT	0	Ich Offset (V)
ICHFILTER	IQUANT	3	Ich Filter
VCHRANGE	IQUANT	2	Vch Range
VCHRANGEMODE	TOGGLE	F	Vch Auto Range
VCHOFFSETENABLE	TOGGLE	T	Vch Offset Enable
VCHOFFSET	QUANT	0	Vch Offset (V)
VCHFILTER	IQUANT	3	Vch Filter
ACHRANGE	IQUANT	2	Ach Range
ACHOFFSETENABLE	TOGGLE	F	Ach Offset Enable
ACHOFFSET	QUANT	0	Ach Offset (V)
ACHFILTER	IQUANT	3	Ach Filter
IERANGELOWERLIMIT	IQUANT	2	I/E Range Lower Limit
IERANGEMODE	TOGGLE	F	I/E AutoRange
IERANGE	IQUANT	11	I/E Range
POSFEEDENABLE	TOGGLE	F	Positive Feedback IR Comp
POSFEEDRESISTANCE	QUANT	0	Positive Feedback Resistance (ohm)
ACHSELECT	IQUANT	0	Ach Select
CABLEID	IQUANT	13	Cable ID
DCCALDATE	LABEL	7/31/2020	DC Calibration Date
ACCALDATE	LABEL	7/31/2020	AC Calibration Date
THERMOSELECT	IQUANT	1	Thermo Select
FRAMEWORKVERSION	QUANT	6.33	Framework Version
INSTRUMENTVERSION	LABEL	3.50	Instrument Version
COMPLIANCEVOLTAGE	IQUANT	0	Compliance Voltage
ZCURVE	TABLE
	Pt	Time	Freq	Zreal	Zimag	Zsig	Zmod	Zphz	Idc	Vdc	IERange
	#	s	Hz	ohm	ohm	V	ohm	°	A	V	#
	0	7	300046.9	61.52435	-12.41337	1	62.76414	-11.40705	1.08328E-005	-0.0014123	9
	1	10	238359.4	62.901	-15.67012	1	64.82352	-13.98897	-6.519269E-005	0.0015787	9
	2	13	189328.1	64.87914	-19.41596	1	67.72209	-16.66052	3.092942E-005	-3.799529E-005	9
	3	15	150421.9	67.14291	-23.64091	1	71.18331	-19.39708	7.747444E-006	-0.0009588	9
	4	18	119484.4	69.778	-28.14977	1	75.24213	-21.97008	1.002941E-005	-0.0009421	9
	5	21	94921.88	73.05057	-33.00942	1	80.16238	-24.31682	-1.604319E-005	0.0006924	9
	6	23	75421.88	76.63825	-38.73551	1	85.87119	-26.81354	-1.280185E-005	0.0007356	9
	7	26	59859.37	80.91673	-45.17932	1	92.67517	-29.17652	2.07089E-005	-0.0004935	9
	8	28	47578.12	85.58334	-52.2024	1	100.2477	-31.38151	1.573134E-005	-0.0006028	9
	9	31	37828.12	90.54661	-60.20093	1	108.7329	-33.61839	-9.706674E-006	0.000676	9
	10	33	30046.88	95.591	-69.14645	1	117.9783	-35.88037	1.99865E-005	-0.0003502	9
	11	36	23859.38	100.5987	-80.03973	1	128.5553	-38.50695	-9.643356E-006	7.569975E-005	9
	12	38	18984.38	105.2387	-93.04237	1	140.4709	-41.48014	1.175092E-005	0.0001582	9
	13	40	15046.87	109.6919	-110.0258	1	155.3641	-45.08707	2.114719E-005	-0.0003043	9
	14	42	11953.13	113.6677	-131.0763	1	173.4974	-49.06857	-1.253109E-005	0.0007641	9
	15	45	9515.62	117.4408	-157.6932	1	196.6201	-53.32338	3.187553E-006	-0.0002835	9
	16	47	7546.875	121.265	-191.9547	1	227.0503	-57.71786	-1.558538E-005	0.0004187	9
	17	49	5928.309	126.3092	-237.4456	1	268.9506	-61.98925	-1.043064E-005	0.0001113	9
	18	52	4733.456	130.3309	-291.532	1	319.3384	-65.91271	2.265659E-005	-0.0004434	9
	19	54	3796.875	135.0891	-357.1495	1	381.844	-69.28126	-1.434001E-005	0.0002528	9
	20	56	2987.132	142.2679	-444.8867	1	467.0806	-72.26653	2.157541E-006	-0.0005569	8
	21	59	2390.625	148.7538	-549.1064	1	568.8985	-74.84229	3.355536E-006	-0.0007848	8
	22	61	1884.191	158.9644	-687.4586	1	705.5983	-76.98006	4.948698E-006	-0.0008757	8
	23	63	1516.544	170.482	-845.7276	1	862.7394	-78.60303	5.12777E-006	-0.0009206	8
	24	66	1193.986	185.0584	-1063.148	1	1079.135	-80.12566	2.267142E-006	-0.0005956	8
	25	68	946.5144	209.6797	-1322.398	1	1338.918	-80.99018	3.382591E-006	-0.0007774	8
	26	70	751.7689	221.2301	-1653.579	1	1668.313	-82.37973	5.372859E-006	-0.0007124	8
	27	73	597.4265	254.4372	-2064.963	1	2080.58	-82.97563	-1.504025E-006	0.0019776	8
	28	75	477.4305	288.5288	-2557.238	1	2573.463	-83.56264	3.953733E-007	0.0006585	8
	29	77	376.6741	335.595	-3210.495	1	3227.988	-84.03251	4.220466E-007	0.0006499	8
	30	80	298.2954	394.7253	-4016.256	1	4035.606	-84.38689	4.152554E-007	0.0006511	8
	31	82	237.7717	471.6211	-5001.556	1	5023.742	-84.61323	3.855635E-008	0.0006325	7
	32	84	189.0121	566.9701	-6232.812	1	6258.546	-84.80238	3.903637E-008	0.0006289	7
	33	87	150.2404	689.6229	-7766.297	1	7796.855	-84.92562	3.982809E-008	0.0006374	7
	34	89	119.1737	851.8141	-9693.42	1	9730.77	-84.978	3.855404E-008	0.0006424	7
	35	91	95.0169	1057.163	-12038.84	1	12085.16	-84.98158	4.057824E-008	0.0006337	7
	36	94	75.60484	1327.041	-14971.58	1	15030.28	-84.93469	4.051125E-008	0.0006316	7
	37	96	54.50582	1873.253	-20467.44	1	20552.99	-84.77065	3.902194E-008	0.0006396	7
	38	99	45.95588	2245.684	-24029.55	1	24134.26	-84.66093	3.863697E-008	0.000649	7
	39	101	37.20238	2850.753	-29396.72	1	29534.62	-84.46105	3.792547E-008	0.0006457	7
	40	104	30.04808	3630.469	-36012.89	1	36195.42	-84.24345	4.003843E-008	0.0006324	7
	41	106	23.91582	4720.812	-44579.5	1	44828.76	-83.95511	2.517041E-009	0.0006878	6
	42	108	18.60119	6334.096	-56372.25	1	56726.99	-83.58903	3.641874E-009	0.0006804	6
	43	111	15.02404	8124.466	-68859.42	1	69337.05	-83.271	3.762319E-009	0.0006932	6
	44	113	12.01923	10545.68	-84704.02	1	85357.96	-82.90317	3.666726E-009	0.0006856	6
	45	116	9.450605	13987.29	-105698.8	1	106620.3	-82.46176	3.253682E-009	0.0006875	6
	46	118	7.512019	18392.95	-130570.9	1	131860	-81.98175	3.912503E-009	0.0006394	6
	47	121	5.978954	24002.79	-160725.1	1	162507.5	-81.50619	3.485888E-009	0.0006849	6
	48	126	4.734848	31564.91	-198577.6	1	201070.6	-80.96811	3.777808E-009	0.0006546	6
	49	129	3.75601	41231.41	-244761.9	1	248210.5	-80.438	3.584977E-009	0.0006659	6
	50	135	3.004808	53375.4	-298948.4	1	303676	-79.87686	3.710976E-009	0.000688	6
	51	141	2.372217	70651.91	-368800.5	1	375507	-79.15512	3.605754E-009	0.0007034	6
	52	145	1.878005	93576.59	-454377.6	1	463913.3	-78.36295	-5.027554E-010	0.00067	5
	53	150	1.512097	120133.9	-549827.4	1	562798.7	-77.67493	-3.341463E-010	0.0005659	5
	54	155	1.201923	158886.3	-672035.4	1	690562.4	-76.69807	-4.525613E-010	0.0006772	5
	55	162	0.956633	208637.1	-817823.5	1	844017	-75.68839	-4.978005E-010	2.31941E-005	5
