EXPLAIN
TAG	EISPOT
TITLE	LABEL	Potentiostatic EIS	Test Identifier
DATE	LABEL	2/26/2021	Date
TIME	LABEL	21:58:30	Time
NOTES	NOTES	1	Notes...
	
PSTAT	PSTAT	REF3000-16137	Potentiostat
VDC	POTEN	0.00000E+000	T	DC Voltage (V)
FREQINIT	QUANT	3.00000E+005	Initial Freq. (Hz)
FREQFINAL	QUANT	1.00000E+000	Final Freq. (Hz)
PTSPERDEC	QUANT	1.00000E+001	Points/decade
VAC	QUANT	5.00000E+001	AC Voltage (mV rms)
AREA	QUANT	1.00000E+000	Sample Area (cm^2)
SPEED	SELECTOR	2	Optimize for:
ZGUESS	QUANT	1.00000E+003	Estimated Z (ohms)
EOC	QUANT	0	Open Circuit (V)
SEQUENCER	TOGGLE	TRUE	Run as Sequence
PSTATMODEL	IQUANT	5	Pstat Model
PSTATSECTION	LABEL	REF3000-16137	Pstat Section
PSTATSERIALNO	LABEL	16137	Pstat Serial Number
CTRLMODE	IQUANT	1	Control Mode
IESTAB	IQUANT	0	I/E Stability
CASPEED	IQUANT	1	Control Amp Speed
CONVENTION	IQUANT	1	Current Convention
ICHRANGE	IQUANT	2	Ich Range
ICHRANGEMODE	TOGGLE	F	Ich Auto Range
ICHOFFSETENABLE	TOGGLE	T	Ich Offset Enable
ICHOFFSET	QUANT	0	Ich Offset (V)
ICHFILTER	IQUANT	3	Ich Filter
VCHRANGE	IQUANT	2	Vch Range
VCHRANGEMODE	TOGGLE	F	Vch Auto Range
VCHOFFSETENABLE	TOGGLE	T	Vch Offset Enable
VCHOFFSET	QUANT	0	Vch Offset (V)
VCHFILTER	IQUANT	3	Vch Filter
ACHRANGE	IQUANT	2	Ach Range
ACHOFFSETENABLE	TOGGLE	F	Ach Offset Enable
ACHOFFSET	QUANT	0	Ach Offset (V)
ACHFILTER	IQUANT	3	Ach Filter
IERANGELOWERLIMIT	IQUANT	2	I/E Range Lower Limit
IERANGEMODE	TOGGLE	F	I/E AutoRange
IERANGE	IQUANT	11	I/E Range
POSFEEDENABLE	TOGGLE	F	Positive Feedback IR Comp
POSFEEDRESISTANCE	QUANT	0	Positive Feedback Resistance (ohm)
ACHSELECT	IQUANT	0	Ach Select
CABLEID	IQUANT	13	Cable ID
DCCALDATE	LABEL	7/31/2020	DC Calibration Date
ACCALDATE	LABEL	7/31/2020	AC Calibration Date
THERMOSELECT	IQUANT	1	Thermo Select
FRAMEWORKVERSION	QUANT	6.33	Framework Version
INSTRUMENTVERSION	LABEL	3.50	Instrument Version
COMPLIANCEVOLTAGE	IQUANT	0	Compliance Voltage
ZCURVE	TABLE
	Pt	Time	Freq	Zreal	Zimag	Zsig	Zmod	Zphz	Idc	Vdc	IERange
	#	s	Hz	ohm	ohm	V	ohm	°	A	V	#
	0	8	300046.9	17.82263	-5.867256	1	18.76355	-18.22168	1.25611E-005	0.0003285	10
	1	11	238359.4	18.70308	-7.462339	1	20.13682	-21.7515	-3.014421E-005	0.0003299	10
	2	15	189328.1	19.69599	-9.219147	1	21.74683	-25.08299	5.162588E-005	0.0005728	10
	3	17	150421.9	20.81823	-10.98139	1	23.53699	-27.81115	1.259781E-005	0.0005708	10
	4	20	119484.4	21.95442	-12.86867	1	25.44797	-30.37686	-0.0000999	0.0006876	10
	5	22	94921.88	23.08688	-15.04015	1	27.55377	-33.08258	-2.628249E-005	0.0006652	10
	6	25	75421.88	24.27186	-17.58979	1	29.97538	-35.9308	2.575865E-005	0.0006238	10
	7	27	59859.37	25.34678	-20.68215	1	32.71407	-39.21333	-3.158788E-005	0.0006721	10
	8	30	47578.12	26.47983	-24.44869	1	36.04053	-42.71613	2.733349E-005	0.0006875	10
	9	32	37828.12	27.67603	-29.08393	1	40.14771	-46.4209	5.0051E-006	-0.0001633	9
	10	35	30046.88	28.9464	-35.13378	1	45.52227	-50.5152	8.151574E-006	-3.838023E-005	9
	11	37	23859.38	30.35777	-42.6304	1	52.33493	-54.54475	1.001613E-005	-3.845617E-006	9
	12	40	18984.38	32.0592	-51.94271	1	61.03965	-58.31699	1.134751E-005	-0.0002563	9
	13	42	15046.87	34.20144	-63.68229	1	72.28535	-61.76138	3.329415E-007	-4.039207E-005	9
	14	44	11953.13	37.1689	-77.87772	1	86.29292	-64.48614	-9.538677E-006	0.0003246	9
	15	47	9515.62	40.36162	-95.5951	1	103.7665	-67.10984	-1.045313E-005	0.0003296	9
	16	49	7546.875	45.49221	-116.9776	1	125.5121	-68.7491	-8.622503E-006	0.0003672	9
	17	51	5928.309	51.20667	-145.1514	1	153.919	-70.56812	-5.682585E-006	0.0003763	9
	18	54	4733.456	59.02814	-176.6631	1	186.2637	-71.52406	-3.720557E-006	8.869976E-005	9
	19	56	3796.875	68.10196	-214.3197	1	224.8795	-72.37189	1.361022E-005	-0.0002246	9
	20	58	2987.132	80.59515	-263.7777	1	275.8156	-73.0099	1.416674E-005	-0.0002117	9
	21	61	2390.625	93.83186	-320.187	1	333.6527	-73.6666	-1.058393E-005	0.0003639	9
	22	63	1884.191	116.1035	-390.6977	1	407.584	-73.44965	1.30009E-005	-0.0002716	9
	23	65	1516.544	138.0916	-466.5938	1	486.5995	-73.51353	2.4886E-006	0.0001491	8
	24	68	1193.986	168.7715	-569.5909	1	594.0687	-73.49529	1.711282E-006	0.0003053	8
	25	70	946.5144	207.3834	-689.8797	1	720.3762	-73.2688	-1.028713E-006	0.0009374	8
	26	72	751.7689	250.4752	-835.8504	1	872.5731	-73.31836	-1.382284E-006	0.0010808	8
	27	75	597.4265	304.0984	-1008.925	1	1053.758	-73.22676	2.062275E-006	0.0003708	8
	28	77	477.4305	369.7857	-1210.8	1	1266.009	-73.01701	5.867045E-007	0.0006625	8
	29	79	376.6741	453.3881	-1467.65	1	1536.085	-72.83298	5.850899E-007	0.000657	8
	30	82	298.2954	553.6748	-1772.549	1	1857.01	-72.65324	5.917557E-007	0.0006593	8
	31	84	237.7717	671.9138	-2128.545	1	2232.078	-72.48075	5.990693E-007	0.0006542	8
	32	86	189.0121	816.8274	-2561.17	1	2688.271	-72.3111	5.916326E-007	0.0006534	8
	33	89	150.2404	992.771	-3079.667	1	3235.729	-72.1326	6.027752E-007	0.000651	8
	34	91	119.1737	1208.144	-3708.874	1	3900.687	-71.95728	5.934484E-007	0.0006628	8
	35	94	95.0169	1465.815	-4452.853	1	4687.911	-71.77921	3.337591E-008	0.0006282	7
	36	96	75.60484	1776.105	-5343.482	1	5630.928	-71.61385	3.28717E-008	0.0006259	7
	37	99	54.50582	2334.025	-6927.849	1	7310.456	-71.38108	3.663589E-008	0.0006272	7
	38	101	45.95588	2694.765	-7940.573	1	8385.371	-71.2545	3.282488E-008	0.0006352	7
	39	104	37.20238	3216.359	-9389.025	1	9924.65	-71.09029	3.194933E-008	0.0006381	7
	40	106	30.04808	3855.247	-11125.62	1	11774.65	-70.88779	3.349995E-008	0.0006367	7
	41	108	23.91582	4651.84	-13320.13	1	14109.06	-70.74908	3.459308E-008	0.0006349	7
	42	111	18.60119	5752.8	-16257.99	1	17245.78	-70.51395	3.282736E-008	0.0006358	7
	43	113	15.02404	6900.122	-19233.42	1	20433.7	-70.2642	3.75411E-008	0.0006323	7
	44	115	12.01923	8342.665	-22918.97	1	24390.14	-69.99814	3.794995E-008	0.000637	7
	45	118	9.450605	10259.13	-27646.83	1	29488.93	-69.64121	3.794636E-008	0.000614	7
	46	120	7.512019	12524.87	-33082.88	1	35374.41	-69.26381	3.873891E-008	0.0006561	7
	47	123	5.978954	15288.08	-39443.71	1	42302.86	-68.81405	3.912725E-008	0.0006304	7
	48	126	4.734848	18877.89	-47142.94	1	50782.2	-68.1769	-2.141671E-008	0.0007123	6
	49	129	3.75601	23284.89	-56135.82	1	60773.49	-67.47154	-2.196087E-008	0.0006764	6
	50	135	3.004808	28576.99	-66355.38	1	72247.35	-66.70011	-2.22925E-008	0.0007245	6
	51	141	2.372217	35667.7	-79161.88	1	86826.19	-65.74526	-2.170325E-008	0.0007527	6
	52	145	1.878005	44455.78	-93441.02	1	103477.3	-64.55663	-2.249316E-008	0.000664	6
	53	150	1.512097	54556.73	-108607.1	1	121539.9	-63.3282	-2.228988E-008	0.0007433	6
	54	156	1.201923	67953.95	-127276	1	144280.7	-61.90178	-2.166757E-008	0.0006527	6
	55	162	0.956633	84292.88	-147764.7	1	170116.7	-60.29726	-2.379445E-008	4.281673E-005	6
