EXPLAIN
TAG	EISPOT
TITLE	LABEL	Potentiostatic EIS	Test Identifier
DATE	LABEL	2/26/2021	Date
TIME	LABEL	23:04:25	Time
NOTES	NOTES	1	Notes...
	
PSTAT	PSTAT	REF3000-16137	Potentiostat
VDC	POTEN	0.00000E+000	T	DC Voltage (V)
FREQINIT	QUANT	3.00000E+005	Initial Freq. (Hz)
FREQFINAL	QUANT	1.00000E+000	Final Freq. (Hz)
PTSPERDEC	QUANT	1.00000E+001	Points/decade
VAC	QUANT	5.00000E+001	AC Voltage (mV rms)
AREA	QUANT	1.00000E+000	Sample Area (cm^2)
SPEED	SELECTOR	2	Optimize for:
ZGUESS	QUANT	1.00000E+003	Estimated Z (ohms)
EOC	QUANT	0	Open Circuit (V)
SEQUENCER	TOGGLE	TRUE	Run as Sequence
PSTATMODEL	IQUANT	5	Pstat Model
PSTATSECTION	LABEL	REF3000-16137	Pstat Section
PSTATSERIALNO	LABEL	16137	Pstat Serial Number
CTRLMODE	IQUANT	1	Control Mode
IESTAB	IQUANT	0	I/E Stability
CASPEED	IQUANT	1	Control Amp Speed
CONVENTION	IQUANT	1	Current Convention
ICHRANGE	IQUANT	2	Ich Range
ICHRANGEMODE	TOGGLE	F	Ich Auto Range
ICHOFFSETENABLE	TOGGLE	T	Ich Offset Enable
ICHOFFSET	QUANT	0	Ich Offset (V)
ICHFILTER	IQUANT	3	Ich Filter
VCHRANGE	IQUANT	2	Vch Range
VCHRANGEMODE	TOGGLE	F	Vch Auto Range
VCHOFFSETENABLE	TOGGLE	T	Vch Offset Enable
VCHOFFSET	QUANT	0	Vch Offset (V)
VCHFILTER	IQUANT	3	Vch Filter
ACHRANGE	IQUANT	2	Ach Range
ACHOFFSETENABLE	TOGGLE	F	Ach Offset Enable
ACHOFFSET	QUANT	0	Ach Offset (V)
ACHFILTER	IQUANT	3	Ach Filter
IERANGELOWERLIMIT	IQUANT	2	I/E Range Lower Limit
IERANGEMODE	TOGGLE	F	I/E AutoRange
IERANGE	IQUANT	11	I/E Range
POSFEEDENABLE	TOGGLE	F	Positive Feedback IR Comp
POSFEEDRESISTANCE	QUANT	0	Positive Feedback Resistance (ohm)
ACHSELECT	IQUANT	0	Ach Select
CABLEID	IQUANT	13	Cable ID
DCCALDATE	LABEL	7/31/2020	DC Calibration Date
ACCALDATE	LABEL	7/31/2020	AC Calibration Date
THERMOSELECT	IQUANT	1	Thermo Select
FRAMEWORKVERSION	QUANT	6.33	Framework Version
INSTRUMENTVERSION	LABEL	3.50	Instrument Version
COMPLIANCEVOLTAGE	IQUANT	0	Compliance Voltage
ZCURVE	TABLE
	Pt	Time	Freq	Zreal	Zimag	Zsig	Zmod	Zphz	Idc	Vdc	IERange
	#	s	Hz	ohm	ohm	V	ohm	°	A	V	#
	0	7	300046.9	92.67266	-14.96585	1	93.87331	-9.17358	5.248871E-005	-0.0007649	9
	1	10	238359.4	94.51506	-18.79116	1	96.365	-11.24472	4.667209E-005	-0.0007333	9
	2	13	189328.1	96.7706	-23.08833	1	99.4868	-13.41923	6.344211E-005	-0.001666	9
	3	16	150421.9	99.2718	-27.63096	1	103.0455	-15.55382	8.082162E-006	-0.0010179	9
	4	18	119484.4	102.1768	-33.3494	1	107.4815	-18.07612	-5.106896E-005	0.0009834	9
	5	21	94921.88	105.85	-39.34489	1	112.9259	-20.3903	-1.132849E-005	0.0008178	9
	6	23	75421.88	110.1763	-46.55429	1	119.6082	-22.90618	1.253152E-005	0.0001661	9
	7	26	59859.37	115.3537	-54.6161	1	127.6299	-25.33598	-1.900978E-005	0.0004488	9
	8	28	47578.12	121.2872	-63.79852	1	137.0432	-27.74491	2.089408E-005	-0.0005978	9
	9	31	37828.12	128.2275	-73.93248	1	148.0145	-29.96658	4.283596E-006	0.0003734	9
	10	33	30046.88	135.7097	-85.14158	1	160.2068	-32.10334	2.0039E-005	-0.000104	9
	11	36	23859.38	143.9104	-97.826	1	174.0118	-34.20669	1.836296E-005	-0.0007089	9
	12	38	18984.38	151.8963	-112.5231	1	189.0342	-36.53064	-4.305197E-006	0.0007183	9
	13	40	15046.87	159.2801	-130.4895	1	205.9069	-39.32589	-1.648553E-005	0.0003385	9
	14	43	11953.13	167.1628	-152.3407	1	226.166	-42.3439	5.638682E-006	-0.0004746	9
	15	45	9515.62	174.1924	-178.8207	1	249.6394	-45.75115	-1.169179E-005	0.0008412	9
	16	47	7546.875	180.2559	-213.6112	1	279.503	-49.84064	5.515664E-006	-0.0004784	9
	17	50	5928.309	186.6927	-260.3178	1	320.3429	-54.35296	4.403254E-006	-0.0004428	9
	18	52	4733.456	192.2974	-316.7398	1	370.5434	-58.73745	4.338493E-006	0.0004295	9
	19	54	3796.875	198.3692	-382.8023	1	431.1473	-62.60668	7.343414E-006	-0.0013134	8
	20	57	2987.132	206.3934	-475.8128	1	518.6483	-66.55023	6.962513E-006	-0.0011429	8
	21	59	2390.625	215.4341	-584.0952	1	622.5584	-69.75432	1.188398E-006	0.0015079	8
	22	61	1884.191	224.5552	-729.9216	1	763.6823	-72.89986	3.629507E-006	0.0006948	8
	23	63	1516.544	236.9866	-897.1031	1	927.8775	-75.20229	-5.451013E-006	0.0025404	8
	24	66	1193.986	250.4494	-1124.604	1	1152.155	-77.44511	-5.85671E-007	0.002164	8
	25	68	946.5144	276.9234	-1402.821	1	1429.893	-78.83312	-5.297072E-006	0.0024744	8
	26	71	751.7689	295.566	-1745.141	1	1769.993	-80.38731	-3.431083E-006	0.0008079	8
	27	73	597.4265	317.3131	-2183.496	1	2206.432	-81.73146	6.549546E-006	-0.0014169	8
	28	76	477.4305	354.4473	-2702.237	1	2725.384	-82.52728	3.130012E-007	0.0006517	8
	29	78	376.6741	399.5428	-3392.96	1	3416.403	-83.28398	3.099462E-007	0.0006569	8
	30	80	298.2954	455.2124	-4244.738	1	4269.077	-83.87891	3.27878E-007	0.0006562	8
	31	83	237.7717	527.5048	-5288.421	1	5314.665	-84.30376	3.052075E-008	0.0006237	7
	32	85	189.0121	614.7462	-6593.183	1	6621.78	-84.67316	2.949109E-008	0.0006399	7
	33	88	150.2404	725.9004	-8220.537	1	8252.524	-84.95368	3.052115E-008	0.0006254	7
	34	90	119.1737	870.8004	-10268.12	1	10304.98	-85.15256	2.79873E-008	0.0006399	7
	35	92	95.0169	1052.068	-12764.09	1	12807.38	-85.2881	2.889698E-008	0.000633	7
	36	95	75.60484	1288.423	-15897.79	1	15949.91	-85.36664	2.794749E-008	0.0006367	7
	37	97	54.50582	1754.065	-21734.21	1	21804.88	-85.38593	3.069546E-008	0.0006245	7
	38	100	45.95588	2082.081	-25609.42	1	25693.92	-85.352	3.084605E-008	0.0006363	7
	39	102	37.20238	2588.169	-31336.36	1	31443.06	-85.27848	2.973219E-008	0.0006283	7
	40	105	30.04808	3244.651	-38462.11	1	38598.72	-85.17796	2.709779E-008	0.0006367	7
	41	107	23.91582	4171.597	-47842.64	1	48024.17	-85.01675	1.721178E-009	0.0006766	6
	42	109	18.60119	5550.04	-60667.61	1	60920.94	-84.77297	3.279551E-009	0.0006746	6
	43	112	15.02404	7019.814	-74247.74	1	74578.85	-84.59898	2.990954E-009	0.0006547	6
	44	114	12.01923	9083.17	-91688.8	1	92137.62	-84.34244	2.395349E-009	0.0006673	6
	45	117	9.450605	11977.81	-114932.8	1	115555.3	-84.05035	2.713941E-009	0.0006685	6
	46	119	7.512019	15693.85	-142518	1	143379.5	-83.716	2.776409E-009	0.0006912	6
	47	122	5.978954	20541.86	-176265.3	1	177458.2	-83.35277	2.600079E-009	0.0006776	6
	48	126	4.734848	27040.16	-218932.7	1	220596.2	-82.95911	2.79265E-009	0.0006867	6
	49	130	3.75601	35576.61	-270958.7	1	273284.3	-82.51991	2.692752E-009	0.0006435	6
	50	136	3.004808	46456.48	-332277.2	1	335509.1	-82.04093	2.262561E-009	0.0007089	6
	51	142	2.372217	61354.81	-412363.8	1	416903.3	-81.53716	1.800043E-009	0.0007431	6
	52	146	1.878005	81785.27	-509392.5	1	515916.2	-80.87875	-1.471217E-010	0.0006319	5
	53	151	1.512097	106254.8	-617916.3	1	626985.3	-80.24303	-1.888389E-011	0.0007059	5
	54	156	1.201923	139458.5	-761181.5	1	773851.4	-79.61781	-1.193629E-010	0.0006267	5
	55	162	0.956633	184270.4	-932622.6	1	950653	-78.82329	-2.206498E-010	1.146886E-005	5
