EXPLAIN
TAG	EISPOT
TITLE	LABEL	Potentiostatic EIS	Test Identifier
DATE	LABEL	2/26/2021	Date
TIME	LABEL	22:47:16	Time
NOTES	NOTES	1	Notes...
	
PSTAT	PSTAT	REF3000-16137	Potentiostat
VDC	POTEN	0.00000E+000	T	DC Voltage (V)
FREQINIT	QUANT	3.00000E+005	Initial Freq. (Hz)
FREQFINAL	QUANT	1.00000E+000	Final Freq. (Hz)
PTSPERDEC	QUANT	1.00000E+001	Points/decade
VAC	QUANT	5.00000E+001	AC Voltage (mV rms)
AREA	QUANT	1.00000E+000	Sample Area (cm^2)
SPEED	SELECTOR	2	Optimize for:
ZGUESS	QUANT	1.00000E+003	Estimated Z (ohms)
EOC	QUANT	0	Open Circuit (V)
SEQUENCER	TOGGLE	TRUE	Run as Sequence
PSTATMODEL	IQUANT	5	Pstat Model
PSTATSECTION	LABEL	REF3000-16137	Pstat Section
PSTATSERIALNO	LABEL	16137	Pstat Serial Number
CTRLMODE	IQUANT	1	Control Mode
IESTAB	IQUANT	0	I/E Stability
CASPEED	IQUANT	1	Control Amp Speed
CONVENTION	IQUANT	1	Current Convention
ICHRANGE	IQUANT	2	Ich Range
ICHRANGEMODE	TOGGLE	F	Ich Auto Range
ICHOFFSETENABLE	TOGGLE	T	Ich Offset Enable
ICHOFFSET	QUANT	0	Ich Offset (V)
ICHFILTER	IQUANT	3	Ich Filter
VCHRANGE	IQUANT	2	Vch Range
VCHRANGEMODE	TOGGLE	F	Vch Auto Range
VCHOFFSETENABLE	TOGGLE	T	Vch Offset Enable
VCHOFFSET	QUANT	0	Vch Offset (V)
VCHFILTER	IQUANT	3	Vch Filter
ACHRANGE	IQUANT	2	Ach Range
ACHOFFSETENABLE	TOGGLE	F	Ach Offset Enable
ACHOFFSET	QUANT	0	Ach Offset (V)
ACHFILTER	IQUANT	3	Ach Filter
IERANGELOWERLIMIT	IQUANT	2	I/E Range Lower Limit
IERANGEMODE	TOGGLE	F	I/E AutoRange
IERANGE	IQUANT	11	I/E Range
POSFEEDENABLE	TOGGLE	F	Positive Feedback IR Comp
POSFEEDRESISTANCE	QUANT	0	Positive Feedback Resistance (ohm)
ACHSELECT	IQUANT	0	Ach Select
CABLEID	IQUANT	13	Cable ID
DCCALDATE	LABEL	7/31/2020	DC Calibration Date
ACCALDATE	LABEL	7/31/2020	AC Calibration Date
THERMOSELECT	IQUANT	1	Thermo Select
FRAMEWORKVERSION	QUANT	6.33	Framework Version
INSTRUMENTVERSION	LABEL	3.50	Instrument Version
COMPLIANCEVOLTAGE	IQUANT	0	Compliance Voltage
ZCURVE	TABLE
	Pt	Time	Freq	Zreal	Zimag	Zsig	Zmod	Zphz	Idc	Vdc	IERange
	#	s	Hz	ohm	ohm	V	ohm	°	A	V	#
	0	7	300046.9	44.68333	-10.72566	1	45.95259	-13.49775	1.812645E-006	-0.0010955	9
	1	10	238359.4	46.03506	-13.56198	1	47.99118	-16.41503	-3.087821E-005	-0.0001924	9
	2	13	189328.1	47.71938	-16.82409	1	50.59831	-19.42077	-5.306439E-005	0.0020149	9
	3	16	150421.9	49.7426	-20.37843	1	53.75506	-22.27782	5.301784E-005	-0.0015468	9
	4	18	119484.4	52.06651	-24.1085	1	57.37718	-24.84569	4.939449E-005	-0.0013243	9
	5	21	94921.88	54.97871	-28.18019	1	61.78011	-27.13811	1.713392E-005	-0.0005174	9
	6	23	75421.88	57.95165	-32.79776	1	66.58894	-29.50771	-1.331009E-005	0.000404	9
	7	26	59859.37	61.21577	-38.11381	1	72.11126	-31.90698	-1.180182E-005	0.0003018	9
	8	28	47578.12	64.76254	-43.85894	1	78.21632	-34.10692	2.522215E-006	-0.0002585	9
	9	31	37828.12	68.18652	-50.73941	1	84.99346	-36.65392	-2.073034E-006	0.0004515	9
	10	34	30046.88	71.51392	-58.81277	1	92.59148	-39.43375	2.053868E-005	-0.0002714	9
	11	36	23859.38	74.60986	-69.02415	1	101.6413	-42.77297	-1.460881E-005	0.0004083	9
	12	38	18984.38	77.55523	-81.54613	1	112.537	-46.4369	1.262788E-005	7.234071E-005	9
	13	41	15046.87	80.27549	-97.9429	1	126.6371	-50.66143	1.436235E-005	-8.650853E-005	9
	14	43	11953.13	83.14651	-118.2859	1	144.5853	-54.89553	-1.105894E-005	0.0007013	9
	15	45	9515.62	86.09629	-144.2741	1	168.0107	-59.17314	-3.60909E-007	0.0004925	9
	16	48	7546.875	88.98048	-178.1382	1	199.1249	-63.45775	1.732297E-005	-0.0002044	9
	17	50	5928.309	93.02169	-221.0692	1	239.8429	-67.17957	-4.316603E-006	-4.639182E-005	9
	18	52	4733.456	96.4827	-272.6763	1	289.2426	-70.51438	-1.457907E-005	0.0006665	9
	19	54	3796.875	100.1532	-335.401	1	350.035	-73.37399	-1.667271E-005	0.0005839	9
	20	57	2987.132	108.3558	-420.1948	1	433.9409	-75.54014	-1.541804E-005	0.0005889	9
	21	59	2390.625	114.7456	-516.8728	1	529.4564	-77.48335	-2.931262E-006	0.0012408	8
	22	61	1884.191	126.3	-648.3105	1	660.4984	-78.97605	-2.918436E-006	0.0017218	8
	23	64	1516.544	136.448	-796.8994	1	808.4965	-80.28383	-2.841075E-006	0.0012445	8
	24	66	1193.986	150.8378	-1002.726	1	1014.007	-81.44527	2.397517E-006	0.0005793	8
	25	68	946.5144	166.6596	-1251.136	1	1262.188	-82.41249	-3.007154E-006	0.0016934	8
	26	71	751.7689	195.8244	-1554.392	1	1566.679	-82.81963	-5.810364E-007	0.0004733	8
	27	73	597.4265	230.5346	-1942.575	1	1956.206	-83.23209	-3.371883E-006	0.0015075	8
	28	75	477.4305	264.7165	-2403.111	1	2417.647	-83.71388	4.799238E-007	0.0006672	8
	29	78	376.6741	317.6821	-3013.389	1	3030.088	-83.9819	4.715176E-007	0.0006661	8
	30	80	298.2954	384.7927	-3764.049	1	3783.666	-84.16302	4.858167E-007	0.0006568	8
	31	82	237.7717	474.3203	-4680.919	1	4704.889	-84.21394	4.678824E-008	0.0006363	7
	32	85	189.0121	586.6542	-5823.043	1	5852.52	-84.24703	4.69087E-008	0.0006384	7
	33	87	150.2404	733.3807	-7240.51	1	7277.557	-84.21632	4.72587E-008	0.000641	7
	34	90	119.1737	930.6685	-9017.641	1	9065.538	-84.10764	4.641176E-008	0.0006406	7
	35	92	95.0169	1180.752	-11168.24	1	11230.48	-83.96487	4.768507E-008	0.0006417	7
	36	94	75.60484	1515.579	-13848.73	1	13931.42	-83.75452	4.757557E-008	0.0006437	7
	37	97	54.50582	2177.454	-18824.43	1	18949.95	-83.40182	4.727127E-008	0.0006421	7
	38	99	45.95588	2650.314	-22043.31	1	22202.06	-83.14412	5.041319E-008	0.0006079	7
	39	102	37.20238	3375.799	-26817.74	1	27029.38	-82.82538	4.486882E-008	0.0006382	7
	40	104	30.04808	4331.563	-32700.75	1	32986.38	-82.45449	4.67728E-008	0.0006342	7
	41	107	23.91582	5661.201	-40374.87	1	40769.83	-82.01826	4.86137E-008	0.0006423	7
	42	109	18.60119	7566.227	-50603.25	1	51165.77	-81.4961	3.932739E-009	0.0006819	6
	43	111	15.02404	9730.11	-61484.49	1	62249.64	-81.00734	3.366295E-009	0.000693	6
	44	114	12.01923	12565.81	-75149.81	1	76193.13	-80.50739	2.953606E-009	0.0006826	6
	45	116	9.450605	16511.65	-93158.57	1	94610.54	-79.94913	3.546409E-009	0.0006761	6
	46	119	7.512019	21422.04	-114120.7	1	116113.9	-79.36852	3.591868E-009	0.0006993	6
	47	122	5.978954	27566.2	-139469.3	1	142167.5	-78.81956	3.600353E-009	0.0006794	6
	48	126	4.734848	35806.97	-171134	1	174839.9	-78.18229	3.853782E-009	0.0007053	6
	49	129	3.75601	46361.57	-209297.9	1	214371.2	-77.51009	3.727959E-009	0.0006732	6
	50	135	3.004808	59463.22	-253732.2	1	260606.8	-76.81052	3.718051E-009	0.0007104	6
	51	141	2.372217	77957.3	-310816.1	1	320443.4	-75.91982	3.369963E-009	0.0007467	6
	52	145	1.878005	101349	-379309.1	1	392615.6	-75.04041	3.110149E-009	0.0006739	6
	53	150	1.512097	129389.4	-454212.8	1	472282.7	-74.0996	-1.257613E-009	0.0006199	5
	54	155	1.201923	169825.7	-550457.3	1	576059	-72.8541	-1.377646E-009	0.0006029	5
	55	162	0.956633	221711.6	-662403.3	1	698522.8	-71.49419	-1.52882E-009	1.818159E-005	5
