EXPLAIN
TAG	EISPOT
TITLE	LABEL	Potentiostatic EIS	Test Identifier
DATE	LABEL	2/26/2021	Date
TIME	LABEL	23:10:10	Time
NOTES	NOTES	1	Notes...
	
PSTAT	PSTAT	REF3000-16137	Potentiostat
VDC	POTEN	0.00000E+000	T	DC Voltage (V)
FREQINIT	QUANT	3.00000E+005	Initial Freq. (Hz)
FREQFINAL	QUANT	1.00000E+000	Final Freq. (Hz)
PTSPERDEC	QUANT	1.00000E+001	Points/decade
VAC	QUANT	5.00000E+001	AC Voltage (mV rms)
AREA	QUANT	1.00000E+000	Sample Area (cm^2)
SPEED	SELECTOR	2	Optimize for:
ZGUESS	QUANT	1.00000E+003	Estimated Z (ohms)
EOC	QUANT	0	Open Circuit (V)
SEQUENCER	TOGGLE	TRUE	Run as Sequence
PSTATMODEL	IQUANT	5	Pstat Model
PSTATSECTION	LABEL	REF3000-16137	Pstat Section
PSTATSERIALNO	LABEL	16137	Pstat Serial Number
CTRLMODE	IQUANT	1	Control Mode
IESTAB	IQUANT	0	I/E Stability
CASPEED	IQUANT	1	Control Amp Speed
CONVENTION	IQUANT	1	Current Convention
ICHRANGE	IQUANT	2	Ich Range
ICHRANGEMODE	TOGGLE	F	Ich Auto Range
ICHOFFSETENABLE	TOGGLE	T	Ich Offset Enable
ICHOFFSET	QUANT	0	Ich Offset (V)
ICHFILTER	IQUANT	3	Ich Filter
VCHRANGE	IQUANT	2	Vch Range
VCHRANGEMODE	TOGGLE	F	Vch Auto Range
VCHOFFSETENABLE	TOGGLE	T	Vch Offset Enable
VCHOFFSET	QUANT	0	Vch Offset (V)
VCHFILTER	IQUANT	3	Vch Filter
ACHRANGE	IQUANT	2	Ach Range
ACHOFFSETENABLE	TOGGLE	F	Ach Offset Enable
ACHOFFSET	QUANT	0	Ach Offset (V)
ACHFILTER	IQUANT	3	Ach Filter
IERANGELOWERLIMIT	IQUANT	2	I/E Range Lower Limit
IERANGEMODE	TOGGLE	F	I/E AutoRange
IERANGE	IQUANT	11	I/E Range
POSFEEDENABLE	TOGGLE	F	Positive Feedback IR Comp
POSFEEDRESISTANCE	QUANT	0	Positive Feedback Resistance (ohm)
ACHSELECT	IQUANT	0	Ach Select
CABLEID	IQUANT	13	Cable ID
DCCALDATE	LABEL	7/31/2020	DC Calibration Date
ACCALDATE	LABEL	7/31/2020	AC Calibration Date
THERMOSELECT	IQUANT	1	Thermo Select
FRAMEWORKVERSION	QUANT	6.33	Framework Version
INSTRUMENTVERSION	LABEL	3.50	Instrument Version
COMPLIANCEVOLTAGE	IQUANT	0	Compliance Voltage
ZCURVE	TABLE
	Pt	Time	Freq	Zreal	Zimag	Zsig	Zmod	Zphz	Idc	Vdc	IERange
	#	s	Hz	ohm	ohm	V	ohm	°	A	V	#
	0	8	300046.9	219.7729	-23.40745	1	221.0159	-6.079508	-5.336078E-006	-0.0016604	9
	1	11	238359.4	222.0817	-27.68722	1	223.8009	-7.106475	1.931397E-005	-0.0017603	9
	2	15	189328.1	225.4984	-32.11552	1	227.7738	-8.105565	-1.544072E-005	0.0013437	9
	3	18	150421.9	229.1604	-38.07177	1	232.3014	-9.43273	7.68992E-005	-0.0028266	9
	4	21	119484.4	232.638	-44.72937	1	236.8991	-10.88346	-1.537285E-005	0.0013376	9
	5	23	94921.88	238.2327	-52.56328	1	243.9626	-12.4423	2.214886E-005	-0.0008353	9
	6	27	75421.88	244.1186	-62.2762	1	251.9369	-14.31127	1.639214E-005	-0.0008005	9
	7	31	59859.37	251.4619	-73.85838	1	262.0842	-16.36836	-2.457363E-005	0.0008537	9
	8	35	47578.12	259.7332	-86.95228	1	273.9015	-18.50928	-2.227678E-005	0.0005231	9
	9	39	37828.12	269.5295	-102.1335	1	288.2315	-20.75332	-2.318184E-005	0.0006838	9
	10	41	30046.88	280.7985	-119.6963	1	305.2458	-23.08715	-2.047697E-005	0.0004972	9
	11	44	23859.38	294.1606	-139.4822	1	325.5546	-25.36892	1.249445E-005	0.0003204	9
	12	46	18984.38	310.3633	-162.3996	1	350.2842	-27.6211	2.414624E-005	-0.0002631	9
	13	48	15046.87	328.5215	-188.6348	1	378.8264	-29.86415	-1.781797E-005	0.0002878	9
	14	50	11953.13	347.636	-217.4368	1	410.036	-32.02484	-2.180635E-005	0.0004877	9
	15	53	9515.62	368.4244	-246.1539	1	443.0895	-33.74791	4.798329E-006	-0.0028936	8
	16	55	7546.875	390.7615	-283.2582	1	482.628	-35.93789	-9.746112E-006	0.0045022	8
	17	57	5928.309	412.476	-330.5858	1	528.6052	-38.71101	8.446027E-006	-0.0035101	8
	18	60	4733.456	431.7024	-384.2612	1	577.9478	-41.6725	-1.018382E-005	0.003156	8
	19	62	3796.875	448.7757	-451.1483	1	636.3445	-45.15105	-8.008285E-006	0.0044468	8
	20	64	2987.132	466.7513	-540.7792	1	714.3522	-49.20223	1.006716E-005	-0.0033961	8
	21	67	2390.625	483.376	-647.3946	1	807.9431	-53.25321	1.032634E-005	-0.0034097	8
	22	69	1884.191	499.3538	-790.8737	1	935.3264	-57.73188	5.635003E-006	0.001364	8
	23	71	1516.544	516.5903	-960.284	1	1090.418	-61.72173	5.265787E-006	0.0013914	8
	24	74	1193.986	536.0486	-1193.368	1	1308.234	-65.81087	-6.098981E-006	0.00041	8
	25	76	946.5144	568.4643	-1478.982	1	1584.468	-68.97514	-9.862018E-006	0.0024691	8
	26	79	751.7689	586.4969	-1834.966	1	1926.416	-72.27494	-1.050163E-005	0.0033027	8
	27	82	597.4265	605.9064	-2273.31	1	2352.671	-75.07587	-6.334544E-006	0.0047064	8
	28	84	477.4305	654.0623	-2820.585	1	2895.427	-76.94449	8.270003E-008	0.0006573	8
	29	86	376.6741	702.4127	-3537.174	1	3606.243	-78.76831	1.104102E-007	0.0006374	8
	30	89	298.2954	765.9313	-4430.899	1	4496.612	-80.19269	-5.280079E-010	0.0006334	7
	31	91	237.7717	837.2776	-5506.262	1	5569.556	-81.35388	9.265066E-011	0.0006353	7
	32	94	189.0121	926.2513	-6862.982	1	6925.205	-82.31361	2.759677E-009	0.0006169	7
	33	96	150.2404	1037.438	-8555.499	1	8618.169	-83.08608	1.434826E-009	0.000622	7
	34	98	119.1737	1177.065	-10688.42	1	10753.04	-83.71561	2.479549E-009	0.0006196	7
	35	101	95.0169	1352.114	-13287.65	1	13356.26	-84.18974	2.594666E-009	0.0006192	7
	36	103	75.60484	1575.238	-16560.38	1	16635.13	-84.56632	1.601997E-009	0.0006048	7
	37	106	54.50582	1987.018	-22669.13	1	22756.05	-84.99065	1.178725E-009	0.0006243	7
	38	108	45.95588	2293.179	-26729.88	1	26828.07	-85.09656	-1.074685E-009	0.0006295	7
	39	111	37.20238	2734.89	-32741.07	1	32855.09	-85.22512	-2.762498E-010	0.0006378	7
	40	113	30.04808	3325.55	-40199.57	1	40336.89	-85.27092	1.689166E-009	0.0006247	7
	41	115	23.91582	4115.408	-50039.85	1	50208.8	-85.29842	-5.069375E-010	0.0006418	6
	42	118	18.60119	5389.89	-63703.07	1	63930.68	-85.16375	-8.777722E-010	0.0006603	6
	43	120	15.02404	6567.512	-78081.41	1	78357.12	-85.19211	-2.582908E-010	0.0006956	6
	44	122	12.01923	8313.623	-96631.1	1	96988.1	-85.08269	-2.349946E-010	0.0006511	6
	45	125	9.450605	10809.26	-121552.2	1	122031.9	-84.91823	-2.282279E-010	0.0006671	6
	46	128	7.512019	13929.79	-151106	1	151746.7	-84.73304	-4.343561E-010	0.0006645	6
	47	131	5.978954	18092.24	-187466.4	1	188337.4	-84.4875	-3.70101E-010	0.000683	6
	48	135	4.734848	23630.28	-233700.3	1	234891.9	-84.22624	-8.226955E-011	0.0006332	6
	49	138	3.75601	30998.9	-290584	1	292232.8	-83.91084	-1.055903E-010	0.000642	6
	50	144	3.004808	40236.54	-357889.4	1	360144.2	-83.58533	-1.012687E-010	0.0006611	6
	51	150	2.372217	54100.83	-445832.9	1	449103.4	-83.08112	-9.618541E-011	0.0006898	5
	52	155	1.878005	70723.63	-554947.7	1	559436.1	-82.73727	-2.908349E-010	0.0006507	5
	53	159	1.512097	89925.39	-677658.5	1	683599	-82.441	-1.521727E-010	0.0005644	5
	54	165	1.201923	118837	-838306.5	1	846687.7	-81.9316	-2.612126E-010	0.0006588	5
	55	171	0.956633	154817.5	-1033230	1	1044764	-81.47829	-2.618003E-010	6.997682E-006	5
