EXPLAIN
TAG	EISPOT
TITLE	LABEL	Potentiostatic EIS	Test Identifier
DATE	LABEL	2/26/2021	Date
TIME	LABEL	22:44:25	Time
NOTES	NOTES	1	Notes...
	
PSTAT	PSTAT	REF3000-16137	Potentiostat
VDC	POTEN	0.00000E+000	T	DC Voltage (V)
FREQINIT	QUANT	3.00000E+005	Initial Freq. (Hz)
FREQFINAL	QUANT	1.00000E+000	Final Freq. (Hz)
PTSPERDEC	QUANT	1.00000E+001	Points/decade
VAC	QUANT	5.00000E+001	AC Voltage (mV rms)
AREA	QUANT	1.00000E+000	Sample Area (cm^2)
SPEED	SELECTOR	2	Optimize for:
ZGUESS	QUANT	1.00000E+003	Estimated Z (ohms)
EOC	QUANT	0	Open Circuit (V)
SEQUENCER	TOGGLE	TRUE	Run as Sequence
PSTATMODEL	IQUANT	5	Pstat Model
PSTATSECTION	LABEL	REF3000-16137	Pstat Section
PSTATSERIALNO	LABEL	16137	Pstat Serial Number
CTRLMODE	IQUANT	1	Control Mode
IESTAB	IQUANT	0	I/E Stability
CASPEED	IQUANT	1	Control Amp Speed
CONVENTION	IQUANT	1	Current Convention
ICHRANGE	IQUANT	2	Ich Range
ICHRANGEMODE	TOGGLE	F	Ich Auto Range
ICHOFFSETENABLE	TOGGLE	T	Ich Offset Enable
ICHOFFSET	QUANT	0	Ich Offset (V)
ICHFILTER	IQUANT	3	Ich Filter
VCHRANGE	IQUANT	2	Vch Range
VCHRANGEMODE	TOGGLE	F	Vch Auto Range
VCHOFFSETENABLE	TOGGLE	T	Vch Offset Enable
VCHOFFSET	QUANT	0	Vch Offset (V)
VCHFILTER	IQUANT	3	Vch Filter
ACHRANGE	IQUANT	2	Ach Range
ACHOFFSETENABLE	TOGGLE	F	Ach Offset Enable
ACHOFFSET	QUANT	0	Ach Offset (V)
ACHFILTER	IQUANT	3	Ach Filter
IERANGELOWERLIMIT	IQUANT	2	I/E Range Lower Limit
IERANGEMODE	TOGGLE	F	I/E AutoRange
IERANGE	IQUANT	11	I/E Range
POSFEEDENABLE	TOGGLE	F	Positive Feedback IR Comp
POSFEEDRESISTANCE	QUANT	0	Positive Feedback Resistance (ohm)
ACHSELECT	IQUANT	0	Ach Select
CABLEID	IQUANT	13	Cable ID
DCCALDATE	LABEL	7/31/2020	DC Calibration Date
ACCALDATE	LABEL	7/31/2020	AC Calibration Date
THERMOSELECT	IQUANT	1	Thermo Select
FRAMEWORKVERSION	QUANT	6.33	Framework Version
INSTRUMENTVERSION	LABEL	3.50	Instrument Version
COMPLIANCEVOLTAGE	IQUANT	0	Compliance Voltage
ZCURVE	TABLE
	Pt	Time	Freq	Zreal	Zimag	Zsig	Zmod	Zphz	Idc	Vdc	IERange
	#	s	Hz	ohm	ohm	V	ohm	°	A	V	#
	0	6	300046.9	40.73574	-10.07532	1	41.96323	-13.89237	-5.410847E-006	0.0001599	9
	1	10	238359.4	42.07788	-12.92431	1	44.01801	-17.07446	-4.147257E-005	0.0005061	9
	2	13	189328.1	43.74259	-16.03965	1	46.59061	-20.13711	-5.326519E-005	0.001807	9
	3	15	150421.9	45.61682	-19.38711	1	49.56565	-23.02545	-5.508398E-005	0.0016547	9
	4	18	119484.4	47.90363	-22.95773	1	53.12076	-25.60599	2.333152E-005	0.0001467	9
	5	20	94921.88	50.67075	-26.88364	1	57.36074	-27.94843	-1.40095E-006	0.0003811	9
	6	23	75421.88	53.43198	-31.2254	1	61.88701	-30.30182	-9.532775E-006	0.0001189	9
	7	25	59859.37	56.54985	-36.16564	1	67.12555	-32.60036	1.858634E-005	-0.0003235	9
	8	28	47578.12	59.60268	-41.68401	1	72.73263	-34.96758	5.877378E-006	0.0002788	9
	9	30	37828.12	62.73137	-48.31224	1	79.17889	-37.60148	1.679996E-005	-0.0002135	9
	10	33	30046.88	65.69178	-56.21833	1	86.46335	-40.55656	1.670122E-005	-0.0005066	9
	11	35	23859.38	68.31304	-66.23355	1	95.1502	-44.11453	2.376214E-006	-0.0002491	9
	12	38	18984.38	70.95878	-78.65735	1	105.9345	-47.94558	-1.048876E-005	0.0006737	9
	13	40	15046.87	73.34671	-95.1233	1	120.1173	-52.36526	-7.246835E-006	0.0005466	9
	14	42	11953.13	75.8521	-115.3492	1	138.0543	-56.67162	1.301418E-005	-0.0004564	9
	15	45	9515.62	78.38995	-141.0414	1	161.3619	-60.93497	-1.383622E-005	0.0006031	9
	16	47	7546.875	81.54597	-173.6345	1	191.8298	-64.8433	1.892713E-005	-0.0004284	9
	17	49	5928.309	85.31722	-216.4623	1	232.6692	-68.48844	1.262476E-005	-0.0004695	9
	18	51	4733.456	89.43152	-267.0797	1	281.6551	-71.4869	-1.349453E-005	0.0002996	9
	19	54	3796.875	92.34078	-329.3336	1	342.0342	-74.3372	-1.117272E-005	0.0005984	9
	20	56	2987.132	101.117	-411.4798	1	423.7219	-76.19371	7.89758E-006	-0.0003865	9
	21	58	2390.625	108.1915	-506.4919	1	517.9184	-77.94229	-1.582824E-006	0.0016461	8
	22	61	1884.191	118.4173	-634.9521	1	645.9	-79.43582	1.215497E-006	0.000931	8
	23	63	1516.544	129.2843	-781.2856	1	791.9101	-80.60405	1.219865E-006	0.0009417	8
	24	65	1193.986	145.3436	-980.387	1	991.102	-81.56725	-2.777471E-006	0.0016476	8
	25	68	946.5144	164.5028	-1223.458	1	1234.468	-82.34209	-1.62282E-006	0.001647	8
	26	70	751.7689	191.7922	-1525.598	1	1537.607	-82.83459	6.761891E-007	0.0001425	8
	27	72	597.4265	218.9659	-1897.986	1	1910.575	-83.41902	3.445218E-006	0.0001037	8
	28	75	477.4305	262.9543	-2351.001	1	2365.661	-83.61812	5.331834E-007	0.0006127	8
	29	77	376.6741	318.8102	-2946.308	1	2963.507	-83.82424	4.907372E-007	0.0006502	8
	30	79	298.2954	390.0328	-3677.958	1	3698.581	-83.94663	5.023049E-007	0.0006515	8
	31	82	237.7717	484.9355	-4570.131	1	4595.788	-83.94302	4.829106E-008	0.0006268	7
	32	84	189.0121	605.0998	-5680.193	1	5712.333	-83.91933	4.892927E-008	0.0006226	7
	33	86	150.2404	763.0088	-7055.777	1	7096.913	-83.82804	4.835185E-008	0.0006275	7
	34	89	119.1737	974.418	-8777.936	1	8831.854	-83.66566	4.7318E-008	0.000629	7
	35	91	95.0169	1243.493	-10854.25	1	10925.25	-83.46453	4.924318E-008	0.0006276	7
	36	94	75.60484	1600.092	-13439.15	1	13534.07	-83.21021	5.28211E-008	0.0006159	7
	37	96	54.50582	2325.111	-18212.89	1	18360.7	-82.72481	4.975085E-008	0.000631	7
	38	99	45.95588	2818.709	-21330.84	1	21516.27	-82.47241	4.965456E-008	0.0006362	7
	39	101	37.20238	3611.565	-25924.65	1	26175.01	-82.06916	4.745682E-008	0.0006363	7
	40	103	30.04808	4618.818	-31530.32	1	31866.82	-81.66612	4.977834E-008	0.0006315	7
	41	106	23.91582	5971.309	-38713.94	1	39171.74	-81.23169	5.318995E-008	0.0006248	7
	42	108	18.60119	8032.252	-48580.53	1	49240.07	-80.61171	2.666572E-009	0.0006799	6
	43	110	15.02404	10195.89	-58770.71	1	59648.57	-80.15795	3.632434E-009	0.0006864	6
	44	113	12.01923	13107.87	-71629.7	1	72819.16	-79.62991	2.793006E-009	0.0006812	6
	45	115	9.450605	17045.2	-88476.99	1	90103.92	-79.0955	2.751196E-009	0.0006673	6
	46	118	7.512019	22037.51	-108259.1	1	110479.3	-78.49393	3.703687E-009	0.0006337	6
	47	121	5.978954	28276.78	-131970.4	1	134965.8	-77.90632	3.44071E-009	0.0006745	6
	48	125	4.734848	36431.94	-161690.5	1	165744.1	-77.30222	3.40112E-009	0.0006588	6
	49	129	3.75601	46992.94	-197240.7	1	202761.5	-76.59901	3.591152E-009	0.000683	6
	50	134	3.004808	60055.44	-238663.6	1	246103.6	-75.87578	3.376479E-009	0.0007082	6
	51	140	2.372217	78042.14	-291793.7	1	302049.8	-75.02634	3.174028E-009	0.0007405	6
	52	145	1.878005	101788.1	-354446	1	368772	-73.97725	3.068592E-009	0.0006493	6
	53	149	1.512097	130635.4	-423173.3	1	442878.3	-72.84432	-1.762935E-009	0.000733	5
	54	155	1.201923	169558.3	-511182.7	1	538570.1	-71.64941	-1.774435E-009	0.0006312	5
	55	161	0.956633	220532.3	-613108.2	1	651564.4	-70.21657	-2.101501E-009	2.260113E-005	5
