EXPLAIN
TAG	EISPOT
TITLE	LABEL	Potentiostatic EIS	Test Identifier
DATE	LABEL	2/26/2021	Date
TIME	LABEL	22:27:16	Time
NOTES	NOTES	1	Notes...
	
PSTAT	PSTAT	REF3000-16137	Potentiostat
VDC	POTEN	0.00000E+000	T	DC Voltage (V)
FREQINIT	QUANT	3.00000E+005	Initial Freq. (Hz)
FREQFINAL	QUANT	1.00000E+000	Final Freq. (Hz)
PTSPERDEC	QUANT	1.00000E+001	Points/decade
VAC	QUANT	5.00000E+001	AC Voltage (mV rms)
AREA	QUANT	1.00000E+000	Sample Area (cm^2)
SPEED	SELECTOR	2	Optimize for:
ZGUESS	QUANT	1.00000E+003	Estimated Z (ohms)
EOC	QUANT	0	Open Circuit (V)
SEQUENCER	TOGGLE	TRUE	Run as Sequence
PSTATMODEL	IQUANT	5	Pstat Model
PSTATSECTION	LABEL	REF3000-16137	Pstat Section
PSTATSERIALNO	LABEL	16137	Pstat Serial Number
CTRLMODE	IQUANT	1	Control Mode
IESTAB	IQUANT	0	I/E Stability
CASPEED	IQUANT	1	Control Amp Speed
CONVENTION	IQUANT	1	Current Convention
ICHRANGE	IQUANT	2	Ich Range
ICHRANGEMODE	TOGGLE	F	Ich Auto Range
ICHOFFSETENABLE	TOGGLE	T	Ich Offset Enable
ICHOFFSET	QUANT	0	Ich Offset (V)
ICHFILTER	IQUANT	3	Ich Filter
VCHRANGE	IQUANT	2	Vch Range
VCHRANGEMODE	TOGGLE	F	Vch Auto Range
VCHOFFSETENABLE	TOGGLE	T	Vch Offset Enable
VCHOFFSET	QUANT	0	Vch Offset (V)
VCHFILTER	IQUANT	3	Vch Filter
ACHRANGE	IQUANT	2	Ach Range
ACHOFFSETENABLE	TOGGLE	F	Ach Offset Enable
ACHOFFSET	QUANT	0	Ach Offset (V)
ACHFILTER	IQUANT	3	Ach Filter
IERANGELOWERLIMIT	IQUANT	2	I/E Range Lower Limit
IERANGEMODE	TOGGLE	F	I/E AutoRange
IERANGE	IQUANT	11	I/E Range
POSFEEDENABLE	TOGGLE	F	Positive Feedback IR Comp
POSFEEDRESISTANCE	QUANT	0	Positive Feedback Resistance (ohm)
ACHSELECT	IQUANT	0	Ach Select
CABLEID	IQUANT	13	Cable ID
DCCALDATE	LABEL	7/31/2020	DC Calibration Date
ACCALDATE	LABEL	7/31/2020	AC Calibration Date
THERMOSELECT	IQUANT	1	Thermo Select
FRAMEWORKVERSION	QUANT	6.33	Framework Version
INSTRUMENTVERSION	LABEL	3.50	Instrument Version
COMPLIANCEVOLTAGE	IQUANT	0	Compliance Voltage
ZCURVE	TABLE
	Pt	Time	Freq	Zreal	Zimag	Zsig	Zmod	Zphz	Idc	Vdc	IERange
	#	s	Hz	ohm	ohm	V	ohm	°	A	V	#
	0	7	300046.9	26.49861	-8.832594	1	27.9319	-18.43441	-9.095464E-006	-0.0001378	11
	1	11	238359.4	27.74451	-10.66673	1	29.72435	-21.0299	-2.367012E-005	0.0004593	10
	2	14	189328.1	29.13907	-12.96759	1	31.89426	-23.99022	-0.0001053	0.0004911	10
	3	17	150421.9	30.7076	-15.44385	1	34.37251	-26.6993	3.108136E-005	0.0008661	10
	4	19	119484.4	32.42496	-18.09218	1	37.13091	-29.16024	-2.228871E-005	0.0007529	10
	5	22	94921.88	34.46583	-20.65073	1	40.17893	-30.92858	1.880645E-005	-0.0002614	9
	6	24	75421.88	36.29641	-24.03167	1	43.53103	-33.50834	-3.317465E-006	-5.408683E-007	9
	7	27	59859.37	38.18224	-27.96575	1	47.32829	-36.2201	-2.838795E-007	0.0002819	9
	8	30	47578.12	39.91864	-32.58878	1	51.5318	-39.22751	-9.604511E-006	0.0005423	9
	9	32	37828.12	41.55957	-38.49105	1	56.64591	-42.8048	-1.269253E-005	0.0004899	9
	10	35	30046.88	43.19167	-45.71748	1	62.89362	-46.62727	-1.083197E-005	0.0005304	9
	11	37	23859.38	44.74489	-55.07795	1	70.96257	-50.90987	1.37706E-005	-0.0003665	9
	12	39	18984.38	46.34921	-66.74937	1	81.26332	-55.22479	-9.014033E-006	0.0002209	9
	13	42	15046.87	48.18682	-81.72276	1	94.87138	-59.47479	9.70304E-006	-3.215786E-005	9
	14	44	11953.13	50.05392	-100.4263	1	112.2089	-63.50768	-1.250039E-005	0.0004746	9
	15	46	9515.62	52.28864	-123.533	1	134.1436	-67.0582	-1.249367E-005	0.00047	9
	16	49	7546.875	55.35573	-152.7918	1	162.5103	-70.08479	5.223092E-006	0.0002162	9
	17	51	5928.309	59.44241	-191.2006	1	200.2275	-72.73003	-3.80555E-006	2.46384E-005	9
	18	53	4733.456	64.18843	-235.8969	1	244.474	-74.77814	-4.047328E-006	4.364589E-005	9
	19	56	3796.875	71.60709	-290.0233	1	298.7324	-76.13098	-8.178146E-006	0.0002004	9
	20	58	2987.132	76.58322	-363.71	1	371.6853	-78.10943	-3.835296E-006	0.000433	9
	21	60	2390.625	85.87388	-446.6541	1	454.8343	-79.11709	-2.077322E-006	0.0013519	8
	22	63	1884.191	98.9323	-558.8136	1	567.5035	-79.9604	-1.171092E-006	0.0013173	8
	23	65	1516.544	114.3032	-684.9779	1	694.4494	-80.52627	-1.591746E-006	0.0013282	8
	24	67	1193.986	135.976	-857.2914	1	868.0081	-80.98733	3.417815E-006	-4.869277E-005	8
	25	70	946.5144	164.1135	-1064.876	1	1077.448	-81.23878	2.554923E-006	0.0002607	8
	26	72	751.7689	201.4661	-1319.366	1	1334.659	-81.31805	-1.905808E-006	0.0013359	8
	27	74	597.4265	248.6362	-1632.81	1	1651.632	-81.3418	3.174045E-006	-8.544808E-005	8
	28	77	477.4305	307.3535	-2006.331	1	2029.737	-81.29047	5.721129E-007	0.0006565	8
	29	79	376.6741	390.5602	-2493.384	1	2523.787	-81.0976	5.666096E-007	0.0006567	8
	30	81	298.2954	497.7468	-3084.472	1	3124.375	-80.8331	5.786209E-007	0.0006564	8
	31	84	237.7717	632.1702	-3787.271	1	3839.669	-80.52357	5.754334E-007	0.0006577	8
	32	86	189.0121	811.437	-4663.689	1	4733.754	-80.12989	4.984554E-008	0.0006385	7
	33	88	150.2404	1035.781	-5722.375	1	5815.361	-79.74023	5.070802E-008	0.0006284	7
	34	91	119.1737	1325.299	-7025.989	1	7149.891	-79.31792	5.0905E-008	0.0006343	7
	35	93	95.0169	1684.165	-8570.76	1	8734.663	-78.88295	5.214601E-008	0.000625	7
	36	96	75.60484	2139.405	-10461.55	1	10678.07	-78.44228	5.454147E-008	0.0006413	7
	37	98	54.50582	2997.048	-13877.85	1	14197.79	-77.81361	5.383305E-008	0.0006308	7
	38	101	45.95588	3565.627	-16071.79	1	16462.57	-77.49118	5.290859E-008	0.0006324	7
	39	103	37.20238	4419.287	-19262.63	1	19763.07	-77.07865	5.058487E-008	0.0006261	7
	40	105	30.04808	5457.132	-23078.96	1	23715.36	-76.69648	4.868408E-008	0.000638	7
	41	108	23.91582	6843.488	-28012.68	1	28836.49	-76.27156	5.49358E-008	0.0006251	7
	42	110	18.60119	8760.64	-34618.52	1	35709.81	-75.79874	4.997904E-008	0.0006257	7
	43	113	15.02404	10777.86	-41398.71	1	42778.68	-75.40738	-6.7878E-010	0.0006862	6
	44	115	12.01923	13366	-49874.92	1	51634.85	-74.9978	-2.853485E-009	0.0006848	6
	45	117	9.450605	16906.09	-60907.87	1	63210.64	-74.48703	-3.058533E-009	0.0006893	6
	46	120	7.512019	21094.06	-73703.41	1	76662.59	-74.02878	-1.731217E-009	0.0006942	6
	47	123	5.978954	26409.76	-88913.53	1	92752.85	-73.45714	-1.922194E-009	0.0006792	6
	48	127	4.734848	33302.83	-107683.4	1	112715.5	-72.81493	-9.164526E-010	0.0007047	6
	49	131	3.75601	42086.06	-129952.1	1	136597.2	-72.05503	-1.969528E-009	0.0006636	6
	50	136	3.004808	52863.12	-155445.9	1	164188.7	-71.21815	-1.4154E-009	0.0006765	6
	51	143	2.372217	67927.94	-187491.5	1	199417.3	-70.08461	-1.656082E-009	0.0007382	6
	52	147	1.878005	86568.41	-224797.1	1	240889.6	-68.93851	-2.213558E-009	0.0006467	6
	53	152	1.512097	108781	-264437.1	1	285937.5	-67.63929	-1.725911E-009	0.0007066	6
	54	157	1.201923	139082.5	-313925.8	1	343356.1	-66.10461	-1.530528E-009	0.0006338	6
	55	163	0.956633	177097.9	-369208.4	1	409485.6	-64.3744	-2.276755E-009	3.169437E-005	6
