EXPLAIN
TAG	EISPOT
TITLE	LABEL	Potentiostatic EIS	Test Identifier
DATE	LABEL	2/27/2021	Date
TIME	LABEL	0:17:29	Time
NOTES	NOTES	1	Notes...
	
PSTAT	PSTAT	REF3000-16137	Potentiostat
VDC	POTEN	0.00000E+000	T	DC Voltage (V)
FREQINIT	QUANT	3.00000E+005	Initial Freq. (Hz)
FREQFINAL	QUANT	1.00000E+000	Final Freq. (Hz)
PTSPERDEC	QUANT	1.00000E+001	Points/decade
VAC	QUANT	5.00000E+001	AC Voltage (mV rms)
AREA	QUANT	1.00000E+000	Sample Area (cm^2)
SPEED	SELECTOR	2	Optimize for:
ZGUESS	QUANT	1.00000E+003	Estimated Z (ohms)
EOC	QUANT	0	Open Circuit (V)
SEQUENCER	TOGGLE	TRUE	Run as Sequence
PSTATMODEL	IQUANT	5	Pstat Model
PSTATSECTION	LABEL	REF3000-16137	Pstat Section
PSTATSERIALNO	LABEL	16137	Pstat Serial Number
CTRLMODE	IQUANT	1	Control Mode
IESTAB	IQUANT	0	I/E Stability
CASPEED	IQUANT	1	Control Amp Speed
CONVENTION	IQUANT	1	Current Convention
ICHRANGE	IQUANT	2	Ich Range
ICHRANGEMODE	TOGGLE	F	Ich Auto Range
ICHOFFSETENABLE	TOGGLE	T	Ich Offset Enable
ICHOFFSET	QUANT	0	Ich Offset (V)
ICHFILTER	IQUANT	3	Ich Filter
VCHRANGE	IQUANT	2	Vch Range
VCHRANGEMODE	TOGGLE	F	Vch Auto Range
VCHOFFSETENABLE	TOGGLE	T	Vch Offset Enable
VCHOFFSET	QUANT	0	Vch Offset (V)
VCHFILTER	IQUANT	3	Vch Filter
ACHRANGE	IQUANT	2	Ach Range
ACHOFFSETENABLE	TOGGLE	F	Ach Offset Enable
ACHOFFSET	QUANT	0	Ach Offset (V)
ACHFILTER	IQUANT	3	Ach Filter
IERANGELOWERLIMIT	IQUANT	2	I/E Range Lower Limit
IERANGEMODE	TOGGLE	F	I/E AutoRange
IERANGE	IQUANT	11	I/E Range
POSFEEDENABLE	TOGGLE	F	Positive Feedback IR Comp
POSFEEDRESISTANCE	QUANT	0	Positive Feedback Resistance (ohm)
ACHSELECT	IQUANT	0	Ach Select
CABLEID	IQUANT	13	Cable ID
DCCALDATE	LABEL	7/31/2020	DC Calibration Date
ACCALDATE	LABEL	7/31/2020	AC Calibration Date
THERMOSELECT	IQUANT	1	Thermo Select
FRAMEWORKVERSION	QUANT	6.33	Framework Version
INSTRUMENTVERSION	LABEL	3.50	Instrument Version
COMPLIANCEVOLTAGE	IQUANT	0	Compliance Voltage
ZCURVE	TABLE
	Pt	Time	Freq	Zreal	Zimag	Zsig	Zmod	Zphz	Idc	Vdc	IERange
	#	s	Hz	ohm	ohm	V	ohm	°	A	V	#
	0	15	300046.9	-8.696377	-4883.265	1	4883.272	-90.10204	3.20136E-008	-0.0021063	9
	1	36	238359.4	16.48751	-6056.429	1	6056.451	-89.84402	1.939121E-005	-0.0010023	9
	2	50	189328.1	-180.5472	-7961.649	1	7963.696	-91.29908	2.669904E-005	-0.0018666	9
	3	57	150421.9	723.7816	-10768.5	1	10792.8	-86.15477	1.806304E-005	-0.0019805	9
	4	65	119484.4	210.819	-11977.08	1	11978.94	-88.99159	1.971555E-005	-0.0019873	9
	5	73	94921.88	551.9287	-14659.66	1	14670.04	-87.84386	-2.602218E-005	0.0074698	8
	6	82	75421.88	348.2203	-18368.81	1	18372.12	-88.91396	2.61749E-005	-0.0088822	8
	7	90	59859.37	702.5355	-23052.52	1	23063.22	-88.25443	2.735334E-005	-0.0072686	8
	8	99	47578.12	3851.869	-30080.17	1	30325.79	-82.70279	4.27182E-007	0.016247	7
	9	107	37828.12	507.6336	-35583.33	1	35586.95	-89.18267	-2.35468E-005	0.0051165	8
	10	115	30046.88	787.5709	-45320.86	1	45327.71	-89.00443	-1.576958E-005	0.0006396	8
	11	125	23859.38	4966.928	-58371.84	1	58582.78	-85.13635	-7.388206E-006	0.0189962	7
	12	130	18984.38	4784.715	-72210.38	1	72368.73	-86.20908	-6.677525E-006	0.012159	7
	13	136	15046.87	5964.545	-91511.02	1	91705.19	-86.27083	7.578521E-006	-0.0184771	7
	14	141	11953.13	4445.72	-118127.2	1	118210.8	-87.84469	2.853289E-006	0.0084199	7
	15	146	9515.62	7296.519	-144329.9	1	144514.2	-87.10591	-6.733724E-006	0.0120948	7
	16	153	7546.875	5351.223	-180696.9	1	180776.1	-88.30372	7.736594E-006	-0.0244262	7
	17	159	5928.309	-17383.69	-227119	1	227783.3	-94.37688	-1.005188E-006	-0.0133721	7
	18	164	4733.456	35538.33	-297388.5	1	299504.4	-83.18539	6.106542E-007	-0.0071675	6
	19	169	3796.875	10467.08	-355416.9	1	355571	-88.31312	5.432313E-006	-0.0268292	7
	20	175	2987.132	1705.2	-437494.2	1	437497.5	-89.77668	-3.338129E-006	-0.0052068	7
	21	183	2390.625	-29715.66	-605335.7	1	606064.6	-92.81037	-5.301852E-006	0.0036091	7
	22	190	1884.191	-3186.108	-563313.8	1	563322.8	-90.32406	-5.31517E-006	0.0035591	7
	23	198	1516.544	-158773	-1124193	1	1135350	-98.0389	-7.262015E-006	0.0235334	7
	24	204	1193.986	-52916.89	-1083770	1	1085061	-92.79534	3.526176E-006	-0.0245025	7
	25	211	946.5144	253366.3	4064.788	1	253399	0.9191245	-1.998989E-005	0.0114009	8
	26	218	751.7689	-289582.9	-126237.6	1	315902.2	-156.4462	-1.932237E-006	0.0076528	8
	27	225	597.4265	-363304.8	-312483.5	1	479203.8	-139.3007	-3.844784E-006	0.0255488	7
	28	230	477.4305	81955.82	-2848142	1	2849321	-88.35176	-6.677574E-009	0.0006224	6
	29	235	376.6741	455421.5	-3707355	1	3735222	-82.99672	-6.583039E-010	0.0007013	5
	30	239	298.2954	456218.8	-4615902	1	4638393	-84.35543	-6.91646E-010	0.0006086	5
	31	242	237.7717	536947.1	-5704830	1	5730044	-84.62308	-8.048922E-010	0.000704	5
	32	246	189.0121	542937.9	-7172093	1	7192614	-85.67088	-7.431487E-010	0.000697	5
	33	250	150.2404	417711	-8957394	1	8967128	-87.33006	-7.300744E-010	0.0006968	5
	34	255	119.1737	-834024.8	-1.107554E+007	1	1.11069E+007	-94.30643	-6.883284E-010	0.0006656	5
	35	259	95.0169	915911.6	-1.385342E+007	1	1.388366E+007	-86.21742	-8.235322E-010	0.0006099	5
	36	261	75.60484	2323159	-1.962404E+007	1	1.976108E+007	-83.24856	-7.76714E-010	0.0007002	5
	37	264	54.50582	1423951	-2.509044E+007	1	2.513081E+007	-86.75179	-7.354767E-010	0.0006104	5
	38	268	45.95588	-940848.9	-3.201606E+007	1	3.202988E+007	-91.68325	-8.027861E-010	0.0006914	5
	39	271	37.20238	-2445829	-3.272881E+007	1	3.282008E+007	-94.27378	-6.481343E-010	0.0006295	5
	40	275	30.04808	2693271	-4.344266E+007	1	4.352607E+007	-86.45243	-6.729138E-010	0.0006098	5
	41	279	23.91582	-1788397	-5.779182E+007	1	5.781948E+007	-91.77248	-1.161875E-010	0.0007055	4
	42	283	18.60119	3.821332E+007	-8.964139E+007	1	9.744658E+007	-66.91188	-1.780093E-010	0.0006122	4
	43	286	15.02404	9.706174E+006	-8.530898E+007	1	8.585937E+007	-83.50899	-8.885329E-011	0.0006171	4
	44	290	12.01923	1.317115E+007	-1.075219E+008	1	1.083256E+008	-83.01621	-9.057723E-011	0.0006089	4
	45	294	9.450605	1.442685E+007	-1.354236E+008	1	1.361899E+008	-83.91914	-7.997843E-011	0.000635	4
	46	298	7.512019	1701892	-1.605982E+008	1	1.606072E+008	-89.39285	-4.387893E-011	0.0006181	4
	47	302	5.978954	6998269	-2.128773E+008	1	2.129924E+008	-88.1171	-7.687505E-011	0.0006639	4
	48	308	4.734848	4.543665E+007	-2.929729E+008	1	2.964753E+008	-81.18433	-5.893544E-012	0.0007683	3
	49	312	3.75601	7.881482E+007	-4.029448E+008	1	4.105804E+008	-78.93284	-7.144723E-010	0.0006554	5
	50	321	3.004808	3.972332E+007	-4.810724E+008	1	4.827097E+008	-85.27966	-6.238775E-011	0.0006618	4
	51	330	2.372217	5.547228E+007	-5.598545E+008	1	5.62596E+008	-84.34141	-6.201604E-012	0.0007177	3
	52	335	1.878005	5.921614E+007	-7.054282E+008	1	7.079092E+008	-85.20164	-5.954013E-012	0.00071	3
	53	344	1.512097	6.322569E+007	-8.670733E+008	1	8.693754E+008	-85.82946	-5.876245E-012	0.0008216	3
	54	351	1.201923	6.883086E+007	-1.08784E+009	1	1.090015E+009	-86.37955	-5.630148E-012	0.0007042	3
	55	364	0.956633	6.131241E+007	-1.369832E+009	1	1.371204E+009	-87.4372	-5.618283E-012	8.892618E-005	3
