EXPLAIN
TAG	EISPOT
TITLE	LABEL	Potentiostatic EIS	Test Identifier
DATE	LABEL	2/26/2021	Date
TIME	LABEL	23:47:37	Time
NOTES	NOTES	1	Notes...
	
PSTAT	PSTAT	REF3000-16137	Potentiostat
VDC	POTEN	0.00000E+000	T	DC Voltage (V)
FREQINIT	QUANT	3.00000E+005	Initial Freq. (Hz)
FREQFINAL	QUANT	1.00000E+000	Final Freq. (Hz)
PTSPERDEC	QUANT	1.00000E+001	Points/decade
VAC	QUANT	5.00000E+001	AC Voltage (mV rms)
AREA	QUANT	1.00000E+000	Sample Area (cm^2)
SPEED	SELECTOR	2	Optimize for:
ZGUESS	QUANT	1.00000E+003	Estimated Z (ohms)
EOC	QUANT	0	Open Circuit (V)
SEQUENCER	TOGGLE	TRUE	Run as Sequence
PSTATMODEL	IQUANT	5	Pstat Model
PSTATSECTION	LABEL	REF3000-16137	Pstat Section
PSTATSERIALNO	LABEL	16137	Pstat Serial Number
CTRLMODE	IQUANT	1	Control Mode
IESTAB	IQUANT	0	I/E Stability
CASPEED	IQUANT	1	Control Amp Speed
CONVENTION	IQUANT	1	Current Convention
ICHRANGE	IQUANT	2	Ich Range
ICHRANGEMODE	TOGGLE	F	Ich Auto Range
ICHOFFSETENABLE	TOGGLE	T	Ich Offset Enable
ICHOFFSET	QUANT	0	Ich Offset (V)
ICHFILTER	IQUANT	3	Ich Filter
VCHRANGE	IQUANT	2	Vch Range
VCHRANGEMODE	TOGGLE	F	Vch Auto Range
VCHOFFSETENABLE	TOGGLE	T	Vch Offset Enable
VCHOFFSET	QUANT	0	Vch Offset (V)
VCHFILTER	IQUANT	3	Vch Filter
ACHRANGE	IQUANT	2	Ach Range
ACHOFFSETENABLE	TOGGLE	F	Ach Offset Enable
ACHOFFSET	QUANT	0	Ach Offset (V)
ACHFILTER	IQUANT	3	Ach Filter
IERANGELOWERLIMIT	IQUANT	2	I/E Range Lower Limit
IERANGEMODE	TOGGLE	F	I/E AutoRange
IERANGE	IQUANT	11	I/E Range
POSFEEDENABLE	TOGGLE	F	Positive Feedback IR Comp
POSFEEDRESISTANCE	QUANT	0	Positive Feedback Resistance (ohm)
ACHSELECT	IQUANT	0	Ach Select
CABLEID	IQUANT	13	Cable ID
DCCALDATE	LABEL	7/31/2020	DC Calibration Date
ACCALDATE	LABEL	7/31/2020	AC Calibration Date
THERMOSELECT	IQUANT	1	Thermo Select
FRAMEWORKVERSION	QUANT	6.33	Framework Version
INSTRUMENTVERSION	LABEL	3.50	Instrument Version
COMPLIANCEVOLTAGE	IQUANT	0	Compliance Voltage
ZCURVE	TABLE
	Pt	Time	Freq	Zreal	Zimag	Zsig	Zmod	Zphz	Idc	Vdc	IERange
	#	s	Hz	ohm	ohm	V	ohm	°	A	V	#
	0	14	300046.9	219.3257	-4764.09	1	4769.136	-87.36412	2.570866E-005	0.0009955	9
	1	34	238359.4	392.6356	-5900.018	1	5913.068	-86.19268	-2.916993E-005	-0.0010775	9
	2	57	189328.1	686.8456	-7555.855	1	7587.009	-84.80595	-1.685915E-006	0.001704	9
	3	68	150421.9	1174.418	-10757.93	1	10821.84	-83.76983	7.622773E-005	-0.0015333	9
	4	80	119484.4	1643.345	-11430.7	1	11548.22	-81.81888	2.116174E-005	-0.013737	8
	5	88	94921.88	2688.553	-14048.22	1	14303.17	-79.16572	-2.600232E-005	0.0075073	8
	6	96	75421.88	3245.778	-17160.4	1	17464.66	-79.28941	2.59414E-005	-0.0087845	8
	7	105	59859.37	5235.478	-21420.31	1	22050.85	-76.26524	-2.636128E-005	0.0095558	8
	8	113	47578.12	7684.972	-26099.64	1	27207.54	-73.59307	-2.597674E-005	0.0075385	8
	9	121	37828.12	8672.489	-30886.96	1	32081.4	-74.31624	2.467606E-005	-0.0001379	9
	10	131	30046.88	15385.06	-39021.11	1	41944.57	-68.4819	2.286207E-005	-0.0026928	8
	11	140	23859.38	21735.18	-46856.71	1	51652.39	-65.11507	-2.317971E-005	0.0050538	8
	12	147	18984.38	29180.37	-51490.78	1	59184.41	-60.45931	-2.408175E-005	0.010803	8
	13	153	15046.87	41179.85	-56321.44	1	69770.23	-53.82731	8.342961E-006	-0.007673	8
	14	160	11953.13	58223.57	-62454.62	1	85384.8	-47.008	4.157517E-007	0.0163251	7
	15	165	9515.62	72277.05	-69213.73	1	100072.5	-43.75972	-2.44827E-005	0.0109945	8
	16	173	7546.875	91760.57	-63524.52	1	111603.6	-34.6943	-1.181191E-005	0.0100802	8
	17	180	5928.309	101451.7	-61539.91	1	118657.5	-31.24071	4.867803E-006	-0.0005061	7
	18	187	4733.456	120187.4	-55800.74	1	132509.4	-24.90455	5.387903E-006	-0.026576	7
	19	193	3796.875	123790.6	-52103.54	1	134308.9	-22.82626	3.971272E-007	0.0161577	7
	20	198	2987.132	144109	-37011.82	1	148786	-14.40408	4.299272E-007	0.0020174	6
	21	203	2390.625	148428.9	-32985.92	1	152050	-12.52944	7.262418E-007	-0.027051	6
	22	207	1884.191	155006.8	-28278.8	1	157565.2	-10.3391	-2.135565E-007	0.0223505	6
	23	211	1516.544	158840.2	-26324.83	1	161006.8	-9.410186	-2.766971E-007	-0.0073295	6
	24	215	1193.986	163452.8	-23450.13	1	165126.4	-8.164361	-2.15354E-007	0.0224321	6
	25	220	946.5144	163806.1	-20519.11	1	165086.3	-7.139945	-2.098476E-007	0.0218227	6
	26	222	751.7689	169703.7	-21097.32	1	171010.1	-7.086569	4.091584E-007	-0.0256665	6
	27	225	597.4265	174131.9	-16680.2	1	174929	-5.471703	-2.669964E-007	-0.0072145	6
	28	228	477.4305	174443.3	-22024.73	1	175828.1	-7.195933	-7.459463E-009	0.0007177	6
	29	230	376.6741	177308.8	-23685.98	1	178883.8	-7.608869	-7.202309E-009	0.0006921	6
	30	232	298.2954	180237.1	-26890.35	1	182232	-8.485613	-7.066439E-009	0.0007187	6
	31	235	237.7717	183879	-29740.62	1	186268.6	-9.187462	-6.69835E-009	0.0006393	6
	32	237	189.0121	187832.9	-34412.6	1	190959.3	-10.38194	-6.530366E-009	0.0006161	6
	33	239	150.2404	192413.3	-39964.35	1	196519.8	-11.73353	-7.361174E-009	0.000665	6
	34	242	119.1737	197410.5	-46425.96	1	202796.1	-13.23404	-6.700011E-009	0.0006958	6
	35	245	95.0169	203698.4	-55146.88	1	211031.3	-15.14845	-6.611955E-009	0.0006165	6
	36	247	75.60484	210502	-64856.01	1	220266.7	-17.12415	-7.35522E-009	0.0007136	6
	37	250	54.50582	223767.9	-82526.65	1	238501	-20.24421	-6.895231E-009	0.0006083	6
	38	252	45.95588	231434	-92933.09	1	249395.8	-21.87809	-7.026943E-009	0.0006477	6
	39	256	37.20238	241582.1	-107711.4	1	264506.5	-24.03011	-6.622682E-009	0.0006575	6
	40	258	30.04808	254583.3	-124349.2	1	283329.1	-26.03283	-7.193149E-009	0.0007002	6
	41	261	23.91582	269720.3	-144691	1	306079.3	-28.21125	-7.184556E-009	0.0006986	6
	42	264	18.60119	289147.6	-170919	1	335886.4	-30.58789	-6.763652E-009	0.0006137	6
	43	266	15.02404	306954.3	-194576.9	1	363429.7	-32.37042	-6.312151E-009	0.0006239	6
	44	268	12.01923	327912.8	-222500	1	396274	-34.15823	-7.103987E-010	0.0006612	5
	45	271	9.450605	350814.3	-258609.7	1	435832.2	-36.39651	-9.895053E-010	0.000692	5
	46	273	7.512019	372055.6	-300071.1	1	477983.3	-38.88695	-8.725295E-010	0.0005895	5
	47	276	5.978954	394943.5	-350164.8	1	527821.8	-41.56084	-7.100541E-010	0.0006106	5
	48	281	4.734848	417219.8	-414614.7	1	588198.6	-44.82057	-7.850299E-010	0.0005975	5
	49	284	3.75601	440481.7	-495642.5	1	663087.9	-48.37223	-8.501905E-010	0.0006501	5
	50	290	3.004808	465936.9	-594091.3	1	755011.1	-51.89344	-7.327446E-010	0.000679	5
	51	296	2.372217	491795.3	-724769.1	1	875872.6	-55.84097	-7.406745E-010	0.0006977	5
	52	300	1.878005	517282.2	-891704.9	1	1030882	-59.88178	-8.31096E-010	0.0006417	5
	53	305	1.512097	542688.8	-1083766	1	1212048	-63.40088	-7.738168E-010	0.0005877	5
	54	310	1.201923	577032.4	-1340471	1	1459393	-66.70958	-8.308285E-010	0.000647	5
	55	317	0.956633	614758.6	-1656933	1	1767302	-69.64404	-8.153674E-010	1.137951E-005	5
