June 14, 2026   14:05:42
A.C. Impedance
File: e:\chi_data\6.14Data Source:  Experiment
Instrument Model:  CHI660E
Ref. Electrode: 
Header: 
Note: 

Init E (V) = 0
High Frequency (Hz) = 1e+6
Low Frequency (Hz) = 0.1
Imp SF
Amplitude (V) = 0.005
Quiet Time (sec) = 2
Cycles (.1-1Hz) = 1

Freq/Hz	Z'/ohm	Z"/ohm	Z/ohm	Phase/deg

8.252e+5	4.724e+0	1.387e+1	1.465e+1	71.2
6.816e+5	4.111e+0	1.138e+1	1.210e+1	70.1
5.625e+5	3.558e+0	9.351e+0	1.001e+1	69.2
4.639e+5	3.324e+0	7.678e+0	8.367e+0	66.6
3.828e+5	3.157e+0	6.335e+0	7.078e+0	63.5
3.164e+5	3.065e+0	5.223e+0	6.056e+0	59.6
2.607e+5	2.973e+0	4.301e+0	5.229e+0	55.3
2.158e+5	2.908e+0	3.511e+0	4.559e+0	50.4
1.777e+5	2.870e+0	2.819e+0	4.023e+0	44.5
1.465e+5	2.855e+0	2.232e+0	3.624e+0	38.0
1.211e+5	2.847e+0	1.748e+0	3.341e+0	31.5
9.961e+4	2.856e+0	1.343e+0	3.156e+0	25.2
8.252e+4	2.875e+0	1.000e+0	3.044e+0	19.2
6.812e+4	2.903e+0	7.009e-1	2.986e+0	13.6
5.625e+4	2.937e+0	4.363e-1	2.969e+0	8.4
4.644e+4	2.979e+0	1.953e-1	2.985e+0	3.8
3.833e+4	3.032e+0	-2.425e-2	3.032e+0	-0.5
3.164e+4	3.095e+0	-2.274e-1	3.103e+0	-4.2
2.612e+4	3.162e+0	-4.221e-1	3.190e+0	-7.6
2.153e+4	3.236e+0	-6.117e-1	3.293e+0	-10.7
1.777e+4	3.316e+0	-8.002e-1	3.411e+0	-13.6
1.470e+4	3.406e+0	-9.944e-1	3.548e+0	-16.3
1.211e+4	3.508e+0	-1.197e+0	3.706e+0	-18.8
1.001e+4	3.619e+0	-1.414e+0	3.885e+0	-21.3
8.252e+3	3.739e+0	-1.651e+0	4.087e+0	-23.8
6.812e+3	3.870e+0	-1.911e+0	4.316e+0	-26.3
5.625e+3	4.014e+0	-2.202e+0	4.578e+0	-28.7
4.643e+3	4.171e+0	-2.529e+0	4.878e+0	-31.2
3.833e+3	4.341e+0	-2.903e+0	5.222e+0	-33.8
3.164e+3	4.527e+0	-3.332e+0	5.621e+0	-36.3
2.612e+3	4.730e+0	-3.827e+0	6.084e+0	-39.0
2.153e+3	4.949e+0	-4.406e+0	6.626e+0	-41.7
1.777e+3	5.189e+0	-5.083e+0	7.263e+0	-44.4
1.470e+3	5.453e+0	-5.878e+0	8.018e+0	-47.1
1.211e+3	5.745e+0	-6.815e+0	8.913e+0	-49.9
1.001e+3	6.067e+0	-7.915e+0	9.972e+0	-52.5
8.252e+2	6.419e+0	-9.204e+0	1.122e+1	-55.1
6.836e+2	6.815e+0	-1.074e+1	1.272e+1	-57.6
5.615e+2	7.266e+0	-1.257e+1	1.452e+1	-60.0
4.639e+2	7.782e+0	-1.475e+1	1.668e+1	-62.2
3.809e+2	8.369e+0	-1.730e+1	1.922e+1	-64.2
3.174e+2	9.072e+0	-2.036e+1	2.229e+1	-66.0
2.588e+2	9.905e+0	-2.403e+1	2.599e+1	-67.6
2.148e+2	1.088e+1	-2.839e+1	3.040e+1	-69.0
1.758e+2	1.201e+1	-3.350e+1	3.559e+1	-70.3
1.465e+2	1.329e+1	-3.935e+1	4.153e+1	-71.3
1.221e+2	1.489e+1	-4.659e+1	4.891e+1	-72.3
9.766e+1	1.693e+1	-5.502e+1	5.757e+1	-72.9
8.254e+1	1.933e+1	-6.464e+1	6.747e+1	-73.4
6.813e+1	2.209e+1	-7.617e+1	7.931e+1	-73.8
5.623e+1	2.529e+1	-8.983e+1	9.332e+1	-74.3
4.642e+1	2.913e+1	-1.060e+2	1.100e+2	-74.6
3.831e+1	3.390e+1	-1.253e+2	1.298e+2	-74.9
3.162e+1	3.967e+1	-1.481e+2	1.533e+2	-75.0
2.610e+1	4.665e+1	-1.746e+2	1.807e+2	-75.0
2.154e+1	5.510e+1	-2.055e+2	2.128e+2	-75.0
1.778e+1	6.532e+1	-2.417e+2	2.503e+2	-74.9
1.468e+1	7.753e+1	-2.837e+2	2.941e+2	-74.7
1.212e+1	9.185e+1	-3.324e+2	3.449e+2	-74.6
1.000e+1	1.090e+2	-3.892e+2	4.041e+2	-74.4
8.254e+0	1.291e+2	-4.554e+2	4.734e+2	-74.2
6.813e+0	1.515e+2	-5.328e+2	5.539e+2	-74.1
5.623e+0	1.761e+2	-6.234e+2	6.478e+2	-74.2
4.642e+0	2.030e+2	-7.302e+2	7.579e+2	-74.5
3.831e+0	2.331e+2	-8.555e+2	8.867e+2	-74.8
3.162e+0	2.664e+2	-1.005e+3	1.040e+3	-75.2
2.610e+0	3.041e+2	-1.184e+3	1.222e+3	-75.6
2.154e+0	3.408e+2	-1.403e+3	1.443e+3	-76.3
1.778e+0	3.787e+2	-1.667e+3	1.710e+3	-77.2
1.468e+0	4.272e+2	-1.971e+3	2.017e+3	-77.8
1.212e+0	4.886e+2	-2.321e+3	2.372e+3	-78.1
1.000e+0	5.669e+2	-2.731e+3	2.790e+3	-78.3
8.254e-1	6.605e+2	-3.210e+3	3.278e+3	-78.4
6.813e-1	7.667e+2	-3.774e+3	3.851e+3	-78.5
5.623e-1	8.886e+2	-4.445e+3	4.533e+3	-78.7
4.642e-1	1.031e+3	-5.244e+3	5.345e+3	-78.9
3.831e-1	1.201e+3	-6.186e+3	6.301e+3	-79.0
3.162e-1	1.402e+3	-7.299e+3	7.432e+3	-79.1
2.610e-1	1.644e+3	-8.618e+3	8.773e+3	-79.2
2.154e-1	1.932e+3	-1.018e+4	1.036e+4	-79.3
1.778e-1	2.271e+3	-1.201e+4	1.222e+4	-79.3
1.468e-1	2.665e+3	-1.412e+4	1.437e+4	-79.3
1.212e-1	3.158e+3	-1.668e+4	1.697e+4	-79.3
1.000e-1	3.768e+3	-1.974e+4	2.009e+4	-79.2
