EXPLAIN
TAG	EISPOT
TITLE	LABEL	Potentiostatic EIS	Test Identifier
DATE	LABEL	9/12/2020	Date
TIME	LABEL	14:06:02	Time
NOTES	NOTES	1	Notes...
	
PSTAT	PSTAT	REF3000-16137	Potentiostat
VDC	POTEN	0.00000E+000	T	DC Voltage (V)
FREQINIT	QUANT	3.00000E+005	Initial Freq. (Hz)
FREQFINAL	QUANT	1.00000E+000	Final Freq. (Hz)
PTSPERDEC	QUANT	1.00000E+001	Points/decade
VAC	QUANT	5.00000E+001	AC Voltage (mV rms)
AREA	QUANT	1.00000E+000	Sample Area (cm^2)
SPEED	SELECTOR	2	Optimize for:
ZGUESS	QUANT	1.00000E+003	Estimated Z (ohms)
EOC	QUANT	0	Open Circuit (V)
SEQUENCER	TOGGLE	TRUE	Run as Sequence
PSTATMODEL	IQUANT	5	Pstat Model
PSTATSECTION	LABEL	REF3000-16137	Pstat Section
PSTATSERIALNO	LABEL	16137	Pstat Serial Number
CTRLMODE	IQUANT	1	Control Mode
IESTAB	IQUANT	0	I/E Stability
CASPEED	IQUANT	1	Control Amp Speed
CONVENTION	IQUANT	1	Current Convention
ICHRANGE	IQUANT	2	Ich Range
ICHRANGEMODE	TOGGLE	F	Ich Auto Range
ICHOFFSETENABLE	TOGGLE	T	Ich Offset Enable
ICHOFFSET	QUANT	0	Ich Offset (V)
ICHFILTER	IQUANT	3	Ich Filter
VCHRANGE	IQUANT	2	Vch Range
VCHRANGEMODE	TOGGLE	F	Vch Auto Range
VCHOFFSETENABLE	TOGGLE	T	Vch Offset Enable
VCHOFFSET	QUANT	0	Vch Offset (V)
VCHFILTER	IQUANT	3	Vch Filter
ACHRANGE	IQUANT	2	Ach Range
ACHOFFSETENABLE	TOGGLE	F	Ach Offset Enable
ACHOFFSET	QUANT	0	Ach Offset (V)
ACHFILTER	IQUANT	3	Ach Filter
IERANGELOWERLIMIT	IQUANT	2	I/E Range Lower Limit
IERANGEMODE	TOGGLE	F	I/E AutoRange
IERANGE	IQUANT	11	I/E Range
POSFEEDENABLE	TOGGLE	F	Positive Feedback IR Comp
POSFEEDRESISTANCE	QUANT	0	Positive Feedback Resistance (ohm)
ACHSELECT	IQUANT	0	Ach Select
CABLEID	IQUANT	13	Cable ID
DCCALDATE	LABEL	7/31/2020	DC Calibration Date
ACCALDATE	LABEL	7/31/2020	AC Calibration Date
THERMOSELECT	IQUANT	1	Thermo Select
FRAMEWORKVERSION	QUANT	6.33	Framework Version
INSTRUMENTVERSION	LABEL	3.50	Instrument Version
COMPLIANCEVOLTAGE	IQUANT	0	Compliance Voltage
ZCURVE	TABLE
	Pt	Time	Freq	Zreal	Zimag	Zsig	Zmod	Zphz	Idc	Vdc	IERange
	#	s	Hz	ohm	ohm	V	ohm	°	A	V	#
	0	10	300046.9	5.351894	2.25146	1	5.80619	22.81574	-3.506264E-006	4.672228E-005	10
	1	13	238359.4	5.317607	1.7824	1	5.608377	18.53056	-1.616084E-005	-0.0001382	10
	2	16	189328.1	5.31181	1.408255	1	5.495317	14.84853	-4.998571E-005	0.0001612	10
	3	19	150421.9	5.299367	1.093247	1	5.410959	11.65646	-2.023781E-005	0.0002947	10
	4	21	119484.4	5.308012	0.8516012	1	5.375893	9.114685	-0.000098	0.0004507	10
	5	24	94921.88	5.315027	0.6662481	1	5.356622	7.144862	-1.546021E-005	0.0005255	10
	6	27	75421.88	5.318445	0.4883819	1	5.340821	5.24664	2.259103E-005	0.0005029	10
	7	29	59859.37	5.327906	0.3371333	1	5.338562	3.620672	-6.992477E-007	0.0005497	10
	8	32	47578.12	5.338518	0.2044912	1	5.342433	2.193635	2.081302E-005	0.0005613	10
	9	34	37828.12	5.352222	0.0856659	1	5.352908	0.9169792	-3.040504E-005	0.0006085	10
	10	37	30046.88	5.367449	-0.0276054	1	5.36752	-0.2946759	1.748089E-005	0.0005862	10
	11	39	23859.38	5.384252	-0.1388646	1	5.386042	-1.477381	-1.346152E-005	0.0006181	10
	12	41	18984.38	5.401644	-0.2539854	1	5.407612	-2.692066	-1.59293E-005	0.0006607	10
	13	44	15046.87	5.421038	-0.3826005	1	5.434522	-4.03707	-6.827707E-006	0.0006149	10
	14	46	11953.13	5.44266	-0.5265458	1	5.468071	-5.525837	-2.932271E-005	0.0006451	10
	15	48	9515.62	5.468776	-0.6932351	1	5.512539	-7.224418	-5.039515E-006	0.0006137	10
	16	51	7546.875	5.498703	-0.8938201	1	5.570875	-9.232738	2.222542E-005	0.0006391	10
	17	53	5928.309	5.535524	-1.146986	1	5.653106	-11.70629	-2.110308E-005	0.0006724	10
	18	55	4733.456	5.57722	-1.434705	1	5.758799	-14.4262	-2.694243E-005	0.0006687	10
	19	58	3796.875	5.626021	-1.777552	1	5.900153	-17.53403	-7.758081E-006	0.000633	10
	20	60	2987.132	5.691803	-2.235191	1	6.114957	-21.44011	-2.652844E-005	0.0006639	10
	21	62	2390.625	5.767287	-2.75648	1	6.392165	-25.54551	-2.192889E-006	0.0006307	10
	22	64	1884.191	5.864739	-3.448158	1	6.803305	-30.45329	-2.63777E-005	0.0006741	10
	23	67	1516.544	5.97602	-4.217348	1	7.31429	-35.21107	-3.920138E-006	0.0006209	10
	24	69	1193.986	6.127429	-5.262343	1	8.076982	-40.65656	1.678486E-005	0.0006116	10
	25	72	946.5144	6.309632	-6.52295	1	9.075259	-45.95235	7.579658E-006	0.0006664	10
	26	74	751.7689	6.538035	-8.061416	1	10.37942	-50.95697	-5.18527E-006	0.000661	10
	27	76	597.4265	6.822298	-9.9487	1	12.06318	-55.5597	1.898877E-005	0.0006194	10
	28	79	477.4305	7.162757	-12.21635	1	14.16137	-59.61582	-1.997397E-006	0.0006588	10
	29	81	376.6741	7.614901	-15.17301	1	16.97665	-63.34922	-5.707198E-006	0.0007074	10
	30	83	298.2954	8.176903	-18.77818	1	20.48125	-66.46943	-2.744802E-006	0.0006593	10
	31	85	237.7717	8.868727	-23.09654	1	24.74075	-68.99396	-6.476556E-006	0.0007107	10
	32	88	189.0121	9.7562	-28.47823	1	30.10304	-71.08932	-2.972531E-006	0.000655	10
	33	90	150.2404	10.88997	-35.09457	1	36.74534	-72.7607	-2.501774E-006	0.0006602	10
	34	93	119.1737	12.34571	-43.25646	1	44.98375	-74.07087	1.206112E-006	6.060094E-005	9
	35	95	95.0169	14.19682	-53.08865	1	54.95411	-75.02845	1.11619E-006	5.875277E-005	9
	36	98	75.60484	16.60874	-65.21806	1	67.29967	-75.71249	1.14397E-006	5.732998E-005	9
	37	100	54.50582	21.34381	-87.35799	1	89.92762	-76.27014	1.088055E-006	5.307166E-005	9
	38	103	45.95588	24.59476	-101.6143	1	104.5484	-76.39378	1.268335E-006	5.740007E-005	9
	39	105	37.20238	29.55727	-122.3198	1	125.8402	-76.41549	8.609253E-007	0.0001087	9
	40	107	30.04808	35.8982	-147.323	1	151.6336	-76.30561	1.171352E-006	5.544191E-005	9
	41	110	23.91582	44.33013	-179.2416	1	184.6421	-76.10834	1.052727E-006	5.821267E-005	9
	42	112	18.60119	55.99268	-221.7226	1	228.6833	-75.82714	1.457071E-006	6.010316E-005	9
	43	114	15.02404	68.23341	-265.0302	1	273.6729	-75.56244	1.272579E-006	5.294189E-005	9
	44	117	12.01923	83.5879	-319.0865	1	329.8532	-75.32065	1.168132E-006	5.420492E-005	9
	45	119	9.450605	103.0651	-389.0259	1	402.447	-75.16145	1.192332E-006	6.337489E-005	9
	46	122	7.512019	124.2294	-467.7317	1	483.9482	-75.12567	5.429017E-007	0.0006532	8
	47	124	5.978954	149.0597	-563.8254	1	583.1963	-75.19139	5.214043E-007	0.000639	8
	48	127	4.734848	178.3426	-683.7907	1	706.6653	-75.38207	6.010509E-007	0.0006331	8
	49	131	3.75601	210.5837	-829.0561	1	855.3826	-75.74804	5.550772E-007	0.0006445	8
	50	134	3.004808	245.5967	-999.71	1	1029.435	-76.19759	5.774573E-007	0.000613	8
	51	138	2.372217	288.7898	-1224.452	1	1258.047	-76.72918	5.409535E-007	0.0005627	8
	52	142	1.878005	336.0607	-1500.528	1	1537.699	-77.37625	5.813277E-007	0.0006456	8
	53	147	1.512097	390.3312	-1812.471	1	1854.025	-77.84648	5.272682E-007	0.0005891	8
	54	152	1.201923	458.2192	-2231.662	1	2278.218	-78.39693	5.750892E-007	0.0006624	8
	55	158	0.956633	545.5117	-2741.693	1	2795.436	-78.74689	5.427685E-007	-6.074315E-006	8
