EXPLAIN
TAG	EISPOT
TITLE	LABEL	Potentiostatic EIS	Test Identifier
DATE	LABEL	9/12/2020	Date
TIME	LABEL	14:19:55	Time
NOTES	NOTES	1	Notes...
	
PSTAT	PSTAT	REF3000-16137	Potentiostat
VDC	POTEN	0.00000E+000	T	DC Voltage (V)
FREQINIT	QUANT	3.00000E+005	Initial Freq. (Hz)
FREQFINAL	QUANT	1.00000E+000	Final Freq. (Hz)
PTSPERDEC	QUANT	1.00000E+001	Points/decade
VAC	QUANT	5.00000E+001	AC Voltage (mV rms)
AREA	QUANT	1.00000E+000	Sample Area (cm^2)
SPEED	SELECTOR	2	Optimize for:
ZGUESS	QUANT	1.00000E+003	Estimated Z (ohms)
EOC	QUANT	0	Open Circuit (V)
SEQUENCER	TOGGLE	TRUE	Run as Sequence
PSTATMODEL	IQUANT	5	Pstat Model
PSTATSECTION	LABEL	REF3000-16137	Pstat Section
PSTATSERIALNO	LABEL	16137	Pstat Serial Number
CTRLMODE	IQUANT	1	Control Mode
IESTAB	IQUANT	0	I/E Stability
CASPEED	IQUANT	1	Control Amp Speed
CONVENTION	IQUANT	1	Current Convention
ICHRANGE	IQUANT	2	Ich Range
ICHRANGEMODE	TOGGLE	F	Ich Auto Range
ICHOFFSETENABLE	TOGGLE	T	Ich Offset Enable
ICHOFFSET	QUANT	0	Ich Offset (V)
ICHFILTER	IQUANT	3	Ich Filter
VCHRANGE	IQUANT	2	Vch Range
VCHRANGEMODE	TOGGLE	F	Vch Auto Range
VCHOFFSETENABLE	TOGGLE	T	Vch Offset Enable
VCHOFFSET	QUANT	0	Vch Offset (V)
VCHFILTER	IQUANT	3	Vch Filter
ACHRANGE	IQUANT	2	Ach Range
ACHOFFSETENABLE	TOGGLE	F	Ach Offset Enable
ACHOFFSET	QUANT	0	Ach Offset (V)
ACHFILTER	IQUANT	3	Ach Filter
IERANGELOWERLIMIT	IQUANT	2	I/E Range Lower Limit
IERANGEMODE	TOGGLE	F	I/E AutoRange
IERANGE	IQUANT	11	I/E Range
POSFEEDENABLE	TOGGLE	F	Positive Feedback IR Comp
POSFEEDRESISTANCE	QUANT	0	Positive Feedback Resistance (ohm)
ACHSELECT	IQUANT	0	Ach Select
CABLEID	IQUANT	13	Cable ID
DCCALDATE	LABEL	7/31/2020	DC Calibration Date
ACCALDATE	LABEL	7/31/2020	AC Calibration Date
THERMOSELECT	IQUANT	1	Thermo Select
FRAMEWORKVERSION	QUANT	6.33	Framework Version
INSTRUMENTVERSION	LABEL	3.50	Instrument Version
COMPLIANCEVOLTAGE	IQUANT	0	Compliance Voltage
ZCURVE	TABLE
	Pt	Time	Freq	Zreal	Zimag	Zsig	Zmod	Zphz	Idc	Vdc	IERange
	#	s	Hz	ohm	ohm	V	ohm	°	A	V	#
	0	8	300046.9	11.48459	2.136712	1	11.68167	10.5394	2.235212E-005	0.0001396	10
	1	11	238359.4	11.48948	1.709755	1	11.616	8.464097	6.6389E-005	-6.138313E-005	10
	2	14	189328.1	11.5095	1.346914	1	11.58804	6.674752	6.075955E-005	0.0003253	10
	3	17	150421.9	11.54406	1.054012	1	11.59208	5.216838	-0.000098	0.0005202	10
	4	19	119484.4	11.56165	0.8095962	1	11.58996	4.005558	-2.327519E-005	0.0005072	10
	5	22	94921.88	11.58881	0.632036	1	11.60603	3.121732	-1.115724E-005	0.0005682	10
	6	24	75421.88	11.6208	0.4520823	1	11.62959	2.227847	-1.748753E-005	0.0006688	10
	7	27	59859.37	11.65699	0.2976068	1	11.66079	1.462463	1.838841E-005	0.0006338	10
	8	29	47578.12	11.69674	0.1657299	1	11.69792	0.8117633	1.877938E-005	0.0005849	10
	9	32	37828.12	11.73656	0.0465622	1	11.73665	0.2273071	-1.798558E-005	0.0007025	10
	10	34	30046.88	11.77695	-0.0684023	1	11.77715	-0.3327785	1.709359E-005	0.0006667	10
	11	37	23859.38	11.81863	-0.1853545	1	11.82008	-0.8985105	-6.010574E-007	0.0006884	10
	12	39	18984.38	11.85919	-0.3080883	1	11.8632	-1.488144	1.661004E-005	0.0006198	10
	13	41	15046.87	11.90222	-0.4457969	1	11.91057	-2.145007	-3.067263E-006	0.0006179	10
	14	44	11953.13	11.9515	-0.6011294	1	11.96661	-2.879401	-2.493579E-005	0.0007074	10
	15	46	9515.62	12.00156	-0.7842041	1	12.02715	-3.738498	8.851293E-006	0.0006902	10
	16	48	7546.875	12.05698	-1.004878	1	12.09879	-4.764253	-1.657318E-005	0.000666	10
	17	51	5928.309	12.11918	-1.286742	1	12.1873	-6.060616	2.061364E-005	0.0006463	10
	18	53	4733.456	12.18474	-1.606695	1	12.29022	-7.511752	1.911999E-005	0.0006405	10
	19	55	3796.875	12.26012	-1.989092	1	12.42043	-9.215414	-1.750359E-005	0.0006558	10
	20	58	2987.132	12.35277	-2.500828	1	12.60337	-11.44489	-2.66755E-005	0.0006769	10
	21	60	2390.625	12.45458	-3.089215	1	12.83198	-13.93042	2.377822E-005	0.0006493	10
	22	62	1884.191	12.57968	-3.864647	1	13.15993	-17.07766	1.402668E-005	0.0006535	10
	23	64	1516.544	12.72132	-4.732575	1	13.5731	-20.40618	-2.587243E-005	0.0007235	10
	24	67	1193.986	12.90442	-5.914451	1	14.19524	-24.62328	-2.755977E-005	0.0006794	10
	25	69	946.5144	13.12533	-7.333605	1	15.03516	-29.19369	2.345872E-005	0.000612	10
	26	72	751.7689	13.39219	-9.079288	1	16.17975	-34.13546	-2.906824E-006	0.0006147	10
	27	74	597.4265	13.71614	-11.22424	1	17.72332	-39.29427	2.231978E-005	0.0006109	10
	28	76	477.4305	14.11091	-13.793	1	19.73233	-44.34724	-2.176268E-006	0.0006604	10
	29	79	376.6741	14.62373	-17.14281	1	22.53285	-49.53406	-1.908975E-006	0.000656	10
	30	81	298.2954	15.25224	-21.22535	1	26.13707	-54.2995	-2.443656E-006	0.0006642	10
	31	83	237.7717	16.01307	-26.11832	1	30.63634	-58.48765	-1.785453E-006	0.0006605	10
	32	86	189.0121	16.9616	-32.2075	1	36.40081	-62.22713	-2.327185E-006	0.000713	10
	33	88	150.2404	18.12267	-39.66196	1	43.60622	-65.443	1.32837E-006	5.419182E-005	9
	34	90	119.1737	19.61269	-48.99112	1	52.77108	-68.18222	1.363525E-006	5.995677E-005	9
	35	93	95.0169	21.44362	-60.21712	1	63.92128	-70.39893	8.961238E-007	0.0001119	9
	36	95	75.60484	23.77702	-74.14186	1	77.86118	-72.21915	1.260674E-006	5.711914E-005	9
	37	98	54.50582	28.24708	-99.7819	1	103.7031	-74.19381	1.278079E-006	5.489802E-005	9
	38	100	45.95588	31.29875	-116.478	1	120.6099	-74.95937	1.263257E-006	5.843911E-005	9
	39	103	37.20238	35.94946	-140.9745	1	145.486	-75.69408	1.19635E-006	6.089432E-005	9
	40	105	30.04808	41.89693	-170.8134	1	175.8766	-76.21863	1.27245E-006	5.973884E-005	9
	41	107	23.91582	50.08034	-209.6007	1	215.5005	-76.56213	1.379733E-006	5.665029E-005	9
	42	110	18.60119	61.7728	-261.9059	1	269.0921	-76.72883	1.139127E-006	6.39703E-005	9
	43	112	15.02404	74.64735	-316.2307	1	324.9217	-76.71826	1.530577E-006	7.193893E-005	9
	44	114	12.01923	91.60054	-384.0155	1	394.7892	-76.58374	1.343703E-006	5.890537E-005	9
	45	117	9.450605	114.5222	-470.4848	1	484.2224	-76.3195	4.742671E-007	0.000637	8
	46	119	7.512019	142.258	-571.5518	1	588.9896	-76.02321	5.148764E-007	0.0006242	8
	47	122	5.978954	175.8992	-692.5128	1	714.503	-75.74818	5.933518E-007	0.0006391	8
	48	125	4.734848	217.6329	-840.7169	1	868.4291	-75.48667	5.622649E-007	0.0006094	8
	49	128	3.75601	267.1582	-1018.121	1	1052.589	-75.29689	6.696395E-007	0.0006547	8
	50	132	3.004808	322.7802	-1222.744	1	1264.63	-75.21238	6.067281E-007	0.0006522	8
	51	135	2.372217	392.0636	-1483.332	1	1534.271	-75.19457	5.977223E-007	0.0006257	8
	52	140	1.878005	471.5113	-1802.775	1	1863.417	-75.34277	6.530147E-007	0.0006186	8
	53	144	1.512097	549.8657	-2157.139	1	2226.118	-75.69955	6.065027E-007	0.0007038	8
	54	150	1.201923	651.5351	-2621.081	1	2700.845	-76.04063	6.461191E-007	0.0006397	8
	55	156	0.956633	761.393	-3183.469	1	3273.254	-76.54919	6.056956E-007	3.032617E-005	8
