EXPLAIN
TAG	EISPOT
TITLE	LABEL	Potentiostatic EIS	Test Identifier
DATE	LABEL	9/12/2020	Date
TIME	LABEL	13:34:58	Time
NOTES	NOTES	1	Notes...
	
PSTAT	PSTAT	REF3000-16137	Potentiostat
VDC	POTEN	0.00000E+000	T	DC Voltage (V)
FREQINIT	QUANT	3.00000E+005	Initial Freq. (Hz)
FREQFINAL	QUANT	1.00000E+000	Final Freq. (Hz)
PTSPERDEC	QUANT	1.00000E+001	Points/decade
VAC	QUANT	5.00000E+001	AC Voltage (mV rms)
AREA	QUANT	1.00000E+000	Sample Area (cm^2)
SPEED	SELECTOR	2	Optimize for:
ZGUESS	QUANT	1.00000E+003	Estimated Z (ohms)
EOC	QUANT	0	Open Circuit (V)
SEQUENCER	TOGGLE	TRUE	Run as Sequence
PSTATMODEL	IQUANT	5	Pstat Model
PSTATSECTION	LABEL	REF3000-16137	Pstat Section
PSTATSERIALNO	LABEL	16137	Pstat Serial Number
CTRLMODE	IQUANT	1	Control Mode
IESTAB	IQUANT	0	I/E Stability
CASPEED	IQUANT	1	Control Amp Speed
CONVENTION	IQUANT	1	Current Convention
ICHRANGE	IQUANT	2	Ich Range
ICHRANGEMODE	TOGGLE	F	Ich Auto Range
ICHOFFSETENABLE	TOGGLE	T	Ich Offset Enable
ICHOFFSET	QUANT	0	Ich Offset (V)
ICHFILTER	IQUANT	3	Ich Filter
VCHRANGE	IQUANT	2	Vch Range
VCHRANGEMODE	TOGGLE	F	Vch Auto Range
VCHOFFSETENABLE	TOGGLE	T	Vch Offset Enable
VCHOFFSET	QUANT	0	Vch Offset (V)
VCHFILTER	IQUANT	3	Vch Filter
ACHRANGE	IQUANT	2	Ach Range
ACHOFFSETENABLE	TOGGLE	F	Ach Offset Enable
ACHOFFSET	QUANT	0	Ach Offset (V)
ACHFILTER	IQUANT	3	Ach Filter
IERANGELOWERLIMIT	IQUANT	2	I/E Range Lower Limit
IERANGEMODE	TOGGLE	F	I/E AutoRange
IERANGE	IQUANT	11	I/E Range
POSFEEDENABLE	TOGGLE	F	Positive Feedback IR Comp
POSFEEDRESISTANCE	QUANT	0	Positive Feedback Resistance (ohm)
ACHSELECT	IQUANT	0	Ach Select
CABLEID	IQUANT	13	Cable ID
DCCALDATE	LABEL	7/31/2020	DC Calibration Date
ACCALDATE	LABEL	7/31/2020	AC Calibration Date
THERMOSELECT	IQUANT	1	Thermo Select
FRAMEWORKVERSION	QUANT	6.33	Framework Version
INSTRUMENTVERSION	LABEL	3.50	Instrument Version
COMPLIANCEVOLTAGE	IQUANT	0	Compliance Voltage
ZCURVE	TABLE
	Pt	Time	Freq	Zreal	Zimag	Zsig	Zmod	Zphz	Idc	Vdc	IERange
	#	s	Hz	ohm	ohm	V	ohm	°	A	V	#
	0	10	300046.9	2.401369	2.234479	1	3.280163	42.93825	5.071917E-006	-0.0002221	11
	1	13	238359.4	2.369327	1.779743	1	2.963308	36.91241	-9.150346E-006	-0.0001505	11
	2	16	189328.1	2.335093	1.404716	1	2.725048	31.02974	6.88008E-005	-4.501068E-005	11
	3	19	150421.9	2.36545	0.976905	1	2.559238	22.44009	-0.0001747	0.0001885	12
	4	22	119484.4	2.339202	0.759407	1	2.459383	17.98569	-2.128305E-005	0.0005167	12
	5	26	94921.88	2.321184	0.5784649	1	2.392178	13.9937	-7.333744E-005	0.000465	12
	6	30	75421.88	2.310121	0.427026	1	2.349257	10.47291	-0.0001072	0.0004658	12
	7	33	59859.37	2.300629	0.349158	1	2.326973	8.629717	-5.312653E-005	0.0005412	11
	8	36	47578.12	2.302994	0.2268557	1	2.31414	5.625755	2.318764E-005	0.0006329	11
	9	38	37828.12	2.306724	0.1176929	1	2.309724	2.920795	6.317958E-006	0.0006369	11
	10	41	30046.88	2.310768	0.0148132	1	2.310816	0.3672899	-4.603728E-005	0.0006069	11
	11	43	23859.38	2.317273	-0.0857402	1	2.318859	-2.119005	-5.240007E-005	0.0006235	11
	12	46	18984.38	2.325447	-0.1881112	1	2.333043	-4.624729	1.336015E-005	0.000671	11
	13	48	15046.87	2.335878	-0.3002663	1	2.355098	-7.324939	2.038309E-005	0.0006925	11
	14	50	11953.13	2.348272	-0.4244493	1	2.386323	-10.24557	-4.204154E-005	0.0006554	11
	15	53	9515.62	2.363769	-0.5657475	1	2.43053	-13.46004	1.339487E-005	0.0006708	11
	16	55	7546.875	2.383949	-0.7350325	1	2.494692	-17.13587	5.442377E-006	0.0006541	11
	17	57	5928.309	2.410777	-0.9474058	1	2.590255	-21.45422	-1.142967E-005	0.0006658	11
	18	60	4733.456	2.442385	-1.186912	1	2.715512	-25.9181	-5.383322E-006	0.0006657	11
	19	62	3796.875	2.480708	-1.469779	1	2.883429	-30.64605	9.986577E-006	0.0006755	11
	20	64	2987.132	2.532236	-1.847832	1	3.134757	-36.1191	1.586561E-005	0.000683	11
	21	67	2390.625	2.591917	-2.278518	1	3.45104	-41.31825	-4.130691E-005	0.0006372	11
	22	69	1884.191	2.674524	-2.842551	1	3.90297	-46.74446	5.427511E-006	0.0006707	11
	23	71	1516.544	2.768935	-3.477419	1	4.445159	-51.47104	-1.57449E-005	0.000662	10
	24	73	1193.986	2.898014	-4.333781	1	5.213458	-56.22922	-2.245494E-005	0.0006576	10
	25	76	946.5144	3.056947	-5.364304	1	6.174195	-60.32256	-3.163817E-005	0.0006493	10
	26	78	751.7689	3.259558	-6.622807	1	7.381483	-63.7949	-2.21924E-005	0.0006576	10
	27	81	597.4265	3.516142	-8.166888	1	8.891644	-66.70637	-5.848136E-006	0.0006486	10
	28	83	477.4305	3.84506	-10.01664	1	10.72928	-68.99984	-2.884467E-006	0.0006587	10
	29	85	376.6741	4.290713	-12.41664	1	13.13709	-70.93681	-2.927018E-006	0.0006483	10
	30	88	298.2954	4.862369	-15.32368	1	16.07662	-72.3952	-3.011212E-006	0.0006527	10
	31	90	237.7717	5.583369	-18.77571	1	19.58829	-73.439	-2.849577E-006	0.0006531	10
	32	92	189.0121	6.527972	-23.02596	1	23.93344	-74.17171	-3.514748E-006	0.0006524	10
	33	95	150.2404	7.749987	-28.1912	1	29.23706	-74.62865	-2.622466E-006	0.000651	10
	34	97	119.1737	9.333179	-34.49709	1	35.73734	-74.86107	-2.418587E-006	0.0006526	10
	35	99	95.0169	11.28746	-41.87226	1	43.36696	-74.91345	-1.024025E-007	5.269257E-005	9
	36	102	75.60484	13.76867	-50.8389	1	52.67039	-74.84614	-2.370078E-007	4.8408E-005	9
	37	104	54.50582	18.33944	-66.82189	1	69.29286	-74.65292	-3.337989E-007	4.549435E-005	9
	38	107	45.95588	21.2791	-76.95416	1	79.84199	-74.543	1.203034E-007	6.168146E-005	9
	39	109	37.20238	25.4672	-91.50446	1	94.98234	-74.44724	-4.573877E-008	5.321868E-005	9
	40	112	30.04808	30.37517	-108.9687	1	113.1231	-74.42412	-5.498162E-008	4.628839E-005	9
	41	114	23.91582	36.29969	-131.1269	1	136.0585	-74.52638	-3.093498E-007	5.499398E-005	9
	42	117	18.60119	43.86746	-161.0644	1	166.9314	-74.76448	3.062273E-008	4.975195E-005	9
	43	119	15.02404	50.99964	-192.1247	1	198.7785	-75.13365	1.239754E-007	6.169167E-005	9
	44	121	12.01923	59.4161	-231.5121	1	239.0149	-75.60606	-1.77172E-007	5.417877E-005	9
	45	124	9.450605	69.69402	-284.1811	1	292.6024	-76.22045	1.335785E-009	6.434144E-005	9
	46	126	7.512019	81.14925	-346.7704	1	356.1389	-76.82898	9.477556E-008	4.303988E-005	9
	47	129	5.978954	94.29294	-421.9013	1	432.3099	-77.4017	-6.076345E-007	0.0006349	8
	48	132	4.734848	111.4448	-519.568	1	531.3858	-77.89377	-6.591702E-007	0.0006091	8
	49	135	3.75601	133.7127	-639.5101	1	653.3393	-78.19038	-5.798254E-007	0.0006492	8
	50	138	3.004808	161.0851	-782.1029	1	798.5195	-78.36188	-6.212987E-007	0.0006287	8
	51	142	2.372217	202.0796	-968.808	1	989.659	-78.21786	-6.650969E-007	0.0005708	8
	52	146	1.878005	255.2061	-1200.272	1	1227.103	-77.99632	-5.658841E-007	0.0006229	8
	53	151	1.512097	323.3011	-1458.067	1	1493.48	-77.49792	-6.313925E-007	0.0006667	8
	54	157	1.201923	426.6632	-1798.475	1	1848.392	-76.65409	-5.509874E-007	0.0006406	8
	55	163	0.956633	570.6072	-2203.775	1	2276.448	-75.48362	-6.575013E-007	-5.073695E-006	8
