EXPLAIN
TAG	EISPOT
TITLE	LABEL	Potentiostatic EIS	Test Identifier
DATE	LABEL	9/12/2020	Date
TIME	LABEL	14:53:52	Time
NOTES	NOTES	1	Notes...
	
PSTAT	PSTAT	REF3000-16137	Potentiostat
VDC	POTEN	0.00000E+000	T	DC Voltage (V)
FREQINIT	QUANT	3.00000E+005	Initial Freq. (Hz)
FREQFINAL	QUANT	1.00000E+000	Final Freq. (Hz)
PTSPERDEC	QUANT	1.00000E+001	Points/decade
VAC	QUANT	5.00000E+001	AC Voltage (mV rms)
AREA	QUANT	1.00000E+000	Sample Area (cm^2)
SPEED	SELECTOR	2	Optimize for:
ZGUESS	QUANT	1.00000E+003	Estimated Z (ohms)
EOC	QUANT	0	Open Circuit (V)
SEQUENCER	TOGGLE	TRUE	Run as Sequence
PSTATMODEL	IQUANT	5	Pstat Model
PSTATSECTION	LABEL	REF3000-16137	Pstat Section
PSTATSERIALNO	LABEL	16137	Pstat Serial Number
CTRLMODE	IQUANT	1	Control Mode
IESTAB	IQUANT	0	I/E Stability
CASPEED	IQUANT	1	Control Amp Speed
CONVENTION	IQUANT	1	Current Convention
ICHRANGE	IQUANT	2	Ich Range
ICHRANGEMODE	TOGGLE	F	Ich Auto Range
ICHOFFSETENABLE	TOGGLE	T	Ich Offset Enable
ICHOFFSET	QUANT	0	Ich Offset (V)
ICHFILTER	IQUANT	3	Ich Filter
VCHRANGE	IQUANT	2	Vch Range
VCHRANGEMODE	TOGGLE	F	Vch Auto Range
VCHOFFSETENABLE	TOGGLE	T	Vch Offset Enable
VCHOFFSET	QUANT	0	Vch Offset (V)
VCHFILTER	IQUANT	3	Vch Filter
ACHRANGE	IQUANT	2	Ach Range
ACHOFFSETENABLE	TOGGLE	F	Ach Offset Enable
ACHOFFSET	QUANT	0	Ach Offset (V)
ACHFILTER	IQUANT	3	Ach Filter
IERANGELOWERLIMIT	IQUANT	2	I/E Range Lower Limit
IERANGEMODE	TOGGLE	F	I/E AutoRange
IERANGE	IQUANT	11	I/E Range
POSFEEDENABLE	TOGGLE	F	Positive Feedback IR Comp
POSFEEDRESISTANCE	QUANT	0	Positive Feedback Resistance (ohm)
ACHSELECT	IQUANT	0	Ach Select
CABLEID	IQUANT	13	Cable ID
DCCALDATE	LABEL	7/31/2020	DC Calibration Date
ACCALDATE	LABEL	7/31/2020	AC Calibration Date
THERMOSELECT	IQUANT	1	Thermo Select
FRAMEWORKVERSION	QUANT	6.33	Framework Version
INSTRUMENTVERSION	LABEL	3.50	Instrument Version
COMPLIANCEVOLTAGE	IQUANT	0	Compliance Voltage
ZCURVE	TABLE
	Pt	Time	Freq	Zreal	Zimag	Zsig	Zmod	Zphz	Idc	Vdc	IERange
	#	s	Hz	ohm	ohm	V	ohm	°	A	V	#
	0	22	300046.9	682.7946	-139.9188	1	696.9833	-11.58077	1.895364E-005	-0.0005867	9
	1	29	238359.4	719.2869	-126.9787	1	730.4089	-10.01151	-9.064206E-005	0.002086	9
	2	42	189328.1	756.4252	-115.1684	1	765.1424	-8.657001	7.707725E-005	-0.0015789	9
	3	53	150421.9	792.2712	-101.8553	1	798.7917	-7.325831	-0.0001029	0.0037412	9
	4	64	119484.4	817.6513	-59.38976	1	819.8054	-4.154359	-5.35462E-006	0.0106234	8
	5	69	94921.88	830.8343	-45.96399	1	832.1047	-3.166529	7.629264E-006	0.0023985	8
	6	71	75421.88	839.5741	-39.67897	1	840.5112	-2.705832	-6.793633E-006	0.0069587	8
	7	74	59859.37	848.522	-33.93917	1	849.2005	-2.290495	-1.62828E-005	0.0079676	8
	8	76	47578.12	856.0203	-28.20175	1	856.4847	-1.886938	1.009203E-005	-0.0062299	8
	9	79	37828.12	864.2838	-24.08843	1	864.6194	-1.596476	-1.454059E-005	0.0016209	8
	10	82	30046.88	872.3628	-20.18568	1	872.5963	-1.325535	-1.246639E-005	0.0080535	8
	11	84	23859.38	882.8201	-15.74498	1	882.9604	-1.021754	-8.903989E-006	-0.0007241	8
	12	88	18984.38	891.0773	-15.39443	1	891.2103	-0.989755	-1.351994E-005	0.0015165	8
	13	90	15046.87	899.1668	-10.79895	1	899.2316	-0.6880867	-1.878876E-005	0.0059682	8
	14	93	11953.13	906.3724	-10.27967	1	906.4307	-0.6497955	-1.776977E-005	0.0046741	8
	15	96	9515.62	914.4482	-10.2602	1	914.5057	-0.6428371	-1.264464E-005	0.0014758	8
	16	98	7546.875	926.0505	-6.407309	1	926.0726	-0.396421	1.486118E-005	-0.0066968	8
	17	101	5928.309	932.5438	-5.785602	1	932.5618	-0.3554646	-1.643981E-005	0.0031192	8
	18	104	4733.456	942.4775	-6.741801	1	942.5016	-0.4098455	-1.254076E-005	0.0080649	8
	19	107	3796.875	951.528	-6.711866	1	951.552	-0.4041449	-8.846707E-006	-0.0007184	8
	20	109	2987.132	961.056	-8.385091	1	961.093	-0.4998855	-1.32506E-005	0.0013729	8
	21	113	2390.625	970.45	-7.596085	1	970.479	-0.4484671	-1.73156E-005	0.0083427	8
	22	115	1884.191	980.525	-6.355287	1	980.546	-0.3713582	-6.884253E-006	0.0072842	8
	23	118	1516.544	990.481	-10.17391	1	990.534	-0.5885035	-1.281709E-005	0.0082403	8
	24	122	1193.986	999.958	-11.49255	1	1000.024	-0.6584736	-1.696382E-005	0.0083449	8
	25	124	946.5144	1008.731	-15.77883	1	1008.854	-0.8961625	1.414195E-005	-0.0002001	8
	26	127	751.7689	1020.748	-17.75364	1	1020.902	-0.996432	-1.378499E-005	0.0014346	8
	27	130	597.4265	1029.191	-24.70846	1	1029.488	-1.375273	1.012879E-005	-0.006363	8
	28	132	477.4305	1038.15	-22.84761	1	1038.402	-1.260762	-2.367457E-007	0.0006442	8
	29	135	376.6741	1047.015	-28.05088	1	1047.39	-1.534661	-2.119819E-007	0.0006363	8
	30	137	298.2954	1055.962	-34.54259	1	1056.527	-1.87359	-2.326919E-007	0.0006442	8
	31	139	237.7717	1065.554	-42.39429	1	1066.397	-2.278377	-1.916424E-007	0.0006289	8
	32	142	189.0121	1075.448	-52.23867	1	1076.716	-2.780893	-1.973658E-007	0.0006189	8
	33	144	150.2404	1085.702	-64.50367	1	1087.617	-3.400056	-2.210386E-007	0.0006222	8
	34	147	119.1737	1096.271	-79.88626	1	1099.177	-4.16783	-2.106653E-007	0.0006283	8
	35	149	95.0169	1107.341	-98.5614	1	1111.718	-5.086341	-1.976628E-007	0.000623	8
	36	151	75.60484	1119.432	-121.8829	1	1126.047	-6.213845	-2.061756E-007	0.0006194	8
	37	154	54.50582	1134.135	-165.19	1	1146.103	-8.287018	-2.193169E-007	0.0006188	8
	38	156	45.95588	1146.673	-193.7287	1	1162.923	-9.58948	-2.283377E-007	0.000618	8
	39	159	37.20238	1160.634	-235.8798	1	1184.361	-11.48796	-1.752582E-007	0.0006214	8
	40	161	30.04808	1176.29	-287.7121	1	1210.965	-13.74429	-1.720192E-007	0.0006326	8
	41	164	23.91582	1193.929	-355.5359	1	1245.741	-16.58282	-1.767794E-007	0.0006286	8
	42	166	18.60119	1215.308	-449.3643	1	1295.725	-20.29204	-1.75014E-007	0.0006295	8
	43	168	15.02404	1237.444	-548.2099	1	1353.44	-23.89421	-1.120501E-007	0.0006174	8
	44	171	12.01923	1263.57	-673.2401	1	1431.734	-28.04904	-1.777742E-007	0.000615	8
	45	173	9.450605	1297.363	-840.3021	1	1545.722	-32.93114	-2.000999E-007	0.000631	8
	46	175	7.512019	1336.398	-1037.967	1	1692.14	-37.83614	-1.984629E-007	0.0006421	8
	47	178	5.978954	1384.333	-1280.189	1	1885.54	-42.76172	-1.761609E-007	0.0006149	8
	48	181	4.734848	1445.437	-1584.809	1	2144.972	-47.63338	-2.131564E-007	0.0006445	8
	49	184	3.75601	1518.81	-1957.714	1	2477.787	-52.19539	-2.547155E-007	0.0006422	8
	50	188	3.004808	1605.57	-2398.266	1	2886.093	-56.19883	-2.1675E-007	0.0006556	8
	51	192	2.372217	1717.233	-2974.283	1	3434.421	-59.99957	-2.378142E-007	0.000692	8
	52	196	1.878005	1854.994	-3675.458	1	4117.037	-63.22004	-2.451478E-007	0.0006048	8
	53	201	1.512097	2022.825	-4479.301	1	4914.871	-65.69636	-4.189575E-008	0.0006993	7
	54	206	1.201923	2223.567	-5526.622	1	5957.164	-68.08323	-4.703611E-008	0.0005716	7
	55	212	0.956633	2472.753	-6802.702	1	7238.181	-70.02401	-6.508616E-008	-3.198147E-005	7
