EXPLAIN
TAG	EISPOT
TITLE	LABEL	Potentiostatic EIS	Test Identifier
DATE	LABEL	9/12/2020	Date
TIME	LABEL	13:40:45	Time
NOTES	NOTES	1	Notes...
	
PSTAT	PSTAT	REF3000-16137	Potentiostat
VDC	POTEN	0.00000E+000	T	DC Voltage (V)
FREQINIT	QUANT	3.00000E+005	Initial Freq. (Hz)
FREQFINAL	QUANT	1.00000E+000	Final Freq. (Hz)
PTSPERDEC	QUANT	1.00000E+001	Points/decade
VAC	QUANT	5.00000E+001	AC Voltage (mV rms)
AREA	QUANT	1.00000E+000	Sample Area (cm^2)
SPEED	SELECTOR	2	Optimize for:
ZGUESS	QUANT	1.00000E+003	Estimated Z (ohms)
EOC	QUANT	0	Open Circuit (V)
SEQUENCER	TOGGLE	TRUE	Run as Sequence
PSTATMODEL	IQUANT	5	Pstat Model
PSTATSECTION	LABEL	REF3000-16137	Pstat Section
PSTATSERIALNO	LABEL	16137	Pstat Serial Number
CTRLMODE	IQUANT	1	Control Mode
IESTAB	IQUANT	0	I/E Stability
CASPEED	IQUANT	1	Control Amp Speed
CONVENTION	IQUANT	1	Current Convention
ICHRANGE	IQUANT	2	Ich Range
ICHRANGEMODE	TOGGLE	F	Ich Auto Range
ICHOFFSETENABLE	TOGGLE	T	Ich Offset Enable
ICHOFFSET	QUANT	0	Ich Offset (V)
ICHFILTER	IQUANT	3	Ich Filter
VCHRANGE	IQUANT	2	Vch Range
VCHRANGEMODE	TOGGLE	F	Vch Auto Range
VCHOFFSETENABLE	TOGGLE	T	Vch Offset Enable
VCHOFFSET	QUANT	0	Vch Offset (V)
VCHFILTER	IQUANT	3	Vch Filter
ACHRANGE	IQUANT	2	Ach Range
ACHOFFSETENABLE	TOGGLE	F	Ach Offset Enable
ACHOFFSET	QUANT	0	Ach Offset (V)
ACHFILTER	IQUANT	3	Ach Filter
IERANGELOWERLIMIT	IQUANT	2	I/E Range Lower Limit
IERANGEMODE	TOGGLE	F	I/E AutoRange
IERANGE	IQUANT	11	I/E Range
POSFEEDENABLE	TOGGLE	F	Positive Feedback IR Comp
POSFEEDRESISTANCE	QUANT	0	Positive Feedback Resistance (ohm)
ACHSELECT	IQUANT	0	Ach Select
CABLEID	IQUANT	13	Cable ID
DCCALDATE	LABEL	7/31/2020	DC Calibration Date
ACCALDATE	LABEL	7/31/2020	AC Calibration Date
THERMOSELECT	IQUANT	1	Thermo Select
FRAMEWORKVERSION	QUANT	6.33	Framework Version
INSTRUMENTVERSION	LABEL	3.50	Instrument Version
COMPLIANCEVOLTAGE	IQUANT	0	Compliance Voltage
ZCURVE	TABLE
	Pt	Time	Freq	Zreal	Zimag	Zsig	Zmod	Zphz	Idc	Vdc	IERange
	#	s	Hz	ohm	ohm	V	ohm	°	A	V	#
	0	10	300046.9	2.633533	2.243709	1	3.459729	40.43023	-0.0001418	-0.0002267	11
	1	13	238359.4	2.59885	1.773705	1	3.146435	34.31339	1.486282E-005	-0.0000965	11
	2	16	189328.1	2.566527	1.408579	1	2.927654	28.75915	-0.0001319	8.431051E-005	11
	3	19	150421.9	2.545578	1.102471	1	2.77406	23.41707	-3.729315E-005	0.0002711	11
	4	21	119484.4	2.566632	0.746097	1	2.672875	16.20868	-0.0001334	0.0003378	12
	5	25	94921.88	2.532853	0.6561823	1	2.616471	14.52421	-2.394827E-005	0.0005097	11
	6	27	75421.88	2.540576	0.4160286	1	2.574414	9.299851	-3.318825E-005	0.0005201	12
	7	31	59859.37	2.532663	0.344734	1	2.556017	7.751193	1.489786E-005	0.0006291	11
	8	34	47578.12	2.534098	0.2214696	1	2.543757	4.994723	-1.448333E-005	0.0005882	11
	9	36	37828.12	2.539172	0.1116076	1	2.541624	2.516778	-1.46149E-005	0.0006481	11
	10	39	30046.88	2.543976	0.0076814	1	2.543987	0.1730012	1.869605E-005	0.0006634	11
	11	41	23859.38	2.551472	-0.0941338	1	2.553208	-2.112907	-1.055397E-005	0.000662	11
	12	43	18984.38	2.559119	-0.198487	1	2.566805	-4.435019	1.072941E-005	0.0006655	11
	13	46	15046.87	2.57074	-0.3130449	1	2.58973	-6.942856	2.145668E-005	0.0007056	11
	14	48	11953.13	2.583829	-0.4398027	1	2.620992	-9.65993	-2.02661E-006	0.0006711	11
	15	50	9515.62	2.599569	-0.5850753	1	2.664596	-12.684	1.608676E-005	0.0006812	11
	16	53	7546.875	2.620918	-0.7599931	1	2.728882	-16.17069	7.400046E-006	0.0006885	11
	17	55	5928.309	2.648421	-0.977955	1	2.823212	-20.26716	-2.602274E-006	0.0006697	11
	18	57	4733.456	2.680246	-1.22499	1	2.946917	-24.56248	2.026386E-005	0.0007009	11
	19	60	3796.875	2.719623	-1.518352	1	3.114762	-29.17441	7.36721E-006	0.0006949	11
	20	62	2987.132	2.77278	-1.90715	1	3.365343	-34.52064	2.355189E-005	0.0007003	11
	21	64	2390.625	2.835774	-2.349723	1	3.682772	-39.64516	2.357452E-005	0.0006916	11
	22	67	1884.191	2.92082	-2.936378	1	4.141679	-45.15219	1.018895E-005	0.0006211	10
	23	69	1516.544	3.015479	-3.589335	1	4.687904	-49.96565	1.949754E-005	0.0006322	10
	24	71	1193.986	3.146597	-4.475456	1	5.470902	-54.88977	-1.546855E-005	0.0006698	10
	25	74	946.5144	3.308094	-5.536047	1	6.449132	-59.13935	2.940244E-006	0.0006365	10
	26	76	751.7689	3.511961	-6.84091	1	7.689728	-62.82511	1.756998E-005	0.0006427	10
	27	78	597.4265	3.77041	-8.438771	1	9.242773	-65.92509	2.000208E-005	0.0006426	10
	28	81	477.4305	4.095959	-10.35362	1	11.13438	-68.41594	-1.836797E-006	0.0006608	10
	29	83	376.6741	4.539052	-12.84263	1	13.62117	-70.53474	-1.81514E-006	0.0006541	10
	30	85	298.2954	5.105838	-15.86269	1	16.66417	-72.15781	-2.684865E-006	0.0006565	10
	31	88	237.7717	5.81993	-19.4555	1	20.30734	-73.34594	-2.458425E-006	0.0006546	10
	32	90	189.0121	6.756734	-23.89168	1	24.82873	-74.20873	-2.313674E-006	0.0006552	10
	33	92	150.2404	7.970953	-29.2953	1	30.36035	-74.77888	-1.923244E-006	0.0006489	10
	34	95	119.1737	9.55291	-35.91589	1	37.16462	-75.10532	-2.078576E-006	0.0006527	10
	35	97	95.0169	11.5225	-43.68171	1	45.17588	-75.22293	3.456026E-007	5.576179E-005	9
	36	100	75.60484	14.05054	-53.15028	1	54.97608	-75.19231	1.288964E-007	5.728274E-005	9
	37	102	54.50582	18.78163	-70.06126	1	72.53503	-74.99331	9.682774E-008	5.660721E-005	9
	38	105	45.95588	21.85152	-80.77667	1	83.68011	-74.86278	4.469967E-007	6.247807E-005	9
	39	107	37.20238	26.28595	-96.1714	1	99.699	-74.71306	2.770867E-007	6.692928E-005	9
	40	109	30.04808	31.53775	-114.5513	1	118.8134	-74.60694	1.944128E-007	5.568294E-005	9
	41	112	23.91582	38.10684	-138.0395	1	143.2028	-74.56744	2.437296E-007	5.500976E-005	9
	42	114	18.60119	46.37962	-169.4153	1	175.6492	-74.68967	2.450598E-007	6.631365E-005	9
	43	116	15.02404	54.3402	-201.8098	1	208.9977	-74.92971	6.180758E-007	6.619692E-005	9
	44	119	12.01923	63.58468	-242.6486	1	250.8413	-75.31612	2.93884E-007	5.548133E-005	9
	45	121	9.450605	74.86855	-297.0208	1	306.3114	-75.85246	3.124244E-007	5.308177E-005	9
	46	124	7.512019	86.99873	-361.488	1	371.8096	-76.46806	4.853622E-007	5.107985E-005	9
	47	126	5.978954	100.475	-438.7953	1	450.1517	-77.1028	-2.526107E-007	0.0006379	8
	48	129	4.734848	117.8883	-539.1727	1	551.9102	-77.66656	-1.988171E-007	0.000618	8
	49	133	3.75601	139.1093	-663.303	1	677.7332	-78.15547	-2.199763E-007	0.0006404	8
	50	136	3.004808	164.9396	-810.6763	1	827.2854	-78.49962	-1.611834E-007	0.0006029	8
	51	140	2.372217	200.2855	-1003.965	1	1023.748	-78.71792	-1.807049E-007	0.0005925	8
	52	144	1.878005	249.9502	-1243.167	1	1268.045	-78.63172	-2.358617E-007	0.000636	8
	53	149	1.512097	309.9964	-1514.75	1	1546.145	-78.43402	-2.08016E-007	0.00053	8
	54	154	1.201923	397.6535	-1869.279	1	1911.108	-77.99044	-2.093364E-007	0.0006529	8
	55	160	0.956633	518.9645	-2299.035	1	2356.881	-77.27973	-2.275677E-007	-9.439445E-006	8
