EXPLAIN
TAG	EISPOT
TITLE	LABEL	Potentiostatic EIS	Test Identifier
DATE	LABEL	9/12/2020	Date
TIME	LABEL	14:00:27	Time
NOTES	NOTES	1	Notes...
	
PSTAT	PSTAT	REF3000-16137	Potentiostat
VDC	POTEN	0.00000E+000	T	DC Voltage (V)
FREQINIT	QUANT	3.00000E+005	Initial Freq. (Hz)
FREQFINAL	QUANT	1.00000E+000	Final Freq. (Hz)
PTSPERDEC	QUANT	1.00000E+001	Points/decade
VAC	QUANT	5.00000E+001	AC Voltage (mV rms)
AREA	QUANT	1.00000E+000	Sample Area (cm^2)
SPEED	SELECTOR	2	Optimize for:
ZGUESS	QUANT	1.00000E+003	Estimated Z (ohms)
EOC	QUANT	0	Open Circuit (V)
SEQUENCER	TOGGLE	TRUE	Run as Sequence
PSTATMODEL	IQUANT	5	Pstat Model
PSTATSECTION	LABEL	REF3000-16137	Pstat Section
PSTATSERIALNO	LABEL	16137	Pstat Serial Number
CTRLMODE	IQUANT	1	Control Mode
IESTAB	IQUANT	0	I/E Stability
CASPEED	IQUANT	1	Control Amp Speed
CONVENTION	IQUANT	1	Current Convention
ICHRANGE	IQUANT	2	Ich Range
ICHRANGEMODE	TOGGLE	F	Ich Auto Range
ICHOFFSETENABLE	TOGGLE	T	Ich Offset Enable
ICHOFFSET	QUANT	0	Ich Offset (V)
ICHFILTER	IQUANT	3	Ich Filter
VCHRANGE	IQUANT	2	Vch Range
VCHRANGEMODE	TOGGLE	F	Vch Auto Range
VCHOFFSETENABLE	TOGGLE	T	Vch Offset Enable
VCHOFFSET	QUANT	0	Vch Offset (V)
VCHFILTER	IQUANT	3	Vch Filter
ACHRANGE	IQUANT	2	Ach Range
ACHOFFSETENABLE	TOGGLE	F	Ach Offset Enable
ACHOFFSET	QUANT	0	Ach Offset (V)
ACHFILTER	IQUANT	3	Ach Filter
IERANGELOWERLIMIT	IQUANT	2	I/E Range Lower Limit
IERANGEMODE	TOGGLE	F	I/E AutoRange
IERANGE	IQUANT	11	I/E Range
POSFEEDENABLE	TOGGLE	F	Positive Feedback IR Comp
POSFEEDRESISTANCE	QUANT	0	Positive Feedback Resistance (ohm)
ACHSELECT	IQUANT	0	Ach Select
CABLEID	IQUANT	13	Cable ID
DCCALDATE	LABEL	7/31/2020	DC Calibration Date
ACCALDATE	LABEL	7/31/2020	AC Calibration Date
THERMOSELECT	IQUANT	1	Thermo Select
FRAMEWORKVERSION	QUANT	6.33	Framework Version
INSTRUMENTVERSION	LABEL	3.50	Instrument Version
COMPLIANCEVOLTAGE	IQUANT	0	Compliance Voltage
ZCURVE	TABLE
	Pt	Time	Freq	Zreal	Zimag	Zsig	Zmod	Zphz	Idc	Vdc	IERange
	#	s	Hz	ohm	ohm	V	ohm	°	A	V	#
	0	10	300046.9	4.294873	2.267309	1	4.856606	27.83005	-4.458295E-005	9.04482E-005	10
	1	13	238359.4	4.269106	1.785782	1	4.627557	22.69973	2.215195E-005	-0.0002914	10
	2	16	189328.1	4.251345	1.416508	1	4.48112	18.42759	-0.0001083	-3.142827E-005	10
	3	19	150421.9	4.246311	1.098539	1	4.386108	14.50465	6.02325E-005	2.453067E-005	10
	4	21	119484.4	4.243576	0.8583764	1	4.329521	11.4353	-2.055878E-005	0.0003125	10
	5	24	94921.88	4.243279	0.6675729	1	4.295471	8.940762	8.009058E-006	0.0004335	10
	6	26	75421.88	4.247551	0.4927201	1	4.276034	6.616793	2.548972E-005	0.0004506	10
	7	29	59859.37	4.252706	0.3433071	1	4.266541	4.615294	-9.093858E-006	0.0005197	10
	8	31	47578.12	4.2598	0.2136405	1	4.265154	2.871133	-2.788147E-005	0.0005677	10
	9	34	37828.12	4.269418	0.0960243	1	4.270498	1.288433	-1.880562E-005	0.0005865	10
	10	36	30046.88	4.280284	-0.0154864	1	4.280313	-0.2072991	-2.554249E-005	0.0006163	10
	11	39	23859.38	4.292785	-0.1255648	1	4.294621	-1.675434	7.538378E-006	0.0006095	10
	12	41	18984.38	4.306786	-0.238424	1	4.31338	-3.168665	1.711494E-006	0.0006132	10
	13	43	15046.87	4.323577	-0.3631749	1	4.338803	-4.801499	2.076314E-005	0.0006398	10
	14	46	11953.13	4.3413	-0.5026589	1	4.370303	-6.604603	1.57596E-005	0.0006203	10
	15	48	9515.62	4.363634	-0.663871	1	4.413845	-8.650485	8.664088E-006	0.0006046	10
	16	50	7546.875	4.39017	-0.857924	1	4.473212	-11.05735	-1.837746E-005	0.0006367	10
	17	53	5928.309	4.422973	-1.10178	1	4.558136	-13.98792	1.715477E-005	0.0006176	10
	18	55	4733.456	4.461121	-1.379463	1	4.669531	-17.1826	-1.602068E-005	0.0006738	10
	19	57	3796.875	4.506245	-1.709556	1	4.819629	-20.77549	-3.220919E-005	0.0006485	10
	20	60	2987.132	4.56754	-2.148498	1	5.04762	-25.19154	-4.027854E-006	0.0006275	10
	21	62	2390.625	4.637176	-2.650853	1	5.341388	-29.75455	1.333382E-006	0.000634	10
	22	64	1884.191	4.730116	-3.312322	1	5.774554	-35.0021	1.41191E-005	0.0006422	10
	23	66	1516.544	4.837456	-4.050838	1	6.309538	-39.94248	-5.083289E-006	0.0006288	10
	24	69	1193.986	4.982138	-5.0526	1	7.095807	-45.40231	1.10744E-005	0.0006136	10
	25	71	946.5144	5.155804	-6.260496	1	8.110248	-50.52699	-1.479037E-005	0.0006344	10
	26	74	751.7689	5.378213	-7.73171	1	9.418307	-55.17735	1.551797E-005	0.000619	10
	27	76	597.4265	5.64662	-9.54446	1	11.08968	-59.39091	-2.560607E-005	0.0006708	10
	28	78	477.4305	5.979773	-11.71841	1	13.15594	-62.96528	-2.061627E-006	0.0006573	10
	29	81	376.6741	6.422294	-14.55384	1	15.90787	-66.18918	-2.599796E-006	0.0006566	10
	30	83	298.2954	6.976958	-18.01006	1	19.31425	-68.82402	-2.529534E-006	0.0006623	10
	31	85	237.7717	7.665249	-22.14664	1	23.43565	-70.90858	-2.613031E-006	0.0006574	10
	32	88	189.0121	8.556314	-27.28752	1	28.59754	-72.59059	-2.90248E-006	0.0006536	10
	33	90	150.2404	9.70681	-33.6082	1	34.9819	-73.89008	-2.423006E-006	0.0006503	10
	34	92	119.1737	11.19099	-41.3814	1	42.86792	-74.86719	1.093133E-006	5.732983E-005	9
	35	95	95.0169	13.08569	-50.72002	1	52.38087	-75.53326	1.082995E-006	5.242463E-005	9
	36	97	75.60484	15.55539	-62.19682	1	64.11251	-75.9584	9.428121E-007	5.267361E-005	9
	37	100	54.50582	20.38963	-83.03246	1	85.49928	-76.20332	9.257659E-007	4.88242E-005	9
	38	102	45.95588	23.69234	-96.4082	1	99.2768	-76.19316	1.143972E-006	5.866565E-005	9
	39	105	37.20238	28.67918	-115.7196	1	119.2205	-76.08065	1.042064E-006	6.100186E-005	9
	40	107	30.04808	34.95112	-138.9219	1	143.2511	-75.87814	9.922633E-007	5.997952E-005	9
	41	110	23.91582	43.08185	-168.3066	1	173.733	-75.64215	1.141784E-006	4.874393E-005	9
	42	112	18.60119	54.22668	-207.659	1	214.6225	-75.36498	1.074681E-006	5.28376E-005	9
	43	114	15.02404	65.50278	-247.7084	1	256.2227	-75.18802	1.129101E-006	5.73558E-005	9
	44	116	12.01923	79.42957	-297.6371	1	308.0534	-75.05785	1.158122E-006	5.451752E-005	9
	45	119	9.450605	96.9131	-362.5432	1	375.2729	-75.03394	1.123316E-006	4.880446E-005	9
	46	121	7.512019	115.4688	-435.9452	1	450.9781	-75.16474	5.04649E-007	0.0006225	8
	47	124	5.978954	136.8083	-526.0052	1	543.5053	-75.421	5.323436E-007	0.0006361	8
	48	127	4.734848	161.5294	-639.0321	1	659.131	-75.81438	5.144516E-007	0.0006578	8
	49	130	3.75601	188.8154	-777.4092	1	800.0102	-76.34846	4.836493E-007	0.0006213	8
	50	134	3.004808	218.8188	-941.2518	1	966.352	-76.91255	5.065671E-007	0.0006565	8
	51	137	2.372217	257.5983	-1156.883	1	1185.215	-77.44697	5.080307E-007	0.0006946	8
	52	142	1.878005	300.8428	-1425.252	1	1456.657	-78.08095	4.471231E-007	0.0006178	8
	53	146	1.512097	351.0169	-1726.206	1	1761.534	-78.50586	5.265968E-007	0.0006344	8
	54	152	1.201923	420.3333	-2131.156	1	2172.212	-78.84261	4.694943E-007	0.000606	8
	55	158	0.956633	509.1436	-2621.575	1	2670.559	-79.00925	4.569293E-007	-5.088548E-006	8
