EXPLAIN
TAG	EISPOT
TITLE	LABEL	Potentiostatic EIS	Test Identifier
DATE	LABEL	9/12/2020	Date
TIME	LABEL	14:57:34	Time
NOTES	NOTES	1	Notes...
	
PSTAT	PSTAT	REF3000-16137	Potentiostat
VDC	POTEN	0.00000E+000	T	DC Voltage (V)
FREQINIT	QUANT	3.00000E+005	Initial Freq. (Hz)
FREQFINAL	QUANT	1.00000E+000	Final Freq. (Hz)
PTSPERDEC	QUANT	1.00000E+001	Points/decade
VAC	QUANT	5.00000E+001	AC Voltage (mV rms)
AREA	QUANT	1.00000E+000	Sample Area (cm^2)
SPEED	SELECTOR	2	Optimize for:
ZGUESS	QUANT	1.00000E+003	Estimated Z (ohms)
EOC	QUANT	0	Open Circuit (V)
SEQUENCER	TOGGLE	TRUE	Run as Sequence
PSTATMODEL	IQUANT	5	Pstat Model
PSTATSECTION	LABEL	REF3000-16137	Pstat Section
PSTATSERIALNO	LABEL	16137	Pstat Serial Number
CTRLMODE	IQUANT	1	Control Mode
IESTAB	IQUANT	0	I/E Stability
CASPEED	IQUANT	1	Control Amp Speed
CONVENTION	IQUANT	1	Current Convention
ICHRANGE	IQUANT	2	Ich Range
ICHRANGEMODE	TOGGLE	F	Ich Auto Range
ICHOFFSETENABLE	TOGGLE	T	Ich Offset Enable
ICHOFFSET	QUANT	0	Ich Offset (V)
ICHFILTER	IQUANT	3	Ich Filter
VCHRANGE	IQUANT	2	Vch Range
VCHRANGEMODE	TOGGLE	F	Vch Auto Range
VCHOFFSETENABLE	TOGGLE	T	Vch Offset Enable
VCHOFFSET	QUANT	0	Vch Offset (V)
VCHFILTER	IQUANT	3	Vch Filter
ACHRANGE	IQUANT	2	Ach Range
ACHOFFSETENABLE	TOGGLE	F	Ach Offset Enable
ACHOFFSET	QUANT	0	Ach Offset (V)
ACHFILTER	IQUANT	3	Ach Filter
IERANGELOWERLIMIT	IQUANT	2	I/E Range Lower Limit
IERANGEMODE	TOGGLE	F	I/E AutoRange
IERANGE	IQUANT	11	I/E Range
POSFEEDENABLE	TOGGLE	F	Positive Feedback IR Comp
POSFEEDRESISTANCE	QUANT	0	Positive Feedback Resistance (ohm)
ACHSELECT	IQUANT	0	Ach Select
CABLEID	IQUANT	13	Cable ID
DCCALDATE	LABEL	7/31/2020	DC Calibration Date
ACCALDATE	LABEL	7/31/2020	AC Calibration Date
THERMOSELECT	IQUANT	1	Thermo Select
FRAMEWORKVERSION	QUANT	6.33	Framework Version
INSTRUMENTVERSION	LABEL	3.50	Instrument Version
COMPLIANCEVOLTAGE	IQUANT	0	Compliance Voltage
ZCURVE	TABLE
	Pt	Time	Freq	Zreal	Zimag	Zsig	Zmod	Zphz	Idc	Vdc	IERange
	#	s	Hz	ohm	ohm	V	ohm	°	A	V	#
	0	14	300046.9	1263.652	-548.4171	1	1377.526	-23.46054	-0.0001101	0.0036766	9
	1	39	238359.4	1399.715	-533.812	1	1498.052	-20.87544	-2.965264E-005	-0.0010661	9
	2	55	189328.1	1528.982	-492.4761	1	1606.337	-17.85344	-6.136075E-005	0.000642	9
	3	65	150421.9	1632.572	-444.3774	1	1691.97	-15.22671	1.916288E-005	-0.000321	9
	4	73	119484.4	1732.698	-334.471	1	1764.685	-10.9257	-7.117075E-005	0.0196564	8
	5	80	94921.88	1789.776	-283.1278	1	1812.032	-8.989231	-2.186967E-006	-0.0039457	8
	6	83	75421.88	1836.995	-242.4251	1	1852.923	-7.517782	-2.448369E-007	0.0061715	8
	7	88	59859.37	1879.103	-203.653	1	1890.107	-6.185446	2.080315E-005	-0.0028749	8
	8	91	47578.12	1915.572	-174.5446	1	1923.508	-5.206345	2.329877E-005	-0.0066185	8
	9	94	37828.12	1945.133	-146.6447	1	1950.653	-4.311406	2.135001E-005	-0.0076888	8
	10	97	30046.88	1975.346	-121.4934	1	1979.079	-3.519537	2.336324E-005	-0.00665	8
	11	100	23859.38	2010.091	-100.0623	1	2012.58	-2.849831	-9.984772E-006	-0.0009675	8
	12	104	18984.38	2038.844	-84.27672	1	2040.585	-2.367004	2.044304E-005	-0.0028079	8
	13	107	15046.87	2064.932	-74.70326	1	2066.282	-2.071892	2.095E-005	-0.0029057	8
	14	111	11953.13	2093.577	-60.47542	1	2094.451	-1.654595	2.361678E-005	-0.0050729	8
	15	115	9515.62	2128.134	-50.86737	1	2128.742	-1.369242	1.294572E-005	-0.0077027	8
	16	118	7546.875	2159.792	-39.34447	1	2160.151	-1.043629	1.63978E-005	-0.0003418	8
	17	123	5928.309	2200.221	-33.79659	1	2200.48	-0.8800251	5.717007E-006	-0.0062417	8
	18	127	4733.456	2232.433	-24.89678	1	2232.572	-0.6389537	-2.290996E-005	0.0086875	8
	19	131	3796.875	2261.873	-29.11209	1	2262.06	-0.7374013	1.304187E-005	-0.0078268	8
	20	135	2987.132	2295.06	-24.98273	1	2295.196	-0.6236649	1.638235E-005	-0.0002579	8
	21	139	2390.625	2336.421	-20.00014	1	2336.507	-0.490449	-6.43505E-007	0.0064213	8
	22	143	1884.191	2380.738	-29.02566	1	2380.915	-0.6985084	1.64638E-005	-0.000204	8
	23	147	1516.544	2421.934	-22.63801	1	2422.04	-0.5355327	-2.299892E-005	0.008687	8
	24	153	1193.986	2483.48	-18.07057	1	2483.546	-0.4168945	2.038243E-005	-1.916269E-005	9
	25	158	946.5144	2519.211	-32.68262	1	2519.423	-0.7432767	1.367624E-005	-0.0080371	8
	26	162	751.7689	2537.094	-43.05777	1	2537.459	-0.97229	1.788872E-005	-0.0009055	9
	27	166	597.4265	2579.327	-31.58669	1	2579.521	-0.7016145	-2.199711E-005	0.0053488	8
	28	169	477.4305	2627.269	-29.69414	1	2627.437	-0.6475456	-3.317991E-007	0.0006489	8
	29	173	376.6741	2652.259	-34.58818	1	2652.484	-0.7471536	-3.174218E-007	0.0006241	8
	30	175	298.2954	2676.871	-41.06905	1	2677.186	-0.8789735	-2.896436E-007	0.0006299	8
	31	178	237.7717	2703.164	-49.24792	1	2703.613	-1.043734	-2.964235E-007	0.0006108	8
	32	180	189.0121	2729.65	-59.59092	1	2730.3	-1.250624	-3.197692E-007	0.0006268	8
	33	182	150.2404	2756.99	-73.00912	1	2757.957	-1.516921	-3.490846E-007	0.0006413	8
	34	185	119.1737	2784.073	-89.06889	1	2785.497	-1.832399	-3.829741E-007	0.0006447	8
	35	187	95.0169	2812.539	-109.435	1	2814.667	-2.228236	-3.461872E-007	0.0006335	8
	36	190	75.60484	2843.45	-134.4936	1	2846.629	-2.70804	-3.394981E-007	0.0006157	8
	37	192	54.50582	2876.726	-181.5733	1	2882.45	-3.611607	-3.242669E-007	0.000615	8
	38	195	45.95588	2907.299	-212.3222	1	2915.042	-4.176937	-2.793662E-007	0.0006157	8
	39	197	37.20238	2937.774	-257.398	1	2949.028	-5.007279	-3.746594E-007	0.0006232	8
	40	199	30.04808	2973.26	-314.1886	1	2989.814	-6.03214	-3.352843E-007	0.0006217	8
	41	202	23.91582	3007.302	-386.9797	1	3032.098	-7.332528	-2.245245E-007	0.0006357	8
	42	204	18.60119	3047.451	-499.8532	1	3088.173	-9.314903	-2.82028E-008	0.0006086	8
	43	207	15.02404	3092.345	-603.3232	1	3150.65	-11.03985	-5.094687E-007	0.0006374	8
	44	209	12.01923	3133.565	-730.0499	1	3217.484	-13.11468	-1.833636E-007	0.0006521	8
	45	211	9.450605	3180.757	-922.3568	1	3311.791	-16.17112	-3.684734E-007	0.0006313	8
	46	214	7.512019	3238.598	-1146.613	1	3435.584	-19.49631	-4.106565E-007	0.0006673	8
	47	217	5.978954	3313.606	-1413.518	1	3602.501	-23.10212	-3.269169E-007	0.0006241	8
	48	220	4.734848	3406.463	-1759.963	1	3834.249	-27.32333	-1.186895E-007	0.0005768	7
	49	223	3.75601	3509.751	-2176.24	1	4129.694	-31.8012	-5.5152E-008	0.0006777	7
	50	226	3.004808	3628.811	-2671.465	1	4506.106	-36.35983	-5.18605E-008	0.0005362	7
	51	230	2.372217	3784.024	-3313.009	1	5029.4	-41.20297	-7.790393E-008	0.0005237	7
	52	234	1.878005	3962.041	-4112.264	1	5710.384	-46.06587	-5.72828E-008	0.0006125	7
	53	239	1.512097	4173.141	-5000.577	1	6513.131	-50.15393	-7.574735E-008	0.0005323	7
	54	244	1.201923	4443.293	-6187.62	1	7617.709	-54.31809	-6.75604E-008	0.0006281	7
	55	251	0.956633	4771.462	-7622.47	1	8992.714	-57.95453	-8.068972E-008	-4.077394E-005	7
