EXPLAIN
TAG	EISPOT
TITLE	LABEL	Potentiostatic EIS	Test Identifier
DATE	LABEL	9/12/2020	Date
TIME	LABEL	13:26:25	Time
NOTES	NOTES	1	Notes...
	
PSTAT	PSTAT	REF3000-16137	Potentiostat
VDC	POTEN	0.00000E+000	T	DC Voltage (V)
FREQINIT	QUANT	3.00000E+005	Initial Freq. (Hz)
FREQFINAL	QUANT	1.00000E+000	Final Freq. (Hz)
PTSPERDEC	QUANT	1.00000E+001	Points/decade
VAC	QUANT	5.00000E+001	AC Voltage (mV rms)
AREA	QUANT	1.00000E+000	Sample Area (cm^2)
SPEED	SELECTOR	2	Optimize for:
ZGUESS	QUANT	1.00000E+003	Estimated Z (ohms)
EOC	QUANT	0	Open Circuit (V)
SEQUENCER	TOGGLE	TRUE	Run as Sequence
PSTATMODEL	IQUANT	5	Pstat Model
PSTATSECTION	LABEL	REF3000-16137	Pstat Section
PSTATSERIALNO	LABEL	16137	Pstat Serial Number
CTRLMODE	IQUANT	1	Control Mode
IESTAB	IQUANT	0	I/E Stability
CASPEED	IQUANT	1	Control Amp Speed
CONVENTION	IQUANT	1	Current Convention
ICHRANGE	IQUANT	2	Ich Range
ICHRANGEMODE	TOGGLE	F	Ich Auto Range
ICHOFFSETENABLE	TOGGLE	T	Ich Offset Enable
ICHOFFSET	QUANT	0	Ich Offset (V)
ICHFILTER	IQUANT	3	Ich Filter
VCHRANGE	IQUANT	2	Vch Range
VCHRANGEMODE	TOGGLE	F	Vch Auto Range
VCHOFFSETENABLE	TOGGLE	T	Vch Offset Enable
VCHOFFSET	QUANT	0	Vch Offset (V)
VCHFILTER	IQUANT	3	Vch Filter
ACHRANGE	IQUANT	2	Ach Range
ACHOFFSETENABLE	TOGGLE	F	Ach Offset Enable
ACHOFFSET	QUANT	0	Ach Offset (V)
ACHFILTER	IQUANT	3	Ach Filter
IERANGELOWERLIMIT	IQUANT	2	I/E Range Lower Limit
IERANGEMODE	TOGGLE	F	I/E AutoRange
IERANGE	IQUANT	11	I/E Range
POSFEEDENABLE	TOGGLE	F	Positive Feedback IR Comp
POSFEEDRESISTANCE	QUANT	0	Positive Feedback Resistance (ohm)
ACHSELECT	IQUANT	0	Ach Select
CABLEID	IQUANT	13	Cable ID
DCCALDATE	LABEL	7/31/2020	DC Calibration Date
ACCALDATE	LABEL	7/31/2020	AC Calibration Date
THERMOSELECT	IQUANT	1	Thermo Select
FRAMEWORKVERSION	QUANT	6.33	Framework Version
INSTRUMENTVERSION	LABEL	3.50	Instrument Version
COMPLIANCEVOLTAGE	IQUANT	0	Compliance Voltage
ZCURVE	TABLE
	Pt	Time	Freq	Zreal	Zimag	Zsig	Zmod	Zphz	Idc	Vdc	IERange
	#	s	Hz	ohm	ohm	V	ohm	°	A	V	#
	0	10	300046.9	2.162502	2.249786	1	3.120569	46.13327	-0.0001099	-0.0004752	11
	1	13	238359.4	2.118784	1.786151	1	2.771206	40.13114	3.039313E-005	-0.0001309	11
	2	17	189328.1	2.178841	1.262497	1	2.518183	30.08951	-3.033354E-005	6.366779E-005	12
	3	20	150421.9	2.132437	0.990656	1	2.351316	24.91794	-7.040494E-006	0.0001336	12
	4	24	119484.4	2.067597	0.8647146	1	2.241136	22.69576	3.999145E-005	0.000524	11
	5	26	94921.88	2.060477	0.6643776	1	2.16494	17.87133	-3.224085E-005	0.0004639	11
	6	29	75421.88	2.0558	0.4967135	1	2.114956	13.58323	-4.96887E-005	0.0004754	11
	7	31	59859.37	2.056571	0.3552487	1	2.087028	9.80047	-3.358442E-005	0.0005564	11
	8	34	47578.12	2.057208	0.2336081	1	2.070429	6.478522	1.510668E-005	0.0006184	11
	9	36	37828.12	2.059694	0.1253942	1	2.063508	3.483866	-4.260335E-005	0.000602	11
	10	39	30046.88	2.063731	0.024035	1	2.063871	0.667258	2.134454E-005	0.0006605	11
	11	42	23859.38	2.069264	-0.0745234	1	2.070606	-2.062583	1.982109E-005	0.0006699	11
	12	44	18984.38	2.076993	-0.1741849	1	2.084284	-4.793835	1.304044E-005	0.000672	11
	13	46	15046.87	2.086793	-0.2831017	1	2.105908	-7.725782	2.107855E-005	0.0006998	11
	14	48	11953.13	2.098707	-0.4031484	1	2.137077	-10.8737	1.743045E-005	0.0007003	11
	15	51	9515.62	2.113454	-0.5394197	1	2.181206	-14.318	-4.80332E-005	0.0006423	11
	16	53	7546.875	2.132659	-0.7022951	1	2.245318	-18.22697	-4.654111E-005	0.0006402	11
	17	55	5928.309	2.158772	-0.9057274	1	2.341076	-22.76081	-8.442762E-006	0.0006745	11
	18	58	4733.456	2.189102	-1.135194	1	2.465935	-27.40972	-2.197283E-005	0.0006705	11
	19	60	3796.875	2.226672	-1.406257	1	2.633559	-32.2745	-9.606349E-006	0.0006768	11
	20	62	2987.132	2.276187	-1.767357	1	2.881767	-37.82773	1.686877E-005	0.0006916	11
	21	65	2390.625	2.334891	-2.179202	1	3.193843	-43.02468	-4.857749E-005	0.0007148	11
	22	67	1884.191	2.41468	-2.717674	1	3.635441	-48.3786	2.575318E-005	0.0006998	11
	23	69	1516.544	2.508522	-3.323382	1	4.163838	-52.95413	8.994509E-006	0.0006189	10
	24	71	1193.986	2.63534	-4.141332	1	4.908732	-57.52933	-2.525942E-005	0.0006707	10
	25	74	946.5144	2.792226	-5.125484	1	5.836704	-61.41964	1.916085E-005	0.0006527	10
	26	76	751.7689	2.996127	-6.323686	1	6.997555	-64.64867	3.078078E-006	0.0006452	10
	27	79	597.4265	3.258312	-7.792059	1	8.445874	-67.30737	-5.011495E-006	0.0006271	10
	28	81	477.4305	3.58481	-9.54425	1	10.19528	-69.41388	-3.229048E-006	0.0006607	10
	29	83	376.6741	4.033568	-11.81518	1	12.48472	-71.15068	-3.051136E-006	0.0006547	10
	30	85	298.2954	4.60895	-14.55928	1	15.27138	-72.43407	-3.637043E-006	0.0006584	10
	31	88	237.7717	5.332646	-17.80647	1	18.58783	-73.32819	-3.444937E-006	0.0006565	10
	32	90	189.0121	6.277094	-21.79372	1	22.67968	-73.93237	-3.620206E-006	0.0006526	10
	33	93	150.2404	7.489154	-26.61328	1	27.64695	-74.28304	-3.380643E-006	0.0006563	10
	34	95	119.1737	9.044494	-32.49097	1	33.72634	-74.44442	-3.830085E-006	0.0006552	10
	35	97	95.0169	10.95134	-39.37766	1	40.87214	-74.4582	-3.848861E-006	0.0006462	10
	36	100	75.60484	13.30334	-47.63205	1	49.45494	-74.39528	-1.550735E-006	0.0001032	9
	37	102	54.50582	17.58282	-62.41994	1	64.84909	-74.26822	-1.200621E-006	4.348251E-005	9
	38	105	45.95588	20.27286	-71.80051	1	74.60765	-74.23298	-8.531338E-007	5.097059E-005	9
	39	107	37.20238	24.06793	-85.31365	1	88.64358	-74.24565	-8.520199E-007	4.603109E-005	9
	40	110	30.04808	28.42363	-101.5426	1	105.4457	-74.36209	-1.008355E-006	4.647683E-005	9
	41	112	23.91582	33.63307	-122.3149	1	126.8547	-74.62528	-1.073661E-006	4.68691E-005	9
	42	114	18.60119	40.21261	-150.5817	1	155.8586	-75.04816	-9.321889E-007	5.678299E-005	9
	43	117	15.02404	46.48926	-180.1148	1	186.0177	-75.52731	-5.839104E-007	6.084558E-005	9
	44	119	12.01923	53.99977	-217.7937	1	224.3882	-76.0749	-8.720378E-007	5.814992E-005	9
	45	121	9.450605	63.5504	-268.3115	1	275.7349	-76.67487	-9.621665E-007	6.043553E-005	9
	46	124	7.512019	74.73196	-328.3966	1	336.7925	-77.17975	-7.975213E-007	4.792916E-005	9
	47	127	5.978954	88.47228	-402.311	1	411.9241	-77.59749	-7.726519E-007	5.416297E-005	9
	48	130	4.734848	106.6586	-494.0862	1	505.4673	-77.81846	-1.462927E-006	0.00061	8
	49	133	3.75601	130.9039	-608.9387	1	622.85	-77.86774	-1.399512E-006	0.0007027	8
	50	136	3.004808	162.2602	-744.9345	1	762.4013	-77.71188	-1.42905E-006	0.0006497	8
	51	140	2.372217	208.1833	-921.4648	1	944.6891	-77.2691	-1.463733E-006	0.0006509	8
	52	144	1.878005	274.4562	-1138.684	1	1171.293	-76.44852	-1.382156E-006	0.0006176	8
	53	149	1.512097	359.0697	-1380.633	1	1426.562	-75.4217	-1.386351E-006	0.0007354	8
	54	154	1.201923	485.5066	-1686.93	1	1755.406	-73.94393	-1.359707E-006	0.0006068	8
	55	160	0.956633	660.4289	-2047.775	1	2151.639	-72.12495	-1.484998E-006	-1.165094E-005	8
