EXPLAIN
TAG	EISPOT
TITLE	LABEL	Potentiostatic EIS	Test Identifier
DATE	LABEL	9/12/2020	Date
TIME	LABEL	13:49:13	Time
NOTES	NOTES	1	Notes...
	
PSTAT	PSTAT	REF3000-16137	Potentiostat
VDC	POTEN	0.00000E+000	T	DC Voltage (V)
FREQINIT	QUANT	3.00000E+005	Initial Freq. (Hz)
FREQFINAL	QUANT	1.00000E+000	Final Freq. (Hz)
PTSPERDEC	QUANT	1.00000E+001	Points/decade
VAC	QUANT	5.00000E+001	AC Voltage (mV rms)
AREA	QUANT	1.00000E+000	Sample Area (cm^2)
SPEED	SELECTOR	2	Optimize for:
ZGUESS	QUANT	1.00000E+003	Estimated Z (ohms)
EOC	QUANT	0	Open Circuit (V)
SEQUENCER	TOGGLE	TRUE	Run as Sequence
PSTATMODEL	IQUANT	5	Pstat Model
PSTATSECTION	LABEL	REF3000-16137	Pstat Section
PSTATSERIALNO	LABEL	16137	Pstat Serial Number
CTRLMODE	IQUANT	1	Control Mode
IESTAB	IQUANT	0	I/E Stability
CASPEED	IQUANT	1	Control Amp Speed
CONVENTION	IQUANT	1	Current Convention
ICHRANGE	IQUANT	2	Ich Range
ICHRANGEMODE	TOGGLE	F	Ich Auto Range
ICHOFFSETENABLE	TOGGLE	T	Ich Offset Enable
ICHOFFSET	QUANT	0	Ich Offset (V)
ICHFILTER	IQUANT	3	Ich Filter
VCHRANGE	IQUANT	2	Vch Range
VCHRANGEMODE	TOGGLE	F	Vch Auto Range
VCHOFFSETENABLE	TOGGLE	T	Vch Offset Enable
VCHOFFSET	QUANT	0	Vch Offset (V)
VCHFILTER	IQUANT	3	Vch Filter
ACHRANGE	IQUANT	2	Ach Range
ACHOFFSETENABLE	TOGGLE	F	Ach Offset Enable
ACHOFFSET	QUANT	0	Ach Offset (V)
ACHFILTER	IQUANT	3	Ach Filter
IERANGELOWERLIMIT	IQUANT	2	I/E Range Lower Limit
IERANGEMODE	TOGGLE	F	I/E AutoRange
IERANGE	IQUANT	11	I/E Range
POSFEEDENABLE	TOGGLE	F	Positive Feedback IR Comp
POSFEEDRESISTANCE	QUANT	0	Positive Feedback Resistance (ohm)
ACHSELECT	IQUANT	0	Ach Select
CABLEID	IQUANT	13	Cable ID
DCCALDATE	LABEL	7/31/2020	DC Calibration Date
ACCALDATE	LABEL	7/31/2020	AC Calibration Date
THERMOSELECT	IQUANT	1	Thermo Select
FRAMEWORKVERSION	QUANT	6.33	Framework Version
INSTRUMENTVERSION	LABEL	3.50	Instrument Version
COMPLIANCEVOLTAGE	IQUANT	0	Compliance Voltage
ZCURVE	TABLE
	Pt	Time	Freq	Zreal	Zimag	Zsig	Zmod	Zphz	Idc	Vdc	IERange
	#	s	Hz	ohm	ohm	V	ohm	°	A	V	#
	0	10	300046.9	3.11172	2.25852	1	3.84496	35.97255	1.964969E-005	-0.0001258	10
	1	13	238359.4	3.075936	1.80437	1	3.566109	30.39625	-9.80629E-006	-0.0005912	10
	2	16	189328.1	3.047706	1.427542	1	3.36547	25.09833	-0.000102	-0.0002359	10
	3	19	150421.9	3.085282	0.9266208	1	3.221427	16.7169	-0.000128	2.831713E-005	12
	4	22	119484.4	3.035647	0.8482524	1	3.151934	15.61198	6.533905E-005	0.000572	11
	5	25	94921.88	3.029841	0.6469044	1	3.098132	12.05231	1.480906E-005	0.0005578	11
	6	27	75421.88	3.028781	0.4792537	1	3.066463	8.991546	-3.76195E-006	0.0005482	11
	7	30	59859.37	3.032293	0.336919	1	3.050953	6.340146	-1.88842E-005	0.0006202	11
	8	33	47578.12	3.035746	0.2130048	1	3.043209	4.013613	1.922359E-005	0.0006562	11
	9	35	37828.12	3.040262	0.1012605	1	3.041948	1.907616	-3.204873E-005	0.0006094	11
	10	38	30046.88	3.048164	-0.00399	1	3.048167	-0.0749989	-3.883902E-006	0.0006481	11
	11	40	23859.38	3.05689	-0.107987	1	3.058797	-2.023176	-3.440984E-005	0.0006697	11
	12	42	18984.38	3.066246	-0.2151454	1	3.073784	-4.013623	-4.24287E-005	0.000649	11
	13	45	15046.87	3.07839	-0.3333769	1	3.096389	-6.180809	1.757336E-005	0.0007028	11
	14	47	11953.13	3.092435	-0.465031	1	3.127205	-8.551887	-9.168983E-006	0.0006497	11
	15	49	9515.62	3.110493	-0.6162437	1	3.170949	-11.2062	-5.202324E-005	0.0006303	11
	16	52	7546.875	3.13384	-0.798101	1	3.233871	-14.2879	-3.283976E-005	0.0006831	11
	17	54	5928.309	3.162173	-1.026688	1	3.324669	-17.98747	-3.938362E-005	0.0006682	11
	18	56	4733.456	3.195722	-1.285354	1	3.444528	-21.91052	1.26379E-005	0.0006922	11
	19	59	3796.875	3.236664	-1.592742	1	3.607329	-26.20152	-5.065464E-005	0.0006421	11
	20	61	2987.132	3.295379	-2.002427	1	3.856065	-31.28483	1.870774E-005	0.0006444	10
	21	63	2390.625	3.360143	-2.470042	1	4.170332	-36.31962	-2.813299E-005	0.0006465	10
	22	66	1884.191	3.447474	-3.082666	1	4.624706	-41.80248	-3.531064E-006	0.0006292	10
	23	68	1516.544	3.545475	-3.769862	1	5.175158	-46.75691	-5.667568E-006	0.0006607	10
	24	70	1193.986	3.681399	-4.698987	1	5.969353	-51.92325	-1.746621E-005	0.0006562	10
	25	73	946.5144	3.844466	-5.820082	1	6.97519	-56.55317	1.902956E-005	0.0006541	10
	26	75	751.7689	4.053826	-7.18868	1	8.252915	-60.58057	-4.872688E-006	0.000659	10
	27	77	597.4265	4.316043	-8.867898	1	9.86245	-64.04762	1.784284E-005	0.0006495	10
	28	80	477.4305	4.640352	-10.88701	1	11.83469	-66.91493	-1.349876E-006	0.0006553	10
	29	82	376.6741	5.078818	-13.51444	1	14.43726	-69.40343	-1.759566E-006	0.000647	10
	30	84	298.2954	5.637647	-16.70934	1	17.63477	-71.35587	-2.490441E-006	0.0006504	10
	31	87	237.7717	6.338614	-20.52188	1	21.47849	-72.8356	-2.802172E-006	0.0006512	10
	32	89	189.0121	7.25482	-25.24401	1	26.26581	-73.966	-2.698401E-006	0.000657	10
	33	91	150.2404	8.444063	-31.02237	1	32.15104	-74.77339	-2.103884E-006	0.0006494	10
	34	94	119.1737	10.0007	-38.13221	1	39.42181	-75.30436	-1.916674E-006	0.0006492	10
	35	96	95.0169	11.95148	-46.52058	1	48.03127	-75.59189	8.379267E-007	5.071155E-005	9
	36	99	75.60484	14.49051	-56.80244	1	58.6216	-75.68887	7.191608E-007	5.187681E-005	9
	37	101	54.50582	19.36738	-75.27735	1	77.72886	-75.57184	5.940535E-007	4.847259E-005	9
	38	104	45.95588	22.59592	-87.01006	1	89.89619	-75.44225	9.873407E-007	4.983006E-005	9
	39	106	37.20238	27.37851	-103.9314	1	107.4771	-75.24193	7.486303E-007	5.876525E-005	9
	40	108	30.04808	33.11972	-124.0522	1	128.3973	-75.0517	6.425513E-007	5.629455E-005	9
	41	111	23.91582	40.50362	-149.8219	1	155.2004	-74.872	7.063479E-007	5.038472E-005	9
	42	113	18.60119	49.94988	-183.931	1	190.5927	-74.80669	6.481508E-007	5.85407E-005	9
	43	115	15.02404	59.30506	-218.9557	1	226.8451	-74.84483	9.098485E-007	6.081939E-005	9
	44	118	12.01923	70.40427	-262.852	1	272.1175	-75.00543	8.274345E-007	5.630103E-005	9
	45	120	9.450605	83.81094	-320.5142	1	331.2908	-75.3459	8.442465E-007	4.769109E-005	9
	46	123	7.512019	98.0981	-388.5114	1	400.7048	-75.82917	9.75204E-007	5.026603E-005	9
	47	125	5.978954	113.4303	-469.3785	1	482.8898	-76.41434	2.562439E-007	0.0006377	8
	48	128	4.734848	132.3454	-574.4084	1	589.4577	-77.02531	1.842801E-007	0.0007107	8
	49	132	3.75601	154.2324	-704.0715	1	720.7664	-77.64408	2.259186E-007	0.0006337	8
	50	135	3.004808	179.9176	-858.4483	1	877.0997	-78.16302	2.134122E-007	0.0006703	8
	51	139	2.372217	214.4893	-1062.191	1	1083.631	-78.58372	1.923663E-007	0.0007066	8
	52	143	1.878005	258.336	-1312.465	1	1337.648	-78.86467	1.635423E-007	0.0006082	8
	53	148	1.512097	311.3289	-1594.993	1	1625.093	-78.95522	2.408402E-007	0.0006757	8
	54	153	1.201923	383.5777	-1972.77	1	2009.715	-78.99692	1.929695E-007	0.0006046	8
	55	159	0.956633	484.6121	-2431.823	1	2479.639	-78.72977	1.665534E-007	-5.728657E-006	8
