EXPLAIN
TAG	EISPOT
TITLE	LABEL	Potentiostatic EIS	Test Identifier
DATE	LABEL	9/12/2020	Date
TIME	LABEL	13:23:35	Time
NOTES	NOTES	1	Notes...
	
PSTAT	PSTAT	REF3000-16137	Potentiostat
VDC	POTEN	0.00000E+000	T	DC Voltage (V)
FREQINIT	QUANT	3.00000E+005	Initial Freq. (Hz)
FREQFINAL	QUANT	1.00000E+000	Final Freq. (Hz)
PTSPERDEC	QUANT	1.00000E+001	Points/decade
VAC	QUANT	5.00000E+001	AC Voltage (mV rms)
AREA	QUANT	1.00000E+000	Sample Area (cm^2)
SPEED	SELECTOR	2	Optimize for:
ZGUESS	QUANT	1.00000E+003	Estimated Z (ohms)
EOC	QUANT	0	Open Circuit (V)
SEQUENCER	TOGGLE	TRUE	Run as Sequence
PSTATMODEL	IQUANT	5	Pstat Model
PSTATSECTION	LABEL	REF3000-16137	Pstat Section
PSTATSERIALNO	LABEL	16137	Pstat Serial Number
CTRLMODE	IQUANT	1	Control Mode
IESTAB	IQUANT	0	I/E Stability
CASPEED	IQUANT	1	Control Amp Speed
CONVENTION	IQUANT	1	Current Convention
ICHRANGE	IQUANT	2	Ich Range
ICHRANGEMODE	TOGGLE	F	Ich Auto Range
ICHOFFSETENABLE	TOGGLE	T	Ich Offset Enable
ICHOFFSET	QUANT	0	Ich Offset (V)
ICHFILTER	IQUANT	3	Ich Filter
VCHRANGE	IQUANT	2	Vch Range
VCHRANGEMODE	TOGGLE	F	Vch Auto Range
VCHOFFSETENABLE	TOGGLE	T	Vch Offset Enable
VCHOFFSET	QUANT	0	Vch Offset (V)
VCHFILTER	IQUANT	3	Vch Filter
ACHRANGE	IQUANT	2	Ach Range
ACHOFFSETENABLE	TOGGLE	F	Ach Offset Enable
ACHOFFSET	QUANT	0	Ach Offset (V)
ACHFILTER	IQUANT	3	Ach Filter
IERANGELOWERLIMIT	IQUANT	2	I/E Range Lower Limit
IERANGEMODE	TOGGLE	F	I/E AutoRange
IERANGE	IQUANT	11	I/E Range
POSFEEDENABLE	TOGGLE	F	Positive Feedback IR Comp
POSFEEDRESISTANCE	QUANT	0	Positive Feedback Resistance (ohm)
ACHSELECT	IQUANT	0	Ach Select
CABLEID	IQUANT	13	Cable ID
DCCALDATE	LABEL	7/31/2020	DC Calibration Date
ACCALDATE	LABEL	7/31/2020	AC Calibration Date
THERMOSELECT	IQUANT	1	Thermo Select
FRAMEWORKVERSION	QUANT	6.33	Framework Version
INSTRUMENTVERSION	LABEL	3.50	Instrument Version
COMPLIANCEVOLTAGE	IQUANT	0	Compliance Voltage
ZCURVE	TABLE
	Pt	Time	Freq	Zreal	Zimag	Zsig	Zmod	Zphz	Idc	Vdc	IERange
	#	s	Hz	ohm	ohm	V	ohm	°	A	V	#
	0	10	300046.9	2.112904	2.258331	1	3.09264	46.90548	-5.355493E-005	-0.0003282	11
	1	13	238359.4	2.06949	1.792445	1	2.737818	40.89679	-4.514123E-005	-0.0002515	11
	2	16	189328.1	2.115081	1.275084	1	2.469698	31.08382	-0.0001656	-4.863615E-005	12
	3	20	150421.9	2.068204	0.994385	1	2.294835	25.67809	-3.352074E-005	0.0002811	12
	4	24	119484.4	2.005695	0.8669975	1	2.185062	23.37728	-6.869466E-005	0.0004248	11
	5	26	94921.88	1.997237	0.6661959	1	2.105415	18.44657	-3.116304E-005	0.0004561	11
	6	29	75421.88	1.992284	0.4975135	1	2.053464	14.02115	-2.899855E-005	0.0004631	11
	7	31	59859.37	1.992419	0.3567068	1	2.024098	10.15024	-1.294169E-005	0.0005417	11
	8	34	47578.12	1.992922	0.2349312	1	2.006721	6.723159	-4.308988E-007	0.000577	11
	9	36	37828.12	1.995616	0.1273061	1	1.999673	3.650117	-1.571095E-005	0.0005894	11
	10	39	30046.88	2.000736	0.0272927	1	2.000922	0.7815424	-3.907243E-005	0.0006395	11
	11	41	23859.38	2.006265	-0.0707994	1	2.007514	-2.021081	-2.177684E-005	0.0006603	11
	12	44	18984.38	2.012767	-0.1699562	1	2.01993	-4.826554	-5.100117E-005	0.0006417	11
	13	46	15046.87	2.022801	-0.2777593	1	2.041782	-7.818628	-3.007327E-005	0.0006762	11
	14	48	11953.13	2.034302	-0.3965057	1	2.072583	-11.02924	1.550104E-005	0.0007079	11
	15	51	9515.62	2.049169	-0.5314149	1	2.116954	-14.53836	2.02584E-005	0.0007088	11
	16	53	7546.875	2.068449	-0.691757	1	2.181057	-18.49162	1.171978E-005	0.0006807	11
	17	55	5928.309	2.093826	-0.8929781	1	2.276295	-23.09735	-9.434737E-006	0.0006752	11
	18	58	4733.456	2.122994	-1.119053	1	2.399872	-27.79419	4.743778E-006	0.0006708	11
	19	60	3796.875	2.159699	-1.38658	1	2.566497	-32.70146	-1.011419E-005	0.0006537	11
	20	62	2987.132	2.21039	-1.742943	1	2.814903	-38.25659	-3.280455E-005	0.0006647	11
	21	65	2390.625	2.268283	-2.148827	1	3.124511	-43.45088	-1.630042E-005	0.0006647	11
	22	67	1884.191	2.347389	-2.679948	1	3.562634	-48.7846	-3.727135E-005	0.0006635	11
	23	69	1516.544	2.440412	-3.276376	1	4.08537	-53.31938	-1.248033E-005	0.000641	10
	24	71	1193.986	2.567386	-4.08203	1	4.822286	-57.83223	1.628106E-005	0.000644	10
	25	74	946.5144	2.722593	-5.049709	1	5.736905	-61.6683	-1.417984E-006	0.0006134	10
	26	76	751.7689	2.927148	-6.230078	1	6.883463	-64.83392	-2.589091E-005	0.0006661	10
	27	79	597.4265	3.187365	-7.673645	1	8.309278	-67.4437	-1.874708E-005	0.0006542	10
	28	81	477.4305	3.516232	-9.398854	1	10.03506	-69.48853	-2.830649E-006	0.000656	10
	29	83	376.6741	3.965351	-11.63097	1	12.28834	-71.17419	-3.387032E-006	0.0006524	10
	30	85	298.2954	4.540923	-14.32499	1	15.02749	-72.41174	-3.967742E-006	0.00066	10
	31	88	237.7717	5.264513	-17.51061	1	18.28488	-73.26675	-3.702739E-006	0.000653	10
	32	90	189.0121	6.206472	-21.41758	1	22.29872	-73.83926	-3.997124E-006	0.0006527	10
	33	93	150.2404	7.411499	-26.13806	1	27.16852	-74.16921	-3.678152E-006	0.0006494	10
	34	95	119.1737	8.95791	-31.88255	1	33.11708	-74.30645	-4.216965E-006	0.0006551	10
	35	97	95.0169	10.84021	-38.60778	1	40.10076	-74.31644	-4.346307E-006	0.0006547	10
	36	100	75.60484	13.15295	-46.66997	1	48.488	-74.26063	-1.448322E-006	5.351727E-005	9
	37	102	54.50582	17.32627	-61.10603	1	63.51493	-74.16962	-1.599224E-006	4.874611E-005	9
	38	105	45.95588	19.93774	-70.26499	1	73.03891	-74.15868	-1.019291E-006	5.537657E-005	9
	39	107	37.20238	23.61321	-83.49441	1	86.76923	-74.20847	-1.166351E-006	4.811144E-005	9
	40	110	30.04808	27.77934	-99.3244	1	103.136	-74.3746	-1.329423E-006	5.177674E-005	9
	41	112	23.91582	32.90015	-119.9015	1	124.3334	-74.65608	-1.557686E-006	5.552517E-005	9
	42	115	18.60119	39.19026	-147.5839	1	152.6987	-75.12857	-1.091942E-006	5.27207E-005	9
	43	117	15.02404	45.27817	-176.6826	1	182.3921	-75.62624	-9.519793E-007	6.475134E-005	9
	44	119	12.01923	52.62253	-213.8984	1	220.2764	-76.17877	-1.356115E-006	5.710828E-005	9
	45	122	9.450605	62.083	-263.6554	1	270.8661	-76.74992	-1.220251E-006	7.210518E-005	9
	46	124	7.512019	73.4361	-323.1622	1	331.4011	-77.1974	-1.038921E-006	6.01816E-005	9
	47	127	5.978954	87.90691	-396.0338	1	405.6727	-77.48506	-1.06832E-006	6.439741E-005	9
	48	130	4.734848	106.8101	-486.6055	1	498.19	-77.61988	-1.770706E-006	0.0006172	8
	49	133	3.75601	132.5314	-599.9789	1	614.4423	-77.54376	-1.789157E-006	0.0006407	8
	50	136	3.004808	166.2925	-732.9603	1	751.5876	-77.21725	-1.716733E-006	0.0006123	8
	51	140	2.372217	217.6356	-906.5426	1	932.3008	-76.50036	-1.785888E-006	0.000566	8
	52	144	1.878005	287.9929	-1116.882	1	1153.415	-75.541	-1.678232E-006	0.0006376	8
	53	149	1.512097	378.7505	-1346.94	1	1399.178	-74.29437	-1.739439E-006	0.0006494	8
	54	154	1.201923	519.3927	-1642.456	1	1722.623	-72.45152	-1.658209E-006	0.000649	8
	55	161	0.956633	709.9763	-1980.395	1	2103.813	-70.27712	-1.825217E-006	-3.529422E-006	8
