EXPLAIN
TAG	EISPOT
TITLE	LABEL	Potentiostatic EIS	Test Identifier
DATE	LABEL	9/12/2020	Date
TIME	LABEL	15:21:40	Time
NOTES	NOTES	1	Notes...
	
PSTAT	PSTAT	REF3000-16137	Potentiostat
VDC	POTEN	0.00000E+000	T	DC Voltage (V)
FREQINIT	QUANT	3.00000E+005	Initial Freq. (Hz)
FREQFINAL	QUANT	1.00000E+000	Final Freq. (Hz)
PTSPERDEC	QUANT	1.00000E+001	Points/decade
VAC	QUANT	5.00000E+001	AC Voltage (mV rms)
AREA	QUANT	1.00000E+000	Sample Area (cm^2)
SPEED	SELECTOR	2	Optimize for:
ZGUESS	QUANT	1.00000E+003	Estimated Z (ohms)
EOC	QUANT	0	Open Circuit (V)
SEQUENCER	TOGGLE	TRUE	Run as Sequence
PSTATMODEL	IQUANT	5	Pstat Model
PSTATSECTION	LABEL	REF3000-16137	Pstat Section
PSTATSERIALNO	LABEL	16137	Pstat Serial Number
CTRLMODE	IQUANT	1	Control Mode
IESTAB	IQUANT	0	I/E Stability
CASPEED	IQUANT	1	Control Amp Speed
CONVENTION	IQUANT	1	Current Convention
ICHRANGE	IQUANT	2	Ich Range
ICHRANGEMODE	TOGGLE	F	Ich Auto Range
ICHOFFSETENABLE	TOGGLE	T	Ich Offset Enable
ICHOFFSET	QUANT	0	Ich Offset (V)
ICHFILTER	IQUANT	3	Ich Filter
VCHRANGE	IQUANT	2	Vch Range
VCHRANGEMODE	TOGGLE	F	Vch Auto Range
VCHOFFSETENABLE	TOGGLE	T	Vch Offset Enable
VCHOFFSET	QUANT	0	Vch Offset (V)
VCHFILTER	IQUANT	3	Vch Filter
ACHRANGE	IQUANT	2	Ach Range
ACHOFFSETENABLE	TOGGLE	F	Ach Offset Enable
ACHOFFSET	QUANT	0	Ach Offset (V)
ACHFILTER	IQUANT	3	Ach Filter
IERANGELOWERLIMIT	IQUANT	2	I/E Range Lower Limit
IERANGEMODE	TOGGLE	F	I/E AutoRange
IERANGE	IQUANT	11	I/E Range
POSFEEDENABLE	TOGGLE	F	Positive Feedback IR Comp
POSFEEDRESISTANCE	QUANT	0	Positive Feedback Resistance (ohm)
ACHSELECT	IQUANT	0	Ach Select
CABLEID	IQUANT	13	Cable ID
DCCALDATE	LABEL	7/31/2020	DC Calibration Date
ACCALDATE	LABEL	7/31/2020	AC Calibration Date
THERMOSELECT	IQUANT	1	Thermo Select
FRAMEWORKVERSION	QUANT	6.33	Framework Version
INSTRUMENTVERSION	LABEL	3.50	Instrument Version
COMPLIANCEVOLTAGE	IQUANT	0	Compliance Voltage
ZCURVE	TABLE
	Pt	Time	Freq	Zreal	Zimag	Zsig	Zmod	Zphz	Idc	Vdc	IERange
	#	s	Hz	ohm	ohm	V	ohm	°	A	V	#
	0	23	300046.9	29.8677	-4428.001	1	4428.102	-89.61353	8.605924E-005	-0.0017941	9
	1	42	238359.4	-4.739285	-5525.207	1	5525.209	-90.04915	2.791467E-005	-0.0015823	9
	2	58	189328.1	320.7522	-6864.271	1	6871.76	-87.32464	-9.428771E-008	0.0016126	9
	3	66	150421.9	409.4451	-8194.184	1	8204.407	-87.13943	5.044722E-005	0.0001407	9
	4	73	119484.4	520.3902	-10619.2	1	10631.94	-87.19448	1.284329E-005	-0.0190448	8
	5	81	94921.88	804.366	-13204.57	1	13229.05	-86.51409	-1.20207E-005	0.010207	8
	6	89	75421.88	1019.575	-16665.08	1	16696.24	-86.49899	-2.412883E-005	0.0053055	8
	7	97	59859.37	1221.909	-20711.48	1	20747.5	-86.62365	-1.320762E-006	-0.0050599	8
	8	106	47578.12	4191.344	-27287.96	1	27607.97	-81.26779	5.206023E-006	-0.0263562	7
	9	112	37828.12	4720.498	-33535.31	1	33865.92	-81.98757	-6.493963E-006	0.02568	7
	10	119	30046.88	4958.419	-41740.04	1	42033.52	-83.22542	2.763662E-006	0.0082301	7
	11	127	23859.38	5811.549	-51821.29	1	52146.14	-83.60124	-5.25353E-006	0.0262716	7
	12	132	18984.38	7056.761	-64700.21	1	65083.91	-83.77544	-5.328374E-006	0.0038195	7
	13	137	15046.87	6268.431	-81532.72	1	81773.33	-85.60361	-5.184738E-006	0.0269105	7
	14	143	11953.13	8346.533	-102147	1	102487.5	-85.32868	-3.822638E-006	0.0259358	7
	15	148	9515.62	10739.98	-127127.5	1	127580.4	-85.17101	-6.50963E-006	0.0255957	7
	16	155	7546.875	13330.37	-159181.5	1	159738.7	-85.21304	-6.603247E-006	0.0114485	7
	17	160	5928.309	10168.49	-193633.7	1	193900.5	-86.99393	7.503686E-006	-0.0240102	7
	18	166	4733.456	18335.9	-244309.9	1	244997	-85.70789	-1.681305E-006	0.0215739	7
	19	172	3796.875	19990.77	-304133.9	1	304790.2	-86.23935	-1.148478E-006	-0.0130557	7
	20	178	2987.132	72663.2	-399666.3	1	406218	-79.69563	-4.88212E-007	0.0013833	6
	21	184	2390.625	-7548.973	-483047.9	1	483106.9	-90.89533	6.859839E-006	-0.0269597	7
	22	190	1884.191	-205273.1	-834642.4	1	859514.4	-103.8172	-1.130136E-006	-0.0131981	7
	23	197	1516.544	201393.5	-1010137	1	1030018	-78.72465	7.588803E-006	-0.0243522	7
	24	204	1193.986	70747.7	-774380.8	1	777605.8	-84.77993	6.675517E-006	-0.026602	7
	25	212	946.5144	957628	-724656.3	1	1200907	-37.11552	-7.408063E-006	0.0188247	7
	26	219	751.7689	-129396.2	-217486.2	1	253068.4	-120.7511	-1.972839E-005	0.0112053	8
	27	226	597.4265	-615208.1	-139798.4	1	630891.9	-167.1976	1.95181E-005	-2.853457E-006	9
	28	234	477.4305	579674.9	-2151328	1	2228056	-74.91981	-9.392324E-008	0.0005886	7
	29	240	376.6741	1161059	-2648567	1	2891880	-66.32867	-1.045335E-009	0.0005834	5
	30	243	298.2954	1181952	-3208226	1	3419024	-69.77555	-9.387258E-009	0.0006568	6
	31	247	237.7717	1861938	-3710720	1	4151657	-63.35375	-1.053335E-009	0.0006824	5
	32	250	189.0121	2444842	-4435932	1	5065052	-61.13886	-9.725152E-010	0.0006619	5
	33	255	150.2404	3090919	-5151945	1	6008021	-59.03827	-9.788109E-010	0.0006206	5
	34	257	119.1737	3295521	-4832273	1	5849045	-55.70673	-9.967113E-010	0.0006712	5
	35	260	95.0169	5202802	-6607432	1	8409952	-51.78252	-8.778083E-010	0.0005974	5
	36	263	75.60484	6157978	-6965398	1	9297175	-48.52071	-1.133716E-009	0.0006758	5
	37	266	54.50582	8553622	-7711320	1	1.151646E+007	-42.03551	-9.769964E-010	0.0005695	5
	38	269	45.95588	1.168335E+007	-6384683	1	1.331408E+007	-28.6556	-1.547629E-010	0.0006792	4
	39	272	37.20238	1.29619E+007	-6681786	1	1.458277E+007	-27.27085	-1.033977E-010	0.0007233	4
	40	274	30.04808	1.396136E+007	-6803343	1	1.553078E+007	-25.97988	-1.1477E-010	0.0006293	4
	41	277	23.91582	1.548489E+007	-7055705	1	1.70166E+007	-24.49643	-1.596747E-010	0.0005855	4
	42	280	18.60119	1.628214E+007	-7248435	1	1.782268E+007	-23.99753	-1.876565E-010	0.0006763	4
	43	282	15.02404	1.77605E+007	-5850743	1	1.869937E+007	-18.23315	-1.188284E-010	0.0006251	4
	44	285	12.01923	1.871249E+007	-5236176	1	1.943129E+007	-15.63281	-9.538589E-011	0.0006738	4
	45	287	9.450605	1.992122E+007	-4807038	1	2.049299E+007	-13.56627	-1.031204E-010	0.0006354	4
	46	290	7.512019	2.085685E+007	-4348384	1	2.130532E+007	-11.77673	-9.327795E-011	0.000575	4
	47	293	5.978954	2.2132E+007	-3944865	1	2.248082E+007	-10.10641	-1.012891E-010	0.0005879	4
	48	297	4.734848	2.331049E+007	-3606680	1	2.358785E+007	-8.79526	-1.033775E-010	0.0007252	4
	49	302	3.75601	2.463743E+007	-3558619	1	2.489311E+007	-8.218932	-1.045536E-009	0.0006488	5
	50	309	3.004808	2.678813E+007	-3706083	1	2.704328E+007	-7.876753	-1.056472E-009	0.0006566	5
	51	317	2.372217	2.869965E+007	-3204568	1	2.887801E+007	-6.371185	-1.023191E-010	0.0006293	4
	52	323	1.878005	3.051315E+007	-2997456	1	3.066002E+007	-5.610444	-1.007807E-010	0.0006433	4
	53	331	1.512097	3.254948E+007	-2873214	1	3.267605E+007	-5.044548	-1.034951E-010	0.0005343	4
	54	336	1.201923	3.472649E+007	-2748332	1	3.483508E+007	-4.525084	-9.949475E-011	0.0006398	4
	55	344	0.956633	3.716144E+007	-2636440	1	3.725484E+007	-4.058083	-1.152476E-010	-5.187998E-006	4
