EXPLAIN
TAG	EISPOT
TITLE	LABEL	Potentiostatic EIS	Test Identifier
DATE	LABEL	9/12/2020	Date
TIME	LABEL	14:50:34	Time
NOTES	NOTES	1	Notes...
	
PSTAT	PSTAT	REF3000-16137	Potentiostat
VDC	POTEN	0.00000E+000	T	DC Voltage (V)
FREQINIT	QUANT	3.00000E+005	Initial Freq. (Hz)
FREQFINAL	QUANT	1.00000E+000	Final Freq. (Hz)
PTSPERDEC	QUANT	1.00000E+001	Points/decade
VAC	QUANT	5.00000E+001	AC Voltage (mV rms)
AREA	QUANT	1.00000E+000	Sample Area (cm^2)
SPEED	SELECTOR	2	Optimize for:
ZGUESS	QUANT	1.00000E+003	Estimated Z (ohms)
EOC	QUANT	0	Open Circuit (V)
SEQUENCER	TOGGLE	TRUE	Run as Sequence
PSTATMODEL	IQUANT	5	Pstat Model
PSTATSECTION	LABEL	REF3000-16137	Pstat Section
PSTATSERIALNO	LABEL	16137	Pstat Serial Number
CTRLMODE	IQUANT	1	Control Mode
IESTAB	IQUANT	0	I/E Stability
CASPEED	IQUANT	1	Control Amp Speed
CONVENTION	IQUANT	1	Current Convention
ICHRANGE	IQUANT	2	Ich Range
ICHRANGEMODE	TOGGLE	F	Ich Auto Range
ICHOFFSETENABLE	TOGGLE	T	Ich Offset Enable
ICHOFFSET	QUANT	0	Ich Offset (V)
ICHFILTER	IQUANT	3	Ich Filter
VCHRANGE	IQUANT	2	Vch Range
VCHRANGEMODE	TOGGLE	F	Vch Auto Range
VCHOFFSETENABLE	TOGGLE	T	Vch Offset Enable
VCHOFFSET	QUANT	0	Vch Offset (V)
VCHFILTER	IQUANT	3	Vch Filter
ACHRANGE	IQUANT	2	Ach Range
ACHOFFSETENABLE	TOGGLE	F	Ach Offset Enable
ACHOFFSET	QUANT	0	Ach Offset (V)
ACHFILTER	IQUANT	3	Ach Filter
IERANGELOWERLIMIT	IQUANT	2	I/E Range Lower Limit
IERANGEMODE	TOGGLE	F	I/E AutoRange
IERANGE	IQUANT	11	I/E Range
POSFEEDENABLE	TOGGLE	F	Positive Feedback IR Comp
POSFEEDRESISTANCE	QUANT	0	Positive Feedback Resistance (ohm)
ACHSELECT	IQUANT	0	Ach Select
CABLEID	IQUANT	13	Cable ID
DCCALDATE	LABEL	7/31/2020	DC Calibration Date
ACCALDATE	LABEL	7/31/2020	AC Calibration Date
THERMOSELECT	IQUANT	1	Thermo Select
FRAMEWORKVERSION	QUANT	6.33	Framework Version
INSTRUMENTVERSION	LABEL	3.50	Instrument Version
COMPLIANCEVOLTAGE	IQUANT	0	Compliance Voltage
ZCURVE	TABLE
	Pt	Time	Freq	Zreal	Zimag	Zsig	Zmod	Zphz	Idc	Vdc	IERange
	#	s	Hz	ohm	ohm	V	ohm	°	A	V	#
	0	10	300046.9	379.0586	-39.1376	1	381.0737	-5.894871	-9.381964E-005	0.0020664	9
	1	19	238359.4	392.9475	-35.28416	1	394.5284	-5.131033	4.996066E-005	-0.0001292	9
	2	30	189328.1	406.0305	-30.24614	1	407.1555	-4.260225	-0.0001008	0.0036083	9
	3	39	150421.9	417.3223	-26.8308	1	418.1839	-3.67864	-2.902289E-006	-0.001595	9
	4	48	119484.4	428.7652	-8.913711	1	428.8579	-1.190965	-2.658863E-006	0.0077569	8
	5	54	94921.88	434.7003	-5.339399	1	434.7331	-0.7037253	1.162488E-005	-0.0004502	8
	6	57	75421.88	437.24	-5.197881	1	437.2709	-0.6810964	-7.067799E-006	-0.0002378	8
	7	59	59859.37	440.2886	-4.432199	1	440.3109	-0.576753	1.16015E-005	-0.0005131	8
	8	62	47578.12	443.9999	-4.071104	1	444.0186	-0.5253391	-1.46139E-005	0.0048616	8
	9	64	37828.12	446.9903	-3.252996	1	447.0022	-0.4169657	-1.462237E-005	0.0040303	8
	10	67	30046.88	451.1427	-3.662634	1	451.1576	-0.4651497	7.568603E-006	-0.0046434	8
	11	69	23859.38	453.8556	-2.317459	1	453.8615	-0.2925589	-4.689339E-006	-0.001051	8
	12	72	18984.38	457.9767	-3.007248	1	457.9866	-0.3762203	-5.965229E-006	0.0057973	8
	13	74	15046.87	461.1416	-4.009274	1	461.159	-0.4981304	1.66014E-005	-0.0039189	8
	14	76	11953.13	463.3172	-2.350981	1	463.3232	-0.2907299	-9.444792E-006	0.006347	8
	15	79	9515.62	467.6113	-2.812326	1	467.6197	-0.3445864	-1.425869E-005	0.0039893	8
	16	81	7546.875	471.919	-1.950324	1	471.923	-0.2367879	-1.464698E-005	0.0040082	8
	17	83	5928.309	474.1151	-3.929284	1	474.1314	-0.4748346	-1.424958E-005	0.0039625	8
	18	86	4733.456	476.6713	-3.674001	1	476.6855	-0.4416053	-1.481435E-005	0.004179	8
	19	88	3796.875	479.6273	-4.050982	1	479.6444	-0.4839147	4.138491E-006	-0.0040766	8
	20	90	2987.132	483.3585	-5.089286	1	483.3853	-0.6032456	-1.485376E-005	0.0041648	8
	21	93	2390.625	487.8589	-5.197905	1	487.8866	-0.6104362	-1.141056E-005	0.0016524	8
	22	95	1884.191	494.5388	-9.946	1	494.6388	-1.152159	1.624287E-005	-0.0035763	8
	23	97	1516.544	493.8	-7.071185	1	493.8506	-0.8204158	3.101254E-006	-0.0038704	8
	24	100	1193.986	499.8462	-9.60433	1	499.9384	-1.100778	1.535294E-005	-0.0024265	8
	25	102	946.5144	502.9643	-11.41375	1	503.0937	-1.299987	6.811533E-006	0.0020054	8
	26	104	751.7689	505.2668	-12.83689	1	505.4299	-1.455353	-1.440667E-005	0.0039651	8
	27	107	597.4265	510.9779	-15.4714	1	511.212	-1.734273	1.569155E-005	-0.0024034	8
	28	109	477.4305	514.561	-20.6477	1	514.9752	-2.297865	-1.001004E-007	0.0006245	8
	29	111	376.6741	518.7916	-25.62365	1	519.424	-2.8276	-1.111848E-007	0.0006211	8
	30	114	298.2954	523.1158	-31.75524	1	524.0788	-3.473822	-8.865168E-008	0.0006167	8
	31	116	237.7717	527.7679	-39.17524	1	529.2199	-4.245174	-1.193234E-007	0.0006344	8
	32	118	189.0121	532.6655	-48.48375	1	534.8675	-5.200788	-1.375775E-007	0.000641	8
	33	121	150.2404	537.9235	-60.02393	1	541.262	-6.366983	-1.17846E-007	0.0006392	8
	34	123	119.1737	543.459	-74.48354	1	548.5394	-7.804027	-1.167784E-007	0.0006397	8
	35	126	95.0169	549.4673	-91.97615	1	557.1122	-9.50272	-1.372235E-007	0.0006326	8
	36	128	75.60484	556.2203	-113.8303	1	567.7485	-11.56586	-1.658526E-007	0.0006792	8
	37	131	54.50582	565.3354	-154.3842	1	586.0363	-15.27416	-1.339548E-007	0.0006258	8
	38	133	45.95588	572.7123	-180.9807	1	600.6276	-17.53687	-9.543626E-008	0.0006293	8
	39	136	37.20238	581.6165	-220.2959	1	621.9389	-20.74493	-1.276957E-007	0.0006385	8
	40	138	30.04808	592.0599	-268.619	1	650.147	-24.40391	-1.208926E-007	0.000632	8
	41	140	23.91582	604.7285	-331.8252	1	689.7859	-28.75435	-8.82259E-008	0.0006351	8
	42	143	18.60119	620.7042	-418.5789	1	748.6534	-33.99421	-1.96967E-007	0.0006381	8
	43	145	15.02404	637.9318	-509.2273	1	816.2532	-38.59852	-5.906151E-008	0.0006257	8
	44	147	12.01923	659.5452	-624.7005	1	908.433	-43.44581	-1.864987E-007	0.0006419	8
	45	150	9.450605	687.5243	-778.2169	1	1038.418	-48.54066	-1.475262E-007	0.0006294	8
	46	152	7.512019	720.3271	-959.3	1	1199.636	-53.09754	-1.747992E-007	0.0006232	8
	47	155	5.978954	760.9728	-1180.868	1	1404.823	-57.20153	-9.51404E-008	0.0006186	8
	48	158	4.734848	811.4067	-1460.373	1	1670.65	-60.94275	-1.599851E-007	0.0006178	8
	49	161	3.75601	874.1349	-1801.387	1	2002.275	-64.11471	-1.060096E-007	0.0006559	8
	50	165	3.004808	947.7938	-2203.524	1	2398.714	-66.72618	-1.199437E-007	0.0006453	8
	51	168	2.372217	1044.422	-2726.402	1	2919.604	-69.03931	-1.361871E-007	0.0006414	8
	52	173	1.878005	1168.224	-3374.208	1	3570.718	-70.90304	-1.181367E-007	0.0006157	8
	53	177	1.512097	1310.809	-4115.198	1	4318.921	-72.33183	-2.684331E-008	0.0007074	7
	54	183	1.201923	1496.735	-5070.911	1	5287.188	-73.55546	-1.710686E-008	0.0005905	7
	55	189	0.956633	1723.686	-6234.229	1	6468.13	-74.54455	-4.917695E-008	-3.177279E-005	7
