EXPLAIN
TAG	EISPOT
TITLE	LABEL	Potentiostatic EIS	Test Identifier
DATE	LABEL	9/12/2020	Date
TIME	LABEL	14:41:57	Time
NOTES	NOTES	1	Notes...
	
PSTAT	PSTAT	REF3000-16137	Potentiostat
VDC	POTEN	0.00000E+000	T	DC Voltage (V)
FREQINIT	QUANT	3.00000E+005	Initial Freq. (Hz)
FREQFINAL	QUANT	1.00000E+000	Final Freq. (Hz)
PTSPERDEC	QUANT	1.00000E+001	Points/decade
VAC	QUANT	5.00000E+001	AC Voltage (mV rms)
AREA	QUANT	1.00000E+000	Sample Area (cm^2)
SPEED	SELECTOR	2	Optimize for:
ZGUESS	QUANT	1.00000E+003	Estimated Z (ohms)
EOC	QUANT	0	Open Circuit (V)
SEQUENCER	TOGGLE	TRUE	Run as Sequence
PSTATMODEL	IQUANT	5	Pstat Model
PSTATSECTION	LABEL	REF3000-16137	Pstat Section
PSTATSERIALNO	LABEL	16137	Pstat Serial Number
CTRLMODE	IQUANT	1	Control Mode
IESTAB	IQUANT	0	I/E Stability
CASPEED	IQUANT	1	Control Amp Speed
CONVENTION	IQUANT	1	Current Convention
ICHRANGE	IQUANT	2	Ich Range
ICHRANGEMODE	TOGGLE	F	Ich Auto Range
ICHOFFSETENABLE	TOGGLE	T	Ich Offset Enable
ICHOFFSET	QUANT	0	Ich Offset (V)
ICHFILTER	IQUANT	3	Ich Filter
VCHRANGE	IQUANT	2	Vch Range
VCHRANGEMODE	TOGGLE	F	Vch Auto Range
VCHOFFSETENABLE	TOGGLE	T	Vch Offset Enable
VCHOFFSET	QUANT	0	Vch Offset (V)
VCHFILTER	IQUANT	3	Vch Filter
ACHRANGE	IQUANT	2	Ach Range
ACHOFFSETENABLE	TOGGLE	F	Ach Offset Enable
ACHOFFSET	QUANT	0	Ach Offset (V)
ACHFILTER	IQUANT	3	Ach Filter
IERANGELOWERLIMIT	IQUANT	2	I/E Range Lower Limit
IERANGEMODE	TOGGLE	F	I/E AutoRange
IERANGE	IQUANT	11	I/E Range
POSFEEDENABLE	TOGGLE	F	Positive Feedback IR Comp
POSFEEDRESISTANCE	QUANT	0	Positive Feedback Resistance (ohm)
ACHSELECT	IQUANT	0	Ach Select
CABLEID	IQUANT	13	Cable ID
DCCALDATE	LABEL	7/31/2020	DC Calibration Date
ACCALDATE	LABEL	7/31/2020	AC Calibration Date
THERMOSELECT	IQUANT	1	Thermo Select
FRAMEWORKVERSION	QUANT	6.33	Framework Version
INSTRUMENTVERSION	LABEL	3.50	Instrument Version
COMPLIANCEVOLTAGE	IQUANT	0	Compliance Voltage
ZCURVE	TABLE
	Pt	Time	Freq	Zreal	Zimag	Zsig	Zmod	Zphz	Idc	Vdc	IERange
	#	s	Hz	ohm	ohm	V	ohm	°	A	V	#
	0	7	300046.9	101.3054	0.5292528	1	101.3068	0.2993293	-6.839589E-005	0.0026141	9
	1	10	238359.4	101.9926	0.1583913	1	101.9928	0.0889785	1.98866E-005	-0.000727	9
	2	14	189328.1	102.8294	0.1237959	1	102.8294	0.0689781	1.680551E-005	-0.0005312	9
	3	16	150421.9	103.4725	-0.0789572	1	103.4725	-0.0437209	-7.310774E-005	0.0019596	9
	4	19	119484.4	103.9587	-0.1575424	1	103.9589	-0.0868278	1.914955E-005	-0.0012012	9
	5	21	94921.88	104.7437	0.0271204	1	104.7437	0.0148351	-5.473109E-006	0.0006857	9
	6	24	75421.88	105.3511	-0.1223413	1	105.3511	-0.066536	1.070999E-005	0.0001392	9
	7	26	59859.37	106.011	-0.2360927	1	106.0112	-0.1276008	2.007765E-006	0.0004317	9
	8	29	47578.12	106.6734	-0.3274982	1	106.6739	-0.1759034	2.090904E-005	-0.0003649	9
	9	31	37828.12	107.2848	-0.3785906	1	107.2854	-0.2021867	-1.966032E-005	0.0007903	9
	10	34	30046.88	107.9387	-0.4947253	1	107.9399	-0.2626071	-2.392642E-005	0.0006894	9
	11	36	23859.38	108.5853	-0.5201017	1	108.5866	-0.2744331	-6.276679E-006	0.0006436	9
	12	39	18984.38	109.148	-0.6294599	1	109.1498	-0.3304229	2.259106E-005	-0.0007047	9
	13	41	15046.87	109.6798	-0.8244437	1	109.6829	-0.430674	5.122629E-006	-0.000499	9
	14	43	11953.13	110.4325	-0.984349	1	110.4369	-0.5106967	-2.821723E-006	0.0006145	9
	15	45	9515.62	110.9502	-1.145617	1	110.9561	-0.5915872	1.570419E-006	0.0004339	9
	16	48	7546.875	111.5819	-1.541894	1	111.5926	-0.7916905	1.130455E-005	0.0001983	9
	17	50	5928.309	112.2388	-1.749003	1	112.2524	-0.8927604	-2.121382E-005	0.0007855	9
	18	52	4733.456	112.8819	-2.189134	1	112.9031	-1.111006	2.177323E-006	0.0004794	9
	19	55	3796.875	113.5928	-2.527461	1	113.6209	-1.274632	-5.538064E-006	-0.0002196	9
	20	57	2987.132	114.2293	-3.265905	1	114.276	-1.637685	1.804939E-005	-0.0000971	9
	21	59	2390.625	114.9645	-4.023801	1	115.0349	-2.004556	1.282435E-005	-0.0006689	9
	22	62	1884.191	115.6299	-4.942242	1	115.7355	-2.447441	1.814727E-005	-8.700068E-005	9
	23	64	1516.544	116.3736	-6.08041	1	116.5323	-2.990932	-1.275209E-005	0.0008323	9
	24	66	1193.986	117.2506	-7.624775	1	117.4982	-3.720692	-1.690047E-005	0.0003414	9
	25	69	946.5144	118.0927	-9.459428	1	118.471	-4.579711	-1.964692E-005	0.0005096	9
	26	71	751.7689	119.0365	-11.66155	1	119.6063	-5.595194	-1.71373E-005	0.0003462	9
	27	73	597.4265	119.9926	-14.31143	1	120.8431	-6.801496	-2.052286E-005	0.00063	9
	28	76	477.4305	120.9424	-17.78162	1	122.2426	-8.364018	1.262208E-006	6.132724E-005	9
	29	78	376.6741	122.094	-22.17746	1	124.0919	-10.2951	1.247972E-006	5.288094E-005	9
	30	80	298.2954	123.3702	-27.57104	1	126.4135	-12.59758	1.295887E-006	5.739478E-005	9
	31	83	237.7717	124.8215	-34.06213	1	129.3857	-15.26361	1.240682E-006	5.218474E-005	9
	32	85	189.0121	126.5043	-42.18776	1	133.3535	-18.44296	1.22945E-006	6.103084E-005	9
	33	87	150.2404	128.4563	-52.22174	1	138.6656	-22.12337	1.15182E-006	5.410729E-005	9
	34	90	119.1737	130.7787	-64.74796	1	145.9293	-26.33981	1.273003E-006	5.852103E-005	9
	35	92	95.0169	133.5159	-79.83559	1	155.5642	-30.87724	1.272765E-006	5.746947E-005	9
	36	95	75.60484	136.8555	-98.5724	1	168.6593	-35.76395	1.297785E-006	5.479847E-005	9
	37	97	54.50582	142.5898	-133.1183	1	195.0701	-43.03248	1.22877E-006	5.318942E-005	9
	38	100	45.95588	146.6565	-155.6674	1	213.8702	-46.70722	1.164125E-006	6.214237E-005	9
	39	102	37.20238	152.3682	-188.8069	1	242.6193	-51.09627	1.264899E-006	4.98396E-005	9
	40	104	30.04808	159.3682	-229.4592	1	279.3738	-55.21855	1.343503E-006	5.60411E-005	9
	41	107	23.91582	168.4012	-282.4209	1	328.8169	-59.19333	1.371442E-006	5.888461E-005	9
	42	109	18.60119	180.5893	-354.8645	1	398.1725	-63.02862	1.385041E-006	5.877517E-005	9
	43	111	15.02404	192.6946	-428.864	1	470.1655	-65.80495	2.1671E-007	0.0006407	8
	44	114	12.01923	209.259	-524.9833	1	565.152	-68.26771	1.477447E-007	0.00063	8
	45	116	9.450605	231.5595	-652.781	1	692.6347	-70.46899	1.099812E-007	0.0006294	8
	46	119	7.512019	258.1131	-803.8879	1	844.3093	-72.19917	1.761153E-007	0.000638	8
	47	121	5.978954	291.4741	-987.716	1	1029.826	-73.55872	1.969087E-007	0.0006337	8
	48	124	4.734848	335.4402	-1219.955	1	1265.232	-74.62582	1.828934E-007	0.0006473	8
	49	128	3.75601	390.0907	-1502.623	1	1552.432	-75.4469	1.506321E-007	0.0006293	8
	50	131	3.004808	456.8813	-1835.01	1	1891.032	-76.01876	1.520492E-007	0.0006503	8
	51	135	2.372217	551.2947	-2266.061	1	2332.157	-76.32653	1.64996E-007	0.0006868	8
	52	139	1.878005	666.2577	-2795.717	1	2874.01	-76.59566	1.360115E-007	0.0006194	8
	53	144	1.512097	798.9848	-3383.639	1	3476.692	-76.71401	1.682371E-007	0.0005789	8
	54	149	1.201923	991.14	-4150.428	1	4267.131	-76.56906	1.385613E-007	0.0006268	8
	55	155	0.956633	1229.028	-5073.833	1	5220.564	-76.38359	-9.229754E-009	-2.915234E-005	7
