EXPLAIN
TAG	EISPOT
TITLE	LABEL	Potentiostatic EIS	Test Identifier
DATE	LABEL	9/12/2020	Date
TIME	LABEL	14:30:59	Time
NOTES	NOTES	1	Notes...
	
PSTAT	PSTAT	REF3000-16137	Potentiostat
VDC	POTEN	0.00000E+000	T	DC Voltage (V)
FREQINIT	QUANT	3.00000E+005	Initial Freq. (Hz)
FREQFINAL	QUANT	1.00000E+000	Final Freq. (Hz)
PTSPERDEC	QUANT	1.00000E+001	Points/decade
VAC	QUANT	5.00000E+001	AC Voltage (mV rms)
AREA	QUANT	1.00000E+000	Sample Area (cm^2)
SPEED	SELECTOR	2	Optimize for:
ZGUESS	QUANT	1.00000E+003	Estimated Z (ohms)
EOC	QUANT	0	Open Circuit (V)
SEQUENCER	TOGGLE	TRUE	Run as Sequence
PSTATMODEL	IQUANT	5	Pstat Model
PSTATSECTION	LABEL	REF3000-16137	Pstat Section
PSTATSERIALNO	LABEL	16137	Pstat Serial Number
CTRLMODE	IQUANT	1	Control Mode
IESTAB	IQUANT	0	I/E Stability
CASPEED	IQUANT	1	Control Amp Speed
CONVENTION	IQUANT	1	Current Convention
ICHRANGE	IQUANT	2	Ich Range
ICHRANGEMODE	TOGGLE	F	Ich Auto Range
ICHOFFSETENABLE	TOGGLE	T	Ich Offset Enable
ICHOFFSET	QUANT	0	Ich Offset (V)
ICHFILTER	IQUANT	3	Ich Filter
VCHRANGE	IQUANT	2	Vch Range
VCHRANGEMODE	TOGGLE	F	Vch Auto Range
VCHOFFSETENABLE	TOGGLE	T	Vch Offset Enable
VCHOFFSET	QUANT	0	Vch Offset (V)
VCHFILTER	IQUANT	3	Vch Filter
ACHRANGE	IQUANT	2	Ach Range
ACHOFFSETENABLE	TOGGLE	F	Ach Offset Enable
ACHOFFSET	QUANT	0	Ach Offset (V)
ACHFILTER	IQUANT	3	Ach Filter
IERANGELOWERLIMIT	IQUANT	2	I/E Range Lower Limit
IERANGEMODE	TOGGLE	F	I/E AutoRange
IERANGE	IQUANT	11	I/E Range
POSFEEDENABLE	TOGGLE	F	Positive Feedback IR Comp
POSFEEDRESISTANCE	QUANT	0	Positive Feedback Resistance (ohm)
ACHSELECT	IQUANT	0	Ach Select
CABLEID	IQUANT	13	Cable ID
DCCALDATE	LABEL	7/31/2020	DC Calibration Date
ACCALDATE	LABEL	7/31/2020	AC Calibration Date
THERMOSELECT	IQUANT	1	Thermo Select
FRAMEWORKVERSION	QUANT	6.33	Framework Version
INSTRUMENTVERSION	LABEL	3.50	Instrument Version
COMPLIANCEVOLTAGE	IQUANT	0	Compliance Voltage
ZCURVE	TABLE
	Pt	Time	Freq	Zreal	Zimag	Zsig	Zmod	Zphz	Idc	Vdc	IERange
	#	s	Hz	ohm	ohm	V	ohm	°	A	V	#
	0	7	300046.9	28.63067	1.374025	1	28.66363	2.747594	7.23522E-006	-4.488074E-005	11
	1	11	238359.4	28.83709	1.408957	1	28.87149	2.797202	-1.476915E-005	0.0005451	10
	2	14	189328.1	28.9686	1.098886	1	28.98944	2.172398	-6.957507E-006	0.0003222	10
	3	17	150421.9	29.07249	0.8507981	1	29.08494	1.676266	4.886971E-005	0.000692	10
	4	19	119484.4	29.20519	0.6399146	1	29.2122	1.255206	-8.982668E-005	0.0007739	10
	5	22	94921.88	29.32858	0.4826895	1	29.33255	0.9428883	-1.960245E-005	0.0007168	10
	6	24	75421.88	29.45698	0.3273867	1	29.4588	0.6367627	2.17934E-005	0.000595	10
	7	27	59859.37	29.58719	0.1956025	1	29.58784	0.3787799	-3.629916E-006	0.0006998	10
	8	29	47578.12	29.71931	0.0752897	1	29.71941	0.1451506	-3.117E-006	0.0005902	10
	9	32	37828.12	29.851	-0.0386106	1	29.85102	-0.0741088	-2.474136E-005	0.0007187	10
	10	34	30046.88	29.98031	-0.1500224	1	29.98068	-0.2867076	-2.843792E-005	0.0006516	10
	11	37	23859.38	30.11196	-0.2663281	1	30.11313	-0.5067449	2.702903E-005	0.0006415	10
	12	39	18984.38	30.24185	-0.3943771	1	30.24442	-0.7471389	-2.130689E-005	0.0006969	10
	13	42	15046.87	30.37232	-0.5416389	1	30.37715	-1.021665	4.326108E-006	0.0006246	10
	14	44	11953.13	30.50277	-0.7084795	1	30.511	-1.330554	-1.668148E-005	0.0006327	10
	15	46	9515.62	30.64227	-0.9002843	1	30.65549	-1.682893	-1.101132E-005	0.0007326	10
	16	48	7546.875	30.77563	-1.14128	1	30.79679	-2.123777	6.181814E-006	0.0005823	10
	17	51	5928.309	30.94318	-1.448283	1	30.97705	-2.679749	4.8834E-006	0.000587	10
	18	53	4733.456	31.10443	-1.809877	1	31.15704	-3.330122	-2.211284E-005	0.0007114	10
	19	55	3796.875	31.26175	-2.227087	1	31.34098	-4.074866	-3.91142E-006	0.0007175	10
	20	58	2987.132	31.44665	-2.795389	1	31.57065	-5.079846	2.467485E-005	0.0006474	10
	21	60	2390.625	31.64638	-3.451174	1	31.834	-6.223756	1.648903E-005	0.0006874	10
	22	62	1884.191	31.86227	-4.319674	1	32.15376	-7.720706	1.329897E-005	0.0005853	10
	23	65	1516.544	32.08941	-5.286169	1	32.5219	-9.354465	-1.712754E-005	0.0006489	10
	24	67	1193.986	32.36755	-6.612452	1	33.03609	-11.54622	6.862669E-006	0.0006662	10
	25	69	946.5144	32.68834	-8.221279	1	33.70633	-14.11737	4.085424E-006	0.0006364	10
	26	72	751.7689	33.05127	-10.18394	1	34.58466	-17.1254	-4.588489E-006	0.0006756	10
	27	74	597.4265	33.47647	-12.60848	1	35.77216	-20.63824	1.52653E-005	0.0005797	10
	28	76	477.4305	33.92851	-15.51262	1	37.30664	-24.57059	1.373482E-006	5.49645E-005	9
	29	79	376.6741	34.55566	-19.32304	1	39.59134	-29.21331	1.348139E-006	5.56327E-005	9
	30	81	298.2954	35.31113	-23.96939	1	42.67795	-34.16888	1.340147E-006	5.376633E-005	9
	31	83	237.7717	36.22	-29.53841	1	46.73763	-39.19819	1.321197E-006	5.649275E-005	9
	32	86	189.0121	37.34297	-36.4705	1	52.19765	-44.3228	1.258256E-006	5.774985E-005	9
	33	88	150.2404	38.72163	-45.00326	1	59.36883	-49.2907	1.221146E-006	5.851462E-005	9
	34	91	119.1737	40.43402	-55.61818	1	68.76257	-53.98312	1.292921E-006	5.521043E-005	9
	35	93	95.0169	42.49981	-68.38097	1	80.51205	-58.13842	1.354401E-006	5.745271E-005	9
	36	95	75.60484	45.07334	-84.21165	1	95.5155	-61.84258	1.329035E-006	5.397831E-005	9
	37	98	54.50582	49.78142	-113.39	1	123.8365	-66.29716	1.262944E-006	5.083567E-005	9
	38	101	45.95588	52.95335	-132.4415	1	142.6352	-68.20725	1.413713E-006	5.861093E-005	9
	39	103	37.20238	57.633	-160.4759	1	170.5112	-70.24486	1.281888E-006	6.673404E-005	9
	40	105	30.04808	63.48041	-194.8402	1	204.9206	-71.95399	1.314309E-006	6.259011E-005	9
	41	108	23.91582	71.3274	-239.6605	1	250.0495	-73.42602	1.256305E-006	5.444724E-005	9
	42	110	18.60119	82.33292	-300.9325	1	311.9921	-74.69875	1.443202E-006	5.596278E-005	9
	43	112	15.02404	94.3739	-364.9557	1	376.9604	-75.50148	1.289477E-006	5.126242E-005	9
	44	115	12.01923	109.9643	-444.2375	1	457.6451	-76.09676	5.315027E-007	0.0006287	8
	45	117	9.450605	132.2211	-551.0945	1	566.7341	-76.50835	5.970998E-007	0.0006331	8
	46	119	7.512019	159.5121	-675.8689	1	694.4371	-76.7206	5.707053E-007	0.0006502	8
	47	122	5.978954	194.5544	-827.0966	1	849.6706	-76.76319	4.764645E-007	0.0006358	8
	48	125	4.734848	240.2628	-1015.371	1	1043.41	-76.68721	5.408895E-007	0.0006567	8
	49	128	3.75601	298.375	-1240.662	1	1276.037	-76.47736	4.461195E-007	0.0006201	8
	50	132	3.004808	368.7896	-1501.506	1	1546.133	-76.20057	5.267929E-007	0.0006075	8
	51	136	2.372217	460.3569	-1833.51	1	1890.42	-75.90556	5.051219E-007	0.0005925	8
	52	140	1.878005	575.9807	-2231.102	1	2304.25	-75.52459	4.89781E-007	0.000642	8
	53	145	1.512097	702.7818	-2670.883	1	2761.796	-75.25809	5.00335E-007	0.0005276	8
	54	150	1.201923	859.0532	-3233.374	1	3345.546	-75.1212	4.969035E-007	0.0006588	8
	55	156	0.956633	1039.346	-3905.221	1	4041.162	-75.09662	4.87993E-007	4.514495E-007	8
