EXPLAIN
TAG	EISPOT
TITLE	LABEL	Potentiostatic EIS	Test Identifier
DATE	LABEL	9/12/2020	Date
TIME	LABEL	13:57:39	Time
NOTES	NOTES	1	Notes...
	
PSTAT	PSTAT	REF3000-16137	Potentiostat
VDC	POTEN	0.00000E+000	T	DC Voltage (V)
FREQINIT	QUANT	3.00000E+005	Initial Freq. (Hz)
FREQFINAL	QUANT	1.00000E+000	Final Freq. (Hz)
PTSPERDEC	QUANT	1.00000E+001	Points/decade
VAC	QUANT	5.00000E+001	AC Voltage (mV rms)
AREA	QUANT	1.00000E+000	Sample Area (cm^2)
SPEED	SELECTOR	2	Optimize for:
ZGUESS	QUANT	1.00000E+003	Estimated Z (ohms)
EOC	QUANT	0	Open Circuit (V)
SEQUENCER	TOGGLE	TRUE	Run as Sequence
PSTATMODEL	IQUANT	5	Pstat Model
PSTATSECTION	LABEL	REF3000-16137	Pstat Section
PSTATSERIALNO	LABEL	16137	Pstat Serial Number
CTRLMODE	IQUANT	1	Control Mode
IESTAB	IQUANT	0	I/E Stability
CASPEED	IQUANT	1	Control Amp Speed
CONVENTION	IQUANT	1	Current Convention
ICHRANGE	IQUANT	2	Ich Range
ICHRANGEMODE	TOGGLE	F	Ich Auto Range
ICHOFFSETENABLE	TOGGLE	T	Ich Offset Enable
ICHOFFSET	QUANT	0	Ich Offset (V)
ICHFILTER	IQUANT	3	Ich Filter
VCHRANGE	IQUANT	2	Vch Range
VCHRANGEMODE	TOGGLE	F	Vch Auto Range
VCHOFFSETENABLE	TOGGLE	T	Vch Offset Enable
VCHOFFSET	QUANT	0	Vch Offset (V)
VCHFILTER	IQUANT	3	Vch Filter
ACHRANGE	IQUANT	2	Ach Range
ACHOFFSETENABLE	TOGGLE	F	Ach Offset Enable
ACHOFFSET	QUANT	0	Ach Offset (V)
ACHFILTER	IQUANT	3	Ach Filter
IERANGELOWERLIMIT	IQUANT	2	I/E Range Lower Limit
IERANGEMODE	TOGGLE	F	I/E AutoRange
IERANGE	IQUANT	11	I/E Range
POSFEEDENABLE	TOGGLE	F	Positive Feedback IR Comp
POSFEEDRESISTANCE	QUANT	0	Positive Feedback Resistance (ohm)
ACHSELECT	IQUANT	0	Ach Select
CABLEID	IQUANT	13	Cable ID
DCCALDATE	LABEL	7/31/2020	DC Calibration Date
ACCALDATE	LABEL	7/31/2020	AC Calibration Date
THERMOSELECT	IQUANT	1	Thermo Select
FRAMEWORKVERSION	QUANT	6.33	Framework Version
INSTRUMENTVERSION	LABEL	3.50	Instrument Version
COMPLIANCEVOLTAGE	IQUANT	0	Compliance Voltage
ZCURVE	TABLE
	Pt	Time	Freq	Zreal	Zimag	Zsig	Zmod	Zphz	Idc	Vdc	IERange
	#	s	Hz	ohm	ohm	V	ohm	°	A	V	#
	0	10	300046.9	3.915357	2.245682	1	4.513659	29.83675	7.757565E-005	-0.0002551	10
	1	13	238359.4	3.878526	1.788489	1	4.271025	24.75566	8.394606E-006	-0.0003585	10
	2	16	189328.1	3.864495	1.416593	1	4.115952	20.13123	-1.945549E-005	-8.946813E-005	10
	3	19	150421.9	3.847262	1.109393	1	4.00402	16.0854	-5.09194E-005	0.000219	10
	4	21	119484.4	3.850554	0.8596133	1	3.945339	12.58459	2.2416E-005	0.0003192	10
	5	24	94921.88	3.851419	0.6688297	1	3.909061	9.85162	1.52323E-005	0.0003989	10
	6	26	75421.88	3.852555	0.4946077	1	3.884176	7.31586	1.463852E-005	0.0004244	10
	7	29	59859.37	3.856436	0.345622	1	3.871892	5.121287	-2.282016E-005	0.0005197	10
	8	31	47578.12	3.862402	0.2161413	1	3.868445	3.202951	2.245546E-005	0.0005449	10
	9	34	37828.12	3.871131	0.1003338	1	3.872431	1.484686	-3.125385E-007	0.0005773	10
	10	37	30046.88	3.880703	-0.0100956	1	3.880716	-0.1490532	-2.633934E-005	0.0006639	10
	11	39	23859.38	3.892006	-0.1193422	1	3.893836	-1.756334	-2.966718E-005	0.0006818	10
	12	41	18984.38	3.90463	-0.2311707	1	3.911467	-3.388198	-1.414109E-005	0.0006263	10
	13	44	15046.87	3.919536	-0.3546156	1	3.935545	-5.169695	3.865251E-006	0.0006031	10
	14	46	11953.13	3.937516	-0.4922935	1	3.968172	-7.126506	-1.947426E-005	0.0007296	10
	15	48	9515.62	3.956903	-0.6503518	1	4.009992	-9.333617	1.922026E-005	0.0006177	10
	16	51	7546.875	3.982479	-0.8408751	1	4.070283	-11.92252	6.998567E-006	0.0006242	10
	17	53	5928.309	4.013952	-1.081682	1	4.157144	-15.08183	-4.57395E-006	0.0006621	10
	18	55	4733.456	4.050737	-1.353812	1	4.27098	-18.48033	1.056778E-005	0.0006189	10
	19	58	3796.875	4.094522	-1.677942	1	4.424997	-22.28391	-1.913603E-005	0.0006572	10
	20	60	2987.132	4.155063	-2.108975	1	4.659649	-26.91087	1.577673E-005	0.0006205	10
	21	62	2390.625	4.225571	-2.600517	1	4.961667	-31.60913	1.846951E-005	0.0006209	10
	22	64	1884.191	4.316759	-3.25003	1	5.403435	-36.9756	-2.473793E-005	0.0006683	10
	23	67	1516.544	4.419806	-3.975524	1	5.944701	-41.97073	1.320974E-005	0.0006517	10
	24	69	1193.986	4.562502	-4.956294	1	6.736562	-47.36897	1.042469E-005	0.0006205	10
	25	72	946.5144	4.736213	-6.137512	1	7.752469	-52.34325	1.105601E-005	0.0006385	10
	26	74	751.7689	4.948842	-7.584129	1	9.055941	-56.8745	1.259636E-005	0.000646	10
	27	76	597.4265	5.214531	-9.360198	1	10.71469	-60.87798	4.372797E-006	0.0006529	10
	28	79	477.4305	5.546153	-11.49263	1	12.76089	-64.2388	-6.484875E-006	0.0007066	10
	29	81	376.6741	5.985869	-14.27332	1	15.47767	-67.24805	-2.410591E-006	0.0006526	10
	30	83	298.2954	6.540696	-17.66057	1	18.83285	-69.67759	-2.927054E-006	0.0006591	10
	31	85	237.7717	7.229761	-21.71158	1	22.88367	-71.5827	-2.880322E-006	0.0006549	10
	32	88	189.0121	8.126224	-26.74202	1	27.94944	-73.0973	-2.70524E-006	0.0006543	10
	33	90	150.2404	9.283446	-32.92214	1	34.20599	-74.25251	-2.708397E-006	0.0006569	10
	34	93	119.1737	10.79803	-40.55976	1	41.97251	-75.09219	-2.214606E-006	0.0006558	10
	35	95	95.0169	12.69869	-49.61702	1	51.21626	-75.64421	9.795921E-007	5.900934E-005	9
	36	98	75.60484	15.19391	-60.78677	1	62.65689	-75.96622	8.632891E-007	5.776752E-005	9
	37	100	54.50582	20.06314	-81.007	1	83.45457	-76.08938	9.144392E-007	5.297429E-005	9
	38	103	45.95588	23.37124	-93.94794	1	96.8113	-76.03021	1.089756E-006	6.003307E-005	9
	39	105	37.20238	28.31908	-112.5836	1	116.0907	-75.88084	1.074094E-006	5.780835E-005	9
	40	107	30.04808	34.47336	-134.9272	1	139.2615	-75.66777	9.692204E-007	5.227138E-005	9
	41	110	23.91582	42.4527	-163.307	1	168.7347	-75.42812	1.003199E-006	5.122828E-005	9
	42	112	18.60119	53.21381	-201.2171	1	208.1347	-75.18671	1.020778E-006	5.787697E-005	9
	43	114	15.02404	64.02306	-239.8153	1	248.2143	-75.05245	1.052806E-006	6.792883E-005	9
	44	117	12.01923	77.23216	-288.0388	1	298.2133	-74.99028	1.210733E-006	6.436089E-005	9
	45	119	9.450605	93.56654	-350.7907	1	363.0549	-75.06518	1.080917E-006	4.957633E-005	9
	46	122	7.512019	110.8058	-422.0181	1	436.3223	-75.28838	4.466395E-007	0.0006289	8
	47	124	5.978954	130.3791	-509.8291	1	526.2361	-75.65514	4.840356E-007	0.0006343	8
	48	127	4.734848	153.3304	-620.4337	1	639.0995	-76.11839	4.696656E-007	0.000656	8
	49	131	3.75601	178.5648	-756.3588	1	777.1512	-76.71657	4.414295E-007	0.000624	8
	50	134	3.004808	207.1785	-917.7072	1	940.8025	-77.27836	4.358802E-007	0.0006696	8
	51	138	2.372217	243.9588	-1131.197	1	1157.205	-77.82975	4.321135E-007	0.0007145	8
	52	142	1.878005	286.8727	-1393.861	1	1423.076	-78.37025	3.777812E-007	0.0006639	8
	53	147	1.512097	338.849	-1690.047	1	1723.681	-78.6627	4.726949E-007	0.0006741	8
	54	152	1.201923	407.042	-2086.812	1	2126.139	-78.96278	4.254172E-007	0.000604	8
	55	158	0.956633	497.0226	-2569.371	1	2617.002	-79.05185	3.981175E-007	1.391278E-006	8
