EXPLAIN
TAG	EISPOT
TITLE	LABEL	Potentiostatic EIS	Test Identifier
DATE	LABEL	9/12/2020	Date
TIME	LABEL	14:33:44	Time
NOTES	NOTES	1	Notes...
	
PSTAT	PSTAT	REF3000-16137	Potentiostat
VDC	POTEN	0.00000E+000	T	DC Voltage (V)
FREQINIT	QUANT	3.00000E+005	Initial Freq. (Hz)
FREQFINAL	QUANT	1.00000E+000	Final Freq. (Hz)
PTSPERDEC	QUANT	1.00000E+001	Points/decade
VAC	QUANT	5.00000E+001	AC Voltage (mV rms)
AREA	QUANT	1.00000E+000	Sample Area (cm^2)
SPEED	SELECTOR	2	Optimize for:
ZGUESS	QUANT	1.00000E+003	Estimated Z (ohms)
EOC	QUANT	0	Open Circuit (V)
SEQUENCER	TOGGLE	TRUE	Run as Sequence
PSTATMODEL	IQUANT	5	Pstat Model
PSTATSECTION	LABEL	REF3000-16137	Pstat Section
PSTATSERIALNO	LABEL	16137	Pstat Serial Number
CTRLMODE	IQUANT	1	Control Mode
IESTAB	IQUANT	0	I/E Stability
CASPEED	IQUANT	1	Control Amp Speed
CONVENTION	IQUANT	1	Current Convention
ICHRANGE	IQUANT	2	Ich Range
ICHRANGEMODE	TOGGLE	F	Ich Auto Range
ICHOFFSETENABLE	TOGGLE	T	Ich Offset Enable
ICHOFFSET	QUANT	0	Ich Offset (V)
ICHFILTER	IQUANT	3	Ich Filter
VCHRANGE	IQUANT	2	Vch Range
VCHRANGEMODE	TOGGLE	F	Vch Auto Range
VCHOFFSETENABLE	TOGGLE	T	Vch Offset Enable
VCHOFFSET	QUANT	0	Vch Offset (V)
VCHFILTER	IQUANT	3	Vch Filter
ACHRANGE	IQUANT	2	Ach Range
ACHOFFSETENABLE	TOGGLE	F	Ach Offset Enable
ACHOFFSET	QUANT	0	Ach Offset (V)
ACHFILTER	IQUANT	3	Ach Filter
IERANGELOWERLIMIT	IQUANT	2	I/E Range Lower Limit
IERANGEMODE	TOGGLE	F	I/E AutoRange
IERANGE	IQUANT	11	I/E Range
POSFEEDENABLE	TOGGLE	F	Positive Feedback IR Comp
POSFEEDRESISTANCE	QUANT	0	Positive Feedback Resistance (ohm)
ACHSELECT	IQUANT	0	Ach Select
CABLEID	IQUANT	13	Cable ID
DCCALDATE	LABEL	7/31/2020	DC Calibration Date
ACCALDATE	LABEL	7/31/2020	AC Calibration Date
THERMOSELECT	IQUANT	1	Thermo Select
FRAMEWORKVERSION	QUANT	6.33	Framework Version
INSTRUMENTVERSION	LABEL	3.50	Instrument Version
COMPLIANCEVOLTAGE	IQUANT	0	Compliance Voltage
ZCURVE	TABLE
	Pt	Time	Freq	Zreal	Zimag	Zsig	Zmod	Zphz	Idc	Vdc	IERange
	#	s	Hz	ohm	ohm	V	ohm	°	A	V	#
	0	7	300046.9	37.88597	2.30231	1	37.95586	3.477558	1.634514E-005	-0.0009717	9
	1	10	238359.4	38.09669	1.845259	1	38.14136	2.773023	-3.631065E-005	0.0001465	9
	2	14	189328.1	38.2932	1.448798	1	38.3206	2.166714	1.115774E-005	2.351641E-005	9
	3	16	150421.9	38.5033	1.083084	1	38.51853	1.611285	-5.264673E-005	0.001333	9
	4	19	119484.4	38.67041	0.8556696	1	38.67987	1.267591	9.440266E-006	0.0003582	9
	5	21	94921.88	38.87943	0.7639887	1	38.88693	1.125729	1.971831E-005	-0.0006439	9
	6	24	75421.88	39.02782	0.5394912	1	39.03155	0.7919632	-7.240047E-006	6.68961E-006	9
	7	26	59859.37	39.20701	0.3596295	1	39.20866	0.5255354	-1.409823E-005	0.0004626	9
	8	29	47578.12	39.38227	0.2039182	1	39.3828	0.2966703	-7.787296E-006	-4.271294E-006	9
	9	31	37828.12	39.56694	0.0495058	1	39.56697	0.0716879	9.967505E-006	5.486424E-005	9
	10	34	30046.88	39.76032	-0.0984188	1	39.76044	-0.1418241	9.988993E-006	-0.0004875	9
	11	36	23859.38	39.94725	-0.2355092	1	39.94795	-0.3377836	2.538739E-006	0.0002276	9
	12	39	18984.38	40.13515	-0.3788964	1	40.13694	-0.5408853	1.746916E-005	-0.0003535	9
	13	41	15046.87	40.3114	-0.5336319	1	40.31493	-0.7584224	8.483881E-006	-0.0004067	9
	14	43	11953.13	40.49163	-0.7139691	1	40.49793	-1.010164	1.030592E-005	7.10438E-005	9
	15	46	9515.62	40.69551	-0.9216835	1	40.70595	-1.297429	2.661229E-006	-0.0002773	9
	16	48	7546.875	40.88683	-1.170959	1	40.90359	-1.640447	1.499156E-005	-0.0001446	9
	17	50	5928.309	41.10297	-1.49178	1	41.13003	-2.078564	2.631859E-006	0.0002974	9
	18	52	4733.456	41.3156	-1.85492	1	41.35722	-2.570646	-1.211499E-005	0.0005849	9
	19	55	3796.875	41.53115	-2.286184	1	41.59403	-3.150806	-7.958611E-006	0.0005924	9
	20	57	2987.132	41.76849	-2.874738	1	41.8673	-3.937202	1.492758E-005	-0.0001267	9
	21	59	2390.625	42.01738	-3.550569	1	42.16713	-4.830155	-8.577693E-006	0.000525	9
	22	62	1884.191	42.30599	-4.437106	1	42.53804	-5.987364	-1.505701E-005	0.0004844	9
	23	64	1516.544	42.57334	-5.431835	1	42.91846	-7.270953	3.148925E-006	-0.000297	9
	24	66	1193.986	42.91879	-6.80194	1	43.45444	-9.005564	9.21422E-006	8.056382E-005	9
	25	69	946.5144	43.28898	-8.470055	1	44.10983	-11.0708	1.685384E-005	-0.0004923	9
	26	71	751.7689	43.70856	-10.47289	1	44.94574	-13.47446	1.737879E-005	-0.000507	9
	27	73	597.4265	44.19546	-12.98941	1	46.06477	-16.3785	-1.216388E-005	0.0005993	9
	28	76	477.4305	44.74158	-16.01727	1	47.52222	-19.69712	1.392056E-006	6.239507E-005	9
	29	78	376.6741	45.42716	-19.96326	1	49.62014	-23.7234	1.402824E-006	5.708224E-005	9
	30	80	298.2954	46.24134	-24.7827	1	52.46374	-28.18875	1.463581E-006	5.475612E-005	9
	31	83	237.7717	47.21183	-30.56164	1	56.2403	-32.9162	1.433297E-006	5.407093E-005	9
	32	85	189.0121	48.40566	-37.76146	1	61.39248	-37.95795	1.375634E-006	5.468353E-005	9
	33	87	150.2404	49.86309	-46.62793	1	68.26779	-43.0797	1.379797E-006	5.647036E-005	9
	34	90	119.1737	51.6683	-57.65767	1	77.42107	-48.13578	1.415959E-006	5.805241E-005	9
	35	92	95.0169	53.84362	-70.91919	1	89.04306	-52.79333	1.376664E-006	5.32955E-005	9
	36	95	75.60484	56.54271	-87.3603	1	104.062	-57.08761	1.350357E-006	5.756427E-005	9
	37	97	54.50582	61.43442	-117.6539	1	132.7276	-62.42814	1.431487E-006	5.957594E-005	9
	38	100	45.95588	64.74565	-137.4321	1	151.9197	-64.77441	1.48277E-006	6.215784E-005	9
	39	102	37.20238	69.57124	-166.5133	1	180.4628	-67.32425	1.453945E-006	5.60116E-005	9
	40	105	30.04808	75.54874	-202.1817	1	215.8357	-69.51091	1.317238E-006	6.078034E-005	9
	41	107	23.91582	83.47578	-248.73	1	262.364	-71.44784	1.30427E-006	5.508746E-005	9
	42	109	18.60119	94.53151	-312.4352	1	326.4229	-73.16609	1.560068E-006	5.850173E-005	9
	43	112	15.02404	106.5254	-379.0762	1	393.7593	-74.30394	1.318706E-006	5.003846E-005	9
	44	114	12.01923	121.8084	-461.7771	1	477.5724	-75.22301	4.137772E-007	0.0006297	8
	45	116	9.450605	143.6321	-573.442	1	591.1564	-75.93822	4.446609E-007	0.0006273	8
	46	119	7.512019	170.566	-704.789	1	725.1347	-76.39542	4.900285E-007	0.0006323	8
	47	122	5.978954	204.7395	-863.5092	1	887.4493	-76.66138	4.916947E-007	0.0006353	8
	48	125	4.734848	250.3472	-1061.857	1	1090.969	-76.73399	4.724408E-007	0.0006605	8
	49	128	3.75601	308.041	-1301.519	1	1337.475	-76.68436	3.88473E-007	0.0006222	8
	50	131	3.004808	378.2804	-1579.699	1	1624.36	-76.53333	4.20364E-007	0.0006421	8
	51	135	2.372217	475.1926	-1934.324	1	1991.837	-76.19785	4.345497E-007	0.0006805	8
	52	139	1.878005	591.7272	-2364.831	1	2437.738	-75.95191	3.980329E-007	0.0006235	8
	53	144	1.512097	720.7056	-2835.523	1	2925.68	-75.7391	4.403166E-007	0.0005819	8
	54	149	1.201923	896.2665	-3442.613	1	3557.37	-75.40728	4.08309E-007	0.0006262	8
	55	156	0.956633	1101.671	-4168.357	1	4311.483	-75.19559	2.56911E-008	-3.104347E-005	7
