EXPLAIN
TAG	EISPOT
TITLE	LABEL	Potentiostatic EIS	Test Identifier
DATE	LABEL	9/12/2020	Date
TIME	LABEL	14:14:24	Time
NOTES	NOTES	1	Notes...
	
PSTAT	PSTAT	REF3000-16137	Potentiostat
VDC	POTEN	0.00000E+000	T	DC Voltage (V)
FREQINIT	QUANT	3.00000E+005	Initial Freq. (Hz)
FREQFINAL	QUANT	1.00000E+000	Final Freq. (Hz)
PTSPERDEC	QUANT	1.00000E+001	Points/decade
VAC	QUANT	5.00000E+001	AC Voltage (mV rms)
AREA	QUANT	1.00000E+000	Sample Area (cm^2)
SPEED	SELECTOR	2	Optimize for:
ZGUESS	QUANT	1.00000E+003	Estimated Z (ohms)
EOC	QUANT	0	Open Circuit (V)
SEQUENCER	TOGGLE	TRUE	Run as Sequence
PSTATMODEL	IQUANT	5	Pstat Model
PSTATSECTION	LABEL	REF3000-16137	Pstat Section
PSTATSERIALNO	LABEL	16137	Pstat Serial Number
CTRLMODE	IQUANT	1	Control Mode
IESTAB	IQUANT	0	I/E Stability
CASPEED	IQUANT	1	Control Amp Speed
CONVENTION	IQUANT	1	Current Convention
ICHRANGE	IQUANT	2	Ich Range
ICHRANGEMODE	TOGGLE	F	Ich Auto Range
ICHOFFSETENABLE	TOGGLE	T	Ich Offset Enable
ICHOFFSET	QUANT	0	Ich Offset (V)
ICHFILTER	IQUANT	3	Ich Filter
VCHRANGE	IQUANT	2	Vch Range
VCHRANGEMODE	TOGGLE	F	Vch Auto Range
VCHOFFSETENABLE	TOGGLE	T	Vch Offset Enable
VCHOFFSET	QUANT	0	Vch Offset (V)
VCHFILTER	IQUANT	3	Vch Filter
ACHRANGE	IQUANT	2	Ach Range
ACHOFFSETENABLE	TOGGLE	F	Ach Offset Enable
ACHOFFSET	QUANT	0	Ach Offset (V)
ACHFILTER	IQUANT	3	Ach Filter
IERANGELOWERLIMIT	IQUANT	2	I/E Range Lower Limit
IERANGEMODE	TOGGLE	F	I/E AutoRange
IERANGE	IQUANT	11	I/E Range
POSFEEDENABLE	TOGGLE	F	Positive Feedback IR Comp
POSFEEDRESISTANCE	QUANT	0	Positive Feedback Resistance (ohm)
ACHSELECT	IQUANT	0	Ach Select
CABLEID	IQUANT	13	Cable ID
DCCALDATE	LABEL	7/31/2020	DC Calibration Date
ACCALDATE	LABEL	7/31/2020	AC Calibration Date
THERMOSELECT	IQUANT	1	Thermo Select
FRAMEWORKVERSION	QUANT	6.33	Framework Version
INSTRUMENTVERSION	LABEL	3.50	Instrument Version
COMPLIANCEVOLTAGE	IQUANT	0	Compliance Voltage
ZCURVE	TABLE
	Pt	Time	Freq	Zreal	Zimag	Zsig	Zmod	Zphz	Idc	Vdc	IERange
	#	s	Hz	ohm	ohm	V	ohm	°	A	V	#
	0	8	300046.9	8.100657	2.22194	1	8.39986	15.3385	-8.834916E-005	0.000157	10
	1	11	238359.4	8.094926	1.748086	1	8.281524	12.18581	2.453541E-005	3.307639E-005	10
	2	14	189328.1	8.092331	1.379537	1	8.209077	9.67447	5.616628E-005	0.0002042	10
	3	17	150421.9	8.095278	1.085535	1	8.167736	7.637507	2.112884E-005	0.0003984	10
	4	19	119484.4	8.113104	0.8316857	1	8.155622	5.853026	1.640477E-005	0.0004777	10
	5	22	94921.88	8.131083	0.6542739	1	8.157364	4.600438	2.318627E-005	0.000564	10
	6	24	75421.88	8.146498	0.4741204	1	8.160283	3.330816	2.417133E-005	0.0005595	10
	7	27	59859.37	8.16675	0.3189628	1	8.172976	2.236623	-4.747792E-006	0.0005669	10
	8	29	47578.12	8.190963	0.1853049	1	8.193059	1.295986	-2.075667E-005	0.0006726	10
	9	32	37828.12	8.215366	0.0649399	1	8.215623	0.4528955	-1.331783E-005	0.0006019	10
	10	34	30046.88	8.241387	-0.0489831	1	8.241533	-0.3405367	-1.254757E-005	0.0006141	10
	11	37	23859.38	8.267051	-0.1631909	1	8.268661	-1.130867	2.234723E-005	0.0006109	10
	12	39	18984.38	8.294839	-0.2829207	1	8.299663	-1.95349	-1.894395E-005	0.0006432	10
	13	41	15046.87	8.325362	-0.417497	1	8.335824	-2.870842	2.2673E-005	0.0006153	10
	14	44	11953.13	8.358291	-0.568083	1	8.377574	-3.888209	-2.270535E-005	0.0007071	10
	15	46	9515.62	8.394123	-0.742857	1	8.426929	-5.057345	-1.945562E-005	0.0006675	10
	16	48	7546.875	8.434579	-0.955309	1	8.488506	-6.461843	1.275193E-005	0.0005982	10
	17	51	5928.309	8.482226	-1.225163	1	8.570251	-8.218894	1.511969E-005	0.0006475	10
	18	53	4733.456	8.535311	-1.531901	1	8.671693	-10.17501	-2.261244E-005	0.000674	10
	19	55	3796.875	8.594596	-1.897951	1	8.801664	-12.45281	-2.541218E-005	0.0006472	10
	20	58	2987.132	8.672153	-2.385247	1	8.994201	-15.37873	-2.255854E-005	0.0006802	10
	21	60	2390.625	8.758654	-2.941421	1	9.23937	-18.56361	-4.217826E-006	0.0006197	10
	22	62	1884.191	8.868742	-3.6825	1	9.60288	-22.54932	-2.623638E-005	0.0006854	10
	23	64	1516.544	8.992741	-4.50706	1	10.05898	-26.61951	1.128946E-005	0.0005994	10
	24	67	1193.986	9.159994	-5.628564	1	10.7511	-31.56958	1.69544E-005	0.0006037	10
	25	69	946.5144	9.358873	-6.983233	1	11.67707	-36.72889	-2.723638E-005	0.0006983	10
	26	72	751.7689	9.60895	-8.630203	1	12.91558	-41.92835	2.221611E-005	0.000619	10
	27	74	597.4265	9.91061	-10.65895	1	14.55449	-47.08356	-2.662704E-005	0.0006718	10
	28	76	477.4305	10.27954	-13.09452	1	16.64738	-51.86716	-2.370663E-006	0.0006581	10
	29	79	376.6741	10.76227	-16.26715	1	19.50503	-56.51157	-2.932265E-006	0.0006531	10
	30	81	298.2954	11.35432	-20.13599	1	23.11663	-60.58213	-2.592082E-006	0.0006575	10
	31	83	237.7717	12.07406	-24.77009	1	27.55613	-64.01331	-2.398218E-006	0.0006535	10
	32	86	189.0121	12.98401	-30.54752	1	33.1924	-66.97242	-2.590639E-006	0.000657	10
	33	88	150.2404	14.12612	-37.66095	1	40.22306	-69.43961	-2.531016E-006	0.0006524	10
	34	91	119.1737	15.5673	-46.45956	1	48.99828	-71.47543	1.277007E-006	5.986893E-005	9
	35	93	95.0169	17.38157	-57.08777	1	59.67523	-73.06603	1.230691E-006	5.850716E-005	9
	36	95	75.60484	19.72063	-70.24886	1	72.96441	-74.31923	1.220448E-006	5.011898E-005	9
	37	98	54.50582	24.26376	-94.42435	1	97.492	-75.58878	1.206015E-006	5.186121E-005	9
	38	100	45.95588	27.39557	-110.1027	1	113.4598	-76.0275	1.264274E-006	5.82203E-005	9
	39	103	37.20238	32.18491	-133.0358	1	136.8737	-76.39993	1.176332E-006	6.240814E-005	9
	40	105	30.04808	38.34418	-160.9133	1	165.4187	-76.59689	1.283189E-006	5.285115E-005	9
	41	108	23.91582	46.69028	-196.7142	1	202.1793	-76.64787	1.168967E-006	5.843132E-005	9
	42	110	18.60119	58.72095	-245.029	1	251.967	-76.52328	1.100848E-006	5.811113E-005	9
	43	112	15.02404	71.67833	-294.6857	1	303.2779	-76.32906	1.508925E-006	6.712118E-005	9
	44	114	12.01923	88.42679	-356.3523	1	367.1597	-76.06387	1.471884E-006	5.578023E-005	9
	45	117	9.450605	110.3342	-434.403	1	448.1959	-75.74877	6.217655E-007	0.0006236	8
	46	119	7.512019	136.2924	-525.9156	1	543.2889	-75.47128	6.846607E-007	0.0006865	8
	47	122	5.978954	166.604	-634.9283	1	656.4227	-75.29716	6.718806E-007	0.0006313	8
	48	125	4.734848	203.69	-769.2353	1	795.7465	-75.16872	6.689905E-007	0.0006537	8
	49	128	3.75601	245.8863	-930.367	1	962.311	-75.19582	6.012848E-007	0.0006178	8
	50	132	3.004808	292.3462	-1117.485	1	1155.093	-75.33937	6.465243E-007	0.0006329	8
	51	135	2.372217	349.9076	-1358.06	1	1402.413	-75.55183	6.510332E-007	0.0006707	8
	52	140	1.878005	412.3861	-1655.646	1	1706.232	-76.01345	5.954907E-007	0.0006348	8
	53	144	1.512097	474.872	-1990.158	1	2046.028	-76.57958	6.426605E-007	0.0005552	8
	54	150	1.201923	557.7504	-2430.541	1	2493.715	-77.07576	6.043502E-007	0.0006324	8
	55	156	0.956633	650.4504	-2969.004	1	3039.419	-77.64285	6.106945E-007	-2.730301E-006	8
