EXPLAIN
TAG	EISPOT
TITLE	LABEL	Potentiostatic EIS	Test Identifier
DATE	LABEL	9/12/2020	Date
TIME	LABEL	13:54:51	Time
NOTES	NOTES	1	Notes...
	
PSTAT	PSTAT	REF3000-16137	Potentiostat
VDC	POTEN	0.00000E+000	T	DC Voltage (V)
FREQINIT	QUANT	3.00000E+005	Initial Freq. (Hz)
FREQFINAL	QUANT	1.00000E+000	Final Freq. (Hz)
PTSPERDEC	QUANT	1.00000E+001	Points/decade
VAC	QUANT	5.00000E+001	AC Voltage (mV rms)
AREA	QUANT	1.00000E+000	Sample Area (cm^2)
SPEED	SELECTOR	2	Optimize for:
ZGUESS	QUANT	1.00000E+003	Estimated Z (ohms)
EOC	QUANT	0	Open Circuit (V)
SEQUENCER	TOGGLE	TRUE	Run as Sequence
PSTATMODEL	IQUANT	5	Pstat Model
PSTATSECTION	LABEL	REF3000-16137	Pstat Section
PSTATSERIALNO	LABEL	16137	Pstat Serial Number
CTRLMODE	IQUANT	1	Control Mode
IESTAB	IQUANT	0	I/E Stability
CASPEED	IQUANT	1	Control Amp Speed
CONVENTION	IQUANT	1	Current Convention
ICHRANGE	IQUANT	2	Ich Range
ICHRANGEMODE	TOGGLE	F	Ich Auto Range
ICHOFFSETENABLE	TOGGLE	T	Ich Offset Enable
ICHOFFSET	QUANT	0	Ich Offset (V)
ICHFILTER	IQUANT	3	Ich Filter
VCHRANGE	IQUANT	2	Vch Range
VCHRANGEMODE	TOGGLE	F	Vch Auto Range
VCHOFFSETENABLE	TOGGLE	T	Vch Offset Enable
VCHOFFSET	QUANT	0	Vch Offset (V)
VCHFILTER	IQUANT	3	Vch Filter
ACHRANGE	IQUANT	2	Ach Range
ACHOFFSETENABLE	TOGGLE	F	Ach Offset Enable
ACHOFFSET	QUANT	0	Ach Offset (V)
ACHFILTER	IQUANT	3	Ach Filter
IERANGELOWERLIMIT	IQUANT	2	I/E Range Lower Limit
IERANGEMODE	TOGGLE	F	I/E AutoRange
IERANGE	IQUANT	11	I/E Range
POSFEEDENABLE	TOGGLE	F	Positive Feedback IR Comp
POSFEEDRESISTANCE	QUANT	0	Positive Feedback Resistance (ohm)
ACHSELECT	IQUANT	0	Ach Select
CABLEID	IQUANT	13	Cable ID
DCCALDATE	LABEL	7/31/2020	DC Calibration Date
ACCALDATE	LABEL	7/31/2020	AC Calibration Date
THERMOSELECT	IQUANT	1	Thermo Select
FRAMEWORKVERSION	QUANT	6.33	Framework Version
INSTRUMENTVERSION	LABEL	3.50	Instrument Version
COMPLIANCEVOLTAGE	IQUANT	0	Compliance Voltage
ZCURVE	TABLE
	Pt	Time	Freq	Zreal	Zimag	Zsig	Zmod	Zphz	Idc	Vdc	IERange
	#	s	Hz	ohm	ohm	V	ohm	°	A	V	#
	0	10	300046.9	3.583858	2.274634	1	4.244761	32.40283	-0.0001148	-9.113413E-005	10
	1	13	238359.4	3.558866	1.791353	1	3.984278	26.71837	2.412207E-005	-0.0004179	10
	2	16	189328.1	3.541649	1.42291	1	3.816799	21.88853	-0.0001014	-0.0001415	10
	3	19	150421.9	3.539611	1.107405	1	3.708799	17.37285	1.447938E-005	0.0001316	10
	4	22	119484.4	3.528397	0.8629794	1	3.632399	13.74366	4.022566E-005	0.0003728	10
	5	24	94921.88	3.527262	0.6693576	1	3.590211	10.74508	4.285586E-005	0.0003705	10
	6	27	75421.88	3.528846	0.4963603	1	3.563583	8.006582	1.81684E-005	0.0003969	10
	7	29	59859.37	3.532341	0.3477488	1	3.549418	5.622487	2.982923E-005	0.0004959	10
	8	32	47578.12	3.537853	0.2193655	1	3.544647	3.548097	5.52173E-006	0.0005328	10
	9	34	37828.12	3.544528	0.1039644	1	3.546053	1.680058	2.29879E-005	0.0005828	10
	10	37	30046.88	3.553383	-0.0051505	1	3.553387	-0.0830474	-1.322087E-005	0.000648	10
	11	39	23859.38	3.562909	-0.1137669	1	3.564725	-1.828885	2.056625E-005	0.0005881	10
	12	42	18984.38	3.574692	-0.2244302	1	3.581731	-3.59249	1.784927E-005	0.0006054	10
	13	44	15046.87	3.588566	-0.3463581	1	3.605242	-5.512949	1.654312E-005	0.0006261	10
	14	46	11953.13	3.60492	-0.4822908	1	3.637039	-7.620172	-2.635493E-005	0.0006538	10
	15	49	9515.62	3.624616	-0.638464	1	3.680418	-9.98998	1.883745E-005	0.0006254	10
	16	51	7546.875	3.64867	-0.8263595	1	3.741078	-12.7612	-8.4869E-006	0.000619	10
	17	53	5928.309	3.679325	-1.062161	1	3.829572	-16.10257	-4.002884E-006	0.0006264	10
	18	55	4733.456	3.714731	-1.330047	1	3.945663	-19.69973	-5.637884E-006	0.0006533	10
	19	58	3796.875	3.757725	-1.64888	1	4.103571	-23.69174	-8.881379E-006	0.0006195	10
	20	60	2987.132	3.815836	-2.072276	1	4.342227	-28.50517	-1.678539E-005	0.0006485	10
	21	62	2390.625	3.882543	-2.555835	1	4.648272	-33.35647	-9.431328E-006	0.0006407	10
	22	65	1884.191	3.971578	-3.1916	1	5.09507	-38.78571	1.988341E-005	0.0006432	10
	23	67	1516.544	4.073764	-3.903929	1	5.642359	-43.78043	-2.081012E-005	0.0006717	10
	24	69	1193.986	4.214323	-4.86783	1	6.438656	-49.11563	-2.413062E-005	0.0006605	10
	25	72	946.5144	4.382093	-6.029474	1	7.453677	-53.99115	2.034664E-005	0.0006462	10
	26	74	751.7689	4.596125	-7.443509	1	8.748154	-58.30602	-1.711478E-005	0.0006545	10
	27	76	597.4265	4.864501	-9.189672	1	10.39776	-62.10575	7.933471E-006	0.0006154	10
	28	79	477.4305	5.186826	-11.2814	1	12.41665	-65.30854	-3.311523E-006	0.0006581	10
	29	81	376.6741	5.625223	-14.00843	1	15.09567	-68.12159	-3.482515E-006	0.000655	10
	30	83	298.2954	6.179239	-17.33042	1	18.39909	-70.37608	-2.931399E-006	0.0006623	10
	31	86	237.7717	6.871225	-21.29946	1	22.38036	-72.12025	-2.83511E-006	0.0006564	10
	32	88	189.0121	7.772938	-26.22589	1	27.35353	-73.49101	-3.221798E-006	0.0006639	10
	33	91	150.2404	8.942163	-32.26794	1	33.48406	-74.51077	-2.409861E-006	0.0006516	10
	34	93	119.1737	10.47094	-39.7274	1	41.08414	-75.23438	-2.835548E-006	0.0006531	10
	35	95	95.0169	12.38934	-48.55755	1	50.11318	-75.68652	9.366844E-007	5.375282E-005	9
	36	98	75.60484	14.90617	-59.42595	1	61.26694	-75.91868	7.954806E-007	5.093936E-005	9
	37	100	54.50582	19.80002	-79.05454	1	81.49639	-75.93894	7.529268E-007	4.321858E-005	9
	38	103	45.95588	23.09626	-91.57452	1	94.4422	-75.8445	1.081942E-006	5.6455E-005	9
	39	105	37.20238	28.00393	-109.589	1	113.1105	-75.66562	8.99694E-007	5.622644E-005	9
	40	108	30.04808	34.03593	-131.1595	1	135.5037	-75.45261	8.536034E-007	4.612565E-005	9
	41	110	23.91582	41.84911	-158.5835	1	164.0124	-75.21704	8.083728E-007	5.069721E-005	9
	42	112	18.60119	52.1646	-195.1142	1	201.967	-75.03181	8.141527E-007	5.272047E-005	9
	43	115	15.02404	62.56709	-232.4452	1	240.7185	-74.9348	1.083272E-006	5.529849E-005	9
	44	117	12.01923	75.02248	-279.0889	1	288.9965	-74.95388	1.133747E-006	5.234333E-005	9
	45	119	9.450605	90.34894	-339.9839	1	351.7841	-75.11791	1.083611E-006	4.412686E-005	9
	46	122	7.512019	106.4286	-409.0037	1	422.624	-75.41429	4.186996E-007	0.0006528	8
	47	125	5.978954	124.4658	-495.0137	1	510.4217	-75.88618	3.600296E-007	0.0006355	8
	48	128	4.734848	145.2337	-603.7028	1	620.9266	-76.47331	4.501402E-007	0.0006563	8
	49	131	3.75601	169.1432	-737.0517	1	756.2107	-77.0752	3.45255E-007	0.0006184	8
	50	134	3.004808	195.9798	-895.6678	1	916.8582	-77.65771	4.096461E-007	0.0006276	8
	51	138	2.372217	231.7519	-1103.993	1	1128.056	-78.14452	4.012425E-007	0.0006537	8
	52	142	1.878005	275.689	-1364.943	1	1392.506	-78.58112	3.268366E-007	0.0006263	8
	53	147	1.512097	323.8883	-1658.201	1	1689.536	-78.94785	4.065315E-007	0.0005695	8
	54	152	1.201923	397.2301	-2048.054	1	2086.221	-79.02349	3.126668E-007	0.000671	8
	55	159	0.956633	489.5519	-2521.042	1	2568.134	-79.01071	3.334141E-007	-8.549932E-006	8
