EXPLAIN
TAG	EISPOT
TITLE	LABEL	Potentiostatic EIS	Test Identifier
DATE	LABEL	9/12/2020	Date
TIME	LABEL	15:06:34	Time
NOTES	NOTES	1	Notes...
	
PSTAT	PSTAT	REF3000-16137	Potentiostat
VDC	POTEN	0.00000E+000	T	DC Voltage (V)
FREQINIT	QUANT	3.00000E+005	Initial Freq. (Hz)
FREQFINAL	QUANT	1.00000E+000	Final Freq. (Hz)
PTSPERDEC	QUANT	1.00000E+001	Points/decade
VAC	QUANT	5.00000E+001	AC Voltage (mV rms)
AREA	QUANT	1.00000E+000	Sample Area (cm^2)
SPEED	SELECTOR	2	Optimize for:
ZGUESS	QUANT	1.00000E+003	Estimated Z (ohms)
EOC	QUANT	0	Open Circuit (V)
SEQUENCER	TOGGLE	TRUE	Run as Sequence
PSTATMODEL	IQUANT	5	Pstat Model
PSTATSECTION	LABEL	REF3000-16137	Pstat Section
PSTATSERIALNO	LABEL	16137	Pstat Serial Number
CTRLMODE	IQUANT	1	Control Mode
IESTAB	IQUANT	0	I/E Stability
CASPEED	IQUANT	1	Control Amp Speed
CONVENTION	IQUANT	1	Current Convention
ICHRANGE	IQUANT	2	Ich Range
ICHRANGEMODE	TOGGLE	F	Ich Auto Range
ICHOFFSETENABLE	TOGGLE	T	Ich Offset Enable
ICHOFFSET	QUANT	0	Ich Offset (V)
ICHFILTER	IQUANT	3	Ich Filter
VCHRANGE	IQUANT	2	Vch Range
VCHRANGEMODE	TOGGLE	F	Vch Auto Range
VCHOFFSETENABLE	TOGGLE	T	Vch Offset Enable
VCHOFFSET	QUANT	0	Vch Offset (V)
VCHFILTER	IQUANT	3	Vch Filter
ACHRANGE	IQUANT	2	Ach Range
ACHOFFSETENABLE	TOGGLE	F	Ach Offset Enable
ACHOFFSET	QUANT	0	Ach Offset (V)
ACHFILTER	IQUANT	3	Ach Filter
IERANGELOWERLIMIT	IQUANT	2	I/E Range Lower Limit
IERANGEMODE	TOGGLE	F	I/E AutoRange
IERANGE	IQUANT	11	I/E Range
POSFEEDENABLE	TOGGLE	F	Positive Feedback IR Comp
POSFEEDRESISTANCE	QUANT	0	Positive Feedback Resistance (ohm)
ACHSELECT	IQUANT	0	Ach Select
CABLEID	IQUANT	13	Cable ID
DCCALDATE	LABEL	7/31/2020	DC Calibration Date
ACCALDATE	LABEL	7/31/2020	AC Calibration Date
THERMOSELECT	IQUANT	1	Thermo Select
FRAMEWORKVERSION	QUANT	6.33	Framework Version
INSTRUMENTVERSION	LABEL	3.50	Instrument Version
COMPLIANCEVOLTAGE	IQUANT	0	Compliance Voltage
ZCURVE	TABLE
	Pt	Time	Freq	Zreal	Zimag	Zsig	Zmod	Zphz	Idc	Vdc	IERange
	#	s	Hz	ohm	ohm	V	ohm	°	A	V	#
	0	14	300046.9	1254.415	-3426.177	1	3648.595	-69.89096	2.330228E-005	0.0008841	9
	1	28	238359.4	1733.242	-4184.056	1	4528.847	-67.49826	-3.263413E-007	-0.0020888	9
	2	42	189328.1	2266.379	-4775.709	1	5286.196	-64.61268	-9.231226E-005	0.0021609	9
	3	49	150421.9	3012.615	-5597.743	1	6356.932	-61.71157	1.953998E-005	-0.0021021	9
	4	58	119484.4	4429.045	-6195.921	1	7616.159	-54.44159	1.943518E-005	-0.0092459	8
	5	66	94921.88	5658.924	-6918.242	1	8937.868	-50.71781	-1.603474E-005	0.0007796	8
	6	74	75421.88	7059.923	-7544.778	1	10332.77	-46.90144	-1.129576E-005	0.0098301	8
	7	82	59859.37	9019.147	-8095.184	1	12119.28	-41.90973	-2.613629E-005	0.0076679	8
	8	90	47578.12	10617.33	-8281.91	1	13465.43	-37.95554	-1.599522E-005	0.0006828	8
	9	99	37828.12	12461.62	-8514.162	1	15092.48	-34.34208	8.645314E-006	0.0038885	8
	10	107	30046.88	15311.43	-7224.455	1	16930.23	-25.25953	1.354337E-006	-0.0188444	7
	11	114	23859.38	16697.5	-6842.632	1	18045.17	-22.28381	5.275362E-006	-0.025464	7
	12	118	18984.38	18060.03	-6209.833	1	19097.82	-18.97523	7.120304E-006	-0.0224053	7
	13	122	15046.87	19326.75	-5594.376	1	20120.14	-16.14377	2.586212E-007	0.0155933	7
	14	126	11953.13	20314.15	-4865.208	1	20888.64	-13.46856	-5.083894E-006	0.0249532	7
	15	131	9515.62	21219.65	-4293.849	1	21649.73	-11.43947	6.467043E-006	-0.0252032	7
	16	135	7546.875	22109.13	-3687.903	1	22414.6	-9.470007	3.376668E-006	-0.0230445	7
	17	139	5928.309	22935.28	-3151.582	1	23150.8	-7.824126	3.388616E-006	-0.0232848	7
	18	143	4733.456	23627.16	-2849.345	1	23798.35	-6.876444	-6.790253E-006	0.0218926	7
	19	148	3796.875	24404.4	-2322.887	1	24514.71	-5.437209	1.413784E-006	-0.0191013	7
	20	153	2987.132	25999.86	-2781.107	1	26148.18	-6.105498	2.316998E-005	-0.0029306	8
	21	160	2390.625	26577.91	-1450.891	1	26617.49	-3.124681	-1.559481E-006	0.0075262	8
	22	167	1884.191	27154.41	-1730.634	1	27209.5	-3.646703	-3.131645E-006	-0.0051895	7
	23	172	1516.544	28153.43	-2515.475	1	28265.58	-5.10575	-1.151197E-005	0.0100528	8
	24	179	1193.986	28792.33	-1405.651	1	28826.62	-2.794981	2.477317E-006	0.008449	7
	25	185	946.5144	28603.16	-1545.548	1	28644.88	-3.092923	-3.538641E-006	0.0244415	7
	26	188	751.7689	32196.41	321.6826	1	32198.02	0.5724378	-1.09845E-005	0.0100296	8
	27	193	597.4265	31318.46	-508.8056	1	31322.59	-0.9307561	-7.082592E-006	0.017772	7
	28	197	477.4305	31522.98	-622.4135	1	31529.12	-1.131144	-9.431627E-008	0.0006461	7
	29	200	376.6741	31911.91	-526.8013	1	31916.26	-0.9457518	-9.930162E-008	0.0006677	7
	30	203	298.2954	32320.92	-456.5147	1	32324.14	-0.8092167	-9.393045E-008	0.0005875	7
	31	205	237.7717	32714.07	-403.7474	1	32716.56	-0.7070917	-8.599122E-008	0.000567	7
	32	207	189.0121	33138.32	-364.0131	1	33140.32	-0.6293492	-8.825678E-008	0.0005842	7
	33	210	150.2404	33547.53	-334.4989	1	33549.2	-0.5712712	-9.117262E-008	0.0006349	7
	34	212	119.1737	33942.07	-321.0392	1	33943.59	-0.5419127	-9.393629E-008	0.0006056	7
	35	214	95.0169	34412.71	-325.8696	1	34414.25	-0.5425435	-1.003618E-007	0.0006301	7
	36	217	75.60484	34875.53	-326.7842	1	34877.06	-0.5368466	-8.295059E-008	0.000558	7
	37	220	54.50582	35315.07	-369.3698	1	35317	-0.5992501	-9.054231E-008	0.0006416	7
	38	222	45.95588	35796.34	-380.0227	1	35798.35	-0.6082433	-1.03535E-007	0.0006773	7
	39	224	37.20238	36233.56	-432.6288	1	36236.14	-0.6840793	-1.02117E-007	0.0005732	7
	40	227	30.04808	36696.37	-507.1578	1	36699.88	-0.791799	-1.015206E-007	0.0005809	7
	41	229	23.91582	37274.83	-560.8874	1	37279.05	-0.8620845	-1.960783E-008	0.0006175	6
	42	232	18.60119	37697.16	-693.6531	1	37703.55	-1.054162	-2.169322E-009	0.0006105	6
	43	234	15.02404	38143.58	-815.5249	1	38152.3	-1.22482	-2.800266E-009	0.0005843	6
	44	236	12.01923	38687.59	-961.607	1	38699.54	-1.423834	-3.395573E-008	0.0005984	6
	45	239	9.450605	39146.52	-1206.232	1	39165.09	-1.764911	9.545599E-009	0.0006581	6
	46	241	7.512019	39687.87	-1502.129	1	39716.29	-2.167528	1.649204E-008	0.0006399	6
	47	244	5.978954	40382.83	-1869.773	1	40426.09	-2.65097	1.235317E-008	0.0006831	6
	48	247	4.734848	41083.12	-2286.088	1	41146.68	-3.184964	6.260048E-009	0.0007355	6
	49	250	3.75601	41857.75	-2821.627	1	41952.74	-3.856469	-2.658262E-008	0.0006309	6
	50	254	3.004808	42773.12	-3541.962	1	42919.52	-4.733757	-4.245453E-008	0.000763	6
	51	257	2.372217	43782.13	-4211.013	1	43984.17	-5.493872	-3.164267E-009	0.0007092	6
	52	262	1.878005	44903.18	-5303.243	1	45215.26	-6.735656	-1.595004E-008	0.0006188	6
	53	266	1.512097	46252.32	-6536.701	1	46711.94	-8.044166	-2.22247E-008	0.0007416	6
	54	272	1.201923	47944.45	-7973.64	1	48602.98	-9.442435	-9.147743E-010	0.0006151	6
	55	278	0.956633	49983.09	-9957.48	1	50965.29	-11.26679	-3.678049E-008	5.643974E-006	6
