EXPLAIN
TAG	EISPOT
TITLE	LABEL	Potentiostatic EIS	Test Identifier
DATE	LABEL	9/12/2020	Date
TIME	LABEL	13:52:02	Time
NOTES	NOTES	1	Notes...
	
PSTAT	PSTAT	REF3000-16137	Potentiostat
VDC	POTEN	0.00000E+000	T	DC Voltage (V)
FREQINIT	QUANT	3.00000E+005	Initial Freq. (Hz)
FREQFINAL	QUANT	1.00000E+000	Final Freq. (Hz)
PTSPERDEC	QUANT	1.00000E+001	Points/decade
VAC	QUANT	5.00000E+001	AC Voltage (mV rms)
AREA	QUANT	1.00000E+000	Sample Area (cm^2)
SPEED	SELECTOR	2	Optimize for:
ZGUESS	QUANT	1.00000E+003	Estimated Z (ohms)
EOC	QUANT	0	Open Circuit (V)
SEQUENCER	TOGGLE	TRUE	Run as Sequence
PSTATMODEL	IQUANT	5	Pstat Model
PSTATSECTION	LABEL	REF3000-16137	Pstat Section
PSTATSERIALNO	LABEL	16137	Pstat Serial Number
CTRLMODE	IQUANT	1	Control Mode
IESTAB	IQUANT	0	I/E Stability
CASPEED	IQUANT	1	Control Amp Speed
CONVENTION	IQUANT	1	Current Convention
ICHRANGE	IQUANT	2	Ich Range
ICHRANGEMODE	TOGGLE	F	Ich Auto Range
ICHOFFSETENABLE	TOGGLE	T	Ich Offset Enable
ICHOFFSET	QUANT	0	Ich Offset (V)
ICHFILTER	IQUANT	3	Ich Filter
VCHRANGE	IQUANT	2	Vch Range
VCHRANGEMODE	TOGGLE	F	Vch Auto Range
VCHOFFSETENABLE	TOGGLE	T	Vch Offset Enable
VCHOFFSET	QUANT	0	Vch Offset (V)
VCHFILTER	IQUANT	3	Vch Filter
ACHRANGE	IQUANT	2	Ach Range
ACHOFFSETENABLE	TOGGLE	F	Ach Offset Enable
ACHOFFSET	QUANT	0	Ach Offset (V)
ACHFILTER	IQUANT	3	Ach Filter
IERANGELOWERLIMIT	IQUANT	2	I/E Range Lower Limit
IERANGEMODE	TOGGLE	F	I/E AutoRange
IERANGE	IQUANT	11	I/E Range
POSFEEDENABLE	TOGGLE	F	Positive Feedback IR Comp
POSFEEDRESISTANCE	QUANT	0	Positive Feedback Resistance (ohm)
ACHSELECT	IQUANT	0	Ach Select
CABLEID	IQUANT	13	Cable ID
DCCALDATE	LABEL	7/31/2020	DC Calibration Date
ACCALDATE	LABEL	7/31/2020	AC Calibration Date
THERMOSELECT	IQUANT	1	Thermo Select
FRAMEWORKVERSION	QUANT	6.33	Framework Version
INSTRUMENTVERSION	LABEL	3.50	Instrument Version
COMPLIANCEVOLTAGE	IQUANT	0	Compliance Voltage
ZCURVE	TABLE
	Pt	Time	Freq	Zreal	Zimag	Zsig	Zmod	Zphz	Idc	Vdc	IERange
	#	s	Hz	ohm	ohm	V	ohm	°	A	V	#
	0	10	300046.9	3.330567	2.275386	1	4.033616	34.34022	6.014032E-006	-0.0001505	10
	1	13	238359.4	3.296172	1.801935	1	3.756557	28.66433	-7.780714E-005	-0.0003543	10
	2	16	189328.1	3.270226	1.419744	1	3.565116	23.46771	2.582476E-005	-6.346156E-005	10
	3	19	150421.9	3.26849	1.122722	1	3.455941	18.95753	-8.657351E-005	0.0001	10
	4	21	119484.4	3.288326	0.7050654	1	3.363064	12.10182	-8.405766E-005	0.0002253	12
	5	25	94921.88	3.256795	0.6459172	1	3.320229	11.21785	-5.636787E-005	0.0005293	11
	6	27	75421.88	3.25844	0.477196	1	3.293197	8.331696	-3.715456E-005	0.0005815	11
	7	30	59859.37	3.259861	0.3329379	1	3.276818	5.831545	8.673642E-006	0.0006212	11
	8	33	47578.12	3.265431	0.2097099	1	3.272158	3.674556	-3.452441E-005	0.0006404	11
	9	35	37828.12	3.269953	0.0973548	1	3.271401	1.705337	1.254996E-005	0.0006508	11
	10	38	30046.88	3.277912	-0.0082069	1	3.277922	-0.1434508	-4.93954E-005	0.0006156	11
	11	40	23859.38	3.286659	-0.1134009	1	3.288615	-1.976115	1.852648E-005	0.0006734	11
	12	42	18984.38	3.298691	-0.2213686	1	3.30611	-3.839249	-1.094539E-005	0.0006909	11
	13	45	15046.87	3.31083	-0.3408734	1	3.328331	-5.878294	2.429873E-005	0.0007044	11
	14	47	11953.13	3.326246	-0.4744378	1	3.359911	-8.117607	-1.536731E-006	0.000668	11
	15	49	9515.62	3.345266	-0.6275706	1	3.403623	-10.62517	-3.203343E-005	0.0006799	11
	16	52	7546.875	3.368239	-0.8120158	1	3.464737	-13.55424	-3.631748E-005	0.000678	11
	17	54	5928.309	3.3971	-1.044148	1	3.553947	-17.08557	-2.576691E-005	0.0006728	11
	18	56	4733.456	3.434761	-1.3075	1	3.675206	-20.84019	-5.194193E-006	0.0006546	10
	19	59	3796.875	3.476671	-1.620551	1	3.835809	-24.99124	-2.905706E-005	0.0007057	10
	20	61	2987.132	3.533204	-2.036534	1	4.078112	-29.9591	1.413552E-005	0.0006469	10
	21	63	2390.625	3.600212	-2.510296	1	4.388977	-34.88665	1.756259E-005	0.0006185	10
	22	66	1884.191	3.687248	-3.135983	1	4.840474	-40.38097	2.198251E-005	0.0006326	10
	23	68	1516.544	3.787942	-3.835334	1	5.390574	-45.35619	-2.581128E-005	0.0006653	10
	24	70	1193.986	3.92475	-4.78194	1	6.186325	-50.62276	-2.546907E-005	0.0006628	10
	25	73	946.5144	4.09707	-5.918408	1	7.198163	-55.30674	-1.883066E-005	0.0007242	10
	26	75	751.7689	4.303792	-7.312096	1	8.484655	-59.51956	1.527322E-005	0.0006254	10
	27	77	597.4265	4.563511	-9.023345	1	10.1117	-63.17223	1.96716E-005	0.0006302	10
	28	80	477.4305	4.88947	-11.0803	1	12.11115	-66.18929	-2.214393E-006	0.0006599	10
	29	82	376.6741	5.327323	-13.75716	1	14.75263	-68.83161	-2.051218E-006	0.0006571	10
	30	84	298.2954	5.883379	-17.0151	1	18.00355	-70.92595	-2.345493E-006	0.0006556	10
	31	87	237.7717	6.579905	-20.90616	1	21.91718	-72.52938	-2.792712E-006	0.000654	10
	32	89	189.0121	7.487243	-25.72836	1	26.79565	-73.77441	-6.614097E-006	0.0007102	10
	33	91	150.2404	8.66785	-31.6384	1	32.80427	-74.67883	-2.57546E-006	0.000654	10
	34	94	119.1737	10.21122	-38.9223	1	40.23946	-75.2998	-2.395835E-006	0.0006594	10
	35	96	95.0169	12.15093	-47.53064	1	49.05922	-75.6598	4.177586E-007	0.0001112	9
	36	99	75.60484	14.68291	-58.10378	1	59.93027	-75.81818	7.440805E-007	5.343956E-005	9
	37	101	54.50582	19.565	-77.13707	1	79.57963	-75.76767	6.306697E-007	5.412675E-005	9
	38	104	45.95588	22.83949	-89.26627	1	92.14179	-75.6483	9.742953E-007	5.932191E-005	9
	39	106	37.20238	27.69911	-106.7181	1	110.2543	-75.44973	9.175635E-007	6.044507E-005	9
	40	108	30.04808	33.63127	-127.6193	1	131.9763	-75.2366	7.137085E-007	6.107966E-005	9
	41	111	23.91582	41.13101	-154.0138	1	159.4115	-75.04752	6.579147E-007	5.349406E-005	9
	42	113	18.60119	51.1018	-189.3824	1	196.1558	-74.89929	8.387605E-007	6.318896E-005	9
	43	116	15.02404	60.88811	-225.5229	1	233.5978	-74.89115	8.545144E-007	6.212178E-005	9
	44	118	12.01923	72.63898	-270.6005	1	280.1804	-74.97397	8.875839E-007	5.778571E-005	9
	45	120	9.450605	87.01424	-329.7913	1	341.0774	-75.21955	9.662274E-007	7.02104E-005	9
	46	123	7.512019	102.1725	-399.0903	1	411.9615	-75.63994	1.123291E-006	7.707581E-005	9
	47	126	5.978954	118.7871	-481.6801	1	496.111	-76.14672	2.968127E-007	0.0006321	8
	48	129	4.734848	138.2694	-588.1932	1	604.2266	-76.77139	3.453393E-007	0.0006658	8
	49	132	3.75601	161.0253	-719.8125	1	737.6037	-77.39029	2.521248E-007	0.0006717	8
	50	135	3.004808	186.9997	-876.187	1	895.9199	-77.95243	3.223643E-007	0.0006461	8
	51	139	2.372217	222.972	-1081.976	1	1104.712	-78.35558	3.193679E-007	0.0006932	8
	52	143	1.878005	265.1687	-1338.483	1	1364.497	-78.79415	2.097676E-007	0.0006815	8
	53	148	1.512097	313.4442	-1627.675	1	1657.58	-79.09988	3.154684E-007	0.0005652	8
	54	153	1.201923	387.1918	-2010.338	1	2047.285	-79.0983	2.706569E-007	0.0006223	8
	55	160	0.956633	482.0441	-2475.781	1	2522.273	-78.98214	2.561616E-007	-5.952854E-006	8
