EXPLAIN
TAG	EISPOT
TITLE	LABEL	Potentiostatic EIS	Test Identifier
DATE	LABEL	9/12/2020	Date
TIME	LABEL	13:29:15	Time
NOTES	NOTES	1	Notes...
	
PSTAT	PSTAT	REF3000-16137	Potentiostat
VDC	POTEN	0.00000E+000	T	DC Voltage (V)
FREQINIT	QUANT	3.00000E+005	Initial Freq. (Hz)
FREQFINAL	QUANT	1.00000E+000	Final Freq. (Hz)
PTSPERDEC	QUANT	1.00000E+001	Points/decade
VAC	QUANT	5.00000E+001	AC Voltage (mV rms)
AREA	QUANT	1.00000E+000	Sample Area (cm^2)
SPEED	SELECTOR	2	Optimize for:
ZGUESS	QUANT	1.00000E+003	Estimated Z (ohms)
EOC	QUANT	0	Open Circuit (V)
SEQUENCER	TOGGLE	TRUE	Run as Sequence
PSTATMODEL	IQUANT	5	Pstat Model
PSTATSECTION	LABEL	REF3000-16137	Pstat Section
PSTATSERIALNO	LABEL	16137	Pstat Serial Number
CTRLMODE	IQUANT	1	Control Mode
IESTAB	IQUANT	0	I/E Stability
CASPEED	IQUANT	1	Control Amp Speed
CONVENTION	IQUANT	1	Current Convention
ICHRANGE	IQUANT	2	Ich Range
ICHRANGEMODE	TOGGLE	F	Ich Auto Range
ICHOFFSETENABLE	TOGGLE	T	Ich Offset Enable
ICHOFFSET	QUANT	0	Ich Offset (V)
ICHFILTER	IQUANT	3	Ich Filter
VCHRANGE	IQUANT	2	Vch Range
VCHRANGEMODE	TOGGLE	F	Vch Auto Range
VCHOFFSETENABLE	TOGGLE	T	Vch Offset Enable
VCHOFFSET	QUANT	0	Vch Offset (V)
VCHFILTER	IQUANT	3	Vch Filter
ACHRANGE	IQUANT	2	Ach Range
ACHOFFSETENABLE	TOGGLE	F	Ach Offset Enable
ACHOFFSET	QUANT	0	Ach Offset (V)
ACHFILTER	IQUANT	3	Ach Filter
IERANGELOWERLIMIT	IQUANT	2	I/E Range Lower Limit
IERANGEMODE	TOGGLE	F	I/E AutoRange
IERANGE	IQUANT	11	I/E Range
POSFEEDENABLE	TOGGLE	F	Positive Feedback IR Comp
POSFEEDRESISTANCE	QUANT	0	Positive Feedback Resistance (ohm)
ACHSELECT	IQUANT	0	Ach Select
CABLEID	IQUANT	13	Cable ID
DCCALDATE	LABEL	7/31/2020	DC Calibration Date
ACCALDATE	LABEL	7/31/2020	AC Calibration Date
THERMOSELECT	IQUANT	1	Thermo Select
FRAMEWORKVERSION	QUANT	6.33	Framework Version
INSTRUMENTVERSION	LABEL	3.50	Instrument Version
COMPLIANCEVOLTAGE	IQUANT	0	Compliance Voltage
ZCURVE	TABLE
	Pt	Time	Freq	Zreal	Zimag	Zsig	Zmod	Zphz	Idc	Vdc	IERange
	#	s	Hz	ohm	ohm	V	ohm	°	A	V	#
	0	10	300046.9	2.236022	2.23628	1	3.162395	45.0033	4.556527E-005	-0.0001563	11
	1	13	238359.4	2.192438	1.779469	1	2.823702	39.06414	6.822852E-005	-0.0003437	11
	2	16	189328.1	2.24144	1.258566	1	2.570611	29.31417	-2.006584E-005	1.989108E-005	12
	3	20	150421.9	2.204285	0.98988	1	2.416348	24.18346	-6.258528E-005	0.00032	12
	4	23	119484.4	2.166358	0.7698511	1	2.299082	19.56351	-6.783365E-005	0.0002998	12
	5	27	94921.88	2.131076	0.6617091	1	2.231444	17.24981	1.001705E-005	0.0004879	11
	6	29	75421.88	2.128462	0.4951119	1	2.185288	13.09498	-2.268307E-005	0.0005121	11
	7	32	59859.37	2.126313	0.3525062	1	2.155335	9.413042	-1.200445E-005	0.0005235	11
	8	34	47578.12	2.128367	0.2315038	1	2.14092	6.207694	1.051346E-005	0.0005998	11
	9	37	37828.12	2.131547	0.122774	1	2.13508	3.29651	-1.136767E-005	0.0006187	11
	10	40	30046.88	2.135652	0.0212283	1	2.135758	0.5694988	1.491129E-005	0.000658	11
	11	42	23859.38	2.141231	-0.0779593	1	2.14265	-2.08514	2.406282E-005	0.0006683	11
	12	44	18984.38	2.149308	-0.1786369	1	2.156719	-4.751144	4.204884E-006	0.0006715	11
	13	47	15046.87	2.159316	-0.2884082	1	2.178492	-7.607662	-3.219843E-005	0.0006804	11
	14	49	11953.13	2.170924	-0.4099246	1	2.209287	-10.69297	-2.385545E-005	0.0006592	11
	15	51	9515.62	2.18638	-0.548013	1	2.254013	-14.07121	1.416482E-005	0.0006895	11
	16	54	7546.875	2.205691	-0.7123541	1	2.31787	-17.89848	1.636779E-005	0.0006873	11
	17	56	5928.309	2.231604	-0.9190068	1	2.413427	-22.38257	-3.344857E-005	0.000662	11
	18	58	4733.456	2.262252	-1.151563	1	2.53848	-26.97764	2.22856E-005	0.000695	11
	19	60	3796.875	2.299514	-1.426355	1	2.705966	-31.81073	2.288934E-005	0.0006826	11
	20	63	2987.132	2.35047	-1.793525	1	2.956593	-37.34542	-4.250916E-005	0.0006526	11
	21	65	2390.625	2.41103	-2.208932	1	3.269931	-42.49522	6.039981E-006	0.0006764	11
	22	67	1884.191	2.490061	-2.758202	1	3.715923	-47.92478	-4.175135E-005	0.0007258	11
	23	70	1516.544	2.583972	-3.372947	1	4.248962	-52.54473	-2.377395E-005	0.0007186	10
	24	72	1193.986	2.711757	-4.202912	1	5.001809	-57.16952	-2.705268E-005	0.0006612	10
	25	75	946.5144	2.8738	-5.197112	1	5.938746	-61.05912	1.704146E-005	0.0006322	10
	26	77	751.7689	3.072621	-6.419657	1	7.117092	-64.42297	-2.239468E-005	0.0006698	10
	27	79	597.4265	3.335275	-7.91162	1	8.585906	-67.14133	1.770307E-005	0.0006399	10
	28	81	477.4305	3.66102	-9.69413	1	10.36239	-69.31079	-3.421761E-006	0.0006546	10
	29	84	376.6741	4.109482	-12.00567	1	12.68953	-71.10418	-3.383574E-006	0.0006471	10
	30	86	298.2954	4.68466	-14.80077	1	15.52446	-72.43665	-3.153564E-006	0.0006546	10
	31	88	237.7717	5.408056	-18.11202	1	18.90218	-73.37494	-2.965618E-006	0.0006533	10
	32	91	189.0121	6.353352	-22.18285	1	23.07474	-74.01785	-3.008935E-006	0.0006497	10
	33	93	150.2404	7.568948	-27.10857	1	28.1454	-74.3998	-3.749754E-006	0.0006515	10
	34	96	119.1737	9.137268	-33.11998	1	34.35728	-74.57668	-3.503349E-006	0.0006557	10
	35	98	95.0169	11.06453	-40.17184	1	41.66774	-74.60085	-3.889255E-006	0.0006508	10
	36	100	75.60484	13.45703	-48.63319	1	50.46067	-74.53299	-8.521933E-007	5.339242E-005	9
	37	103	54.50582	17.83679	-63.78767	1	66.23457	-74.37755	-8.386454E-007	5.080678E-005	9
	38	105	45.95588	20.59782	-73.38271	1	76.21872	-74.32108	-4.722248E-007	6.120458E-005	9
	39	108	37.20238	24.48879	-87.17863	1	90.55283	-74.30975	-6.065332E-007	5.287662E-005	9
	40	110	30.04808	29.00071	-103.7317	1	107.7093	-74.38038	-7.830484E-007	5.276609E-005	9
	41	113	23.91582	34.57018	-125.1132	1	129.8014	-74.55392	-8.855537E-007	5.005666E-005	9
	42	115	18.60119	41.28529	-153.7411	1	159.188	-74.96854	-5.525308E-007	5.40096E-005	9
	43	117	15.02404	47.84562	-183.707	1	189.8353	-75.40189	-4.818349E-007	5.11057E-005	9
	44	120	12.01923	55.55065	-221.9325	1	228.7792	-75.94735	-6.928876E-007	4.610595E-005	9
	45	122	9.450605	65.26221	-273.1802	1	280.8676	-76.56398	-6.032118E-007	5.389216E-005	9
	46	124	7.512019	76.19138	-333.9151	1	342.4973	-77.14654	-4.502312E-007	3.658802E-005	9
	47	127	5.978954	90.01781	-408.9502	1	418.7404	-77.58607	-4.224283E-007	5.304149E-005	9
	48	130	4.734848	107.8213	-502.5579	1	513.994	-77.89103	-1.170114E-006	0.0006287	8
	49	133	3.75601	131.1083	-619.1708	1	632.8996	-78.04432	-1.082215E-006	0.000635	8
	50	137	3.004808	161.4364	-757.7712	1	774.7767	-77.97344	-1.148149E-006	0.0006722	8
	51	141	2.372217	206.1905	-938.8885	1	961.263	-77.61383	-1.151447E-006	0.0007052	8
	52	145	1.878005	267.3234	-1159.09	1	1189.518	-77.01284	-1.144537E-006	0.0006075	8
	53	149	1.512097	347.4687	-1405.152	1	1447.476	-76.11042	-1.091597E-006	0.0006966	8
	54	155	1.201923	467.3242	-1724.344	1	1786.548	-74.8362	-1.11324E-006	0.0005983	8
	55	161	0.956633	634.4158	-2100.195	1	2193.924	-73.19176	-1.200569E-006	-4.18879E-006	8
