EXPLAIN
TAG	EISPOT
TITLE	LABEL	Potentiostatic EIS	Test Identifier
DATE	LABEL	8/29/2020	Date
TIME	LABEL	22:40:24	Time
NOTES	NOTES	1	Notes...
	
PSTAT	PSTAT	REF3000-16137	Potentiostat
VDC	POTEN	0.00000E+000	T	DC Voltage (V)
FREQINIT	QUANT	3.00000E+005	Initial Freq. (Hz)
FREQFINAL	QUANT	1.00000E+000	Final Freq. (Hz)
PTSPERDEC	QUANT	1.00000E+001	Points/decade
VAC	QUANT	5.00000E+001	AC Voltage (mV rms)
AREA	QUANT	1.00000E+000	Sample Area (cm^2)
SPEED	SELECTOR	2	Optimize for:
ZGUESS	QUANT	1.00000E+003	Estimated Z (ohms)
EOC	QUANT	0	Open Circuit (V)
SEQUENCER	TOGGLE	TRUE	Run as Sequence
PSTATMODEL	IQUANT	5	Pstat Model
PSTATSECTION	LABEL	REF3000-16137	Pstat Section
PSTATSERIALNO	LABEL	16137	Pstat Serial Number
CTRLMODE	IQUANT	1	Control Mode
IESTAB	IQUANT	0	I/E Stability
CASPEED	IQUANT	1	Control Amp Speed
CONVENTION	IQUANT	1	Current Convention
ICHRANGE	IQUANT	2	Ich Range
ICHRANGEMODE	TOGGLE	F	Ich Auto Range
ICHOFFSETENABLE	TOGGLE	T	Ich Offset Enable
ICHOFFSET	QUANT	0	Ich Offset (V)
ICHFILTER	IQUANT	3	Ich Filter
VCHRANGE	IQUANT	2	Vch Range
VCHRANGEMODE	TOGGLE	F	Vch Auto Range
VCHOFFSETENABLE	TOGGLE	T	Vch Offset Enable
VCHOFFSET	QUANT	0	Vch Offset (V)
VCHFILTER	IQUANT	3	Vch Filter
ACHRANGE	IQUANT	2	Ach Range
ACHOFFSETENABLE	TOGGLE	F	Ach Offset Enable
ACHOFFSET	QUANT	0	Ach Offset (V)
ACHFILTER	IQUANT	3	Ach Filter
IERANGELOWERLIMIT	IQUANT	2	I/E Range Lower Limit
IERANGEMODE	TOGGLE	F	I/E AutoRange
IERANGE	IQUANT	11	I/E Range
POSFEEDENABLE	TOGGLE	F	Positive Feedback IR Comp
POSFEEDRESISTANCE	QUANT	0	Positive Feedback Resistance (ohm)
ACHSELECT	IQUANT	0	Ach Select
CABLEID	IQUANT	13	Cable ID
DCCALDATE	LABEL	7/31/2020	DC Calibration Date
ACCALDATE	LABEL	7/31/2020	AC Calibration Date
THERMOSELECT	IQUANT	1	Thermo Select
FRAMEWORKVERSION	QUANT	6.33	Framework Version
INSTRUMENTVERSION	LABEL	3.50	Instrument Version
COMPLIANCEVOLTAGE	IQUANT	0	Compliance Voltage
ZCURVE	TABLE
	Pt	Time	Freq	Zreal	Zimag	Zsig	Zmod	Zphz	Idc	Vdc	IERange
	#	s	Hz	ohm	ohm	V	ohm	°	A	V	#
	0	10	300046.9	5.056989	1.868398	1	5.391108	20.27768	8.089265E-006	6.434412E-005	10
	1	13	238359.4	5.039598	1.483004	1	5.253271	16.39759	-1.64894E-005	-0.0001281	10
	2	16	189328.1	5.041757	1.170946	1	5.175947	13.07512	8.241643E-006	0.0001053	10
	3	19	150421.9	5.053754	0.9169497	1	5.136266	10.28383	1.041461E-005	0.0002744	10
	4	21	119484.4	5.054996	0.7136146	1	5.105118	8.035357	-0.0001008	0.0004349	10
	5	24	94921.88	5.068476	0.5615754	1	5.099492	6.322453	-1.516135E-005	0.0005493	10
	6	26	75421.88	5.079129	0.4118101	1	5.095797	4.635338	2.405695E-005	0.0005455	10
	7	29	59859.37	5.092989	0.282103	1	5.100796	3.170399	-2.820831E-005	0.0005779	10
	8	32	47578.12	5.109513	0.1664053	1	5.112222	1.865335	2.321957E-005	0.0005985	10
	9	34	37828.12	5.128126	0.0598965	1	5.128476	0.6691841	-2.691973E-005	0.0006235	10
	10	37	30046.88	5.149853	-0.043528	1	5.150037	-0.4842687	1.103181E-005	0.0006052	10
	11	39	23859.38	5.172657	-0.147581	1	5.174762	-1.634262	1.792503E-005	0.0006558	10
	12	41	18984.38	5.196143	-0.2570313	1	5.202496	-2.831873	2.009124E-005	0.0006611	10
	13	44	15046.87	5.221849	-0.3802757	1	5.235678	-4.165152	-2.96305E-005	0.0006671	10
	14	46	11953.13	5.251884	-0.5196016	1	5.277524	-5.650242	-2.37005E-005	0.0007015	10
	15	48	9515.62	5.283799	-0.682445	1	5.327689	-7.359467	-3.025389E-005	0.0007149	10
	16	51	7546.875	5.320034	-0.8788983	1	5.392145	-9.38084	1.620171E-005	0.0006401	10
	17	53	5928.309	5.363639	-1.128623	1	5.481096	-11.88289	9.696784E-006	0.0006263	10
	18	55	4733.456	5.411841	-1.413334	1	5.593348	-14.63623	-2.650106E-005	0.0006923	10
	19	58	3796.875	5.466461	-1.753722	1	5.740882	-17.78701	-2.068047E-005	0.0006708	10
	20	60	2987.132	5.535352	-2.207791	1	5.959401	-21.74473	2.034512E-005	0.0006628	10
	21	62	2390.625	5.613049	-2.730072	1	6.241764	-25.93733	8.679639E-006	0.0006858	10
	22	65	1884.191	5.711709	-3.417545	1	6.656068	-30.89378	2.056929E-005	0.0006484	10
	23	67	1516.544	5.82339	-4.192883	1	7.175802	-35.75416	-2.006494E-005	0.0006648	10
	24	69	1193.986	5.971931	-5.248105	1	7.950255	-41.30885	-7.184107E-006	0.0006799	10
	25	72	946.5144	6.156375	-6.518944	1	8.966471	-46.63846	-2.488881E-005	0.0007037	10
	26	74	751.7689	6.383401	-8.084975	1	10.3012	-51.70754	1.275771E-005	0.0006637	10
	27	76	597.4265	6.670769	-10.0074	1	12.02694	-56.31324	2.068706E-005	0.0006506	10
	28	79	477.4305	7.034994	-12.31958	1	14.18672	-60.27183	-3.946891E-006	0.0006733	10
	29	81	376.6741	7.526214	-15.32562	1	17.07392	-63.84494	-3.861859E-006	0.0006688	10
	30	83	298.2954	8.147347	-18.97727	1	20.65226	-66.76511	-3.283815E-006	0.0006696	10
	31	86	237.7717	8.916236	-23.33182	1	24.97746	-69.08569	-4.053766E-006	0.000675	10
	32	88	189.0121	9.89879	-28.72738	1	30.385	-70.98724	-3.121845E-006	0.0006793	10
	33	90	150.2404	11.13151	-35.33466	1	37.04658	-72.51396	-3.090274E-006	0.0006776	10
	34	93	119.1737	12.6811	-43.45822	1	45.2706	-73.73277	2.821627E-007	8.242704E-005	9
	35	95	95.0169	14.60083	-53.2351	1	55.20109	-74.66261	2.121943E-007	6.869125E-005	9
	36	98	75.60484	17.04561	-65.29651	1	67.48472	-75.36948	2.576355E-007	7.186061E-005	9
	37	100	54.50582	21.73103	-87.3716	1	90.03352	-76.03282	1.324706E-007	6.882379E-005	9
	38	103	45.95588	24.90353	-101.6542	1	104.6602	-76.23463	3.30444E-007	7.675133E-005	9
	39	105	37.20238	29.76587	-122.5424	1	126.1057	-76.34711	3.759048E-007	7.202684E-005	9
	40	108	30.04808	35.95658	-147.897	1	152.2051	-76.33541	1.51511E-007	7.234253E-005	9
	41	110	23.91582	44.28574	-180.349	1	185.7067	-76.20366	2.167026E-007	6.880629E-005	9
	42	112	18.60119	56.28019	-224.2519	1	231.2063	-75.91154	8.335351E-008	8.135301E-005	9
	43	115	15.02404	69.36696	-269.3482	1	278.1371	-75.55808	2.063899E-007	0.0001288	9
	44	117	12.01923	86.71658	-325.5796	1	336.93	-75.08578	3.79096E-007	7.221226E-005	9
	45	119	9.450605	110.4265	-398.4698	1	413.4878	-74.51054	4.261256E-007	8.515141E-005	9
	46	122	7.512019	138.6366	-480.3641	1	499.9698	-73.90147	-2.41437E-007	0.0006727	8
	47	125	5.978954	174.9127	-579.814	1	605.6226	-73.21299	-2.791847E-007	0.0006516	8
	48	128	4.734848	221.6887	-701.9767	1	736.1502	-72.47355	-2.071805E-007	0.0006644	8
	49	131	3.75601	281.0019	-846.4205	1	891.8463	-71.63442	-3.660546E-007	0.0006912	8
	50	134	3.004808	353.2304	-1011.6	1	1071.497	-70.75182	-2.290851E-007	0.0006238	8
	51	138	2.372217	451.7829	-1220.179	1	1301.132	-69.68245	-2.831226E-007	0.0005869	8
	52	142	1.878005	579.5	-1463.729	1	1574.269	-68.40106	-2.724936E-007	0.0006589	8
	53	147	1.512097	730.9948	-1728.474	1	1876.693	-67.07585	-2.500867E-007	0.0005441	8
	54	152	1.201923	935.9084	-2057.881	1	2260.708	-65.54433	-2.449758E-007	0.0006651	8
	55	159	0.956633	1198.735	-2431.483	1	2710.918	-63.75645	-3.067694E-007	1.01275E-005	8
