EXPLAIN
TAG	EISPOT
TITLE	LABEL	Potentiostatic EIS	Test Identifier
DATE	LABEL	8/29/2020	Date
TIME	LABEL	22:43:12	Time
NOTES	NOTES	1	Notes...
	
PSTAT	PSTAT	REF3000-16137	Potentiostat
VDC	POTEN	0.00000E+000	T	DC Voltage (V)
FREQINIT	QUANT	3.00000E+005	Initial Freq. (Hz)
FREQFINAL	QUANT	1.00000E+000	Final Freq. (Hz)
PTSPERDEC	QUANT	1.00000E+001	Points/decade
VAC	QUANT	5.00000E+001	AC Voltage (mV rms)
AREA	QUANT	1.00000E+000	Sample Area (cm^2)
SPEED	SELECTOR	2	Optimize for:
ZGUESS	QUANT	1.00000E+003	Estimated Z (ohms)
EOC	QUANT	0	Open Circuit (V)
SEQUENCER	TOGGLE	TRUE	Run as Sequence
PSTATMODEL	IQUANT	5	Pstat Model
PSTATSECTION	LABEL	REF3000-16137	Pstat Section
PSTATSERIALNO	LABEL	16137	Pstat Serial Number
CTRLMODE	IQUANT	1	Control Mode
IESTAB	IQUANT	0	I/E Stability
CASPEED	IQUANT	1	Control Amp Speed
CONVENTION	IQUANT	1	Current Convention
ICHRANGE	IQUANT	2	Ich Range
ICHRANGEMODE	TOGGLE	F	Ich Auto Range
ICHOFFSETENABLE	TOGGLE	T	Ich Offset Enable
ICHOFFSET	QUANT	0	Ich Offset (V)
ICHFILTER	IQUANT	3	Ich Filter
VCHRANGE	IQUANT	2	Vch Range
VCHRANGEMODE	TOGGLE	F	Vch Auto Range
VCHOFFSETENABLE	TOGGLE	T	Vch Offset Enable
VCHOFFSET	QUANT	0	Vch Offset (V)
VCHFILTER	IQUANT	3	Vch Filter
ACHRANGE	IQUANT	2	Ach Range
ACHOFFSETENABLE	TOGGLE	F	Ach Offset Enable
ACHOFFSET	QUANT	0	Ach Offset (V)
ACHFILTER	IQUANT	3	Ach Filter
IERANGELOWERLIMIT	IQUANT	2	I/E Range Lower Limit
IERANGEMODE	TOGGLE	F	I/E AutoRange
IERANGE	IQUANT	11	I/E Range
POSFEEDENABLE	TOGGLE	F	Positive Feedback IR Comp
POSFEEDRESISTANCE	QUANT	0	Positive Feedback Resistance (ohm)
ACHSELECT	IQUANT	0	Ach Select
CABLEID	IQUANT	13	Cable ID
DCCALDATE	LABEL	7/31/2020	DC Calibration Date
ACCALDATE	LABEL	7/31/2020	AC Calibration Date
THERMOSELECT	IQUANT	1	Thermo Select
FRAMEWORKVERSION	QUANT	6.33	Framework Version
INSTRUMENTVERSION	LABEL	3.50	Instrument Version
COMPLIANCEVOLTAGE	IQUANT	0	Compliance Voltage
ZCURVE	TABLE
	Pt	Time	Freq	Zreal	Zimag	Zsig	Zmod	Zphz	Idc	Vdc	IERange
	#	s	Hz	ohm	ohm	V	ohm	°	A	V	#
	0	10	300046.9	6.636062	1.827083	1	6.88299	15.39364	6.444636E-005	0.0001686	10
	1	13	238359.4	6.650156	1.466352	1	6.809902	12.43468	-9.28345E-006	5.327442E-005	10
	2	16	189328.1	6.663237	1.158228	1	6.763152	9.86084	2.104614E-005	0.0003205	10
	3	19	150421.9	6.681124	0.8987128	1	6.741298	7.661167	2.631287E-005	0.0004832	10
	4	22	119484.4	6.709113	0.7027835	1	6.745821	5.979959	-9.183043E-005	0.0005115	10
	5	24	94921.88	6.736888	0.5564046	1	6.759826	4.721385	3.487819E-006	0.0005133	10
	6	27	75421.88	6.759908	0.4049725	1	6.772028	3.428378	-2.870678E-005	0.0005793	10
	7	29	59859.37	6.787308	0.2713282	1	6.792729	2.289227	1.10736E-005	0.0005805	10
	8	32	47578.12	6.819452	0.154491	1	6.821201	1.297783	-3.036878E-005	0.0006318	10
	9	34	37828.12	6.854384	0.0470476	1	6.854546	0.3932649	-2.261076E-005	0.0006759	10
	10	37	30046.88	6.889241	-0.0574289	1	6.88948	-0.4776085	1.248593E-005	0.0006097	10
	11	39	23859.38	6.925612	-0.162915	1	6.927528	-1.347552	-1.7187E-005	0.0006808	10
	12	42	18984.38	6.962648	-0.2755002	1	6.968096	-2.265915	2.427015E-006	0.000622	10
	13	44	15046.87	7.002034	-0.4025086	1	7.013594	-3.29	-2.646911E-005	0.0006688	10
	14	46	11953.13	7.045348	-0.5474014	1	7.066582	-4.442776	-3.197645E-005	0.000665	10
	15	49	9515.62	7.09107	-0.7148541	1	7.127011	-5.756566	1.955607E-005	0.0006456	10
	16	51	7546.875	7.142229	-0.9190522	1	7.201118	-7.332448	1.975686E-005	0.0006356	10
	17	53	5928.309	7.200186	-1.179368	1	7.296135	-9.302262	-7.06596E-006	0.0006951	10
	18	56	4733.456	7.26316	-1.475525	1	7.411523	-11.48348	1.60212E-005	0.0006686	10
	19	58	3796.875	7.334291	-1.828699	1	7.558833	-14.00041	8.655387E-006	0.0006504	10
	20	60	2987.132	7.418912	-2.302967	1	7.768135	-17.24531	1.484471E-005	0.0006704	10
	21	62	2390.625	7.513531	-2.845182	1	8.03419	-20.7404	1.350968E-005	0.0006291	10
	22	65	1884.191	7.630363	-3.563271	1	8.421363	-25.0319	1.018807E-005	0.0006298	10
	23	67	1516.544	7.758485	-4.370226	1	8.90466	-29.39184	-2.796744E-005	0.0006878	10
	24	69	1193.986	7.925213	-5.466261	1	9.62751	-34.59521	-2.829573E-005	0.0006957	10
	25	72	946.5144	8.119617	-6.794035	1	10.58712	-39.92068	2.096409E-006	0.0006313	10
	26	74	751.7689	8.363288	-8.415035	1	11.86412	-45.17671	9.305704E-006	0.0006214	10
	27	77	597.4265	8.664117	-10.42377	1	13.5544	-50.26703	-5.092076E-006	0.000641	10
	28	79	477.4305	9.030797	-12.8405	1	15.69821	-54.88106	-2.919219E-006	0.0006791	10
	29	81	376.6741	9.52281	-15.99363	1	18.61398	-59.2299	-2.665781E-006	0.0006763	10
	30	83	298.2954	10.14364	-19.83368	1	22.27708	-62.91319	-3.519089E-006	0.0006817	10
	31	86	237.7717	10.91471	-24.42509	1	26.75287	-65.92182	-3.899761E-006	0.0006858	10
	32	88	189.0121	11.90504	-30.12523	1	32.39227	-68.43681	-2.629892E-006	0.000679	10
	33	91	150.2404	13.15457	-37.1085	1	39.3711	-70.48112	-3.821596E-006	0.0007263	10
	34	93	119.1737	14.71783	-45.70225	1	48.01365	-72.1495	3.711208E-007	0.0001336	9
	35	95	95.0169	16.65097	-56.04528	1	58.46647	-73.45339	5.98605E-007	8.103474E-005	9
	36	98	75.60484	19.08842	-68.81411	1	71.41253	-74.49646	2.536481E-007	0.0001307	9
	37	100	54.50582	23.68689	-92.22026	1	95.2137	-75.5949	6.12705E-007	7.093337E-005	9
	38	103	45.95588	26.78577	-107.4355	1	110.7243	-76.00046	3.79189E-007	0.0001312	9
	39	105	37.20238	31.44968	-129.6895	1	133.4483	-76.36892	6.280355E-007	8.491746E-005	9
	40	108	30.04808	37.37465	-156.7903	1	161.1833	-76.59241	6.564191E-007	7.255104E-005	9
	41	110	23.91582	45.38141	-191.8405	1	197.1351	-76.69088	6.008896E-007	8.283724E-005	9
	42	113	18.60119	56.82706	-239.3119	1	245.9665	-76.64194	5.688602E-007	7.088429E-005	9
	43	115	15.02404	69.30917	-288.4611	1	296.6708	-76.48952	9.576938E-007	8.825355E-005	9
	44	117	12.01923	85.80678	-349.9756	1	360.3412	-76.22401	8.705272E-007	7.101476E-005	9
	45	120	9.450605	108.2383	-428.4901	1	441.9494	-75.82342	-7.700656E-008	0.0006569	8
	46	122	7.512019	135.4687	-520.941	1	538.267	-75.42331	3.364591E-008	0.0006353	8
	47	125	5.978954	170.0883	-631.4869	1	653.9922	-74.92538	3.051177E-008	0.000663	8
	48	128	4.734848	214.714	-767.3192	1	796.7941	-74.36713	3.188883E-008	0.0006254	8
	49	131	3.75601	270.1087	-929.823	1	968.261	-73.8017	1.426987E-007	0.0006692	8
	50	134	3.004808	337.1879	-1116.785	1	1166.578	-73.1995	1.208359E-007	0.0006354	8
	51	138	2.372217	428.2045	-1354.528	1	1420.601	-72.45679	7.651656E-008	0.0005923	8
	52	142	1.878005	538.8855	-1640.397	1	1726.644	-71.81417	1.429427E-007	0.0006611	8
	53	147	1.512097	667.7603	-1950.785	1	2061.908	-71.10375	1.026617E-007	0.0006377	8
	54	153	1.201923	845.6233	-2355.028	1	2502.246	-70.24824	1.527253E-007	0.0006729	8
	55	159	0.956633	1070.54	-2828.158	1	3023.993	-69.26688	8.741078E-008	1.044388E-005	8
