EXPLAIN
TAG	EISPOT
TITLE	LABEL	Potentiostatic EIS	Test Identifier
DATE	LABEL	8/29/2020	Date
TIME	LABEL	23:02:56	Time
NOTES	NOTES	1	Notes...
	
PSTAT	PSTAT	REF3000-16137	Potentiostat
VDC	POTEN	0.00000E+000	T	DC Voltage (V)
FREQINIT	QUANT	3.00000E+005	Initial Freq. (Hz)
FREQFINAL	QUANT	1.00000E+000	Final Freq. (Hz)
PTSPERDEC	QUANT	1.00000E+001	Points/decade
VAC	QUANT	5.00000E+001	AC Voltage (mV rms)
AREA	QUANT	1.00000E+000	Sample Area (cm^2)
SPEED	SELECTOR	2	Optimize for:
ZGUESS	QUANT	1.00000E+003	Estimated Z (ohms)
EOC	QUANT	0	Open Circuit (V)
SEQUENCER	TOGGLE	TRUE	Run as Sequence
PSTATMODEL	IQUANT	5	Pstat Model
PSTATSECTION	LABEL	REF3000-16137	Pstat Section
PSTATSERIALNO	LABEL	16137	Pstat Serial Number
CTRLMODE	IQUANT	1	Control Mode
IESTAB	IQUANT	0	I/E Stability
CASPEED	IQUANT	1	Control Amp Speed
CONVENTION	IQUANT	1	Current Convention
ICHRANGE	IQUANT	2	Ich Range
ICHRANGEMODE	TOGGLE	F	Ich Auto Range
ICHOFFSETENABLE	TOGGLE	T	Ich Offset Enable
ICHOFFSET	QUANT	0	Ich Offset (V)
ICHFILTER	IQUANT	3	Ich Filter
VCHRANGE	IQUANT	2	Vch Range
VCHRANGEMODE	TOGGLE	F	Vch Auto Range
VCHOFFSETENABLE	TOGGLE	T	Vch Offset Enable
VCHOFFSET	QUANT	0	Vch Offset (V)
VCHFILTER	IQUANT	3	Vch Filter
ACHRANGE	IQUANT	2	Ach Range
ACHOFFSETENABLE	TOGGLE	F	Ach Offset Enable
ACHOFFSET	QUANT	0	Ach Offset (V)
ACHFILTER	IQUANT	3	Ach Filter
IERANGELOWERLIMIT	IQUANT	2	I/E Range Lower Limit
IERANGEMODE	TOGGLE	F	I/E AutoRange
IERANGE	IQUANT	11	I/E Range
POSFEEDENABLE	TOGGLE	F	Positive Feedback IR Comp
POSFEEDRESISTANCE	QUANT	0	Positive Feedback Resistance (ohm)
ACHSELECT	IQUANT	0	Ach Select
CABLEID	IQUANT	13	Cable ID
DCCALDATE	LABEL	7/31/2020	DC Calibration Date
ACCALDATE	LABEL	7/31/2020	AC Calibration Date
THERMOSELECT	IQUANT	1	Thermo Select
FRAMEWORKVERSION	QUANT	6.33	Framework Version
INSTRUMENTVERSION	LABEL	3.50	Instrument Version
COMPLIANCEVOLTAGE	IQUANT	0	Compliance Voltage
ZCURVE	TABLE
	Pt	Time	Freq	Zreal	Zimag	Zsig	Zmod	Zphz	Idc	Vdc	IERange
	#	s	Hz	ohm	ohm	V	ohm	°	A	V	#
	0	14	300046.9	1179.634	-450.1937	1	1262.62	-20.88878	-1.65664E-005	0.0014019	9
	1	38	238359.4	1394.357	-500.025	1	1481.302	-19.72815	1.843282E-005	-0.0021313	9
	2	55	189328.1	1564.56	-503.1257	1	1643.467	-17.82657	2.700682E-005	-0.0019363	9
	3	62	150421.9	1707.386	-470.6741	1	1771.074	-15.4119	-2.113535E-005	0.001653	9
	4	68	119484.4	1874.839	-382.8795	1	1913.535	-11.54223	-7.299602E-005	0.0202385	8
	5	74	94921.88	1987.796	-342.2783	1	2017.05	-9.76995	-2.132296E-005	0.0051797	8
	6	78	75421.88	2068.286	-303.838	1	2090.485	-8.357162	1.886556E-005	-0.0083137	8
	7	81	59859.37	2195.321	-265.3377	1	2211.298	-6.891633	-2.276863E-005	0.0087206	8
	8	87	47578.12	2304.104	-239.0115	1	2316.467	-5.922279	-8.87541E-006	0.0087773	8
	9	91	37828.12	2390.852	-207.3877	1	2399.83	-4.957551	-9.024665E-006	0.0087996	8
	10	94	30046.88	2530.723	-209.4617	1	2539.377	-4.731444	1.040916E-005	0.0003658	9
	11	100	23859.38	2663.63	-155.4294	1	2668.161	-3.339562	1.713546E-005	-0.0001809	8
	12	105	18984.38	2811.745	-151.6998	1	2815.835	-3.088238	2.48412E-005	-0.0068884	8
	13	111	15046.87	2966.101	-141.1721	1	2969.458	-2.724947	-9.590536E-006	0.0091128	8
	14	116	11953.13	3129.644	-120.2176	1	3131.952	-2.199795	-9.398284E-006	0.009119	8
	15	121	9515.62	3293.735	-108.4693	1	3295.52	-1.886184	-9.892155E-006	-0.0013342	8
	16	127	7546.875	3476.064	-98.815	1	3477.468	-1.628323	-2.247943E-005	0.0053239	8
	17	132	5928.309	3679.959	-79.87232	1	3680.826	-1.243391	-9.908777E-006	-0.0014516	8
	18	137	4733.456	3881.907	-89.28333	1	3882.934	-1.317563	6.437429E-006	-0.0067748	8
	19	143	3796.875	4094.644	-77.64452	1	4095.38	-1.086339	2.244008E-005	-0.0030168	8
	20	148	2987.132	4311.144	-49.62078	1	4311.43	-0.6594388	2.419078E-005	-0.0084169	8
	21	153	2390.625	4555.489	-64.9639	1	4555.953	-0.8170154	-1.007448E-005	0.0093609	8
	22	159	1884.191	4867.123	-29.60961	1	4867.212	-0.3485601	2.581789E-005	-0.0071244	8
	23	164	1516.544	5117.292	-40.94152	1	5117.455	-0.4583921	2.266217E-005	-0.0029888	8
	24	169	1193.986	5409.217	-33.60451	1	5409.322	-0.3559428	-1.031988E-005	0.0095385	8
	25	175	946.5144	5730.569	-20.74137	1	5730.607	-0.2073769	-9.758845E-007	0.0070103	8
	26	179	751.7689	5891.346	-87.54686	1	5891.996	-0.8513668	6.691245E-006	-0.0200671	7
	27	181	597.4265	6094.83	-91.20442	1	6095.512	-0.8573232	-2.308753E-005	0.0053922	8
	28	185	477.4305	6348.21	-54.00886	1	6348.44	-0.4874453	-2.605717E-007	0.0006476	8
	29	189	376.6741	6528.659	-49.90345	1	6528.85	-0.4379462	-7.96397E-008	0.0006381	7
	30	191	298.2954	6695.135	-56.76701	1	6695.375	-0.4857904	-7.816134E-008	0.0006303	7
	31	193	237.7717	6875.075	-66.46719	1	6875.396	-0.5539097	-7.762618E-008	0.0006654	7
	32	196	189.0121	7063.073	-78.78781	1	7063.513	-0.6391017	-9.002117E-008	0.0006673	7
	33	198	150.2404	7254.964	-94.13361	1	7255.575	-0.7433746	-7.288572E-008	0.0005777	7
	34	201	119.1737	7453.646	-113.1079	1	7454.503	-0.8693877	-5.114469E-008	0.0006133	7
	35	203	95.0169	7659.465	-139.515	1	7660.736	-1.043511	-6.673731E-008	0.0005805	7
	36	205	75.60484	7884.993	-171.1787	1	7886.851	-1.243663	-8.478111E-008	0.0006922	7
	37	208	54.50582	8120.407	-229.1804	1	8123.64	-1.616617	-8.89078E-008	0.0006065	7
	38	211	45.95588	8349.457	-264.4705	1	8353.645	-1.814247	-3.065172E-008	0.000672	7
	39	213	37.20238	8574.845	-326.3214	1	8581.052	-2.179377	-1.222762E-007	0.0005912	7
	40	215	30.04808	8821.358	-390.3155	1	8829.989	-2.533494	-2.396722E-008	0.0005852	7
	41	218	23.91582	9071.729	-484.1378	1	9084.638	-3.054849	-1.256146E-007	0.0006048	7
	42	220	18.60119	9349.108	-616.9936	1	9369.445	-3.775755	5.375771E-008	0.0005783	7
	43	222	15.02404	9592.03	-734.0511	1	9620.07	-4.376156	-1.351608E-007	0.0006525	7
	44	225	12.01923	9883.51	-890.7648	1	9923.57	-5.149948	4.923156E-008	0.000672	7
	45	227	9.450605	10177.2	-1129.362	1	10239.67	-6.332192	-2.013055E-007	0.0006762	7
	46	230	7.512019	10523.08	-1409.027	1	10617	-7.626467	-1.848539E-007	0.0006723	7
	47	232	5.978954	10949.76	-1762.754	1	11090.75	-9.145326	-1.409802E-007	0.0005913	7
	48	235	4.734848	11431.56	-2172.582	1	11636.18	-10.7608	-1.008684E-007	0.0005897	7
	49	239	3.75601	12020.98	-2689.248	1	12318.12	-12.61017	-1.012203E-007	0.000654	7
	50	242	3.004808	12621.13	-3303.707	1	13046.36	-14.66863	-4.114659E-008	0.0006196	7
	51	246	2.372217	13403.61	-4064.444	1	14006.3	-16.86914	-9.640263E-008	0.0005781	7
	52	250	1.878005	14303.37	-5041.882	1	15165.98	-19.41735	-8.400283E-008	0.0006317	7
	53	255	1.512097	15384.2	-6142.898	1	16565.29	-21.76678	-7.387789E-008	0.0005178	7
	54	260	1.201923	16769.23	-7628.534	1	18422.85	-24.46139	-8.680585E-008	0.0006832	7
	55	266	0.956633	18403.42	-9411.978	1	20670.54	-27.08635	-8.843029E-008	3.653399E-005	7
