EXPLAIN
TAG	EISPOT
TITLE	LABEL	Potentiostatic EIS	Test Identifier
DATE	LABEL	8/29/2020	Date
TIME	LABEL	22:57:07	Time
NOTES	NOTES	1	Notes...
	
PSTAT	PSTAT	REF3000-16137	Potentiostat
VDC	POTEN	0.00000E+000	T	DC Voltage (V)
FREQINIT	QUANT	3.00000E+005	Initial Freq. (Hz)
FREQFINAL	QUANT	1.00000E+000	Final Freq. (Hz)
PTSPERDEC	QUANT	1.00000E+001	Points/decade
VAC	QUANT	5.00000E+001	AC Voltage (mV rms)
AREA	QUANT	1.00000E+000	Sample Area (cm^2)
SPEED	SELECTOR	2	Optimize for:
ZGUESS	QUANT	1.00000E+003	Estimated Z (ohms)
EOC	QUANT	0	Open Circuit (V)
SEQUENCER	TOGGLE	TRUE	Run as Sequence
PSTATMODEL	IQUANT	5	Pstat Model
PSTATSECTION	LABEL	REF3000-16137	Pstat Section
PSTATSERIALNO	LABEL	16137	Pstat Serial Number
CTRLMODE	IQUANT	1	Control Mode
IESTAB	IQUANT	0	I/E Stability
CASPEED	IQUANT	1	Control Amp Speed
CONVENTION	IQUANT	1	Current Convention
ICHRANGE	IQUANT	2	Ich Range
ICHRANGEMODE	TOGGLE	F	Ich Auto Range
ICHOFFSETENABLE	TOGGLE	T	Ich Offset Enable
ICHOFFSET	QUANT	0	Ich Offset (V)
ICHFILTER	IQUANT	3	Ich Filter
VCHRANGE	IQUANT	2	Vch Range
VCHRANGEMODE	TOGGLE	F	Vch Auto Range
VCHOFFSETENABLE	TOGGLE	T	Vch Offset Enable
VCHOFFSET	QUANT	0	Vch Offset (V)
VCHFILTER	IQUANT	3	Vch Filter
ACHRANGE	IQUANT	2	Ach Range
ACHOFFSETENABLE	TOGGLE	F	Ach Offset Enable
ACHOFFSET	QUANT	0	Ach Offset (V)
ACHFILTER	IQUANT	3	Ach Filter
IERANGELOWERLIMIT	IQUANT	2	I/E Range Lower Limit
IERANGEMODE	TOGGLE	F	I/E AutoRange
IERANGE	IQUANT	11	I/E Range
POSFEEDENABLE	TOGGLE	F	Positive Feedback IR Comp
POSFEEDRESISTANCE	QUANT	0	Positive Feedback Resistance (ohm)
ACHSELECT	IQUANT	0	Ach Select
CABLEID	IQUANT	13	Cable ID
DCCALDATE	LABEL	7/31/2020	DC Calibration Date
ACCALDATE	LABEL	7/31/2020	AC Calibration Date
THERMOSELECT	IQUANT	1	Thermo Select
FRAMEWORKVERSION	QUANT	6.33	Framework Version
INSTRUMENTVERSION	LABEL	3.50	Instrument Version
COMPLIANCEVOLTAGE	IQUANT	0	Compliance Voltage
ZCURVE	TABLE
	Pt	Time	Freq	Zreal	Zimag	Zsig	Zmod	Zphz	Idc	Vdc	IERange
	#	s	Hz	ohm	ohm	V	ohm	°	A	V	#
	0	7	300046.9	104.7313	-0.3481838	1	104.7319	-0.1904816	9.495852E-006	-0.0010873	9
	1	10	238359.4	106.6305	-0.2807621	1	106.6309	-0.1508616	7.004948E-005	-0.0024751	9
	2	13	189328.1	108.2452	-0.4190159	1	108.246	-0.2217902	-1.305005E-005	0.0009714	9
	3	16	150421.9	109.882	-0.4709579	1	109.883	-0.2455701	-1.394076E-006	-0.0011225	9
	4	18	119484.4	111.7562	-0.5445967	1	111.7576	-0.2792045	-1.280753E-005	0.0012408	9
	5	21	94921.88	113.3406	-0.3008776	1	113.341	-0.1520988	-1.461186E-005	0.0001364	9
	6	23	75421.88	115.0007	-0.4285076	1	115.0015	-0.2134905	-3.227276E-006	-0.0002722	9
	7	26	59859.37	116.6407	-0.4835935	1	116.6417	-0.2375475	-9.498525E-006	-2.712264E-005	9
	8	29	47578.12	118.3621	-0.5169925	1	118.3632	-0.2502601	-1.648565E-005	0.0003505	9
	9	31	37828.12	120.0683	-0.6284294	1	120.07	-0.2998794	-7.903462E-006	0.0007878	9
	10	34	30046.88	121.7869	-0.6013091	1	121.7884	-0.2828891	5.689692E-006	-0.0005196	9
	11	36	23859.38	123.5341	-0.7126124	1	123.5361	-0.3305098	6.54353E-006	-0.0005306	9
	12	38	18984.38	125.1455	-0.7543018	1	125.1477	-0.3453405	1.86745E-005	-0.0006877	9
	13	41	15046.87	126.7241	-0.954585	1	126.7277	-0.4315887	2.455668E-005	-0.0006025	9
	14	43	11953.13	128.4111	-1.017749	1	128.4152	-0.4540998	2.301571E-005	-0.0002339	9
	15	45	9515.62	130.2449	-1.259712	1	130.251	-0.5541401	2.270167E-005	-0.0002731	9
	16	48	7546.875	131.9798	-1.537396	1	131.9888	-0.6673926	-2.391571E-005	0.0008713	9
	17	50	5928.309	133.8476	-1.742897	1	133.859	-0.746035	-1.443031E-005	0.0001618	9
	18	52	4733.456	135.6831	-2.307383	1	135.7027	-0.974259	2.35884E-005	-0.0002682	9
	19	55	3796.875	137.4707	-2.841955	1	137.5	-1.184317	6.832726E-006	-0.0005228	9
	20	57	2987.132	139.3794	-3.397461	1	139.4208	-1.396345	1.184794E-005	0.0002203	9
	21	59	2390.625	141.4196	-4.10549	1	141.4792	-1.662861	2.537302E-005	-0.000463	9
	22	62	1884.191	143.3648	-4.952284	1	143.4503	-1.978395	2.186854E-006	0.0005497	9
	23	64	1516.544	145.3407	-6.293237	1	145.4769	-2.479353	-2.072699E-005	0.0005008	9
	24	66	1193.986	147.6872	-7.815728	1	147.8939	-3.029314	-2.172629E-005	0.0008373	9
	25	69	946.5144	149.971	-9.74879	1	150.2875	-3.719252	-9.098947E-006	-6.032133E-005	9
	26	71	751.7689	152.2183	-12.34014	1	152.7177	-4.634758	5.790788E-006	-0.0005323	9
	27	73	597.4265	154.6328	-15.08567	1	155.3669	-5.57203	1.921008E-005	-6.098547E-005	9
	28	76	477.4305	157.2117	-18.48572	1	158.2948	-6.70632	1.181138E-006	7.600577E-005	9
	29	78	376.6741	159.9329	-23.05884	1	161.5866	-8.204268	1.141557E-006	7.691733E-005	9
	30	80	298.2954	162.8639	-28.64987	1	165.3647	-9.97699	1.255612E-006	7.788074E-005	9
	31	83	237.7717	166.0725	-35.3737	1	169.798	-12.02439	1.257977E-006	7.667694E-005	9
	32	85	189.0121	169.6041	-43.7568	1	175.1577	-14.4665	1.205723E-006	7.747578E-005	9
	33	87	150.2404	173.5164	-54.08593	1	181.7504	-17.31252	1.215229E-006	8.175677E-005	9
	34	90	119.1737	177.9008	-66.9275	1	190.0736	-20.61664	1.172815E-006	7.468289E-005	9
	35	92	95.0169	182.7702	-82.34343	1	200.463	-24.25298	1.192304E-006	7.092355E-005	9
	36	95	75.60484	188.4396	-101.4251	1	214.0012	-28.29078	1.11249E-006	7.18376E-005	9
	37	97	54.50582	196.7655	-136.4411	1	239.4428	-34.73819	1.178676E-006	6.622639E-005	9
	38	100	45.95588	203.0852	-159.3751	1	258.155	-38.12374	1.248428E-006	8.462629E-005	9
	39	102	37.20238	210.9592	-193.0041	1	285.9272	-42.45502	1.265325E-006	8.133324E-005	9
	40	104	30.04808	220.2127	-234.3134	1	321.5531	-46.77692	1.27621E-006	8.109232E-005	9
	41	107	23.91582	231.5118	-288.2625	1	369.7201	-51.23107	1.243201E-006	7.3728E-005	9
	42	109	18.60119	244.9303	-360.7173	1	436.0135	-55.82314	7.449484E-008	0.0006649	8
	43	112	15.02404	260.1085	-438.1307	1	509.5242	-59.30333	1.891317E-008	0.0006533	8
	44	114	12.01923	279.5075	-536.7717	1	605.1845	-62.49313	1.734326E-007	0.0006541	8
	45	116	9.450605	304.8399	-667.8045	1	734.0914	-65.46421	4.607988E-008	0.0006619	8
	46	119	7.512019	335.0237	-822.0731	1	887.7191	-67.82738	2.837957E-008	0.0006431	8
	47	122	5.978954	372.1311	-1010.987	1	1077.3	-69.79199	6.819741E-008	0.000657	8
	48	125	4.734848	418.6995	-1248.848	1	1317.168	-71.46532	3.632983E-008	0.0006376	8
	49	128	3.75601	476.8366	-1539.139	1	1611.31	-72.78663	1.162402E-007	0.0006669	8
	50	131	3.004808	545.268	-1881.254	1	1958.681	-73.83614	7.166368E-008	0.000672	8
	51	135	2.372217	634.5353	-2327.211	1	2412.166	-74.74851	6.0982E-008	0.0006949	8
	52	139	1.878005	750.3364	-2876.341	1	2972.599	-75.37938	8.922917E-008	0.0006334	8
	53	144	1.512097	881.4353	-3499.74	1	3609.032	-75.86364	6.9533E-008	0.0007517	8
	54	149	1.201923	1056.48	-4320.532	1	4447.825	-76.25935	1.11874E-008	0.0006104	7
	55	156	0.956633	1268.702	-5312.199	1	5461.599	-76.56777	-2.702707E-008	-1.11071E-005	7
