EXPLAIN
TAG	EISPOT
TITLE	LABEL	Potentiostatic EIS	Test Identifier
DATE	LABEL	8/29/2020	Date
TIME	LABEL	22:46:00	Time
NOTES	NOTES	1	Notes...
	
PSTAT	PSTAT	REF3000-16137	Potentiostat
VDC	POTEN	0.00000E+000	T	DC Voltage (V)
FREQINIT	QUANT	3.00000E+005	Initial Freq. (Hz)
FREQFINAL	QUANT	1.00000E+000	Final Freq. (Hz)
PTSPERDEC	QUANT	1.00000E+001	Points/decade
VAC	QUANT	5.00000E+001	AC Voltage (mV rms)
AREA	QUANT	1.00000E+000	Sample Area (cm^2)
SPEED	SELECTOR	2	Optimize for:
ZGUESS	QUANT	1.00000E+003	Estimated Z (ohms)
EOC	QUANT	0	Open Circuit (V)
SEQUENCER	TOGGLE	TRUE	Run as Sequence
PSTATMODEL	IQUANT	5	Pstat Model
PSTATSECTION	LABEL	REF3000-16137	Pstat Section
PSTATSERIALNO	LABEL	16137	Pstat Serial Number
CTRLMODE	IQUANT	1	Control Mode
IESTAB	IQUANT	0	I/E Stability
CASPEED	IQUANT	1	Control Amp Speed
CONVENTION	IQUANT	1	Current Convention
ICHRANGE	IQUANT	2	Ich Range
ICHRANGEMODE	TOGGLE	F	Ich Auto Range
ICHOFFSETENABLE	TOGGLE	T	Ich Offset Enable
ICHOFFSET	QUANT	0	Ich Offset (V)
ICHFILTER	IQUANT	3	Ich Filter
VCHRANGE	IQUANT	2	Vch Range
VCHRANGEMODE	TOGGLE	F	Vch Auto Range
VCHOFFSETENABLE	TOGGLE	T	Vch Offset Enable
VCHOFFSET	QUANT	0	Vch Offset (V)
VCHFILTER	IQUANT	3	Vch Filter
ACHRANGE	IQUANT	2	Ach Range
ACHOFFSETENABLE	TOGGLE	F	Ach Offset Enable
ACHOFFSET	QUANT	0	Ach Offset (V)
ACHFILTER	IQUANT	3	Ach Filter
IERANGELOWERLIMIT	IQUANT	2	I/E Range Lower Limit
IERANGEMODE	TOGGLE	F	I/E AutoRange
IERANGE	IQUANT	11	I/E Range
POSFEEDENABLE	TOGGLE	F	Positive Feedback IR Comp
POSFEEDRESISTANCE	QUANT	0	Positive Feedback Resistance (ohm)
ACHSELECT	IQUANT	0	Ach Select
CABLEID	IQUANT	13	Cable ID
DCCALDATE	LABEL	7/31/2020	DC Calibration Date
ACCALDATE	LABEL	7/31/2020	AC Calibration Date
THERMOSELECT	IQUANT	1	Thermo Select
FRAMEWORKVERSION	QUANT	6.33	Framework Version
INSTRUMENTVERSION	LABEL	3.50	Instrument Version
COMPLIANCEVOLTAGE	IQUANT	0	Compliance Voltage
ZCURVE	TABLE
	Pt	Time	Freq	Zreal	Zimag	Zsig	Zmod	Zphz	Idc	Vdc	IERange
	#	s	Hz	ohm	ohm	V	ohm	°	A	V	#
	0	8	300046.9	9.341649	1.78771	1	9.51117	10.8337	6.603293E-005	6.145472E-005	10
	1	11	238359.4	9.39103	1.434311	1	9.499931	8.683795	-0.000105	0.0001503	10
	2	14	189328.1	9.435363	1.1333	1	9.50318	6.849097	1.127518E-005	0.0002746	10
	3	17	150421.9	9.489783	0.8859674	1	9.53105	5.333681	-4.633318E-005	0.0005721	10
	4	19	119484.4	9.52486	0.6832759	1	9.54933	4.103146	7.363316E-005	0.0003425	10
	5	22	94921.88	9.57761	0.5401157	1	9.59282	3.227697	-1.627428E-005	0.0006106	10
	6	25	75421.88	9.6267	0.3879008	1	9.63451	2.307444	-5.649343E-006	0.0006585	10
	7	27	59859.37	9.68209	0.2526763	1	9.68539	1.494925	2.274873E-005	0.0006348	10
	8	30	47578.12	9.74089	0.1364571	1	9.74185	0.8025863	2.165507E-005	0.000649	10
	9	32	37828.12	9.80093	0.029733	1	9.80098	0.1738174	1.876895E-005	0.0006694	10
	10	35	30046.88	9.86259	-0.0754273	1	9.86288	-0.4381793	1.16336E-005	0.0006036	10
	11	37	23859.38	9.92392	-0.1833411	1	9.92561	-1.058401	2.170975E-005	0.0006284	10
	12	40	18984.38	9.98636	-0.2984285	1	9.99082	-1.711696	-3.022823E-005	0.0006518	10
	13	42	15046.87	10.05072	-0.4306732	1	10.05994	-2.453623	1.491965E-005	0.0006401	10
	14	44	11953.13	10.11942	-0.579756	1	10.13601	-3.278974	1.641404E-005	0.0006174	10
	15	46	9515.62	10.19173	-0.7566003	1	10.21977	-4.245661	-1.323512E-005	0.0006484	10
	16	49	7546.875	10.27018	-0.968679	1	10.31576	-5.388175	2.161049E-005	0.0006351	10
	17	51	5928.309	10.3554	-1.241087	1	10.4295	-6.834263	-2.847452E-005	0.0006895	10
	18	53	4733.456	10.44508	-1.550876	1	10.55959	-8.445523	-2.575678E-005	0.0007417	10
	19	56	3796.875	10.54344	-1.920567	1	10.71693	-10.32367	-2.46608E-005	0.000763	10
	20	58	2987.132	10.6582	-2.420793	1	10.92966	-12.79647	-1.458899E-005	0.0007071	10
	21	60	2390.625	10.78157	-2.992401	1	11.18914	-15.51187	2.19971E-005	0.0006452	10
	22	63	1884.191	10.93108	-3.74432	1	11.55458	-18.90833	-2.531858E-005	0.0006823	10
	23	65	1516.544	11.0926	-4.59012	1	12.00479	-22.47979	2.199868E-005	0.0006434	10
	24	67	1193.986	11.29446	-5.7399	1	12.6693	-26.93991	-1.550001E-005	0.0007055	10
	25	70	946.5144	11.52894	-7.128819	1	13.55495	-31.7302	2.44727E-005	0.0006744	10
	26	72	751.7689	11.8065	-8.831158	1	14.7439	-36.79617	-2.646048E-005	0.0007059	10
	27	74	597.4265	12.13905	-10.92545	1	16.33163	-41.98802	-4.538973E-006	0.0006464	10
	28	77	477.4305	12.53114	-13.4584	1	18.38907	-47.04334	-2.633688E-006	0.0006692	10
	29	79	376.6741	13.04366	-16.76798	1	21.24388	-52.12098	-2.210143E-006	0.0006659	10
	30	81	298.2954	13.6783	-20.81222	1	24.90471	-56.68609	-2.398514E-006	0.0006731	10
	31	84	237.7717	14.46482	-25.66629	1	29.46166	-60.59558	-2.345396E-006	0.0006767	10
	32	86	189.0121	15.46571	-31.70345	1	35.27459	-63.99576	-2.177098E-006	0.0006713	10
	33	88	150.2404	16.71419	-39.07992	1	42.50417	-66.84396	9.405089E-007	6.70564E-005	9
	34	91	119.1737	18.32649	-48.26877	1	51.63075	-69.20944	1.01355E-006	6.840398E-005	9
	35	93	95.0169	20.30914	-59.2823	1	62.6646	-71.08939	9.164928E-007	7.873549E-005	9
	36	96	75.60484	22.80406	-72.88138	1	76.3657	-72.62547	9.353951E-007	7.498619E-005	9
	37	98	54.50582	27.4536	-97.8052	1	101.5852	-74.32074	9.805482E-007	6.711491E-005	9
	38	101	45.95588	30.57504	-114.0258	1	118.0539	-74.98973	1.007341E-006	7.765789E-005	9
	39	103	37.20238	35.2113	-137.7673	1	142.1959	-75.66297	1.018139E-006	7.16752E-005	9
	40	105	30.04808	41.01817	-166.8051	1	171.7743	-76.18481	9.074396E-007	7.119012E-005	9
	41	108	23.91582	48.78485	-204.4192	1	210.1599	-76.57737	1.108817E-006	6.704086E-005	9
	42	110	18.60119	59.81112	-255.6692	1	262.5721	-76.83305	9.039912E-007	6.697788E-005	9
	43	112	15.02404	71.81157	-308.9216	1	317.1584	-76.9135	1.015124E-006	7.700401E-005	9
	44	115	12.01923	87.74651	-376.0316	1	386.1337	-76.86514	1.16347E-006	6.749901E-005	9
	45	117	9.450605	109.1756	-462.2751	1	474.9922	-76.71193	3.674013E-007	0.0006408	8
	46	120	7.512019	135.7455	-564.461	1	580.5541	-76.47789	3.156739E-007	0.0006465	8
	47	122	5.978954	169.3559	-686.9867	1	707.5536	-76.15157	3.589236E-007	0.0006553	8
	48	126	4.734848	213.0746	-838.5961	1	865.2423	-75.74369	3.749012E-007	0.0006843	8
	49	129	3.75601	267.4094	-1020.647	1	1055.096	-75.31851	2.924481E-007	0.0006402	8
	50	132	3.004808	332.749	-1231.046	1	1275.224	-74.87453	3.133842E-007	0.000687	8
	51	136	2.372217	420.9607	-1499.071	1	1557.056	-74.3145	3.522476E-007	0.0007219	8
	52	140	1.878005	526.267	-1823.064	1	1897.503	-73.89806	3.099026E-007	0.0006343	8
	53	145	1.512097	646.4717	-2176.807	1	2270.774	-73.45954	3.717127E-007	0.0006596	8
	54	150	1.201923	809.3329	-2639.914	1	2761.189	-72.95574	3.498699E-007	0.0006173	8
	55	157	0.956633	1010.442	-3189.482	1	3345.712	-72.42157	3.198138E-007	8.480633E-006	8
