EXPLAIN
TAG	EISPOT
TITLE	LABEL	Potentiostatic EIS	Test Identifier
DATE	LABEL	8/29/2020	Date
TIME	LABEL	22:54:22	Time
NOTES	NOTES	1	Notes...
	
PSTAT	PSTAT	REF3000-16137	Potentiostat
VDC	POTEN	0.00000E+000	T	DC Voltage (V)
FREQINIT	QUANT	3.00000E+005	Initial Freq. (Hz)
FREQFINAL	QUANT	1.00000E+000	Final Freq. (Hz)
PTSPERDEC	QUANT	1.00000E+001	Points/decade
VAC	QUANT	5.00000E+001	AC Voltage (mV rms)
AREA	QUANT	1.00000E+000	Sample Area (cm^2)
SPEED	SELECTOR	2	Optimize for:
ZGUESS	QUANT	1.00000E+003	Estimated Z (ohms)
EOC	QUANT	0	Open Circuit (V)
SEQUENCER	TOGGLE	TRUE	Run as Sequence
PSTATMODEL	IQUANT	5	Pstat Model
PSTATSECTION	LABEL	REF3000-16137	Pstat Section
PSTATSERIALNO	LABEL	16137	Pstat Serial Number
CTRLMODE	IQUANT	1	Control Mode
IESTAB	IQUANT	0	I/E Stability
CASPEED	IQUANT	1	Control Amp Speed
CONVENTION	IQUANT	1	Current Convention
ICHRANGE	IQUANT	2	Ich Range
ICHRANGEMODE	TOGGLE	F	Ich Auto Range
ICHOFFSETENABLE	TOGGLE	T	Ich Offset Enable
ICHOFFSET	QUANT	0	Ich Offset (V)
ICHFILTER	IQUANT	3	Ich Filter
VCHRANGE	IQUANT	2	Vch Range
VCHRANGEMODE	TOGGLE	F	Vch Auto Range
VCHOFFSETENABLE	TOGGLE	T	Vch Offset Enable
VCHOFFSET	QUANT	0	Vch Offset (V)
VCHFILTER	IQUANT	3	Vch Filter
ACHRANGE	IQUANT	2	Ach Range
ACHOFFSETENABLE	TOGGLE	F	Ach Offset Enable
ACHOFFSET	QUANT	0	Ach Offset (V)
ACHFILTER	IQUANT	3	Ach Filter
IERANGELOWERLIMIT	IQUANT	2	I/E Range Lower Limit
IERANGEMODE	TOGGLE	F	I/E AutoRange
IERANGE	IQUANT	11	I/E Range
POSFEEDENABLE	TOGGLE	F	Positive Feedback IR Comp
POSFEEDRESISTANCE	QUANT	0	Positive Feedback Resistance (ohm)
ACHSELECT	IQUANT	0	Ach Select
CABLEID	IQUANT	13	Cable ID
DCCALDATE	LABEL	7/31/2020	DC Calibration Date
ACCALDATE	LABEL	7/31/2020	AC Calibration Date
THERMOSELECT	IQUANT	1	Thermo Select
FRAMEWORKVERSION	QUANT	6.33	Framework Version
INSTRUMENTVERSION	LABEL	3.50	Instrument Version
COMPLIANCEVOLTAGE	IQUANT	0	Compliance Voltage
ZCURVE	TABLE
	Pt	Time	Freq	Zreal	Zimag	Zsig	Zmod	Zphz	Idc	Vdc	IERange
	#	s	Hz	ohm	ohm	V	ohm	°	A	V	#
	0	6	300046.9	47.22128	1.756901	1	47.25395	2.130747	1.079254E-005	-0.0013798	9
	1	10	238359.4	47.84263	1.397921	1	47.86305	1.673658	-6.274595E-005	0.0017112	9
	2	13	189328.1	48.49464	1.08546	1	48.50679	1.282242	4.182514E-005	-0.000759	9
	3	15	150421.9	49.07853	0.8696635	1	49.08624	1.015166	5.559547E-005	-0.001863	9
	4	18	119484.4	49.59538	0.5893613	1	49.59888	0.6808362	8.930309E-006	-0.0008786	9
	5	20	94921.88	50.21942	0.6341264	1	50.22342	0.723442	3.136087E-006	0.0002336	9
	6	23	75421.88	50.7566	0.4414971	1	50.75852	0.4983644	1.828938E-005	-0.0006061	9
	7	25	59859.37	51.33136	0.2571816	1	51.332	0.2870623	-1.684139E-005	0.0003862	9
	8	28	47578.12	51.92167	0.1064106	1	51.92178	0.1174243	-1.520965E-005	0.0003407	9
	9	30	37828.12	52.50177	-0.0438103	1	52.50179	-0.0478106	3.71562E-006	0.0002732	9
	10	33	30046.88	53.13935	-0.1629274	1	53.1396	-0.1756707	-4.434927E-006	0.0005054	9
	11	35	23859.38	53.72707	-0.3112805	1	53.72797	-0.3319529	-1.300176E-005	0.0002293	9
	12	38	18984.38	54.33697	-0.4321537	1	54.33869	-0.4556761	1.722086E-005	-0.0005805	9
	13	40	15046.87	54.92862	-0.5321529	1	54.9312	-0.5550688	-1.504925E-005	0.0002025	9
	14	42	11953.13	55.50618	-0.7502545	1	55.51125	-0.7743967	-1.713704E-005	0.0005275	9
	15	45	9515.62	56.13309	-0.972299	1	56.14151	-0.992339	2.048903E-005	-0.0003926	9
	16	47	7546.875	56.76068	-1.226151	1	56.77393	-1.237517	-1.536836E-005	0.0006451	9
	17	49	5928.309	57.39204	-1.552649	1	57.41304	-1.549666	2.084721E-005	-0.0003898	9
	18	52	4733.456	58.04982	-1.923803	1	58.08168	-1.898119	-1.275904E-005	0.0001988	9
	19	54	3796.875	58.72711	-2.399238	1	58.7761	-2.339462	-1.251164E-005	0.0002182	9
	20	56	2987.132	59.4396	-2.995476	1	59.51503	-2.884997	1.958341E-005	-0.0002294	9
	21	59	2390.625	60.1603	-3.689314	1	60.27332	-3.509253	-1.667935E-005	0.0006296	9
	22	61	1884.191	60.88273	-4.566522	1	61.05375	-4.289451	4.664074E-006	-0.0003787	9
	23	63	1516.544	61.69669	-5.645252	1	61.95443	-5.228011	3.863592E-006	-0.0003557	9
	24	65	1193.986	62.56096	-7.100394	1	62.9626	-6.475112	1.068731E-005	0.0001347	9
	25	68	946.5144	63.47421	-8.844357	1	64.08743	-7.932395	1.059531E-005	0.0000968	9
	26	70	751.7689	64.39853	-10.93504	1	65.32033	-9.63705	-1.749022E-005	0.0007018	9
	27	73	597.4265	65.45113	-13.55334	1	66.83969	-11.69922	-1.687378E-005	0.0006839	9
	28	75	477.4305	66.57262	-16.68043	1	68.63054	-14.06643	1.356906E-006	7.789796E-005	9
	29	77	376.6741	67.85784	-20.78189	1	70.96882	-17.02754	1.220457E-006	9.233381E-005	9
	30	80	298.2954	69.28289	-25.78251	1	73.92467	-20.41194	1.347963E-006	8.366191E-005	9
	31	82	237.7717	70.91244	-31.77407	1	77.70564	-24.13594	1.353505E-006	7.604048E-005	9
	32	84	189.0121	72.77592	-39.231	1	82.67651	-28.32758	1.313819E-006	7.722203E-005	9
	33	87	150.2404	74.91116	-48.4086	1	89.19122	-32.87109	1.338263E-006	8.28958E-005	9
	34	89	119.1737	77.3952	-59.82704	1	97.8228	-37.70428	1.323682E-006	8.29544E-005	9
	35	91	95.0169	80.24712	-73.59021	1	108.8812	-42.52222	1.349434E-006	7.535397E-005	9
	36	94	75.60484	83.64702	-90.69431	1	123.3786	-47.31477	1.27849E-006	7.839964E-005	9
	37	96	54.50582	89.27578	-122.2867	1	151.4074	-53.86858	1.225936E-006	8.480006E-005	9
	38	99	45.95588	93.32363	-143.0143	1	170.77	-56.87364	1.265523E-006	8.189971E-005	9
	39	101	37.20238	98.9402	-173.5108	1	199.7377	-60.30714	1.271539E-006	8.134304E-005	9
	40	104	30.04808	105.8738	-210.9249	1	236.0054	-63.34563	1.177405E-006	9.038934E-005	9
	41	106	23.91582	114.894	-259.7174	1	283.9961	-66.13632	1.341507E-006	8.858718E-005	9
	42	108	18.60119	127.1656	-326.2753	1	350.1809	-68.70668	1.384847E-006	8.951684E-005	9
	43	111	15.02404	140.3339	-395.7755	1	419.9189	-70.47653	1.22836E-006	8.068893E-005	9
	44	113	12.01923	156.5027	-482.0827	1	506.8499	-72.01456	2.042368E-007	0.0006545	8
	45	115	9.450605	178.6666	-598.7322	1	624.8216	-73.38446	2.293068E-007	0.000668	8
	46	118	7.512019	205.1307	-735.6104	1	763.6761	-74.41846	2.493775E-007	0.0006379	8
	47	121	5.978954	238.0082	-903.1324	1	933.968	-75.23616	3.271545E-007	0.0006612	8
	48	124	4.734848	279.4436	-1113.977	1	1148.492	-75.91782	2.481923E-007	0.0006316	8
	49	127	3.75601	332.0553	-1371.318	1	1410.948	-76.38821	3.514002E-007	0.0006708	8
	50	130	3.004808	395.5384	-1674.365	1	1720.45	-76.70858	2.663905E-007	0.0006879	8
	51	134	2.372217	479.5466	-2067.174	1	2122.068	-76.93945	2.963486E-007	0.000693	8
	52	138	1.878005	590.3953	-2548.23	1	2615.73	-76.95539	3.022291E-007	0.0006352	8
	53	143	1.512097	718.7365	-3090.889	1	3173.354	-76.90942	2.994465E-007	0.0007619	8
	54	148	1.201923	885.9401	-3793.5	1	3895.579	-76.85466	2.994639E-007	0.0006298	8
	55	155	0.956633	1096.859	-4655.396	1	4782.867	-76.74231	-1.294953E-008	-4.404608E-006	7
