EXPLAIN
TAG	EISPOT
TITLE	LABEL	Potentiostatic EIS	Test Identifier
DATE	LABEL	8/29/2020	Date
TIME	LABEL	22:48:46	Time
NOTES	NOTES	1	Notes...
	
PSTAT	PSTAT	REF3000-16137	Potentiostat
VDC	POTEN	0.00000E+000	T	DC Voltage (V)
FREQINIT	QUANT	3.00000E+005	Initial Freq. (Hz)
FREQFINAL	QUANT	1.00000E+000	Final Freq. (Hz)
PTSPERDEC	QUANT	1.00000E+001	Points/decade
VAC	QUANT	5.00000E+001	AC Voltage (mV rms)
AREA	QUANT	1.00000E+000	Sample Area (cm^2)
SPEED	SELECTOR	2	Optimize for:
ZGUESS	QUANT	1.00000E+003	Estimated Z (ohms)
EOC	QUANT	0	Open Circuit (V)
SEQUENCER	TOGGLE	TRUE	Run as Sequence
PSTATMODEL	IQUANT	5	Pstat Model
PSTATSECTION	LABEL	REF3000-16137	Pstat Section
PSTATSERIALNO	LABEL	16137	Pstat Serial Number
CTRLMODE	IQUANT	1	Control Mode
IESTAB	IQUANT	0	I/E Stability
CASPEED	IQUANT	1	Control Amp Speed
CONVENTION	IQUANT	1	Current Convention
ICHRANGE	IQUANT	2	Ich Range
ICHRANGEMODE	TOGGLE	F	Ich Auto Range
ICHOFFSETENABLE	TOGGLE	T	Ich Offset Enable
ICHOFFSET	QUANT	0	Ich Offset (V)
ICHFILTER	IQUANT	3	Ich Filter
VCHRANGE	IQUANT	2	Vch Range
VCHRANGEMODE	TOGGLE	F	Vch Auto Range
VCHOFFSETENABLE	TOGGLE	T	Vch Offset Enable
VCHOFFSET	QUANT	0	Vch Offset (V)
VCHFILTER	IQUANT	3	Vch Filter
ACHRANGE	IQUANT	2	Ach Range
ACHOFFSETENABLE	TOGGLE	F	Ach Offset Enable
ACHOFFSET	QUANT	0	Ach Offset (V)
ACHFILTER	IQUANT	3	Ach Filter
IERANGELOWERLIMIT	IQUANT	2	I/E Range Lower Limit
IERANGEMODE	TOGGLE	F	I/E AutoRange
IERANGE	IQUANT	11	I/E Range
POSFEEDENABLE	TOGGLE	F	Positive Feedback IR Comp
POSFEEDRESISTANCE	QUANT	0	Positive Feedback Resistance (ohm)
ACHSELECT	IQUANT	0	Ach Select
CABLEID	IQUANT	13	Cable ID
DCCALDATE	LABEL	7/31/2020	DC Calibration Date
ACCALDATE	LABEL	7/31/2020	AC Calibration Date
THERMOSELECT	IQUANT	1	Thermo Select
FRAMEWORKVERSION	QUANT	6.33	Framework Version
INSTRUMENTVERSION	LABEL	3.50	Instrument Version
COMPLIANCEVOLTAGE	IQUANT	0	Compliance Voltage
ZCURVE	TABLE
	Pt	Time	Freq	Zreal	Zimag	Zsig	Zmod	Zphz	Idc	Vdc	IERange
	#	s	Hz	ohm	ohm	V	ohm	°	A	V	#
	0	8	300046.9	14.28759	1.734047	1	14.39244	6.919991	-2.96298E-005	0.0002196	10
	1	11	238359.4	14.41506	1.377025	1	14.48069	5.456725	-8.602331E-005	0.0003715	10
	2	14	189328.1	14.52049	1.077223	1	14.56039	4.242797	6.459436E-005	0.000338	10
	3	17	150421.9	14.62556	0.8482594	1	14.65014	3.319347	7.8227E-006	0.0006946	10
	4	19	119484.4	14.71584	0.6468621	1	14.73005	2.516922	6.608474E-005	0.0005555	10
	5	22	94921.88	14.81619	0.5014603	1	14.82467	1.938461	9.354027E-006	0.0006566	10
	6	24	75421.88	14.92302	0.3519041	1	14.92716	1.350859	1.758772E-005	0.0005913	10
	7	27	59859.37	15.03428	0.2232297	1	15.03594	0.850668	-3.010919E-005	0.0006297	10
	8	29	47578.12	15.14869	0.1098243	1	15.14909	0.415373	-1.73571E-005	0.0006611	10
	9	32	37828.12	15.26373	0.0044084	1	15.26373	0.0165478	-2.287775E-005	0.0006862	10
	10	34	30046.88	15.3811	-0.1020671	1	15.38144	-0.380202	1.29135E-005	0.0006075	10
	11	37	23859.38	15.49836	-0.2131301	1	15.49983	-0.7878693	2.168075E-005	0.000626	10
	12	39	18984.38	15.61237	-0.3308113	1	15.61588	-1.213861	-4.136679E-006	0.0006336	10
	13	42	15046.87	15.73209	-0.4675916	1	15.73904	-1.702452	1.991448E-005	0.0006052	10
	14	44	11953.13	15.85622	-0.6248145	1	15.86853	-2.256573	-2.476547E-005	0.0007294	10
	15	46	9515.62	15.98236	-0.8081156	1	16.00278	-2.89458	1.806698E-005	0.0006978	10
	16	48	7546.875	16.11778	-1.034652	1	16.15096	-3.672958	-2.459438E-005	0.0007482	10
	17	51	5928.309	16.26	-1.318096	1	16.31334	-4.634476	-2.75129E-005	0.0007065	10
	18	53	4733.456	16.40922	-1.646642	1	16.49163	-5.730367	-2.894482E-005	0.0006995	10
	19	55	3796.875	16.56243	-2.037117	1	16.68724	-7.011951	2.263225E-005	0.0006329	10
	20	58	2987.132	16.73883	-2.562266	1	16.9338	-8.702892	2.205261E-005	0.0006379	10
	21	60	2390.625	16.92275	-3.165279	1	17.21623	-10.59435	5.641441E-006	0.0006167	10
	22	62	1884.191	17.13219	-3.965757	1	17.5852	-13.03327	-1.154386E-005	0.0006524	10
	23	65	1516.544	17.36122	-4.8641	1	18.02974	-15.6513	-2.664732E-005	0.0007114	10
	24	67	1193.986	17.6365	-6.082455	1	18.65589	-19.02823	-1.894846E-005	0.0006678	10
	25	70	946.5144	17.94851	-7.557998	1	19.47492	-22.83563	2.573202E-005	0.0006734	10
	26	72	751.7689	18.30097	-9.358811	1	20.55512	-27.08444	-6.620016E-006	0.0007008	10
	27	74	597.4265	18.71042	-11.57656	1	22.0022	-31.74601	-2.704098E-005	0.0006781	10
	28	76	477.4305	19.18655	-14.24699	1	23.8977	-36.59576	-3.526026E-006	0.000674	10
	29	79	376.6741	19.77883	-17.7396	1	26.56869	-41.88887	-3.074841E-006	0.0006739	10
	30	81	298.2954	20.48346	-22.00943	1	30.06638	-47.05667	-2.535644E-006	0.0006828	10
	31	83	237.7717	21.32938	-27.14193	1	34.51994	-51.8381	-1.96871E-006	0.000672	10
	32	86	189.0121	22.38154	-33.54994	1	40.33028	-56.29231	-2.565355E-006	0.0006729	10
	33	88	150.2404	23.66642	-41.40757	1	47.69367	-60.24995	1.15163E-006	7.10926E-005	9
	34	91	119.1737	25.32967	-51.23454	1	57.15391	-63.69283	1.069504E-006	8.702656E-005	9
	35	93	95.0169	27.37564	-63.0393	1	68.72684	-66.52647	1.125732E-006	6.898687E-005	9
	36	96	75.60484	29.97161	-77.6461	1	83.22988	-68.89327	1.091475E-006	7.000168E-005	9
	37	98	54.50582	34.7802	-104.4285	1	110.068	-71.57952	1.118425E-006	6.617708E-005	9
	38	101	45.95588	38.03559	-121.8506	1	127.649	-72.66428	1.104286E-006	7.049373E-005	9
	39	103	37.20238	42.81097	-147.389	1	153.4806	-73.8034	1.116278E-006	7.459507E-005	9
	40	105	30.04808	48.73552	-178.5915	1	185.1218	-74.7363	1.116993E-006	7.267489E-005	9
	41	108	23.91582	56.55278	-219.1175	1	226.2978	-75.52815	1.151469E-006	6.688425E-005	9
	42	110	18.60119	67.42786	-274.4333	1	282.5953	-76.19595	1.018824E-006	7.537661E-005	9
	43	112	15.02404	79.2941	-332.1497	1	341.4836	-76.57309	1.257318E-006	8.338381E-005	9
	44	115	12.01923	94.6938	-405.3122	1	416.2269	-76.84976	1.119334E-006	7.420449E-005	9
	45	117	9.450605	115.5041	-499.7943	1	512.9674	-76.98721	2.993893E-007	0.0006529	8
	46	120	7.512019	141.2872	-612.0347	1	628.131	-77.00108	3.284529E-007	0.0006429	8
	47	122	5.978954	173.7614	-748.215	1	768.1267	-76.9257	3.852712E-007	0.0006593	8
	48	125	4.734848	216.7097	-917.4448	1	942.6919	-76.70976	3.9855E-007	0.0006309	8
	49	129	3.75601	270.5387	-1121.887	1	1154.046	-76.44219	4.492915E-007	0.0006698	8
	50	132	3.004808	335.5184	-1359.229	1	1400.027	-76.13403	4.815948E-007	0.0006234	8
	51	136	2.372217	421.8152	-1664.75	1	1717.359	-75.78161	4.463384E-007	0.0005801	8
	52	140	1.878005	530.9363	-2029.376	1	2097.68	-75.33858	4.434906E-007	0.0006638	8
	53	145	1.512097	655.6424	-2437.463	1	2524.103	-74.94461	4.431662E-007	0.0005464	8
	54	150	1.201923	816.1231	-2961.619	1	3072.01	-74.59357	4.431248E-007	0.0006712	8
	55	156	0.956633	1011.407	-3588.02	1	3727.845	-74.25768	4.367532E-007	1.055631E-005	8
