EXPLAIN
TAG	EISPOT
TITLE	LABEL	Potentiostatic EIS	Test Identifier
DATE	LABEL	8/29/2020	Date
TIME	LABEL	22:34:48	Time
NOTES	NOTES	1	Notes...
	
PSTAT	PSTAT	REF3000-16137	Potentiostat
VDC	POTEN	0.00000E+000	T	DC Voltage (V)
FREQINIT	QUANT	3.00000E+005	Initial Freq. (Hz)
FREQFINAL	QUANT	1.00000E+000	Final Freq. (Hz)
PTSPERDEC	QUANT	1.00000E+001	Points/decade
VAC	QUANT	5.00000E+001	AC Voltage (mV rms)
AREA	QUANT	1.00000E+000	Sample Area (cm^2)
SPEED	SELECTOR	2	Optimize for:
ZGUESS	QUANT	1.00000E+003	Estimated Z (ohms)
EOC	QUANT	0	Open Circuit (V)
SEQUENCER	TOGGLE	TRUE	Run as Sequence
PSTATMODEL	IQUANT	5	Pstat Model
PSTATSECTION	LABEL	REF3000-16137	Pstat Section
PSTATSERIALNO	LABEL	16137	Pstat Serial Number
CTRLMODE	IQUANT	1	Control Mode
IESTAB	IQUANT	0	I/E Stability
CASPEED	IQUANT	1	Control Amp Speed
CONVENTION	IQUANT	1	Current Convention
ICHRANGE	IQUANT	2	Ich Range
ICHRANGEMODE	TOGGLE	F	Ich Auto Range
ICHOFFSETENABLE	TOGGLE	T	Ich Offset Enable
ICHOFFSET	QUANT	0	Ich Offset (V)
ICHFILTER	IQUANT	3	Ich Filter
VCHRANGE	IQUANT	2	Vch Range
VCHRANGEMODE	TOGGLE	F	Vch Auto Range
VCHOFFSETENABLE	TOGGLE	T	Vch Offset Enable
VCHOFFSET	QUANT	0	Vch Offset (V)
VCHFILTER	IQUANT	3	Vch Filter
ACHRANGE	IQUANT	2	Ach Range
ACHOFFSETENABLE	TOGGLE	F	Ach Offset Enable
ACHOFFSET	QUANT	0	Ach Offset (V)
ACHFILTER	IQUANT	3	Ach Filter
IERANGELOWERLIMIT	IQUANT	2	I/E Range Lower Limit
IERANGEMODE	TOGGLE	F	I/E AutoRange
IERANGE	IQUANT	11	I/E Range
POSFEEDENABLE	TOGGLE	F	Positive Feedback IR Comp
POSFEEDRESISTANCE	QUANT	0	Positive Feedback Resistance (ohm)
ACHSELECT	IQUANT	0	Ach Select
CABLEID	IQUANT	13	Cable ID
DCCALDATE	LABEL	7/31/2020	DC Calibration Date
ACCALDATE	LABEL	7/31/2020	AC Calibration Date
THERMOSELECT	IQUANT	1	Thermo Select
FRAMEWORKVERSION	QUANT	6.33	Framework Version
INSTRUMENTVERSION	LABEL	3.50	Instrument Version
COMPLIANCEVOLTAGE	IQUANT	0	Compliance Voltage
ZCURVE	TABLE
	Pt	Time	Freq	Zreal	Zimag	Zsig	Zmod	Zphz	Idc	Vdc	IERange
	#	s	Hz	ohm	ohm	V	ohm	°	A	V	#
	0	10	300046.9	3.564693	1.87863	1	4.029428	27.7897	1.245112E-005	-8.718514E-005	10
	1	13	238359.4	3.527775	1.492533	1	3.830516	22.93227	1.503375E-005	-0.0004505	10
	2	17	189328.1	3.51501	1.185153	1	3.709431	18.63251	-4.753529E-005	-3.261599E-005	10
	3	19	150421.9	3.513403	0.9305058	1	3.634535	14.83391	1.205315E-005	0.0001232	10
	4	22	119484.4	3.500655	0.7248973	1	3.574921	11.69916	-1.398795E-005	0.0002335	10
	5	24	94921.88	3.498732	0.5657066	1	3.544171	9.18461	-9.455949E-006	0.0004619	10
	6	27	75421.88	3.498209	0.4167992	1	3.522951	6.794559	3.127507E-005	0.0004428	10
	7	29	59859.37	3.500724	0.2907624	1	3.512778	4.747963	-1.023953E-005	0.0005458	10
	8	32	47578.12	3.50315	0.1785817	1	3.507698	2.918267	-1.880787E-005	0.0005563	10
	9	34	37828.12	3.507816	0.0750044	1	3.508618	1.224916	2.144123E-005	0.0005813	10
	10	37	30046.88	3.515437	-0.0245119	1	3.515522	-0.3994974	-2.178224E-005	0.0006474	10
	11	39	23859.38	3.523952	-0.1260369	1	3.526206	-2.048355	-2.524722E-005	0.000627	10
	12	42	18984.38	3.534585	-0.2315798	1	3.542163	-3.748562	-2.41481E-005	0.0006422	10
	13	44	15046.87	3.547686	-0.349568	1	3.564867	-5.627421	-3.1685E-005	0.0006503	10
	14	46	11953.13	3.563211	-0.4822209	1	3.595693	-7.7072	-1.2517E-005	0.0006583	10
	15	48	9515.62	3.582841	-0.6357989	1	3.638818	-10.06276	-2.309975E-005	0.0007405	10
	16	51	7546.875	3.605215	-0.8219038	1	3.697715	-12.8426	1.301843E-005	0.0006428	10
	17	53	5928.309	3.63441	-1.057613	1	3.785166	-16.22499	-6.804976E-006	0.0006447	10
	18	55	4733.456	3.667886	-1.326049	1	3.90023	-19.87642	-1.78775E-005	0.0006861	10
	19	58	3796.875	3.707905	-1.645059	1	4.056449	-23.92507	1.676179E-005	0.0006556	10
	20	60	2987.132	3.761766	-2.074579	1	4.295901	-28.87632	-2.486288E-005	0.0006882	10
	21	62	2390.625	3.824795	-2.566057	1	4.605834	-33.85769	-1.962042E-005	0.0007071	10
	22	65	1884.191	3.90841	-3.214641	1	5.060592	-39.43707	1.131847E-005	0.0006652	10
	23	67	1516.544	4.006819	-3.943329	1	5.621783	-44.54245	1.876947E-005	0.0006639	10
	24	69	1193.986	4.146514	-4.934313	1	6.445233	-49.95823	-2.752449E-005	0.0007312	10
	25	72	946.5144	4.327802	-6.123735	1	7.498666	-54.75016	-4.78963E-006	0.0006575	10
	26	74	751.7689	4.551067	-7.588782	1	8.848832	-59.04847	-3.048087E-005	0.0006855	10
	27	76	597.4265	4.843153	-9.374173	1	10.55136	-62.67693	1.207453E-005	0.0006675	10
	28	79	477.4305	5.214154	-11.50758	1	12.63376	-65.62444	-5.458051E-006	0.0006732	10
	29	81	376.6741	5.714437	-14.27452	1	15.37584	-68.18257	-4.839191E-006	0.0006679	10
	30	83	298.2954	6.343352	-17.62252	1	18.72942	-70.20329	-4.95902E-006	0.0006719	10
	31	86	237.7717	7.119062	-21.60667	1	22.74927	-71.76375	-4.872883E-006	0.0006688	10
	32	88	189.0121	8.110793	-26.53067	1	27.74277	-73.00089	-4.477566E-006	0.0006762	10
	33	91	150.2404	9.372443	-32.56054	1	33.88261	-73.94171	-4.61319E-006	0.0006681	10
	34	93	119.1737	10.9935	-39.99799	1	41.48127	-74.63167	-4.405542E-006	0.0006778	10
	35	95	95.0169	13.00865	-48.81432	1	50.51795	-75.0779	-1.237409E-006	7.284308E-005	9
	36	98	75.60484	15.63643	-59.69129	1	61.70533	-75.32092	-1.303723E-006	7.307192E-005	9
	37	100	54.50582	20.75764	-79.40826	1	82.07649	-75.35046	-1.503724E-006	6.993707E-005	9
	38	103	45.95588	24.27786	-92.07265	1	95.2197	-75.22838	-1.023822E-006	6.660316E-005	9
	39	105	37.20238	29.65249	-110.4108	1	114.3233	-74.96708	-1.222596E-006	6.874564E-005	9
	40	108	30.04808	36.52456	-132.4372	1	137.3815	-74.58179	-1.266146E-006	6.570853E-005	9
	41	110	23.91582	45.84711	-160.4849	1	166.9052	-74.05649	-1.294895E-006	7.119655E-005	9
	42	112	18.60119	59.20757	-197.6548	1	206.3322	-73.32439	-9.064086E-007	7.459511E-005	9
	43	115	15.02404	73.85862	-235.618	1	246.9229	-72.59548	-8.47169E-007	8.131368E-005	9
	44	117	12.01923	93.18914	-282.329	1	297.3111	-71.73335	-1.247178E-006	6.593651E-005	9
	45	119	9.450605	120.1576	-342.1205	1	362.6077	-70.648	-1.24412E-006	7.360873E-005	9
	46	122	7.512019	152.4042	-407.9274	1	435.4673	-69.51401	-1.779991E-006	0.0006437	8
	47	125	5.978954	194.7963	-486.1476	1	523.7224	-68.16433	-1.611924E-006	0.0006532	8
	48	128	4.734848	251.2956	-579.0871	1	631.2617	-66.5415	-1.58712E-006	0.0006735	8
	49	131	3.75601	323.587	-684.8799	1	757.4754	-64.71055	-1.750628E-006	0.0006463	8
	50	134	3.004808	413.1049	-798.9872	1	899.4644	-62.65942	-1.80515E-006	0.0006789	8
	51	138	2.372217	536.228	-930.4213	1	1073.883	-60.04394	-1.728545E-006	0.0007167	8
	52	142	1.878005	689.5491	-1070.358	1	1273.242	-57.20945	-1.876727E-006	0.0006385	8
	53	147	1.512097	861.3371	-1199.789	1	1476.954	-54.32515	-1.768522E-006	0.0006328	8
	54	152	1.201923	1086.163	-1331.539	1	1718.355	-50.7952	-1.730408E-006	0.0006246	8
	55	158	0.956633	1341.993	-1446.102	1	1972.855	-47.13847	-1.920796E-006	1.359007E-005	8
