EXPLAIN
TAG	EISPOT
TITLE	LABEL	Potentiostatic EIS	Test Identifier
DATE	LABEL	8/29/2020	Date
TIME	LABEL	22:37:36	Time
NOTES	NOTES	1	Notes...
	
PSTAT	PSTAT	REF3000-16137	Potentiostat
VDC	POTEN	0.00000E+000	T	DC Voltage (V)
FREQINIT	QUANT	3.00000E+005	Initial Freq. (Hz)
FREQFINAL	QUANT	1.00000E+000	Final Freq. (Hz)
PTSPERDEC	QUANT	1.00000E+001	Points/decade
VAC	QUANT	5.00000E+001	AC Voltage (mV rms)
AREA	QUANT	1.00000E+000	Sample Area (cm^2)
SPEED	SELECTOR	2	Optimize for:
ZGUESS	QUANT	1.00000E+003	Estimated Z (ohms)
EOC	QUANT	0	Open Circuit (V)
SEQUENCER	TOGGLE	TRUE	Run as Sequence
PSTATMODEL	IQUANT	5	Pstat Model
PSTATSECTION	LABEL	REF3000-16137	Pstat Section
PSTATSERIALNO	LABEL	16137	Pstat Serial Number
CTRLMODE	IQUANT	1	Control Mode
IESTAB	IQUANT	0	I/E Stability
CASPEED	IQUANT	1	Control Amp Speed
CONVENTION	IQUANT	1	Current Convention
ICHRANGE	IQUANT	2	Ich Range
ICHRANGEMODE	TOGGLE	F	Ich Auto Range
ICHOFFSETENABLE	TOGGLE	T	Ich Offset Enable
ICHOFFSET	QUANT	0	Ich Offset (V)
ICHFILTER	IQUANT	3	Ich Filter
VCHRANGE	IQUANT	2	Vch Range
VCHRANGEMODE	TOGGLE	F	Vch Auto Range
VCHOFFSETENABLE	TOGGLE	T	Vch Offset Enable
VCHOFFSET	QUANT	0	Vch Offset (V)
VCHFILTER	IQUANT	3	Vch Filter
ACHRANGE	IQUANT	2	Ach Range
ACHOFFSETENABLE	TOGGLE	F	Ach Offset Enable
ACHOFFSET	QUANT	0	Ach Offset (V)
ACHFILTER	IQUANT	3	Ach Filter
IERANGELOWERLIMIT	IQUANT	2	I/E Range Lower Limit
IERANGEMODE	TOGGLE	F	I/E AutoRange
IERANGE	IQUANT	11	I/E Range
POSFEEDENABLE	TOGGLE	F	Positive Feedback IR Comp
POSFEEDRESISTANCE	QUANT	0	Positive Feedback Resistance (ohm)
ACHSELECT	IQUANT	0	Ach Select
CABLEID	IQUANT	13	Cable ID
DCCALDATE	LABEL	7/31/2020	DC Calibration Date
ACCALDATE	LABEL	7/31/2020	AC Calibration Date
THERMOSELECT	IQUANT	1	Thermo Select
FRAMEWORKVERSION	QUANT	6.33	Framework Version
INSTRUMENTVERSION	LABEL	3.50	Instrument Version
COMPLIANCEVOLTAGE	IQUANT	0	Compliance Voltage
ZCURVE	TABLE
	Pt	Time	Freq	Zreal	Zimag	Zsig	Zmod	Zphz	Idc	Vdc	IERange
	#	s	Hz	ohm	ohm	V	ohm	°	A	V	#
	0	10	300046.9	4.089428	1.861784	1	4.493291	24.47823	3.925451E-005	6.010715E-005	10
	1	13	238359.4	4.076528	1.492694	1	4.341223	20.11112	-5.931229E-007	-0.0002936	10
	2	16	189328.1	4.07419	1.18044	1	4.241753	16.15821	-9.216916E-005	-1.262139E-005	10
	3	19	150421.9	4.073322	0.9346994	1	4.179188	12.92384	-1.550367E-005	0.0002539	10
	4	21	119484.4	4.06889	0.7194806	1	4.132011	10.02766	-1.401995E-005	0.0003683	10
	5	24	94921.88	4.076603	0.5625058	1	4.115229	7.856288	1.167672E-005	0.0004318	10
	6	26	75421.88	4.080216	0.4151804	1	4.101285	5.810105	-2.014606E-005	0.0004904	10
	7	29	59859.37	4.087179	0.286953	1	4.097239	4.016037	2.360119E-005	0.0005516	10
	8	32	47578.12	4.096166	0.1741132	1	4.099864	2.433971	-1.763538E-005	0.0006234	10
	9	34	37828.12	4.106775	0.0693858	1	4.107361	0.967946	-2.136514E-005	0.0006566	10
	10	37	30046.88	4.119128	-0.0327154	1	4.119257	-0.4550518	7.441855E-006	0.0005955	10
	11	39	23859.38	4.133119	-0.1353959	1	4.135336	-1.876268	-1.066797E-005	0.000654	10
	12	41	18984.38	4.149673	-0.2429314	1	4.156778	-3.350403	-1.707054E-005	0.0006341	10
	13	44	15046.87	4.168187	-0.3630359	1	4.183967	-4.977719	-9.864111E-006	0.0006312	10
	14	46	11953.13	4.189301	-0.499013	1	4.218916	-6.79284	1.3041E-005	0.0006411	10
	15	48	9515.62	4.213781	-0.6561378	1	4.26456	-8.850586	-1.649636E-005	0.0006846	10
	16	51	7546.875	4.241709	-0.8467064	1	4.325391	-11.28869	1.960615E-005	0.0006457	10
	17	53	5928.309	4.27715	-1.088824	1	4.413564	-14.28228	-2.574561E-005	0.0006793	10
	18	55	4733.456	4.316347	-1.364506	1	4.52689	-17.54306	-2.918133E-005	0.0006862	10
	19	58	3796.875	4.362265	-1.693685	1	4.679522	-21.21911	1.937333E-005	0.0006751	10
	20	60	2987.132	4.421984	-2.133479	1	4.909753	-25.75596	-2.970395E-005	0.0006855	10
	21	62	2390.625	4.490825	-2.636717	1	5.207666	-30.41866	4.604987E-006	0.0006468	10
	22	64	1884.191	4.579203	-3.304028	1	5.646742	-35.81154	8.191395E-006	0.0006364	10
	23	67	1516.544	4.681461	-4.054997	1	6.19347	-40.89852	-2.947193E-005	0.0006925	10
	24	69	1193.986	4.822991	-5.07451	1	7.00085	-46.45571	-2.99006E-005	0.0006845	10
	25	72	946.5144	5.005887	-6.300444	1	8.047018	-51.53183	9.267872E-006	0.0006363	10
	26	74	751.7689	5.227437	-7.811015	1	9.398832	-56.20801	1.776257E-005	0.0006459	10
	27	76	597.4265	5.514719	-9.66342	1	11.12626	-60.28746	1.127689E-005	0.0006617	10
	28	79	477.4305	5.883163	-11.87934	1	13.25633	-63.6534	-4.30277E-006	0.0006791	10
	29	81	376.6741	6.378145	-14.75524	1	16.07475	-66.62296	-4.267196E-006	0.0006727	10
	30	83	298.2954	7.002674	-18.24237	1	19.54026	-68.99977	-4.396568E-006	0.0006723	10
	31	85	237.7717	7.772203	-22.39342	1	23.70385	-70.85938	-4.639659E-006	0.0006751	10
	32	88	189.0121	8.754848	-27.53355	1	28.89193	-72.36089	-3.841987E-006	0.0006828	10
	33	90	150.2404	9.99189	-33.82463	1	35.26959	-73.54271	-3.954071E-006	0.0006838	10
	34	93	119.1737	11.55905	-41.55246	1	43.13025	-74.45451	-4.183643E-007	8.393102E-005	9
	35	95	95.0169	13.51269	-50.84225	1	52.6073	-75.11619	-4.349655E-007	7.082295E-005	9
	36	98	75.60484	16.02754	-62.28174	1	64.31094	-75.56867	-4.606672E-007	7.400173E-005	9
	37	100	54.50582	20.9026	-83.12762	1	85.71535	-75.88548	-5.70012E-007	6.778896E-005	9
	38	103	45.95588	24.23912	-96.5697	1	99.5653	-75.90977	-1.432715E-007	7.239187E-005	9
	39	105	37.20238	29.31499	-116.0913	1	119.7354	-75.82812	-2.970841E-007	7.750533E-005	9
	40	107	30.04808	35.8257	-139.7351	1	144.2546	-75.62007	-3.665433E-007	7.710816E-005	9
	41	110	23.91582	44.75827	-170.0473	1	175.8391	-75.25361	-2.938813E-007	7.630604E-005	9
	42	112	18.60119	57.3474	-210.3054	1	217.9841	-74.74706	-3.38257E-008	7.455578E-005	9
	43	114	15.02404	71.08654	-251.7378	1	261.5822	-74.23121	-6.599442E-007	0.0001216	9
	44	117	12.01923	89.37039	-302.9393	1	315.847	-73.56337	-2.055964E-007	7.75509E-005	9
	45	119	9.450605	114.4952	-369.1711	1	386.5184	-72.76918	-2.565243E-007	8.876503E-005	9
	46	122	7.512019	144.7311	-443.0101	1	466.0526	-71.90782	-9.319215E-007	0.0006662	8
	47	124	5.978954	183.4923	-531.6708	1	562.444	-70.95922	-9.498254E-007	0.0006592	8
	48	127	4.734848	235.0424	-639.4597	1	681.2883	-69.81838	-8.274611E-007	0.0006509	8
	49	131	3.75601	300.2932	-765.6629	1	822.4449	-68.58488	-9.079904E-007	0.0006597	8
	50	134	3.004808	381.9737	-906.7133	1	983.887	-67.15562	-7.516218E-007	0.0006255	8
	51	138	2.372217	493.2022	-1080.154	1	1187.427	-65.4584	-8.404991E-007	0.0006058	8
	52	142	1.878005	639.5334	-1274.993	1	1426.398	-63.36177	-8.75016E-007	0.0006982	8
	53	147	1.512097	810.9852	-1477.211	1	1685.185	-61.23332	-7.878172E-007	0.0005458	8
	54	152	1.201923	1041.134	-1709.837	1	2001.875	-58.66243	-8.092438E-007	0.000671	8
	55	159	0.956633	1326.596	-1950.724	1	2359.064	-55.78222	-9.195206E-007	1.387519E-005	8
