EXPLAIN
TAG	EISPOT
TITLE	LABEL	Potentiostatic EIS	Test Identifier
DATE	LABEL	2/27/2021	Date
TIME	LABEL	14:35:39	Time
NOTES	NOTES	1	Notes...
	
PSTAT	PSTAT	REF3000-16137	Potentiostat
VDC	POTEN	0.00000E+000	T	DC Voltage (V)
FREQINIT	QUANT	3.00000E+005	Initial Freq. (Hz)
FREQFINAL	QUANT	1.00000E+000	Final Freq. (Hz)
PTSPERDEC	QUANT	1.00000E+001	Points/decade
VAC	QUANT	5.00000E+001	AC Voltage (mV rms)
AREA	QUANT	1.00000E+000	Sample Area (cm^2)
SPEED	SELECTOR	2	Optimize for:
ZGUESS	QUANT	1.00000E+003	Estimated Z (ohms)
EOC	QUANT	0	Open Circuit (V)
SEQUENCER	TOGGLE	TRUE	Run as Sequence
PSTATMODEL	IQUANT	5	Pstat Model
PSTATSECTION	LABEL	REF3000-16137	Pstat Section
PSTATSERIALNO	LABEL	16137	Pstat Serial Number
CTRLMODE	IQUANT	1	Control Mode
IESTAB	IQUANT	0	I/E Stability
CASPEED	IQUANT	1	Control Amp Speed
CONVENTION	IQUANT	1	Current Convention
ICHRANGE	IQUANT	2	Ich Range
ICHRANGEMODE	TOGGLE	F	Ich Auto Range
ICHOFFSETENABLE	TOGGLE	T	Ich Offset Enable
ICHOFFSET	QUANT	0	Ich Offset (V)
ICHFILTER	IQUANT	3	Ich Filter
VCHRANGE	IQUANT	2	Vch Range
VCHRANGEMODE	TOGGLE	F	Vch Auto Range
VCHOFFSETENABLE	TOGGLE	T	Vch Offset Enable
VCHOFFSET	QUANT	0	Vch Offset (V)
VCHFILTER	IQUANT	3	Vch Filter
ACHRANGE	IQUANT	2	Ach Range
ACHOFFSETENABLE	TOGGLE	F	Ach Offset Enable
ACHOFFSET	QUANT	0	Ach Offset (V)
ACHFILTER	IQUANT	3	Ach Filter
IERANGELOWERLIMIT	IQUANT	2	I/E Range Lower Limit
IERANGEMODE	TOGGLE	F	I/E AutoRange
IERANGE	IQUANT	11	I/E Range
POSFEEDENABLE	TOGGLE	F	Positive Feedback IR Comp
POSFEEDRESISTANCE	QUANT	0	Positive Feedback Resistance (ohm)
ACHSELECT	IQUANT	0	Ach Select
CABLEID	IQUANT	13	Cable ID
DCCALDATE	LABEL	7/31/2020	DC Calibration Date
ACCALDATE	LABEL	7/31/2020	AC Calibration Date
THERMOSELECT	IQUANT	1	Thermo Select
FRAMEWORKVERSION	QUANT	6.33	Framework Version
INSTRUMENTVERSION	LABEL	3.50	Instrument Version
COMPLIANCEVOLTAGE	IQUANT	0	Compliance Voltage
ZCURVE	TABLE
	Pt	Time	Freq	Zreal	Zimag	Zsig	Zmod	Zphz	Idc	Vdc	IERange
	#	s	Hz	ohm	ohm	V	ohm	°	A	V	#
	0	10	300046.9	5.989151	2.203212	1	6.381542	20.19691	2.642022E-005	0.0001747	10
	1	14	238359.4	5.95092	1.747156	1	6.202096	16.36193	3.868527E-005	-9.382738E-006	10
	2	17	189328.1	5.94596	1.376456	1	6.103201	13.03406	7.473302E-005	2.14652E-005	10
	3	19	150421.9	5.953793	1.077733	1	6.05055	10.26036	-2.375634E-005	0.0003281	10
	4	22	119484.4	5.945874	0.8330381	1	6.003946	7.97543	-7.552521E-006	0.0004103	10
	5	24	94921.88	5.952664	0.651017	1	5.988158	6.241385	2.148957E-005	0.000518	10
	6	27	75421.88	5.956853	0.4761165	1	5.97585	4.569796	-2.39325E-005	0.0005744	10
	7	29	59859.37	5.967005	0.3240696	1	5.975799	3.108694	-1.966451E-005	0.0006561	10
	8	32	47578.12	5.978502	0.1919165	1	5.981581	1.838626	-1.776506E-005	0.0006774	10
	9	34	37828.12	5.991342	0.0721336	1	5.991776	0.6897873	2.135869E-005	0.0006379	10
	10	37	30046.88	6.006827	-0.0410794	1	6.006968	-0.3918275	-2.068784E-005	0.0007292	10
	11	39	23859.38	6.022737	-0.1538641	1	6.024702	-1.463429	8.050031E-006	0.0007024	10
	12	42	18984.38	6.037555	-0.2716497	1	6.043663	-2.576191	-2.883213E-005	0.0006725	10
	13	44	15046.87	6.055129	-0.4029534	1	6.068521	-3.807275	1.200202E-005	0.0006575	10
	14	46	11953.13	6.076077	-0.5525257	1	6.101148	-5.195879	-2.117261E-005	0.0006681	10
	15	49	9515.62	6.099712	-0.7253581	1	6.142689	-6.781582	-1.066719E-005	0.0007247	10
	16	51	7546.875	6.125824	-0.9362558	1	6.196959	-8.689699	2.356754E-005	0.0006868	10
	17	53	5928.309	6.158643	-1.20271	1	6.274982	-11.05011	-1.195224E-005	0.0006779	10
	18	55	4733.456	6.194415	-1.508164	1	6.375369	-13.68366	4.863507E-006	0.0006889	10
	19	58	3796.875	6.238267	-1.874448	1	6.513796	-16.72425	-2.030785E-005	0.0006709	10
	20	60	2987.132	6.294956	-2.363531	1	6.724042	-20.57936	-2.780412E-005	0.0006928	10
	21	62	2390.625	6.360607	-2.927608	1	7.002015	-24.71528	2.117316E-005	0.0006726	10
	22	65	1884.191	6.448944	-3.669028	1	7.419611	-29.63705	-1.196871E-005	0.0006787	10
	23	67	1516.544	6.550282	-4.506796	1	7.950938	-34.52917	-2.396384E-005	0.0006946	10
	24	69	1193.986	6.691551	-5.64547	1	8.754894	-40.15337	-2.478517E-005	0.0006919	10
	25	72	946.5144	6.86852	-7.017068	1	9.81916	-45.61293	-2.359674E-005	0.0007166	10
	26	74	751.7689	7.082573	-8.703607	1	11.22121	-50.86298	-2.72113E-005	0.000695	10
	27	76	597.4265	7.364466	-10.77499	1	13.05127	-55.64826	1.980589E-005	0.000668	10
	28	79	477.4305	7.711216	-13.27217	1	15.3497	-59.84313	-2.166688E-006	0.0006867	10
	29	81	376.6741	8.17955	-16.5217	1	18.43561	-63.66095	-1.819505E-006	0.0006853	10
	30	83	298.2954	8.76894	-20.48135	1	22.27958	-66.82217	-2.521768E-006	0.0006964	10
	31	86	237.7717	9.497744	-25.21465	1	26.94412	-69.35983	-2.683886E-006	0.000686	10
	32	88	189.0121	10.43039	-31.10175	1	32.80414	-71.46043	-2.311262E-006	0.0006888	10
	33	90	150.2404	11.60436	-38.32561	1	40.04389	-73.15456	-2.37133E-006	0.0006898	10
	34	93	119.1737	13.07804	-47.22604	1	49.0034	-74.52129	1.460292E-006	9.014193E-005	9
	35	95	95.0169	14.89892	-57.95078	1	59.83536	-75.58174	1.384589E-006	8.949991E-005	9
	36	98	75.60484	17.19026	-71.19704	1	73.24291	-76.42594	1.356298E-006	9.076679E-005	9
	37	100	54.50582	21.48392	-95.4916	1	97.8785	-77.32058	1.206112E-006	9.072771E-005	9
	38	103	45.95588	24.3184	-111.2568	1	113.8836	-77.67027	1.428088E-006	9.281359E-005	9
	39	105	37.20238	28.50756	-134.3182	1	137.3101	-78.0174	1.423578E-006	8.954613E-005	9
	40	107	30.04808	33.68737	-162.5103	1	165.9651	-78.28881	1.328629E-006	9.135938E-005	9
	41	110	23.91582	40.37583	-198.9178	1	202.9741	-78.52613	1.318488E-006	9.230618E-005	9
	42	112	18.60119	49.60404	-248.6561	1	253.5555	-78.71825	1.334815E-006	0.0000987	9
	43	114	15.02404	59.12916	-300.5834	1	306.344	-78.87118	1.540433E-006	0.0001002	9
	44	117	12.01923	71.30376	-366.2462	1	373.1227	-78.98301	1.433215E-006	8.588433E-005	9
	45	119	9.450605	86.9398	-451.4072	1	459.7032	-79.09847	7.496947E-007	0.000679	8
	46	122	7.512019	105.5373	-553.4749	1	563.4471	-79.20437	7.998663E-007	0.0006863	8
	47	124	5.978954	128.4992	-677.8002	1	689.8732	-79.26511	7.453178E-007	0.0006779	8
	48	127	4.734848	157.7709	-834.6937	1	849.4734	-79.29643	8.281227E-007	0.000667	8
	49	131	3.75601	193.5398	-1025.687	1	1043.787	-79.31433	7.723882E-007	0.0006766	8
	50	134	3.004808	236.8223	-1250.372	1	1272.601	-79.27513	7.987555E-007	0.000648	8
	51	138	2.372217	295.9162	-1544.892	1	1572.977	-79.15662	7.599349E-007	0.0005916	8
	52	142	1.878005	367.4742	-1904.365	1	1939.495	-79.07821	7.960372E-007	0.0006643	8
	53	147	1.512097	451.7822	-2306.53	1	2350.359	-78.91772	7.365636E-007	0.000683	8
	54	152	1.201923	573.1572	-2842.2	1	2899.416	-78.59866	7.911961E-007	0.0006805	8
	55	158	0.956633	730.2782	-3485.188	1	3560.876	-78.1656	7.496149E-007	2.282555E-005	8
