EXPLAIN
TAG	EISPOT
TITLE	LABEL	Potentiostatic EIS	Test Identifier
DATE	LABEL	2/27/2021	Date
TIME	LABEL	14:52:16	Time
NOTES	NOTES	1	Notes...
	
PSTAT	PSTAT	REF3000-16137	Potentiostat
VDC	POTEN	0.00000E+000	T	DC Voltage (V)
FREQINIT	QUANT	3.00000E+005	Initial Freq. (Hz)
FREQFINAL	QUANT	1.00000E+000	Final Freq. (Hz)
PTSPERDEC	QUANT	1.00000E+001	Points/decade
VAC	QUANT	5.00000E+001	AC Voltage (mV rms)
AREA	QUANT	1.00000E+000	Sample Area (cm^2)
SPEED	SELECTOR	2	Optimize for:
ZGUESS	QUANT	1.00000E+003	Estimated Z (ohms)
EOC	QUANT	0	Open Circuit (V)
SEQUENCER	TOGGLE	TRUE	Run as Sequence
PSTATMODEL	IQUANT	5	Pstat Model
PSTATSECTION	LABEL	REF3000-16137	Pstat Section
PSTATSERIALNO	LABEL	16137	Pstat Serial Number
CTRLMODE	IQUANT	1	Control Mode
IESTAB	IQUANT	0	I/E Stability
CASPEED	IQUANT	1	Control Amp Speed
CONVENTION	IQUANT	1	Current Convention
ICHRANGE	IQUANT	2	Ich Range
ICHRANGEMODE	TOGGLE	F	Ich Auto Range
ICHOFFSETENABLE	TOGGLE	T	Ich Offset Enable
ICHOFFSET	QUANT	0	Ich Offset (V)
ICHFILTER	IQUANT	3	Ich Filter
VCHRANGE	IQUANT	2	Vch Range
VCHRANGEMODE	TOGGLE	F	Vch Auto Range
VCHOFFSETENABLE	TOGGLE	T	Vch Offset Enable
VCHOFFSET	QUANT	0	Vch Offset (V)
VCHFILTER	IQUANT	3	Vch Filter
ACHRANGE	IQUANT	2	Ach Range
ACHOFFSETENABLE	TOGGLE	F	Ach Offset Enable
ACHOFFSET	QUANT	0	Ach Offset (V)
ACHFILTER	IQUANT	3	Ach Filter
IERANGELOWERLIMIT	IQUANT	2	I/E Range Lower Limit
IERANGEMODE	TOGGLE	F	I/E AutoRange
IERANGE	IQUANT	11	I/E Range
POSFEEDENABLE	TOGGLE	F	Positive Feedback IR Comp
POSFEEDRESISTANCE	QUANT	0	Positive Feedback Resistance (ohm)
ACHSELECT	IQUANT	0	Ach Select
CABLEID	IQUANT	13	Cable ID
DCCALDATE	LABEL	7/31/2020	DC Calibration Date
ACCALDATE	LABEL	7/31/2020	AC Calibration Date
THERMOSELECT	IQUANT	1	Thermo Select
FRAMEWORKVERSION	QUANT	6.33	Framework Version
INSTRUMENTVERSION	LABEL	3.50	Instrument Version
COMPLIANCEVOLTAGE	IQUANT	0	Compliance Voltage
ZCURVE	TABLE
	Pt	Time	Freq	Zreal	Zimag	Zsig	Zmod	Zphz	Idc	Vdc	IERange
	#	s	Hz	ohm	ohm	V	ohm	°	A	V	#
	0	8	300046.9	13.40212	2.076335	1	13.562	8.806587	-2.23813E-006	0.0003041	10
	1	11	238359.4	13.44494	1.64818	1	13.54559	6.988871	6.553518E-005	0.0002274	10
	2	14	189328.1	13.4634	1.295166	1	13.52555	5.49489	2.864504E-005	0.0006189	10
	3	17	150421.9	13.48209	1.000153	1	13.51914	4.242649	6.300896E-005	0.0004594	10
	4	19	119484.4	13.5181	0.7736788	1	13.54022	3.275626	1.136585E-005	0.0005669	10
	5	22	94921.88	13.55007	0.6006316	1	13.56338	2.538078	-1.194E-005	0.0006991	10
	6	24	75421.88	13.58498	0.4229793	1	13.59156	1.783374	1.967426E-005	0.0006192	10
	7	27	59859.37	13.6245	0.2729291	1	13.62723	1.147609	-7.969204E-006	0.000647	10
	8	29	47578.12	13.66675	0.1438996	1	13.66751	0.603255	5.649986E-006	0.0006252	10
	9	32	37828.12	13.70782	0.0256216	1	13.70784	0.1070928	-1.233993E-005	0.0006509	10
	10	34	30046.88	13.75092	-0.088596	1	13.7512	-0.3691466	-2.523694E-005	0.0007172	10
	11	37	23859.38	13.79135	-0.2080284	1	13.79292	-0.8641824	-2.061426E-005	0.0007009	10
	12	39	18984.38	13.83512	-0.3332969	1	13.83913	-1.380025	-3.032597E-005	0.0006784	10
	13	41	15046.87	13.87948	-0.4740647	1	13.88758	-1.956222	2.246741E-005	0.0006534	10
	14	44	11953.13	13.92786	-0.6381132	1	13.94247	-2.623206	4.903217E-006	0.000646	10
	15	46	9515.62	13.97539	-0.8267261	1	13.99982	-3.385434	1.867708E-005	0.0006396	10
	16	48	7546.875	14.03076	-1.058819	1	14.07066	-4.315597	1.301505E-005	0.0006385	10
	17	51	5928.309	14.09234	-1.3537	1	14.15721	-5.486955	4.903985E-006	0.0006393	10
	18	53	4733.456	14.1559	-1.693135	1	14.2568	-6.820537	2.254865E-005	0.0006754	10
	19	55	3796.875	14.22568	-2.097258	1	14.37944	-8.386568	2.228459E-005	0.0006561	10
	20	59	2987.132	14.32663	-2.646189	1	14.56896	-10.46484	-2.670282E-005	0.0007159	10
	21	61	2390.625	14.42083	-3.272447	1	14.78746	-12.78532	2.103861E-005	0.0006607	10
	22	63	1884.191	14.53549	-4.109066	1	15.10513	-15.78518	-6.162303E-006	0.0007023	10
	23	65	1516.544	14.66578	-5.044653	1	15.50915	-18.9819	1.466335E-005	0.0006923	10
	24	68	1193.986	14.83675	-6.324721	1	16.12858	-23.08795	-2.196083E-005	0.0007216	10
	25	70	946.5144	15.03992	-7.87244	1	16.97571	-27.62919	-1.270863E-005	0.0007355	10
	26	73	751.7689	15.28603	-9.77268	1	18.14299	-32.59162	-2.821637E-005	0.0007089	10
	27	75	597.4265	15.59141	-12.11978	1	19.74794	-37.85924	2.261276E-005	0.0006532	10
	28	77	477.4305	15.96658	-14.94253	1	21.86803	-43.10244	-2.477512E-006	0.0006883	10
	29	79	376.6741	16.46091	-18.63629	1	24.86509	-48.54674	-2.707523E-006	0.0006824	10
	30	82	298.2954	17.07856	-23.15266	1	28.77018	-53.58566	-2.280716E-006	0.0006851	10
	31	84	237.7717	17.83446	-28.5703	1	33.67981	-58.02632	-2.491473E-006	0.0006918	10
	32	87	189.0121	18.79965	-35.32689	1	40.0177	-61.97977	-2.075454E-006	0.0006832	10
	33	89	150.2404	19.99449	-43.60212	1	47.96796	-65.36538	1.391908E-006	8.563033E-005	9
	34	91	119.1737	21.55195	-53.95275	1	58.09807	-68.22528	1.385593E-006	8.813976E-005	9
	35	94	95.0169	23.4743	-66.39423	1	70.42184	-70.52847	1.270365E-006	9.103481E-005	9
	36	96	75.60484	25.91512	-81.8054	1	85.81211	-72.42233	1.34442E-006	8.811831E-005	9
	37	99	54.50582	30.50143	-110.1353	1	114.2809	-74.52019	1.17135E-006	8.763237E-005	9
	38	101	45.95588	33.568	-128.5661	1	132.8761	-75.36701	1.367232E-006	8.872012E-005	9
	39	104	37.20238	38.12463	-155.6099	1	160.2121	-76.23363	1.32212E-006	8.767119E-005	9
	40	106	30.04808	43.77509	-188.6639	1	193.6758	-76.93699	1.367428E-006	8.403518E-005	9
	41	108	23.91582	51.25025	-231.7463	1	237.3456	-77.52985	1.357079E-006	8.989988E-005	9
	42	111	18.60119	61.49858	-290.3396	1	296.7814	-78.0406	1.289894E-006	8.736828E-005	9
	43	113	15.02404	72.46117	-351.4456	1	358.8379	-78.34999	1.475946E-006	9.027199E-005	9
	44	115	12.01923	86.11279	-427.2464	1	435.8381	-78.60454	6.949017E-007	0.0006642	8
	45	118	9.450605	104.5547	-529.361	1	539.5876	-78.82725	6.758623E-007	0.0006612	8
	46	120	7.512019	126.3532	-649.0594	1	661.2438	-78.98393	6.812699E-007	0.0006857	8
	47	123	5.978954	152.8965	-794.9475	1	809.5177	-79.11295	6.020843E-007	0.0006702	8
	48	126	4.734848	185.7901	-978.723	1	996.201	-79.25149	6.663633E-007	0.0006704	8
	49	129	3.75601	226.0089	-1202.079	1	1223.141	-79.35184	6.179823E-007	0.0006609	8
	50	132	3.004808	273.4472	-1464.816	1	1490.12	-79.42591	6.532449E-007	0.0006341	8
	51	136	2.372217	334.4344	-1808.656	1	1839.315	-79.5239	6.325056E-007	0.0005946	8
	52	140	1.878005	409.176	-2226.523	1	2263.809	-79.58675	6.515631E-007	0.0006747	8
	53	145	1.512097	495.7829	-2695.76	1	2740.971	-79.57906	6.183939E-007	0.0006144	8
	54	151	1.201923	603.554	-3319.143	1	3373.572	-79.69392	6.470848E-007	0.0006989	8
	55	157	0.956633	738.9493	-4073.079	1	4139.568	-79.71709	6.231202E-007	3.288736E-005	8
