EXPLAIN
TAG	EISPOT
TITLE	LABEL	Potentiostatic EIS	Test Identifier
DATE	LABEL	2/27/2021	Date
TIME	LABEL	14:10:30	Time
NOTES	NOTES	1	Notes...
	
PSTAT	PSTAT	REF3000-16137	Potentiostat
VDC	POTEN	0.00000E+000	T	DC Voltage (V)
FREQINIT	QUANT	3.00000E+005	Initial Freq. (Hz)
FREQFINAL	QUANT	1.00000E+000	Final Freq. (Hz)
PTSPERDEC	QUANT	1.00000E+001	Points/decade
VAC	QUANT	5.00000E+001	AC Voltage (mV rms)
AREA	QUANT	1.00000E+000	Sample Area (cm^2)
SPEED	SELECTOR	2	Optimize for:
ZGUESS	QUANT	1.00000E+003	Estimated Z (ohms)
EOC	QUANT	0	Open Circuit (V)
SEQUENCER	TOGGLE	TRUE	Run as Sequence
PSTATMODEL	IQUANT	5	Pstat Model
PSTATSECTION	LABEL	REF3000-16137	Pstat Section
PSTATSERIALNO	LABEL	16137	Pstat Serial Number
CTRLMODE	IQUANT	1	Control Mode
IESTAB	IQUANT	0	I/E Stability
CASPEED	IQUANT	1	Control Amp Speed
CONVENTION	IQUANT	1	Current Convention
ICHRANGE	IQUANT	2	Ich Range
ICHRANGEMODE	TOGGLE	F	Ich Auto Range
ICHOFFSETENABLE	TOGGLE	T	Ich Offset Enable
ICHOFFSET	QUANT	0	Ich Offset (V)
ICHFILTER	IQUANT	3	Ich Filter
VCHRANGE	IQUANT	2	Vch Range
VCHRANGEMODE	TOGGLE	F	Vch Auto Range
VCHOFFSETENABLE	TOGGLE	T	Vch Offset Enable
VCHOFFSET	QUANT	0	Vch Offset (V)
VCHFILTER	IQUANT	3	Vch Filter
ACHRANGE	IQUANT	2	Ach Range
ACHOFFSETENABLE	TOGGLE	F	Ach Offset Enable
ACHOFFSET	QUANT	0	Ach Offset (V)
ACHFILTER	IQUANT	3	Ach Filter
IERANGELOWERLIMIT	IQUANT	2	I/E Range Lower Limit
IERANGEMODE	TOGGLE	F	I/E AutoRange
IERANGE	IQUANT	11	I/E Range
POSFEEDENABLE	TOGGLE	F	Positive Feedback IR Comp
POSFEEDRESISTANCE	QUANT	0	Positive Feedback Resistance (ohm)
ACHSELECT	IQUANT	0	Ach Select
CABLEID	IQUANT	13	Cable ID
DCCALDATE	LABEL	7/31/2020	DC Calibration Date
ACCALDATE	LABEL	7/31/2020	AC Calibration Date
THERMOSELECT	IQUANT	1	Thermo Select
FRAMEWORKVERSION	QUANT	6.33	Framework Version
INSTRUMENTVERSION	LABEL	3.50	Instrument Version
COMPLIANCEVOLTAGE	IQUANT	0	Compliance Voltage
ZCURVE	TABLE
	Pt	Time	Freq	Zreal	Zimag	Zsig	Zmod	Zphz	Idc	Vdc	IERange
	#	s	Hz	ohm	ohm	V	ohm	°	A	V	#
	0	10	300046.9	2.998158	2.22586	1	3.734087	36.59053	4.082814E-005	-3.893357E-005	10
	1	13	238359.4	2.966698	1.773026	1	3.456142	30.86434	7.371083E-005	-0.0006863	10
	2	16	189328.1	3.030626	1.16678	1	3.247471	21.05653	-4.341154E-005	-0.0002214	12
	3	20	150421.9	2.951501	1.082188	1	3.143642	20.1358	-5.301879E-005	0.000367	11
	4	22	119484.4	2.93335	0.8354628	1	3.050007	15.89776	2.375465E-005	0.0005793	11
	5	25	94921.88	2.929153	0.6368166	1	2.997578	12.2656	1.653058E-005	0.0005884	11
	6	27	75421.88	2.928999	0.4708288	1	2.9666	9.132022	1.672854E-005	0.0006096	11
	7	30	59859.37	2.930001	0.3292589	1	2.948443	6.411715	2.013604E-005	0.0006559	11
	8	32	47578.12	2.933219	0.2073527	1	2.940539	4.04358	-4.560197E-005	0.0006738	11
	9	35	37828.12	2.937561	0.0964	1	2.939142	1.879564	4.895872E-006	0.0006761	11
	10	37	30046.88	2.943419	-0.0085851	1	2.943431	-0.1671146	-2.242846E-005	0.0006969	11
	11	40	23859.38	2.950108	-0.112933	1	2.952269	-2.192268	-3.225924E-005	0.0007387	11
	12	42	18984.38	2.957543	-0.2212024	1	2.965804	-4.277337	7.919536E-006	0.000711	11
	13	44	15046.87	2.967188	-0.3409782	1	2.986716	-6.555462	-3.342477E-005	0.0006909	11
	14	47	11953.13	2.978655	-0.4751588	1	3.016316	-9.063531	2.251215E-005	0.0007293	11
	15	49	9515.62	2.993252	-0.6307335	1	3.058983	-11.8992	-4.392315E-005	0.0006683	11
	16	51	7546.875	3.012338	-0.8179057	1	3.121402	-15.19064	-6.56289E-006	0.0007099	11
	17	54	5928.309	3.03672	-1.055666	1	3.21498	-19.16916	-1.529331E-005	0.0007046	11
	18	56	4733.456	3.065373	-1.325837	1	3.339813	-23.38948	-3.793617E-005	0.0006895	11
	19	58	3796.875	3.102005	-1.646365	1	3.51183	-27.95679	6.142361E-006	0.0007153	11
	20	61	2987.132	3.154361	-2.07898	1	3.777851	-33.38813	2.267858E-005	0.0006768	10
	21	63	2390.625	3.214192	-2.571471	1	4.116248	-38.66109	-8.537669E-006	0.0006763	10
	22	65	1884.191	3.29677	-3.221316	1	4.609292	-44.33677	-2.12515E-005	0.0006918	10
	23	68	1516.544	3.393223	-3.949059	1	5.206633	-49.32923	-1.917588E-005	0.0007006	10
	24	70	1193.986	3.529293	-4.934529	1	6.066752	-54.42674	-2.195157E-005	0.0006913	10
	25	72	946.5144	3.696051	-6.121093	1	7.150425	-58.87549	-2.315373E-005	0.0007061	10
	26	75	751.7689	3.91618	-7.568815	1	8.521938	-62.64251	-1.502639E-005	0.0006825	10
	27	77	597.4265	4.190968	-9.343485	1	10.24036	-65.84165	1.316039E-005	0.0006607	10
	28	79	477.4305	4.527357	-11.46771	1	12.32904	-68.4563	-1.00828E-007	0.0006947	10
	29	82	376.6741	4.980786	-14.22743	1	15.07408	-70.7057	2.471946E-007	0.0006881	10
	30	84	298.2954	5.545904	-17.57584	1	18.43007	-72.48737	2.081135E-007	0.000689	10
	31	86	237.7717	6.237869	-21.56678	1	22.45077	-73.86828	2.179405E-008	0.0006873	10
	32	89	189.0121	7.115508	-26.51373	1	27.45193	-74.97747	2.788857E-007	0.0006871	10
	33	91	150.2404	8.217755	-32.57315	1	33.59377	-75.84054	-3.273435E-007	0.0006869	10
	34	93	119.1737	9.60524	-40.06293	1	41.19829	-76.51761	-4.944894E-008	0.0006937	10
	35	96	95.0169	11.28396	-48.94978	1	50.23354	-77.01888	2.510832E-006	8.703375E-005	9
	36	98	75.60484	13.39298	-59.95049	1	61.42828	-77.40686	2.389651E-006	8.62901E-005	9
	37	101	54.50582	17.30155	-80.06681	1	81.91482	-77.8065	2.32067E-006	8.768076E-005	9
	38	103	45.95588	19.85412	-93.10301	1	95.1964	-77.96205	2.643066E-006	9.292297E-005	9
	39	106	37.20238	23.59418	-112.1402	1	114.5954	-78.11833	2.525636E-006	8.903822E-005	9
	40	108	30.04808	28.20141	-135.4437	1	138.3485	-78.2382	2.50575E-006	8.482924E-005	9
	41	110	23.91582	34.17188	-165.5689	1	169.0585	-78.33842	2.390432E-006	8.930605E-005	9
	42	113	18.60119	42.58729	-206.8015	1	211.141	-78.36357	2.537842E-006	9.40871E-005	9
	43	115	15.02404	51.4072	-249.7302	1	254.9665	-78.3681	2.633017E-006	0.0000956	9
	44	117	12.01923	63.07046	-304.2832	1	310.751	-78.28981	2.393293E-006	8.568863E-005	9
	45	120	9.450605	78.91286	-376.4544	1	384.6364	-78.161	2.451E-006	0.0001011	9
	46	122	7.512019	98.3642	-459.5521	1	469.9613	-77.9185	1.849451E-006	0.0006483	8
	47	125	5.978954	124.0975	-562.6747	1	576.197	-77.56257	1.898517E-006	0.0006663	8
	48	128	4.734848	159.2684	-692.2923	1	710.3767	-77.04401	1.835053E-006	0.0006596	8
	49	131	3.75601	206.5852	-849.028	1	873.7997	-76.32455	1.909214E-006	0.0006799	8
	50	135	3.004808	269.1404	-1031.652	1	1066.181	-75.37841	1.808729E-006	0.0007033	8
	51	138	2.372217	360.8026	-1264.699	1	1315.158	-74.07722	1.787503E-006	0.0007187	8
	52	143	1.878005	490.3416	-1539.598	1	1615.796	-72.33401	1.785109E-006	0.0006419	8
	53	147	1.512097	654.4762	-1835.358	1	1948.558	-70.37411	1.78438E-006	0.0007548	8
	54	153	1.201923	889.4294	-2197.188	1	2370.384	-67.96172	1.774399E-006	0.0006286	8
	55	159	0.956633	1206.338	-2593.197	1	2860.056	-65.05247	1.632369E-006	1.432202E-005	8
