EXPLAIN
TAG	EISPOT
TITLE	LABEL	Potentiostatic EIS	Test Identifier
DATE	LABEL	2/27/2021	Date
TIME	LABEL	14:46:44	Time
NOTES	NOTES	1	Notes...
	
PSTAT	PSTAT	REF3000-16137	Potentiostat
VDC	POTEN	0.00000E+000	T	DC Voltage (V)
FREQINIT	QUANT	3.00000E+005	Initial Freq. (Hz)
FREQFINAL	QUANT	1.00000E+000	Final Freq. (Hz)
PTSPERDEC	QUANT	1.00000E+001	Points/decade
VAC	QUANT	5.00000E+001	AC Voltage (mV rms)
AREA	QUANT	1.00000E+000	Sample Area (cm^2)
SPEED	SELECTOR	2	Optimize for:
ZGUESS	QUANT	1.00000E+003	Estimated Z (ohms)
EOC	QUANT	0	Open Circuit (V)
SEQUENCER	TOGGLE	TRUE	Run as Sequence
PSTATMODEL	IQUANT	5	Pstat Model
PSTATSECTION	LABEL	REF3000-16137	Pstat Section
PSTATSERIALNO	LABEL	16137	Pstat Serial Number
CTRLMODE	IQUANT	1	Control Mode
IESTAB	IQUANT	0	I/E Stability
CASPEED	IQUANT	1	Control Amp Speed
CONVENTION	IQUANT	1	Current Convention
ICHRANGE	IQUANT	2	Ich Range
ICHRANGEMODE	TOGGLE	F	Ich Auto Range
ICHOFFSETENABLE	TOGGLE	T	Ich Offset Enable
ICHOFFSET	QUANT	0	Ich Offset (V)
ICHFILTER	IQUANT	3	Ich Filter
VCHRANGE	IQUANT	2	Vch Range
VCHRANGEMODE	TOGGLE	F	Vch Auto Range
VCHOFFSETENABLE	TOGGLE	T	Vch Offset Enable
VCHOFFSET	QUANT	0	Vch Offset (V)
VCHFILTER	IQUANT	3	Vch Filter
ACHRANGE	IQUANT	2	Ach Range
ACHOFFSETENABLE	TOGGLE	F	Ach Offset Enable
ACHOFFSET	QUANT	0	Ach Offset (V)
ACHFILTER	IQUANT	3	Ach Filter
IERANGELOWERLIMIT	IQUANT	2	I/E Range Lower Limit
IERANGEMODE	TOGGLE	F	I/E AutoRange
IERANGE	IQUANT	11	I/E Range
POSFEEDENABLE	TOGGLE	F	Positive Feedback IR Comp
POSFEEDRESISTANCE	QUANT	0	Positive Feedback Resistance (ohm)
ACHSELECT	IQUANT	0	Ach Select
CABLEID	IQUANT	13	Cable ID
DCCALDATE	LABEL	7/31/2020	DC Calibration Date
ACCALDATE	LABEL	7/31/2020	AC Calibration Date
THERMOSELECT	IQUANT	1	Thermo Select
FRAMEWORKVERSION	QUANT	6.33	Framework Version
INSTRUMENTVERSION	LABEL	3.50	Instrument Version
COMPLIANCEVOLTAGE	IQUANT	0	Compliance Voltage
ZCURVE	TABLE
	Pt	Time	Freq	Zreal	Zimag	Zsig	Zmod	Zphz	Idc	Vdc	IERange
	#	s	Hz	ohm	ohm	V	ohm	°	A	V	#
	0	7	300046.9	9.8265	2.136564	1	10.05609	12.26683	1.06098E-005	0.0000978	10
	1	11	238359.4	9.81184	1.703812	1	9.95867	9.8511	-0.0001095	0.0001408	10
	2	14	189328.1	9.81344	1.338998	1	9.90437	7.769765	9.889091E-006	0.0004895	10
	3	16	150421.9	9.82714	1.033878	1	9.88137	6.005791	1.051855E-005	0.0004738	10
	4	19	119484.4	9.84141	0.8051002	1	9.87429	4.676803	1.97525E-005	0.0005545	10
	5	21	94921.88	9.85795	0.6302913	1	9.87808	3.65836	-2.734016E-005	0.00061	10
	6	24	75421.88	9.87546	0.4512061	1	9.88576	2.616004	3.158554E-006	0.000605	10
	7	26	59859.37	9.90042	0.2969113	1	9.90487	1.717773	-1.555793E-005	0.0006582	10
	8	29	47578.12	9.92873	0.1651318	1	9.93011	0.952839	-2.504036E-005	0.0006975	10
	9	31	37828.12	9.95467	0.0459458	1	9.95477	0.2644471	-2.125006E-005	0.0007165	10
	10	34	30046.88	9.9822	-0.0693013	1	9.98244	-0.3977685	-2.406589E-005	0.0006956	10
	11	36	23859.38	10.01031	-0.1859072	1	10.01204	-1.06395	-2.413419E-005	0.0006731	10
	12	39	18984.38	10.03962	-0.3073798	1	10.04433	-1.753658	-2.291086E-005	0.000731	10
	13	41	15046.87	10.06921	-0.4458201	1	10.07907	-2.535149	-2.93088E-005	0.0006731	10
	14	43	11953.13	10.10402	-0.6042688	1	10.12207	-3.422486	1.769598E-005	0.0006533	10
	15	46	9515.62	10.13837	-0.787325	1	10.16889	-4.440561	1.203549E-005	0.000637	10
	16	48	7546.875	10.17793	-1.012864	1	10.2282	-5.683121	2.328462E-006	0.0006734	10
	17	50	5928.309	10.22472	-1.296291	1	10.30656	-7.225417	2.219872E-005	0.0006689	10
	18	53	4733.456	10.27487	-1.622459	1	10.40218	-8.973226	-2.513414E-005	0.0007209	10
	19	55	3796.875	10.33086	-2.013055	1	10.52516	-11.0264	1.797716E-005	0.0006633	10
	20	57	2987.132	10.40089	-2.537107	1	10.70586	-13.70854	1.767795E-005	0.0006516	10
	21	59	2390.625	10.48213	-3.140594	1	10.9425	-16.67897	-2.675519E-005	0.0007279	10
	22	62	1884.191	10.58221	-3.940274	1	11.29199	-20.42275	-2.324142E-005	0.000737	10
	23	64	1516.544	10.69708	-4.842238	1	11.74201	-24.35479	4.632118E-006	0.0007012	10
	24	66	1193.986	10.85151	-6.069246	1	12.43346	-29.21827	-2.60404E-005	0.0007178	10
	25	69	946.5144	11.03634	-7.555812	1	13.37502	-34.39673	-4.723395E-006	0.0006557	10
	26	71	751.7689	11.26818	-9.370863	1	14.65554	-39.74765	-1.876927E-005	0.0006828	10
	27	73	597.4265	11.56257	-11.61643	1	16.39007	-45.13313	1.824588E-005	0.0006516	10
	28	76	477.4305	11.9174	-14.31776	1	18.62854	-50.22765	-2.164969E-006	0.0006923	10
	29	78	376.6741	12.39602	-17.84703	1	21.72965	-55.21728	-1.832594E-006	0.000687	10
	30	80	298.2954	12.9957	-22.15848	1	25.68825	-59.60885	-2.183255E-006	0.0006929	10
	31	83	237.7717	13.73778	-27.33016	1	30.58863	-63.31314	-1.975227E-006	0.0006888	10
	32	85	189.0121	14.68667	-33.76784	1	36.82343	-66.4943	-1.868239E-006	0.0006903	10
	33	87	150.2404	15.87021	-41.64071	1	44.56245	-69.13703	1.356035E-006	8.531107E-005	9
	34	90	119.1737	17.40138	-51.47501	1	54.33677	-71.32192	1.402778E-006	8.758315E-005	9
	35	92	95.0169	19.29161	-63.28021	1	66.1555	-73.04563	1.386653E-006	8.662608E-005	9
	36	95	75.60484	21.67737	-77.8835	1	80.84397	-74.44648	1.35536E-006	8.274358E-005	9
	37	97	54.50582	26.15343	-104.7164	1	107.933	-75.97697	1.235897E-006	8.425333E-005	9
	38	100	45.95588	29.14322	-122.1589	1	125.5872	-76.58186	1.313253E-006	0.0000957	9
	39	102	37.20238	33.56405	-147.7488	1	151.5132	-77.20135	1.478358E-006	8.608929E-005	9
	40	104	30.04808	39.05303	-179.0111	1	183.2215	-77.69319	1.29302E-006	9.193217E-005	9
	41	107	23.91582	46.24879	-219.5236	1	224.3425	-78.10302	1.345986E-006	9.022765E-005	9
	42	109	18.60119	56.1978	-274.815	1	280.5022	-78.44274	1.49613E-006	9.084506E-005	9
	43	111	15.02404	66.75757	-332.4656	1	339.1017	-78.64626	1.43371E-006	8.101442E-005	9
	44	114	12.01923	80.11738	-405.449	1	413.2889	-78.82226	1.323418E-006	0.0001162	9
	45	116	9.450605	97.2978	-499.9791	1	509.3583	-78.98766	5.892488E-007	0.0006778	8
	46	119	7.512019	117.9001	-612.8	1	624.0387	-79.1096	6.278037E-007	0.0006516	8
	47	121	5.978954	142.7467	-750.3762	1	763.8332	-79.22912	6.807277E-007	0.0006713	8
	48	124	4.734848	173.6732	-924.0095	1	940.1893	-79.3551	6.442619E-007	0.0006662	8
	49	128	3.75601	211.6681	-1134.989	1	1154.558	-79.43607	6.985832E-007	0.0006686	8
	50	131	3.004808	256.5057	-1383.744	1	1407.317	-79.49824	6.514235E-007	0.0007025	8
	51	135	2.372217	314.2841	-1708.027	1	1736.701	-79.57396	6.630503E-007	0.000728	8
	52	139	1.878005	387.8008	-2103.795	1	2139.239	-79.55569	6.659509E-007	0.000646	8
	53	144	1.512097	472.6647	-2551.45	1	2594.862	-79.50475	6.886327E-007	0.0007522	8
	54	149	1.201923	578.9029	-3138.027	1	3190.978	-79.5476	6.801989E-007	0.0006363	8
	55	155	0.956633	712.5981	-3851.821	1	3917.183	-79.51862	6.50516E-007	2.113617E-005	8
