EXPLAIN
TAG	EISPOT
TITLE	LABEL	Potentiostatic EIS	Test Identifier
DATE	LABEL	2/27/2021	Date
TIME	LABEL	15:06:10	Time
NOTES	NOTES	1	Notes...
	
PSTAT	PSTAT	REF3000-16137	Potentiostat
VDC	POTEN	0.00000E+000	T	DC Voltage (V)
FREQINIT	QUANT	3.00000E+005	Initial Freq. (Hz)
FREQFINAL	QUANT	1.00000E+000	Final Freq. (Hz)
PTSPERDEC	QUANT	1.00000E+001	Points/decade
VAC	QUANT	5.00000E+001	AC Voltage (mV rms)
AREA	QUANT	1.00000E+000	Sample Area (cm^2)
SPEED	SELECTOR	2	Optimize for:
ZGUESS	QUANT	1.00000E+003	Estimated Z (ohms)
EOC	QUANT	0	Open Circuit (V)
SEQUENCER	TOGGLE	TRUE	Run as Sequence
PSTATMODEL	IQUANT	5	Pstat Model
PSTATSECTION	LABEL	REF3000-16137	Pstat Section
PSTATSERIALNO	LABEL	16137	Pstat Serial Number
CTRLMODE	IQUANT	1	Control Mode
IESTAB	IQUANT	0	I/E Stability
CASPEED	IQUANT	1	Control Amp Speed
CONVENTION	IQUANT	1	Current Convention
ICHRANGE	IQUANT	2	Ich Range
ICHRANGEMODE	TOGGLE	F	Ich Auto Range
ICHOFFSETENABLE	TOGGLE	T	Ich Offset Enable
ICHOFFSET	QUANT	0	Ich Offset (V)
ICHFILTER	IQUANT	3	Ich Filter
VCHRANGE	IQUANT	2	Vch Range
VCHRANGEMODE	TOGGLE	F	Vch Auto Range
VCHOFFSETENABLE	TOGGLE	T	Vch Offset Enable
VCHOFFSET	QUANT	0	Vch Offset (V)
VCHFILTER	IQUANT	3	Vch Filter
ACHRANGE	IQUANT	2	Ach Range
ACHOFFSETENABLE	TOGGLE	F	Ach Offset Enable
ACHOFFSET	QUANT	0	Ach Offset (V)
ACHFILTER	IQUANT	3	Ach Filter
IERANGELOWERLIMIT	IQUANT	2	I/E Range Lower Limit
IERANGEMODE	TOGGLE	F	I/E AutoRange
IERANGE	IQUANT	11	I/E Range
POSFEEDENABLE	TOGGLE	F	Positive Feedback IR Comp
POSFEEDRESISTANCE	QUANT	0	Positive Feedback Resistance (ohm)
ACHSELECT	IQUANT	0	Ach Select
CABLEID	IQUANT	13	Cable ID
DCCALDATE	LABEL	7/31/2020	DC Calibration Date
ACCALDATE	LABEL	7/31/2020	AC Calibration Date
THERMOSELECT	IQUANT	1	Thermo Select
FRAMEWORKVERSION	QUANT	6.33	Framework Version
INSTRUMENTVERSION	LABEL	3.50	Instrument Version
COMPLIANCEVOLTAGE	IQUANT	0	Compliance Voltage
ZCURVE	TABLE
	Pt	Time	Freq	Zreal	Zimag	Zsig	Zmod	Zphz	Idc	Vdc	IERange
	#	s	Hz	ohm	ohm	V	ohm	°	A	V	#
	0	6	300046.9	38.45005	2.180222	1	38.51182	3.24535	5.446909E-005	-0.0023146	9
	1	10	238359.4	38.70371	1.669271	1	38.73969	2.469606	-5.416453E-005	0.0009449	9
	2	13	189328.1	38.87358	1.296381	1	38.89519	1.910029	1.107822E-005	6.098246E-005	9
	3	15	150421.9	39.03383	0.9449797	1	39.04527	1.386817	4.99249E-005	-0.0014384	9
	4	18	119484.4	39.21689	0.7517833	1	39.22409	1.098219	3.623204E-005	-0.0004715	9
	5	20	94921.88	39.40421	0.6909299	1	39.41027	1.004545	-1.197868E-005	0.0004961	9
	6	23	75421.88	39.54683	0.4861818	1	39.54981	0.7043488	4.732696E-006	-0.0003393	9
	7	25	59859.37	39.69872	0.3078038	1	39.69992	0.4442336	-1.219647E-005	0.0005229	9
	8	28	47578.12	39.85086	0.1561329	1	39.85117	0.2244798	1.608784E-005	-0.0001061	9
	9	30	37828.12	40.01467	0.0097061	1	40.01467	0.0138979	-1.387954E-005	0.0004168	9
	10	33	30046.88	40.18565	-0.1309449	1	40.18587	-0.1866976	-1.185403E-005	0.0002096	9
	11	35	23859.38	40.35666	-0.2724625	1	40.35758	-0.3868187	-9.002978E-006	0.0005572	9
	12	38	18984.38	40.52044	-0.4133696	1	40.52255	-0.584483	1.824864E-005	-0.0002864	9
	13	40	15046.87	40.69846	-0.5682411	1	40.70242	-0.7999247	1.344286E-005	-0.000446	9
	14	42	11953.13	40.85649	-0.7337433	1	40.86308	-1.028867	1.734144E-005	-0.0002258	9
	15	45	9515.62	41.01854	-0.964507	1	41.02987	-1.347001	2.527104E-006	0.0002745	9
	16	47	7546.875	41.1892	-1.208172	1	41.20691	-1.680133	-7.869085E-006	0.0001101	9
	17	49	5928.309	41.36904	-1.552563	1	41.39816	-2.149278	-1.18183E-005	0.0002294	9
	18	53	4733.456	41.6239	-1.94228	1	41.66919	-2.671633	-8.002745E-006	0.0001033	9
	19	55	3796.875	41.83594	-2.384025	1	41.90381	-3.261478	-1.388234E-005	0.0006156	9
	20	57	2987.132	42.0372	-2.998371	1	42.14399	-4.079804	-1.309241E-005	0.0003533	9
	21	59	2390.625	42.2501	-3.702152	1	42.41199	-5.007734	1.671111E-005	-0.000453	9
	22	62	1884.191	42.48712	-4.668478	1	42.74284	-6.270496	-1.180001E-005	0.0002334	9
	23	64	1516.544	42.74332	-5.695377	1	43.12109	-7.589728	3.01832E-006	0.0003155	9
	24	66	1193.986	43.04597	-7.140727	1	43.63422	-9.4188	-8.126035E-006	0.000097	9
	25	69	946.5144	43.38129	-8.880629	1	44.28094	-11.56924	9.022051E-006	-0.0003838	9
	26	71	751.7689	43.76239	-11.05	1	45.1359	-14.17098	1.886913E-005	-0.0003253	9
	27	73	597.4265	44.19587	-13.7322	1	46.2801	-17.26066	-1.192882E-005	0.0002238	9
	28	76	477.4305	44.6936	-16.93998	1	47.79624	-20.75795	1.462017E-006	8.931279E-005	9
	29	78	376.6741	45.32124	-21.16417	1	50.01937	-25.03169	1.39701E-006	8.746386E-005	9
	30	80	298.2954	46.07597	-26.33553	1	53.07123	-29.75088	1.433026E-006	8.836638E-005	9
	31	83	237.7717	46.98254	-32.55399	1	57.15874	-34.71791	1.426543E-006	8.53095E-005	9
	32	85	189.0121	48.10555	-40.31704	1	62.76629	-39.96622	1.361471E-006	8.939945E-005	9
	33	87	150.2404	49.49295	-49.90562	1	70.286	-45.23787	1.360269E-006	9.314302E-005	9
	34	90	119.1737	51.22953	-61.85939	1	80.31842	-50.36977	1.34536E-006	9.39891E-005	9
	35	92	95.0169	53.34389	-76.27618	1	93.07861	-55.03291	1.354231E-006	8.783164E-005	9
	36	95	75.60484	56.00937	-94.18577	1	109.5811	-59.26136	1.418714E-006	8.827483E-005	9
	37	97	54.50582	60.95259	-127.2508	1	141.0956	-64.40578	1.38276E-006	8.542528E-005	9
	38	100	45.95588	64.3317	-148.8417	1	162.1494	-66.62524	1.416606E-006	9.165744E-005	9
	39	102	37.20238	69.30904	-180.5797	1	193.4238	-69.00249	1.412347E-006	8.953657E-005	9
	40	104	30.04808	75.55087	-219.495	1	232.1335	-71.00637	1.471131E-006	8.495304E-005	9
	41	107	23.91582	83.78265	-270.1367	1	282.831	-72.76877	1.396919E-006	8.719643E-005	9
	42	109	18.60119	95.2625	-339.3519	1	352.4693	-74.31956	1.456716E-006	0.0000978	9
	43	112	15.02404	106.9478	-409.9938	1	423.7131	-75.38007	5.114392E-007	0.0006699	8
	44	114	12.01923	122.5792	-501.4327	1	516.1981	-76.263	4.47603E-007	0.0006642	8
	45	116	9.450605	143.6644	-622.7258	1	639.0828	-77.00901	4.033555E-007	0.0006577	8
	46	119	7.512019	168.2381	-765.3448	1	783.6177	-77.60242	4.178338E-007	0.0006549	8
	47	121	5.978954	199.2036	-939.1336	1	960.028	-78.02425	4.803231E-007	0.0006583	8
	48	124	4.734848	238.5762	-1158.209	1	1182.525	-78.3606	4.414212E-007	0.0006723	8
	49	128	3.75601	286.4753	-1424.335	1	1452.859	-78.62787	4.722778E-007	0.0006623	8
	50	131	3.004808	343.6472	-1736.878	1	1770.547	-78.80837	4.332585E-007	0.0007027	8
	51	135	2.372217	419.5707	-2144.468	1	2185.127	-78.92977	4.557231E-007	0.0007455	8
	52	139	1.878005	507.7195	-2640.366	1	2688.738	-79.11538	4.30203E-007	0.0006456	8
	53	144	1.512097	608.5597	-3194.133	1	3251.589	-79.21305	4.749922E-007	0.0006776	8
	54	149	1.201923	739.0229	-3931.689	1	4000.541	-79.35457	4.4466E-007	0.000646	8
	55	155	0.956633	900.3237	-4829.12	1	4912.33	-79.43922	3.860506E-008	-4.019316E-007	7
