EXPLAIN
TAG	EISPOT
TITLE	LABEL	Potentiostatic EIS	Test Identifier
DATE	LABEL	2/27/2021	Date
TIME	LABEL	15:46:22	Time
NOTES	NOTES	1	Notes...
	
PSTAT	PSTAT	REF3000-16137	Potentiostat
VDC	POTEN	0.00000E+000	T	DC Voltage (V)
FREQINIT	QUANT	3.00000E+005	Initial Freq. (Hz)
FREQFINAL	QUANT	1.00000E+000	Final Freq. (Hz)
PTSPERDEC	QUANT	1.00000E+001	Points/decade
VAC	QUANT	5.00000E+001	AC Voltage (mV rms)
AREA	QUANT	1.00000E+000	Sample Area (cm^2)
SPEED	SELECTOR	2	Optimize for:
ZGUESS	QUANT	1.00000E+003	Estimated Z (ohms)
EOC	QUANT	0	Open Circuit (V)
SEQUENCER	TOGGLE	TRUE	Run as Sequence
PSTATMODEL	IQUANT	5	Pstat Model
PSTATSECTION	LABEL	REF3000-16137	Pstat Section
PSTATSERIALNO	LABEL	16137	Pstat Serial Number
CTRLMODE	IQUANT	1	Control Mode
IESTAB	IQUANT	0	I/E Stability
CASPEED	IQUANT	1	Control Amp Speed
CONVENTION	IQUANT	1	Current Convention
ICHRANGE	IQUANT	2	Ich Range
ICHRANGEMODE	TOGGLE	F	Ich Auto Range
ICHOFFSETENABLE	TOGGLE	T	Ich Offset Enable
ICHOFFSET	QUANT	0	Ich Offset (V)
ICHFILTER	IQUANT	3	Ich Filter
VCHRANGE	IQUANT	2	Vch Range
VCHRANGEMODE	TOGGLE	F	Vch Auto Range
VCHOFFSETENABLE	TOGGLE	T	Vch Offset Enable
VCHOFFSET	QUANT	0	Vch Offset (V)
VCHFILTER	IQUANT	3	Vch Filter
ACHRANGE	IQUANT	2	Ach Range
ACHOFFSETENABLE	TOGGLE	F	Ach Offset Enable
ACHOFFSET	QUANT	0	Ach Offset (V)
ACHFILTER	IQUANT	3	Ach Filter
IERANGELOWERLIMIT	IQUANT	2	I/E Range Lower Limit
IERANGEMODE	TOGGLE	F	I/E AutoRange
IERANGE	IQUANT	11	I/E Range
POSFEEDENABLE	TOGGLE	F	Positive Feedback IR Comp
POSFEEDRESISTANCE	QUANT	0	Positive Feedback Resistance (ohm)
ACHSELECT	IQUANT	0	Ach Select
CABLEID	IQUANT	13	Cable ID
DCCALDATE	LABEL	7/31/2020	DC Calibration Date
ACCALDATE	LABEL	7/31/2020	AC Calibration Date
THERMOSELECT	IQUANT	1	Thermo Select
FRAMEWORKVERSION	QUANT	6.33	Framework Version
INSTRUMENTVERSION	LABEL	3.50	Instrument Version
COMPLIANCEVOLTAGE	IQUANT	0	Compliance Voltage
ZCURVE	TABLE
	Pt	Time	Freq	Zreal	Zimag	Zsig	Zmod	Zphz	Idc	Vdc	IERange
	#	s	Hz	ohm	ohm	V	ohm	°	A	V	#
	0	14	300046.9	760.5524	-3811.355	1	3886.498	-78.71491	7.943409E-005	-0.0018059	9
	1	30	238359.4	1087.197	-4680.708	1	4805.312	-76.92367	7.927195E-005	-0.0016831	9
	2	53	189328.1	1428.404	-5842.098	1	6014.187	-76.26063	4.907238E-005	0.0001414	9
	3	62	150421.9	2103.656	-6618.93	1	6945.186	-72.36848	1.873605E-005	-0.0008426	9
	4	69	119484.4	2985.162	-8068.006	1	8602.553	-69.69553	-7.681623E-005	0.0353615	8
	5	77	94921.88	4011.899	-9804.84	1	10593.88	-67.74683	-2.400428E-005	0.0108833	8
	6	85	75421.88	5135.825	-11739.21	1	12813.5	-66.37096	2.573566E-005	-0.0088306	8
	7	94	59859.37	7047.986	-13701.24	1	15407.72	-62.77848	7.395417E-006	-0.0073493	8
	8	102	47578.12	11517.21	-15645.87	1	19427.8	-53.64252	4.704793E-006	-0.000784	7
	9	108	37828.12	14092.38	-17716.85	1	22638.06	-51.50048	1.214202E-006	-0.0187619	7
	10	114	30046.88	17470.57	-20011.88	1	26564.94	-48.87873	-1.610214E-006	0.0206972	7
	11	121	23859.38	21072.41	-22095.15	1	30532.64	-46.35722	-1.015438E-006	-0.0126387	7
	12	126	18984.38	24231.94	-23299.85	1	33616.51	-43.87658	-2.393693E-005	0.0053989	8
	13	132	15046.87	31250.45	-25415.34	1	40280.64	-39.12074	-2.640337E-005	0.0096498	8
	14	140	11953.13	34894.62	-26910.08	1	44065.71	-37.63874	7.781881E-006	-0.0074727	8
	15	148	9515.62	41578.51	-26575.42	1	49345.98	-32.58519	5.152808E-006	-0.0254519	7
	16	153	7546.875	47656.1	-25666.44	1	54128.27	-28.30584	1.280767E-006	-0.0189356	7
	17	158	5928.309	53615.93	-25025.9	1	59168.94	-25.0214	2.691962E-006	0.0079467	7
	18	164	4733.456	59987.21	-24861.57	1	64935.07	-22.51146	2.69968E-006	0.0079985	7
	19	169	3796.875	64351.02	-22895.12	1	68302.56	-19.58479	7.254138E-006	-0.0177876	7
	20	174	2987.132	67952.52	-20711.18	1	71038.7	-16.95065	-6.954967E-006	0.0227502	7
	21	180	2390.625	73775.38	-18724.84	1	76114.56	-14.24145	6.59225E-006	-0.0259184	7
	22	186	1884.191	77772.77	-15396.72	1	79282.17	-11.19808	-5.087105E-006	0.0255515	7
	23	192	1516.544	80404.61	-12125.19	1	81313.73	-8.575712	-5.093341E-006	0.0255415	7
	24	197	1193.986	102208.8	-21676.03	1	104482	-11.97365	-2.417589E-005	0.0109687	8
	25	205	946.5144	67181.23	-17256.26	1	69362.07	-14.40564	-1.135581E-005	0.0101088	8
	26	211	751.7689	92221.7	-12429.15	1	93055.5	-7.675768	-3.235937E-006	-0.0048116	7
	27	214	597.4265	96794.9	-816.3715	1	96798.4	-0.483223	-1.045073E-006	-0.012599	7
	28	218	477.4305	97067.1	-6239.152	1	97267.4	-3.677723	-8.807935E-009	0.0006985	6
	29	220	376.6741	98640.4	-5250.985	1	98780	-3.047186	-8.791623E-009	0.0006397	6
	30	223	298.2954	100060	-4560.911	1	100163.9	-2.609836	-9.175289E-009	0.0007085	6
	31	225	237.7717	101664.4	-3740.257	1	101733.2	-2.106975	-8.910924E-009	0.0006846	6
	32	227	189.0121	103098.8	-3154.262	1	103147	-1.752393	-8.750455E-009	0.0006831	6
	33	230	150.2404	104710	-2716.432	1	104745.2	-1.486058	-8.294366E-009	0.0006975	6
	34	233	119.1737	106277	-2466.627	1	106305.6	-1.329563	-8.953285E-009	0.0007024	6
	35	235	95.0169	107627.9	-2020.636	1	107646.9	-1.07556	-8.344516E-009	0.0006528	6
	36	237	75.60484	109124.4	-1614.305	1	109136.4	-0.8475289	-9.941119E-009	0.0007359	6
	37	240	54.50582	110912.1	-1752.945	1	110926	-0.9054735	-9.313652E-009	0.0006702	6
	38	243	45.95588	112066.4	-1296.159	1	112073.9	-0.6626531	-7.901186E-009	0.0006839	6
	39	245	37.20238	113575	-1199.89	1	113581.3	-0.6052924	-1.036577E-008	0.0007355	6
	40	247	30.04808	115118.4	-1229.311	1	115125	-0.6118191	-9.712645E-009	0.0007403	6
	41	250	23.91582	116914.7	-1167.975	1	116920.5	-0.5723646	-9.236388E-009	0.0007252	6
	42	252	18.60119	118131.4	-1443.797	1	118140.2	-0.7002319	-1.085866E-008	0.0006589	6
	43	255	15.02404	119718.8	-1391.483	1	119726.9	-0.6659147	-1.029709E-008	0.0007107	6
	44	257	12.01923	121347.5	-1569.449	1	121357.6	-0.7409945	-1.149533E-008	0.0006377	6
	45	260	9.450605	123057.2	-1837.968	1	123070.9	-0.8556995	-5.68722E-009	0.0007043	6
	46	262	7.512019	124986.2	-2097.186	1	125003.8	-0.961295	-9.118745E-009	0.000722	6
	47	265	5.978954	127484.1	-2545.834	1	127509.5	-1.144034	-1.101299E-008	0.0007191	6
	48	269	4.734848	130134.1	-3032.269	1	130169.4	-1.334814	-7.186969E-009	0.0007059	6
	49	273	3.75601	133391.8	-3752.802	1	133444.6	-1.611515	-1.124866E-008	0.0006953	6
	50	278	3.004808	137809.2	-4542.513	1	137884	-1.88792	-2.975596E-009	0.0006177	6
	51	285	2.372217	142046.3	-5430.624	1	142150.1	-2.18943	-1.224187E-008	0.000642	6
	52	289	1.878005	145601.3	-6776.302	1	145758.9	-2.66463	-7.28111E-009	0.0006929	6
	53	294	1.512097	149835.3	-8449.161	1	150073.4	-3.22747	-1.66203E-009	0.000582	6
	54	299	1.201923	154962.5	-10201.09	1	155297.9	-3.766315	-9.228015E-009	0.0007066	6
	55	305	0.956633	161063.5	-12713.06	1	161564.4	-4.513113	-1.640988E-008	3.797519E-005	6
