EXPLAIN
TAG	EISPOT
TITLE	LABEL	Potentiostatic EIS	Test Identifier
DATE	LABEL	2/27/2021	Date
TIME	LABEL	14:21:42	Time
NOTES	NOTES	1	Notes...
	
PSTAT	PSTAT	REF3000-16137	Potentiostat
VDC	POTEN	0.00000E+000	T	DC Voltage (V)
FREQINIT	QUANT	3.00000E+005	Initial Freq. (Hz)
FREQFINAL	QUANT	1.00000E+000	Final Freq. (Hz)
PTSPERDEC	QUANT	1.00000E+001	Points/decade
VAC	QUANT	5.00000E+001	AC Voltage (mV rms)
AREA	QUANT	1.00000E+000	Sample Area (cm^2)
SPEED	SELECTOR	2	Optimize for:
ZGUESS	QUANT	1.00000E+003	Estimated Z (ohms)
EOC	QUANT	0	Open Circuit (V)
SEQUENCER	TOGGLE	TRUE	Run as Sequence
PSTATMODEL	IQUANT	5	Pstat Model
PSTATSECTION	LABEL	REF3000-16137	Pstat Section
PSTATSERIALNO	LABEL	16137	Pstat Serial Number
CTRLMODE	IQUANT	1	Control Mode
IESTAB	IQUANT	0	I/E Stability
CASPEED	IQUANT	1	Control Amp Speed
CONVENTION	IQUANT	1	Current Convention
ICHRANGE	IQUANT	2	Ich Range
ICHRANGEMODE	TOGGLE	F	Ich Auto Range
ICHOFFSETENABLE	TOGGLE	T	Ich Offset Enable
ICHOFFSET	QUANT	0	Ich Offset (V)
ICHFILTER	IQUANT	3	Ich Filter
VCHRANGE	IQUANT	2	Vch Range
VCHRANGEMODE	TOGGLE	F	Vch Auto Range
VCHOFFSETENABLE	TOGGLE	T	Vch Offset Enable
VCHOFFSET	QUANT	0	Vch Offset (V)
VCHFILTER	IQUANT	3	Vch Filter
ACHRANGE	IQUANT	2	Ach Range
ACHOFFSETENABLE	TOGGLE	F	Ach Offset Enable
ACHOFFSET	QUANT	0	Ach Offset (V)
ACHFILTER	IQUANT	3	Ach Filter
IERANGELOWERLIMIT	IQUANT	2	I/E Range Lower Limit
IERANGEMODE	TOGGLE	F	I/E AutoRange
IERANGE	IQUANT	11	I/E Range
POSFEEDENABLE	TOGGLE	F	Positive Feedback IR Comp
POSFEEDRESISTANCE	QUANT	0	Positive Feedback Resistance (ohm)
ACHSELECT	IQUANT	0	Ach Select
CABLEID	IQUANT	13	Cable ID
DCCALDATE	LABEL	7/31/2020	DC Calibration Date
ACCALDATE	LABEL	7/31/2020	AC Calibration Date
THERMOSELECT	IQUANT	1	Thermo Select
FRAMEWORKVERSION	QUANT	6.33	Framework Version
INSTRUMENTVERSION	LABEL	3.50	Instrument Version
COMPLIANCEVOLTAGE	IQUANT	0	Compliance Voltage
ZCURVE	TABLE
	Pt	Time	Freq	Zreal	Zimag	Zsig	Zmod	Zphz	Idc	Vdc	IERange
	#	s	Hz	ohm	ohm	V	ohm	°	A	V	#
	0	11	300046.9	3.862897	2.217869	1	4.454315	29.86214	3.197657E-005	1.547647E-005	10
	1	14	238359.4	3.824492	1.77236	1	4.21521	24.86412	-1.675522E-005	-0.0003443	10
	2	17	189328.1	3.811822	1.400858	1	4.061082	20.17855	-0.0001064	-5.566454E-005	10
	3	19	150421.9	3.79565	1.091137	1	3.949372	16.03837	-8.929601E-005	0.0002803	10
	4	22	119484.4	3.798987	0.8465787	1	3.892171	12.56271	1.062026E-005	0.0003512	10
	5	24	94921.88	3.798967	0.6575586	1	3.855455	9.81996	3.837223E-005	0.0004361	10
	6	27	75421.88	3.799783	0.4846196	1	3.830562	7.268193	-1.8321E-007	0.0004832	10
	7	29	59859.37	3.803654	0.3366264	1	3.818521	5.057546	8.78985E-006	0.0005458	10
	8	32	47578.12	3.807667	0.2084417	1	3.813368	3.133394	2.117324E-005	0.0005766	10
	9	34	37828.12	3.814879	0.093582	1	3.816027	1.405228	5.935673E-006	0.0005894	10
	10	37	30046.88	3.82246	-0.0166512	1	3.822497	-0.2495869	-8.949015E-006	0.0006324	10
	11	39	23859.38	3.832103	-0.1259052	1	3.834171	-1.881797	-3.118267E-005	0.0006537	10
	12	42	18984.38	3.843069	-0.2388492	1	3.850484	-3.556395	2.403859E-005	0.0006608	10
	13	44	15046.87	3.85527	-0.3638129	1	3.872398	-5.390905	1.252312E-005	0.0006494	10
	14	46	11953.13	3.869417	-0.5042877	1	3.902139	-7.425309	2.134201E-005	0.0006801	10
	15	49	9515.62	3.885333	-0.6669058	1	3.942153	-9.73974	-3.01601E-005	0.000675	10
	16	51	7546.875	3.906424	-0.8640128	1	4.000834	-12.47175	8.401641E-006	0.0007037	10
	17	53	5928.309	3.931947	-1.113115	1	4.08647	-15.80656	1.757037E-005	0.0006621	10
	18	56	4733.456	3.963185	-1.397523	1	4.202369	-19.42399	-2.640336E-005	0.0006995	10
	19	58	3796.875	3.999715	-1.737112	1	4.360651	-23.47574	-1.806345E-005	0.0006811	10
	20	60	2987.132	4.051652	-2.191559	1	4.606389	-28.40918	2.241296E-005	0.0006794	10
	21	63	2390.625	4.112152	-2.713714	1	4.926869	-33.42184	-2.606123E-005	0.000708	10
	22	65	1884.191	4.195381	-3.400202	1	5.40024	-39.0235	2.171767E-005	0.000675	10
	23	67	1516.544	4.292528	-4.171469	1	5.985562	-44.18056	1.971079E-005	0.0006635	10
	24	69	1193.986	4.427973	-5.220109	1	6.84518	-49.69363	-2.521997E-005	0.0007001	10
	25	72	946.5144	4.595637	-6.484024	1	7.947481	-54.67239	-5.969999E-006	0.000663	10
	26	74	751.7689	4.818062	-8.026566	1	9.361596	-59.0251	-1.781438E-005	0.0006801	10
	27	77	597.4265	5.093444	-9.92092	1	11.15203	-62.82384	2.209868E-005	0.0006741	10
	28	79	477.4305	5.437351	-12.19531	1	13.35254	-65.97002	-2.052089E-006	0.000688	10
	29	81	376.6741	5.899378	-15.15019	1	16.25825	-68.7244	-2.213545E-006	0.0006868	10
	30	83	298.2954	6.477574	-18.74069	1	19.82858	-70.93269	-1.846424E-006	0.0006867	10
	31	86	237.7717	7.18715	-23.02567	1	24.12129	-72.66496	-2.010962E-006	0.0006862	10
	32	88	189.0121	8.088292	-28.34575	1	29.47714	-74.07421	-2.200528E-006	0.0006888	10
	33	91	150.2404	9.218983	-34.86236	1	36.0607	-75.18779	-2.172378E-006	0.0006847	10
	34	93	119.1737	10.63684	-42.88311	1	44.18262	-76.06936	1.707342E-006	0.0001002	9
	35	95	95.0169	12.38348	-52.52542	1	53.96546	-76.7341	1.640141E-006	9.051571E-005	9
	36	98	75.60484	14.57522	-64.41671	1	66.04506	-77.25067	1.5776E-006	8.354826E-005	9
	37	100	54.50582	18.65458	-86.16222	1	88.15851	-77.78371	1.545542E-006	8.480993E-005	9
	38	103	45.95588	21.33179	-100.2627	1	102.5068	-77.9889	1.825086E-006	8.996204E-005	9
	39	105	37.20238	25.25935	-120.8469	1	123.4585	-78.19404	1.776282E-006	8.683136E-005	9
	40	108	30.04808	30.04262	-145.9746	1	149.034	-78.3705	1.705551E-006	8.647636E-005	9
	41	110	23.91582	36.29816	-178.547	1	182.1993	-78.50851	1.692988E-006	8.389995E-005	9
	42	112	18.60119	44.77566	-222.9726	1	227.424	-78.64532	1.607449E-006	0.0001076	9
	43	115	15.02404	53.69247	-269.2917	1	274.5922	-78.72401	1.79285E-006	0.0000996	9
	44	117	12.01923	65.05995	-328.1889	1	334.5755	-78.7871	1.739063E-006	9.001133E-005	9
	45	119	9.450605	80.38714	-406.0147	1	413.8962	-78.8008	1.756359E-006	9.381361E-005	9
	46	122	7.512019	98.2373	-495.9558	1	505.5915	-78.79607	1.161289E-006	0.0006621	8
	47	125	5.978954	121.0451	-607.1335	1	619.0824	-78.7247	1.191264E-006	0.0006674	8
	48	128	4.734848	151.2928	-747.3548	1	762.5147	-78.55583	1.189922E-006	0.0006899	8
	49	131	3.75601	189.5597	-918.5823	1	937.9373	-78.34005	1.137718E-006	0.0006524	8
	50	134	3.004808	238.2659	-1119.753	1	1144.822	-77.98751	1.158605E-006	0.0006872	8
	51	138	2.372217	308.9841	-1381.516	1	1415.648	-77.39294	1.15428E-006	0.0007275	8
	52	142	1.878005	400.5018	-1701.446	1	1747.947	-76.75433	1.084977E-006	0.0006531	8
	53	147	1.512097	513.967	-2055.285	1	2118.575	-75.95993	1.143834E-006	0.0006272	8
	54	152	1.201923	687.7529	-2516.311	1	2608.606	-74.71339	1.090674E-006	0.0006491	8
	55	159	0.956633	923.0552	-3057.009	1	3193.326	-73.19846	1.053746E-006	2.363563E-005	8
