EXPLAIN
TAG	EISPOT
TITLE	LABEL	Potentiostatic EIS	Test Identifier
DATE	LABEL	2/27/2021	Date
TIME	LABEL	15:14:23	Time
NOTES	NOTES	1	Notes...
	
PSTAT	PSTAT	REF3000-16137	Potentiostat
VDC	POTEN	0.00000E+000	T	DC Voltage (V)
FREQINIT	QUANT	3.00000E+005	Initial Freq. (Hz)
FREQFINAL	QUANT	1.00000E+000	Final Freq. (Hz)
PTSPERDEC	QUANT	1.00000E+001	Points/decade
VAC	QUANT	5.00000E+001	AC Voltage (mV rms)
AREA	QUANT	1.00000E+000	Sample Area (cm^2)
SPEED	SELECTOR	2	Optimize for:
ZGUESS	QUANT	1.00000E+003	Estimated Z (ohms)
EOC	QUANT	0	Open Circuit (V)
SEQUENCER	TOGGLE	TRUE	Run as Sequence
PSTATMODEL	IQUANT	5	Pstat Model
PSTATSECTION	LABEL	REF3000-16137	Pstat Section
PSTATSERIALNO	LABEL	16137	Pstat Serial Number
CTRLMODE	IQUANT	1	Control Mode
IESTAB	IQUANT	0	I/E Stability
CASPEED	IQUANT	1	Control Amp Speed
CONVENTION	IQUANT	1	Current Convention
ICHRANGE	IQUANT	2	Ich Range
ICHRANGEMODE	TOGGLE	F	Ich Auto Range
ICHOFFSETENABLE	TOGGLE	T	Ich Offset Enable
ICHOFFSET	QUANT	0	Ich Offset (V)
ICHFILTER	IQUANT	3	Ich Filter
VCHRANGE	IQUANT	2	Vch Range
VCHRANGEMODE	TOGGLE	F	Vch Auto Range
VCHOFFSETENABLE	TOGGLE	T	Vch Offset Enable
VCHOFFSET	QUANT	0	Vch Offset (V)
VCHFILTER	IQUANT	3	Vch Filter
ACHRANGE	IQUANT	2	Ach Range
ACHOFFSETENABLE	TOGGLE	F	Ach Offset Enable
ACHOFFSET	QUANT	0	Ach Offset (V)
ACHFILTER	IQUANT	3	Ach Filter
IERANGELOWERLIMIT	IQUANT	2	I/E Range Lower Limit
IERANGEMODE	TOGGLE	F	I/E AutoRange
IERANGE	IQUANT	11	I/E Range
POSFEEDENABLE	TOGGLE	F	Positive Feedback IR Comp
POSFEEDRESISTANCE	QUANT	0	Positive Feedback Resistance (ohm)
ACHSELECT	IQUANT	0	Ach Select
CABLEID	IQUANT	13	Cable ID
DCCALDATE	LABEL	7/31/2020	DC Calibration Date
ACCALDATE	LABEL	7/31/2020	AC Calibration Date
THERMOSELECT	IQUANT	1	Thermo Select
FRAMEWORKVERSION	QUANT	6.33	Framework Version
INSTRUMENTVERSION	LABEL	3.50	Instrument Version
COMPLIANCEVOLTAGE	IQUANT	0	Compliance Voltage
ZCURVE	TABLE
	Pt	Time	Freq	Zreal	Zimag	Zsig	Zmod	Zphz	Idc	Vdc	IERange
	#	s	Hz	ohm	ohm	V	ohm	°	A	V	#
	0	7	300046.9	90.04323	-0.2602254	1	90.0436	-0.1655846	1.381306E-005	-0.0014207	9
	1	10	238359.4	90.85153	-0.3730148	1	90.85229	-0.2352415	-7.5487E-005	0.0023686	9
	2	13	189328.1	91.43789	-0.2610663	1	91.43826	-0.1635859	-8.683475E-006	0.0007603	9
	3	16	150421.9	91.98974	-0.3151658	1	91.99028	-0.1963001	6.794702E-005	-0.0021418	9
	4	18	119484.4	92.42673	-0.3412369	1	92.42737	-0.2115335	-7.56507E-005	0.0020366	9
	5	21	94921.88	93.00187	-0.1336085	1	93.00197	-0.0823123	1.785386E-005	-0.0001671	9
	6	23	75421.88	93.4397	-0.2392558	1	93.44001	-0.1467076	-2.389454E-006	-0.0002674	9
	7	26	59859.37	93.94144	-0.3255067	1	93.94201	-0.1985289	-1.659264E-005	0.0003449	9
	8	28	47578.12	94.43499	-0.4202721	1	94.43593	-0.2549866	4.80371E-006	-0.0004492	9
	9	31	37828.12	94.9585	-0.430956	1	94.95947	-0.2600272	-2.003477E-005	0.0006003	9
	10	35	30046.88	95.6152	-0.523038	1	95.6167	-0.3134183	1.824489E-005	-0.0001296	9
	11	37	23859.38	96.1159	-0.5940136	1	96.1177	-0.3540939	2.291408E-005	-0.0004386	9
	12	39	18984.38	96.5473	-0.6782371	1	96.5497	-0.4024917	1.994963E-005	-0.0001349	9
	13	42	15046.87	97.0833	-0.883491	1	97.0873	-0.5213965	-1.645421E-005	0.0008696	9
	14	44	11953.13	97.5008	-0.97781	1	97.5057	-0.574585	-1.596761E-005	0.0008508	9
	15	46	9515.62	97.9617	-1.22779	1	97.9694	-0.7180713	-1.667505E-005	0.0007872	9
	16	49	7546.875	98.4264	-1.430516	1	98.4368	-0.8326704	1.858466E-005	-3.459513E-005	9
	17	51	5928.309	98.9567	-1.882867	1	98.9746	-1.090046	2.345511E-006	0.0004833	9
	18	53	4733.456	99.5125	-2.231063	1	99.5375	-1.284352	-1.260679E-005	0.0008396	9
	19	55	3796.875	99.9518	-2.745948	1	99.9895	-1.573675	2.306999E-006	0.0004504	9
	20	58	2987.132	100.5418	-3.379507	1	100.5986	-1.925156	-1.883261E-005	0.0004957	9
	21	60	2390.625	101.0002	-4.145413	1	101.0852	-2.350307	-1.88148E-005	0.0007954	9
	22	62	1884.191	101.6457	-5.097604	1	101.7734	-2.87102	-1.737507E-005	0.0008468	9
	23	65	1516.544	102.2168	-6.304407	1	102.411	-3.529351	1.873161E-005	-0.0000953	9
	24	67	1193.986	102.8295	-7.863969	1	103.1298	-4.373228	1.118579E-005	0.0002019	9
	25	70	946.5144	103.4962	-9.7955	1	103.9587	-5.40671	1.24875E-005	-0.0006138	9
	26	72	751.7689	104.1523	-12.10044	1	104.8529	-6.626923	1.83994E-005	-8.270214E-005	9
	27	74	597.4265	105.0016	-15.05109	1	106.0748	-8.157298	-1.948459E-005	0.000766	9
	28	76	477.4305	105.8059	-18.55368	1	107.4203	-9.94602	1.293888E-006	0.0000966	9
	29	79	376.6741	106.7622	-23.18821	1	109.2514	-12.25403	1.389627E-006	8.567578E-005	9
	30	81	298.2954	107.8403	-28.87877	1	111.6401	-14.9916	1.306819E-006	8.670855E-005	9
	31	83	237.7717	109.0861	-35.74206	1	114.7923	-18.14139	1.316959E-006	9.144181E-005	9
	32	86	189.0121	110.5523	-44.33728	1	119.1117	-21.85338	1.351999E-006	8.79934E-005	9
	33	88	150.2404	112.289	-54.97963	1	125.0263	-26.08758	1.365084E-006	8.827313E-005	9
	34	91	119.1737	114.398	-68.26744	1	133.2192	-30.8268	1.277299E-006	8.81889E-005	9
	35	93	95.0169	116.908	-84.31413	1	144.1401	-35.79916	1.284595E-006	9.232914E-005	9
	36	96	75.60484	120.0098	-104.2583	1	158.9722	-40.98244	1.269038E-006	8.466533E-005	9
	37	98	54.50582	125.475	-141.1183	1	188.8342	-48.35818	1.163734E-006	0.0001127	9
	38	101	45.95588	129.284	-165.2466	1	209.8113	-51.96142	1.329502E-006	8.755604E-005	9
	39	103	37.20238	134.7758	-200.7456	1	241.7919	-56.12352	1.317921E-006	9.148947E-005	9
	40	105	30.04808	141.5805	-244.3948	1	282.4427	-59.91583	1.279204E-006	8.492061E-005	9
	41	108	23.91582	150.5352	-301.3626	1	336.8683	-63.45718	1.297057E-006	8.430595E-005	9
	42	110	18.60119	162.8424	-379.3802	1	412.8522	-66.7694	1.294189E-006	8.537627E-005	9
	43	112	15.02404	175.3106	-459.0332	1	491.3708	-69.0975	1.976486E-007	0.0006669	8
	44	115	12.01923	192.4312	-562.4646	1	594.4714	-71.11308	2.811064E-007	0.0006654	8
	45	117	9.450605	215.5395	-699.6853	1	732.1317	-72.87845	2.544421E-007	0.0006553	8
	46	120	7.512019	242.871	-861.6127	1	895.1887	-74.25794	2.464224E-007	0.0006584	8
	47	122	5.978954	277.017	-1058.267	1	1093.923	-75.33112	2.824999E-007	0.0006724	8
	48	125	4.734848	320.8849	-1306.654	1	1345.478	-76.20248	2.635464E-007	0.0006661	8
	49	129	3.75601	374.138	-1608.685	1	1651.619	-76.90725	2.469849E-007	0.0006581	8
	50	132	3.004808	437.5715	-1963.994	1	2012.148	-77.43983	2.688185E-007	0.0006821	8
	51	136	2.372217	523.9079	-2428.181	1	2484.057	-77.82442	2.644227E-007	0.0007403	8
	52	140	1.878005	623.7299	-2996.105	1	3060.341	-78.24012	2.429515E-007	0.0006501	8
	53	145	1.512097	736.8557	-3629.207	1	3703.256	-78.52296	2.774023E-007	0.0006404	8
	54	150	1.201923	895.2296	-4477.822	1	4566.435	-78.69419	1.368714E-008	0.0006163	7
	55	156	0.956633	1082.864	-5489.442	1	5595.228	-78.84093	1.248488E-008	-1.195759E-006	7
