EXPLAIN
TAG	EISPOT
TITLE	LABEL	Potentiostatic EIS	Test Identifier
DATE	LABEL	2/27/2021	Date
TIME	LABEL	14:41:14	Time
NOTES	NOTES	1	Notes...
	
PSTAT	PSTAT	REF3000-16137	Potentiostat
VDC	POTEN	0.00000E+000	T	DC Voltage (V)
FREQINIT	QUANT	3.00000E+005	Initial Freq. (Hz)
FREQFINAL	QUANT	1.00000E+000	Final Freq. (Hz)
PTSPERDEC	QUANT	1.00000E+001	Points/decade
VAC	QUANT	5.00000E+001	AC Voltage (mV rms)
AREA	QUANT	1.00000E+000	Sample Area (cm^2)
SPEED	SELECTOR	2	Optimize for:
ZGUESS	QUANT	1.00000E+003	Estimated Z (ohms)
EOC	QUANT	0	Open Circuit (V)
SEQUENCER	TOGGLE	TRUE	Run as Sequence
PSTATMODEL	IQUANT	5	Pstat Model
PSTATSECTION	LABEL	REF3000-16137	Pstat Section
PSTATSERIALNO	LABEL	16137	Pstat Serial Number
CTRLMODE	IQUANT	1	Control Mode
IESTAB	IQUANT	0	I/E Stability
CASPEED	IQUANT	1	Control Amp Speed
CONVENTION	IQUANT	1	Current Convention
ICHRANGE	IQUANT	2	Ich Range
ICHRANGEMODE	TOGGLE	F	Ich Auto Range
ICHOFFSETENABLE	TOGGLE	T	Ich Offset Enable
ICHOFFSET	QUANT	0	Ich Offset (V)
ICHFILTER	IQUANT	3	Ich Filter
VCHRANGE	IQUANT	2	Vch Range
VCHRANGEMODE	TOGGLE	F	Vch Auto Range
VCHOFFSETENABLE	TOGGLE	T	Vch Offset Enable
VCHOFFSET	QUANT	0	Vch Offset (V)
VCHFILTER	IQUANT	3	Vch Filter
ACHRANGE	IQUANT	2	Ach Range
ACHOFFSETENABLE	TOGGLE	F	Ach Offset Enable
ACHOFFSET	QUANT	0	Ach Offset (V)
ACHFILTER	IQUANT	3	Ach Filter
IERANGELOWERLIMIT	IQUANT	2	I/E Range Lower Limit
IERANGEMODE	TOGGLE	F	I/E AutoRange
IERANGE	IQUANT	11	I/E Range
POSFEEDENABLE	TOGGLE	F	Positive Feedback IR Comp
POSFEEDRESISTANCE	QUANT	0	Positive Feedback Resistance (ohm)
ACHSELECT	IQUANT	0	Ach Select
CABLEID	IQUANT	13	Cable ID
DCCALDATE	LABEL	7/31/2020	DC Calibration Date
ACCALDATE	LABEL	7/31/2020	AC Calibration Date
THERMOSELECT	IQUANT	1	Thermo Select
FRAMEWORKVERSION	QUANT	6.33	Framework Version
INSTRUMENTVERSION	LABEL	3.50	Instrument Version
COMPLIANCEVOLTAGE	IQUANT	0	Compliance Voltage
ZCURVE	TABLE
	Pt	Time	Freq	Zreal	Zimag	Zsig	Zmod	Zphz	Idc	Vdc	IERange
	#	s	Hz	ohm	ohm	V	ohm	°	A	V	#
	0	8	300046.9	7.500488	2.166761	1	7.807188	16.11309	4.109303E-005	7.53898E-005	10
	1	11	238359.4	7.503282	1.731539	1	7.700485	12.99471	-3.335129E-005	-1.549881E-006	10
	2	14	189328.1	7.497403	1.364274	1	7.620518	10.31306	-0.0000976	0.0003114	10
	3	17	150421.9	7.489654	1.071364	1	7.565893	8.140702	1.88861E-005	0.0004293	10
	4	19	119484.4	7.505439	0.8226196	1	7.550385	6.25483	-6.178139E-006	0.0004502	10
	5	22	94921.88	7.517397	0.6445466	1	7.544978	4.900593	1.193946E-007	0.0006207	10
	6	24	75421.88	7.526389	0.4668359	1	7.540854	3.549312	2.515604E-005	0.0006041	10
	7	27	59859.37	7.541196	0.3132696	1	7.5477	2.378762	-3.497883E-006	0.0006113	10
	8	29	47578.12	7.559264	0.1803842	1	7.561416	1.366971	-2.202924E-005	0.0006821	10
	9	32	37828.12	7.577297	0.0608481	1	7.577541	0.4600933	-2.139368E-005	0.0006715	10
	10	34	30046.88	7.598228	-0.0531103	1	7.598414	-0.4004808	-3.305373E-005	0.0006619	10
	11	37	23859.38	7.619671	-0.1678292	1	7.62152	-1.261781	-2.362091E-005	0.0007145	10
	12	39	18984.38	7.640358	-0.2879501	1	7.645782	-2.158344	-3.107341E-005	0.0006776	10
	13	42	15046.87	7.663742	-0.4233969	1	7.675429	-3.162192	-2.933445E-005	0.0006751	10
	14	44	11953.13	7.689235	-0.5757732	1	7.710762	-4.282341	1.95397E-005	0.0006641	10
	15	46	9515.62	7.717168	-0.7540053	1	7.753915	-5.580368	1.990836E-005	0.000665	10
	16	48	7546.875	7.750491	-0.970507	1	7.811017	-7.137361	-2.360683E-005	0.0007275	10
	17	51	5928.309	7.788423	-1.246542	1	7.887547	-9.093107	-2.791038E-005	0.0007043	10
	18	53	4733.456	7.829798	-1.562067	1	7.984096	-11.28254	-6.573821E-006	0.000697	10
	19	55	3796.875	7.877109	-1.938437	1	8.112113	-13.82492	2.088724E-006	0.0006742	10
	20	58	2987.132	7.940109	-2.445348	1	8.308132	-17.11747	2.169964E-005	0.0006787	10
	21	60	2390.625	8.012862	-3.027643	1	8.56578	-20.69897	-2.455992E-005	0.000736	10
	22	62	1884.191	8.105165	-3.79777	1	8.950797	-25.10599	1.884203E-005	0.0006806	10
	23	65	1516.544	8.21102	-4.664645	1	9.443503	-29.60072	-1.892054E-005	0.0006851	10
	24	67	1193.986	8.356172	-5.845459	1	10.19779	-34.97425	-2.510334E-005	0.0006946	10
	25	69	946.5144	8.533564	-7.26968	1	11.21026	-40.42743	9.894447E-007	0.0006643	10
	26	72	751.7689	8.755688	-9.022958	1	12.57282	-45.86127	-1.514718E-005	0.0006954	10
	27	74	597.4265	9.039962	-11.17699	1	14.37519	-51.03404	-2.53537E-005	0.0006883	10
	28	76	477.4305	9.391756	-13.76787	1	16.66611	-55.70013	-2.49479E-006	0.0006905	10
	29	79	376.6741	9.86301	-17.15173	1	19.78536	-60.09917	-3.062468E-006	0.0006939	10
	30	81	298.2954	10.45574	-21.28016	1	23.71008	-63.8334	-2.656305E-006	0.0006962	10
	31	83	237.7717	11.19024	-26.22617	1	28.51374	-66.89292	-1.843311E-006	0.0006881	10
	32	86	189.0121	12.12978	-32.37404	1	34.57181	-69.46023	-1.753305E-006	0.0006943	10
	33	88	150.2404	13.31629	-39.93232	1	42.09411	-71.55794	-2.05046E-006	0.0006835	10
	34	90	119.1737	14.80996	-49.2539	1	51.4323	-73.2647	1.431779E-006	8.59522E-005	9
	35	93	95.0169	16.66202	-60.49274	1	62.74547	-74.6004	1.35892E-006	8.574429E-005	9
	36	95	75.60484	18.9979	-74.386	1	76.77367	-75.67313	1.315125E-006	8.828282E-005	9
	37	98	54.50582	23.3864	-99.8995	1	102.6004	-76.82436	1.314894E-006	8.55423E-005	9
	38	100	45.95588	26.28222	-116.4508	1	119.3799	-77.28179	1.435977E-006	8.861066E-005	9
	39	103	37.20238	30.58162	-140.7202	1	144.0049	-77.73901	1.34712E-006	9.334458E-005	9
	40	105	30.04808	35.94251	-170.3967	1	174.1462	-78.08896	1.258387E-006	0.0000986	9
	41	108	23.91582	42.90825	-208.7309	1	213.0955	-78.38368	1.39395E-006	8.272789E-005	9
	42	110	18.60119	52.4784	-261.101	1	266.3226	-78.6356	1.308253E-006	8.62357E-005	9
	43	112	15.02404	62.48917	-315.6314	1	321.7578	-78.80132	1.47609E-006	8.788897E-005	9
	44	114	12.01923	75.21792	-384.7636	1	392.0469	-78.93867	1.527283E-006	8.907394E-005	9
	45	117	9.450605	91.59207	-474.3943	1	483.1553	-79.07227	7.572038E-007	0.0006676	8
	46	119	7.512019	110.8604	-581.462	1	591.9359	-79.20565	7.363889E-007	0.0006862	8
	47	122	5.978954	134.7285	-711.9902	1	724.6253	-79.28473	6.777871E-007	0.0006731	8
	48	125	4.734848	164.7672	-876.7171	1	892.0656	-79.35619	7.504073E-007	0.0006655	8
	49	128	3.75601	201.0126	-1077.174	1	1095.769	-79.42956	7.038024E-007	0.0006703	8
	50	132	3.004808	244.6782	-1313.436	1	1336.032	-79.44741	7.423486E-007	0.000633	8
	51	135	2.372217	302.2686	-1622.386	1	1650.304	-79.44616	7.102328E-007	0.0005943	8
	52	140	1.878005	373.0799	-1998.411	1	2032.937	-79.42528	7.300334E-007	0.0006756	8
	53	144	1.512097	456.959	-2420.173	1	2462.935	-79.30771	6.916542E-007	0.0006232	8
	54	150	1.201923	566.5206	-2982.212	1	3035.545	-79.24388	7.340395E-007	0.0006973	8
	55	156	0.956633	708.4618	-3660.265	1	3728.197	-79.04559	7.001547E-007	2.399545E-005	8
