EXPLAIN
TAG	EISPOT
TITLE	LABEL	Potentiostatic EIS	Test Identifier
DATE	LABEL	2/27/2021	Date
TIME	LABEL	13:47:39	Time
NOTES	NOTES	1	Notes...
	
PSTAT	PSTAT	REF3000-16137	Potentiostat
VDC	POTEN	0.00000E+000	T	DC Voltage (V)
FREQINIT	QUANT	3.00000E+005	Initial Freq. (Hz)
FREQFINAL	QUANT	1.00000E+000	Final Freq. (Hz)
PTSPERDEC	QUANT	1.00000E+001	Points/decade
VAC	QUANT	5.00000E+001	AC Voltage (mV rms)
AREA	QUANT	1.00000E+000	Sample Area (cm^2)
SPEED	SELECTOR	2	Optimize for:
ZGUESS	QUANT	1.00000E+003	Estimated Z (ohms)
EOC	QUANT	0	Open Circuit (V)
SEQUENCER	TOGGLE	TRUE	Run as Sequence
PSTATMODEL	IQUANT	5	Pstat Model
PSTATSECTION	LABEL	REF3000-16137	Pstat Section
PSTATSERIALNO	LABEL	16137	Pstat Serial Number
CTRLMODE	IQUANT	1	Control Mode
IESTAB	IQUANT	0	I/E Stability
CASPEED	IQUANT	1	Control Amp Speed
CONVENTION	IQUANT	1	Current Convention
ICHRANGE	IQUANT	2	Ich Range
ICHRANGEMODE	TOGGLE	F	Ich Auto Range
ICHOFFSETENABLE	TOGGLE	T	Ich Offset Enable
ICHOFFSET	QUANT	0	Ich Offset (V)
ICHFILTER	IQUANT	3	Ich Filter
VCHRANGE	IQUANT	2	Vch Range
VCHRANGEMODE	TOGGLE	F	Vch Auto Range
VCHOFFSETENABLE	TOGGLE	T	Vch Offset Enable
VCHOFFSET	QUANT	0	Vch Offset (V)
VCHFILTER	IQUANT	3	Vch Filter
ACHRANGE	IQUANT	2	Ach Range
ACHOFFSETENABLE	TOGGLE	F	Ach Offset Enable
ACHOFFSET	QUANT	0	Ach Offset (V)
ACHFILTER	IQUANT	1	Ach Filter
IERANGELOWERLIMIT	IQUANT	2	I/E Range Lower Limit
IERANGEMODE	TOGGLE	F	I/E AutoRange
IERANGE	IQUANT	11	I/E Range
POSFEEDENABLE	TOGGLE	F	Positive Feedback IR Comp
POSFEEDRESISTANCE	QUANT	0	Positive Feedback Resistance (ohm)
ACHSELECT	IQUANT	0	Ach Select
CABLEID	IQUANT	13	Cable ID
DCCALDATE	LABEL	7/31/2020	DC Calibration Date
ACCALDATE	LABEL	7/31/2020	AC Calibration Date
THERMOSELECT	IQUANT	1	Thermo Select
FRAMEWORKVERSION	QUANT	6.33	Framework Version
INSTRUMENTVERSION	LABEL	3.50	Instrument Version
COMPLIANCEVOLTAGE	IQUANT	0	Compliance Voltage
ZCURVE	TABLE
	Pt	Time	Freq	Zreal	Zimag	Zsig	Zmod	Zphz	Idc	Vdc	IERange
	#	s	Hz	ohm	ohm	V	ohm	°	A	V	#
	0	10	300046.9	2.306507	2.219263	1	3.200797	43.89563	-0.000118	-0.0004927	11
	1	14	238359.4	2.267009	1.7577	1	2.868595	37.78781	6.410559E-005	-5.705496E-005	11
	2	17	189328.1	2.319867	1.232708	1	2.627042	27.98484	-3.022604E-005	2.601839E-005	12
	3	20	150421.9	2.274068	0.964632	1	2.470202	22.98608	3.723259E-005	0.0002989	12
	4	24	119484.4	2.239122	0.752033	1	2.362038	18.56517	2.967729E-005	0.0004803	12
	5	27	94921.88	2.218043	0.574286	1	2.291183	14.51601	2.097941E-006	0.0004913	12
	6	31	75421.88	2.194336	0.4839772	1	2.247075	12.43788	-5.914946E-006	0.0005315	11
	7	34	59859.37	2.193874	0.3436559	1	2.220627	8.90266	1.330604E-005	0.0006037	11
	8	36	47578.12	2.193484	0.2230371	1	2.204795	5.805975	2.583231E-005	0.0006623	11
	9	39	37828.12	2.194817	0.1143724	1	2.197795	2.982998	5.681489E-006	0.0006582	11
	10	41	30046.88	2.197103	0.0124737	1	2.197138	0.3252851	2.48712E-005	0.0006878	11
	11	44	23859.38	2.201451	-0.0878489	1	2.203203	-2.285177	-1.717614E-005	0.0006834	11
	12	46	18984.38	2.206261	-0.1907161	1	2.214489	-4.940546	3.461628E-005	0.0007322	11
	13	48	15046.87	2.213663	-0.3033288	1	2.234348	-7.802405	3.572018E-006	0.0007088	11
	14	51	11953.13	2.22284	-0.4293163	1	2.263919	-10.93143	-5.214717E-007	0.0007034	11
	15	53	9515.62	2.234599	-0.5733225	1	2.306975	-14.38978	-3.406564E-005	0.0006677	11
	16	55	7546.875	2.251343	-0.7462969	1	2.371814	-18.33983	1.119631E-005	0.0007121	11
	17	58	5928.309	2.273422	-0.964739	1	2.469649	-22.9942	2.586887E-005	0.0007307	11
	18	60	4733.456	2.300461	-1.211806	1	2.600114	-27.77876	-2.668626E-005	0.0006912	11
	19	62	3796.875	2.333857	-1.504289	1	2.776648	-32.80383	7.388377E-006	0.000695	11
	20	64	2987.132	2.382354	-1.896402	1	3.044987	-38.5205	-2.734718E-005	0.0006894	11
	21	67	2390.625	2.43875	-2.342632	1	3.381631	-43.84836	-4.16139E-005	0.0006682	11
	22	69	1884.191	2.518885	-2.926719	1	3.861408	-49.28302	3.55767E-005	0.0007261	11
	23	71	1516.544	2.613447	-3.584768	1	4.43629	-53.90637	-6.436305E-006	0.0006946	10
	24	74	1193.986	2.742535	-4.469626	1	5.243955	-58.46698	-5.75056E-006	0.0006914	10
	25	76	946.5144	2.908566	-5.527117	1	6.245701	-62.24506	2.658288E-005	0.0006612	10
	26	79	751.7689	3.105703	-6.828096	1	7.501219	-65.54198	-1.782651E-005	0.0006887	10
	27	81	597.4265	3.358068	-8.413691	1	9.059073	-68.2421	-1.579111E-005	0.0006896	10
	28	83	477.4305	3.671762	-10.30917	1	10.94353	-70.3959	6.865617E-006	0.000684	10
	29	85	376.6741	4.085966	-12.76718	1	13.40507	-72.25342	6.35695E-006	0.0006809	10
	30	88	298.2954	4.600573	-15.75223	1	16.41031	-73.71911	7.187583E-006	0.0006841	10
	31	90	237.7717	5.230974	-19.31242	1	20.00832	-74.84448	6.92195E-006	0.0006825	10
	32	93	189.0121	6.034008	-23.73327	1	24.48832	-75.73521	6.079204E-006	0.0006839	10
	33	95	150.2404	7.049173	-29.14787	1	29.98816	-76.40453	6.43324E-006	0.0006786	10
	34	97	119.1737	8.339925	-35.83473	1	36.79242	-76.8986	6.527661E-006	0.0006805	10
	35	100	95.0169	9.91111	-43.7604	1	44.86872	-77.23861	8.320964E-006	8.309948E-005	9
	36	102	75.60484	11.90085	-53.56779	1	54.87384	-77.47436	7.933098E-006	8.165777E-005	9
	37	105	54.50582	15.61823	-71.46562	1	73.15234	-77.67229	7.656667E-006	8.172431E-005	9
	38	107	45.95588	18.08043	-83.04567	1	84.99109	-77.71742	7.928809E-006	8.889961E-005	9
	39	110	37.20238	21.74863	-99.998	1	102.3357	-77.72979	7.857527E-006	7.93707E-005	9
	40	112	30.04808	26.37934	-120.7453	1	123.5932	-77.67617	7.530403E-006	8.113134E-005	9
	41	114	23.91582	32.58764	-147.6799	1	151.2326	-77.5563	7.457989E-006	7.810286E-005	9
	42	117	18.60119	41.4889	-184.0728	1	188.6906	-77.29813	7.635083E-006	8.154829E-005	9
	43	119	15.02404	51.44147	-222.2348	1	228.1108	-76.96708	7.913055E-006	9.080592E-005	9
	44	121	12.01923	65.21909	-270.3655	1	278.1206	-76.43789	7.903031E-006	8.412634E-005	9
	45	124	9.450605	85.73405	-333.8599	1	344.6922	-75.59784	7.59814E-006	7.48883E-005	9
	46	126	7.512019	112.914	-407.5038	1	422.858	-74.51264	7.764411E-006	8.585168E-005	9
	47	129	5.978954	149.461	-492.452	1	514.6334	-73.11676	6.68388E-006	0.0006606	8
	48	132	4.734848	202.8516	-597.0273	1	630.5477	-71.23381	6.539517E-006	0.0006859	8
	49	135	3.75601	275.9456	-716.7289	1	768.0145	-68.94295	6.280391E-006	0.0006431	8
	50	139	3.004808	371.2417	-844.6446	1	922.6293	-66.27335	6.245785E-006	0.0006602	8
	51	142	2.372217	507.4406	-988.782	1	1111.389	-62.83321	6.156685E-006	0.0007055	8
	52	146	1.878005	680.5741	-1134.803	1	1323.238	-59.04768	6.045818E-006	0.0006461	8
	53	151	1.512097	875.3164	-1259.797	1	1534.036	-55.20813	5.999053E-006	0.0005851	8
	54	157	1.201923	1122.778	-1369.274	1	1770.746	-50.64893	5.752619E-006	0.0006462	8
	55	163	0.956633	1393.427	-1445.901	1	2008.051	-46.05878	5.399814E-006	1.717333E-005	8
