EXPLAIN
TAG	EISPOT
TITLE	LABEL	Potentiostatic EIS	Test Identifier
DATE	LABEL	2/27/2021	Date
TIME	LABEL	15:51:36	Time
NOTES	NOTES	1	Notes...
	
PSTAT	PSTAT	REF3000-16137	Potentiostat
VDC	POTEN	0.00000E+000	T	DC Voltage (V)
FREQINIT	QUANT	3.00000E+005	Initial Freq. (Hz)
FREQFINAL	QUANT	1.00000E+000	Final Freq. (Hz)
PTSPERDEC	QUANT	1.00000E+001	Points/decade
VAC	QUANT	5.00000E+001	AC Voltage (mV rms)
AREA	QUANT	1.00000E+000	Sample Area (cm^2)
SPEED	SELECTOR	2	Optimize for:
ZGUESS	QUANT	1.00000E+003	Estimated Z (ohms)
EOC	QUANT	0	Open Circuit (V)
SEQUENCER	TOGGLE	TRUE	Run as Sequence
PSTATMODEL	IQUANT	5	Pstat Model
PSTATSECTION	LABEL	REF3000-16137	Pstat Section
PSTATSERIALNO	LABEL	16137	Pstat Serial Number
CTRLMODE	IQUANT	1	Control Mode
IESTAB	IQUANT	0	I/E Stability
CASPEED	IQUANT	1	Control Amp Speed
CONVENTION	IQUANT	1	Current Convention
ICHRANGE	IQUANT	2	Ich Range
ICHRANGEMODE	TOGGLE	F	Ich Auto Range
ICHOFFSETENABLE	TOGGLE	T	Ich Offset Enable
ICHOFFSET	QUANT	0	Ich Offset (V)
ICHFILTER	IQUANT	3	Ich Filter
VCHRANGE	IQUANT	2	Vch Range
VCHRANGEMODE	TOGGLE	F	Vch Auto Range
VCHOFFSETENABLE	TOGGLE	T	Vch Offset Enable
VCHOFFSET	QUANT	0	Vch Offset (V)
VCHFILTER	IQUANT	3	Vch Filter
ACHRANGE	IQUANT	2	Ach Range
ACHOFFSETENABLE	TOGGLE	F	Ach Offset Enable
ACHOFFSET	QUANT	0	Ach Offset (V)
ACHFILTER	IQUANT	3	Ach Filter
IERANGELOWERLIMIT	IQUANT	2	I/E Range Lower Limit
IERANGEMODE	TOGGLE	F	I/E AutoRange
IERANGE	IQUANT	11	I/E Range
POSFEEDENABLE	TOGGLE	F	Positive Feedback IR Comp
POSFEEDRESISTANCE	QUANT	0	Positive Feedback Resistance (ohm)
ACHSELECT	IQUANT	0	Ach Select
CABLEID	IQUANT	13	Cable ID
DCCALDATE	LABEL	7/31/2020	DC Calibration Date
ACCALDATE	LABEL	7/31/2020	AC Calibration Date
THERMOSELECT	IQUANT	1	Thermo Select
FRAMEWORKVERSION	QUANT	6.33	Framework Version
INSTRUMENTVERSION	LABEL	3.50	Instrument Version
COMPLIANCEVOLTAGE	IQUANT	0	Compliance Voltage
ZCURVE	TABLE
	Pt	Time	Freq	Zreal	Zimag	Zsig	Zmod	Zphz	Idc	Vdc	IERange
	#	s	Hz	ohm	ohm	V	ohm	°	A	V	#
	0	19	300046.9	267.265	-4217.491	1	4225.951	-86.37398	2.604778E-005	0.0009968	9
	1	33	238359.4	482.8214	-5194.394	1	5216.785	-84.68959	-1.525353E-007	-0.0020164	9
	2	47	189328.1	68.9838	-6182.607	1	6182.992	-89.36073	-2.766657E-005	-0.0010407	9
	3	55	150421.9	856.7998	-7820.191	1	7866.987	-83.74747	-2.747247E-005	-0.0009613	9
	4	62	119484.4	1273.387	-9669.98	1	9753.46	-82.4982	2.557111E-005	-0.0017159	9
	5	72	94921.88	2024.741	-12084.96	1	12253.4	-80.48888	1.614364E-005	-0.0091039	8
	6	81	75421.88	2892.425	-15082.1	1	15356.95	-79.14371	-1.684112E-006	0.0076139	8
	7	88	59859.37	3480.405	-18515.62	1	18839.89	-79.35426	-1.151994E-005	0.0101109	8
	8	97	47578.12	7345.766	-23702.68	1	24814.86	-72.78112	7.524293E-006	-0.0238165	7
	9	103	37828.12	5742.508	-31441.37	1	31961.47	-79.64948	1.601187E-007	-0.000468	9
	10	112	30046.88	11450.75	-34849.17	1	36682.21	-71.8105	2.770338E-006	0.0078994	7
	11	119	23859.38	14578.21	-41961.96	1	44422.19	-70.84201	-5.348914E-006	0.0040575	7
	12	124	18984.38	14750.58	-49860.19	1	51996.33	-73.51973	-2.376099E-005	0.005226	8
	13	131	15046.87	24050.01	-62233.9	1	66719.27	-68.8712	-2.60968E-005	0.0076166	8
	14	137	11953.13	30235.63	-74535.52	1	80434.67	-67.91987	2.622627E-005	-0.0051998	8
	15	144	9515.62	41131.66	-87843.78	1	96996.6	-64.90929	-1.910027E-005	0.0003163	9
	16	151	7546.875	57361.16	-103634.1	1	118449.7	-61.03561	-7.243219E-006	0.0188387	7
	17	158	5928.309	77605.68	-122558.4	1	145062.8	-57.65745	-6.599611E-006	0.0121229	7
	18	163	4733.456	90374.67	-152856.2	1	177574.2	-59.40672	7.495418E-006	-0.0239298	7
	19	169	3796.875	118050.5	-154911.3	1	194765.1	-52.69071	2.767007E-006	0.0079329	7
	20	175	2987.132	145037	-171239.1	1	224407.2	-49.7359	6.691158E-006	-0.0264525	7
	21	180	2390.625	195290.9	-178730.8	1	264732.3	-42.46484	-7.106584E-006	0.0233082	7
	22	186	1884.191	246025.7	-207792.7	1	322034.9	-40.18436	-7.085879E-006	0.0232436	7
	23	193	1516.544	221322.7	-140500.3	1	262152.7	-32.40824	-2.384431E-005	0.0053163	8
	24	202	1193.986	326098.3	-222007.7	1	394496.6	-34.24703	2.246269E-005	-0.0095857	8
	25	211	946.5144	487842.8	-287347.3	1	566179.4	-30.49878	-3.60092E-006	0.0248352	7
	26	217	751.7689	435245.2	-35079.15	1	436656.5	-4.607868	5.668233E-007	0.0157109	7
	27	222	597.4265	925140.6	288094	1	968960	17.29688	4.940477E-006	-0.0011549	7
	28	226	477.4305	504236.2	-188116.2	1	538183.8	-20.45912	-6.86343E-008	0.0006287	7
	29	232	376.6741	576965.8	-112364.9	1	587805.6	-11.02049	-1.159709E-009	0.0006616	5
	30	234	298.2954	595631.6	-97613.4	1	603577.1	-9.307023	-1.342836E-009	0.0006941	5
	31	237	237.7717	613817.9	-89210.18	1	620266.8	-8.269272	-1.069883E-009	0.0006315	5
	32	239	189.0121	632073.9	-78334.74	1	636909.6	-7.064807	-8.908879E-010	0.0006356	5
	33	242	150.2404	650147.3	-69425.48	1	653843.5	-6.095189	-1.062083E-009	0.0006204	5
	34	245	119.1737	669558.6	-67416.95	1	672944.1	-5.749656	-1.144124E-009	0.0007164	5
	35	247	95.0169	680208.6	-51675.82	1	682168.7	-4.344447	-1.051511E-009	0.0006192	5
	36	250	75.60484	692679.4	-49071.22	1	694415.4	-4.052213	-9.864495E-010	0.0006181	5
	37	252	54.50582	715018.3	-20806.73	1	715320.9	-1.666813	-1.026282E-009	0.0006421	5
	38	255	45.95588	722655.1	-34893.21	1	723497	-2.764365	-1.107564E-009	0.0006864	5
	39	257	37.20238	733042.9	-30334.19	1	733670.3	-2.369615	-1.268362E-009	0.0006638	5
	40	260	30.04808	749279.3	-24553.58	1	749681.4	-1.876888	-1.156193E-009	0.0007028	5
	41	263	23.91582	764351.1	-19761.29	1	764606.5	-1.480977	-1.066643E-009	0.0006221	5
	42	265	18.60119	777148.8	-14720.74	1	777288.2	-1.085166	-9.611176E-010	0.0006717	5
	43	268	15.02404	788345.3	-15174.88	1	788491.4	-1.102752	-1.135212E-009	0.0006758	5
	44	270	12.01923	801735.2	-13325.61	1	801845.9	-0.952224	-1.16381E-009	0.0006363	5
	45	273	9.450605	815908.2	-11026.23	1	815982.7	-0.7742516	-1.155467E-009	0.000663	5
	46	275	7.512019	831282.8	-10897.18	1	831354.2	-0.7510404	-1.038429E-009	0.0006553	5
	47	278	5.978954	850141.3	-9881.05	1	850198.7	-0.6659094	-1.12988E-009	0.0007151	5
	48	283	4.734848	872414.1	-9871.48	1	872470	-0.6482818	-1.085769E-009	0.0007276	5
	49	286	3.75601	898391.8	-9565.58	1	898442.7	-0.6100309	-9.127058E-010	0.000622	5
	50	292	3.004808	932812.9	-10196.19	1	932868.7	-0.6262516	-1.305185E-009	0.0007463	5
	51	298	2.372217	965613	-10258.81	1	965668	-0.6086955	-1.085011E-009	0.0007398	5
	52	302	1.878005	993774	-11550.26	1	993841	-0.6658973	-1.441807E-009	0.0006441	5
	53	307	1.512097	1026982	-13309.08	1	1027068	-0.742478	-1.599082E-009	0.0007498	5
	54	313	1.201923	1067065	-15199.05	1	1067174	-0.8160535	-1.330954E-009	0.0006334	5
	55	319	0.956633	1112614	-18542.37	1	1112769	-0.954779	-2.370798E-009	3.154049E-005	5
