EXPLAIN
TAG	EISPOT
TITLE	LABEL	Potentiostatic EIS	Test Identifier
DATE	LABEL	2/27/2021	Date
TIME	LABEL	15:41:46	Time
NOTES	NOTES	1	Notes...
	
PSTAT	PSTAT	REF3000-16137	Potentiostat
VDC	POTEN	0.00000E+000	T	DC Voltage (V)
FREQINIT	QUANT	3.00000E+005	Initial Freq. (Hz)
FREQFINAL	QUANT	1.00000E+000	Final Freq. (Hz)
PTSPERDEC	QUANT	1.00000E+001	Points/decade
VAC	QUANT	5.00000E+001	AC Voltage (mV rms)
AREA	QUANT	1.00000E+000	Sample Area (cm^2)
SPEED	SELECTOR	2	Optimize for:
ZGUESS	QUANT	1.00000E+003	Estimated Z (ohms)
EOC	QUANT	0	Open Circuit (V)
SEQUENCER	TOGGLE	TRUE	Run as Sequence
PSTATMODEL	IQUANT	5	Pstat Model
PSTATSECTION	LABEL	REF3000-16137	Pstat Section
PSTATSERIALNO	LABEL	16137	Pstat Serial Number
CTRLMODE	IQUANT	1	Control Mode
IESTAB	IQUANT	0	I/E Stability
CASPEED	IQUANT	1	Control Amp Speed
CONVENTION	IQUANT	1	Current Convention
ICHRANGE	IQUANT	2	Ich Range
ICHRANGEMODE	TOGGLE	F	Ich Auto Range
ICHOFFSETENABLE	TOGGLE	T	Ich Offset Enable
ICHOFFSET	QUANT	0	Ich Offset (V)
ICHFILTER	IQUANT	3	Ich Filter
VCHRANGE	IQUANT	2	Vch Range
VCHRANGEMODE	TOGGLE	F	Vch Auto Range
VCHOFFSETENABLE	TOGGLE	T	Vch Offset Enable
VCHOFFSET	QUANT	0	Vch Offset (V)
VCHFILTER	IQUANT	3	Vch Filter
ACHRANGE	IQUANT	2	Ach Range
ACHOFFSETENABLE	TOGGLE	F	Ach Offset Enable
ACHOFFSET	QUANT	0	Ach Offset (V)
ACHFILTER	IQUANT	3	Ach Filter
IERANGELOWERLIMIT	IQUANT	2	I/E Range Lower Limit
IERANGEMODE	TOGGLE	F	I/E AutoRange
IERANGE	IQUANT	11	I/E Range
POSFEEDENABLE	TOGGLE	F	Positive Feedback IR Comp
POSFEEDRESISTANCE	QUANT	0	Positive Feedback Resistance (ohm)
ACHSELECT	IQUANT	0	Ach Select
CABLEID	IQUANT	13	Cable ID
DCCALDATE	LABEL	7/31/2020	DC Calibration Date
ACCALDATE	LABEL	7/31/2020	AC Calibration Date
THERMOSELECT	IQUANT	1	Thermo Select
FRAMEWORKVERSION	QUANT	6.33	Framework Version
INSTRUMENTVERSION	LABEL	3.50	Instrument Version
COMPLIANCEVOLTAGE	IQUANT	0	Compliance Voltage
ZCURVE	TABLE
	Pt	Time	Freq	Zreal	Zimag	Zsig	Zmod	Zphz	Idc	Vdc	IERange
	#	s	Hz	ohm	ohm	V	ohm	°	A	V	#
	0	14	300046.9	1447.068	-2955.998	1	3291.189	-63.91658	5.357755E-005	3.409971E-005	9
	1	28	238359.4	1873.847	-3400.635	1	3882.733	-61.14399	8.858533E-005	-0.0026871	9
	2	42	189328.1	2471.792	-3878.72	1	4599.373	-57.49186	1.894708E-005	-0.001988	9
	3	56	150421.9	3083.587	-4601.248	1	5538.952	-56.17146	-2.729097E-005	-0.0009685	9
	4	68	119484.4	4117.792	-4897.201	1	6398.343	-49.94133	9.875927E-006	-0.0171137	8
	5	75	94921.88	5107.175	-5232.582	1	7311.85	-45.69488	-1.606711E-005	0.000988	8
	6	83	75421.88	6201.536	-5671.011	1	8403.536	-42.44144	2.151133E-005	-0.0093385	8
	7	90	59859.37	7418.758	-6056.061	1	9576.73	-39.22536	-1.535139E-005	8.077519E-005	9
	8	99	47578.12	8998.803	-6271.843	1	10968.79	-34.87511	-1.186392E-006	0.0008073	9
	9	107	37828.12	10932.62	-5369.548	1	12180.08	-26.15792	5.04432E-006	-0.0243699	7
	10	113	30046.88	12054.62	-5140.675	1	13104.98	-23.09575	-6.56053E-006	0.0167745	7
	11	120	23859.38	13058.75	-4924.386	1	13956.38	-20.66119	5.073964E-006	-0.0244938	7
	12	124	18984.38	14030.33	-4534.04	1	14744.75	-17.90875	-5.970182E-006	0.0233833	7
	13	128	15046.87	14832.04	-4153.848	1	15402.73	-15.64538	-6.030974E-006	0.0106995	7
	14	132	11953.13	15738.22	-3719.815	1	16171.84	-13.29813	-4.964097E-006	0.024286	7
	15	137	9515.62	16465.66	-3308.468	1	16794.76	-11.36123	-5.964788E-006	0.0233952	7
	16	141	7546.875	17072.46	-2950.042	1	17325.46	-9.80364	6.879373E-006	-0.0164629	7
	17	145	5928.309	17590.29	-2540.672	1	17772.82	-8.21874	1.334189E-006	-0.0183137	7
	18	149	4733.456	18321.86	-2092.663	1	18440.98	-6.5159	-6.6419E-006	0.0214132	7
	19	154	3796.875	18784.83	-1872.594	1	18877.94	-5.692808	-2.849147E-006	-0.0049921	7
	20	158	2987.132	19264.25	-1704.134	1	19339.48	-5.05528	-6.708294E-006	0.0171217	7
	21	162	2390.625	19819.04	-1602.45	1	19883.72	-4.622541	-6.721576E-006	0.0219008	7
	22	166	1884.191	20234.65	-1227.545	1	20271.86	-3.47162	3.333502E-006	-0.0224991	7
	23	171	1516.544	20612.53	-1035.802	1	20638.54	-2.876756	4.406495E-006	-0.0001433	7
	24	175	1193.986	21118.03	-943.0349	1	21139.08	-2.556869	7.07966E-006	-0.0221671	7
	25	179	946.5144	21489.04	-415.2012	1	21493.05	-1.106905	1.297926E-006	-0.0183039	7
	26	182	751.7689	21659.48	-458.5213	1	21664.33	-1.212744	3.376999E-006	-0.0226968	7
	27	185	597.4265	22434.61	-731.2606	1	22446.52	-1.866907	-4.944453E-006	0.0244956	7
	28	187	477.4305	22370.98	-452.043	1	22375.54	-1.157599	-6.108498E-008	0.000597	7
	29	189	376.6741	22620.31	-380.6218	1	22623.51	-0.963999	-6.390453E-008	0.0006368	7
	30	192	298.2954	22861.36	-339.1889	1	22863.87	-0.8500224	-6.579523E-008	0.0005848	7
	31	194	237.7717	23121.8	-293.0112	1	23123.66	-0.7260422	-6.362824E-008	0.0005852	7
	32	197	189.0121	23383.89	-268.9467	1	23385.44	-0.6589507	-6.615972E-008	0.0005899	7
	33	199	150.2404	23643.81	-252.6642	1	23645.16	-0.6122551	-6.448226E-008	0.0005791	7
	34	201	119.1737	23916.92	-253.4585	1	23918.26	-0.6071668	-5.815669E-008	0.0005882	7
	35	204	95.0169	24175.71	-258.0073	1	24177.09	-0.611447	-6.744723E-008	0.0006505	7
	36	206	75.60484	24465.38	-271.9664	1	24466.89	-0.6368951	-7.311606E-008	0.0006802	7
	37	209	54.50582	24766.12	-341.2803	1	24768.47	-0.7894931	-6.777755E-008	0.0005843	7
	38	211	45.95588	25033.85	-349.1563	1	25036.29	-0.7990734	-8.041931E-008	0.0006668	7
	39	214	37.20238	25312.88	-404.0813	1	25316.11	-0.9145613	-8.139428E-008	0.0006821	7
	40	216	30.04808	25602.39	-481.7637	1	25606.93	-1.078015	-7.172037E-008	0.0006358	7
	41	218	23.91582	25886.79	-568.2448	1	25893.03	-1.257506	-5.030357E-008	0.0005802	7
	42	221	18.60119	26204.79	-697.6854	1	26214.07	-1.525102	-9.649554E-008	0.0005966	7
	43	223	15.02404	26470.26	-860.1104	1	26484.23	-1.861084	-6.106752E-008	0.0006113	7
	44	225	12.01923	26795.02	-998.235	1	26813.61	-2.133539	-1.060262E-007	0.0005896	7
	45	228	9.450605	27092.19	-1251.278	1	27121.07	-2.644379	-1.0425E-007	0.0006288	7
	46	230	7.512019	27466.95	-1619.669	1	27514.66	-3.374706	-9.277691E-008	0.0005786	7
	47	233	5.978954	27862.27	-1947.501	1	27930.25	-3.998325	-4.304305E-008	0.0005979	7
	48	236	4.734848	28365.36	-2433.816	1	28469.58	-4.904106	-7.05701E-008	0.0005966	7
	49	239	3.75601	28895.11	-3011.618	1	29051.63	-5.950219	-4.690991E-008	0.0006819	7
	50	243	3.004808	29422.17	-3769.151	1	29662.61	-7.300162	-9.957714E-008	0.0007099	7
	51	246	2.372217	30089.24	-4551.879	1	30431.59	-8.602439	-5.463928E-008	0.0007042	7
	52	250	1.878005	30830.4	-5738.312	1	31359.88	-10.54354	-7.473158E-008	0.0006123	7
	53	255	1.512097	31757.46	-7050.344	1	32530.66	-12.517	-8.170773E-008	0.0006912	7
	54	261	1.201923	32794.4	-8664.047	1	33919.59	-14.79901	-6.408714E-008	0.0005954	7
	55	267	0.956633	34169.7	-10765.2	1	35825.38	-17.48708	-8.408366E-008	-8.362047E-006	7
