EXPLAIN
TAG	EISPOT
TITLE	LABEL	Potentiostatic EIS	Test Identifier
DATE	LABEL	2/27/2021	Date
TIME	LABEL	15:32:32	Time
NOTES	NOTES	1	Notes...
	
PSTAT	PSTAT	REF3000-16137	Potentiostat
VDC	POTEN	0.00000E+000	T	DC Voltage (V)
FREQINIT	QUANT	3.00000E+005	Initial Freq. (Hz)
FREQFINAL	QUANT	1.00000E+000	Final Freq. (Hz)
PTSPERDEC	QUANT	1.00000E+001	Points/decade
VAC	QUANT	5.00000E+001	AC Voltage (mV rms)
AREA	QUANT	1.00000E+000	Sample Area (cm^2)
SPEED	SELECTOR	2	Optimize for:
ZGUESS	QUANT	1.00000E+003	Estimated Z (ohms)
EOC	QUANT	0	Open Circuit (V)
SEQUENCER	TOGGLE	TRUE	Run as Sequence
PSTATMODEL	IQUANT	5	Pstat Model
PSTATSECTION	LABEL	REF3000-16137	Pstat Section
PSTATSERIALNO	LABEL	16137	Pstat Serial Number
CTRLMODE	IQUANT	1	Control Mode
IESTAB	IQUANT	0	I/E Stability
CASPEED	IQUANT	1	Control Amp Speed
CONVENTION	IQUANT	1	Current Convention
ICHRANGE	IQUANT	2	Ich Range
ICHRANGEMODE	TOGGLE	F	Ich Auto Range
ICHOFFSETENABLE	TOGGLE	T	Ich Offset Enable
ICHOFFSET	QUANT	0	Ich Offset (V)
ICHFILTER	IQUANT	3	Ich Filter
VCHRANGE	IQUANT	2	Vch Range
VCHRANGEMODE	TOGGLE	F	Vch Auto Range
VCHOFFSETENABLE	TOGGLE	T	Vch Offset Enable
VCHOFFSET	QUANT	0	Vch Offset (V)
VCHFILTER	IQUANT	3	Vch Filter
ACHRANGE	IQUANT	2	Ach Range
ACHOFFSETENABLE	TOGGLE	F	Ach Offset Enable
ACHOFFSET	QUANT	0	Ach Offset (V)
ACHFILTER	IQUANT	3	Ach Filter
IERANGELOWERLIMIT	IQUANT	2	I/E Range Lower Limit
IERANGEMODE	TOGGLE	F	I/E AutoRange
IERANGE	IQUANT	11	I/E Range
POSFEEDENABLE	TOGGLE	F	Positive Feedback IR Comp
POSFEEDRESISTANCE	QUANT	0	Positive Feedback Resistance (ohm)
ACHSELECT	IQUANT	0	Ach Select
CABLEID	IQUANT	13	Cable ID
DCCALDATE	LABEL	7/31/2020	DC Calibration Date
ACCALDATE	LABEL	7/31/2020	AC Calibration Date
THERMOSELECT	IQUANT	1	Thermo Select
FRAMEWORKVERSION	QUANT	6.33	Framework Version
INSTRUMENTVERSION	LABEL	3.50	Instrument Version
COMPLIANCEVOLTAGE	IQUANT	0	Compliance Voltage
ZCURVE	TABLE
	Pt	Time	Freq	Zreal	Zimag	Zsig	Zmod	Zphz	Idc	Vdc	IERange
	#	s	Hz	ohm	ohm	V	ohm	°	A	V	#
	0	15	300046.9	1092.335	-482.9668	1	1194.342	-23.85222	-1.929618E-005	0.0013808	9
	1	27	238359.4	1229.299	-492.452	1	1324.268	-21.83083	2.480399E-005	0.0009662	9
	2	52	189328.1	1355.001	-470.7262	1	1434.438	-19.15718	5.061307E-005	0.0001331	9
	3	66	150421.9	1444.795	-462.6479	1	1517.062	-17.75595	7.638077E-005	-0.0015187	9
	4	74	119484.4	1552.276	-352.5039	1	1591.797	-12.79423	-3.192915E-005	0.0188367	8
	5	80	94921.88	1621.654	-305.6266	1	1650.203	-10.67311	-2.031931E-005	0.0050883	8
	6	83	75421.88	1664.048	-264.7001	1	1684.969	-9.038314	-2.036105E-005	0.0050784	8
	7	86	59859.37	1704.204	-229.5456	1	1719.594	-7.671213	4.512752E-007	0.0057915	8
	8	89	47578.12	1747.213	-193.1539	1	1757.857	-6.308416	-7.784279E-006	0.0080498	8
	9	92	37828.12	1781.935	-167.9312	1	1789.83	-5.383707	4.993512E-006	-0.0058145	8
	10	94	30046.88	1814.482	-143.4215	1	1820.141	-4.519417	2.250677E-005	-0.0047384	8
	11	101	23859.38	1854.152	-120.6882	1	1858.076	-3.724172	-1.91458E-005	0.0093112	8
	12	104	18984.38	1882.483	-104.2704	1	1885.368	-3.170364	1.189913E-005	-0.0072864	8
	13	108	15046.87	1913.931	-87.99791	1	1915.953	-2.632467	1.797204E-005	-0.0079635	8
	14	112	11953.13	1948.452	-74.79046	1	1949.887	-2.198194	2.330245E-005	-0.0065056	8
	15	117	9515.62	1975.745	-62.77037	1	1976.742	-1.819702	-1.518078E-005	0.0015133	8
	16	120	7546.875	2001.199	-51.65482	1	2001.865	-1.478587	-2.070492E-005	0.0051953	8
	17	123	5928.309	2021.443	-41.71671	1	2021.874	-1.18225	-9.769375E-006	-0.0009375	8
	18	127	4733.456	2064.863	-36.71679	1	2065.189	-1.01871	-1.511431E-005	0.001462	8
	19	132	3796.875	2091.843	-31.48168	1	2092.08	-0.8622211	1.853158E-005	-0.0080991	8
	20	136	2987.132	2121.893	-33.59594	1	2122.159	-0.9070885	2.18042E-005	-0.0076738	8
	21	140	2390.625	2154.754	-20.33668	1	2154.85	-0.5407446	-9.73411E-006	-0.0009402	8
	22	144	1884.191	2178.899	-19.69439	1	2178.988	-0.5178646	2.349153E-005	-0.0065835	8
	23	149	1516.544	2219.696	-26.39295	1	2219.853	-0.6812345	-1.521905E-005	0.0014402	8
	24	153	1193.986	2248.391	-11.92059	1	2248.423	-0.3037697	1.833431E-005	-0.008089	8
	25	158	946.5144	2271.175	-33.38788	1	2271.42	-0.8422281	2.207155E-005	-0.0077972	8
	26	160	751.7689	2292.036	-27.9506	1	2292.207	-0.6986679	1.648205E-005	-0.000295	8
	27	163	597.4265	2314.604	-23.42571	1	2314.722	-0.5798612	-2.697059E-006	-0.0036755	8
	28	165	477.4305	2339.052	-31.15294	1	2339.26	-0.7630554	-1.092737E-007	0.0006461	8
	29	168	376.6741	2358.735	-36.52627	1	2359.017	-0.887185	-1.539055E-007	0.0006774	8
	30	170	298.2954	2378.965	-43.40295	1	2379.361	-1.045215	-1.242968E-007	0.0006562	8
	31	172	237.7717	2399.777	-52.24103	1	2400.345	-1.247082	-1.309172E-007	0.0006545	8
	32	175	189.0121	2421.179	-63.49575	1	2422.012	-1.502245	-1.197267E-007	0.0006715	8
	33	177	150.2404	2443.129	-77.54916	1	2444.359	-1.818058	-1.444252E-007	0.0006644	8
	34	180	119.1737	2465.164	-95.2297	1	2467.002	-2.212245	-1.257702E-007	0.0006626	8
	35	182	95.0169	2488.483	-116.8456	1	2491.225	-2.688323	-1.566478E-007	0.0006737	8
	36	184	75.60484	2513.168	-144.0225	1	2517.292	-3.279871	-1.676744E-007	0.0006667	8
	37	187	54.50582	2540.49	-194.5521	1	2547.929	-4.379193	-1.382399E-007	0.0006434	8
	38	189	45.95588	2565.653	-227.0117	1	2575.677	-5.056423	-1.834802E-007	0.0006558	8
	39	192	37.20238	2590.992	-277.5604	1	2605.816	-6.114501	-1.577695E-007	0.0006461	8
	40	194	30.04808	2620.142	-338.7721	1	2641.952	-7.367206	-9.292291E-008	0.0006445	8
	41	197	23.91582	2649.619	-419.3374	1	2682.596	-8.993228	-1.661057E-007	0.0006561	8
	42	199	18.60119	2680.093	-530.1801	1	2732.03	-11.18987	-2.370026E-007	0.000663	8
	43	201	15.02404	2721.488	-642.2455	1	2796.243	-13.27832	1.758908E-008	0.0006605	8
	44	203	12.01923	2759.703	-793.9714	1	2871.646	-16.05062	-2.773156E-008	0.0006488	8
	45	206	9.450605	2803.741	-998.702	1	2976.301	-19.60607	-1.929571E-007	0.0006755	8
	46	208	7.512019	2855.106	-1233.454	1	3110.151	-23.36516	-3.168235E-008	0.0006475	8
	47	211	5.978954	2923.32	-1528.182	1	3298.657	-27.59856	-9.589437E-008	0.0006563	8
	48	214	4.734848	3003.864	-1895.074	1	3551.691	-32.24696	-1.050972E-007	0.0006703	8
	49	217	3.75601	3108.013	-2353.267	1	3898.411	-37.13159	-6.052213E-008	0.0006148	7
	50	221	3.004808	3220.055	-2888.958	1	4326.064	-41.89771	-4.941386E-008	0.0006502	7
	51	224	2.372217	3364.22	-3582.58	1	4914.556	-46.8004	-3.955626E-008	0.0006842	7
	52	229	1.878005	3540.281	-4450.022	1	5686.501	-51.49548	-5.776631E-008	0.0006192	7
	53	233	1.512097	3734.213	-5427.952	1	6588.399	-55.47359	-4.428466E-008	0.0005664	7
	54	239	1.201923	3998.57	-6708.899	1	7810.114	-59.20464	-5.447696E-008	0.0006246	7
	55	245	0.956633	4308.949	-8268.562	1	9323.956	-62.47488	-5.21966E-008	-7.944956E-006	7
