EXPLAIN
TAG	EISPOT
TITLE	LABEL	Potentiostatic EIS	Test Identifier
DATE	LABEL	2/27/2021	Date
TIME	LABEL	14:16:07	Time
NOTES	NOTES	1	Notes...
	
PSTAT	PSTAT	REF3000-16137	Potentiostat
VDC	POTEN	0.00000E+000	T	DC Voltage (V)
FREQINIT	QUANT	3.00000E+005	Initial Freq. (Hz)
FREQFINAL	QUANT	1.00000E+000	Final Freq. (Hz)
PTSPERDEC	QUANT	1.00000E+001	Points/decade
VAC	QUANT	5.00000E+001	AC Voltage (mV rms)
AREA	QUANT	1.00000E+000	Sample Area (cm^2)
SPEED	SELECTOR	2	Optimize for:
ZGUESS	QUANT	1.00000E+003	Estimated Z (ohms)
EOC	QUANT	0	Open Circuit (V)
SEQUENCER	TOGGLE	TRUE	Run as Sequence
PSTATMODEL	IQUANT	5	Pstat Model
PSTATSECTION	LABEL	REF3000-16137	Pstat Section
PSTATSERIALNO	LABEL	16137	Pstat Serial Number
CTRLMODE	IQUANT	1	Control Mode
IESTAB	IQUANT	0	I/E Stability
CASPEED	IQUANT	1	Control Amp Speed
CONVENTION	IQUANT	1	Current Convention
ICHRANGE	IQUANT	2	Ich Range
ICHRANGEMODE	TOGGLE	F	Ich Auto Range
ICHOFFSETENABLE	TOGGLE	T	Ich Offset Enable
ICHOFFSET	QUANT	0	Ich Offset (V)
ICHFILTER	IQUANT	3	Ich Filter
VCHRANGE	IQUANT	2	Vch Range
VCHRANGEMODE	TOGGLE	F	Vch Auto Range
VCHOFFSETENABLE	TOGGLE	T	Vch Offset Enable
VCHOFFSET	QUANT	0	Vch Offset (V)
VCHFILTER	IQUANT	3	Vch Filter
ACHRANGE	IQUANT	2	Ach Range
ACHOFFSETENABLE	TOGGLE	F	Ach Offset Enable
ACHOFFSET	QUANT	0	Ach Offset (V)
ACHFILTER	IQUANT	3	Ach Filter
IERANGELOWERLIMIT	IQUANT	2	I/E Range Lower Limit
IERANGEMODE	TOGGLE	F	I/E AutoRange
IERANGE	IQUANT	11	I/E Range
POSFEEDENABLE	TOGGLE	F	Positive Feedback IR Comp
POSFEEDRESISTANCE	QUANT	0	Positive Feedback Resistance (ohm)
ACHSELECT	IQUANT	0	Ach Select
CABLEID	IQUANT	13	Cable ID
DCCALDATE	LABEL	7/31/2020	DC Calibration Date
ACCALDATE	LABEL	7/31/2020	AC Calibration Date
THERMOSELECT	IQUANT	1	Thermo Select
FRAMEWORKVERSION	QUANT	6.33	Framework Version
INSTRUMENTVERSION	LABEL	3.50	Instrument Version
COMPLIANCEVOLTAGE	IQUANT	0	Compliance Voltage
ZCURVE	TABLE
	Pt	Time	Freq	Zreal	Zimag	Zsig	Zmod	Zphz	Idc	Vdc	IERange
	#	s	Hz	ohm	ohm	V	ohm	°	A	V	#
	0	10	300046.9	3.372954	2.220106	1	4.038031	33.35324	6.410035E-005	-7.000881E-005	10
	1	13	238359.4	3.346495	1.773821	1	3.787541	27.92597	-2.671187E-006	-0.0004816	10
	2	16	189328.1	3.328628	1.399779	1	3.610976	22.80808	1.123026E-005	-9.429892E-005	10
	3	19	150421.9	3.3238	1.099987	1	3.501088	18.31158	2.625842E-007	9.20797E-005	10
	4	21	119484.4	3.308425	0.8488501	1	3.415586	14.3901	9.991441E-006	0.0002949	10
	5	24	94921.88	3.322184	0.518407	1	3.362388	8.869141	-7.46927E-005	0.0004396	12
	6	27	75421.88	3.307454	0.4662051	1	3.34015	8.023318	1.006307E-005	0.0006475	11
	7	30	59859.37	3.310084	0.3242634	1	3.325928	5.594974	-3.002391E-005	0.0006471	11
	8	32	47578.12	3.313781	0.2014564	1	3.319899	3.47893	-1.857041E-005	0.0006741	11
	9	35	37828.12	3.317842	0.0897712	1	3.319057	1.549879	-2.807876E-005	0.0006458	11
	10	37	30046.88	3.325552	-0.0160223	1	3.325591	-0.276046	8.513262E-006	0.000726	11
	11	40	23859.38	3.332918	-0.1217616	1	3.335142	-2.092259	-3.212098E-005	0.0006789	11
	12	42	18984.38	3.341754	-0.2310579	1	3.349733	-3.955289	-4.127021E-005	0.0006657	11
	13	44	15046.87	3.352396	-0.3531933	1	3.37095	-6.014238	1.43159E-005	0.0007272	11
	14	47	11953.13	3.365335	-0.4900647	1	3.40083	-8.285253	-5.566877E-006	0.0007064	11
	15	49	9515.62	3.380799	-0.6486303	1	3.442458	-10.86063	1.655001E-005	0.000748	11
	16	51	7546.875	3.400387	-0.8401471	1	3.502638	-13.87835	-2.644174E-005	0.0007162	11
	17	54	5928.309	3.42794	-1.083474	1	3.595092	-17.54025	2.076226E-005	0.0006757	10
	18	56	4733.456	3.457828	-1.360548	1	3.715867	-21.4781	1.805233E-005	0.0006553	10
	19	58	3796.875	3.494606	-1.690216	1	3.881894	-25.8114	2.171377E-005	0.0006649	10
	20	60	2987.132	3.545562	-2.133698	1	4.138076	-31.03927	-2.443405E-005	0.0006969	10
	21	63	2390.625	3.606021	-2.638889	1	4.468459	-36.19669	2.107163E-005	0.0006716	10
	22	65	1884.191	3.688895	-3.308038	1	4.954903	-41.88435	-2.252325E-005	0.0006921	10
	23	67	1516.544	3.785481	-4.056473	1	5.548409	-46.97916	1.204029E-005	0.0006591	10
	24	70	1193.986	3.921189	-5.072053	1	6.411041	-52.2925	-1.580753E-005	0.000685	10
	25	72	946.5144	4.08876	-6.295785	1	7.506988	-56.99853	-2.827441E-005	0.0006839	10
	26	74	751.7689	4.309623	-7.789736	1	8.902406	-61.04671	2.3237E-005	0.0006724	10
	27	77	597.4265	4.583293	-9.62316	1	10.65888	-64.53259	2.338766E-005	0.0006744	10
	28	79	477.4305	4.92575	-11.81879	1	12.80417	-67.37496	-1.677103E-006	0.0006891	10
	29	81	376.6741	5.383527	-14.67179	1	15.6283	-69.85037	-1.343811E-006	0.0006883	10
	30	84	298.2954	5.95488	-18.13656	1	19.08915	-71.82315	-1.649398E-006	0.000689	10
	31	86	237.7717	6.655314	-22.26928	1	23.2425	-73.36089	-1.23536E-006	0.0006811	10
	32	88	189.0121	7.543479	-27.39118	1	28.41092	-74.60254	-1.6858E-006	0.0006825	10
	33	91	150.2404	8.65968	-33.67466	1	34.77029	-75.57846	-1.061206E-006	0.0006838	10
	34	93	119.1737	10.07124	-41.4449	1	42.65102	-76.34168	-9.468401E-007	0.0007093	10
	35	96	95.0169	11.77499	-50.67003	1	52.02021	-76.91749	2.111757E-006	8.716778E-005	9
	36	98	75.60484	13.92684	-62.09573	1	63.63832	-77.35888	1.97523E-006	8.882156E-005	9
	37	101	54.50582	17.92362	-82.98021	1	84.89388	-77.81144	1.857723E-006	7.867711E-005	9
	38	103	45.95588	20.52755	-96.5238	1	98.6824	-77.99388	2.080221E-006	8.943071E-005	9
	39	105	37.20238	24.3658	-116.3297	1	118.8541	-78.17015	2.005558E-006	8.63723E-005	9
	40	108	30.04808	29.06406	-140.5133	1	143.4876	-78.31362	1.930924E-006	7.973178E-005	9
	41	110	23.91582	35.09062	-171.7453	1	175.2935	-78.45239	1.97609E-006	7.841548E-005	9
	42	113	18.60119	43.52457	-214.512	1	218.883	-78.53036	2.142171E-006	7.64312E-005	9
	43	115	15.02404	52.30267	-259.0056	1	264.2338	-78.58343	2.077202E-006	7.997263E-005	9
	44	117	12.01923	63.79433	-315.6262	1	322.0087	-78.57333	2.206343E-006	8.449098E-005	9
	45	120	9.450605	79.14058	-390.5763	1	398.5136	-78.54552	2.180652E-006	7.703663E-005	9
	46	122	7.512019	97.522	-476.8329	1	486.7033	-78.44125	1.495019E-006	0.0006755	8
	47	125	5.978954	121.392	-583.918	1	596.4028	-78.25594	1.431284E-006	0.0006632	8
	48	128	4.734848	153.3588	-719.1054	1	735.2765	-77.96126	1.496716E-006	0.0006658	8
	49	131	3.75601	195.5951	-883.1509	1	904.5513	-77.51204	1.413086E-006	0.0006663	8
	50	134	3.004808	250.1626	-1075.701	1	1104.406	-76.90813	1.441076E-006	0.000635	8
	51	138	2.372217	328.6004	-1324.843	1	1364.986	-76.07006	1.404222E-006	0.0005934	8
	52	142	1.878005	438.2924	-1623.391	1	1681.516	-74.89118	1.406471E-006	0.0006691	8
	53	147	1.512097	577.2264	-1950.493	1	2034.112	-73.51447	1.368756E-006	0.0006014	8
	54	152	1.201923	779.3583	-2369.743	1	2494.61	-71.79506	1.389747E-006	0.0006862	8
	55	159	0.956633	1058.469	-2848.479	1	3038.781	-69.61539	1.298917E-006	1.655481E-005	8
