EXPLAIN
TAG	EISPOT
TITLE	LABEL	Potentiostatic EIS	Test Identifier
DATE	LABEL	2/27/2021	Date
TIME	LABEL	13:59:11	Time
NOTES	NOTES	1	Notes...
	
PSTAT	PSTAT	REF3000-16137	Potentiostat
VDC	POTEN	0.00000E+000	T	DC Voltage (V)
FREQINIT	QUANT	3.00000E+005	Initial Freq. (Hz)
FREQFINAL	QUANT	1.00000E+000	Final Freq. (Hz)
PTSPERDEC	QUANT	1.00000E+001	Points/decade
VAC	QUANT	5.00000E+001	AC Voltage (mV rms)
AREA	QUANT	1.00000E+000	Sample Area (cm^2)
SPEED	SELECTOR	2	Optimize for:
ZGUESS	QUANT	1.00000E+003	Estimated Z (ohms)
EOC	QUANT	0	Open Circuit (V)
SEQUENCER	TOGGLE	TRUE	Run as Sequence
PSTATMODEL	IQUANT	5	Pstat Model
PSTATSECTION	LABEL	REF3000-16137	Pstat Section
PSTATSERIALNO	LABEL	16137	Pstat Serial Number
CTRLMODE	IQUANT	1	Control Mode
IESTAB	IQUANT	0	I/E Stability
CASPEED	IQUANT	1	Control Amp Speed
CONVENTION	IQUANT	1	Current Convention
ICHRANGE	IQUANT	2	Ich Range
ICHRANGEMODE	TOGGLE	F	Ich Auto Range
ICHOFFSETENABLE	TOGGLE	T	Ich Offset Enable
ICHOFFSET	QUANT	0	Ich Offset (V)
ICHFILTER	IQUANT	3	Ich Filter
VCHRANGE	IQUANT	2	Vch Range
VCHRANGEMODE	TOGGLE	F	Vch Auto Range
VCHOFFSETENABLE	TOGGLE	T	Vch Offset Enable
VCHOFFSET	QUANT	0	Vch Offset (V)
VCHFILTER	IQUANT	3	Vch Filter
ACHRANGE	IQUANT	2	Ach Range
ACHOFFSETENABLE	TOGGLE	F	Ach Offset Enable
ACHOFFSET	QUANT	0	Ach Offset (V)
ACHFILTER	IQUANT	3	Ach Filter
IERANGELOWERLIMIT	IQUANT	2	I/E Range Lower Limit
IERANGEMODE	TOGGLE	F	I/E AutoRange
IERANGE	IQUANT	11	I/E Range
POSFEEDENABLE	TOGGLE	F	Positive Feedback IR Comp
POSFEEDRESISTANCE	QUANT	0	Positive Feedback Resistance (ohm)
ACHSELECT	IQUANT	0	Ach Select
CABLEID	IQUANT	13	Cable ID
DCCALDATE	LABEL	7/31/2020	DC Calibration Date
ACCALDATE	LABEL	7/31/2020	AC Calibration Date
THERMOSELECT	IQUANT	1	Thermo Select
FRAMEWORKVERSION	QUANT	6.33	Framework Version
INSTRUMENTVERSION	LABEL	3.50	Instrument Version
COMPLIANCEVOLTAGE	IQUANT	0	Compliance Voltage
ZCURVE	TABLE
	Pt	Time	Freq	Zreal	Zimag	Zsig	Zmod	Zphz	Idc	Vdc	IERange
	#	s	Hz	ohm	ohm	V	ohm	°	A	V	#
	0	10	300046.9	2.554047	2.214231	1	3.380233	40.92365	-2.819387E-005	-0.0001834	11
	1	13	238359.4	2.511935	1.756009	1	3.064864	34.9561	-7.385649E-005	-8.555985E-005	11
	2	17	189328.1	2.482411	1.38386	1	2.842083	29.13818	2.056903E-005	0.0001975	11
	3	19	150421.9	2.513382	0.956367	1	2.689187	20.83232	-0.0001415	0.0002673	12
	4	23	119484.4	2.454487	0.8460335	1	2.596205	19.01848	-4.042688E-005	0.000453	11
	5	25	94921.88	2.464109	0.5594003	1	2.526808	12.79046	-5.063606E-005	0.0005023	12
	6	29	75421.88	2.454907	0.4105717	1	2.489004	9.494576	-5.04019E-005	0.0005614	12
	7	32	59859.37	2.450711	0.2831636	1	2.467015	6.590926	-5.95884E-005	0.0005432	12
	8	36	47578.12	2.44786	0.2163778	1	2.457405	5.051513	-5.548387E-005	0.0006088	11
	9	39	37828.12	2.450692	0.1063671	1	2.452999	2.485243	2.262063E-005	0.0006845	11
	10	41	30046.88	2.455499	0.0031519	1	2.455501	0.0735455	5.173518E-006	0.0006897	11
	11	44	23859.38	2.46118	-0.0989107	1	2.463166	-2.301382	-1.713549E-005	0.0006998	11
	12	46	18984.38	2.467391	-0.2040925	1	2.475818	-4.728508	1.675159E-005	0.0007127	11
	13	48	15046.87	2.475378	-0.3202204	1	2.496004	-7.370975	2.715972E-006	0.0006968	11
	14	51	11953.13	2.486743	-0.4498617	1	2.527107	-10.25413	8.256198E-006	0.0007178	11
	15	53	9515.62	2.500637	-0.5993682	1	2.571464	-13.47873	-2.448961E-005	0.0007371	11
	16	55	7546.875	2.517133	-0.7795709	1	2.635088	-17.20806	-3.498789E-005	0.0006742	11
	17	57	5928.309	2.541218	-1.006404	1	2.733247	-21.60515	-2.258346E-005	0.0007001	11
	18	60	4733.456	2.56964	-1.264005	1	2.863696	-26.19255	-1.904631E-005	0.0007039	11
	19	62	3796.875	2.604558	-1.569593	1	3.040945	-31.07457	2.809599E-005	0.0007269	11
	20	64	2987.132	2.653954	-1.979618	1	3.310945	-36.71973	2.486034E-005	0.0007307	11
	21	67	2390.625	2.712296	-2.447864	1	3.653572	-42.06644	-5.095303E-005	0.0006671	11
	22	69	1884.191	2.798707	-3.064792	1	4.150387	-47.59829	-7.917366E-006	0.0006759	10
	23	71	1516.544	2.893352	-3.754094	1	4.739696	-52.37787	-2.185767E-005	0.0006951	10
	24	74	1193.986	3.028836	-4.686272	1	5.579875	-57.12456	-1.334373E-005	0.0006917	10
	25	76	946.5144	3.201286	-5.803069	1	6.627507	-61.1165	4.092503E-006	0.0006809	10
	26	78	751.7689	3.407633	-7.171461	1	7.939888	-64.58453	-1.679707E-005	0.0007217	10
	27	81	597.4265	3.678831	-8.841253	1	9.57609	-67.40788	7.044176E-007	0.0006759	10
	28	83	477.4305	4.011204	-10.84296	1	11.56112	-69.69873	1.267094E-006	0.0006934	10
	29	85	376.6741	4.455278	-13.43761	1	14.15693	-71.65691	8.712832E-007	0.0006929	10
	30	88	298.2954	5.008106	-16.58448	1	17.32414	-73.19697	1.479716E-006	0.0006944	10
	31	90	237.7717	5.684373	-20.33064	1	21.11035	-74.3792	6.992275E-007	0.0006909	10
	32	92	189.0121	6.543243	-24.96841	1	25.81154	-75.31524	5.513276E-007	0.0006931	10
	33	95	150.2404	7.623043	-30.64257	1	31.57654	-76.02995	8.796551E-007	0.0007244	10
	34	97	119.1737	8.980944	-37.64773	1	38.70412	-76.58273	9.184424E-007	0.0006985	10
	35	99	95.0169	10.61828	-45.94702	1	47.158	-76.98748	3.535805E-006	9.301015E-005	9
	36	102	75.60484	12.67225	-56.21477	1	57.62539	-77.29641	3.404409E-006	9.111057E-005	9
	37	104	54.50582	16.48047	-74.96339	1	76.7536	-77.60094	3.222352E-006	9.113773E-005	9
	38	107	45.95588	18.98001	-87.14498	1	89.18793	-77.71297	3.62275E-006	9.424347E-005	9
	39	109	37.20238	22.67101	-104.9537	1	107.3743	-77.81084	3.479366E-006	0.0000961	9
	40	112	30.04808	27.2151	-126.5883	1	129.4807	-77.86671	3.3008E-006	9.218602E-005	9
	41	114	23.91582	33.34423	-154.8476	1	158.397	-77.84773	3.166931E-006	8.782165E-005	9
	42	116	18.60119	41.88705	-193.2568	1	197.744	-77.7707	3.45261E-006	9.389173E-005	9
	43	119	15.02404	51.24603	-233.3367	1	238.8978	-77.6132	3.539452E-006	8.921741E-005	9
	44	121	12.01923	63.82415	-284.2813	1	291.3578	-77.34631	3.330847E-006	9.385292E-005	9
	45	123	9.450605	81.76871	-351.5945	1	360.9775	-76.90771	3.337988E-006	0.0001048	9
	46	126	7.512019	104.8317	-428.5469	1	441.1826	-76.25417	2.747842E-006	0.00066	8
	47	129	5.978954	136.1209	-523.3088	1	540.7227	-75.41957	2.759885E-006	0.0006702	8
	48	132	4.734848	180.6183	-640.437	1	665.4191	-74.25031	2.69922E-006	0.000643	8
	49	135	3.75601	242.7657	-778.9889	1	815.9405	-72.69077	2.811727E-006	0.0006876	8
	50	138	3.004808	324.865	-935.5854	1	990.382	-70.85137	2.726897E-006	0.0006778	8
	51	142	2.372217	445.6218	-1124.655	1	1209.723	-68.38506	2.701253E-006	0.0006799	8
	52	146	1.878005	611.6836	-1334.65	1	1468.144	-65.37753	2.745515E-006	0.0006487	8
	53	151	1.512097	811.3563	-1540.959	1	1741.509	-62.23198	2.67574E-006	0.0007682	8
	54	156	1.201923	1082.034	-1759.435	1	2065.529	-58.40892	2.674138E-006	0.0006477	8
	55	163	0.956633	1412.005	-1960.422	1	2415.991	-54.23647	2.379025E-006	3.113614E-005	8
