EXPLAIN
TAG	EISPOT
TITLE	LABEL	Potentiostatic EIS	Test Identifier
DATE	LABEL	2/27/2021	Date
TIME	LABEL	13:53:23	Time
NOTES	NOTES	1	Notes...
	
PSTAT	PSTAT	REF3000-16137	Potentiostat
VDC	POTEN	0.00000E+000	T	DC Voltage (V)
FREQINIT	QUANT	3.00000E+005	Initial Freq. (Hz)
FREQFINAL	QUANT	1.00000E+000	Final Freq. (Hz)
PTSPERDEC	QUANT	1.00000E+001	Points/decade
VAC	QUANT	5.00000E+001	AC Voltage (mV rms)
AREA	QUANT	1.00000E+000	Sample Area (cm^2)
SPEED	SELECTOR	2	Optimize for:
ZGUESS	QUANT	1.00000E+003	Estimated Z (ohms)
EOC	QUANT	0	Open Circuit (V)
SEQUENCER	TOGGLE	TRUE	Run as Sequence
PSTATMODEL	IQUANT	5	Pstat Model
PSTATSECTION	LABEL	REF3000-16137	Pstat Section
PSTATSERIALNO	LABEL	16137	Pstat Serial Number
CTRLMODE	IQUANT	1	Control Mode
IESTAB	IQUANT	0	I/E Stability
CASPEED	IQUANT	1	Control Amp Speed
CONVENTION	IQUANT	1	Current Convention
ICHRANGE	IQUANT	2	Ich Range
ICHRANGEMODE	TOGGLE	F	Ich Auto Range
ICHOFFSETENABLE	TOGGLE	T	Ich Offset Enable
ICHOFFSET	QUANT	0	Ich Offset (V)
ICHFILTER	IQUANT	3	Ich Filter
VCHRANGE	IQUANT	2	Vch Range
VCHRANGEMODE	TOGGLE	F	Vch Auto Range
VCHOFFSETENABLE	TOGGLE	T	Vch Offset Enable
VCHOFFSET	QUANT	0	Vch Offset (V)
VCHFILTER	IQUANT	3	Vch Filter
ACHRANGE	IQUANT	2	Ach Range
ACHOFFSETENABLE	TOGGLE	F	Ach Offset Enable
ACHOFFSET	QUANT	0	Ach Offset (V)
ACHFILTER	IQUANT	3	Ach Filter
IERANGELOWERLIMIT	IQUANT	2	I/E Range Lower Limit
IERANGEMODE	TOGGLE	F	I/E AutoRange
IERANGE	IQUANT	11	I/E Range
POSFEEDENABLE	TOGGLE	F	Positive Feedback IR Comp
POSFEEDRESISTANCE	QUANT	0	Positive Feedback Resistance (ohm)
ACHSELECT	IQUANT	0	Ach Select
CABLEID	IQUANT	13	Cable ID
DCCALDATE	LABEL	7/31/2020	DC Calibration Date
ACCALDATE	LABEL	7/31/2020	AC Calibration Date
THERMOSELECT	IQUANT	1	Thermo Select
FRAMEWORKVERSION	QUANT	6.33	Framework Version
INSTRUMENTVERSION	LABEL	3.50	Instrument Version
COMPLIANCEVOLTAGE	IQUANT	0	Compliance Voltage
ZCURVE	TABLE
	Pt	Time	Freq	Zreal	Zimag	Zsig	Zmod	Zphz	Idc	Vdc	IERange
	#	s	Hz	ohm	ohm	V	ohm	°	A	V	#
	0	10	300046.9	2.383697	2.208739	1	3.249699	42.81826	-1.099855E-005	-0.0002048	11
	1	13	238359.4	2.346382	1.758316	1	2.932096	36.8469	-9.468246E-006	-0.0001425	11
	2	16	189328.1	2.324673	1.391357	1	2.70924	30.90125	1.254368E-006	0.0003206	11
	3	20	150421.9	2.358686	0.964193	1	2.54815	22.23395	-0.0001758	0.0002722	12
	4	24	119484.4	2.322465	0.7479947	1	2.439947	17.85215	-0.0001425	0.0002161	12
	5	27	94921.88	2.303949	0.5674631	1	2.372803	13.83656	-9.142183E-005	0.0005392	12
	6	31	75421.88	2.294581	0.4188345	1	2.332494	10.34443	-3.603189E-005	0.0005796	12
	7	35	59859.37	2.283734	0.3410628	1	2.309061	8.494024	1.071215E-005	0.0006343	11
	8	37	47578.12	2.284021	0.2198839	1	2.294581	5.498949	-2.895641E-005	0.0006107	11
	9	40	37828.12	2.287495	0.1111648	1	2.290194	2.782199	-6.4817E-006	0.0006705	11
	10	42	30046.88	2.290416	0.0085152	1	2.290431	0.2130098	1.974256E-005	0.00071	11
	11	45	23859.38	2.295369	-0.0925957	1	2.297236	-2.310071	-5.591319E-006	0.0006903	11
	12	47	18984.38	2.303001	-0.1960437	1	2.31133	-4.865592	-2.968311E-005	0.000705	11
	13	49	15046.87	2.31114	-0.3102734	1	2.331875	-7.646309	-2.942534E-005	0.0007122	11
	14	52	11953.13	2.321653	-0.4377174	1	2.362556	-10.67704	-2.838646E-005	0.0007195	11
	15	54	9515.62	2.334012	-0.5840387	1	2.405974	-14.04862	8.788129E-006	0.0007096	11
	16	56	7546.875	2.35124	-0.7599254	1	2.470995	-17.91094	1.51259E-005	0.0007268	11
	17	58	5928.309	2.374842	-0.981902	1	2.569827	-22.46313	2.101142E-005	0.0007379	11
	18	61	4733.456	2.402991	-1.233618	1	2.701144	-27.1745	-2.363101E-005	0.0007022	11
	19	63	3796.875	2.437724	-1.531666	1	2.878975	-32.14188	1.733364E-005	0.0007267	11
	20	65	2987.132	2.487642	-1.931232	1	3.149289	-37.82328	-2.56363E-005	0.0007152	11
	21	68	2390.625	2.546002	-2.385656	1	3.489052	-43.13776	-1.305765E-005	0.0006925	11
	22	70	1884.191	2.630649	-2.98677	1	3.980089	-48.62746	2.196297E-005	0.0006764	10
	23	72	1516.544	2.725425	-3.656611	1	4.560564	-53.3013	2.390112E-005	0.0006801	10
	24	75	1193.986	2.859153	-4.561981	1	5.383904	-57.92319	2.140954E-005	0.0006707	10
	25	77	946.5144	3.02755	-5.649248	1	6.409373	-61.81221	-1.509425E-005	0.0007145	10
	26	79	751.7689	3.23559	-6.976119	1	7.689946	-65.11768	2.321357E-005	0.00069	10
	27	82	597.4265	3.502639	-8.601176	1	9.287019	-67.84248	-1.935019E-005	0.0006984	10
	28	84	477.4305	3.828096	-10.53693	1	11.21077	-70.03378	1.993616E-006	0.0007006	10
	29	86	376.6741	4.264704	-13.05297	1	13.732	-71.9066	1.873823E-006	0.0006929	10
	30	89	298.2954	4.807613	-16.10409	1	16.8064	-73.37787	1.651591E-006	0.0006978	10
	31	91	237.7717	5.472667	-19.73473	1	20.4795	-74.5007	1.756066E-006	0.0006934	10
	32	93	189.0121	6.318388	-24.23081	1	25.04105	-75.38509	1.642067E-006	0.0006983	10
	33	96	150.2404	7.380076	-29.72737	1	30.62976	-76.0577	2.410656E-006	0.0006939	10
	34	98	119.1737	8.720637	-36.5089	1	37.53598	-76.56586	2.089837E-006	0.0006953	10
	35	100	95.0169	10.33699	-44.53928	1	45.72308	-76.93372	4.795409E-006	0.0000969	9
	36	103	75.60484	12.36921	-54.47272	1	55.85942	-77.20669	4.66907E-006	8.7955E-005	9
	37	106	54.50582	16.14375	-72.6258	1	74.39844	-77.46767	4.56541E-006	8.329599E-005	9
	38	108	45.95588	18.6239	-84.38098	1	86.4118	-77.55367	5.031623E-006	0.0000984	9
	39	110	37.20238	22.31014	-101.5805	1	104.0017	-77.6128	4.955029E-006	8.192923E-005	9
	40	113	30.04808	26.93499	-122.5734	1	125.498	-77.60648	4.724122E-006	7.977077E-005	9
	41	115	23.91582	33.1707	-149.9609	1	153.5857	-77.52726	4.614157E-006	8.350929E-005	9
	42	118	18.60119	41.95856	-186.9981	1	191.6476	-77.35345	4.643139E-006	8.475126E-005	9
	43	120	15.02404	51.73115	-225.7844	1	231.6349	-77.09527	4.97371E-006	9.258959E-005	9
	44	122	12.01923	65.15424	-274.8021	1	282.4204	-76.66174	4.855361E-006	8.510323E-005	9
	45	125	9.450605	84.8622	-339.6562	1	350.097	-75.97198	4.630814E-006	8.734883E-005	9
	46	127	7.512019	110.4575	-414.9888	1	429.4375	-75.09515	4.82918E-006	7.3163E-005	9
	47	130	5.978954	145.3254	-502.7998	1	523.3804	-73.879	4.039799E-006	0.0006614	8
	48	133	4.734848	195.8513	-612.4968	1	643.0475	-72.26786	3.90419E-006	0.0006501	8
	49	136	3.75601	265.7119	-739.2289	1	785.533	-70.22929	3.900748E-006	0.0006624	8
	50	139	3.004808	357.8933	-877.6316	1	947.8	-67.81464	3.710612E-006	0.000695	8
	51	143	2.372217	491.0618	-1039.75	1	1149.879	-64.71918	3.714642E-006	0.0007308	8
	52	147	1.878005	664.2712	-1206.275	1	1377.082	-61.15931	3.556604E-006	0.0006261	8
	53	152	1.512097	865.5089	-1356.042	1	1608.713	-57.4515	3.493106E-006	0.0007061	8
	54	157	1.201923	1126.937	-1504.101	1	1879.443	-53.15788	3.428454E-006	0.0006245	8
	55	164	0.956633	1426.088	-1617.778	1	2156.602	-48.6035	3.111903E-006	2.304915E-005	8
