EXPLAIN
TAG	EISPOT
TITLE	LABEL	Potentiostatic EIS	Test Identifier
DATE	LABEL	2/27/2021	Date
TIME	LABEL	14:24:30	Time
NOTES	NOTES	1	Notes...
	
PSTAT	PSTAT	REF3000-16137	Potentiostat
VDC	POTEN	0.00000E+000	T	DC Voltage (V)
FREQINIT	QUANT	3.00000E+005	Initial Freq. (Hz)
FREQFINAL	QUANT	1.00000E+000	Final Freq. (Hz)
PTSPERDEC	QUANT	1.00000E+001	Points/decade
VAC	QUANT	5.00000E+001	AC Voltage (mV rms)
AREA	QUANT	1.00000E+000	Sample Area (cm^2)
SPEED	SELECTOR	2	Optimize for:
ZGUESS	QUANT	1.00000E+003	Estimated Z (ohms)
EOC	QUANT	0	Open Circuit (V)
SEQUENCER	TOGGLE	TRUE	Run as Sequence
PSTATMODEL	IQUANT	5	Pstat Model
PSTATSECTION	LABEL	REF3000-16137	Pstat Section
PSTATSERIALNO	LABEL	16137	Pstat Serial Number
CTRLMODE	IQUANT	1	Control Mode
IESTAB	IQUANT	0	I/E Stability
CASPEED	IQUANT	1	Control Amp Speed
CONVENTION	IQUANT	1	Current Convention
ICHRANGE	IQUANT	2	Ich Range
ICHRANGEMODE	TOGGLE	F	Ich Auto Range
ICHOFFSETENABLE	TOGGLE	T	Ich Offset Enable
ICHOFFSET	QUANT	0	Ich Offset (V)
ICHFILTER	IQUANT	3	Ich Filter
VCHRANGE	IQUANT	2	Vch Range
VCHRANGEMODE	TOGGLE	F	Vch Auto Range
VCHOFFSETENABLE	TOGGLE	T	Vch Offset Enable
VCHOFFSET	QUANT	0	Vch Offset (V)
VCHFILTER	IQUANT	3	Vch Filter
ACHRANGE	IQUANT	2	Ach Range
ACHOFFSETENABLE	TOGGLE	F	Ach Offset Enable
ACHOFFSET	QUANT	0	Ach Offset (V)
ACHFILTER	IQUANT	3	Ach Filter
IERANGELOWERLIMIT	IQUANT	2	I/E Range Lower Limit
IERANGEMODE	TOGGLE	F	I/E AutoRange
IERANGE	IQUANT	11	I/E Range
POSFEEDENABLE	TOGGLE	F	Positive Feedback IR Comp
POSFEEDRESISTANCE	QUANT	0	Positive Feedback Resistance (ohm)
ACHSELECT	IQUANT	0	Ach Select
CABLEID	IQUANT	13	Cable ID
DCCALDATE	LABEL	7/31/2020	DC Calibration Date
ACCALDATE	LABEL	7/31/2020	AC Calibration Date
THERMOSELECT	IQUANT	1	Thermo Select
FRAMEWORKVERSION	QUANT	6.33	Framework Version
INSTRUMENTVERSION	LABEL	3.50	Instrument Version
COMPLIANCEVOLTAGE	IQUANT	0	Compliance Voltage
ZCURVE	TABLE
	Pt	Time	Freq	Zreal	Zimag	Zsig	Zmod	Zphz	Idc	Vdc	IERange
	#	s	Hz	ohm	ohm	V	ohm	°	A	V	#
	0	10	300046.9	4.162812	2.21135	1	4.713711	27.97793	7.555576E-005	-0.0001356	10
	1	13	238359.4	4.133893	1.765726	1	4.495204	23.12897	6.776546E-006	-0.0003097	10
	2	16	189328.1	4.114093	1.398005	1	4.345133	18.76822	-5.679861E-005	5.633235E-005	10
	3	19	150421.9	4.113373	1.095206	1	4.256679	14.9094	-3.878352E-005	0.0003027	10
	4	21	119484.4	4.098787	0.8449536	1	4.184974	11.64819	-1.873629E-005	0.0003573	10
	5	24	94921.88	4.101852	0.6564162	1	4.154043	9.091908	3.787464E-005	0.0004645	10
	6	26	75421.88	4.103212	0.4831669	1	4.131561	6.715843	-8.525547E-006	0.0004972	10
	7	29	59859.37	4.10689	0.3341258	1	4.12046	4.65119	2.63572E-005	0.0005546	10
	8	31	47578.12	4.11331	0.2064966	1	4.11849	2.873953	1.94394E-005	0.0005805	10
	9	34	37828.12	4.121123	0.0900518	1	4.122107	1.251786	2.472017E-006	0.0006219	10
	10	36	30046.88	4.129976	-0.0208477	1	4.130028	-0.2892212	3.12742E-006	0.0006273	10
	11	39	23859.38	4.140536	-0.1308947	1	4.142604	-1.810688	-2.743147E-005	0.000654	10
	12	41	18984.38	4.151364	-0.2443933	1	4.158552	-3.369149	2.033657E-005	0.0006627	10
	13	44	15046.87	4.164898	-0.3704108	1	4.181337	-5.082305	-7.470532E-006	0.0006903	10
	14	46	11953.13	4.180188	-0.5126531	1	4.211506	-6.99177	-1.988047E-005	0.0007236	10
	15	48	9515.62	4.196525	-0.6771628	1	4.250808	-9.166392	-1.852825E-005	0.0006843	10
	16	50	7546.875	4.217626	-0.8760206	1	4.307642	-11.73376	2.00608E-005	0.0006669	10
	17	53	5928.309	4.244869	-1.12914	1	4.392478	-14.89581	1.776879E-005	0.0006846	10
	18	55	4733.456	4.276423	-1.417181	1	4.50513	-18.33489	1.098028E-005	0.0006611	10
	19	57	3796.875	4.315554	-1.760989	1	4.661018	-22.19822	-1.882672E-005	0.0007517	10
	20	60	2987.132	4.366321	-2.222874	1	4.899585	-26.98044	3.798043E-006	0.0007001	10
	21	62	2390.625	4.427858	-2.752445	1	5.213625	-31.86591	2.244653E-005	0.000697	10
	22	64	1884.191	4.510493	-3.44982	1	5.678539	-37.41032	4.026942E-006	0.0006993	10
	23	67	1516.544	4.608744	-4.23332	1	6.257916	-42.56874	2.081769E-005	0.000691	10
	24	69	1193.986	4.744979	-5.297411	1	7.111778	-48.14867	-2.62325E-005	0.0007077	10
	25	71	946.5144	4.916444	-6.581694	1	8.215238	-53.24072	-1.006262E-005	0.0007233	10
	26	74	751.7689	5.136763	-8.149325	1	9.63316	-57.77555	4.394728E-006	0.0006675	10
	27	76	597.4265	5.409497	-10.07935	1	11.43923	-61.77794	2.096516E-005	0.0006898	10
	28	78	477.4305	5.754663	-12.39496	1	13.66569	-65.09576	-2.482606E-006	0.0006963	10
	29	81	376.6741	6.217858	-15.40532	1	16.61282	-68.02013	-2.351554E-006	0.0006907	10
	30	83	298.2954	6.797843	-19.06457	1	20.24027	-70.37532	-1.783072E-006	0.0006859	10
	31	85	237.7717	7.510152	-23.4333	1	24.60736	-72.22984	-2.335713E-006	0.0006877	10
	32	88	189.0121	8.417349	-28.8582	1	30.06073	-73.73911	-1.840506E-006	0.0006918	10
	33	90	150.2404	9.55494	-35.50711	1	36.77026	-74.93854	-1.745468E-006	0.0006852	10
	34	92	119.1737	10.98102	-43.69211	1	45.0509	-75.8922	1.665939E-006	8.922396E-005	9
	35	95	95.0169	12.74088	-53.5414	1	55.03646	-76.61467	1.656209E-006	8.273134E-005	9
	36	97	75.60484	14.9533	-65.68649	1	67.36702	-77.17537	1.51105E-006	9.052471E-005	9
	37	100	54.50582	19.0852	-87.92216	1	89.96973	-77.75285	1.343406E-006	8.722174E-005	9
	38	102	45.95588	21.78972	-102.3011	1	104.5959	-77.97591	1.753842E-006	9.127462E-005	9
	39	105	37.20238	25.77107	-123.3478	1	126.0113	-78.19894	1.504527E-006	0.0000991	9
	40	107	30.04808	30.65559	-148.9954	1	152.1164	-78.37372	1.580432E-006	9.033064E-005	9
	41	109	23.91582	36.92995	-182.2181	1	185.9227	-78.54311	1.527376E-006	9.099353E-005	9
	42	112	18.60119	45.59116	-227.6405	1	232.1611	-78.6748	1.606276E-006	0.0000988	9
	43	114	15.02404	54.54662	-274.9389	1	280.2976	-78.7785	1.685047E-006	0.0001101	9
	44	116	12.01923	66.0769	-334.9311	1	341.3869	-78.83971	1.652651E-006	9.186041E-005	9
	45	119	9.450605	81.47064	-414.7118	1	422.6385	-78.88571	1.70312E-006	8.742688E-005	9
	46	121	7.512019	99.1108	-506.2142	1	515.8254	-78.92229	1.044645E-006	0.0006559	8
	47	124	5.978954	121.7548	-619.7582	1	631.6047	-78.88548	1.090488E-006	0.0006782	8
	48	127	4.734848	151.3077	-763.1703	1	778.025	-78.78585	1.060766E-006	0.0006937	8
	49	130	3.75601	188.574	-937.9193	1	956.688	-78.63192	1.059258E-006	0.000667	8
	50	134	3.004808	235.1389	-1143.318	1	1167.247	-78.3784	1.061151E-006	0.0006945	8
	51	137	2.372217	302.0617	-1411.631	1	1443.587	-77.92196	1.037296E-006	0.0007419	8
	52	142	1.878005	387.2863	-1739.753	1	1782.339	-77.45002	9.860463E-007	0.0006567	8
	53	146	1.512097	492.2144	-2103.687	1	2160.503	-76.831	1.038597E-006	0.0006398	8
	54	152	1.201923	651.4773	-2582.656	1	2663.557	-75.84245	9.837723E-007	0.0006543	8
	55	158	0.956633	866.5925	-3148.778	1	3265.851	-74.61227	9.539447E-007	3.37673E-005	8
