EXPLAIN
TAG	EISPOT
TITLE	LABEL	Potentiostatic EIS	Test Identifier
DATE	LABEL	2/27/2021	Date
TIME	LABEL	13:56:16	Time
NOTES	NOTES	1	Notes...
	
PSTAT	PSTAT	REF3000-16137	Potentiostat
VDC	POTEN	0.00000E+000	T	DC Voltage (V)
FREQINIT	QUANT	3.00000E+005	Initial Freq. (Hz)
FREQFINAL	QUANT	1.00000E+000	Final Freq. (Hz)
PTSPERDEC	QUANT	1.00000E+001	Points/decade
VAC	QUANT	5.00000E+001	AC Voltage (mV rms)
AREA	QUANT	1.00000E+000	Sample Area (cm^2)
SPEED	SELECTOR	2	Optimize for:
ZGUESS	QUANT	1.00000E+003	Estimated Z (ohms)
EOC	QUANT	0	Open Circuit (V)
SEQUENCER	TOGGLE	TRUE	Run as Sequence
PSTATMODEL	IQUANT	5	Pstat Model
PSTATSECTION	LABEL	REF3000-16137	Pstat Section
PSTATSERIALNO	LABEL	16137	Pstat Serial Number
CTRLMODE	IQUANT	1	Control Mode
IESTAB	IQUANT	0	I/E Stability
CASPEED	IQUANT	1	Control Amp Speed
CONVENTION	IQUANT	1	Current Convention
ICHRANGE	IQUANT	2	Ich Range
ICHRANGEMODE	TOGGLE	F	Ich Auto Range
ICHOFFSETENABLE	TOGGLE	T	Ich Offset Enable
ICHOFFSET	QUANT	0	Ich Offset (V)
ICHFILTER	IQUANT	3	Ich Filter
VCHRANGE	IQUANT	2	Vch Range
VCHRANGEMODE	TOGGLE	F	Vch Auto Range
VCHOFFSETENABLE	TOGGLE	T	Vch Offset Enable
VCHOFFSET	QUANT	0	Vch Offset (V)
VCHFILTER	IQUANT	3	Vch Filter
ACHRANGE	IQUANT	2	Ach Range
ACHOFFSETENABLE	TOGGLE	F	Ach Offset Enable
ACHOFFSET	QUANT	0	Ach Offset (V)
ACHFILTER	IQUANT	3	Ach Filter
IERANGELOWERLIMIT	IQUANT	2	I/E Range Lower Limit
IERANGEMODE	TOGGLE	F	I/E AutoRange
IERANGE	IQUANT	11	I/E Range
POSFEEDENABLE	TOGGLE	F	Positive Feedback IR Comp
POSFEEDRESISTANCE	QUANT	0	Positive Feedback Resistance (ohm)
ACHSELECT	IQUANT	0	Ach Select
CABLEID	IQUANT	13	Cable ID
DCCALDATE	LABEL	7/31/2020	DC Calibration Date
ACCALDATE	LABEL	7/31/2020	AC Calibration Date
THERMOSELECT	IQUANT	1	Thermo Select
FRAMEWORKVERSION	QUANT	6.33	Framework Version
INSTRUMENTVERSION	LABEL	3.50	Instrument Version
COMPLIANCEVOLTAGE	IQUANT	0	Compliance Voltage
ZCURVE	TABLE
	Pt	Time	Freq	Zreal	Zimag	Zsig	Zmod	Zphz	Idc	Vdc	IERange
	#	s	Hz	ohm	ohm	V	ohm	°	A	V	#
	0	10	300046.9	2.455441	2.209145	1	3.302954	41.97752	-3.509114E-005	-0.0002687	11
	1	13	238359.4	2.41906	1.750316	1	2.985876	35.88771	8.520671E-005	-0.0002023	11
	2	16	189328.1	2.394663	1.392828	1	2.770267	30.18392	-0.0001341	8.681785E-005	11
	3	19	150421.9	2.429414	0.951078	1	2.608946	21.37957	-4.519833E-006	0.0002321	12
	4	23	119484.4	2.396096	0.7406799	1	2.507964	17.17739	-1.234732E-005	0.0003991	12
	5	26	94921.88	2.360772	0.647489	1	2.447956	15.33736	2.746945E-005	0.00058	11
	6	29	75421.88	2.368425	0.4154834	1	2.404592	9.94993	-4.095348E-005	0.0005635	12
	7	32	59859.37	2.363819	0.2872038	1	2.381203	6.927477	-1.034648E-005	0.000585	12
	8	36	47578.12	2.364203	0.1758735	1	2.370736	4.254406	-4.992121E-005	0.0005973	12
	9	39	37828.12	2.364518	0.0739117	1	2.365673	1.790407	-2.463022E-005	0.0006549	12
	10	43	30046.88	2.369713	-0.0221586	1	2.369817	-0.5357439	-6.135394E-005	0.0006331	12
	11	47	23859.38	2.373477	-0.0957836	1	2.375408	-2.310965	-3.25013E-005	0.0006807	11
	12	49	18984.38	2.380011	-0.2000551	1	2.388404	-4.80478	-4.303805E-005	0.0007022	11
	13	51	15046.87	2.3884	-0.3153301	1	2.409126	-7.521017	-4.646826E-005	0.0007059	11
	14	54	11953.13	2.399348	-0.4440445	1	2.440091	-10.48503	1.907558E-005	0.0007414	11
	15	56	9515.62	2.413021	-0.5917147	1	2.484512	-13.77805	-2.520441E-005	0.0007369	11
	16	58	7546.875	2.429372	-0.7698665	1	2.548439	-17.58338	-3.323026E-005	0.0006682	11
	17	61	5928.309	2.453103	-0.994207	1	2.646915	-22.062	-4.879516E-006	0.0006961	11
	18	63	4733.456	2.481233	-1.248587	1	2.777677	-26.71211	2.666018E-005	0.0007357	11
	19	65	3796.875	2.517426	-1.550871	1	2.956795	-31.63533	-1.504897E-005	0.0007108	11
	20	67	2987.132	2.565893	-1.955458	1	3.226085	-37.31089	2.779986E-005	0.0007323	11
	21	70	2390.625	2.626351	-2.414995	1	3.567902	-42.59931	1.306833E-005	0.0007187	11
	22	72	1884.191	2.709805	-3.025647	1	4.061722	-48.152	2.437293E-005	0.0006777	10
	23	74	1516.544	2.805057	-3.705434	1	4.647427	-52.87385	-2.206469E-005	0.0006929	10
	24	77	1193.986	2.93958	-4.62326	1	5.478655	-57.55082	2.306045E-005	0.0006725	10
	25	79	946.5144	3.105468	-5.728158	1	6.515806	-61.53607	-2.797678E-005	0.0006807	10
	26	81	751.7689	3.321249	-7.07281	1	7.813791	-64.84619	-7.336004E-006	0.0006733	10
	27	84	597.4265	3.591025	-8.720949	1	9.431353	-67.61961	2.105668E-005	0.000666	10
	28	86	477.4305	3.917621	-10.68796	1	11.38333	-69.86982	2.042224E-006	0.0006854	10
	29	88	376.6741	4.358752	-13.24187	1	13.9408	-71.7803	1.010153E-006	0.0006866	10
	30	91	298.2954	4.908233	-16.33898	1	17.06028	-73.27972	1.228006E-006	0.0006859	10
	31	93	237.7717	5.580277	-20.02461	1	20.78761	-74.42839	9.408409E-007	0.0006788	10
	32	96	189.0121	6.432634	-24.58882	1	25.41631	-75.33952	1.273927E-006	0.000685	10
	33	98	150.2404	7.503921	-30.16786	1	31.08711	-76.03178	1.167198E-006	0.000682	10
	34	100	119.1737	8.85486	-37.05528	1	38.09859	-76.56043	1.809389E-006	0.0006799	10
	35	103	95.0169	10.48171	-45.2149	1	46.41393	-76.94825	4.031638E-006	8.270294E-005	9
	36	105	75.60484	12.52374	-55.30924	1	56.7094	-77.24159	3.870705E-006	8.030607E-005	9
	37	108	54.50582	16.31169	-73.7433	1	75.52579	-77.52726	3.815567E-006	7.811088E-005	9
	38	110	45.95588	18.79953	-85.7047	1	87.74233	-77.62798	4.227001E-006	8.741535E-005	9
	39	113	37.20238	22.4713	-103.1756	1	105.5943	-77.71305	4.019751E-006	8.302303E-005	9
	40	115	30.04808	27.03377	-124.4827	1	127.3844	-77.7474	3.868072E-006	8.087116E-005	9
	41	117	23.91582	33.25847	-152.3363	1	155.9246	-77.68428	3.821722E-006	8.046236E-005	9
	42	120	18.60119	41.91923	-190.0292	1	194.5978	-77.56014	3.873279E-006	9.338385E-005	9
	43	122	15.02404	51.43245	-229.407	1	235.1018	-77.3634	4.072873E-006	8.564987E-005	9
	44	124	12.01923	64.4893	-279.3457	1	286.6931	-77.00053	3.874321E-006	8.180865E-005	9
	45	127	9.450605	83.30135	-345.3203	1	355.2256	-76.43769	3.846073E-006	8.670439E-005	9
	46	129	7.512019	107.4181	-420.8092	1	434.3029	-75.68017	3.323895E-006	0.0006524	8
	47	132	5.978954	140.7748	-512.838	1	531.8085	-74.6503	3.362781E-006	0.0006676	8
	48	135	4.734848	188.7467	-626.2082	1	654.0352	-73.22656	3.318935E-006	0.0006802	8
	49	138	3.75601	254.7748	-758.9922	1	800.6119	-71.44438	3.249673E-006	0.0006592	8
	50	142	3.004808	342.3903	-906.2745	1	968.795	-69.30344	3.156834E-006	0.0006905	8
	51	145	2.372217	470.8898	-1081.741	1	1179.788	-66.47615	3.178183E-006	0.0007287	8
	52	149	1.878005	640.0681	-1271.386	1	1423.414	-63.27742	2.98254E-006	0.0006502	8
	53	154	1.512097	839.5643	-1449.83	1	1675.373	-59.92582	2.990722E-006	0.000611	8
	54	160	1.201923	1110.771	-1631.417	1	1973.659	-55.75052	2.913463E-006	0.0006483	8
	55	166	0.956633	1427.045	-1785.421	1	2285.647	-51.36547	2.696002E-006	2.056603E-005	8
