EXPLAIN
TAG	EISPOT
TITLE	LABEL	Potentiostatic EIS	Test Identifier
DATE	LABEL	2/27/2021	Date
TIME	LABEL	14:18:55	Time
NOTES	NOTES	1	Notes...
	
PSTAT	PSTAT	REF3000-16137	Potentiostat
VDC	POTEN	0.00000E+000	T	DC Voltage (V)
FREQINIT	QUANT	3.00000E+005	Initial Freq. (Hz)
FREQFINAL	QUANT	1.00000E+000	Final Freq. (Hz)
PTSPERDEC	QUANT	1.00000E+001	Points/decade
VAC	QUANT	5.00000E+001	AC Voltage (mV rms)
AREA	QUANT	1.00000E+000	Sample Area (cm^2)
SPEED	SELECTOR	2	Optimize for:
ZGUESS	QUANT	1.00000E+003	Estimated Z (ohms)
EOC	QUANT	0	Open Circuit (V)
SEQUENCER	TOGGLE	TRUE	Run as Sequence
PSTATMODEL	IQUANT	5	Pstat Model
PSTATSECTION	LABEL	REF3000-16137	Pstat Section
PSTATSERIALNO	LABEL	16137	Pstat Serial Number
CTRLMODE	IQUANT	1	Control Mode
IESTAB	IQUANT	0	I/E Stability
CASPEED	IQUANT	1	Control Amp Speed
CONVENTION	IQUANT	1	Current Convention
ICHRANGE	IQUANT	2	Ich Range
ICHRANGEMODE	TOGGLE	F	Ich Auto Range
ICHOFFSETENABLE	TOGGLE	T	Ich Offset Enable
ICHOFFSET	QUANT	0	Ich Offset (V)
ICHFILTER	IQUANT	3	Ich Filter
VCHRANGE	IQUANT	2	Vch Range
VCHRANGEMODE	TOGGLE	F	Vch Auto Range
VCHOFFSETENABLE	TOGGLE	T	Vch Offset Enable
VCHOFFSET	QUANT	0	Vch Offset (V)
VCHFILTER	IQUANT	3	Vch Filter
ACHRANGE	IQUANT	2	Ach Range
ACHOFFSETENABLE	TOGGLE	F	Ach Offset Enable
ACHOFFSET	QUANT	0	Ach Offset (V)
ACHFILTER	IQUANT	3	Ach Filter
IERANGELOWERLIMIT	IQUANT	2	I/E Range Lower Limit
IERANGEMODE	TOGGLE	F	I/E AutoRange
IERANGE	IQUANT	11	I/E Range
POSFEEDENABLE	TOGGLE	F	Positive Feedback IR Comp
POSFEEDRESISTANCE	QUANT	0	Positive Feedback Resistance (ohm)
ACHSELECT	IQUANT	0	Ach Select
CABLEID	IQUANT	13	Cable ID
DCCALDATE	LABEL	7/31/2020	DC Calibration Date
ACCALDATE	LABEL	7/31/2020	AC Calibration Date
THERMOSELECT	IQUANT	1	Thermo Select
FRAMEWORKVERSION	QUANT	6.33	Framework Version
INSTRUMENTVERSION	LABEL	3.50	Instrument Version
COMPLIANCEVOLTAGE	IQUANT	0	Compliance Voltage
ZCURVE	TABLE
	Pt	Time	Freq	Zreal	Zimag	Zsig	Zmod	Zphz	Idc	Vdc	IERange
	#	s	Hz	ohm	ohm	V	ohm	°	A	V	#
	0	10	300046.9	3.597647	2.21733	1	4.226064	31.64668	4.285599E-005	4.513893E-005	10
	1	13	238359.4	3.571495	1.766445	1	3.984457	26.31678	9.346443E-006	-0.0003922	10
	2	16	189328.1	3.558666	1.400809	1	3.824444	21.48625	8.929546E-006	-8.416233E-005	10
	3	19	150421.9	3.54004	1.088199	1	3.70352	17.08729	-2.503612E-005	0.0001429	10
	4	21	119484.4	3.541037	0.8497096	1	3.641559	13.4936	-9.403339E-005	0.0003434	10
	5	24	94921.88	3.538674	0.6570245	1	3.599152	10.51831	4.474671E-005	0.0004101	10
	6	26	75421.88	3.540765	0.4862103	1	3.573992	7.818835	-5.582433E-007	0.0004984	10
	7	29	59859.37	3.543553	0.3391239	1	3.559743	5.466653	-8.14696E-006	0.0005608	10
	8	32	47578.12	3.54779	0.2114442	1	3.554085	3.410728	-6.121072E-007	0.0005906	10
	9	34	37828.12	3.552683	0.0963542	1	3.553989	1.553569	-7.53529E-006	0.0006032	10
	10	37	30046.88	3.560346	-0.0125441	1	3.560368	-0.2018679	2.436209E-005	0.0006396	10
	11	39	23859.38	3.569064	-0.1212313	1	3.571122	-1.945433	-2.555115E-005	0.0006443	10
	12	41	18984.38	3.578625	-0.2332351	1	3.586218	-3.728949	2.288793E-005	0.0006659	10
	13	44	15046.87	3.590406	-0.3569771	1	3.608109	-5.677987	-1.54754E-005	0.0007414	10
	14	46	11953.13	3.602741	-0.4961978	1	3.636751	-7.841888	1.041548E-005	0.0006641	10
	15	48	9515.62	3.619719	-0.6569796	1	3.678857	-10.28721	-1.712601E-005	0.000741	10
	16	51	7546.875	3.639013	-0.8519859	1	3.737418	-13.17706	2.154973E-005	0.0006895	10
	17	53	5928.309	3.664741	-1.098028	1	3.825701	-16.67924	-2.308332E-005	0.0006932	10
	18	55	4733.456	3.694907	-1.379058	1	3.943874	-20.46719	-2.339038E-005	0.0006936	10
	19	57	3796.875	3.731846	-1.714244	1	4.10674	-24.67194	-5.929751E-007	0.0007081	10
	20	60	2987.132	3.782912	-2.162149	1	4.357213	-29.75042	-2.135774E-005	0.0007255	10
	21	62	2390.625	3.843438	-2.676661	1	4.683644	-34.85426	-7.140937E-007	0.0007045	10
	22	64	1884.191	3.925625	-3.353649	1	5.163089	-40.50716	-1.427395E-005	0.0006913	10
	23	67	1516.544	4.022015	-4.113958	1	5.753369	-45.64746	-1.443251E-005	0.0006969	10
	24	69	1193.986	4.158649	-5.144011	1	6.614773	-51.04637	2.055196E-005	0.0006738	10
	25	71	946.5144	4.329768	-6.385763	1	7.715236	-55.86137	1.307506E-006	0.0006756	10
	26	74	751.7689	4.547203	-7.905728	1	9.120174	-60.09343	2.164767E-005	0.0006806	10
	27	76	597.4265	4.824008	-9.77209	1	10.89793	-63.72668	2.106279E-005	0.0006741	10
	28	78	477.4305	5.165407	-12.00346	1	13.06769	-66.71651	-2.309008E-006	0.0006856	10
	29	81	376.6741	5.625739	-14.90585	1	15.93215	-69.32258	-2.125875E-006	0.0006867	10
	30	83	298.2954	6.200854	-18.43235	1	19.44742	-71.40647	-1.960122E-006	0.0006913	10
	31	85	237.7717	6.905106	-22.63897	1	23.66861	-73.03778	-1.979716E-006	0.0006847	10
	32	88	189.0121	7.800375	-27.85943	1	28.93084	-74.35825	-1.455087E-006	0.0006856	10
	33	90	150.2404	8.922197	-34.25376	1	35.39669	-75.40038	-1.807172E-006	0.0006885	10
	34	93	119.1737	10.33028	-42.12077	1	43.36905	-76.21999	1.94892E-006	8.862824E-005	9
	35	95	95.0169	12.06219	-51.57515	1	52.9669	-76.83649	1.770934E-006	8.634746E-005	9
	36	97	75.60484	14.2328	-63.22651	1	64.80867	-77.31372	1.793682E-006	7.709495E-005	9
	37	100	54.50582	18.26525	-84.53078	1	86.48163	-77.80709	1.680488E-006	7.803214E-005	9
	38	103	45.95588	20.915	-98.3484	1	100.5478	-77.99421	1.980072E-006	8.715736E-005	9
	39	105	37.20238	24.77891	-118.4952	1	121.0583	-78.1889	1.894534E-006	8.951672E-005	9
	40	107	30.04808	29.51312	-143.1352	1	146.1462	-78.34943	1.78009E-006	8.419136E-005	9
	41	110	23.91582	35.70085	-175.1624	1	178.7636	-78.48001	1.771732E-006	8.41966E-005	9
	42	112	18.60119	44.09718	-218.5942	1	222.9977	-78.59475	1.784779E-006	8.779819E-005	9
	43	114	15.02404	52.94651	-263.9199	1	269.1785	-78.65614	1.960675E-006	8.921723E-005	9
	44	117	12.01923	64.36873	-321.6382	1	328.0159	-78.68303	1.84093E-006	9.197788E-005	9
	45	119	9.450605	79.72231	-398.2684	1	406.1691	-78.68057	1.907001E-006	9.230983E-005	9
	46	122	7.512019	97.7821	-485.9835	1	495.723	-78.62372	1.270115E-006	0.0006474	8
	47	124	5.978954	121.0057	-595.1657	1	607.3422	-78.50759	1.291144E-006	0.0006687	8
	48	127	4.734848	151.4294	-733.0126	1	748.4907	-78.32775	1.248572E-006	0.0006495	8
	49	130	3.75601	191.6575	-900.7119	1	920.877	-77.98751	1.319717E-006	0.0006744	8
	50	134	3.004808	243.1542	-1097.865	1	1124.47	-77.51177	1.250003E-006	0.0007029	8
	51	138	2.372217	316.116	-1353.859	1	1390.275	-76.85733	1.225069E-006	0.0007279	8
	52	142	1.878005	417.4948	-1662.453	1	1714.074	-75.90274	1.230228E-006	0.0006367	8
	53	147	1.512097	546.2107	-2004.327	1	2077.419	-74.75616	1.247956E-006	0.0007379	8
	54	152	1.201923	731.1738	-2444.705	1	2551.704	-73.34888	1.221494E-006	0.0006321	8
	55	158	0.956633	987.223	-2957.515	1	3117.932	-71.54091	1.143141E-006	2.297588E-005	8
