EXPLAIN
TAG	EISPOT
TITLE	LABEL	Potentiostatic EIS	Test Identifier
DATE	LABEL	2/27/2021	Date
TIME	LABEL	14:49:30	Time
NOTES	NOTES	1	Notes...
	
PSTAT	PSTAT	REF3000-16137	Potentiostat
VDC	POTEN	0.00000E+000	T	DC Voltage (V)
FREQINIT	QUANT	3.00000E+005	Initial Freq. (Hz)
FREQFINAL	QUANT	1.00000E+000	Final Freq. (Hz)
PTSPERDEC	QUANT	1.00000E+001	Points/decade
VAC	QUANT	5.00000E+001	AC Voltage (mV rms)
AREA	QUANT	1.00000E+000	Sample Area (cm^2)
SPEED	SELECTOR	2	Optimize for:
ZGUESS	QUANT	1.00000E+003	Estimated Z (ohms)
EOC	QUANT	0	Open Circuit (V)
SEQUENCER	TOGGLE	TRUE	Run as Sequence
PSTATMODEL	IQUANT	5	Pstat Model
PSTATSECTION	LABEL	REF3000-16137	Pstat Section
PSTATSERIALNO	LABEL	16137	Pstat Serial Number
CTRLMODE	IQUANT	1	Control Mode
IESTAB	IQUANT	0	I/E Stability
CASPEED	IQUANT	1	Control Amp Speed
CONVENTION	IQUANT	1	Current Convention
ICHRANGE	IQUANT	2	Ich Range
ICHRANGEMODE	TOGGLE	F	Ich Auto Range
ICHOFFSETENABLE	TOGGLE	T	Ich Offset Enable
ICHOFFSET	QUANT	0	Ich Offset (V)
ICHFILTER	IQUANT	3	Ich Filter
VCHRANGE	IQUANT	2	Vch Range
VCHRANGEMODE	TOGGLE	F	Vch Auto Range
VCHOFFSETENABLE	TOGGLE	T	Vch Offset Enable
VCHOFFSET	QUANT	0	Vch Offset (V)
VCHFILTER	IQUANT	3	Vch Filter
ACHRANGE	IQUANT	2	Ach Range
ACHOFFSETENABLE	TOGGLE	F	Ach Offset Enable
ACHOFFSET	QUANT	0	Ach Offset (V)
ACHFILTER	IQUANT	3	Ach Filter
IERANGELOWERLIMIT	IQUANT	2	I/E Range Lower Limit
IERANGEMODE	TOGGLE	F	I/E AutoRange
IERANGE	IQUANT	11	I/E Range
POSFEEDENABLE	TOGGLE	F	Positive Feedback IR Comp
POSFEEDRESISTANCE	QUANT	0	Positive Feedback Resistance (ohm)
ACHSELECT	IQUANT	0	Ach Select
CABLEID	IQUANT	13	Cable ID
DCCALDATE	LABEL	7/31/2020	DC Calibration Date
ACCALDATE	LABEL	7/31/2020	AC Calibration Date
THERMOSELECT	IQUANT	1	Thermo Select
FRAMEWORKVERSION	QUANT	6.33	Framework Version
INSTRUMENTVERSION	LABEL	3.50	Instrument Version
COMPLIANCEVOLTAGE	IQUANT	0	Compliance Voltage
ZCURVE	TABLE
	Pt	Time	Freq	Zreal	Zimag	Zsig	Zmod	Zphz	Idc	Vdc	IERange
	#	s	Hz	ohm	ohm	V	ohm	°	A	V	#
	0	8	300046.9	11.41339	2.127915	1	11.61006	10.56098	-8.135322E-006	9.005911E-005	10
	1	11	238359.4	11.40042	1.681886	1	11.52381	8.392223	-1.617588E-005	0.0002377	10
	2	14	189328.1	11.41331	1.324422	1	11.4899	6.619106	2.294156E-006	0.0004547	10
	3	16	150421.9	11.42442	1.044376	1	11.47206	5.223236	1.818719E-005	0.0005017	10
	4	19	119484.4	11.45121	0.791634	1	11.47854	3.954625	7.362394E-005	0.0003747	10
	5	23	94921.88	11.48782	0.6168473	1	11.50437	3.073588	1.278262E-005	0.0005788	10
	6	25	75421.88	11.51157	0.4384003	1	11.51991	2.180968	2.288578E-005	0.0005973	10
	7	28	59859.37	11.54356	0.2867664	1	11.54712	1.423056	-1.131931E-005	0.00065	10
	8	30	47578.12	11.57765	0.1553058	1	11.57869	0.7685356	7.144417E-006	0.0007027	10
	9	33	37828.12	11.60912	0.0373849	1	11.60918	0.1845091	-2.308673E-005	0.0006682	10
	10	35	30046.88	11.64397	-0.0780643	1	11.64423	-0.3841209	-2.418104E-006	0.0007211	10
	11	38	23859.38	11.67917	-0.194728	1	11.6808	-0.95521	1.747638E-005	0.0007082	10
	12	40	18984.38	11.71372	-0.3195335	1	11.71807	-1.56256	2.509607E-005	0.0006604	10
	13	42	15046.87	11.74985	-0.4599963	1	11.75885	-2.241935	5.175049E-006	0.0006382	10
	14	45	11953.13	11.78934	-0.6190134	1	11.80558	-3.005625	-2.510375E-005	0.0007292	10
	15	47	9515.62	11.8301	-0.8060667	1	11.85753	-3.897932	1.262211E-005	0.0006586	10
	16	49	7546.875	11.87707	-1.034119	1	11.92201	-4.976109	-1.769029E-005	0.0006784	10
	17	51	5928.309	11.92882	-1.324602	1	12.00213	-6.336293	1.885518E-005	0.0006471	10
	18	54	4733.456	11.98595	-1.656041	1	12.09981	-7.86648	-2.646068E-005	0.0007082	10
	19	56	3796.875	12.04874	-2.05478	1	12.2227	-9.67806	1.377592E-005	0.0006609	10
	20	58	2987.132	12.12562	-2.588965	1	12.39893	-12.05236	-2.598571E-005	0.0007096	10
	21	61	2390.625	12.21117	-3.202252	1	12.62406	-14.69435	1.108238E-005	0.0006322	10
	22	63	1884.191	12.31792	-4.023989	1	12.95853	-18.09106	-1.475224E-005	0.0007068	10
	23	65	1516.544	12.43974	-4.939453	1	13.38452	-21.65657	-1.804336E-005	0.0006836	10
	24	68	1193.986	12.59951	-6.191442	1	14.03858	-26.16966	2.278031E-005	0.0006819	10
	25	70	946.5144	12.79192	-7.710447	1	14.93601	-31.07985	-3.11009E-005	0.0006796	10
	26	72	751.7689	13.0312	-9.5658	1	16.16529	-36.28125	-2.728245E-005	0.0006991	10
	27	75	597.4265	13.3301	-11.85833	1	17.84129	-41.65596	-2.557085E-005	0.0006918	10
	28	77	477.4305	13.6943	-14.62014	1	20.03203	-46.87282	-2.180609E-006	0.0006845	10
	29	79	376.6741	14.17837	-18.23041	1	23.09489	-52.12666	-4.671771E-006	0.0007232	10
	30	82	298.2954	14.78335	-22.63746	1	27.03705	-56.85353	-2.243142E-006	0.0006892	10
	31	84	237.7717	15.53249	-27.93084	1	31.95919	-60.92134	-2.300991E-006	0.0006915	10
	32	86	189.0121	16.48769	-34.52417	1	38.25915	-64.47228	-2.383624E-006	0.0006896	10
	33	89	150.2404	17.67421	-42.59463	1	46.11594	-67.46449	1.332602E-006	8.842931E-005	9
	34	91	119.1737	19.21877	-52.68039	1	56.07659	-69.9571	1.325145E-006	8.755376E-005	9
	35	93	95.0169	21.12224	-64.79721	1	68.15297	-71.94535	1.281864E-006	8.483493E-005	9
	36	96	75.60484	23.53454	-79.79372	1	83.19202	-73.56699	1.30294E-006	8.193088E-005	9
	37	99	54.50582	28.0729	-107.3724	1	110.9816	-75.3478	1.115692E-006	0.0001154	9
	38	101	45.95588	31.08639	-125.2713	1	129.0708	-76.06343	1.242086E-006	0.0001	9
	39	103	37.20238	35.56562	-151.584	1	155.7005	-76.79573	1.400043E-006	8.433135E-005	9
	40	106	30.04808	41.12854	-183.6904	1	188.2385	-77.37954	1.414558E-006	8.302595E-005	9
	41	108	23.91582	48.4975	-225.5432	1	230.6983	-77.86473	1.33083E-006	8.933727E-005	9
	42	111	18.60119	58.56531	-282.3565	1	288.3663	-78.28208	1.359812E-006	0.0000956	9
	43	113	15.02404	69.35927	-341.7762	1	348.743	-78.52832	1.499472E-006	0.0000961	9
	44	115	12.01923	83.07716	-416.9815	1	425.1769	-78.73224	1.532359E-006	9.378756E-005	9
	45	117	9.450605	100.6096	-514.3267	1	524.0746	-78.93189	6.773666E-007	0.0006581	8
	46	120	7.512019	121.8518	-630.3505	1	642.02	-79.05921	6.872392E-007	0.0006841	8
	47	123	5.978954	147.429	-772.0411	1	785.9916	-79.18896	6.375838E-007	0.000661	8
	48	126	4.734848	179.2221	-950.308	1	967.061	-79.31982	7.01438E-007	0.0006849	8
	49	129	3.75601	218.1916	-1167.359	1	1187.575	-79.41298	6.199679E-007	0.0006613	8
	50	132	3.004808	264.1265	-1423.095	1	1447.399	-79.48554	6.779096E-007	0.0006376	8
	51	136	2.372217	322.6216	-1755.862	1	1785.255	-79.58862	6.572675E-007	0.0006117	8
	52	140	1.878005	397.8324	-2163.193	1	2199.471	-79.57919	6.500261E-007	0.000677	8
	53	145	1.512097	483.7226	-2623.089	1	2667.318	-79.5515	6.396889E-007	0.0005746	8
	54	150	1.201923	590.2042	-3225.638	1	3279.189	-79.63113	6.617874E-007	0.0006905	8
	55	157	0.956633	723.402	-3958.728	1	4024.281	-79.64426	6.373418E-007	2.34872E-005	8
