EXPLAIN
TAG	EISPOT
TITLE	LABEL	Potentiostatic EIS	Test Identifier
DATE	LABEL	2/27/2021	Date
TIME	LABEL	15:57:05	Time
NOTES	NOTES	1	Notes...
	
PSTAT	PSTAT	REF3000-16137	Potentiostat
VDC	POTEN	0.00000E+000	T	DC Voltage (V)
FREQINIT	QUANT	3.00000E+005	Initial Freq. (Hz)
FREQFINAL	QUANT	1.00000E+000	Final Freq. (Hz)
PTSPERDEC	QUANT	1.00000E+001	Points/decade
VAC	QUANT	5.00000E+001	AC Voltage (mV rms)
AREA	QUANT	1.00000E+000	Sample Area (cm^2)
SPEED	SELECTOR	2	Optimize for:
ZGUESS	QUANT	1.00000E+003	Estimated Z (ohms)
EOC	QUANT	0	Open Circuit (V)
SEQUENCER	TOGGLE	TRUE	Run as Sequence
PSTATMODEL	IQUANT	5	Pstat Model
PSTATSECTION	LABEL	REF3000-16137	Pstat Section
PSTATSERIALNO	LABEL	16137	Pstat Serial Number
CTRLMODE	IQUANT	1	Control Mode
IESTAB	IQUANT	0	I/E Stability
CASPEED	IQUANT	1	Control Amp Speed
CONVENTION	IQUANT	1	Current Convention
ICHRANGE	IQUANT	2	Ich Range
ICHRANGEMODE	TOGGLE	F	Ich Auto Range
ICHOFFSETENABLE	TOGGLE	T	Ich Offset Enable
ICHOFFSET	QUANT	0	Ich Offset (V)
ICHFILTER	IQUANT	3	Ich Filter
VCHRANGE	IQUANT	2	Vch Range
VCHRANGEMODE	TOGGLE	F	Vch Auto Range
VCHOFFSETENABLE	TOGGLE	T	Vch Offset Enable
VCHOFFSET	QUANT	0	Vch Offset (V)
VCHFILTER	IQUANT	3	Vch Filter
ACHRANGE	IQUANT	2	Ach Range
ACHOFFSETENABLE	TOGGLE	F	Ach Offset Enable
ACHOFFSET	QUANT	0	Ach Offset (V)
ACHFILTER	IQUANT	3	Ach Filter
IERANGELOWERLIMIT	IQUANT	2	I/E Range Lower Limit
IERANGEMODE	TOGGLE	F	I/E AutoRange
IERANGE	IQUANT	11	I/E Range
POSFEEDENABLE	TOGGLE	F	Positive Feedback IR Comp
POSFEEDRESISTANCE	QUANT	0	Positive Feedback Resistance (ohm)
ACHSELECT	IQUANT	0	Ach Select
CABLEID	IQUANT	13	Cable ID
DCCALDATE	LABEL	7/31/2020	DC Calibration Date
ACCALDATE	LABEL	7/31/2020	AC Calibration Date
THERMOSELECT	IQUANT	1	Thermo Select
FRAMEWORKVERSION	QUANT	6.33	Framework Version
INSTRUMENTVERSION	LABEL	3.50	Instrument Version
COMPLIANCEVOLTAGE	IQUANT	0	Compliance Voltage
ZCURVE	TABLE
	Pt	Time	Freq	Zreal	Zimag	Zsig	Zmod	Zphz	Idc	Vdc	IERange
	#	s	Hz	ohm	ohm	V	ohm	°	A	V	#
	0	14	300046.9	59.70277	-4404.468	1	4404.873	-89.2234	5.354262E-005	4.579685E-005	9
	1	28	238359.4	147.714	-5379.886	1	5381.913	-88.42724	7.77022E-005	-0.001619	9
	2	43	189328.1	121.5124	-6888.167	1	6889.239	-88.98936	-3.007636E-007	0.0016398	9
	3	51	150421.9	1606.035	-8457.788	1	8608.922	-79.24821	-1.427568E-005	0.0018479	9
	4	58	119484.4	909.0278	-10367.79	1	10407.57	-84.98923	-4.094851E-005	0.0225764	8
	5	66	94921.88	1099.252	-13031.06	1	13077.34	-85.17815	-9.654535E-006	-0.0019891	8
	6	74	75421.88	1345.197	-16016.85	1	16073.24	-85.1992	1.755809E-005	0.000241	8
	7	83	59859.37	1513.106	-20051.76	1	20108.77	-85.68464	-1.751537E-006	0.0077124	8
	8	91	47578.12	4920.046	-26316.34	1	26772.31	-79.41035	6.547972E-006	-0.0103076	7
	9	98	37828.12	2830.116	-31339.54	1	31467.07	-84.8399	7.906543E-006	-0.0075604	8
	10	106	30046.88	6750.728	-39994.31	1	40560.04	-80.41923	6.552352E-006	-0.0104057	7
	11	114	23859.38	3915.461	-49293.85	1	49449.11	-85.45847	1.756131E-005	0.0003216	8
	12	120	18984.38	9344.876	-61374.23	1	62081.58	-81.34261	-1.072683E-006	-0.0127854	7
	13	126	15046.87	12373.26	-77399.78	1	78382.55	-80.91745	-3.635134E-006	0.0249075	7
	14	131	11953.13	14316.52	-93936.02	1	95020.7	-81.3344	-3.480655E-006	-0.0046457	7
	15	137	9515.62	17508.75	-118152	1	119442.3	-81.57078	-6.68951E-006	0.0120014	7
	16	143	7546.875	21997.32	-147078.9	1	148714.8	-81.49381	-6.459152E-006	0.0260067	7
	17	148	5928.309	39759.39	-208434.1	1	212192.3	-79.20041	1.221741E-006	-0.0194002	7
	18	154	4733.456	70534.4	-232739.2	1	243192.6	-73.13994	6.062401E-007	-0.0074005	6
	19	159	3796.875	87747.74	-282244.1	1	295569.6	-72.72989	-6.398254E-007	0.0101639	6
	20	164	2987.132	105963.9	-347295.3	1	363101.1	-73.03243	7.116166E-007	-0.0266863	6
	21	169	2390.625	134765.4	-423246.7	1	444184.1	-72.33807	-6.671762E-007	0.0261018	6
	22	175	1884.191	174558.8	-525319.9	1	553562.8	-71.61884	-2.007669E-007	0.0218376	6
	23	180	1516.544	247563.5	-629359.1	1	676299.2	-68.5274	-7.358794E-007	0.0231021	6
	24	185	1193.986	304724.8	-762220.8	1	820876.2	-68.20918	2.258047E-007	0.0099079	6
	25	191	946.5144	369020.5	-920634.9	1	991839	-68.15748	-4.852711E-007	0.0015192	6
	26	196	751.7689	1090805	-559386.1	1	1225874	-27.14964	-3.597704E-006	0.0249486	7
	27	202	597.4265	930616.8	-102044.5	1	936194.8	-6.257628	2.894978E-006	0.0078777	7
	28	207	477.4305	871660.7	-1458677	1	1699273	-59.13875	-7.316284E-008	0.000663	7
	29	211	376.6741	1372194	-1578346	1	2091433	-48.99672	-8.932962E-010	0.0007038	5
	30	214	298.2954	1686224	-1739149	1	2422393	-45.8852	-7.637754E-010	0.000626	5
	31	217	237.7717	1841801	-1991485	1	2712608	-47.23617	-7.591887E-009	0.0007362	6
	32	221	189.0121	2258786	-2106395	1	3088529	-43.00059	-6.628694E-009	0.0006613	6
	33	225	150.2404	2696837	-2148665	1	3448144	-38.54557	-6.992782E-009	0.0006389	6
	34	229	119.1737	3149333	-2231007	1	3859493	-35.31399	-8.977392E-010	0.00064	5
	35	232	95.0169	3759825	-2111442	1	4312130	-29.31769	-8.80771E-010	0.000641	5
	36	236	75.60484	4116114	-2163386	1	4650014	-27.72593	-7.532243E-010	0.0006955	5
	37	240	54.50582	4817499	-1885690	1	5173405	-21.37663	-8.093565E-010	0.0007132	5
	38	245	45.95588	5455312	-1174334	1	5580276	-12.14835	-5.662599E-011	0.0006601	4
	39	247	37.20238	5884725	-1089781	1	5984782	-10.49164	-1.674807E-010	0.0007329	4
	40	250	30.04808	5948754	-1028927	1	6037082	-9.81308	-1.343912E-010	0.0006365	4
	41	253	23.91582	6162737	-866188.9	1	6223312	-8.000664	-1.327431E-010	0.0007221	4
	42	256	18.60119	6175635	-1071567	1	6267912	-9.84368	-3.456777E-010	0.0007281	4
	43	258	15.02404	6593300	-720921.1	1	6632596	-6.240016	-1.119155E-010	0.0006593	4
	44	260	12.01923	6732353	-625479	1	6761346	-5.30791	-1.25865E-010	0.0007324	4
	45	263	9.450605	6931649	-563629.9	1	6954526	-4.648638	-1.060993E-010	0.0007221	4
	46	266	7.512019	7139577	-507809.1	1	7157613	-4.068365	-8.018621E-011	0.0006705	4
	47	269	5.978954	7406354	-398303.1	1	7417056	-3.07832	-5.791599E-011	0.0006658	4
	48	273	4.734848	7639153	-384753.7	1	7648836	-2.883324	-9.804869E-011	0.0007275	4
	49	278	3.75601	7921484	-361183.7	1	7929714	-2.61062	-1.1267E-010	0.0006894	4
	50	283	3.004808	8320472	-292767.9	1	8325621	-2.015204	-8.172413E-011	0.0007388	4
	51	290	2.372217	8687412	-276664.4	1	8691816	-1.824058	-9.719222E-011	0.0006709	4
	52	294	1.878005	8999292	-244675	1	9002618	-1.557388	-9.670611E-011	0.0006584	4
	53	299	1.512097	9358321	-216754.5	1	9360831	-1.326829	-8.614157E-011	0.0007729	4
	54	304	1.201923	9.789576E+006	-205081.7	1	9.791724E+006	-1.200113	-9.78233E-011	0.0006549	4
	55	310	0.956633	1.027484E+007	-194456.8	1	1.027668E+007	-1.084224	-1.577415E-010	1.752132E-005	4
