EXPLAIN
TAG	EISPOT
TITLE	LABEL	Potentiostatic EIS	Test Identifier
DATE	LABEL	2/27/2021	Date
TIME	LABEL	15:25:39	Time
NOTES	NOTES	1	Notes...
	
PSTAT	PSTAT	REF3000-16137	Potentiostat
VDC	POTEN	0.00000E+000	T	DC Voltage (V)
FREQINIT	QUANT	3.00000E+005	Initial Freq. (Hz)
FREQFINAL	QUANT	1.00000E+000	Final Freq. (Hz)
PTSPERDEC	QUANT	1.00000E+001	Points/decade
VAC	QUANT	5.00000E+001	AC Voltage (mV rms)
AREA	QUANT	1.00000E+000	Sample Area (cm^2)
SPEED	SELECTOR	2	Optimize for:
ZGUESS	QUANT	1.00000E+003	Estimated Z (ohms)
EOC	QUANT	0	Open Circuit (V)
SEQUENCER	TOGGLE	TRUE	Run as Sequence
PSTATMODEL	IQUANT	5	Pstat Model
PSTATSECTION	LABEL	REF3000-16137	Pstat Section
PSTATSERIALNO	LABEL	16137	Pstat Serial Number
CTRLMODE	IQUANT	1	Control Mode
IESTAB	IQUANT	0	I/E Stability
CASPEED	IQUANT	1	Control Amp Speed
CONVENTION	IQUANT	1	Current Convention
ICHRANGE	IQUANT	2	Ich Range
ICHRANGEMODE	TOGGLE	F	Ich Auto Range
ICHOFFSETENABLE	TOGGLE	T	Ich Offset Enable
ICHOFFSET	QUANT	0	Ich Offset (V)
ICHFILTER	IQUANT	3	Ich Filter
VCHRANGE	IQUANT	2	Vch Range
VCHRANGEMODE	TOGGLE	F	Vch Auto Range
VCHOFFSETENABLE	TOGGLE	T	Vch Offset Enable
VCHOFFSET	QUANT	0	Vch Offset (V)
VCHFILTER	IQUANT	3	Vch Filter
ACHRANGE	IQUANT	2	Ach Range
ACHOFFSETENABLE	TOGGLE	F	Ach Offset Enable
ACHOFFSET	QUANT	0	Ach Offset (V)
ACHFILTER	IQUANT	3	Ach Filter
IERANGELOWERLIMIT	IQUANT	2	I/E Range Lower Limit
IERANGEMODE	TOGGLE	F	I/E AutoRange
IERANGE	IQUANT	11	I/E Range
POSFEEDENABLE	TOGGLE	F	Positive Feedback IR Comp
POSFEEDRESISTANCE	QUANT	0	Positive Feedback Resistance (ohm)
ACHSELECT	IQUANT	0	Ach Select
CABLEID	IQUANT	13	Cable ID
DCCALDATE	LABEL	7/31/2020	DC Calibration Date
ACCALDATE	LABEL	7/31/2020	AC Calibration Date
THERMOSELECT	IQUANT	1	Thermo Select
FRAMEWORKVERSION	QUANT	6.33	Framework Version
INSTRUMENTVERSION	LABEL	3.50	Instrument Version
COMPLIANCEVOLTAGE	IQUANT	0	Compliance Voltage
ZCURVE	TABLE
	Pt	Time	Freq	Zreal	Zimag	Zsig	Zmod	Zphz	Idc	Vdc	IERange
	#	s	Hz	ohm	ohm	V	ohm	°	A	V	#
	0	17	300046.9	408.6689	-62.28381	1	413.3879	-8.665566	3.600306E-006	0.0012303	9
	1	21	238359.4	420.1393	-53.98765	1	423.5938	-7.322347	-8.8135E-005	0.0021545	9
	2	28	189328.1	433.0843	-47.82718	1	435.7171	-6.301861	8.417775E-005	-0.0024262	9
	3	34	150421.9	442.1161	-41.94028	1	444.101	-5.419009	1.770703E-005	-0.0008197	9
	4	43	119484.4	456.6571	-21.3559	1	457.1562	-2.677528	4.747533E-006	-0.0059292	8
	5	49	94921.88	463.763	-15.45119	1	464.0203	-1.908217	7.957771E-006	-0.0045998	8
	6	51	75421.88	467.5373	-14.86469	1	467.7736	-1.821025	7.484834E-006	-0.0046765	8
	7	54	59859.37	471.2187	-12.9593	1	471.3969	-1.575332	-9.299879E-006	0.0062924	8
	8	56	47578.12	475.5499	-10.38686	1	475.6633	-1.251243	1.471475E-005	-0.0052129	8
	9	59	37828.12	478.8131	-6.538888	1	478.8578	-0.7824083	8.403813E-006	-0.0045249	8
	10	62	30046.88	481.7997	-8.464433	1	481.874	-1.00649	-1.372706E-005	0.0031991	8
	11	64	23859.38	486.1179	-6.561658	1	486.1622	-0.7733361	-8.312267E-007	0.0046142	8
	12	66	18984.38	489.7069	-5.590935	1	489.7388	-0.6541118	-1.25483E-005	0.0065355	8
	13	69	15046.87	492.2783	-5.518971	1	492.3092	-0.6423207	1.812404E-006	0.0037595	8
	14	71	11953.13	497.2721	-4.868079	1	497.2959	-0.560883	1.281179E-005	-0.0006344	8
	15	73	9515.62	499.9994	-4.078142	1	500.016	-0.4673109	-3.341471E-006	-0.0017071	8
	16	76	7546.875	502.5137	-5.082063	1	502.5394	-0.5794287	1.640117E-005	-0.0030245	8
	17	78	5928.309	505.3571	-3.380858	1	505.3684	-0.3833053	1.468295E-005	-0.0051212	8
	18	80	4733.456	510.0513	-3.846332	1	510.0658	-0.4320632	-1.146346E-005	0.0017619	8
	19	83	3796.875	514.0919	-2.894876	1	514.1	-0.3226319	-1.448467E-005	0.0049201	8
	20	85	2987.132	515.8591	-5.388608	1	515.8873	-0.5984836	1.667259E-005	-0.0035722	8
	21	88	2390.625	520.551	-5.323276	1	520.5782	-0.5858996	2.457883E-006	-0.0035064	8
	22	90	1884.191	523.4302	-8.211087	1	523.4946	-0.8987293	-2.805538E-006	-0.0020015	8
	23	92	1516.544	527.6839	-7.035627	1	527.7308	-0.7638813	7.248115E-006	0.0019138	8
	24	95	1193.986	531.2858	-9.89069	1	531.3779	-1.066525	1.208976E-005	-0.0053323	8
	25	97	946.5144	534.9647	-12.2231	1	535.1044	-1.308891	2.464968E-006	-0.0036339	8
	26	99	751.7689	538.7633	-13.86076	1	538.9416	-1.473723	1.671905E-005	-0.003539	8
	27	102	597.4265	542.0052	-17.1936	1	542.2778	-1.81694	-1.550852E-005	0.0053985	8
	28	104	477.4305	546.3298	-22.215	1	546.7812	-2.328493	2.804058E-008	0.0006487	8
	29	108	376.6741	551.952	-27.57471	1	552.6403	-2.860035	-1.925626E-008	0.0006718	8
	30	110	298.2954	556.1815	-34.16932	1	557.2302	-3.515579	2.252734E-009	0.0006718	8
	31	112	237.7717	560.7139	-42.17316	1	562.2977	-4.301308	-2.041883E-008	0.0006797	8
	32	115	189.0121	565.4437	-52.23104	1	567.8509	-5.277537	1.949946E-008	0.0006575	8
	33	117	150.2404	570.4909	-64.71152	1	574.1494	-6.471474	-9.950945E-009	0.0006717	8
	34	119	119.1737	575.8993	-80.39547	1	581.4838	-7.947124	-3.994479E-009	0.000664	8
	35	122	95.0169	581.7264	-99.4141	1	590.1599	-9.69787	1.633049E-008	0.0006571	8
	36	124	75.60484	588.2953	-123.1773	1	601.0524	-11.82576	3.890936E-009	0.0006473	8
	37	127	54.50582	597.2742	-167.3778	1	620.2837	-15.65479	3.299643E-009	0.0006438	8
	38	129	45.95588	604.5175	-196.4405	1	635.6337	-18.00179	3.944347E-008	0.0006635	8
	39	132	37.20238	613.3187	-239.4092	1	658.3894	-21.32321	-4.759454E-008	0.000669	8
	40	134	30.04808	623.7126	-292.2504	1	688.7871	-25.10618	-3.372504E-008	0.0006752	8
	41	136	23.91582	636.3848	-361.4282	1	731.8578	-29.59397	-3.630794E-008	0.0006469	8
	42	139	18.60119	652.4592	-456.4636	1	796.2801	-34.97682	3.930293E-008	0.0006576	8
	43	141	15.02404	669.7691	-556.0325	1	870.4957	-39.69896	1.440937E-008	0.000661	8
	44	143	12.01923	691.5633	-683.2137	1	972.132	-44.65202	5.06571E-008	0.0006592	8
	45	146	9.450605	719.6184	-852.5628	1	1115.667	-49.83346	3.959781E-008	0.0006505	8
	46	148	7.512019	752.637	-1052.603	1	1294	-54.43431	1.68456E-008	0.0006821	8
	47	151	5.978954	794.1379	-1297.626	1	1521.345	-58.53367	-3.712324E-008	0.0006895	8
	48	154	4.734848	846.1713	-1608.217	1	1817.242	-62.24868	3.193971E-008	0.0006775	8
	49	157	3.75601	911.3096	-1987.17	1	2186.167	-65.36396	-3.883922E-008	0.0006619	8
	50	161	3.004808	989.406	-2434.059	1	2627.464	-67.87905	-2.371316E-008	0.0006448	8
	51	164	2.372217	1093.062	-3020.887	1	3212.56	-70.10812	-1.752638E-008	0.0005932	8
	52	169	1.878005	1219.682	-3734.233	1	3928.373	-71.91183	-8.037903E-009	0.0006706	8
	53	173	1.512097	1373.454	-4545.297	1	4748.274	-73.18674	-2.570276E-008	0.000571	7
	54	179	1.201923	1563.133	-5612.063	1	5825.687	-74.43583	-1.206598E-008	0.0006635	7
	55	185	0.956633	1801.808	-6901.547	1	7132.872	-75.36821	-2.62439E-008	-8.598699E-006	7
