EXPLAIN
TAG	EISPOT
TITLE	LABEL	Potentiostatic EIS	Test Identifier
DATE	LABEL	2/27/2021	Date
TIME	LABEL	15:22:38	Time
NOTES	NOTES	1	Notes...
	
PSTAT	PSTAT	REF3000-16137	Potentiostat
VDC	POTEN	0.00000E+000	T	DC Voltage (V)
FREQINIT	QUANT	3.00000E+005	Initial Freq. (Hz)
FREQFINAL	QUANT	1.00000E+000	Final Freq. (Hz)
PTSPERDEC	QUANT	1.00000E+001	Points/decade
VAC	QUANT	5.00000E+001	AC Voltage (mV rms)
AREA	QUANT	1.00000E+000	Sample Area (cm^2)
SPEED	SELECTOR	2	Optimize for:
ZGUESS	QUANT	1.00000E+003	Estimated Z (ohms)
EOC	QUANT	0	Open Circuit (V)
SEQUENCER	TOGGLE	TRUE	Run as Sequence
PSTATMODEL	IQUANT	5	Pstat Model
PSTATSECTION	LABEL	REF3000-16137	Pstat Section
PSTATSERIALNO	LABEL	16137	Pstat Serial Number
CTRLMODE	IQUANT	1	Control Mode
IESTAB	IQUANT	0	I/E Stability
CASPEED	IQUANT	1	Control Amp Speed
CONVENTION	IQUANT	1	Current Convention
ICHRANGE	IQUANT	2	Ich Range
ICHRANGEMODE	TOGGLE	F	Ich Auto Range
ICHOFFSETENABLE	TOGGLE	T	Ich Offset Enable
ICHOFFSET	QUANT	0	Ich Offset (V)
ICHFILTER	IQUANT	3	Ich Filter
VCHRANGE	IQUANT	2	Vch Range
VCHRANGEMODE	TOGGLE	F	Vch Auto Range
VCHOFFSETENABLE	TOGGLE	T	Vch Offset Enable
VCHOFFSET	QUANT	0	Vch Offset (V)
VCHFILTER	IQUANT	3	Vch Filter
ACHRANGE	IQUANT	2	Ach Range
ACHOFFSETENABLE	TOGGLE	F	Ach Offset Enable
ACHOFFSET	QUANT	0	Ach Offset (V)
ACHFILTER	IQUANT	3	Ach Filter
IERANGELOWERLIMIT	IQUANT	2	I/E Range Lower Limit
IERANGEMODE	TOGGLE	F	I/E AutoRange
IERANGE	IQUANT	11	I/E Range
POSFEEDENABLE	TOGGLE	F	Positive Feedback IR Comp
POSFEEDRESISTANCE	QUANT	0	Positive Feedback Resistance (ohm)
ACHSELECT	IQUANT	0	Ach Select
CABLEID	IQUANT	13	Cable ID
DCCALDATE	LABEL	7/31/2020	DC Calibration Date
ACCALDATE	LABEL	7/31/2020	AC Calibration Date
THERMOSELECT	IQUANT	1	Thermo Select
FRAMEWORKVERSION	QUANT	6.33	Framework Version
INSTRUMENTVERSION	LABEL	3.50	Instrument Version
COMPLIANCEVOLTAGE	IQUANT	0	Compliance Voltage
ZCURVE	TABLE
	Pt	Time	Freq	Zreal	Zimag	Zsig	Zmod	Zphz	Idc	Vdc	IERange
	#	s	Hz	ohm	ohm	V	ohm	°	A	V	#
	0	10	300046.9	260.7055	-23.3467	1	261.7488	-5.1173	2.711296E-005	0.0005931	9
	1	15	238359.4	265.8848	-21.03076	1	266.7153	-4.522522	1.376779E-005	-0.0018399	9
	2	20	189328.1	270.9297	-17.4506	1	271.4911	-3.685335	2.246511E-005	-0.0016537	9
	3	25	150421.9	276.0151	-14.45936	1	276.3936	-2.998761	8.150868E-005	-0.002332	9
	4	30	119484.4	278.9244	-12.28243	1	279.1947	-2.52139	8.122536E-005	-0.002358	9
	5	34	94921.88	282.8826	-10.657	1	283.0833	-2.157476	-1.942631E-005	0.0004141	9
	6	37	75421.88	284.6425	-8.713269	1	284.7758	-1.753349	-2.405683E-005	0.0008418	9
	7	40	59859.37	286.8356	-7.433232	1	286.9319	-1.484466	-2.148545E-005	0.0010216	9
	8	42	47578.12	289.5101	-6.184582	1	289.5762	-1.223779	-8.035896E-006	-0.0001314	9
	9	45	37828.12	290.8809	-5.20099	1	290.9274	-1.024347	-8.78364E-006	0.0009467	9
	10	47	30046.88	292.8426	-4.632623	1	292.8793	-0.9063148	2.27271E-005	-0.0008528	9
	11	50	23859.38	295.2018	-4.270724	1	295.2327	-0.8288479	2.910938E-005	-0.000502	9
	12	52	18984.38	297.7158	-3.344059	1	297.7346	-0.6435414	2.71328E-005	-0.0004889	9
	13	56	15046.87	300.0932	-3.510813	1	300.1138	-0.6702769	-8.655662E-006	0.0008679	9
	14	58	11953.13	301.4525	-2.683954	1	301.4644	-0.5101141	-7.911387E-006	0.0008545	9
	15	60	9515.62	302.9341	-3.072434	1	302.9497	-0.5810882	-2.318822E-005	0.0007338	9
	16	63	7546.875	304.9763	-2.124725	1	304.9837	-0.3991648	-1.83864E-005	0.0003742	9
	17	65	5928.309	307.6471	-3.124771	1	307.6629	-0.5819333	2.827559E-005	-0.0006282	9
	18	69	4733.456	310.1068	-3.469468	1	310.1263	-0.6409971	-2.339536E-005	0.0007066	9
	19	71	3796.875	312.3278	-3.836952	1	312.3513	-0.7038442	2.301883E-005	-0.0008007	9
	20	73	2987.132	312.9641	-3.782962	1	312.987	-0.6925305	-2.18197E-005	0.0005096	9
	21	76	2390.625	315.6903	-5.066508	1	315.731	-0.9194601	-2.389126E-005	0.0008824	9
	22	78	1884.191	316.9372	-7.249753	1	317.0201	-1.310379	-1.863058E-005	0.000361	9
	23	80	1516.544	319.8135	-7.287427	1	319.8965	-1.305344	2.647564E-005	-0.0004276	9
	24	82	1193.986	321.1619	-9.089345	1	321.2905	-1.621121	2.695785E-005	-0.0004397	9
	25	85	946.5144	323.7917	-11.35644	1	323.9908	-2.008728	-9.764392E-006	-7.374697E-005	9
	26	88	751.7689	325.9353	-14.02093	1	326.2367	-2.463204	-2.402613E-005	0.000887	9
	27	90	597.4265	328.5359	-16.55852	1	328.9529	-2.885319	2.683257E-005	-0.0004386	9
	28	92	477.4305	330.4749	-20.97762	1	331.14	-3.632102	1.258745E-006	9.099681E-005	9
	29	94	376.6741	332.9494	-26.11472	1	333.972	-4.484784	1.200677E-006	8.806298E-005	9
	30	97	298.2954	335.5329	-32.46162	1	337.0995	-5.525966	1.258702E-006	9.001609E-005	9
	31	99	237.7717	338.3587	-40.12861	1	340.73	-6.763563	1.272026E-006	8.798791E-005	9
	32	102	189.0121	341.4014	-49.76141	1	345.0088	-8.292824	1.282697E-006	9.340336E-005	9
	33	104	150.2404	344.703	-61.70913	1	350.1831	-10.14964	1.115409E-006	0.0000954	9
	34	106	119.1737	346.8772	-76.38265	1	355.1874	-12.41839	4.214377E-008	0.0006556	8
	35	109	95.0169	350.9245	-94.47936	1	363.4203	-15.06844	2.527926E-008	0.0006697	8
	36	111	75.60484	355.6549	-117.0782	1	374.4298	-18.22105	2.909157E-008	0.0006674	8
	37	114	54.50582	362.7787	-159.0142	1	396.0984	-23.66894	2.882397E-008	0.000657	8
	38	116	45.95588	368.2588	-186.5265	1	412.8034	-26.86264	3.029515E-008	0.0006522	8
	39	119	37.20238	375.3689	-227.1027	1	438.7225	-31.17444	8.152567E-008	0.0006542	8
	40	121	30.04808	383.9863	-276.9608	1	473.4477	-35.80207	6.141721E-008	0.000654	8
	41	123	23.91582	394.8476	-342.1582	1	522.4719	-40.91081	2.028066E-008	0.0006722	8
	42	126	18.60119	409.0993	-431.5886	1	594.6688	-46.53236	1.183977E-007	0.0006489	8
	43	128	15.02404	424.2904	-525.2784	1	675.2331	-51.07067	3.775342E-008	0.000672	8
	44	130	12.01923	443.7643	-644.805	1	782.7517	-55.46368	1.428796E-009	0.0006719	8
	45	133	9.450605	469.6734	-804.181	1	931.2896	-59.71339	-2.744845E-008	0.0006847	8
	46	135	7.512019	499.9969	-992.419	1	1111.257	-63.2603	-6.896142E-009	0.0006557	8
	47	138	5.978954	538.6336	-1222.228	1	1335.653	-66.21701	4.324139E-008	0.0006642	8
	48	141	4.734848	588.191	-1513.295	1	1623.586	-68.75977	2.708765E-008	0.0006552	8
	49	144	3.75601	649.332	-1867.755	1	1977.408	-70.8298	2.601116E-008	0.0006699	8
	50	148	3.004808	722.6259	-2285.572	1	2397.087	-72.45468	4.946186E-008	0.0006877	8
	51	151	2.372217	820.988	-2832.803	1	2949.372	-73.83764	4.514651E-008	0.0007372	8
	52	155	1.878005	938.9102	-3497.728	1	3621.554	-74.97407	2.884778E-008	0.0006459	8
	53	160	1.512097	1082.095	-4252.213	1	4387.738	-75.72253	4.971369E-009	0.0006976	7
	54	166	1.201923	1258.302	-5244.395	1	5393.237	-76.5079	-9.593991E-009	0.0006092	7
	55	172	0.956633	1479.108	-6443.322	1	6610.912	-77.07136	-1.956115E-008	2.066962E-006	7
