EXPLAIN
TAG	EISPOT
TITLE	LABEL	Potentiostatic EIS	Test Identifier
DATE	LABEL	2/27/2021	Date
TIME	LABEL	15:08:55	Time
NOTES	NOTES	1	Notes...
	
PSTAT	PSTAT	REF3000-16137	Potentiostat
VDC	POTEN	0.00000E+000	T	DC Voltage (V)
FREQINIT	QUANT	3.00000E+005	Initial Freq. (Hz)
FREQFINAL	QUANT	1.00000E+000	Final Freq. (Hz)
PTSPERDEC	QUANT	1.00000E+001	Points/decade
VAC	QUANT	5.00000E+001	AC Voltage (mV rms)
AREA	QUANT	1.00000E+000	Sample Area (cm^2)
SPEED	SELECTOR	2	Optimize for:
ZGUESS	QUANT	1.00000E+003	Estimated Z (ohms)
EOC	QUANT	0	Open Circuit (V)
SEQUENCER	TOGGLE	TRUE	Run as Sequence
PSTATMODEL	IQUANT	5	Pstat Model
PSTATSECTION	LABEL	REF3000-16137	Pstat Section
PSTATSERIALNO	LABEL	16137	Pstat Serial Number
CTRLMODE	IQUANT	1	Control Mode
IESTAB	IQUANT	0	I/E Stability
CASPEED	IQUANT	1	Control Amp Speed
CONVENTION	IQUANT	1	Current Convention
ICHRANGE	IQUANT	2	Ich Range
ICHRANGEMODE	TOGGLE	F	Ich Auto Range
ICHOFFSETENABLE	TOGGLE	T	Ich Offset Enable
ICHOFFSET	QUANT	0	Ich Offset (V)
ICHFILTER	IQUANT	3	Ich Filter
VCHRANGE	IQUANT	2	Vch Range
VCHRANGEMODE	TOGGLE	F	Vch Auto Range
VCHOFFSETENABLE	TOGGLE	T	Vch Offset Enable
VCHOFFSET	QUANT	0	Vch Offset (V)
VCHFILTER	IQUANT	3	Vch Filter
ACHRANGE	IQUANT	2	Ach Range
ACHOFFSETENABLE	TOGGLE	F	Ach Offset Enable
ACHOFFSET	QUANT	0	Ach Offset (V)
ACHFILTER	IQUANT	3	Ach Filter
IERANGELOWERLIMIT	IQUANT	2	I/E Range Lower Limit
IERANGEMODE	TOGGLE	F	I/E AutoRange
IERANGE	IQUANT	11	I/E Range
POSFEEDENABLE	TOGGLE	F	Positive Feedback IR Comp
POSFEEDRESISTANCE	QUANT	0	Positive Feedback Resistance (ohm)
ACHSELECT	IQUANT	0	Ach Select
CABLEID	IQUANT	13	Cable ID
DCCALDATE	LABEL	7/31/2020	DC Calibration Date
ACCALDATE	LABEL	7/31/2020	AC Calibration Date
THERMOSELECT	IQUANT	1	Thermo Select
FRAMEWORKVERSION	QUANT	6.33	Framework Version
INSTRUMENTVERSION	LABEL	3.50	Instrument Version
COMPLIANCEVOLTAGE	IQUANT	0	Compliance Voltage
ZCURVE	TABLE
	Pt	Time	Freq	Zreal	Zimag	Zsig	Zmod	Zphz	Idc	Vdc	IERange
	#	s	Hz	ohm	ohm	V	ohm	°	A	V	#
	0	7	300046.9	50.18071	1.89726	1	50.21656	2.165239	-2.410033E-005	-0.0005461	9
	1	10	238359.4	50.39106	1.431946	1	50.4114	1.627717	5.390895E-005	-0.0018109	9
	2	13	189328.1	50.66791	1.083062	1	50.67949	1.224551	4.701898E-006	-0.0008118	9
	3	15	150421.9	50.9034	0.7816292	1	50.9094	0.879716	1.473857E-005	-0.0004239	9
	4	18	119484.4	51.16211	0.6009055	1	51.16564	0.6729153	4.042809E-005	-0.0005113	9
	5	20	94921.88	51.41022	0.6182758	1	51.41394	0.6890242	2.079755E-005	-0.0004272	9
	6	23	75421.88	51.6137	0.414906	1	51.61536	0.4605725	1.837821E-005	-0.0005629	9
	7	25	59859.37	51.81641	0.2450635	1	51.81699	0.2709759	1.54408E-005	-0.0005587	9
	8	28	47578.12	52.04203	0.0748559	1	52.04208	0.0824127	-1.236339E-005	0.0002094	9
	9	30	37828.12	52.28741	-0.0744995	1	52.28747	-0.0816354	3.522977E-006	-0.0003197	9
	10	33	30046.88	52.52191	-0.2152289	1	52.52235	-0.2347904	1.724346E-005	-0.0001481	9
	11	36	23859.38	52.7481	-0.3300535	1	52.74913	-0.3585044	2.774607E-006	0.0003003	9
	12	38	18984.38	52.97686	-0.4697554	1	52.97894	-0.5080387	-8.653059E-006	7.862974E-005	9
	13	40	15046.87	53.22742	-0.5972127	1	53.23077	-0.6428327	-9.121609E-006	0.0001103	9
	14	42	11953.13	53.43251	-0.8017853	1	53.43852	-0.8596914	-1.417269E-005	0.0003464	9
	15	45	9515.62	53.66579	-1.011065	1	53.67532	-1.079326	-1.160063E-005	0.0002225	9
	16	47	7546.875	53.90963	-1.279121	1	53.9248	-1.359209	-8.378152E-006	9.260585E-005	9
	17	49	5928.309	54.13562	-1.620689	1	54.15987	-1.714785	-1.275444E-005	0.0002206	9
	18	52	4733.456	54.41927	-2.018394	1	54.45668	-2.124109	4.006473E-006	-0.000315	9
	19	54	3796.875	54.67397	-2.462787	1	54.72941	-2.579143	-1.60362E-005	0.0006177	9
	20	56	2987.132	54.94863	-3.101643	1	55.03609	-3.230702	3.276375E-006	0.0003416	9
	21	59	2390.625	55.21987	-3.826622	1	55.3523	-3.964141	1.029205E-005	-0.0004538	9
	22	61	1884.191	55.55132	-4.807645	1	55.75897	-4.946293	-1.270811E-005	0.0002238	9
	23	63	1516.544	55.83853	-5.859734	1	56.14515	-5.990731	1.63732E-005	-0.0000972	9
	24	65	1193.986	56.21438	-7.35158	1	56.69305	-7.450718	-8.770663E-006	8.175305E-005	9
	25	68	946.5144	56.59519	-9.131488	1	57.32713	-9.165535	1.893229E-005	-0.0002444	9
	26	70	751.7689	57.077	-11.37711	1	58.19985	-11.27297	3.932604E-006	-0.0003173	9
	27	73	597.4265	57.57049	-14.10774	1	59.27386	-13.76909	-1.405917E-005	0.0007089	9
	28	75	477.4305	58.13539	-17.43025	1	60.69215	-16.68987	1.412715E-006	8.878349E-005	9
	29	77	376.6741	58.82977	-21.78242	1	62.73289	-20.31767	1.247884E-006	0.0000959	9
	30	79	298.2954	59.65067	-27.11979	1	65.52621	-24.44862	1.457674E-006	9.425215E-005	9
	31	82	237.7717	60.62741	-33.53635	1	69.2847	-28.94939	1.446414E-006	8.600173E-005	9
	32	84	189.0121	61.82648	-41.55972	1	74.49648	-33.90897	1.368598E-006	8.881369E-005	9
	33	87	150.2404	63.29063	-51.4654	1	81.57446	-39.11663	1.331884E-006	9.019413E-005	9
	34	89	119.1737	65.11114	-63.82631	1	91.17707	-44.42908	1.389888E-006	8.946824E-005	9
	35	91	95.0169	67.31718	-78.73289	1	103.588	-49.46933	1.303678E-006	9.208942E-005	9
	36	94	75.60484	70.08179	-97.2551	1	119.875	-54.22356	1.300753E-006	9.007927E-005	9
	37	96	54.50582	75.14928	-131.4641	1	151.4273	-60.24628	1.450624E-006	8.585498E-005	9
	38	99	45.95588	78.62167	-153.8354	1	172.762	-62.92949	1.431212E-006	9.095471E-005	9
	39	101	37.20238	83.73472	-186.7484	1	204.6618	-65.84937	1.450137E-006	8.223192E-005	9
	40	104	30.04808	90.11691	-227.0785	1	244.3066	-68.35417	1.30513E-006	8.244647E-005	9
	41	106	23.91582	98.6101	-279.7244	1	296.5968	-70.58112	1.433452E-006	8.319656E-005	9
	42	108	18.60119	110.2959	-351.5247	1	368.422	-72.58001	1.314892E-006	8.889165E-005	9
	43	111	15.02404	122.3273	-424.8504	1	442.1106	-73.93729	3.819827E-007	0.0006656	8
	44	113	12.01923	138.4543	-520.0009	1	538.1176	-75.09045	4.33829E-007	0.0006699	8
	45	115	9.450605	160.0655	-645.9838	1	665.5193	-76.08323	3.64726E-007	0.0006729	8
	46	118	7.512019	185.5059	-794.2432	1	815.6193	-76.85349	3.756049E-007	0.0006472	8
	47	121	5.978954	217.3256	-975.049	1	998.975	-77.43491	4.164723E-007	0.0006619	8
	48	124	4.734848	257.4298	-1203.112	1	1230.345	-77.92255	3.623929E-007	0.0006637	8
	49	127	3.75601	307.0229	-1480.227	1	1511.732	-78.28209	4.155637E-007	0.0006672	8
	50	130	3.004808	365.4818	-1806.153	1	1842.761	-78.56046	3.661442E-007	0.0007016	8
	51	134	2.372217	441.7544	-2229.399	1	2272.745	-78.79205	3.838201E-007	0.0007192	8
	52	138	1.878005	539.2012	-2746.58	1	2799.007	-78.8931	3.897817E-007	0.0006421	8
	53	143	1.512097	649.5155	-3328.074	1	3390.863	-78.95682	4.109658E-007	0.0007486	8
	54	148	1.201923	783.5508	-4089.74	1	4164.123	-79.15417	4.006405E-007	0.0006355	8
	55	155	0.956633	950.887	-5025.072	1	5114.248	-79.28471	2.914292E-008	-2.159921E-006	7
