EXPLAIN
TAG	EISPOT
TITLE	LABEL	Potentiostatic EIS	Test Identifier
DATE	LABEL	8/3/2020	Date
TIME	LABEL	22:18:58	Time
NOTES	NOTES	1	Notes...
	
PSTAT	PSTAT	REF3000-16137	Potentiostat
VDC	POTEN	0.00000E+000	T	DC Voltage (V)
FREQINIT	QUANT	3.00000E+005	Initial Freq. (Hz)
FREQFINAL	QUANT	1.00000E+000	Final Freq. (Hz)
PTSPERDEC	QUANT	1.00000E+001	Points/decade
VAC	QUANT	5.00000E+001	AC Voltage (mV rms)
AREA	QUANT	1.00000E+000	Sample Area (cm^2)
SPEED	SELECTOR	2	Optimize for:
ZGUESS	QUANT	1.00000E+003	Estimated Z (ohms)
EOC	QUANT	0	Open Circuit (V)
SEQUENCER	TOGGLE	TRUE	Run as Sequence
PSTATMODEL	IQUANT	5	Pstat Model
PSTATSECTION	LABEL	REF3000-16137	Pstat Section
PSTATSERIALNO	LABEL	16137	Pstat Serial Number
CTRLMODE	IQUANT	1	Control Mode
IESTAB	IQUANT	0	I/E Stability
CASPEED	IQUANT	1	Control Amp Speed
CONVENTION	IQUANT	1	Current Convention
ICHRANGE	IQUANT	2	Ich Range
ICHRANGEMODE	TOGGLE	F	Ich Auto Range
ICHOFFSETENABLE	TOGGLE	T	Ich Offset Enable
ICHOFFSET	QUANT	0	Ich Offset (V)
ICHFILTER	IQUANT	3	Ich Filter
VCHRANGE	IQUANT	2	Vch Range
VCHRANGEMODE	TOGGLE	F	Vch Auto Range
VCHOFFSETENABLE	TOGGLE	T	Vch Offset Enable
VCHOFFSET	QUANT	0	Vch Offset (V)
VCHFILTER	IQUANT	3	Vch Filter
ACHRANGE	IQUANT	2	Ach Range
ACHOFFSETENABLE	TOGGLE	F	Ach Offset Enable
ACHOFFSET	QUANT	0	Ach Offset (V)
ACHFILTER	IQUANT	3	Ach Filter
IERANGELOWERLIMIT	IQUANT	2	I/E Range Lower Limit
IERANGEMODE	TOGGLE	F	I/E AutoRange
IERANGE	IQUANT	11	I/E Range
POSFEEDENABLE	TOGGLE	F	Positive Feedback IR Comp
POSFEEDRESISTANCE	QUANT	0	Positive Feedback Resistance (ohm)
ACHSELECT	IQUANT	0	Ach Select
CABLEID	IQUANT	13	Cable ID
DCCALDATE	LABEL	7/31/2020	DC Calibration Date
ACCALDATE	LABEL	7/31/2020	AC Calibration Date
THERMOSELECT	IQUANT	1	Thermo Select
FRAMEWORKVERSION	QUANT	6.33	Framework Version
INSTRUMENTVERSION	LABEL	3.50	Instrument Version
COMPLIANCEVOLTAGE	IQUANT	0	Compliance Voltage
ZCURVE	TABLE
	Pt	Time	Freq	Zreal	Zimag	Zsig	Zmod	Zphz	Idc	Vdc	IERange
	#	s	Hz	ohm	ohm	V	ohm	°	A	V	#
	0	10	300046.9	4.666509	1.260247	1	4.833687	15.11289	-4.188854E-005	0.0001655	10
	1	13	238359.4	4.671686	0.981436	1	4.773664	11.86427	2.325878E-005	-0.0002253	10
	2	16	189328.1	4.686387	0.7688941	1	4.749044	9.317489	-8.554869E-005	0.0001449	10
	3	19	150421.9	4.706861	0.5944813	1	4.744255	7.198399	-3.753029E-005	0.0003621	10
	4	21	119484.4	4.716757	0.447117	1	4.737902	5.415075	-4.216043E-005	0.000499	10
	5	24	94921.88	4.738552	0.3412419	1	4.750823	4.118986	-9.136469E-006	0.0005199	10
	6	26	75421.88	4.757111	0.2315472	1	4.762743	2.78661	-1.196389E-005	0.0005981	10
	7	29	59859.37	4.777168	0.1337314	1	4.77904	1.603511	2.470728E-005	0.0005747	10
	8	31	47578.12	4.801164	0.0449964	1	4.801374	0.5369592	3.684736E-006	0.0006087	10
	9	34	37828.12	4.827167	-0.0399026	1	4.827332	-0.4736104	2.638058E-005	0.0006385	10
	10	36	30046.88	4.855408	-0.1247259	1	4.857009	-1.471493	2.364728E-005	0.0006573	10
	11	39	23859.38	4.884928	-0.2130567	1	4.889572	-2.497379	-2.518712E-005	0.0006401	10
	12	41	18984.38	4.915718	-0.3078895	1	4.92535	-3.583964	1.363244E-005	0.0006469	10
	13	43	15046.87	4.950345	-0.4172224	1	4.967896	-4.817587	2.385658E-005	0.0006725	10
	14	46	11953.13	4.989013	-0.54292	1	5.018467	-6.210666	2.705553E-005	0.0006726	10
	15	48	9515.62	5.031815	-0.6900488	1	5.07891	-7.808672	-3.581086E-006	0.000648	10
	16	50	7546.875	5.081443	-0.8684216	1	5.155116	-9.69819	2.901082E-005	0.0006805	10
	17	53	5928.309	5.140175	-1.093567	1	5.255216	-12.01054	-2.503554E-005	0.0006736	10
	18	55	4733.456	5.204576	-1.34855	1	5.376449	-14.52636	2.374873E-005	0.0006743	10
	19	57	3796.875	5.278864	-1.649895	1	5.530693	-17.3565	-1.789006E-005	0.0006946	10
	20	60	2987.132	5.370047	-2.051362	1	5.74852	-20.90689	-2.508087E-005	0.0006772	10
	21	62	2390.625	5.470823	-2.5074	1	6.018053	-24.62304	-1.138358E-005	0.0006535	10
	22	64	1884.191	5.596104	-3.101441	1	6.398071	-28.99585	-2.924863E-006	0.0006618	10
	23	67	1516.544	5.730992	-3.769222	1	6.859396	-33.33257	-2.579492E-005	0.0006703	10
	24	69	1193.986	5.906503	-4.670976	1	7.530259	-38.33763	-2.689648E-005	0.0006705	10
	25	71	946.5144	6.114328	-5.749077	1	8.392669	-43.23653	-1.308973E-005	0.000681	10
	26	74	751.7689	6.357901	-7.078305	1	9.51448	-48.06907	-2.301274E-005	0.0006749	10
	27	76	597.4265	6.662439	-8.705747	1	10.96258	-52.57346	1.216899E-005	0.0006511	10
	28	78	477.4305	7.033244	-10.66096	1	12.77195	-56.58639	-3.265374E-007	0.0006771	10
	29	81	376.6741	7.526697	-13.19881	1	15.19407	-60.30581	-4.298431E-007	0.0006755	10
	30	83	298.2954	8.146658	-16.27926	1	18.20391	-63.41516	-6.538053E-007	0.0006797	10
	31	85	237.7717	8.91688	-19.94612	1	21.84853	-65.91305	-7.752041E-008	0.0006679	10
	32	88	189.0121	9.91096	-24.47447	1	26.40505	-67.95446	-5.257376E-007	0.0006825	10
	33	90	150.2404	11.18386	-29.99792	1	32.0149	-69.55348	-1.612729E-007	0.0006749	10
	34	93	119.1737	12.81965	-36.77892	1	38.9491	-70.7835	7.642473E-008	0.0006793	10
	35	95	95.0169	14.83269	-44.76188	1	47.15543	-71.66641	2.052221E-006	8.375799E-005	9
	36	98	75.60484	17.41455	-54.54493	1	57.25745	-72.29329	2.015468E-006	7.410303E-005	9
	37	100	54.50582	22.27134	-72.14327	1	75.50275	-72.84402	1.901761E-006	6.876526E-005	9
	38	103	45.95588	25.52262	-83.38031	1	87.19908	-72.98071	2.147011E-006	8.175149E-005	9
	39	105	37.20238	30.31271	-99.59	1	104.1011	-73.07106	1.944822E-006	7.777875E-005	9
	40	107	30.04808	36.17739	-119.0135	1	124.3906	-73.09193	1.814464E-006	6.97972E-005	9
	41	110	23.91582	43.81815	-143.7582	1	150.2879	-73.04854	1.848757E-006	7.186895E-005	9
	42	112	18.60119	54.15148	-176.7299	1	184.8401	-72.96451	1.967185E-006	7.975163E-005	9
	43	114	15.02404	64.78252	-210.4434	1	220.189	-72.88963	2.091784E-006	7.77983E-005	9
	44	117	12.01923	78.08976	-252.5453	1	264.3428	-72.81782	1.866933E-006	7.627453E-005	9
	45	119	9.450605	95.2331	-307.4007	1	321.8145	-72.78696	1.892667E-006	9.127475E-005	9
	46	122	7.512019	115.1255	-371.0586	1	388.5079	-72.76285	1.928091E-006	6.220616E-005	9
	47	124	5.978954	138.5757	-446.3669	1	467.3827	-72.75291	1.284702E-006	0.0006569	8
	48	127	4.734848	169.1242	-542.2082	1	567.9725	-72.67638	1.228279E-006	0.0006234	8
	49	131	3.75601	207.9724	-659.106	1	691.139	-72.48758	1.336163E-006	0.0006762	8
	50	134	3.004808	256.7213	-795.7496	1	836.1359	-72.11948	1.26427E-006	0.0006535	8
	51	138	2.372217	327.5826	-971.385	1	1025.134	-71.36422	1.181934E-006	0.0005972	8
	52	142	1.878005	421.4198	-1183.596	1	1256.381	-70.4017	1.24325E-006	0.0006537	8
	53	147	1.512097	537.3486	-1413	1	1511.725	-69.17873	1.150221E-006	0.0006757	8
	54	152	1.201923	710.5154	-1701.531	1	1843.92	-67.33584	1.189556E-006	0.0006696	8
	55	158	0.956633	938.9235	-2024.454	1	2231.59	-65.11856	9.849343E-007	1.960584E-005	8
