EXPLAIN
TAG	EISPOT
TITLE	LABEL	Potentiostatic EIS	Test Identifier
DATE	LABEL	8/3/2020	Date
TIME	LABEL	22:41:36	Time
NOTES	NOTES	1	Notes...
	
PSTAT	PSTAT	REF3000-16137	Potentiostat
VDC	POTEN	0.00000E+000	T	DC Voltage (V)
FREQINIT	QUANT	3.00000E+005	Initial Freq. (Hz)
FREQFINAL	QUANT	1.00000E+000	Final Freq. (Hz)
PTSPERDEC	QUANT	1.00000E+001	Points/decade
VAC	QUANT	5.00000E+001	AC Voltage (mV rms)
AREA	QUANT	1.00000E+000	Sample Area (cm^2)
SPEED	SELECTOR	2	Optimize for:
ZGUESS	QUANT	1.00000E+003	Estimated Z (ohms)
EOC	QUANT	0	Open Circuit (V)
SEQUENCER	TOGGLE	TRUE	Run as Sequence
PSTATMODEL	IQUANT	5	Pstat Model
PSTATSECTION	LABEL	REF3000-16137	Pstat Section
PSTATSERIALNO	LABEL	16137	Pstat Serial Number
CTRLMODE	IQUANT	1	Control Mode
IESTAB	IQUANT	0	I/E Stability
CASPEED	IQUANT	1	Control Amp Speed
CONVENTION	IQUANT	1	Current Convention
ICHRANGE	IQUANT	2	Ich Range
ICHRANGEMODE	TOGGLE	F	Ich Auto Range
ICHOFFSETENABLE	TOGGLE	T	Ich Offset Enable
ICHOFFSET	QUANT	0	Ich Offset (V)
ICHFILTER	IQUANT	3	Ich Filter
VCHRANGE	IQUANT	2	Vch Range
VCHRANGEMODE	TOGGLE	F	Vch Auto Range
VCHOFFSETENABLE	TOGGLE	T	Vch Offset Enable
VCHOFFSET	QUANT	0	Vch Offset (V)
VCHFILTER	IQUANT	3	Vch Filter
ACHRANGE	IQUANT	2	Ach Range
ACHOFFSETENABLE	TOGGLE	F	Ach Offset Enable
ACHOFFSET	QUANT	0	Ach Offset (V)
ACHFILTER	IQUANT	3	Ach Filter
IERANGELOWERLIMIT	IQUANT	2	I/E Range Lower Limit
IERANGEMODE	TOGGLE	F	I/E AutoRange
IERANGE	IQUANT	11	I/E Range
POSFEEDENABLE	TOGGLE	F	Positive Feedback IR Comp
POSFEEDRESISTANCE	QUANT	0	Positive Feedback Resistance (ohm)
ACHSELECT	IQUANT	0	Ach Select
CABLEID	IQUANT	13	Cable ID
DCCALDATE	LABEL	7/31/2020	DC Calibration Date
ACCALDATE	LABEL	7/31/2020	AC Calibration Date
THERMOSELECT	IQUANT	1	Thermo Select
FRAMEWORKVERSION	QUANT	6.33	Framework Version
INSTRUMENTVERSION	LABEL	3.50	Instrument Version
COMPLIANCEVOLTAGE	IQUANT	0	Compliance Voltage
ZCURVE	TABLE
	Pt	Time	Freq	Zreal	Zimag	Zsig	Zmod	Zphz	Idc	Vdc	IERange
	#	s	Hz	ohm	ohm	V	ohm	°	A	V	#
	0	15	300046.9	1747.799	-1092.125	1	2060.956	-31.99951	2.524162E-005	0.0008108	9
	1	27	238359.4	2071.819	-1187.545	1	2388.032	-29.82088	1.934592E-005	-0.000447	9
	2	40	189328.1	2432.318	-1263.493	1	2740.909	-27.4501	5.003226E-005	0.0001089	9
	3	49	150421.9	2750.12	-1291.426	1	3038.246	-25.15422	-8.744969E-005	0.0041744	9
	4	58	119484.4	3187.859	-1173.381	1	3396.949	-20.20756	1.933555E-005	-0.0128905	8
	5	65	94921.88	3534.364	-1112.332	1	3705.268	-17.46978	-1.55223E-005	0.0010426	8
	6	71	75421.88	3877.959	-1151.137	1	4045.205	-16.53305	5.136749E-007	-0.0005017	9
	7	79	59859.37	4301.841	-1009.255	1	4418.646	-13.20338	-9.756222E-007	0.0068697	8
	8	86	47578.12	4936.912	-477.211	1	4959.922	-5.521162	-3.52728E-007	0.0157836	7
	9	90	37828.12	5126.16	-423.9497	1	5143.661	-4.727783	-4.825183E-006	0.0217535	7
	10	94	30046.88	5332.994	-371.2819	1	5345.903	-3.982494	3.583163E-006	0.0019511	7
	11	98	23859.38	5587.143	-350.6756	1	5598.137	-3.591444	6.567192E-006	-0.0146004	7
	12	103	18984.38	5815.299	-618.3455	1	5848.082	-6.0695	-2.227008E-005	0.0050896	8
	13	109	15046.87	6204.027	-560.8857	1	6229.329	-5.165879	1.476712E-005	-0.0087694	8
	14	114	11953.13	6639.319	-525.3801	1	6660.074	-4.52448	2.441482E-005	-0.0084621	8
	15	119	9515.62	7010.101	-453.9437	1	7024.783	-3.705053	-2.546655E-005	0.0094614	8
	16	125	7546.875	7421.102	-407.822	1	7432.299	-3.14549	-9.660163E-006	-0.001614	8
	17	130	5928.309	7850.436	-232.3296	1	7853.873	-1.695144	-6.491895E-006	0.0201997	7
	18	134	4733.456	8252.54	-215.453	1	8255.352	-1.495509	-5.827543E-006	0.0096054	7
	19	139	3796.875	8569.534	-199.211	1	8571.85	-1.331682	6.777706E-006	-0.0155839	7
	20	142	2987.132	9038.323	-197.8691	1	9040.489	-1.254132	-5.881234E-006	0.0097498	7
	21	146	2390.625	9346.56	-169.966	1	9348.104	-1.041802	6.300932E-006	-0.024161	7
	22	149	1884.191	9768.39	-159.6813	1	9769.69	-0.9365157	4.141813E-008	0.0157161	7
	23	154	1516.544	10250.18	-151.5252	1	10251.3	-0.8469242	5.057771E-008	0.0157796	7
	24	158	1193.986	10776.75	-127.3651	1	10777.5	-0.6771193	6.830053E-006	-0.0160536	7
	25	163	946.5144	11189.89	-41.27818	1	11189.96	-0.2113564	-6.772255E-006	0.0212049	7
	26	165	751.7689	11650.2	-261.9672	1	11653.14	-1.28814	4.181685E-006	0.0007177	7
	27	168	597.4265	11794.55	-162.9141	1	11795.67	-0.7913569	6.906224E-006	-0.0216084	7
	28	170	477.4305	12296.17	-112.2791	1	12296.68	-0.5231661	-1.139281E-007	0.0006736	7
	29	173	376.6741	12636.33	-114.9629	1	12636.85	-0.5212516	-1.135566E-007	0.0006362	7
	30	175	298.2954	12991.45	-120.9044	1	12992.02	-0.5332054	-1.134706E-007	0.0006164	7
	31	177	237.7717	13370.76	-133.705	1	13371.43	-0.5729275	-1.181688E-007	0.0006911	7
	32	180	189.0121	13758.77	-150.846	1	13759.6	-0.6281442	-1.137172E-007	0.0006106	7
	33	182	150.2404	14169.96	-174.7583	1	14171.04	-0.7065936	-1.192317E-007	0.0006666	7
	34	185	119.1737	14585.19	-204.7541	1	14586.63	-0.8042935	-1.21071E-007	0.000671	7
	35	187	95.0169	15017.41	-240.0727	1	15019.33	-0.9158691	-1.218681E-007	0.0006694	7
	36	189	75.60484	15492.63	-286.5557	1	15495.28	-1.059637	-1.010526E-007	0.0006243	7
	37	192	54.50582	15992.06	-375.6076	1	15996.47	-1.345466	-1.14473E-007	0.000663	7
	38	195	45.95588	16478.71	-435.3423	1	16484.46	-1.513314	-9.34578E-008	0.0006127	7
	39	197	37.20238	16959.73	-521.4084	1	16967.75	-1.760941	-1.083488E-007	0.0006952	7
	40	199	30.04808	17482.54	-630.2421	1	17493.9	-2.064607	-1.061244E-007	0.0005842	7
	41	202	23.91582	18031.35	-772.6085	1	18047.9	-2.453512	-9.231636E-008	0.0005739	7
	42	204	18.60119	18594.27	-986.027	1	18620.4	-3.035467	-1.71106E-007	0.0006797	7
	43	206	15.02404	19145.35	-1165.955	1	19180.82	-3.485019	-1.277776E-007	0.0007125	7
	44	209	12.01923	19786.11	-1391.006	1	19834.95	-4.0214	-7.145647E-008	0.0006934	7
	45	211	9.450605	20446.15	-1772.759	1	20522.86	-4.955368	-1.34631E-007	0.0006429	7
	46	214	7.512019	21200.5	-2192.902	1	21313.61	-5.905463	-1.40627E-007	0.0006273	7
	47	216	5.978954	22084.04	-2645.189	1	22241.89	-6.830251	-9.410928E-008	0.0006673	7
	48	219	4.734848	23152.85	-3272.527	1	23382.98	-8.045147	-1.241197E-007	0.0006322	7
	49	223	3.75601	24371.38	-4041.253	1	24704.16	-9.415097	-8.039609E-008	0.0006892	7
	50	226	3.004808	25694.15	-4884.869	1	26154.37	-10.76438	-1.1551E-007	0.0006044	7
	51	230	2.372217	27386.37	-5985.874	1	28032.91	-12.32932	-8.810058E-008	0.0006486	7
	52	234	1.878005	29332.43	-7326.047	1	30233.46	-14.02326	-1.012343E-007	0.0006103	7
	53	239	1.512097	31672.71	-8872.871	1	32892.07	-15.64981	-1.137178E-007	0.0007276	7
	54	244	1.201923	34717.69	-10913.56	1	36392.64	-17.45062	-1.030178E-007	0.0006008	7
	55	250	0.956633	38372.8	-13417.99	1	40651.13	-19.27343	-1.330264E-007	-1.23862E-005	7
