EXPLAIN
TAG	EISPOT
TITLE	LABEL	Potentiostatic EIS	Test Identifier
DATE	LABEL	8/3/2020	Date
TIME	LABEL	22:13:22	Time
NOTES	NOTES	1	Notes...
	
PSTAT	PSTAT	REF3000-16137	Potentiostat
VDC	POTEN	0.00000E+000	T	DC Voltage (V)
FREQINIT	QUANT	3.00000E+005	Initial Freq. (Hz)
FREQFINAL	QUANT	1.00000E+000	Final Freq. (Hz)
PTSPERDEC	QUANT	1.00000E+001	Points/decade
VAC	QUANT	5.00000E+001	AC Voltage (mV rms)
AREA	QUANT	1.00000E+000	Sample Area (cm^2)
SPEED	SELECTOR	2	Optimize for:
ZGUESS	QUANT	1.00000E+003	Estimated Z (ohms)
EOC	QUANT	0	Open Circuit (V)
SEQUENCER	TOGGLE	TRUE	Run as Sequence
PSTATMODEL	IQUANT	5	Pstat Model
PSTATSECTION	LABEL	REF3000-16137	Pstat Section
PSTATSERIALNO	LABEL	16137	Pstat Serial Number
CTRLMODE	IQUANT	1	Control Mode
IESTAB	IQUANT	0	I/E Stability
CASPEED	IQUANT	1	Control Amp Speed
CONVENTION	IQUANT	1	Current Convention
ICHRANGE	IQUANT	2	Ich Range
ICHRANGEMODE	TOGGLE	F	Ich Auto Range
ICHOFFSETENABLE	TOGGLE	T	Ich Offset Enable
ICHOFFSET	QUANT	0	Ich Offset (V)
ICHFILTER	IQUANT	3	Ich Filter
VCHRANGE	IQUANT	2	Vch Range
VCHRANGEMODE	TOGGLE	F	Vch Auto Range
VCHOFFSETENABLE	TOGGLE	T	Vch Offset Enable
VCHOFFSET	QUANT	0	Vch Offset (V)
VCHFILTER	IQUANT	3	Vch Filter
ACHRANGE	IQUANT	2	Ach Range
ACHOFFSETENABLE	TOGGLE	F	Ach Offset Enable
ACHOFFSET	QUANT	0	Ach Offset (V)
ACHFILTER	IQUANT	3	Ach Filter
IERANGELOWERLIMIT	IQUANT	2	I/E Range Lower Limit
IERANGEMODE	TOGGLE	F	I/E AutoRange
IERANGE	IQUANT	11	I/E Range
POSFEEDENABLE	TOGGLE	F	Positive Feedback IR Comp
POSFEEDRESISTANCE	QUANT	0	Positive Feedback Resistance (ohm)
ACHSELECT	IQUANT	0	Ach Select
CABLEID	IQUANT	13	Cable ID
DCCALDATE	LABEL	7/31/2020	DC Calibration Date
ACCALDATE	LABEL	7/31/2020	AC Calibration Date
THERMOSELECT	IQUANT	1	Thermo Select
FRAMEWORKVERSION	QUANT	6.33	Framework Version
INSTRUMENTVERSION	LABEL	3.50	Instrument Version
COMPLIANCEVOLTAGE	IQUANT	0	Compliance Voltage
ZCURVE	TABLE
	Pt	Time	Freq	Zreal	Zimag	Zsig	Zmod	Zphz	Idc	Vdc	IERange
	#	s	Hz	ohm	ohm	V	ohm	°	A	V	#
	0	10	300046.9	3.23787	1.210985	1	3.456919	20.50614	3.27195E-005	-1.475486E-005	11
	1	13	238359.4	3.231889	0.960965	1	3.37173	16.55924	2.39049E-005	2.359081E-005	11
	2	16	189328.1	3.222173	0.7520845	1	3.308781	13.13814	5.152677E-005	0.0003463	11
	3	19	150421.9	3.221357	0.5858337	1	3.274193	10.30713	-1.361907E-005	0.0003882	11
	4	21	119484.4	3.220296	0.4398157	1	3.250191	7.777122	1.087258E-005	0.0005703	11
	5	24	94921.88	3.221813	0.321758	1	3.23784	5.70314	3.873464E-005	0.0006289	11
	6	26	75421.88	3.226913	0.2202879	1	3.234424	3.905284	-6.157443E-007	0.0005804	11
	7	29	59859.37	3.23421	0.1305082	1	3.236842	2.31077	-2.729241E-006	0.0006116	11
	8	31	47578.12	3.243304	0.0495154	1	3.243681	0.8746645	-1.160507E-005	0.0006319	11
	9	34	37828.12	3.253477	-0.0277061	1	3.253595	-0.4879105	4.367947E-005	0.0007226	11
	10	36	30046.88	3.264973	-0.1047959	1	3.266654	-1.838392	-1.51239E-005	0.0006322	11
	11	39	23859.38	3.279116	-0.1853122	1	3.284348	-3.234508	-1.568173E-005	0.0006814	11
	12	41	18984.38	3.293895	-0.272231	1	3.305125	-4.724596	4.452825E-005	0.0007339	11
	13	44	15046.87	3.312284	-0.3717237	1	3.333077	-6.403271	-1.390649E-006	0.000669	11
	14	46	11953.13	3.334322	-0.4858878	1	3.369538	-8.290962	-3.561688E-005	0.0006382	11
	15	48	9515.62	3.360185	-0.618447	1	3.416624	-10.42866	1.580558E-005	0.0007057	11
	16	51	7546.875	3.391021	-0.7794436	1	3.479447	-12.94488	1.818746E-005	0.0007086	11
	17	53	5928.309	3.429467	-0.983343	1	3.567662	-15.99937	4.242608E-005	0.000743	11
	18	55	4733.456	3.4766	-1.214454	1	3.682614	-19.25545	-2.088429E-005	0.0006731	10
	19	57	3796.875	3.5276	-1.487275	1	3.828309	-22.86083	2.380577E-005	0.0006723	10
	20	60	2987.132	3.59353	-1.851874	1	4.042635	-27.26366	-2.216469E-005	0.0006678	10
	21	62	2390.625	3.666858	-2.266216	1	4.310636	-31.71718	-5.207486E-006	0.0006623	10
	22	64	1884.191	3.762292	-2.810826	1	4.696337	-36.76358	1.754146E-005	0.0006581	10
	23	67	1516.544	3.868832	-3.421754	1	5.164907	-41.49087	-1.674325E-005	0.0006704	10
	24	69	1193.986	4.01509	-4.247615	1	5.844928	-46.61196	9.490377E-006	0.0006665	10
	25	71	946.5144	4.192593	-5.241389	1	6.711929	-51.34364	2.71344E-005	0.0006797	10
	26	74	751.7689	4.419121	-6.451955	1	7.820253	-55.59168	-1.998789E-006	0.0006766	10
	27	76	597.4265	4.710025	-7.93457	1	9.227228	-59.30629	-2.067276E-005	0.0007303	10
	28	78	477.4305	5.068296	-9.69705	1	10.94168	-62.40556	3.184483E-006	0.0006772	10
	29	81	376.6741	5.557291	-11.97917	1	13.20545	-65.11281	2.702733E-006	0.000676	10
	30	83	298.2954	6.178467	-14.73059	1	15.97385	-67.24531	2.395454E-006	0.0006831	10
	31	85	237.7717	6.952784	-17.97939	1	19.27693	-68.85809	2.0641E-006	0.0006874	10
	32	88	189.0121	7.95017	-21.96479	1	23.35931	-70.10225	2.68592E-006	0.0006809	10
	33	90	150.2404	9.215612	-26.78073	1	28.32199	-71.01096	1.965282E-006	0.000677	10
	34	93	119.1737	10.82921	-32.66142	1	34.40988	-71.65656	2.715572E-006	0.0007241	10
	35	95	95.0169	12.80661	-39.57469	1	41.59525	-72.06811	2.974244E-006	0.0006777	10
	36	98	75.60484	15.27319	-47.8984	1	50.27451	-72.31426	4.066545E-006	7.611087E-005	9
	37	100	54.50582	19.87774	-62.84525	1	65.91396	-72.44801	4.062426E-006	6.822795E-005	9
	38	103	45.95588	22.90358	-72.34906	1	75.88782	-72.43375	4.310898E-006	7.564211E-005	9
	39	105	37.20238	27.32106	-86.00033	1	90.23579	-72.3757	3.820256E-006	0.0001307	9
	40	107	30.04808	32.6591	-102.3084	1	107.3947	-72.29577	4.069031E-006	6.371647E-005	9
	41	110	23.91582	39.48749	-123.0874	1	129.2663	-72.21332	3.903903E-006	7.01029E-005	9
	42	112	18.60119	48.7187	-150.8993	1	158.569	-72.10703	4.119353E-006	7.627493E-005	9
	43	114	15.02404	58.27789	-179.4497	1	188.6757	-72.00833	4.181847E-006	7.040257E-005	9
	44	117	12.01923	70.46116	-215.332	1	226.5671	-71.88082	4.07769E-006	7.731649E-005	9
	45	119	9.450605	86.92982	-262.4655	1	276.4868	-71.67488	4.106366E-006	7.500539E-005	9
	46	122	7.512019	107.3276	-317.5304	1	335.1787	-71.32436	4.129721E-006	9.198396E-005	9
	47	124	5.978954	134.3604	-383.6373	1	406.4853	-70.69833	3.995253E-006	7.571957E-005	9
	48	127	4.734848	171.2849	-463.2383	1	493.8909	-69.70786	3.39499E-006	0.0006714	8
	49	131	3.75601	222.3857	-558.0256	1	600.7062	-68.27161	3.153561E-006	0.0006401	8
	50	134	3.004808	289.6225	-663.3873	1	723.8535	-66.41482	3.269703E-006	0.0006303	8
	51	138	2.372217	386.1538	-787.6613	1	877.2258	-63.88343	3.149681E-006	0.000631	8
	52	142	1.878005	515.825	-920.0128	1	1054.751	-60.72189	3.060006E-006	0.0006571	8
	53	147	1.512097	667.5558	-1044.744	1	1239.806	-57.4228	3.049107E-006	0.0005448	8
	54	152	1.201923	865.8289	-1170.009	1	1455.535	-53.49786	2.963511E-006	0.0006755	8
	55	158	0.956633	1097.709	-1275.731	1	1682.99	-49.28948	2.709714E-006	1.118476E-005	8
