EXPLAIN
TAG	EISPOT
TITLE	LABEL	Potentiostatic EIS	Test Identifier
DATE	LABEL	8/3/2020	Date
TIME	LABEL	22:35:37	Time
NOTES	NOTES	1	Notes...
	
PSTAT	PSTAT	REF3000-16137	Potentiostat
VDC	POTEN	0.00000E+000	T	DC Voltage (V)
FREQINIT	QUANT	3.00000E+005	Initial Freq. (Hz)
FREQFINAL	QUANT	1.00000E+000	Final Freq. (Hz)
PTSPERDEC	QUANT	1.00000E+001	Points/decade
VAC	QUANT	5.00000E+001	AC Voltage (mV rms)
AREA	QUANT	1.00000E+000	Sample Area (cm^2)
SPEED	SELECTOR	2	Optimize for:
ZGUESS	QUANT	1.00000E+003	Estimated Z (ohms)
EOC	QUANT	0	Open Circuit (V)
SEQUENCER	TOGGLE	TRUE	Run as Sequence
PSTATMODEL	IQUANT	5	Pstat Model
PSTATSECTION	LABEL	REF3000-16137	Pstat Section
PSTATSERIALNO	LABEL	16137	Pstat Serial Number
CTRLMODE	IQUANT	1	Control Mode
IESTAB	IQUANT	0	I/E Stability
CASPEED	IQUANT	1	Control Amp Speed
CONVENTION	IQUANT	1	Current Convention
ICHRANGE	IQUANT	2	Ich Range
ICHRANGEMODE	TOGGLE	F	Ich Auto Range
ICHOFFSETENABLE	TOGGLE	T	Ich Offset Enable
ICHOFFSET	QUANT	0	Ich Offset (V)
ICHFILTER	IQUANT	3	Ich Filter
VCHRANGE	IQUANT	2	Vch Range
VCHRANGEMODE	TOGGLE	F	Vch Auto Range
VCHOFFSETENABLE	TOGGLE	T	Vch Offset Enable
VCHOFFSET	QUANT	0	Vch Offset (V)
VCHFILTER	IQUANT	3	Vch Filter
ACHRANGE	IQUANT	2	Ach Range
ACHOFFSETENABLE	TOGGLE	F	Ach Offset Enable
ACHOFFSET	QUANT	0	Ach Offset (V)
ACHFILTER	IQUANT	3	Ach Filter
IERANGELOWERLIMIT	IQUANT	2	I/E Range Lower Limit
IERANGEMODE	TOGGLE	F	I/E AutoRange
IERANGE	IQUANT	11	I/E Range
POSFEEDENABLE	TOGGLE	F	Positive Feedback IR Comp
POSFEEDRESISTANCE	QUANT	0	Positive Feedback Resistance (ohm)
ACHSELECT	IQUANT	0	Ach Select
CABLEID	IQUANT	13	Cable ID
DCCALDATE	LABEL	7/31/2020	DC Calibration Date
ACCALDATE	LABEL	7/31/2020	AC Calibration Date
THERMOSELECT	IQUANT	1	Thermo Select
FRAMEWORKVERSION	QUANT	6.33	Framework Version
INSTRUMENTVERSION	LABEL	3.50	Instrument Version
COMPLIANCEVOLTAGE	IQUANT	0	Compliance Voltage
ZCURVE	TABLE
	Pt	Time	Freq	Zreal	Zimag	Zsig	Zmod	Zphz	Idc	Vdc	IERange
	#	s	Hz	ohm	ohm	V	ohm	°	A	V	#
	0	7	300046.9	155.5752	-3.713455	1	155.6195	-1.367345	1.750988E-005	-0.000711	9
	1	10	238359.4	158.8671	-3.255129	1	158.9004	-1.173805	-3.180454E-005	-0.0007012	9
	2	13	189328.1	161.9514	-2.772255	1	161.9751	-0.980683	7.076989E-005	-0.0023744	9
	3	16	150421.9	164.8684	-2.727866	1	164.891	-0.9479133	1.592869E-005	-0.0011516	9
	4	19	119484.4	167.5628	-2.377551	1	167.5796	-0.8129162	1.564673E-005	-0.0013103	9
	5	22	94921.88	170.2152	-1.859882	1	170.2254	-0.6260261	3.006202E-006	0.0003991	9
	6	24	75421.88	172.9863	-1.786952	1	172.9955	-0.5918459	2.61121E-005	-0.0006081	9
	7	27	59859.37	175.7833	-1.526493	1	175.7899	-0.497541	-2.035987E-005	0.0008802	9
	8	29	47578.12	178.4674	-1.477423	1	178.4735	-0.4743062	-9.269207E-006	-7.039957E-005	9
	9	32	37828.12	181.4176	-1.445678	1	181.4234	-0.4565679	1.803443E-005	-0.0006709	9
	10	34	30046.88	184.1286	-1.389677	1	184.1339	-0.4324212	-1.714743E-005	0.0003384	9
	11	37	23859.38	186.9036	-1.289814	1	186.9081	-0.3953895	-2.268566E-005	0.000847	9
	12	39	18984.38	189.6148	-1.400736	1	189.6199	-0.4232517	-3.24458E-006	0.0006355	9
	13	42	15046.87	192.4635	-1.571026	1	192.4699	-0.467679	-1.474411E-005	0.0001427	9
	14	44	11953.13	195.2762	-1.700471	1	195.2836	-0.4989207	1.594925E-005	-6.746174E-005	9
	15	46	9515.62	197.9437	-1.885373	1	197.9527	-0.5457141	-1.831062E-005	0.0003502	9
	16	48	7546.875	200.6543	-2.294156	1	200.6674	-0.6550555	-8.438065E-006	0.000867	9
	17	51	5928.309	204.1573	-2.620787	1	204.1741	-0.735471	-9.270419E-006	-5.519646E-005	9
	18	53	4733.456	206.9761	-2.812906	1	206.9952	-0.7786295	1.248648E-006	0.0005792	9
	19	55	3796.875	209.9628	-3.993016	1	210.0008	-1.089504	1.940733E-005	-2.158763E-005	9
	20	58	2987.132	213.0393	-4.730136	1	213.0918	-1.271936	-1.61083E-005	0.0009573	9
	21	60	2390.625	216.4988	-5.429126	1	216.5669	-1.436501	-2.110625E-005	0.0005048	9
	22	62	1884.191	220.1699	-6.614955	1	220.2692	-1.720921	-2.120913E-005	0.0009481	9
	23	65	1516.544	223.6007	-8.089536	1	223.747	-2.071971	-2.102821E-005	0.000467	9
	24	67	1193.986	227.0876	-10.11307	1	227.3126	-2.549912	1.846736E-005	-3.589276E-005	9
	25	70	946.5144	230.8709	-12.50885	1	231.2095	-3.101318	7.676715E-007	0.0005555	9
	26	72	751.7689	235.1841	-15.39237	1	235.6872	-3.744565	2.361182E-005	-0.0002218	9
	27	74	597.4265	239.3904	-19.31142	1	240.168	-4.612017	-1.60894E-005	0.0009634	9
	28	76	477.4305	243.6598	-23.16726	1	244.7587	-5.431376	1.022958E-006	8.515522E-005	9
	29	79	376.6741	248.4373	-28.60759	1	250.079	-6.568685	1.084758E-006	7.644846E-005	9
	30	81	298.2954	253.6329	-35.18516	1	256.0618	-7.897937	9.783777E-007	8.387917E-005	9
	31	83	237.7717	259.4013	-42.97224	1	262.9366	-9.406156	9.429743E-007	7.888093E-005	9
	32	86	189.0121	265.7745	-52.53399	1	270.9168	-11.18116	1.045051E-006	7.852083E-005	9
	33	88	150.2404	272.881	-64.11971	1	280.313	-13.22309	1.040761E-006	8.315005E-005	9
	34	91	119.1737	280.7978	-78.25845	1	291.4992	-15.57317	9.866469E-007	8.086453E-005	9
	35	93	95.0169	289.6803	-94.92947	1	304.8381	-18.14419	1.009169E-006	8.073913E-005	9
	36	96	75.60484	299.943	-115.1844	1	321.2993	-21.00783	1.056115E-006	7.674361E-005	9
	37	98	54.50582	314.8934	-151.2661	1	349.3412	-25.65835	1.005044E-006	6.585542E-005	9
	38	101	45.95588	325.9785	-174.5128	1	369.7522	-28.16239	9.97284E-007	7.997778E-005	9
	39	103	37.20238	338.3681	-207.151	1	396.7423	-31.47523	-3.931455E-008	0.0006619	8
	40	105	30.04808	354.0241	-247.4363	1	431.9234	-34.95066	-9.717066E-008	0.0006686	8
	41	108	23.91582	372.4416	-299.164	1	477.7152	-38.7732	-1.852344E-007	0.0007053	8
	42	110	18.60119	394.5619	-369.0082	1	540.2279	-43.08325	-2.053263E-007	0.0006524	8
	43	112	15.02404	416.8827	-441.485	1	607.2069	-46.64175	-7.823982E-008	0.0006622	8
	44	115	12.01923	443.3631	-533.7048	1	693.8383	-50.28266	-1.691829E-007	0.000647	8
	45	117	9.450605	475.4601	-655.5111	1	809.7883	-54.0456	-1.130772E-007	0.0007202	8
	46	120	7.512019	512.0428	-799.4953	1	949.4106	-57.36216	-4.358667E-008	0.0006757	8
	47	122	5.978954	555.6846	-976.095	1	1123.186	-60.34741	-8.636007E-008	0.0006636	8
	48	125	4.734848	608.7949	-1199.193	1	1344.877	-63.08443	-1.076058E-008	0.0006756	8
	49	129	3.75601	674.309	-1471.768	1	1618.887	-65.38452	-1.147666E-007	0.0006314	8
	50	132	3.004808	752.0107	-1793.713	1	1944.975	-67.25423	-9.627592E-008	0.0006704	8
	51	136	2.372217	856.2211	-2211.922	1	2371.859	-68.83889	-1.465353E-007	0.0007619	8
	52	140	1.878005	982.939	-2731.039	1	2902.541	-70.20549	-1.425414E-007	0.0006431	8
	53	145	1.512097	1126.435	-3310.46	1	3496.856	-71.20834	-1.037268E-007	0.0006054	8
	54	150	1.201923	1329.395	-4073.505	1	4284.943	-71.92582	-1.416499E-007	0.0006408	8
	55	156	0.956633	1577.379	-5002.119	1	5244.933	-72.49774	-4.613786E-008	-1.048773E-005	7
