EXPLAIN
TAG	EISPOT
TITLE	LABEL	Potentiostatic EIS	Test Identifier
DATE	LABEL	8/3/2020	Date
TIME	LABEL	22:24:34	Time
NOTES	NOTES	1	Notes...
	
PSTAT	PSTAT	REF3000-16137	Potentiostat
VDC	POTEN	0.00000E+000	T	DC Voltage (V)
FREQINIT	QUANT	3.00000E+005	Initial Freq. (Hz)
FREQFINAL	QUANT	1.00000E+000	Final Freq. (Hz)
PTSPERDEC	QUANT	1.00000E+001	Points/decade
VAC	QUANT	5.00000E+001	AC Voltage (mV rms)
AREA	QUANT	1.00000E+000	Sample Area (cm^2)
SPEED	SELECTOR	2	Optimize for:
ZGUESS	QUANT	1.00000E+003	Estimated Z (ohms)
EOC	QUANT	0	Open Circuit (V)
SEQUENCER	TOGGLE	TRUE	Run as Sequence
PSTATMODEL	IQUANT	5	Pstat Model
PSTATSECTION	LABEL	REF3000-16137	Pstat Section
PSTATSERIALNO	LABEL	16137	Pstat Serial Number
CTRLMODE	IQUANT	1	Control Mode
IESTAB	IQUANT	0	I/E Stability
CASPEED	IQUANT	1	Control Amp Speed
CONVENTION	IQUANT	1	Current Convention
ICHRANGE	IQUANT	2	Ich Range
ICHRANGEMODE	TOGGLE	F	Ich Auto Range
ICHOFFSETENABLE	TOGGLE	T	Ich Offset Enable
ICHOFFSET	QUANT	0	Ich Offset (V)
ICHFILTER	IQUANT	3	Ich Filter
VCHRANGE	IQUANT	2	Vch Range
VCHRANGEMODE	TOGGLE	F	Vch Auto Range
VCHOFFSETENABLE	TOGGLE	T	Vch Offset Enable
VCHOFFSET	QUANT	0	Vch Offset (V)
VCHFILTER	IQUANT	3	Vch Filter
ACHRANGE	IQUANT	2	Ach Range
ACHOFFSETENABLE	TOGGLE	F	Ach Offset Enable
ACHOFFSET	QUANT	0	Ach Offset (V)
ACHFILTER	IQUANT	3	Ach Filter
IERANGELOWERLIMIT	IQUANT	2	I/E Range Lower Limit
IERANGEMODE	TOGGLE	F	I/E AutoRange
IERANGE	IQUANT	11	I/E Range
POSFEEDENABLE	TOGGLE	F	Positive Feedback IR Comp
POSFEEDRESISTANCE	QUANT	0	Positive Feedback Resistance (ohm)
ACHSELECT	IQUANT	0	Ach Select
CABLEID	IQUANT	13	Cable ID
DCCALDATE	LABEL	7/31/2020	DC Calibration Date
ACCALDATE	LABEL	7/31/2020	AC Calibration Date
THERMOSELECT	IQUANT	1	Thermo Select
FRAMEWORKVERSION	QUANT	6.33	Framework Version
INSTRUMENTVERSION	LABEL	3.50	Instrument Version
COMPLIANCEVOLTAGE	IQUANT	0	Compliance Voltage
ZCURVE	TABLE
	Pt	Time	Freq	Zreal	Zimag	Zsig	Zmod	Zphz	Idc	Vdc	IERange
	#	s	Hz	ohm	ohm	V	ohm	°	A	V	#
	0	8	300046.9	9.84968	1.16243	1	9.91804	6.73074	6.091375E-005	7.816236E-005	10
	1	11	238359.4	9.93938	0.9246647	1	9.9823	5.314953	-4.218209E-005	0.0002835	10
	2	14	189328.1	10.01385	0.719789	1	10.03969	4.111311	2.568954E-005	0.0003662	10
	3	16	150421.9	10.07824	0.5533255	1	10.09342	3.142554	-4.855657E-005	0.0005661	10
	4	19	119484.4	10.16031	0.4076186	1	10.16848	2.297401	1.132609E-006	0.0006108	10
	5	22	94921.88	10.23758	0.3110746	1	10.24231	1.740428	6.525814E-006	0.0005816	10
	6	24	75421.88	10.31331	0.1950444	1	10.31516	1.083443	6.712517E-006	0.0005821	10
	7	27	59859.37	10.39447	0.0910592	1	10.39487	0.501918	-2.826198E-005	0.0006168	10
	8	29	47578.12	10.47894	-0.0024205	1	10.47894	-0.0132343	-7.721491E-006	0.0006459	10
	9	32	37828.12	10.5654	-0.0909165	1	10.56579	-0.4930249	1.467748E-005	0.0006195	10
	10	34	30046.88	10.65414	-0.1811032	1	10.65568	-0.973842	-1.141224E-005	0.0006948	10
	11	37	23859.38	10.74158	-0.2791726	1	10.7452	-1.488777	2.43407E-005	0.0006435	10
	12	39	18984.38	10.82858	-0.3872384	1	10.8355	-2.048069	1.430321E-005	0.0006415	10
	13	41	15046.87	10.92241	-0.5140226	1	10.9345	-2.694424	-2.302579E-005	0.0006571	10
	14	44	11953.13	11.02136	-0.6616628	1	11.0412	-3.435606	-2.321484E-005	0.0006928	10
	15	46	9515.62	11.12473	-0.8347889	1	11.156	-4.291378	-2.853627E-005	0.0006569	10
	16	48	7546.875	11.23746	-1.048152	1	11.28623	-5.328738	1.049257E-005	0.0006457	10
	17	51	5928.309	11.36188	-1.315972	1	11.43783	-6.60676	-2.273909E-005	0.0007282	10
	18	53	4733.456	11.49516	-1.624	1	11.60931	-8.041348	1.585933E-005	0.0006663	10
	19	55	3796.875	11.64253	-1.986442	1	11.81078	-9.68254	-2.517796E-005	0.000713	10
	20	58	2987.132	11.81614	-2.468258	1	12.07118	-11.79879	2.400163E-005	0.000667	10
	21	60	2390.625	12.00383	-3.01202	1	12.37595	-14.08594	2.201118E-005	0.0006533	10
	22	62	1884.191	12.22906	-3.721433	1	12.78276	-16.92556	-2.75512E-005	0.0006823	10
	23	65	1516.544	12.46938	-4.51252	1	13.26078	-19.89458	6.659292E-006	0.0006679	10
	24	67	1193.986	12.76876	-5.567873	1	13.92991	-23.55981	-2.569753E-005	0.0006804	10
	25	69	946.5144	13.105	-6.823451	1	14.775	-27.50488	-2.254768E-005	0.0007116	10
	26	72	751.7689	13.4841	-8.348516	1	15.85934	-31.76322	2.407797E-005	0.0006617	10
	27	74	597.4265	13.91849	-10.22438	1	17.27028	-36.30063	1.624215E-005	0.0006643	10
	28	76	477.4305	14.41469	-12.45436	1	19.04979	-40.82716	-8.282778E-007	0.0006674	10
	29	79	376.6741	15.02018	-15.365	1	21.48695	-45.6502	-1.291809E-006	0.0006685	10
	30	81	298.2954	15.7338	-18.91285	1	24.6018	-50.24257	-4.519872E-006	0.0007289	10
	31	83	237.7717	16.58011	-23.17172	1	28.49261	-54.41505	-5.10896E-007	0.0006824	10
	32	86	189.0121	17.62192	-28.47338	1	33.4853	-58.247	-8.220275E-007	0.0006795	10
	33	88	150.2404	18.91635	-34.99747	1	39.78254	-61.60851	-7.194451E-007	0.000681	10
	34	91	119.1737	20.52702	-43.05202	1	47.69523	-64.5084	1.287159E-006	8.827673E-005	9
	35	93	95.0169	22.5505	-52.7538	1	57.3715	-66.8549	1.284985E-006	7.945529E-005	9
	36	95	75.60484	25.13989	-64.72298	1	69.43398	-68.77268	1.26083E-006	7.658751E-005	9
	37	98	54.50582	30.06942	-86.53024	1	91.60596	-70.83757	1.215487E-006	7.575749E-005	9
	38	100	45.95588	33.4469	-100.6351	1	106.0477	-71.61535	1.179434E-006	8.261073E-005	9
	39	103	37.20238	38.51358	-121.1264	1	127.102	-72.36132	1.179164E-006	7.713438E-005	9
	40	105	30.04808	44.85806	-145.8771	1	152.6184	-72.90704	1.126562E-006	7.770079E-005	9
	41	108	23.91582	53.33975	-177.6461	1	185.4812	-73.28716	1.293959E-006	8.436845E-005	9
	42	110	18.60119	65.08537	-220.2293	1	229.6455	-73.53577	1.414495E-006	7.881392E-005	9
	43	112	15.02404	77.65505	-263.9859	1	275.1706	-73.60803	1.129102E-006	7.406149E-005	9
	44	115	12.01923	93.74452	-318.5355	1	332.0435	-73.60092	1.531501E-006	7.902206E-005	9
	45	117	9.450605	114.7597	-389.2744	1	405.8379	-73.57426	1.387825E-006	6.887258E-005	9
	46	120	7.512019	138.8084	-468.7745	1	488.894	-73.50549	5.821748E-007	0.0006782	8
	47	122	5.978954	168.1709	-566.1111	1	590.5618	-73.45524	5.478529E-007	0.0006597	8
	48	125	4.734848	204.5025	-686.1447	1	715.9719	-73.40353	5.678652E-007	0.000685	8
	49	129	3.75601	247.4981	-830.6201	1	866.7093	-73.40763	4.751308E-007	0.0006471	8
	50	132	3.004808	296.9448	-998.643	1	1041.856	-73.44025	5.183261E-007	0.0006778	8
	51	136	2.372217	361.692	-1214.95	1	1267.645	-73.42166	5.26996E-007	0.0007123	8
	52	140	1.878005	436.9175	-1480.76	1	1543.874	-73.56062	4.465251E-007	0.0006456	8
	53	145	1.512097	520.1174	-1777.042	1	1851.594	-73.68592	5.121157E-007	0.0006224	8
	54	150	1.201923	636.7221	-2169.609	1	2261.11	-73.64445	4.564384E-007	0.0006361	8
	55	156	0.956633	782.0945	-2642.917	1	2756.208	-73.51541	4.445253E-007	1.654707E-005	8
