EXPLAIN
TAG	EISPOT
TITLE	LABEL	Potentiostatic EIS	Test Identifier
DATE	LABEL	8/3/2020	Date
TIME	LABEL	22:07:47	Time
NOTES	NOTES	1	Notes...
	
PSTAT	PSTAT	REF3000-16137	Potentiostat
VDC	POTEN	0.00000E+000	T	DC Voltage (V)
FREQINIT	QUANT	3.00000E+005	Initial Freq. (Hz)
FREQFINAL	QUANT	1.00000E+000	Final Freq. (Hz)
PTSPERDEC	QUANT	1.00000E+001	Points/decade
VAC	QUANT	5.00000E+001	AC Voltage (mV rms)
AREA	QUANT	1.00000E+000	Sample Area (cm^2)
SPEED	SELECTOR	2	Optimize for:
ZGUESS	QUANT	1.00000E+003	Estimated Z (ohms)
EOC	QUANT	0	Open Circuit (V)
SEQUENCER	TOGGLE	TRUE	Run as Sequence
PSTATMODEL	IQUANT	5	Pstat Model
PSTATSECTION	LABEL	REF3000-16137	Pstat Section
PSTATSERIALNO	LABEL	16137	Pstat Serial Number
CTRLMODE	IQUANT	1	Control Mode
IESTAB	IQUANT	0	I/E Stability
CASPEED	IQUANT	1	Control Amp Speed
CONVENTION	IQUANT	1	Current Convention
ICHRANGE	IQUANT	2	Ich Range
ICHRANGEMODE	TOGGLE	F	Ich Auto Range
ICHOFFSETENABLE	TOGGLE	T	Ich Offset Enable
ICHOFFSET	QUANT	0	Ich Offset (V)
ICHFILTER	IQUANT	3	Ich Filter
VCHRANGE	IQUANT	2	Vch Range
VCHRANGEMODE	TOGGLE	F	Vch Auto Range
VCHOFFSETENABLE	TOGGLE	T	Vch Offset Enable
VCHOFFSET	QUANT	0	Vch Offset (V)
VCHFILTER	IQUANT	3	Vch Filter
ACHRANGE	IQUANT	2	Ach Range
ACHOFFSETENABLE	TOGGLE	F	Ach Offset Enable
ACHOFFSET	QUANT	0	Ach Offset (V)
ACHFILTER	IQUANT	3	Ach Filter
IERANGELOWERLIMIT	IQUANT	2	I/E Range Lower Limit
IERANGEMODE	TOGGLE	F	I/E AutoRange
IERANGE	IQUANT	11	I/E Range
POSFEEDENABLE	TOGGLE	F	Positive Feedback IR Comp
POSFEEDRESISTANCE	QUANT	0	Positive Feedback Resistance (ohm)
ACHSELECT	IQUANT	0	Ach Select
CABLEID	IQUANT	13	Cable ID
DCCALDATE	LABEL	7/31/2020	DC Calibration Date
ACCALDATE	LABEL	7/31/2020	AC Calibration Date
THERMOSELECT	IQUANT	1	Thermo Select
FRAMEWORKVERSION	QUANT	6.33	Framework Version
INSTRUMENTVERSION	LABEL	3.50	Instrument Version
COMPLIANCEVOLTAGE	IQUANT	0	Compliance Voltage
ZCURVE	TABLE
	Pt	Time	Freq	Zreal	Zimag	Zsig	Zmod	Zphz	Idc	Vdc	IERange
	#	s	Hz	ohm	ohm	V	ohm	°	A	V	#
	0	9	300046.9	2.843619	0.9252598	1	2.990364	18.02391	-1.742969E-005	0.0009533	12
	1	13	238359.4	2.839895	0.970438	1	3.001126	18.86613	-2.663295E-005	-0.0001235	11
	2	16	189328.1	2.840385	0.7608661	1	2.940528	14.996	-6.032527E-005	0.000143	11
	3	19	150421.9	2.843749	0.5902151	1	2.904352	11.72517	5.807764E-005	0.0004801	11
	4	21	119484.4	2.849545	0.4434985	1	2.883851	8.846446	7.599056E-005	0.000613	11
	5	24	94921.88	2.855784	0.3257577	1	2.874304	6.50757	-6.630146E-006	0.0005655	11
	6	26	75421.88	2.861763	0.2228927	1	2.87043	4.453576	3.156646E-005	0.0006176	11
	7	29	59859.37	2.870087	0.1333782	1	2.873185	2.660725	-3.306819E-005	0.0005812	11
	8	31	47578.12	2.878049	0.0519333	1	2.878518	1.033769	-2.192521E-005	0.0006132	11
	9	34	37828.12	2.889138	-0.0253446	1	2.889249	-0.5026077	-9.760239E-006	0.0006698	11
	10	37	30046.88	2.90046	-0.1025818	1	2.902273	-2.02556	3.626724E-005	0.0007074	11
	11	39	23859.38	2.914145	-0.1832383	1	2.919901	-3.597959	4.012701E-005	0.0007303	11
	12	41	18984.38	2.929351	-0.2696024	1	2.941731	-5.258396	-5.434874E-006	0.000698	11
	13	44	15046.87	2.946629	-0.3686481	1	2.969599	-7.131134	2.123797E-005	0.0007111	11
	14	46	11953.13	2.967222	-0.4817424	1	3.006074	-9.221775	1.966779E-005	0.0007078	11
	15	48	9515.62	2.992305	-0.6140785	1	3.054666	-11.59718	6.232929E-006	0.000703	11
	16	51	7546.875	3.022369	-0.7731692	1	3.119696	-14.34942	-1.885991E-006	0.0006952	11
	17	53	5928.309	3.054445	-0.973688	1	3.205886	-17.6811	4.609221E-005	0.0007396	11
	18	55	4733.456	3.095868	-1.201062	1	3.320685	-21.20409	-1.634337E-005	0.0007152	11
	19	58	3796.875	3.145231	-1.471521	1	3.472442	-25.07292	-8.182257E-006	0.0006863	11
	20	60	2987.132	3.208902	-1.830654	1	3.694366	-29.70443	2.032241E-005	0.0007076	11
	21	62	2390.625	3.283988	-2.242711	1	3.976724	-34.33006	8.878897E-006	0.0006525	10
	22	64	1884.191	3.37788	-2.780705	1	4.375202	-39.46156	-1.378802E-005	0.0006656	10
	23	67	1516.544	3.484059	-3.382191	1	4.855706	-44.15002	-1.034223E-005	0.0006659	10
	24	69	1193.986	3.629307	-4.195707	1	5.547596	-49.14003	2.91671E-005	0.0006766	10
	25	72	946.5144	3.808174	-5.176116	1	6.426069	-53.65733	-2.176166E-005	0.0006983	10
	26	74	751.7689	4.034811	-6.362568	1	7.534054	-57.61925	1.099064E-005	0.0006592	10
	27	76	597.4265	4.325705	-7.813597	1	8.93107	-61.03054	2.776629E-005	0.0006626	10
	28	78	477.4305	4.686926	-9.54534	1	10.63394	-63.84817	5.899552E-006	0.0006755	10
	29	81	376.6741	5.177632	-11.77808	1	12.86589	-66.26976	5.266777E-006	0.0006705	10
	30	83	298.2954	5.799935	-14.46684	1	15.58617	-68.15353	6.03232E-006	0.0006678	10
	31	85	237.7717	6.575104	-17.63871	1	18.82435	-69.55628	5.318306E-006	0.000672	10
	32	88	189.0121	7.570729	-21.52171	1	22.81447	-70.61957	5.535296E-006	0.0006704	10
	33	90	150.2404	8.832852	-26.20408	1	27.65272	-71.3721	5.483869E-006	0.0006731	10
	34	93	119.1737	10.44484	-31.91687	1	33.58245	-71.87924	5.798434E-006	0.0006791	10
	35	95	95.0169	12.41503	-38.60666	1	40.55376	-72.17339	5.347107E-006	0.0006736	10
	36	98	75.60484	14.8668	-46.65506	1	48.96648	-72.32534	6.219419E-006	7.619696E-005	9
	37	100	54.50582	19.40041	-61.06561	1	64.07327	-72.37506	6.10181E-006	6.46638E-005	9
	38	103	45.95588	22.35804	-70.17142	1	73.6472	-72.32706	6.451429E-006	7.643914E-005	9
	39	105	37.20238	26.71839	-83.30267	1	87.48261	-72.21694	6.206294E-006	7.976099E-005	9
	40	107	30.04808	31.95162	-98.9414	1	103.9726	-72.10293	6.024925E-006	6.751864E-005	9
	41	110	23.91582	38.76637	-118.9334	1	125.0919	-71.94661	5.932488E-006	7.12281E-005	9
	42	112	18.60119	48.03112	-145.6436	1	153.3592	-71.74821	6.328548E-006	8.127483E-005	9
	43	114	15.02404	57.68774	-173.0238	1	182.3872	-71.56113	6.28897E-006	8.011607E-005	9
	44	117	12.01923	70.22055	-207.314	1	218.8836	-71.28794	5.966079E-006	6.684779E-005	9
	45	119	9.450605	87.51601	-252.248	1	266.9984	-70.86607	5.966568E-006	7.70952E-005	9
	46	121	7.512019	109.3752	-304.4082	1	323.4614	-70.23641	6.128374E-006	5.796785E-005	9
	47	124	5.978954	138.7316	-366.1923	1	391.5906	-69.25085	6.218866E-006	7.015332E-005	9
	48	127	4.734848	179.5193	-438.9743	1	474.2632	-67.75781	5.47243E-006	0.0006615	8
	49	130	3.75601	235.6533	-523.7919	1	574.3609	-65.77708	5.420485E-006	0.0006413	8
	50	134	3.004808	308.7119	-613.4117	1	686.7146	-63.28525	5.266482E-006	0.0006735	8
	51	138	2.372217	412.4471	-713.3016	1	823.9611	-59.96252	5.270552E-006	0.000712	8
	52	142	1.878005	543.4031	-810.7499	1	976.013	-56.16813	5.04415E-006	0.0006258	8
	53	146	1.512097	689.1985	-889.9868	1	1125.643	-52.24609	5.080939E-006	0.0006008	8
	54	152	1.201923	872.4125	-953.425	1	1292.333	-47.54056	4.989095E-006	0.0006292	8
	55	158	0.956633	1067.707	-986.954	1	1453.986	-42.74929	4.660999E-006	5.35752E-006	8
