EXPLAIN
TAG	EISPOT
TITLE	LABEL	Potentiostatic EIS	Test Identifier
DATE	LABEL	8/3/2020	Date
TIME	LABEL	22:10:34	Time
NOTES	NOTES	1	Notes...
	
PSTAT	PSTAT	REF3000-16137	Potentiostat
VDC	POTEN	0.00000E+000	T	DC Voltage (V)
FREQINIT	QUANT	3.00000E+005	Initial Freq. (Hz)
FREQFINAL	QUANT	1.00000E+000	Final Freq. (Hz)
PTSPERDEC	QUANT	1.00000E+001	Points/decade
VAC	QUANT	5.00000E+001	AC Voltage (mV rms)
AREA	QUANT	1.00000E+000	Sample Area (cm^2)
SPEED	SELECTOR	2	Optimize for:
ZGUESS	QUANT	1.00000E+003	Estimated Z (ohms)
EOC	QUANT	0	Open Circuit (V)
SEQUENCER	TOGGLE	TRUE	Run as Sequence
PSTATMODEL	IQUANT	5	Pstat Model
PSTATSECTION	LABEL	REF3000-16137	Pstat Section
PSTATSERIALNO	LABEL	16137	Pstat Serial Number
CTRLMODE	IQUANT	1	Control Mode
IESTAB	IQUANT	0	I/E Stability
CASPEED	IQUANT	1	Control Amp Speed
CONVENTION	IQUANT	1	Current Convention
ICHRANGE	IQUANT	2	Ich Range
ICHRANGEMODE	TOGGLE	F	Ich Auto Range
ICHOFFSETENABLE	TOGGLE	T	Ich Offset Enable
ICHOFFSET	QUANT	0	Ich Offset (V)
ICHFILTER	IQUANT	3	Ich Filter
VCHRANGE	IQUANT	2	Vch Range
VCHRANGEMODE	TOGGLE	F	Vch Auto Range
VCHOFFSETENABLE	TOGGLE	T	Vch Offset Enable
VCHOFFSET	QUANT	0	Vch Offset (V)
VCHFILTER	IQUANT	3	Vch Filter
ACHRANGE	IQUANT	2	Ach Range
ACHOFFSETENABLE	TOGGLE	F	Ach Offset Enable
ACHOFFSET	QUANT	0	Ach Offset (V)
ACHFILTER	IQUANT	3	Ach Filter
IERANGELOWERLIMIT	IQUANT	2	I/E Range Lower Limit
IERANGEMODE	TOGGLE	F	I/E AutoRange
IERANGE	IQUANT	11	I/E Range
POSFEEDENABLE	TOGGLE	F	Positive Feedback IR Comp
POSFEEDRESISTANCE	QUANT	0	Positive Feedback Resistance (ohm)
ACHSELECT	IQUANT	0	Ach Select
CABLEID	IQUANT	13	Cable ID
DCCALDATE	LABEL	7/31/2020	DC Calibration Date
ACCALDATE	LABEL	7/31/2020	AC Calibration Date
THERMOSELECT	IQUANT	1	Thermo Select
FRAMEWORKVERSION	QUANT	6.33	Framework Version
INSTRUMENTVERSION	LABEL	3.50	Instrument Version
COMPLIANCEVOLTAGE	IQUANT	0	Compliance Voltage
ZCURVE	TABLE
	Pt	Time	Freq	Zreal	Zimag	Zsig	Zmod	Zphz	Idc	Vdc	IERange
	#	s	Hz	ohm	ohm	V	ohm	°	A	V	#
	0	10	300046.9	3.063723	1.225474	1	3.299725	21.80116	1.139729E-005	-8.562599E-005	11
	1	14	238359.4	3.033441	0.966814	1	3.183786	17.67805	-7.756684E-005	-0.0001155	11
	2	17	189328.1	3.017576	0.7557707	1	3.11078	14.06085	-2.790674E-005	0.0001156	11
	3	19	150421.9	3.010832	0.5787389	1	3.06595	10.88062	-1.818939E-005	0.0003269	11
	4	22	119484.4	3.008764	0.440231	1	3.0408	8.324235	4.089122E-005	0.0005849	11
	5	24	94921.88	3.009482	0.3229175	1	3.026757	6.124407	-2.046762E-005	0.0005622	11
	6	27	75421.88	3.011475	0.2202987	1	3.019522	4.18391	2.445567E-005	0.000619	11
	7	29	59859.37	3.015658	0.1301301	1	3.018465	2.470864	-2.645359E-006	0.0006334	11
	8	32	47578.12	3.021388	0.0485207	1	3.021778	0.9200377	-1.984276E-005	0.0006989	11
	9	34	37828.12	3.028186	-0.0291901	1	3.028327	-0.5522829	3.005517E-005	0.0007016	11
	10	37	30046.88	3.037282	-0.106511	1	3.039149	-2.008418	-1.662039E-005	0.0006678	11
	11	39	23859.38	3.047709	-0.1876383	1	3.05348	-3.523082	3.043327E-005	0.0007158	11
	12	42	18984.38	3.060495	-0.2747476	1	3.072803	-5.129821	3.995674E-005	0.0007295	11
	13	44	15046.87	3.077243	-0.3744959	1	3.099947	-6.93869	1.327946E-006	0.0006908	11
	14	46	11953.13	3.096291	-0.4887166	1	3.134623	-8.969532	4.793661E-005	0.0007393	11
	15	49	9515.62	3.119827	-0.6211309	1	3.181057	-11.25987	-1.235153E-005	0.0007211	11
	16	51	7546.875	3.148608	-0.7826277	1	3.244417	-13.95873	2.604929E-005	0.0007079	11
	17	53	5928.309	3.184909	-0.984961	1	3.333736	-17.18469	3.50494E-005	0.0007179	11
	18	56	4733.456	3.226641	-1.214217	1	3.447541	-20.62182	7.385184E-006	0.0006988	11
	19	58	3796.875	3.274912	-1.485741	1	3.596174	-24.40253	2.988259E-005	0.0006959	11
	20	60	2987.132	3.342238	-1.848885	1	3.819546	-28.95083	-9.132124E-006	0.0006658	10
	21	63	2390.625	3.414346	-2.261577	1	4.095423	-33.51949	2.79367E-005	0.0006713	10
	22	65	1884.191	3.509611	-2.801233	1	4.490465	-38.59548	-5.37774E-006	0.0006641	10
	23	67	1516.544	3.615504	-3.406734	1	4.967666	-43.29711	-1.206225E-006	0.000673	10
	24	69	1193.986	3.761146	-4.22427	1	5.65603	-48.31922	-1.49705E-006	0.0006709	10
	25	72	946.5144	3.941127	-5.206174	1	6.529681	-52.87391	-2.189444E-005	0.0006511	10
	26	74	751.7689	4.170012	-6.398549	1	7.637436	-56.90723	-1.109177E-005	0.0006609	10
	27	77	597.4265	4.459311	-7.860501	1	9.037308	-60.43349	2.572348E-005	0.0006652	10
	28	79	477.4305	4.82395	-9.60009	1	10.74394	-63.32092	3.965651E-006	0.0006748	10
	29	81	376.6741	5.317379	-11.84508	1	12.98385	-65.8242	4.045507E-006	0.0006705	10
	30	83	298.2954	5.943809	-14.54839	1	15.71574	-67.77731	4.042878E-006	0.0006738	10
	31	86	237.7717	6.723846	-17.73615	1	18.9679	-69.23808	3.936157E-006	0.0006769	10
	32	88	189.0121	7.730128	-21.63754	1	22.9769	-70.34045	4.343985E-006	0.0006731	10
	33	91	150.2404	9.005037	-26.34869	1	27.84501	-71.13142	3.767859E-006	0.0006737	10
	34	93	119.1737	10.62653	-32.07923	1	33.79349	-71.67209	3.671745E-006	0.0006805	10
	35	95	95.0169	12.60972	-38.80904	1	40.80621	-72.00014	3.813464E-006	0.0006747	10
	36	98	75.60484	15.08242	-46.89829	1	49.26387	-72.17229	5.129817E-006	6.571256E-005	9
	37	100	54.50582	19.69011	-61.40382	1	64.48356	-72.22073	4.982072E-006	6.756401E-005	9
	38	103	45.95588	22.69343	-70.59705	1	74.1548	-72.17999	5.143489E-006	8.846232E-005	9
	39	105	37.20238	27.06138	-83.79404	1	88.05544	-72.10208	5.141828E-006	7.497623E-005	9
	40	108	30.04808	32.35111	-99.5557	1	104.6801	-71.99818	5.021754E-006	7.645677E-005	9
	41	110	23.91582	39.16603	-119.648	1	125.8952	-71.87446	5.012873E-006	7.163433E-005	9
	42	112	18.60119	48.43205	-146.5497	1	154.3453	-71.7122	4.991939E-006	6.818904E-005	9
	43	115	15.02404	58.02828	-174.1441	1	183.5578	-71.5709	5.091799E-006	8.024629E-005	9
	44	117	12.01923	70.51081	-208.9077	1	220.4863	-71.34937	4.655768E-006	0.0001253	9
	45	119	9.450605	87.67892	-254.2892	1	268.9807	-70.97581	4.880325E-006	7.52985E-005	9
	46	122	7.512019	109.357	-306.9781	1	325.8751	-70.39221	5.028171E-006	5.438701E-005	9
	47	125	5.978954	138.4435	-369.9051	1	394.9638	-69.48075	5.067412E-006	7.535436E-005	9
	48	128	4.734848	178.4785	-443.9361	1	478.4703	-68.09808	4.317763E-006	0.0006442	8
	49	131	3.75601	233.9216	-530.5519	1	579.8316	-66.20721	4.426274E-006	0.0006559	8
	50	134	3.004808	306.2766	-623.4465	1	694.6156	-63.8368	4.233294E-006	0.0006881	8
	51	138	2.372217	408.4645	-728.9744	1	835.6118	-60.73689	4.245497E-006	0.0007126	8
	52	142	1.878005	538.9187	-831.533	1	990.899	-57.05262	4.204972E-006	0.000626	8
	53	147	1.512097	686.997	-919.6522	1	1147.922	-53.2396	4.224716E-006	0.00074	8
	54	152	1.201923	871.9978	-997.984	1	1325.275	-48.85437	4.232752E-006	0.0006212	8
	55	159	0.956633	1077.188	-1048.437	1	1503.181	-44.22506	3.774416E-006	1.523572E-005	8
