EXPLAIN
TAG	EISPOT
TITLE	LABEL	Potentiostatic EIS	Test Identifier
DATE	LABEL	8/3/2020	Date
TIME	LABEL	22:16:10	Time
NOTES	NOTES	1	Notes...
	
PSTAT	PSTAT	REF3000-16137	Potentiostat
VDC	POTEN	0.00000E+000	T	DC Voltage (V)
FREQINIT	QUANT	3.00000E+005	Initial Freq. (Hz)
FREQFINAL	QUANT	1.00000E+000	Final Freq. (Hz)
PTSPERDEC	QUANT	1.00000E+001	Points/decade
VAC	QUANT	5.00000E+001	AC Voltage (mV rms)
AREA	QUANT	1.00000E+000	Sample Area (cm^2)
SPEED	SELECTOR	2	Optimize for:
ZGUESS	QUANT	1.00000E+003	Estimated Z (ohms)
EOC	QUANT	0	Open Circuit (V)
SEQUENCER	TOGGLE	TRUE	Run as Sequence
PSTATMODEL	IQUANT	5	Pstat Model
PSTATSECTION	LABEL	REF3000-16137	Pstat Section
PSTATSERIALNO	LABEL	16137	Pstat Serial Number
CTRLMODE	IQUANT	1	Control Mode
IESTAB	IQUANT	0	I/E Stability
CASPEED	IQUANT	1	Control Amp Speed
CONVENTION	IQUANT	1	Current Convention
ICHRANGE	IQUANT	2	Ich Range
ICHRANGEMODE	TOGGLE	F	Ich Auto Range
ICHOFFSETENABLE	TOGGLE	T	Ich Offset Enable
ICHOFFSET	QUANT	0	Ich Offset (V)
ICHFILTER	IQUANT	3	Ich Filter
VCHRANGE	IQUANT	2	Vch Range
VCHRANGEMODE	TOGGLE	F	Vch Auto Range
VCHOFFSETENABLE	TOGGLE	T	Vch Offset Enable
VCHOFFSET	QUANT	0	Vch Offset (V)
VCHFILTER	IQUANT	3	Vch Filter
ACHRANGE	IQUANT	2	Ach Range
ACHOFFSETENABLE	TOGGLE	F	Ach Offset Enable
ACHOFFSET	QUANT	0	Ach Offset (V)
ACHFILTER	IQUANT	3	Ach Filter
IERANGELOWERLIMIT	IQUANT	2	I/E Range Lower Limit
IERANGEMODE	TOGGLE	F	I/E AutoRange
IERANGE	IQUANT	11	I/E Range
POSFEEDENABLE	TOGGLE	F	Positive Feedback IR Comp
POSFEEDRESISTANCE	QUANT	0	Positive Feedback Resistance (ohm)
ACHSELECT	IQUANT	0	Ach Select
CABLEID	IQUANT	13	Cable ID
DCCALDATE	LABEL	7/31/2020	DC Calibration Date
ACCALDATE	LABEL	7/31/2020	AC Calibration Date
THERMOSELECT	IQUANT	1	Thermo Select
FRAMEWORKVERSION	QUANT	6.33	Framework Version
INSTRUMENTVERSION	LABEL	3.50	Instrument Version
COMPLIANCEVOLTAGE	IQUANT	0	Compliance Voltage
ZCURVE	TABLE
	Pt	Time	Freq	Zreal	Zimag	Zsig	Zmod	Zphz	Idc	Vdc	IERange
	#	s	Hz	ohm	ohm	V	ohm	°	A	V	#
	0	10	300046.9	3.710184	1.255558	1	3.916873	18.69627	-5.491161E-006	-2.608048E-006	10
	1	13	238359.4	3.722842	0.993983	1	3.853252	14.94903	-6.144516E-006	-0.0004692	10
	2	16	189328.1	3.720181	0.77518	1	3.800085	11.77039	7.604167E-005	-0.0001492	10
	3	19	150421.9	3.727505	0.5927236	1	3.774337	9.035156	5.356919E-005	0.000167	10
	4	21	119484.4	3.733513	0.4532695	1	3.760927	6.922153	5.403496E-005	0.0003286	10
	5	24	94921.88	3.746401	0.3452815	1	3.762278	5.265707	3.356436E-005	0.0004239	10
	6	26	75421.88	3.756637	0.2369482	1	3.764103	3.609125	3.555063E-005	0.000492	10
	7	29	59859.37	3.769014	0.1414638	1	3.771668	2.149495	3.562926E-006	0.0005463	10
	8	31	47578.12	3.782825	0.0553203	1	3.78323	0.8378373	2.342033E-005	0.0005757	10
	9	34	37828.12	3.798343	-0.0264555	1	3.798435	-0.3990598	2.585404E-005	0.0006048	10
	10	36	30046.88	3.816484	-0.1083525	1	3.818022	-1.626227	2.263008E-005	0.0006274	10
	11	39	23859.38	3.836385	-0.1934827	1	3.84126	-2.887186	1.705559E-005	0.0006382	10
	12	41	18984.38	3.858404	-0.2847588	1	3.868897	-4.220904	1.146228E-005	0.0006638	10
	13	43	15046.87	3.883031	-0.3884879	1	3.902416	-5.713293	-4.734903E-006	0.0006632	10
	14	46	11953.13	3.911386	-0.5074515	1	3.944166	-7.392094	-1.178424E-005	0.0006708	10
	15	48	9515.62	3.943588	-0.6468776	1	3.99629	-9.315427	2.558926E-005	0.0006715	10
	16	50	7546.875	3.982056	-0.8152819	1	4.064659	-11.57077	-2.861186E-005	0.0006499	10
	17	53	5928.309	4.028508	-1.027331	1	4.157437	-14.30637	2.173489E-005	0.0006703	10
	18	55	4733.456	4.080463	-1.267679	1	4.272843	-17.25847	-1.389739E-005	0.0006719	10
	19	57	3796.875	4.140016	-1.552683	1	4.421601	-20.55819	-2.686039E-005	0.0006542	10
	20	60	2987.132	4.215788	-1.930639	1	4.636835	-24.60562	-2.177954E-005	0.0006739	10
	21	62	2390.625	4.299341	-2.360601	1	4.90477	-28.76947	1.39683E-005	0.0006551	10
	22	64	1884.191	4.405851	-2.925865	1	5.288877	-33.58759	2.371123E-005	0.0006699	10
	23	66	1516.544	4.523456	-3.558678	1	5.755505	-38.19272	-2.253735E-005	0.0006629	10
	24	69	1193.986	4.678925	-4.414843	1	6.432976	-43.33661	-1.453639E-005	0.0006694	10
	25	71	946.5144	4.870423	-5.441568	1	7.302855	-48.17017	-4.652114E-006	0.0006745	10
	26	74	751.7689	5.097054	-6.704665	1	8.422143	-52.75699	-1.408376E-005	0.0006706	10
	27	76	597.4265	5.391152	-8.250074	1	9.85537	-56.83671	-1.515525E-005	0.0006665	10
	28	78	477.4305	5.751399	-10.09347	1	11.61709	-60.32492	6.872977E-007	0.0006709	10
	29	81	376.6741	6.241905	-12.48488	1	13.95828	-63.43691	1.89062E-007	0.0006805	10
	30	83	298.2954	6.861979	-15.37611	1	16.8378	-65.94997	5.353496E-007	0.0006756	10
	31	85	237.7717	7.635236	-18.80226	1	20.29339	-67.89887	-9.70095E-008	0.0006712	10
	32	88	189.0121	8.634834	-23.01751	1	24.58385	-69.43682	2.69126E-007	0.0006735	10
	33	90	150.2404	9.90781	-28.13438	1	29.82797	-70.59977	6.31171E-007	0.0006702	10
	34	92	119.1737	11.53709	-34.38949	1	36.27315	-71.45427	7.426811E-007	0.0006703	10
	35	95	95.0169	13.52517	-41.72252	1	43.85999	-72.03889	2.871856E-006	7.259732E-005	9
	36	97	75.60484	16.05668	-50.68182	1	53.1645	-72.4211	2.750636E-006	7.519704E-005	9
	37	100	54.50582	20.78358	-66.72105	1	69.88316	-72.6982	2.67914E-006	6.42828E-005	9
	38	103	45.95588	23.90528	-76.95325	1	80.5808	-72.74276	2.930389E-006	8.064188E-005	9
	39	105	37.20238	28.47112	-91.65697	1	95.9771	-72.7438	2.751593E-006	7.411667E-005	9
	40	107	30.04808	34.02586	-109.2413	1	114.4178	-72.69953	2.662377E-006	7.553895E-005	9
	41	110	23.91582	41.19486	-131.6265	1	137.9222	-72.62155	2.35481E-006	0.0001278	9
	42	112	18.60119	50.8572	-161.5905	1	169.4046	-72.5297	2.640568E-006	8.17045E-005	9
	43	114	15.02404	60.73281	-192.2533	1	201.618	-72.46867	2.881172E-006	7.74597E-005	9
	44	117	12.01923	73.12492	-230.686	1	241.9985	-72.41196	2.863858E-006	6.851427E-005	9
	45	119	9.450605	89.45972	-281.0077	1	294.904	-72.34096	2.71344E-006	7.471271E-005	9
	46	122	7.512019	108.938	-339.669	1	356.7107	-72.21802	2.822614E-006	0.0001082	9
	47	124	5.978954	133.0022	-409.2268	1	430.2978	-71.9954	2.0862E-006	0.0006589	8
	48	127	4.734848	165.9043	-497.633	1	524.5596	-71.56229	1.999291E-006	0.0006367	8
	49	131	3.75601	210.1953	-604.1719	1	639.6919	-70.81689	2.148538E-006	0.0006739	8
	50	134	3.004808	267.9113	-726.1956	1	774.0391	-69.74976	1.99232E-006	0.0006785	8
	51	138	2.372217	353.0585	-877.3784	1	945.75	-68.08006	1.94112E-006	0.0006189	8
	52	142	1.878005	468.7078	-1053.018	1	1152.62	-66.00572	2.01676E-006	0.000641	8
	53	147	1.512097	608.2443	-1232.321	1	1374.255	-63.73015	1.908699E-006	0.0006947	8
	54	152	1.201923	808.75	-1438.548	1	1650.302	-60.65535	1.933246E-006	0.0006574	8
	55	158	0.956633	1059.445	-1646.003	1	1957.485	-57.23277	1.63522E-006	1.321224E-005	8
