Z60W Data File: Version 1.1
CorrTest for Windows: SN CS310H1805157  V5.2.1111.9  2.5H6.220118
Sweep Frequency: Control Voltage
  Date:4-29-2026   Time:11:00:00
  Begin Information:            Cell Information
      Surface Area:           1
      Density:                7.8
      Weight:                 28
  End Information:              Cell Information
  Freq (Hz)     Ampl(mV)       Bias(V)      Time(Sec)       Z'(Ohm.cm^2)    Z''(Ohm.cm^2)        GD       Err      Range
End Comments
  3.07200E+05,	1.00000E+01,	4.53999E-02,	2.80368E-02,	-1.48253E+00,	2.79703E+00,	0.00000E+00,	0,	0
  2.76480E+05,	1.00000E+01,	4.53999E-02,	1.65169E+00,	-8.64908E-01,	2.23667E+00,	0.00000E+00,	0,	0
  1.97486E+05,	1.00000E+01,	4.53999E-02,	2.55692E+00,	-1.21661E-01,	1.59052E+00,	0.00000E+00,	0,	0
  1.53600E+05,	1.00000E+01,	4.53999E-02,	3.45631E+00,	1.67574E-01,	1.19642E+00,	0.00000E+00,	0,	0
  1.25673E+05,	1.00000E+01,	4.53999E-02,	4.35272E+00,	3.23855E-01,	9.51737E-01,	0.00000E+00,	0,	0
  9.87429E+04,	1.00000E+01,	4.53999E-02,	5.26539E+00,	4.54456E-01,	7.05338E-01,	0.00000E+00,	0,	0
  7.68000E+04,	1.00000E+01,	4.53999E-02,	6.18829E+00,	5.36272E-01,	5.13785E-01,	0.00000E+00,	0,	0
  6.01043E+04,	1.00000E+01,	4.53999E-02,	9.39608E+00,	5.92183E-01,	3.04420E-01,	0.00000E+00,	0,	0
  4.93714E+04,	1.00000E+01,	4.53999E-02,	1.10177E+01,	6.12144E-01,	1.94211E-01,	0.00000E+00,	0,	0
  3.84000E+04,	1.00000E+01,	4.53999E-02,	1.19292E+01,	6.32940E-01,	6.67474E-02,	0.00000E+00,	0,	0
  3.00522E+04,	1.00000E+01,	4.53999E-02,	1.28108E+01,	6.45584E-01,	-5.40653E-02,	0.00000E+00,	0,	0
  2.38345E+04,	1.00000E+01,	4.53999E-02,	1.36795E+01,	6.60677E-01,	-1.66413E-01,	0.00000E+00,	0,	0
  1.86811E+04,	1.00000E+01,	4.53999E-02,	1.45633E+01,	6.80191E-01,	-2.88839E-01,	0.00000E+00,	0,	0
  1.47064E+04,	1.00000E+01,	4.53999E-02,	1.55160E+01,	7.03171E-01,	-4.21349E-01,	0.00000E+00,	0,	0
  1.15200E+04,	1.00000E+01,	4.53999E-02,	1.64958E+01,	7.32028E-01,	-5.72101E-01,	0.00000E+00,	0,	0
  9.60000E+03,	1.00000E+01,	4.53999E-02,	1.80621E+01,	7.55736E-01,	-7.00234E-01,	0.00000E+00,	0,	0
  7.51304E+03,	1.00000E+01,	4.53999E-02,	1.89267E+01,	7.95249E-01,	-8.99689E-01,	0.00000E+00,	0,	0
  5.76000E+03,	1.00000E+01,	4.53999E-02,	1.98353E+01,	8.45969E-01,	-1.16001E+00,	0.00000E+00,	0,	0
  4.54737E+03,	1.00000E+01,	4.53999E-02,	2.07314E+01,	9.04239E-01,	-1.44583E+00,	0.00000E+00,	0,	0
  3.60000E+03,	1.00000E+01,	4.53999E-02,	2.17250E+01,	9.74395E-01,	-1.78838E+00,	0.00000E+00,	0,	0
  2.88000E+03,	1.00000E+01,	4.53999E-02,	2.26684E+01,	1.05629E+00,	-2.18679E+00,	0.00000E+00,	0,	0
  2.27368E+03,	1.00000E+01,	4.53999E-02,	2.49508E+01,	1.15401E+00,	-2.68391E+00,	0.00000E+00,	0,	0
  1.78144E+03,	1.00000E+01,	4.53999E-02,	2.57326E+01,	1.29193E+00,	-3.32577E+00,	0.00000E+00,	0,	0
  1.41639E+03,	1.00000E+01,	4.53999E-02,	2.66276E+01,	1.45421E+00,	-4.07485E+00,	0.00000E+00,	0,	0
  1.12208E+03,	1.00000E+01,	4.53999E-02,	2.76574E+01,	1.66851E+00,	-4.99557E+00,	0.00000E+00,	0,	0
  9.00000E+02,	1.00000E+01,	4.53999E-02,	3.26971E+01,	1.92484E+00,	-6.08085E+00,	0.00000E+00,	0,	0
  7.20000E+02,	1.00000E+01,	4.53999E-02,	3.40598E+01,	2.24904E+00,	-7.38176E+00,	0.00000E+00,	0,	0
  5.68421E+02,	1.00000E+01,	4.53999E-02,	3.54464E+01,	2.68998E+00,	-9.05465E+00,	0.00000E+00,	0,	0
  4.40816E+02,	1.00000E+01,	4.53999E-02,	3.84607E+01,	3.30839E+00,	-1.12847E+01,	0.00000E+00,	0,	0
  3.54098E+02,	1.00000E+01,	4.53999E-02,	4.08222E+01,	3.98262E+00,	-1.35904E+01,	0.00000E+00,	0,	0
  2.76923E+02,	1.00000E+01,	4.53999E-02,	4.34642E+01,	4.95525E+00,	-1.67094E+01,	0.00000E+00,	0,	0
  2.20408E+02,	1.00000E+01,	4.53999E-02,	4.63968E+01,	6.10440E+00,	-2.02036E+01,	0.00000E+00,	0,	0
  1.74194E+02,	1.00000E+01,	4.53999E-02,	4.96601E+01,	7.61061E+00,	-2.45016E+01,	0.00000E+00,	0,	0
  1.37580E+02,	1.00000E+01,	4.53999E-02,	5.33414E+01,	9.52316E+00,	-2.96378E+01,	0.00000E+00,	0,	0
  1.09091E+02,	1.00000E+01,	4.53999E-02,	5.74232E+01,	1.18670E+01,	-3.56407E+01,	0.00000E+00,	0,	0
  8.70968E+01,	1.00000E+01,	4.53999E-02,	6.31191E+01,	1.46356E+01,	-4.25345E+01,	0.00000E+00,	0,	0
  6.83544E+01,	1.00000E+01,	4.53999E-02,	6.81252E+01,	1.82953E+01,	-5.14977E+01,	0.00000E+00,	0,	0
  5.45455E+01,	1.00000E+01,	4.53999E-02,	7.35748E+01,	2.25048E+01,	-6.00942E+01,	0.00000E+00,	0,	0
  4.28571E+01,	1.00000E+01,	4.53999E-02,	7.71323E+01,	2.76532E+01,	-7.17898E+01,	0.00000E+00,	0,	0
  3.39623E+01,	1.00000E+01,	4.53999E-02,	8.08675E+01,	3.28971E+01,	-8.50573E+01,	0.00000E+00,	0,	0
  2.68657E+01,	1.00000E+01,	4.53999E-02,	8.47780E+01,	3.98425E+01,	-1.01282E+02,	0.00000E+00,	0,	0
  2.13439E+01,	1.00000E+01,	4.53999E-02,	8.86095E+01,	4.76076E+01,	-1.19983E+02,	0.00000E+00,	0,	0
  1.73077E+01,	1.00000E+01,	4.53999E-02,	9.52860E+01,	5.56628E+01,	-1.40280E+02,	0.00000E+00,	0,	0
  1.36364E+01,	1.00000E+01,	4.53999E-02,	1.00298E+02,	6.57678E+01,	-1.67346E+02,	0.00000E+00,	0,	0
  1.07143E+01,	1.00000E+01,	4.53999E-02,	1.03213E+02,	7.72184E+01,	-2.00360E+02,	0.00000E+00,	0,	0
  8.49057E+00,	1.00000E+01,	4.53999E-02,	1.07414E+02,	8.94804E+01,	-2.39170E+02,	0.00000E+00,	0,	0
  6.71642E+00,	1.00000E+01,	4.53999E-02,	1.09966E+02,	1.03102E+02,	-2.86675E+02,	0.00000E+00,	0,	0
  5.29412E+00,	1.00000E+01,	4.53999E-02,	1.12922E+02,	1.18383E+02,	-3.45799E+02,	0.00000E+00,	0,	0
  4.16667E+00,	1.00000E+01,	4.53999E-02,	1.16418E+02,	1.35263E+02,	-4.19734E+02,	0.00000E+00,	0,	0
  3.30882E+00,	1.00000E+01,	4.53999E-02,	1.20653E+02,	1.53368E+02,	-5.07742E+02,	0.00000E+00,	0,	0
  2.61628E+00,	1.00000E+01,	4.53999E-02,	1.24628E+02,	1.74423E+02,	-6.18495E+02,	0.00000E+00,	0,	0
  2.07373E+00,	1.00000E+01,	4.53999E-02,	1.29417E+02,	1.98071E+02,	-7.54762E+02,	0.00000E+00,	0,	0
  1.64234E+00,	1.00000E+01,	4.53999E-02,	1.35248E+02,	2.25515E+02,	-9.24482E+02,	0.00000E+00,	0,	0
  1.30058E+00,	1.00000E+01,	4.53999E-02,	1.39471E+02,	2.58143E+02,	-1.13509E+03,	0.00000E+00,	0,	0
  1.03211E+00,	1.00000E+01,	4.53999E-02,	1.43932E+02,	2.96630E+02,	-1.39475E+03,	0.00000E+00,	0,	0
  8.15217E-01,	1.00000E+01,	4.53999E-02,	1.50905E+02,	3.43218E+02,	-1.72162E+03,	0.00000E+00,	0,	0
  6.46552E-01,	1.00000E+01,	4.53999E-02,	1.60021E+02,	3.86651E+02,	-2.12038E+03,	0.00000E+00,	0,	0
  5.11364E-01,	1.00000E+01,	4.53999E-02,	1.65036E+02,	4.51331E+02,	-2.64192E+03,	0.00000E+00,	0,	0
  4.07609E-01,	1.00000E+01,	4.53999E-02,	1.71134E+02,	5.30907E+02,	-3.24876E+03,	0.00000E+00,	0,	0
  3.21429E-01,	1.00000E+01,	4.53999E-02,	1.78259E+02,	6.23915E+02,	-4.06419E+03,	0.00000E+00,	0,	0
  2.54525E-01,	1.00000E+01,	4.53999E-02,	1.87052E+02,	7.45652E+02,	-5.02959E+03,	0.00000E+00,	0,	0
  2.01613E-01,	1.00000E+01,	4.53999E-02,	1.97900E+02,	8.92900E+02,	-6.22776E+03,	0.00000E+00,	0,	0
  1.59574E-01,	1.00000E+01,	4.53999E-02,	2.11412E+02,	1.07577E+03,	-7.71984E+03,	0.00000E+00,	0,	0
  1.26689E-01,	1.00000E+01,	4.53999E-02,	2.28317E+02,	1.29940E+03,	-9.54475E+03,	0.00000E+00,	0,	0
  1.00446E-01,	1.00000E+01,	4.53999E-02,	2.49232E+02,	1.57592E+03,	-1.18195E+04,	0.00000E+00,	0,	0