Z60W Data File: Version 1.1
CorrTest for Windows: SN CS310H1805157  V5.2.1111.9  2.5H6.220118
Sweep Frequency: Control Voltage
  Date:4-29-2026   Time:08:39:53
  Begin Information:            Cell Information
      Surface Area:           1
      Density:                7.8
      Weight:                 28
  End Information:              Cell Information
  Freq (Hz)     Ampl(mV)       Bias(V)      Time(Sec)       Z'(Ohm.cm^2)    Z''(Ohm.cm^2)        GD       Err      Range
End Comments
  3.07200E+05,	1.00000E+01,	3.89722E-02,	7.09067E-02,	-1.53393E+00,	2.78673E+00,	0.00000E+00,	0,	0
  2.76480E+05,	1.00000E+01,	3.89722E-02,	1.67367E+00,	-9.72976E-01,	2.17707E+00,	0.00000E+00,	0,	0
  1.97486E+05,	1.00000E+01,	3.89722E-02,	2.60701E+00,	-2.31221E-01,	1.55162E+00,	0.00000E+00,	0,	0
  1.53600E+05,	1.00000E+01,	3.89722E-02,	3.53133E+00,	5.36843E-02,	1.16924E+00,	0.00000E+00,	0,	0
  1.25673E+05,	1.00000E+01,	3.89722E-02,	4.46119E+00,	2.13929E-01,	9.36137E-01,	0.00000E+00,	0,	0
  9.87429E+04,	1.00000E+01,	3.89722E-02,	5.38613E+00,	3.45030E-01,	7.10270E-01,	0.00000E+00,	0,	0
  7.68000E+04,	1.00000E+01,	3.89722E-02,	6.34221E+00,	4.18925E-01,	5.11172E-01,	0.00000E+00,	0,	0
  6.01043E+04,	1.00000E+01,	3.89722E-02,	9.57631E+00,	4.75063E-01,	3.26698E-01,	0.00000E+00,	0,	0
  4.93714E+04,	1.00000E+01,	3.89722E-02,	1.11711E+01,	4.91609E-01,	2.22789E-01,	0.00000E+00,	0,	0
  3.84000E+04,	1.00000E+01,	3.89722E-02,	1.21043E+01,	5.08792E-01,	1.05531E-01,	0.00000E+00,	0,	0
  3.00522E+04,	1.00000E+01,	3.89722E-02,	1.29518E+01,	5.19773E-01,	-4.74640E-03,	0.00000E+00,	0,	0
  2.38345E+04,	1.00000E+01,	3.89722E-02,	1.38548E+01,	5.33560E-01,	-1.04325E-01,	0.00000E+00,	0,	0
  1.86811E+04,	1.00000E+01,	3.89722E-02,	1.47150E+01,	5.46868E-01,	-2.13568E-01,	0.00000E+00,	0,	0
  1.47064E+04,	1.00000E+01,	3.89722E-02,	1.57323E+01,	5.64945E-01,	-3.28806E-01,	0.00000E+00,	0,	0
  1.15200E+04,	1.00000E+01,	3.89722E-02,	1.66950E+01,	5.86640E-01,	-4.58437E-01,	0.00000E+00,	0,	0
  9.60000E+03,	1.00000E+01,	3.89722E-02,	1.82652E+01,	6.05430E-01,	-5.68772E-01,	0.00000E+00,	0,	0
  7.51304E+03,	1.00000E+01,	3.89722E-02,	1.91276E+01,	6.37258E-01,	-7.39653E-01,	0.00000E+00,	0,	0
  5.76000E+03,	1.00000E+01,	3.89722E-02,	2.00236E+01,	6.80075E-01,	-9.62544E-01,	0.00000E+00,	0,	0
  4.54737E+03,	1.00000E+01,	3.89722E-02,	2.09003E+01,	7.27889E-01,	-1.20371E+00,	0.00000E+00,	0,	0
  3.60000E+03,	1.00000E+01,	3.89722E-02,	2.19020E+01,	7.87207E-01,	-1.49472E+00,	0.00000E+00,	0,	0
  2.88000E+03,	1.00000E+01,	3.89722E-02,	2.28407E+01,	8.59381E-01,	-1.82876E+00,	0.00000E+00,	0,	0
  2.27368E+03,	1.00000E+01,	3.89722E-02,	2.51249E+01,	9.50141E-01,	-2.24652E+00,	0.00000E+00,	0,	0
  1.78144E+03,	1.00000E+01,	3.89722E-02,	2.59125E+01,	1.07522E+00,	-2.78671E+00,	0.00000E+00,	0,	0
  1.41639E+03,	1.00000E+01,	3.89722E-02,	2.68071E+01,	1.22727E+00,	-3.40842E+00,	0.00000E+00,	0,	0
  1.12208E+03,	1.00000E+01,	3.89722E-02,	2.78856E+01,	1.42608E+00,	-4.17486E+00,	0.00000E+00,	0,	0
  9.00000E+02,	1.00000E+01,	3.89722E-02,	3.29073E+01,	1.66536E+00,	-5.06186E+00,	0.00000E+00,	0,	0
  7.20000E+02,	1.00000E+01,	3.89722E-02,	3.43078E+01,	1.97048E+00,	-6.12579E+00,	0.00000E+00,	0,	0
  5.68421E+02,	1.00000E+01,	3.89722E-02,	3.56678E+01,	2.37938E+00,	-7.48192E+00,	0.00000E+00,	0,	0
  4.40816E+02,	1.00000E+01,	3.89722E-02,	3.71453E+01,	2.95092E+00,	-9.25597E+00,	0.00000E+00,	0,	0
  3.54098E+02,	1.00000E+01,	3.89722E-02,	3.94911E+01,	3.57672E+00,	-1.10933E+01,	0.00000E+00,	0,	0
  2.76923E+02,	1.00000E+01,	3.89722E-02,	4.21364E+01,	4.46879E+00,	-1.35367E+01,	0.00000E+00,	0,	0
  2.20408E+02,	1.00000E+01,	3.89722E-02,	4.51105E+01,	5.51368E+00,	-1.62518E+01,	0.00000E+00,	0,	0
  1.74194E+02,	1.00000E+01,	3.89722E-02,	4.83923E+01,	6.84384E+00,	-1.95380E+01,	0.00000E+00,	0,	0
  1.37580E+02,	1.00000E+01,	3.89722E-02,	5.20698E+01,	8.47743E+00,	-2.34240E+01,	0.00000E+00,	0,	0
  1.09091E+02,	1.00000E+01,	3.89722E-02,	5.61426E+01,	1.04093E+01,	-2.79274E+01,	0.00000E+00,	0,	0
  8.70968E+01,	1.00000E+01,	3.89722E-02,	6.42690E+01,	1.26551E+01,	-3.31909E+01,	0.00000E+00,	0,	0
  6.83544E+01,	1.00000E+01,	3.89722E-02,	6.92902E+01,	1.54828E+01,	-3.99333E+01,	0.00000E+00,	0,	0
  5.45455E+01,	1.00000E+01,	3.89722E-02,	7.47402E+01,	1.86294E+01,	-4.64071E+01,	0.00000E+00,	0,	0
  4.28571E+01,	1.00000E+01,	3.89722E-02,	7.82842E+01,	2.23950E+01,	-5.52985E+01,	0.00000E+00,	0,	0
  3.39623E+01,	1.00000E+01,	3.89722E-02,	8.20039E+01,	2.61128E+01,	-6.54740E+01,	0.00000E+00,	0,	0
  2.68657E+01,	1.00000E+01,	3.89722E-02,	8.58481E+01,	3.09888E+01,	-7.80333E+01,	0.00000E+00,	0,	0
  2.13439E+01,	1.00000E+01,	3.89722E-02,	8.96670E+01,	3.62883E+01,	-9.26617E+01,	0.00000E+00,	0,	0
  1.73077E+01,	1.00000E+01,	3.89722E-02,	9.63396E+01,	4.16702E+01,	-1.08750E+02,	0.00000E+00,	0,	0
  1.36364E+01,	1.00000E+01,	3.89722E-02,	1.01385E+02,	4.82432E+01,	-1.30547E+02,	0.00000E+00,	0,	0
  1.07143E+01,	1.00000E+01,	3.89722E-02,	1.04326E+02,	5.55788E+01,	-1.57611E+02,	0.00000E+00,	0,	0
  8.49057E+00,	1.00000E+01,	3.89722E-02,	1.08523E+02,	6.33724E+01,	-1.89865E+02,	0.00000E+00,	0,	0
  6.71642E+00,	1.00000E+01,	3.89722E-02,	1.11052E+02,	7.21603E+01,	-2.30103E+02,	0.00000E+00,	0,	0
  5.29412E+00,	1.00000E+01,	3.89722E-02,	1.14039E+02,	8.22128E+01,	-2.80519E+02,	0.00000E+00,	0,	0
  4.16667E+00,	1.00000E+01,	3.89722E-02,	1.17509E+02,	9.37139E+01,	-3.43961E+02,	0.00000E+00,	0,	0
  3.30882E+00,	1.00000E+01,	3.89722E-02,	1.21745E+02,	1.06503E+02,	-4.19783E+02,	0.00000E+00,	0,	0
  2.61628E+00,	1.00000E+01,	3.89722E-02,	1.25737E+02,	1.21952E+02,	-5.15502E+02,	0.00000E+00,	0,	0
  2.07373E+00,	1.00000E+01,	3.89722E-02,	1.30507E+02,	1.40002E+02,	-6.33384E+02,	0.00000E+00,	0,	0
  1.64234E+00,	1.00000E+01,	3.89722E-02,	1.36294E+02,	1.61681E+02,	-7.80056E+02,	0.00000E+00,	0,	0
  1.30058E+00,	1.00000E+01,	3.89722E-02,	1.40451E+02,	1.88727E+02,	-9.61974E+02,	0.00000E+00,	0,	0
  1.03211E+00,	1.00000E+01,	3.89722E-02,	1.44910E+02,	2.20855E+02,	-1.18556E+03,	0.00000E+00,	0,	0
  8.15217E-01,	1.00000E+01,	3.89722E-02,	1.51878E+02,	2.60965E+02,	-1.46715E+03,	0.00000E+00,	0,	0
  6.46552E-01,	1.00000E+01,	3.89722E-02,	1.60967E+02,	3.00558E+02,	-1.81107E+03,	0.00000E+00,	0,	0
  5.11364E-01,	1.00000E+01,	3.89722E-02,	1.66002E+02,	3.58604E+02,	-2.26086E+03,	0.00000E+00,	0,	0
  4.07609E-01,	1.00000E+01,	3.89722E-02,	1.72047E+02,	4.32170E+02,	-2.78577E+03,	0.00000E+00,	0,	0
  3.21429E-01,	1.00000E+01,	3.89722E-02,	1.79235E+02,	5.22676E+02,	-3.48707E+03,	0.00000E+00,	0,	0
  2.54525E-01,	1.00000E+01,	3.89722E-02,	1.88010E+02,	6.46006E+02,	-4.31989E+03,	0.00000E+00,	0,	0
  2.01613E-01,	1.00000E+01,	3.89722E-02,	1.98842E+02,	8.02446E+02,	-5.35431E+03,	0.00000E+00,	0,	0
  1.59574E-01,	1.00000E+01,	3.89722E-02,	2.12308E+02,	1.00869E+03,	-6.63821E+03,	0.00000E+00,	0,	0
  1.26689E-01,	1.00000E+01,	3.89722E-02,	2.29221E+02,	1.27309E+03,	-8.20903E+03,	0.00000E+00,	0,	0
  1.00446E-01,	1.00000E+01,	3.89722E-02,	2.50163E+02,	1.62173E+03,	-1.01593E+04,	0.00000E+00,	0,	0