Z60W Data File: Version 1.1
CorrTest for Windows: SN CS310H1805157  V5.2.1111.9  2.5H6.220118
Sweep Frequency: Control Voltage
  Date:4-29-2026   Time:14:08:49
  Begin Information:            Cell Information
      Surface Area:           1
      Density:                7.8
      Weight:                 28
  End Information:              Cell Information
  Freq (Hz)     Ampl(mV)       Bias(V)      Time(Sec)       Z'(Ohm.cm^2)    Z''(Ohm.cm^2)        GD       Err      Range
End Comments
  3.07200E+05,	1.00000E+01,	4.77068E-02,	2.25537E-02,	2.08326E+01,	1.33651E+01,	0.00000E+00,	0,	0
  2.76480E+05,	1.00000E+01,	4.77068E-02,	1.62869E+00,	2.09689E+01,	1.16785E+01,	0.00000E+00,	0,	0
  1.97486E+05,	1.00000E+01,	4.77068E-02,	2.52408E+00,	2.09732E+01,	8.27069E+00,	0.00000E+00,	0,	0
  1.53600E+05,	1.00000E+01,	4.77068E-02,	3.45106E+00,	2.09801E+01,	6.32422E+00,	0.00000E+00,	0,	0
  1.25673E+05,	1.00000E+01,	4.77068E-02,	4.35602E+00,	2.10108E+01,	5.06913E+00,	0.00000E+00,	0,	0
  9.87429E+04,	1.00000E+01,	4.77068E-02,	5.25019E+00,	2.10436E+01,	3.78014E+00,	0.00000E+00,	0,	0
  7.68000E+04,	1.00000E+01,	4.77068E-02,	6.15419E+00,	2.11494E+01,	2.72766E+00,	0.00000E+00,	0,	0
  6.01043E+04,	1.00000E+01,	4.77068E-02,	8.27347E+00,	2.12209E+01,	1.87860E+00,	0.00000E+00,	0,	0
  4.93714E+04,	1.00000E+01,	4.77068E-02,	9.83723E+00,	2.13416E+01,	1.32895E+00,	0.00000E+00,	0,	0
  3.84000E+04,	1.00000E+01,	4.77068E-02,	1.07441E+01,	2.14560E+01,	6.91037E-01,	0.00000E+00,	0,	0
  3.00522E+04,	1.00000E+01,	4.77068E-02,	1.16199E+01,	2.14988E+01,	1.85369E-01,	0.00000E+00,	0,	0
  2.38345E+04,	1.00000E+01,	4.77068E-02,	1.24960E+01,	2.16532E+01,	-2.60001E-01,	0.00000E+00,	0,	0
  1.86811E+04,	1.00000E+01,	4.77068E-02,	1.33372E+01,	2.18113E+01,	-6.89032E-01,	0.00000E+00,	0,	0
  1.47064E+04,	1.00000E+01,	4.77068E-02,	1.42912E+01,	2.19683E+01,	-1.15857E+00,	0.00000E+00,	0,	0
  1.15200E+04,	1.00000E+01,	4.77068E-02,	1.52451E+01,	2.21670E+01,	-1.65372E+00,	0.00000E+00,	0,	0
  9.60000E+03,	1.00000E+01,	4.77068E-02,	1.68471E+01,	2.23611E+01,	-2.01649E+00,	0.00000E+00,	0,	0
  7.51304E+03,	1.00000E+01,	4.77068E-02,	1.77056E+01,	2.26140E+01,	-2.57115E+00,	0.00000E+00,	0,	0
  5.76000E+03,	1.00000E+01,	4.77068E-02,	1.85960E+01,	2.29339E+01,	-3.22001E+00,	0.00000E+00,	0,	0
  4.54737E+03,	1.00000E+01,	4.77068E-02,	1.94732E+01,	2.32485E+01,	-3.91703E+00,	0.00000E+00,	0,	0
  3.60000E+03,	1.00000E+01,	4.77068E-02,	2.04679E+01,	2.36401E+01,	-4.67426E+00,	0.00000E+00,	0,	0
  2.88000E+03,	1.00000E+01,	4.77068E-02,	2.13526E+01,	2.40763E+01,	-5.63353E+00,	0.00000E+00,	0,	0
  2.27368E+03,	1.00000E+01,	4.77068E-02,	2.36276E+01,	2.45914E+01,	-6.66860E+00,	0.00000E+00,	0,	0
  1.78144E+03,	1.00000E+01,	4.77068E-02,	2.44170E+01,	2.52086E+01,	-7.97820E+00,	0.00000E+00,	0,	0
  1.41639E+03,	1.00000E+01,	4.77068E-02,	2.53340E+01,	2.58041E+01,	-9.48254E+00,	0.00000E+00,	0,	0
  1.12208E+03,	1.00000E+01,	4.77068E-02,	2.63521E+01,	2.65707E+01,	-1.12777E+01,	0.00000E+00,	0,	0
  9.00000E+02,	1.00000E+01,	4.77068E-02,	3.13399E+01,	2.76065E+01,	-1.33032E+01,	0.00000E+00,	0,	0
  7.20000E+02,	1.00000E+01,	4.77068E-02,	3.27167E+01,	2.85487E+01,	-1.57160E+01,	0.00000E+00,	0,	0
  5.68421E+02,	1.00000E+01,	4.77068E-02,	3.41256E+01,	2.96827E+01,	-1.87752E+01,	0.00000E+00,	0,	0
  4.40816E+02,	1.00000E+01,	4.77068E-02,	3.55827E+01,	3.10517E+01,	-2.27928E+01,	0.00000E+00,	0,	0
  3.54098E+02,	1.00000E+01,	4.77068E-02,	3.79536E+01,	3.24222E+01,	-2.70222E+01,	0.00000E+00,	0,	0
  2.76923E+02,	1.00000E+01,	4.77068E-02,	4.06209E+01,	3.41315E+01,	-3.27835E+01,	0.00000E+00,	0,	0
  2.20408E+02,	1.00000E+01,	4.77068E-02,	4.35601E+01,	3.59591E+01,	-3.93919E+01,	0.00000E+00,	0,	0
  1.74194E+02,	1.00000E+01,	4.77068E-02,	4.68054E+01,	3.80739E+01,	-4.77267E+01,	0.00000E+00,	0,	0
  1.37580E+02,	1.00000E+01,	4.77068E-02,	5.04815E+01,	4.05147E+01,	-5.80523E+01,	0.00000E+00,	0,	0
  1.09091E+02,	1.00000E+01,	4.77068E-02,	5.45530E+01,	4.33037E+01,	-7.06417E+01,	0.00000E+00,	0,	0
  8.70968E+01,	1.00000E+01,	4.77068E-02,	6.26919E+01,	4.67020E+01,	-8.60331E+01,	0.00000E+00,	0,	0
  6.83544E+01,	1.00000E+01,	4.77068E-02,	6.77175E+01,	5.08118E+01,	-1.06773E+02,	0.00000E+00,	0,	0
  5.45455E+01,	1.00000E+01,	4.77068E-02,	7.31678E+01,	5.54999E+01,	-1.27946E+02,	0.00000E+00,	0,	0
  4.28571E+01,	1.00000E+01,	4.77068E-02,	7.67348E+01,	6.13268E+01,	-1.57986E+02,	0.00000E+00,	0,	0
  3.39623E+01,	1.00000E+01,	4.77068E-02,	8.04621E+01,	6.69589E+01,	-1.93627E+02,	0.00000E+00,	0,	0
  2.68657E+01,	1.00000E+01,	4.77068E-02,	8.42918E+01,	7.59021E+01,	-2.39002E+02,	0.00000E+00,	0,	0
  2.13439E+01,	1.00000E+01,	4.77068E-02,	8.81357E+01,	8.66998E+01,	-2.93475E+02,	0.00000E+00,	0,	0
  1.73077E+01,	1.00000E+01,	4.77068E-02,	9.18170E+01,	9.86944E+01,	-3.53771E+02,	0.00000E+00,	0,	0
  1.36364E+01,	1.00000E+01,	4.77068E-02,	9.68482E+01,	1.15925E+02,	-4.37341E+02,	0.00000E+00,	0,	0
  1.07143E+01,	1.00000E+01,	4.77068E-02,	9.97640E+01,	1.38069E+02,	-5.41657E+02,	0.00000E+00,	0,	0
  8.49057E+00,	1.00000E+01,	4.77068E-02,	1.03977E+02,	1.65469E+02,	-6.65851E+02,	0.00000E+00,	0,	0
  6.71642E+00,	1.00000E+01,	4.77068E-02,	1.06523E+02,	2.00884E+02,	-8.18744E+02,	0.00000E+00,	0,	0
  5.29412E+00,	1.00000E+01,	4.77068E-02,	1.09446E+02,	2.47556E+02,	-1.00789E+03,	0.00000E+00,	0,	0
  4.16667E+00,	1.00000E+01,	4.77068E-02,	1.12917E+02,	3.08163E+02,	-1.24175E+03,	0.00000E+00,	0,	0
  3.30882E+00,	1.00000E+01,	4.77068E-02,	1.19486E+02,	3.83082E+02,	-1.51455E+03,	0.00000E+00,	0,	0
  2.61628E+00,	1.00000E+01,	4.77068E-02,	1.23476E+02,	4.82340E+02,	-1.85189E+03,	0.00000E+00,	0,	0
  2.07373E+00,	1.00000E+01,	4.77068E-02,	1.28280E+02,	6.08392E+02,	-2.25567E+03,	0.00000E+00,	0,	0
  1.64234E+00,	1.00000E+01,	4.77068E-02,	1.34069E+02,	7.70655E+02,	-2.74241E+03,	0.00000E+00,	0,	0
  1.30058E+00,	1.00000E+01,	4.77068E-02,	1.38234E+02,	9.80815E+02,	-3.32226E+03,	0.00000E+00,	0,	0
  1.03211E+00,	1.00000E+01,	4.77068E-02,	1.42642E+02,	1.24621E+03,	-4.01073E+03,	0.00000E+00,	0,	0
  8.15217E-01,	1.00000E+01,	4.77068E-02,	1.49585E+02,	1.57803E+03,	-4.82697E+03,	0.00000E+00,	0,	0
  6.46552E-01,	1.00000E+01,	4.77068E-02,	1.54388E+02,	1.98945E+03,	-5.77844E+03,	0.00000E+00,	0,	0
  5.11364E-01,	1.00000E+01,	4.77068E-02,	1.59399E+02,	2.41220E+03,	-6.93582E+03,	0.00000E+00,	0,	0
  4.07609E-01,	1.00000E+01,	4.77068E-02,	1.65451E+02,	2.98643E+03,	-8.23114E+03,	0.00000E+00,	0,	0
  3.21429E-01,	1.00000E+01,	4.77068E-02,	1.72576E+02,	3.71626E+03,	-9.95187E+03,	0.00000E+00,	0,	0
  2.54525E-01,	1.00000E+01,	4.77068E-02,	1.81335E+02,	4.56443E+03,	-1.17945E+04,	0.00000E+00,	0,	0
  2.01613E-01,	1.00000E+01,	4.77068E-02,	1.92173E+02,	5.53375E+03,	-1.40081E+04,	0.00000E+00,	0,	0
  1.59574E-01,	1.00000E+01,	4.77068E-02,	2.05640E+02,	6.65871E+03,	-1.66621E+04,	0.00000E+00,	0,	0
  1.26689E-01,	1.00000E+01,	4.77068E-02,	2.39523E+02,	7.98930E+03,	-1.95740E+04,	0.00000E+00,	0,	0
  1.00446E-01,	1.00000E+01,	4.77068E-02,	2.60389E+02,	9.41565E+03,	-2.41489E+04,	0.00000E+00,	0,	0