Z60W Data File: Version 1.1
CorrTest for Windows: SN CS310H1805157  V5.2.1111.9  2.5H6.220118
Sweep Frequency: Control Voltage
  Date:4-29-2026   Time:13:36:35
  Begin Information:            Cell Information
      Surface Area:           1
      Density:                7.8
      Weight:                 28
  End Information:              Cell Information
  Freq (Hz)     Ampl(mV)       Bias(V)      Time(Sec)       Z'(Ohm.cm^2)    Z''(Ohm.cm^2)        GD       Err      Range
End Comments
  3.07200E+05,	1.00000E+01,	5.40629E-02,	2.10913E-02,	6.06431E-01,	3.93717E+00,	0.00000E+00,	0,	0
  2.76480E+05,	1.00000E+01,	5.40629E-02,	1.61402E+00,	1.22692E+00,	3.21652E+00,	0.00000E+00,	0,	0
  1.97486E+05,	1.00000E+01,	5.40629E-02,	2.53887E+00,	1.88389E+00,	2.25376E+00,	0.00000E+00,	0,	0
  1.53600E+05,	1.00000E+01,	5.40629E-02,	3.43459E+00,	2.17962E+00,	1.72069E+00,	0.00000E+00,	0,	0
  1.25673E+05,	1.00000E+01,	5.40629E-02,	4.36921E+00,	2.32415E+00,	1.33638E+00,	0.00000E+00,	0,	0
  9.87429E+04,	1.00000E+01,	5.40629E-02,	5.28013E+00,	2.45040E+00,	9.85404E-01,	0.00000E+00,	0,	0
  7.68000E+04,	1.00000E+01,	5.40629E-02,	6.18244E+00,	2.53497E+00,	6.81842E-01,	0.00000E+00,	0,	0
  6.01043E+04,	1.00000E+01,	5.40629E-02,	9.43449E+00,	2.61656E+00,	3.73264E-01,	0.00000E+00,	0,	0
  4.93714E+04,	1.00000E+01,	5.40629E-02,	1.10065E+01,	2.65486E+00,	2.01216E-01,	0.00000E+00,	0,	0
  3.84000E+04,	1.00000E+01,	5.40629E-02,	1.19001E+01,	2.68340E+00,	4.20914E-03,	0.00000E+00,	0,	0
  3.00522E+04,	1.00000E+01,	5.40629E-02,	1.27585E+01,	2.72698E+00,	-1.79209E-01,	0.00000E+00,	0,	0
  2.38345E+04,	1.00000E+01,	5.40629E-02,	1.36548E+01,	2.76505E+00,	-3.55562E-01,	0.00000E+00,	0,	0
  1.86811E+04,	1.00000E+01,	5.40629E-02,	1.44861E+01,	2.81669E+00,	-5.48151E-01,	0.00000E+00,	0,	0
  1.47064E+04,	1.00000E+01,	5.40629E-02,	1.54965E+01,	2.87336E+00,	-7.50525E-01,	0.00000E+00,	0,	0
  1.15200E+04,	1.00000E+01,	5.40629E-02,	1.64726E+01,	2.94824E+00,	-9.78287E-01,	0.00000E+00,	0,	0
  9.60000E+03,	1.00000E+01,	5.40629E-02,	1.80815E+01,	3.01578E+00,	-1.16436E+00,	0.00000E+00,	0,	0
  7.51304E+03,	1.00000E+01,	5.40629E-02,	1.89538E+01,	3.10967E+00,	-1.45711E+00,	0.00000E+00,	0,	0
  5.76000E+03,	1.00000E+01,	5.40629E-02,	1.98480E+01,	3.22938E+00,	-1.82701E+00,	0.00000E+00,	0,	0
  4.54737E+03,	1.00000E+01,	5.40629E-02,	2.07444E+01,	3.35475E+00,	-2.22281E+00,	0.00000E+00,	0,	0
  3.60000E+03,	1.00000E+01,	5.40629E-02,	2.17363E+01,	3.49321E+00,	-2.68988E+00,	0.00000E+00,	0,	0
  2.88000E+03,	1.00000E+01,	5.40629E-02,	2.26284E+01,	3.65135E+00,	-3.22798E+00,	0.00000E+00,	0,	0
  2.27368E+03,	1.00000E+01,	5.40629E-02,	2.49346E+01,	3.80808E+00,	-3.89278E+00,	0.00000E+00,	0,	0
  1.78144E+03,	1.00000E+01,	5.40629E-02,	2.57608E+01,	4.01691E+00,	-4.76610E+00,	0.00000E+00,	0,	0
  1.41639E+03,	1.00000E+01,	5.40629E-02,	2.66884E+01,	4.25243E+00,	-5.76725E+00,	0.00000E+00,	0,	0
  1.12208E+03,	1.00000E+01,	5.40629E-02,	2.77204E+01,	4.52653E+00,	-7.01258E+00,	0.00000E+00,	0,	0
  9.00000E+02,	1.00000E+01,	5.40629E-02,	3.27093E+01,	4.86655E+00,	-8.48755E+00,	0.00000E+00,	0,	0
  7.20000E+02,	1.00000E+01,	5.40629E-02,	3.41287E+01,	5.23060E+00,	-1.02795E+01,	0.00000E+00,	0,	0
  5.68421E+02,	1.00000E+01,	5.40629E-02,	3.55022E+01,	5.69433E+00,	-1.26117E+01,	0.00000E+00,	0,	0
  4.40816E+02,	1.00000E+01,	5.40629E-02,	3.85734E+01,	6.31876E+00,	-1.57790E+01,	0.00000E+00,	0,	0
  3.54098E+02,	1.00000E+01,	5.40629E-02,	4.09141E+01,	6.95419E+00,	-1.91120E+01,	0.00000E+00,	0,	0
  2.76923E+02,	1.00000E+01,	5.40629E-02,	4.35488E+01,	7.84423E+00,	-2.37298E+01,	0.00000E+00,	0,	0
  2.20408E+02,	1.00000E+01,	5.40629E-02,	4.64793E+01,	8.86485E+00,	-2.90471E+01,	0.00000E+00,	0,	0
  1.74194E+02,	1.00000E+01,	5.40629E-02,	4.97495E+01,	1.01859E+01,	-3.57817E+01,	0.00000E+00,	0,	0
  1.37580E+02,	1.00000E+01,	5.40629E-02,	5.34742E+01,	1.18663E+01,	-4.41191E+01,	0.00000E+00,	0,	0
  1.09091E+02,	1.00000E+01,	5.40629E-02,	5.75806E+01,	1.39580E+01,	-5.42311E+01,	0.00000E+00,	0,	0
  8.70968E+01,	1.00000E+01,	5.40629E-02,	6.32768E+01,	1.65075E+01,	-6.63138E+01,	0.00000E+00,	0,	0
  6.83544E+01,	1.00000E+01,	5.40629E-02,	6.82987E+01,	2.00459E+01,	-8.26360E+01,	0.00000E+00,	0,	0
  5.45455E+01,	1.00000E+01,	5.40629E-02,	7.37459E+01,	2.47311E+01,	-9.92970E+01,	0.00000E+00,	0,	0
  4.28571E+01,	1.00000E+01,	5.40629E-02,	7.72785E+01,	3.07479E+01,	-1.22401E+02,	0.00000E+00,	0,	0
  3.39623E+01,	1.00000E+01,	5.40629E-02,	8.10128E+01,	3.72700E+01,	-1.49314E+02,	0.00000E+00,	0,	0
  2.68657E+01,	1.00000E+01,	5.40629E-02,	8.48521E+01,	4.71983E+01,	-1.83043E+02,	0.00000E+00,	0,	0
  2.13439E+01,	1.00000E+01,	5.40629E-02,	8.86742E+01,	5.96489E+01,	-2.22676E+02,	0.00000E+00,	0,	0
  1.73077E+01,	1.00000E+01,	5.40629E-02,	9.53635E+01,	7.40146E+01,	-2.66041E+02,	0.00000E+00,	0,	0
  1.36364E+01,	1.00000E+01,	5.40629E-02,	1.00418E+02,	9.43884E+01,	-3.23946E+02,	0.00000E+00,	0,	0
  1.07143E+01,	1.00000E+01,	5.40629E-02,	1.03358E+02,	1.20749E+02,	-3.93873E+02,	0.00000E+00,	0,	0
  8.49057E+00,	1.00000E+01,	5.40629E-02,	1.07594E+02,	1.52655E+02,	-4.73861E+02,	0.00000E+00,	0,	0
  6.71642E+00,	1.00000E+01,	5.40629E-02,	1.10135E+02,	1.92676E+02,	-5.68876E+02,	0.00000E+00,	0,	0
  5.29412E+00,	1.00000E+01,	5.40629E-02,	1.13071E+02,	2.42223E+02,	-6.81533E+02,	0.00000E+00,	0,	0
  4.16667E+00,	1.00000E+01,	5.40629E-02,	1.16590E+02,	3.02200E+02,	-8.15318E+02,	0.00000E+00,	0,	0
  3.30882E+00,	1.00000E+01,	5.40629E-02,	1.20808E+02,	3.70499E+02,	-9.66449E+02,	0.00000E+00,	0,	0
  2.61628E+00,	1.00000E+01,	5.40629E-02,	1.24831E+02,	4.51896E+02,	-1.14696E+03,	0.00000E+00,	0,	0
  2.07373E+00,	1.00000E+01,	5.40629E-02,	1.29617E+02,	5.44878E+02,	-1.35897E+03,	0.00000E+00,	0,	0
  1.64234E+00,	1.00000E+01,	5.40629E-02,	1.35396E+02,	6.51551E+02,	-1.61072E+03,	0.00000E+00,	0,	0
  1.30058E+00,	1.00000E+01,	5.40629E-02,	1.39558E+02,	7.73340E+02,	-1.90941E+03,	0.00000E+00,	0,	0
  1.03211E+00,	1.00000E+01,	5.40629E-02,	1.43968E+02,	9.12087E+02,	-2.26639E+03,	0.00000E+00,	0,	0
  8.15217E-01,	1.00000E+01,	5.40629E-02,	1.50906E+02,	1.06527E+03,	-2.69885E+03,	0.00000E+00,	0,	0
  6.46552E-01,	1.00000E+01,	5.40629E-02,	1.59993E+02,	1.23657E+03,	-3.22081E+03,	0.00000E+00,	0,	0
  5.11364E-01,	1.00000E+01,	5.40629E-02,	1.64999E+02,	1.38169E+03,	-3.87674E+03,	0.00000E+00,	0,	0
  4.07609E-01,	1.00000E+01,	5.40629E-02,	1.71092E+02,	1.58825E+03,	-4.63628E+03,	0.00000E+00,	0,	0
  3.21429E-01,	1.00000E+01,	5.40629E-02,	1.78257E+02,	1.83426E+03,	-5.70387E+03,	0.00000E+00,	0,	0
  2.54525E-01,	1.00000E+01,	5.40629E-02,	1.87031E+02,	2.10583E+03,	-6.89161E+03,	0.00000E+00,	0,	0
  2.01613E-01,	1.00000E+01,	5.40629E-02,	1.97865E+02,	2.40722E+03,	-8.37131E+03,	0.00000E+00,	0,	0
  1.59574E-01,	1.00000E+01,	5.40629E-02,	2.11326E+02,	2.75474E+03,	-1.02143E+04,	0.00000E+00,	0,	0
  1.26689E-01,	1.00000E+01,	5.40629E-02,	2.45194E+02,	3.19057E+03,	-1.22975E+04,	0.00000E+00,	0,	0
  1.00446E-01,	1.00000E+01,	5.40629E-02,	2.66062E+02,	3.59788E+03,	-1.54701E+04,	0.00000E+00,	0,	0