Z60W Data File: Version 1.1
CorrTest for Windows: SN CS310H1805157  V5.2.1111.9  2.5H6.220118
Sweep Frequency: Control Voltage
  Date:4-29-2026   Time:13:44:29
  Begin Information:            Cell Information
      Surface Area:           1
      Density:                7.8
      Weight:                 28
  End Information:              Cell Information
  Freq (Hz)     Ampl(mV)       Bias(V)      Time(Sec)       Z'(Ohm.cm^2)    Z''(Ohm.cm^2)        GD       Err      Range
End Comments
  3.07200E+05,	1.00000E+01,	5.21685E-02,	2.87430E-02,	2.21535E+00,	4.71184E+00,	0.00000E+00,	0,	0
  2.76480E+05,	1.00000E+01,	5.21685E-02,	1.62501E+00,	2.67958E+00,	3.89285E+00,	0.00000E+00,	0,	0
  1.97486E+05,	1.00000E+01,	5.21685E-02,	2.52064E+00,	3.35438E+00,	2.76391E+00,	0.00000E+00,	0,	0
  1.53600E+05,	1.00000E+01,	5.21685E-02,	3.42123E+00,	3.58662E+00,	2.07561E+00,	0.00000E+00,	0,	0
  1.25673E+05,	1.00000E+01,	5.21685E-02,	4.31925E+00,	3.73631E+00,	1.63589E+00,	0.00000E+00,	0,	0
  9.87429E+04,	1.00000E+01,	5.21685E-02,	5.21757E+00,	3.85893E+00,	1.20421E+00,	0.00000E+00,	0,	0
  7.68000E+04,	1.00000E+01,	5.21685E-02,	6.11781E+00,	3.94990E+00,	8.39500E-01,	0.00000E+00,	0,	0
  6.01043E+04,	1.00000E+01,	5.21685E-02,	9.33536E+00,	4.05062E+00,	4.73713E-01,	0.00000E+00,	0,	0
  4.93714E+04,	1.00000E+01,	5.21685E-02,	1.09441E+01,	4.09089E+00,	2.66130E-01,	0.00000E+00,	0,	0
  3.84000E+04,	1.00000E+01,	5.21685E-02,	1.18592E+01,	4.13455E+00,	3.58681E-02,	0.00000E+00,	0,	0
  3.00522E+04,	1.00000E+01,	5.21685E-02,	1.27256E+01,	4.17885E+00,	-1.85946E-01,	0.00000E+00,	0,	0
  2.38345E+04,	1.00000E+01,	5.21685E-02,	1.36397E+01,	4.23493E+00,	-3.88784E-01,	0.00000E+00,	0,	0
  1.86811E+04,	1.00000E+01,	5.21685E-02,	1.44860E+01,	4.29751E+00,	-6.15661E-01,	0.00000E+00,	0,	0
  1.47064E+04,	1.00000E+01,	5.21685E-02,	1.54478E+01,	4.36278E+00,	-8.46074E-01,	0.00000E+00,	0,	0
  1.15200E+04,	1.00000E+01,	5.21685E-02,	1.64127E+01,	4.45818E+00,	-1.10152E+00,	0.00000E+00,	0,	0
  9.60000E+03,	1.00000E+01,	5.21685E-02,	1.79830E+01,	4.53702E+00,	-1.31439E+00,	0.00000E+00,	0,	0
  7.51304E+03,	1.00000E+01,	5.21685E-02,	1.88697E+01,	4.64982E+00,	-1.63520E+00,	0.00000E+00,	0,	0
  5.76000E+03,	1.00000E+01,	5.21685E-02,	1.97867E+01,	4.81039E+00,	-2.05411E+00,	0.00000E+00,	0,	0
  4.54737E+03,	1.00000E+01,	5.21685E-02,	2.06652E+01,	4.96330E+00,	-2.48934E+00,	0.00000E+00,	0,	0
  3.60000E+03,	1.00000E+01,	5.21685E-02,	2.16639E+01,	5.13915E+00,	-3.00741E+00,	0.00000E+00,	0,	0
  2.88000E+03,	1.00000E+01,	5.21685E-02,	2.25762E+01,	5.33524E+00,	-3.59592E+00,	0.00000E+00,	0,	0
  2.27368E+03,	1.00000E+01,	5.21685E-02,	2.48605E+01,	5.51783E+00,	-4.29509E+00,	0.00000E+00,	0,	0
  1.78144E+03,	1.00000E+01,	5.21685E-02,	2.56511E+01,	5.78967E+00,	-5.22312E+00,	0.00000E+00,	0,	0
  1.41639E+03,	1.00000E+01,	5.21685E-02,	2.65457E+01,	6.08641E+00,	-6.28074E+00,	0.00000E+00,	0,	0
  1.12208E+03,	1.00000E+01,	5.21685E-02,	2.75786E+01,	6.41629E+00,	-7.59964E+00,	0.00000E+00,	0,	0
  9.00000E+02,	1.00000E+01,	5.21685E-02,	3.25673E+01,	6.80898E+00,	-9.14684E+00,	0.00000E+00,	0,	0
  7.20000E+02,	1.00000E+01,	5.21685E-02,	3.39353E+01,	7.23278E+00,	-1.10274E+01,	0.00000E+00,	0,	0
  5.68421E+02,	1.00000E+01,	5.21685E-02,	3.53248E+01,	7.75611E+00,	-1.34695E+01,	0.00000E+00,	0,	0
  4.40816E+02,	1.00000E+01,	5.21685E-02,	3.83484E+01,	8.45584E+00,	-1.67883E+01,	0.00000E+00,	0,	0
  3.54098E+02,	1.00000E+01,	5.21685E-02,	4.06920E+01,	9.14719E+00,	-2.02884E+01,	0.00000E+00,	0,	0
  2.76923E+02,	1.00000E+01,	5.21685E-02,	4.33193E+01,	1.00870E+01,	-2.51198E+01,	0.00000E+00,	0,	0
  2.20408E+02,	1.00000E+01,	5.21685E-02,	4.62635E+01,	1.11473E+01,	-3.06967E+01,	0.00000E+00,	0,	0
  1.74194E+02,	1.00000E+01,	5.21685E-02,	4.95247E+01,	1.24872E+01,	-3.77763E+01,	0.00000E+00,	0,	0
  1.37580E+02,	1.00000E+01,	5.21685E-02,	5.32282E+01,	1.41652E+01,	-4.65603E+01,	0.00000E+00,	0,	0
  1.09091E+02,	1.00000E+01,	5.21685E-02,	5.73442E+01,	1.62136E+01,	-5.72536E+01,	0.00000E+00,	0,	0
  8.70968E+01,	1.00000E+01,	5.21685E-02,	6.30493E+01,	1.86863E+01,	-7.00850E+01,	0.00000E+00,	0,	0
  6.83544E+01,	1.00000E+01,	5.21685E-02,	6.80664E+01,	2.20889E+01,	-8.74842E+01,	0.00000E+00,	0,	0
  5.45455E+01,	1.00000E+01,	5.21685E-02,	7.35199E+01,	2.66048E+01,	-1.05360E+02,	0.00000E+00,	0,	0
  4.28571E+01,	1.00000E+01,	5.21685E-02,	7.70813E+01,	3.23671E+01,	-1.30260E+02,	0.00000E+00,	0,	0
  3.39623E+01,	1.00000E+01,	5.21685E-02,	8.08199E+01,	3.85086E+01,	-1.59421E+02,	0.00000E+00,	0,	0
  2.68657E+01,	1.00000E+01,	5.21685E-02,	8.46462E+01,	4.80466E+01,	-1.96213E+02,	0.00000E+00,	0,	0
  2.13439E+01,	1.00000E+01,	5.21685E-02,	8.84476E+01,	5.99811E+01,	-2.39632E+02,	0.00000E+00,	0,	0
  1.73077E+01,	1.00000E+01,	5.21685E-02,	9.51488E+01,	7.38222E+01,	-2.87633E+02,	0.00000E+00,	0,	0
  1.36364E+01,	1.00000E+01,	5.21685E-02,	1.00163E+02,	9.35308E+01,	-3.52292E+02,	0.00000E+00,	0,	0
  1.07143E+01,	1.00000E+01,	5.21685E-02,	1.03066E+02,	1.19299E+02,	-4.31191E+02,	0.00000E+00,	0,	0
  8.49057E+00,	1.00000E+01,	5.21685E-02,	1.07311E+02,	1.51073E+02,	-5.22958E+02,	0.00000E+00,	0,	0
  6.71642E+00,	1.00000E+01,	5.21685E-02,	1.09832E+02,	1.92044E+02,	-6.33202E+02,	0.00000E+00,	0,	0
  5.29412E+00,	1.00000E+01,	5.21685E-02,	1.12793E+02,	2.44710E+02,	-7.64702E+02,	0.00000E+00,	0,	0
  4.16667E+00,	1.00000E+01,	5.21685E-02,	1.16269E+02,	3.10445E+02,	-9.22154E+02,	0.00000E+00,	0,	0
  3.30882E+00,	1.00000E+01,	5.21685E-02,	1.22800E+02,	3.87646E+02,	-1.09981E+03,	0.00000E+00,	0,	0
  2.61628E+00,	1.00000E+01,	5.21685E-02,	1.26776E+02,	4.82649E+02,	-1.31199E+03,	0.00000E+00,	0,	0
  2.07373E+00,	1.00000E+01,	5.21685E-02,	1.31597E+02,	5.94353E+02,	-1.55859E+03,	0.00000E+00,	0,	0
  1.64234E+00,	1.00000E+01,	5.21685E-02,	1.37433E+02,	7.25336E+02,	-1.84941E+03,	0.00000E+00,	0,	0
  1.30058E+00,	1.00000E+01,	5.21685E-02,	1.41619E+02,	8.77702E+02,	-2.19070E+03,	0.00000E+00,	0,	0
  1.03211E+00,	1.00000E+01,	5.21685E-02,	1.46076E+02,	1.05425E+03,	-2.59485E+03,	0.00000E+00,	0,	0
  8.15217E-01,	1.00000E+01,	5.21685E-02,	1.53063E+02,	1.25202E+03,	-3.07809E+03,	0.00000E+00,	0,	0
  6.46552E-01,	1.00000E+01,	5.21685E-02,	1.57872E+02,	1.47797E+03,	-3.64731E+03,	0.00000E+00,	0,	0
  5.11364E-01,	1.00000E+01,	5.21685E-02,	1.62879E+02,	1.67536E+03,	-4.37393E+03,	0.00000E+00,	0,	0
  4.07609E-01,	1.00000E+01,	5.21685E-02,	1.68924E+02,	1.94895E+03,	-5.19517E+03,	0.00000E+00,	0,	0
  3.21429E-01,	1.00000E+01,	5.21685E-02,	1.76043E+02,	2.28247E+03,	-6.34458E+03,	0.00000E+00,	0,	0
  2.54525E-01,	1.00000E+01,	5.21685E-02,	1.84815E+02,	2.64500E+03,	-7.59798E+03,	0.00000E+00,	0,	0
  2.01613E-01,	1.00000E+01,	5.21685E-02,	1.95654E+02,	3.03934E+03,	-9.15713E+03,	0.00000E+00,	0,	0
  1.59574E-01,	1.00000E+01,	5.21685E-02,	2.09091E+02,	3.48787E+03,	-1.10858E+04,	0.00000E+00,	0,	0
  1.26689E-01,	1.00000E+01,	5.21685E-02,	2.42997E+02,	4.03548E+03,	-1.32432E+04,	0.00000E+00,	0,	0
  1.00446E-01,	1.00000E+01,	5.21685E-02,	2.63862E+02,	4.55548E+03,	-1.66374E+04,	0.00000E+00,	0,	0