Z60W Data File: Version 1.1
CorrTest for Windows: SN CS310H1805157  V5.2.1111.9  2.5H6.220118
Sweep Frequency: Control Voltage
  Date:4-29-2026   Time:14:15:58
  Begin Information:            Cell Information
      Surface Area:           1
      Density:                7.8
      Weight:                 28
  End Information:              Cell Information
  Freq (Hz)     Ampl(mV)       Bias(V)      Time(Sec)       Z'(Ohm.cm^2)    Z''(Ohm.cm^2)        GD       Err      Range
End Comments
  3.07200E+05,	1.00000E+01,	4.64494E-02,	2.59831E-02,	3.98458E+01,	2.01708E+01,	0.00000E+00,	0,	0
  2.76480E+05,	1.00000E+01,	4.64494E-02,	1.63242E+00,	3.95187E+01,	1.78119E+01,	0.00000E+00,	0,	0
  1.97486E+05,	1.00000E+01,	4.64494E-02,	2.53256E+00,	3.87950E+01,	1.26980E+01,	0.00000E+00,	0,	0
  1.53600E+05,	1.00000E+01,	4.64494E-02,	3.42352E+00,	3.84521E+01,	9.71895E+00,	0.00000E+00,	0,	0
  1.25673E+05,	1.00000E+01,	4.64494E-02,	4.31357E+00,	3.84322E+01,	7.82633E+00,	0.00000E+00,	0,	0
  9.87429E+04,	1.00000E+01,	4.64494E-02,	5.24221E+00,	3.83439E+01,	5.89587E+00,	0.00000E+00,	0,	0
  7.68000E+04,	1.00000E+01,	4.64494E-02,	6.14330E+00,	3.84136E+01,	4.27780E+00,	0.00000E+00,	0,	0
  6.01043E+04,	1.00000E+01,	4.64494E-02,	8.26605E+00,	3.85373E+01,	3.09925E+00,	0.00000E+00,	0,	0
  4.93714E+04,	1.00000E+01,	4.64494E-02,	9.86090E+00,	3.87710E+01,	2.21169E+00,	0.00000E+00,	0,	0
  3.84000E+04,	1.00000E+01,	4.64494E-02,	1.07704E+01,	3.89181E+01,	1.33362E+00,	0.00000E+00,	0,	0
  3.00522E+04,	1.00000E+01,	4.64494E-02,	1.16244E+01,	3.91883E+01,	5.41645E-01,	0.00000E+00,	0,	0
  2.38345E+04,	1.00000E+01,	4.64494E-02,	1.24892E+01,	3.92060E+01,	-1.26893E-01,	0.00000E+00,	0,	0
  1.86811E+04,	1.00000E+01,	4.64494E-02,	1.33372E+01,	3.94620E+01,	-7.22797E-01,	0.00000E+00,	0,	0
  1.47064E+04,	1.00000E+01,	4.64494E-02,	1.43257E+01,	3.96229E+01,	-1.25986E+00,	0.00000E+00,	0,	0
  1.15200E+04,	1.00000E+01,	4.64494E-02,	1.53085E+01,	3.98906E+01,	-2.00331E+00,	0.00000E+00,	0,	0
  9.60000E+03,	1.00000E+01,	4.64494E-02,	1.69017E+01,	4.02126E+01,	-2.38400E+00,	0.00000E+00,	0,	0
  7.51304E+03,	1.00000E+01,	4.64494E-02,	1.77778E+01,	4.05343E+01,	-3.08714E+00,	0.00000E+00,	0,	0
  5.76000E+03,	1.00000E+01,	4.64494E-02,	1.86805E+01,	4.09637E+01,	-3.92036E+00,	0.00000E+00,	0,	0
  4.54737E+03,	1.00000E+01,	4.64494E-02,	1.95301E+01,	4.14335E+01,	-4.70831E+00,	0.00000E+00,	0,	0
  3.60000E+03,	1.00000E+01,	4.64494E-02,	2.05274E+01,	4.19896E+01,	-5.69143E+00,	0.00000E+00,	0,	0
  2.88000E+03,	1.00000E+01,	4.64494E-02,	2.14389E+01,	4.25968E+01,	-6.76830E+00,	0.00000E+00,	0,	0
  2.27368E+03,	1.00000E+01,	4.64494E-02,	2.37389E+01,	4.32532E+01,	-8.03245E+00,	0.00000E+00,	0,	0
  1.78144E+03,	1.00000E+01,	4.64494E-02,	2.45337E+01,	4.41061E+01,	-9.53931E+00,	0.00000E+00,	0,	0
  1.41639E+03,	1.00000E+01,	4.64494E-02,	2.54195E+01,	4.47935E+01,	-1.12760E+01,	0.00000E+00,	0,	0
  1.12208E+03,	1.00000E+01,	4.64494E-02,	2.64464E+01,	4.58570E+01,	-1.33725E+01,	0.00000E+00,	0,	0
  9.00000E+02,	1.00000E+01,	4.64494E-02,	3.14342E+01,	4.73098E+01,	-1.56932E+01,	0.00000E+00,	0,	0
  7.20000E+02,	1.00000E+01,	4.64494E-02,	3.28081E+01,	4.85647E+01,	-1.84524E+01,	0.00000E+00,	0,	0
  5.68421E+02,	1.00000E+01,	4.64494E-02,	3.41987E+01,	5.00880E+01,	-2.19382E+01,	0.00000E+00,	0,	0
  4.40816E+02,	1.00000E+01,	4.64494E-02,	3.56578E+01,	5.19358E+01,	-2.64499E+01,	0.00000E+00,	0,	0
  3.54098E+02,	1.00000E+01,	4.64494E-02,	3.80007E+01,	5.37854E+01,	-3.11430E+01,	0.00000E+00,	0,	0
  2.76923E+02,	1.00000E+01,	4.64494E-02,	4.06270E+01,	5.61720E+01,	-3.74951E+01,	0.00000E+00,	0,	0
  2.20408E+02,	1.00000E+01,	4.64494E-02,	4.35948E+01,	5.86726E+01,	-4.46663E+01,	0.00000E+00,	0,	0
  1.74194E+02,	1.00000E+01,	4.64494E-02,	4.68795E+01,	6.15669E+01,	-5.36745E+01,	0.00000E+00,	0,	0
  1.37580E+02,	1.00000E+01,	4.64494E-02,	5.05232E+01,	6.48262E+01,	-6.47239E+01,	0.00000E+00,	0,	0
  1.09091E+02,	1.00000E+01,	4.64494E-02,	5.45806E+01,	6.84751E+01,	-7.81399E+01,	0.00000E+00,	0,	0
  8.70968E+01,	1.00000E+01,	4.64494E-02,	6.27087E+01,	7.30013E+01,	-9.45404E+01,	0.00000E+00,	0,	0
  6.83544E+01,	1.00000E+01,	4.64494E-02,	6.77269E+01,	7.82179E+01,	-1.16554E+02,	0.00000E+00,	0,	0
  5.45455E+01,	1.00000E+01,	4.64494E-02,	7.31674E+01,	8.35679E+01,	-1.38744E+02,	0.00000E+00,	0,	0
  4.28571E+01,	1.00000E+01,	4.64494E-02,	7.66876E+01,	9.02520E+01,	-1.70422E+02,	0.00000E+00,	0,	0
  3.39623E+01,	1.00000E+01,	4.64494E-02,	8.04055E+01,	9.64967E+01,	-2.08219E+02,	0.00000E+00,	0,	0
  2.68657E+01,	1.00000E+01,	4.64494E-02,	8.42508E+01,	1.06296E+02,	-2.56161E+02,	0.00000E+00,	0,	0
  2.13439E+01,	1.00000E+01,	4.64494E-02,	8.80908E+01,	1.17696E+02,	-3.13800E+02,	0.00000E+00,	0,	0
  1.73077E+01,	1.00000E+01,	4.64494E-02,	9.17678E+01,	1.30056E+02,	-3.77788E+02,	0.00000E+00,	0,	0
  1.36364E+01,	1.00000E+01,	4.64494E-02,	9.67925E+01,	1.47408E+02,	-4.66695E+02,	0.00000E+00,	0,	0
  1.07143E+01,	1.00000E+01,	4.64494E-02,	9.97071E+01,	1.69025E+02,	-5.78075E+02,	0.00000E+00,	0,	0
  8.49057E+00,	1.00000E+01,	4.64494E-02,	1.03901E+02,	1.95453E+02,	-7.11254E+02,	0.00000E+00,	0,	0
  6.71642E+00,	1.00000E+01,	4.64494E-02,	1.06469E+02,	2.29215E+02,	-8.76070E+02,	0.00000E+00,	0,	0
  5.29412E+00,	1.00000E+01,	4.64494E-02,	1.09419E+02,	2.73397E+02,	-1.08184E+03,	0.00000E+00,	0,	0
  4.16667E+00,	1.00000E+01,	4.64494E-02,	1.12916E+02,	3.30452E+02,	-1.33744E+03,	0.00000E+00,	0,	0
  3.30882E+00,	1.00000E+01,	4.64494E-02,	1.19444E+02,	4.01133E+02,	-1.63736E+03,	0.00000E+00,	0,	0
  2.61628E+00,	1.00000E+01,	4.64494E-02,	1.23431E+02,	4.94831E+02,	-2.01107E+03,	0.00000E+00,	0,	0
  2.07373E+00,	1.00000E+01,	4.64494E-02,	1.28224E+02,	6.13292E+02,	-2.46213E+03,	0.00000E+00,	0,	0
  1.64234E+00,	1.00000E+01,	4.64494E-02,	1.34048E+02,	7.66576E+02,	-3.01203E+03,	0.00000E+00,	0,	0
  1.30058E+00,	1.00000E+01,	4.64494E-02,	1.38213E+02,	9.66458E+02,	-3.67640E+03,	0.00000E+00,	0,	0
  1.03211E+00,	1.00000E+01,	4.64494E-02,	1.42622E+02,	1.22248E+03,	-4.47391E+03,	0.00000E+00,	0,	0
  8.15217E-01,	1.00000E+01,	4.64494E-02,	1.49592E+02,	1.55219E+03,	-5.43993E+03,	0.00000E+00,	0,	0
  6.46552E-01,	1.00000E+01,	4.64494E-02,	1.54410E+02,	1.97360E+03,	-6.57948E+03,	0.00000E+00,	0,	0
  5.11364E-01,	1.00000E+01,	4.64494E-02,	1.59396E+02,	2.43410E+03,	-7.96646E+03,	0.00000E+00,	0,	0
  4.07609E-01,	1.00000E+01,	4.64494E-02,	1.65451E+02,	3.07053E+03,	-9.54138E+03,	0.00000E+00,	0,	0
  3.21429E-01,	1.00000E+01,	4.64494E-02,	1.72575E+02,	3.89966E+03,	-1.16053E+04,	0.00000E+00,	0,	0
  2.54525E-01,	1.00000E+01,	4.64494E-02,	1.81360E+02,	4.90964E+03,	-1.38517E+04,	0.00000E+00,	0,	0
  2.01613E-01,	1.00000E+01,	4.64494E-02,	1.92232E+02,	6.09936E+03,	-1.65239E+04,	0.00000E+00,	0,	0
  1.59574E-01,	1.00000E+01,	4.64494E-02,	2.05696E+02,	7.51936E+03,	-1.96973E+04,	0.00000E+00,	0,	0
  1.26689E-01,	1.00000E+01,	4.64494E-02,	2.39582E+02,	9.21764E+03,	-2.32081E+04,	0.00000E+00,	0,	0
  1.00446E-01,	1.00000E+01,	4.64494E-02,	2.60510E+02,	1.10704E+04,	-2.84805E+04,	0.00000E+00,	0,	0