Z60W Data File: Version 1.1
CorrTest for Windows: SN CS310H1805157  V5.2.1111.9  2.5H6.220118
Sweep Frequency: Control Voltage
  Date:4-29-2026   Time:10:02:55
  Begin Information:            Cell Information
      Surface Area:           1
      Density:                7.8
      Weight:                 28
  End Information:              Cell Information
  Freq (Hz)     Ampl(mV)       Bias(V)      Time(Sec)       Z'(Ohm.cm^2)    Z''(Ohm.cm^2)        GD       Err      Range
End Comments
  3.07200E+05,	1.00000E+01,	4.76033E-02,	2.68684E-02,	-1.51914E+00,	2.80674E+00,	0.00000E+00,	0,	0
  2.76480E+05,	1.00000E+01,	4.76033E-02,	1.66381E+00,	-9.54331E-01,	2.19350E+00,	0.00000E+00,	0,	0
  1.97486E+05,	1.00000E+01,	4.76033E-02,	2.63319E+00,	-2.27365E-01,	1.55881E+00,	0.00000E+00,	0,	0
  1.53600E+05,	1.00000E+01,	4.76033E-02,	3.53836E+00,	8.75818E-02,	1.17613E+00,	0.00000E+00,	0,	0
  1.25673E+05,	1.00000E+01,	4.76033E-02,	4.44570E+00,	2.42576E-01,	9.34562E-01,	0.00000E+00,	0,	0
  9.87429E+04,	1.00000E+01,	4.76033E-02,	5.37315E+00,	3.73816E-01,	7.07682E-01,	0.00000E+00,	0,	0
  7.68000E+04,	1.00000E+01,	4.76033E-02,	6.29469E+00,	4.49207E-01,	5.16233E-01,	0.00000E+00,	0,	0
  6.01043E+04,	1.00000E+01,	4.76033E-02,	9.50929E+00,	5.08760E-01,	3.12195E-01,	0.00000E+00,	0,	0
  4.93714E+04,	1.00000E+01,	4.76033E-02,	1.10935E+01,	5.28005E-01,	2.10001E-01,	0.00000E+00,	0,	0
  3.84000E+04,	1.00000E+01,	4.76033E-02,	1.19936E+01,	5.42177E-01,	8.60614E-02,	0.00000E+00,	0,	0
  3.00522E+04,	1.00000E+01,	4.76033E-02,	1.28552E+01,	5.57967E-01,	-2.67608E-02,	0.00000E+00,	0,	0
  2.38345E+04,	1.00000E+01,	4.76033E-02,	1.37207E+01,	5.70829E-01,	-1.33006E-01,	0.00000E+00,	0,	0
  1.86811E+04,	1.00000E+01,	4.76033E-02,	1.45728E+01,	5.88110E-01,	-2.47515E-01,	0.00000E+00,	0,	0
  1.47064E+04,	1.00000E+01,	4.76033E-02,	1.55326E+01,	6.07878E-01,	-3.68939E-01,	0.00000E+00,	0,	0
  1.15200E+04,	1.00000E+01,	4.76033E-02,	1.64932E+01,	6.31796E-01,	-5.08785E-01,	0.00000E+00,	0,	0
  9.60000E+03,	1.00000E+01,	4.76033E-02,	1.80800E+01,	6.53550E-01,	-6.26238E-01,	0.00000E+00,	0,	0
  7.51304E+03,	1.00000E+01,	4.76033E-02,	1.89819E+01,	6.87671E-01,	-8.09581E-01,	0.00000E+00,	0,	0
  5.76000E+03,	1.00000E+01,	4.76033E-02,	1.98946E+01,	7.33797E-01,	-1.05036E+00,	0.00000E+00,	0,	0
  4.54737E+03,	1.00000E+01,	4.76033E-02,	2.07824E+01,	7.85939E-01,	-1.31245E+00,	0.00000E+00,	0,	0
  3.60000E+03,	1.00000E+01,	4.76033E-02,	2.17913E+01,	8.50110E-01,	-1.62468E+00,	0.00000E+00,	0,	0
  2.88000E+03,	1.00000E+01,	4.76033E-02,	2.27282E+01,	9.25189E-01,	-1.98812E+00,	0.00000E+00,	0,	0
  2.27368E+03,	1.00000E+01,	4.76033E-02,	2.50217E+01,	1.02006E+00,	-2.44040E+00,	0.00000E+00,	0,	0
  1.78144E+03,	1.00000E+01,	4.76033E-02,	2.58331E+01,	1.14976E+00,	-3.03075E+00,	0.00000E+00,	0,	0
  1.41639E+03,	1.00000E+01,	4.76033E-02,	2.67494E+01,	1.30794E+00,	-3.70733E+00,	0.00000E+00,	0,	0
  1.12208E+03,	1.00000E+01,	4.76033E-02,	2.77762E+01,	1.51355E+00,	-4.54513E+00,	0.00000E+00,	0,	0
  9.00000E+02,	1.00000E+01,	4.76033E-02,	3.28022E+01,	1.76512E+00,	-5.52026E+00,	0.00000E+00,	0,	0
  7.20000E+02,	1.00000E+01,	4.76033E-02,	3.41879E+01,	2.07921E+00,	-6.69091E+00,	0.00000E+00,	0,	0
  5.68421E+02,	1.00000E+01,	4.76033E-02,	3.55616E+01,	2.50678E+00,	-8.18898E+00,	0.00000E+00,	0,	0
  4.40816E+02,	1.00000E+01,	4.76033E-02,	3.70339E+01,	3.09892E+00,	-1.01540E+01,	0.00000E+00,	0,	0
  3.54098E+02,	1.00000E+01,	4.76033E-02,	3.93695E+01,	3.74799E+00,	-1.21923E+01,	0.00000E+00,	0,	0
  2.76923E+02,	1.00000E+01,	4.76033E-02,	4.20182E+01,	4.68591E+00,	-1.49366E+01,	0.00000E+00,	0,	0
  2.20408E+02,	1.00000E+01,	4.76033E-02,	4.49866E+01,	5.78961E+00,	-1.79891E+01,	0.00000E+00,	0,	0
  1.74194E+02,	1.00000E+01,	4.76033E-02,	4.82430E+01,	7.21516E+00,	-2.17123E+01,	0.00000E+00,	0,	0
  1.37580E+02,	1.00000E+01,	4.76033E-02,	5.18963E+01,	8.98818E+00,	-2.61240E+01,	0.00000E+00,	0,	0
  1.09091E+02,	1.00000E+01,	4.76033E-02,	5.59772E+01,	1.11183E+01,	-3.12504E+01,	0.00000E+00,	0,	0
  8.70968E+01,	1.00000E+01,	4.76033E-02,	6.41046E+01,	1.36314E+01,	-3.72371E+01,	0.00000E+00,	0,	0
  6.83544E+01,	1.00000E+01,	4.76033E-02,	6.91339E+01,	1.68352E+01,	-4.49068E+01,	0.00000E+00,	0,	0
  5.45455E+01,	1.00000E+01,	4.76033E-02,	7.46361E+01,	2.04486E+01,	-5.22498E+01,	0.00000E+00,	0,	0
  4.28571E+01,	1.00000E+01,	4.76033E-02,	7.82095E+01,	2.48108E+01,	-6.23098E+01,	0.00000E+00,	0,	0
  3.39623E+01,	1.00000E+01,	4.76033E-02,	8.19421E+01,	2.91814E+01,	-7.37613E+01,	0.00000E+00,	0,	0
  2.68657E+01,	1.00000E+01,	4.76033E-02,	8.58114E+01,	3.49476E+01,	-8.78516E+01,	0.00000E+00,	0,	0
  2.13439E+01,	1.00000E+01,	4.76033E-02,	8.96240E+01,	4.12949E+01,	-1.04167E+02,	0.00000E+00,	0,	0
  1.73077E+01,	1.00000E+01,	4.76033E-02,	9.63308E+01,	4.78152E+01,	-1.21982E+02,	0.00000E+00,	0,	0
  1.36364E+01,	1.00000E+01,	4.76033E-02,	1.01364E+02,	5.58563E+01,	-1.45936E+02,	0.00000E+00,	0,	0
  1.07143E+01,	1.00000E+01,	4.76033E-02,	1.04321E+02,	6.48432E+01,	-1.75411E+02,	0.00000E+00,	0,	0
  8.49057E+00,	1.00000E+01,	4.76033E-02,	1.08564E+02,	7.43778E+01,	-2.10389E+02,	0.00000E+00,	0,	0
  6.71642E+00,	1.00000E+01,	4.76033E-02,	1.11104E+02,	8.49387E+01,	-2.53641E+02,	0.00000E+00,	0,	0
  5.29412E+00,	1.00000E+01,	4.76033E-02,	1.14068E+02,	9.69697E+01,	-3.07871E+02,	0.00000E+00,	0,	0
  4.16667E+00,	1.00000E+01,	4.76033E-02,	1.17574E+02,	1.10467E+02,	-3.75919E+02,	0.00000E+00,	0,	0
  3.30882E+00,	1.00000E+01,	4.76033E-02,	1.21794E+02,	1.25177E+02,	-4.57275E+02,	0.00000E+00,	0,	0
  2.61628E+00,	1.00000E+01,	4.76033E-02,	1.25794E+02,	1.42615E+02,	-5.59786E+02,	0.00000E+00,	0,	0
  2.07373E+00,	1.00000E+01,	4.76033E-02,	1.30571E+02,	1.62689E+02,	-6.86056E+02,	0.00000E+00,	0,	0
  1.64234E+00,	1.00000E+01,	4.76033E-02,	1.36417E+02,	1.86338E+02,	-8.43326E+02,	0.00000E+00,	0,	0
  1.30058E+00,	1.00000E+01,	4.76033E-02,	1.40588E+02,	2.14996E+02,	-1.03860E+03,	0.00000E+00,	0,	0
  1.03211E+00,	1.00000E+01,	4.76033E-02,	1.44990E+02,	2.49231E+02,	-1.27868E+03,	0.00000E+00,	0,	0
  8.15217E-01,	1.00000E+01,	4.76033E-02,	1.51995E+02,	2.91417E+02,	-1.58134E+03,	0.00000E+00,	0,	0
  6.46552E-01,	1.00000E+01,	4.76033E-02,	1.61120E+02,	3.30785E+02,	-1.95401E+03,	0.00000E+00,	0,	0
  5.11364E-01,	1.00000E+01,	4.76033E-02,	1.66121E+02,	3.90525E+02,	-2.43818E+03,	0.00000E+00,	0,	0
  4.07609E-01,	1.00000E+01,	4.76033E-02,	1.72213E+02,	4.63894E+02,	-3.00140E+03,	0.00000E+00,	0,	0
  3.21429E-01,	1.00000E+01,	4.76033E-02,	1.79351E+02,	5.51659E+02,	-3.75631E+03,	0.00000E+00,	0,	0
  2.54525E-01,	1.00000E+01,	4.76033E-02,	1.88116E+02,	6.66166E+02,	-4.65396E+03,	0.00000E+00,	0,	0
  2.01613E-01,	1.00000E+01,	4.76033E-02,	1.98976E+02,	8.08854E+02,	-5.76745E+03,	0.00000E+00,	0,	0
  1.59574E-01,	1.00000E+01,	4.76033E-02,	2.12491E+02,	9.88787E+02,	-7.15732E+03,	0.00000E+00,	0,	0
  1.26689E-01,	1.00000E+01,	4.76033E-02,	2.29374E+02,	1.21631E+03,	-8.85528E+03,	0.00000E+00,	0,	0
  1.00446E-01,	1.00000E+01,	4.76033E-02,	2.50233E+02,	1.49296E+03,	-1.09775E+04,	0.00000E+00,	0,	0