Z60W Data File: Version 1.1
CorrTest for Windows: SN CS310H1805157  V5.2.1111.9  2.5H6.220118
Sweep Frequency: Control Voltage
  Date:4-29-2026   Time:10:34:58
  Begin Information:            Cell Information
      Surface Area:           1
      Density:                7.8
      Weight:                 28
  End Information:              Cell Information
  Freq (Hz)     Ampl(mV)       Bias(V)      Time(Sec)       Z'(Ohm.cm^2)    Z''(Ohm.cm^2)        GD       Err      Range
End Comments
  3.07200E+05,	1.00000E+01,	4.88106E-02,	3.64831E-02,	-1.46014E+00,	2.83262E+00,	0.00000E+00,	0,	0
  2.76480E+05,	1.00000E+01,	4.88106E-02,	1.62898E+00,	-8.74348E-01,	2.20994E+00,	0.00000E+00,	0,	0
  1.97486E+05,	1.00000E+01,	4.88106E-02,	2.52932E+00,	-1.39070E-01,	1.57664E+00,	0.00000E+00,	0,	0
  1.53600E+05,	1.00000E+01,	4.88106E-02,	3.41725E+00,	1.55524E-01,	1.19925E+00,	0.00000E+00,	0,	0
  1.25673E+05,	1.00000E+01,	4.88106E-02,	4.35745E+00,	3.09678E-01,	9.48391E-01,	0.00000E+00,	0,	0
  9.87429E+04,	1.00000E+01,	4.88106E-02,	5.25207E+00,	4.41032E-01,	7.12525E-01,	0.00000E+00,	0,	0
  7.68000E+04,	1.00000E+01,	4.88106E-02,	6.15494E+00,	5.24627E-01,	5.18613E-01,	0.00000E+00,	0,	0
  6.01043E+04,	1.00000E+01,	4.88106E-02,	9.36352E+00,	5.78170E-01,	3.12735E-01,	0.00000E+00,	0,	0
  4.93714E+04,	1.00000E+01,	4.88106E-02,	1.09280E+01,	5.99827E-01,	2.03748E-01,	0.00000E+00,	0,	0
  3.84000E+04,	1.00000E+01,	4.88106E-02,	1.18741E+01,	6.17388E-01,	7.76604E-02,	0.00000E+00,	0,	0
  3.00522E+04,	1.00000E+01,	4.88106E-02,	1.27542E+01,	6.31515E-01,	-3.86828E-02,	0.00000E+00,	0,	0
  2.38345E+04,	1.00000E+01,	4.88106E-02,	1.36297E+01,	6.46863E-01,	-1.49824E-01,	0.00000E+00,	0,	0
  1.86811E+04,	1.00000E+01,	4.88106E-02,	1.44810E+01,	6.65674E-01,	-2.69205E-01,	0.00000E+00,	0,	0
  1.47064E+04,	1.00000E+01,	4.88106E-02,	1.54302E+01,	6.85901E-01,	-3.97398E-01,	0.00000E+00,	0,	0
  1.15200E+04,	1.00000E+01,	4.88106E-02,	1.64248E+01,	7.12960E-01,	-5.42783E-01,	0.00000E+00,	0,	0
  9.60000E+03,	1.00000E+01,	4.88106E-02,	1.80052E+01,	7.35451E-01,	-6.65256E-01,	0.00000E+00,	0,	0
  7.51304E+03,	1.00000E+01,	4.88106E-02,	1.89099E+01,	7.72123E-01,	-8.57938E-01,	0.00000E+00,	0,	0
  5.76000E+03,	1.00000E+01,	4.88106E-02,	1.98373E+01,	8.22304E-01,	-1.10927E+00,	0.00000E+00,	0,	0
  4.54737E+03,	1.00000E+01,	4.88106E-02,	2.07166E+01,	8.76319E-01,	-1.38376E+00,	0.00000E+00,	0,	0
  3.60000E+03,	1.00000E+01,	4.88106E-02,	2.17281E+01,	9.42752E-01,	-1.71449E+00,	0.00000E+00,	0,	0
  2.88000E+03,	1.00000E+01,	4.88106E-02,	2.26255E+01,	1.02186E+00,	-2.09693E+00,	0.00000E+00,	0,	0
  2.27368E+03,	1.00000E+01,	4.88106E-02,	2.48905E+01,	1.11435E+00,	-2.56967E+00,	0.00000E+00,	0,	0
  1.78144E+03,	1.00000E+01,	4.88106E-02,	2.57107E+01,	1.25082E+00,	-3.19006E+00,	0.00000E+00,	0,	0
  1.41639E+03,	1.00000E+01,	4.88106E-02,	2.66025E+01,	1.41634E+00,	-3.90948E+00,	0.00000E+00,	0,	0
  1.12208E+03,	1.00000E+01,	4.88106E-02,	2.76436E+01,	1.62397E+00,	-4.79412E+00,	0.00000E+00,	0,	0
  9.00000E+02,	1.00000E+01,	4.88106E-02,	3.26701E+01,	1.87982E+00,	-5.82793E+00,	0.00000E+00,	0,	0
  7.20000E+02,	1.00000E+01,	4.88106E-02,	3.40397E+01,	2.19925E+00,	-7.07013E+00,	0.00000E+00,	0,	0
  5.68421E+02,	1.00000E+01,	4.88106E-02,	3.54153E+01,	2.63387E+00,	-8.66344E+00,	0.00000E+00,	0,	0
  4.40816E+02,	1.00000E+01,	4.88106E-02,	3.84394E+01,	3.24255E+00,	-1.07866E+01,	0.00000E+00,	0,	0
  3.54098E+02,	1.00000E+01,	4.88106E-02,	4.07908E+01,	3.90860E+00,	-1.29778E+01,	0.00000E+00,	0,	0
  2.76923E+02,	1.00000E+01,	4.88106E-02,	4.34363E+01,	4.86998E+00,	-1.59296E+01,	0.00000E+00,	0,	0
  2.20408E+02,	1.00000E+01,	4.88106E-02,	4.63532E+01,	6.00020E+00,	-1.92259E+01,	0.00000E+00,	0,	0
  1.74194E+02,	1.00000E+01,	4.88106E-02,	4.96151E+01,	7.47658E+00,	-2.32701E+01,	0.00000E+00,	0,	0
  1.37580E+02,	1.00000E+01,	4.88106E-02,	5.32704E+01,	9.33578E+00,	-2.80861E+01,	0.00000E+00,	0,	0
  1.09091E+02,	1.00000E+01,	4.88106E-02,	5.73569E+01,	1.15959E+01,	-3.36962E+01,	0.00000E+00,	0,	0
  8.70968E+01,	1.00000E+01,	4.88106E-02,	6.30828E+01,	1.42417E+01,	-4.01359E+01,	0.00000E+00,	0,	0
  6.83544E+01,	1.00000E+01,	4.88106E-02,	6.81151E+01,	1.77041E+01,	-4.85112E+01,	0.00000E+00,	0,	0
  5.45455E+01,	1.00000E+01,	4.88106E-02,	7.35458E+01,	2.16605E+01,	-5.65330E+01,	0.00000E+00,	0,	0
  4.28571E+01,	1.00000E+01,	4.88106E-02,	7.70811E+01,	2.64733E+01,	-6.74679E+01,	0.00000E+00,	0,	0
  3.39623E+01,	1.00000E+01,	4.88106E-02,	8.08509E+01,	3.13430E+01,	-7.99035E+01,	0.00000E+00,	0,	0
  2.68657E+01,	1.00000E+01,	4.88106E-02,	8.47474E+01,	3.77706E+01,	-9.51346E+01,	0.00000E+00,	0,	0
  2.13439E+01,	1.00000E+01,	4.88106E-02,	8.85785E+01,	4.49093E+01,	-1.12705E+02,	0.00000E+00,	0,	0
  1.73077E+01,	1.00000E+01,	4.88106E-02,	9.53283E+01,	5.22906E+01,	-1.31844E+02,	0.00000E+00,	0,	0
  1.36364E+01,	1.00000E+01,	4.88106E-02,	1.00357E+02,	6.14673E+01,	-1.57458E+02,	0.00000E+00,	0,	0
  1.07143E+01,	1.00000E+01,	4.88106E-02,	1.03278E+02,	7.17989E+01,	-1.88804E+02,	0.00000E+00,	0,	0
  8.49057E+00,	1.00000E+01,	4.88106E-02,	1.07474E+02,	8.27994E+01,	-2.25762E+02,	0.00000E+00,	0,	0
  6.71642E+00,	1.00000E+01,	4.88106E-02,	1.10017E+02,	9.50087E+01,	-2.71360E+02,	0.00000E+00,	0,	0
  5.29412E+00,	1.00000E+01,	4.88106E-02,	1.13006E+02,	1.08639E+02,	-3.28126E+02,	0.00000E+00,	0,	0
  4.16667E+00,	1.00000E+01,	4.88106E-02,	1.16523E+02,	1.23932E+02,	-3.99380E+02,	0.00000E+00,	0,	0
  3.30882E+00,	1.00000E+01,	4.88106E-02,	1.20779E+02,	1.40482E+02,	-4.84405E+02,	0.00000E+00,	0,	0
  2.61628E+00,	1.00000E+01,	4.88106E-02,	1.24774E+02,	1.59668E+02,	-5.91532E+02,	0.00000E+00,	0,	0
  2.07373E+00,	1.00000E+01,	4.88106E-02,	1.29537E+02,	1.81560E+02,	-7.23391E+02,	0.00000E+00,	0,	0
  1.64234E+00,	1.00000E+01,	4.88106E-02,	1.35368E+02,	2.07055E+02,	-8.87590E+02,	0.00000E+00,	0,	0
  1.30058E+00,	1.00000E+01,	4.88106E-02,	1.39585E+02,	2.37730E+02,	-1.09148E+03,	0.00000E+00,	0,	0
  1.03211E+00,	1.00000E+01,	4.88106E-02,	1.43984E+02,	2.73997E+02,	-1.34285E+03,	0.00000E+00,	0,	0
  8.15217E-01,	1.00000E+01,	4.88106E-02,	1.51036E+02,	3.18322E+02,	-1.65948E+03,	0.00000E+00,	0,	0
  6.46552E-01,	1.00000E+01,	4.88106E-02,	1.60133E+02,	3.60670E+02,	-2.04920E+03,	0.00000E+00,	0,	0
  5.11364E-01,	1.00000E+01,	4.88106E-02,	1.65144E+02,	4.21865E+02,	-2.55484E+03,	0.00000E+00,	0,	0
  4.07609E-01,	1.00000E+01,	4.88106E-02,	1.71196E+02,	4.98162E+02,	-3.14558E+03,	0.00000E+00,	0,	0
  3.21429E-01,	1.00000E+01,	4.88106E-02,	1.78331E+02,	5.89538E+02,	-3.93515E+03,	0.00000E+00,	0,	0
  2.54525E-01,	1.00000E+01,	4.88106E-02,	1.87150E+02,	7.07401E+02,	-4.87251E+03,	0.00000E+00,	0,	0
  2.01613E-01,	1.00000E+01,	4.88106E-02,	1.98027E+02,	8.51421E+02,	-6.03862E+03,	0.00000E+00,	0,	0
  1.59574E-01,	1.00000E+01,	4.88106E-02,	2.11522E+02,	1.03193E+03,	-7.49053E+03,	0.00000E+00,	0,	0
  1.26689E-01,	1.00000E+01,	4.88106E-02,	2.28422E+02,	1.25241E+03,	-9.26122E+03,	0.00000E+00,	0,	0
  1.00446E-01,	1.00000E+01,	4.88106E-02,	2.49298E+02,	1.52754E+03,	-1.14798E+04,	0.00000E+00,	0,	0