Z60W Data File: Version 1.1
CorrTest for Windows: SN CS310H1805157  V5.2.1111.9  2.5H6.220118
Sweep Frequency: Control Voltage
  Date:4-29-2026   Time:11:13:59
  Begin Information:            Cell Information
      Surface Area:           1
      Density:                7.8
      Weight:                 28
  End Information:              Cell Information
  Freq (Hz)     Ampl(mV)       Bias(V)      Time(Sec)       Z'(Ohm.cm^2)    Z''(Ohm.cm^2)        GD       Err      Range
End Comments
  3.07200E+05,	1.00000E+01,	4.82045E-02,	6.03004E-02,	-1.42531E+00,	2.85388E+00,	0.00000E+00,	0,	0
  2.76480E+05,	1.00000E+01,	4.82045E-02,	1.70051E+00,	-9.01838E-01,	2.21504E+00,	0.00000E+00,	0,	0
  1.97486E+05,	1.00000E+01,	4.82045E-02,	2.59937E+00,	-1.28806E-01,	1.58292E+00,	0.00000E+00,	0,	0
  1.53600E+05,	1.00000E+01,	4.82045E-02,	3.50823E+00,	1.49920E-01,	1.20375E+00,	0.00000E+00,	0,	0
  1.25673E+05,	1.00000E+01,	4.82045E-02,	4.40691E+00,	3.16753E-01,	9.46173E-01,	0.00000E+00,	0,	0
  9.87429E+04,	1.00000E+01,	4.82045E-02,	5.30961E+00,	4.49635E-01,	7.06723E-01,	0.00000E+00,	0,	0
  7.68000E+04,	1.00000E+01,	4.82045E-02,	6.20289E+00,	5.33643E-01,	5.08015E-01,	0.00000E+00,	0,	0
  6.01043E+04,	1.00000E+01,	4.82045E-02,	9.47950E+00,	5.87835E-01,	3.02654E-01,	0.00000E+00,	0,	0
  4.93714E+04,	1.00000E+01,	4.82045E-02,	1.10893E+01,	6.04786E-01,	1.94069E-01,	0.00000E+00,	0,	0
  3.84000E+04,	1.00000E+01,	4.82045E-02,	1.20323E+01,	6.21954E-01,	6.01750E-02,	0.00000E+00,	0,	0
  3.00522E+04,	1.00000E+01,	4.82045E-02,	1.29259E+01,	6.40992E-01,	-5.34347E-02,	0.00000E+00,	0,	0
  2.38345E+04,	1.00000E+01,	4.82045E-02,	1.38360E+01,	6.57004E-01,	-1.66416E-01,	0.00000E+00,	0,	0
  1.86811E+04,	1.00000E+01,	4.82045E-02,	1.47243E+01,	6.75713E-01,	-2.89126E-01,	0.00000E+00,	0,	0
  1.47064E+04,	1.00000E+01,	4.82045E-02,	1.57435E+01,	6.98712E-01,	-4.20922E-01,	0.00000E+00,	0,	0
  1.15200E+04,	1.00000E+01,	4.82045E-02,	1.67127E+01,	7.26475E-01,	-5.71279E-01,	0.00000E+00,	0,	0
  9.60000E+03,	1.00000E+01,	4.82045E-02,	1.82932E+01,	7.50812E-01,	-6.99339E-01,	0.00000E+00,	0,	0
  7.51304E+03,	1.00000E+01,	4.82045E-02,	1.91650E+01,	7.89662E-01,	-8.97664E-01,	0.00000E+00,	0,	0
  5.76000E+03,	1.00000E+01,	4.82045E-02,	2.00865E+01,	8.42582E-01,	-1.15960E+00,	0.00000E+00,	0,	0
  4.54737E+03,	1.00000E+01,	4.82045E-02,	2.09418E+01,	8.99883E-01,	-1.44459E+00,	0.00000E+00,	0,	0
  3.60000E+03,	1.00000E+01,	4.82045E-02,	2.19443E+01,	9.68151E-01,	-1.78582E+00,	0.00000E+00,	0,	0
  2.88000E+03,	1.00000E+01,	4.82045E-02,	2.28488E+01,	1.04493E+00,	-2.18306E+00,	0.00000E+00,	0,	0
  2.27368E+03,	1.00000E+01,	4.82045E-02,	2.51881E+01,	1.14906E+00,	-2.67535E+00,	0.00000E+00,	0,	0
  1.78144E+03,	1.00000E+01,	4.82045E-02,	2.60229E+01,	1.28598E+00,	-3.32099E+00,	0.00000E+00,	0,	0
  1.41639E+03,	1.00000E+01,	4.82045E-02,	2.69321E+01,	1.44941E+00,	-4.07203E+00,	0.00000E+00,	0,	0
  1.12208E+03,	1.00000E+01,	4.82045E-02,	2.79875E+01,	1.65951E+00,	-4.99031E+00,	0.00000E+00,	0,	0
  9.00000E+02,	1.00000E+01,	4.82045E-02,	3.29716E+01,	1.92161E+00,	-6.07171E+00,	0.00000E+00,	0,	0
  7.20000E+02,	1.00000E+01,	4.82045E-02,	3.43341E+01,	2.24410E+00,	-7.37203E+00,	0.00000E+00,	0,	0
  5.68421E+02,	1.00000E+01,	4.82045E-02,	3.57338E+01,	2.68228E+00,	-9.04185E+00,	0.00000E+00,	0,	0
  4.40816E+02,	1.00000E+01,	4.82045E-02,	3.87597E+01,	3.30097E+00,	-1.12686E+01,	0.00000E+00,	0,	0
  3.54098E+02,	1.00000E+01,	4.82045E-02,	4.11428E+01,	3.97634E+00,	-1.35815E+01,	0.00000E+00,	0,	0
  2.76923E+02,	1.00000E+01,	4.82045E-02,	4.37732E+01,	4.94428E+00,	-1.66885E+01,	0.00000E+00,	0,	0
  2.20408E+02,	1.00000E+01,	4.82045E-02,	4.66965E+01,	6.09577E+00,	-2.01836E+01,	0.00000E+00,	0,	0
  1.74194E+02,	1.00000E+01,	4.82045E-02,	4.99788E+01,	7.59970E+00,	-2.44760E+01,	0.00000E+00,	0,	0
  1.37580E+02,	1.00000E+01,	4.82045E-02,	5.36842E+01,	9.50880E+00,	-2.96119E+01,	0.00000E+00,	0,	0
  1.09091E+02,	1.00000E+01,	4.82045E-02,	5.77534E+01,	1.18471E+01,	-3.56080E+01,	0.00000E+00,	0,	0
  8.70968E+01,	1.00000E+01,	4.82045E-02,	6.34703E+01,	1.46137E+01,	-4.25096E+01,	0.00000E+00,	0,	0
  6.83544E+01,	1.00000E+01,	4.82045E-02,	6.85000E+01,	1.82727E+01,	-5.14861E+01,	0.00000E+00,	0,	0
  5.45455E+01,	1.00000E+01,	4.82045E-02,	7.39871E+01,	2.24902E+01,	-6.00926E+01,	0.00000E+00,	0,	0
  4.28571E+01,	1.00000E+01,	4.82045E-02,	7.75478E+01,	2.76438E+01,	-7.17960E+01,	0.00000E+00,	0,	0
  3.39623E+01,	1.00000E+01,	4.82045E-02,	8.13442E+01,	3.29010E+01,	-8.50723E+01,	0.00000E+00,	0,	0
  2.68657E+01,	1.00000E+01,	4.82045E-02,	8.52269E+01,	3.98640E+01,	-1.01315E+02,	0.00000E+00,	0,	0
  2.13439E+01,	1.00000E+01,	4.82045E-02,	8.90425E+01,	4.76595E+01,	-1.20024E+02,	0.00000E+00,	0,	0
  1.73077E+01,	1.00000E+01,	4.82045E-02,	9.57333E+01,	5.57586E+01,	-1.40361E+02,	0.00000E+00,	0,	0
  1.36364E+01,	1.00000E+01,	4.82045E-02,	1.00829E+02,	6.59016E+01,	-1.67454E+02,	0.00000E+00,	0,	0
  1.07143E+01,	1.00000E+01,	4.82045E-02,	1.03796E+02,	7.73902E+01,	-2.00503E+02,	0.00000E+00,	0,	0
  8.49057E+00,	1.00000E+01,	4.82045E-02,	1.07998E+02,	8.96958E+01,	-2.39281E+02,	0.00000E+00,	0,	0
  6.71642E+00,	1.00000E+01,	4.82045E-02,	1.10535E+02,	1.03393E+02,	-2.87000E+02,	0.00000E+00,	0,	0
  5.29412E+00,	1.00000E+01,	4.82045E-02,	1.13497E+02,	1.18729E+02,	-3.46030E+02,	0.00000E+00,	0,	0
  4.16667E+00,	1.00000E+01,	4.82045E-02,	1.17000E+02,	1.35714E+02,	-4.20054E+02,	0.00000E+00,	0,	0
  3.30882E+00,	1.00000E+01,	4.82045E-02,	1.21232E+02,	1.54076E+02,	-5.08113E+02,	0.00000E+00,	0,	0
  2.61628E+00,	1.00000E+01,	4.82045E-02,	1.25191E+02,	1.75261E+02,	-6.18934E+02,	0.00000E+00,	0,	0
  2.07373E+00,	1.00000E+01,	4.82045E-02,	1.29966E+02,	1.99112E+02,	-7.55430E+02,	0.00000E+00,	0,	0
  1.64234E+00,	1.00000E+01,	4.82045E-02,	1.35749E+02,	2.26764E+02,	-9.25294E+02,	0.00000E+00,	0,	0
  1.30058E+00,	1.00000E+01,	4.82045E-02,	1.39914E+02,	2.59793E+02,	-1.13610E+03,	0.00000E+00,	0,	0
  1.03211E+00,	1.00000E+01,	4.82045E-02,	1.44311E+02,	2.98331E+02,	-1.39575E+03,	0.00000E+00,	0,	0
  8.15217E-01,	1.00000E+01,	4.82045E-02,	1.51274E+02,	3.45113E+02,	-1.72317E+03,	0.00000E+00,	0,	0
  6.46552E-01,	1.00000E+01,	4.82045E-02,	1.60391E+02,	3.90093E+02,	-2.12407E+03,	0.00000E+00,	0,	0
  5.11364E-01,	1.00000E+01,	4.82045E-02,	1.65440E+02,	4.53592E+02,	-2.64696E+03,	0.00000E+00,	0,	0
  4.07609E-01,	1.00000E+01,	4.82045E-02,	1.71498E+02,	5.33778E+02,	-3.25600E+03,	0.00000E+00,	0,	0
  3.21429E-01,	1.00000E+01,	4.82045E-02,	1.78641E+02,	6.27266E+02,	-4.07443E+03,	0.00000E+00,	0,	0
  2.54525E-01,	1.00000E+01,	4.82045E-02,	1.87453E+02,	7.51650E+02,	-5.04200E+03,	0.00000E+00,	0,	0
  2.01613E-01,	1.00000E+01,	4.82045E-02,	1.98292E+02,	8.98583E+02,	-6.24404E+03,	0.00000E+00,	0,	0
  1.59574E-01,	1.00000E+01,	4.82045E-02,	2.11778E+02,	1.07976E+03,	-7.74649E+03,	0.00000E+00,	0,	0
  1.26689E-01,	1.00000E+01,	4.82045E-02,	2.28672E+02,	1.30956E+03,	-9.58097E+03,	0.00000E+00,	0,	0
  1.00446E-01,	1.00000E+01,	4.82045E-02,	2.49578E+02,	1.57178E+03,	-1.18715E+04,	0.00000E+00,	0,	0