Z60W Data File: Version 1.1
CorrTest for Windows: SN CS310H1805157  V5.2.1111.9  2.5H6.220118
Sweep Frequency: Control Voltage
  Date:4-29-2026   Time:08:05:16
  Begin Information:            Cell Information
      Surface Area:           1
      Density:                7.8
      Weight:                 28
  End Information:              Cell Information
  Freq (Hz)     Ampl(mV)       Bias(V)      Time(Sec)       Z'(Ohm.cm^2)    Z''(Ohm.cm^2)        GD       Err      Range
End Comments
  3.07200E+05,	1.00000E+01,	2.40816E-02,	3.09297E-02,	-1.60202E+00,	2.77182E+00,	0.00000E+00,	0,	0
  2.76480E+05,	1.00000E+01,	2.40816E-02,	1.64850E+00,	-9.74398E-01,	2.15134E+00,	0.00000E+00,	0,	0
  1.97486E+05,	1.00000E+01,	2.40816E-02,	2.57532E+00,	-2.62344E-01,	1.55394E+00,	0.00000E+00,	0,	0
  1.53600E+05,	1.00000E+01,	2.40816E-02,	3.52281E+00,	3.76323E-02,	1.16758E+00,	0.00000E+00,	0,	0
  1.25673E+05,	1.00000E+01,	2.40816E-02,	4.48619E+00,	2.02173E-01,	9.45202E-01,	0.00000E+00,	0,	0
  9.87429E+04,	1.00000E+01,	2.40816E-02,	5.37690E+00,	3.33480E-01,	7.10508E-01,	0.00000E+00,	0,	0
  7.68000E+04,	1.00000E+01,	2.40816E-02,	6.31037E+00,	4.09681E-01,	5.37130E-01,	0.00000E+00,	0,	0
  6.01043E+04,	1.00000E+01,	2.40816E-02,	9.55301E+00,	4.59321E-01,	3.28032E-01,	0.00000E+00,	0,	0
  4.93714E+04,	1.00000E+01,	2.40816E-02,	1.11286E+01,	4.79022E-01,	2.27250E-01,	0.00000E+00,	0,	0
  3.84000E+04,	1.00000E+01,	2.40816E-02,	1.20259E+01,	4.92575E-01,	1.07837E-01,	0.00000E+00,	0,	0
  3.00522E+04,	1.00000E+01,	2.40816E-02,	1.28981E+01,	5.05867E-01,	1.73159E-03,	0.00000E+00,	0,	0
  2.38345E+04,	1.00000E+01,	2.40816E-02,	1.37815E+01,	5.17714E-01,	-9.77765E-02,	0.00000E+00,	0,	0
  1.86811E+04,	1.00000E+01,	2.40816E-02,	1.46094E+01,	5.31126E-01,	-2.05548E-01,	0.00000E+00,	0,	0
  1.47064E+04,	1.00000E+01,	2.40816E-02,	1.55947E+01,	5.48483E-01,	-3.18016E-01,	0.00000E+00,	0,	0
  1.15200E+04,	1.00000E+01,	2.40816E-02,	1.65632E+01,	5.69720E-01,	-4.45441E-01,	0.00000E+00,	0,	0
  9.60000E+03,	1.00000E+01,	2.40816E-02,	1.81402E+01,	5.88228E-01,	-5.52962E-01,	0.00000E+00,	0,	0
  7.51304E+03,	1.00000E+01,	2.40816E-02,	1.90392E+01,	6.19076E-01,	-7.20238E-01,	0.00000E+00,	0,	0
  5.76000E+03,	1.00000E+01,	2.40816E-02,	1.99453E+01,	6.60916E-01,	-9.38015E-01,	0.00000E+00,	0,	0
  4.54737E+03,	1.00000E+01,	2.40816E-02,	2.08146E+01,	7.08645E-01,	-1.17557E+00,	0.00000E+00,	0,	0
  3.60000E+03,	1.00000E+01,	2.40816E-02,	2.18345E+01,	7.66216E-01,	-1.45896E+00,	0.00000E+00,	0,	0
  2.88000E+03,	1.00000E+01,	2.40816E-02,	2.27296E+01,	8.36473E-01,	-1.78867E+00,	0.00000E+00,	0,	0
  2.27368E+03,	1.00000E+01,	2.40816E-02,	2.50202E+01,	9.26038E-01,	-2.19377E+00,	0.00000E+00,	0,	0
  1.78144E+03,	1.00000E+01,	2.40816E-02,	2.58118E+01,	1.04890E+00,	-2.72132E+00,	0.00000E+00,	0,	0
  1.41639E+03,	1.00000E+01,	2.40816E-02,	2.67169E+01,	1.20199E+00,	-3.32454E+00,	0.00000E+00,	0,	0
  1.12208E+03,	1.00000E+01,	2.40816E-02,	2.77492E+01,	1.39909E+00,	-4.06928E+00,	0.00000E+00,	0,	0
  9.00000E+02,	1.00000E+01,	2.40816E-02,	3.27467E+01,	1.63541E+00,	-4.93697E+00,	0.00000E+00,	0,	0
  7.20000E+02,	1.00000E+01,	2.40816E-02,	3.41515E+01,	1.93691E+00,	-5.97062E+00,	0.00000E+00,	0,	0
  5.68421E+02,	1.00000E+01,	2.40816E-02,	3.55457E+01,	2.34263E+00,	-7.28935E+00,	0.00000E+00,	0,	0
  4.40816E+02,	1.00000E+01,	2.40816E-02,	3.70229E+01,	2.91030E+00,	-9.00926E+00,	0.00000E+00,	0,	0
  3.54098E+02,	1.00000E+01,	2.40816E-02,	3.93837E+01,	3.52723E+00,	-1.07863E+01,	0.00000E+00,	0,	0
  2.76923E+02,	1.00000E+01,	2.40816E-02,	4.20026E+01,	4.41240E+00,	-1.31534E+01,	0.00000E+00,	0,	0
  2.20408E+02,	1.00000E+01,	2.40816E-02,	4.49215E+01,	5.43798E+00,	-1.57660E+01,	0.00000E+00,	0,	0
  1.74194E+02,	1.00000E+01,	2.40816E-02,	4.81735E+01,	6.74444E+00,	-1.89337E+01,	0.00000E+00,	0,	0
  1.37580E+02,	1.00000E+01,	2.40816E-02,	5.18216E+01,	8.33925E+00,	-2.26691E+01,	0.00000E+00,	0,	0
  1.09091E+02,	1.00000E+01,	2.40816E-02,	5.59046E+01,	1.02107E+01,	-2.69995E+01,	0.00000E+00,	0,	0
  8.70968E+01,	1.00000E+01,	2.40816E-02,	6.40486E+01,	1.23796E+01,	-3.20559E+01,	0.00000E+00,	0,	0
  6.83544E+01,	1.00000E+01,	2.40816E-02,	6.90718E+01,	1.51028E+01,	-3.85403E+01,	0.00000E+00,	0,	0
  5.45455E+01,	1.00000E+01,	2.40816E-02,	7.45221E+01,	1.81157E+01,	-4.47660E+01,	0.00000E+00,	0,	0
  4.28571E+01,	1.00000E+01,	2.40816E-02,	7.80694E+01,	2.17145E+01,	-5.33385E+01,	0.00000E+00,	0,	0
  3.39623E+01,	1.00000E+01,	2.40816E-02,	8.18060E+01,	2.52408E+01,	-6.31530E+01,	0.00000E+00,	0,	0
  2.68657E+01,	1.00000E+01,	2.40816E-02,	8.57246E+01,	2.98540E+01,	-7.52893E+01,	0.00000E+00,	0,	0
  2.13439E+01,	1.00000E+01,	2.40816E-02,	8.95375E+01,	3.48595E+01,	-8.94685E+01,	0.00000E+00,	0,	0
  1.73077E+01,	1.00000E+01,	2.40816E-02,	9.62126E+01,	3.99286E+01,	-1.05083E+02,	0.00000E+00,	0,	0
  1.36364E+01,	1.00000E+01,	2.40816E-02,	1.01293E+02,	4.61081E+01,	-1.26295E+02,	0.00000E+00,	0,	0
  1.07143E+01,	1.00000E+01,	2.40816E-02,	1.04237E+02,	5.30075E+01,	-1.52697E+02,	0.00000E+00,	0,	0
  8.49057E+00,	1.00000E+01,	2.40816E-02,	1.08460E+02,	6.03716E+01,	-1.84279E+02,	0.00000E+00,	0,	0
  6.71642E+00,	1.00000E+01,	2.40816E-02,	1.10986E+02,	6.86212E+01,	-2.23458E+02,	0.00000E+00,	0,	0
  5.29412E+00,	1.00000E+01,	2.40816E-02,	1.13925E+02,	7.82701E+01,	-2.72864E+02,	0.00000E+00,	0,	0
  4.16667E+00,	1.00000E+01,	2.40816E-02,	1.17434E+02,	8.92651E+01,	-3.34975E+02,	0.00000E+00,	0,	0
  3.30882E+00,	1.00000E+01,	2.40816E-02,	1.21695E+02,	1.01625E+02,	-4.09270E+02,	0.00000E+00,	0,	0
  2.61628E+00,	1.00000E+01,	2.40816E-02,	1.25665E+02,	1.16690E+02,	-5.02975E+02,	0.00000E+00,	0,	0
  2.07373E+00,	1.00000E+01,	2.40816E-02,	1.30446E+02,	1.34323E+02,	-6.18354E+02,	0.00000E+00,	0,	0
  1.64234E+00,	1.00000E+01,	2.40816E-02,	1.36273E+02,	1.55796E+02,	-7.61793E+02,	0.00000E+00,	0,	0
  1.30058E+00,	1.00000E+01,	2.40816E-02,	1.40493E+02,	1.82404E+02,	-9.39764E+02,	0.00000E+00,	0,	0
  1.03211E+00,	1.00000E+01,	2.40816E-02,	1.44902E+02,	2.14589E+02,	-1.15841E+03,	0.00000E+00,	0,	0
  8.15217E-01,	1.00000E+01,	2.40816E-02,	1.51840E+02,	2.54986E+02,	-1.43383E+03,	0.00000E+00,	0,	0
  6.46552E-01,	1.00000E+01,	2.40816E-02,	1.60953E+02,	2.94243E+02,	-1.76292E+03,	0.00000E+00,	0,	0
  5.11364E-01,	1.00000E+01,	2.40816E-02,	1.65947E+02,	3.54612E+02,	-2.20218E+03,	0.00000E+00,	0,	0
  4.07609E-01,	1.00000E+01,	2.40816E-02,	1.72006E+02,	4.31088E+02,	-2.71241E+03,	0.00000E+00,	0,	0
  3.21429E-01,	1.00000E+01,	2.40816E-02,	1.79171E+02,	5.28608E+02,	-3.39573E+03,	0.00000E+00,	0,	0
  2.54525E-01,	1.00000E+01,	2.40816E-02,	1.87991E+02,	6.59311E+02,	-4.20472E+03,	0.00000E+00,	0,	0
  2.01613E-01,	1.00000E+01,	2.40816E-02,	1.98829E+02,	8.30379E+02,	-5.20585E+03,	0.00000E+00,	0,	0
  1.59574E-01,	1.00000E+01,	2.40816E-02,	2.12301E+02,	1.05873E+03,	-6.45610E+03,	0.00000E+00,	0,	0
  1.26689E-01,	1.00000E+01,	2.40816E-02,	2.29265E+02,	1.35928E+03,	-7.96969E+03,	0.00000E+00,	0,	0
  1.00446E-01,	1.00000E+01,	2.40816E-02,	2.50116E+02,	1.76417E+03,	-9.85742E+03,	0.00000E+00,	0,	0