Z60W Data File: Version 1.1
CorrTest for Windows: SN CS310H1805157  V5.2.1111.9  2.5H6.220118
Sweep Frequency: Control Voltage
  Date:4-29-2026   Time:14:57:46
  Begin Information:            Cell Information
      Surface Area:           1
      Density:                7.8
      Weight:                 28
  End Information:              Cell Information
  Freq (Hz)     Ampl(mV)       Bias(V)      Time(Sec)       Z'(Ohm.cm^2)    Z''(Ohm.cm^2)        GD       Err      Range
End Comments
  3.07200E+05,	1.00000E+01,	4.25782E-02,	6.07719E-02,	4.27341E+02,	-2.87992E+02,	0.00000E+00,	0,	0
  2.76480E+05,	1.00000E+01,	4.25782E-02,	1.65649E+00,	4.40532E+02,	-2.91272E+02,	0.00000E+00,	0,	0
  1.97486E+05,	1.00000E+01,	4.25782E-02,	2.55570E+00,	5.03354E+02,	-3.11956E+02,	0.00000E+00,	0,	0
  1.53600E+05,	1.00000E+01,	4.25782E-02,	3.45316E+00,	5.62394E+02,	-3.20720E+02,	0.00000E+00,	0,	0
  1.25673E+05,	1.00000E+01,	4.25782E-02,	4.37912E+00,	6.38610E+02,	-2.66983E+02,	0.00000E+00,	0,	0
  9.87429E+04,	1.00000E+01,	4.25782E-02,	5.28526E+00,	6.73942E+02,	-3.20257E+02,	0.00000E+00,	0,	0
  7.68000E+04,	1.00000E+01,	4.25782E-02,	6.19279E+00,	7.39992E+02,	-3.01725E+02,	0.00000E+00,	0,	0
  6.01043E+04,	1.00000E+01,	4.25782E-02,	7.19962E+00,	7.92688E+02,	-2.75906E+02,	0.00000E+00,	0,	0
  4.93714E+04,	1.00000E+01,	4.25782E-02,	8.81847E+00,	8.41439E+02,	-2.56424E+02,	0.00000E+00,	0,	0
  3.84000E+04,	1.00000E+01,	4.25782E-02,	9.72883E+00,	8.81577E+02,	-2.28680E+02,	0.00000E+00,	0,	0
  3.00522E+04,	1.00000E+01,	4.25782E-02,	1.06004E+01,	9.01219E+02,	-2.44424E+02,	0.00000E+00,	0,	0
  2.38345E+04,	1.00000E+01,	4.25782E-02,	1.14753E+01,	9.38933E+02,	-1.69315E+02,	0.00000E+00,	0,	0
  1.86811E+04,	1.00000E+01,	4.25782E-02,	1.23337E+01,	9.41137E+02,	-1.70502E+02,	0.00000E+00,	0,	0
  1.47064E+04,	1.00000E+01,	4.25782E-02,	1.33049E+01,	9.66271E+02,	-1.14435E+02,	0.00000E+00,	0,	0
  1.15200E+04,	1.00000E+01,	4.25782E-02,	1.42685E+01,	9.87154E+02,	-1.16094E+02,	0.00000E+00,	0,	0
  9.60000E+03,	1.00000E+01,	4.25782E-02,	1.58697E+01,	1.00017E+03,	-9.33472E+01,	0.00000E+00,	0,	0
  7.51304E+03,	1.00000E+01,	4.25782E-02,	1.67403E+01,	9.86700E+02,	-8.48937E+01,	0.00000E+00,	0,	0
  5.76000E+03,	1.00000E+01,	4.25782E-02,	1.76485E+01,	1.00786E+03,	-5.81769E+01,	0.00000E+00,	0,	0
  4.54737E+03,	1.00000E+01,	4.25782E-02,	1.85732E+01,	1.00802E+03,	-7.19549E+01,	0.00000E+00,	0,	0
  3.60000E+03,	1.00000E+01,	4.25782E-02,	1.95810E+01,	1.02053E+03,	-6.27237E+01,	0.00000E+00,	0,	0
  2.88000E+03,	1.00000E+01,	4.25782E-02,	2.04811E+01,	1.02777E+03,	-5.96114E+01,	0.00000E+00,	0,	0
  2.27368E+03,	1.00000E+01,	4.25782E-02,	2.16107E+01,	1.03252E+03,	-5.75344E+01,	0.00000E+00,	0,	0
  1.78144E+03,	1.00000E+01,	4.25782E-02,	2.24208E+01,	1.01430E+03,	-5.97667E+01,	0.00000E+00,	0,	0
  1.41639E+03,	1.00000E+01,	4.25782E-02,	2.33322E+01,	1.07678E+03,	-3.58450E+01,	0.00000E+00,	0,	0
  1.12208E+03,	1.00000E+01,	4.25782E-02,	2.43623E+01,	1.04829E+03,	-6.42792E+01,	0.00000E+00,	0,	0
  9.00000E+02,	1.00000E+01,	4.25782E-02,	2.93671E+01,	1.07237E+03,	-7.40920E+01,	0.00000E+00,	0,	0
  7.20000E+02,	1.00000E+01,	4.25782E-02,	3.07467E+01,	1.08166E+03,	-7.71100E+01,	0.00000E+00,	0,	0
  5.68421E+02,	1.00000E+01,	4.25782E-02,	3.21594E+01,	1.09177E+03,	-8.29903E+01,	0.00000E+00,	0,	0
  4.40816E+02,	1.00000E+01,	4.25782E-02,	3.51999E+01,	1.10694E+03,	-9.26723E+01,	0.00000E+00,	0,	0
  3.54098E+02,	1.00000E+01,	4.25782E-02,	3.75589E+01,	1.11832E+03,	-1.02325E+02,	0.00000E+00,	0,	0
  2.76923E+02,	1.00000E+01,	4.25782E-02,	4.02477E+01,	1.13226E+03,	-1.15276E+02,	0.00000E+00,	0,	0
  2.20408E+02,	1.00000E+01,	4.25782E-02,	4.31653E+01,	1.14702E+03,	-1.30119E+02,	0.00000E+00,	0,	0
  1.74194E+02,	1.00000E+01,	4.25782E-02,	4.64454E+01,	1.16333E+03,	-1.48691E+02,	0.00000E+00,	0,	0
  1.37580E+02,	1.00000E+01,	4.25782E-02,	5.01018E+01,	1.18274E+03,	-1.71003E+02,	0.00000E+00,	0,	0
  1.09091E+02,	1.00000E+01,	4.25782E-02,	5.41731E+01,	1.20424E+03,	-1.97864E+02,	0.00000E+00,	0,	0
  8.70968E+01,	1.00000E+01,	4.25782E-02,	6.23229E+01,	1.23249E+03,	-2.29253E+02,	0.00000E+00,	0,	0
  6.83544E+01,	1.00000E+01,	4.25782E-02,	6.73868E+01,	1.26695E+03,	-2.71923E+02,	0.00000E+00,	0,	0
  5.45455E+01,	1.00000E+01,	4.25782E-02,	7.28814E+01,	1.28301E+03,	-3.01595E+02,	0.00000E+00,	0,	0
  4.28571E+01,	1.00000E+01,	4.25782E-02,	7.64206E+01,	1.31400E+03,	-3.54293E+02,	0.00000E+00,	0,	0
  3.39623E+01,	1.00000E+01,	4.25782E-02,	8.01418E+01,	1.34096E+03,	-4.20957E+02,	0.00000E+00,	0,	0
  2.68657E+01,	1.00000E+01,	4.25782E-02,	8.39841E+01,	1.38514E+03,	-4.94045E+02,	0.00000E+00,	0,	0
  2.13439E+01,	1.00000E+01,	4.25782E-02,	8.78193E+01,	1.42943E+03,	-5.80152E+02,	0.00000E+00,	0,	0
  1.73077E+01,	1.00000E+01,	4.25782E-02,	9.15317E+01,	1.47310E+03,	-6.74288E+02,	0.00000E+00,	0,	0
  1.36364E+01,	1.00000E+01,	4.25782E-02,	9.65875E+01,	1.52945E+03,	-8.02680E+02,	0.00000E+00,	0,	0
  1.07143E+01,	1.00000E+01,	4.25782E-02,	9.95047E+01,	1.58963E+03,	-9.60600E+02,	0.00000E+00,	0,	0
  8.49057E+00,	1.00000E+01,	4.25782E-02,	1.03699E+02,	1.65639E+03,	-1.14870E+03,	0.00000E+00,	0,	0
  6.71642E+00,	1.00000E+01,	4.25782E-02,	1.06221E+02,	1.72927E+03,	-1.37495E+03,	0.00000E+00,	0,	0
  5.29412E+00,	1.00000E+01,	4.25782E-02,	1.09181E+02,	1.80985E+03,	-1.65989E+03,	0.00000E+00,	0,	0
  4.16667E+00,	1.00000E+01,	4.25782E-02,	1.12649E+02,	1.90406E+03,	-2.01265E+03,	0.00000E+00,	0,	0
  3.30882E+00,	1.00000E+01,	4.25782E-02,	1.16888E+02,	2.00939E+03,	-2.43253E+03,	0.00000E+00,	0,	0
  2.61628E+00,	1.00000E+01,	4.25782E-02,	1.20873E+02,	2.12965E+03,	-2.95875E+03,	0.00000E+00,	0,	0
  2.07373E+00,	1.00000E+01,	4.25782E-02,	1.25656E+02,	2.27067E+03,	-3.60445E+03,	0.00000E+00,	0,	0
  1.64234E+00,	1.00000E+01,	4.25782E-02,	1.31451E+02,	2.43655E+03,	-4.40373E+03,	0.00000E+00,	0,	0
  1.30058E+00,	1.00000E+01,	4.25782E-02,	1.35620E+02,	2.63298E+03,	-5.39050E+03,	0.00000E+00,	0,	0
  1.03211E+00,	1.00000E+01,	4.25782E-02,	1.40016E+02,	2.86889E+03,	-6.60093E+03,	0.00000E+00,	0,	0
  8.15217E-01,	1.00000E+01,	4.25782E-02,	1.46968E+02,	3.15955E+03,	-8.12085E+03,	0.00000E+00,	0,	0
  6.46552E-01,	1.00000E+01,	4.25782E-02,	1.51770E+02,	3.50908E+03,	-9.96876E+03,	0.00000E+00,	0,	0
  5.11364E-01,	1.00000E+01,	4.25782E-02,	1.56820E+02,	3.86444E+03,	-1.23143E+04,	0.00000E+00,	0,	0
  4.07609E-01,	1.00000E+01,	4.25782E-02,	1.62880E+02,	4.38610E+03,	-1.50758E+04,	0.00000E+00,	0,	0
  3.21429E-01,	1.00000E+01,	4.25782E-02,	1.70016E+02,	5.07914E+03,	-1.88330E+04,	0.00000E+00,	0,	0
  2.54525E-01,	1.00000E+01,	4.25782E-02,	1.78785E+02,	5.95804E+03,	-2.31600E+04,	0.00000E+00,	0,	0
  2.01613E-01,	1.00000E+01,	4.25782E-02,	1.89624E+02,	7.06448E+03,	-2.85017E+04,	0.00000E+00,	0,	0
  1.59574E-01,	1.00000E+01,	4.25782E-02,	2.03093E+02,	8.49373E+03,	-3.51047E+04,	0.00000E+00,	0,	0
  1.26689E-01,	1.00000E+01,	4.25782E-02,	2.36986E+02,	1.03661E+04,	-4.27439E+04,	0.00000E+00,	0,	0
  1.00446E-01,	1.00000E+01,	4.25782E-02,	2.57857E+02,	1.24666E+04,	-5.33955E+04,	0.00000E+00,	0,	0