Z60W Data File: Version 1.1
CorrTest for Windows: SN CS310H1805157  V5.2.1111.9  2.5H6.220118
Sweep Frequency: Control Voltage
  Date:4-29-2026   Time:09:03:39
  Begin Information:            Cell Information
      Surface Area:           1
      Density:                7.8
      Weight:                 28
  End Information:              Cell Information
  Freq (Hz)     Ampl(mV)       Bias(V)      Time(Sec)       Z'(Ohm.cm^2)    Z''(Ohm.cm^2)        GD       Err      Range
End Comments
  3.07200E+05,	1.00000E+01,	4.06340E-02,	2.85806E-02,	-1.56227E+00,	2.77891E+00,	0.00000E+00,	0,	0
  2.76480E+05,	1.00000E+01,	4.06340E-02,	1.63396E+00,	-9.69696E-01,	2.15323E+00,	0.00000E+00,	0,	0
  1.97486E+05,	1.00000E+01,	4.06340E-02,	2.54949E+00,	-2.48372E-01,	1.57001E+00,	0.00000E+00,	0,	0
  1.53600E+05,	1.00000E+01,	4.06340E-02,	3.45386E+00,	6.35728E-02,	1.18529E+00,	0.00000E+00,	0,	0
  1.25673E+05,	1.00000E+01,	4.06340E-02,	4.36986E+00,	2.13029E-01,	9.48799E-01,	0.00000E+00,	0,	0
  9.87429E+04,	1.00000E+01,	4.06340E-02,	5.32724E+00,	3.54797E-01,	7.07508E-01,	0.00000E+00,	0,	0
  7.68000E+04,	1.00000E+01,	4.06340E-02,	6.23205E+00,	4.34593E-01,	5.26944E-01,	0.00000E+00,	0,	0
  6.01043E+04,	1.00000E+01,	4.06340E-02,	9.45006E+00,	4.86950E-01,	3.22841E-01,	0.00000E+00,	0,	0
  4.93714E+04,	1.00000E+01,	4.06340E-02,	1.10251E+01,	5.01944E-01,	2.19277E-01,	0.00000E+00,	0,	0
  3.84000E+04,	1.00000E+01,	4.06340E-02,	1.19254E+01,	5.22019E-01,	1.01381E-01,	0.00000E+00,	0,	0
  3.00522E+04,	1.00000E+01,	4.06340E-02,	1.27726E+01,	5.31700E-01,	-1.16376E-02,	0.00000E+00,	0,	0
  2.38345E+04,	1.00000E+01,	4.06340E-02,	1.36864E+01,	5.44593E-01,	-1.14278E-01,	0.00000E+00,	0,	0
  1.86811E+04,	1.00000E+01,	4.06340E-02,	1.45273E+01,	5.59540E-01,	-2.24466E-01,	0.00000E+00,	0,	0
  1.47064E+04,	1.00000E+01,	4.06340E-02,	1.55089E+01,	5.77570E-01,	-3.41971E-01,	0.00000E+00,	0,	0
  1.15200E+04,	1.00000E+01,	4.06340E-02,	1.64659E+01,	6.00707E-01,	-4.75000E-01,	0.00000E+00,	0,	0
  9.60000E+03,	1.00000E+01,	4.06340E-02,	1.80381E+01,	6.19968E-01,	-5.87056E-01,	0.00000E+00,	0,	0
  7.51304E+03,	1.00000E+01,	4.06340E-02,	1.89604E+01,	6.52011E-01,	-7.61353E-01,	0.00000E+00,	0,	0
  5.76000E+03,	1.00000E+01,	4.06340E-02,	1.98569E+01,	6.96786E-01,	-9.90180E-01,	0.00000E+00,	0,	0
  4.54737E+03,	1.00000E+01,	4.06340E-02,	2.07274E+01,	7.45946E-01,	-1.24026E+00,	0.00000E+00,	0,	0
  3.60000E+03,	1.00000E+01,	4.06340E-02,	2.17252E+01,	8.06607E-01,	-1.53660E+00,	0.00000E+00,	0,	0
  2.88000E+03,	1.00000E+01,	4.06340E-02,	2.26421E+01,	8.77398E-01,	-1.88119E+00,	0.00000E+00,	0,	0
  2.27368E+03,	1.00000E+01,	4.06340E-02,	2.49158E+01,	9.71265E-01,	-2.31055E+00,	0.00000E+00,	0,	0
  1.78144E+03,	1.00000E+01,	4.06340E-02,	2.57017E+01,	1.10106E+00,	-2.86664E+00,	0.00000E+00,	0,	0
  1.41639E+03,	1.00000E+01,	4.06340E-02,	2.65967E+01,	1.25295E+00,	-3.50491E+00,	0.00000E+00,	0,	0
  1.12208E+03,	1.00000E+01,	4.06340E-02,	2.76312E+01,	1.45420E+00,	-4.29600E+00,	0.00000E+00,	0,	0
  9.00000E+02,	1.00000E+01,	4.06340E-02,	3.26371E+01,	1.69884E+00,	-5.21149E+00,	0.00000E+00,	0,	0
  7.20000E+02,	1.00000E+01,	4.06340E-02,	3.40432E+01,	2.00661E+00,	-6.30869E+00,	0.00000E+00,	0,	0
  5.68421E+02,	1.00000E+01,	4.06340E-02,	3.54095E+01,	2.42246E+00,	-7.71168E+00,	0.00000E+00,	0,	0
  4.40816E+02,	1.00000E+01,	4.06340E-02,	3.68990E+01,	2.83110E+00,	-9.59742E+00,	0.00000E+00,	0,	0
  3.54098E+02,	1.00000E+01,	4.06340E-02,	3.93063E+01,	3.63613E+00,	-1.14444E+01,	0.00000E+00,	0,	0
  2.76923E+02,	1.00000E+01,	4.06340E-02,	4.19333E+01,	4.54673E+00,	-1.39852E+01,	0.00000E+00,	0,	0
  2.20408E+02,	1.00000E+01,	4.06340E-02,	4.49135E+01,	5.61264E+00,	-1.68006E+01,	0.00000E+00,	0,	0
  1.74194E+02,	1.00000E+01,	4.06340E-02,	4.81760E+01,	6.97620E+00,	-2.02220E+01,	0.00000E+00,	0,	0
  1.37580E+02,	1.00000E+01,	4.06340E-02,	5.18321E+01,	8.65877E+00,	-2.42679E+01,	0.00000E+00,	0,	0
  1.09091E+02,	1.00000E+01,	4.06340E-02,	5.59147E+01,	1.06522E+01,	-2.89571E+01,	0.00000E+00,	0,	0
  8.70968E+01,	1.00000E+01,	4.06340E-02,	6.40701E+01,	1.29805E+01,	-3.44310E+01,	0.00000E+00,	0,	0
  6.83544E+01,	1.00000E+01,	4.06340E-02,	6.91422E+01,	1.59309E+01,	-4.14451E+01,	0.00000E+00,	0,	0
  5.45455E+01,	1.00000E+01,	4.06340E-02,	7.46326E+01,	1.92140E+01,	-4.81767E+01,	0.00000E+00,	0,	0
  4.28571E+01,	1.00000E+01,	4.06340E-02,	7.82012E+01,	2.31604E+01,	-5.74175E+01,	0.00000E+00,	0,	0
  3.39623E+01,	1.00000E+01,	4.06340E-02,	8.19396E+01,	2.70757E+01,	-6.79742E+01,	0.00000E+00,	0,	0
  2.68657E+01,	1.00000E+01,	4.06340E-02,	8.57857E+01,	3.22009E+01,	-8.09661E+01,	0.00000E+00,	0,	0
  2.13439E+01,	1.00000E+01,	4.06340E-02,	8.95932E+01,	3.78174E+01,	-9.60997E+01,	0.00000E+00,	0,	0
  1.73077E+01,	1.00000E+01,	4.06340E-02,	9.63566E+01,	4.35214E+01,	-1.12691E+02,	0.00000E+00,	0,	0
  1.36364E+01,	1.00000E+01,	4.06340E-02,	1.01413E+02,	5.04944E+01,	-1.35103E+02,	0.00000E+00,	0,	0
  1.07143E+01,	1.00000E+01,	4.06340E-02,	1.04317E+02,	5.82932E+01,	-1.62910E+02,	0.00000E+00,	0,	0
  8.49057E+00,	1.00000E+01,	4.06340E-02,	1.08506E+02,	6.65677E+01,	-1.96005E+02,	0.00000E+00,	0,	0
  6.71642E+00,	1.00000E+01,	4.06340E-02,	1.11034E+02,	7.57960E+01,	-2.37131E+02,	0.00000E+00,	0,	0
  5.29412E+00,	1.00000E+01,	4.06340E-02,	1.13972E+02,	8.63803E+01,	-2.88682E+02,	0.00000E+00,	0,	0
  4.16667E+00,	1.00000E+01,	4.06340E-02,	1.17459E+02,	9.83664E+01,	-3.53591E+02,	0.00000E+00,	0,	0
  3.30882E+00,	1.00000E+01,	4.06340E-02,	1.21692E+02,	1.11678E+02,	-4.31215E+02,	0.00000E+00,	0,	0
  2.61628E+00,	1.00000E+01,	4.06340E-02,	1.25653E+02,	1.27625E+02,	-5.29050E+02,	0.00000E+00,	0,	0
  2.07373E+00,	1.00000E+01,	4.06340E-02,	1.30453E+02,	1.46275E+02,	-6.49506E+02,	0.00000E+00,	0,	0
  1.64234E+00,	1.00000E+01,	4.06340E-02,	1.36302E+02,	1.68427E+02,	-7.99473E+02,	0.00000E+00,	0,	0
  1.30058E+00,	1.00000E+01,	4.06340E-02,	1.40464E+02,	1.95665E+02,	-9.85607E+02,	0.00000E+00,	0,	0
  1.03211E+00,	1.00000E+01,	4.06340E-02,	1.44867E+02,	2.28329E+02,	-1.21442E+03,	0.00000E+00,	0,	0
  8.15217E-01,	1.00000E+01,	4.06340E-02,	1.51802E+02,	2.68916E+02,	-1.50248E+03,	0.00000E+00,	0,	0
  6.46552E-01,	1.00000E+01,	4.06340E-02,	1.60941E+02,	3.07202E+02,	-1.85506E+03,	0.00000E+00,	0,	0
  5.11364E-01,	1.00000E+01,	4.06340E-02,	1.65953E+02,	3.65923E+02,	-2.31529E+03,	0.00000E+00,	0,	0
  4.07609E-01,	1.00000E+01,	4.06340E-02,	1.72063E+02,	4.39120E+02,	-2.85076E+03,	0.00000E+00,	0,	0
  3.21429E-01,	1.00000E+01,	4.06340E-02,	1.79183E+02,	5.27438E+02,	-3.56947E+03,	0.00000E+00,	0,	0
  2.54525E-01,	1.00000E+01,	4.06340E-02,	1.87945E+02,	6.45981E+02,	-4.42173E+03,	0.00000E+00,	0,	0
  2.01613E-01,	1.00000E+01,	4.06340E-02,	1.98840E+02,	7.93891E+02,	-5.47950E+03,	0.00000E+00,	0,	0
  1.59574E-01,	1.00000E+01,	4.06340E-02,	2.12308E+02,	9.87057E+02,	-6.79822E+03,	0.00000E+00,	0,	0
  1.26689E-01,	1.00000E+01,	4.06340E-02,	2.29271E+02,	1.23580E+03,	-8.40457E+03,	0.00000E+00,	0,	0
  1.00446E-01,	1.00000E+01,	4.06340E-02,	2.50126E+02,	1.55966E+03,	-1.04130E+04,	0.00000E+00,	0,	0