Z60W Data File: Version 1.1
CorrTest for Windows: SN CS310H1805157  V5.2.1111.9  2.5H6.220118
Sweep Frequency: Control Voltage
  Date:4-29-2026   Time:14:41:08
  Begin Information:            Cell Information
      Surface Area:           1
      Density:                7.8
      Weight:                 28
  End Information:              Cell Information
  Freq (Hz)     Ampl(mV)       Bias(V)      Time(Sec)       Z'(Ohm.cm^2)    Z''(Ohm.cm^2)        GD       Err      Range
End Comments
  3.07200E+05,	1.00000E+01,	4.37163E-02,	3.04653E-02,	2.76083E+02,	-9.46269E+00,	0.00000E+00,	0,	0
  2.76480E+05,	1.00000E+01,	4.37163E-02,	1.63312E+00,	2.76258E+02,	-1.29435E+01,	0.00000E+00,	0,	0
  1.97486E+05,	1.00000E+01,	4.37163E-02,	2.58104E+00,	2.79454E+02,	-1.66298E+01,	0.00000E+00,	0,	0
  1.53600E+05,	1.00000E+01,	4.37163E-02,	3.47430E+00,	2.84070E+02,	-1.87285E+01,	0.00000E+00,	0,	0
  1.25673E+05,	1.00000E+01,	4.37163E-02,	4.39594E+00,	2.86973E+02,	-1.89690E+01,	0.00000E+00,	0,	0
  9.87429E+04,	1.00000E+01,	4.37163E-02,	5.30081E+00,	2.92255E+02,	-1.98759E+01,	0.00000E+00,	0,	0
  7.68000E+04,	1.00000E+01,	4.37163E-02,	6.22732E+00,	2.95932E+02,	-1.91578E+01,	0.00000E+00,	0,	0
  6.01043E+04,	1.00000E+01,	4.37163E-02,	7.29557E+00,	2.99842E+02,	-1.81501E+01,	0.00000E+00,	0,	0
  4.93714E+04,	1.00000E+01,	4.37163E-02,	8.88459E+00,	3.03118E+02,	-1.71219E+01,	0.00000E+00,	0,	0
  3.84000E+04,	1.00000E+01,	4.37163E-02,	9.80516E+00,	3.04696E+02,	-1.23907E+01,	0.00000E+00,	0,	0
  3.00522E+04,	1.00000E+01,	4.37163E-02,	1.06457E+01,	3.02121E+02,	-1.33105E+01,	0.00000E+00,	0,	0
  2.38345E+04,	1.00000E+01,	4.37163E-02,	1.15087E+01,	3.10307E+02,	-1.29452E+01,	0.00000E+00,	0,	0
  1.86811E+04,	1.00000E+01,	4.37163E-02,	1.23591E+01,	3.14736E+02,	-1.12677E+01,	0.00000E+00,	0,	0
  1.47064E+04,	1.00000E+01,	4.37163E-02,	1.33288E+01,	3.13154E+02,	-1.14186E+01,	0.00000E+00,	0,	0
  1.15200E+04,	1.00000E+01,	4.37163E-02,	1.43015E+01,	3.15143E+02,	-1.13034E+01,	0.00000E+00,	0,	0
  9.60000E+03,	1.00000E+01,	4.37163E-02,	1.58937E+01,	3.16569E+02,	-1.18461E+01,	0.00000E+00,	0,	0
  7.51304E+03,	1.00000E+01,	4.37163E-02,	1.67966E+01,	3.17827E+02,	-1.27075E+01,	0.00000E+00,	0,	0
  5.76000E+03,	1.00000E+01,	4.37163E-02,	1.77008E+01,	3.19596E+02,	-1.34215E+01,	0.00000E+00,	0,	0
  4.54737E+03,	1.00000E+01,	4.37163E-02,	1.85578E+01,	3.22580E+02,	-1.40492E+01,	0.00000E+00,	0,	0
  3.60000E+03,	1.00000E+01,	4.37163E-02,	1.95516E+01,	3.23631E+02,	-1.51204E+01,	0.00000E+00,	0,	0
  2.88000E+03,	1.00000E+01,	4.37163E-02,	2.04987E+01,	3.24985E+02,	-1.79714E+01,	0.00000E+00,	0,	0
  2.27368E+03,	1.00000E+01,	4.37163E-02,	2.27701E+01,	3.27922E+02,	-1.93672E+01,	0.00000E+00,	0,	0
  1.78144E+03,	1.00000E+01,	4.37163E-02,	2.35549E+01,	3.30708E+02,	-2.21998E+01,	0.00000E+00,	0,	0
  1.41639E+03,	1.00000E+01,	4.37163E-02,	2.44417E+01,	3.31576E+02,	-2.36862E+01,	0.00000E+00,	0,	0
  1.12208E+03,	1.00000E+01,	4.37163E-02,	2.54799E+01,	3.37380E+02,	-3.09042E+01,	0.00000E+00,	0,	0
  9.00000E+02,	1.00000E+01,	4.37163E-02,	3.04733E+01,	3.42886E+02,	-3.37989E+01,	0.00000E+00,	0,	0
  7.20000E+02,	1.00000E+01,	4.37163E-02,	3.18476E+01,	3.46830E+02,	-3.84177E+01,	0.00000E+00,	0,	0
  5.68421E+02,	1.00000E+01,	4.37163E-02,	3.31924E+01,	3.51189E+02,	-4.42661E+01,	0.00000E+00,	0,	0
  4.40816E+02,	1.00000E+01,	4.37163E-02,	3.46309E+01,	3.56584E+02,	-5.18034E+01,	0.00000E+00,	0,	0
  3.54098E+02,	1.00000E+01,	4.37163E-02,	3.70058E+01,	3.61907E+02,	-5.93342E+01,	0.00000E+00,	0,	0
  2.76923E+02,	1.00000E+01,	4.37163E-02,	3.96424E+01,	3.69009E+02,	-6.95618E+01,	0.00000E+00,	0,	0
  2.20408E+02,	1.00000E+01,	4.37163E-02,	4.25638E+01,	3.76443E+02,	-8.09290E+01,	0.00000E+00,	0,	0
  1.74194E+02,	1.00000E+01,	4.37163E-02,	4.58312E+01,	3.85073E+02,	-9.47801E+01,	0.00000E+00,	0,	0
  1.37580E+02,	1.00000E+01,	4.37163E-02,	4.94848E+01,	3.94952E+02,	-1.11620E+02,	0.00000E+00,	0,	0
  1.09091E+02,	1.00000E+01,	4.37163E-02,	5.35780E+01,	4.06347E+02,	-1.31329E+02,	0.00000E+00,	0,	0
  8.70968E+01,	1.00000E+01,	4.37163E-02,	5.92653E+01,	4.19528E+02,	-1.54916E+02,	0.00000E+00,	0,	0
  6.83544E+01,	1.00000E+01,	4.37163E-02,	6.42853E+01,	4.36639E+02,	-1.86106E+02,	0.00000E+00,	0,	0
  5.45455E+01,	1.00000E+01,	4.37163E-02,	6.97518E+01,	4.48267E+02,	-2.13376E+02,	0.00000E+00,	0,	0
  4.28571E+01,	1.00000E+01,	4.37163E-02,	7.32825E+01,	4.65670E+02,	-2.54695E+02,	0.00000E+00,	0,	0
  3.39623E+01,	1.00000E+01,	4.37163E-02,	7.70091E+01,	4.81294E+02,	-3.04683E+02,	0.00000E+00,	0,	0
  2.68657E+01,	1.00000E+01,	4.37163E-02,	8.08710E+01,	5.05008E+02,	-3.64559E+02,	0.00000E+00,	0,	0
  2.13439E+01,	1.00000E+01,	4.37163E-02,	8.46844E+01,	5.29543E+02,	-4.35448E+02,	0.00000E+00,	0,	0
  1.73077E+01,	1.00000E+01,	4.37163E-02,	8.83655E+01,	5.53932E+02,	-5.13553E+02,	0.00000E+00,	0,	0
  1.36364E+01,	1.00000E+01,	4.37163E-02,	9.33828E+01,	5.85198E+02,	-6.21663E+02,	0.00000E+00,	0,	0
  1.07143E+01,	1.00000E+01,	4.37163E-02,	9.62906E+01,	6.19492E+02,	-7.56692E+02,	0.00000E+00,	0,	0
  8.49057E+00,	1.00000E+01,	4.37163E-02,	1.00506E+02,	6.57929E+02,	-9.18391E+02,	0.00000E+00,	0,	0
  6.71642E+00,	1.00000E+01,	4.37163E-02,	1.03031E+02,	7.01527E+02,	-1.11964E+03,	0.00000E+00,	0,	0
  5.29412E+00,	1.00000E+01,	4.37163E-02,	1.05948E+02,	7.53695E+02,	-1.37076E+03,	0.00000E+00,	0,	0
  4.16667E+00,	1.00000E+01,	4.37163E-02,	1.09443E+02,	8.16105E+02,	-1.68661E+03,	0.00000E+00,	0,	0
  3.30882E+00,	1.00000E+01,	4.37163E-02,	1.15977E+02,	8.89893E+02,	-2.06161E+03,	0.00000E+00,	0,	0
  2.61628E+00,	1.00000E+01,	4.37163E-02,	1.19945E+02,	9.80071E+02,	-2.53432E+03,	0.00000E+00,	0,	0
  2.07373E+00,	1.00000E+01,	4.37163E-02,	1.24727E+02,	1.08934E+03,	-3.11307E+03,	0.00000E+00,	0,	0
  1.64234E+00,	1.00000E+01,	4.37163E-02,	1.30514E+02,	1.22552E+03,	-3.83063E+03,	0.00000E+00,	0,	0
  1.30058E+00,	1.00000E+01,	4.37163E-02,	1.34680E+02,	1.39639E+03,	-4.71356E+03,	0.00000E+00,	0,	0
  1.03211E+00,	1.00000E+01,	4.37163E-02,	1.39075E+02,	1.60885E+03,	-5.79596E+03,	0.00000E+00,	0,	0
  8.15217E-01,	1.00000E+01,	4.37163E-02,	1.46040E+02,	1.88389E+03,	-7.14721E+03,	0.00000E+00,	0,	0
  6.46552E-01,	1.00000E+01,	4.37163E-02,	1.50917E+02,	2.23116E+03,	-8.78597E+03,	0.00000E+00,	0,	0
  5.11364E-01,	1.00000E+01,	4.37163E-02,	1.55960E+02,	2.61763E+03,	-1.08324E+04,	0.00000E+00,	0,	0
  4.07609E-01,	1.00000E+01,	4.37163E-02,	1.62051E+02,	3.16213E+03,	-1.32435E+04,	0.00000E+00,	0,	0
  3.21429E-01,	1.00000E+01,	4.37163E-02,	1.69181E+02,	3.89325E+03,	-1.64567E+04,	0.00000E+00,	0,	0
  2.54525E-01,	1.00000E+01,	4.37163E-02,	1.77959E+02,	4.85798E+03,	-2.01686E+04,	0.00000E+00,	0,	0
  2.01613E-01,	1.00000E+01,	4.37163E-02,	1.88801E+02,	6.07627E+03,	-2.47091E+04,	0.00000E+00,	0,	0
  1.59574E-01,	1.00000E+01,	4.37163E-02,	2.02267E+02,	7.65766E+03,	-3.02477E+04,	0.00000E+00,	0,	0
  1.26689E-01,	1.00000E+01,	4.37163E-02,	2.36149E+02,	9.71479E+03,	-3.66346E+04,	0.00000E+00,	0,	0
  1.00446E-01,	1.00000E+01,	4.37163E-02,	2.57045E+02,	1.20982E+04,	-4.53970E+04,	0.00000E+00,	0,	0