Z60W Data File: Version 1.1
CorrTest for Windows: SN CS310H1805157  V5.2.1111.9  2.5H6.220118
Sweep Frequency: Control Voltage
  Date:4-29-2026   Time:12:46:12
  Begin Information:            Cell Information
      Surface Area:           1
      Density:                7.8
      Weight:                 28
  End Information:              Cell Information
  Freq (Hz)     Ampl(mV)       Bias(V)      Time(Sec)       Z'(Ohm.cm^2)    Z''(Ohm.cm^2)        GD       Err      Range
End Comments
  3.07200E+05,	1.00000E+01,	4.93101E-02,	2.16103E-02,	-1.35908E+00,	2.84345E+00,	0.00000E+00,	0,	0
  2.76480E+05,	1.00000E+01,	4.93101E-02,	1.67277E+00,	-7.94437E-01,	2.19421E+00,	0.00000E+00,	0,	0
  1.97486E+05,	1.00000E+01,	4.93101E-02,	2.55930E+00,	-6.05198E-02,	1.58868E+00,	0.00000E+00,	0,	0
  1.53600E+05,	1.00000E+01,	4.93101E-02,	3.45689E+00,	2.16849E-01,	1.20742E+00,	0.00000E+00,	0,	0
  1.25673E+05,	1.00000E+01,	4.93101E-02,	4.36672E+00,	3.76233E-01,	9.47269E-01,	0.00000E+00,	0,	0
  9.87429E+04,	1.00000E+01,	4.93101E-02,	5.27742E+00,	5.14372E-01,	7.10214E-01,	0.00000E+00,	0,	0
  7.68000E+04,	1.00000E+01,	4.93101E-02,	6.17931E+00,	5.90848E-01,	5.07360E-01,	0.00000E+00,	0,	0
  6.01043E+04,	1.00000E+01,	4.93101E-02,	9.40276E+00,	6.50624E-01,	2.93563E-01,	0.00000E+00,	0,	0
  4.93714E+04,	1.00000E+01,	4.93101E-02,	1.10054E+01,	6.71745E-01,	1.78971E-01,	0.00000E+00,	0,	0
  3.84000E+04,	1.00000E+01,	4.93101E-02,	1.19007E+01,	6.90365E-01,	4.68093E-02,	0.00000E+00,	0,	0
  3.00522E+04,	1.00000E+01,	4.93101E-02,	1.27677E+01,	7.08883E-01,	-7.81262E-02,	0.00000E+00,	0,	0
  2.38345E+04,	1.00000E+01,	4.93101E-02,	1.36500E+01,	7.26747E-01,	-1.96825E-01,	0.00000E+00,	0,	0
  1.86811E+04,	1.00000E+01,	4.93101E-02,	1.45134E+01,	7.48190E-01,	-3.26103E-01,	0.00000E+00,	0,	0
  1.47064E+04,	1.00000E+01,	4.93101E-02,	1.54742E+01,	7.73810E-01,	-4.66663E-01,	0.00000E+00,	0,	0
  1.15200E+04,	1.00000E+01,	4.93101E-02,	1.64772E+01,	8.06151E-01,	-6.26983E-01,	0.00000E+00,	0,	0
  9.60000E+03,	1.00000E+01,	4.93101E-02,	1.80461E+01,	8.32829E-01,	-7.62782E-01,	0.00000E+00,	0,	0
  7.51304E+03,	1.00000E+01,	4.93101E-02,	1.89297E+01,	8.77364E-01,	-9.76278E-01,	0.00000E+00,	0,	0
  5.76000E+03,	1.00000E+01,	4.93101E-02,	1.98315E+01,	9.34844E-01,	-1.25630E+00,	0.00000E+00,	0,	0
  4.54737E+03,	1.00000E+01,	4.93101E-02,	2.06930E+01,	9.95822E-01,	-1.55820E+00,	0.00000E+00,	0,	0
  3.60000E+03,	1.00000E+01,	4.93101E-02,	2.16834E+01,	1.07322E+00,	-1.92383E+00,	0.00000E+00,	0,	0
  2.88000E+03,	1.00000E+01,	4.93101E-02,	2.25767E+01,	1.15726E+00,	-2.34841E+00,	0.00000E+00,	0,	0
  2.27368E+03,	1.00000E+01,	4.93101E-02,	2.48620E+01,	1.25967E+00,	-2.87475E+00,	0.00000E+00,	0,	0
  1.78144E+03,	1.00000E+01,	4.93101E-02,	2.57289E+01,	1.40494E+00,	-3.56788E+00,	0.00000E+00,	0,	0
  1.41639E+03,	1.00000E+01,	4.93101E-02,	2.66359E+01,	1.58035E+00,	-4.36960E+00,	0.00000E+00,	0,	0
  1.12208E+03,	1.00000E+01,	4.93101E-02,	2.76839E+01,	1.78644E+00,	-5.36239E+00,	0.00000E+00,	0,	0
  9.00000E+02,	1.00000E+01,	4.93101E-02,	3.26785E+01,	2.05555E+00,	-6.52711E+00,	0.00000E+00,	0,	0
  7.20000E+02,	1.00000E+01,	4.93101E-02,	3.40872E+01,	2.38614E+00,	-7.93387E+00,	0.00000E+00,	0,	0
  5.68421E+02,	1.00000E+01,	4.93101E-02,	3.54816E+01,	2.82995E+00,	-9.74498E+00,	0.00000E+00,	0,	0
  4.40816E+02,	1.00000E+01,	4.93101E-02,	3.85440E+01,	3.45849E+00,	-1.21716E+01,	0.00000E+00,	0,	0
  3.54098E+02,	1.00000E+01,	4.93101E-02,	4.08919E+01,	4.13869E+00,	-1.46901E+01,	0.00000E+00,	0,	0
  2.76923E+02,	1.00000E+01,	4.93101E-02,	4.35348E+01,	5.12674E+00,	-1.81155E+01,	0.00000E+00,	0,	0
  2.20408E+02,	1.00000E+01,	4.93101E-02,	4.64865E+01,	6.29334E+00,	-2.19646E+01,	0.00000E+00,	0,	0
  1.74194E+02,	1.00000E+01,	4.93101E-02,	4.97397E+01,	7.82730E+00,	-2.67284E+01,	0.00000E+00,	0,	0
  1.37580E+02,	1.00000E+01,	4.93101E-02,	5.33954E+01,	9.79070E+00,	-3.24748E+01,	0.00000E+00,	0,	0
  1.09091E+02,	1.00000E+01,	4.93101E-02,	5.74728E+01,	1.22295E+01,	-3.92375E+01,	0.00000E+00,	0,	0
  8.70968E+01,	1.00000E+01,	4.93101E-02,	6.31803E+01,	1.51638E+01,	-4.70667E+01,	0.00000E+00,	0,	0
  6.83544E+01,	1.00000E+01,	4.93101E-02,	6.81966E+01,	1.91297E+01,	-5.72825E+01,	0.00000E+00,	0,	0
  5.45455E+01,	1.00000E+01,	4.93101E-02,	7.36873E+01,	2.38293E+01,	-6.71274E+01,	0.00000E+00,	0,	0
  4.28571E+01,	1.00000E+01,	4.93101E-02,	7.72171E+01,	2.96754E+01,	-8.04590E+01,	0.00000E+00,	0,	0
  3.39623E+01,	1.00000E+01,	4.93101E-02,	8.09743E+01,	3.57471E+01,	-9.54977E+01,	0.00000E+00,	0,	0
  2.68657E+01,	1.00000E+01,	4.93101E-02,	8.48147E+01,	4.38446E+01,	-1.13811E+02,	0.00000E+00,	0,	0
  2.13439E+01,	1.00000E+01,	4.93101E-02,	8.86140E+01,	5.29870E+01,	-1.34804E+02,	0.00000E+00,	0,	0
  1.73077E+01,	1.00000E+01,	4.93101E-02,	9.53183E+01,	6.25677E+01,	-1.57476E+02,	0.00000E+00,	0,	0
  1.36364E+01,	1.00000E+01,	4.93101E-02,	1.00347E+02,	7.47047E+01,	-1.87565E+02,	0.00000E+00,	0,	0
  1.07143E+01,	1.00000E+01,	4.93101E-02,	1.03264E+02,	8.86315E+01,	-2.24039E+02,	0.00000E+00,	0,	0
  8.49057E+00,	1.00000E+01,	4.93101E-02,	1.07463E+02,	1.03719E+02,	-2.66426E+02,	0.00000E+00,	0,	0
  6.71642E+00,	1.00000E+01,	4.93101E-02,	1.09985E+02,	1.20750E+02,	-3.18160E+02,	0.00000E+00,	0,	0
  5.29412E+00,	1.00000E+01,	4.93101E-02,	1.12924E+02,	1.39857E+02,	-3.81645E+02,	0.00000E+00,	0,	0
  4.16667E+00,	1.00000E+01,	4.93101E-02,	1.16409E+02,	1.61083E+02,	-4.60606E+02,	0.00000E+00,	0,	0
  3.30882E+00,	1.00000E+01,	4.93101E-02,	1.20637E+02,	1.83578E+02,	-5.54053E+02,	0.00000E+00,	0,	0
  2.61628E+00,	1.00000E+01,	4.93101E-02,	1.24606E+02,	2.09215E+02,	-6.71191E+02,	0.00000E+00,	0,	0
  2.07373E+00,	1.00000E+01,	4.93101E-02,	1.29382E+02,	2.37568E+02,	-8.15073E+02,	0.00000E+00,	0,	0
  1.64234E+00,	1.00000E+01,	4.93101E-02,	1.35182E+02,	2.69757E+02,	-9.93909E+02,	0.00000E+00,	0,	0
  1.30058E+00,	1.00000E+01,	4.93101E-02,	1.39343E+02,	3.07439E+02,	-1.21559E+03,	0.00000E+00,	0,	0
  1.03211E+00,	1.00000E+01,	4.93101E-02,	1.43742E+02,	3.50727E+02,	-1.48908E+03,	0.00000E+00,	0,	0
  8.15217E-01,	1.00000E+01,	4.93101E-02,	1.50703E+02,	4.02530E+02,	-1.83371E+03,	0.00000E+00,	0,	0
  6.46552E-01,	1.00000E+01,	4.93101E-02,	1.59791E+02,	4.49316E+02,	-2.25571E+03,	0.00000E+00,	0,	0
  5.11364E-01,	1.00000E+01,	4.93101E-02,	1.64836E+02,	5.19735E+02,	-2.80663E+03,	0.00000E+00,	0,	0
  4.07609E-01,	1.00000E+01,	4.93101E-02,	1.70890E+02,	6.05803E+02,	-3.44728E+03,	0.00000E+00,	0,	0
  3.21429E-01,	1.00000E+01,	4.93101E-02,	1.78011E+02,	7.06598E+02,	-4.31183E+03,	0.00000E+00,	0,	0
  2.54525E-01,	1.00000E+01,	4.93101E-02,	1.86798E+02,	8.37878E+02,	-5.32932E+03,	0.00000E+00,	0,	0
  2.01613E-01,	1.00000E+01,	4.93101E-02,	1.97666E+02,	9.94413E+02,	-6.59492E+03,	0.00000E+00,	0,	0
  1.59574E-01,	1.00000E+01,	4.93101E-02,	2.11128E+02,	1.18352E+03,	-8.17406E+03,	0.00000E+00,	0,	0
  1.26689E-01,	1.00000E+01,	4.93101E-02,	2.28049E+02,	1.41630E+03,	-1.01058E+04,	0.00000E+00,	0,	0
  1.00446E-01,	1.00000E+01,	4.93101E-02,	2.48911E+02,	1.69626E+03,	-1.25207E+04,	0.00000E+00,	0,	0