Z60W Data File: Version 1.1
CorrTest for Windows: SN CS310H1805157  V5.2.1111.9  2.5H6.220118
Sweep Frequency: Control Voltage
  Date:4-29-2026   Time:10:13:00
  Begin Information:            Cell Information
      Surface Area:           1
      Density:                7.8
      Weight:                 28
  End Information:              Cell Information
  Freq (Hz)     Ampl(mV)       Bias(V)      Time(Sec)       Z'(Ohm.cm^2)    Z''(Ohm.cm^2)        GD       Err      Range
End Comments
  3.07200E+05,	1.00000E+01,	4.81831E-02,	5.68298E-02,	-1.51704E+00,	2.81619E+00,	0.00000E+00,	0,	0
  2.76480E+05,	1.00000E+01,	4.81831E-02,	1.65853E+00,	-9.56629E-01,	2.16876E+00,	0.00000E+00,	0,	0
  1.97486E+05,	1.00000E+01,	4.81831E-02,	2.57554E+00,	-1.51561E-01,	1.59591E+00,	0.00000E+00,	0,	0
  1.53600E+05,	1.00000E+01,	4.81831E-02,	3.47050E+00,	1.20307E-01,	1.19073E+00,	0.00000E+00,	0,	0
  1.25673E+05,	1.00000E+01,	4.81831E-02,	4.39596E+00,	2.78992E-01,	9.52126E-01,	0.00000E+00,	0,	0
  9.87429E+04,	1.00000E+01,	4.81831E-02,	5.30400E+00,	4.15741E-01,	7.15577E-01,	0.00000E+00,	0,	0
  7.68000E+04,	1.00000E+01,	4.81831E-02,	6.20527E+00,	4.92722E-01,	5.21347E-01,	0.00000E+00,	0,	0
  6.01043E+04,	1.00000E+01,	4.81831E-02,	9.40220E+00,	5.54160E-01,	3.17473E-01,	0.00000E+00,	0,	0
  4.93714E+04,	1.00000E+01,	4.81831E-02,	1.10064E+01,	5.71198E-01,	2.09587E-01,	0.00000E+00,	0,	0
  3.84000E+04,	1.00000E+01,	4.81831E-02,	1.19415E+01,	5.88398E-01,	8.69590E-02,	0.00000E+00,	0,	0
  3.00522E+04,	1.00000E+01,	4.81831E-02,	1.28059E+01,	6.03443E-01,	-2.83024E-02,	0.00000E+00,	0,	0
  2.38345E+04,	1.00000E+01,	4.81831E-02,	1.36796E+01,	6.17621E-01,	-1.34969E-01,	0.00000E+00,	0,	0
  1.86811E+04,	1.00000E+01,	4.81831E-02,	1.45141E+01,	6.34286E-01,	-2.51607E-01,	0.00000E+00,	0,	0
  1.47064E+04,	1.00000E+01,	4.81831E-02,	1.54908E+01,	6.54568E-01,	-3.75752E-01,	0.00000E+00,	0,	0
  1.15200E+04,	1.00000E+01,	4.81831E-02,	1.64532E+01,	6.79326E-01,	-5.16825E-01,	0.00000E+00,	0,	0
  9.60000E+03,	1.00000E+01,	4.81831E-02,	1.80144E+01,	7.00578E-01,	-6.36235E-01,	0.00000E+00,	0,	0
  7.51304E+03,	1.00000E+01,	4.81831E-02,	1.88859E+01,	7.36391E-01,	-8.21798E-01,	0.00000E+00,	0,	0
  5.76000E+03,	1.00000E+01,	4.81831E-02,	1.97795E+01,	7.83130E-01,	-1.06571E+00,	0.00000E+00,	0,	0
  4.54737E+03,	1.00000E+01,	4.81831E-02,	2.06580E+01,	8.36763E-01,	-1.33055E+00,	0.00000E+00,	0,	0
  3.60000E+03,	1.00000E+01,	4.81831E-02,	2.16547E+01,	9.01298E-01,	-1.64830E+00,	0.00000E+00,	0,	0
  2.88000E+03,	1.00000E+01,	4.81831E-02,	2.25439E+01,	9.76599E-01,	-2.01800E+00,	0.00000E+00,	0,	0
  2.27368E+03,	1.00000E+01,	4.81831E-02,	2.48167E+01,	1.07078E+00,	-2.47535E+00,	0.00000E+00,	0,	0
  1.78144E+03,	1.00000E+01,	4.81831E-02,	2.56551E+01,	1.20403E+00,	-3.07120E+00,	0.00000E+00,	0,	0
  1.41639E+03,	1.00000E+01,	4.81831E-02,	2.65585E+01,	1.36347E+00,	-3.75787E+00,	0.00000E+00,	0,	0
  1.12208E+03,	1.00000E+01,	4.81831E-02,	2.76502E+01,	1.56946E+00,	-4.61618E+00,	0.00000E+00,	0,	0
  9.00000E+02,	1.00000E+01,	4.81831E-02,	3.26334E+01,	1.82208E+00,	-5.59888E+00,	0.00000E+00,	0,	0
  7.20000E+02,	1.00000E+01,	4.81831E-02,	3.40096E+01,	2.13737E+00,	-6.78863E+00,	0.00000E+00,	0,	0
  5.68421E+02,	1.00000E+01,	4.81831E-02,	3.53710E+01,	2.56421E+00,	-8.31055E+00,	0.00000E+00,	0,	0
  4.40816E+02,	1.00000E+01,	4.81831E-02,	3.68850E+01,	3.16122E+00,	-1.03099E+01,	0.00000E+00,	0,	0
  3.54098E+02,	1.00000E+01,	4.81831E-02,	3.92423E+01,	3.81528E+00,	-1.23878E+01,	0.00000E+00,	0,	0
  2.76923E+02,	1.00000E+01,	4.81831E-02,	4.18805E+01,	4.75852E+00,	-1.51847E+01,	0.00000E+00,	0,	0
  2.20408E+02,	1.00000E+01,	4.81831E-02,	4.48162E+01,	5.86798E+00,	-1.83017E+01,	0.00000E+00,	0,	0
  1.74194E+02,	1.00000E+01,	4.81831E-02,	4.80648E+01,	7.30533E+00,	-2.20988E+01,	0.00000E+00,	0,	0
  1.37580E+02,	1.00000E+01,	4.81831E-02,	5.17156E+01,	9.10180E+00,	-2.66153E+01,	0.00000E+00,	0,	0
  1.09091E+02,	1.00000E+01,	4.81831E-02,	5.58170E+01,	1.12649E+01,	-3.18613E+01,	0.00000E+00,	0,	0
  8.70968E+01,	1.00000E+01,	4.81831E-02,	6.39528E+01,	1.38230E+01,	-3.79892E+01,	0.00000E+00,	0,	0
  6.83544E+01,	1.00000E+01,	4.81831E-02,	6.89844E+01,	1.70981E+01,	-4.58342E+01,	0.00000E+00,	0,	0
  5.45455E+01,	1.00000E+01,	4.81831E-02,	7.44292E+01,	2.07969E+01,	-5.33572E+01,	0.00000E+00,	0,	0
  4.28571E+01,	1.00000E+01,	4.81831E-02,	7.79484E+01,	2.52771E+01,	-6.36446E+01,	0.00000E+00,	0,	0
  3.39623E+01,	1.00000E+01,	4.81831E-02,	8.16722E+01,	2.97786E+01,	-7.53519E+01,	0.00000E+00,	0,	0
  2.68657E+01,	1.00000E+01,	4.81831E-02,	8.55110E+01,	3.57111E+01,	-8.97392E+01,	0.00000E+00,	0,	0
  2.13439E+01,	1.00000E+01,	4.81831E-02,	8.93258E+01,	4.22774E+01,	-1.06373E+02,	0.00000E+00,	0,	0
  1.73077E+01,	1.00000E+01,	4.81831E-02,	9.59907E+01,	4.90137E+01,	-1.24532E+02,	0.00000E+00,	0,	0
  1.36364E+01,	1.00000E+01,	4.81831E-02,	1.01041E+02,	5.73618E+01,	-1.48918E+02,	0.00000E+00,	0,	0
  1.07143E+01,	1.00000E+01,	4.81831E-02,	1.03956E+02,	6.66968E+01,	-1.78889E+02,	0.00000E+00,	0,	0
  8.49057E+00,	1.00000E+01,	4.81831E-02,	1.08194E+02,	7.65884E+01,	-2.14321E+02,	0.00000E+00,	0,	0
  6.71642E+00,	1.00000E+01,	4.81831E-02,	1.10713E+02,	8.76032E+01,	-2.58220E+02,	0.00000E+00,	0,	0
  5.29412E+00,	1.00000E+01,	4.81831E-02,	1.13675E+02,	1.00018E+02,	-3.13168E+02,	0.00000E+00,	0,	0
  4.16667E+00,	1.00000E+01,	4.81831E-02,	1.17200E+02,	1.13941E+02,	-3.82010E+02,	0.00000E+00,	0,	0
  3.30882E+00,	1.00000E+01,	4.81831E-02,	1.21435E+02,	1.29088E+02,	-4.64261E+02,	0.00000E+00,	0,	0
  2.61628E+00,	1.00000E+01,	4.81831E-02,	1.25400E+02,	1.46943E+02,	-5.68028E+02,	0.00000E+00,	0,	0
  2.07373E+00,	1.00000E+01,	4.81831E-02,	1.30166E+02,	1.67471E+02,	-6.95758E+02,	0.00000E+00,	0,	0
  1.64234E+00,	1.00000E+01,	4.81831E-02,	1.35957E+02,	1.91582E+02,	-8.54887E+02,	0.00000E+00,	0,	0
  1.30058E+00,	1.00000E+01,	4.81831E-02,	1.40137E+02,	2.20873E+02,	-1.05248E+03,	0.00000E+00,	0,	0
  1.03211E+00,	1.00000E+01,	4.81831E-02,	1.44544E+02,	2.55660E+02,	-1.29559E+03,	0.00000E+00,	0,	0
  8.15217E-01,	1.00000E+01,	4.81831E-02,	1.51483E+02,	2.98011E+02,	-1.60182E+03,	0.00000E+00,	0,	0
  6.46552E-01,	1.00000E+01,	4.81831E-02,	1.60569E+02,	3.38718E+02,	-1.97966E+03,	0.00000E+00,	0,	0
  5.11364E-01,	1.00000E+01,	4.81831E-02,	1.65565E+02,	3.98851E+02,	-2.46776E+03,	0.00000E+00,	0,	0
  4.07609E-01,	1.00000E+01,	4.81831E-02,	1.71626E+02,	4.71867E+02,	-3.03916E+03,	0.00000E+00,	0,	0
  3.21429E-01,	1.00000E+01,	4.81831E-02,	1.78835E+02,	5.59835E+02,	-3.80452E+03,	0.00000E+00,	0,	0
  2.54525E-01,	1.00000E+01,	4.81831E-02,	1.87608E+02,	6.75808E+02,	-4.70955E+03,	0.00000E+00,	0,	0
  2.01613E-01,	1.00000E+01,	4.81831E-02,	1.98459E+02,	8.17113E+02,	-5.83624E+03,	0.00000E+00,	0,	0
  1.59574E-01,	1.00000E+01,	4.81831E-02,	2.11990E+02,	9.92483E+02,	-7.24384E+03,	0.00000E+00,	0,	0
  1.26689E-01,	1.00000E+01,	4.81831E-02,	2.28888E+02,	1.21463E+03,	-8.96028E+03,	0.00000E+00,	0,	0
  1.00446E-01,	1.00000E+01,	4.81831E-02,	2.49757E+02,	1.48703E+03,	-1.11162E+04,	0.00000E+00,	0,	0