Z60W Data File: Version 1.1
CorrTest for Windows: SN CS310H1805157  V5.2.1111.9  2.5H6.220118
Sweep Frequency: Control Voltage
  Date:4-29-2026   Time:12:54:22
  Begin Information:            Cell Information
      Surface Area:           1
      Density:                7.8
      Weight:                 28
  End Information:              Cell Information
  Freq (Hz)     Ampl(mV)       Bias(V)      Time(Sec)       Z'(Ohm.cm^2)    Z''(Ohm.cm^2)        GD       Err      Range
End Comments
  3.07200E+05,	1.00000E+01,	5.32075E-02,	6.38343E-02,	-1.31777E+00,	2.83819E+00,	0.00000E+00,	0,	0
  2.76480E+05,	1.00000E+01,	5.32075E-02,	1.67703E+00,	-7.47263E-01,	2.27385E+00,	0.00000E+00,	0,	0
  1.97486E+05,	1.00000E+01,	5.32075E-02,	2.58513E+00,	-2.05704E-02,	1.62123E+00,	0.00000E+00,	0,	0
  1.53600E+05,	1.00000E+01,	5.32075E-02,	3.49030E+00,	2.61932E-01,	1.21101E+00,	0.00000E+00,	0,	0
  1.25673E+05,	1.00000E+01,	5.32075E-02,	4.40728E+00,	4.14337E-01,	9.58000E-01,	0.00000E+00,	0,	0
  9.87429E+04,	1.00000E+01,	5.32075E-02,	5.32423E+00,	5.50978E-01,	7.07358E-01,	0.00000E+00,	0,	0
  7.68000E+04,	1.00000E+01,	5.32075E-02,	6.24033E+00,	6.30861E-01,	5.11446E-01,	0.00000E+00,	0,	0
  6.01043E+04,	1.00000E+01,	5.32075E-02,	9.46635E+00,	6.86324E-01,	2.93161E-01,	0.00000E+00,	0,	0
  4.93714E+04,	1.00000E+01,	5.32075E-02,	1.10279E+01,	7.09680E-01,	1.78286E-01,	0.00000E+00,	0,	0
  3.84000E+04,	1.00000E+01,	5.32075E-02,	1.19400E+01,	7.30815E-01,	4.06031E-02,	0.00000E+00,	0,	0
  3.00522E+04,	1.00000E+01,	5.32075E-02,	1.27969E+01,	7.47764E-01,	-8.36276E-02,	0.00000E+00,	0,	0
  2.38345E+04,	1.00000E+01,	5.32075E-02,	1.36709E+01,	7.66510E-01,	-2.03101E-01,	0.00000E+00,	0,	0
  1.86811E+04,	1.00000E+01,	5.32075E-02,	1.45436E+01,	7.90246E-01,	-3.37211E-01,	0.00000E+00,	0,	0
  1.47064E+04,	1.00000E+01,	5.32075E-02,	1.55125E+01,	8.16079E-01,	-4.78470E-01,	0.00000E+00,	0,	0
  1.15200E+04,	1.00000E+01,	5.32075E-02,	1.65026E+01,	8.49106E-01,	-6.42344E-01,	0.00000E+00,	0,	0
  9.60000E+03,	1.00000E+01,	5.32075E-02,	1.80780E+01,	8.77204E-01,	-7.80495E-01,	0.00000E+00,	0,	0
  7.51304E+03,	1.00000E+01,	5.32075E-02,	1.89769E+01,	9.22239E-01,	-9.97464E-01,	0.00000E+00,	0,	0
  5.76000E+03,	1.00000E+01,	5.32075E-02,	1.98815E+01,	9.82011E-01,	-1.28123E+00,	0.00000E+00,	0,	0
  4.54737E+03,	1.00000E+01,	5.32075E-02,	2.07530E+01,	1.04554E+00,	-1.59206E+00,	0.00000E+00,	0,	0
  3.60000E+03,	1.00000E+01,	5.32075E-02,	2.17401E+01,	1.12295E+00,	-1.96218E+00,	0.00000E+00,	0,	0
  2.88000E+03,	1.00000E+01,	5.32075E-02,	2.26584E+01,	1.20943E+00,	-2.39785E+00,	0.00000E+00,	0,	0
  2.27368E+03,	1.00000E+01,	5.32075E-02,	2.49457E+01,	1.31524E+00,	-2.93329E+00,	0.00000E+00,	0,	0
  1.78144E+03,	1.00000E+01,	5.32075E-02,	2.57322E+01,	1.46034E+00,	-3.63466E+00,	0.00000E+00,	0,	0
  1.41639E+03,	1.00000E+01,	5.32075E-02,	2.66292E+01,	1.63290E+00,	-4.44955E+00,	0.00000E+00,	0,	0
  1.12208E+03,	1.00000E+01,	5.32075E-02,	2.76728E+01,	1.85361E+00,	-5.45973E+00,	0.00000E+00,	0,	0
  9.00000E+02,	1.00000E+01,	5.32075E-02,	3.26553E+01,	2.11675E+00,	-6.65039E+00,	0.00000E+00,	0,	0
  7.20000E+02,	1.00000E+01,	5.32075E-02,	3.40197E+01,	2.44734E+00,	-8.08574E+00,	0.00000E+00,	0,	0
  5.68421E+02,	1.00000E+01,	5.32075E-02,	3.53908E+01,	2.89479E+00,	-9.93682E+00,	0.00000E+00,	0,	0
  4.40816E+02,	1.00000E+01,	5.32075E-02,	3.84080E+01,	3.52501E+00,	-1.24171E+01,	0.00000E+00,	0,	0
  3.54098E+02,	1.00000E+01,	5.32075E-02,	4.07466E+01,	4.20752E+00,	-1.49893E+01,	0.00000E+00,	0,	0
  2.76923E+02,	1.00000E+01,	5.32075E-02,	4.33754E+01,	5.19504E+00,	-1.84931E+01,	0.00000E+00,	0,	0
  2.20408E+02,	1.00000E+01,	5.32075E-02,	4.63464E+01,	6.36411E+00,	-2.24453E+01,	0.00000E+00,	0,	0
  1.74194E+02,	1.00000E+01,	5.32075E-02,	4.96126E+01,	7.90190E+00,	-2.73402E+01,	0.00000E+00,	0,	0
  1.37580E+02,	1.00000E+01,	5.32075E-02,	5.33075E+01,	9.87367E+00,	-3.32492E+01,	0.00000E+00,	0,	0
  1.09091E+02,	1.00000E+01,	5.32075E-02,	5.73892E+01,	1.23261E+01,	-4.02279E+01,	0.00000E+00,	0,	0
  8.70968E+01,	1.00000E+01,	5.32075E-02,	6.30998E+01,	1.52876E+01,	-4.83166E+01,	0.00000E+00,	0,	0
  6.83544E+01,	1.00000E+01,	5.32075E-02,	6.81163E+01,	1.93155E+01,	-5.88934E+01,	0.00000E+00,	0,	0
  5.45455E+01,	1.00000E+01,	5.32075E-02,	7.35588E+01,	2.41290E+01,	-6.91249E+01,	0.00000E+00,	0,	0
  4.28571E+01,	1.00000E+01,	5.32075E-02,	7.70909E+01,	3.01533E+01,	-8.29572E+01,	0.00000E+00,	0,	0
  3.39623E+01,	1.00000E+01,	5.32075E-02,	8.08420E+01,	3.64339E+01,	-9.85571E+01,	0.00000E+00,	0,	0
  2.68657E+01,	1.00000E+01,	5.32075E-02,	8.46924E+01,	4.48729E+01,	-1.17529E+02,	0.00000E+00,	0,	0
  2.13439E+01,	1.00000E+01,	5.32075E-02,	8.85328E+01,	5.44230E+01,	-1.39241E+02,	0.00000E+00,	0,	0
  1.73077E+01,	1.00000E+01,	5.32075E-02,	9.52251E+01,	6.44701E+01,	-1.62678E+02,	0.00000E+00,	0,	0
  1.36364E+01,	1.00000E+01,	5.32075E-02,	1.00252E+02,	7.72228E+01,	-1.93700E+02,	0.00000E+00,	0,	0
  1.07143E+01,	1.00000E+01,	5.32075E-02,	1.03165E+02,	9.19023E+01,	-2.31254E+02,	0.00000E+00,	0,	0
  8.49057E+00,	1.00000E+01,	5.32075E-02,	1.07358E+02,	1.07946E+02,	-2.74876E+02,	0.00000E+00,	0,	0
  6.71642E+00,	1.00000E+01,	5.32075E-02,	1.09859E+02,	1.25968E+02,	-3.27792E+02,	0.00000E+00,	0,	0
  5.29412E+00,	1.00000E+01,	5.32075E-02,	1.12784E+02,	1.46392E+02,	-3.92803E+02,	0.00000E+00,	0,	0
  4.16667E+00,	1.00000E+01,	5.32075E-02,	1.16291E+02,	1.69020E+02,	-4.73166E+02,	0.00000E+00,	0,	0
  3.30882E+00,	1.00000E+01,	5.32075E-02,	1.20527E+02,	1.93028E+02,	-5.68245E+02,	0.00000E+00,	0,	0
  2.61628E+00,	1.00000E+01,	5.32075E-02,	1.24482E+02,	2.20263E+02,	-6.87005E+02,	0.00000E+00,	0,	0
  2.07373E+00,	1.00000E+01,	5.32075E-02,	1.29290E+02,	2.50256E+02,	-8.32978E+02,	0.00000E+00,	0,	0
  1.64234E+00,	1.00000E+01,	5.32075E-02,	1.35088E+02,	2.84129E+02,	-1.01427E+03,	0.00000E+00,	0,	0
  1.30058E+00,	1.00000E+01,	5.32075E-02,	1.39282E+02,	3.23672E+02,	-1.23888E+03,	0.00000E+00,	0,	0
  1.03211E+00,	1.00000E+01,	5.32075E-02,	1.43693E+02,	3.68620E+02,	-1.51595E+03,	0.00000E+00,	0,	0
  8.15217E-01,	1.00000E+01,	5.32075E-02,	1.50651E+02,	4.22099E+02,	-1.86515E+03,	0.00000E+00,	0,	0
  6.46552E-01,	1.00000E+01,	5.32075E-02,	1.59764E+02,	4.71857E+02,	-2.29442E+03,	0.00000E+00,	0,	0
  5.11364E-01,	1.00000E+01,	5.32075E-02,	1.64770E+02,	5.43018E+02,	-2.85144E+03,	0.00000E+00,	0,	0
  4.07609E-01,	1.00000E+01,	5.32075E-02,	1.70814E+02,	6.31455E+02,	-3.50167E+03,	0.00000E+00,	0,	0
  3.21429E-01,	1.00000E+01,	5.32075E-02,	1.78001E+02,	7.34522E+02,	-4.37752E+03,	0.00000E+00,	0,	0
  2.54525E-01,	1.00000E+01,	5.32075E-02,	1.86810E+02,	8.68162E+02,	-5.41226E+03,	0.00000E+00,	0,	0
  2.01613E-01,	1.00000E+01,	5.32075E-02,	1.97678E+02,	1.02350E+03,	-6.69578E+03,	0.00000E+00,	0,	0
  1.59574E-01,	1.00000E+01,	5.32075E-02,	2.11140E+02,	1.21343E+03,	-8.29392E+03,	0.00000E+00,	0,	0
  1.26689E-01,	1.00000E+01,	5.32075E-02,	2.28050E+02,	1.44781E+03,	-1.02578E+04,	0.00000E+00,	0,	0
  1.00446E-01,	1.00000E+01,	5.32075E-02,	2.48945E+02,	1.72742E+03,	-1.27062E+04,	0.00000E+00,	0,	0