Z60W Data File: Version 1.1
CorrTest for Windows: SN CS310H1805157  V5.2.1111.9  2.5H6.220118
Sweep Frequency: Control Voltage
  Date:4-29-2026   Time:15:41:49
  Begin Information:            Cell Information
      Surface Area:           1
      Density:                7.8
      Weight:                 28
  End Information:              Cell Information
  Freq (Hz)     Ampl(mV)       Bias(V)      Time(Sec)       Z'(Ohm.cm^2)    Z''(Ohm.cm^2)        GD       Err      Range
End Comments
  1.02857E+03,	1.00000E+01,	3.91297E-02,	2.75874E-02,	7.49870E+03,	6.37621E+01,	0.00000E+00,	0,	0
  8.00000E+02,	1.00000E+01,	3.91297E-02,	4.25623E+00,	7.88261E+03,	-9.07205E+02,	0.00000E+00,	0,	0
  6.35294E+02,	1.00000E+01,	3.91297E-02,	5.68035E+00,	7.97092E+03,	-8.63789E+02,	0.00000E+00,	0,	0
  5.02326E+02,	1.00000E+01,	3.91297E-02,	7.05434E+00,	8.03050E+03,	-8.39532E+02,	0.00000E+00,	0,	0
  3.92727E+02,	1.00000E+01,	3.91297E-02,	8.43043E+00,	8.23714E+03,	-8.40809E+02,	0.00000E+00,	0,	0
  3.08571E+02,	1.00000E+01,	3.91297E-02,	1.09332E+01,	8.34657E+03,	-8.45922E+02,	0.00000E+00,	0,	0
  2.42697E+02,	1.00000E+01,	3.91297E-02,	1.37239E+01,	8.41867E+03,	-8.61741E+02,	0.00000E+00,	0,	0
  1.92857E+02,	1.00000E+01,	3.91297E-02,	1.68380E+01,	8.58304E+03,	-7.59477E+02,	0.00000E+00,	0,	0
  1.52113E+02,	1.00000E+01,	3.91297E-02,	2.03510E+01,	8.64849E+03,	-7.34501E+02,	0.00000E+00,	0,	0
  1.20000E+02,	1.00000E+01,	3.91297E-02,	2.42431E+01,	8.78191E+03,	-7.19848E+02,	0.00000E+00,	0,	0
  9.47368E+01,	1.00000E+01,	3.91297E-02,	2.97069E+01,	8.89961E+03,	-7.70452E+02,	0.00000E+00,	0,	0
  7.50000E+01,	1.00000E+01,	3.91297E-02,	3.45318E+01,	9.05150E+03,	-8.29319E+02,	0.00000E+00,	0,	0
  5.93407E+01,	1.00000E+01,	3.91297E-02,	3.98051E+01,	8.98663E+03,	-6.94960E+02,	0.00000E+00,	0,	0
  4.65517E+01,	1.00000E+01,	3.91297E-02,	4.55783E+01,	9.11722E+03,	-7.82648E+02,	0.00000E+00,	0,	0
  3.67347E+01,	1.00000E+01,	3.91297E-02,	4.92839E+01,	9.27901E+03,	-8.77614E+02,	0.00000E+00,	0,	0
  2.90323E+01,	1.00000E+01,	3.91297E-02,	5.31293E+01,	9.42931E+03,	-9.43141E+02,	0.00000E+00,	0,	0
  2.28814E+01,	1.00000E+01,	3.91297E-02,	5.69920E+01,	9.53879E+03,	-1.06826E+03,	0.00000E+00,	0,	0
  1.87500E+01,	1.00000E+01,	3.91297E-02,	6.06905E+01,	9.72240E+03,	-1.12998E+03,	0.00000E+00,	0,	0
  1.45161E+01,	1.00000E+01,	3.91297E-02,	6.60139E+01,	9.84847E+03,	-1.43434E+03,	0.00000E+00,	0,	0
  1.15385E+01,	1.00000E+01,	3.91297E-02,	6.97358E+01,	9.97474E+03,	-1.65146E+03,	0.00000E+00,	0,	0
  9.00000E+00,	1.00000E+01,	3.91297E-02,	7.68777E+01,	6.13698E+05,	-8.62739E+04,	0.00000E+00,	0,	0
  7.03125E+00,	1.00000E+01,	3.91297E-02,	7.93457E+01,	6.26503E+05,	-1.11732E+05,	0.00000E+00,	0,	0
  5.55556E+00,	1.00000E+01,	3.91297E-02,	8.22892E+01,	6.41747E+05,	-1.43417E+05,	0.00000E+00,	0,	0
  4.41176E+00,	1.00000E+01,	3.91297E-02,	8.56167E+01,	6.56481E+05,	-1.79970E+05,	0.00000E+00,	0,	0
  3.46154E+00,	1.00000E+01,	3.91297E-02,	8.96555E+01,	6.73315E+05,	-2.24745E+05,	0.00000E+00,	0,	0
  2.74390E+00,	1.00000E+01,	3.91297E-02,	9.35148E+01,	6.88149E+05,	-2.76820E+05,	0.00000E+00,	0,	0
  2.16346E+00,	1.00000E+01,	3.91297E-02,	9.81375E+01,	7.11185E+05,	-3.36463E+05,	0.00000E+00,	0,	0
  1.70455E+00,	1.00000E+01,	3.91297E-02,	1.03726E+02,	7.37895E+05,	-4.04577E+05,	0.00000E+00,	0,	0
  1.34731E+00,	1.00000E+01,	3.91297E-02,	1.07769E+02,	7.49813E+05,	-4.90986E+05,	0.00000E+00,	0,	0
  1.06132E+00,	1.00000E+01,	3.91297E-02,	1.12123E+02,	7.94154E+05,	-5.51009E+05,	0.00000E+00,	0,	0
  8.39552E-01,	1.00000E+01,	3.91297E-02,	1.19013E+02,	7.67008E+05,	-7.11915E+05,	0.00000E+00,	0,	0
  6.61765E-01,	1.00000E+01,	3.91297E-02,	1.23615E+02,	8.21331E+05,	-8.30527E+05,	0.00000E+00,	0,	0
  5.23256E-01,	1.00000E+01,	3.91297E-02,	1.28520E+02,	9.18416E+05,	-1.11889E+06,	0.00000E+00,	0,	0
  4.13603E-01,	1.00000E+01,	3.91297E-02,	1.34482E+02,	9.52937E+05,	-1.34742E+06,	0.00000E+00,	0,	0
  3.27035E-01,	1.00000E+01,	3.91297E-02,	1.41521E+02,	1.05611E+06,	-1.59626E+06,	0.00000E+00,	0,	0
  2.58028E-01,	1.00000E+01,	3.91297E-02,	1.50190E+02,	1.07230E+06,	-1.92316E+06,	0.00000E+00,	0,	0
  2.03804E-01,	1.00000E+01,	3.91297E-02,	1.60946E+02,	1.07443E+06,	-2.29038E+06,	0.00000E+00,	0,	0
  1.60944E-01,	1.00000E+01,	3.91297E-02,	1.74325E+02,	1.07176E+06,	-2.63806E+06,	0.00000E+00,	0,	0
  1.26689E-01,	1.00000E+01,	3.91297E-02,	1.91117E+02,	1.12409E+06,	-2.85223E+06,	0.00000E+00,	0,	0
  1.00446E-01,	1.00000E+01,	3.91297E-02,	2.11989E+02,	1.09200E+06,	-2.90941E+06,	0.00000E+00,	0,	0