Z60W Data File: Version 1.1
CorrTest for Windows: SN CS310H1805157  V5.2.1111.9  2.5H6.220118
Sweep Frequency: Control Voltage
  Date:4-29-2026   Time:16:21:11
  Begin Information:            Cell Information
      Surface Area:           1
      Density:                7.8
      Weight:                 28
  End Information:              Cell Information
  Freq (Hz)     Ampl(mV)       Bias(V)      Time(Sec)       Z'(Ohm.cm^2)    Z''(Ohm.cm^2)        GD       Err      Range
End Comments
  3.07200E+05,	1.00000E+01,	4.01043E-02,	2.61085E-02,	4.88873E+02,	-5.03628E+02,	0.00000E+00,	0,	0
  2.76480E+05,	1.00000E+01,	4.01043E-02,	1.63123E+00,	4.93654E+02,	-5.43458E+02,	0.00000E+00,	0,	0
  1.97486E+05,	1.00000E+01,	4.01043E-02,	2.52951E+00,	5.62335E+02,	-7.13986E+02,	0.00000E+00,	0,	0
  1.53600E+05,	1.00000E+01,	4.01043E-02,	3.42886E+00,	6.33785E+02,	-8.89259E+02,	0.00000E+00,	0,	0
  1.25673E+05,	1.00000E+01,	4.01043E-02,	4.33407E+00,	7.19088E+02,	-1.04400E+03,	0.00000E+00,	0,	0
  9.87429E+04,	1.00000E+01,	4.01043E-02,	5.24538E+00,	8.56558E+02,	-1.25344E+03,	0.00000E+00,	0,	0
  7.68000E+04,	1.00000E+01,	4.01043E-02,	6.16901E+00,	1.06624E+03,	-1.47683E+03,	0.00000E+00,	0,	0
  6.01043E+04,	1.00000E+01,	4.01043E-02,	8.27290E+00,	1.31127E+03,	-1.68645E+03,	0.00000E+00,	0,	0
  4.93714E+04,	1.00000E+01,	4.01043E-02,	9.84554E+00,	1.57741E+03,	-1.87283E+03,	0.00000E+00,	0,	0
  3.84000E+04,	1.00000E+01,	4.01043E-02,	1.07326E+01,	1.99090E+03,	-2.10766E+03,	0.00000E+00,	0,	0
  3.00522E+04,	1.00000E+01,	4.01043E-02,	1.16151E+01,	2.47619E+03,	-1.79544E+03,	0.00000E+00,	0,	0
  2.38345E+04,	1.00000E+01,	4.01043E-02,	1.25042E+01,	2.86794E+03,	-2.26009E+03,	0.00000E+00,	0,	0
  1.86811E+04,	1.00000E+01,	4.01043E-02,	1.33656E+01,	4.25569E+03,	-2.21654E+03,	0.00000E+00,	0,	0
  1.47064E+04,	1.00000E+01,	4.01043E-02,	1.43387E+01,	3.84866E+03,	-2.12436E+03,	0.00000E+00,	0,	0
  1.15200E+04,	1.00000E+01,	4.01043E-02,	1.53131E+01,	4.27596E+03,	-1.94316E+03,	0.00000E+00,	0,	0
  9.60000E+03,	1.00000E+01,	4.01043E-02,	1.68794E+01,	4.56426E+03,	-1.83661E+03,	0.00000E+00,	0,	0
  7.51304E+03,	1.00000E+01,	4.01043E-02,	1.77525E+01,	4.85035E+03,	-1.63466E+03,	0.00000E+00,	0,	0
  5.76000E+03,	1.00000E+01,	4.01043E-02,	1.86379E+01,	5.08101E+03,	-1.38975E+03,	0.00000E+00,	0,	0
  4.54737E+03,	1.00000E+01,	4.01043E-02,	1.95029E+01,	5.19407E+03,	-1.20713E+03,	0.00000E+00,	0,	0
  3.60000E+03,	1.00000E+01,	4.01043E-02,	2.04903E+01,	5.34768E+03,	-1.10248E+03,	0.00000E+00,	0,	0
  2.88000E+03,	1.00000E+01,	4.01043E-02,	2.14043E+01,	5.51785E+03,	-9.24812E+02,	0.00000E+00,	0,	0
  2.27368E+03,	1.00000E+01,	4.01043E-02,	2.25263E+01,	5.59351E+03,	-7.66522E+02,	0.00000E+00,	0,	0
  1.78144E+03,	1.00000E+01,	4.01043E-02,	2.33225E+01,	5.58016E+03,	-8.24816E+02,	0.00000E+00,	0,	0
  1.41639E+03,	1.00000E+01,	4.01043E-02,	2.42242E+01,	5.59026E+03,	-5.83570E+02,	0.00000E+00,	0,	0
  1.12208E+03,	1.00000E+01,	4.01043E-02,	2.52756E+01,	5.72574E+03,	-7.00554E+02,	0.00000E+00,	0,	0
  9.00000E+02,	1.00000E+01,	4.01043E-02,	3.02588E+01,	5.68238E+03,	-5.93278E+02,	0.00000E+00,	0,	0
  7.20000E+02,	1.00000E+01,	4.01043E-02,	3.16159E+01,	5.73923E+03,	-5.73761E+02,	0.00000E+00,	0,	0
  5.68421E+02,	1.00000E+01,	4.01043E-02,	3.29762E+01,	5.80201E+03,	-5.52902E+02,	0.00000E+00,	0,	0
  4.40816E+02,	1.00000E+01,	4.01043E-02,	3.60000E+01,	5.84880E+03,	-5.14698E+02,	0.00000E+00,	0,	0
  3.54098E+02,	1.00000E+01,	4.01043E-02,	3.83723E+01,	5.89066E+03,	-4.97065E+02,	0.00000E+00,	0,	0
  2.76923E+02,	1.00000E+01,	4.01043E-02,	4.10013E+01,	5.92973E+03,	-4.73414E+02,	0.00000E+00,	0,	0
  2.20408E+02,	1.00000E+01,	4.01043E-02,	4.39392E+01,	5.94963E+03,	-4.57169E+02,	0.00000E+00,	0,	0
  1.74194E+02,	1.00000E+01,	4.01043E-02,	4.71862E+01,	5.96196E+03,	-4.54297E+02,	0.00000E+00,	0,	0
  1.37580E+02,	1.00000E+01,	4.01043E-02,	5.08427E+01,	5.97101E+03,	-4.56929E+02,	0.00000E+00,	0,	0
  1.09091E+02,	1.00000E+01,	4.01043E-02,	5.49346E+01,	5.97779E+03,	-4.80491E+02,	0.00000E+00,	0,	0
  8.70968E+01,	1.00000E+01,	4.01043E-02,	6.06243E+01,	5.96730E+03,	-5.11533E+02,	0.00000E+00,	0,	0
  6.83544E+01,	1.00000E+01,	4.01043E-02,	6.56434E+01,	5.99896E+03,	-5.72189E+02,	0.00000E+00,	0,	0
  5.45455E+01,	1.00000E+01,	4.01043E-02,	7.10794E+01,	5.92393E+03,	-5.74231E+02,	0.00000E+00,	0,	0
  4.28571E+01,	1.00000E+01,	4.01043E-02,	7.46037E+01,	5.94649E+03,	-6.43630E+02,	0.00000E+00,	0,	0
  3.39623E+01,	1.00000E+01,	4.01043E-02,	7.83618E+01,	5.94724E+03,	-7.55730E+02,	0.00000E+00,	0,	0
  2.68657E+01,	1.00000E+01,	4.01043E-02,	8.22047E+01,	6.00404E+03,	-8.49960E+02,	0.00000E+00,	0,	0
  2.13439E+01,	1.00000E+01,	4.01043E-02,	8.60394E+01,	6.05329E+03,	-9.63153E+02,	0.00000E+00,	0,	0
  1.73077E+01,	1.00000E+01,	4.01043E-02,	8.97141E+01,	6.10018E+03,	-1.08881E+03,	0.00000E+00,	0,	0
  1.36364E+01,	1.00000E+01,	4.01043E-02,	9.47473E+01,	6.15320E+03,	-1.25851E+03,	0.00000E+00,	0,	0
  1.07143E+01,	1.00000E+01,	4.01043E-02,	9.77021E+01,	6.23668E+03,	-1.46776E+03,	0.00000E+00,	0,	0
  8.49057E+00,	1.00000E+01,	4.01043E-02,	1.01890E+02,	6.31397E+03,	-1.70292E+03,	0.00000E+00,	0,	0
  6.71642E+00,	1.00000E+01,	4.01043E-02,	1.04449E+02,	6.43168E+03,	-2.00185E+03,	0.00000E+00,	0,	0
  5.29412E+00,	1.00000E+01,	4.01043E-02,	1.07442E+02,	6.56153E+03,	-2.36202E+03,	0.00000E+00,	0,	0
  4.16667E+00,	1.00000E+01,	4.01043E-02,	1.10906E+02,	6.70738E+03,	-2.79950E+03,	0.00000E+00,	0,	0
  3.30882E+00,	1.00000E+01,	4.01043E-02,	1.15123E+02,	6.86284E+03,	-3.30864E+03,	0.00000E+00,	0,	0
  2.61628E+00,	1.00000E+01,	4.01043E-02,	1.19082E+02,	7.04113E+03,	-3.93788E+03,	0.00000E+00,	0,	0
  2.07373E+00,	1.00000E+01,	4.01043E-02,	1.23835E+02,	7.24261E+03,	-4.69683E+03,	0.00000E+00,	0,	0
  1.64234E+00,	1.00000E+01,	4.01043E-02,	1.29617E+02,	7.46771E+03,	-5.62580E+03,	0.00000E+00,	0,	0
  1.30058E+00,	1.00000E+01,	4.01043E-02,	1.33791E+02,	7.73859E+03,	-6.76005E+03,	0.00000E+00,	0,	0
  1.03211E+00,	1.00000E+01,	4.01043E-02,	1.38233E+02,	8.06942E+03,	-8.13553E+03,	0.00000E+00,	0,	0
  8.15217E-01,	1.00000E+01,	4.01043E-02,	1.45176E+02,	8.38001E+03,	-9.86708E+03,	0.00000E+00,	0,	0
  6.46552E-01,	1.00000E+01,	4.01043E-02,	1.54263E+02,	8.76253E+03,	-1.19548E+04,	0.00000E+00,	0,	0
  5.11364E-01,	1.00000E+01,	4.01043E-02,	1.59269E+02,	9.08121E+03,	-1.47978E+04,	0.00000E+00,	0,	0
  4.07609E-01,	1.00000E+01,	4.01043E-02,	1.65328E+02,	9.66649E+03,	-1.79072E+04,	0.00000E+00,	0,	0
  3.21429E-01,	1.00000E+01,	4.01043E-02,	1.72492E+02,	1.05947E+04,	-2.24627E+04,	0.00000E+00,	0,	0
  2.54525E-01,	1.00000E+01,	4.01043E-02,	1.81294E+02,	1.14569E+04,	-2.73477E+04,	0.00000E+00,	0,	0
  2.01613E-01,	1.00000E+01,	4.01043E-02,	1.92123E+02,	1.24970E+04,	-3.34261E+04,	0.00000E+00,	0,	0
  1.59574E-01,	1.00000E+01,	4.01043E-02,	2.05579E+02,	1.37958E+04,	-4.09334E+04,	0.00000E+00,	0,	0
  1.26689E-01,	1.00000E+01,	4.01043E-02,	2.22496E+02,	1.53873E+04,	-5.00403E+04,	0.00000E+00,	0,	0
  1.00446E-01,	1.00000E+01,	4.01043E-02,	2.43378E+02,	1.74067E+04,	-6.13783E+04,	0.00000E+00,	0,	0