Z60W Data File: Version 1.1
CorrTest for Windows: SN CS310H1805157  V5.2.1111.9  2.5H6.220118
Sweep Frequency: Control Voltage
  Date:4-29-2026   Time:17:44:17
  Begin Information:            Cell Information
      Surface Area:           1
      Density:                7.8
      Weight:                 28
  End Information:              Cell Information
  Freq (Hz)     Ampl(mV)       Bias(V)      Time(Sec)       Z'(Ohm.cm^2)    Z''(Ohm.cm^2)        GD       Err      Range
End Comments
  3.07200E+05,	1.00000E+01,	3.76382E-02,	6.54245E-02,	4.85158E+02,	-4.12988E+02,	0.00000E+00,	0,	0
  2.76480E+05,	1.00000E+01,	3.76382E-02,	1.67604E+00,	5.01617E+02,	-4.53437E+02,	0.00000E+00,	0,	0
  1.97486E+05,	1.00000E+01,	3.76382E-02,	2.56838E+00,	5.80621E+02,	-5.78017E+02,	0.00000E+00,	0,	0
  1.53600E+05,	1.00000E+01,	3.76382E-02,	3.47385E+00,	6.68794E+02,	-6.96656E+02,	0.00000E+00,	0,	0
  1.25673E+05,	1.00000E+01,	3.76382E-02,	4.38110E+00,	7.61153E+02,	-7.89000E+02,	0.00000E+00,	0,	0
  9.87429E+04,	1.00000E+01,	3.76382E-02,	5.27512E+00,	9.05739E+02,	-9.03776E+02,	0.00000E+00,	0,	0
  7.68000E+04,	1.00000E+01,	3.76382E-02,	6.16502E+00,	1.08847E+03,	-1.00971E+03,	0.00000E+00,	0,	0
  6.01043E+04,	1.00000E+01,	3.76382E-02,	8.27952E+00,	1.30928E+03,	-1.07951E+03,	0.00000E+00,	0,	0
  4.93714E+04,	1.00000E+01,	3.76382E-02,	9.85505E+00,	1.50572E+03,	-1.11060E+03,	0.00000E+00,	0,	0
  3.84000E+04,	1.00000E+01,	3.76382E-02,	1.07952E+01,	1.74340E+03,	-1.12316E+03,	0.00000E+00,	0,	0
  3.00522E+04,	1.00000E+01,	3.76382E-02,	1.16501E+01,	1.94453E+03,	-1.45860E+03,	0.00000E+00,	0,	0
  2.38345E+04,	1.00000E+01,	3.76382E-02,	1.25171E+01,	2.20108E+03,	-1.03619E+03,	0.00000E+00,	0,	0
  1.86811E+04,	1.00000E+01,	3.76382E-02,	1.33608E+01,	2.59537E+03,	-9.62439E+02,	0.00000E+00,	0,	0
  1.47064E+04,	1.00000E+01,	3.76382E-02,	1.43396E+01,	2.53325E+03,	-8.63661E+02,	0.00000E+00,	0,	0
  1.15200E+04,	1.00000E+01,	3.76382E-02,	1.53758E+01,	2.69205E+03,	-6.96689E+02,	0.00000E+00,	0,	0
  9.60000E+03,	1.00000E+01,	3.76382E-02,	1.69389E+01,	2.71708E+03,	-6.35087E+02,	0.00000E+00,	0,	0
  7.51304E+03,	1.00000E+01,	3.76382E-02,	1.78325E+01,	2.80239E+03,	-5.31769E+02,	0.00000E+00,	0,	0
  5.76000E+03,	1.00000E+01,	3.76382E-02,	1.87110E+01,	2.83369E+03,	-4.64106E+02,	0.00000E+00,	0,	0
  4.54737E+03,	1.00000E+01,	3.76382E-02,	1.95672E+01,	2.91444E+03,	-4.09816E+02,	0.00000E+00,	0,	0
  3.60000E+03,	1.00000E+01,	3.76382E-02,	2.05581E+01,	2.91187E+03,	-3.27003E+02,	0.00000E+00,	0,	0
  2.88000E+03,	1.00000E+01,	3.76382E-02,	2.14500E+01,	2.94460E+03,	-2.93583E+02,	0.00000E+00,	0,	0
  2.27368E+03,	1.00000E+01,	3.76382E-02,	2.26044E+01,	2.96975E+03,	-2.79056E+02,	0.00000E+00,	0,	0
  1.78144E+03,	1.00000E+01,	3.76382E-02,	2.33883E+01,	2.94497E+03,	-2.16091E+02,	0.00000E+00,	0,	0
  1.41639E+03,	1.00000E+01,	3.76382E-02,	2.43269E+01,	3.12522E+03,	-2.03198E+02,	0.00000E+00,	0,	0
  1.12208E+03,	1.00000E+01,	3.76382E-02,	2.53497E+01,	2.97124E+03,	-2.36483E+02,	0.00000E+00,	0,	0
  9.00000E+02,	1.00000E+01,	3.76382E-02,	3.03570E+01,	3.06897E+03,	-2.42358E+02,	0.00000E+00,	0,	0
  7.20000E+02,	1.00000E+01,	3.76382E-02,	3.17296E+01,	3.09864E+03,	-2.41131E+02,	0.00000E+00,	0,	0
  5.68421E+02,	1.00000E+01,	3.76382E-02,	3.31235E+01,	3.12867E+03,	-2.33569E+02,	0.00000E+00,	0,	0
  4.40816E+02,	1.00000E+01,	3.76382E-02,	3.61898E+01,	3.15162E+03,	-2.32606E+02,	0.00000E+00,	0,	0
  3.54098E+02,	1.00000E+01,	3.76382E-02,	3.85458E+01,	3.17693E+03,	-2.31322E+02,	0.00000E+00,	0,	0
  2.76923E+02,	1.00000E+01,	3.76382E-02,	4.12055E+01,	3.19869E+03,	-2.34955E+02,	0.00000E+00,	0,	0
  2.20408E+02,	1.00000E+01,	3.76382E-02,	4.41848E+01,	3.21879E+03,	-2.43061E+02,	0.00000E+00,	0,	0
  1.74194E+02,	1.00000E+01,	3.76382E-02,	4.74854E+01,	3.24068E+03,	-2.58911E+02,	0.00000E+00,	0,	0
  1.37580E+02,	1.00000E+01,	3.76382E-02,	5.11486E+01,	3.26202E+03,	-2.80294E+02,	0.00000E+00,	0,	0
  1.09091E+02,	1.00000E+01,	3.76382E-02,	5.52360E+01,	3.28676E+03,	-3.10329E+02,	0.00000E+00,	0,	0
  8.70968E+01,	1.00000E+01,	3.76382E-02,	6.09340E+01,	3.31403E+03,	-3.49877E+02,	0.00000E+00,	0,	0
  6.83544E+01,	1.00000E+01,	3.76382E-02,	6.59499E+01,	3.36253E+03,	-4.04232E+02,	0.00000E+00,	0,	0
  5.45455E+01,	1.00000E+01,	3.76382E-02,	7.14190E+01,	3.35651E+03,	-4.27141E+02,	0.00000E+00,	0,	0
  4.28571E+01,	1.00000E+01,	3.76382E-02,	7.49669E+01,	3.39622E+03,	-4.92205E+02,	0.00000E+00,	0,	0
  3.39623E+01,	1.00000E+01,	3.76382E-02,	7.87036E+01,	3.42429E+03,	-5.81925E+02,	0.00000E+00,	0,	0
  2.68657E+01,	1.00000E+01,	3.76382E-02,	8.25783E+01,	3.48818E+03,	-6.68200E+02,	0.00000E+00,	0,	0
  2.13439E+01,	1.00000E+01,	3.76382E-02,	8.63903E+01,	3.54823E+03,	-7.70155E+02,	0.00000E+00,	0,	0
  1.73077E+01,	1.00000E+01,	3.76382E-02,	9.00710E+01,	3.60788E+03,	-8.80890E+02,	0.00000E+00,	0,	0
  1.36364E+01,	1.00000E+01,	3.76382E-02,	9.51401E+01,	3.68035E+03,	-1.03286E+03,	0.00000E+00,	0,	0
  1.07143E+01,	1.00000E+01,	3.76382E-02,	9.80509E+01,	3.76247E+03,	-1.21900E+03,	0.00000E+00,	0,	0
  8.49057E+00,	1.00000E+01,	3.76382E-02,	1.02290E+02,	3.85368E+03,	-1.43483E+03,	0.00000E+00,	0,	0
  6.71642E+00,	1.00000E+01,	3.76382E-02,	1.04810E+02,	3.95703E+03,	-1.69886E+03,	0.00000E+00,	0,	0
  5.29412E+00,	1.00000E+01,	3.76382E-02,	1.07805E+02,	4.07409E+03,	-2.02538E+03,	0.00000E+00,	0,	0
  4.16667E+00,	1.00000E+01,	3.76382E-02,	1.11334E+02,	4.20760E+03,	-2.42595E+03,	0.00000E+00,	0,	0
  3.30882E+00,	1.00000E+01,	3.76382E-02,	1.15566E+02,	4.35450E+03,	-2.89483E+03,	0.00000E+00,	0,	0
  2.61628E+00,	1.00000E+01,	3.76382E-02,	1.19538E+02,	4.51993E+03,	-3.47831E+03,	0.00000E+00,	0,	0
  2.07373E+00,	1.00000E+01,	3.76382E-02,	1.24321E+02,	4.70804E+03,	-4.18645E+03,	0.00000E+00,	0,	0
  1.64234E+00,	1.00000E+01,	3.76382E-02,	1.30151E+02,	4.92228E+03,	-5.06001E+03,	0.00000E+00,	0,	0
  1.30058E+00,	1.00000E+01,	3.76382E-02,	1.34362E+02,	5.16878E+03,	-6.13268E+03,	0.00000E+00,	0,	0
  1.03211E+00,	1.00000E+01,	3.76382E-02,	1.38770E+02,	5.46071E+03,	-7.44950E+03,	0.00000E+00,	0,	0
  8.15217E-01,	1.00000E+01,	3.76382E-02,	1.45715E+02,	5.78479E+03,	-9.09418E+03,	0.00000E+00,	0,	0
  6.46552E-01,	1.00000E+01,	3.76382E-02,	1.54790E+02,	6.17200E+03,	-1.10974E+04,	0.00000E+00,	0,	0
  5.11364E-01,	1.00000E+01,	3.76382E-02,	1.59807E+02,	6.51740E+03,	-1.37040E+04,	0.00000E+00,	0,	0
  4.07609E-01,	1.00000E+01,	3.76382E-02,	1.65876E+02,	7.08122E+03,	-1.66940E+04,	0.00000E+00,	0,	0
  3.21429E-01,	1.00000E+01,	3.76382E-02,	1.73042E+02,	7.87404E+03,	-2.09330E+04,	0.00000E+00,	0,	0
  2.54525E-01,	1.00000E+01,	3.76382E-02,	1.81806E+02,	8.75120E+03,	-2.56275E+04,	0.00000E+00,	0,	0
  2.01613E-01,	1.00000E+01,	3.76382E-02,	1.92676E+02,	9.82021E+03,	-3.14615E+04,	0.00000E+00,	0,	0
  1.59574E-01,	1.00000E+01,	3.76382E-02,	2.06158E+02,	1.11685E+04,	-3.86927E+04,	0.00000E+00,	0,	0
  1.26689E-01,	1.00000E+01,	3.76382E-02,	2.23056E+02,	1.28461E+04,	-4.74636E+04,	0.00000E+00,	0,	0
  1.00446E-01,	1.00000E+01,	3.76382E-02,	2.43926E+02,	1.49716E+04,	-5.83822E+04,	0.00000E+00,	0,	0