Z60W Data File: Version 1.1
CorrTest for Windows: SN CS310H1805157  V5.2.1111.9  2.5H6.220118
Sweep Frequency: Control Voltage
  Date:4-29-2026   Time:17:15:50
  Begin Information:            Cell Information
      Surface Area:           1
      Density:                7.8
      Weight:                 28
  End Information:              Cell Information
  Freq (Hz)     Ampl(mV)       Bias(V)      Time(Sec)       Z'(Ohm.cm^2)    Z''(Ohm.cm^2)        GD       Err      Range
End Comments
  3.07200E+05,	1.00000E+01,	3.79367E-02,	1.95238E-02,	4.83645E+02,	-6.21798E+02,	0.00000E+00,	0,	0
  2.76480E+05,	1.00000E+01,	3.79367E-02,	1.62773E+00,	4.84458E+02,	-6.71091E+02,	0.00000E+00,	0,	0
  1.97486E+05,	1.00000E+01,	3.79367E-02,	2.57462E+00,	5.29442E+02,	-9.03436E+02,	0.00000E+00,	0,	0
  1.53600E+05,	1.00000E+01,	3.79367E-02,	3.47341E+00,	5.55059E+02,	-1.14515E+03,	0.00000E+00,	0,	0
  1.25673E+05,	1.00000E+01,	3.79367E-02,	4.38565E+00,	5.96966E+02,	-1.38344E+03,	0.00000E+00,	0,	0
  9.87429E+04,	1.00000E+01,	3.79367E-02,	5.27819E+00,	6.93651E+02,	-1.70211E+03,	0.00000E+00,	0,	0
  7.68000E+04,	1.00000E+01,	3.79367E-02,	6.18052E+00,	8.19406E+02,	-2.11281E+03,	0.00000E+00,	0,	0
  6.01043E+04,	1.00000E+01,	3.79367E-02,	8.30397E+00,	9.88737E+02,	-2.57267E+03,	0.00000E+00,	0,	0
  4.93714E+04,	1.00000E+01,	3.79367E-02,	9.88759E+00,	1.17187E+03,	-3.11434E+03,	0.00000E+00,	0,	0
  3.84000E+04,	1.00000E+01,	3.79367E-02,	1.07854E+01,	1.51672E+03,	-3.83225E+03,	0.00000E+00,	0,	0
  3.00522E+04,	1.00000E+01,	3.79367E-02,	1.16488E+01,	1.46857E+03,	-6.97286E+03,	0.00000E+00,	0,	0
  2.38345E+04,	1.00000E+01,	3.79367E-02,	1.25134E+01,	2.62013E+03,	-5.51921E+03,	0.00000E+00,	0,	0
  1.86811E+04,	1.00000E+01,	3.79367E-02,	1.33565E+01,	7.23883E+02,	-1.11344E+04,	0.00000E+00,	0,	0
  1.47064E+04,	1.00000E+01,	3.79367E-02,	1.43244E+01,	4.59974E+03,	-7.77952E+03,	0.00000E+00,	0,	0
  1.15200E+04,	1.00000E+01,	3.79367E-02,	1.52956E+01,	5.74277E+03,	-9.34901E+03,	0.00000E+00,	0,	0
  9.60000E+03,	1.00000E+01,	3.79367E-02,	1.68843E+01,	7.16350E+03,	-9.34203E+03,	0.00000E+00,	0,	0
  7.51304E+03,	1.00000E+01,	3.79367E-02,	1.77656E+01,	9.84478E+03,	-1.08013E+04,	0.00000E+00,	0,	0
  5.76000E+03,	1.00000E+01,	3.79367E-02,	1.86658E+01,	1.20259E+04,	-1.10129E+04,	0.00000E+00,	0,	0
  4.54737E+03,	1.00000E+01,	3.79367E-02,	1.95139E+01,	1.46867E+04,	-1.08963E+04,	0.00000E+00,	0,	0
  3.60000E+03,	1.00000E+01,	3.79367E-02,	2.05127E+01,	1.69001E+04,	-9.63837E+03,	0.00000E+00,	0,	0
  2.88000E+03,	1.00000E+01,	3.79367E-02,	2.14131E+01,	1.83836E+04,	-1.18509E+04,	0.00000E+00,	0,	0
  2.27368E+03,	1.00000E+01,	3.79367E-02,	2.25497E+01,	2.01073E+04,	-1.02670E+04,	0.00000E+00,	0,	0
  1.78144E+03,	1.00000E+01,	3.79367E-02,	2.33358E+01,	1.75059E+04,	-4.79716E+03,	0.00000E+00,	0,	0
  1.41639E+03,	1.00000E+01,	3.79367E-02,	2.42472E+01,	1.86983E+04,	-1.24702E+04,	0.00000E+00,	0,	0
  1.12208E+03,	1.00000E+01,	3.79367E-02,	2.52807E+01,	2.33084E+04,	-4.40685E+03,	0.00000E+00,	0,	0
  9.00000E+02,	1.00000E+01,	3.79367E-02,	3.02720E+01,	2.42577E+04,	-6.29220E+03,	0.00000E+00,	0,	0
  7.20000E+02,	1.00000E+01,	3.79367E-02,	3.16369E+01,	2.49447E+04,	-5.78074E+03,	0.00000E+00,	0,	0
  5.68421E+02,	1.00000E+01,	3.79367E-02,	3.29894E+01,	2.56686E+04,	-5.20532E+03,	0.00000E+00,	0,	0
  4.40816E+02,	1.00000E+01,	3.79367E-02,	3.76294E+01,	2.64421E+04,	-4.92781E+03,	0.00000E+00,	0,	0
  3.54098E+02,	1.00000E+01,	3.79367E-02,	3.99723E+01,	2.71436E+04,	-4.73099E+03,	0.00000E+00,	0,	0
  2.76923E+02,	1.00000E+01,	3.79367E-02,	4.26126E+01,	2.79480E+04,	-4.50681E+03,	0.00000E+00,	0,	0
  2.20408E+02,	1.00000E+01,	3.79367E-02,	4.55367E+01,	2.87002E+04,	-4.25558E+03,	0.00000E+00,	0,	0
  1.74194E+02,	1.00000E+01,	3.79367E-02,	4.87932E+01,	2.94513E+04,	-3.97084E+03,	0.00000E+00,	0,	0
  1.37580E+02,	1.00000E+01,	3.79367E-02,	5.24556E+01,	3.01375E+04,	-3.62758E+03,	0.00000E+00,	0,	0
  1.09091E+02,	1.00000E+01,	3.79367E-02,	5.65196E+01,	3.07444E+04,	-3.30625E+03,	0.00000E+00,	0,	0
  8.70968E+01,	1.00000E+01,	3.79367E-02,	6.22393E+01,	3.13605E+04,	-3.06146E+03,	0.00000E+00,	0,	0
  6.83544E+01,	1.00000E+01,	3.79367E-02,	6.72570E+01,	3.20506E+04,	-2.86491E+03,	0.00000E+00,	0,	0
  5.45455E+01,	1.00000E+01,	3.79367E-02,	7.27014E+01,	3.20816E+04,	-2.42072E+03,	0.00000E+00,	0,	0
  4.28571E+01,	1.00000E+01,	3.79367E-02,	7.62425E+01,	3.24347E+04,	-2.27139E+03,	0.00000E+00,	0,	0
  3.39623E+01,	1.00000E+01,	3.79367E-02,	7.99676E+01,	3.26157E+04,	-2.37228E+03,	0.00000E+00,	0,	0
  2.68657E+01,	1.00000E+01,	3.79367E-02,	8.38007E+01,	3.30756E+04,	-2.33636E+03,	0.00000E+00,	0,	0
  2.13439E+01,	1.00000E+01,	3.79367E-02,	8.76029E+01,	3.34473E+04,	-2.37665E+03,	0.00000E+00,	0,	0
  1.73077E+01,	1.00000E+01,	3.79367E-02,	9.12873E+01,	3.37754E+04,	-2.49108E+03,	0.00000E+00,	0,	0
  1.36364E+01,	1.00000E+01,	3.79367E-02,	9.63140E+01,	3.42244E+04,	-2.68286E+03,	0.00000E+00,	0,	0
  1.07143E+01,	1.00000E+01,	3.79367E-02,	9.92387E+01,	3.46048E+04,	-2.96898E+03,	0.00000E+00,	0,	0
  8.49057E+00,	1.00000E+01,	3.79367E-02,	1.03424E+02,	3.50519E+04,	-3.31397E+03,	0.00000E+00,	0,	0
  6.71642E+00,	1.00000E+01,	3.79367E-02,	1.05934E+02,	3.54432E+04,	-3.78105E+03,	0.00000E+00,	0,	0
  5.29412E+00,	1.00000E+01,	3.79367E-02,	1.08845E+02,	3.59186E+04,	-4.32461E+03,	0.00000E+00,	0,	0
  4.16667E+00,	1.00000E+01,	3.79367E-02,	1.12349E+02,	3.64609E+04,	-4.99299E+03,	0.00000E+00,	0,	0
  3.30882E+00,	1.00000E+01,	3.79367E-02,	1.16572E+02,	3.70792E+04,	-5.77590E+03,	0.00000E+00,	0,	0
  2.61628E+00,	1.00000E+01,	3.79367E-02,	1.20532E+02,	3.77690E+04,	-6.72290E+03,	0.00000E+00,	0,	0
  2.07373E+00,	1.00000E+01,	3.79367E-02,	1.25317E+02,	3.85396E+04,	-7.85777E+03,	0.00000E+00,	0,	0
  1.64234E+00,	1.00000E+01,	3.79367E-02,	1.31128E+02,	3.94447E+04,	-9.23522E+03,	0.00000E+00,	0,	0
  1.30058E+00,	1.00000E+01,	3.79367E-02,	1.35315E+02,	4.02619E+04,	-1.08768E+04,	0.00000E+00,	0,	0
  1.03211E+00,	1.00000E+01,	3.79367E-02,	1.39718E+02,	4.14677E+04,	-1.24972E+04,	0.00000E+00,	0,	0
  8.15217E-01,	1.00000E+01,	3.79367E-02,	1.46673E+02,	4.23210E+04,	-1.52209E+04,	0.00000E+00,	0,	0
  6.46552E-01,	1.00000E+01,	3.79367E-02,	1.51481E+02,	4.36185E+04,	-1.79185E+04,	0.00000E+00,	0,	0
  5.11364E-01,	1.00000E+01,	3.79367E-02,	1.56483E+02,	4.56125E+04,	-2.32209E+04,	0.00000E+00,	0,	0
  4.07609E-01,	1.00000E+01,	3.79367E-02,	1.62530E+02,	4.72861E+04,	-2.71192E+04,	0.00000E+00,	0,	0
  3.21429E-01,	1.00000E+01,	3.79367E-02,	1.69682E+02,	5.10077E+04,	-3.26644E+04,	0.00000E+00,	0,	0
  2.54525E-01,	1.00000E+01,	3.79367E-02,	1.78493E+02,	5.30296E+04,	-3.87249E+04,	0.00000E+00,	0,	0
  2.01613E-01,	1.00000E+01,	3.79367E-02,	1.89365E+02,	5.57622E+04,	-4.66360E+04,	0.00000E+00,	0,	0
  1.59574E-01,	1.00000E+01,	3.79367E-02,	2.02830E+02,	5.89294E+04,	-5.63849E+04,	0.00000E+00,	0,	0
  1.26689E-01,	1.00000E+01,	3.79367E-02,	2.19728E+02,	6.25468E+04,	-6.81138E+04,	0.00000E+00,	0,	0
  1.00446E-01,	1.00000E+01,	3.79367E-02,	2.40593E+02,	6.72559E+04,	-8.31623E+04,	0.00000E+00,	0,	0