Z60W Data File: Version 1.1
CorrTest for Windows: SN CS310H1805157  V5.2.1111.9  2.5H6.220118
Sweep Frequency: Control Voltage
  Date:4-29-2026   Time:20:08:50
  Begin Information:            Cell Information
      Surface Area:           1
      Density:                7.8
      Weight:                 28
  End Information:              Cell Information
  Freq (Hz)     Ampl(mV)       Bias(V)      Time(Sec)       Z'(Ohm.cm^2)    Z''(Ohm.cm^2)        GD       Err      Range
End Comments
  3.07200E+05,	1.00000E+01,	5.11938E-02,	2.40999E-02,	-2.00695E+00,	3.28245E+00,	0.00000E+00,	0,	0
  2.76480E+05,	1.00000E+01,	5.11938E-02,	1.61142E+00,	-1.41512E+00,	2.35201E+00,	0.00000E+00,	0,	0
  1.97486E+05,	1.00000E+01,	5.11938E-02,	2.51054E+00,	-4.27089E-01,	1.63211E+00,	0.00000E+00,	0,	0
  1.53600E+05,	1.00000E+01,	5.11938E-02,	3.46217E+00,	-7.18846E-02,	1.21418E+00,	0.00000E+00,	0,	0
  1.25673E+05,	1.00000E+01,	5.11938E-02,	4.39687E+00,	1.43970E-01,	9.47670E-01,	0.00000E+00,	0,	0
  9.87429E+04,	1.00000E+01,	5.11938E-02,	5.36843E+00,	3.44961E-01,	6.91520E-01,	0.00000E+00,	0,	0
  7.68000E+04,	1.00000E+01,	5.11938E-02,	6.26840E+00,	4.37086E-01,	5.08534E-01,	0.00000E+00,	0,	0
  6.01043E+04,	1.00000E+01,	5.11938E-02,	9.46909E+00,	5.33459E-01,	3.26203E-01,	0.00000E+00,	0,	0
  4.93714E+04,	1.00000E+01,	5.11938E-02,	1.10487E+01,	5.50476E-01,	2.19887E-01,	0.00000E+00,	0,	0
  3.84000E+04,	1.00000E+01,	5.11938E-02,	1.19493E+01,	5.67753E-01,	9.37460E-02,	0.00000E+00,	0,	0
  3.00522E+04,	1.00000E+01,	5.11938E-02,	1.28529E+01,	5.81184E-01,	-1.94017E-02,	0.00000E+00,	0,	0
  2.38345E+04,	1.00000E+01,	5.11938E-02,	1.37445E+01,	5.94883E-01,	-1.23425E-01,	0.00000E+00,	0,	0
  1.86811E+04,	1.00000E+01,	5.11938E-02,	1.46111E+01,	6.10911E-01,	-2.38502E-01,	0.00000E+00,	0,	0
  1.47064E+04,	1.00000E+01,	5.11938E-02,	1.55999E+01,	6.30626E-01,	-3.59759E-01,	0.00000E+00,	0,	0
  1.15200E+04,	1.00000E+01,	5.11938E-02,	1.65710E+01,	6.54457E-01,	-4.97369E-01,	0.00000E+00,	0,	0
  9.60000E+03,	1.00000E+01,	5.11938E-02,	1.81445E+01,	6.75024E-01,	-6.12427E-01,	0.00000E+00,	0,	0
  7.51304E+03,	1.00000E+01,	5.11938E-02,	1.90132E+01,	7.08359E-01,	-7.93442E-01,	0.00000E+00,	0,	0
  5.76000E+03,	1.00000E+01,	5.11938E-02,	1.99105E+01,	7.54707E-01,	-1.03014E+00,	0.00000E+00,	0,	0
  4.54737E+03,	1.00000E+01,	5.11938E-02,	2.07742E+01,	8.04784E-01,	-1.28669E+00,	0.00000E+00,	0,	0
  3.60000E+03,	1.00000E+01,	5.11938E-02,	2.17563E+01,	8.67532E-01,	-1.59363E+00,	0.00000E+00,	0,	0
  2.88000E+03,	1.00000E+01,	5.11938E-02,	2.26363E+01,	9.41155E-01,	-1.95257E+00,	0.00000E+00,	0,	0
  2.27368E+03,	1.00000E+01,	5.11938E-02,	2.49231E+01,	1.03401E+00,	-2.39270E+00,	0.00000E+00,	0,	0
  1.78144E+03,	1.00000E+01,	5.11938E-02,	2.57461E+01,	1.16970E+00,	-2.96710E+00,	0.00000E+00,	0,	0
  1.41639E+03,	1.00000E+01,	5.11938E-02,	2.66635E+01,	1.31822E+00,	-3.63120E+00,	0.00000E+00,	0,	0
  1.12208E+03,	1.00000E+01,	5.11938E-02,	2.76933E+01,	1.52243E+00,	-4.45312E+00,	0.00000E+00,	0,	0
  9.00000E+02,	1.00000E+01,	5.11938E-02,	3.26952E+01,	1.76876E+00,	-5.39138E+00,	0.00000E+00,	0,	0
  7.20000E+02,	1.00000E+01,	5.11938E-02,	3.40494E+01,	2.07867E+00,	-6.52675E+00,	0.00000E+00,	0,	0
  5.68421E+02,	1.00000E+01,	5.11938E-02,	3.54185E+01,	2.49627E+00,	-7.98166E+00,	0.00000E+00,	0,	0
  4.40816E+02,	1.00000E+01,	5.11938E-02,	3.68969E+01,	3.07837E+00,	-9.88442E+00,	0.00000E+00,	0,	0
  3.54098E+02,	1.00000E+01,	5.11938E-02,	3.92389E+01,	3.71653E+00,	-1.18552E+01,	0.00000E+00,	0,	0
  2.76923E+02,	1.00000E+01,	5.11938E-02,	4.18703E+01,	4.63902E+00,	-1.44935E+01,	0.00000E+00,	0,	0
  2.20408E+02,	1.00000E+01,	5.11938E-02,	4.48543E+01,	5.72223E+00,	-1.74310E+01,	0.00000E+00,	0,	0
  1.74194E+02,	1.00000E+01,	5.11938E-02,	4.81156E+01,	7.11147E+00,	-2.09945E+01,	0.00000E+00,	0,	0
  1.37580E+02,	1.00000E+01,	5.11938E-02,	5.17800E+01,	8.83463E+00,	-2.51988E+01,	0.00000E+00,	0,	0
  1.09091E+02,	1.00000E+01,	5.11938E-02,	5.58522E+01,	1.08833E+01,	-3.00656E+01,	0.00000E+00,	0,	0
  8.70968E+01,	1.00000E+01,	5.11938E-02,	6.40258E+01,	1.32728E+01,	-3.56523E+01,	0.00000E+00,	0,	0
  6.83544E+01,	1.00000E+01,	5.11938E-02,	6.90512E+01,	1.62939E+01,	-4.28473E+01,	0.00000E+00,	0,	0
  5.45455E+01,	1.00000E+01,	5.11938E-02,	7.45014E+01,	1.96530E+01,	-4.97073E+01,	0.00000E+00,	0,	0
  4.28571E+01,	1.00000E+01,	5.11938E-02,	7.81001E+01,	2.36874E+01,	-5.91805E+01,	0.00000E+00,	0,	0
  3.39623E+01,	1.00000E+01,	5.11938E-02,	8.18682E+01,	2.76641E+01,	-6.99752E+01,	0.00000E+00,	0,	0
  2.68657E+01,	1.00000E+01,	5.11938E-02,	8.57095E+01,	3.28885E+01,	-8.32847E+01,	0.00000E+00,	0,	0
  2.13439E+01,	1.00000E+01,	5.11938E-02,	8.95106E+01,	3.86176E+01,	-9.87582E+01,	0.00000E+00,	0,	0
  1.73077E+01,	1.00000E+01,	5.11938E-02,	9.62236E+01,	4.44057E+01,	-1.15543E+02,	0.00000E+00,	0,	0
  1.36364E+01,	1.00000E+01,	5.11938E-02,	1.01257E+02,	5.15937E+01,	-1.38308E+02,	0.00000E+00,	0,	0
  1.07143E+01,	1.00000E+01,	5.11938E-02,	1.04185E+02,	5.96924E+01,	-1.66465E+02,	0.00000E+00,	0,	0
  8.49057E+00,	1.00000E+01,	5.11938E-02,	1.08411E+02,	6.82977E+01,	-1.99747E+02,	0.00000E+00,	0,	0
  6.71642E+00,	1.00000E+01,	5.11938E-02,	1.10915E+02,	7.79026E+01,	-2.41321E+02,	0.00000E+00,	0,	0
  5.29412E+00,	1.00000E+01,	5.11938E-02,	1.13833E+02,	8.88258E+01,	-2.93139E+02,	0.00000E+00,	0,	0
  4.16667E+00,	1.00000E+01,	5.11938E-02,	1.17324E+02,	1.01241E+02,	-3.58334E+02,	0.00000E+00,	0,	0
  3.30882E+00,	1.00000E+01,	5.11938E-02,	1.21561E+02,	1.14779E+02,	-4.36101E+02,	0.00000E+00,	0,	0
  2.61628E+00,	1.00000E+01,	5.11938E-02,	1.25585E+02,	1.31044E+02,	-5.34046E+02,	0.00000E+00,	0,	0
  2.07373E+00,	1.00000E+01,	5.11938E-02,	1.30350E+02,	1.49707E+02,	-6.54409E+02,	0.00000E+00,	0,	0
  1.64234E+00,	1.00000E+01,	5.11938E-02,	1.36181E+02,	1.71876E+02,	-8.03878E+02,	0.00000E+00,	0,	0
  1.30058E+00,	1.00000E+01,	5.11938E-02,	1.40352E+02,	1.99325E+02,	-9.89621E+02,	0.00000E+00,	0,	0
  1.03211E+00,	1.00000E+01,	5.11938E-02,	1.44795E+02,	2.32021E+02,	-1.21792E+03,	0.00000E+00,	0,	0
  8.15217E-01,	1.00000E+01,	5.11938E-02,	1.51715E+02,	2.72352E+02,	-1.50435E+03,	0.00000E+00,	0,	0
  6.46552E-01,	1.00000E+01,	5.11938E-02,	1.60795E+02,	3.11525E+02,	-1.85735E+03,	0.00000E+00,	0,	0
  5.11364E-01,	1.00000E+01,	5.11938E-02,	1.65805E+02,	3.71762E+02,	-2.31478E+03,	0.00000E+00,	0,	0
  4.07609E-01,	1.00000E+01,	5.11938E-02,	1.71846E+02,	4.45386E+02,	-2.84814E+03,	0.00000E+00,	0,	0
  3.21429E-01,	1.00000E+01,	5.11938E-02,	1.78966E+02,	5.41344E+02,	-3.55619E+03,	0.00000E+00,	0,	0
  2.54525E-01,	1.00000E+01,	5.11938E-02,	1.87768E+02,	6.55240E+02,	-4.39923E+03,	0.00000E+00,	0,	0
  2.01613E-01,	1.00000E+01,	5.11938E-02,	1.98601E+02,	8.21634E+02,	-5.43264E+03,	0.00000E+00,	0,	0
  1.59574E-01,	1.00000E+01,	5.11938E-02,	2.12079E+02,	1.02755E+03,	-6.71320E+03,	0.00000E+00,	0,	0
  1.26689E-01,	1.00000E+01,	5.11938E-02,	2.28965E+02,	1.39581E+03,	-8.29198E+03,	0.00000E+00,	0,	0
  1.00446E-01,	1.00000E+01,	5.11938E-02,	2.49860E+02,	1.66910E+03,	-1.02296E+04,	0.00000E+00,	0,	0