EXPLAIN
TAG	EISPOT
TITLE	LABEL	Potentiostatic EIS	Test Identifier
DATE	LABEL	8/10/2020	Date
TIME	LABEL	8:32:33	Time
NOTES	NOTES	1	Notes...
	
PSTAT	PSTAT	REF3000-16137	Potentiostat
VDC	POTEN	0.00000E+000	T	DC Voltage (V)
FREQINIT	QUANT	3.00000E+005	Initial Freq. (Hz)
FREQFINAL	QUANT	1.00000E+000	Final Freq. (Hz)
PTSPERDEC	QUANT	1.00000E+001	Points/decade
VAC	QUANT	5.00000E+001	AC Voltage (mV rms)
AREA	QUANT	1.00000E+000	Sample Area (cm^2)
SPEED	SELECTOR	2	Optimize for:
ZGUESS	QUANT	1.00000E+003	Estimated Z (ohms)
EOC	QUANT	0	Open Circuit (V)
SEQUENCER	TOGGLE	TRUE	Run as Sequence
PSTATMODEL	IQUANT	5	Pstat Model
PSTATSECTION	LABEL	REF3000-16137	Pstat Section
PSTATSERIALNO	LABEL	16137	Pstat Serial Number
CTRLMODE	IQUANT	1	Control Mode
IESTAB	IQUANT	0	I/E Stability
CASPEED	IQUANT	1	Control Amp Speed
CONVENTION	IQUANT	1	Current Convention
ICHRANGE	IQUANT	2	Ich Range
ICHRANGEMODE	TOGGLE	F	Ich Auto Range
ICHOFFSETENABLE	TOGGLE	T	Ich Offset Enable
ICHOFFSET	QUANT	0	Ich Offset (V)
ICHFILTER	IQUANT	3	Ich Filter
VCHRANGE	IQUANT	2	Vch Range
VCHRANGEMODE	TOGGLE	F	Vch Auto Range
VCHOFFSETENABLE	TOGGLE	T	Vch Offset Enable
VCHOFFSET	QUANT	0	Vch Offset (V)
VCHFILTER	IQUANT	3	Vch Filter
ACHRANGE	IQUANT	2	Ach Range
ACHOFFSETENABLE	TOGGLE	F	Ach Offset Enable
ACHOFFSET	QUANT	0	Ach Offset (V)
ACHFILTER	IQUANT	3	Ach Filter
IERANGELOWERLIMIT	IQUANT	2	I/E Range Lower Limit
IERANGEMODE	TOGGLE	F	I/E AutoRange
IERANGE	IQUANT	11	I/E Range
POSFEEDENABLE	TOGGLE	F	Positive Feedback IR Comp
POSFEEDRESISTANCE	QUANT	0	Positive Feedback Resistance (ohm)
ACHSELECT	IQUANT	0	Ach Select
CABLEID	IQUANT	13	Cable ID
DCCALDATE	LABEL	7/31/2020	DC Calibration Date
ACCALDATE	LABEL	7/31/2020	AC Calibration Date
THERMOSELECT	IQUANT	1	Thermo Select
FRAMEWORKVERSION	QUANT	6.33	Framework Version
INSTRUMENTVERSION	LABEL	3.50	Instrument Version
COMPLIANCEVOLTAGE	IQUANT	0	Compliance Voltage
ZCURVE	TABLE
	Pt	Time	Freq	Zreal	Zimag	Zsig	Zmod	Zphz	Idc	Vdc	IERange
	#	s	Hz	ohm	ohm	V	ohm	°	A	V	#
	0	10	300046.9	4.003908	0.1255601	1	4.005877	1.796172	4.517372E-006	2.10437E-005	10
	1	13	238359.4	4.133142	-0.3338219	1	4.146601	-4.617591	6.739953E-006	-0.0003576	10
	2	16	189328.1	4.298345	-0.7688029	1	4.366558	-10.14071	-2.782268E-005	3.329209E-005	10
	3	19	150421.9	4.500818	-1.187898	1	4.65494	-14.78489	-1.73358E-006	0.0003517	10
	4	21	119484.4	4.722867	-1.578525	1	4.97968	-18.48118	7.290797E-005	0.0003446	10
	5	24	94921.88	4.990285	-1.963233	1	5.362577	-21.47523	-1.315134E-005	0.0006201	10
	6	26	75421.88	5.26963	-2.381716	1	5.782869	-24.32156	2.115791E-005	0.0005908	10
	7	29	59859.37	5.566923	-2.834025	1	6.246786	-26.97986	2.52408E-005	0.0006364	10
	8	31	47578.12	5.893971	-3.321635	1	6.765512	-29.40408	1.176959E-005	0.0006749	10
	9	34	37828.12	6.24615	-3.864567	1	7.345016	-31.74557	-1.935172E-005	0.0007161	10
	10	36	30046.88	6.625338	-4.505307	1	8.012047	-34.21616	-3.233344E-005	0.0006781	10
	11	39	23859.38	7.034157	-5.245185	1	8.77447	-36.71092	3.576863E-006	0.0006545	10
	12	41	18984.38	7.469871	-6.114463	1	9.65327	-39.30204	4.468952E-006	0.0006677	10
	13	44	15046.87	7.953975	-7.201931	1	10.73003	-42.15928	-2.292893E-005	0.000727	10
	14	46	11953.13	8.503472	-8.515457	1	12.0342	-45.04035	1.153624E-005	0.0006484	10
	15	48	9515.62	9.115021	-10.09013	1	13.59758	-47.9066	2.016678E-005	0.0006759	10
	16	51	7546.875	9.87636	-12.00334	1	15.54422	-50.55244	8.422454E-006	0.0006557	10
	17	53	5928.309	10.79548	-14.48933	1	18.06885	-53.31153	-5.859168E-006	0.0006551	10
	18	55	4733.456	11.85166	-17.27709	1	20.95136	-55.55085	-6.097395E-006	0.0006574	10
	19	57	3796.875	13.1564	-20.51043	1	24.36737	-57.32189	1.496187E-005	0.0006467	10
	20	60	2987.132	14.81349	-24.84353	1	28.92474	-59.19358	-2.687651E-005	0.0006894	10
	21	62	2390.625	16.87527	-29.51585	1	33.99942	-60.24184	1.982696E-005	0.0006429	10
	22	64	1884.191	19.39564	-35.67836	1	40.60956	-61.4704	5.474683E-006	0.0006544	10
	23	67	1516.544	22.43249	-42.16187	1	47.75814	-61.9845	-3.086026E-006	0.0001238	9
	24	69	1193.986	26.63453	-50.57145	1	57.15653	-62.22551	7.04707E-006	-3.18262E-005	9
	25	72	946.5144	31.68884	-60.29627	1	68.11625	-62.27573	7.527357E-006	-3.763421E-005	9
	26	74	751.7689	38.13911	-71.3233	1	80.8802	-61.86499	-7.779495E-007	8.720859E-005	9
	27	76	597.4265	46.16389	-83.96349	1	95.8174	-61.19761	7.228165E-006	-2.43765E-005	9
	28	79	477.4305	55.87764	-97.9783	1	112.7921	-60.30362	-1.486001E-008	7.54849E-005	9
	29	81	376.6741	68.45358	-114.5679	1	133.4605	-59.14196	-9.043319E-009	7.014662E-005	9
	30	83	298.2954	83.5649	-132.716	1	156.8331	-57.80334	5.293009E-008	8.302813E-005	9
	31	86	237.7717	101.1975	-152.0282	1	182.6295	-56.3503	1.034959E-007	7.64088E-005	9
	32	88	189.0121	122.3573	-173.168	1	212.0341	-54.75568	1.498527E-007	7.468336E-005	9
	33	90	150.2404	147.1569	-195.7811	1	244.9192	-53.07	-2.697442E-007	0.0001209	9
	34	93	119.1737	176.261	-220.0325	1	281.9259	-51.3029	1.848479E-007	7.782772E-005	9
	35	95	95.0169	208.9507	-244.8422	1	321.8821	-49.52224	2.463345E-007	6.818371E-005	9
	36	98	75.60484	246.5668	-270.8873	1	366.2993	-47.69094	2.555316E-007	7.689991E-005	9
	37	100	54.50582	307.7068	-307.1356	1	434.7594	-44.94678	-8.641404E-007	0.0006484	8
	38	103	45.95588	345.0473	-327.1576	1	475.4889	-43.47552	-7.421115E-007	0.0006619	8
	39	105	37.20238	395.4107	-350.611	1	528.4673	-41.56343	-7.768524E-007	0.0006544	8
	40	107	30.04808	450.894	-372.2396	1	584.6946	-39.54169	-7.312404E-007	0.0006531	8
	41	110	23.91582	514.1263	-391.8497	1	646.4302	-37.31343	-9.639682E-007	0.0006578	8
	42	112	18.60119	586.2996	-408.5383	1	714.5983	-34.86909	-2.477442E-007	0.0006545	8
	43	115	15.02404	648.2902	-418.5179	1	771.6459	-32.84515	-9.128602E-007	0.0006636	8
	44	117	12.01923	711.0216	-426.4929	1	829.1248	-30.95664	-4.588079E-007	0.0006622	8
	45	119	9.450605	772.5658	-436.4653	1	887.333	-29.46452	-1.094053E-006	0.0006545	8
	46	122	7.512019	831.3447	-449.9608	1	945.3035	-28.42423	-6.955201E-007	0.0006514	8
	47	125	5.978954	887.5273	-469.7992	1	1004.199	-27.89383	-8.314884E-007	0.0006552	8
	48	128	4.734848	946.7697	-498.4715	1	1069.975	-27.76668	-9.922032E-007	0.000632	8
	49	131	3.75601	1012.882	-535.4276	1	1145.693	-27.86173	-8.442343E-007	0.0006633	8
	50	134	3.004808	1083.718	-579.1437	1	1228.76	-28.12024	-7.291073E-007	0.000637	8
	51	138	2.372217	1171.225	-631.51	1	1330.629	-28.333	-8.194583E-007	0.000592	8
	52	142	1.878005	1273.243	-688.5887	1	1447.516	-28.40519	-7.181381E-007	0.0006579	8
	53	147	1.512097	1383.999	-745.0217	1	1571.786	-28.29407	-7.303119E-007	0.0006156	8
	54	152	1.201923	1521.668	-804.9687	1	1721.467	-27.87902	-7.189392E-007	0.0006793	8
	55	159	0.956633	1676.063	-860.4537	1	1884.03	-27.17496	-1.017623E-006	1.59066E-005	8
