EXPLAIN
TAG	EISPOT
TITLE	LABEL	Potentiostatic EIS	Test Identifier
DATE	LABEL	8/10/2020	Date
TIME	LABEL	8:52:03	Time
NOTES	NOTES	1	Notes...
	
PSTAT	PSTAT	REF3000-16137	Potentiostat
VDC	POTEN	0.00000E+000	T	DC Voltage (V)
FREQINIT	QUANT	3.00000E+005	Initial Freq. (Hz)
FREQFINAL	QUANT	1.00000E+000	Final Freq. (Hz)
PTSPERDEC	QUANT	1.00000E+001	Points/decade
VAC	QUANT	5.00000E+001	AC Voltage (mV rms)
AREA	QUANT	1.00000E+000	Sample Area (cm^2)
SPEED	SELECTOR	2	Optimize for:
ZGUESS	QUANT	1.00000E+003	Estimated Z (ohms)
EOC	QUANT	0	Open Circuit (V)
SEQUENCER	TOGGLE	TRUE	Run as Sequence
PSTATMODEL	IQUANT	5	Pstat Model
PSTATSECTION	LABEL	REF3000-16137	Pstat Section
PSTATSERIALNO	LABEL	16137	Pstat Serial Number
CTRLMODE	IQUANT	1	Control Mode
IESTAB	IQUANT	0	I/E Stability
CASPEED	IQUANT	1	Control Amp Speed
CONVENTION	IQUANT	1	Current Convention
ICHRANGE	IQUANT	2	Ich Range
ICHRANGEMODE	TOGGLE	F	Ich Auto Range
ICHOFFSETENABLE	TOGGLE	T	Ich Offset Enable
ICHOFFSET	QUANT	0	Ich Offset (V)
ICHFILTER	IQUANT	3	Ich Filter
VCHRANGE	IQUANT	2	Vch Range
VCHRANGEMODE	TOGGLE	F	Vch Auto Range
VCHOFFSETENABLE	TOGGLE	T	Vch Offset Enable
VCHOFFSET	QUANT	0	Vch Offset (V)
VCHFILTER	IQUANT	3	Vch Filter
ACHRANGE	IQUANT	2	Ach Range
ACHOFFSETENABLE	TOGGLE	F	Ach Offset Enable
ACHOFFSET	QUANT	0	Ach Offset (V)
ACHFILTER	IQUANT	3	Ach Filter
IERANGELOWERLIMIT	IQUANT	2	I/E Range Lower Limit
IERANGEMODE	TOGGLE	F	I/E AutoRange
IERANGE	IQUANT	11	I/E Range
POSFEEDENABLE	TOGGLE	F	Positive Feedback IR Comp
POSFEEDRESISTANCE	QUANT	0	Positive Feedback Resistance (ohm)
ACHSELECT	IQUANT	0	Ach Select
CABLEID	IQUANT	13	Cable ID
DCCALDATE	LABEL	7/31/2020	DC Calibration Date
ACCALDATE	LABEL	7/31/2020	AC Calibration Date
THERMOSELECT	IQUANT	1	Thermo Select
FRAMEWORKVERSION	QUANT	6.33	Framework Version
INSTRUMENTVERSION	LABEL	3.50	Instrument Version
COMPLIANCEVOLTAGE	IQUANT	0	Compliance Voltage
ZCURVE	TABLE
	Pt	Time	Freq	Zreal	Zimag	Zsig	Zmod	Zphz	Idc	Vdc	IERange
	#	s	Hz	ohm	ohm	V	ohm	°	A	V	#
	0	7	300046.9	100.9024	-2.326105	1	100.9292	-1.320607	-8.130317E-005	0.0018098	9
	1	10	238359.4	103.0036	-2.968478	1	103.0463	-1.65076	-6.240534E-006	-0.0013621	9
	2	13	189328.1	105.0392	-3.550534	1	105.0992	-1.935974	-7.596397E-005	0.0020066	9
	3	16	150421.9	106.8463	-4.071279	1	106.9238	-2.182147	4.928211E-005	-0.0004972	9
	4	19	119484.4	108.8204	-4.614401	1	108.9182	-2.428106	-8.232899E-005	0.002988	9
	5	21	94921.88	110.6721	-4.883202	1	110.7798	-2.526432	2.030601E-005	-0.0007853	9
	6	24	75421.88	112.8135	-5.650177	1	112.9549	-2.867218	2.250579E-005	-0.0008033	9
	7	26	59859.37	115.0569	-6.498855	1	115.2403	-3.232849	2.421557E-005	-0.0003511	9
	8	29	47578.12	117.6186	-7.269353	1	117.843	-3.536637	1.49912E-005	-0.0006516	9
	9	31	37828.12	120.2707	-8.107826	1	120.5436	-3.856655	-7.436507E-006	0.0008191	9
	10	34	30046.88	123.2385	-9.131989	1	123.5764	-4.237879	6.481465E-006	-0.0005368	9
	11	36	23859.38	126.1494	-9.99669	1	126.5449	-4.530925	-3.202005E-006	-0.0002611	9
	12	39	18984.38	129.2089	-10.95793	1	129.6727	-4.84753	-1.113722E-005	3.651633E-007	9
	13	41	15046.87	132.5287	-11.90535	1	133.0624	-5.133228	2.343942E-005	-0.0001571	9
	14	43	11953.13	136.0642	-12.70196	1	136.6558	-5.333259	2.25409E-005	-0.0002418	9
	15	46	9515.62	139.8642	-13.88965	1	140.5522	-5.671341	-1.455749E-005	0.0001415	9
	16	48	7546.875	143.9642	-14.6855	1	144.7113	-5.824481	-1.89433E-005	0.0003318	9
	17	50	5928.309	147.8409	-15.45665	1	148.6467	-5.968547	-2.158528E-005	0.000665	9
	18	52	4733.456	151.9124	-16.13061	1	152.7664	-6.061164	2.050841E-005	-0.0007598	9
	19	55	3796.875	156.0195	-16.55027	1	156.8948	-6.05519	5.916862E-006	-0.0005157	9
	20	57	2987.132	160.2	-17.33872	1	161.1356	-6.177175	-7.166137E-006	0.000805	9
	21	59	2390.625	163.4589	-17.5342	1	164.3967	-6.122691	-1.521369E-005	0.0001481	9
	22	62	1884.191	167.1636	-17.98927	1	168.1288	-6.142235	-2.062957E-006	-0.0003096	9
	23	64	1516.544	170.9904	-18.74919	1	172.0152	-6.257514	-1.937155E-005	0.0009257	9
	24	66	1193.986	175.3075	-20.03774	1	176.449	-6.520639	1.434695E-005	-0.0007012	9
	25	69	946.5144	179.6387	-21.42601	1	180.9119	-6.801697	-1.481512E-005	0.0001808	9
	26	71	751.7689	183.3693	-23.39991	1	184.8564	-7.272257	-2.227525E-005	0.0006869	9
	27	74	597.4265	187.0692	-25.9197	1	188.8564	-7.888491	-1.525126E-005	0.0001633	9
	28	76	477.4305	192.0533	-29.4297	1	194.2951	-8.712071	1.24042E-006	8.639648E-005	9
	29	78	376.6741	196.2846	-33.64486	1	199.1472	-9.72646	1.242764E-006	8.221226E-005	9
	30	80	298.2954	199.8945	-38.71592	1	203.6093	-10.96143	1.240508E-006	8.143981E-005	9
	31	83	237.7717	204.7479	-45.13816	1	209.6644	-12.43241	1.227455E-006	7.639765E-005	9
	32	85	189.0121	209.55	-53.09856	1	216.1728	-14.21908	1.228963E-006	8.316938E-005	9
	33	88	150.2404	215.8867	-63.15464	1	224.9346	-16.3061	1.254156E-006	8.43672E-005	9
	34	90	119.1737	222.1542	-75.5434	1	234.6472	-18.78057	1.267925E-006	8.342322E-005	9
	35	92	95.0169	229.4224	-90.5248	1	246.6361	-21.53305	1.240124E-006	8.256929E-005	9
	36	95	75.60484	237.0419	-109.0564	1	260.9256	-24.70586	1.2536E-006	7.452508E-005	9
	37	97	54.50582	248.7793	-143.1779	1	287.0384	-29.92137	1.239849E-006	7.062047E-005	9
	38	100	45.95588	255.9098	-165.5363	1	304.782	-32.89697	1.31254E-006	8.670444E-005	9
	39	102	37.20238	264.7254	-198.3914	1	330.8152	-36.84874	1.311845E-006	7.502485E-005	9
	40	105	30.04808	273.986	-238.7876	1	363.4389	-41.0732	1.291332E-006	8.085807E-005	9
	41	107	23.91582	284.8088	-290.5081	1	406.8305	-45.56757	4.937219E-008	0.0006547	8
	42	109	18.60119	299.0074	-362.8909	1	470.2076	-50.51286	5.359992E-009	0.0006594	8
	43	112	15.02404	314.4819	-438.9987	1	540.0173	-54.38363	1.117839E-007	0.0006458	8
	44	114	12.01923	333.2584	-536.4672	1	631.5522	-58.15107	3.229808E-008	0.0006558	8
	45	117	9.450605	358.6365	-666.2471	1	756.6409	-61.70671	1.235057E-007	0.0006399	8
	46	119	7.512019	388.6208	-820.2776	1	907.6791	-64.64993	2.937581E-008	0.0007025	8
	47	122	5.978954	425.1191	-1008.344	1	1094.297	-67.13966	8.13802E-008	0.0006751	8
	48	125	4.734848	475.4986	-1247.313	1	1334.874	-69.13223	3.80808E-008	0.0006519	8
	49	128	3.75601	533.8119	-1539.151	1	1629.092	-70.87231	1.203789E-007	0.0006612	8
	50	131	3.004808	604.7139	-1884.027	1	1978.696	-72.20499	5.280989E-008	0.0006805	8
	51	135	2.372217	703.1412	-2331.69	1	2435.403	-73.21886	6.130892E-008	0.0006504	8
	52	139	1.878005	830.1922	-2889.12	1	3006.033	-73.96793	9.840603E-008	0.0006437	8
	53	144	1.512097	971.376	-3512.102	1	3643.958	-74.53963	6.135917E-008	0.0007009	8
	54	150	1.201923	1182.15	-4340.981	1	4499.066	-74.76643	2.018642E-008	0.0006372	7
	55	156	0.956633	1442.203	-5330.7	1	5522.347	-74.86124	-3.406267E-008	-1.490187E-005	7
