EXPLAIN
TAG	EISPOT
TITLE	LABEL	Potentiostatic EIS	Test Identifier
DATE	LABEL	8/10/2020	Date
TIME	LABEL	8:35:21	Time
NOTES	NOTES	1	Notes...
	
PSTAT	PSTAT	REF3000-16137	Potentiostat
VDC	POTEN	0.00000E+000	T	DC Voltage (V)
FREQINIT	QUANT	3.00000E+005	Initial Freq. (Hz)
FREQFINAL	QUANT	1.00000E+000	Final Freq. (Hz)
PTSPERDEC	QUANT	1.00000E+001	Points/decade
VAC	QUANT	5.00000E+001	AC Voltage (mV rms)
AREA	QUANT	1.00000E+000	Sample Area (cm^2)
SPEED	SELECTOR	2	Optimize for:
ZGUESS	QUANT	1.00000E+003	Estimated Z (ohms)
EOC	QUANT	0	Open Circuit (V)
SEQUENCER	TOGGLE	TRUE	Run as Sequence
PSTATMODEL	IQUANT	5	Pstat Model
PSTATSECTION	LABEL	REF3000-16137	Pstat Section
PSTATSERIALNO	LABEL	16137	Pstat Serial Number
CTRLMODE	IQUANT	1	Control Mode
IESTAB	IQUANT	0	I/E Stability
CASPEED	IQUANT	1	Control Amp Speed
CONVENTION	IQUANT	1	Current Convention
ICHRANGE	IQUANT	2	Ich Range
ICHRANGEMODE	TOGGLE	F	Ich Auto Range
ICHOFFSETENABLE	TOGGLE	T	Ich Offset Enable
ICHOFFSET	QUANT	0	Ich Offset (V)
ICHFILTER	IQUANT	3	Ich Filter
VCHRANGE	IQUANT	2	Vch Range
VCHRANGEMODE	TOGGLE	F	Vch Auto Range
VCHOFFSETENABLE	TOGGLE	T	Vch Offset Enable
VCHOFFSET	QUANT	0	Vch Offset (V)
VCHFILTER	IQUANT	3	Vch Filter
ACHRANGE	IQUANT	2	Ach Range
ACHOFFSETENABLE	TOGGLE	F	Ach Offset Enable
ACHOFFSET	QUANT	0	Ach Offset (V)
ACHFILTER	IQUANT	3	Ach Filter
IERANGELOWERLIMIT	IQUANT	2	I/E Range Lower Limit
IERANGEMODE	TOGGLE	F	I/E AutoRange
IERANGE	IQUANT	11	I/E Range
POSFEEDENABLE	TOGGLE	F	Positive Feedback IR Comp
POSFEEDRESISTANCE	QUANT	0	Positive Feedback Resistance (ohm)
ACHSELECT	IQUANT	0	Ach Select
CABLEID	IQUANT	13	Cable ID
DCCALDATE	LABEL	7/31/2020	DC Calibration Date
ACCALDATE	LABEL	7/31/2020	AC Calibration Date
THERMOSELECT	IQUANT	1	Thermo Select
FRAMEWORKVERSION	QUANT	6.33	Framework Version
INSTRUMENTVERSION	LABEL	3.50	Instrument Version
COMPLIANCEVOLTAGE	IQUANT	0	Compliance Voltage
ZCURVE	TABLE
	Pt	Time	Freq	Zreal	Zimag	Zsig	Zmod	Zphz	Idc	Vdc	IERange
	#	s	Hz	ohm	ohm	V	ohm	°	A	V	#
	0	10	300046.9	4.845602	-0.0613482	1	4.84599	-0.7253601	-1.749362E-005	0.0001456	10
	1	13	238359.4	5.027258	-0.5687143	1	5.059324	-6.454211	5.328688E-005	-0.000251	10
	2	16	189328.1	5.220074	-1.035564	1	5.321801	-11.22072	-0.000105	0.0001471	10
	3	19	150421.9	5.461216	-1.486626	1	5.659941	-15.22781	-4.989708E-006	0.0003741	10
	4	22	119484.4	5.726716	-1.938256	1	6.045834	-18.69883	-1.132103E-005	0.0005889	10
	5	24	94921.88	6.044591	-2.380653	1	6.496506	-21.49693	-1.982896E-005	0.0006498	10
	6	27	75421.88	6.376685	-2.872227	1	6.993697	-24.24806	2.686023E-005	0.0006094	10
	7	29	59859.37	6.753178	-3.391502	1	7.556963	-26.66618	-2.054457E-005	0.0007066	10
	8	32	47578.12	7.16199	-3.965099	1	8.186337	-28.97027	-1.2721E-005	0.0006488	10
	9	34	37828.12	7.605858	-4.593023	1	8.885097	-31.12692	-1.299091E-005	0.0006571	10
	10	37	30046.88	8.082078	-5.308301	1	9.66944	-33.29687	2.618281E-005	0.0006573	10
	11	39	23859.38	8.591952	-6.137468	1	10.55889	-35.53926	-1.975494E-005	0.0007254	10
	12	42	18984.38	9.130219	-7.12061	1	11.5786	-37.95049	-1.620215E-005	0.0007264	10
	13	44	15046.87	9.7175	-8.340512	1	12.80602	-40.63942	1.787948E-005	0.0006398	10
	14	46	11953.13	10.36139	-9.80076	1	14.26231	-43.40723	-1.889252E-005	0.0006647	10
	15	48	9515.62	11.06249	-11.5674	1	16.00573	-46.27815	-2.744571E-005	0.0007209	10
	16	51	7546.875	11.90919	-13.69938	1	18.15218	-48.99882	-1.001352E-005	0.0006812	10
	17	53	5928.309	12.90728	-16.53559	1	20.97673	-52.02527	2.234092E-005	0.0006465	10
	18	55	4733.456	14.05262	-19.7028	1	24.20076	-54.50241	4.012759E-006	0.0006396	10
	19	58	3796.875	15.36703	-23.51428	1	28.09033	-56.83462	2.661219E-005	0.0006591	10
	20	60	2987.132	17.17091	-28.46949	1	33.24683	-58.90441	6.986044E-006	0.0006607	10
	21	62	2390.625	19.17367	-34.11957	1	39.13789	-60.66596	-2.386606E-005	0.000714	10
	22	65	1884.191	21.98637	-41.09434	1	46.60628	-61.85225	-5.745106E-006	0.0001859	9
	23	67	1516.544	25.16487	-48.82695	1	54.93033	-62.73392	2.878442E-006	2.021636E-005	9
	24	69	1193.986	29.53682	-58.99365	1	65.9748	-63.40388	2.854523E-006	2.240061E-005	9
	25	72	946.5144	34.95132	-70.64367	1	78.81702	-63.67586	8.18129E-006	-4.92201E-005	9
	26	74	751.7689	41.54799	-84.46031	1	94.1264	-63.80635	8.2714E-006	-4.435191E-005	9
	27	76	597.4265	49.93672	-100.5003	1	112.2229	-63.57807	-5.725473E-006	0.0001864	9
	28	79	477.4305	60.26915	-118.5868	1	133.0233	-63.05904	7.381196E-007	7.642256E-005	9
	29	81	376.6741	73.91206	-140.5855	1	158.831	-62.2671	7.132928E-007	7.489484E-005	9
	30	83	298.2954	90.67128	-165.3032	1	188.5376	-61.25457	7.287445E-007	7.72209E-005	9
	31	86	237.7717	110.7558	-192.3947	1	221.9968	-60.07228	8.417733E-007	7.599601E-005	9
	32	88	189.0121	135.4971	-222.8273	1	260.7901	-58.697	8.587788E-007	6.958545E-005	9
	33	91	150.2404	165.3682	-256.3582	1	305.0674	-57.17527	9.000756E-007	6.960187E-005	9
	34	93	119.1737	201.3151	-293.05	1	355.5363	-55.51229	8.2249E-007	8.264205E-005	9
	35	95	95.0169	241.8015	-330.2102	1	409.2758	-53.78598	-3.053238E-007	0.0007115	8
	36	98	75.60484	290.4133	-371.3372	1	471.414	-51.97195	-2.330356E-007	0.0006529	8
	37	100	54.50582	372.9581	-432.5103	1	571.1067	-49.22846	-2.128065E-007	0.0006523	8
	38	103	45.95588	423.1698	-466.5212	1	629.853	-47.78961	-8.707786E-008	0.000661	8
	39	105	37.20238	491.6945	-508.3943	1	707.2681	-45.95665	-9.761944E-008	0.0007089	8
	40	108	30.04808	569.6902	-550.3705	1	792.1204	-44.01182	-8.951483E-008	0.000651	8
	41	110	23.91582	661.8151	-593.4446	1	888.9183	-41.88234	-2.200114E-007	0.0006576	8
	42	112	18.60119	773.7914	-635.8634	1	1001.536	-39.41167	3.174458E-007	0.0007127	8
	43	115	15.02404	877.1805	-664.1596	1	1100.252	-37.13128	2.417497E-007	0.0006639	8
	44	117	12.01923	985.568	-687.2826	1	1201.542	-34.88985	-3.27137E-007	0.0006567	8
	45	119	9.450605	1102.173	-704.159	1	1307.909	-32.57379	-4.542686E-007	0.0006602	8
	46	122	7.512019	1209.274	-718.215	1	1406.477	-30.70703	-3.967735E-007	0.0006563	8
	47	125	5.978954	1312.061	-734.1952	1	1503.512	-29.23023	-2.783706E-007	0.000717	8
	48	128	4.734848	1413.242	-757.2612	1	1603.34	-28.18385	-9.275284E-008	0.0006535	8
	49	131	3.75601	1510.563	-793.4719	1	1706.282	-27.71214	-2.11115E-007	0.0006454	8
	50	134	3.004808	1607.062	-839.0973	1	1812.935	-27.57047	-8.464418E-008	0.0006317	8
	51	138	2.372217	1717.089	-905.4128	1	1941.177	-27.80247	-1.460141E-007	0.0006713	8
	52	142	1.878005	1842.038	-986.138	1	2089.395	-28.16244	-1.825236E-007	0.000642	8
	53	147	1.512097	1978.478	-1081.505	1	2254.779	-28.66256	-1.46391E-007	0.0006079	8
	54	153	1.201923	2150.004	-1194.545	1	2459.563	-29.05661	-1.148525E-007	0.000628	8
	55	159	0.956633	2352.554	-1319.696	1	2697.427	-29.29081	-2.217186E-007	5.56666E-006	8
