EXPLAIN
TAG	EISPOT
TITLE	LABEL	Potentiostatic EIS	Test Identifier
DATE	LABEL	8/10/2020	Date
TIME	LABEL	8:38:09	Time
NOTES	NOTES	1	Notes...
	
PSTAT	PSTAT	REF3000-16137	Potentiostat
VDC	POTEN	0.00000E+000	T	DC Voltage (V)
FREQINIT	QUANT	3.00000E+005	Initial Freq. (Hz)
FREQFINAL	QUANT	1.00000E+000	Final Freq. (Hz)
PTSPERDEC	QUANT	1.00000E+001	Points/decade
VAC	QUANT	5.00000E+001	AC Voltage (mV rms)
AREA	QUANT	1.00000E+000	Sample Area (cm^2)
SPEED	SELECTOR	2	Optimize for:
ZGUESS	QUANT	1.00000E+003	Estimated Z (ohms)
EOC	QUANT	0	Open Circuit (V)
SEQUENCER	TOGGLE	TRUE	Run as Sequence
PSTATMODEL	IQUANT	5	Pstat Model
PSTATSECTION	LABEL	REF3000-16137	Pstat Section
PSTATSERIALNO	LABEL	16137	Pstat Serial Number
CTRLMODE	IQUANT	1	Control Mode
IESTAB	IQUANT	0	I/E Stability
CASPEED	IQUANT	1	Control Amp Speed
CONVENTION	IQUANT	1	Current Convention
ICHRANGE	IQUANT	2	Ich Range
ICHRANGEMODE	TOGGLE	F	Ich Auto Range
ICHOFFSETENABLE	TOGGLE	T	Ich Offset Enable
ICHOFFSET	QUANT	0	Ich Offset (V)
ICHFILTER	IQUANT	3	Ich Filter
VCHRANGE	IQUANT	2	Vch Range
VCHRANGEMODE	TOGGLE	F	Vch Auto Range
VCHOFFSETENABLE	TOGGLE	T	Vch Offset Enable
VCHOFFSET	QUANT	0	Vch Offset (V)
VCHFILTER	IQUANT	3	Vch Filter
ACHRANGE	IQUANT	2	Ach Range
ACHOFFSETENABLE	TOGGLE	F	Ach Offset Enable
ACHOFFSET	QUANT	0	Ach Offset (V)
ACHFILTER	IQUANT	3	Ach Filter
IERANGELOWERLIMIT	IQUANT	2	I/E Range Lower Limit
IERANGEMODE	TOGGLE	F	I/E AutoRange
IERANGE	IQUANT	11	I/E Range
POSFEEDENABLE	TOGGLE	F	Positive Feedback IR Comp
POSFEEDRESISTANCE	QUANT	0	Positive Feedback Resistance (ohm)
ACHSELECT	IQUANT	0	Ach Select
CABLEID	IQUANT	13	Cable ID
DCCALDATE	LABEL	7/31/2020	DC Calibration Date
ACCALDATE	LABEL	7/31/2020	AC Calibration Date
THERMOSELECT	IQUANT	1	Thermo Select
FRAMEWORKVERSION	QUANT	6.33	Framework Version
INSTRUMENTVERSION	LABEL	3.50	Instrument Version
COMPLIANCEVOLTAGE	IQUANT	0	Compliance Voltage
ZCURVE	TABLE
	Pt	Time	Freq	Zreal	Zimag	Zsig	Zmod	Zphz	Idc	Vdc	IERange
	#	s	Hz	ohm	ohm	V	ohm	°	A	V	#
	0	10	300046.9	6.402822	-0.3280582	1	6.411221	-2.933071	9.696229E-006	0.0002229	10
	1	13	238359.4	6.602826	-0.8720469	1	6.660163	-7.523612	3.65002E-005	0.000131	10
	2	17	189328.1	6.842524	-1.391432	1	6.982565	-11.49441	6.816374E-005	0.0001179	10
	3	19	150421.9	7.129367	-1.90443	1	7.379345	-14.95591	-2.77516E-005	0.0004789	10
	4	22	119484.4	7.458003	-2.434556	1	7.845309	-18.07852	2.410256E-005	0.0005678	10
	5	24	94921.88	7.845328	-2.957469	1	8.384259	-20.65504	1.170629E-005	0.0005903	10
	6	27	75421.88	8.259686	-3.543885	1	8.987855	-23.22215	1.148911E-005	0.0006515	10
	7	29	59859.37	8.747026	-4.173456	1	9.69166	-25.50714	2.126799E-005	0.000625	10
	8	32	47578.12	9.281727	-4.857073	1	10.47576	-27.6228	-3.190353E-005	0.0006704	10
	9	34	37828.12	9.87251	-5.591846	1	11.34615	-29.52747	2.042305E-005	0.0006362	10
	10	37	30046.88	10.50919	-6.431542	1	12.32103	-31.4663	-2.669893E-005	0.0006654	10
	11	39	23859.38	11.20106	-7.366656	1	13.40639	-33.33192	-1.521081E-005	0.0007024	10
	12	42	18984.38	11.92762	-8.468921	1	14.62842	-35.37575	2.118781E-005	0.0006801	10
	13	44	15046.87	12.71923	-9.8156	1	16.06626	-37.65785	4.818076E-006	0.000632	10
	14	46	11953.13	13.5666	-11.39573	1	17.71766	-40.02972	5.375073E-006	0.0006302	10
	15	49	9515.62	14.50077	-13.26303	1	19.65147	-42.4474	2.148003E-005	0.0006339	10
	16	51	7546.875	15.52819	-15.62397	1	22.02801	-45.17616	1.323544E-005	0.0006239	10
	17	53	5928.309	16.76855	-18.68155	1	25.10348	-48.08887	2.443374E-005	0.0006418	10
	18	56	4733.456	18.16398	-22.06492	1	28.57955	-50.53858	1.241015E-005	0.0006324	10
	19	58	3796.875	19.77836	-26.1841	1	32.81449	-52.93415	1.405657E-005	0.0006325	10
	20	60	2987.132	21.91575	-31.61221	1	38.46599	-55.26764	-2.050688E-005	0.0007433	10
	21	63	2390.625	24.39667	-37.65345	1	44.86624	-57.05973	-4.648561E-006	0.0001731	9
	22	65	1884.191	27.87245	-45.25336	1	53.14828	-58.37025	7.491025E-006	-7.612565E-005	9
	23	67	1516.544	31.85507	-53.62107	1	62.36959	-59.28641	8.003179E-006	-4.81419E-005	9
	24	70	1193.986	37.47345	-64.41302	1	74.52045	-59.81051	4.590104E-006	1.414976E-005	9
	25	72	946.5144	44.9847	-75.85511	1	88.19083	-59.33059	-6.349094E-006	0.0002046	9
	26	74	751.7689	54.29012	-89.16881	1	104.3959	-58.665	-6.165705E-006	0.0002084	9
	27	77	597.4265	66.38522	-103.558	1	123.0091	-57.33834	2.94398E-006	2.24805E-006	9
	28	79	477.4305	80.5623	-119.0927	1	143.7823	-55.92294	1.089999E-006	6.667457E-005	9
	29	81	376.6741	99.3069	-135.9309	1	168.3421	-53.8493	1.014658E-006	6.321099E-005	9
	30	84	298.2954	121.2015	-154.2659	1	196.183	-51.84447	1.114216E-006	7.094501E-005	9
	31	86	237.7717	146.2046	-173.5197	1	226.9028	-49.88312	1.13098E-006	7.667663E-005	9
	32	89	189.0121	175.4437	-190.0233	1	258.6297	-47.28449	6.69537E-007	0.0001294	9
	33	91	150.2404	206.1348	-194.8392	1	283.6439	-43.38638	1.166296E-006	7.268113E-005	9
	34	93	119.1737	239.1841	-206.1021	1	315.7327	-40.75109	1.11689E-006	7.485894E-005	9
	35	96	95.0169	274.9316	-220.999	1	352.7435	-38.79346	1.094725E-006	7.388113E-005	9
	36	98	75.60484	305.9767	-225.1555	1	379.8905	-36.3478	1.05352E-007	0.000648	8
	37	101	54.50582	356.8643	-241.5464	1	430.9255	-34.09241	6.725862E-008	0.0007044	8
	38	103	45.95588	378.8006	-245.646	1	451.4774	-32.96275	6.565957E-008	0.0006533	8
	39	107	37.20238	412.597	-259.2829	1	487.3027	-32.14594	1.46472E-007	0.0006477	8
	40	110	30.04808	450.2551	-277.1196	1	528.7012	-31.61115	-3.902488E-008	0.0006475	8
	41	112	23.91582	471.0276	-285.2502	1	550.6674	-31.19873	1.138357E-007	0.000643	8
	42	115	18.60119	498.9123	-305.213	1	584.8662	-31.45649	7.855708E-007	0.0006465	8
	43	117	15.02404	533.9034	-329.3758	1	627.3287	-31.67127	-1.425449E-007	0.0006406	8
	44	119	12.01923	551.6896	-353.5486	1	655.2542	-32.65365	-3.159678E-007	0.000645	8
	45	122	9.450605	611.5757	-399.818	1	730.6705	-33.17468	5.123314E-007	0.0006521	8
	46	124	7.512019	642.7151	-445.8301	1	782.2066	-34.74776	2.56669E-007	0.0006642	8
	47	127	5.978954	676.4014	-503.4932	1	843.2225	-36.66291	3.031019E-007	0.0006537	8
	48	130	4.734848	724.0774	-579.4251	1	927.3735	-38.66768	3.453428E-007	0.0006715	8
	49	133	3.75601	781.5695	-675.4247	1	1032.981	-40.83326	1.861153E-007	0.0006353	8
	50	137	3.004808	805.2505	-792.4415	1	1129.775	-44.54066	1.865952E-007	0.0007298	8
	51	140	2.372217	860.9245	-948.0762	1	1280.64	-47.75819	3.254949E-007	0.0007205	8
	52	144	1.878005	944.3979	-1140.355	1	1480.641	-50.36976	2.679147E-007	0.000628	8
	53	149	1.512097	1043.699	-1352.311	1	1708.231	-52.33944	3.181142E-007	0.000692	8
	54	155	1.201923	1196.242	-1621.891	1	2015.322	-53.58899	3.436845E-007	0.0006146	8
	55	161	0.956633	1400.009	-1928.009	1	2382.697	-54.01501	2.47105E-007	1.073258E-005	8
