EXPLAIN
TAG	EISPOT
TITLE	LABEL	Potentiostatic EIS	Test Identifier
DATE	LABEL	9/11/2020	Date
TIME	LABEL	15:39:21	Time
NOTES	NOTES	1	Notes...
	
PSTAT	PSTAT	REF3000-16137	Potentiostat
VDC	POTEN	0.00000E+000	T	DC Voltage (V)
FREQINIT	QUANT	3.00000E+005	Initial Freq. (Hz)
FREQFINAL	QUANT	1.00000E+000	Final Freq. (Hz)
PTSPERDEC	QUANT	1.00000E+001	Points/decade
VAC	QUANT	5.00000E+001	AC Voltage (mV rms)
AREA	QUANT	1.00000E+000	Sample Area (cm^2)
SPEED	SELECTOR	2	Optimize for:
ZGUESS	QUANT	1.00000E+003	Estimated Z (ohms)
EOC	QUANT	0	Open Circuit (V)
SEQUENCER	TOGGLE	TRUE	Run as Sequence
PSTATMODEL	IQUANT	5	Pstat Model
PSTATSECTION	LABEL	REF3000-16137	Pstat Section
PSTATSERIALNO	LABEL	16137	Pstat Serial Number
CTRLMODE	IQUANT	1	Control Mode
IESTAB	IQUANT	0	I/E Stability
CASPEED	IQUANT	1	Control Amp Speed
CONVENTION	IQUANT	1	Current Convention
ICHRANGE	IQUANT	2	Ich Range
ICHRANGEMODE	TOGGLE	F	Ich Auto Range
ICHOFFSETENABLE	TOGGLE	T	Ich Offset Enable
ICHOFFSET	QUANT	0	Ich Offset (V)
ICHFILTER	IQUANT	3	Ich Filter
VCHRANGE	IQUANT	2	Vch Range
VCHRANGEMODE	TOGGLE	F	Vch Auto Range
VCHOFFSETENABLE	TOGGLE	T	Vch Offset Enable
VCHOFFSET	QUANT	0	Vch Offset (V)
VCHFILTER	IQUANT	3	Vch Filter
ACHRANGE	IQUANT	2	Ach Range
ACHOFFSETENABLE	TOGGLE	F	Ach Offset Enable
ACHOFFSET	QUANT	0	Ach Offset (V)
ACHFILTER	IQUANT	3	Ach Filter
IERANGELOWERLIMIT	IQUANT	2	I/E Range Lower Limit
IERANGEMODE	TOGGLE	F	I/E AutoRange
IERANGE	IQUANT	11	I/E Range
POSFEEDENABLE	TOGGLE	F	Positive Feedback IR Comp
POSFEEDRESISTANCE	QUANT	0	Positive Feedback Resistance (ohm)
ACHSELECT	IQUANT	0	Ach Select
CABLEID	IQUANT	13	Cable ID
DCCALDATE	LABEL	7/31/2020	DC Calibration Date
ACCALDATE	LABEL	7/31/2020	AC Calibration Date
THERMOSELECT	IQUANT	1	Thermo Select
FRAMEWORKVERSION	QUANT	6.33	Framework Version
INSTRUMENTVERSION	LABEL	3.50	Instrument Version
COMPLIANCEVOLTAGE	IQUANT	0	Compliance Voltage
ZCURVE	TABLE
	Pt	Time	Freq	Zreal	Zimag	Zsig	Zmod	Zphz	Idc	Vdc	IERange
	#	s	Hz	ohm	ohm	V	ohm	°	A	V	#
	0	7	300046.9	114.9972	-3.784961	1	115.0595	-1.885124	-3.749585E-005	-0.000654	9
	1	10	238359.4	115.9998	-3.405287	1	116.0498	-1.681491	9.591963E-006	0.0007082	9
	2	13	189328.1	117.3644	-2.824347	1	117.3984	-1.378543	1.392988E-005	-0.0009916	9
	3	16	150421.9	118.627	-2.588208	1	118.6552	-1.249883	-3.162426E-005	-0.000513	9
	4	18	119484.4	119.2817	-2.101833	1	119.3002	-1.00949	1.484373E-005	-0.0008485	9
	5	21	94921.88	120.081	-1.588056	1	120.0915	-0.7576853	-1.278189E-005	0.0008227	9
	6	24	75421.88	120.9657	-1.438713	1	120.9742	-0.6814187	-2.160656E-005	0.0006307	9
	7	26	59859.37	121.8324	-1.363331	1	121.84	-0.6411254	-9.059046E-007	-0.0003675	9
	8	29	47578.12	122.7474	-1.291273	1	122.7542	-0.6027157	-9.887949E-006	-1.659945E-005	9
	9	31	37828.12	123.562	-1.188086	1	123.5678	-0.5508988	1.862977E-005	-0.0007245	9
	10	34	30046.88	124.443	-1.142603	1	124.4482	-0.5260602	1.13629E-005	0.0001358	9
	11	36	23859.38	125.2602	-1.174817	1	125.2657	-0.5373623	-2.117734E-005	0.0008005	9
	12	38	18984.38	126.0969	-1.204702	1	126.1027	-0.5473745	-1.855818E-005	0.0008156	9
	13	41	15046.87	126.8946	-1.148658	1	126.8998	-0.5186311	-1.630016E-005	0.0004031	9
	14	43	11953.13	127.7239	-1.438448	1	127.732	-0.6452478	-1.784347E-005	0.0008676	9
	15	45	9515.62	128.5492	-1.634449	1	128.5596	-0.7284525	2.346708E-005	-0.000757	9
	16	48	7546.875	129.417	-1.79993	1	129.4295	-0.7968176	-2.430177E-005	0.0007684	9
	17	50	5928.309	130.1225	-2.380769	1	130.1443	-1.048187	-2.125476E-005	0.000615	9
	18	52	4733.456	130.9633	-2.629343	1	130.9897	-1.15017	6.029198E-006	-0.0005421	9
	19	55	3796.875	132.0746	-3.247826	1	132.1146	-1.408667	2.45298E-005	-0.0005872	9
	20	57	2987.132	132.8872	-4.131727	1	132.9514	-1.780866	-1.808923E-005	0.0003747	9
	21	59	2390.625	133.7502	-4.883046	1	133.8393	-2.090866	-1.878082E-005	0.000364	9
	22	62	1884.191	135.0443	-5.893233	1	135.1729	-2.498759	1.446476E-005	-0.0007543	9
	23	64	1516.544	135.8206	-7.326874	1	136.0181	-3.087842	2.388501E-005	-0.0007384	9
	24	66	1193.986	136.9378	-9.203086	1	137.2467	-3.844856	1.35297E-005	-0.0007132	9
	25	69	946.5144	138.1264	-11.20248	1	138.58	-4.636714	-1.970988E-005	0.0004832	9
	26	71	751.7689	139.3747	-13.87594	1	140.0638	-5.685546	-1.911378E-005	0.000888	9
	27	73	597.4265	140.5408	-17.28875	1	141.6002	-7.013058	6.702501E-006	-0.0006047	9
	28	76	477.4305	141.9056	-21.12942	1	143.4701	-8.468987	1.159958E-006	4.697851E-005	9
	29	78	376.6741	143.5094	-26.27306	1	145.8945	-10.37457	1.125586E-006	4.079783E-005	9
	30	80	298.2954	145.2847	-32.55622	1	148.8877	-12.63051	1.111525E-006	4.907929E-005	9
	31	83	237.7717	147.3332	-40.07844	1	152.6871	-15.21771	1.04678E-006	5.236323E-005	9
	32	85	189.0121	149.6998	-49.42043	1	157.6464	-18.26962	1.108074E-006	4.739846E-005	9
	33	87	150.2404	152.4671	-60.88489	1	164.1743	-21.76837	1.147589E-006	4.178307E-005	9
	34	90	119.1737	155.6984	-75.06108	1	172.8472	-25.73838	1.191074E-006	4.103115E-005	9
	35	92	95.0169	159.4138	-92.02249	1	184.0676	-29.99593	1.163957E-006	4.366359E-005	9
	36	95	75.60484	163.7617	-112.9679	1	198.9463	-34.59912	8.017313E-007	0.0001021	9
	37	97	54.50582	170.7936	-151.4178	1	228.2495	-41.55873	1.221934E-006	4.02306E-005	9
	38	100	45.95588	175.5658	-176.5337	1	248.9729	-45.15749	1.184045E-006	4.322837E-005	9
	39	102	37.20238	181.9849	-213.609	1	280.6195	-49.57055	1.231725E-006	4.093343E-005	9
	40	104	30.04808	189.5095	-259.1965	1	321.0867	-53.82789	1.228993E-006	3.622343E-005	9
	41	107	23.91582	199.0357	-319.0034	1	376.0031	-58.03873	1.245748E-006	4.035324E-005	9
	42	109	18.60119	210.8268	-399.7278	1	451.9185	-62.19167	1.430828E-007	0.0006231	8
	43	111	15.02404	224.4792	-486.1024	1	535.4311	-65.21278	4.423664E-008	0.0006022	8
	44	114	12.01923	242.0335	-596.4521	1	643.6888	-67.91325	7.993783E-008	0.0006106	8
	45	116	9.450605	266.0625	-743.4324	1	789.6082	-70.30853	1.187401E-007	0.0006296	8
	46	119	7.512019	295.4458	-917.3254	1	963.729	-72.14765	1.526478E-007	0.0006381	8
	47	121	5.978954	333.1855	-1129.787	1	1177.893	-73.56868	1.332315E-007	0.000614	8
	48	125	4.734848	382.4802	-1396.925	1	1448.341	-74.68761	1.586724E-007	0.0006429	8
	49	128	3.75601	445.9329	-1723.151	1	1779.917	-75.49078	7.918572E-008	0.0006038	8
	50	131	3.004808	523.725	-2106.264	1	2170.4	-76.03651	1.10974E-007	0.0006349	8
	51	135	2.372217	633.7352	-2604.961	1	2680.94	-76.3267	1.139631E-007	0.0006851	8
	52	139	1.878005	766.799	-3213.695	1	3303.909	-76.57994	7.401415E-008	0.0006022	8
	53	144	1.512097	924.2977	-3888.332	1	3996.68	-76.62836	1.063385E-007	0.0006065	8
	54	149	1.201923	1151.305	-4787.435	1	4923.925	-76.478	-9.438093E-009	0.0005739	7
	55	155	0.956633	1435.104	-5850.605	1	6024.043	-76.21794	-1.983748E-008	-3.937168E-005	7
