EXPLAIN
TAG	EISPOT
TITLE	LABEL	Potentiostatic EIS	Test Identifier
DATE	LABEL	9/11/2020	Date
TIME	LABEL	14:15:06	Time
NOTES	NOTES	1	Notes...
	
PSTAT	PSTAT	REF3000-16137	Potentiostat
VDC	POTEN	0.00000E+000	T	DC Voltage (V)
FREQINIT	QUANT	3.00000E+005	Initial Freq. (Hz)
FREQFINAL	QUANT	1.00000E+000	Final Freq. (Hz)
PTSPERDEC	QUANT	1.00000E+001	Points/decade
VAC	QUANT	5.00000E+001	AC Voltage (mV rms)
AREA	QUANT	1.00000E+000	Sample Area (cm^2)
SPEED	SELECTOR	2	Optimize for:
ZGUESS	QUANT	1.00000E+003	Estimated Z (ohms)
EOC	QUANT	0	Open Circuit (V)
SEQUENCER	TOGGLE	TRUE	Run as Sequence
PSTATMODEL	IQUANT	5	Pstat Model
PSTATSECTION	LABEL	REF3000-16137	Pstat Section
PSTATSERIALNO	LABEL	16137	Pstat Serial Number
CTRLMODE	IQUANT	1	Control Mode
IESTAB	IQUANT	0	I/E Stability
CASPEED	IQUANT	1	Control Amp Speed
CONVENTION	IQUANT	1	Current Convention
ICHRANGE	IQUANT	2	Ich Range
ICHRANGEMODE	TOGGLE	F	Ich Auto Range
ICHOFFSETENABLE	TOGGLE	T	Ich Offset Enable
ICHOFFSET	QUANT	0	Ich Offset (V)
ICHFILTER	IQUANT	3	Ich Filter
VCHRANGE	IQUANT	2	Vch Range
VCHRANGEMODE	TOGGLE	F	Vch Auto Range
VCHOFFSETENABLE	TOGGLE	T	Vch Offset Enable
VCHOFFSET	QUANT	0	Vch Offset (V)
VCHFILTER	IQUANT	3	Vch Filter
ACHRANGE	IQUANT	2	Ach Range
ACHOFFSETENABLE	TOGGLE	F	Ach Offset Enable
ACHOFFSET	QUANT	0	Ach Offset (V)
ACHFILTER	IQUANT	3	Ach Filter
IERANGELOWERLIMIT	IQUANT	2	I/E Range Lower Limit
IERANGEMODE	TOGGLE	F	I/E AutoRange
IERANGE	IQUANT	11	I/E Range
POSFEEDENABLE	TOGGLE	F	Positive Feedback IR Comp
POSFEEDRESISTANCE	QUANT	0	Positive Feedback Resistance (ohm)
ACHSELECT	IQUANT	0	Ach Select
CABLEID	IQUANT	13	Cable ID
DCCALDATE	LABEL	7/31/2020	DC Calibration Date
ACCALDATE	LABEL	7/31/2020	AC Calibration Date
THERMOSELECT	IQUANT	1	Thermo Select
FRAMEWORKVERSION	QUANT	6.33	Framework Version
INSTRUMENTVERSION	LABEL	3.50	Instrument Version
COMPLIANCEVOLTAGE	IQUANT	0	Compliance Voltage
ZCURVE	TABLE
	Pt	Time	Freq	Zreal	Zimag	Zsig	Zmod	Zphz	Idc	Vdc	IERange
	#	s	Hz	ohm	ohm	V	ohm	°	A	V	#
	0	10	300046.9	1.643638	2.258482	1	2.793257	53.95428	3.999257E-005	-0.0002273	11
	1	13	238359.4	1.733765	1.646149	1	2.390763	43.51508	-0.000429	-0.0003134	12
	2	17	189328.1	1.641473	1.302232	1	2.09529	38.42608	0.0004241	0.0002035	12
	3	21	150421.9	1.54823	1.111215	1	1.905732	35.66822	5.195145E-005	0.0003251	11
	4	24	119484.4	1.532309	0.863291	1	1.758761	29.39658	-0.0003055	0.0003151	11
	5	26	94921.88	1.52223	0.6606057	1	1.659392	23.45951	0.0000979	0.0003915	11
	6	29	75421.88	1.519003	0.4890881	1	1.5958	17.8475	-0.0001254	0.0004181	11
	7	31	59859.37	1.51785	0.344235	1	1.556395	12.77803	-0.0001781	0.0004404	11
	8	34	47578.12	1.518573	0.2184449	1	1.534204	8.185777	-6.739372E-005	0.0005521	11
	9	36	37828.12	1.5213	0.1062948	1	1.525009	3.996821	0.0000993	0.0005975	11
	10	39	30046.88	1.525665	0.0004104	1	1.525665	0.0154122	0.0001178	0.0006842	11
	11	41	23859.38	1.532323	-0.1030972	1	1.535787	-3.849153	-0.0001064	0.0006392	11
	12	44	18984.38	1.540721	-0.2086077	1	1.554779	-7.710738	-1.252713E-005	0.0006872	11
	13	46	15046.87	1.55095	-0.3235898	1	1.584347	-11.78512	0.0001839	0.0007147	11
	14	48	11953.13	1.564877	-0.4512339	1	1.628635	-16.08497	-0.0001908	0.0006331	11
	15	50	9515.62	1.580124	-0.5972839	1	1.689243	-20.70649	0.0001477	0.0007728	11
	16	53	7546.875	1.599689	-0.7719464	1	1.776206	-25.76011	-0.0001099	0.0005918	11
	17	55	5928.309	1.625969	-0.992071	1	1.904726	-31.38909	2.928921E-005	0.0006521	11
	18	57	4733.456	1.657737	-1.241522	1	2.071104	-36.83049	-0.0001573	0.0005677	11
	19	60	3796.875	1.696316	-1.538055	1	2.289782	-42.19869	-0.0001571	0.0005873	11
	20	62	2987.132	1.752194	-1.932738	1	2.608766	-47.80497	0.0001033	0.0007437	11
	21	64	2390.625	1.819339	-2.384599	1	2.999384	-52.65805	0.0001099	0.0006902	11
	22	67	1884.191	1.914098	-2.974496	1	3.537145	-57.23858	-0.0002111	0.0005607	11
	23	69	1516.544	2.02682	-3.636575	1	4.163253	-60.86719	-0.0001424	0.00076	10
	24	71	1193.986	2.186369	-4.524204	1	5.024802	-64.20735	0.0001247	0.0005398	10
	25	74	946.5144	2.387348	-5.586684	1	6.075399	-66.86161	-4.943592E-005	0.0007067	10
	26	76	751.7689	2.647498	-6.877482	1	7.369464	-68.94571	9.121587E-005	0.0006074	10
	27	78	597.4265	2.986728	-8.443832	1	8.956497	-70.52044	-0.0001361	0.0007444	10
	28	81	477.4305	3.415051	-10.30566	1	10.85676	-71.66602	-1.050884E-005	0.0006546	10
	29	83	376.6741	4.002009	-12.69813	1	13.31385	-72.50697	-1.027711E-005	0.0006475	10
	30	85	298.2954	4.756174	-15.56405	1	16.27455	-73.00752	-9.897833E-006	0.0006566	10
	31	88	237.7717	5.70525	-18.92561	1	19.76686	-73.22422	-9.970644E-006	0.0006497	10
	32	90	189.0121	6.945024	-23.0122	1	24.03736	-73.20631	-1.000152E-005	0.0006459	10
	33	92	150.2404	8.537036	-27.89997	1	29.17686	-72.98655	-9.85678E-006	0.0006492	10
	34	95	119.1737	10.58212	-33.77026	1	35.38943	-72.60129	-9.5888E-006	0.0006539	10
	35	97	95.0169	13.07478	-40.51291	1	42.57048	-72.11349	-7.862038E-006	4.991913E-005	9
	36	100	75.60484	16.20078	-48.57274	1	51.20329	-71.55457	-7.961618E-006	4.987664E-005	9
	37	102	54.50582	21.88247	-62.62981	1	66.34257	-70.74091	-7.513004E-006	-1.386987E-005	9
	38	105	45.95588	25.47872	-71.38818	1	75.79866	-70.35832	-7.634849E-006	5.300171E-005	9
	39	107	37.20238	30.61089	-83.83445	1	89.2482	-69.94109	-7.805652E-006	5.316979E-005	9
	40	109	30.04808	36.6895	-98.6761	1	105.2763	-69.604	-7.826032E-006	4.844988E-005	9
	41	112	23.91582	44.44348	-117.53	1	125.6524	-69.28609	-7.724996E-006	4.833777E-005	9
	42	114	18.60119	54.77811	-142.7542	1	152.9032	-69.00702	-7.943727E-006	5.584531E-005	9
	43	116	15.02404	65.79853	-168.7262	1	181.1022	-68.6956	-7.348203E-006	5.407471E-005	9
	44	119	12.01923	80.52355	-201.0461	1	216.5723	-68.17277	-7.573708E-006	4.76556E-005	9
	45	121	9.450605	101.7512	-242.8686	1	263.322	-67.26848	-7.775089E-006	4.379501E-005	9
	46	124	7.512019	129.1244	-289.9374	1	317.3906	-65.99407	-7.351917E-006	5.141174E-005	9
	47	126	5.978954	165.927	-343.4304	1	381.4134	-64.21267	-7.35378E-006	5.571958E-005	9
	48	129	4.734848	216.0489	-402.0515	1	456.4236	-61.74791	-7.331845E-006	0.0006548	8
	49	133	3.75601	282.0814	-464.7191	1	543.6301	-58.74253	-7.395319E-006	0.0006285	8
	50	136	3.004808	362.6191	-523.556	1	636.8701	-55.29322	-7.400429E-006	0.0006588	8
	51	140	2.372217	467.7137	-578.43	1	743.8665	-51.04128	-7.244554E-006	0.000708	8
	52	144	1.878005	587.4044	-619.254	1	853.5335	-46.51196	-7.359605E-006	0.000617	8
	53	149	1.512097	706.7085	-640.1557	1	953.539	-42.17113	-7.18081E-006	0.0005989	8
	54	154	1.201923	839.8603	-640.5641	1	1056.261	-37.33288	-7.100505E-006	0.0006118	8
	55	160	0.956633	965.337	-620.3284	1	1147.468	-32.72492	-7.423533E-006	-2.847105E-006	8
