EXPLAIN
TAG	EISPOT
TITLE	LABEL	Potentiostatic EIS	Test Identifier
DATE	LABEL	9/11/2020	Date
TIME	LABEL	14:34:55	Time
NOTES	NOTES	1	Notes...
	
PSTAT	PSTAT	REF3000-16137	Potentiostat
VDC	POTEN	0.00000E+000	T	DC Voltage (V)
FREQINIT	QUANT	3.00000E+005	Initial Freq. (Hz)
FREQFINAL	QUANT	1.00000E+000	Final Freq. (Hz)
PTSPERDEC	QUANT	1.00000E+001	Points/decade
VAC	QUANT	5.00000E+001	AC Voltage (mV rms)
AREA	QUANT	1.00000E+000	Sample Area (cm^2)
SPEED	SELECTOR	2	Optimize for:
ZGUESS	QUANT	1.00000E+003	Estimated Z (ohms)
EOC	QUANT	0	Open Circuit (V)
SEQUENCER	TOGGLE	TRUE	Run as Sequence
PSTATMODEL	IQUANT	5	Pstat Model
PSTATSECTION	LABEL	REF3000-16137	Pstat Section
PSTATSERIALNO	LABEL	16137	Pstat Serial Number
CTRLMODE	IQUANT	1	Control Mode
IESTAB	IQUANT	0	I/E Stability
CASPEED	IQUANT	1	Control Amp Speed
CONVENTION	IQUANT	1	Current Convention
ICHRANGE	IQUANT	2	Ich Range
ICHRANGEMODE	TOGGLE	F	Ich Auto Range
ICHOFFSETENABLE	TOGGLE	T	Ich Offset Enable
ICHOFFSET	QUANT	0	Ich Offset (V)
ICHFILTER	IQUANT	3	Ich Filter
VCHRANGE	IQUANT	2	Vch Range
VCHRANGEMODE	TOGGLE	F	Vch Auto Range
VCHOFFSETENABLE	TOGGLE	T	Vch Offset Enable
VCHOFFSET	QUANT	0	Vch Offset (V)
VCHFILTER	IQUANT	3	Vch Filter
ACHRANGE	IQUANT	2	Ach Range
ACHOFFSETENABLE	TOGGLE	F	Ach Offset Enable
ACHOFFSET	QUANT	0	Ach Offset (V)
ACHFILTER	IQUANT	3	Ach Filter
IERANGELOWERLIMIT	IQUANT	2	I/E Range Lower Limit
IERANGEMODE	TOGGLE	F	I/E AutoRange
IERANGE	IQUANT	11	I/E Range
POSFEEDENABLE	TOGGLE	F	Positive Feedback IR Comp
POSFEEDRESISTANCE	QUANT	0	Positive Feedback Resistance (ohm)
ACHSELECT	IQUANT	0	Ach Select
CABLEID	IQUANT	13	Cable ID
DCCALDATE	LABEL	7/31/2020	DC Calibration Date
ACCALDATE	LABEL	7/31/2020	AC Calibration Date
THERMOSELECT	IQUANT	1	Thermo Select
FRAMEWORKVERSION	QUANT	6.33	Framework Version
INSTRUMENTVERSION	LABEL	3.50	Instrument Version
COMPLIANCEVOLTAGE	IQUANT	0	Compliance Voltage
ZCURVE	TABLE
	Pt	Time	Freq	Zreal	Zimag	Zsig	Zmod	Zphz	Idc	Vdc	IERange
	#	s	Hz	ohm	ohm	V	ohm	°	A	V	#
	0	10	300046.9	1.857502	2.252858	1	2.919877	50.49412	-5.125961E-005	-0.0004256	11
	1	13	238359.4	1.961881	1.618954	1	2.543617	39.52962	-0.0006564	-0.0005035	12
	2	17	189328.1	1.877202	1.280611	1	2.272411	34.30147	0.0002392	4.86116E-005	12
	3	21	150421.9	1.786892	1.108717	1	2.102912	31.81846	-0.0005173	9.380165E-005	11
	4	24	119484.4	1.772241	0.8554044	1	1.967881	25.76513	-0.0002829	0.0001029	11
	5	26	94921.88	1.764572	0.650532	1	1.880666	20.23706	0.000106	0.0004682	11
	6	29	75421.88	1.761556	0.4768714	1	1.824962	15.1475	9.424536E-005	0.0004424	11
	7	31	59859.37	1.76312	0.3305552	1	1.793839	10.61872	5.185411E-005	0.0005286	11
	8	34	47578.12	1.764962	0.2018584	1	1.776468	6.524557	8.882396E-005	0.0005527	11
	9	36	37828.12	1.769775	0.0858065	1	1.771853	2.77578	0.0002072	0.0006739	11
	10	39	30046.88	1.777155	-0.0241801	1	1.777319	-0.7795216	-0.0001786	0.0006238	11
	11	41	23859.38	1.785132	-0.1337691	1	1.790137	-4.285457	0.000185	0.0006907	11
	12	44	18984.38	1.79653	-0.2464351	1	1.813353	-7.81068	-0.0001721	0.000544	11
	13	46	15046.87	1.81019	-0.3701071	1	1.847638	-11.5553	0.0001464	0.0006764	11
	14	48	11953.13	1.82667	-0.5077394	1	1.895922	-15.53375	4.406158E-005	0.0006411	11
	15	50	9515.62	1.846262	-0.6652609	1	1.962462	-19.81554	0.0002	0.0007141	11
	16	53	7546.875	1.869844	-0.8544533	1	2.055823	-24.55874	0.0001161	0.0007278	11
	17	55	5928.309	1.899661	-1.09337	1	2.191841	-29.92304	-9.199834E-005	0.0006331	11
	18	57	4733.456	1.93341	-1.364172	1	2.366229	-35.20596	-0.0001317	0.0006745	11
	19	60	3796.875	1.973011	-1.687839	1	2.596454	-40.54578	-0.0000969	0.0006131	11
	20	62	2987.132	2.029043	-2.120957	1	2.935213	-46.26877	-1.416382E-005	0.0007031	11
	21	64	2390.625	2.096204	-2.615961	1	3.352211	-51.29435	-6.593228E-005	0.0006871	11
	22	67	1884.191	2.185739	-3.272237	1	3.935097	-56.25847	-0.0001859	0.0006263	11
	23	69	1516.544	2.294619	-4.00687	1	4.617389	-60.20148	-0.0001255	0.000726	10
	24	71	1193.986	2.447525	-5.000369	1	5.567232	-63.91969	0.0001429	0.0005213	10
	25	74	946.5144	2.646635	-6.192256	1	6.734145	-66.85763	-0.0001061	0.0007059	10
	26	76	751.7689	2.896929	-7.650189	1	8.180317	-69.25962	-6.791878E-005	0.0006432	10
	27	78	597.4265	3.218137	-9.432282	1	9.96616	-71.16122	9.134966E-006	0.0006888	10
	28	81	477.4305	3.636348	-11.55373	1	12.11246	-72.52946	-4.236791E-006	0.0006494	10
	29	83	376.6741	4.207481	-14.30046	1	14.90658	-73.60506	-3.758563E-006	0.0006427	10
	30	85	298.2954	4.943242	-17.61508	1	18.29554	-74.32452	-4.156119E-006	0.0006502	10
	31	88	237.7717	5.876354	-21.53685	1	22.32414	-74.73827	-4.85672E-006	0.0006516	10
	32	90	189.0121	7.105015	-26.35037	1	27.29145	-74.90985	-5.983292E-006	0.000651	10
	33	92	150.2404	8.709741	-32.17416	1	33.33221	-74.85272	-4.620019E-006	0.000649	10
	34	95	119.1737	10.81573	-39.24691	1	40.70995	-74.59277	-4.952275E-006	0.0006493	10
	35	97	95.0169	13.45415	-47.46012	1	49.33029	-74.17285	-2.270531E-006	4.147606E-005	9
	36	100	75.60484	16.86785	-57.36348	1	59.79209	-73.61392	-2.462295E-006	4.593912E-005	9
	37	102	54.50582	23.32958	-74.73487	1	78.29157	-72.66349	-2.539188E-006	4.595309E-005	9
	38	105	45.95588	27.5649	-85.5374	1	89.86919	-72.13818	-2.140684E-006	5.570494E-005	9
	39	107	37.20238	33.77151	-100.8415	1	106.3463	-71.48447	-2.298387E-006	5.076745E-005	9
	40	109	30.04808	41.14028	-118.8137	1	125.7347	-70.90114	-2.339954E-006	5.417921E-005	9
	41	112	23.91582	50.25057	-141.2091	1	149.8837	-70.41142	-2.453395E-006	5.40877E-005	9
	42	114	18.60119	62.08151	-170.6929	1	181.632	-70.01353	-2.482063E-006	5.764245E-005	9
	43	116	15.02404	73.72165	-200.732	1	213.8416	-69.83353	-2.087694E-006	5.816307E-005	9
	44	119	12.01923	87.89395	-238.2504	1	253.946	-69.75027	-2.17688E-006	5.601487E-005	9
	45	121	9.450605	106.1448	-287.5426	1	306.5085	-69.73865	-2.106823E-006	-1.180963E-005	9
	46	124	7.512019	127.7886	-345.3044	1	368.1916	-69.69173	-2.16021E-006	4.509018E-005	9
	47	126	5.978954	154.6834	-412.9456	1	440.966	-69.46478	-2.024879E-006	0.0006358	8
	48	129	4.734848	191.9809	-498.5499	1	534.2366	-68.93938	-2.054644E-006	0.0006565	8
	49	133	3.75601	241.4389	-600.1666	1	646.9101	-68.08574	-2.143935E-006	0.0006199	8
	50	136	3.004808	305.5265	-714.6293	1	777.201	-66.85177	-2.111855E-006	0.0006388	8
	51	140	2.372217	398.9442	-852.9951	1	941.6778	-64.93459	-2.130875E-006	0.0006769	8
	52	144	1.878005	522.9918	-1007.784	1	1135.407	-62.57284	-2.236816E-006	0.0006145	8
	53	149	1.512097	669.5229	-1159.354	1	1338.792	-59.99372	-2.152521E-006	0.0005647	8
	54	154	1.201923	871.9974	-1321.59	1	1583.344	-56.5828	-2.171001E-006	0.0006249	8
	55	160	0.956633	1114.885	-1471.889	1	1846.463	-52.85784	-2.298376E-006	-2.40626E-006	8
