EXPLAIN
TAG	EISPOT
TITLE	LABEL	Potentiostatic EIS	Test Identifier
DATE	LABEL	9/11/2020	Date
TIME	LABEL	14:23:36	Time
NOTES	NOTES	1	Notes...
	
PSTAT	PSTAT	REF3000-16137	Potentiostat
VDC	POTEN	0.00000E+000	T	DC Voltage (V)
FREQINIT	QUANT	3.00000E+005	Initial Freq. (Hz)
FREQFINAL	QUANT	1.00000E+000	Final Freq. (Hz)
PTSPERDEC	QUANT	1.00000E+001	Points/decade
VAC	QUANT	5.00000E+001	AC Voltage (mV rms)
AREA	QUANT	1.00000E+000	Sample Area (cm^2)
SPEED	SELECTOR	2	Optimize for:
ZGUESS	QUANT	1.00000E+003	Estimated Z (ohms)
EOC	QUANT	0	Open Circuit (V)
SEQUENCER	TOGGLE	TRUE	Run as Sequence
PSTATMODEL	IQUANT	5	Pstat Model
PSTATSECTION	LABEL	REF3000-16137	Pstat Section
PSTATSERIALNO	LABEL	16137	Pstat Serial Number
CTRLMODE	IQUANT	1	Control Mode
IESTAB	IQUANT	0	I/E Stability
CASPEED	IQUANT	1	Control Amp Speed
CONVENTION	IQUANT	1	Current Convention
ICHRANGE	IQUANT	2	Ich Range
ICHRANGEMODE	TOGGLE	F	Ich Auto Range
ICHOFFSETENABLE	TOGGLE	T	Ich Offset Enable
ICHOFFSET	QUANT	0	Ich Offset (V)
ICHFILTER	IQUANT	3	Ich Filter
VCHRANGE	IQUANT	2	Vch Range
VCHRANGEMODE	TOGGLE	F	Vch Auto Range
VCHOFFSETENABLE	TOGGLE	T	Vch Offset Enable
VCHOFFSET	QUANT	0	Vch Offset (V)
VCHFILTER	IQUANT	3	Vch Filter
ACHRANGE	IQUANT	2	Ach Range
ACHOFFSETENABLE	TOGGLE	F	Ach Offset Enable
ACHOFFSET	QUANT	0	Ach Offset (V)
ACHFILTER	IQUANT	3	Ach Filter
IERANGELOWERLIMIT	IQUANT	2	I/E Range Lower Limit
IERANGEMODE	TOGGLE	F	I/E AutoRange
IERANGE	IQUANT	11	I/E Range
POSFEEDENABLE	TOGGLE	F	Positive Feedback IR Comp
POSFEEDRESISTANCE	QUANT	0	Positive Feedback Resistance (ohm)
ACHSELECT	IQUANT	0	Ach Select
CABLEID	IQUANT	13	Cable ID
DCCALDATE	LABEL	7/31/2020	DC Calibration Date
ACCALDATE	LABEL	7/31/2020	AC Calibration Date
THERMOSELECT	IQUANT	1	Thermo Select
FRAMEWORKVERSION	QUANT	6.33	Framework Version
INSTRUMENTVERSION	LABEL	3.50	Instrument Version
COMPLIANCEVOLTAGE	IQUANT	0	Compliance Voltage
ZCURVE	TABLE
	Pt	Time	Freq	Zreal	Zimag	Zsig	Zmod	Zphz	Idc	Vdc	IERange
	#	s	Hz	ohm	ohm	V	ohm	°	A	V	#
	0	10	300046.9	1.673331	2.249795	1	2.803857	53.35922	0.0004441	-0.0003237	11
	1	13	238359.4	1.758293	1.635051	1	2.401039	42.92001	0.0003628	-0.0002447	12
	2	18	189328.1	1.687668	1.300022	1	2.130324	37.60731	-5.05583E-005	0.0001591	12
	3	21	150421.9	1.587088	1.112665	1	1.938265	35.03326	-0.0002818	0.0002333	11
	4	24	119484.4	1.571019	0.8588806	1	1.790468	28.66555	6.417758E-005	0.0004113	11
	5	26	94921.88	1.563438	0.6574137	1	1.696034	22.80638	-0.0001968	0.0003426	11
	6	29	75421.88	1.560378	0.4845659	1	1.633886	17.25186	-2.724848E-005	0.0004511	11
	7	31	59859.37	1.559289	0.3386312	1	1.595635	12.25268	-0.0001606	0.000427	11
	8	34	47578.12	1.561798	0.2124779	1	1.576185	7.747354	4.548376E-005	0.0005984	11
	9	36	37828.12	1.565825	0.0986119	1	1.568927	3.60359	-1.379284E-005	0.0006163	11
	10	39	30046.88	1.571742	-0.0085609	1	1.571765	-0.3120745	0.0001815	0.0006653	11
	11	41	23859.38	1.57904	-0.1144317	1	1.583181	-4.144932	0.0001612	0.0007108	11
	12	44	18984.38	1.588903	-0.2223651	1	1.604388	-7.966734	-1.105881E-005	0.0006869	11
	13	46	15046.87	1.600654	-0.3405602	1	1.636483	-12.01132	0.000177	0.0007331	11
	14	48	11953.13	1.614913	-0.4718197	1	1.682426	-16.28647	9.497946E-005	0.0006575	11
	15	51	9515.62	1.632304	-0.6222954	1	1.746902	-20.86872	-1.278348E-006	0.0007084	11
	16	53	7546.875	1.653411	-0.8028909	1	1.838043	-25.90106	-0.0002019	0.0006422	11
	17	55	5928.309	1.680795	-1.030097	1	1.971338	-31.50259	5.102183E-005	0.0007282	11
	18	57	4733.456	1.712771	-1.288483	1	2.143309	-36.9534	-0.0001818	0.0006572	11
	19	60	3796.875	1.752634	-1.596389	1	2.370693	-42.32887	-2.076983E-005	0.0006487	11
	20	62	2987.132	1.808448	-2.006919	1	2.70152	-47.97777	-0.0001954	0.0006388	11
	21	64	2390.625	1.87496	-2.474955	1	3.104976	-52.8534	3.062547E-005	0.0006348	11
	22	67	1884.191	1.969947	-3.091232	1	3.66557	-57.4919	0.0001505	0.0007531	11
	23	69	1516.544	2.081729	-3.784646	1	4.319391	-61.18718	-0.0001483	0.0007611	10
	24	71	1193.986	2.240563	-4.715219	1	5.22048	-64.58401	-0.0001188	0.0007616	10
	25	74	946.5144	2.447253	-5.826486	1	6.319571	-67.21651	-5.945388E-005	0.000638	10
	26	76	751.7689	2.701838	-7.183155	1	7.67448	-69.38695	9.399952E-005	0.000606	10
	27	78	597.4265	3.042202	-8.834046	1	9.343199	-70.9977	-7.671272E-005	0.0007327	10
	28	81	477.4305	3.475711	-10.80003	1	11.34554	-72.16057	-6.526531E-006	0.0006465	10
	29	83	376.6741	4.069651	-13.32947	1	13.93688	-73.02192	-6.492716E-006	0.0006441	10
	30	85	298.2954	4.835389	-16.36561	1	17.065	-73.53968	-7.378059E-006	0.000654	10
	31	88	237.7717	5.804317	-19.93581	1	20.76359	-73.76707	-7.265529E-006	0.0006462	10
	32	90	189.0121	7.076253	-24.28565	1	25.29558	-73.75515	-6.615076E-006	0.0006409	10
	33	92	150.2404	8.718761	-29.50178	1	30.76315	-73.53583	-6.773177E-006	0.0006474	10
	34	95	119.1737	10.84374	-35.78233	1	37.38933	-73.14071	-7.207848E-006	0.0006494	10
	35	97	95.0169	13.45313	-43.00631	1	45.0614	-72.6294	-4.507238E-006	4.916584E-005	9
	36	100	75.60484	16.75004	-51.64858	1	54.29678	-72.03172	-4.667196E-006	4.796262E-005	9
	37	102	54.50582	22.79743	-66.71143	1	70.4992	-71.13306	-4.163076E-006	-1.315722E-005	9
	38	105	45.95588	26.66034	-76.08252	1	80.61839	-70.68885	-4.450966E-006	5.50642E-005	9
	39	107	37.20238	32.18132	-89.39311	1	95.0093	-70.20124	-4.388355E-006	5.207586E-005	9
	40	109	30.04808	38.59553	-105.054	1	111.9194	-69.82729	-4.563014E-006	5.064367E-005	9
	41	112	23.91582	46.63628	-124.9083	1	133.3305	-69.52617	-4.73524E-006	5.168164E-005	9
	42	114	18.60119	57.26328	-151.4832	1	161.9452	-69.29253	-3.908509E-006	-8.684818E-006	9
	43	117	15.02404	68.27393	-178.8258	1	191.4158	-69.10364	-4.562624E-006	4.445238E-005	9
	44	119	12.01923	82.42455	-213.0661	1	228.4534	-68.85105	-4.766774E-006	4.636692E-005	9
	45	121	9.450605	102.1407	-257.8763	1	277.3678	-68.39226	-4.610211E-006	6.315963E-005	9
	46	124	7.512019	127.2546	-309.1813	1	334.3453	-67.62864	-4.465966E-006	4.530529E-005	9
	47	126	5.978954	160.8387	-369.4471	1	402.9395	-66.47411	-4.427992E-006	5.383359E-005	9
	48	129	4.734848	206.4025	-438.9119	1	485.0213	-64.81429	-4.379552E-006	0.0006134	8
	49	133	3.75601	268.6844	-517.4369	1	583.037	-62.55894	-4.133127E-006	0.0006503	8
	50	136	3.004808	347.2107	-598.1314	1	691.6042	-59.86516	-4.254191E-006	0.0006623	8
	51	140	2.372217	453.9769	-683.4425	1	820.4808	-56.40588	-4.262247E-006	0.0006292	8
	52	144	1.878005	586.6563	-762.1478	1	961.787	-52.41305	-4.135454E-006	0.0006137	8
	53	149	1.512097	728.4394	-823.923	1	1099.76	-48.51975	-4.123884E-006	0.0007182	8
	54	154	1.201923	898.1671	-867.0459	1	1248.388	-43.98996	-4.025102E-006	0.0006216	8
	55	160	0.956633	1075.474	-886.2453	1	1393.583	-39.49026	-4.456716E-006	-5.870641E-006	8
