EXPLAIN
TAG	EISPOT
TITLE	LABEL	Potentiostatic EIS	Test Identifier
DATE	LABEL	9/11/2020	Date
TIME	LABEL	15:17:18	Time
NOTES	NOTES	1	Notes...
	
PSTAT	PSTAT	REF3000-16137	Potentiostat
VDC	POTEN	0.00000E+000	T	DC Voltage (V)
FREQINIT	QUANT	3.00000E+005	Initial Freq. (Hz)
FREQFINAL	QUANT	1.00000E+000	Final Freq. (Hz)
PTSPERDEC	QUANT	1.00000E+001	Points/decade
VAC	QUANT	5.00000E+001	AC Voltage (mV rms)
AREA	QUANT	1.00000E+000	Sample Area (cm^2)
SPEED	SELECTOR	2	Optimize for:
ZGUESS	QUANT	1.00000E+003	Estimated Z (ohms)
EOC	QUANT	0	Open Circuit (V)
SEQUENCER	TOGGLE	TRUE	Run as Sequence
PSTATMODEL	IQUANT	5	Pstat Model
PSTATSECTION	LABEL	REF3000-16137	Pstat Section
PSTATSERIALNO	LABEL	16137	Pstat Serial Number
CTRLMODE	IQUANT	1	Control Mode
IESTAB	IQUANT	0	I/E Stability
CASPEED	IQUANT	1	Control Amp Speed
CONVENTION	IQUANT	1	Current Convention
ICHRANGE	IQUANT	2	Ich Range
ICHRANGEMODE	TOGGLE	F	Ich Auto Range
ICHOFFSETENABLE	TOGGLE	T	Ich Offset Enable
ICHOFFSET	QUANT	0	Ich Offset (V)
ICHFILTER	IQUANT	3	Ich Filter
VCHRANGE	IQUANT	2	Vch Range
VCHRANGEMODE	TOGGLE	F	Vch Auto Range
VCHOFFSETENABLE	TOGGLE	T	Vch Offset Enable
VCHOFFSET	QUANT	0	Vch Offset (V)
VCHFILTER	IQUANT	3	Vch Filter
ACHRANGE	IQUANT	2	Ach Range
ACHOFFSETENABLE	TOGGLE	F	Ach Offset Enable
ACHOFFSET	QUANT	0	Ach Offset (V)
ACHFILTER	IQUANT	3	Ach Filter
IERANGELOWERLIMIT	IQUANT	2	I/E Range Lower Limit
IERANGEMODE	TOGGLE	F	I/E AutoRange
IERANGE	IQUANT	11	I/E Range
POSFEEDENABLE	TOGGLE	F	Positive Feedback IR Comp
POSFEEDRESISTANCE	QUANT	0	Positive Feedback Resistance (ohm)
ACHSELECT	IQUANT	0	Ach Select
CABLEID	IQUANT	13	Cable ID
DCCALDATE	LABEL	7/31/2020	DC Calibration Date
ACCALDATE	LABEL	7/31/2020	AC Calibration Date
THERMOSELECT	IQUANT	1	Thermo Select
FRAMEWORKVERSION	QUANT	6.33	Framework Version
INSTRUMENTVERSION	LABEL	3.50	Instrument Version
COMPLIANCEVOLTAGE	IQUANT	0	Compliance Voltage
ZCURVE	TABLE
	Pt	Time	Freq	Zreal	Zimag	Zsig	Zmod	Zphz	Idc	Vdc	IERange
	#	s	Hz	ohm	ohm	V	ohm	°	A	V	#
	0	8	300046.9	9.377205	2.264329	1	9.64672	13.57543	0.0001063	0.0007614	10
	1	11	238359.4	9.387756	1.768441	1	9.55287	10.66821	0.0001824	-0.0011703	10
	2	14	189328.1	9.397721	1.384128	1	9.499104	8.37848	0.0004754	-0.0017654	10
	3	17	150421.9	9.4153	1.06681	1	9.475546	6.464386	0.0001012	0.0010854	10
	4	19	119484.4	9.4574	0.8194615	1	9.492836	4.952176	-0.0003253	0.000502	10
	5	22	94921.88	9.488187	0.6325493	1	9.50925	3.814096	6.503632E-005	-1.737929E-005	10
	6	24	75421.88	9.51782	0.447008	1	9.52831	2.688943	-1.707476E-006	0.0010929	10
	7	27	59859.37	9.55133	0.2810539	1	9.55546	1.685478	0.0002463	4.798662E-005	10
	8	29	47578.12	9.5914	0.1405738	1	9.59243	0.8396804	0.0001822	0.0004198	10
	9	32	37828.12	9.62959	0.009703	1	9.62959	0.0577328	0.0001229	-4.933973E-005	10
	10	34	30046.88	9.67033	-0.1165821	1	9.67103	-0.6907048	7.640559E-006	0.0011118	10
	11	37	23859.38	9.71123	-0.2430165	1	9.71427	-1.433486	-0.0001946	0.0008665	10
	12	39	18984.38	9.75515	-0.3869372	1	9.76282	-2.271441	-0.0002462	0.0013827	10
	13	41	15046.87	9.80126	-0.5399079	1	9.81612	-3.152983	-0.000179	0.0008298	10
	14	44	11953.13	9.84136	-0.7250938	1	9.86804	-4.213837	0.0001125	0.0006219	10
	15	46	9515.62	9.9034	-0.9346572	1	9.94741	-5.391458	-0.0001478	0.001345	10
	16	48	7546.875	9.96271	-1.198114	1	10.0345	-6.85745	-0.0001973	0.0014392	10
	17	51	5928.309	10.04097	-1.519899	1	10.15535	-8.607503	-8.441135E-005	0.0013156	10
	18	53	4733.456	10.11452	-1.894472	1	10.29041	-10.60871	-0.0001887	0.0013774	10
	19	55	3796.875	10.20142	-2.330051	1	10.46413	-12.86592	0.0001263	0.0006495	10
	20	58	2987.132	10.32249	-2.924409	1	10.72875	-15.81767	-7.484656E-005	0.0012679	10
	21	60	2390.625	10.45026	-3.592494	1	11.05052	-18.97148	-0.0001367	0.0006139	10
	22	62	1884.191	10.62071	-4.475328	1	11.5251	-22.84946	-0.0002166	0.0013461	10
	23	65	1516.544	10.79784	-5.466107	1	12.10254	-26.84956	-0.0001499	0.0014038	10
	24	67	1193.986	11.02799	-6.785151	1	12.94816	-31.60258	0.0001761	-7.865763E-005	10
	25	69	946.5144	11.28918	-8.35831	1	14.0466	-36.51559	0.0001253	0.000653	10
	26	72	751.7689	11.59028	-10.29871	1	15.50477	-41.62314	-0.0001813	0.0013906	10
	27	74	597.4265	11.95631	-12.68619	1	17.43252	-46.69652	-7.96938E-005	0.0013154	10
	28	76	477.4305	12.38399	-15.55242	1	19.88067	-51.4706	-3.004321E-006	0.000652	10
	29	79	376.6741	12.91355	-19.31636	1	23.23536	-56.23611	-3.14585E-006	0.0006468	10
	30	81	298.2954	13.55659	-23.93463	1	27.50723	-60.47276	-3.422737E-006	0.0006507	10
	31	83	237.7717	14.34122	-29.50029	1	32.80148	-64.07384	-3.49039E-006	0.0006531	10
	32	86	189.0121	15.34175	-36.45914	1	39.5555	-67.17899	-3.406106E-006	0.000651	10
	33	88	150.2404	16.60144	-45.00201	1	47.96654	-69.75076	4.02926E-007	4.476491E-005	9
	34	90	119.1737	18.26062	-55.70875	1	58.62521	-71.85151	4.464068E-007	4.859958E-005	9
	35	93	95.0169	20.34716	-68.59165	1	71.54594	-73.47743	3.799263E-007	5.102424E-005	9
	36	95	75.60484	23.06197	-84.55659	1	87.64514	-74.74419	3.809074E-007	4.309564E-005	9
	37	98	54.50582	28.3651	-113.9019	1	117.3806	-76.01601	4.206304E-007	4.096287E-005	9
	38	100	45.95588	32.03459	-132.974	1	136.7783	-76.45506	2.024842E-007	5.433772E-005	9
	39	103	37.20238	37.63102	-160.903	1	165.2448	-76.8366	2.1391E-007	5.815001E-005	9
	40	105	30.04808	44.83821	-194.8989	1	199.9902	-77.04404	4.679584E-007	4.833253E-005	9
	41	107	23.91582	54.83746	-238.9544	1	245.166	-77.07504	2.382617E-007	5.188475E-005	9
	42	110	18.60119	69.2333	-298.3901	1	306.3167	-76.93721	7.818097E-007	4.912673E-005	9
	43	112	15.02404	85.32954	-360.0273	1	370.0011	-76.66644	4.11071E-007	4.719978E-005	9
	44	114	12.01923	106.2945	-434.9899	1	447.7887	-76.26825	2.959228E-007	0.0006267	8
	45	117	9.450605	136.487	-534.3652	1	551.5205	-75.67191	4.243207E-007	0.000637	8
	46	119	7.512019	173.5679	-648.4391	1	671.2668	-75.01491	2.064706E-007	0.0006388	8
	47	122	5.978954	220.0939	-782.5374	1	812.8998	-74.29101	2.084438E-007	0.0006329	8
	48	125	4.734848	280.58	-945.2534	1	986.017	-73.46751	2.714704E-007	0.0006122	8
	49	128	3.75601	353.6294	-1135.578	1	1189.366	-72.70293	3.785551E-007	0.000638	8
	50	132	3.004808	437.5594	-1350.137	1	1419.271	-72.04327	3.664869E-007	0.0006167	8
	51	135	2.372217	545.1934	-1616.65	1	1706.105	-71.36402	3.17093E-007	0.000575	8
	52	140	1.878005	665.546	-1934.308	1	2045.605	-71.01297	4.113911E-007	0.0005642	8
	53	144	1.512097	789.1737	-2278.714	1	2411.5	-70.8978	3.222672E-007	0.000686	8
	54	150	1.201923	944.921	-2719.686	1	2879.16	-70.84085	3.570083E-007	0.0006371	8
	55	156	0.956633	1112.711	-3244.183	1	3429.701	-71.06872	2.967718E-007	-5.749842E-006	8
