EXPLAIN
TAG	EISPOT
TITLE	LABEL	Potentiostatic EIS	Test Identifier
DATE	LABEL	9/11/2020	Date
TIME	LABEL	15:03:20	Time
NOTES	NOTES	1	Notes...
	
PSTAT	PSTAT	REF3000-16137	Potentiostat
VDC	POTEN	0.00000E+000	T	DC Voltage (V)
FREQINIT	QUANT	3.00000E+005	Initial Freq. (Hz)
FREQFINAL	QUANT	1.00000E+000	Final Freq. (Hz)
PTSPERDEC	QUANT	1.00000E+001	Points/decade
VAC	QUANT	5.00000E+001	AC Voltage (mV rms)
AREA	QUANT	1.00000E+000	Sample Area (cm^2)
SPEED	SELECTOR	2	Optimize for:
ZGUESS	QUANT	1.00000E+003	Estimated Z (ohms)
EOC	QUANT	0	Open Circuit (V)
SEQUENCER	TOGGLE	TRUE	Run as Sequence
PSTATMODEL	IQUANT	5	Pstat Model
PSTATSECTION	LABEL	REF3000-16137	Pstat Section
PSTATSERIALNO	LABEL	16137	Pstat Serial Number
CTRLMODE	IQUANT	1	Control Mode
IESTAB	IQUANT	0	I/E Stability
CASPEED	IQUANT	1	Control Amp Speed
CONVENTION	IQUANT	1	Current Convention
ICHRANGE	IQUANT	2	Ich Range
ICHRANGEMODE	TOGGLE	F	Ich Auto Range
ICHOFFSETENABLE	TOGGLE	T	Ich Offset Enable
ICHOFFSET	QUANT	0	Ich Offset (V)
ICHFILTER	IQUANT	3	Ich Filter
VCHRANGE	IQUANT	2	Vch Range
VCHRANGEMODE	TOGGLE	F	Vch Auto Range
VCHOFFSETENABLE	TOGGLE	T	Vch Offset Enable
VCHOFFSET	QUANT	0	Vch Offset (V)
VCHFILTER	IQUANT	3	Vch Filter
ACHRANGE	IQUANT	2	Ach Range
ACHOFFSETENABLE	TOGGLE	F	Ach Offset Enable
ACHOFFSET	QUANT	0	Ach Offset (V)
ACHFILTER	IQUANT	3	Ach Filter
IERANGELOWERLIMIT	IQUANT	2	I/E Range Lower Limit
IERANGEMODE	TOGGLE	F	I/E AutoRange
IERANGE	IQUANT	11	I/E Range
POSFEEDENABLE	TOGGLE	F	Positive Feedback IR Comp
POSFEEDRESISTANCE	QUANT	0	Positive Feedback Resistance (ohm)
ACHSELECT	IQUANT	0	Ach Select
CABLEID	IQUANT	13	Cable ID
DCCALDATE	LABEL	7/31/2020	DC Calibration Date
ACCALDATE	LABEL	7/31/2020	AC Calibration Date
THERMOSELECT	IQUANT	1	Thermo Select
FRAMEWORKVERSION	QUANT	6.33	Framework Version
INSTRUMENTVERSION	LABEL	3.50	Instrument Version
COMPLIANCEVOLTAGE	IQUANT	0	Compliance Voltage
ZCURVE	TABLE
	Pt	Time	Freq	Zreal	Zimag	Zsig	Zmod	Zphz	Idc	Vdc	IERange
	#	s	Hz	ohm	ohm	V	ohm	°	A	V	#
	0	10	300046.9	3.951069	2.309586	1	4.576585	30.3083	-0.0004648	0.0008665	10
	1	13	238359.4	3.92839	1.80862	1	4.324737	24.72121	-9.369608E-005	-0.0004644	10
	2	16	189328.1	3.912135	1.421044	1	4.162231	19.96305	0.0001747	-1.139735E-005	10
	3	18	150421.9	3.900906	1.109952	1	4.055745	15.88301	-0.000257	0.0003659	10
	4	21	119484.4	3.908972	0.8542204	1	4.001219	12.32696	-4.882906E-006	0.0006911	10
	5	23	94921.88	3.913609	0.6558115	1	3.968176	9.51279	-0.0001356	0.0006652	10
	6	26	75421.88	3.91851	0.4745386	1	3.94714	6.904996	0.0001825	0.0001909	10
	7	29	59859.37	3.92679	0.3182263	1	3.939663	4.633114	0.0001706	0.0002937	10
	8	31	47578.12	3.936056	0.1800799	1	3.940173	2.619532	0.0001063	0.0002198	10
	9	34	37828.12	3.948248	0.0545077	1	3.948624	0.7909495	5.580516E-005	0.0003184	10
	10	36	30046.88	3.962352	-0.068354	1	3.962941	-0.988304	0.0001108	0.000267	10
	11	39	23859.38	3.979109	-0.1921559	1	3.983746	-2.764733	3.31355E-005	0.0006831	10
	12	41	18984.38	3.997473	-0.3226925	1	4.010477	-4.615144	0.0001611	0.000246	10
	13	43	15046.87	4.018268	-0.4679979	1	4.04543	-6.64317	0.0001012	0.0003157	10
	14	45	11953.13	4.044564	-0.6313654	1	4.093546	-8.872393	-0.0001219	0.0009682	10
	15	48	9515.62	4.075704	-0.8220717	1	4.157784	-11.40359	0.0001005	0.0003146	10
	16	50	7546.875	4.113483	-1.050305	1	4.245454	-14.32342	5.156546E-006	0.0004561	10
	17	52	5928.309	4.16117	-1.337718	1	4.370907	-17.82137	9.486723E-005	0.0005863	10
	18	55	4733.456	4.216127	-1.664037	1	4.532631	-21.53834	0.000169	0.0002789	10
	19	57	3796.875	4.280323	-2.04813	1	4.745102	-25.57107	0.0001766	0.0003115	10
	20	59	2987.132	4.360636	-2.555327	1	5.054191	-30.37025	0.0001588	0.0002924	10
	21	62	2390.625	4.447516	-3.138449	1	5.443369	-35.20922	-0.0001698	0.0008948	10
	22	64	1884.191	4.55641	-3.904363	1	6.000411	-40.59309	9.425945E-005	0.0005954	10
	23	66	1516.544	4.678279	-4.76139	1	6.675113	-45.50444	-7.779928E-005	0.0009495	10
	24	69	1193.986	4.838326	-5.931426	1	7.65449	-50.79551	-0.0001682	0.0010138	10
	25	71	946.5144	5.026061	-7.343852	1	8.899071	-55.61264	0.000157	0.0003669	10
	26	73	751.7689	5.262908	-9.087723	1	10.50166	-59.92389	0.0001011	0.0003143	10
	27	76	597.4265	5.552469	-11.24212	1	12.53855	-63.7153	-0.0001676	0.0009078	10
	28	78	477.4305	5.921577	-13.83297	1	15.04713	-66.82534	-2.524282E-006	0.0006514	10
	29	80	376.6741	6.423782	-17.21973	1	18.3789	-69.54208	-2.827237E-006	0.0006531	10
	30	83	298.2954	7.067221	-21.35126	1	22.49049	-71.68557	-3.461796E-006	0.0006593	10
	31	85	237.7717	7.876443	-26.29555	1	27.44985	-73.32519	-2.235834E-006	0.0006478	10
	32	87	189.0121	8.942307	-32.44422	1	33.65401	-74.59068	-2.612901E-006	0.0006534	10
	33	90	150.2404	10.32109	-39.98849	1	41.29896	-75.52773	-2.120961E-006	0.0005899	10
	34	92	119.1737	12.11591	-49.26371	1	50.73174	-76.18291	1.035657E-007	5.692954E-005	9
	35	95	95.0169	14.40864	-60.41318	1	62.10765	-76.58547	1.047169E-007	5.046053E-005	9
	36	97	75.60484	17.41626	-74.12993	1	76.14835	-76.77858	8.686752E-008	4.761923E-005	9
	37	100	54.50582	23.37036	-99.0715	1	101.7907	-76.72693	-5.325924E-008	4.29845E-005	9
	38	102	45.95588	27.50118	-115.1022	1	118.342	-76.56234	1.920146E-007	5.083032E-005	9
	39	104	37.20238	33.87984	-138.3468	1	142.4348	-76.2396	2.809944E-007	5.656802E-005	9
	40	107	30.04808	42.12731	-166.2718	1	171.5256	-75.78249	1.250169E-007	5.637322E-005	9
	41	109	23.91582	53.32597	-201.6823	1	208.6131	-75.18959	-6.733669E-008	6.314994E-005	9
	42	112	18.60119	69.3275	-248.4845	1	257.9745	-74.41083	4.837129E-007	4.963497E-005	9
	43	114	15.02404	86.61279	-295.5479	1	307.9778	-73.66634	2.421011E-007	5.128823E-005	9
	44	116	12.01923	108.575	-353.1066	1	369.4222	-72.90811	5.257792E-009	6.074113E-005	9
	45	119	9.450605	136.7756	-424.1338	1	445.6422	-72.12641	2.949365E-007	0.0005884	8
	46	121	7.512019	169.6005	-505.6622	1	533.3466	-71.4584	1.442231E-007	0.000634	8
	47	124	5.978954	206.856	-601.0081	1	635.61	-71.00748	1.76817E-007	0.0006391	8
	48	127	4.734848	250.8216	-716.7821	1	759.3998	-70.71367	1.97218E-007	0.0006059	8
	49	130	3.75601	300.2527	-854.5065	1	905.7224	-70.63977	3.023146E-007	0.0006543	8
	50	133	3.004808	353.4523	-1013.885	1	1073.727	-70.78083	2.508503E-007	0.0006354	8
	51	137	2.372217	419.2309	-1218.215	1	1288.333	-71.00985	1.922564E-007	0.0005944	8
	52	141	1.878005	493.2034	-1471.776	1	1552.216	-71.4736	2.575958E-007	0.0006204	8
	53	146	1.512097	571.6921	-1757.013	1	1847.682	-71.9763	2.192456E-007	0.0007107	8
	54	151	1.201923	679.7645	-2130.215	1	2236.045	-72.3018	2.600774E-007	0.0006328	8
	55	158	0.956633	812.6919	-2583.621	1	2708.425	-72.53875	1.743042E-007	-5.300804E-006	8
