EXPLAIN
TAG	EISPOT
TITLE	LABEL	Potentiostatic EIS	Test Identifier
DATE	LABEL	9/11/2020	Date
TIME	LABEL	15:06:08	Time
NOTES	NOTES	1	Notes...
	
PSTAT	PSTAT	REF3000-16137	Potentiostat
VDC	POTEN	0.00000E+000	T	DC Voltage (V)
FREQINIT	QUANT	3.00000E+005	Initial Freq. (Hz)
FREQFINAL	QUANT	1.00000E+000	Final Freq. (Hz)
PTSPERDEC	QUANT	1.00000E+001	Points/decade
VAC	QUANT	5.00000E+001	AC Voltage (mV rms)
AREA	QUANT	1.00000E+000	Sample Area (cm^2)
SPEED	SELECTOR	2	Optimize for:
ZGUESS	QUANT	1.00000E+003	Estimated Z (ohms)
EOC	QUANT	0	Open Circuit (V)
SEQUENCER	TOGGLE	TRUE	Run as Sequence
PSTATMODEL	IQUANT	5	Pstat Model
PSTATSECTION	LABEL	REF3000-16137	Pstat Section
PSTATSERIALNO	LABEL	16137	Pstat Serial Number
CTRLMODE	IQUANT	1	Control Mode
IESTAB	IQUANT	0	I/E Stability
CASPEED	IQUANT	1	Control Amp Speed
CONVENTION	IQUANT	1	Current Convention
ICHRANGE	IQUANT	2	Ich Range
ICHRANGEMODE	TOGGLE	F	Ich Auto Range
ICHOFFSETENABLE	TOGGLE	T	Ich Offset Enable
ICHOFFSET	QUANT	0	Ich Offset (V)
ICHFILTER	IQUANT	3	Ich Filter
VCHRANGE	IQUANT	2	Vch Range
VCHRANGEMODE	TOGGLE	F	Vch Auto Range
VCHOFFSETENABLE	TOGGLE	T	Vch Offset Enable
VCHOFFSET	QUANT	0	Vch Offset (V)
VCHFILTER	IQUANT	3	Vch Filter
ACHRANGE	IQUANT	2	Ach Range
ACHOFFSETENABLE	TOGGLE	F	Ach Offset Enable
ACHOFFSET	QUANT	0	Ach Offset (V)
ACHFILTER	IQUANT	3	Ach Filter
IERANGELOWERLIMIT	IQUANT	2	I/E Range Lower Limit
IERANGEMODE	TOGGLE	F	I/E AutoRange
IERANGE	IQUANT	11	I/E Range
POSFEEDENABLE	TOGGLE	F	Positive Feedback IR Comp
POSFEEDRESISTANCE	QUANT	0	Positive Feedback Resistance (ohm)
ACHSELECT	IQUANT	0	Ach Select
CABLEID	IQUANT	13	Cable ID
DCCALDATE	LABEL	7/31/2020	DC Calibration Date
ACCALDATE	LABEL	7/31/2020	AC Calibration Date
THERMOSELECT	IQUANT	1	Thermo Select
FRAMEWORKVERSION	QUANT	6.33	Framework Version
INSTRUMENTVERSION	LABEL	3.50	Instrument Version
COMPLIANCEVOLTAGE	IQUANT	0	Compliance Voltage
ZCURVE	TABLE
	Pt	Time	Freq	Zreal	Zimag	Zsig	Zmod	Zphz	Idc	Vdc	IERange
	#	s	Hz	ohm	ohm	V	ohm	°	A	V	#
	0	10	300046.9	4.526459	2.29832	1	5.076525	26.91928	-2.402026E-005	0.0004577	10
	1	13	238359.4	4.520097	1.807073	1	4.867935	21.79086	-0.0002494	-0.0001049	10
	2	16	189328.1	4.508563	1.419497	1	4.726745	17.47633	-0.0002852	0.0002933	10
	3	19	150421.9	4.509472	1.0958	1	4.640702	13.65813	0.0002022	-0.0005931	10
	4	21	119484.4	4.503373	0.8480712	1	4.582531	10.66499	0.0003733	-0.0003034	10
	5	24	94921.88	4.514946	0.6547286	1	4.562171	8.251151	6.627106E-005	0.0001423	10
	6	27	75421.88	4.521116	0.471878	1	4.545674	5.958503	0.0001459	0.0002766	10
	7	29	59859.37	4.532892	0.3151229	1	4.543832	3.976758	0.0001064	0.0005034	10
	8	32	47578.12	4.544741	0.1767755	1	4.548177	2.227495	-0.0001251	0.0009084	10
	9	34	37828.12	4.559421	0.0480139	1	4.559673	0.6033427	-4.894458E-005	0.0005059	10
	10	37	30046.88	4.575436	-0.07644	1	4.576075	-0.957129	0.0001787	0.0002149	10
	11	39	23859.38	4.594985	-0.2009138	1	4.599376	-2.503639	9.486021E-005	0.0005451	10
	12	41	18984.38	4.61618	-0.3315927	1	4.628074	-4.108654	-0.0001272	0.0010154	10
	13	44	15046.87	4.640716	-0.4800386	1	4.665477	-5.905708	-5.162403E-005	0.0005567	10
	14	46	11953.13	4.667305	-0.647802	1	4.712047	-7.901925	0.0001104	0.00059	10
	15	48	9515.62	4.700966	-0.8407741	1	4.775561	-10.14021	-0.0001654	0.0010696	10
	16	51	7546.875	4.741004	-1.075284	1	4.861415	-12.77879	-2.096714E-005	0.0008562	10
	17	53	5928.309	4.790791	-1.371367	1	4.983204	-15.9738	-0.0001146	0.0010304	10
	18	55	4733.456	4.84665	-1.704028	1	5.137483	-19.3711	-6.464562E-005	0.0009595	10
	19	58	3796.875	4.915899	-2.098824	1	5.345196	-23.11987	-0.0001755	0.0009634	10
	20	60	2987.132	5.003639	-2.621068	1	5.648575	-27.647	-0.0001491	0.0008435	10
	21	62	2390.625	5.099101	-3.215982	1	6.028546	-32.23946	0.0001688	0.0001777	10
	22	64	1884.191	5.21324	-3.99349	1	6.567026	-37.45314	-4.95172E-005	0.000543	10
	23	67	1516.544	5.345174	-4.8749	1	7.23433	-42.36541	-6.84969E-005	0.0009677	10
	24	69	1193.986	5.511748	-6.06566	1	8.195828	-47.73919	-0.0001705	0.0009627	10
	25	72	946.5144	5.707382	-7.510157	1	9.432744	-52.7668	5.162214E-005	0.0007642	10
	26	74	751.7689	5.937713	-9.285603	1	11.02174	-57.40297	-0.0001736	0.0009618	10
	27	76	597.4265	6.243851	-11.4721	1	13.0612	-61.44215	-0.0001692	0.0009537	10
	28	79	477.4305	6.613157	-14.11959	1	15.59155	-64.90313	-2.52515E-006	0.0006568	10
	29	82	376.6741	7.110324	-17.57872	1	18.96228	-67.97742	-2.697917E-006	0.0006515	10
	30	84	298.2954	7.744745	-21.80468	1	23.13926	-70.44561	-3.277786E-006	0.0006566	10
	31	86	237.7717	8.543796	-26.86673	1	28.19251	-72.35899	-3.36018E-006	0.000654	10
	32	89	189.0121	9.59037	-33.1719	1	34.53043	-73.87482	-2.520231E-006	0.0006431	10
	33	91	150.2404	10.94561	-40.91298	1	42.35184	-75.0222	-2.873439E-006	0.000646	10
	34	94	119.1737	12.70557	-50.45005	1	52.02537	-75.86433	3.736616E-007	4.699791E-005	9
	35	96	95.0169	14.95302	-61.9262	1	63.70595	-76.42492	3.091183E-007	4.98409E-005	9
	36	99	75.60484	17.89522	-76.06467	1	78.14137	-76.76115	1.340493E-007	5.801705E-005	9
	37	101	54.50582	23.71094	-101.8459	1	104.5695	-76.89431	4.566034E-008	5.559144E-005	9
	38	104	45.95588	27.73602	-118.4638	1	121.6674	-76.82265	3.395833E-007	6.136109E-005	9
	39	106	37.20238	33.96793	-142.6005	1	146.5903	-76.60163	5.278933E-008	6.333577E-005	9
	40	108	30.04808	42.07013	-171.7975	1	176.8736	-76.24007	4.794023E-008	5.91655E-005	9
	41	111	23.91582	53.09093	-208.8965	1	215.5374	-75.74021	3.795016E-007	4.580641E-005	9
	42	113	18.60119	68.97823	-258.159	1	267.2154	-75.04044	1.247567E-007	6.275966E-005	9
	43	115	15.02404	86.19679	-308.0927	1	319.9234	-74.36968	5.236668E-007	5.438738E-005	9
	44	118	12.01923	108.7367	-369.1886	1	384.8687	-73.58878	3.767512E-007	5.89836E-005	9
	45	120	9.450605	138.2114	-444.861	1	465.8365	-72.74078	4.230995E-007	0.0006382	8
	46	123	7.512019	172.29	-531.7435	1	558.9589	-72.04718	3.772114E-007	0.000646	8
	47	125	5.978954	212.7778	-633.3109	1	668.0996	-71.42885	2.662626E-007	0.000632	8
	48	128	4.734848	260.4063	-756.1888	1	799.7706	-70.99799	3.77221E-007	0.0006487	8
	49	132	3.75601	314.6458	-900.5917	1	953.975	-70.74178	2.317151E-007	0.0006246	8
	50	135	3.004808	373.3858	-1066.682	1	1130.145	-70.70771	3.231416E-007	0.0006078	8
	51	139	2.372217	442.8061	-1279.061	1	1353.542	-70.90434	2.939195E-007	0.0005893	8
	52	143	1.878005	523.3516	-1537.219	1	1623.865	-71.19868	2.77141E-007	0.0006384	8
	53	148	1.512097	608.1308	-1829.568	1	1927.989	-71.61369	2.690028E-007	0.0005228	8
	54	153	1.201923	712.4496	-2210.923	1	2322.879	-72.13895	2.733746E-007	0.0006517	8
	55	159	0.956633	839.408	-2677.4	1	2805.9	-72.59295	2.471971E-007	-1.510195E-005	8
