EXPLAIN
TAG	EISPOT
TITLE	LABEL	Potentiostatic EIS	Test Identifier
DATE	LABEL	9/11/2020	Date
TIME	LABEL	15:31:07	Time
NOTES	NOTES	1	Notes...
	
PSTAT	PSTAT	REF3000-16137	Potentiostat
VDC	POTEN	0.00000E+000	T	DC Voltage (V)
FREQINIT	QUANT	3.00000E+005	Initial Freq. (Hz)
FREQFINAL	QUANT	1.00000E+000	Final Freq. (Hz)
PTSPERDEC	QUANT	1.00000E+001	Points/decade
VAC	QUANT	5.00000E+001	AC Voltage (mV rms)
AREA	QUANT	1.00000E+000	Sample Area (cm^2)
SPEED	SELECTOR	2	Optimize for:
ZGUESS	QUANT	1.00000E+003	Estimated Z (ohms)
EOC	QUANT	0	Open Circuit (V)
SEQUENCER	TOGGLE	TRUE	Run as Sequence
PSTATMODEL	IQUANT	5	Pstat Model
PSTATSECTION	LABEL	REF3000-16137	Pstat Section
PSTATSERIALNO	LABEL	16137	Pstat Serial Number
CTRLMODE	IQUANT	1	Control Mode
IESTAB	IQUANT	0	I/E Stability
CASPEED	IQUANT	1	Control Amp Speed
CONVENTION	IQUANT	1	Current Convention
ICHRANGE	IQUANT	2	Ich Range
ICHRANGEMODE	TOGGLE	F	Ich Auto Range
ICHOFFSETENABLE	TOGGLE	T	Ich Offset Enable
ICHOFFSET	QUANT	0	Ich Offset (V)
ICHFILTER	IQUANT	3	Ich Filter
VCHRANGE	IQUANT	2	Vch Range
VCHRANGEMODE	TOGGLE	F	Vch Auto Range
VCHOFFSETENABLE	TOGGLE	T	Vch Offset Enable
VCHOFFSET	QUANT	0	Vch Offset (V)
VCHFILTER	IQUANT	3	Vch Filter
ACHRANGE	IQUANT	2	Ach Range
ACHOFFSETENABLE	TOGGLE	F	Ach Offset Enable
ACHOFFSET	QUANT	0	Ach Offset (V)
ACHFILTER	IQUANT	3	Ach Filter
IERANGELOWERLIMIT	IQUANT	2	I/E Range Lower Limit
IERANGEMODE	TOGGLE	F	I/E AutoRange
IERANGE	IQUANT	11	I/E Range
POSFEEDENABLE	TOGGLE	F	Positive Feedback IR Comp
POSFEEDRESISTANCE	QUANT	0	Positive Feedback Resistance (ohm)
ACHSELECT	IQUANT	0	Ach Select
CABLEID	IQUANT	13	Cable ID
DCCALDATE	LABEL	7/31/2020	DC Calibration Date
ACCALDATE	LABEL	7/31/2020	AC Calibration Date
THERMOSELECT	IQUANT	1	Thermo Select
FRAMEWORKVERSION	QUANT	6.33	Framework Version
INSTRUMENTVERSION	LABEL	3.50	Instrument Version
COMPLIANCEVOLTAGE	IQUANT	0	Compliance Voltage
ZCURVE	TABLE
	Pt	Time	Freq	Zreal	Zimag	Zsig	Zmod	Zphz	Idc	Vdc	IERange
	#	s	Hz	ohm	ohm	V	ohm	°	A	V	#
	0	7	300046.9	37.1851	1.999848	1	37.23884	3.078453	3.912528E-006	-0.0014507	9
	1	10	238359.4	37.36916	1.597947	1	37.40331	2.44854	5.111775E-005	-0.0021799	9
	2	13	189328.1	37.59538	1.174815	1	37.61373	1.789849	5.840363E-007	-0.0011506	9
	3	16	150421.9	37.85611	0.967114	1	37.86846	1.463423	5.161217E-005	-0.0018757	9
	4	18	119484.4	38.03087	0.6660936	1	38.0367	1.003407	1.525537E-005	0.0001747	9
	5	21	94921.88	38.28619	0.598474	1	38.29087	0.8955511	-9.675814E-006	0.0004576	9
	6	23	75421.88	38.47722	0.4020565	1	38.47932	0.5986738	1.141934E-005	-4.637229E-005	9
	7	26	59859.37	38.67913	0.2232581	1	38.67977	0.3307109	1.898545E-005	-0.0005049	9
	8	28	47578.12	38.89049	0.073591	1	38.89056	0.1084184	-1.281177E-005	0.0003274	9
	9	31	37828.12	39.10316	-0.0728892	1	39.10323	-0.1068005	8.52321E-006	-0.0004565	9
	10	34	30046.88	39.32745	-0.2191845	1	39.32806	-0.3193245	-7.40725E-006	3.6966E-005	9
	11	36	23859.38	39.54727	-0.3690325	1	39.54899	-0.5346358	8.282336E-006	-0.0004289	9
	12	38	18984.38	39.76322	-0.5157513	1	39.76656	-0.7431168	-3.599899E-006	-0.0001227	9
	13	41	15046.87	39.97521	-0.7057675	1	39.98144	-1.011459	4.593574E-006	0.00025	9
	14	43	11953.13	40.18498	-0.8783685	1	40.19458	-1.252179	-9.825177E-006	0.0001948	9
	15	45	9515.62	40.41948	-1.130126	1	40.43528	-1.601569	1.363034E-005	-0.0005069	9
	16	48	7546.875	40.6311	-1.435377	1	40.65644	-2.02325	-8.492158E-006	7.442644E-005	9
	17	50	5928.309	40.89467	-1.800126	1	40.93427	-2.520453	1.872953E-005	-0.0004615	9
	18	52	4733.456	41.14359	-2.214756	1	41.20316	-3.081252	1.749878E-005	-0.0002424	9
	19	55	3796.875	41.39412	-2.740458	1	41.48474	-3.787684	1.66751E-005	-0.0004941	9
	20	57	2987.132	41.69458	-3.421324	1	41.83471	-4.691	-1.156659E-005	0.0001805	9
	21	59	2390.625	41.9801	-4.214991	1	42.19117	-5.733538	-2.117748E-006	0.0004537	9
	22	62	1884.191	42.33833	-5.240422	1	42.66141	-7.055892	-8.406224E-006	5.587219E-005	9
	23	64	1516.544	42.69829	-6.434194	1	43.18036	-8.56941	9.835728E-006	5.417691E-005	9
	24	66	1193.986	43.10309	-8.027691	1	43.84427	-10.55012	-1.481395E-005	0.0005603	9
	25	69	946.5144	43.58219	-9.93012	1	44.69916	-12.83561	-1.419512E-005	0.0004962	9
	26	71	751.7689	44.14172	-12.29461	1	45.82193	-15.56389	-1.187473E-005	0.0001901	9
	27	73	597.4265	44.78071	-15.1717	1	47.281	-18.71638	1.863705E-005	-0.0004614	9
	28	76	477.4305	45.53149	-18.60998	1	49.18789	-22.2312	1.272886E-006	4.85321E-005	9
	29	78	376.6741	46.44817	-23.06739	1	51.86075	-26.41022	1.375044E-006	4.111038E-005	9
	30	80	298.2954	47.51403	-28.46795	1	55.3896	-30.92786	1.365494E-006	4.637078E-005	9
	31	83	237.7717	48.74065	-34.90899	1	59.95238	-35.61097	1.343631E-006	4.786585E-005	9
	32	85	189.0121	50.175	-42.91094	1	66.02181	-40.53791	9.725384E-007	0.0001032	9
	33	87	150.2404	51.84315	-52.76825	1	73.97433	-45.50666	1.30311E-006	4.712823E-005	9
	34	90	119.1737	53.81181	-65.0683	1	84.43693	-50.40908	1.346435E-006	4.857991E-005	9
	35	92	95.0169	56.10142	-79.94115	1	97.6625	-54.93944	1.299661E-006	4.318384E-005	9
	36	95	75.60484	58.8939	-98.4972	1	114.7615	-59.12376	1.317786E-006	4.328339E-005	9
	37	97	54.50582	63.93408	-132.9521	1	147.5257	-64.31799	1.301907E-006	4.119747E-005	9
	38	100	45.95588	67.40251	-155.562	1	169.5365	-66.57369	1.391996E-006	4.451751E-005	9
	39	102	37.20238	72.55586	-188.9267	1	202.3799	-68.99109	1.429142E-006	3.93027E-005	9
	40	104	30.04808	79.08091	-229.8924	1	243.1138	-71.01724	1.266852E-006	4.836528E-005	9
	41	107	23.91582	87.92885	-283.4512	1	296.7761	-72.76569	1.331038E-006	3.833826E-005	9
	42	109	18.60119	100.5076	-356.7123	1	370.6015	-74.26424	1.264895E-006	4.100193E-005	9
	43	111	15.02404	113.8408	-431.4131	1	446.1805	-75.2178	3.415577E-007	0.0006243	8
	44	114	12.01923	132.2617	-528.1971	1	544.5047	-75.94207	4.55506E-007	0.0006235	8
	45	116	9.450605	157.8124	-656.319	1	675.0255	-76.47985	4.566132E-007	0.0006134	8
	46	119	7.512019	189.7279	-806.7153	1	828.7257	-76.76537	4.727845E-007	0.0006263	8
	47	121	5.978954	230.1202	-988.607	1	1015.037	-76.89647	4.809316E-007	0.0006183	8
	48	124	4.734848	284.6247	-1216.351	1	1249.208	-76.82983	4.511922E-007	0.0006402	8
	49	128	3.75601	354.2351	-1491.663	1	1533.148	-76.64105	4.28318E-007	0.0006173	8
	50	131	3.004808	440.7623	-1811.261	1	1864.119	-76.32316	3.755496E-007	0.0006552	8
	51	135	2.372217	562.1021	-2221.681	1	2291.686	-75.80169	4.305781E-007	0.0006929	8
	52	139	1.878005	712.5117	-2710.885	1	2802.958	-75.27382	3.819356E-007	0.0006031	8
	53	144	1.512097	891.8878	-3244.025	1	3364.397	-74.62735	4.247833E-007	0.0006503	8
	54	149	1.201923	1132.379	-3932.093	1	4091.899	-73.93446	4.121231E-007	0.0005919	8
	55	155	0.956633	1431.371	-4743.984	1	4955.221	-73.21021	9.538694E-009	-4.688747E-005	7
