EXPLAIN
TAG	EISPOT
TITLE	LABEL	Potentiostatic EIS	Test Identifier
DATE	LABEL	9/11/2020	Date
TIME	LABEL	14:29:16	Time
NOTES	NOTES	1	Notes...
	
PSTAT	PSTAT	REF3000-16137	Potentiostat
VDC	POTEN	0.00000E+000	T	DC Voltage (V)
FREQINIT	QUANT	3.00000E+005	Initial Freq. (Hz)
FREQFINAL	QUANT	1.00000E+000	Final Freq. (Hz)
PTSPERDEC	QUANT	1.00000E+001	Points/decade
VAC	QUANT	5.00000E+001	AC Voltage (mV rms)
AREA	QUANT	1.00000E+000	Sample Area (cm^2)
SPEED	SELECTOR	2	Optimize for:
ZGUESS	QUANT	1.00000E+003	Estimated Z (ohms)
EOC	QUANT	0	Open Circuit (V)
SEQUENCER	TOGGLE	TRUE	Run as Sequence
PSTATMODEL	IQUANT	5	Pstat Model
PSTATSECTION	LABEL	REF3000-16137	Pstat Section
PSTATSERIALNO	LABEL	16137	Pstat Serial Number
CTRLMODE	IQUANT	1	Control Mode
IESTAB	IQUANT	0	I/E Stability
CASPEED	IQUANT	1	Control Amp Speed
CONVENTION	IQUANT	1	Current Convention
ICHRANGE	IQUANT	2	Ich Range
ICHRANGEMODE	TOGGLE	F	Ich Auto Range
ICHOFFSETENABLE	TOGGLE	T	Ich Offset Enable
ICHOFFSET	QUANT	0	Ich Offset (V)
ICHFILTER	IQUANT	3	Ich Filter
VCHRANGE	IQUANT	2	Vch Range
VCHRANGEMODE	TOGGLE	F	Vch Auto Range
VCHOFFSETENABLE	TOGGLE	T	Vch Offset Enable
VCHOFFSET	QUANT	0	Vch Offset (V)
VCHFILTER	IQUANT	3	Vch Filter
ACHRANGE	IQUANT	2	Ach Range
ACHOFFSETENABLE	TOGGLE	F	Ach Offset Enable
ACHOFFSET	QUANT	0	Ach Offset (V)
ACHFILTER	IQUANT	3	Ach Filter
IERANGELOWERLIMIT	IQUANT	2	I/E Range Lower Limit
IERANGEMODE	TOGGLE	F	I/E AutoRange
IERANGE	IQUANT	11	I/E Range
POSFEEDENABLE	TOGGLE	F	Positive Feedback IR Comp
POSFEEDRESISTANCE	QUANT	0	Positive Feedback Resistance (ohm)
ACHSELECT	IQUANT	0	Ach Select
CABLEID	IQUANT	13	Cable ID
DCCALDATE	LABEL	7/31/2020	DC Calibration Date
ACCALDATE	LABEL	7/31/2020	AC Calibration Date
THERMOSELECT	IQUANT	1	Thermo Select
FRAMEWORKVERSION	QUANT	6.33	Framework Version
INSTRUMENTVERSION	LABEL	3.50	Instrument Version
COMPLIANCEVOLTAGE	IQUANT	0	Compliance Voltage
ZCURVE	TABLE
	Pt	Time	Freq	Zreal	Zimag	Zsig	Zmod	Zphz	Idc	Vdc	IERange
	#	s	Hz	ohm	ohm	V	ohm	°	A	V	#
	0	10	300046.9	1.757286	2.263758	1	2.865773	52.1789	-0.000345	-0.0003291	11
	1	13	238359.4	1.844692	1.632941	1	2.463612	41.51561	-0.0005496	-0.0007003	12
	2	17	189328.1	1.769756	1.292911	1	2.191725	36.15033	-0.0001271	0.0001317	12
	3	21	150421.9	1.669051	1.104045	1	2.001161	33.48386	0.0004237	0.0001711	11
	4	23	119484.4	1.654686	0.8585566	1	1.864163	27.42316	-5.024317E-005	0.0002123	11
	5	26	94921.88	1.645467	0.654031	1	1.770683	21.67655	-0.0001603	0.0002734	11
	6	28	75421.88	1.643971	0.4816579	1	1.713077	16.32977	0.0002153	0.0005135	11
	7	31	59859.37	1.6439	0.3348175	1	1.67765	11.51212	-0.000199	0.0004636	11
	8	33	47578.12	1.645994	0.2073371	1	1.659002	7.17943	-0.0000981	0.0004963	11
	9	36	37828.12	1.650648	0.0926329	1	1.653245	3.212021	0.0001083	0.0006592	11
	10	38	30046.88	1.656412	-0.0163425	1	1.656493	-0.5652733	0.0001791	0.0006622	11
	11	41	23859.38	1.665509	-0.1236441	1	1.670092	-4.245737	-0.0001617	0.0006348	11
	12	43	18984.38	1.676004	-0.2337974	1	1.692232	-7.941339	-0.000174	0.0006162	11
	13	45	15046.87	1.687985	-0.3547003	1	1.724849	-11.86704	0.0001234	0.0006727	11
	14	48	11953.13	1.70379	-0.4891695	1	1.772622	-16.01912	0.0001787	0.0007463	11
	15	50	9515.62	1.721448	-0.6426338	1	1.837488	-20.47111	3.088318E-005	0.0006413	11
	16	52	7546.875	1.744012	-0.8278155	1	1.930507	-25.39189	0.0001613	0.0007116	11
	17	55	5928.309	1.772369	-1.060302	1	2.065317	-30.88956	-0.0002172	0.0006281	11
	18	57	4733.456	1.804565	-1.32534	1	2.238969	-36.29496	-0.0002074	0.0006305	11
	19	59	3796.875	1.84483	-1.640532	1	2.468754	-41.64539	-0.0001752	0.0006331	11
	20	62	2987.132	1.899253	-2.062372	1	2.803665	-47.35782	4.392056E-005	0.0006541	11
	21	64	2390.625	1.96512	-2.545741	1	3.215975	-52.33456	0.0001857	0.0007517	11
	22	66	1884.191	2.05767	-3.180263	1	3.787885	-57.09662	-0.0001465	0.0006089	11
	23	68	1516.544	2.169568	-3.892568	1	4.456356	-60.86638	6.745462E-005	0.0005337	10
	24	71	1193.986	2.325762	-4.854196	1	5.3826	-64.3998	-0.0001026	0.0006838	10
	25	73	946.5144	2.529288	-6.004781	1	6.515726	-67.15858	0.0000964	0.0005256	10
	26	76	751.7689	2.780278	-7.413552	1	7.917746	-69.44263	5.997445E-005	0.0006368	10
	27	78	597.4265	3.11883	-9.124623	1	9.64292	-71.12938	0.0000961	0.0005247	10
	28	80	477.4305	3.542309	-11.16817	1	11.71648	-72.40206	-5.058765E-006	0.0006535	10
	29	82	376.6741	4.127304	-13.80247	1	14.40634	-73.35194	-5.489297E-006	0.0006487	10
	30	85	298.2954	4.881405	-16.97306	1	17.66106	-73.95491	-5.373895E-006	0.0006537	10
	31	87	237.7717	5.837378	-20.7117	1	21.51858	-74.26006	-5.74335E-006	0.0006483	10
	32	90	189.0121	7.094299	-25.28247	1	26.25895	-74.32581	-6.298702E-006	0.0006489	10
	33	92	150.2404	8.725596	-30.7882	1	32.00077	-74.1769	-6.078369E-006	0.0006462	10
	34	94	119.1737	10.84941	-37.44308	1	38.98325	-73.84066	-6.263E-006	0.0006519	10
	35	97	95.0169	13.48646	-45.12996	1	47.10199	-73.36195	-3.398341E-006	5.414354E-005	9
	36	99	75.60484	16.85275	-54.35806	1	56.91058	-72.77488	-3.495417E-006	5.165773E-005	9
	37	102	54.50582	23.11785	-70.49199	1	74.18595	-71.8431	-3.514499E-006	5.205665E-005	9
	38	104	45.95588	27.14421	-80.493	1	84.94663	-71.36463	-3.08014E-006	5.752511E-005	9
	39	107	37.20238	32.97532	-94.695	1	100.2722	-70.80052	-3.179956E-006	4.950767E-005	9
	40	109	30.04808	39.86032	-111.4337	1	118.3483	-70.31765	-3.497671E-006	5.441325E-005	9
	41	111	23.91582	48.3296	-132.4359	1	140.9788	-69.95155	-3.406911E-006	4.854114E-005	9
	42	114	18.60119	59.3302	-160.2678	1	170.8972	-69.68575	-3.390193E-006	4.811109E-005	9
	43	116	15.02404	70.36958	-188.9216	1	201.6017	-69.57063	-2.841149E-006	-1.035162E-005	9
	44	118	12.01923	84.25651	-224.7105	1	239.9874	-69.44617	-3.375089E-006	4.661396E-005	9
	45	121	9.450605	102.899	-271.8094	1	290.6348	-69.26482	-3.206098E-006	5.581593E-005	9
	46	123	7.512019	125.9358	-326.844	1	350.2668	-68.9279	-3.272568E-006	6.065641E-005	9
	47	126	5.978954	156.1571	-391.9461	1	421.9085	-68.27694	-3.20403E-006	4.931923E-005	9
	48	129	4.734848	197.1154	-469.7547	1	509.4349	-67.23642	-2.971796E-006	0.0006429	8
	49	132	3.75601	253.0865	-561.085	1	615.5234	-65.72147	-3.166312E-006	0.0006245	8
	50	136	3.004808	325.6925	-660.2491	1	736.2095	-63.74347	-3.012056E-006	0.0006036	8
	51	139	2.372217	427.7921	-774.6232	1	884.8995	-61.08996	-3.060503E-006	0.0005451	8
	52	144	1.878005	561.0989	-890.5913	1	1052.609	-57.78786	-3.073311E-006	0.0006448	8
	53	148	1.512097	712.7488	-993.901	1	1223.049	-54.35484	-3.052963E-006	0.0005355	8
	54	154	1.201923	905.5547	-1093.812	1	1420.019	-50.37903	-2.98931E-006	0.000658	8
	55	160	0.956633	1124.082	-1168.854	1	1621.66	-46.11862	-3.212007E-006	1.854964E-006	8
