EXPLAIN
TAG	EISPOT
TITLE	LABEL	Potentiostatic EIS	Test Identifier
DATE	LABEL	9/11/2020	Date
TIME	LABEL	15:22:49	Time
NOTES	NOTES	1	Notes...
	
PSTAT	PSTAT	REF3000-16137	Potentiostat
VDC	POTEN	0.00000E+000	T	DC Voltage (V)
FREQINIT	QUANT	3.00000E+005	Initial Freq. (Hz)
FREQFINAL	QUANT	1.00000E+000	Final Freq. (Hz)
PTSPERDEC	QUANT	1.00000E+001	Points/decade
VAC	QUANT	5.00000E+001	AC Voltage (mV rms)
AREA	QUANT	1.00000E+000	Sample Area (cm^2)
SPEED	SELECTOR	2	Optimize for:
ZGUESS	QUANT	1.00000E+003	Estimated Z (ohms)
EOC	QUANT	0	Open Circuit (V)
SEQUENCER	TOGGLE	TRUE	Run as Sequence
PSTATMODEL	IQUANT	5	Pstat Model
PSTATSECTION	LABEL	REF3000-16137	Pstat Section
PSTATSERIALNO	LABEL	16137	Pstat Serial Number
CTRLMODE	IQUANT	1	Control Mode
IESTAB	IQUANT	0	I/E Stability
CASPEED	IQUANT	1	Control Amp Speed
CONVENTION	IQUANT	1	Current Convention
ICHRANGE	IQUANT	2	Ich Range
ICHRANGEMODE	TOGGLE	F	Ich Auto Range
ICHOFFSETENABLE	TOGGLE	T	Ich Offset Enable
ICHOFFSET	QUANT	0	Ich Offset (V)
ICHFILTER	IQUANT	3	Ich Filter
VCHRANGE	IQUANT	2	Vch Range
VCHRANGEMODE	TOGGLE	F	Vch Auto Range
VCHOFFSETENABLE	TOGGLE	T	Vch Offset Enable
VCHOFFSET	QUANT	0	Vch Offset (V)
VCHFILTER	IQUANT	3	Vch Filter
ACHRANGE	IQUANT	2	Ach Range
ACHOFFSETENABLE	TOGGLE	F	Ach Offset Enable
ACHOFFSET	QUANT	0	Ach Offset (V)
ACHFILTER	IQUANT	3	Ach Filter
IERANGELOWERLIMIT	IQUANT	2	I/E Range Lower Limit
IERANGEMODE	TOGGLE	F	I/E AutoRange
IERANGE	IQUANT	11	I/E Range
POSFEEDENABLE	TOGGLE	F	Positive Feedback IR Comp
POSFEEDRESISTANCE	QUANT	0	Positive Feedback Resistance (ohm)
ACHSELECT	IQUANT	0	Ach Select
CABLEID	IQUANT	13	Cable ID
DCCALDATE	LABEL	7/31/2020	DC Calibration Date
ACCALDATE	LABEL	7/31/2020	AC Calibration Date
THERMOSELECT	IQUANT	1	Thermo Select
FRAMEWORKVERSION	QUANT	6.33	Framework Version
INSTRUMENTVERSION	LABEL	3.50	Instrument Version
COMPLIANCEVOLTAGE	IQUANT	0	Compliance Voltage
ZCURVE	TABLE
	Pt	Time	Freq	Zreal	Zimag	Zsig	Zmod	Zphz	Idc	Vdc	IERange
	#	s	Hz	ohm	ohm	V	ohm	°	A	V	#
	0	8	300046.9	15.16245	2.039781	1	15.29904	7.661911	-0.000106	0.0002462	10
	1	11	238359.4	15.21129	1.591538	1	15.29433	5.973052	7.540627E-005	-6.688583E-005	10
	2	14	189328.1	15.27372	1.24588	1	15.32445	4.6633	1.099816E-005	0.0003251	10
	3	17	150421.9	15.32846	0.978407	1	15.35966	3.652201	-5.884513E-006	0.0003827	10
	4	19	119484.4	15.38494	0.7348344	1	15.40248	2.734553	-9.164467E-005	0.0006122	10
	5	22	94921.88	15.44553	0.5543804	1	15.45547	2.055613	1.257682E-005	0.0006357	10
	6	24	75421.88	15.51112	0.3763826	1	15.51568	1.390029	1.160069E-005	0.0005316	10
	7	27	59859.37	15.5806	0.226478	1	15.58225	0.8327868	-1.128881E-005	0.0006872	10
	8	29	47578.12	15.64932	0.0917321	1	15.64959	0.3358485	1.855951E-005	0.0005623	10
	9	32	37828.12	15.72245	-0.0328129	1	15.72248	-0.1195768	-1.478073E-005	0.0007046	10
	10	34	30046.88	15.79413	-0.1582664	1	15.79492	-0.574118	1.327634E-005	0.0006065	10
	11	37	23859.38	15.86711	-0.2885639	1	15.86974	-1.041883	-3.085793E-005	0.0006291	10
	12	39	18984.38	15.9391	-0.4296103	1	15.94489	-1.543932	-1.662942E-005	0.0006514	10
	13	41	15046.87	16.013	-0.5926641	1	16.02396	-2.119632	1.852554E-005	0.0005994	10
	14	44	11953.13	16.09513	-0.7810665	1	16.11407	-2.778278	1.87349E-005	0.000587	10
	15	46	9515.62	16.17845	-0.998505	1	16.20923	-3.531715	-1.762151E-005	0.000647	10
	16	48	7546.875	16.27334	-1.269869	1	16.32281	-4.461957	-1.230085E-005	0.0007029	10
	17	51	5928.309	16.37168	-1.610913	1	16.45074	-5.619603	1.982075E-005	0.0006347	10
	18	53	4733.456	16.4834	-2.002141	1	16.60455	-6.925452	-2.141575E-005	0.0006804	10
	19	55	3796.875	16.60057	-2.474188	1	16.78393	-8.477099	-2.289939E-006	0.0006222	10
	20	58	2987.132	16.74772	-3.101718	1	17.03252	-10.49243	2.34478E-005	0.0005978	10
	21	60	2390.625	16.90664	-3.813495	1	17.3314	-12.71102	-1.112124E-005	0.0006302	10
	22	62	1884.191	17.10756	-4.760423	1	17.75754	-15.54999	-1.166027E-005	0.0006234	10
	23	64	1516.544	17.32431	-5.81702	1	18.27483	-18.56062	1.93091E-005	0.0006359	10
	24	67	1193.986	17.60321	-7.240737	1	19.03422	-22.35886	1.562338E-005	0.0006428	10
	25	69	946.5144	17.93604	-8.9342	1	20.038	-26.47856	-2.731366E-005	0.0006908	10
	26	72	751.7689	18.31308	-11.00719	1	21.3665	-31.00824	1.901422E-005	0.0005776	10
	27	74	597.4265	18.76165	-13.55037	1	23.14329	-35.83822	-2.74261E-005	0.0006782	10
	28	76	477.4305	19.27273	-16.57824	1	25.42196	-40.70184	-2.46015E-006	0.0006443	10
	29	78	376.6741	19.90183	-20.54021	1	28.6004	-45.90434	-2.217439E-006	0.0006459	10
	30	81	298.2954	20.63041	-25.3835	1	32.70987	-50.89756	-2.204339E-006	0.0006423	10
	31	83	237.7717	21.48155	-31.21505	1	37.89243	-55.46506	-2.295409E-006	0.0006395	10
	32	86	189.0121	22.49964	-38.47564	1	44.57138	-59.68192	1.316456E-006	4.153903E-005	9
	33	88	150.2404	23.79332	-47.51586	1	53.14018	-63.40081	1.265617E-006	3.968697E-005	9
	34	90	119.1737	25.43726	-58.82086	1	64.08547	-66.61378	1.209721E-006	4.558202E-005	9
	35	93	95.0169	27.47808	-72.47478	1	77.50896	-69.23629	1.326388E-006	3.948441E-005	9
	36	95	75.60484	30.11323	-89.44772	1	94.38062	-71.39381	1.241227E-006	4.015041E-005	9
	37	98	54.50582	35.21255	-120.7637	1	125.7927	-73.74426	1.194493E-006	3.765239E-005	9
	38	100	45.95588	38.73835	-141.1808	1	146.399	-74.65634	1.25818E-006	4.904882E-005	9
	39	103	37.20238	44.09553	-171.1638	1	176.7526	-75.55349	1.235506E-006	4.683202E-005	9
	40	105	30.04808	51.0047	-207.8371	1	214.0041	-76.2117	1.276745E-006	4.628158E-005	9
	41	107	23.91582	60.36869	-255.3091	1	262.3492	-76.69656	1.368015E-006	4.24158E-005	9
	42	110	18.60119	73.96352	-320.1333	1	328.5665	-76.99067	1.241851E-006	4.842403E-005	9
	43	112	15.02404	89.03812	-387.4136	1	397.5136	-77.05665	1.422903E-006	0.0001023	9
	44	114	12.01923	108.7155	-470.3095	1	482.7112	-76.98427	7.242609E-007	0.0006274	8
	45	117	9.450605	136.7674	-580.9422	1	596.8242	-76.75246	5.725119E-007	0.0006681	8
	46	119	7.512019	171.8701	-709.6323	1	730.1488	-76.38535	5.405648E-007	0.0006092	8
	47	122	5.978954	217.2474	-863.2931	1	890.2086	-75.87483	5.248585E-007	0.0006286	8
	48	125	4.734848	276.6681	-1051.875	1	1087.651	-75.26363	5.053589E-007	0.0006032	8
	49	128	3.75601	353.4964	-1275.397	1	1323.479	-74.50845	6.092199E-007	0.0006809	8
	50	132	3.004808	444.8401	-1529.435	1	1592.813	-73.78279	6.315905E-007	0.0006063	8
	51	135	2.372217	567.9505	-1847.141	1	1932.484	-72.90862	5.943323E-007	0.0005517	8
	52	140	1.878005	710.9262	-2221.584	1	2332.563	-72.25488	6.407234E-007	0.0006164	8
	53	144	1.512097	865.8549	-2622.175	1	2761.432	-71.72653	5.89393E-007	0.000643	8
	54	150	1.201923	1065.939	-3133.349	1	3309.698	-71.21213	6.273053E-007	0.00064	8
	55	156	0.956633	1289.472	-3729.029	1	3945.68	-70.92498	5.699239E-007	-2.076148E-005	8
