EXPLAIN
TAG	EISPOT
TITLE	LABEL	Potentiostatic EIS	Test Identifier
DATE	LABEL	9/11/2020	Date
TIME	LABEL	15:28:20	Time
NOTES	NOTES	1	Notes...
	
PSTAT	PSTAT	REF3000-16137	Potentiostat
VDC	POTEN	0.00000E+000	T	DC Voltage (V)
FREQINIT	QUANT	3.00000E+005	Initial Freq. (Hz)
FREQFINAL	QUANT	1.00000E+000	Final Freq. (Hz)
PTSPERDEC	QUANT	1.00000E+001	Points/decade
VAC	QUANT	5.00000E+001	AC Voltage (mV rms)
AREA	QUANT	1.00000E+000	Sample Area (cm^2)
SPEED	SELECTOR	2	Optimize for:
ZGUESS	QUANT	1.00000E+003	Estimated Z (ohms)
EOC	QUANT	0	Open Circuit (V)
SEQUENCER	TOGGLE	TRUE	Run as Sequence
PSTATMODEL	IQUANT	5	Pstat Model
PSTATSECTION	LABEL	REF3000-16137	Pstat Section
PSTATSERIALNO	LABEL	16137	Pstat Serial Number
CTRLMODE	IQUANT	1	Control Mode
IESTAB	IQUANT	0	I/E Stability
CASPEED	IQUANT	1	Control Amp Speed
CONVENTION	IQUANT	1	Current Convention
ICHRANGE	IQUANT	2	Ich Range
ICHRANGEMODE	TOGGLE	F	Ich Auto Range
ICHOFFSETENABLE	TOGGLE	T	Ich Offset Enable
ICHOFFSET	QUANT	0	Ich Offset (V)
ICHFILTER	IQUANT	3	Ich Filter
VCHRANGE	IQUANT	2	Vch Range
VCHRANGEMODE	TOGGLE	F	Vch Auto Range
VCHOFFSETENABLE	TOGGLE	T	Vch Offset Enable
VCHOFFSET	QUANT	0	Vch Offset (V)
VCHFILTER	IQUANT	3	Vch Filter
ACHRANGE	IQUANT	2	Ach Range
ACHOFFSETENABLE	TOGGLE	F	Ach Offset Enable
ACHOFFSET	QUANT	0	Ach Offset (V)
ACHFILTER	IQUANT	3	Ach Filter
IERANGELOWERLIMIT	IQUANT	2	I/E Range Lower Limit
IERANGEMODE	TOGGLE	F	I/E AutoRange
IERANGE	IQUANT	11	I/E Range
POSFEEDENABLE	TOGGLE	F	Positive Feedback IR Comp
POSFEEDRESISTANCE	QUANT	0	Positive Feedback Resistance (ohm)
ACHSELECT	IQUANT	0	Ach Select
CABLEID	IQUANT	13	Cable ID
DCCALDATE	LABEL	7/31/2020	DC Calibration Date
ACCALDATE	LABEL	7/31/2020	AC Calibration Date
THERMOSELECT	IQUANT	1	Thermo Select
FRAMEWORKVERSION	QUANT	6.33	Framework Version
INSTRUMENTVERSION	LABEL	3.50	Instrument Version
COMPLIANCEVOLTAGE	IQUANT	0	Compliance Voltage
ZCURVE	TABLE
	Pt	Time	Freq	Zreal	Zimag	Zsig	Zmod	Zphz	Idc	Vdc	IERange
	#	s	Hz	ohm	ohm	V	ohm	°	A	V	#
	0	7	300046.9	26.79836	1.254171	1	26.82769	2.679505	-2.84512E-005	-0.0002642	11
	1	11	238359.4	27.01874	1.266053	1	27.04838	2.682823	-3.087085E-005	0.0003016	10
	2	14	189328.1	27.22415	0.981268	1	27.24183	2.064278	-2.437214E-005	0.0005143	10
	3	18	150421.9	27.3869	0.7316454	1	27.39667	1.530302	-5.26983E-005	0.0006733	10
	4	21	119484.4	27.51039	0.5496431	1	27.51588	1.144587	-8.700779E-005	0.0007878	10
	5	23	94921.88	27.64239	0.3993903	1	27.64527	0.8277789	-2.805887E-005	0.0006719	10
	6	26	75421.88	27.78936	0.2477339	1	27.79047	0.5107614	2.277824E-005	0.0006399	10
	7	28	59859.37	27.93498	0.1168448	1	27.93522	0.239652	7.263599E-006	0.0006731	10
	8	31	47578.12	28.08035	-0.0041991	1	28.08035	-0.0085679	-1.061287E-005	0.0006096	10
	9	33	37828.12	28.23065	-0.117576	1	28.2309	-0.2386261	-2.332977E-005	0.0006476	10
	10	36	30046.88	28.37919	-0.2387543	1	28.3802	-0.4820184	2.328272E-005	0.0006559	10
	11	38	23859.38	28.52351	-0.3595496	1	28.52577	-0.7221968	-9.593467E-006	0.0007047	10
	12	41	18984.38	28.66606	-0.5046356	1	28.67051	-1.008527	5.250875E-006	0.0006181	10
	13	43	15046.87	28.81073	-0.6679196	1	28.81847	-1.328051	2.408638E-005	0.0005822	10
	14	45	11953.13	28.96571	-0.8632314	1	28.97857	-1.707014	-1.38025E-005	0.0007281	10
	15	48	9515.62	29.11316	-1.086711	1	29.13343	-2.137696	-3.074225E-006	0.0006079	10
	16	50	7546.875	29.28209	-1.377128	1	29.31445	-2.692619	2.462297E-005	0.0006148	10
	17	52	5928.309	29.4565	-1.732616	1	29.50742	-3.366229	-2.205737E-005	0.000692	10
	18	54	4733.456	29.62989	-2.143842	1	29.70735	-4.13837	-2.55117E-005	0.0006561	10
	19	57	3796.875	29.82669	-2.646318	1	29.94386	-5.070186	-1.716597E-005	0.0006435	10
	20	59	2987.132	30.04276	-3.313919	1	30.22498	-6.294663	-5.985319E-006	0.0006639	10
	21	61	2390.625	30.2727	-4.080723	1	30.5465	-7.677125	-6.562383E-006	0.0006327	10
	22	64	1884.191	30.54865	-5.094414	1	30.97052	-9.467745	-1.693248E-005	0.0006398	10
	23	66	1516.544	30.83234	-6.21626	1	31.45274	-11.39888	-4.768538E-006	0.0006673	10
	24	68	1193.986	31.19041	-7.753775	1	32.13974	-13.96045	-1.259079E-005	0.000625	10
	25	71	946.5144	31.59972	-9.60991	1	33.02866	-16.91525	1.446653E-005	0.0006189	10
	26	73	751.7689	32.0806	-11.86203	1	34.20341	-20.29224	-6.557687E-006	0.0006661	10
	27	76	597.4265	32.64616	-14.60587	1	35.76455	-24.10371	-2.765246E-005	0.0006691	10
	28	78	477.4305	33.26444	-17.87417	1	37.76254	-28.25072	1.266545E-006	5.143161E-005	9
	29	80	376.6741	34.07096	-22.13037	1	40.62737	-33.00524	1.260555E-006	4.280333E-005	9
	30	82	298.2954	35.00012	-27.29917	1	44.38753	-37.95329	1.208566E-006	4.591942E-005	9
	31	85	237.7717	36.05897	-33.48336	1	49.20757	-42.87893	1.15252E-006	4.91824E-005	9
	32	87	189.0121	37.30472	-41.19705	1	55.57732	-47.83855	1.260696E-006	4.696862E-005	9
	33	90	150.2404	38.77281	-50.73616	1	63.85521	-52.61277	1.199926E-006	4.516872E-005	9
	34	92	119.1737	40.55053	-62.67291	1	74.64743	-57.09639	1.177111E-006	4.807211E-005	9
	35	94	95.0169	42.67213	-77.12212	1	88.1404	-61.04398	1.240235E-006	4.377544E-005	9
	36	97	75.60484	45.32886	-95.1417	1	105.3881	-64.52522	1.281693E-006	4.601779E-005	9
	37	99	54.50582	50.30436	-128.5446	1	138.0371	-68.62771	1.258063E-006	4.228143E-005	9
	38	102	45.95588	53.74999	-150.4223	1	159.7371	-70.33681	1.176701E-006	4.961095E-005	9
	39	104	37.20238	58.94072	-182.6418	1	191.9167	-72.11449	1.321143E-006	3.960535E-005	9
	40	107	30.04808	65.55972	-222.1386	1	231.611	-73.5571	1.327782E-006	3.683518E-005	9
	41	109	23.91582	74.53409	-273.6139	1	283.584	-74.76202	1.164126E-006	4.586898E-005	9
	42	111	18.60119	87.40591	-343.9753	1	354.9068	-75.7426	1.379573E-006	4.225189E-005	9
	43	114	15.02404	101.2243	-415.46	1	427.6136	-76.30702	4.818843E-007	0.0006184	8
	44	116	12.01923	119.984	-508.0921	1	522.0668	-76.71323	4.202355E-007	0.000623	8
	45	118	9.450605	146.3064	-630.2057	1	646.9658	-76.92993	5.070484E-007	0.0006312	8
	46	121	7.512019	178.956	-773.4201	1	793.8538	-76.97202	4.891173E-007	0.0006349	8
	47	124	5.978954	221.2536	-945.9838	1	971.513	-76.83588	4.565138E-007	0.0006275	8
	48	127	4.734848	277.0898	-1161.705	1	1194.293	-76.58447	5.556283E-007	0.0006378	8
	49	130	3.75601	349.642	-1419.951	1	1462.364	-76.16695	4.535065E-007	0.0006218	8
	50	133	3.004808	438.9373	-1718.14	1	1773.322	-75.66904	4.903541E-007	0.0006513	8
	51	137	2.372217	560.7122	-2095.095	1	2168.829	-75.01701	4.830565E-007	0.0006077	8
	52	141	1.878005	718.6902	-2547.705	1	2647.134	-74.2466	4.537259E-007	0.0006179	8
	53	146	1.512097	897.6775	-3039.954	1	3169.723	-73.54849	4.923481E-007	0.0005181	8
	54	151	1.201923	1132.048	-3655.712	1	3826.979	-72.79404	4.705607E-007	0.0006345	8
	55	158	0.956633	1412.115	-4382.822	1	4604.693	-72.14141	2.192346E-008	-3.944228E-005	7
