EXPLAIN
TAG	EISPOT
TITLE	LABEL	Potentiostatic EIS	Test Identifier
DATE	LABEL	9/11/2020	Date
TIME	LABEL	15:11:45	Time
NOTES	NOTES	1	Notes...
	
PSTAT	PSTAT	REF3000-16137	Potentiostat
VDC	POTEN	0.00000E+000	T	DC Voltage (V)
FREQINIT	QUANT	3.00000E+005	Initial Freq. (Hz)
FREQFINAL	QUANT	1.00000E+000	Final Freq. (Hz)
PTSPERDEC	QUANT	1.00000E+001	Points/decade
VAC	QUANT	5.00000E+001	AC Voltage (mV rms)
AREA	QUANT	1.00000E+000	Sample Area (cm^2)
SPEED	SELECTOR	2	Optimize for:
ZGUESS	QUANT	1.00000E+003	Estimated Z (ohms)
EOC	QUANT	0	Open Circuit (V)
SEQUENCER	TOGGLE	TRUE	Run as Sequence
PSTATMODEL	IQUANT	5	Pstat Model
PSTATSECTION	LABEL	REF3000-16137	Pstat Section
PSTATSERIALNO	LABEL	16137	Pstat Serial Number
CTRLMODE	IQUANT	1	Control Mode
IESTAB	IQUANT	0	I/E Stability
CASPEED	IQUANT	1	Control Amp Speed
CONVENTION	IQUANT	1	Current Convention
ICHRANGE	IQUANT	2	Ich Range
ICHRANGEMODE	TOGGLE	F	Ich Auto Range
ICHOFFSETENABLE	TOGGLE	T	Ich Offset Enable
ICHOFFSET	QUANT	0	Ich Offset (V)
ICHFILTER	IQUANT	3	Ich Filter
VCHRANGE	IQUANT	2	Vch Range
VCHRANGEMODE	TOGGLE	F	Vch Auto Range
VCHOFFSETENABLE	TOGGLE	T	Vch Offset Enable
VCHOFFSET	QUANT	0	Vch Offset (V)
VCHFILTER	IQUANT	3	Vch Filter
ACHRANGE	IQUANT	2	Ach Range
ACHOFFSETENABLE	TOGGLE	F	Ach Offset Enable
ACHOFFSET	QUANT	0	Ach Offset (V)
ACHFILTER	IQUANT	3	Ach Filter
IERANGELOWERLIMIT	IQUANT	2	I/E Range Lower Limit
IERANGEMODE	TOGGLE	F	I/E AutoRange
IERANGE	IQUANT	11	I/E Range
POSFEEDENABLE	TOGGLE	F	Positive Feedback IR Comp
POSFEEDRESISTANCE	QUANT	0	Positive Feedback Resistance (ohm)
ACHSELECT	IQUANT	0	Ach Select
CABLEID	IQUANT	13	Cable ID
DCCALDATE	LABEL	7/31/2020	DC Calibration Date
ACCALDATE	LABEL	7/31/2020	AC Calibration Date
THERMOSELECT	IQUANT	1	Thermo Select
FRAMEWORKVERSION	QUANT	6.33	Framework Version
INSTRUMENTVERSION	LABEL	3.50	Instrument Version
COMPLIANCEVOLTAGE	IQUANT	0	Compliance Voltage
ZCURVE	TABLE
	Pt	Time	Freq	Zreal	Zimag	Zsig	Zmod	Zphz	Idc	Vdc	IERange
	#	s	Hz	ohm	ohm	V	ohm	°	A	V	#
	0	10	300046.9	6.299038	2.277509	1	6.698129	19.87819	0.0003387	-5.99061E-005	10
	1	13	238359.4	6.290339	1.794189	1	6.541214	15.91971	0.0003308	-0.0017186	10
	2	17	189328.1	6.29538	1.411857	1	6.451755	12.6405	0.0002141	0.0003166	10
	3	19	150421.9	6.309281	1.087542	1	6.402326	9.78007	-4.080951E-005	-0.0001951	10
	4	22	119484.4	6.313973	0.8396989	1	6.369565	7.575346	4.966328E-005	-0.0002405	10
	5	24	94921.88	6.330494	0.650261	1	6.363804	5.864787	0.0001552	-3.137544E-005	10
	6	27	75421.88	6.34462	0.465367	1	6.361664	4.195035	0.0001086	4.431163E-005	10
	7	29	59859.37	6.363575	0.3044486	1	6.370853	2.739078	-6.546443E-006	0.0009279	10
	8	32	47578.12	6.385075	0.1630763	1	6.387157	1.46303	-0.0001881	0.0011065	10
	9	34	37828.12	6.409497	0.0316386	1	6.409575	0.2828216	0.000097	0.0006726	10
	10	37	30046.88	6.432903	-0.0941588	1	6.433592	-0.8385818	0.0001122	0.0001042	10
	11	39	23859.38	6.459414	-0.2207304	1	6.463184	-1.957144	-2.137461E-006	0.0003128	10
	12	42	18984.38	6.488443	-0.3551977	1	6.498158	-3.133423	0.0001147	0.0006328	10
	13	44	15046.87	6.518559	-0.5060787	1	6.538175	-4.439344	-0.0001788	0.0011848	10
	14	46	11953.13	6.554122	-0.6818819	1	6.589498	-5.939606	-0.0001599	0.0012263	10
	15	48	9515.62	6.592748	-0.8846084	1	6.651831	-7.642246	-0.0001906	0.0011667	10
	16	51	7546.875	6.637602	-1.130954	1	6.733262	-9.66953	0.0001271	0.0004383	10
	17	53	5928.309	6.698567	-1.441599	1	6.851935	-12.14538	-0.000185	0.0011903	10
	18	55	4733.456	6.764367	-1.792742	1	6.997898	-14.84369	0.0001683	0.0004101	10
	19	58	3796.875	6.839571	-2.210139	1	7.187799	-17.90772	0.0001126	0.000114	10
	20	60	2987.132	6.940516	-2.765473	1	7.471185	-21.72498	-0.0001922	0.0011919	10
	21	62	2390.625	7.052098	-3.395185	1	7.826836	-25.70817	-0.0001853	0.0010177	10
	22	65	1884.191	7.1886	-4.228844	1	8.340209	-30.46706	-0.0001186	0.0011754	10
	23	67	1516.544	7.343301	-5.141132	1	8.964112	-34.99632	0.0001535	8.00177E-005	10
	24	69	1193.986	7.535976	-6.388653	1	9.87957	-40.28974	-0.0001295	0.0012124	10
	25	72	946.5144	7.756161	-7.894352	1	11.06702	-45.5059	4.503195E-005	0.0008045	10
	26	74	751.7689	8.022241	-9.72697	1	12.60835	-50.48618	0.0001817	0.0001109	10
	27	76	597.4265	8.325929	-12.01704	1	14.61952	-55.2841	-8.148863E-006	0.000977	10
	28	79	477.4305	8.709435	-14.76544	1	17.14271	-59.46565	-2.602413E-006	0.0006556	10
	29	81	376.6741	9.206842	-18.37376	1	20.55143	-63.38517	-2.473987E-006	0.0006499	10
	30	83	298.2954	9.83251	-22.79296	1	24.82333	-66.66541	-2.349046E-006	0.0006535	10
	31	85	237.7717	10.61389	-28.10731	1	30.04456	-69.31245	-2.534941E-006	0.000644	10
	32	88	189.0121	11.62795	-34.73149	1	36.62629	-71.48969	-2.735937E-006	0.000651	10
	33	90	150.2404	12.9239	-42.84057	1	44.74754	-73.21279	1.63678E-007	5.231048E-005	9
	34	93	119.1737	14.6342	-52.9715	1	54.9558	-74.55636	4.563678E-007	5.212468E-005	9
	35	95	95.0169	16.79588	-65.13168	1	67.26244	-75.53985	2.464004E-007	5.85244E-005	9
	36	98	75.60484	19.61567	-80.15758	1	82.5228	-76.24917	3.871558E-007	4.979072E-005	9
	37	100	54.50582	25.15876	-107.6774	1	110.5775	-76.84881	1.751393E-007	5.191009E-005	9
	38	103	45.95588	28.99207	-125.4959	1	128.8012	-76.99174	3.289598E-007	6.041565E-005	9
	39	105	37.20238	34.91824	-151.5276	1	155.4989	-77.02322	1.319818E-007	5.065011E-005	9
	40	107	30.04808	42.53056	-183.0538	1	187.9296	-76.92001	2.073002E-007	5.393164E-005	9
	41	110	23.91582	53.06864	-223.6459	1	229.856	-76.65125	2.001409E-007	4.940011E-005	9
	42	112	18.60119	68.28127	-278.0783	1	286.3387	-76.20414	6.497138E-007	5.318935E-005	9
	43	114	15.02404	85.2921	-333.7834	1	344.5085	-75.66587	3.83522E-007	5.290293E-005	9
	44	117	12.01923	107.7843	-402.8802	1	417.0491	-75.02218	1.910892E-007	5.363212E-005	9
	45	119	9.450605	138.0715	-489.0698	1	508.186	-74.23486	3.191922E-007	0.0006444	8
	46	122	7.512019	175.2492	-588.5414	1	614.0792	-73.41811	2.153956E-007	0.0005638	8
	47	124	5.978954	219.7364	-705.1865	1	738.6285	-72.69295	2.988525E-007	0.000633	8
	48	127	4.734848	274.7489	-844.9788	1	888.5247	-71.98782	2.665182E-007	0.0006057	8
	49	131	3.75601	339.3552	-1008.682	1	1064.237	-71.4053	4.082791E-007	0.0006471	8
	50	134	3.004808	411.1712	-1194.182	1	1262.985	-71.00079	3.500037E-007	0.0006507	8
	51	138	2.372217	496.9926	-1427.266	1	1511.321	-70.80122	3.276444E-007	0.0006572	8
	52	142	1.878005	595.6772	-1706.766	1	1807.728	-70.76054	3.576538E-007	0.0006016	8
	53	147	1.512097	696.3953	-2018.47	1	2135.225	-70.96498	3.480792E-007	0.0007291	8
	54	152	1.201923	814.3466	-2419.99	1	2553.333	-71.40149	3.502129E-007	0.0006004	8
	55	158	0.956633	947.5608	-2910.995	1	3061.334	-71.96937	2.979248E-007	-1.095417E-005	8
