EXPLAIN
TAG	EISPOT
TITLE	LABEL	Potentiostatic EIS	Test Identifier
DATE	LABEL	9/11/2020	Date
TIME	LABEL	14:43:26	Time
NOTES	NOTES	1	Notes...
	
PSTAT	PSTAT	REF3000-16137	Potentiostat
VDC	POTEN	0.00000E+000	T	DC Voltage (V)
FREQINIT	QUANT	3.00000E+005	Initial Freq. (Hz)
FREQFINAL	QUANT	1.00000E+000	Final Freq. (Hz)
PTSPERDEC	QUANT	1.00000E+001	Points/decade
VAC	QUANT	5.00000E+001	AC Voltage (mV rms)
AREA	QUANT	1.00000E+000	Sample Area (cm^2)
SPEED	SELECTOR	2	Optimize for:
ZGUESS	QUANT	1.00000E+003	Estimated Z (ohms)
EOC	QUANT	0	Open Circuit (V)
SEQUENCER	TOGGLE	TRUE	Run as Sequence
PSTATMODEL	IQUANT	5	Pstat Model
PSTATSECTION	LABEL	REF3000-16137	Pstat Section
PSTATSERIALNO	LABEL	16137	Pstat Serial Number
CTRLMODE	IQUANT	1	Control Mode
IESTAB	IQUANT	0	I/E Stability
CASPEED	IQUANT	1	Control Amp Speed
CONVENTION	IQUANT	1	Current Convention
ICHRANGE	IQUANT	2	Ich Range
ICHRANGEMODE	TOGGLE	F	Ich Auto Range
ICHOFFSETENABLE	TOGGLE	T	Ich Offset Enable
ICHOFFSET	QUANT	0	Ich Offset (V)
ICHFILTER	IQUANT	3	Ich Filter
VCHRANGE	IQUANT	2	Vch Range
VCHRANGEMODE	TOGGLE	F	Vch Auto Range
VCHOFFSETENABLE	TOGGLE	T	Vch Offset Enable
VCHOFFSET	QUANT	0	Vch Offset (V)
VCHFILTER	IQUANT	3	Vch Filter
ACHRANGE	IQUANT	2	Ach Range
ACHOFFSETENABLE	TOGGLE	F	Ach Offset Enable
ACHOFFSET	QUANT	0	Ach Offset (V)
ACHFILTER	IQUANT	3	Ach Filter
IERANGELOWERLIMIT	IQUANT	2	I/E Range Lower Limit
IERANGEMODE	TOGGLE	F	I/E AutoRange
IERANGE	IQUANT	11	I/E Range
POSFEEDENABLE	TOGGLE	F	Positive Feedback IR Comp
POSFEEDRESISTANCE	QUANT	0	Positive Feedback Resistance (ohm)
ACHSELECT	IQUANT	0	Ach Select
CABLEID	IQUANT	13	Cable ID
DCCALDATE	LABEL	7/31/2020	DC Calibration Date
ACCALDATE	LABEL	7/31/2020	AC Calibration Date
THERMOSELECT	IQUANT	1	Thermo Select
FRAMEWORKVERSION	QUANT	6.33	Framework Version
INSTRUMENTVERSION	LABEL	3.50	Instrument Version
COMPLIANCEVOLTAGE	IQUANT	0	Compliance Voltage
ZCURVE	TABLE
	Pt	Time	Freq	Zreal	Zimag	Zsig	Zmod	Zphz	Idc	Vdc	IERange
	#	s	Hz	ohm	ohm	V	ohm	°	A	V	#
	0	10	300046.9	2.128104	2.246521	1	3.09446	46.55056	4.488831E-006	-0.0003342	11
	1	13	238359.4	2.090652	1.782187	1	2.747183	40.4461	0.0003267	-0.0001983	11
	2	17	189328.1	2.154087	1.260183	1	2.495626	30.32847	-0.0006562	-0.000125	12
	3	20	150421.9	2.104831	0.986209	1	2.324419	25.10522	0.0004836	0.0004425	12
	4	24	119484.4	2.048132	0.8486533	1	2.216993	22.5069	0.0004521	0.0003587	11
	5	26	94921.88	2.041643	0.6442387	1	2.140876	17.51304	0.0001653	0.0004847	11
	6	29	75421.88	2.039322	0.4703957	1	2.09287	12.98883	3.316798E-005	0.0004647	11
	7	31	59859.37	2.0421	0.3227808	1	2.067452	8.982044	-0.0001787	0.0005486	11
	8	34	47578.12	2.044271	0.1928423	1	2.053346	5.388939	0.0001878	0.0006022	11
	9	36	37828.12	2.05043	0.0754747	1	2.051818	2.10806	0.0001656	0.000648	11
	10	39	30046.88	2.058079	-0.0372477	1	2.058416	-1.036844	-0.0001817	0.000637	11
	11	41	23859.38	2.067727	-0.1500178	1	2.073162	-4.149656	5.506828E-005	0.0006669	11
	12	44	18984.38	2.078922	-0.266728	1	2.095963	-7.311169	0.0001025	0.000654	11
	13	46	15046.87	2.094598	-0.3962127	1	2.131742	-10.71147	-8.671734E-005	0.0006644	11
	14	48	11953.13	2.113202	-0.5400723	1	2.181123	-14.33625	-3.791693E-005	0.0006371	11
	15	51	9515.62	2.136407	-0.7047317	1	2.24964	-18.25605	-0.0001417	0.0005988	11
	16	53	7546.875	2.162646	-0.9027957	1	2.343518	-22.65807	-1.459059E-005	0.0006728	11
	17	55	5928.309	2.195683	-1.151067	1	2.479109	-27.66537	-2.630841E-005	0.0006538	11
	18	57	4733.456	2.233027	-1.433453	1	2.653525	-32.69773	-0.00014	0.0006642	11
	19	60	3796.875	2.275972	-1.770006	1	2.883222	-37.87194	-1.936263E-005	0.000675	11
	20	62	2987.132	2.333011	-2.219838	1	3.220345	-43.57606	5.891925E-005	0.0007006	11
	21	64	2390.625	2.398037	-2.736605	1	3.638625	-48.77251	4.727961E-005	0.0006746	11
	22	67	1884.191	2.490695	-3.423017	1	4.233274	-53.95918	-0.0001476	0.0008181	10
	23	69	1516.544	2.59484	-4.190755	1	4.929059	-58.23496	-0.0001342	0.0007309	10
	24	71	1193.986	2.742137	-5.236731	1	5.911232	-62.36186	7.017509E-005	0.0006226	10
	25	74	946.5144	2.931877	-6.491004	1	7.122431	-65.69211	-0.0001074	0.0008226	10
	26	76	751.7689	3.175217	-8.030751	1	8.63568	-68.42703	0.0001359	0.000469	10
	27	78	597.4265	3.490834	-9.91076	1	10.50758	-70.59638	-0.0001325	0.0007537	10
	28	81	477.4305	3.892387	-12.16672	1	12.77418	-72.25945	-2.122377E-006	0.000641	10
	29	83	376.6741	4.444013	-15.08949	1	15.73029	-73.58975	-2.788137E-006	0.0006461	10
	30	85	298.2954	5.154087	-18.62795	1	19.32783	-74.534	-3.317665E-006	0.0006525	10
	31	88	237.7717	6.052913	-22.83051	1	23.61927	-75.15115	-2.833994E-006	0.0006459	10
	32	90	189.0121	7.238888	-28.0156	1	28.93571	-75.51234	-3.148101E-006	0.0006573	10
	33	92	150.2404	8.783072	-34.31423	1	35.42046	-75.64281	-3.201784E-006	0.0006527	10
	34	95	119.1737	10.81216	-41.97697	1	43.34708	-75.55608	-1.043897E-006	5.453683E-005	9
	35	97	95.0169	13.40497	-51.05178	1	52.78236	-75.28762	-1.26743E-006	5.608533E-005	9
	36	100	75.60484	16.78999	-62.02492	1	64.25726	-74.85318	-1.292083E-006	4.979867E-005	9
	37	102	54.50582	23.3847	-81.49078	1	84.77967	-73.98857	-7.440211E-007	-1.199539E-005	9
	38	105	45.95588	27.79582	-93.67645	1	97.7133	-73.47324	-9.166428E-007	5.521289E-005	9
	39	107	37.20238	34.34246	-110.9061	1	116.1015	-72.79467	-1.173479E-006	5.630431E-005	9
	40	110	30.04808	42.45501	-131.2965	1	137.9899	-72.08128	-1.336322E-006	5.752503E-005	9
	41	113	23.91582	52.54068	-156.3757	1	164.9664	-71.42817	-1.444881E-006	5.613446E-005	9
	42	115	18.60119	66.03365	-189.422	1	200.6019	-70.78114	-1.0978E-006	6.178278E-005	9
	43	118	15.02404	79.19088	-222.5604	1	236.2294	-70.41355	-8.325877E-007	6.499916E-005	9
	44	120	12.01923	95.0173	-263.3762	1	279.9916	-70.16225	-1.234902E-006	5.783756E-005	9
	45	122	9.450605	114.5251	-316.4929	1	336.5765	-70.107	-1.185813E-006	6.466392E-005	9
	46	125	7.512019	136.5806	-378.244	1	402.1477	-70.14579	-1.037431E-006	4.524021E-005	9
	47	127	5.978954	161.7018	-450.9084	1	479.0259	-70.27148	-9.408477E-007	0.0006345	8
	48	130	4.734848	194.2224	-544.3321	1	577.9444	-70.36316	-1.057983E-006	0.0006229	8
	49	134	3.75601	235.7962	-657.3199	1	698.3332	-70.26589	-9.340354E-007	0.0006421	8
	50	137	3.004808	288.2131	-788.9734	1	839.9678	-69.93268	-1.040351E-006	0.0006642	8
	51	141	2.372217	362.8934	-957.044	1	1023.535	-69.23419	-1.036412E-006	0.0006982	8
	52	145	1.878005	464.8013	-1153.728	1	1243.836	-68.05703	-1.067555E-006	0.0006092	8
	53	150	1.512097	591.2539	-1363.004	1	1485.719	-66.54941	-1.01524E-006	0.0006953	8
	54	155	1.201923	769.951	-1619.743	1	1793.43	-64.57574	-1.04695E-006	0.0005985	8
	55	161	0.956633	1005.928	-1897.005	1	2147.212	-62.06425	-1.183337E-006	-1.100564E-005	8
