EXPLAIN
TAG	EISPOT
TITLE	LABEL	Potentiostatic EIS	Test Identifier
DATE	LABEL	9/11/2020	Date
TIME	LABEL	14:20:45	Time
NOTES	NOTES	1	Notes...
	
PSTAT	PSTAT	REF3000-16137	Potentiostat
VDC	POTEN	0.00000E+000	T	DC Voltage (V)
FREQINIT	QUANT	3.00000E+005	Initial Freq. (Hz)
FREQFINAL	QUANT	1.00000E+000	Final Freq. (Hz)
PTSPERDEC	QUANT	1.00000E+001	Points/decade
VAC	QUANT	5.00000E+001	AC Voltage (mV rms)
AREA	QUANT	1.00000E+000	Sample Area (cm^2)
SPEED	SELECTOR	2	Optimize for:
ZGUESS	QUANT	1.00000E+003	Estimated Z (ohms)
EOC	QUANT	0	Open Circuit (V)
SEQUENCER	TOGGLE	TRUE	Run as Sequence
PSTATMODEL	IQUANT	5	Pstat Model
PSTATSECTION	LABEL	REF3000-16137	Pstat Section
PSTATSERIALNO	LABEL	16137	Pstat Serial Number
CTRLMODE	IQUANT	1	Control Mode
IESTAB	IQUANT	0	I/E Stability
CASPEED	IQUANT	1	Control Amp Speed
CONVENTION	IQUANT	1	Current Convention
ICHRANGE	IQUANT	2	Ich Range
ICHRANGEMODE	TOGGLE	F	Ich Auto Range
ICHOFFSETENABLE	TOGGLE	T	Ich Offset Enable
ICHOFFSET	QUANT	0	Ich Offset (V)
ICHFILTER	IQUANT	3	Ich Filter
VCHRANGE	IQUANT	2	Vch Range
VCHRANGEMODE	TOGGLE	F	Vch Auto Range
VCHOFFSETENABLE	TOGGLE	T	Vch Offset Enable
VCHOFFSET	QUANT	0	Vch Offset (V)
VCHFILTER	IQUANT	3	Vch Filter
ACHRANGE	IQUANT	2	Ach Range
ACHOFFSETENABLE	TOGGLE	F	Ach Offset Enable
ACHOFFSET	QUANT	0	Ach Offset (V)
ACHFILTER	IQUANT	3	Ach Filter
IERANGELOWERLIMIT	IQUANT	2	I/E Range Lower Limit
IERANGEMODE	TOGGLE	F	I/E AutoRange
IERANGE	IQUANT	11	I/E Range
POSFEEDENABLE	TOGGLE	F	Positive Feedback IR Comp
POSFEEDRESISTANCE	QUANT	0	Positive Feedback Resistance (ohm)
ACHSELECT	IQUANT	0	Ach Select
CABLEID	IQUANT	13	Cable ID
DCCALDATE	LABEL	7/31/2020	DC Calibration Date
ACCALDATE	LABEL	7/31/2020	AC Calibration Date
THERMOSELECT	IQUANT	1	Thermo Select
FRAMEWORKVERSION	QUANT	6.33	Framework Version
INSTRUMENTVERSION	LABEL	3.50	Instrument Version
COMPLIANCEVOLTAGE	IQUANT	0	Compliance Voltage
ZCURVE	TABLE
	Pt	Time	Freq	Zreal	Zimag	Zsig	Zmod	Zphz	Idc	Vdc	IERange
	#	s	Hz	ohm	ohm	V	ohm	°	A	V	#
	0	11	300046.9	1.630553	2.258582	1	2.785659	54.17311	3.432377E-005	-0.0005393	11
	1	14	238359.4	1.726263	1.641355	1	2.382023	43.5557	0.0003047	-0.0001805	12
	2	18	189328.1	1.651541	1.305154	1	2.104998	38.31807	-0.0001835	-0.0002359	12
	3	22	150421.9	1.557928	1.112357	1	1.914282	35.52676	-0.0001416	0.0002938	11
	4	24	119484.4	1.539945	0.86308	1	1.765315	29.26896	-0.000554	0.0001448	11
	5	27	94921.88	1.531976	0.6566366	1	1.66677	23.20098	0.000145	0.0003768	11
	6	29	75421.88	1.529649	0.4869378	1	1.605283	17.65799	-0.0001137	0.0004202	11
	7	32	59859.37	1.529992	0.3410991	1	1.567553	12.56809	4.163259E-005	0.0004853	11
	8	34	47578.12	1.531778	0.2150733	1	1.546803	7.992516	0.0001074	0.0005622	11
	9	37	37828.12	1.535169	0.1016604	1	1.538532	3.78865	-7.769797E-005	0.0005863	11
	10	39	30046.88	1.540883	-0.0051131	1	1.540892	-0.1901229	6.201738E-005	0.0006673	11
	11	42	23859.38	1.548119	-0.1097994	1	1.552008	-4.056876	-0.0002216	0.0005678	11
	12	44	18984.38	1.557569	-0.2168725	1	1.572595	-7.926777	4.666319E-005	0.0007093	11
	13	46	15046.87	1.568739	-0.3336813	1	1.603835	-12.00823	0.0001607	0.0006804	11
	14	49	11953.13	1.582673	-0.463745	1	1.649216	-16.33131	0.0001405	0.0006762	11
	15	51	9515.62	1.6002	-0.6124674	1	1.713405	-20.94406	-0.0001502	0.0006164	11
	16	53	7546.875	1.62025	-0.7911978	1	1.803109	-26.02711	-1.776934E-005	0.0007059	11
	17	56	5928.309	1.647163	-1.015585	1	1.935086	-31.65657	2.756278E-005	0.0006483	11
	18	58	4733.456	1.679032	-1.270759	1	2.105701	-37.1199	-3.135458E-005	0.0006324	11
	19	60	3796.875	1.718214	-1.574695	1	2.330649	-42.5044	-7.757772E-005	0.0006793	11
	20	63	2987.132	1.774804	-1.979056	1	2.658306	-48.11446	0.0001173	0.0007421	11
	21	66	2390.625	1.841404	-2.443027	1	3.059273	-52.99326	0.0001384	0.0007531	11
	22	68	1884.191	1.936715	-3.048906	1	3.612021	-57.57563	0.000154	0.000699	11
	23	70	1516.544	2.050503	-3.729094	1	4.255667	-61.19508	5.735693E-005	0.0005463	10
	24	73	1193.986	2.209772	-4.646578	1	5.145268	-64.56566	-4.12668E-005	0.0007227	10
	25	75	946.5144	2.412139	-5.74276	1	6.22878	-67.21607	5.45556E-005	0.0006633	10
	26	78	751.7689	2.678395	-7.071159	1	7.561421	-69.25445	0.0001219	0.0005386	10
	27	80	597.4265	3.019324	-8.694642	1	9.203973	-70.8498	-2.514971E-005	0.0005927	10
	28	82	477.4305	3.449479	-10.61921	1	11.16542	-72.00446	-7.557685E-006	0.0006491	10
	29	84	376.6741	4.045109	-13.09699	1	13.70744	-72.83628	-8.102801E-006	0.0006482	10
	30	87	298.2954	4.812	-16.06848	1	16.77353	-73.3287	-7.335539E-006	0.0006511	10
	31	89	237.7717	5.781778	-19.55836	1	20.39505	-73.53143	-7.660005E-006	0.0006463	10
	32	92	189.0121	7.052126	-23.80463	1	24.82726	-73.49806	-7.355259E-006	0.0006475	10
	33	94	150.2404	8.688692	-28.88914	1	30.16747	-73.26083	-7.640415E-006	0.0006455	10
	34	96	119.1737	10.7992	-35.001	1	36.62912	-72.85293	-7.589356E-006	0.0006443	10
	35	99	95.0169	13.38132	-42.01984	1	44.09906	-72.3358	-5.338304E-006	4.57674E-005	9
	36	101	75.60484	16.62862	-50.40977	1	53.0816	-71.74388	-5.501583E-006	4.556443E-005	9
	37	104	54.50582	22.55972	-65.04628	1	68.84737	-70.87214	-5.562091E-006	4.753519E-005	9
	38	106	45.95588	26.33358	-74.14846	1	78.68578	-70.44768	-5.217779E-006	5.637686E-005	9
	39	109	37.20238	31.71594	-87.08379	1	92.67949	-69.98837	-5.345503E-006	4.890238E-005	9
	40	111	30.04808	38.0314	-102.4054	1	109.2395	-69.62598	-5.473879E-006	4.643136E-005	9
	41	113	23.91582	45.889	-121.7058	1	130.0696	-69.34111	-5.575484E-006	4.527516E-005	9
	42	116	18.60119	56.50078	-147.7684	1	158.2019	-69.07513	-5.304098E-006	4.514241E-005	9
	43	118	15.02404	67.49976	-174.506	1	187.1057	-68.85329	-5.422448E-006	4.716057E-005	9
	44	120	12.01923	81.9838	-207.8923	1	223.4738	-68.47785	-5.153852E-006	4.631422E-005	9
	45	123	9.450605	102.5343	-251.4876	1	271.5866	-67.81873	-5.177254E-006	4.611889E-005	9
	46	125	7.512019	128.6814	-301.1297	1	327.4721	-66.86158	-5.035992E-006	5.936114E-005	9
	47	128	5.978954	163.869	-358.2929	1	393.9884	-65.42252	-5.301013E-006	5.684429E-005	9
	48	131	4.734848	211.997	-423.1995	1	473.3292	-63.39193	-4.980618E-006	0.0005868	8
	49	134	3.75601	276.372	-494.7192	1	566.6821	-60.81034	-5.044434E-006	0.0006434	8
	50	138	3.004808	356.4832	-565.3864	1	668.3876	-57.76805	-4.943733E-006	0.0006121	8
	51	141	2.372217	464.0409	-636.9744	1	788.0801	-53.92637	-5.026872E-006	0.000572	8
	52	145	1.878005	591.4703	-698.3014	1	915.1295	-49.73497	-4.789985E-006	0.0006319	8
	53	150	1.512097	724.0435	-740.8375	1	1035.895	-45.65683	-4.78922E-006	0.0006766	8
	54	156	1.201923	879.0334	-763.3997	1	1164.25	-40.9728	-4.682769E-006	0.0006417	8
	55	162	0.956633	1034.014	-763.1329	1	1285.129	-36.42842	-5.183505E-006	-2.910941E-006	8
