EXPLAIN
TAG	EISPOT
TITLE	LABEL	Potentiostatic EIS	Test Identifier
DATE	LABEL	9/11/2020	Date
TIME	LABEL	14:46:17	Time
NOTES	NOTES	1	Notes...
	
PSTAT	PSTAT	REF3000-16137	Potentiostat
VDC	POTEN	0.00000E+000	T	DC Voltage (V)
FREQINIT	QUANT	3.00000E+005	Initial Freq. (Hz)
FREQFINAL	QUANT	1.00000E+000	Final Freq. (Hz)
PTSPERDEC	QUANT	1.00000E+001	Points/decade
VAC	QUANT	5.00000E+001	AC Voltage (mV rms)
AREA	QUANT	1.00000E+000	Sample Area (cm^2)
SPEED	SELECTOR	2	Optimize for:
ZGUESS	QUANT	1.00000E+003	Estimated Z (ohms)
EOC	QUANT	0	Open Circuit (V)
SEQUENCER	TOGGLE	TRUE	Run as Sequence
PSTATMODEL	IQUANT	5	Pstat Model
PSTATSECTION	LABEL	REF3000-16137	Pstat Section
PSTATSERIALNO	LABEL	16137	Pstat Serial Number
CTRLMODE	IQUANT	1	Control Mode
IESTAB	IQUANT	0	I/E Stability
CASPEED	IQUANT	1	Control Amp Speed
CONVENTION	IQUANT	1	Current Convention
ICHRANGE	IQUANT	2	Ich Range
ICHRANGEMODE	TOGGLE	F	Ich Auto Range
ICHOFFSETENABLE	TOGGLE	T	Ich Offset Enable
ICHOFFSET	QUANT	0	Ich Offset (V)
ICHFILTER	IQUANT	3	Ich Filter
VCHRANGE	IQUANT	2	Vch Range
VCHRANGEMODE	TOGGLE	F	Vch Auto Range
VCHOFFSETENABLE	TOGGLE	T	Vch Offset Enable
VCHOFFSET	QUANT	0	Vch Offset (V)
VCHFILTER	IQUANT	3	Vch Filter
ACHRANGE	IQUANT	2	Ach Range
ACHOFFSETENABLE	TOGGLE	F	Ach Offset Enable
ACHOFFSET	QUANT	0	Ach Offset (V)
ACHFILTER	IQUANT	3	Ach Filter
IERANGELOWERLIMIT	IQUANT	2	I/E Range Lower Limit
IERANGEMODE	TOGGLE	F	I/E AutoRange
IERANGE	IQUANT	11	I/E Range
POSFEEDENABLE	TOGGLE	F	Positive Feedback IR Comp
POSFEEDRESISTANCE	QUANT	0	Positive Feedback Resistance (ohm)
ACHSELECT	IQUANT	0	Ach Select
CABLEID	IQUANT	13	Cable ID
DCCALDATE	LABEL	7/31/2020	DC Calibration Date
ACCALDATE	LABEL	7/31/2020	AC Calibration Date
THERMOSELECT	IQUANT	1	Thermo Select
FRAMEWORKVERSION	QUANT	6.33	Framework Version
INSTRUMENTVERSION	LABEL	3.50	Instrument Version
COMPLIANCEVOLTAGE	IQUANT	0	Compliance Voltage
ZCURVE	TABLE
	Pt	Time	Freq	Zreal	Zimag	Zsig	Zmod	Zphz	Idc	Vdc	IERange
	#	s	Hz	ohm	ohm	V	ohm	°	A	V	#
	0	10	300046.9	2.267946	2.237211	1	3.185701	44.60913	0.0001805	-0.0003592	11
	1	13	238359.4	2.22489	1.771721	1	2.844139	38.53096	0.0001792	-0.0002712	11
	2	16	189328.1	2.281668	1.249575	1	2.601432	28.7077	-0.0006828	-0.0001289	12
	3	20	150421.9	2.241297	0.978091	1	2.445419	23.57622	-0.0006372	0.0001639	12
	4	23	119484.4	2.209422	0.7499654	1	2.333236	18.74925	0.0002845	0.0003949	12
	5	27	94921.88	2.173551	0.639948	1	2.265802	16.40575	0.0001607	0.0005202	11
	6	30	75421.88	2.172074	0.4683572	1	2.221996	12.1682	-0.0001629	0.0004615	11
	7	32	59859.37	2.175162	0.3200893	1	2.198587	8.371367	-0.0002165	0.0005528	11
	8	35	47578.12	2.177758	0.189538	1	2.185991	4.974119	0.0001854	0.0006207	11
	9	37	37828.12	2.183342	0.0712884	1	2.184505	1.870103	0.0000986	0.0006055	11
	10	40	30046.88	2.1921	-0.0419968	1	2.192502	-1.097551	0.000143	0.0006645	11
	11	42	23859.38	2.201838	-0.1560957	1	2.207364	-4.055108	-0.00026	0.0006176	11
	12	44	18984.38	2.214077	-0.2742194	1	2.230994	-7.060282	0.0001993	0.0006824	11
	13	47	15046.87	2.230535	-0.4054995	1	2.267095	-10.30355	-1.228605E-005	0.0006758	11
	14	49	11953.13	2.249167	-0.5517077	1	2.315845	-13.7822	0.0001012	0.0006617	11
	15	51	9515.62	2.273603	-0.7195911	1	2.384761	-17.56248	-5.84777E-005	0.0006698	11
	16	54	7546.875	2.301547	-0.920273	1	2.478714	-21.79399	0.0002055	0.0007075	11
	17	56	5928.309	2.336328	-1.173231	1	2.614364	-26.66438	0.000124	0.0007019	11
	18	58	4733.456	2.375019	-1.459945	1	2.787858	-31.5794	-0.0002045	0.0006551	11
	19	61	3796.875	2.42059	-1.79927	1	3.016062	-36.62411	0.0000984	0.0006882	11
	20	63	2987.132	2.47716	-2.256797	1	3.351037	-42.33484	0.0001972	0.0007046	11
	21	65	2390.625	2.543527	-2.782346	1	3.769745	-47.56749	0.0001146	0.0006977	11
	22	67	1884.191	2.637316	-3.475997	1	4.363255	-52.81161	0.000155	0.0004681	10
	23	70	1516.544	2.74028	-4.25717	1	5.062868	-57.23119	0.000108	0.0005558	10
	24	72	1193.986	2.887457	-5.317312	1	6.05072	-61.49673	-0.0001086	0.0007279	10
	25	75	946.5144	3.076388	-6.595627	1	7.277806	-64.99432	6.809511E-005	0.0006085	10
	26	77	751.7689	3.31841	-8.162788	1	8.811524	-67.87683	-0.0001404	0.0007715	10
	27	79	597.4265	3.625984	-10.08583	1	10.71783	-70.22585	0.0001133	0.0005512	10
	28	81	477.4305	4.023486	-12.38085	1	13.01821	-71.99705	-3.76112E-006	0.0006479	10
	29	84	376.6741	4.568535	-15.36472	1	16.02954	-73.44071	-3.266414E-006	0.0006492	10
	30	86	298.2954	5.269747	-18.98131	1	19.69925	-74.48385	-2.737843E-006	0.0006534	10
	31	88	237.7717	6.1569	-23.28096	1	24.08133	-75.18665	-3.668194E-006	0.0006523	10
	32	91	189.0121	7.326106	-28.59265	1	29.51629	-75.62865	-2.499915E-006	0.0006503	10
	33	93	150.2404	8.849897	-35.05538	1	36.15523	-75.83146	-2.563296E-006	0.0006508	10
	34	96	119.1737	10.84715	-42.9343	1	44.28335	-75.8212	-6.093692E-007	5.375563E-005	9
	35	98	95.0169	13.40861	-52.29088	1	53.98266	-75.61789	-8.35216E-007	5.296615E-005	9
	36	101	75.60484	16.76336	-63.63941	1	65.81022	-75.24284	-9.448444E-007	4.904846E-005	9
	37	103	54.50582	23.31898	-83.83592	1	87.0186	-74.45609	-1.037359E-006	4.475183E-005	9
	38	106	45.95588	27.75164	-96.5079	1	100.4187	-73.95697	-7.961835E-007	5.50018E-005	9
	39	108	37.20238	34.40725	-114.563	1	119.6183	-73.28316	-8.269254E-007	5.236884E-005	9
	40	110	30.04808	42.59766	-135.7214	1	142.2493	-72.57496	-1.022029E-006	5.417212E-005	9
	41	113	23.91582	53.20716	-162.1387	1	170.6457	-71.83232	-1.078348E-006	5.255649E-005	9
	42	115	18.60119	67.08947	-196.4769	1	207.6155	-71.1469	-5.876846E-007	5.361898E-005	9
	43	117	15.02404	80.99918	-230.9833	1	244.7737	-70.6757	-7.766035E-007	4.873636E-005	9
	44	120	12.01923	97.6752	-273.3987	1	290.3227	-70.34007	-1.081619E-006	5.106691E-005	9
	45	122	9.450605	118.1362	-328.0786	1	348.7001	-70.19682	-9.77325E-007	6.137285E-005	9
	46	125	7.512019	140.5676	-391.4966	1	415.9674	-70.24923	-8.504026E-007	6.125551E-005	9
	47	127	5.978954	166.1466	-465.9172	1	494.655	-70.3737	-7.622876E-007	0.0006248	8
	48	130	4.734848	198.654	-561.1317	1	595.2581	-70.50483	-7.279713E-007	0.0006138	8
	49	134	3.75601	238.5705	-677.3225	1	718.1098	-70.59641	-7.019443E-007	0.0006463	8
	50	137	3.004808	287.9409	-812.8854	1	862.3762	-70.4948	-6.849793E-007	0.0006057	8
	51	141	2.372217	358.6973	-987.454	1	1050.585	-70.03621	-7.764261E-007	0.0005612	8
	52	145	1.878005	451.3587	-1197.007	1	1279.277	-69.3399	-6.823133E-007	0.0006257	8
	53	150	1.512097	565.2755	-1422.423	1	1530.628	-68.32696	-7.606349E-007	0.0006492	8
	54	155	1.201923	734.8771	-1705.12	1	1856.739	-66.6848	-7.00128E-007	0.0006387	8
	55	161	0.956633	957.665	-2019.089	1	2234.69	-64.62476	-8.62672E-007	-9.94384E-006	8
