EXPLAIN
TAG	EISPOT
TITLE	LABEL	Potentiostatic EIS	Test Identifier
DATE	LABEL	9/11/2020	Date
TIME	LABEL	16:00:03	Time
NOTES	NOTES	1	Notes...
	
PSTAT	PSTAT	REF3000-16137	Potentiostat
VDC	POTEN	0.00000E+000	T	DC Voltage (V)
FREQINIT	QUANT	3.00000E+005	Initial Freq. (Hz)
FREQFINAL	QUANT	1.00000E+000	Final Freq. (Hz)
PTSPERDEC	QUANT	1.00000E+001	Points/decade
VAC	QUANT	5.00000E+001	AC Voltage (mV rms)
AREA	QUANT	1.00000E+000	Sample Area (cm^2)
SPEED	SELECTOR	2	Optimize for:
ZGUESS	QUANT	1.00000E+003	Estimated Z (ohms)
EOC	QUANT	0	Open Circuit (V)
SEQUENCER	TOGGLE	TRUE	Run as Sequence
PSTATMODEL	IQUANT	5	Pstat Model
PSTATSECTION	LABEL	REF3000-16137	Pstat Section
PSTATSERIALNO	LABEL	16137	Pstat Serial Number
CTRLMODE	IQUANT	1	Control Mode
IESTAB	IQUANT	0	I/E Stability
CASPEED	IQUANT	1	Control Amp Speed
CONVENTION	IQUANT	1	Current Convention
ICHRANGE	IQUANT	2	Ich Range
ICHRANGEMODE	TOGGLE	F	Ich Auto Range
ICHOFFSETENABLE	TOGGLE	T	Ich Offset Enable
ICHOFFSET	QUANT	0	Ich Offset (V)
ICHFILTER	IQUANT	3	Ich Filter
VCHRANGE	IQUANT	2	Vch Range
VCHRANGEMODE	TOGGLE	F	Vch Auto Range
VCHOFFSETENABLE	TOGGLE	T	Vch Offset Enable
VCHOFFSET	QUANT	0	Vch Offset (V)
VCHFILTER	IQUANT	3	Vch Filter
ACHRANGE	IQUANT	2	Ach Range
ACHOFFSETENABLE	TOGGLE	F	Ach Offset Enable
ACHOFFSET	QUANT	0	Ach Offset (V)
ACHFILTER	IQUANT	3	Ach Filter
IERANGELOWERLIMIT	IQUANT	2	I/E Range Lower Limit
IERANGEMODE	TOGGLE	F	I/E AutoRange
IERANGE	IQUANT	11	I/E Range
POSFEEDENABLE	TOGGLE	F	Positive Feedback IR Comp
POSFEEDRESISTANCE	QUANT	0	Positive Feedback Resistance (ohm)
ACHSELECT	IQUANT	0	Ach Select
CABLEID	IQUANT	13	Cable ID
DCCALDATE	LABEL	7/31/2020	DC Calibration Date
ACCALDATE	LABEL	7/31/2020	AC Calibration Date
THERMOSELECT	IQUANT	1	Thermo Select
FRAMEWORKVERSION	QUANT	6.33	Framework Version
INSTRUMENTVERSION	LABEL	3.50	Instrument Version
COMPLIANCEVOLTAGE	IQUANT	0	Compliance Voltage
ZCURVE	TABLE
	Pt	Time	Freq	Zreal	Zimag	Zsig	Zmod	Zphz	Idc	Vdc	IERange
	#	s	Hz	ohm	ohm	V	ohm	°	A	V	#
	0	15	300046.9	994.353	-2359.606	1	2560.562	-67.14912	5.133813E-007	-0.0021544	9
	1	37	238359.4	1352.712	-2838.923	1	3144.728	-64.52277	2.001207E-006	0.0016179	9
	2	56	189328.1	1679.012	-3361.134	1	3757.167	-63.45616	-6.251109E-005	0.0005643	9
	3	63	150421.9	2305.034	-3795.77	1	4440.839	-58.7312	-1.488032E-005	0.0018539	9
	4	72	119484.4	3088.329	-4304.356	1	5297.666	-54.34097	7.537054E-005	-0.0233164	8
	5	80	94921.88	3928.826	-4825.097	1	6222.318	-50.84586	-2.390727E-005	0.0056036	8
	6	87	75421.88	4901.015	-5346.802	1	7253.154	-47.49084	-2.072755E-005	0.0031799	8
	7	95	59859.37	6043.239	-5805.064	1	8379.708	-43.84839	-2.075747E-005	0.0031825	8
	8	103	47578.12	7297.102	-6111.354	1	9518.21	-39.94632	-2.366905E-006	-0.0046009	8
	9	112	37828.12	9498.398	-5665.529	1	11059.74	-30.81489	-4.563608E-006	0.0227943	7
	10	117	30046.88	10736.95	-5577.951	1	12099.41	-27.45231	-3.004953E-006	-0.0037358	7
	11	123	23859.38	11893.33	-5407.179	1	13064.79	-24.44843	4.06545E-007	0.0137134	7
	12	127	18984.38	12986.37	-5098.482	1	13951.35	-21.4351	2.994392E-006	-0.0213125	7
	13	131	15046.87	14080.55	-4711.519	1	14847.9	-18.50085	3.726592E-007	0.0139367	7
	14	136	11953.13	14932.06	-4249.434	1	15524.95	-15.88553	6.358159E-006	-0.0154079	7
	15	140	9515.62	15837.46	-3845.036	1	16297.53	-13.64631	2.794117E-006	-0.0201796	7
	16	144	7546.875	16632.3	-3355.276	1	16967.36	-11.40535	-5.515621E-006	0.0219496	7
	17	148	5928.309	17298.13	-2914.474	1	17541.93	-9.56366	-5.859486E-006	0.0108641	7
	18	153	4733.456	17908.4	-2595.178	1	18095.46	-8.245563	-6.408623E-006	0.0168323	7
	19	157	3796.875	18486.39	-2198.243	1	18616.63	-6.78128	-4.597066E-006	0.0230918	7
	20	161	2987.132	19067.17	-1822.269	1	19154.05	-5.459236	-3.195691E-006	0.0219263	7
	21	165	2390.625	20043.57	-2612.23	1	20213.08	-7.425367	-4.822437E-006	0.0040885	7
	22	170	1884.191	20299.4	-1561.931	1	20359.4	-4.399935	5.889492E-006	-0.0235106	7
	23	174	1516.544	20753.52	-1221.899	1	20789.46	-3.369495	9.790407E-007	-0.0168324	7
	24	178	1193.986	21125.57	-1151.059	1	21156.9	-3.118765	4.552865E-006	-0.0231756	7
	25	183	946.5144	21077.07	-650.8452	1	21087.12	-1.768691	4.324636E-006	-0.0006884	7
	26	185	751.7689	21548.99	-338.4272	1	21551.65	-0.899757	4.554416E-007	0.0134272	7
	27	188	597.4265	22396.83	-610.4617	1	22405.15	-1.561302	-4.932616E-006	0.0043872	7
	28	190	477.4305	22524.06	-513.824	1	22529.92	-1.306818	-8.957651E-008	0.0005446	7
	29	193	376.6741	22806.19	-436.9821	1	22810.37	-1.097692	-8.957387E-008	0.0005973	7
	30	195	298.2954	23096.34	-379.7153	1	23099.46	-0.9418861	-9.104356E-008	0.0005957	7
	31	197	237.7717	23390.77	-338.327	1	23393.21	-0.8286756	-9.494357E-008	0.0005804	7
	32	200	189.0121	23695.29	-308.2281	1	23697.3	-0.745261	-9.231792E-008	0.0005816	7
	33	202	150.2404	24016.87	-287.3072	1	24018.59	-0.6853809	-9.54217E-008	0.0005964	7
	34	205	119.1737	24326.44	-254.4734	1	24327.77	-0.5993363	-9.754918E-008	0.0006321	7
	35	207	95.0169	24642.21	-291.4067	1	24643.93	-0.6775203	-9.537998E-008	0.0005947	7
	36	210	75.60484	24979.93	-315.5026	1	24981.93	-0.7236211	-8.936885E-008	0.0005512	7
	37	212	54.50582	25348.34	-358.6333	1	25350.88	-0.8105777	-9.044882E-008	0.0006595	7
	38	215	45.95588	25661.42	-389.9659	1	25664.38	-0.870633	-1.033753E-007	0.0005716	7
	39	217	37.20238	25986.22	-455.5655	1	25990.22	-1.004351	-1.087079E-007	0.0006087	7
	40	219	30.04808	26335.33	-524.1845	1	26340.54	-1.140278	-7.29884E-008	0.0005521	7
	41	222	23.91582	26698.46	-625.521	1	26705.78	-1.342144	-8.799483E-008	0.0006677	7
	42	224	18.60119	27049.29	-766.5171	1	27060.15	-1.623201	-7.452714E-008	0.0006455	7
	43	226	15.02404	27395.07	-922.0864	1	27410.58	-1.927782	-7.055459E-008	0.0006409	7
	44	229	12.01923	27762.65	-1091.082	1	27784.08	-2.250586	-1.249413E-007	0.0006221	7
	45	231	9.450605	28183.75	-1368.429	1	28216.96	-2.779746	-1.070668E-007	0.0006724	7
	46	234	7.512019	28610.04	-1695.3	1	28660.23	-3.391121	-8.814536E-008	0.0006452	7
	47	236	5.978954	29067.54	-2081.644	1	29141.99	-4.096188	-1.16282E-007	0.0005695	7
	48	239	4.734848	29699.41	-2571.302	1	29810.51	-4.948188	-7.253683E-008	0.0005991	7
	49	243	3.75601	30332	-3224.428	1	30502.91	-6.068009	-1.315275E-007	0.0006232	7
	50	246	3.004808	31023.36	-3851.915	1	31261.58	-7.077722	-8.507812E-008	0.0005316	7
	51	250	2.372217	31934.69	-4769.736	1	32288.92	-8.494849	-1.216742E-007	0.0005907	7
	52	254	1.878005	32865.97	-5847.99	1	33382.2	-10.0893	-1.111974E-007	0.0005945	7
	53	259	1.512097	33922.82	-7127.826	1	34663.57	-11.86631	-9.698131E-008	0.0005413	7
	54	264	1.201923	35369.64	-8865.738	1	36463.86	-14.07181	-1.077777E-007	0.0005983	7
	55	270	0.956633	36972.74	-10908.03	1	38548.27	-16.43759	-1.102146E-007	-4.710128E-005	7
