EXPLAIN
TAG	EISPOT
TITLE	LABEL	Potentiostatic EIS	Test Identifier
DATE	LABEL	9/11/2020	Date
TIME	LABEL	14:49:08	Time
NOTES	NOTES	1	Notes...
	
PSTAT	PSTAT	REF3000-16137	Potentiostat
VDC	POTEN	0.00000E+000	T	DC Voltage (V)
FREQINIT	QUANT	3.00000E+005	Initial Freq. (Hz)
FREQFINAL	QUANT	1.00000E+000	Final Freq. (Hz)
PTSPERDEC	QUANT	1.00000E+001	Points/decade
VAC	QUANT	5.00000E+001	AC Voltage (mV rms)
AREA	QUANT	1.00000E+000	Sample Area (cm^2)
SPEED	SELECTOR	2	Optimize for:
ZGUESS	QUANT	1.00000E+003	Estimated Z (ohms)
EOC	QUANT	0	Open Circuit (V)
SEQUENCER	TOGGLE	TRUE	Run as Sequence
PSTATMODEL	IQUANT	5	Pstat Model
PSTATSECTION	LABEL	REF3000-16137	Pstat Section
PSTATSERIALNO	LABEL	16137	Pstat Serial Number
CTRLMODE	IQUANT	1	Control Mode
IESTAB	IQUANT	0	I/E Stability
CASPEED	IQUANT	1	Control Amp Speed
CONVENTION	IQUANT	1	Current Convention
ICHRANGE	IQUANT	2	Ich Range
ICHRANGEMODE	TOGGLE	F	Ich Auto Range
ICHOFFSETENABLE	TOGGLE	T	Ich Offset Enable
ICHOFFSET	QUANT	0	Ich Offset (V)
ICHFILTER	IQUANT	3	Ich Filter
VCHRANGE	IQUANT	2	Vch Range
VCHRANGEMODE	TOGGLE	F	Vch Auto Range
VCHOFFSETENABLE	TOGGLE	T	Vch Offset Enable
VCHOFFSET	QUANT	0	Vch Offset (V)
VCHFILTER	IQUANT	3	Vch Filter
ACHRANGE	IQUANT	2	Ach Range
ACHOFFSETENABLE	TOGGLE	F	Ach Offset Enable
ACHOFFSET	QUANT	0	Ach Offset (V)
ACHFILTER	IQUANT	3	Ach Filter
IERANGELOWERLIMIT	IQUANT	2	I/E Range Lower Limit
IERANGEMODE	TOGGLE	F	I/E AutoRange
IERANGE	IQUANT	11	I/E Range
POSFEEDENABLE	TOGGLE	F	Positive Feedback IR Comp
POSFEEDRESISTANCE	QUANT	0	Positive Feedback Resistance (ohm)
ACHSELECT	IQUANT	0	Ach Select
CABLEID	IQUANT	13	Cable ID
DCCALDATE	LABEL	7/31/2020	DC Calibration Date
ACCALDATE	LABEL	7/31/2020	AC Calibration Date
THERMOSELECT	IQUANT	1	Thermo Select
FRAMEWORKVERSION	QUANT	6.33	Framework Version
INSTRUMENTVERSION	LABEL	3.50	Instrument Version
COMPLIANCEVOLTAGE	IQUANT	0	Compliance Voltage
ZCURVE	TABLE
	Pt	Time	Freq	Zreal	Zimag	Zsig	Zmod	Zphz	Idc	Vdc	IERange
	#	s	Hz	ohm	ohm	V	ohm	°	A	V	#
	0	10	300046.9	2.41532	2.246602	1	3.298635	42.92733	-0.0006018	-0.0002169	11
	1	13	238359.4	2.378128	1.779356	1	2.970118	36.80447	0.0000957	-0.00025	11
	2	16	189328.1	2.361784	1.396582	1	2.743805	30.59689	0.0005547	0.0003387	11
	3	20	150421.9	2.390891	0.964366	1	2.578054	21.96669	-6.080993E-005	0.0003424	12
	4	23	119484.4	2.367264	0.7414665	1	2.480667	17.39143	0.000131	0.0003311	12
	5	27	94921.88	2.350046	0.5576996	1	2.415314	13.35015	-0.0002668	0.0004045	12
	6	30	75421.88	2.343177	0.3999613	1	2.377067	9.68657	2.090138E-006	0.0004901	12
	7	34	59859.37	2.342333	0.2643603	1	2.357204	6.439265	-0.000275	0.0005114	12
	8	38	47578.12	2.342428	0.1864234	1	2.349835	4.550324	-0.0001719	0.0005177	11
	9	40	37828.12	2.348886	0.0670385	1	2.349842	1.63481	-1.214162E-005	0.0006172	11
	10	43	30046.88	2.356515	-0.0473008	1	2.35699	-1.149905	2.901528E-005	0.0006205	11
	11	45	23859.38	2.368755	-0.1624829	1	2.374321	-3.924012	-1.240332E-005	0.0006445	11
	12	49	18984.38	2.382769	-0.2820458	1	2.399404	-6.750628	-8.298951E-005	0.0006687	11
	13	51	15046.87	2.398529	-0.4150998	1	2.434183	-9.8186	6.873872E-005	0.0006706	11
	14	53	11953.13	2.4188	-0.5641381	1	2.483716	-13.12844	0.0001736	0.0006917	11
	15	55	9515.62	2.442861	-0.7351674	1	2.551086	-16.74892	0.0001055	0.000665	11
	16	58	7546.875	2.473398	-0.9406188	1	2.646216	-20.82152	8.904891E-005	0.000701	11
	17	60	5928.309	2.509811	-1.197283	1	2.780762	-25.50307	-9.106853E-005	0.0006612	11
	18	62	4733.456	2.549772	-1.488243	1	2.952321	-30.27112	0.0001726	0.0006834	11
	19	65	3796.875	2.596435	-1.834735	1	3.179265	-35.24641	-0.0002094	0.0006346	11
	20	67	2987.132	2.657725	-2.298049	1	3.513479	-40.84892	-0.0002099	0.0006068	11
	21	69	2390.625	2.724182	-2.830913	1	3.928771	-46.1007	-0.0002252	0.0006471	11
	22	72	1884.191	2.817469	-3.535274	1	4.520652	-51.44658	0.0001454	0.0004817	10
	23	74	1516.544	2.922278	-4.327363	1	5.221664	-55.96875	0.0001563	0.0004503	10
	24	76	1193.986	3.069853	-5.405568	1	6.216443	-60.40751	0.0001346	0.0004402	10
	25	79	946.5144	3.253314	-6.707747	1	7.45506	-64.12623	-6.822665E-005	0.0008163	10
	26	81	751.7689	3.492116	-8.303461	1	9.007904	-67.19025	-0.0001137	0.0007401	10
	27	83	597.4265	3.804819	-10.25906	1	10.94189	-69.65149	-0.0001196	0.0007412	10
	28	86	477.4305	4.190723	-12.60641	1	13.28472	-71.61175	-2.215256E-006	0.0006441	10
	29	88	376.6741	4.728382	-15.65447	1	16.35298	-73.19323	-2.983466E-006	0.0006481	10
	30	90	298.2954	5.41991	-19.35217	1	20.09681	-74.35418	-2.49569E-006	0.0006505	10
	31	93	237.7717	6.294567	-23.75408	1	24.57393	-75.15837	-2.922162E-006	0.0006547	10
	32	95	189.0121	7.446488	-29.19878	1	30.13335	-75.69298	-2.62149E-006	0.0006539	10
	33	97	150.2404	8.947124	-35.83379	1	36.93388	-75.9808	-2.667325E-006	0.0006527	10
	34	100	119.1737	10.91427	-43.93566	1	45.271	-76.04926	-4.737273E-007	5.421475E-005	9
	35	102	95.0169	13.43458	-53.58379	1	55.24229	-75.92488	-6.061626E-007	5.176614E-005	9
	36	105	75.60484	16.74571	-65.31974	1	67.4321	-75.62103	-6.956492E-007	5.262699E-005	9
	37	107	54.50582	23.24582	-86.27602	1	89.35278	-74.92057	-7.495877E-007	4.59336E-005	9
	38	110	45.95588	27.67779	-99.5047	1	103.2823	-74.45579	-5.528474E-007	5.582994E-005	9
	39	112	37.20238	34.42365	-118.3957	1	123.2986	-73.78817	-7.128734E-007	6.108957E-005	9
	40	114	30.04808	42.73584	-140.6281	1	146.9782	-73.09636	-7.137822E-007	5.697809E-005	9
	41	117	23.91582	53.66103	-168.4376	1	176.7787	-72.3291	-7.714997E-007	5.091619E-005	9
	42	119	18.60119	68.05908	-204.3412	1	215.3773	-71.57884	-3.052865E-007	4.936132E-005	9
	43	122	15.02404	82.6748	-240.4159	1	254.234	-71.0228	-4.496754E-007	5.275979E-005	9
	44	124	12.01923	100.2039	-284.4975	1	301.6283	-70.59703	-3.426813E-007	5.361901E-005	9
	45	126	9.450605	121.7741	-341.2711	1	362.3464	-70.36233	-4.101246E-007	4.745663E-005	9
	46	129	7.512019	145.0191	-404.9008	1	430.0875	-70.29453	-3.77227E-007	0.0006227	8
	47	131	5.978954	171.8554	-482.9628	1	512.6279	-70.41263	-3.944158E-007	0.0006284	8
	48	135	4.734848	204.328	-580.5217	1	615.4311	-70.60931	-3.558222E-007	0.0006611	8
	49	138	3.75601	243.4587	-699.5544	1	740.7081	-70.8111	-4.932571E-007	0.000614	8
	50	141	3.004808	290.1828	-839.5619	1	888.2963	-70.93301	-4.043262E-007	0.0006169	8
	51	145	2.372217	354.985	-1019.727	1	1079.749	-70.80609	-4.629573E-007	0.0006128	8
	52	149	1.878005	442.8619	-1239.401	1	1316.146	-70.3372	-5.299843E-007	0.0006348	8
	53	154	1.512097	549.0742	-1481.596	1	1580.066	-69.66547	-4.890733E-007	0.0005245	8
	54	159	1.201923	703.614	-1784.455	1	1918.164	-68.48059	-5.146641E-007	0.0006372	8
	55	165	0.956633	909.4158	-2132.418	1	2318.241	-66.90312	-5.773728E-007	-8.205623E-006	8
