EXPLAIN
TAG	EISPOT
TITLE	LABEL	Potentiostatic EIS	Test Identifier
DATE	LABEL	9/11/2020	Date
TIME	LABEL	15:42:06	Time
NOTES	NOTES	1	Notes...
	
PSTAT	PSTAT	REF3000-16137	Potentiostat
VDC	POTEN	0.00000E+000	T	DC Voltage (V)
FREQINIT	QUANT	3.00000E+005	Initial Freq. (Hz)
FREQFINAL	QUANT	1.00000E+000	Final Freq. (Hz)
PTSPERDEC	QUANT	1.00000E+001	Points/decade
VAC	QUANT	5.00000E+001	AC Voltage (mV rms)
AREA	QUANT	1.00000E+000	Sample Area (cm^2)
SPEED	SELECTOR	2	Optimize for:
ZGUESS	QUANT	1.00000E+003	Estimated Z (ohms)
EOC	QUANT	0	Open Circuit (V)
SEQUENCER	TOGGLE	TRUE	Run as Sequence
PSTATMODEL	IQUANT	5	Pstat Model
PSTATSECTION	LABEL	REF3000-16137	Pstat Section
PSTATSERIALNO	LABEL	16137	Pstat Serial Number
CTRLMODE	IQUANT	1	Control Mode
IESTAB	IQUANT	0	I/E Stability
CASPEED	IQUANT	1	Control Amp Speed
CONVENTION	IQUANT	1	Current Convention
ICHRANGE	IQUANT	2	Ich Range
ICHRANGEMODE	TOGGLE	F	Ich Auto Range
ICHOFFSETENABLE	TOGGLE	T	Ich Offset Enable
ICHOFFSET	QUANT	0	Ich Offset (V)
ICHFILTER	IQUANT	3	Ich Filter
VCHRANGE	IQUANT	2	Vch Range
VCHRANGEMODE	TOGGLE	F	Vch Auto Range
VCHOFFSETENABLE	TOGGLE	T	Vch Offset Enable
VCHOFFSET	QUANT	0	Vch Offset (V)
VCHFILTER	IQUANT	3	Vch Filter
ACHRANGE	IQUANT	2	Ach Range
ACHOFFSETENABLE	TOGGLE	F	Ach Offset Enable
ACHOFFSET	QUANT	0	Ach Offset (V)
ACHFILTER	IQUANT	3	Ach Filter
IERANGELOWERLIMIT	IQUANT	2	I/E Range Lower Limit
IERANGEMODE	TOGGLE	F	I/E AutoRange
IERANGE	IQUANT	11	I/E Range
POSFEEDENABLE	TOGGLE	F	Positive Feedback IR Comp
POSFEEDRESISTANCE	QUANT	0	Positive Feedback Resistance (ohm)
ACHSELECT	IQUANT	0	Ach Select
CABLEID	IQUANT	13	Cable ID
DCCALDATE	LABEL	7/31/2020	DC Calibration Date
ACCALDATE	LABEL	7/31/2020	AC Calibration Date
THERMOSELECT	IQUANT	1	Thermo Select
FRAMEWORKVERSION	QUANT	6.33	Framework Version
INSTRUMENTVERSION	LABEL	3.50	Instrument Version
COMPLIANCEVOLTAGE	IQUANT	0	Compliance Voltage
ZCURVE	TABLE
	Pt	Time	Freq	Zreal	Zimag	Zsig	Zmod	Zphz	Idc	Vdc	IERange
	#	s	Hz	ohm	ohm	V	ohm	°	A	V	#
	0	7	300046.9	176.7021	-13.03807	1	177.1825	-4.219956	-4.255664E-006	0.0010932	9
	1	10	238359.4	179.6125	-11.10136	1	179.9552	-3.536796	9.314517E-006	-0.0017751	9
	2	14	189328.1	182.0461	-9.325608	1	182.2848	-2.932506	1.211444E-005	-0.0018052	9
	3	16	150421.9	183.9707	-8.170444	1	184.1521	-2.542929	2.036893E-005	-0.0013393	9
	4	19	119484.4	186.0236	-6.84368	1	186.1494	-2.106922	1.818116E-005	-0.0003785	9
	5	22	94921.88	187.5292	-5.463621	1	187.6088	-1.668827	2.573826E-005	-0.0005411	9
	6	24	75421.88	189.0874	-4.689693	1	189.1456	-1.420743	-7.177893E-006	0.000714	9
	7	27	59859.37	190.595	-3.921824	1	190.6354	-1.178794	-2.109993E-005	0.0008776	9
	8	29	47578.12	192.0879	-3.294106	1	192.1161	-0.982466	-1.72477E-005	0.0003101	9
	9	32	37828.12	193.7029	-2.968309	1	193.7256	-0.8779336	2.425272E-005	-0.0007827	9
	10	35	30046.88	195.1529	-2.582443	1	195.17	-0.7581464	2.722193E-005	-0.0007206	9
	11	37	23859.38	196.6373	-2.238486	1	196.6501	-0.6522173	-1.509815E-005	8.930111E-005	9
	12	39	18984.38	197.9799	-2.244308	1	197.9927	-0.6494793	-1.491965E-005	0.0001083	9
	13	42	15046.87	199.4936	-1.919773	1	199.5029	-0.5513535	-2.223773E-005	0.0005528	9
	14	44	11953.13	200.5829	-1.859805	1	200.5915	-0.5312315	-2.166246E-005	0.0004929	9
	15	46	9515.62	202.0635	-2.260591	1	202.0761	-0.6409714	2.365769E-005	-0.0002998	9
	16	49	7546.875	203.5108	-2.813649	1	203.5302	-0.7920955	2.129702E-005	-0.0002227	9
	17	51	5928.309	204.8072	-2.854464	1	204.8271	-0.798498	-2.382244E-005	0.0006885	9
	18	53	4733.456	206.3773	-3.103567	1	206.4007	-0.8615669	-9.120822E-006	0.0008577	9
	19	56	3796.875	207.8916	-3.537534	1	207.9217	-0.974865	2.544278E-005	-0.0007971	9
	20	58	2987.132	209.4194	-4.331171	1	209.4641	-1.184811	-2.027124E-005	0.0009048	9
	21	60	2390.625	210.9677	-5.326106	1	211.0349	-1.446186	7.243161E-006	-0.0006505	9
	22	62	1884.191	212.3477	-6.651013	1	212.4518	-1.793994	-1.862364E-005	0.0003469	9
	23	65	1516.544	214.0571	-7.709486	1	214.1959	-2.062675	1.572318E-005	-0.0008262	9
	24	67	1193.986	215.7798	-9.51165	1	215.9893	-2.523984	2.736134E-005	-0.00066	9
	25	70	946.5144	217.3388	-11.70502	1	217.6538	-3.082748	7.658128E-006	-0.0006329	9
	26	72	751.7689	219.1083	-14.24789	1	219.5711	-3.720517	-2.227646E-005	0.0008053	9
	27	74	597.4265	221.1583	-18.07649	1	221.8958	-4.672714	-2.264441E-005	0.0008387	9
	28	77	477.4305	223.2419	-22.18589	1	224.3416	-5.675448	1.180095E-006	4.701319E-005	9
	29	79	376.6741	225.4616	-27.57487	1	227.1416	-6.972877	1.076805E-006	4.240403E-005	9
	30	81	298.2954	227.8536	-34.16285	1	230.4004	-8.52703	1.112221E-006	4.820257E-005	9
	31	83	237.7717	230.5515	-42.08132	1	234.3604	-10.34402	1.101576E-006	5.025967E-005	9
	32	86	189.0121	233.5789	-51.95504	1	239.2873	-12.54017	1.122918E-006	4.387279E-005	9
	33	88	150.2404	237.051	-64.11287	1	245.568	-15.13415	1.214763E-006	4.148402E-005	9
	34	91	119.1737	241.0125	-79.18291	1	253.6867	-18.18756	1.160256E-006	4.633405E-005	9
	35	93	95.0169	245.5499	-97.2543	1	264.1083	-21.6069	1.052062E-006	4.17942E-005	9
	36	96	75.60484	250.9311	-119.5435	1	277.9515	-25.47311	1.11536E-006	3.677546E-005	9
	37	98	54.50582	259.3817	-160.3094	1	304.9229	-31.71791	1.162257E-006	3.565029E-005	9
	38	101	45.95588	265.3617	-186.8159	1	324.5258	-35.14572	1.162068E-006	4.577534E-005	9
	39	103	37.20238	273.136	-225.7307	1	354.3411	-39.57172	1.151858E-006	4.500554E-005	9
	40	105	30.04808	281.0213	-272.2312	1	391.258	-44.08976	-1.090141E-008	0.0006276	8
	41	108	23.91582	291.9891	-334.2812	1	443.8486	-48.86333	-3.651176E-008	0.0006208	8
	42	110	18.60119	306.0227	-419.5162	1	519.2723	-53.89053	-6.424381E-008	0.000617	8
	43	112	15.02404	320.6071	-509.4016	1	601.8961	-57.81452	-5.192714E-008	0.0006166	8
	44	115	12.01923	339.1386	-624.2836	1	710.4541	-61.48722	7.471676E-008	0.0006117	8
	45	117	9.450605	363.4914	-778.09	1	858.8073	-64.95997	4.013326E-008	0.0006188	8
	46	120	7.512019	393.3684	-960.017	1	1037.483	-67.71857	4.372076E-009	0.0006793	8
	47	122	5.978954	430.4303	-1183.111	1	1258.977	-70.008	4.032046E-008	0.0006218	8
	48	125	4.734848	479.188	-1465.994	1	1542.323	-71.89903	-3.34241E-008	0.0006173	8
	49	129	3.75601	541.3218	-1810.623	1	1889.811	-73.35492	3.939702E-008	0.0006286	8
	50	132	3.004808	618.2668	-2216.723	1	2301.329	-74.41566	3.058083E-009	0.0006547	8
	51	136	2.372217	723.416	-2747.292	1	2840.941	-75.24777	-2.192292E-009	0.0007037	8
	52	140	1.878005	854.0855	-3392.922	1	3498.768	-75.87074	-1.691717E-008	0.0005994	8
	53	145	1.512097	1016.246	-4121.88	1	4245.31	-76.14999	-1.576728E-009	0.000645	7
	54	150	1.201923	1226.617	-5077.924	1	5223.974	-76.41985	-1.320474E-008	0.0005632	7
	55	156	0.956633	1498.579	-6226.554	1	6404.352	-76.46767	-3.220065E-008	-9.478455E-006	7
