EXPLAIN
TAG	EISPOT
TITLE	LABEL	Potentiostatic EIS	Test Identifier
DATE	LABEL	2/25/2021	Date
TIME	LABEL	18:17:06	Time
NOTES	NOTES	1	Notes...
	
PSTAT	PSTAT	REF3000-16137	Potentiostat
VDC	POTEN	0.00000E+000	T	DC Voltage (V)
FREQINIT	QUANT	3.00000E+005	Initial Freq. (Hz)
FREQFINAL	QUANT	1.00000E+000	Final Freq. (Hz)
PTSPERDEC	QUANT	1.00000E+001	Points/decade
VAC	QUANT	5.00000E+001	AC Voltage (mV rms)
AREA	QUANT	1.00000E+000	Sample Area (cm^2)
SPEED	SELECTOR	2	Optimize for:
ZGUESS	QUANT	1.00000E+003	Estimated Z (ohms)
EOC	QUANT	0	Open Circuit (V)
SEQUENCER	TOGGLE	TRUE	Run as Sequence
PSTATMODEL	IQUANT	5	Pstat Model
PSTATSECTION	LABEL	REF3000-16137	Pstat Section
PSTATSERIALNO	LABEL	16137	Pstat Serial Number
CTRLMODE	IQUANT	1	Control Mode
IESTAB	IQUANT	0	I/E Stability
CASPEED	IQUANT	1	Control Amp Speed
CONVENTION	IQUANT	1	Current Convention
ICHRANGE	IQUANT	2	Ich Range
ICHRANGEMODE	TOGGLE	F	Ich Auto Range
ICHOFFSETENABLE	TOGGLE	T	Ich Offset Enable
ICHOFFSET	QUANT	0	Ich Offset (V)
ICHFILTER	IQUANT	3	Ich Filter
VCHRANGE	IQUANT	2	Vch Range
VCHRANGEMODE	TOGGLE	F	Vch Auto Range
VCHOFFSETENABLE	TOGGLE	T	Vch Offset Enable
VCHOFFSET	QUANT	0	Vch Offset (V)
VCHFILTER	IQUANT	3	Vch Filter
ACHRANGE	IQUANT	2	Ach Range
ACHOFFSETENABLE	TOGGLE	F	Ach Offset Enable
ACHOFFSET	QUANT	0	Ach Offset (V)
ACHFILTER	IQUANT	3	Ach Filter
IERANGELOWERLIMIT	IQUANT	2	I/E Range Lower Limit
IERANGEMODE	TOGGLE	F	I/E AutoRange
IERANGE	IQUANT	11	I/E Range
POSFEEDENABLE	TOGGLE	F	Positive Feedback IR Comp
POSFEEDRESISTANCE	QUANT	0	Positive Feedback Resistance (ohm)
ACHSELECT	IQUANT	0	Ach Select
CABLEID	IQUANT	13	Cable ID
DCCALDATE	LABEL	7/31/2020	DC Calibration Date
ACCALDATE	LABEL	7/31/2020	AC Calibration Date
THERMOSELECT	IQUANT	1	Thermo Select
FRAMEWORKVERSION	QUANT	6.33	Framework Version
INSTRUMENTVERSION	LABEL	3.50	Instrument Version
COMPLIANCEVOLTAGE	IQUANT	0	Compliance Voltage
ZCURVE	TABLE
	Pt	Time	Freq	Zreal	Zimag	Zsig	Zmod	Zphz	Idc	Vdc	IERange
	#	s	Hz	ohm	ohm	V	ohm	°	A	V	#
	0	7	300046.9	75.20252	0.7283198	1	75.20605	0.5548796	2.427032E-006	-0.0015233	9
	1	10	238359.4	75.52802	0.2615182	1	75.52847	0.1983877	-8.643978E-006	0.00059	9
	2	13	189328.1	75.88847	-0.099606	1	75.88853	-0.0752024	6.490759E-005	-0.0021268	9
	3	16	150421.9	76.20405	-0.5941902	1	76.20637	-0.4467466	3.891569E-006	-0.0011781	9
	4	19	119484.4	76.54163	-0.958395	1	76.54762	-0.7173756	-2.952424E-005	-0.0001586	9
	5	21	94921.88	76.91427	-1.109869	1	76.92228	-0.826718	1.125733E-005	0.0001433	9
	6	24	75421.88	77.24863	-1.656002	1	77.26637	-1.228079	-4.220085E-006	0.0006061	9
	7	26	59859.37	77.62569	-2.191456	1	77.65662	-1.617092	-1.077186E-005	0.0007593	9
	8	29	47578.12	78.06499	-2.792458	1	78.11492	-2.04865	-1.08526E-005	0.000774	9
	9	31	37828.12	78.54237	-3.425742	1	78.61704	-2.497458	-1.908114E-005	0.0007024	9
	10	34	30046.88	79.10308	-4.134729	1	79.21107	-2.992135	1.663056E-005	-0.0005951	9
	11	36	23859.38	79.67305	-4.971561	1	79.82801	-3.570601	-1.887019E-005	0.0005756	9
	12	39	18984.38	80.29677	-5.921295	1	80.5148	-4.217507	-2.347619E-006	-0.0001868	9
	13	41	15046.87	81.05482	-7.107996	1	81.36589	-5.011658	2.087541E-005	-0.0005703	9
	14	43	11953.13	81.84523	-8.339043	1	82.26896	-5.817674	-1.59373E-005	0.0007425	9
	15	46	9515.62	82.75126	-9.88515	1	83.33959	-6.812058	-1.060523E-005	0.0007768	9
	16	48	7546.875	83.7709	-11.72447	1	84.58739	-7.967288	2.235373E-005	-0.000544	9
	17	50	5928.309	85.03712	-13.99521	1	86.18108	-9.345828	-1.825695E-005	0.0007204	9
	18	52	4733.456	86.36326	-16.45237	1	87.9164	-10.78572	2.275346E-005	-0.0004105	9
	19	55	3796.875	87.91511	-19.29357	1	90.00726	-12.37773	2.736884E-006	0.0003844	9
	20	57	2987.132	89.81122	-22.98035	1	92.70464	-14.35256	-2.580025E-006	-0.0001917	9
	21	59	2390.625	91.8432	-27.01287	1	95.7333	-16.38963	1.718923E-005	-5.471195E-005	9
	22	62	1884.191	94.35506	-32.14202	1	99.6794	-18.8114	-1.570951E-005	0.000361	9
	23	64	1516.544	96.8752	-37.71441	1	103.9576	-21.27143	2.076503E-005	-0.0005978	9
	24	66	1193.986	100.1531	-45.04293	1	109.8158	-24.21539	4.851844E-006	-0.0004033	9
	25	69	946.5144	104.005	-53.49259	1	116.9551	-27.21798	-1.816532E-005	0.0007563	9
	26	71	751.7689	108.4371	-63.52218	1	125.6729	-30.36167	-9.3013E-006	3.386718E-005	9
	27	73	597.4265	113.5824	-75.49739	1	136.3848	-33.61171	-1.595839E-005	0.0007867	9
	28	76	477.4305	119.746	-89.21371	1	149.3258	-36.68702	1.326699E-006	8.939093E-005	9
	29	78	376.6741	127.2447	-106.4298	1	165.8871	-39.90973	1.362026E-006	8.021593E-005	9
	30	80	298.2954	135.9093	-126.5935	1	185.7344	-42.96752	1.27731E-006	8.145715E-005	9
	31	83	237.7717	145.7396	-149.8716	1	209.0491	-45.80081	1.331523E-006	8.86182E-005	9
	32	85	189.0121	157.2745	-177.8785	1	237.4364	-48.51793	1.358152E-006	8.245654E-005	9
	33	88	150.2404	170.6518	-211.3312	1	271.6301	-51.07881	1.378645E-006	8.314312E-005	9
	34	90	119.1737	186.2948	-251.7423	1	313.1772	-53.49775	1.34318E-006	8.693858E-005	9
	35	92	95.0169	204.0636	-299.1472	1	362.1201	-55.7001	1.348209E-006	8.655358E-005	9
	36	95	75.60484	224.0635	-355.0879	1	419.8713	-57.74773	2.777674E-007	0.0006594	8
	37	97	54.50582	260.1813	-457.6276	1	526.4194	-60.37987	2.799175E-007	0.0006482	8
	38	100	45.95588	282.9764	-523.1801	1	594.8051	-61.59203	3.192102E-007	0.0006616	8
	39	102	37.20238	315.3494	-617.8163	1	693.6442	-62.95906	2.795377E-007	0.0006651	8
	40	105	30.04808	353.9194	-731.549	1	812.6641	-64.18256	2.8914E-007	0.0006596	8
	41	107	23.91582	403.042	-876.9274	1	965.114	-65.31615	2.540286E-007	0.0006597	8
	42	110	18.60119	468.0703	-1071.407	1	1169.189	-66.40072	2.43312E-007	0.0006666	8
	43	112	15.02404	535.4989	-1271.082	1	1379.278	-67.1546	2.448481E-007	0.0006582	8
	44	114	12.01923	619.418	-1519.834	1	1641.211	-67.82633	3.480557E-007	0.0006659	8
	45	117	9.450605	730.3622	-1843.166	1	1982.596	-68.38384	2.539159E-007	0.0006845	8
	46	119	7.512019	860.3431	-2216.831	1	2377.926	-68.78897	2.862371E-007	0.0006766	8
	47	122	5.978954	1019.501	-2661.064	1	2849.674	-69.03727	2.78423E-007	0.0006674	8
	48	125	4.734848	1219.509	-3207.198	1	3431.227	-69.18114	3.503277E-007	0.0006911	8
	49	128	3.75601	1468.75	-3854.625	1	4124.967	-69.14137	2.878785E-007	0.0006458	8
	50	132	3.004808	1767.483	-4605.146	1	4932.683	-69.0029	1.015992E-008	0.0006408	7
	51	135	2.372217	2163.47	-5532.787	1	5940.735	-68.64315	1.223641E-008	0.0006786	7
	52	139	1.878005	2645.05	-6644.373	1	7151.501	-68.29305	-6.010491E-009	0.0006283	7
	53	144	1.512097	3180.91	-7838.131	1	8458.988	-67.91145	1.185198E-008	0.0005592	7
	54	150	1.201923	3901.131	-9327.531	1	10110.47	-67.30345	2.572916E-009	0.0006225	7
	55	156	0.956633	4759.236	-11048.96	1	12030.37	-66.69648	-3.196122E-010	-9.181834E-006	7
