EXPLAIN
TAG	EISPOT
TITLE	LABEL	Potentiostatic EIS	Test Identifier
DATE	LABEL	2/25/2021	Date
TIME	LABEL	17:52:16	Time
NOTES	NOTES	1	Notes...
	
PSTAT	PSTAT	REF3000-16137	Potentiostat
VDC	POTEN	0.00000E+000	T	DC Voltage (V)
FREQINIT	QUANT	3.00000E+005	Initial Freq. (Hz)
FREQFINAL	QUANT	1.00000E+000	Final Freq. (Hz)
PTSPERDEC	QUANT	1.00000E+001	Points/decade
VAC	QUANT	5.00000E+001	AC Voltage (mV rms)
AREA	QUANT	1.00000E+000	Sample Area (cm^2)
SPEED	SELECTOR	2	Optimize for:
ZGUESS	QUANT	1.00000E+003	Estimated Z (ohms)
EOC	QUANT	0	Open Circuit (V)
SEQUENCER	TOGGLE	TRUE	Run as Sequence
PSTATMODEL	IQUANT	5	Pstat Model
PSTATSECTION	LABEL	REF3000-16137	Pstat Section
PSTATSERIALNO	LABEL	16137	Pstat Serial Number
CTRLMODE	IQUANT	1	Control Mode
IESTAB	IQUANT	0	I/E Stability
CASPEED	IQUANT	1	Control Amp Speed
CONVENTION	IQUANT	1	Current Convention
ICHRANGE	IQUANT	2	Ich Range
ICHRANGEMODE	TOGGLE	F	Ich Auto Range
ICHOFFSETENABLE	TOGGLE	T	Ich Offset Enable
ICHOFFSET	QUANT	0	Ich Offset (V)
ICHFILTER	IQUANT	3	Ich Filter
VCHRANGE	IQUANT	2	Vch Range
VCHRANGEMODE	TOGGLE	F	Vch Auto Range
VCHOFFSETENABLE	TOGGLE	T	Vch Offset Enable
VCHOFFSET	QUANT	0	Vch Offset (V)
VCHFILTER	IQUANT	3	Vch Filter
ACHRANGE	IQUANT	2	Ach Range
ACHOFFSETENABLE	TOGGLE	F	Ach Offset Enable
ACHOFFSET	QUANT	0	Ach Offset (V)
ACHFILTER	IQUANT	3	Ach Filter
IERANGELOWERLIMIT	IQUANT	2	I/E Range Lower Limit
IERANGEMODE	TOGGLE	F	I/E AutoRange
IERANGE	IQUANT	11	I/E Range
POSFEEDENABLE	TOGGLE	F	Positive Feedback IR Comp
POSFEEDRESISTANCE	QUANT	0	Positive Feedback Resistance (ohm)
ACHSELECT	IQUANT	0	Ach Select
CABLEID	IQUANT	13	Cable ID
DCCALDATE	LABEL	7/31/2020	DC Calibration Date
ACCALDATE	LABEL	7/31/2020	AC Calibration Date
THERMOSELECT	IQUANT	1	Thermo Select
FRAMEWORKVERSION	QUANT	6.33	Framework Version
INSTRUMENTVERSION	LABEL	3.50	Instrument Version
COMPLIANCEVOLTAGE	IQUANT	0	Compliance Voltage
ZCURVE	TABLE
	Pt	Time	Freq	Zreal	Zimag	Zsig	Zmod	Zphz	Idc	Vdc	IERange
	#	s	Hz	ohm	ohm	V	ohm	°	A	V	#
	0	8	300046.9	20.62313	1.523512	1	20.67933	4.224992	7.654413E-005	9.225048E-005	10
	1	11	238359.4	20.67452	1.070119	1	20.7022	2.963002	1.624651E-005	0.0003055	10
	2	14	189328.1	20.74628	0.6473829	1	20.75638	1.787321	2.527692E-005	0.0006458	10
	3	16	150421.9	20.80905	0.2469459	1	20.81051	0.6799107	4.677624E-005	0.0006509	10
	4	19	119484.4	20.91401	-0.0888374	1	20.9142	-0.2433764	2.047798E-005	0.0005743	10
	5	22	94921.88	21.01391	-0.4157585	1	21.01802	-1.133444	5.641866E-006	0.0006058	10
	6	24	75421.88	21.1381	-0.7623639	1	21.15184	-2.065527	-2.915253E-006	0.0006253	10
	7	27	59859.37	21.28185	-1.107404	1	21.31064	-2.978709	-1.014278E-005	0.0006605	10
	8	29	47578.12	21.44355	-1.476691	1	21.49434	-3.939404	-2.353973E-005	0.0007062	10
	9	32	37828.12	21.63069	-1.87871	1	21.71212	-4.963906	2.612774E-005	0.0006819	10
	10	34	30046.88	21.84481	-2.322443	1	21.96792	-6.068635	6.833231E-006	0.000637	10
	11	37	23859.38	22.08583	-2.821121	1	22.26528	-7.279226	-2.852054E-005	0.000738	10
	12	39	18984.38	22.35992	-3.397601	1	22.61658	-8.640032	-2.637774E-005	0.0007341	10
	13	41	15046.87	22.67927	-4.08323	1	23.04392	-10.20632	1.581414E-005	0.0006596	10
	14	44	11953.13	23.04007	-4.868266	1	23.54877	-11.93086	-2.475287E-005	0.0007464	10
	15	46	9515.62	23.45013	-5.793943	1	24.1553	-13.87841	2.10973E-005	0.000649	10
	16	48	7546.875	23.93768	-6.902835	1	24.91308	-16.08581	5.479297E-006	0.000667	10
	17	51	5928.309	24.51408	-8.284541	1	25.87613	-18.6727	2.131965E-005	0.0006863	10
	18	53	4733.456	25.15304	-9.82913	1	27.00531	-21.34421	-4.719642E-006	0.0007006	10
	19	55	3796.875	25.86375	-11.63215	1	28.35913	-24.2157	2.568741E-005	0.0007049	10
	20	58	2987.132	26.78445	-13.96129	1	30.20471	-27.5306	2.43205E-005	0.0006774	10
	21	60	2390.625	27.79137	-16.57219	1	32.35734	-30.80792	2.580522E-005	0.0007081	10
	22	62	1884.191	29.04914	-19.89034	1	35.20622	-34.39998	-1.494147E-005	0.0007122	10
	23	65	1516.544	30.39001	-23.4785	1	38.40303	-37.68871	1.405475E-005	-0.0002559	9
	24	67	1193.986	32.15466	-28.23162	1	42.78956	-41.28296	1.398432E-005	-0.0001411	9
	25	69	946.5144	34.17558	-33.80752	1	48.07202	-44.68981	1.469902E-005	-0.0001972	9
	26	72	751.7689	36.53445	-40.39357	1	54.46473	-47.87185	1.389039E-005	-0.0001462	9
	27	74	597.4265	39.30162	-48.30981	1	62.27724	-50.87051	1.470638E-005	-0.0002153	9
	28	76	477.4305	42.47653	-57.565	1	71.54009	-53.57682	1.251095E-006	9.121384E-005	9
	29	79	376.6741	46.43308	-69.3728	1	83.47824	-56.20454	1.267153E-006	8.561507E-005	9
	30	81	298.2954	51.06067	-83.45032	1	97.8322	-58.53883	1.247279E-006	9.126562E-005	9
	31	83	237.7717	56.42228	-99.9567	1	114.7816	-60.55669	1.261997E-006	9.418728E-005	9
	32	86	189.0121	62.88783	-120.0836	1	135.5542	-62.35892	1.261775E-006	0.0000953	9
	33	88	150.2404	70.64005	-144.3581	1	160.7149	-63.92569	1.207805E-006	8.633971E-005	9
	34	91	119.1737	80.03718	-173.9487	1	191.4787	-65.29192	1.129557E-006	0.000096	9
	35	93	95.0169	91.11902	-208.8315	1	227.8448	-66.42701	1.304349E-006	8.798768E-005	9
	36	95	75.60484	104.6199	-251.2367	1	272.1492	-67.39219	1.298958E-006	8.968861E-005	9
	37	98	54.50582	129.1886	-327.5639	1	352.119	-68.47613	1.270774E-006	8.748569E-005	9
	38	101	45.95588	144.5333	-374.6405	1	401.5537	-68.90379	4.888676E-007	0.0006733	8
	39	103	37.20238	167.9003	-444.5873	1	475.2351	-69.31074	5.325636E-007	0.0006648	8
	40	105	30.04808	196.6906	-528.49	1	563.905	-69.58601	4.580776E-007	0.0006703	8
	41	108	23.91582	234.1703	-634.8668	1	676.6768	-69.75352	4.741352E-007	0.0006722	8
	42	110	18.60119	286.2175	-776.4609	1	827.5338	-69.76521	5.671128E-007	0.0006737	8
	43	112	15.02404	340.9205	-919.4601	1	980.629	-69.65606	4.784224E-007	0.0006809	8
	44	115	12.01923	411.1866	-1096.217	1	1170.797	-69.43913	5.483915E-007	0.0006692	8
	45	117	9.450605	505.3947	-1321.265	1	1414.625	-69.06774	4.086792E-007	0.0006664	8
	46	120	7.512019	614.8156	-1576.578	1	1692.216	-68.69579	4.353405E-007	0.0006521	8
	47	122	5.978954	749.6474	-1875.73	1	2019.984	-68.21557	4.845418E-007	0.0006735	8
	48	125	4.734848	920.2907	-2234.016	1	2416.146	-67.61106	4.886124E-007	0.0006579	8
	49	129	3.75601	1125.236	-2652.356	1	2881.171	-67.01138	5.154401E-007	0.0006779	8
	50	132	3.004808	1362.982	-3116.948	1	3401.924	-66.38116	5.614926E-007	0.0006397	8
	51	136	2.372217	1672.142	-3691.527	1	4052.583	-65.63101	5.26446E-007	0.0005876	8
	52	140	1.878005	2033.909	-4360.678	1	4811.683	-64.9947	3.108817E-008	0.0006478	7
	53	145	1.512097	2427.922	-5059.761	1	5612.129	-64.36602	2.811599E-008	0.0005547	7
	54	150	1.201923	2921.51	-5939.268	1	6618.922	-63.80755	1.786019E-008	0.000678	7
	55	156	0.956633	3492.231	-6948.791	1	7776.978	-63.31742	-1.104029E-008	-5.000787E-006	7
