EXPLAIN
TAG	EISPOT
TITLE	LABEL	Potentiostatic EIS	Test Identifier
DATE	LABEL	2/25/2021	Date
TIME	LABEL	17:43:58	Time
NOTES	NOTES	1	Notes...
	
PSTAT	PSTAT	REF3000-16137	Potentiostat
VDC	POTEN	0.00000E+000	T	DC Voltage (V)
FREQINIT	QUANT	3.00000E+005	Initial Freq. (Hz)
FREQFINAL	QUANT	1.00000E+000	Final Freq. (Hz)
PTSPERDEC	QUANT	1.00000E+001	Points/decade
VAC	QUANT	5.00000E+001	AC Voltage (mV rms)
AREA	QUANT	1.00000E+000	Sample Area (cm^2)
SPEED	SELECTOR	2	Optimize for:
ZGUESS	QUANT	1.00000E+003	Estimated Z (ohms)
EOC	QUANT	0	Open Circuit (V)
SEQUENCER	TOGGLE	TRUE	Run as Sequence
PSTATMODEL	IQUANT	5	Pstat Model
PSTATSECTION	LABEL	REF3000-16137	Pstat Section
PSTATSERIALNO	LABEL	16137	Pstat Serial Number
CTRLMODE	IQUANT	1	Control Mode
IESTAB	IQUANT	0	I/E Stability
CASPEED	IQUANT	1	Control Amp Speed
CONVENTION	IQUANT	1	Current Convention
ICHRANGE	IQUANT	2	Ich Range
ICHRANGEMODE	TOGGLE	F	Ich Auto Range
ICHOFFSETENABLE	TOGGLE	T	Ich Offset Enable
ICHOFFSET	QUANT	0	Ich Offset (V)
ICHFILTER	IQUANT	3	Ich Filter
VCHRANGE	IQUANT	2	Vch Range
VCHRANGEMODE	TOGGLE	F	Vch Auto Range
VCHOFFSETENABLE	TOGGLE	T	Vch Offset Enable
VCHOFFSET	QUANT	0	Vch Offset (V)
VCHFILTER	IQUANT	3	Vch Filter
ACHRANGE	IQUANT	2	Ach Range
ACHOFFSETENABLE	TOGGLE	F	Ach Offset Enable
ACHOFFSET	QUANT	0	Ach Offset (V)
ACHFILTER	IQUANT	3	Ach Filter
IERANGELOWERLIMIT	IQUANT	2	I/E Range Lower Limit
IERANGEMODE	TOGGLE	F	I/E AutoRange
IERANGE	IQUANT	11	I/E Range
POSFEEDENABLE	TOGGLE	F	Positive Feedback IR Comp
POSFEEDRESISTANCE	QUANT	0	Positive Feedback Resistance (ohm)
ACHSELECT	IQUANT	0	Ach Select
CABLEID	IQUANT	13	Cable ID
DCCALDATE	LABEL	7/31/2020	DC Calibration Date
ACCALDATE	LABEL	7/31/2020	AC Calibration Date
THERMOSELECT	IQUANT	1	Thermo Select
FRAMEWORKVERSION	QUANT	6.33	Framework Version
INSTRUMENTVERSION	LABEL	3.50	Instrument Version
COMPLIANCEVOLTAGE	IQUANT	0	Compliance Voltage
ZCURVE	TABLE
	Pt	Time	Freq	Zreal	Zimag	Zsig	Zmod	Zphz	Idc	Vdc	IERange
	#	s	Hz	ohm	ohm	V	ohm	°	A	V	#
	0	8	300046.9	15.50198	1.737536	1	15.59905	6.395295	-9.320748E-005	0.000386	10
	1	11	238359.4	15.52262	1.214543	1	15.57006	4.473904	7.805448E-005	7.601241E-005	10
	2	14	189328.1	15.55904	0.7815778	1	15.57866	2.875723	1.076411E-005	0.0003868	10
	3	17	150421.9	15.61342	0.4183963	1	15.61903	1.535	6.540446E-005	0.000521	10
	4	20	119484.4	15.67781	0.0545773	1	15.67791	0.1994561	2.452003E-005	0.0007468	10
	5	22	94921.88	15.75142	-0.2513977	1	15.75343	-0.9143811	-1.184933E-005	0.0007061	10
	6	25	75421.88	15.84534	-0.5794443	1	15.85593	-2.094302	5.854313E-006	0.000607	10
	7	27	59859.37	15.95643	-0.9092411	1	15.98232	-3.261343	1.983139E-006	0.0006249	10
	8	30	47578.12	16.08535	-1.246066	1	16.13354	-4.429621	-2.464937E-006	0.0006354	10
	9	32	37828.12	16.23287	-1.607448	1	16.31227	-5.655235	1.818769E-005	0.0007116	10
	10	35	30046.88	16.4038	-2.009111	1	16.52638	-6.982715	-1.714576E-005	0.0006664	10
	11	37	23859.38	16.59676	-2.45887	1	16.77791	-8.427278	-2.098685E-005	0.0007222	10
	12	40	18984.38	16.81755	-2.981262	1	17.07975	-10.05244	-1.311484E-005	0.0006595	10
	13	42	15046.87	17.07777	-3.594704	1	17.45199	-11.88668	-3.825762E-006	0.0006487	10
	14	44	11953.13	17.36819	-4.302578	1	17.89319	-13.91363	1.290962E-005	0.0006593	10
	15	46	9515.62	17.70799	-5.140727	1	18.43909	-16.1883	-2.967754E-005	0.0006773	10
	16	49	7546.875	18.10519	-6.13767	1	19.11724	-18.72669	-2.557943E-005	0.0007148	10
	17	51	5928.309	18.58637	-7.40409	1	20.00684	-21.72042	-1.772929E-005	0.0006759	10
	18	53	4733.456	19.11807	-8.81188	1	21.05113	-24.74586	-2.653167E-005	0.0007102	10
	19	56	3796.875	19.7312	-10.43656	1	22.32134	-27.876	-6.984787E-006	0.0006715	10
	20	58	2987.132	20.51219	-12.59298	1	24.06934	-31.54686	-2.699254E-005	0.0006999	10
	21	60	2390.625	21.3777	-14.9742	1	26.10044	-35.00965	2.005343E-005	0.0006555	10
	22	63	1884.191	22.46585	-18.02202	1	28.80118	-38.73646	6.088469E-006	0.0006419	10
	23	65	1516.544	23.63691	-21.35734	1	31.85655	-42.09967	2.562938E-005	0.0006718	10
	24	67	1193.986	25.15637	-25.73165	1	35.98556	-45.64768	-3.824237E-006	0.0006571	10
	25	70	946.5144	26.8552	-30.88515	1	40.92792	-48.99244	1.153129E-005	-0.0002061	9
	26	72	751.7689	28.90359	-37.0042	1	46.95454	-52.00697	9.359048E-006	-0.0002016	9
	27	74	597.4265	31.27404	-44.41185	1	54.31831	-54.84747	-5.343864E-006	0.0003406	9
	28	77	477.4305	34.07867	-53.08615	1	63.08324	-57.30156	1.330692E-006	9.318439E-005	9
	29	79	376.6741	37.58049	-64.17323	1	74.36731	-59.64632	1.310117E-006	8.173488E-005	9
	30	81	298.2954	41.71546	-77.4097	1	87.9343	-61.68013	1.295797E-006	8.774173E-005	9
	31	84	237.7717	46.52651	-92.94125	1	103.9365	-63.40739	1.209266E-006	0.000109	9
	32	86	189.0121	52.37231	-111.9011	1	123.5505	-64.91931	1.304443E-006	8.717307E-005	9
	33	88	150.2404	59.41063	-134.8018	1	147.3131	-66.21568	1.287096E-006	8.934121E-005	9
	34	91	119.1737	68.00481	-162.7442	1	176.3812	-67.32175	1.283549E-006	8.954643E-005	9
	35	93	95.0169	78.19999	-195.722	1	210.7661	-68.22101	1.244196E-006	8.961745E-005	9
	36	96	75.60484	90.73965	-235.8419	1	252.6956	-68.95588	1.279897E-006	9.012604E-005	9
	37	98	54.50582	113.8288	-307.9874	1	328.3493	-69.71622	1.341081E-006	0.0000953	9
	38	101	45.95588	128.9651	-353.8952	1	376.6614	-69.97745	1.338866E-006	9.394636E-005	9
	39	103	37.20238	150.661	-418.3476	1	444.6498	-70.19434	5.139611E-007	0.0006794	8
	40	106	30.04808	178.1852	-497.1315	1	528.1001	-70.28096	5.027484E-007	0.000687	8
	41	108	23.91582	214.3622	-597.2021	1	634.5089	-70.25469	4.159369E-007	0.0006689	8
	42	110	18.60119	263.843	-729.1759	1	775.4422	-70.10799	5.153586E-007	0.0006684	8
	43	113	15.02404	316.0227	-863.1163	1	919.1519	-69.89023	6.375369E-007	0.0006771	8
	44	115	12.01923	382.7829	-1027.347	1	1096.342	-69.56493	4.81066E-007	0.0006606	8
	45	117	9.450605	472.106	-1236.771	1	1323.815	-69.10691	6.224807E-007	0.0006631	8
	46	120	7.512019	576.4788	-1474.75	1	1583.419	-68.64951	4.877452E-007	0.0006654	8
	47	123	5.978954	702.8205	-1751.836	1	1887.561	-68.13979	4.961091E-007	0.0006625	8
	48	126	4.734848	863.1569	-2082.573	1	2254.362	-67.48763	4.95771E-007	0.0006414	8
	49	129	3.75601	1055.442	-2467.343	1	2683.605	-66.84048	5.831062E-007	0.0006869	8
	50	132	3.004808	1277.92	-2897.506	1	3166.8	-66.20055	5.755657E-007	0.0006462	8
	51	136	2.372217	1566.317	-3426.557	1	3767.578	-65.43433	5.383987E-007	0.0005944	8
	52	140	1.878005	1899.896	-4042.458	1	4466.662	-64.82716	3.844438E-008	0.0006382	7
	53	145	1.512097	2257.49	-4685.057	1	5200.579	-64.27295	2.156942E-008	0.0006119	7
	54	150	1.201923	2711.667	-5494.41	1	6127.126	-63.73219	2.255834E-008	0.000656	7
	55	157	0.956633	3233.765	-6420.67	1	7189.036	-63.26793	-2.686351E-008	-4.21239E-006	7
