EXPLAIN
TAG	EISPOT
TITLE	LABEL	Potentiostatic EIS	Test Identifier
DATE	LABEL	2/25/2021	Date
TIME	LABEL	17:46:44	Time
NOTES	NOTES	1	Notes...
	
PSTAT	PSTAT	REF3000-16137	Potentiostat
VDC	POTEN	0.00000E+000	T	DC Voltage (V)
FREQINIT	QUANT	3.00000E+005	Initial Freq. (Hz)
FREQFINAL	QUANT	1.00000E+000	Final Freq. (Hz)
PTSPERDEC	QUANT	1.00000E+001	Points/decade
VAC	QUANT	5.00000E+001	AC Voltage (mV rms)
AREA	QUANT	1.00000E+000	Sample Area (cm^2)
SPEED	SELECTOR	2	Optimize for:
ZGUESS	QUANT	1.00000E+003	Estimated Z (ohms)
EOC	QUANT	0	Open Circuit (V)
SEQUENCER	TOGGLE	TRUE	Run as Sequence
PSTATMODEL	IQUANT	5	Pstat Model
PSTATSECTION	LABEL	REF3000-16137	Pstat Section
PSTATSERIALNO	LABEL	16137	Pstat Serial Number
CTRLMODE	IQUANT	1	Control Mode
IESTAB	IQUANT	0	I/E Stability
CASPEED	IQUANT	1	Control Amp Speed
CONVENTION	IQUANT	1	Current Convention
ICHRANGE	IQUANT	2	Ich Range
ICHRANGEMODE	TOGGLE	F	Ich Auto Range
ICHOFFSETENABLE	TOGGLE	T	Ich Offset Enable
ICHOFFSET	QUANT	0	Ich Offset (V)
ICHFILTER	IQUANT	3	Ich Filter
VCHRANGE	IQUANT	2	Vch Range
VCHRANGEMODE	TOGGLE	F	Vch Auto Range
VCHOFFSETENABLE	TOGGLE	T	Vch Offset Enable
VCHOFFSET	QUANT	0	Vch Offset (V)
VCHFILTER	IQUANT	3	Vch Filter
ACHRANGE	IQUANT	2	Ach Range
ACHOFFSETENABLE	TOGGLE	F	Ach Offset Enable
ACHOFFSET	QUANT	0	Ach Offset (V)
ACHFILTER	IQUANT	3	Ach Filter
IERANGELOWERLIMIT	IQUANT	2	I/E Range Lower Limit
IERANGEMODE	TOGGLE	F	I/E AutoRange
IERANGE	IQUANT	11	I/E Range
POSFEEDENABLE	TOGGLE	F	Positive Feedback IR Comp
POSFEEDRESISTANCE	QUANT	0	Positive Feedback Resistance (ohm)
ACHSELECT	IQUANT	0	Ach Select
CABLEID	IQUANT	13	Cable ID
DCCALDATE	LABEL	7/31/2020	DC Calibration Date
ACCALDATE	LABEL	7/31/2020	AC Calibration Date
THERMOSELECT	IQUANT	1	Thermo Select
FRAMEWORKVERSION	QUANT	6.33	Framework Version
INSTRUMENTVERSION	LABEL	3.50	Instrument Version
COMPLIANCEVOLTAGE	IQUANT	0	Compliance Voltage
ZCURVE	TABLE
	Pt	Time	Freq	Zreal	Zimag	Zsig	Zmod	Zphz	Idc	Vdc	IERange
	#	s	Hz	ohm	ohm	V	ohm	°	A	V	#
	0	8	300046.9	16.80082	1.671174	1	16.88373	5.680514	2.794583E-006	0.000461	10
	1	11	238359.4	16.86019	1.179787	1	16.90142	4.002732	1.953351E-005	0.0002967	10
	2	14	189328.1	16.9071	0.7539479	1	16.9239	2.553331	-5.317905E-005	0.0005513	10
	3	17	150421.9	16.97978	0.3553725	1	16.9835	1.198978	1.32704E-005	0.0004955	10
	4	19	119484.4	17.04259	0.0229302	1	17.04261	0.0770892	-1.784814E-005	0.000695	10
	5	22	94921.88	17.12657	-0.2964361	1	17.12913	-0.991608	-6.259927E-006	0.000629	10
	6	24	75421.88	17.22629	-0.6262305	1	17.23767	-2.081967	-2.750626E-005	0.0006912	10
	7	27	59859.37	17.34974	-0.963649	1	17.37648	-3.179089	2.47981E-005	0.0006515	10
	8	29	47578.12	17.4901	-1.309195	1	17.53903	-4.280804	2.055937E-005	0.0006367	10
	9	32	37828.12	17.64964	-1.678599	1	17.72929	-5.432869	-2.500723E-005	0.0007158	10
	10	34	30046.88	17.83243	-2.094752	1	17.95504	-6.699755	-2.422994E-005	0.0007355	10
	11	37	23859.38	18.04229	-2.567299	1	18.22403	-8.098447	-2.433736E-005	0.000703	10
	12	39	18984.38	18.27972	-3.096826	1	18.54018	-9.61537	-3.089863E-006	0.0007317	10
	13	42	15046.87	18.55494	-3.723864	1	18.92493	-11.34816	-2.447328E-005	0.0007199	10
	14	44	11953.13	18.87173	-4.465773	1	19.39292	-13.31347	2.333925E-005	0.0006481	10
	15	46	9515.62	19.23233	-5.320139	1	19.95461	-15.46276	2.98232E-006	0.0006668	10
	16	49	7546.875	19.65597	-6.360879	1	20.65957	-17.93213	3.419803E-006	0.0006681	10
	17	51	5928.309	20.16249	-7.651296	1	21.56544	-20.78084	2.385567E-005	0.0006732	10
	18	53	4733.456	20.72951	-9.093403	1	22.63631	-23.68559	2.552663E-005	0.0006682	10
	19	56	3796.875	21.37115	-10.79529	1	23.94293	-26.79988	-2.970794E-005	0.0006825	10
	20	58	2987.132	22.20069	-12.96671	1	25.71005	-30.28783	-1.147034E-005	0.0006749	10
	21	60	2390.625	23.09818	-15.41172	1	27.76773	-33.71227	2.511318E-005	0.0006616	10
	22	62	1884.191	24.24314	-18.53874	1	30.51908	-37.40516	-2.618063E-005	0.0007194	10
	23	65	1516.544	25.46868	-21.95739	1	33.62708	-40.76571	-2.823922E-005	0.0007067	10
	24	67	1193.986	27.06208	-26.44093	1	37.83489	-44.33484	1.949583E-005	0.0006405	10
	25	70	946.5144	28.86403	-31.65999	1	42.84259	-47.64495	-8.456373E-006	0.0004004	9
	26	72	751.7689	30.96926	-37.93086	1	48.9678	-50.76953	1.29611E-005	-0.000129	9
	27	74	597.4265	33.50269	-45.49237	1	56.49767	-53.63035	1.30541E-005	-0.0001768	9
	28	77	477.4305	36.38632	-54.31981	1	65.38048	-56.1837	1.225578E-006	8.336668E-005	9
	29	79	376.6741	40.01974	-65.60624	1	76.84893	-58.61685	1.225751E-006	8.14137E-005	9
	30	81	298.2954	44.30183	-79.07306	1	90.63775	-60.73964	1.205526E-006	8.564975E-005	9
	31	83	237.7717	49.28069	-94.86368	1	106.9004	-62.54859	1.207813E-006	8.423236E-005	9
	32	86	189.0121	55.32034	-114.1396	1	126.8392	-64.1418	1.214218E-006	8.548366E-005	9
	33	88	150.2404	62.57665	-137.4043	1	150.9827	-65.51454	1.216399E-006	8.467942E-005	9
	34	91	119.1737	71.41763	-165.7744	1	180.5038	-66.69304	1.201329E-006	8.757353E-005	9
	35	93	95.0169	81.88037	-199.2478	1	215.4161	-67.65992	1.214958E-006	8.690525E-005	9
	36	96	75.60484	94.7199	-239.9443	1	257.9634	-68.45798	1.218573E-006	8.750919E-005	9
	37	98	54.50582	118.2628	-313.181	1	334.7663	-69.31256	1.228931E-006	8.455606E-005	9
	38	101	45.95588	133.6467	-359.7768	1	383.7978	-69.62141	1.440412E-006	9.071993E-005	9
	39	103	37.20238	155.7162	-425.2845	1	452.8956	-69.88999	4.987773E-007	0.0006703	8
	40	105	30.04808	183.6932	-505.3601	1	537.71	-70.02431	4.829579E-007	0.0006659	8
	41	108	23.91582	220.0703	-606.668	1	645.3503	-70.06164	5.328184E-007	0.0006593	8
	42	110	18.60119	270.4216	-741.179	1	788.9703	-69.95534	3.641599E-007	0.0006652	8
	43	112	15.02404	323.5207	-877.324	1	935.0739	-69.75812	6.007823E-007	0.0006706	8
	44	115	12.01923	391.4668	-1044.328	1	1115.288	-69.45148	5.527534E-007	0.000668	8
	45	117	9.450605	481.9692	-1258.479	1	1347.614	-69.04428	4.825018E-007	0.0006567	8
	46	120	7.512019	587.6531	-1499.489	1	1610.529	-68.59967	4.496168E-007	0.0006534	8
	47	122	5.978954	718.1762	-1782.424	1	1921.669	-68.05446	5.507169E-007	0.0006643	8
	48	125	4.734848	879.4502	-2121.137	1	2296.227	-67.48049	4.976633E-007	0.0006178	8
	49	129	3.75601	1076.937	-2511.622	1	2732.771	-66.79124	5.703143E-007	0.000681	8
	50	132	3.004808	1304.417	-2950.491	1	3225.973	-66.14969	5.472853E-007	0.0006709	8
	51	136	2.372217	1593.191	-3485.525	1	3832.381	-65.43544	5.576085E-007	0.0006505	8
	52	140	1.878005	1945.315	-4118.72	1	4555.009	-64.71814	4.636363E-008	0.0006245	7
	53	145	1.512097	2316.499	-4783.069	1	5314.5	-64.15852	1.964283E-008	0.0007305	7
	54	150	1.201923	2782.969	-5598.53	1	6252.077	-63.56852	3.4255E-008	0.000624	7
	55	156	0.956633	3315.212	-6540.23	1	7332.478	-63.11977	-2.902166E-008	-6.846387E-006	7
