EXPLAIN
TAG	EISPOT
TITLE	LABEL	Potentiostatic EIS	Test Identifier
DATE	LABEL	2/25/2021	Date
TIME	LABEL	17:57:47	Time
NOTES	NOTES	1	Notes...
	
PSTAT	PSTAT	REF3000-16137	Potentiostat
VDC	POTEN	0.00000E+000	T	DC Voltage (V)
FREQINIT	QUANT	3.00000E+005	Initial Freq. (Hz)
FREQFINAL	QUANT	1.00000E+000	Final Freq. (Hz)
PTSPERDEC	QUANT	1.00000E+001	Points/decade
VAC	QUANT	5.00000E+001	AC Voltage (mV rms)
AREA	QUANT	1.00000E+000	Sample Area (cm^2)
SPEED	SELECTOR	2	Optimize for:
ZGUESS	QUANT	1.00000E+003	Estimated Z (ohms)
EOC	QUANT	0	Open Circuit (V)
SEQUENCER	TOGGLE	TRUE	Run as Sequence
PSTATMODEL	IQUANT	5	Pstat Model
PSTATSECTION	LABEL	REF3000-16137	Pstat Section
PSTATSERIALNO	LABEL	16137	Pstat Serial Number
CTRLMODE	IQUANT	1	Control Mode
IESTAB	IQUANT	0	I/E Stability
CASPEED	IQUANT	1	Control Amp Speed
CONVENTION	IQUANT	1	Current Convention
ICHRANGE	IQUANT	2	Ich Range
ICHRANGEMODE	TOGGLE	F	Ich Auto Range
ICHOFFSETENABLE	TOGGLE	T	Ich Offset Enable
ICHOFFSET	QUANT	0	Ich Offset (V)
ICHFILTER	IQUANT	3	Ich Filter
VCHRANGE	IQUANT	2	Vch Range
VCHRANGEMODE	TOGGLE	F	Vch Auto Range
VCHOFFSETENABLE	TOGGLE	T	Vch Offset Enable
VCHOFFSET	QUANT	0	Vch Offset (V)
VCHFILTER	IQUANT	3	Vch Filter
ACHRANGE	IQUANT	2	Ach Range
ACHOFFSETENABLE	TOGGLE	F	Ach Offset Enable
ACHOFFSET	QUANT	0	Ach Offset (V)
ACHFILTER	IQUANT	3	Ach Filter
IERANGELOWERLIMIT	IQUANT	2	I/E Range Lower Limit
IERANGEMODE	TOGGLE	F	I/E AutoRange
IERANGE	IQUANT	11	I/E Range
POSFEEDENABLE	TOGGLE	F	Positive Feedback IR Comp
POSFEEDRESISTANCE	QUANT	0	Positive Feedback Resistance (ohm)
ACHSELECT	IQUANT	0	Ach Select
CABLEID	IQUANT	13	Cable ID
DCCALDATE	LABEL	7/31/2020	DC Calibration Date
ACCALDATE	LABEL	7/31/2020	AC Calibration Date
THERMOSELECT	IQUANT	1	Thermo Select
FRAMEWORKVERSION	QUANT	6.33	Framework Version
INSTRUMENTVERSION	LABEL	3.50	Instrument Version
COMPLIANCEVOLTAGE	IQUANT	0	Compliance Voltage
ZCURVE	TABLE
	Pt	Time	Freq	Zreal	Zimag	Zsig	Zmod	Zphz	Idc	Vdc	IERange
	#	s	Hz	ohm	ohm	V	ohm	°	A	V	#
	0	7	300046.9	25.81821	1.05594	1	25.8398	2.342037	-6.985821E-005	-0.0002416	11
	1	12	238359.4	25.90852	0.9270709	1	25.9251	2.04931	-1.515816E-005	0.0004819	10
	2	15	189328.1	25.99507	0.2793511	1	25.99657	0.6156946	1.394119E-005	0.0006644	11
	3	18	150421.9	26.10286	0.1162463	1	26.10312	0.2551589	6.68386E-005	0.0005384	10
	4	21	119484.4	26.23353	-0.2185431	1	26.23444	-0.4773016	2.191476E-005	0.000611	10
	5	23	94921.88	26.35226	-0.5594295	1	26.3582	-1.216143	1.906608E-005	0.0007086	10
	6	26	75421.88	26.50778	-0.9154339	1	26.52358	-1.977897	2.4172E-005	0.000623	10
	7	28	59859.37	26.67279	-1.285591	1	26.70375	-2.75944	1.496252E-005	0.0006307	10
	8	31	47578.12	26.86844	-1.67581	1	26.92065	-3.568969	1.472741E-005	0.0006634	10
	9	34	37828.12	27.07852	-2.096129	1	27.15953	-4.426399	-2.833429E-006	0.0006485	10
	10	36	30046.88	27.32954	-2.58198	1	27.45124	-5.397046	2.151986E-005	0.0006511	10
	11	39	23859.38	27.6075	-3.129373	1	27.7843	-6.467003	6.982772E-006	0.000642	10
	12	41	18984.38	27.92487	-3.744173	1	28.17476	-7.636685	6.157831E-006	0.0006329	10
	13	43	15046.87	28.29235	-4.487885	1	28.64609	-9.013466	-2.540968E-005	0.0006804	10
	14	46	11953.13	28.70946	-5.341697	1	29.20217	-10.53996	-1.087453E-005	0.0006647	10
	15	48	9515.62	29.18256	-6.345089	1	29.8644	-12.26675	-2.370223E-005	0.0006983	10
	16	50	7546.875	29.73024	-7.532616	1	30.66965	-14.21758	-2.690823E-005	0.0007404	10
	17	52	5928.309	30.39616	-9.030393	1	31.70922	-16.54615	2.201475E-005	0.0006946	10
	18	55	4733.456	31.11521	-10.67716	1	32.89617	-18.93962	2.44215E-005	0.0006593	10
	19	57	3796.875	31.93037	-12.58314	1	34.32032	-21.50843	-1.021397E-005	0.0006737	10
	20	59	2987.132	32.96673	-15.11096	1	36.26495	-24.62531	-1.160705E-005	0.0006774	10
	21	62	2390.625	34.0528	-17.85007	1	38.4476	-27.66299	-1.023351E-005	0.0003411	9
	22	64	1884.191	35.46358	-21.41525	1	41.42799	-31.12635	1.431099E-005	-0.0003295	9
	23	66	1516.544	36.99371	-25.28108	1	44.807	-34.34826	-6.694955E-006	0.0004635	9
	24	69	1193.986	38.95804	-30.35159	1	49.38571	-37.92159	-9.519365E-006	0.0004952	9
	25	71	946.5144	41.21982	-36.27593	1	54.90917	-41.34973	-1.289411E-005	0.0003681	9
	26	73	751.7689	43.85351	-43.24614	1	61.59025	-44.60047	1.561516E-005	-0.0002965	9
	27	76	597.4265	46.91191	-51.61225	1	69.74635	-47.73137	-1.155656E-005	0.0004776	9
	28	78	477.4305	50.44682	-61.36295	1	79.43736	-50.57619	1.353779E-006	8.847941E-005	9
	29	80	376.6741	54.80089	-73.77143	1	91.89865	-53.3933	1.253784E-006	8.724698E-005	9
	30	83	298.2954	59.86106	-88.5407	1	106.8775	-55.93795	1.268456E-006	9.04066E-005	9
	31	85	237.7717	65.67465	-105.8404	1	124.5606	-58.18013	1.189904E-006	9.297088E-005	9
	32	88	189.0121	72.65179	-126.9378	1	146.2583	-60.21571	1.260699E-006	0.0000962	9
	33	90	150.2404	80.95639	-152.3662	1	172.5381	-62.01705	1.280521E-006	9.18151E-005	9
	34	92	119.1737	90.99773	-183.3554	1	204.6944	-63.60518	1.269096E-006	0.0001012	9
	35	95	95.0169	102.7772	-219.8818	1	242.7162	-64.94766	1.290622E-006	9.426589E-005	9
	36	97	75.60484	117.0681	-264.301	1	289.0674	-66.10978	1.263716E-006	9.3626E-005	9
	37	100	54.50582	142.7765	-344.0981	1	372.5435	-67.465	1.341969E-006	0.0000961	9
	38	102	45.95588	158.674	-393.3708	1	424.1674	-68.03233	4.593232E-007	0.000685	8
	39	105	37.20238	182.7941	-466.6877	1	501.2096	-68.61052	4.547676E-007	0.0006801	8
	40	107	30.04808	212.2257	-554.6258	1	593.843	-69.06081	4.409045E-007	0.000674	8
	41	109	23.91582	251.0442	-667.0729	1	712.7478	-69.37683	4.040786E-007	0.0006708	8
	42	112	18.60119	303.9772	-816.2194	1	870.9858	-69.57362	4.440757E-007	0.000677	8
	43	114	15.02404	360.2773	-968.103	1	1032.968	-69.58737	4.576694E-007	0.0006678	8
	44	116	12.01923	432.5006	-1155.787	1	1234.059	-69.48393	3.71687E-007	0.0006674	8
	45	119	9.450605	528.6927	-1396.005	1	1492.765	-69.2574	5.514411E-007	0.0006699	8
	46	121	7.512019	642.6456	-1668.74	1	1788.208	-68.9379	5.665017E-007	0.0006721	8
	47	124	5.978954	781.2601	-1988.463	1	2136.435	-68.55032	5.459708E-007	0.0006713	8
	48	127	4.734848	957.879	-2374.192	1	2560.141	-68.02815	5.155699E-007	0.0006891	8
	49	130	3.75601	1171.729	-2825.283	1	3058.623	-67.47476	4.913232E-007	0.0006676	8
	50	134	3.004808	1420.334	-3328.165	1	3618.567	-66.88906	4.70009E-007	0.0007006	8
	51	138	2.372217	1748.661	-3960.831	1	4329.665	-66.17909	2.9906E-008	0.0007211	7
	52	142	1.878005	2128.001	-4677.904	1	5139.181	-65.53899	8.444673E-009	0.0006186	7
	53	146	1.512097	2544.629	-5438.81	1	6004.647	-64.92675	1.143569E-008	0.0006986	7
	54	152	1.201923	3074.308	-6396.267	1	7096.731	-64.32915	2.18809E-008	0.0006125	7
	55	158	0.956633	3686.266	-7496.496	1	8353.802	-63.81519	-1.136304E-008	1.139741E-006	7
