EXPLAIN
TAG	EISPOT
TITLE	LABEL	Potentiostatic EIS	Test Identifier
DATE	LABEL	2/25/2021	Date
TIME	LABEL	17:49:30	Time
NOTES	NOTES	1	Notes...
	
PSTAT	PSTAT	REF3000-16137	Potentiostat
VDC	POTEN	0.00000E+000	T	DC Voltage (V)
FREQINIT	QUANT	3.00000E+005	Initial Freq. (Hz)
FREQFINAL	QUANT	1.00000E+000	Final Freq. (Hz)
PTSPERDEC	QUANT	1.00000E+001	Points/decade
VAC	QUANT	5.00000E+001	AC Voltage (mV rms)
AREA	QUANT	1.00000E+000	Sample Area (cm^2)
SPEED	SELECTOR	2	Optimize for:
ZGUESS	QUANT	1.00000E+003	Estimated Z (ohms)
EOC	QUANT	0	Open Circuit (V)
SEQUENCER	TOGGLE	TRUE	Run as Sequence
PSTATMODEL	IQUANT	5	Pstat Model
PSTATSECTION	LABEL	REF3000-16137	Pstat Section
PSTATSERIALNO	LABEL	16137	Pstat Serial Number
CTRLMODE	IQUANT	1	Control Mode
IESTAB	IQUANT	0	I/E Stability
CASPEED	IQUANT	1	Control Amp Speed
CONVENTION	IQUANT	1	Current Convention
ICHRANGE	IQUANT	2	Ich Range
ICHRANGEMODE	TOGGLE	F	Ich Auto Range
ICHOFFSETENABLE	TOGGLE	T	Ich Offset Enable
ICHOFFSET	QUANT	0	Ich Offset (V)
ICHFILTER	IQUANT	3	Ich Filter
VCHRANGE	IQUANT	2	Vch Range
VCHRANGEMODE	TOGGLE	F	Vch Auto Range
VCHOFFSETENABLE	TOGGLE	T	Vch Offset Enable
VCHOFFSET	QUANT	0	Vch Offset (V)
VCHFILTER	IQUANT	3	Vch Filter
ACHRANGE	IQUANT	2	Ach Range
ACHOFFSETENABLE	TOGGLE	F	Ach Offset Enable
ACHOFFSET	QUANT	0	Ach Offset (V)
ACHFILTER	IQUANT	3	Ach Filter
IERANGELOWERLIMIT	IQUANT	2	I/E Range Lower Limit
IERANGEMODE	TOGGLE	F	I/E AutoRange
IERANGE	IQUANT	11	I/E Range
POSFEEDENABLE	TOGGLE	F	Positive Feedback IR Comp
POSFEEDRESISTANCE	QUANT	0	Positive Feedback Resistance (ohm)
ACHSELECT	IQUANT	0	Ach Select
CABLEID	IQUANT	13	Cable ID
DCCALDATE	LABEL	7/31/2020	DC Calibration Date
ACCALDATE	LABEL	7/31/2020	AC Calibration Date
THERMOSELECT	IQUANT	1	Thermo Select
FRAMEWORKVERSION	QUANT	6.33	Framework Version
INSTRUMENTVERSION	LABEL	3.50	Instrument Version
COMPLIANCEVOLTAGE	IQUANT	0	Compliance Voltage
ZCURVE	TABLE
	Pt	Time	Freq	Zreal	Zimag	Zsig	Zmod	Zphz	Idc	Vdc	IERange
	#	s	Hz	ohm	ohm	V	ohm	°	A	V	#
	0	8	300046.9	18.50975	1.643934	1	18.58261	5.075379	-2.44416E-005	0.0002814	10
	1	11	238359.4	18.57078	1.131461	1	18.60521	3.486547	-2.354259E-005	0.0003123	10
	2	14	189328.1	18.63194	0.7039419	1	18.64523	2.163689	-5.349847E-005	0.000559	10
	3	17	150421.9	18.70953	0.3236851	1	18.71233	0.99115	-0.0000958	0.0005832	10
	4	19	119484.4	18.77924	-0.029375	1	18.77926	-0.0896236	8.063619E-005	0.0004271	10
	5	22	94921.88	18.87546	-0.3521581	1	18.87874	-1.068839	-1.704341E-005	0.0006417	10
	6	24	75421.88	18.9906	-0.6917603	1	19.00319	-2.08616	-1.920497E-005	0.0006363	10
	7	27	59859.37	19.12248	-1.034125	1	19.15042	-3.095484	2.294044E-005	0.0006551	10
	8	29	47578.12	19.29663	-1.38759	1	19.34645	-4.11297	-1.634112E-005	0.0006663	10
	9	32	37828.12	19.46708	-1.772458	1	19.5476	-5.20238	1.454542E-005	0.0006334	10
	10	34	30046.88	19.66445	-2.200961	1	19.78724	-6.386301	-3.028529E-006	0.0006471	10
	11	37	23859.38	19.88997	-2.684317	1	20.07029	-7.686102	-2.187113E-005	0.0007492	10
	12	39	18984.38	20.14712	-3.240827	1	20.40611	-9.138208	2.33238E-006	0.0006665	10
	13	41	15046.87	20.44426	-3.897394	1	20.81244	-10.79309	-1.83339E-005	0.0006645	10
	14	44	11953.13	20.78015	-4.656604	1	21.2955	-12.6307	-1.04564E-005	0.0006636	10
	15	46	9515.62	21.16668	-5.541869	1	21.88015	-14.67187	1.418459E-005	0.0006598	10
	16	48	7546.875	21.61444	-6.608784	1	22.60222	-17.00142	2.405253E-005	0.0006483	10
	17	51	5928.309	22.16247	-7.941521	1	23.54236	-19.71422	-1.17633E-005	0.0006649	10
	18	53	4733.456	22.75806	-9.439955	1	24.63822	-22.52848	-2.622386E-005	0.0007127	10
	19	55	3796.875	23.44809	-11.17349	1	25.97422	-25.47874	1.999709E-005	0.0006555	10
	20	58	2987.132	24.30763	-13.44112	1	27.77633	-28.9408	-2.735061E-005	0.0007045	10
	21	60	2390.625	25.26093	-15.97055	1	29.886	-32.30202	-1.786904E-005	0.0006679	10
	22	62	1884.191	26.44729	-19.17052	1	32.66448	-35.93676	2.515957E-005	0.0006708	10
	23	65	1516.544	27.75092	-22.67353	1	35.83577	-39.25009	1.955768E-005	0.0006368	10
	24	67	1193.986	29.39881	-27.27048	1	40.09948	-42.84915	6.893792E-006	7.300272E-005	9
	25	69	946.5144	31.33233	-32.64833	1	45.25073	-46.17833	1.067481E-005	-7.539907E-005	9
	26	72	751.7689	33.55997	-39.07923	1	51.51173	-49.34509	1.244943E-005	-0.0002522	9
	27	74	597.4265	36.19738	-46.77372	1	59.14416	-52.26432	2.57182E-006	-0.00011	9
	28	76	477.4305	39.21251	-55.8444	1	68.23648	-54.92445	1.182354E-006	9.058043E-005	9
	29	79	376.6741	42.99947	-67.37817	1	79.92979	-57.45475	1.232521E-006	8.12662E-005	9
	30	81	298.2954	47.45024	-81.13664	1	93.99298	-59.6801	1.224276E-006	9.122253E-005	9
	31	83	237.7717	52.611	-97.2715	1	110.5878	-61.59247	1.211329E-006	9.184923E-005	9
	32	86	189.0121	58.85265	-116.9549	1	130.9278	-63.28809	1.333741E-006	8.626508E-005	9
	33	88	150.2404	66.34755	-140.6958	1	155.5548	-64.75296	1.191662E-006	8.967979E-005	9
	34	91	119.1737	75.46151	-169.6589	1	185.6841	-66.02128	1.433341E-006	8.396035E-005	9
	35	93	95.0169	86.21875	-203.7913	1	221.2794	-67.06805	1.309761E-006	8.433854E-005	9
	36	95	75.60484	99.3788	-245.309	1	264.6746	-67.94629	1.208262E-006	9.113428E-005	9
	37	98	54.50582	123.4043	-320.0132	1	342.9826	-68.91225	1.245239E-006	8.385285E-005	9
	38	100	45.95588	139.047	-367.6097	1	393.028	-69.28106	1.333312E-006	9.202439E-005	9
	39	103	37.20238	161.3993	-434.4383	1	463.4505	-69.61933	5.139911E-007	0.0006626	8
	40	105	30.04808	189.8069	-516.359	1	550.1393	-69.81722	4.946374E-007	0.0006693	8
	41	108	23.91582	226.7948	-620.1841	1	660.3516	-69.91306	5.112882E-007	0.000661	8
	42	110	18.60119	278.1361	-757.951	1	807.3719	-69.84899	5.660191E-007	0.0006644	8
	43	112	15.02404	332.044	-897.8659	1	957.296	-69.70486	6.096357E-007	0.0006726	8
	44	115	12.01923	401.0629	-1069.37	1	1142.105	-69.44164	4.817172E-007	0.0006687	8
	45	117	9.450605	493.6034	-1288.94	1	1380.221	-69.04551	6.110752E-007	0.0006651	8
	46	120	7.512019	601.5688	-1537.148	1	1650.669	-68.62691	5.463536E-007	0.0006906	8
	47	122	5.978954	734.0535	-1826.399	1	1968.392	-68.10416	5.546563E-007	0.0006779	8
	48	125	4.734848	900.6646	-2173.326	1	2352.561	-67.49002	5.703159E-007	0.0007008	8
	49	129	3.75601	1101.188	-2577.104	1	2802.513	-66.86314	4.835375E-007	0.0006593	8
	50	132	3.004808	1334.51	-3029.307	1	3310.229	-66.22491	4.981911E-007	0.0006948	8
	51	136	2.372217	1637.219	-3582.395	1	3938.786	-65.43875	5.245631E-007	0.0007429	8
	52	140	1.878005	1989.09	-4231.092	1	4675.32	-64.82119	-8.839719E-009	0.000616	7
	53	145	1.512097	2369.815	-4905.678	1	5448.091	-64.21593	2.627538E-009	0.0006804	7
	54	150	1.201923	2850.682	-5754.825	1	6422.18	-63.64825	8.755236E-009	0.0006102	7
	55	156	0.956633	3405.523	-6729.632	1	7542.25	-63.15836	-2.25262E-008	-7.811518E-007	7
