EXPLAIN
TAG	EISPOT
TITLE	LABEL	Potentiostatic EIS	Test Identifier
DATE	LABEL	2/25/2021	Date
TIME	LABEL	18:30:56	Time
NOTES	NOTES	1	Notes...
	
PSTAT	PSTAT	REF3000-16137	Potentiostat
VDC	POTEN	0.00000E+000	T	DC Voltage (V)
FREQINIT	QUANT	3.00000E+005	Initial Freq. (Hz)
FREQFINAL	QUANT	1.00000E+000	Final Freq. (Hz)
PTSPERDEC	QUANT	1.00000E+001	Points/decade
VAC	QUANT	5.00000E+001	AC Voltage (mV rms)
AREA	QUANT	1.00000E+000	Sample Area (cm^2)
SPEED	SELECTOR	2	Optimize for:
ZGUESS	QUANT	1.00000E+003	Estimated Z (ohms)
EOC	QUANT	0	Open Circuit (V)
SEQUENCER	TOGGLE	TRUE	Run as Sequence
PSTATMODEL	IQUANT	5	Pstat Model
PSTATSECTION	LABEL	REF3000-16137	Pstat Section
PSTATSERIALNO	LABEL	16137	Pstat Serial Number
CTRLMODE	IQUANT	1	Control Mode
IESTAB	IQUANT	0	I/E Stability
CASPEED	IQUANT	1	Control Amp Speed
CONVENTION	IQUANT	1	Current Convention
ICHRANGE	IQUANT	2	Ich Range
ICHRANGEMODE	TOGGLE	F	Ich Auto Range
ICHOFFSETENABLE	TOGGLE	T	Ich Offset Enable
ICHOFFSET	QUANT	0	Ich Offset (V)
ICHFILTER	IQUANT	3	Ich Filter
VCHRANGE	IQUANT	2	Vch Range
VCHRANGEMODE	TOGGLE	F	Vch Auto Range
VCHOFFSETENABLE	TOGGLE	T	Vch Offset Enable
VCHOFFSET	QUANT	0	Vch Offset (V)
VCHFILTER	IQUANT	3	Vch Filter
ACHRANGE	IQUANT	2	Ach Range
ACHOFFSETENABLE	TOGGLE	F	Ach Offset Enable
ACHOFFSET	QUANT	0	Ach Offset (V)
ACHFILTER	IQUANT	3	Ach Filter
IERANGELOWERLIMIT	IQUANT	2	I/E Range Lower Limit
IERANGEMODE	TOGGLE	F	I/E AutoRange
IERANGE	IQUANT	11	I/E Range
POSFEEDENABLE	TOGGLE	F	Positive Feedback IR Comp
POSFEEDRESISTANCE	QUANT	0	Positive Feedback Resistance (ohm)
ACHSELECT	IQUANT	0	Ach Select
CABLEID	IQUANT	13	Cable ID
DCCALDATE	LABEL	7/31/2020	DC Calibration Date
ACCALDATE	LABEL	7/31/2020	AC Calibration Date
THERMOSELECT	IQUANT	1	Thermo Select
FRAMEWORKVERSION	QUANT	6.33	Framework Version
INSTRUMENTVERSION	LABEL	3.50	Instrument Version
COMPLIANCEVOLTAGE	IQUANT	0	Compliance Voltage
ZCURVE	TABLE
	Pt	Time	Freq	Zreal	Zimag	Zsig	Zmod	Zphz	Idc	Vdc	IERange
	#	s	Hz	ohm	ohm	V	ohm	°	A	V	#
	0	8	300046.9	222.9247	-12.24528	1	223.2608	-3.144104	-1.85908E-005	0.0009321	9
	1	14	238359.4	224.9497	-10.96444	1	225.2167	-2.790489	-7.658363E-005	0.0031642	9
	2	19	189328.1	227.6813	-9.459934	1	227.8777	-2.379215	2.120125E-005	-0.0016388	9
	3	23	150421.9	228.9731	-7.8006	1	229.1059	-1.951184	-3.217225E-005	-0.0005207	9
	4	27	119484.4	230.9895	-7.708837	1	231.1181	-1.911429	2.005796E-005	-0.001249	9
	5	31	94921.88	232.624	-7.111317	1	232.7327	-1.750987	2.562128E-005	-0.0004801	9
	6	34	75421.88	233.8082	-6.682117	1	233.9037	-1.637038	2.356328E-005	-0.0002735	9
	7	36	59859.37	235.0074	-6.698128	1	235.1029	-1.632589	8.908258E-007	0.0006454	9
	8	39	47578.12	236.5081	-6.897804	1	236.6086	-1.670569	-2.315113E-005	0.0006535	9
	9	41	37828.12	238.1194	-7.320959	1	238.2319	-1.760999	-2.24329E-005	0.000678	9
	10	45	30046.88	239.9983	-7.889414	1	240.128	-1.882794	2.618967E-005	-0.0007879	9
	11	48	23859.38	241.8921	-9.069145	1	242.062	-2.147158	-2.135537E-005	0.0004601	9
	12	52	18984.38	243.8076	-10.44624	1	244.0312	-2.453408	2.391009E-005	-0.0002021	9
	13	56	15046.87	245.5515	-12.03239	1	245.8461	-2.805335	2.614834E-005	-0.0004028	9
	14	59	11953.13	248.3561	-13.3546	1	248.7149	-3.077944	-2.316179E-005	0.0006651	9
	15	62	9515.62	250.2698	-16.04585	1	250.7836	-3.668453	1.122042E-005	-0.0007438	9
	16	66	7546.875	253.8426	-18.00967	1	254.4807	-4.058231	1.549679E-005	-0.0006852	9
	17	69	5928.309	256.4622	-22.53381	1	257.4502	-5.021346	1.094575E-005	0.0003044	9
	18	73	4733.456	259.5844	-25.89296	1	260.8726	-5.696281	2.671587E-005	-0.0004533	9
	19	76	3796.875	262.9697	-31.05417	1	264.7969	-6.734885	1.989916E-005	-1.70563E-005	9
	20	80	2987.132	267.1559	-36.29961	1	269.6107	-7.737638	2.637371E-005	-0.0004587	9
	21	83	2390.625	271.4732	-42.52997	1	274.7845	-8.90379	2.307031E-005	-0.0008074	9
	22	87	1884.191	275.4491	-51.9285	1	280.3012	-10.67627	2.644896E-005	-0.0007725	9
	23	89	1516.544	281.1703	-59.09573	1	287.3135	-11.86953	2.189217E-005	-0.0008136	9
	24	91	1193.986	286.9177	-70.17794	1	295.3755	-13.74428	-2.348739E-005	0.0008592	9
	25	95	946.5144	295.0461	-82.6972	1	306.4164	-15.65743	-1.266746E-006	-0.0003704	9
	26	97	751.7689	302.131	-97.9497	1	317.6119	-17.96249	-1.298795E-006	-0.0003679	9
	27	100	597.4265	310.639	-115.6701	1	331.4757	-20.42341	-9.987687E-006	-5.810229E-005	9
	28	102	477.4305	321.2847	-136.4102	1	349.0438	-23.00498	1.276375E-006	7.813234E-005	9
	29	104	376.6741	333.731	-162.4485	1	371.1683	-25.95519	1.196763E-006	7.618812E-005	9
	30	107	298.2954	346.7468	-192.2028	1	396.4534	-28.99974	5.775136E-008	0.0006651	8
	31	109	237.7717	363.3535	-227.3483	1	428.6176	-32.03399	6.739118E-008	0.0006443	8
	32	112	189.0121	383.1555	-269.3908	1	468.3797	-35.11047	6.894879E-008	0.0006435	8
	33	114	150.2404	406.5453	-319.02	1	516.7715	-38.12162	6.648104E-008	0.0006475	8
	34	116	119.1737	434.3541	-378.1632	1	575.9088	-41.04392	7.12337E-008	0.0006601	8
	35	119	95.0169	466.1864	-446.2943	1	645.3746	-43.75115	5.179614E-008	0.0006597	8
	36	121	75.60484	503.5813	-527.3202	1	729.1507	-46.31913	5.038861E-008	0.000655	8
	37	124	54.50582	566.8656	-669.3375	1	877.1255	-49.73855	3.775105E-008	0.0006678	8
	38	126	45.95588	606.1511	-758.821	1	971.199	-51.38192	6.83094E-008	0.0006645	8
	39	129	37.20238	660.2438	-886.7832	1	1105.58	-53.33092	7.52396E-008	0.0006523	8
	40	131	30.04808	722.8221	-1039.351	1	1265.987	-55.18312	7.212127E-008	0.0006502	8
	41	133	23.91582	799.5215	-1233.314	1	1469.795	-57.04583	6.579467E-008	0.0006641	8
	42	136	18.60119	897.7414	-1491.97	1	1741.239	-58.96403	1.06682E-007	0.0006629	8
	43	138	15.02404	996.481	-1756.614	1	2019.572	-60.43489	9.165669E-008	0.0006633	8
	44	140	12.01923	1117.043	-2087.782	1	2367.83	-61.85152	2.220877E-008	0.0006578	8
	45	143	9.450605	1268.752	-2516.508	1	2818.252	-63.24405	6.846915E-008	0.0006658	8
	46	145	7.512019	1444.166	-3014.219	1	3342.324	-64.4001	6.693539E-008	0.0006545	8
	47	148	5.978954	1649.832	-3607.204	1	3966.594	-65.42199	6.560191E-008	0.000648	8
	48	151	4.734848	1910.195	-4351.166	1	4751.998	-66.29816	-8.928034E-009	0.0006374	7
	49	154	3.75601	2213.936	-5232.723	1	5681.805	-67.06705	-1.189411E-008	0.0006269	7
	50	158	3.004808	2565.741	-6249.391	1	6755.583	-67.67898	5.620313E-009	0.0005882	7
	51	161	2.372217	3015.707	-7546.11	1	8126.393	-68.21651	-9.902644E-009	0.0005996	7
	52	166	1.878005	3578.97	-9107.174	1	9785.17	-68.54598	-1.579282E-008	0.0006376	7
	53	170	1.512097	4197.778	-10839.88	1	11624.3	-68.83096	-7.797539E-009	0.0005254	7
	54	176	1.201923	5013.088	-13040.52	1	13970.9	-68.97205	-1.581291E-008	0.0006439	7
	55	182	0.956633	5995.673	-15654.69	1	16763.57	-69.04339	-1.7412E-008	-8.266493E-006	7
