EXPLAIN
TAG	EISPOT
TITLE	LABEL	Potentiostatic EIS	Test Identifier
DATE	LABEL	2/25/2021	Date
TIME	LABEL	18:28:08	Time
NOTES	NOTES	1	Notes...
	
PSTAT	PSTAT	REF3000-16137	Potentiostat
VDC	POTEN	0.00000E+000	T	DC Voltage (V)
FREQINIT	QUANT	3.00000E+005	Initial Freq. (Hz)
FREQFINAL	QUANT	1.00000E+000	Final Freq. (Hz)
PTSPERDEC	QUANT	1.00000E+001	Points/decade
VAC	QUANT	5.00000E+001	AC Voltage (mV rms)
AREA	QUANT	1.00000E+000	Sample Area (cm^2)
SPEED	SELECTOR	2	Optimize for:
ZGUESS	QUANT	1.00000E+003	Estimated Z (ohms)
EOC	QUANT	0	Open Circuit (V)
SEQUENCER	TOGGLE	TRUE	Run as Sequence
PSTATMODEL	IQUANT	5	Pstat Model
PSTATSECTION	LABEL	REF3000-16137	Pstat Section
PSTATSERIALNO	LABEL	16137	Pstat Serial Number
CTRLMODE	IQUANT	1	Control Mode
IESTAB	IQUANT	0	I/E Stability
CASPEED	IQUANT	1	Control Amp Speed
CONVENTION	IQUANT	1	Current Convention
ICHRANGE	IQUANT	2	Ich Range
ICHRANGEMODE	TOGGLE	F	Ich Auto Range
ICHOFFSETENABLE	TOGGLE	T	Ich Offset Enable
ICHOFFSET	QUANT	0	Ich Offset (V)
ICHFILTER	IQUANT	3	Ich Filter
VCHRANGE	IQUANT	2	Vch Range
VCHRANGEMODE	TOGGLE	F	Vch Auto Range
VCHOFFSETENABLE	TOGGLE	T	Vch Offset Enable
VCHOFFSET	QUANT	0	Vch Offset (V)
VCHFILTER	IQUANT	3	Vch Filter
ACHRANGE	IQUANT	2	Ach Range
ACHOFFSETENABLE	TOGGLE	F	Ach Offset Enable
ACHOFFSET	QUANT	0	Ach Offset (V)
ACHFILTER	IQUANT	3	Ach Filter
IERANGELOWERLIMIT	IQUANT	2	I/E Range Lower Limit
IERANGEMODE	TOGGLE	F	I/E AutoRange
IERANGE	IQUANT	11	I/E Range
POSFEEDENABLE	TOGGLE	F	Positive Feedback IR Comp
POSFEEDRESISTANCE	QUANT	0	Positive Feedback Resistance (ohm)
ACHSELECT	IQUANT	0	Ach Select
CABLEID	IQUANT	13	Cable ID
DCCALDATE	LABEL	7/31/2020	DC Calibration Date
ACCALDATE	LABEL	7/31/2020	AC Calibration Date
THERMOSELECT	IQUANT	1	Thermo Select
FRAMEWORKVERSION	QUANT	6.33	Framework Version
INSTRUMENTVERSION	LABEL	3.50	Instrument Version
COMPLIANCEVOLTAGE	IQUANT	0	Compliance Voltage
ZCURVE	TABLE
	Pt	Time	Freq	Zreal	Zimag	Zsig	Zmod	Zphz	Idc	Vdc	IERange
	#	s	Hz	ohm	ohm	V	ohm	°	A	V	#
	0	7	300046.9	173.4965	-6.488419	1	173.6178	-2.141748	2.367297E-005	-0.0006345	9
	1	10	238359.4	174.9209	-5.833709	1	175.0182	-1.910138	2.741421E-005	0.0004243	9
	2	13	189328.1	174.9174	-5.10847	1	174.992	-1.67285	-5.513927E-005	0.000664	9
	3	16	150421.9	177.5187	-5.095496	1	177.5918	-1.644167	-5.593868E-005	0.0008234	9
	4	20	119484.4	178.1959	-4.550525	1	178.254	-1.462824	7.360909E-005	-0.0025929	9
	5	23	94921.88	179.1059	-4.425883	1	179.1606	-1.415547	-7.927521E-006	0.0008419	9
	6	25	75421.88	180.051	-4.609009	1	180.11	-1.466357	-2.004563E-006	-0.0003348	9
	7	28	59859.37	181.0905	-4.919291	1	181.1573	-1.556047	1.16662E-005	0.0002902	9
	8	31	47578.12	182.0536	-5.16754	1	182.1269	-1.625888	-1.832183E-005	0.0003764	9
	9	33	37828.12	183.0424	-5.939976	1	183.1388	-1.858674	-2.23076E-005	0.0006857	9
	10	36	30046.88	184.1598	-6.746089	1	184.2833	-2.097905	-2.201829E-005	0.0006345	9
	11	38	23859.38	184.9876	-7.576104	1	185.1426	-2.345219	-2.388126E-005	0.0006057	9
	12	40	18984.38	186.5074	-8.846895	1	186.7171	-2.715765	2.023851E-005	-5.939179E-005	9
	13	43	15046.87	188.1288	-10.13178	1	188.4014	-3.082716	-1.485012E-005	0.0001398	9
	14	45	11953.13	189.2928	-12.29164	1	189.6915	-3.715258	2.754378E-005	-0.0005538	9
	15	47	9515.62	191	-14.07148	1	191.5176	-4.213521	2.18947E-005	-0.0002023	9
	16	50	7546.875	192.9842	-16.49691	1	193.688	-4.885952	-1.877043E-005	0.0003774	9
	17	52	5928.309	194.8584	-19.41455	1	195.8232	-5.689838	2.553003E-005	-0.0004504	9
	18	54	4733.456	196.8634	-23.19286	1	198.2249	-6.719155	-2.237013E-005	0.0008362	9
	19	57	3796.875	199.588	-27.09572	1	201.4188	-7.731112	-2.018461E-005	0.0005002	9
	20	59	2987.132	202.5009	-32.00536	1	205.0145	-8.981332	-1.14272E-006	-0.0003461	9
	21	61	2390.625	206.1024	-37.77393	1	209.5353	-10.38576	-1.655147E-005	0.0003251	9
	22	64	1884.191	209.8887	-45.25741	1	214.7126	-12.16815	-1.756584E-005	0.0003477	9
	23	66	1516.544	214.1209	-52.59101	1	220.4849	-13.79946	-1.494558E-005	0.0009477	9
	24	68	1193.986	219.1285	-62.3561	1	227.8279	-15.88445	2.362701E-005	-0.0002298	9
	25	71	946.5144	225.0054	-74.2984	1	236.955	-18.27359	1.483317E-006	0.0006157	9
	26	73	751.7689	231.8602	-87.72113	1	247.8995	-20.72345	-2.094497E-005	0.0005084	9
	27	76	597.4265	240.1143	-103.9811	1	261.6619	-23.41495	-2.017166E-005	0.0009461	9
	28	79	477.4305	248.7118	-122.5652	1	277.272	-26.23408	1.271481E-006	8.905229E-005	9
	29	81	376.6741	259.6831	-146.0706	1	297.9462	-29.35756	1.247461E-006	7.946033E-005	9
	30	83	298.2954	272.5087	-173.6317	1	323.1237	-32.50366	1.258025E-006	8.021587E-005	9
	31	86	237.7717	287.2727	-205.3496	1	353.1205	-35.55811	1.289297E-006	7.784853E-005	9
	32	88	189.0121	303.5991	-242.2037	1	388.3748	-38.58199	9.778386E-008	0.0006589	8
	33	90	150.2404	324.1809	-286.7188	1	432.7828	-41.49085	1.056703E-007	0.0006563	8
	34	93	119.1737	348.4824	-339.8215	1	486.7429	-44.27909	9.125183E-008	0.0006595	8
	35	95	95.0169	376.0824	-401.1586	1	549.8784	-46.84789	9.718877E-008	0.0006654	8
	36	98	75.60484	408.2988	-474.4182	1	625.9238	-49.28371	1.016967E-007	0.0006549	8
	37	100	54.50582	462.7125	-603.7261	1	760.6497	-52.53244	1.289541E-007	0.0006487	8
	38	103	45.95588	496.3489	-685.7017	1	846.4922	-54.1009	1.183126E-007	0.0006591	8
	39	105	37.20238	542.8976	-803.4046	1	969.637	-55.95129	9.013007E-008	0.0006672	8
	40	107	30.04808	597.0558	-944.3585	1	1117.268	-57.69752	1.069362E-007	0.0006708	8
	41	110	23.91582	664.2242	-1124.212	1	1305.774	-59.42391	8.171547E-008	0.0006699	8
	42	112	18.60119	750.7375	-1364.277	1	1557.195	-61.17678	1.657007E-007	0.0006484	8
	43	115	15.02404	839.3038	-1611.194	1	1816.694	-62.48407	6.996599E-008	0.0006613	8
	44	117	12.01923	946.6895	-1917.92	1	2138.84	-63.72895	1.460402E-007	0.0006648	8
	45	119	9.450605	1086.036	-2318.375	1	2560.144	-64.89941	1.396768E-007	0.000664	8
	46	122	7.512019	1245.417	-2780.276	1	3046.473	-65.87014	1.670179E-007	0.0006623	8
	47	125	5.978954	1434.092	-3332.674	1	3628.132	-66.71717	1.364042E-007	0.0006666	8
	48	128	4.734848	1674.222	-4025.546	1	4359.821	-67.4176	-5.590231E-009	0.0006386	7
	49	131	3.75601	1955.991	-4844.334	1	5224.315	-68.01268	1.417472E-008	0.0006327	7
	50	134	3.004808	2287.039	-5788.744	1	6224.154	-68.44183	-1.182973E-008	0.0006858	7
	51	138	2.372217	2719.221	-6998.731	1	7508.422	-68.76733	4.2643E-009	0.0006989	7
	52	142	1.878005	3246.793	-8434.587	1	9037.916	-68.94639	-1.340267E-009	0.0006097	7
	53	147	1.512097	3850.422	-10014	1	10728.74	-68.96805	-1.612421E-009	0.0006969	7
	54	152	1.201923	4627.914	-12054.41	1	12912.26	-68.99728	3.072707E-010	0.0005943	7
	55	159	0.956633	5589.083	-14459.32	1	15501.93	-68.86657	-1.635425E-008	-1.004463E-005	7
