EXPLAIN
TAG	EISPOT
TITLE	LABEL	Potentiostatic EIS	Test Identifier
DATE	LABEL	2/25/2021	Date
TIME	LABEL	18:47:36	Time
NOTES	NOTES	1	Notes...
	
PSTAT	PSTAT	REF3000-16137	Potentiostat
VDC	POTEN	0.00000E+000	T	DC Voltage (V)
FREQINIT	QUANT	3.00000E+005	Initial Freq. (Hz)
FREQFINAL	QUANT	1.00000E+000	Final Freq. (Hz)
PTSPERDEC	QUANT	1.00000E+001	Points/decade
VAC	QUANT	5.00000E+001	AC Voltage (mV rms)
AREA	QUANT	1.00000E+000	Sample Area (cm^2)
SPEED	SELECTOR	2	Optimize for:
ZGUESS	QUANT	1.00000E+003	Estimated Z (ohms)
EOC	QUANT	0	Open Circuit (V)
SEQUENCER	TOGGLE	TRUE	Run as Sequence
PSTATMODEL	IQUANT	5	Pstat Model
PSTATSECTION	LABEL	REF3000-16137	Pstat Section
PSTATSERIALNO	LABEL	16137	Pstat Serial Number
CTRLMODE	IQUANT	1	Control Mode
IESTAB	IQUANT	0	I/E Stability
CASPEED	IQUANT	1	Control Amp Speed
CONVENTION	IQUANT	1	Current Convention
ICHRANGE	IQUANT	2	Ich Range
ICHRANGEMODE	TOGGLE	F	Ich Auto Range
ICHOFFSETENABLE	TOGGLE	T	Ich Offset Enable
ICHOFFSET	QUANT	0	Ich Offset (V)
ICHFILTER	IQUANT	3	Ich Filter
VCHRANGE	IQUANT	2	Vch Range
VCHRANGEMODE	TOGGLE	F	Vch Auto Range
VCHOFFSETENABLE	TOGGLE	T	Vch Offset Enable
VCHOFFSET	QUANT	0	Vch Offset (V)
VCHFILTER	IQUANT	3	Vch Filter
ACHRANGE	IQUANT	2	Ach Range
ACHOFFSETENABLE	TOGGLE	F	Ach Offset Enable
ACHOFFSET	QUANT	0	Ach Offset (V)
ACHFILTER	IQUANT	3	Ach Filter
IERANGELOWERLIMIT	IQUANT	2	I/E Range Lower Limit
IERANGEMODE	TOGGLE	F	I/E AutoRange
IERANGE	IQUANT	11	I/E Range
POSFEEDENABLE	TOGGLE	F	Positive Feedback IR Comp
POSFEEDRESISTANCE	QUANT	0	Positive Feedback Resistance (ohm)
ACHSELECT	IQUANT	0	Ach Select
CABLEID	IQUANT	13	Cable ID
DCCALDATE	LABEL	7/31/2020	DC Calibration Date
ACCALDATE	LABEL	7/31/2020	AC Calibration Date
THERMOSELECT	IQUANT	1	Thermo Select
FRAMEWORKVERSION	QUANT	6.33	Framework Version
INSTRUMENTVERSION	LABEL	3.50	Instrument Version
COMPLIANCEVOLTAGE	IQUANT	0	Compliance Voltage
ZCURVE	TABLE
	Pt	Time	Freq	Zreal	Zimag	Zsig	Zmod	Zphz	Idc	Vdc	IERange
	#	s	Hz	ohm	ohm	V	ohm	°	A	V	#
	0	35	300046.9	1261.419	-577.3931	1	1387.285	-24.59514	-2.437425E-005	0.0014828	9
	1	60	238359.4	1378.349	-535.4537	1	1478.701	-21.22989	1.982691E-005	-0.0009549	9
	2	75	189328.1	1476.454	-509.5417	1	1561.906	-19.04016	-8.733599E-005	0.0040022	9
	3	86	150421.9	1581.888	-436.6938	1	1641.058	-15.43262	2.581362E-005	-0.0013572	9
	4	96	119484.4	1662.868	-320.3817	1	1693.45	-10.90544	5.570039E-006	-0.0136533	8
	5	103	94921.88	1706.979	-270.351	1	1728.255	-8.999741	5.314201E-006	-0.0059391	8
	6	106	75421.88	1734.851	-219.5486	1	1748.688	-7.212544	2.41432E-007	0.0060342	8
	7	109	59859.37	1760.497	-190.5258	1	1770.777	-6.176666	2.165553E-005	-0.0075902	8
	8	112	47578.12	1787.756	-158.8415	1	1794.798	-5.077378	2.261098E-005	-0.0047228	8
	9	115	37828.12	1805.531	-131.762	1	1810.333	-4.173867	1.241688E-005	-0.0073546	8
	10	118	30046.88	1833.777	-115.6784	1	1837.422	-3.609553	5.185847E-006	-0.0058855	8
	11	124	23859.38	1859.692	-98.3789	1	1862.292	-3.02816	2.142711E-005	-0.0075355	8
	12	127	18984.38	1876.655	-87.12721	1	1878.677	-2.658154	-2.190621E-005	0.0084239	8
	13	130	15046.87	1891.411	-74.3718	1	1892.872	-2.251757	1.617735E-005	-0.0003026	8
	14	133	11953.13	1908.646	-72.88686	1	1910.037	-2.186933	5.505563E-006	-0.0059975	8
	15	137	9515.62	1926.883	-68.03233	1	1928.084	-2.022098	-9.738435E-006	-0.0009908	8
	16	140	7546.875	1951.182	-69.30342	1	1952.412	-2.034216	2.18984E-005	-0.0077048	8
	17	144	5928.309	1978.803	-78.01025	1	1980.34	-2.2576	1.26442E-005	-0.0074924	8
	18	148	4733.456	2003.319	-76.37339	1	2004.774	-2.183255	1.378437E-007	0.0061036	8
	19	153	3796.875	2019.164	-82.10851	1	2020.833	-2.328627	-2.210531E-005	0.0085198	8
	20	156	2987.132	2038.221	-89.65051	1	2040.191	-2.518514	-8.3654E-006	0.008394	8
	21	160	2390.625	2066.903	-103.9168	1	2069.513	-2.878211	2.210389E-005	-0.0076536	8
	22	164	1884.191	2106.084	-132.0655	1	2110.221	-3.588129	-2.234393E-005	0.0069712	8
	23	168	1516.544	2130.616	-141.014	1	2135.278	-3.786575	2.118529E-005	-0.0029455	8
	24	173	1193.986	2165.137	-158.009	1	2170.896	-4.173975	2.110577E-005	-0.0029001	8
	25	177	946.5144	2189.819	-198.2811	1	2198.778	-5.17384	1.975956E-007	0.0061724	8
	26	180	751.7689	2236.094	-221.1104	1	2246.999	-5.647188	-2.25369E-005	0.0070049	8
	27	183	597.4265	2236.827	-251.835	1	2250.959	-6.423641	1.848012E-005	-0.0081488	8
	28	185	477.4305	2291.099	-300.732	1	2310.751	-7.477953	-1.155926E-007	0.0006384	8
	29	187	376.6741	2330.244	-355.2342	1	2357.165	-8.667727	-1.108014E-007	0.0006347	8
	30	190	298.2954	2374.127	-419.0031	1	2410.818	-10.00891	-1.196964E-007	0.0006359	8
	31	192	237.7717	2422.39	-492.2379	1	2471.897	-11.4863	-1.472307E-007	0.0006781	8
	32	195	189.0121	2477.274	-579.9806	1	2544.261	-13.17678	-1.464111E-007	0.0006693	8
	33	197	150.2404	2539.264	-683.815	1	2629.727	-15.072	-1.306848E-007	0.000651	8
	34	199	119.1737	2610.782	-808.3248	1	2733.052	-17.20306	-8.860036E-008	0.0006466	8
	35	202	95.0169	2690.381	-952.846	1	2854.131	-19.50249	-1.085774E-007	0.0006613	8
	36	204	75.60484	2783.142	-1125.674	1	3002.17	-22.02145	-1.411984E-007	0.0006795	8
	37	207	54.50582	2934.884	-1429.811	1	3264.644	-25.97433	-1.302454E-007	0.0006719	8
	38	209	45.95588	3036.088	-1622.045	1	3442.218	-28.11358	-9.059467E-008	0.0006403	8
	39	212	37.20238	3172.997	-1895.495	1	3696.053	-30.85339	-1.367322E-007	0.0006674	8
	40	214	30.04808	3343.262	-2223.92	1	4015.373	-33.63164	-4.064329E-008	0.0006267	7
	41	217	23.91582	3544.401	-2630.508	1	4413.882	-36.58128	-1.634161E-008	0.0006015	7
	42	219	18.60119	3806.112	-3162.646	1	4948.617	-39.7245	-1.685033E-008	0.0005987	7
	43	221	15.02404	4075.081	-3698.559	1	5503.237	-42.227	-6.785027E-009	0.0006285	7
	44	224	12.01923	4402.838	-4345.379	1	6186.058	-44.62368	-7.538783E-008	0.0006363	7
	45	226	9.450605	4811.919	-5168.902	1	7062.019	-47.04842	-1.530749E-008	0.0006529	7
	46	229	7.512019	5267.65	-6100.527	1	8060.06	-49.19022	-1.372859E-008	0.000608	7
	47	231	5.978954	5804.615	-7192.563	1	9242.646	-51.09542	-1.967917E-008	0.0005888	7
	48	234	4.734848	6439.41	-8520.713	1	10680.29	-52.92035	-5.62925E-008	0.0006231	7
	49	238	3.75601	7173.629	-10076.4	1	12369.1	-54.55202	-2.955907E-008	0.0006577	7
	50	241	3.004808	7988.697	-11848.98	1	14290.47	-56.01178	-3.92205E-008	0.0006723	7
	51	245	2.372217	8990.931	-14074.46	1	16701.12	-57.42908	-3.871523E-008	0.0005955	7
	52	249	1.878005	10146.99	-16780	1	19609.43	-58.83832	-3.351648E-008	0.0006285	7
	53	254	1.512097	11358.26	-19729.77	1	22765.63	-60.07134	-3.881588E-008	0.0006441	7
	54	259	1.201923	12922.7	-23545.8	1	26858.91	-61.2406	-3.771077E-008	0.0006544	7
	55	265	0.956633	14728.23	-28090.44	1	31717.4	-62.33132	-4.728244E-008	-8.096382E-006	7
