EXPLAIN
TAG	EISPOT
TITLE	LABEL	Potentiostatic EIS	Test Identifier
DATE	LABEL	2/25/2021	Date
TIME	LABEL	18:43:40	Time
NOTES	NOTES	1	Notes...
	
PSTAT	PSTAT	REF3000-16137	Potentiostat
VDC	POTEN	0.00000E+000	T	DC Voltage (V)
FREQINIT	QUANT	3.00000E+005	Initial Freq. (Hz)
FREQFINAL	QUANT	1.00000E+000	Final Freq. (Hz)
PTSPERDEC	QUANT	1.00000E+001	Points/decade
VAC	QUANT	5.00000E+001	AC Voltage (mV rms)
AREA	QUANT	1.00000E+000	Sample Area (cm^2)
SPEED	SELECTOR	2	Optimize for:
ZGUESS	QUANT	1.00000E+003	Estimated Z (ohms)
EOC	QUANT	0	Open Circuit (V)
SEQUENCER	TOGGLE	TRUE	Run as Sequence
PSTATMODEL	IQUANT	5	Pstat Model
PSTATSECTION	LABEL	REF3000-16137	Pstat Section
PSTATSERIALNO	LABEL	16137	Pstat Serial Number
CTRLMODE	IQUANT	1	Control Mode
IESTAB	IQUANT	0	I/E Stability
CASPEED	IQUANT	1	Control Amp Speed
CONVENTION	IQUANT	1	Current Convention
ICHRANGE	IQUANT	2	Ich Range
ICHRANGEMODE	TOGGLE	F	Ich Auto Range
ICHOFFSETENABLE	TOGGLE	T	Ich Offset Enable
ICHOFFSET	QUANT	0	Ich Offset (V)
ICHFILTER	IQUANT	3	Ich Filter
VCHRANGE	IQUANT	2	Vch Range
VCHRANGEMODE	TOGGLE	F	Vch Auto Range
VCHOFFSETENABLE	TOGGLE	T	Vch Offset Enable
VCHOFFSET	QUANT	0	Vch Offset (V)
VCHFILTER	IQUANT	3	Vch Filter
ACHRANGE	IQUANT	2	Ach Range
ACHOFFSETENABLE	TOGGLE	F	Ach Offset Enable
ACHOFFSET	QUANT	0	Ach Offset (V)
ACHFILTER	IQUANT	3	Ach Filter
IERANGELOWERLIMIT	IQUANT	2	I/E Range Lower Limit
IERANGEMODE	TOGGLE	F	I/E AutoRange
IERANGE	IQUANT	11	I/E Range
POSFEEDENABLE	TOGGLE	F	Positive Feedback IR Comp
POSFEEDRESISTANCE	QUANT	0	Positive Feedback Resistance (ohm)
ACHSELECT	IQUANT	0	Ach Select
CABLEID	IQUANT	13	Cable ID
DCCALDATE	LABEL	7/31/2020	DC Calibration Date
ACCALDATE	LABEL	7/31/2020	AC Calibration Date
THERMOSELECT	IQUANT	1	Thermo Select
FRAMEWORKVERSION	QUANT	6.33	Framework Version
INSTRUMENTVERSION	LABEL	3.50	Instrument Version
COMPLIANCEVOLTAGE	IQUANT	0	Compliance Voltage
ZCURVE	TABLE
	Pt	Time	Freq	Zreal	Zimag	Zsig	Zmod	Zphz	Idc	Vdc	IERange
	#	s	Hz	ohm	ohm	V	ohm	°	A	V	#
	0	25	300046.9	822.3804	-217.4091	1	850.6329	-14.80826	-1.923541E-005	0.0014379	9
	1	34	238359.4	876.6011	-199.3913	1	898.9918	-12.81444	5.491629E-005	7.629926E-006	9
	2	55	189328.1	917.3825	-175.9854	1	934.11	-10.85937	5.056931E-005	2.433775E-005	9
	3	65	150421.9	941.9561	-145.2485	1	953.089	-8.765897	7.656017E-005	-0.0015272	9
	4	74	119484.4	976.868	-98.5569	1	981.827	-5.761113	-9.023644E-006	-0.0086374	8
	5	80	94921.88	987.032	-78.83007	1	990.175	-4.566278	1.994666E-005	-0.0042766	8
	6	83	75421.88	997.424	-68.76347	1	999.792	-3.943791	-1.909802E-006	-0.0032522	8
	7	86	59859.37	1007.327	-57.38596	1	1008.96	-3.260533	-1.878709E-005	0.0048904	8
	8	88	47578.12	1012.997	-47.7588	1	1014.123	-2.699269	-1.360455E-005	0.0014385	8
	9	91	37828.12	1021.627	-43.05532	1	1022.534	-2.413238	-1.662665E-005	0.0082384	8
	10	93	30046.88	1027.85	-39.07037	1	1028.592	-2.176864	-6.454944E-006	0.0072203	8
	11	96	23859.38	1036.604	-33.98999	1	1037.161	-1.878041	3.585519E-007	0.0053669	8
	12	99	18984.38	1043.695	-33.37143	1	1044.228	-1.83137	-1.962898E-005	0.0062578	8
	13	101	15046.87	1050.546	-34.43968	1	1051.11	-1.877635	-1.863588E-005	0.004789	8
	14	104	11953.13	1058.74	-31.80047	1	1059.217	-1.720427	1.937459E-005	-0.0067336	8
	15	106	9515.62	1068.81	-36.22267	1	1069.423	-1.941049	1.553656E-005	-0.0068505	8
	16	110	7546.875	1079.426	-38.59169	1	1080.116	-2.047569	4.182151E-006	-0.0051244	8
	17	113	5928.309	1086.518	-44.39852	1	1087.424	-2.339983	1.937375E-005	-0.0067962	8
	18	116	4733.456	1100.001	-51.69742	1	1101.215	-2.690784	-1.85786E-005	0.0047559	8
	19	120	3796.875	1108.53	-55.39362	1	1109.913	-2.860711	7.947294E-006	0.0026379	8
	20	122	2987.132	1123.294	-64.61975	1	1125.151	-3.292426	4.519573E-006	-0.0052059	8
	21	126	2390.625	1133.688	-75.93677	1	1136.228	-3.832066	-6.819438E-006	0.0074166	8
	22	128	1884.191	1143.258	-85.51337	1	1146.452	-4.277642	-1.726868E-005	0.0084596	8
	23	131	1516.544	1163.522	-102.2303	1	1168.004	-5.021272	1.624844E-005	-0.0071669	8
	24	135	1193.986	1180.465	-122.5773	1	1186.812	-5.928241	-2.726086E-006	-0.0030742	8
	25	139	946.5144	1197.001	-140.8585	1	1205.26	-6.711485	1.983398E-005	-0.0069166	8
	26	141	751.7689	1218.277	-172.7241	1	1230.46	-8.069464	-9.232757E-006	-0.000623	8
	27	144	597.4265	1242.033	-201.3537	1	1258.249	-9.208459	-1.701779E-005	0.0031158	8
	28	146	477.4305	1261.944	-236.8246	1	1283.973	-10.62887	-1.052625E-007	0.0006616	8
	29	149	376.6741	1288.681	-280.5295	1	1318.862	-12.28097	-7.129828E-008	0.0006463	8
	30	151	298.2954	1318.647	-331.6906	1	1359.724	-14.11918	-1.120503E-007	0.0006615	8
	31	153	237.7717	1352.164	-390.7324	1	1407.487	-16.11761	-6.898455E-008	0.00064	8
	32	156	189.0121	1390.917	-461.6089	1	1465.515	-18.35965	-1.256039E-007	0.0006728	8
	33	158	150.2404	1435.345	-545.6931	1	1535.576	-20.81593	-9.608814E-008	0.0006494	8
	34	161	119.1737	1487.177	-646.6332	1	1621.675	-23.49969	-1.166302E-007	0.0006738	8
	35	163	95.0169	1546.184	-763.8287	1	1724.563	-26.28978	-6.931408E-008	0.0006415	8
	36	166	75.60484	1616.235	-904.0736	1	1851.909	-29.22134	-1.076523E-007	0.0006519	8
	37	168	54.50582	1734.858	-1150.226	1	2081.526	-33.54472	-1.19902E-007	0.0006741	8
	38	171	45.95588	1813.045	-1304.863	1	2233.786	-35.74286	-1.27964E-007	0.0006737	8
	39	173	37.20238	1921.031	-1524.129	1	2452.209	-38.42819	-1.224507E-007	0.0006727	8
	40	175	30.04808	2049.419	-1782.424	1	2716.092	-41.01418	-7.774106E-008	0.0006578	8
	41	178	23.91582	2208.851	-2104.288	1	3050.746	-43.61126	-5.855353E-008	0.0006383	8
	42	180	18.60119	2414.142	-2524.062	1	3492.702	-46.27513	-3.687403E-008	0.0006598	8
	43	183	15.02404	2627.502	-2951.165	1	3951.346	-48.32046	-6.809169E-008	0.0006428	7
	44	185	12.01923	2875.002	-3462.758	1	4500.704	-50.29838	-5.472014E-008	0.000624	7
	45	187	9.450605	3182.677	-4120.691	1	5206.682	-52.31876	-4.303206E-008	0.0006663	7
	46	190	7.512019	3521.718	-4866.563	1	6007.157	-54.10839	-2.265469E-008	0.00066	7
	47	193	5.978954	3915.5	-5745.958	1	6953.213	-55.72809	-3.552466E-008	0.0006527	7
	48	196	4.734848	4373.219	-6827.089	1	8107.663	-57.35765	-1.840539E-008	0.0006779	7
	49	199	3.75601	4906.03	-8108.378	1	9477.074	-58.82368	-4.106759E-008	0.0006258	7
	50	202	3.004808	5500.222	-9590.93	1	11056.15	-60.16653	-3.438138E-008	0.0006223	7
	51	206	2.372217	6258.129	-11478.17	1	13073.35	-61.39989	-2.860291E-008	0.0007055	7
	52	210	1.878005	7104.619	-13751.59	1	15478.43	-62.67733	-3.502651E-008	0.0006044	7
	53	215	1.512097	8054.714	-16247.36	1	18134.37	-63.62985	-3.086047E-008	0.0006973	7
	54	220	1.201923	9246.945	-19513.66	1	21593.72	-64.64511	-3.019705E-008	0.0006016	7
	55	227	0.956633	10654.7	-23402.53	1	25713.83	-65.52119	-4.001906E-008	-1.305678E-005	7
