EXPLAIN
TAG	EISPOT
TITLE	LABEL	Potentiostatic EIS	Test Identifier
DATE	LABEL	2/25/2021	Date
TIME	LABEL	19:06:21	Time
NOTES	NOTES	1	Notes...
	
PSTAT	PSTAT	REF3000-16137	Potentiostat
VDC	POTEN	0.00000E+000	T	DC Voltage (V)
FREQINIT	QUANT	3.00000E+005	Initial Freq. (Hz)
FREQFINAL	QUANT	1.00000E+000	Final Freq. (Hz)
PTSPERDEC	QUANT	1.00000E+001	Points/decade
VAC	QUANT	5.00000E+001	AC Voltage (mV rms)
AREA	QUANT	1.00000E+000	Sample Area (cm^2)
SPEED	SELECTOR	2	Optimize for:
ZGUESS	QUANT	1.00000E+003	Estimated Z (ohms)
EOC	QUANT	0	Open Circuit (V)
SEQUENCER	TOGGLE	TRUE	Run as Sequence
PSTATMODEL	IQUANT	5	Pstat Model
PSTATSECTION	LABEL	REF3000-16137	Pstat Section
PSTATSERIALNO	LABEL	16137	Pstat Serial Number
CTRLMODE	IQUANT	1	Control Mode
IESTAB	IQUANT	0	I/E Stability
CASPEED	IQUANT	1	Control Amp Speed
CONVENTION	IQUANT	1	Current Convention
ICHRANGE	IQUANT	2	Ich Range
ICHRANGEMODE	TOGGLE	F	Ich Auto Range
ICHOFFSETENABLE	TOGGLE	T	Ich Offset Enable
ICHOFFSET	QUANT	0	Ich Offset (V)
ICHFILTER	IQUANT	3	Ich Filter
VCHRANGE	IQUANT	2	Vch Range
VCHRANGEMODE	TOGGLE	F	Vch Auto Range
VCHOFFSETENABLE	TOGGLE	T	Vch Offset Enable
VCHOFFSET	QUANT	0	Vch Offset (V)
VCHFILTER	IQUANT	3	Vch Filter
ACHRANGE	IQUANT	2	Ach Range
ACHOFFSETENABLE	TOGGLE	F	Ach Offset Enable
ACHOFFSET	QUANT	0	Ach Offset (V)
ACHFILTER	IQUANT	3	Ach Filter
IERANGELOWERLIMIT	IQUANT	2	I/E Range Lower Limit
IERANGEMODE	TOGGLE	F	I/E AutoRange
IERANGE	IQUANT	11	I/E Range
POSFEEDENABLE	TOGGLE	F	Positive Feedback IR Comp
POSFEEDRESISTANCE	QUANT	0	Positive Feedback Resistance (ohm)
ACHSELECT	IQUANT	0	Ach Select
CABLEID	IQUANT	13	Cable ID
DCCALDATE	LABEL	7/31/2020	DC Calibration Date
ACCALDATE	LABEL	7/31/2020	AC Calibration Date
THERMOSELECT	IQUANT	1	Thermo Select
FRAMEWORKVERSION	QUANT	6.33	Framework Version
INSTRUMENTVERSION	LABEL	3.50	Instrument Version
COMPLIANCEVOLTAGE	IQUANT	0	Compliance Voltage
ZCURVE	TABLE
	Pt	Time	Freq	Zreal	Zimag	Zsig	Zmod	Zphz	Idc	Vdc	IERange
	#	s	Hz	ohm	ohm	V	ohm	°	A	V	#
	0	14	300046.9	687.6301	-3821.768	1	3883.136	-79.80021	-1.379093E-005	0.0016407	9
	1	28	238359.4	951.289	-4691.757	1	4787.226	-78.53822	3.846417E-006	0.00155	9
	2	52	189328.1	1612.653	-5806.898	1	6026.667	-74.47932	1.865634E-005	-0.0019793	9
	3	64	150421.9	2126.11	-7273.157	1	7577.543	-73.70515	-0.0001047	0.0037265	9
	4	72	119484.4	2367.463	-8798.226	1	9111.183	-74.93935	-5.96488E-005	0.0005863	9
	5	82	94921.88	3828.514	-10305.69	1	10993.85	-69.62021	-2.349417E-005	0.005294	8
	6	91	75421.88	4949.315	-12127.18	1	13098.25	-67.79876	-9.078403E-006	-0.0001727	9
	7	100	59859.37	6905.333	-14736.72	1	16274.35	-64.89315	-1.586941E-005	0.0007625	8
	8	108	47578.12	11477.67	-17228.22	1	20701.41	-56.32792	-3.562839E-006	0.0240896	7
	9	116	37828.12	14417.73	-19614.24	1	24343.16	-53.68172	2.644254E-006	0.0079262	7
	10	122	30046.88	18141.07	-21903.25	1	28440.3	-50.36722	6.51053E-006	-0.0256481	7
	11	130	23859.38	21540.74	-24185.38	1	32387.28	-48.3101	-2.384384E-005	0.0109678	8
	12	136	18984.38	26680.63	-26535.04	1	37629.3	-44.84324	8.815619E-006	0.0039367	8
	13	144	15046.87	33457.26	-26213.48	1	42503.35	-38.07839	-5.088494E-006	0.0036774	7
	14	149	11953.13	39205.75	-25870.67	1	46972.15	-33.41959	6.564781E-006	-0.0257605	7
	15	154	9515.62	45307.16	-25410.87	1	51946.62	-29.28622	6.300971E-006	-0.009668	7
	16	160	7546.875	50600.48	-23480.99	1	55783.2	-24.8935	-5.082105E-006	0.0036752	7
	17	165	5928.309	52920.98	-20206.16	1	56647.32	-20.89774	-3.536203E-006	0.0241929	7
	18	170	4733.456	59469.1	-17877.91	1	62098.26	-16.7321	-6.430524E-006	0.0117414	7
	19	176	3796.875	63042.14	-16838.19	1	65252.09	-14.95428	4.421926E-007	0.0153622	7
	20	181	2987.132	68019.59	-9116.786	1	68627.84	-7.633958	7.402587E-007	-0.021878	6
	21	186	2390.625	69213.51	-7722.836	1	69643.03	-6.366723	7.010904E-007	-0.0151056	6
	22	189	1884.191	70343.96	-6140.908	1	70611.5	-4.989176	-4.337504E-008	-0.0143586	6
	23	193	1516.544	72115.59	-5666.375	1	72337.86	-4.492701	-6.573665E-007	0.0251478	6
	24	198	1193.986	73547.02	-4538.559	1	73686.93	-3.531223	6.998623E-007	-0.0152003	6
	25	202	946.5144	74684.29	-4222.744	1	74803.57	-3.23613	2.08061E-007	0.0100188	6
	26	205	751.7689	75131.9	-3965.208	1	75236.46	-3.021075	-4.587636E-008	-0.0142544	6
	27	207	597.4265	76254.3	-3364.38	1	76328.48	-2.526282	-2.11715E-007	0.0216601	6
	28	210	477.4305	77154.84	-3009.645	1	77213.52	-2.233853	-8.526562E-009	0.0006675	6
	29	212	376.6741	77994.55	-2842.033	1	78046.32	-2.08687	-7.566359E-009	0.0006436	6
	30	214	298.2954	78914.92	-2724.12	1	78961.92	-1.977048	-8.491858E-009	0.0006977	6
	31	217	237.7717	79755.85	-2828.031	1	79805.98	-2.030778	-6.820154E-009	0.0006417	6
	32	219	189.0121	80662.75	-2986.798	1	80718.03	-2.120592	-7.284964E-009	0.0006618	6
	33	222	150.2404	81769.82	-3173.902	1	81831.4	-2.222824	-7.214235E-009	0.0006279	6
	34	225	119.1737	82777.2	-3412.733	1	82847.52	-2.36085	-7.976224E-009	0.0006679	6
	35	227	95.0169	83873.08	-3936.744	1	83965.41	-2.687315	-7.202278E-009	0.00068	6
	36	229	75.60484	85025.42	-4515.469	1	85145.24	-3.039967	-7.518872E-009	0.0006888	6
	37	232	54.50582	86675.22	-5280.656	1	86835.93	-3.486415	-7.414493E-009	0.0006156	6
	38	235	45.95588	87656.9	-6080.457	1	87867.54	-3.968054	-6.991088E-009	0.0006248	6
	39	237	37.20238	88951.23	-6992.992	1	89225.7	-4.495121	-1.090789E-008	0.0006989	6
	40	239	30.04808	90478.79	-7987.771	1	90830.7	-5.045184	-9.481052E-009	0.0006476	6
	41	242	23.91582	92219	-9381.142	1	92694.93	-5.808534	-5.776531E-009	0.0006906	6
	42	244	18.60119	93948.65	-11094.69	1	94601.48	-6.735043	-1.376399E-008	0.0006511	6
	43	247	15.02404	95741.9	-12831.24	1	96597.9	-7.633237	-4.182458E-009	0.0006617	6
	44	249	12.01923	97721.6	-14813.3	1	98838	-8.61966	-9.174703E-010	0.0007035	6
	45	252	9.450605	100035.6	-17626.24	1	101576.6	-9.99293	-5.694343E-009	0.000726	6
	46	254	7.512019	102748.5	-20683.08	1	104809.6	-11.38143	-8.116719E-009	0.0006449	6
	47	257	5.978954	105937.7	-24371.93	1	108705.1	-12.95597	-9.188911E-009	0.000714	6
	48	262	4.734848	109672.5	-28957.93	1	113431.1	-14.79082	-2.428509E-009	0.0007317	6
	49	265	3.75601	114007.6	-34062.14	1	118987.3	-16.6346	-8.564929E-009	0.0006088	6
	50	270	3.004808	119359.4	-40027.26	1	125892.2	-18.53892	-6.908111E-009	0.0006629	6
	51	277	2.372217	125372.8	-47710.21	1	134144	-20.83416	-1.053932E-008	0.0006863	6
	52	281	1.878005	131591	-56612.41	1	143252	-23.2781	-1.054931E-008	0.000664	6
	53	286	1.512097	138449.7	-66367.38	1	153534.9	-25.61123	-9.31117E-009	0.0006068	6
	54	291	1.201923	146741.8	-78969.84	1	166641.5	-28.28714	-8.908351E-009	0.0006512	6
	55	297	0.956633	156765.1	-93792.88	1	182681.1	-30.89217	-9.748566E-009	2.870246E-005	6
