EXPLAIN
TAG	EISPOT
TITLE	LABEL	Potentiostatic EIS	Test Identifier
DATE	LABEL	2/25/2021	Date
TIME	LABEL	19:16:46	Time
NOTES	NOTES	1	Notes...
	
PSTAT	PSTAT	REF3000-16137	Potentiostat
VDC	POTEN	0.00000E+000	T	DC Voltage (V)
FREQINIT	QUANT	3.00000E+005	Initial Freq. (Hz)
FREQFINAL	QUANT	1.00000E+000	Final Freq. (Hz)
PTSPERDEC	QUANT	1.00000E+001	Points/decade
VAC	QUANT	5.00000E+001	AC Voltage (mV rms)
AREA	QUANT	1.00000E+000	Sample Area (cm^2)
SPEED	SELECTOR	2	Optimize for:
ZGUESS	QUANT	1.00000E+003	Estimated Z (ohms)
EOC	QUANT	0	Open Circuit (V)
SEQUENCER	TOGGLE	TRUE	Run as Sequence
PSTATMODEL	IQUANT	5	Pstat Model
PSTATSECTION	LABEL	REF3000-16137	Pstat Section
PSTATSERIALNO	LABEL	16137	Pstat Serial Number
CTRLMODE	IQUANT	1	Control Mode
IESTAB	IQUANT	0	I/E Stability
CASPEED	IQUANT	1	Control Amp Speed
CONVENTION	IQUANT	1	Current Convention
ICHRANGE	IQUANT	2	Ich Range
ICHRANGEMODE	TOGGLE	F	Ich Auto Range
ICHOFFSETENABLE	TOGGLE	T	Ich Offset Enable
ICHOFFSET	QUANT	0	Ich Offset (V)
ICHFILTER	IQUANT	3	Ich Filter
VCHRANGE	IQUANT	2	Vch Range
VCHRANGEMODE	TOGGLE	F	Vch Auto Range
VCHOFFSETENABLE	TOGGLE	T	Vch Offset Enable
VCHOFFSET	QUANT	0	Vch Offset (V)
VCHFILTER	IQUANT	3	Vch Filter
ACHRANGE	IQUANT	2	Ach Range
ACHOFFSETENABLE	TOGGLE	F	Ach Offset Enable
ACHOFFSET	QUANT	0	Ach Offset (V)
ACHFILTER	IQUANT	3	Ach Filter
IERANGELOWERLIMIT	IQUANT	2	I/E Range Lower Limit
IERANGEMODE	TOGGLE	F	I/E AutoRange
IERANGE	IQUANT	11	I/E Range
POSFEEDENABLE	TOGGLE	F	Positive Feedback IR Comp
POSFEEDRESISTANCE	QUANT	0	Positive Feedback Resistance (ohm)
ACHSELECT	IQUANT	0	Ach Select
CABLEID	IQUANT	13	Cable ID
DCCALDATE	LABEL	7/31/2020	DC Calibration Date
ACCALDATE	LABEL	7/31/2020	AC Calibration Date
THERMOSELECT	IQUANT	1	Thermo Select
FRAMEWORKVERSION	QUANT	6.33	Framework Version
INSTRUMENTVERSION	LABEL	3.50	Instrument Version
COMPLIANCEVOLTAGE	IQUANT	0	Compliance Voltage
ZCURVE	TABLE
	Pt	Time	Freq	Zreal	Zimag	Zsig	Zmod	Zphz	Idc	Vdc	IERange
	#	s	Hz	ohm	ohm	V	ohm	°	A	V	#
	0	27	300046.9	97.4654	-4324.005	1	4325.103	-88.70874	-2.017739E-005	0.0016453	9
	1	44	238359.4	185.401	-5388.426	1	5391.614	-88.02939	-5.722303E-005	0.0004271	9
	2	62	189328.1	412.2231	-6737.554	1	6750.153	-86.49884	-1.918181E-005	0.0015912	9
	3	70	150421.9	471.4181	-8648.998	1	8661.836	-86.88015	8.686596E-007	-0.0018431	9
	4	77	119484.4	983.593	-10388.92	1	10435.38	-84.59152	2.170254E-005	-0.0140149	8
	5	85	94921.88	1232.671	-12767.48	1	12826.85	-84.48531	-1.156675E-005	0.0101767	8
	6	93	75421.88	1515.6	-15999.41	1	16071.03	-84.58861	1.632559E-005	-0.009188	8
	7	102	59859.37	1940.062	-20084.06	1	20177.55	-84.48251	-2.034753E-005	0.0028452	8
	8	110	47578.12	1228.41	-25682.91	1	25712.27	-87.26163	-1.906719E-006	0.0077418	8
	9	119	37828.12	6184.417	-32005.19	1	32597.22	-79.06343	7.565154E-006	-0.0241799	7
	10	126	30046.88	7585.323	-39778.38	1	40495.14	-79.2039	-3.612863E-006	0.024891	7
	11	134	23859.38	8891.542	-49924.26	1	50709.87	-79.90147	2.904525E-006	0.0075492	7
	12	139	18984.38	11088.7	-60376.84	1	61386.66	-79.59313	-7.187866E-006	0.0187084	7
	13	145	15046.87	14073.95	-75255.69	1	76560.4	-79.40719	7.48407E-006	-0.0184946	7
	14	150	11953.13	17889.17	-92706.24	1	94416.47	-79.07809	-5.284064E-006	0.0039504	7
	15	155	9515.62	24304.72	-114981.4	1	117522.1	-78.06454	3.426879E-006	-0.023944	7
	16	162	7546.875	30894.93	-143919.3	1	147198	-77.88428	6.11301E-007	0.0153537	7
	17	167	5928.309	50554.13	-171050.2	1	178364.5	-73.53488	-3.585781E-006	0.0248664	7
	18	174	4733.456	89728.07	-223662	1	240989.2	-68.14047	7.18678E-007	-0.0157989	6
	19	179	3796.875	112810.5	-264673.4	1	287712.1	-66.91507	-6.688003E-007	0.0259066	6
	20	184	2987.132	91369.95	-415318.7	1	425250.6	-77.59261	1.628121E-005	-0.0091765	8
	21	192	2390.625	43543.94	-423735.6	1	425967	-84.13276	2.916669E-006	0.0077482	7
	22	199	1884.191	158012.7	-396307.5	1	426647	-68.26222	2.845109E-006	0.0079608	7
	23	206	1516.544	303660.2	-458019.6	1	549537.5	-56.45621	-3.564747E-006	0.0248055	7
	24	212	1193.986	550490.8	-449588.1	1	710752.8	-39.23866	7.488793E-006	-0.0184036	7
	25	219	946.5144	299622.1	-527053	1	606265.9	-60.38239	-1.637288E-006	0.0213096	7
	26	225	751.7689	667235.5	-639977.7	1	924540.3	-43.80545	9.122433E-009	0.0167663	6
	27	229	597.4265	761746.6	-729539.9	1	1054745	-43.7628	-4.841082E-007	0.0015596	6
	28	233	477.4305	1015637	-710801.3	1	1239660	-34.98654	-7.324534E-009	0.0007212	6
	29	236	376.6741	1279159	-573947.2	1	1402021	-24.16534	-7.806981E-010	0.0006902	5
	30	239	298.2954	1387038	-521173.7	1	1481721	-20.59349	-8.662296E-010	0.0007093	5
	31	242	237.7717	1475165	-466053.1	1	1547035	-17.53304	-7.67778E-010	0.0006292	5
	32	244	189.0121	1556594	-406043.1	1	1608681	-14.62002	-8.671068E-010	0.0006668	5
	33	247	150.2404	1618034	-344066.8	1	1654212	-12.00485	-9.072924E-010	0.0006976	5
	34	250	119.1737	1711224	-279722.3	1	1733936	-9.283648	-7.806101E-010	0.000669	5
	35	253	95.0169	1722181	-251660.6	1	1740472	-8.313731	-8.364665E-010	0.0006128	5
	36	256	75.60484	1755421	-227175.4	1	1770059	-7.373874	-7.26894E-010	0.0006302	5
	37	258	54.50582	1822732	-170810.7	1	1830718	-5.353629	-8.480405E-010	0.0006358	5
	38	262	45.95588	1842106	-159701.8	1	1849015	-4.954881	-7.049037E-010	0.0006287	5
	39	264	37.20238	1903249	-143669.2	1	1908664	-4.316861	-9.666171E-010	0.0006943	5
	40	267	30.04808	1931314	-125198.2	1	1935368	-3.70903	-8.234482E-010	0.0006746	5
	41	270	23.91582	1946130	-117655.4	1	1949683	-3.459667	-9.634884E-010	0.0006071	5
	42	273	18.60119	1978522	-72824.01	1	1979862	-2.10795	-5.736477E-010	0.0006785	5
	43	275	15.02404	2029182	-92348.17	1	2031282	-2.605736	-7.754605E-010	0.0006804	5
	44	277	12.01923	2058628	-89516.66	1	2060573	-2.489861	-6.417996E-010	0.000697	5
	45	280	9.450605	2094064	-88097.32	1	2095916	-2.409015	-7.751516E-010	0.0007003	5
	46	283	7.512019	2139819	-93361.58	1	2141855	-2.498265	-6.153478E-010	0.0006857	5
	47	286	5.978954	2189129	-104397.2	1	2191617	-2.730306	-8.629386E-010	0.0006119	5
	48	290	4.734848	2242943	-107573.7	1	2245521	-2.745857	-6.362799E-010	0.0006371	5
	49	294	3.75601	2312014	-120779.1	1	2315166	-2.990401	-5.799307E-010	0.0006825	5
	50	299	3.004808	2396848	-136410.3	1	2400726	-3.257325	-6.17342E-010	0.0006846	5
	51	306	2.372217	2484031	-150598.9	1	2488592	-3.469414	-9.129272E-010	0.0005823	5
	52	310	1.878005	2560496	-174866	1	2566460	-3.90688	-6.625962E-010	0.0006676	5
	53	315	1.512097	2650181	-201273.4	1	2657813	-4.343109	-5.859604E-010	0.0005542	5
	54	320	1.201923	2758620	-232105.8	1	2768367	-4.809446	-8.250922E-010	0.0006933	5
	55	326	0.956633	2884742	-272965.6	1	2897628	-5.405456	-1.164102E-009	1.510455E-005	5
