EXPLAIN
TAG	EISPOT
TITLE	LABEL	Potentiostatic EIS	Test Identifier
DATE	LABEL	2/25/2021	Date
TIME	LABEL	18:22:36	Time
NOTES	NOTES	1	Notes...
	
PSTAT	PSTAT	REF3000-16137	Potentiostat
VDC	POTEN	0.00000E+000	T	DC Voltage (V)
FREQINIT	QUANT	3.00000E+005	Initial Freq. (Hz)
FREQFINAL	QUANT	1.00000E+000	Final Freq. (Hz)
PTSPERDEC	QUANT	1.00000E+001	Points/decade
VAC	QUANT	5.00000E+001	AC Voltage (mV rms)
AREA	QUANT	1.00000E+000	Sample Area (cm^2)
SPEED	SELECTOR	2	Optimize for:
ZGUESS	QUANT	1.00000E+003	Estimated Z (ohms)
EOC	QUANT	0	Open Circuit (V)
SEQUENCER	TOGGLE	TRUE	Run as Sequence
PSTATMODEL	IQUANT	5	Pstat Model
PSTATSECTION	LABEL	REF3000-16137	Pstat Section
PSTATSERIALNO	LABEL	16137	Pstat Serial Number
CTRLMODE	IQUANT	1	Control Mode
IESTAB	IQUANT	0	I/E Stability
CASPEED	IQUANT	1	Control Amp Speed
CONVENTION	IQUANT	1	Current Convention
ICHRANGE	IQUANT	2	Ich Range
ICHRANGEMODE	TOGGLE	F	Ich Auto Range
ICHOFFSETENABLE	TOGGLE	T	Ich Offset Enable
ICHOFFSET	QUANT	0	Ich Offset (V)
ICHFILTER	IQUANT	3	Ich Filter
VCHRANGE	IQUANT	2	Vch Range
VCHRANGEMODE	TOGGLE	F	Vch Auto Range
VCHOFFSETENABLE	TOGGLE	T	Vch Offset Enable
VCHOFFSET	QUANT	0	Vch Offset (V)
VCHFILTER	IQUANT	3	Vch Filter
ACHRANGE	IQUANT	2	Ach Range
ACHOFFSETENABLE	TOGGLE	F	Ach Offset Enable
ACHOFFSET	QUANT	0	Ach Offset (V)
ACHFILTER	IQUANT	3	Ach Filter
IERANGELOWERLIMIT	IQUANT	2	I/E Range Lower Limit
IERANGEMODE	TOGGLE	F	I/E AutoRange
IERANGE	IQUANT	11	I/E Range
POSFEEDENABLE	TOGGLE	F	Positive Feedback IR Comp
POSFEEDRESISTANCE	QUANT	0	Positive Feedback Resistance (ohm)
ACHSELECT	IQUANT	0	Ach Select
CABLEID	IQUANT	13	Cable ID
DCCALDATE	LABEL	7/31/2020	DC Calibration Date
ACCALDATE	LABEL	7/31/2020	AC Calibration Date
THERMOSELECT	IQUANT	1	Thermo Select
FRAMEWORKVERSION	QUANT	6.33	Framework Version
INSTRUMENTVERSION	LABEL	3.50	Instrument Version
COMPLIANCEVOLTAGE	IQUANT	0	Compliance Voltage
ZCURVE	TABLE
	Pt	Time	Freq	Zreal	Zimag	Zsig	Zmod	Zphz	Idc	Vdc	IERange
	#	s	Hz	ohm	ohm	V	ohm	°	A	V	#
	0	7	300046.9	111.4355	-1.144844	1	111.4414	-0.5886133	3.825468E-006	-0.0016728	9
	1	10	238359.4	111.8885	-1.254708	1	111.8955	-0.6424835	3.044333E-005	6.046862E-005	9
	2	13	189328.1	112.533	-1.673699	1	112.5455	-0.8520946	1.323955E-005	-0.0011758	9
	3	16	150421.9	112.9412	-1.765484	1	112.955	-0.8955677	-8.112659E-006	-0.0010871	9
	4	18	119484.4	113.5554	-2.103204	1	113.5748	-1.061077	-7.984474E-005	0.0028642	9
	5	21	94921.88	114.054	-2.07804	1	114.0729	-1.043802	5.967716E-006	-0.0005236	9
	6	23	75421.88	114.5997	-2.505473	1	114.6271	-1.252448	1.901291E-005	-7.977444E-005	9
	7	26	59859.37	115.1959	-3.055894	1	115.2365	-1.519574	-1.968363E-005	0.0007833	9
	8	28	47578.12	115.8857	-3.600729	1	115.9416	-1.779687	-1.807103E-005	0.0008294	9
	9	31	37828.12	116.5009	-4.292208	1	116.5799	-2.109977	2.261961E-005	-0.0006911	9
	10	33	30046.88	117.1781	-5.082796	1	117.2883	-2.483742	-6.963847E-006	0.0007086	9
	11	36	23859.38	117.9486	-6.074358	1	118.1049	-2.948131	2.622521E-005	-0.0006757	9
	12	38	18984.38	118.85	-7.034009	1	119.058	-3.387038	1.113456E-005	0.0002683	9
	13	41	15046.87	119.8346	-8.263938	1	120.1192	-3.944939	-1.409964E-005	0.0001934	9
	14	43	11953.13	120.8811	-9.94738	1	121.2897	-4.704307	-9.90732E-006	1.452917E-005	9
	15	45	9515.62	122.0718	-11.65699	1	122.6271	-5.4548	-1.979487E-005	0.0004828	9
	16	48	7546.875	123.3785	-13.80885	1	124.1489	-6.386116	-7.080519E-006	0.000737	9
	17	50	5928.309	124.9818	-16.41416	1	126.0551	-7.481973	1.33347E-005	-0.0006438	9
	18	52	4733.456	126.6888	-19.29889	1	128.1503	-8.66145	2.460245E-005	-0.000577	9
	19	54	3796.875	128.8035	-22.58677	1	130.7689	-9.94616	1.896135E-005	-0.0007179	9
	20	57	2987.132	130.9576	-26.85534	1	133.6829	-11.58891	-1.685675E-005	0.0003661	9
	21	59	2390.625	133.5125	-31.52107	1	137.183	-13.28376	-9.180347E-006	-2.035327E-005	9
	22	61	1884.191	136.3684	-37.59749	1	141.4564	-15.41381	2.247458E-005	-0.0002371	9
	23	64	1516.544	139.6922	-43.91904	1	146.4336	-17.45308	-1.441938E-005	0.0001865	9
	24	66	1193.986	143.8858	-52.41614	1	153.1358	-20.01618	-1.429677E-005	0.0001817	9
	25	69	946.5144	148.3655	-62.14382	1	160.8545	-22.72668	-6.252695E-006	0.0007937	9
	26	71	751.7689	153.7945	-73.79352	1	170.582	-25.63258	1.921166E-005	-8.981142E-005	9
	27	73	597.4265	160.0653	-87.42192	1	182.3828	-28.64178	-1.808009E-005	0.0008702	9
	28	75	477.4305	167.2962	-103.3901	1	196.6661	-31.71632	1.246237E-006	9.137887E-005	9
	29	78	376.6741	176.2981	-123.2906	1	215.1316	-34.96625	1.284949E-006	8.182166E-005	9
	30	80	298.2954	186.8008	-146.5647	1	237.4358	-38.11788	1.246584E-006	8.828849E-005	9
	31	82	237.7717	198.839	-173.346	1	263.7912	-41.08162	1.311874E-006	8.498024E-005	9
	32	85	189.0121	213.0291	-205.3587	1	295.8945	-43.9497	1.303135E-006	8.760291E-005	9
	33	87	150.2404	229.5107	-243.2821	1	334.4568	-46.66843	1.352493E-006	7.587163E-005	9
	34	90	119.1737	248.7857	-288.8066	1	381.187	-49.25752	1.29996E-006	8.335487E-005	9
	35	92	95.0169	269.4296	-340.3857	1	434.1138	-51.63691	2.01868E-007	0.0006597	8
	36	95	75.60484	294.7428	-404.0193	1	500.1049	-53.88826	2.109837E-007	0.0006644	8
	37	97	54.50582	337.837	-517.5202	1	618.0299	-56.86351	2.06301E-007	0.0006544	8
	38	100	45.95588	364.7026	-589.9407	1	693.5691	-58.27555	2.128752E-007	0.0006635	8
	39	102	37.20238	402.4296	-694.4146	1	802.5965	-59.9067	1.979429E-007	0.0006678	8
	40	104	30.04808	446.8981	-819.9044	1	933.7886	-61.40691	2.113017E-007	0.000673	8
	41	107	23.91582	502.646	-980.115	1	1101.49	-62.84927	2.001589E-007	0.000658	8
	42	109	18.60119	576.3163	-1194.841	1	1326.569	-64.25024	2.803403E-007	0.0006579	8
	43	111	15.02404	651.83	-1414.915	1	1557.84	-65.26518	2.557716E-007	0.0006739	8
	44	114	12.01923	745.0577	-1689.054	1	1846.081	-66.19727	1.779E-007	0.0006672	8
	45	116	9.450605	865.8661	-2046.173	1	2221.835	-67.06368	2.15559E-007	0.0006703	8
	46	119	7.512019	1006.466	-2458.652	1	2656.679	-67.73793	2.170956E-007	0.0006824	8
	47	122	5.978954	1176.464	-2951.646	1	3177.464	-68.26881	2.270239E-007	0.0006645	8
	48	125	4.734848	1387.397	-3559.562	1	3820.386	-68.70584	2.705095E-007	0.0006852	8
	49	128	3.75601	1651.385	-4293.046	1	4599.709	-68.96001	-1.373359E-008	0.0006304	7
	50	131	3.004808	1959.406	-5130.184	1	5491.635	-69.09631	6.56362E-009	0.0006329	7
	51	135	2.372217	2363.932	-6188.769	1	6624.88	-69.09457	3.289888E-009	0.0006248	7
	52	139	1.878005	2874.322	-7458.177	1	7992.88	-68.92374	-6.462204E-009	0.0006316	7
	53	144	1.512097	3438.249	-8843.166	1	9488.053	-68.75377	6.836681E-009	0.0005498	7
	54	149	1.201923	4200.633	-10581.71	1	11384.99	-68.34835	-1.876046E-009	0.0006367	7
	55	156	0.956633	5116.597	-12612.34	1	13610.69	-67.91851	-5.275675E-009	-1.117913E-005	7
