EXPLAIN
TAG	EISPOT
TITLE	LABEL	Potentiostatic EIS	Test Identifier
DATE	LABEL	2/25/2021	Date
TIME	LABEL	18:06:06	Time
NOTES	NOTES	1	Notes...
	
PSTAT	PSTAT	REF3000-16137	Potentiostat
VDC	POTEN	0.00000E+000	T	DC Voltage (V)
FREQINIT	QUANT	3.00000E+005	Initial Freq. (Hz)
FREQFINAL	QUANT	1.00000E+000	Final Freq. (Hz)
PTSPERDEC	QUANT	1.00000E+001	Points/decade
VAC	QUANT	5.00000E+001	AC Voltage (mV rms)
AREA	QUANT	1.00000E+000	Sample Area (cm^2)
SPEED	SELECTOR	2	Optimize for:
ZGUESS	QUANT	1.00000E+003	Estimated Z (ohms)
EOC	QUANT	0	Open Circuit (V)
SEQUENCER	TOGGLE	TRUE	Run as Sequence
PSTATMODEL	IQUANT	5	Pstat Model
PSTATSECTION	LABEL	REF3000-16137	Pstat Section
PSTATSERIALNO	LABEL	16137	Pstat Serial Number
CTRLMODE	IQUANT	1	Control Mode
IESTAB	IQUANT	0	I/E Stability
CASPEED	IQUANT	1	Control Amp Speed
CONVENTION	IQUANT	1	Current Convention
ICHRANGE	IQUANT	2	Ich Range
ICHRANGEMODE	TOGGLE	F	Ich Auto Range
ICHOFFSETENABLE	TOGGLE	T	Ich Offset Enable
ICHOFFSET	QUANT	0	Ich Offset (V)
ICHFILTER	IQUANT	3	Ich Filter
VCHRANGE	IQUANT	2	Vch Range
VCHRANGEMODE	TOGGLE	F	Vch Auto Range
VCHOFFSETENABLE	TOGGLE	T	Vch Offset Enable
VCHOFFSET	QUANT	0	Vch Offset (V)
VCHFILTER	IQUANT	3	Vch Filter
ACHRANGE	IQUANT	2	Ach Range
ACHOFFSETENABLE	TOGGLE	F	Ach Offset Enable
ACHOFFSET	QUANT	0	Ach Offset (V)
ACHFILTER	IQUANT	3	Ach Filter
IERANGELOWERLIMIT	IQUANT	2	I/E Range Lower Limit
IERANGEMODE	TOGGLE	F	I/E AutoRange
IERANGE	IQUANT	11	I/E Range
POSFEEDENABLE	TOGGLE	F	Positive Feedback IR Comp
POSFEEDRESISTANCE	QUANT	0	Positive Feedback Resistance (ohm)
ACHSELECT	IQUANT	0	Ach Select
CABLEID	IQUANT	13	Cable ID
DCCALDATE	LABEL	7/31/2020	DC Calibration Date
ACCALDATE	LABEL	7/31/2020	AC Calibration Date
THERMOSELECT	IQUANT	1	Thermo Select
FRAMEWORKVERSION	QUANT	6.33	Framework Version
INSTRUMENTVERSION	LABEL	3.50	Instrument Version
COMPLIANCEVOLTAGE	IQUANT	0	Compliance Voltage
ZCURVE	TABLE
	Pt	Time	Freq	Zreal	Zimag	Zsig	Zmod	Zphz	Idc	Vdc	IERange
	#	s	Hz	ohm	ohm	V	ohm	°	A	V	#
	0	7	300046.9	38.74025	1.903683	1	38.787	2.813232	-3.758098E-005	9.271706E-005	9
	1	10	238359.4	38.83624	1.2651	1	38.85683	1.865764	5.282617E-005	-0.0021571	9
	2	13	189328.1	39.0081	0.6803876	1	39.01403	0.999264	1.265533E-006	-0.0010968	9
	3	16	150421.9	39.21322	0.2393912	1	39.21395	0.3497783	-4.275078E-006	0.0004202	9
	4	19	119484.4	39.30189	-0.217369	1	39.30249	-0.3168855	-5.22736E-005	0.0019501	9
	5	21	94921.88	39.54958	-0.5110853	1	39.55288	-0.740372	-1.164757E-005	0.0002298	9
	6	24	75421.88	39.72651	-0.9493403	1	39.73785	-1.368931	1.447108E-005	-0.0005252	9
	7	26	59859.37	39.94268	-1.417033	1	39.9678	-2.031811	-1.263894E-005	0.000288	9
	8	29	47578.12	40.18975	-1.903193	1	40.23479	-2.711227	1.153624E-005	-0.0003951	9
	9	31	37828.12	40.47717	-2.431157	1	40.55011	-3.437195	-8.486103E-006	0.0005197	9
	10	34	30046.88	40.80159	-3.016459	1	40.91294	-4.228181	-2.715872E-006	-7.641497E-005	9
	11	36	23859.38	41.17198	-3.678289	1	41.33596	-5.105229	-1.834186E-006	-0.000101	9
	12	39	18984.38	41.58857	-4.424488	1	41.82326	-6.072691	-1.43177E-005	0.0004614	9
	13	41	15046.87	42.06025	-5.311475	1	42.39429	-7.197359	-8.134762E-006	8.922305E-005	9
	14	43	11953.13	42.60836	-6.297618	1	43.07124	-8.407585	-1.442292E-005	0.0005487	9
	15	46	9515.62	43.21391	-7.483682	1	43.85712	-9.8249	-7.519652E-006	7.885593E-005	9
	16	48	7546.875	43.93393	-8.88695	1	44.82374	-11.43548	-1.464001E-005	0.0004026	9
	17	50	5928.309	44.764	-10.598	1	46.00145	-13.31968	-7.892981E-006	0.0005716	9
	18	52	4733.456	45.68035	-12.50653	1	47.36146	-15.31143	-1.258049E-005	0.0003464	9
	19	55	3796.875	46.70494	-14.72158	1	48.97015	-17.49506	4.305175E-006	0.0003074	9
	20	57	2987.132	47.98625	-17.59693	1	51.11098	-20.13838	-1.476015E-005	0.0005159	9
	21	59	2390.625	49.37774	-20.8029	1	53.58098	-22.84575	1.518229E-006	0.0003299	9
	22	62	1884.191	51.08336	-24.86267	1	56.81252	-25.95255	3.676027E-006	-0.0002557	9
	23	64	1516.544	52.98025	-29.28344	1	60.53451	-28.93047	-8.149494E-006	0.0005745	9
	24	66	1193.986	55.3949	-35.05265	1	65.55367	-32.32471	1.351386E-005	-0.0004373	9
	25	69	946.5144	58.15931	-41.83357	1	71.64184	-35.72719	9.11637E-006	-0.0003729	9
	26	71	751.7689	61.41385	-49.72004	1	79.01736	-38.99329	-7.789967E-006	0.000102	9
	27	73	597.4265	65.20822	-59.16303	1	88.04758	-42.21727	-8.085824E-006	0.0005847	9
	28	76	477.4305	69.51845	-70.10341	1	98.7284	-45.24004	1.375043E-006	9.367058E-005	9
	29	78	376.6741	74.84678	-83.93287	1	112.4578	-48.27515	1.412456E-006	8.581482E-005	9
	30	80	298.2954	80.9789	-100.3041	1	128.9127	-51.08488	1.30387E-006	9.441664E-005	9
	31	83	237.7717	87.93835	-119.4136	1	148.2996	-53.63139	1.371473E-006	9.304377E-005	9
	32	85	189.0121	96.1811	-142.6432	1	172.0404	-56.0091	1.325929E-006	9.222182E-005	9
	33	87	150.2404	105.8726	-170.6037	1	200.785	-58.17723	1.288658E-006	8.796078E-005	9
	34	90	119.1737	117.445	-204.6667	1	235.9699	-60.15127	1.341357E-006	8.746613E-005	9
	35	92	95.0169	130.904	-244.8375	1	277.6351	-61.86852	1.372716E-006	8.4277E-005	9
	36	95	75.60484	147.0675	-293.6041	1	328.3782	-63.39353	1.331352E-006	0.0001092	9
	37	97	54.50582	175.8124	-381.1707	1	419.7632	-65.23881	1.376224E-006	8.394071E-005	9
	38	100	45.95588	193.3885	-435.2632	1	476.291	-66.0443	3.869538E-007	0.00067	8
	39	102	37.20238	219.7467	-515.6696	1	560.5388	-66.91928	4.507343E-007	0.0006602	8
	40	104	30.04808	251.6474	-612.4573	1	662.1407	-67.66315	4.302744E-007	0.0006633	8
	41	107	23.91582	293.072	-736.3486	1	792.5278	-68.2971	4.487782E-007	0.0006654	8
	42	109	18.60119	349.1121	-901.6056	1	966.836	-68.83302	4.295848E-007	0.0006725	8
	43	112	15.02404	408.2449	-1070.756	1	1145.942	-69.12976	3.910215E-007	0.0006657	8
	44	114	12.01923	483.7426	-1280.867	1	1369.17	-69.31005	3.427049E-007	0.000668	8
	45	116	9.450605	584.8552	-1551.505	1	1658.078	-69.34557	4.929889E-007	0.0006629	8
	46	119	7.512019	705.0086	-1861.38	1	1990.42	-69.25552	4.901992E-007	0.0006619	8
	47	122	5.978954	852.066	-2226.117	1	2383.613	-69.05521	4.724221E-007	0.0006713	8
	48	125	4.734848	1037.997	-2670.738	1	2865.358	-68.7611	4.094598E-007	0.0006423	8
	49	128	3.75601	1267.631	-3189.884	1	3432.528	-68.32758	4.839073E-007	0.0006635	8
	50	131	3.004808	1538.266	-3774.026	1	4075.48	-67.82455	4.335902E-007	0.000684	8
	51	135	2.372217	1891.985	-4509.079	1	4889.929	-67.23735	4.094225E-008	0.0006626	7
	52	139	1.878005	2325.464	-5358.059	1	5840.94	-66.53856	4.873219E-008	0.0006216	7
	53	144	1.512097	2799.482	-6266.109	1	6863.033	-65.92654	2.935274E-008	0.0007407	7
	54	149	1.201923	3398.632	-7385.936	1	8130.36	-65.29052	4.178241E-008	0.0006141	7
	55	156	0.956633	4097.484	-8679.801	1	9598.35	-64.72935	-4.269348E-009	-1.153251E-005	7
