EXPLAIN
TAG	EISPOT
TITLE	LABEL	Potentiostatic EIS	Test Identifier
DATE	LABEL	2/25/2021	Date
TIME	LABEL	18:37:13	Time
NOTES	NOTES	1	Notes...
	
PSTAT	PSTAT	REF3000-16137	Potentiostat
VDC	POTEN	0.00000E+000	T	DC Voltage (V)
FREQINIT	QUANT	3.00000E+005	Initial Freq. (Hz)
FREQFINAL	QUANT	1.00000E+000	Final Freq. (Hz)
PTSPERDEC	QUANT	1.00000E+001	Points/decade
VAC	QUANT	5.00000E+001	AC Voltage (mV rms)
AREA	QUANT	1.00000E+000	Sample Area (cm^2)
SPEED	SELECTOR	2	Optimize for:
ZGUESS	QUANT	1.00000E+003	Estimated Z (ohms)
EOC	QUANT	0	Open Circuit (V)
SEQUENCER	TOGGLE	TRUE	Run as Sequence
PSTATMODEL	IQUANT	5	Pstat Model
PSTATSECTION	LABEL	REF3000-16137	Pstat Section
PSTATSERIALNO	LABEL	16137	Pstat Serial Number
CTRLMODE	IQUANT	1	Control Mode
IESTAB	IQUANT	0	I/E Stability
CASPEED	IQUANT	1	Control Amp Speed
CONVENTION	IQUANT	1	Current Convention
ICHRANGE	IQUANT	2	Ich Range
ICHRANGEMODE	TOGGLE	F	Ich Auto Range
ICHOFFSETENABLE	TOGGLE	T	Ich Offset Enable
ICHOFFSET	QUANT	0	Ich Offset (V)
ICHFILTER	IQUANT	3	Ich Filter
VCHRANGE	IQUANT	2	Vch Range
VCHRANGEMODE	TOGGLE	F	Vch Auto Range
VCHOFFSETENABLE	TOGGLE	T	Vch Offset Enable
VCHOFFSET	QUANT	0	Vch Offset (V)
VCHFILTER	IQUANT	3	Vch Filter
ACHRANGE	IQUANT	2	Ach Range
ACHOFFSETENABLE	TOGGLE	F	Ach Offset Enable
ACHOFFSET	QUANT	0	Ach Offset (V)
ACHFILTER	IQUANT	3	Ach Filter
IERANGELOWERLIMIT	IQUANT	2	I/E Range Lower Limit
IERANGEMODE	TOGGLE	F	I/E AutoRange
IERANGE	IQUANT	11	I/E Range
POSFEEDENABLE	TOGGLE	F	Positive Feedback IR Comp
POSFEEDRESISTANCE	QUANT	0	Positive Feedback Resistance (ohm)
ACHSELECT	IQUANT	0	Ach Select
CABLEID	IQUANT	13	Cable ID
DCCALDATE	LABEL	7/31/2020	DC Calibration Date
ACCALDATE	LABEL	7/31/2020	AC Calibration Date
THERMOSELECT	IQUANT	1	Thermo Select
FRAMEWORKVERSION	QUANT	6.33	Framework Version
INSTRUMENTVERSION	LABEL	3.50	Instrument Version
COMPLIANCEVOLTAGE	IQUANT	0	Compliance Voltage
ZCURVE	TABLE
	Pt	Time	Freq	Zreal	Zimag	Zsig	Zmod	Zphz	Idc	Vdc	IERange
	#	s	Hz	ohm	ohm	V	ohm	°	A	V	#
	0	11	300046.9	409.6914	-49.80525	1	412.7076	-6.931306	1.909645E-005	-0.0019411	9
	1	16	238359.4	415.0953	-42.06856	1	417.2216	-5.786982	-8.895737E-005	0.0020906	9
	2	20	189328.1	419.697	-34.33403	1	421.099	-4.676765	2.779979E-005	0.0008455	9
	3	25	150421.9	426.3846	-30.6137	1	427.4821	-4.106695	2.286755E-005	-0.0004077	9
	4	30	119484.4	431.0037	-12.80561	1	431.1939	-1.701822	1.770201E-005	0.0028516	8
	5	33	94921.88	433.7737	-9.78317	1	433.884	-1.292009	-9.937949E-006	0.0052865	8
	6	35	75421.88	436.8073	-9.59053	1	436.9126	-1.257783	1.664102E-006	0.003222	8
	7	38	59859.37	437.9102	-9.54029	1	438.0141	-1.248046	1.161079E-005	-0.0050384	8
	8	40	47578.12	440.0877	-9.02963	1	440.1803	-1.175418	-7.384821E-006	-1.892162E-005	8
	9	43	37828.12	443.9414	-9.58057	1	444.0447	-1.236291	-2.389535E-006	-0.0020493	8
	10	46	30046.88	445.0445	-11.3959	1	445.1903	-1.466807	1.407321E-005	-0.0048647	8
	11	48	23859.38	447.0091	-12.14039	1	447.174	-1.555722	6.852899E-006	0.001771	8
	12	50	18984.38	450.3657	-13.29686	1	450.562	-1.691143	1.209333E-005	-0.0004556	8
	13	53	15046.87	455.0058	-16.49687	1	455.3048	-2.076429	1.141149E-005	-0.0049214	8
	14	55	11953.13	456.7906	-16.76844	1	457.0983	-2.102341	-1.24394E-005	0.0064118	8
	15	57	9515.62	459.5939	-20.18386	1	460.0369	-2.514627	-7.898737E-006	7.627589E-005	8
	16	60	7546.875	463.8015	-24.7862	1	464.4633	-3.059057	1.485663E-005	-0.0021767	8
	17	62	5928.309	467.5354	-27.62757	1	468.351	-3.381786	-2.487954E-006	-0.0019038	8
	18	64	4733.456	472.4848	-31.21943	1	473.515	-3.780323	-1.307199E-005	0.0028405	8
	19	67	3796.875	475.8888	-37.67387	1	477.3777	-4.526397	-1.52122E-005	0.0066145	8
	20	69	2987.132	482.1207	-45.72882	1	484.2845	-5.418256	1.199412E-005	-0.0004197	8
	21	71	2390.625	487.9333	-53.2425	1	490.8296	-6.227386	-1.439687E-005	0.0061363	8
	22	74	1884.191	493.2249	-64.25799	1	497.3931	-7.422762	-2.465128E-006	-0.0019071	8
	23	76	1516.544	500.973	-73.31688	1	506.3095	-8.326072	-1.218343E-005	0.0064265	8
	24	78	1193.986	509.6673	-87.41219	1	517.1089	-9.73202	-1.265311E-005	0.0065046	8
	25	81	946.5144	518.8964	-104.0804	1	529.2318	-11.3419	-1.100255E-005	0.0016777	8
	26	83	751.7689	529.491	-123.4606	1	543.6941	-13.12506	1.429735E-005	-0.0049943	8
	27	85	597.4265	542.7941	-144.8294	1	561.7837	-14.93972	-2.73599E-006	-0.0019453	8
	28	88	477.4305	556.0411	-170.4223	1	581.5716	-17.03989	5.290395E-009	0.0006566	8
	29	90	376.6741	572.627	-202.5338	1	607.3892	-19.47829	-4.083613E-009	0.0006663	8
	30	92	298.2954	591.5775	-240.2764	1	638.5114	-22.10513	2.636561E-008	0.0006498	8
	31	95	237.7717	613.1691	-283.913	1	675.7092	-24.84535	-1.598282E-008	0.0006642	8
	32	97	189.0121	638.6794	-336.3221	1	721.8199	-27.77083	1.849415E-008	0.0006455	8
	33	100	150.2404	668.6948	-398.5123	1	778.4374	-30.79305	1.603692E-008	0.0006452	8
	34	102	119.1737	704.4766	-472.8918	1	848.4774	-33.87215	-8.88602E-009	0.0006653	8
	35	104	95.0169	745.9053	-558.7352	1	931.9655	-36.83577	-1.526762E-008	0.0006613	8
	36	107	75.60484	795.2775	-660.7449	1	1033.949	-39.72101	-1.269937E-008	0.000662	8
	37	109	54.50582	880.0845	-838.3635	1	1215.484	-43.60923	1.675782E-008	0.0006498	8
	38	112	45.95588	933.8389	-949.3311	1	1331.647	-45.47134	1.510951E-009	0.0006542	8
	39	114	37.20238	1008.217	-1106.451	1	1496.908	-47.65968	-2.602197E-008	0.000656	8
	40	117	30.04808	1094.393	-1291.778	1	1693.041	-49.72877	2.836786E-008	0.0006453	8
	41	119	23.91582	1199.779	-1524.699	1	1940.149	-51.80095	-2.279234E-008	0.0006636	8
	42	122	18.60119	1333.606	-1832.174	1	2266.135	-53.94982	-1.135618E-008	0.0006408	8
	43	124	15.02404	1466.378	-2144.556	1	2597.958	-55.63695	4.578767E-008	0.0006659	8
	44	126	12.01923	1624.818	-2531.994	1	3008.493	-57.31111	-2.072809E-008	0.0006534	8
	45	129	9.450605	1819.575	-3033.024	1	3536.96	-59.03957	-1.827974E-009	0.0006738	8
	46	131	7.512019	2045.793	-3618.847	1	4157.081	-60.51981	-3.166461E-008	0.0006252	7
	47	134	5.978954	2301.537	-4311.58	1	4887.411	-61.90654	-2.037107E-008	0.000616	7
	48	137	4.734848	2609.383	-5170.048	1	5791.224	-63.21939	-9.649106E-010	0.0006785	7
	49	140	3.75601	2977.067	-6194.069	1	6872.367	-64.32958	-3.214642E-008	0.0006434	7
	50	143	3.004808	3397.832	-7381.277	1	8125.793	-65.28191	-1.455206E-008	0.0006174	7
	51	147	2.372217	3941.996	-8885.774	1	9720.92	-66.07649	-1.635268E-008	0.0006765	7
	52	151	1.878005	4583.278	-10724.03	1	11662.38	-66.85891	-2.694779E-008	0.0006232	7
	53	156	1.512097	5278.591	-12744.89	1	13794.77	-67.50197	-1.817745E-008	0.0005583	7
	54	162	1.201923	6212.068	-15335.62	1	16546.03	-67.94839	-2.342324E-008	0.0006219	7
	55	168	0.956633	7309.625	-18411.04	1	19809.02	-68.34574	-2.401783E-008	-1.761719E-005	7
