EXPLAIN
TAG	EISPOT
TITLE	LABEL	Potentiostatic EIS	Test Identifier
DATE	LABEL	2/25/2021	Date
TIME	LABEL	18:25:21	Time
NOTES	NOTES	1	Notes...
	
PSTAT	PSTAT	REF3000-16137	Potentiostat
VDC	POTEN	0.00000E+000	T	DC Voltage (V)
FREQINIT	QUANT	3.00000E+005	Initial Freq. (Hz)
FREQFINAL	QUANT	1.00000E+000	Final Freq. (Hz)
PTSPERDEC	QUANT	1.00000E+001	Points/decade
VAC	QUANT	5.00000E+001	AC Voltage (mV rms)
AREA	QUANT	1.00000E+000	Sample Area (cm^2)
SPEED	SELECTOR	2	Optimize for:
ZGUESS	QUANT	1.00000E+003	Estimated Z (ohms)
EOC	QUANT	0	Open Circuit (V)
SEQUENCER	TOGGLE	TRUE	Run as Sequence
PSTATMODEL	IQUANT	5	Pstat Model
PSTATSECTION	LABEL	REF3000-16137	Pstat Section
PSTATSERIALNO	LABEL	16137	Pstat Serial Number
CTRLMODE	IQUANT	1	Control Mode
IESTAB	IQUANT	0	I/E Stability
CASPEED	IQUANT	1	Control Amp Speed
CONVENTION	IQUANT	1	Current Convention
ICHRANGE	IQUANT	2	Ich Range
ICHRANGEMODE	TOGGLE	F	Ich Auto Range
ICHOFFSETENABLE	TOGGLE	T	Ich Offset Enable
ICHOFFSET	QUANT	0	Ich Offset (V)
ICHFILTER	IQUANT	3	Ich Filter
VCHRANGE	IQUANT	2	Vch Range
VCHRANGEMODE	TOGGLE	F	Vch Auto Range
VCHOFFSETENABLE	TOGGLE	T	Vch Offset Enable
VCHOFFSET	QUANT	0	Vch Offset (V)
VCHFILTER	IQUANT	3	Vch Filter
ACHRANGE	IQUANT	2	Ach Range
ACHOFFSETENABLE	TOGGLE	F	Ach Offset Enable
ACHOFFSET	QUANT	0	Ach Offset (V)
ACHFILTER	IQUANT	3	Ach Filter
IERANGELOWERLIMIT	IQUANT	2	I/E Range Lower Limit
IERANGEMODE	TOGGLE	F	I/E AutoRange
IERANGE	IQUANT	11	I/E Range
POSFEEDENABLE	TOGGLE	F	Positive Feedback IR Comp
POSFEEDRESISTANCE	QUANT	0	Positive Feedback Resistance (ohm)
ACHSELECT	IQUANT	0	Ach Select
CABLEID	IQUANT	13	Cable ID
DCCALDATE	LABEL	7/31/2020	DC Calibration Date
ACCALDATE	LABEL	7/31/2020	AC Calibration Date
THERMOSELECT	IQUANT	1	Thermo Select
FRAMEWORKVERSION	QUANT	6.33	Framework Version
INSTRUMENTVERSION	LABEL	3.50	Instrument Version
COMPLIANCEVOLTAGE	IQUANT	0	Compliance Voltage
ZCURVE	TABLE
	Pt	Time	Freq	Zreal	Zimag	Zsig	Zmod	Zphz	Idc	Vdc	IERange
	#	s	Hz	ohm	ohm	V	ohm	°	A	V	#
	0	7	300046.9	138.1655	-3.254747	1	138.2039	-1.349459	1.494284E-005	-0.0017189	9
	1	10	238359.4	138.7913	-3.059768	1	138.8251	-1.262928	8.529958E-006	-0.0017018	9
	2	13	189328.1	139.3135	-2.758546	1	139.3408	-1.134365	6.71142E-005	-0.001623	9
	3	16	150421.9	140.2205	-2.805772	1	140.2485	-1.146319	6.961552E-005	-0.0026315	9
	4	18	119484.4	140.948	-3.055694	1	140.9811	-1.241955	-1.502915E-005	0.000991	9
	5	21	94921.88	141.7024	-3.06704	1	141.7356	-1.23993	-1.040587E-005	-2.717733E-005	9
	6	24	75421.88	142.41	-3.335795	1	142.449	-1.341844	-7.513217E-006	0.000725	9
	7	29	59859.37	143.6718	-3.717606	1	143.7199	-1.482236	-1.928066E-005	0.0004407	9
	8	31	47578.12	144.3703	-4.321517	1	144.435	-1.714555	2.010301E-005	-0.0007733	9
	9	34	37828.12	145.1773	-4.895083	1	145.2598	-1.931165	-2.115191E-005	0.0008398	9
	10	36	30046.88	145.9542	-5.74837	1	146.0673	-2.255415	1.398906E-005	-0.0007083	9
	11	39	23859.38	146.9363	-6.69715	1	147.0888	-2.609655	-2.344967E-006	-0.0002813	9
	12	41	18984.38	147.9785	-7.866694	1	148.1875	-3.04304	-1.909329E-005	0.0009367	9
	13	43	15046.87	149.1007	-9.245293	1	149.387	-3.548199	2.010805E-005	-0.0007473	9
	14	46	11953.13	150.4328	-10.68163	1	150.8116	-4.061528	6.650552E-006	-0.0005324	9
	15	48	9515.62	151.6845	-12.86527	1	152.2291	-4.847994	-1.477755E-005	0.0001598	9
	16	50	7546.875	153.1391	-15.12718	1	153.8845	-5.641409	2.610772E-005	-0.0005736	9
	17	53	5928.309	155.0388	-17.95518	1	156.075	-6.606046	2.298337E-005	-0.0002322	9
	18	55	4733.456	157.092	-21.12913	1	158.5066	-7.660399	2.03164E-005	-0.0007515	9
	19	57	3796.875	159.3619	-24.68845	1	161.2629	-8.806295	-8.840844E-006	-5.600913E-005	9
	20	59	2987.132	161.9678	-29.34556	1	164.6048	-10.26953	1.639868E-006	0.0005535	9
	21	62	2390.625	164.7571	-34.48609	1	168.3276	-11.82217	2.488829E-005	-0.0007148	9
	22	64	1884.191	168.4279	-40.65864	1	173.2659	-13.5716	1.12444E-005	0.0002522	9
	23	66	1516.544	171.7601	-47.84293	1	178.2989	-15.56491	-2.180495E-005	0.0006828	9
	24	69	1193.986	176.4269	-57.06393	1	185.4259	-17.9234	-7.169314E-006	0.0008006	9
	25	71	946.5144	181.6083	-67.86746	1	193.8751	-20.49084	-1.806025E-006	-0.000291	9
	26	73	751.7689	187.8095	-79.95593	1	204.121	-23.06086	1.967421E-005	-7.469014E-005	9
	27	76	597.4265	194.3691	-94.95058	1	216.3214	-26.03581	-2.035584E-005	0.0004923	9
	28	78	477.4305	202.4053	-112.2772	1	231.4608	-29.01779	1.336419E-006	8.099686E-005	9
	29	80	376.6741	212.3243	-133.8526	1	250.9943	-32.22799	1.315328E-006	7.972959E-005	9
	30	83	298.2954	223.944	-159.1437	1	274.732	-35.39915	1.368216E-006	7.99379E-005	9
	31	85	237.7717	237.2602	-188.1929	1	302.8348	-38.42117	1.343756E-006	8.564969E-005	9
	32	88	189.0121	253.077	-222.8923	1	337.2372	-41.37131	1.402394E-006	7.884315E-005	9
	33	90	150.2404	271.5274	-263.8934	1	378.6382	-44.18313	1.373454E-006	7.672392E-005	9
	34	92	119.1737	291.9531	-311.5844	1	426.9911	-46.86301	1.607468E-007	0.0006588	8
	35	95	95.0169	316.3459	-368.231	1	485.4574	-49.33424	1.613185E-007	0.0006678	8
	36	97	75.60484	344.7628	-436.1391	1	555.9485	-51.67405	1.62472E-007	0.000652	8
	37	100	54.50582	392.87	-556.7584	1	681.4152	-54.79174	1.453878E-007	0.0006544	8
	38	102	45.95588	422.6772	-633.4754	1	761.5425	-56.28738	1.720112E-007	0.000665	8
	39	105	37.20238	464.3049	-743.9986	1	876.9908	-58.03308	1.796047E-007	0.0006536	8
	40	107	30.04808	512.9531	-876.6292	1	1015.677	-59.66628	1.785508E-007	0.0006524	8
	41	109	23.91582	573.8097	-1046.195	1	1193.224	-61.25643	1.506474E-007	0.0006496	8
	42	112	18.60119	652.9315	-1272.882	1	1430.577	-62.84422	2.378436E-007	0.0006502	8
	43	114	15.02404	734.2206	-1504.904	1	1674.46	-63.99294	1.27787E-007	0.0006543	8
	44	116	12.01923	833.9681	-1795.454	1	1979.686	-65.08566	1.964011E-007	0.0006629	8
	45	119	9.450605	962.731	-2171.335	1	2375.194	-66.08836	1.479768E-007	0.0006461	8
	46	121	7.512019	1112.508	-2608.564	1	2835.892	-66.90259	2.101895E-007	0.000654	8
	47	124	5.978954	1290.302	-3128.71	1	3384.332	-67.5884	1.998057E-007	0.0006545	8
	48	127	4.734848	1510.399	-3773.658	1	4064.702	-68.18635	1.4359E-007	0.0006397	8
	49	130	3.75601	1783.542	-4552.234	1	4889.157	-68.60501	2.927207E-008	0.0006401	7
	50	134	3.004808	2099.998	-5440.105	1	5831.358	-68.89233	1.878834E-009	0.0006627	7
	51	137	2.372217	2515.428	-6564.922	1	7030.333	-69.03507	1.073072E-008	0.0006322	7
	52	142	1.878005	3035.994	-7924.574	1	8486.231	-69.0376	1.988288E-008	0.0006226	7
	53	146	1.512097	3617.154	-9414.248	1	10085.23	-68.98217	7.912172E-009	0.0007282	7
	54	152	1.201923	4390.721	-11291.53	1	12115.15	-68.75138	1.715754E-008	0.0006262	7
	55	158	0.956633	5326.896	-13500.82	1	14513.72	-68.46775	-1.390436E-008	-9.670322E-006	7
