EXPLAIN
TAG	EISPOT
TITLE	LABEL	Potentiostatic EIS	Test Identifier
DATE	LABEL	2/25/2021	Date
TIME	LABEL	18:34:07	Time
NOTES	NOTES	1	Notes...
	
PSTAT	PSTAT	REF3000-16137	Potentiostat
VDC	POTEN	0.00000E+000	T	DC Voltage (V)
FREQINIT	QUANT	3.00000E+005	Initial Freq. (Hz)
FREQFINAL	QUANT	1.00000E+000	Final Freq. (Hz)
PTSPERDEC	QUANT	1.00000E+001	Points/decade
VAC	QUANT	5.00000E+001	AC Voltage (mV rms)
AREA	QUANT	1.00000E+000	Sample Area (cm^2)
SPEED	SELECTOR	2	Optimize for:
ZGUESS	QUANT	1.00000E+003	Estimated Z (ohms)
EOC	QUANT	0	Open Circuit (V)
SEQUENCER	TOGGLE	TRUE	Run as Sequence
PSTATMODEL	IQUANT	5	Pstat Model
PSTATSECTION	LABEL	REF3000-16137	Pstat Section
PSTATSERIALNO	LABEL	16137	Pstat Serial Number
CTRLMODE	IQUANT	1	Control Mode
IESTAB	IQUANT	0	I/E Stability
CASPEED	IQUANT	1	Control Amp Speed
CONVENTION	IQUANT	1	Current Convention
ICHRANGE	IQUANT	2	Ich Range
ICHRANGEMODE	TOGGLE	F	Ich Auto Range
ICHOFFSETENABLE	TOGGLE	T	Ich Offset Enable
ICHOFFSET	QUANT	0	Ich Offset (V)
ICHFILTER	IQUANT	3	Ich Filter
VCHRANGE	IQUANT	2	Vch Range
VCHRANGEMODE	TOGGLE	F	Vch Auto Range
VCHOFFSETENABLE	TOGGLE	T	Vch Offset Enable
VCHOFFSET	QUANT	0	Vch Offset (V)
VCHFILTER	IQUANT	3	Vch Filter
ACHRANGE	IQUANT	2	Ach Range
ACHOFFSETENABLE	TOGGLE	F	Ach Offset Enable
ACHOFFSET	QUANT	0	Ach Offset (V)
ACHFILTER	IQUANT	3	Ach Filter
IERANGELOWERLIMIT	IQUANT	2	I/E Range Lower Limit
IERANGEMODE	TOGGLE	F	I/E AutoRange
IERANGE	IQUANT	11	I/E Range
POSFEEDENABLE	TOGGLE	F	Positive Feedback IR Comp
POSFEEDRESISTANCE	QUANT	0	Positive Feedback Resistance (ohm)
ACHSELECT	IQUANT	0	Ach Select
CABLEID	IQUANT	13	Cable ID
DCCALDATE	LABEL	7/31/2020	DC Calibration Date
ACCALDATE	LABEL	7/31/2020	AC Calibration Date
THERMOSELECT	IQUANT	1	Thermo Select
FRAMEWORKVERSION	QUANT	6.33	Framework Version
INSTRUMENTVERSION	LABEL	3.50	Instrument Version
COMPLIANCEVOLTAGE	IQUANT	0	Compliance Voltage
ZCURVE	TABLE
	Pt	Time	Freq	Zreal	Zimag	Zsig	Zmod	Zphz	Idc	Vdc	IERange
	#	s	Hz	ohm	ohm	V	ohm	°	A	V	#
	0	7	300046.9	297.7607	-31.17069	1	299.3878	-5.976167	2.156758E-005	0.0007148	10
	1	11	238359.4	303.1127	-21.37906	1	303.8657	-4.034489	2.757247E-005	0.0005961	9
	2	19	189328.1	308.6979	-18.45702	1	309.2492	-3.421636	1.622777E-005	-0.0008693	9
	3	28	150421.9	312.5968	-17.34605	1	313.0777	-3.176095	-1.661425E-005	0.0010739	9
	4	36	119484.4	317.4127	-14.4808	1	317.7428	-2.612101	2.178303E-005	-0.001606	9
	5	40	94921.88	319.3329	-12.55753	1	319.5797	-2.251954	2.282556E-005	-0.0008331	9
	6	42	75421.88	321.4017	-11.2581	1	321.5988	-2.006143	2.672113E-005	-0.000449	9
	7	45	59859.37	323.1828	-10.54909	1	323.3549	-1.869541	-2.384436E-005	0.0006638	9
	8	48	47578.12	325.278	-9.79455	1	325.4254	-1.724731	-2.17572E-005	0.0010195	9
	9	50	37828.12	326.9638	-9.50232	1	327.1018	-1.664679	-2.394577E-005	0.0008382	9
	10	53	30046.88	329.0992	-10.25739	1	329.2591	-1.785221	1.115708E-005	0.0003645	9
	11	55	23859.38	330.8698	-11.37779	1	331.0654	-1.969483	-9.728496E-006	0.0008807	9
	12	57	18984.38	333.1167	-12.32734	1	333.3447	-2.119324	-1.728657E-005	0.0009911	9
	13	60	15046.87	334.5427	-13.54272	1	334.8167	-2.31814	2.302712E-005	-0.0008303	9
	14	62	11953.13	337.2326	-16.54072	1	337.638	-2.808016	2.118942E-005	-0.0001224	9
	15	65	9515.62	340.339	-18.72157	1	340.8535	-3.148587	-1.62103E-005	0.0001466	9
	16	67	7546.875	342.9494	-21.24135	1	343.6066	-3.544217	-1.86095E-005	0.0011183	9
	17	70	5928.309	346.8271	-25.15473	1	347.7381	-4.148293	-2.16719E-005	0.000493	9
	18	72	4733.456	350.3415	-30.06679	1	351.6293	-4.905184	-1.156513E-006	-0.0003911	9
	19	75	3796.875	352.4006	-33.45614	1	353.9852	-5.423281	-1.073863E-005	0.0056432	8
	20	77	2987.132	358.2241	-40.91294	1	360.5528	-6.515546	-2.402591E-005	0.0008766	9
	21	79	2390.625	363.4721	-47.35504	1	366.544	-7.422981	-2.259013E-005	0.0006729	9
	22	82	1884.191	369.9612	-56.48629	1	374.2486	-8.680972	2.770688E-005	-0.0006269	9
	23	85	1516.544	374.5263	-66.19189	1	380.3305	-10.02267	-2.40919E-005	0.0007046	9
	24	87	1193.986	382.041	-78.10072	1	389.9424	-11.55379	-9.982211E-007	-0.0003944	9
	25	90	946.5144	388.5768	-91.6467	1	399.238	-13.27082	-1.25063E-005	0.0036777	8
	26	92	751.7689	397.666	-109.5176	1	412.471	-15.3976	1.339735E-005	-0.0020107	8
	27	94	597.4265	407.4525	-129.462	1	427.5254	-17.62689	-1.267362E-005	0.0037143	8
	28	97	477.4305	419.5518	-151.8795	1	446.1963	-19.90046	6.956697E-009	0.0006591	8
	29	99	376.6741	433.786	-180.7297	1	469.9293	-22.61823	3.655534E-008	0.00065	8
	30	101	298.2954	450.2352	-214.6198	1	498.7719	-25.48638	7.825033E-009	0.0006692	8
	31	104	237.7717	469.0961	-253.7907	1	533.3488	-28.41431	5.070119E-009	0.0006579	8
	32	106	189.0121	491.5051	-300.7609	1	576.2242	-31.46322	3.02798E-008	0.0006547	8
	33	108	150.2404	517.9963	-356.3403	1	628.7277	-34.52489	1.049012E-008	0.0006636	8
	34	111	119.1737	549.6268	-422.6078	1	693.3159	-37.55666	-2.803199E-009	0.000671	8
	35	113	95.0169	586.1135	-498.9951	1	769.7565	-40.40983	3.196524E-008	0.0006573	8
	36	116	75.60484	629.3527	-589.6688	1	862.4349	-43.13546	1.823473E-008	0.0006564	8
	37	118	54.50582	702.9876	-747.7357	1	1026.304	-46.76675	6.220827E-009	0.0006661	8
	38	121	45.95588	749.1226	-846.8809	1	1130.66	-48.5051	-6.613248E-009	0.0006706	8
	39	123	37.20238	812.5635	-987.766	1	1279.039	-50.55835	2.108385E-008	0.0006487	8
	40	126	30.04808	885.94	-1154.902	1	1455.571	-52.50772	3.721512E-008	0.0006456	8
	41	128	23.91582	975.52	-1366.129	1	1678.674	-54.47028	2.089191E-008	0.000659	8
	42	130	18.60119	1089.22	-1646.391	1	1974.083	-56.51217	4.996738E-008	0.0006458	8
	43	133	15.02404	1202.007	-1933.576	1	2276.739	-58.13287	7.474372E-008	0.0006583	8
	44	135	12.01923	1338.454	-2289.148	1	2651.727	-59.68537	1.766503E-008	0.0006724	8
	45	137	9.450605	1509.08	-2752.952	1	3139.438	-61.26986	3.899784E-008	0.0006475	8
	46	140	7.512019	1702.71	-3288.233	1	3702.931	-62.62401	-9.251844E-009	0.000649	8
	47	143	5.978954	1936.201	-3937.301	1	4387.621	-63.81395	-1.529182E-008	0.0006446	7
	48	146	4.734848	2213.327	-4731.703	1	5223.776	-64.93143	-3.007552E-008	0.0006067	7
	49	149	3.75601	2545.821	-5679.298	1	6223.795	-65.85506	3.839056E-009	0.0006493	7
	50	152	3.004808	2928.671	-6776.929	1	7382.675	-66.62826	-1.046139E-008	0.0006324	7
	51	156	2.372217	3426.945	-8167.993	1	8857.769	-67.23914	-1.043877E-008	0.0005894	7
	52	160	1.878005	4014.564	-9865.78	1	10651.31	-67.8577	-4.21976E-010	0.0006282	7
	53	165	1.512097	4655.459	-11719.97	1	12610.75	-68.33582	-9.783038E-009	0.0006514	7
	54	170	1.201923	5523.401	-14121.58	1	15163.34	-68.63794	-4.711283E-009	0.0006459	7
	55	177	0.956633	6558.783	-16965.7	1	18189.35	-68.86395	-2.232479E-008	-1.158018E-005	7
