EXPLAIN
TAG	EISPOT
TITLE	LABEL	Potentiostatic EIS	Test Identifier
DATE	LABEL	2/25/2021	Date
TIME	LABEL	18:52:11	Time
NOTES	NOTES	1	Notes...
	
PSTAT	PSTAT	REF3000-16137	Potentiostat
VDC	POTEN	0.00000E+000	T	DC Voltage (V)
FREQINIT	QUANT	3.00000E+005	Initial Freq. (Hz)
FREQFINAL	QUANT	1.00000E+000	Final Freq. (Hz)
PTSPERDEC	QUANT	1.00000E+001	Points/decade
VAC	QUANT	5.00000E+001	AC Voltage (mV rms)
AREA	QUANT	1.00000E+000	Sample Area (cm^2)
SPEED	SELECTOR	2	Optimize for:
ZGUESS	QUANT	1.00000E+003	Estimated Z (ohms)
EOC	QUANT	0	Open Circuit (V)
SEQUENCER	TOGGLE	TRUE	Run as Sequence
PSTATMODEL	IQUANT	5	Pstat Model
PSTATSECTION	LABEL	REF3000-16137	Pstat Section
PSTATSERIALNO	LABEL	16137	Pstat Serial Number
CTRLMODE	IQUANT	1	Control Mode
IESTAB	IQUANT	0	I/E Stability
CASPEED	IQUANT	1	Control Amp Speed
CONVENTION	IQUANT	1	Current Convention
ICHRANGE	IQUANT	2	Ich Range
ICHRANGEMODE	TOGGLE	F	Ich Auto Range
ICHOFFSETENABLE	TOGGLE	T	Ich Offset Enable
ICHOFFSET	QUANT	0	Ich Offset (V)
ICHFILTER	IQUANT	3	Ich Filter
VCHRANGE	IQUANT	2	Vch Range
VCHRANGEMODE	TOGGLE	F	Vch Auto Range
VCHOFFSETENABLE	TOGGLE	T	Vch Offset Enable
VCHOFFSET	QUANT	0	Vch Offset (V)
VCHFILTER	IQUANT	3	Vch Filter
ACHRANGE	IQUANT	2	Ach Range
ACHOFFSETENABLE	TOGGLE	F	Ach Offset Enable
ACHOFFSET	QUANT	0	Ach Offset (V)
ACHFILTER	IQUANT	3	Ach Filter
IERANGELOWERLIMIT	IQUANT	2	I/E Range Lower Limit
IERANGEMODE	TOGGLE	F	I/E AutoRange
IERANGE	IQUANT	11	I/E Range
POSFEEDENABLE	TOGGLE	F	Positive Feedback IR Comp
POSFEEDRESISTANCE	QUANT	0	Positive Feedback Resistance (ohm)
ACHSELECT	IQUANT	0	Ach Select
CABLEID	IQUANT	13	Cable ID
DCCALDATE	LABEL	7/31/2020	DC Calibration Date
ACCALDATE	LABEL	7/31/2020	AC Calibration Date
THERMOSELECT	IQUANT	1	Thermo Select
FRAMEWORKVERSION	QUANT	6.33	Framework Version
INSTRUMENTVERSION	LABEL	3.50	Instrument Version
COMPLIANCEVOLTAGE	IQUANT	0	Compliance Voltage
ZCURVE	TABLE
	Pt	Time	Freq	Zreal	Zimag	Zsig	Zmod	Zphz	Idc	Vdc	IERange
	#	s	Hz	ohm	ohm	V	ohm	°	A	V	#
	0	17	300046.9	1643.49	-1303.338	1	2097.558	-38.4155	2.304687E-005	-0.0020654	9
	1	30	238359.4	1927.586	-1285.105	1	2316.697	-33.69106	-1.472045E-005	0.0017651	9
	2	44	189328.1	2140.783	-1205.093	1	2456.665	-29.3761	-5.964004E-005	0.0005256	9
	3	52	150421.9	2385.178	-1216.977	1	2677.706	-27.0318	-1.388428E-005	0.0017328	9
	4	59	119484.4	2662.483	-1027.207	1	2853.764	-21.09701	-0.0001037	0.0037719	9
	5	70	94921.88	2876.927	-840.4645	1	2997.181	-16.28518	2.33706E-005	-0.0081868	8
	6	76	75421.88	3026.648	-739.3497	1	3115.644	-13.72738	1.689813E-005	-0.0001432	8
	7	83	59859.37	3162.376	-690.954	1	3236.98	-12.32498	-1.899276E-005	0.0002848	9
	8	91	47578.12	3254.412	-565.6895	1	3303.211	-9.86076	-1.947397E-005	0.0031586	8
	9	98	37828.12	3377.393	-476.1779	1	3410.796	-8.025223	2.431175E-005	-0.0050337	8
	10	105	30046.88	3459.891	-404.9241	1	3483.505	-6.675176	-2.38474E-005	0.0072676	8
	11	112	23859.38	3540.746	-336.1029	1	3556.663	-5.422515	2.510863E-005	-0.0069116	8
	12	117	18984.38	3618.856	-285.9691	1	3630.137	-4.518237	5.968761E-006	-0.0063577	8
	13	123	15046.87	3674.288	-249.9988	1	3682.783	-3.892409	-1.679087E-005	0.0102607	8
	14	128	11953.13	3732.449	-212.7413	1	3738.507	-3.262203	-1.971395E-005	0.003304	8
	15	133	9515.62	3795.723	-187.0838	1	3800.331	-2.821714	-2.166443E-005	0.0101197	8
	16	139	7546.875	3856.3	-176.8759	1	3860.354	-2.62613	2.377712E-005	-0.0082543	8
	17	144	5928.309	3926.932	-193.7734	1	3931.709	-2.824953	6.37728E-006	-0.0066655	8
	18	149	4733.456	3976.511	-177.2333	1	3980.459	-2.551987	2.378691E-005	-0.0082673	8
	19	155	3796.875	4040.438	-158.3059	1	4043.539	-2.243722	1.41485E-005	-0.0082403	8
	20	160	2987.132	4086.89	-163.8892	1	4090.174	-2.296399	-9.91349E-006	-0.0013783	8
	21	165	2390.625	4210.445	-137.289	1	4212.683	-1.867568	-9.395669E-006	0.0091649	8
	22	172	1884.191	4307.568	-123.7289	1	4309.344	-1.645289	-1.695768E-005	0.0103209	8
	23	177	1516.544	4360.743	-208.3597	1	4365.718	-2.735557	-1.965635E-005	0.0032012	8
	24	183	1193.986	4462.633	-236.1642	1	4468.878	-3.029288	2.545622E-005	-0.0070284	8
	25	188	946.5144	4475.427	-274.4218	1	4483.833	-3.508839	-2.438645E-005	0.0074318	8
	26	192	751.7689	4603.901	-248.577	1	4610.606	-3.090552	-2.254683E-005	0.0053463	8
	27	196	597.4265	4603.938	-321.0957	1	4615.122	-3.98956	-1.721057E-005	0.0103685	8
	28	199	477.4305	4698.885	-403.6389	1	4716.189	-4.909712	-1.340106E-007	0.0006433	8
	29	203	376.6741	4778.944	-469.7318	1	4801.974	-5.613682	-4.701937E-008	0.0006195	7
	30	205	298.2954	4850.301	-553.1417	1	4881.74	-6.506061	-5.243798E-008	0.0006446	7
	31	207	237.7717	4928.622	-649.2919	1	4971.206	-7.504874	-5.215794E-008	0.0006559	7
	32	210	189.0121	5016.783	-763.6354	1	5074.569	-8.654907	-4.93701E-008	0.0005865	7
	33	212	150.2404	5114.135	-898.4614	1	5192.457	-9.96416	-5.00176E-008	0.0006541	7
	34	215	119.1737	5223.548	-1059.226	1	5329.861	-11.46295	-4.875003E-008	0.0005905	7
	35	217	95.0169	5344.746	-1245.497	1	5487.948	-13.11765	-4.228672E-008	0.0006061	7
	36	220	75.60484	5483.62	-1467.567	1	5676.605	-14.9828	-5.504488E-008	0.0006691	7
	37	222	54.50582	5701.479	-1855.516	1	5995.816	-18.0272	-4.951381E-008	0.0006609	7
	38	225	45.95588	5847.726	-2102.028	1	6214.05	-19.77152	-5.755205E-008	0.0005955	7
	39	227	37.20238	6039.394	-2451.915	1	6518.142	-22.09651	-5.042595E-008	0.0005935	7
	40	229	30.04808	6261.708	-2865.654	1	6886.289	-24.59108	-3.731284E-008	0.0006291	7
	41	232	23.91582	6531.399	-3386.987	1	7357.367	-27.40989	-6.172789E-008	0.0005831	7
	42	234	18.60119	6878.357	-4073.88	1	7994.267	-30.63721	-5.595348E-008	0.0006655	7
	43	236	15.02404	7231.573	-4768.268	1	8662.103	-33.39958	-2.86347E-008	0.0006294	7
	44	239	12.01923	7653.133	-5618.854	1	9494.313	-36.28575	-5.238945E-008	0.0006179	7
	45	241	9.450605	8202.041	-6705.356	1	10594.12	-39.26678	-6.587557E-008	0.0006653	7
	46	244	7.512019	8805.963	-7938.936	1	11856.29	-42.03595	-6.650705E-008	0.00061	7
	47	246	5.978954	9542.23	-9381.407	1	13381.51	-44.51309	-5.133395E-008	0.000622	7
	48	249	4.734848	10424.09	-11109.23	1	15234.06	-46.82238	-5.815281E-008	0.0005985	7
	49	253	3.75601	11466.87	-13151.9	1	17448.83	-48.91551	-4.279703E-008	0.0006059	7
	50	256	3.004808	12625.92	-15459.32	1	19960.07	-50.76084	-4.304942E-008	0.0005822	7
	51	260	2.372217	14070.61	-18361.6	1	23132.89	-52.53684	-5.487119E-008	0.0005926	7
	52	264	1.878005	15766.77	-21749.31	1	26863.05	-54.06044	-5.356536E-008	0.0006364	7
	53	269	1.512097	17591.82	-25499.41	1	30978.9	-55.39855	-5.141881E-008	0.0005206	7
	54	274	1.201923	19824.71	-30232.88	1	36153.09	-56.74581	-5.387025E-008	0.0006313	7
	55	281	0.956633	22419.07	-35864.41	1	42295.04	-57.99023	-1.03114E-008	2.465779E-005	6
