EXPLAIN
TAG	EISPOT
TITLE	LABEL	Potentiostatic EIS	Test Identifier
DATE	LABEL	2/25/2021	Date
TIME	LABEL	17:55:02	Time
NOTES	NOTES	1	Notes...
	
PSTAT	PSTAT	REF3000-16137	Potentiostat
VDC	POTEN	0.00000E+000	T	DC Voltage (V)
FREQINIT	QUANT	3.00000E+005	Initial Freq. (Hz)
FREQFINAL	QUANT	1.00000E+000	Final Freq. (Hz)
PTSPERDEC	QUANT	1.00000E+001	Points/decade
VAC	QUANT	5.00000E+001	AC Voltage (mV rms)
AREA	QUANT	1.00000E+000	Sample Area (cm^2)
SPEED	SELECTOR	2	Optimize for:
ZGUESS	QUANT	1.00000E+003	Estimated Z (ohms)
EOC	QUANT	0	Open Circuit (V)
SEQUENCER	TOGGLE	TRUE	Run as Sequence
PSTATMODEL	IQUANT	5	Pstat Model
PSTATSECTION	LABEL	REF3000-16137	Pstat Section
PSTATSERIALNO	LABEL	16137	Pstat Serial Number
CTRLMODE	IQUANT	1	Control Mode
IESTAB	IQUANT	0	I/E Stability
CASPEED	IQUANT	1	Control Amp Speed
CONVENTION	IQUANT	1	Current Convention
ICHRANGE	IQUANT	2	Ich Range
ICHRANGEMODE	TOGGLE	F	Ich Auto Range
ICHOFFSETENABLE	TOGGLE	T	Ich Offset Enable
ICHOFFSET	QUANT	0	Ich Offset (V)
ICHFILTER	IQUANT	3	Ich Filter
VCHRANGE	IQUANT	2	Vch Range
VCHRANGEMODE	TOGGLE	F	Vch Auto Range
VCHOFFSETENABLE	TOGGLE	T	Vch Offset Enable
VCHOFFSET	QUANT	0	Vch Offset (V)
VCHFILTER	IQUANT	3	Vch Filter
ACHRANGE	IQUANT	2	Ach Range
ACHOFFSETENABLE	TOGGLE	F	Ach Offset Enable
ACHOFFSET	QUANT	0	Ach Offset (V)
ACHFILTER	IQUANT	3	Ach Filter
IERANGELOWERLIMIT	IQUANT	2	I/E Range Lower Limit
IERANGEMODE	TOGGLE	F	I/E AutoRange
IERANGE	IQUANT	11	I/E Range
POSFEEDENABLE	TOGGLE	F	Positive Feedback IR Comp
POSFEEDRESISTANCE	QUANT	0	Positive Feedback Resistance (ohm)
ACHSELECT	IQUANT	0	Ach Select
CABLEID	IQUANT	13	Cable ID
DCCALDATE	LABEL	7/31/2020	DC Calibration Date
ACCALDATE	LABEL	7/31/2020	AC Calibration Date
THERMOSELECT	IQUANT	1	Thermo Select
FRAMEWORKVERSION	QUANT	6.33	Framework Version
INSTRUMENTVERSION	LABEL	3.50	Instrument Version
COMPLIANCEVOLTAGE	IQUANT	0	Compliance Voltage
ZCURVE	TABLE
	Pt	Time	Freq	Zreal	Zimag	Zsig	Zmod	Zphz	Idc	Vdc	IERange
	#	s	Hz	ohm	ohm	V	ohm	°	A	V	#
	0	6	300046.9	23.02383	1.496054	1	23.07239	3.717766	-7.465137E-006	-0.0005379	10
	1	10	238359.4	23.05627	1.006432	1	23.07823	2.499437	-5.360759E-005	0.0004702	10
	2	13	189328.1	23.12768	0.5879241	1	23.13515	1.456191	-4.885668E-006	0.0003681	10
	3	15	150421.9	23.22701	0.2219713	1	23.22807	0.5475364	7.035016E-005	0.0005472	10
	4	18	119484.4	23.31249	-0.1575131	1	23.31302	-0.3871186	2.965272E-005	0.0006244	10
	5	20	94921.88	23.42312	-0.4848248	1	23.42813	-1.185771	1.346705E-005	0.0005976	10
	6	23	75421.88	23.55921	-0.8311176	1	23.57386	-2.020433	-1.220115E-005	0.000638	10
	7	25	59859.37	23.70504	-1.261197	1	23.73857	-3.045479	1.335926E-007	0.0006968	11
	8	29	47578.12	23.90625	-1.56903	1	23.95768	-3.755087	2.548474E-005	0.0006994	10
	9	32	37828.12	24.10943	-1.983391	1	24.19088	-4.702916	2.276797E-005	0.0006446	10
	10	34	30046.88	24.33706	-2.446577	1	24.45973	-5.740593	1.462477E-005	0.0006332	10
	11	37	23859.38	24.59645	-2.967236	1	24.77479	-6.878736	-1.662648E-005	0.0006836	10
	12	39	18984.38	24.88751	-3.564965	1	25.14154	-8.151776	6.969105E-006	0.0007368	10
	13	41	15046.87	25.2298	-4.266476	1	25.588	-9.59818	-2.425058E-006	0.000648	10
	14	43	11953.13	25.61133	-5.100952	1	26.11436	-11.26408	-2.695846E-005	0.000687	10
	15	46	9515.62	26.05491	-6.050992	1	26.74833	-13.0746	1.932778E-005	0.0007189	10
	16	48	7546.875	26.56845	-7.195689	1	27.52563	-15.1542	-2.320588E-005	0.0007132	10
	17	50	5928.309	27.18605	-8.633631	1	28.52404	-17.61859	2.407537E-005	0.0006584	10
	18	53	4733.456	27.86051	-10.23376	1	29.6806	-20.16937	-2.781409E-005	0.0007014	10
	19	55	3796.875	28.61963	-12.09497	1	31.07043	-22.90944	5.920511E-006	0.0006447	10
	20	57	2987.132	29.58317	-14.49241	1	32.94228	-26.09962	-1.684795E-005	0.0006833	10
	21	60	2390.625	30.65242	-17.18145	1	35.13934	-29.27172	-1.234019E-005	0.0007533	10
	22	62	1884.191	31.95577	-20.58173	1	38.01025	-32.78435	-9.654102E-006	0.000225	9
	23	64	1516.544	33.38874	-24.31757	1	41.3056	-36.06647	-1.120654E-005	0.0004706	9
	24	67	1193.986	35.25475	-29.22099	1	45.79043	-39.65372	1.502877E-005	-0.0002261	9
	25	69	946.5144	37.41482	-34.87746	1	51.14983	-42.98982	2.933732E-006	-0.0001268	9
	26	71	751.7689	39.8799	-41.69054	1	57.69322	-46.2716	-1.055502E-005	0.0003267	9
	27	74	597.4265	42.76876	-49.85729	1	65.68803	-49.37623	-2.581743E-006	0.0003627	9
	28	76	477.4305	46.10539	-59.3165	1	75.12759	-52.14288	1.294407E-006	8.866183E-005	9
	29	78	376.6741	50.24217	-71.39931	1	87.30485	-54.86676	1.268456E-006	8.344492E-005	9
	30	81	298.2954	55.06689	-85.79558	1	101.9473	-57.3061	1.203271E-006	9.300205E-005	9
	31	83	237.7717	60.632	-102.6677	1	119.2346	-59.43537	1.278789E-006	9.149772E-005	9
	32	86	189.0121	67.33064	-123.2379	1	140.4314	-61.35015	1.243708E-006	9.150899E-005	9
	33	88	150.2404	75.33007	-148.0457	1	166.1088	-63.03165	1.246605E-006	8.665875E-005	9
	34	90	119.1737	85.02254	-178.2613	1	197.4992	-64.50098	1.212755E-006	9.229022E-005	9
	35	93	95.0169	96.4088	-213.899	1	234.6219	-65.7379	1.284874E-006	9.113518E-005	9
	36	95	75.60484	110.2514	-257.1774	1	279.8135	-66.79529	1.306926E-006	9.154004E-005	9
	37	98	54.50582	135.3241	-335.0872	1	361.3807	-68.0088	1.322781E-006	0.0000984	9
	38	100	45.95588	150.9156	-383.1647	1	411.8139	-68.50219	5.077023E-007	0.0006728	8
	39	103	37.20238	174.5814	-454.6381	1	487.0056	-68.99317	4.905747E-007	0.0006731	8
	40	105	30.04808	203.7337	-540.519	1	577.6402	-69.34745	4.428315E-007	0.0006734	8
	41	108	23.91582	241.7619	-649.5945	1	693.1247	-69.58606	4.108432E-007	0.000666	8
	42	110	18.60119	294.1817	-794.6758	1	847.3798	-69.68591	5.30436E-007	0.0006746	8
	43	112	15.02404	349.4803	-941.7852	1	1004.538	-69.64098	5.71566E-007	0.0006773	8
	44	114	12.01923	420.9635	-1123.576	1	1199.847	-69.46083	3.991588E-007	0.0006724	8
	45	117	9.450605	515.4969	-1355.958	1	1450.641	-69.18461	4.606185E-007	0.000682	8
	46	119	7.512019	627.3082	-1619.806	1	1737.034	-68.82992	4.967222E-007	0.0006939	8
	47	122	5.978954	764.2491	-1927.309	1	2073.305	-68.36984	4.879761E-007	0.0006744	8
	48	125	4.734848	934.9153	-2299.428	1	2482.224	-67.87403	5.667051E-007	0.0006926	8
	49	128	3.75601	1144.354	-2730.153	1	2960.283	-67.25883	4.680817E-007	0.0006511	8
	50	132	3.004808	1387.057	-3213.906	1	3500.446	-66.65594	5.092164E-007	0.0006615	8
	51	136	2.372217	1697.178	-3807.414	1	4168.551	-65.97478	5.01912E-007	0.000671	8
	52	140	1.878005	2078.225	-4510.127	1	4965.911	-65.26019	-1.40091E-008	0.0006338	7
	53	144	1.512097	2481.134	-5248.754	1	5805.639	-64.69947	8.918701E-009	0.0005573	7
	54	150	1.201923	2992.647	-6156.003	1	6844.875	-64.07401	-2.92146E-009	0.0006407	7
	55	156	0.956633	3581.138	-7200.114	1	8041.53	-63.55552	-6.907793E-009	6.09609E-006	7
