EXPLAIN
TAG	EISPOT
TITLE	LABEL	Potentiostatic EIS	Test Identifier
DATE	LABEL	9/13/2020	Date
TIME	LABEL	12:46:30	Time
NOTES	NOTES	1	Notes...
	
PSTAT	PSTAT	REF3000-16137	Potentiostat
VDC	POTEN	0.00000E+000	T	DC Voltage (V)
FREQINIT	QUANT	3.00000E+005	Initial Freq. (Hz)
FREQFINAL	QUANT	1.00000E+000	Final Freq. (Hz)
PTSPERDEC	QUANT	1.00000E+001	Points/decade
VAC	QUANT	5.00000E+001	AC Voltage (mV rms)
AREA	QUANT	1.00000E+000	Sample Area (cm^2)
SPEED	SELECTOR	2	Optimize for:
ZGUESS	QUANT	1.00000E+003	Estimated Z (ohms)
EOC	QUANT	0	Open Circuit (V)
SEQUENCER	TOGGLE	TRUE	Run as Sequence
PSTATMODEL	IQUANT	5	Pstat Model
PSTATSECTION	LABEL	REF3000-16137	Pstat Section
PSTATSERIALNO	LABEL	16137	Pstat Serial Number
CTRLMODE	IQUANT	1	Control Mode
IESTAB	IQUANT	0	I/E Stability
CASPEED	IQUANT	1	Control Amp Speed
CONVENTION	IQUANT	1	Current Convention
ICHRANGE	IQUANT	2	Ich Range
ICHRANGEMODE	TOGGLE	F	Ich Auto Range
ICHOFFSETENABLE	TOGGLE	T	Ich Offset Enable
ICHOFFSET	QUANT	0	Ich Offset (V)
ICHFILTER	IQUANT	3	Ich Filter
VCHRANGE	IQUANT	2	Vch Range
VCHRANGEMODE	TOGGLE	F	Vch Auto Range
VCHOFFSETENABLE	TOGGLE	T	Vch Offset Enable
VCHOFFSET	QUANT	0	Vch Offset (V)
VCHFILTER	IQUANT	3	Vch Filter
ACHRANGE	IQUANT	2	Ach Range
ACHOFFSETENABLE	TOGGLE	F	Ach Offset Enable
ACHOFFSET	QUANT	0	Ach Offset (V)
ACHFILTER	IQUANT	3	Ach Filter
IERANGELOWERLIMIT	IQUANT	2	I/E Range Lower Limit
IERANGEMODE	TOGGLE	F	I/E AutoRange
IERANGE	IQUANT	11	I/E Range
POSFEEDENABLE	TOGGLE	F	Positive Feedback IR Comp
POSFEEDRESISTANCE	QUANT	0	Positive Feedback Resistance (ohm)
ACHSELECT	IQUANT	0	Ach Select
CABLEID	IQUANT	13	Cable ID
DCCALDATE	LABEL	7/31/2020	DC Calibration Date
ACCALDATE	LABEL	7/31/2020	AC Calibration Date
THERMOSELECT	IQUANT	1	Thermo Select
FRAMEWORKVERSION	QUANT	6.33	Framework Version
INSTRUMENTVERSION	LABEL	3.50	Instrument Version
COMPLIANCEVOLTAGE	IQUANT	0	Compliance Voltage
ZCURVE	TABLE
	Pt	Time	Freq	Zreal	Zimag	Zsig	Zmod	Zphz	Idc	Vdc	IERange
	#	s	Hz	ohm	ohm	V	ohm	°	A	V	#
	0	10	300046.9	3.828321	2.183719	1	4.407343	29.70093	-9.343218E-005	-2.288597E-005	10
	1	13	238359.4	3.818278	1.711168	1	4.184178	24.13962	-0.0001047	-0.0004	10
	2	16	189328.1	3.808831	1.324329	1	4.032498	19.17255	6.457236E-005	-0.0002575	10
	3	19	150421.9	3.821431	1.016628	1	3.954348	14.89753	8.960124E-006	0.0001586	10
	4	21	119484.4	3.82518	0.7749628	1	3.902893	11.45283	-7.810615E-006	0.0003492	10
	5	24	94921.88	3.836937	0.5869907	1	3.881578	8.69791	-1.014342E-005	0.0004092	10
	6	26	75421.88	3.848988	0.4156727	1	3.871369	6.163788	2.940497E-005	0.0004283	10
	7	29	59859.37	3.863162	0.2733456	1	3.872821	4.047329	-2.607025E-005	0.0005173	10
	8	31	47578.12	3.877798	0.1505767	1	3.88072	2.223705	-1.132918E-005	0.0005381	10
	9	34	37828.12	3.892023	0.0407634	1	3.892237	0.6000702	1.214664E-005	0.0005552	10
	10	36	30046.88	3.906993	-0.0632723	1	3.907506	-0.9278022	2.129391E-005	0.0005991	10
	11	39	23859.38	3.921343	-0.1662021	1	3.924863	-2.42697	-3.012652E-005	0.0006194	10
	12	41	18984.38	3.935586	-0.2728427	1	3.945033	-3.965804	2.041782E-005	0.0006115	10
	13	44	15046.87	3.952408	-0.3918379	1	3.971784	-5.661747	6.224457E-006	0.0005968	10
	14	46	11953.13	3.969481	-0.5259681	1	4.004175	-7.547895	-3.281144E-005	0.0006464	10
	15	48	9515.62	3.989898	-0.681311	1	4.04765	-9.69031	4.910415E-006	0.000614	10
	16	50	7546.875	4.014956	-0.8709444	1	4.108335	-12.23926	-2.992572E-005	0.0006497	10
	17	53	5928.309	4.048083	-1.110148	1	4.197548	-15.33579	8.619576E-006	0.0006067	10
	18	55	4733.456	4.086305	-1.382622	1	4.313877	-18.6935	-2.385675E-005	0.0006593	10
	19	57	3796.875	4.132519	-1.707315	1	4.471313	-22.44755	-1.914333E-007	0.0006101	10
	20	60	2987.132	4.195809	-2.139608	1	4.709856	-27.01882	-2.182254E-005	0.0006658	10
	21	62	2390.625	4.270929	-2.633479	1	5.017574	-31.65822	-3.26443E-005	0.000643	10
	22	64	1884.191	4.373239	-3.279572	1	5.466334	-36.86691	1.799845E-005	0.0006164	10
	23	67	1516.544	4.491195	-4.001939	1	6.015509	-41.70306	1.514396E-005	0.0006154	10
	24	69	1193.986	4.655786	-4.978842	1	6.816539	-46.92045	-2.545559E-005	0.0006675	10
	25	72	946.5144	4.859193	-6.149273	1	7.83743	-51.68399	-6.919141E-006	0.0006139	10
	26	74	751.7689	5.119606	-7.572697	1	9.140903	-55.93891	-1.518784E-005	0.0006694	10
	27	76	597.4265	5.447824	-9.313092	1	10.78946	-59.6739	2.550259E-006	0.0006408	10
	28	78	477.4305	5.863346	-11.38915	1	12.80982	-62.75975	-3.455626E-006	0.0006507	10
	29	81	376.6741	6.425763	-14.08002	1	15.47699	-65.46925	-7.628034E-006	0.0007014	10
	30	83	298.2954	7.148297	-17.33211	1	18.74834	-67.58723	-3.242151E-006	0.0006539	10
	31	85	237.7717	8.062171	-21.18369	1	22.66599	-69.16398	-3.263091E-006	0.0006453	10
	32	88	189.0121	9.268751	-25.91354	1	27.52129	-70.31889	-2.975738E-006	0.0006459	10
	33	90	150.2404	10.84658	-31.62745	1	33.43566	-71.07069	-2.784498E-006	0.0006436	10
	34	93	119.1737	12.91563	-38.55471	1	40.66054	-71.47942	-3.241569E-006	0.0006517	10
	35	95	95.0169	15.48881	-46.56327	1	49.0718	-71.60081	4.571463E-007	5.08679E-005	9
	36	98	75.60484	18.76558	-56.16917	1	59.22096	-71.52602	4.718328E-007	4.372077E-005	9
	37	100	54.50582	24.75622	-72.926	1	77.01346	-71.24917	-1.012033E-007	0.0001	9
	38	103	45.95588	28.50279	-83.34561	1	88.08462	-71.12018	6.675242E-007	5.579077E-005	9
	39	105	37.20238	33.673	-98.1257	1	103.7426	-71.05972	5.395655E-007	5.148998E-005	9
	40	107	30.04808	39.51531	-115.7278	1	122.2881	-71.14751	5.699665E-007	5.843001E-005	9
	41	110	23.91582	46.26081	-138.0675	1	145.6114	-71.47609	4.912108E-007	5.191579E-005	9
	42	112	18.60119	54.45952	-168.3397	1	176.9296	-72.0731	7.208016E-007	5.252515E-005	9
	43	114	15.02404	62.07348	-200.0093	1	209.4202	-72.75811	5.769335E-007	5.190035E-005	9
	44	117	12.01923	70.91286	-240.4625	1	250.7007	-73.56911	6.559631E-007	5.182225E-005	9
	45	119	9.450605	81.79262	-294.7132	1	305.8528	-74.48891	6.047631E-007	4.641189E-005	9
	46	122	7.512019	94.2966	-359.3477	1	371.5139	-75.29649	6.572495E-007	7.068238E-005	9
	47	124	5.978954	109.1636	-437.2825	1	450.7024	-75.98312	-8.968841E-008	0.0006305	8
	48	127	4.734848	129.0112	-537.7238	1	552.9835	-76.50854	3.729088E-008	0.0006635	8
	49	131	3.75601	155.2782	-661.5093	1	679.4894	-76.78993	-1.677098E-007	0.000619	8
	50	134	3.004808	188.5717	-807.117	1	828.8529	-76.84953	-1.414477E-007	0.0006538	8
	51	138	2.372217	237.027	-996.458	1	1024.26	-76.61974	-9.917181E-008	0.0007057	8
	52	142	1.878005	300.3302	-1224.446	1	1260.74	-76.21865	-1.667242E-007	0.0006069	8
	53	147	1.512097	379.3725	-1475.268	1	1523.266	-75.57858	-9.975673E-008	0.0006543	8
	54	152	1.201923	492.111	-1799.381	1	1865.461	-74.70426	-1.200547E-007	0.0005989	8
	55	158	0.956633	641.5583	-2177.71	1	2270.246	-73.58491	-1.711805E-007	-6.124943E-006	8
