EXPLAIN
TAG	EISPOT
TITLE	LABEL	Potentiostatic EIS	Test Identifier
DATE	LABEL	9/13/2020	Date
TIME	LABEL	12:54:53	Time
NOTES	NOTES	1	Notes...
	
PSTAT	PSTAT	REF3000-16137	Potentiostat
VDC	POTEN	0.00000E+000	T	DC Voltage (V)
FREQINIT	QUANT	3.00000E+005	Initial Freq. (Hz)
FREQFINAL	QUANT	1.00000E+000	Final Freq. (Hz)
PTSPERDEC	QUANT	1.00000E+001	Points/decade
VAC	QUANT	5.00000E+001	AC Voltage (mV rms)
AREA	QUANT	1.00000E+000	Sample Area (cm^2)
SPEED	SELECTOR	2	Optimize for:
ZGUESS	QUANT	1.00000E+003	Estimated Z (ohms)
EOC	QUANT	0	Open Circuit (V)
SEQUENCER	TOGGLE	TRUE	Run as Sequence
PSTATMODEL	IQUANT	5	Pstat Model
PSTATSECTION	LABEL	REF3000-16137	Pstat Section
PSTATSERIALNO	LABEL	16137	Pstat Serial Number
CTRLMODE	IQUANT	1	Control Mode
IESTAB	IQUANT	0	I/E Stability
CASPEED	IQUANT	1	Control Amp Speed
CONVENTION	IQUANT	1	Current Convention
ICHRANGE	IQUANT	2	Ich Range
ICHRANGEMODE	TOGGLE	F	Ich Auto Range
ICHOFFSETENABLE	TOGGLE	T	Ich Offset Enable
ICHOFFSET	QUANT	0	Ich Offset (V)
ICHFILTER	IQUANT	3	Ich Filter
VCHRANGE	IQUANT	2	Vch Range
VCHRANGEMODE	TOGGLE	F	Vch Auto Range
VCHOFFSETENABLE	TOGGLE	T	Vch Offset Enable
VCHOFFSET	QUANT	0	Vch Offset (V)
VCHFILTER	IQUANT	3	Vch Filter
ACHRANGE	IQUANT	2	Ach Range
ACHOFFSETENABLE	TOGGLE	F	Ach Offset Enable
ACHOFFSET	QUANT	0	Ach Offset (V)
ACHFILTER	IQUANT	3	Ach Filter
IERANGELOWERLIMIT	IQUANT	2	I/E Range Lower Limit
IERANGEMODE	TOGGLE	F	I/E AutoRange
IERANGE	IQUANT	11	I/E Range
POSFEEDENABLE	TOGGLE	F	Positive Feedback IR Comp
POSFEEDRESISTANCE	QUANT	0	Positive Feedback Resistance (ohm)
ACHSELECT	IQUANT	0	Ach Select
CABLEID	IQUANT	13	Cable ID
DCCALDATE	LABEL	7/31/2020	DC Calibration Date
ACCALDATE	LABEL	7/31/2020	AC Calibration Date
THERMOSELECT	IQUANT	1	Thermo Select
FRAMEWORKVERSION	QUANT	6.33	Framework Version
INSTRUMENTVERSION	LABEL	3.50	Instrument Version
COMPLIANCEVOLTAGE	IQUANT	0	Compliance Voltage
ZCURVE	TABLE
	Pt	Time	Freq	Zreal	Zimag	Zsig	Zmod	Zphz	Idc	Vdc	IERange
	#	s	Hz	ohm	ohm	V	ohm	°	A	V	#
	0	10	300046.9	4.407011	2.19543	1	4.923582	26.481	-1.513492E-005	2.138052E-005	10
	1	13	238359.4	4.395801	1.728495	1	4.723427	21.46549	6.144705E-005	-0.0004868	10
	2	17	189328.1	4.394032	1.354927	1	4.59819	17.13747	-4.161828E-005	8.966521E-005	10
	3	19	150421.9	4.395746	1.055305	1	4.520647	13.49975	-1.285018E-005	0.0002733	10
	4	22	119484.4	4.393747	0.7972523	1	4.465492	10.28451	2.369737E-005	0.0004497	10
	5	24	94921.88	4.406427	0.6109077	1	4.448574	7.893179	-1.013602E-005	0.0004779	10
	6	27	75421.88	4.413911	0.4352968	1	4.435324	5.632257	2.474949E-005	0.0004648	10
	7	29	59859.37	4.426653	0.2886084	1	4.436052	3.730284	-1.840823E-005	0.0005811	10
	8	32	47578.12	4.439385	0.1607357	1	4.442294	2.073588	-1.536034E-007	0.0005941	10
	9	34	37828.12	4.452416	0.044501	1	4.452638	0.5726411	1.996594E-006	0.0005799	10
	10	37	30046.88	4.467253	-0.0648648	1	4.467724	-0.8318794	-3.171667E-005	0.0006119	10
	11	39	23859.38	4.48186	-0.1739625	1	4.485235	-2.222808	-1.555195E-005	0.0006224	10
	12	42	18984.38	4.498307	-0.2868682	1	4.507445	-3.648953	-2.054925E-005	0.0006676	10
	13	44	15046.87	4.514222	-0.4133415	1	4.533106	-5.231659	-8.3494E-006	0.0006246	10
	14	46	11953.13	4.53438	-0.556632	1	4.568418	-6.998508	2.21317E-005	0.0006338	10
	15	49	9515.62	4.555998	-0.7221096	1	4.612869	-9.006262	5.92832E-006	0.0006102	10
	16	51	7546.875	4.581219	-0.9241758	1	4.673507	-11.40529	-9.664228E-007	0.0006246	10
	17	53	5928.309	4.615956	-1.179879	1	4.764364	-14.3383	2.171299E-005	0.0006322	10
	18	55	4733.456	4.655432	-1.470942	1	4.882286	-17.53458	2.005371E-005	0.0006282	10
	19	58	3796.875	4.702984	-1.818748	1	5.04241	-21.14259	2.292928E-005	0.0006277	10
	20	60	2987.132	4.767607	-2.28135	1	5.285322	-25.5716	1.871949E-005	0.0006222	10
	21	62	2390.625	4.846098	-2.808924	1	5.601315	-30.09769	1.316521E-005	0.000604	10
	22	65	1884.191	4.950673	-3.50539	1	6.066047	-35.30091	9.733485E-006	0.0006054	10
	23	67	1516.544	5.071538	-4.283331	1	6.63833	-40.18385	3.562859E-006	0.0006447	10
	24	69	1193.986	5.241357	-5.333212	1	7.477632	-45.49768	-2.477468E-005	0.0006529	10
	25	72	946.5144	5.450076	-6.595771	1	8.556139	-50.43312	2.039193E-005	0.0006286	10
	26	74	751.7689	5.720095	-8.124151	1	9.93586	-54.85119	1.474197E-005	0.0006096	10
	27	77	597.4265	6.055172	-10.00885	1	11.69796	-58.82682	-6.096692E-006	0.0006528	10
	28	79	477.4305	6.475825	-12.24833	1	13.85488	-62.13409	-2.74647E-006	0.00065	10
	29	81	376.6741	7.043803	-15.15787	1	16.71455	-65.07589	-2.574631E-006	0.0006523	10
	30	83	298.2954	7.76552	-18.68382	1	20.23335	-67.43086	-3.225658E-006	0.0006495	10
	31	86	237.7717	8.671922	-22.87425	1	24.4629	-69.23764	-3.254718E-006	0.0006455	10
	32	88	189.0121	9.86419	-28.05033	1	29.73421	-70.62524	-2.589753E-006	0.0006492	10
	33	91	150.2404	11.41814	-34.33665	1	36.18535	-71.60623	-2.776043E-006	0.0006471	10
	34	93	119.1737	13.45222	-41.98375	1	44.08625	-72.23377	8.669804E-007	5.163676E-005	9
	35	95	95.0169	16.05587	-51.02095	1	53.48765	-72.53164	8.630329E-007	4.706785E-005	9
	36	98	75.60484	19.44073	-61.91429	1	64.89469	-72.56801	7.903275E-007	4.484598E-005	9
	37	100	54.50582	25.90027	-81.10242	1	85.1377	-72.28898	7.214838E-007	4.337473E-005	9
	38	103	45.95588	30.13754	-93.08432	1	97.8415	-72.05981	9.195347E-007	5.323608E-005	9
	39	105	37.20238	36.22543	-110.0185	1	115.8289	-71.775	7.796845E-007	5.267178E-005	9
	40	108	30.04808	43.3082	-129.9014	1	136.9305	-71.56198	8.371347E-007	4.818957E-005	9
	41	110	23.91582	51.97655	-155.0111	1	163.4931	-71.46325	7.757187E-007	4.499382E-005	9
	42	113	18.60119	62.43993	-188.1664	1	198.2557	-71.64242	8.793825E-007	5.260349E-005	9
	43	115	15.02404	72.20626	-222.3564	1	233.7864	-72.00972	1.046817E-006	5.528575E-005	9
	44	117	12.01923	83.29939	-265.4934	1	278.2545	-72.58059	8.994326E-007	4.76292E-005	9
	45	120	9.450605	96.6118	-323.1098	1	337.2444	-73.35301	9.334474E-007	4.980074E-005	9
	46	122	7.512019	110.524	-391.2957	1	406.6053	-74.22732	9.537225E-007	3.018212E-005	9
	47	125	5.978954	126.3217	-473.3138	1	489.8808	-75.05676	3.279816E-007	0.0006308	8
	48	128	4.734848	146.2291	-580.3493	1	598.4883	-75.85771	2.239579E-007	0.0006245	8
	49	131	3.75601	170.765	-711.6024	1	731.8051	-76.50576	3.129612E-007	0.0006383	8
	50	134	3.004808	200.7492	-867.9327	1	890.8465	-76.97675	2.172749E-007	0.0006618	8
	51	138	2.372217	242.1241	-1072.119	1	1099.119	-77.27398	2.37219E-007	0.0006916	8
	52	142	1.878005	297.9907	-1321.571	1	1354.75	-77.29332	2.482118E-007	0.0006048	8
	53	147	1.512097	367.0029	-1603.115	1	1644.588	-77.10542	2.251738E-007	0.0007655	8
	54	152	1.201923	461.1237	-1967.484	1	2020.798	-76.80953	2.747666E-007	0.0005941	8
	55	159	0.956633	587.8615	-2407.482	1	2478.215	-76.27797	1.67189E-007	-1.699814E-005	8
