EXPLAIN
TAG	EISPOT
TITLE	LABEL	Potentiostatic EIS	Test Identifier
DATE	LABEL	9/13/2020	Date
TIME	LABEL	13:28:16	Time
NOTES	NOTES	1	Notes...
	
PSTAT	PSTAT	REF3000-16137	Potentiostat
VDC	POTEN	0.00000E+000	T	DC Voltage (V)
FREQINIT	QUANT	3.00000E+005	Initial Freq. (Hz)
FREQFINAL	QUANT	1.00000E+000	Final Freq. (Hz)
PTSPERDEC	QUANT	1.00000E+001	Points/decade
VAC	QUANT	5.00000E+001	AC Voltage (mV rms)
AREA	QUANT	1.00000E+000	Sample Area (cm^2)
SPEED	SELECTOR	2	Optimize for:
ZGUESS	QUANT	1.00000E+003	Estimated Z (ohms)
EOC	QUANT	0	Open Circuit (V)
SEQUENCER	TOGGLE	TRUE	Run as Sequence
PSTATMODEL	IQUANT	5	Pstat Model
PSTATSECTION	LABEL	REF3000-16137	Pstat Section
PSTATSERIALNO	LABEL	16137	Pstat Serial Number
CTRLMODE	IQUANT	1	Control Mode
IESTAB	IQUANT	0	I/E Stability
CASPEED	IQUANT	1	Control Amp Speed
CONVENTION	IQUANT	1	Current Convention
ICHRANGE	IQUANT	2	Ich Range
ICHRANGEMODE	TOGGLE	F	Ich Auto Range
ICHOFFSETENABLE	TOGGLE	T	Ich Offset Enable
ICHOFFSET	QUANT	0	Ich Offset (V)
ICHFILTER	IQUANT	3	Ich Filter
VCHRANGE	IQUANT	2	Vch Range
VCHRANGEMODE	TOGGLE	F	Vch Auto Range
VCHOFFSETENABLE	TOGGLE	T	Vch Offset Enable
VCHOFFSET	QUANT	0	Vch Offset (V)
VCHFILTER	IQUANT	3	Vch Filter
ACHRANGE	IQUANT	2	Ach Range
ACHOFFSETENABLE	TOGGLE	F	Ach Offset Enable
ACHOFFSET	QUANT	0	Ach Offset (V)
ACHFILTER	IQUANT	3	Ach Filter
IERANGELOWERLIMIT	IQUANT	2	I/E Range Lower Limit
IERANGEMODE	TOGGLE	F	I/E AutoRange
IERANGE	IQUANT	11	I/E Range
POSFEEDENABLE	TOGGLE	F	Positive Feedback IR Comp
POSFEEDRESISTANCE	QUANT	0	Positive Feedback Resistance (ohm)
ACHSELECT	IQUANT	0	Ach Select
CABLEID	IQUANT	13	Cable ID
DCCALDATE	LABEL	7/31/2020	DC Calibration Date
ACCALDATE	LABEL	7/31/2020	AC Calibration Date
THERMOSELECT	IQUANT	1	Thermo Select
FRAMEWORKVERSION	QUANT	6.33	Framework Version
INSTRUMENTVERSION	LABEL	3.50	Instrument Version
COMPLIANCEVOLTAGE	IQUANT	0	Compliance Voltage
ZCURVE	TABLE
	Pt	Time	Freq	Zreal	Zimag	Zsig	Zmod	Zphz	Idc	Vdc	IERange
	#	s	Hz	ohm	ohm	V	ohm	°	A	V	#
	0	7	300046.9	56.32557	2.02856	1	56.36208	2.062611	1.084294E-005	-0.0015694	9
	1	10	238359.4	56.84066	1.604041	1	56.86329	1.616455	-9.264859E-006	0.0002392	9
	2	14	189328.1	57.36055	1.120134	1	57.37148	1.118727	1.526014E-005	-0.0015524	9
	3	16	150421.9	57.86886	0.9064156	1	57.87596	0.8973659	5.539483E-005	-0.0014665	9
	4	19	119484.4	58.27489	0.6723183	1	58.27877	0.660993	1.507343E-005	-0.0004092	9
	5	21	94921.88	58.80262	0.6748381	1	58.80649	0.6575163	-1.375572E-005	0.0006402	9
	6	24	75421.88	59.22196	0.4390249	1	59.22359	0.424738	-1.622505E-005	0.0006052	9
	7	26	59859.37	59.65919	0.2257641	1	59.65962	0.2168194	2.125398E-005	-0.0004394	9
	8	29	47578.12	60.14454	0.0324496	1	60.14455	0.0309126	-1.52365E-005	0.0001817	9
	9	31	37828.12	60.63132	-0.1292367	1	60.63146	-0.1221268	-1.730293E-005	0.0005609	9
	10	34	30046.88	61.12113	-0.2868303	1	61.1218	-0.2688767	-1.072858E-005	0.000628	9
	11	36	23859.38	61.59291	-0.429106	1	61.59441	-0.3991623	-1.451093E-005	0.0007206	9
	12	39	18984.38	62.05531	-0.5844346	1	62.05806	-0.5395936	2.094213E-005	-0.0005491	9
	13	41	15046.87	62.52168	-0.766346	1	62.52638	-0.7022554	-1.665763E-005	0.000441	9
	14	43	11953.13	62.97622	-0.992539	1	62.98404	-0.9029375	-1.56256E-005	0.000406	9
	15	46	9515.62	63.46726	-1.242828	1	63.47943	-1.121834	2.957257E-006	0.0003038	9
	16	48	7546.875	63.94428	-1.545846	1	63.96296	-1.38485	3.314652E-006	0.0003746	9
	17	50	5928.309	64.46299	-1.931649	1	64.49193	-1.716368	-1.758271E-005	0.0005573	9
	18	52	4733.456	65.02136	-2.340672	1	65.06348	-2.061672	1.130697E-005	-0.0005684	9
	19	55	3796.875	65.52562	-2.850429	1	65.58759	-2.490853	1.07339E-005	0.0001435	9
	20	57	2987.132	66.08358	-3.572528	1	66.18008	-3.09444	1.994556E-005	-0.0006014	9
	21	59	2390.625	66.6877	-4.362738	1	66.83025	-3.742981	-1.237157E-005	0.0001683	9
	22	62	1884.191	67.36286	-5.405082	1	67.57936	-4.587488	2.175042E-005	-0.000422	9
	23	64	1516.544	67.94212	-6.57225	1	68.25926	-5.525206	4.154114E-006	-0.0004004	9
	24	66	1193.986	68.72874	-8.145572	1	69.20975	-6.759035	4.820164E-006	-0.0004261	9
	25	69	946.5144	69.51298	-10.07936	1	70.23993	-8.250374	1.750186E-005	-0.0001835	9
	26	71	751.7689	70.38682	-12.39518	1	71.46989	-9.98743	-1.766486E-005	0.0006648	9
	27	73	597.4265	71.23848	-15.24965	1	72.8524	-12.08266	1.813845E-005	-0.0001713	9
	28	76	477.4305	72.24512	-18.64704	1	74.6128	-14.47262	1.338937E-006	5.361023E-005	9
	29	78	376.6741	73.39446	-23.10198	1	76.94445	-17.47216	1.349439E-006	5.280299E-005	9
	30	80	298.2954	74.68266	-28.54246	1	79.95105	-20.91602	1.33859E-006	5.791577E-005	9
	31	83	237.7717	76.14816	-35.07231	1	83.83681	-24.72985	1.313109E-006	5.457877E-005	9
	32	85	189.0121	77.86182	-43.22583	1	89.0558	-29.03732	1.319972E-006	5.070891E-005	9
	33	88	150.2404	79.8754	-53.28775	1	96.0191	-33.70868	1.309815E-006	5.240164E-005	9
	34	90	119.1737	82.29437	-65.83777	1	105.3896	-38.66077	1.306205E-006	5.485923E-005	9
	35	92	95.0169	85.19316	-80.96682	1	117.5309	-43.54298	1.348652E-006	4.91883E-005	9
	36	95	75.60484	88.80586	-99.7523	1	133.5553	-48.32249	1.310128E-006	4.808009E-005	9
	37	97	54.50582	95.3436	-134.35	1	164.7432	-54.63799	1.332667E-006	4.512307E-005	9
	38	100	45.95588	100.002	-156.9487	1	186.1002	-57.49619	1.360124E-006	5.358755E-005	9
	39	102	37.20238	106.8608	-190.0603	1	218.0416	-60.65326	1.24986E-006	4.858972E-005	9
	40	105	30.04808	115.6091	-230.4781	1	257.8481	-63.3614	1.180659E-006	5.481676E-005	9
	41	107	23.91582	127.5148	-282.9694	1	310.3734	-65.7422	1.399095E-006	4.8666E-005	9
	42	109	18.60119	144.5402	-354.1722	1	382.5308	-67.79929	1.219117E-006	5.326734E-005	9
	43	112	15.02404	162.7246	-425.9851	1	456.0073	-69.09335	4.351685E-007	0.0006298	8
	44	114	12.01923	188.1757	-517.9809	1	551.1028	-70.03458	1.119004E-007	0.0006272	8
	45	117	9.450605	223.8681	-637.4811	1	675.6472	-70.64995	4.242618E-007	0.0006245	8
	46	119	7.512019	267.5584	-774.6689	1	819.5728	-70.9459	3.151795E-007	0.0006938	8
	47	122	5.978954	323.7516	-937.0482	1	991.4	-70.93989	2.379154E-007	0.0006239	8
	48	125	4.734848	395.432	-1134.462	1	1201.404	-70.78332	3.307054E-007	0.0006409	8
	49	128	3.75601	482.7445	-1364.101	1	1447.001	-70.51153	2.258864E-007	0.0006131	8
	50	131	3.004808	583.0128	-1622.611	1	1724.172	-70.23637	2.963737E-007	0.0006117	8
	51	135	2.372217	706.5521	-1943.871	1	2068.296	-70.02496	2.733076E-007	0.0006302	8
	52	139	1.878005	848.36	-2328.016	1	2477.775	-69.97758	2.432561E-007	0.0006234	8
	53	144	1.512097	990.587	-2751.824	1	2924.688	-70.2024	2.721107E-007	0.0005271	8
	54	150	1.201923	1161.009	-3292.891	1	3491.572	-70.57835	2.523713E-007	0.0006313	8
	55	156	0.956633	1343.218	-3946.025	1	4168.375	-71.20154	2.516196E-007	-1.249105E-005	8
