EXPLAIN
TAG	EISPOT
TITLE	LABEL	Potentiostatic EIS	Test Identifier
DATE	LABEL	9/13/2020	Date
TIME	LABEL	13:25:31	Time
NOTES	NOTES	1	Notes...
	
PSTAT	PSTAT	REF3000-16137	Potentiostat
VDC	POTEN	0.00000E+000	T	DC Voltage (V)
FREQINIT	QUANT	3.00000E+005	Initial Freq. (Hz)
FREQFINAL	QUANT	1.00000E+000	Final Freq. (Hz)
PTSPERDEC	QUANT	1.00000E+001	Points/decade
VAC	QUANT	5.00000E+001	AC Voltage (mV rms)
AREA	QUANT	1.00000E+000	Sample Area (cm^2)
SPEED	SELECTOR	2	Optimize for:
ZGUESS	QUANT	1.00000E+003	Estimated Z (ohms)
EOC	QUANT	0	Open Circuit (V)
SEQUENCER	TOGGLE	TRUE	Run as Sequence
PSTATMODEL	IQUANT	5	Pstat Model
PSTATSECTION	LABEL	REF3000-16137	Pstat Section
PSTATSERIALNO	LABEL	16137	Pstat Serial Number
CTRLMODE	IQUANT	1	Control Mode
IESTAB	IQUANT	0	I/E Stability
CASPEED	IQUANT	1	Control Amp Speed
CONVENTION	IQUANT	1	Current Convention
ICHRANGE	IQUANT	2	Ich Range
ICHRANGEMODE	TOGGLE	F	Ich Auto Range
ICHOFFSETENABLE	TOGGLE	T	Ich Offset Enable
ICHOFFSET	QUANT	0	Ich Offset (V)
ICHFILTER	IQUANT	3	Ich Filter
VCHRANGE	IQUANT	2	Vch Range
VCHRANGEMODE	TOGGLE	F	Vch Auto Range
VCHOFFSETENABLE	TOGGLE	T	Vch Offset Enable
VCHOFFSET	QUANT	0	Vch Offset (V)
VCHFILTER	IQUANT	3	Vch Filter
ACHRANGE	IQUANT	2	Ach Range
ACHOFFSETENABLE	TOGGLE	F	Ach Offset Enable
ACHOFFSET	QUANT	0	Ach Offset (V)
ACHFILTER	IQUANT	3	Ach Filter
IERANGELOWERLIMIT	IQUANT	2	I/E Range Lower Limit
IERANGEMODE	TOGGLE	F	I/E AutoRange
IERANGE	IQUANT	11	I/E Range
POSFEEDENABLE	TOGGLE	F	Positive Feedback IR Comp
POSFEEDRESISTANCE	QUANT	0	Positive Feedback Resistance (ohm)
ACHSELECT	IQUANT	0	Ach Select
CABLEID	IQUANT	13	Cable ID
DCCALDATE	LABEL	7/31/2020	DC Calibration Date
ACCALDATE	LABEL	7/31/2020	AC Calibration Date
THERMOSELECT	IQUANT	1	Thermo Select
FRAMEWORKVERSION	QUANT	6.33	Framework Version
INSTRUMENTVERSION	LABEL	3.50	Instrument Version
COMPLIANCEVOLTAGE	IQUANT	0	Compliance Voltage
ZCURVE	TABLE
	Pt	Time	Freq	Zreal	Zimag	Zsig	Zmod	Zphz	Idc	Vdc	IERange
	#	s	Hz	ohm	ohm	V	ohm	°	A	V	#
	0	7	300046.9	33.72718	1.185317	1	33.748	2.012789	-0.0001079	-0.0001815	11
	1	11	238359.4	34.0864	1.274968	1	34.11023	2.142094	8.094721E-005	0.0001229	10
	2	14	189328.1	34.40015	0.96507	1	34.41369	1.606967	1.525583E-005	0.0004	10
	3	17	150421.9	34.72644	0.758603	1	34.73473	1.251434	7.047211E-005	0.0005466	10
	4	19	119484.4	34.98042	0.5454525	1	34.98468	0.8933453	6.882371E-005	0.0005431	10
	5	22	94921.88	35.26562	0.3797943	1	35.26766	0.617025	2.170541E-005	0.0005786	10
	6	24	75421.88	35.54412	0.5071681	1	35.54774	0.8174803	8.790103E-006	-0.0004148	9
	7	27	59859.37	35.83079	0.3042969	1	35.83208	0.4865789	3.907719E-006	0.0002076	9
	8	29	47578.12	36.12621	0.1306129	1	36.12644	0.2071497	1.765298E-005	-0.0004255	9
	9	32	37828.12	36.42666	-0.025272	1	36.42667	-0.0397506	1.755568E-005	-0.0003585	9
	10	34	30046.88	36.73692	-0.1902298	1	36.73742	-0.2966842	-8.725618E-006	0.0004828	9
	11	37	23859.38	37.04083	-0.3452504	1	37.04244	-0.5340275	2.25126E-006	0.0002214	9
	12	39	18984.38	37.34494	-0.5118667	1	37.34845	-0.7852728	-3.972139E-006	0.0003952	9
	13	41	15046.87	37.64961	-0.7014313	1	37.65615	-1.067326	1.68603E-005	-0.0004865	9
	14	44	11953.13	37.94947	-0.901247	1	37.96017	-1.360439	-1.264604E-005	0.00039	9
	15	46	9515.62	38.25988	-1.155703	1	38.27734	-1.730187	1.804974E-005	-0.0003582	9
	16	48	7546.875	38.59099	-1.44801	1	38.61815	-2.148843	1.412264E-005	-0.0004102	9
	17	51	5928.309	38.94127	-1.833981	1	38.98443	-2.696414	9.033605E-006	-0.0004288	9
	18	53	4733.456	39.28479	-2.256812	1	39.34956	-3.287884	-1.404678E-005	0.0003801	9
	19	55	3796.875	39.65448	-2.765615	1	39.7508	-3.98951	-2.493505E-006	-0.0001405	9
	20	58	2987.132	40.06057	-3.454626	1	40.20925	-4.928711	1.452496E-005	-0.0001357	9
	21	60	2390.625	40.48265	-4.223505	1	40.70237	-5.95605	9.045714E-006	-0.0004273	9
	22	62	1884.191	40.93644	-5.230471	1	41.26923	-7.281261	1.732199E-005	-0.0004225	9
	23	64	1516.544	41.45789	-6.356761	1	41.9424	-8.7173	1.356105E-005	-0.0004885	9
	24	67	1193.986	42.03359	-7.860318	1	42.76221	-10.59203	8.33399E-006	-0.0004078	9
	25	69	946.5144	42.69353	-9.65016	1	43.77058	-12.73672	-1.39196E-005	0.0005713	9
	26	72	751.7689	43.36598	-11.84481	1	44.95451	-15.27692	-8.103336E-006	6.086352E-005	9
	27	74	597.4265	44.13475	-14.51124	1	46.45915	-18.20056	-1.468516E-005	0.0005596	9
	28	76	477.4305	44.97342	-17.68726	1	48.32647	-21.46885	1.321748E-006	5.348006E-005	9
	29	79	376.6741	45.95947	-21.83421	1	50.88227	-25.41124	1.286511E-006	5.127523E-005	9
	30	81	298.2954	47.07023	-26.89473	1	54.21193	-29.74254	1.330432E-006	5.123182E-005	9
	31	83	237.7717	48.34143	-32.96508	1	58.51145	-34.29093	1.393127E-006	5.205634E-005	9
	32	86	189.0121	49.84614	-40.54753	1	64.25527	-39.12676	1.262164E-006	5.271092E-005	9
	33	88	150.2404	51.6465	-49.90791	1	71.82034	-44.0192	1.288397E-006	4.982998E-005	9
	34	90	119.1737	53.85999	-61.58395	1	81.8137	-48.82776	1.341258E-006	4.899989E-005	9
	35	93	95.0169	56.54452	-75.64229	1	94.44066	-53.22096	1.286659E-006	4.539892E-005	9
	36	95	75.60484	59.9407	-93.08647	1	110.7158	-57.2215	8.598513E-007	0.0001054	9
	37	98	54.50582	66.26399	-125.1536	1	141.6134	-62.10051	1.322216E-006	4.530857E-005	9
	38	100	45.95588	70.71506	-146.0612	1	162.2791	-64.16621	1.340595E-006	5.472807E-005	9
	39	103	37.20238	77.38614	-176.6519	1	192.8588	-66.34315	1.393208E-006	5.19198E-005	9
	40	105	30.04808	85.92155	-213.8653	1	230.4797	-68.11194	1.368339E-006	5.309175E-005	9
	41	108	23.91582	97.6337	-262.0492	1	279.6464	-69.56573	1.323018E-006	4.575976E-005	9
	42	110	18.60119	114.496	-327.0641	1	346.526	-70.70628	9.978853E-007	5.498614E-005	9
	43	112	15.02404	133.2865	-393.9201	1	415.8586	-71.30628	1.414426E-006	0.0000972	9
	44	114	12.01923	157.7392	-475.4136	1	500.899	-71.64448	2.112678E-007	0.0006274	8
	45	117	9.450605	192.7132	-582.1171	1	613.1873	-71.68258	5.411078E-007	0.0006248	8
	46	119	7.512019	234.2814	-703.7225	1	741.6962	-71.5865	4.098329E-007	0.0006457	8
	47	122	5.978954	285.9941	-846.0005	1	893.0339	-71.32195	3.396008E-007	0.0006247	8
	48	125	4.734848	349.953	-1018.504	1	1076.948	-71.03754	4.118529E-007	0.000631	8
	49	128	3.75601	423.5679	-1220.059	1	1291.492	-70.85453	3.61476E-007	0.0006266	8
	50	132	3.004808	505.1824	-1448.775	1	1534.327	-70.77653	4.080862E-007	0.0005934	8
	51	136	2.372217	601.0555	-1740.186	1	1841.063	-70.94522	3.891855E-007	0.0005705	8
	52	140	1.878005	708.9605	-2087.891	1	2204.975	-71.24466	3.883965E-007	0.0006361	8
	53	144	1.512097	820.0358	-2479.671	1	2611.748	-71.70077	3.786709E-007	0.0005228	8
	54	150	1.201923	946.3584	-2991.401	1	3137.527	-72.44473	3.842626E-007	0.0006974	8
	55	156	0.956633	1087	-3615.812	1	3775.667	-73.26795	3.677897E-007	2.247603E-005	8
