EXPLAIN
TAG	EISPOT
TITLE	LABEL	Potentiostatic EIS	Test Identifier
DATE	LABEL	9/13/2020	Date
TIME	LABEL	13:14:29	Time
NOTES	NOTES	1	Notes...
	
PSTAT	PSTAT	REF3000-16137	Potentiostat
VDC	POTEN	0.00000E+000	T	DC Voltage (V)
FREQINIT	QUANT	3.00000E+005	Initial Freq. (Hz)
FREQFINAL	QUANT	1.00000E+000	Final Freq. (Hz)
PTSPERDEC	QUANT	1.00000E+001	Points/decade
VAC	QUANT	5.00000E+001	AC Voltage (mV rms)
AREA	QUANT	1.00000E+000	Sample Area (cm^2)
SPEED	SELECTOR	2	Optimize for:
ZGUESS	QUANT	1.00000E+003	Estimated Z (ohms)
EOC	QUANT	0	Open Circuit (V)
SEQUENCER	TOGGLE	TRUE	Run as Sequence
PSTATMODEL	IQUANT	5	Pstat Model
PSTATSECTION	LABEL	REF3000-16137	Pstat Section
PSTATSERIALNO	LABEL	16137	Pstat Serial Number
CTRLMODE	IQUANT	1	Control Mode
IESTAB	IQUANT	0	I/E Stability
CASPEED	IQUANT	1	Control Amp Speed
CONVENTION	IQUANT	1	Current Convention
ICHRANGE	IQUANT	2	Ich Range
ICHRANGEMODE	TOGGLE	F	Ich Auto Range
ICHOFFSETENABLE	TOGGLE	T	Ich Offset Enable
ICHOFFSET	QUANT	0	Ich Offset (V)
ICHFILTER	IQUANT	3	Ich Filter
VCHRANGE	IQUANT	2	Vch Range
VCHRANGEMODE	TOGGLE	F	Vch Auto Range
VCHOFFSETENABLE	TOGGLE	T	Vch Offset Enable
VCHOFFSET	QUANT	0	Vch Offset (V)
VCHFILTER	IQUANT	3	Vch Filter
ACHRANGE	IQUANT	2	Ach Range
ACHOFFSETENABLE	TOGGLE	F	Ach Offset Enable
ACHOFFSET	QUANT	0	Ach Offset (V)
ACHFILTER	IQUANT	3	Ach Filter
IERANGELOWERLIMIT	IQUANT	2	I/E Range Lower Limit
IERANGEMODE	TOGGLE	F	I/E AutoRange
IERANGE	IQUANT	11	I/E Range
POSFEEDENABLE	TOGGLE	F	Positive Feedback IR Comp
POSFEEDRESISTANCE	QUANT	0	Positive Feedback Resistance (ohm)
ACHSELECT	IQUANT	0	Ach Select
CABLEID	IQUANT	13	Cable ID
DCCALDATE	LABEL	7/31/2020	DC Calibration Date
ACCALDATE	LABEL	7/31/2020	AC Calibration Date
THERMOSELECT	IQUANT	1	Thermo Select
FRAMEWORKVERSION	QUANT	6.33	Framework Version
INSTRUMENTVERSION	LABEL	3.50	Instrument Version
COMPLIANCEVOLTAGE	IQUANT	0	Compliance Voltage
ZCURVE	TABLE
	Pt	Time	Freq	Zreal	Zimag	Zsig	Zmod	Zphz	Idc	Vdc	IERange
	#	s	Hz	ohm	ohm	V	ohm	°	A	V	#
	0	8	300046.9	8.24083	2.186879	1	8.526061	14.8621	-8.03975E-006	0.0001082	10
	1	11	238359.4	8.245295	1.730643	1	8.424963	11.85399	5.695122E-005	-1.025693E-005	10
	2	14	189328.1	8.252494	1.361341	1	8.364024	9.367216	-1.430187E-005	0.0003274	10
	3	17	150421.9	8.255051	1.04722	1	8.32121	7.229815	5.728639E-005	0.0003544	10
	4	19	119484.4	8.273143	0.8108118	1	8.312779	5.597414	-3.318897E-005	0.0004423	10
	5	22	94921.88	8.289396	0.6280991	1	8.313158	4.333101	-4.176746E-006	0.0005136	10
	6	24	75421.88	8.304509	0.4454821	1	8.316449	3.070597	2.217073E-005	0.0005792	10
	7	27	59859.37	8.326212	0.2870856	1	8.33116	1.974761	-1.836002E-005	0.0006467	10
	8	29	47578.12	8.349089	0.1487147	1	8.350413	1.02045	1.292423E-005	0.0005893	10
	9	32	37828.12	8.376534	0.024771	1	8.376571	0.1694343	-1.346745E-005	0.000632	10
	10	34	30046.88	8.403319	-0.0959121	1	8.403867	-0.6539226	-1.346117E-005	0.0006128	10
	11	37	23859.38	8.430618	-0.2177452	1	8.43343	-1.479501	-2.749405E-005	0.0006946	10
	12	39	18984.38	8.458318	-0.3473345	1	8.465446	-2.351487	-2.98384E-005	0.0006476	10
	13	42	15046.87	8.489182	-0.4938229	1	8.503532	-3.329193	5.401723E-006	0.0006706	10
	14	44	11953.13	8.523573	-0.6602365	1	8.549106	-4.42929	9.680273E-006	0.0006697	10
	15	46	9515.62	8.559686	-0.8561819	1	8.602399	-5.712007	-1.963688E-005	0.000625	10
	16	48	7546.875	8.60101	-1.094419	1	8.67036	-7.25152	3.928445E-006	0.0005885	10
	17	51	5928.309	8.64966	-1.396734	1	8.761705	-9.172855	1.396664E-005	0.0006391	10
	18	53	4733.456	8.70575	-1.743789	1	8.878676	-11.32663	-2.578169E-005	0.0006602	10
	19	55	3796.875	8.768683	-2.158621	1	9.030474	-13.82973	3.640113E-006	0.0005932	10
	20	58	2987.132	8.850579	-2.713081	1	9.257082	-17.04254	-5.033405E-006	0.0006075	10
	21	60	2390.625	8.944379	-3.352556	1	9.55204	-20.54713	1.14676E-005	0.0005921	10
	22	62	1884.191	9.064713	-4.19184	1	9.98702	-24.81747	1.667422E-005	0.0005939	10
	23	65	1516.544	9.204663	-5.135827	1	10.54052	-29.15974	-2.50873E-005	0.0007175	10
	24	67	1193.986	9.395046	-6.417787	1	11.37782	-34.33711	-2.573571E-005	0.0006776	10
	25	69	946.5144	9.63014	-7.954695	1	12.49066	-39.55742	2.051208E-005	0.0006127	10
	26	72	751.7689	9.92196	-9.84477	1	13.9773	-44.77625	-2.616277E-005	0.0007066	10
	27	74	597.4265	10.28556	-12.15633	1	15.92385	-49.76521	-2.4428E-005	0.0006547	10
	28	76	477.4305	10.74188	-14.92941	1	18.39226	-54.26454	-1.928879E-006	0.0006497	10
	29	79	376.6741	11.3488	-18.5332	1	21.73189	-58.5188	-1.854292E-006	0.0006488	10
	30	81	298.2954	12.10783	-22.91351	1	25.9158	-62.14738	-2.401983E-006	0.0006529	10
	31	83	237.7717	13.04519	-28.1447	1	31.02098	-65.13207	-1.949286E-006	0.0006495	10
	32	86	189.0121	14.24321	-34.63447	1	37.44884	-67.64539	-1.65058E-006	0.0006509	10
	33	88	150.2404	15.74664	-42.5396	1	45.36049	-69.68726	7.697553E-007	0.0001108	9
	34	91	119.1737	17.70989	-52.38798	1	55.30046	-71.32204	1.30835E-006	5.012289E-005	9
	35	93	95.0169	20.17092	-64.16031	1	67.25631	-72.54773	1.238063E-006	5.048285E-005	9
	36	95	75.60484	23.37491	-78.66165	1	82.06121	-73.45028	1.146936E-006	4.904868E-005	9
	37	98	54.50582	29.67712	-105.0615	1	109.1726	-74.22641	1.141375E-006	4.422446E-005	9
	38	101	45.95588	34.05888	-122.0648	1	126.7273	-74.40968	1.128971E-006	5.528316E-005	9
	39	103	37.20238	40.78776	-146.6535	1	152.2199	-74.45751	1.119793E-006	5.809158E-005	9
	40	105	30.04808	49.47553	-176.1802	1	182.9953	-74.31401	1.159958E-006	4.400348E-005	9
	41	108	23.91582	61.29041	-213.5179	1	222.1405	-73.98385	8.497749E-007	0.0001017	9
	42	110	18.60119	77.84212	-262.778	1	274.0651	-73.49925	1.127018E-006	4.748619E-005	9
	43	112	15.02404	95.224	-312.258	1	326.4547	-73.04076	1.410262E-006	4.56896E-005	9
	44	115	12.01923	116.902	-372.6576	1	390.5634	-72.58345	1.242539E-006	4.157489E-005	9
	45	117	9.450605	143.6412	-447.5966	1	470.0803	-72.2077	6.31657E-007	0.0006149	8
	46	120	7.512019	173.3269	-534.45	1	561.8532	-72.03166	6.500603E-007	0.0006332	8
	47	122	5.978954	205.6532	-637.7	1	670.0407	-72.1259	6.15281E-007	0.000627	8
	48	125	4.734848	242.4411	-765.6807	1	803.1467	-72.4304	6.15127E-007	0.0006421	8
	49	129	3.75601	281.9591	-921.2304	1	963.414	-72.98233	5.630347E-007	0.0006027	8
	50	132	3.004808	323.6624	-1104.423	1	1150.872	-73.66624	6.035774E-007	0.0006253	8
	51	136	2.372217	375.6197	-1344.251	1	1395.744	-74.38822	6.109809E-007	0.0006773	8
	52	140	1.878005	430.8854	-1642.911	1	1698.475	-75.30405	5.45595E-007	0.0006079	8
	53	145	1.512097	489.067	-1979.675	1	2039.191	-76.12327	6.027116E-007	0.0005684	8
	54	150	1.201923	570.0969	-2428.474	1	2494.494	-76.78874	5.554249E-007	0.0006077	8
	55	156	0.956633	665.4423	-2974.521	1	3048.047	-77.38976	5.600838E-007	-1.581705E-005	8
