EXPLAIN
TAG	EISPOT
TITLE	LABEL	Potentiostatic EIS	Test Identifier
DATE	LABEL	9/13/2020	Date
TIME	LABEL	12:29:40	Time
NOTES	NOTES	1	Notes...
	
PSTAT	PSTAT	REF3000-16137	Potentiostat
VDC	POTEN	0.00000E+000	T	DC Voltage (V)
FREQINIT	QUANT	3.00000E+005	Initial Freq. (Hz)
FREQFINAL	QUANT	1.00000E+000	Final Freq. (Hz)
PTSPERDEC	QUANT	1.00000E+001	Points/decade
VAC	QUANT	5.00000E+001	AC Voltage (mV rms)
AREA	QUANT	1.00000E+000	Sample Area (cm^2)
SPEED	SELECTOR	2	Optimize for:
ZGUESS	QUANT	1.00000E+003	Estimated Z (ohms)
EOC	QUANT	0	Open Circuit (V)
SEQUENCER	TOGGLE	TRUE	Run as Sequence
PSTATMODEL	IQUANT	5	Pstat Model
PSTATSECTION	LABEL	REF3000-16137	Pstat Section
PSTATSERIALNO	LABEL	16137	Pstat Serial Number
CTRLMODE	IQUANT	1	Control Mode
IESTAB	IQUANT	0	I/E Stability
CASPEED	IQUANT	1	Control Amp Speed
CONVENTION	IQUANT	1	Current Convention
ICHRANGE	IQUANT	2	Ich Range
ICHRANGEMODE	TOGGLE	F	Ich Auto Range
ICHOFFSETENABLE	TOGGLE	T	Ich Offset Enable
ICHOFFSET	QUANT	0	Ich Offset (V)
ICHFILTER	IQUANT	3	Ich Filter
VCHRANGE	IQUANT	2	Vch Range
VCHRANGEMODE	TOGGLE	F	Vch Auto Range
VCHOFFSETENABLE	TOGGLE	T	Vch Offset Enable
VCHOFFSET	QUANT	0	Vch Offset (V)
VCHFILTER	IQUANT	3	Vch Filter
ACHRANGE	IQUANT	2	Ach Range
ACHOFFSETENABLE	TOGGLE	F	Ach Offset Enable
ACHOFFSET	QUANT	0	Ach Offset (V)
ACHFILTER	IQUANT	3	Ach Filter
IERANGELOWERLIMIT	IQUANT	2	I/E Range Lower Limit
IERANGEMODE	TOGGLE	F	I/E AutoRange
IERANGE	IQUANT	11	I/E Range
POSFEEDENABLE	TOGGLE	F	Positive Feedback IR Comp
POSFEEDRESISTANCE	QUANT	0	Positive Feedback Resistance (ohm)
ACHSELECT	IQUANT	0	Ach Select
CABLEID	IQUANT	13	Cable ID
DCCALDATE	LABEL	7/31/2020	DC Calibration Date
ACCALDATE	LABEL	7/31/2020	AC Calibration Date
THERMOSELECT	IQUANT	1	Thermo Select
FRAMEWORKVERSION	QUANT	6.33	Framework Version
INSTRUMENTVERSION	LABEL	3.50	Instrument Version
COMPLIANCEVOLTAGE	IQUANT	0	Compliance Voltage
ZCURVE	TABLE
	Pt	Time	Freq	Zreal	Zimag	Zsig	Zmod	Zphz	Idc	Vdc	IERange
	#	s	Hz	ohm	ohm	V	ohm	°	A	V	#
	0	10	300046.9	3.250441	2.053375	1	3.8447	32.28151	-1.601105E-005	-0.0001026	10
	1	13	238359.4	3.269597	1.57541	1	3.62935	25.72644	7.736042E-006	-0.0005157	10
	2	17	189328.1	3.287721	1.198488	1	3.499354	20.02855	-5.180137E-006	-0.000217	10
	3	19	150421.9	3.317374	0.8911656	1	3.434989	15.0367	2.056221E-005	9.310826E-005	10
	4	22	119484.4	3.356641	0.4941739	1	3.392823	8.375078	-0.0001623	0.0002391	12
	5	25	94921.88	3.375987	0.4490434	1	3.40572	7.576497	-5.013121E-005	0.0006088	11
	6	28	75421.88	3.406651	0.2971799	1	3.419588	4.985588	4.000214E-006	0.0006014	11
	7	30	59859.37	3.435494	0.173141	1	3.439854	2.885135	4.147533E-006	0.0006236	11
	8	33	47578.12	3.461608	0.069922	1	3.462314	1.157176	-5.563043E-005	0.0006682	11
	9	35	37828.12	3.484301	-0.0210991	1	3.484365	-0.3469493	1.445609E-005	0.0006786	11
	10	38	30046.88	3.506115	-0.0990444	1	3.507513	-1.618121	-3.162554E-005	0.0006267	10
	11	40	23859.38	3.523772	-0.1863276	1	3.528694	-3.026829	1.232396E-005	0.0005862	10
	12	43	18984.38	3.541302	-0.2770068	1	3.552119	-4.472668	-1.934145E-005	0.000664	10
	13	45	15046.87	3.558512	-0.3789617	1	3.578634	-6.078772	1.912845E-007	0.0005987	10
	14	47	11953.13	3.576396	-0.4951121	1	3.610505	-7.881862	-3.096156E-005	0.000641	10
	15	50	9515.62	3.597671	-0.6309116	1	3.652573	-9.94663	1.909143E-005	0.0006342	10
	16	52	7546.875	3.62153	-0.7961901	1	3.708018	-12.39917	-3.152717E-005	0.0006542	10
	17	54	5928.309	3.653058	-1.005914	1	3.789023	-15.39555	-1.186319E-005	0.000632	10
	18	57	4733.456	3.68937	-1.245326	1	3.893878	-18.65183	-2.798684E-005	0.0006627	10
	19	59	3796.875	3.732565	-1.52968	1	4.033852	-22.2848	9.381156E-006	0.0006246	10
	20	61	2987.132	3.793418	-1.910264	1	4.24725	-26.72861	-2.792981E-005	0.0006602	10
	21	64	2390.625	3.864187	-2.343446	1	4.519257	-31.23483	-1.7644E-005	0.0006779	10
	22	66	1884.191	3.960339	-2.911081	1	4.915148	-36.31807	-1.769394E-005	0.0006702	10
	23	68	1516.544	4.071994	-3.543638	1	5.398009	-41.0313	1.820547E-005	0.0006289	10
	24	71	1193.986	4.227666	-4.39886	1	6.101076	-46.13689	-2.389886E-005	0.0006671	10
	25	73	946.5144	4.422293	-5.423979	1	6.998302	-50.80886	1.376596E-005	0.0006511	10
	26	75	751.7689	4.671984	-6.666699	1	8.140781	-54.97745	-2.592914E-005	0.0007115	10
	27	78	597.4265	4.991799	-8.185408	1	9.58744	-58.62344	1.595318E-005	0.0006358	10
	28	80	477.4305	5.397978	-9.99111	1	11.35608	-61.61862	-4.80184E-006	0.0006526	10
	29	82	376.6741	5.958958	-12.31774	1	13.68342	-64.18368	-4.967648E-006	0.0006418	10
	30	85	298.2954	6.685788	-15.10922	1	16.52235	-66.13074	-5.043195E-006	0.0006492	10
	31	87	237.7717	7.607167	-18.38015	1	19.89218	-67.51634	-4.993391E-006	0.0006458	10
	32	89	189.0121	8.816411	-22.34437	1	24.02082	-68.46731	-4.997048E-006	0.0006426	10
	33	92	150.2404	10.36453	-27.0569	1	28.97411	-69.03995	-4.548673E-006	0.000644	10
	34	94	119.1737	12.31851	-32.67746	1	34.92223	-69.34492	-4.521837E-006	0.0006488	10
	35	97	95.0169	14.62232	-39.08436	1	41.73008	-69.48807	-1.280092E-006	4.373605E-005	9
	36	99	75.60484	17.37476	-46.71542	1	49.84188	-69.59843	-1.355282E-006	4.509588E-005	9
	37	102	54.50582	21.96676	-60.09679	1	63.98565	-69.92148	-1.368093E-006	4.566026E-005	9
	38	104	45.95588	24.64453	-68.57791	1	72.87169	-70.23331	-1.192401E-006	5.625968E-005	9
	39	106	37.20238	28.19411	-80.83693	1	85.61259	-70.77238	-1.053077E-006	4.506465E-005	9
	40	109	30.04808	32.09338	-95.8267	1	101.0581	-71.48375	-1.221164E-006	4.583887E-005	9
	41	111	23.91582	36.65675	-115.4178	1	121.0991	-72.38013	-1.904063E-006	0.0000985	9
	42	114	18.60119	42.37227	-142.3716	1	148.5432	-73.42608	-1.833287E-006	0.0000985	9
	43	116	15.02404	48.18721	-170.9025	1	177.566	-74.25381	-1.345047E-006	5.347567E-005	9
	44	118	12.01923	55.66534	-207.5739	1	214.9083	-74.98814	-1.348432E-006	4.611894E-005	9
	45	121	9.450605	65.97654	-256.7776	1	265.1182	-75.59011	-1.486246E-006	5.991775E-005	9
	46	123	7.512019	79.19554	-314.851	1	324.6584	-75.8811	-1.403097E-006	5.169204E-005	9
	47	126	5.978954	96.6001	-385.369	1	397.2919	-75.92767	-1.332216E-006	5.315854E-005	9
	48	129	4.734848	120.6106	-471.9416	1	487.1096	-75.66419	-1.829916E-006	0.0006232	8
	49	132	3.75601	153.3145	-577.7186	1	597.7157	-75.13747	-1.89787E-006	0.000628	8
	50	136	3.004808	196.1753	-698.4932	1	725.5188	-74.31234	-1.642725E-006	0.0005959	8
	51	139	2.372217	258.2979	-851.2382	1	889.5641	-73.12022	-1.821648E-006	0.000551	8
	52	144	1.878005	338.6847	-1025.879	1	1080.34	-71.72983	-1.760362E-006	0.0006372	8
	53	148	1.512097	433.5024	-1209.157	1	1284.517	-70.27642	-1.725349E-006	0.0005583	8
	54	154	1.201923	559.1411	-1434.641	1	1539.751	-68.707	-1.704956E-006	0.000657	8
	55	160	0.956633	708.8951	-1684.053	1	1827.175	-67.17155	-1.791254E-006	-7.876351E-006	8
