EXPLAIN
TAG	EISPOT
TITLE	LABEL	Potentiostatic EIS	Test Identifier
DATE	LABEL	9/13/2020	Date
TIME	LABEL	12:40:54	Time
NOTES	NOTES	1	Notes...
	
PSTAT	PSTAT	REF3000-16137	Potentiostat
VDC	POTEN	0.00000E+000	T	DC Voltage (V)
FREQINIT	QUANT	3.00000E+005	Initial Freq. (Hz)
FREQFINAL	QUANT	1.00000E+000	Final Freq. (Hz)
PTSPERDEC	QUANT	1.00000E+001	Points/decade
VAC	QUANT	5.00000E+001	AC Voltage (mV rms)
AREA	QUANT	1.00000E+000	Sample Area (cm^2)
SPEED	SELECTOR	2	Optimize for:
ZGUESS	QUANT	1.00000E+003	Estimated Z (ohms)
EOC	QUANT	0	Open Circuit (V)
SEQUENCER	TOGGLE	TRUE	Run as Sequence
PSTATMODEL	IQUANT	5	Pstat Model
PSTATSECTION	LABEL	REF3000-16137	Pstat Section
PSTATSERIALNO	LABEL	16137	Pstat Serial Number
CTRLMODE	IQUANT	1	Control Mode
IESTAB	IQUANT	0	I/E Stability
CASPEED	IQUANT	1	Control Amp Speed
CONVENTION	IQUANT	1	Current Convention
ICHRANGE	IQUANT	2	Ich Range
ICHRANGEMODE	TOGGLE	F	Ich Auto Range
ICHOFFSETENABLE	TOGGLE	T	Ich Offset Enable
ICHOFFSET	QUANT	0	Ich Offset (V)
ICHFILTER	IQUANT	3	Ich Filter
VCHRANGE	IQUANT	2	Vch Range
VCHRANGEMODE	TOGGLE	F	Vch Auto Range
VCHOFFSETENABLE	TOGGLE	T	Vch Offset Enable
VCHOFFSET	QUANT	0	Vch Offset (V)
VCHFILTER	IQUANT	3	Vch Filter
ACHRANGE	IQUANT	2	Ach Range
ACHOFFSETENABLE	TOGGLE	F	Ach Offset Enable
ACHOFFSET	QUANT	0	Ach Offset (V)
ACHFILTER	IQUANT	3	Ach Filter
IERANGELOWERLIMIT	IQUANT	2	I/E Range Lower Limit
IERANGEMODE	TOGGLE	F	I/E AutoRange
IERANGE	IQUANT	11	I/E Range
POSFEEDENABLE	TOGGLE	F	Positive Feedback IR Comp
POSFEEDRESISTANCE	QUANT	0	Positive Feedback Resistance (ohm)
ACHSELECT	IQUANT	0	Ach Select
CABLEID	IQUANT	13	Cable ID
DCCALDATE	LABEL	7/31/2020	DC Calibration Date
ACCALDATE	LABEL	7/31/2020	AC Calibration Date
THERMOSELECT	IQUANT	1	Thermo Select
FRAMEWORKVERSION	QUANT	6.33	Framework Version
INSTRUMENTVERSION	LABEL	3.50	Instrument Version
COMPLIANCEVOLTAGE	IQUANT	0	Compliance Voltage
ZCURVE	TABLE
	Pt	Time	Freq	Zreal	Zimag	Zsig	Zmod	Zphz	Idc	Vdc	IERange
	#	s	Hz	ohm	ohm	V	ohm	°	A	V	#
	0	10	300046.9	3.614244	2.146904	1	4.203802	30.71082	2.119356E-005	-9.496349E-005	10
	1	13	238359.4	3.585924	1.678589	1	3.959358	25.08453	-1.322249E-005	-0.000394	10
	2	16	189328.1	3.584712	1.294294	1	3.811214	19.85259	1.884334E-005	-0.0001028	10
	3	19	150421.9	3.602256	0.995769	1	3.737353	15.45236	-1.670884E-005	8.291969E-005	10
	4	21	119484.4	3.607276	0.748069	1	3.684026	11.71581	-0.0001013	0.0002574	10
	5	24	94921.88	3.625646	0.5618328	1	3.668919	8.808536	8.561039E-006	0.0004054	10
	6	26	75421.88	3.640549	0.3953124	1	3.661949	6.197235	-5.734072E-006	0.0004347	10
	7	29	59859.37	3.656978	0.2550628	1	3.665862	3.98974	2.931165E-005	0.000493	10
	8	31	47578.12	3.673744	0.1371318	1	3.676303	2.137717	-2.234041E-005	0.000554	10
	9	34	37828.12	3.689673	0.0321104	1	3.689813	0.49862	-1.625818E-005	0.0006165	10
	10	36	30046.88	3.704413	-0.0675411	1	3.705029	-1.044536	-1.29413E-006	0.0005826	10
	11	39	23859.38	3.71925	-0.166067	1	3.722955	-2.556598	-9.117293E-006	0.0006196	10
	12	41	18984.38	3.733798	-0.2680136	1	3.743404	-4.105674	-1.761898E-005	0.0006619	10
	13	43	15046.87	3.749163	-0.3816087	1	3.768534	-5.811837	5.908888E-006	0.0006054	10
	14	46	11953.13	3.766498	-0.5103585	1	3.800917	-7.716552	1.814293E-005	0.0006199	10
	15	48	9515.62	3.787213	-0.6596035	1	3.844224	-9.87987	-1.702602E-005	0.0006786	10
	16	50	7546.875	3.811037	-0.8410133	1	3.902731	-12.44448	-3.04234E-005	0.0006539	10
	17	53	5928.309	3.842497	-1.070038	1	3.988705	-15.56118	-6.102684E-006	0.000622	10
	18	55	4733.456	3.878729	-1.330963	1	4.100732	-18.93936	1.488703E-005	0.0006136	10
	19	57	3796.875	3.923993	-1.642168	1	4.253755	-22.70902	1.487923E-005	0.000609	10
	20	60	2987.132	3.98663	-2.056058	1	4.485598	-27.28189	-2.603236E-005	0.0006599	10
	21	62	2390.625	4.059233	-2.528009	1	4.782071	-31.91383	-3.303258E-005	0.0006505	10
	22	64	1884.191	4.159281	-3.14671	1	5.215497	-37.10938	-2.800641E-005	0.0006638	10
	23	68	1516.544	4.275226	-3.83741	1	5.744848	-41.91091	-2.739009E-005	0.0006622	10
	24	70	1193.986	4.437183	-4.768358	1	6.513511	-47.06036	1.920613E-005	0.0006275	10
	25	72	946.5144	4.64122	-5.884089	1	7.494226	-51.73452	-2.172259E-005	0.0006678	10
	26	75	751.7689	4.891121	-7.24381	1	8.740472	-55.97223	2.580691E-006	0.0006382	10
	27	77	597.4265	5.219623	-8.903638	1	10.32082	-59.61968	1.487588E-005	0.0006088	10
	28	79	477.4305	5.628007	-10.88619	1	12.25494	-62.66167	-3.639612E-006	0.0006462	10
	29	82	376.6741	6.189382	-13.44716	1	14.8032	-65.28461	-3.571928E-006	0.0006473	10
	30	84	298.2954	6.912158	-16.53636	1	17.92287	-67.3152	-3.523356E-006	0.0006452	10
	31	86	237.7717	7.832143	-20.18408	1	21.65039	-68.79197	-3.40984E-006	0.000646	10
	32	89	189.0121	9.044903	-24.64266	1	26.25016	-69.84472	-3.22766E-006	0.0006518	10
	33	91	150.2404	10.62689	-30.00569	1	31.83194	-70.49776	-3.324034E-006	0.0006496	10
	34	93	119.1737	12.68038	-36.46466	1	38.60652	-70.82517	-3.313924E-006	0.0006484	10
	35	96	95.0169	15.19338	-43.88805	1	46.44352	-70.90491	8.000004E-008	4.651524E-005	9
	36	98	75.60484	18.33291	-52.74932	1	55.8443	-70.83521	2.937212E-008	4.511112E-005	9
	37	101	54.50582	23.88712	-68.17787	1	72.24138	-70.69135	-9.407453E-008	4.103134E-005	9
	38	103	45.95588	27.26345	-77.80599	1	82.44434	-70.68939	1.552996E-007	5.009572E-005	9
	39	106	37.20238	31.83104	-91.54313	1	96.9193	-70.82661	1.477984E-007	4.952734E-005	9
	40	108	30.04808	36.85826	-108.011	1	114.1267	-71.15804	4.709431E-008	4.538981E-005	9
	41	111	23.91582	42.71214	-129.1978	1	136.075	-71.70638	1.551433E-007	4.279113E-005	9
	42	113	18.60119	49.79759	-158.1933	1	165.8461	-72.52655	1.669424E-007	4.486951E-005	9
	43	115	15.02404	56.45181	-188.6493	1	196.9146	-73.34061	8.361397E-008	4.893144E-005	9
	44	117	12.01923	64.51944	-227.7253	1	236.6888	-74.18144	3.598922E-007	4.51297E-005	9
	45	120	9.450605	74.82179	-280.3227	1	290.1364	-75.0554	3.19386E-007	3.546533E-005	9
	46	122	7.512019	87.03845	-342.6595	1	353.541	-75.7478	3.350556E-007	6.980983E-005	9
	47	125	5.978954	102.312	-417.8678	1	430.2107	-76.24219	-5.119375E-007	0.0006292	8
	48	128	4.734848	123.3452	-514.7607	1	529.3322	-76.52503	-3.637818E-007	0.0006396	8
	49	131	3.75601	151.2983	-632.8732	1	650.7071	-76.55489	-5.63684E-007	0.000626	8
	50	135	3.004808	187.9231	-770.3765	1	792.966	-76.29118	-3.413757E-007	0.0005963	8
	51	138	2.372217	241.052	-948.7637	1	978.907	-75.74451	-4.904275E-007	0.0005531	8
	52	143	1.878005	311.3731	-1159.403	1	1200.487	-74.96718	-3.794659E-007	0.0006264	8
	53	147	1.512097	398.0865	-1388.235	1	1444.185	-73.99937	-4.22067E-007	0.0005848	8
	54	153	1.201923	520.172	-1680.533	1	1759.196	-72.80124	-3.945004E-007	0.0006458	8
	55	159	0.956633	676.8599	-2014.512	1	2125.182	-71.42806	-5.274709E-007	-1.725378E-005	8
