EXPLAIN
TAG	EISPOT
TITLE	LABEL	Potentiostatic EIS	Test Identifier
DATE	LABEL	9/13/2020	Date
TIME	LABEL	13:39:33	Time
NOTES	NOTES	1	Notes...
	
PSTAT	PSTAT	REF3000-16137	Potentiostat
VDC	POTEN	0.00000E+000	T	DC Voltage (V)
FREQINIT	QUANT	3.00000E+005	Initial Freq. (Hz)
FREQFINAL	QUANT	1.00000E+000	Final Freq. (Hz)
PTSPERDEC	QUANT	1.00000E+001	Points/decade
VAC	QUANT	5.00000E+001	AC Voltage (mV rms)
AREA	QUANT	1.00000E+000	Sample Area (cm^2)
SPEED	SELECTOR	2	Optimize for:
ZGUESS	QUANT	1.00000E+003	Estimated Z (ohms)
EOC	QUANT	0	Open Circuit (V)
SEQUENCER	TOGGLE	TRUE	Run as Sequence
PSTATMODEL	IQUANT	5	Pstat Model
PSTATSECTION	LABEL	REF3000-16137	Pstat Section
PSTATSERIALNO	LABEL	16137	Pstat Serial Number
CTRLMODE	IQUANT	1	Control Mode
IESTAB	IQUANT	0	I/E Stability
CASPEED	IQUANT	1	Control Amp Speed
CONVENTION	IQUANT	1	Current Convention
ICHRANGE	IQUANT	2	Ich Range
ICHRANGEMODE	TOGGLE	F	Ich Auto Range
ICHOFFSETENABLE	TOGGLE	T	Ich Offset Enable
ICHOFFSET	QUANT	0	Ich Offset (V)
ICHFILTER	IQUANT	3	Ich Filter
VCHRANGE	IQUANT	2	Vch Range
VCHRANGEMODE	TOGGLE	F	Vch Auto Range
VCHOFFSETENABLE	TOGGLE	T	Vch Offset Enable
VCHOFFSET	QUANT	0	Vch Offset (V)
VCHFILTER	IQUANT	3	Vch Filter
ACHRANGE	IQUANT	2	Ach Range
ACHOFFSETENABLE	TOGGLE	F	Ach Offset Enable
ACHOFFSET	QUANT	0	Ach Offset (V)
ACHFILTER	IQUANT	3	Ach Filter
IERANGELOWERLIMIT	IQUANT	2	I/E Range Lower Limit
IERANGEMODE	TOGGLE	F	I/E AutoRange
IERANGE	IQUANT	11	I/E Range
POSFEEDENABLE	TOGGLE	F	Positive Feedback IR Comp
POSFEEDRESISTANCE	QUANT	0	Positive Feedback Resistance (ohm)
ACHSELECT	IQUANT	0	Ach Select
CABLEID	IQUANT	13	Cable ID
DCCALDATE	LABEL	7/31/2020	DC Calibration Date
ACCALDATE	LABEL	7/31/2020	AC Calibration Date
THERMOSELECT	IQUANT	1	Thermo Select
FRAMEWORKVERSION	QUANT	6.33	Framework Version
INSTRUMENTVERSION	LABEL	3.50	Instrument Version
COMPLIANCEVOLTAGE	IQUANT	0	Compliance Voltage
ZCURVE	TABLE
	Pt	Time	Freq	Zreal	Zimag	Zsig	Zmod	Zphz	Idc	Vdc	IERange
	#	s	Hz	ohm	ohm	V	ohm	°	A	V	#
	0	15	300046.9	487.117	-62.26055	1	491.0798	-7.283731	9.022569E-005	-0.002725	9
	1	22	238359.4	505.041	-55.47321	1	508.0785	-6.268185	-8.579828E-005	0.0021262	9
	2	30	189328.1	522.465	-47.42834	1	524.6133	-5.186981	8.106755E-005	-0.0031097	9
	3	39	150421.9	541.3231	-43.28041	1	543.0505	-4.571246	1.632204E-005	-0.0019087	9
	4	48	119484.4	558.1547	-17.64823	1	558.4336	-1.811025	-3.727931E-005	0.0053725	8
	5	54	94921.88	566.7501	-13.69004	1	566.9154	-1.38373	-9.852301E-006	0.0065774	8
	6	56	75421.88	572.0484	-11.92565	1	572.1727	-1.194288	-1.137429E-005	0.0012967	8
	7	59	59859.37	576.6938	-9.423879	1	576.7708	-0.9361995	8.765946E-006	-0.0053127	8
	8	62	47578.12	582.7078	-9.4546	1	582.7845	-0.9295589	1.743822E-005	-0.0049842	8
	9	64	37828.12	587.5152	-7.992836	1	587.5696	-0.779431	1.589972E-005	-0.0023399	8
	10	67	30046.88	592.9539	-7.485434	1	593.0011	-0.723262	1.704411E-005	-0.0048209	8
	11	69	23859.38	598.3214	-7.468142	1	598.368	-0.7151186	1.708292E-005	-0.0036793	8
	12	71	18984.38	604.0578	-5.599621	1	604.0837	-0.5311172	-1.531624E-005	0.0033324	8
	13	74	15046.87	611.467	-2.660762	1	611.4728	-0.2493175	-1.591251E-005	0.0064663	8
	14	76	11953.13	616.2322	-5.083495	1	616.2532	-0.4726403	3.044878E-006	-0.0043571	8
	15	79	9515.62	620.4262	-3.433821	1	620.4357	-0.317107	-1.411262E-005	0.0028858	8
	16	81	7546.875	627.2875	-4.077649	1	627.3008	-0.3724429	6.076329E-006	0.0026895	8
	17	84	5928.309	632.2334	-2.614754	1	632.2388	-0.2369592	1.791411E-005	-0.0038763	8
	18	87	4733.456	638.4104	-4.638807	1	638.4272	-0.4163143	3.457818E-006	-0.004252	8
	19	89	3796.875	647.4421	-6.234924	1	647.4722	-0.5517463	-1.700937E-005	0.0055276	8
	20	91	2987.132	650.6516	-6.523092	1	650.6843	-0.5743982	7.425704E-007	0.0044841	8
	21	94	2390.625	658.4746	-6.410192	1	658.5058	-0.5577517	1.643335E-005	-0.0058719	8
	22	96	1884.191	660.2563	-9.64531	1	660.3268	-0.8369418	1.621473E-005	-0.0058404	8
	23	99	1516.544	668.075	-9.377796	1	668.1407	-0.8042104	-1.12134E-005	0.0071968	8
	24	101	1193.986	675.704	-11.92254	1	675.8091	-1.010858	-1.514647E-005	0.0029367	8
	25	104	946.5144	683.3804	-12.78947	1	683.5001	-1.072165	-1.463908E-005	0.0029007	8
	26	106	751.7689	688.8467	-16.38808	1	689.0416	-1.362844	3.91554E-006	-0.0044892	8
	27	109	597.4265	696.3436	-20.06282	1	696.6325	-1.650331	-1.737154E-005	0.00692	8
	28	112	477.4305	703.8646	-24.46079	1	704.2895	-1.99035	-1.617442E-007	0.0006154	8
	29	114	376.6741	710.6873	-30.10233	1	711.3245	-2.425407	-1.769166E-007	0.0006347	8
	30	116	298.2954	717.6955	-37.05312	1	718.6514	-2.955438	-1.509637E-007	0.0006251	8
	31	119	237.7717	725.1437	-45.44541	1	726.5664	-3.586088	-1.921575E-007	0.0006255	8
	32	121	189.0121	732.9554	-55.97297	1	735.0895	-4.366981	-1.54812E-007	0.000605	8
	33	123	150.2404	741.1008	-69.02775	1	744.3086	-5.321301	-1.850994E-007	0.0006237	8
	34	126	119.1737	749.6652	-85.32849	1	754.5057	-6.493581	-1.485626E-007	0.0006225	8
	35	128	95.0169	758.8234	-105.1106	1	766.0686	-7.886309	-1.952429E-007	0.0006291	8
	36	131	75.60484	768.9994	-129.7633	1	779.8708	-9.57803	-1.943264E-007	0.0006258	8
	37	133	54.50582	782.0176	-175.4317	1	801.4536	-12.64396	-1.798979E-007	0.0006204	8
	38	136	45.95588	792.8035	-205.4746	1	818.9977	-14.52991	-2.314484E-007	0.0006248	8
	39	138	37.20238	805.3277	-249.6978	1	843.1499	-17.22644	-1.794097E-007	0.0006342	8
	40	140	30.04808	819.6884	-304.0704	1	874.27	-20.35277	-1.740843E-007	0.0006109	8
	41	143	23.91582	836.6222	-375.2967	1	916.9429	-24.16032	-1.588604E-007	0.0006064	8
	42	145	18.60119	857.0779	-472.9513	1	978.91	-28.89072	-1.450957E-007	0.0006125	8
	43	147	15.02404	879.4047	-575.2692	1	1050.851	-33.19101	-2.791204E-007	0.0006592	8
	44	150	12.01923	906.5455	-706.2516	1	1149.181	-37.92066	-2.21885E-007	0.0006236	8
	45	152	9.450605	941.5059	-880.2438	1	1288.9	-43.07397	-1.795253E-007	0.000627	8
	46	155	7.512019	984.077	-1086.02	1	1465.553	-47.81929	-2.050896E-007	0.0006477	8
	47	157	5.978954	1037.205	-1336.477	1	1691.734	-52.18587	-2.30908E-007	0.0006382	8
	48	160	4.734848	1107.181	-1653.687	1	1990.108	-56.19678	-1.765356E-007	0.0006401	8
	49	164	3.75601	1193.673	-2040.34	1	2363.862	-59.67082	-2.210968E-007	0.0006201	8
	50	167	3.004808	1301.299	-2494.364	1	2813.402	-62.44915	-1.795269E-007	0.0006052	8
	51	171	2.372217	1447.524	-3080.809	1	3403.926	-64.83342	-2.076242E-007	0.0006229	8
	52	175	1.878005	1642.421	-3801.013	1	4140.682	-66.63078	-2.239457E-007	0.0006241	8
	53	180	1.512097	1872.635	-4616.593	1	4981.937	-67.92098	-4.817653E-008	0.000509	7
	54	185	1.201923	2191.456	-5653.925	1	6063.773	-68.81372	-6.582037E-008	0.0006082	7
	55	191	0.956633	2591.958	-6894.179	1	7365.321	-69.39558	-7.083694E-008	2.290886E-006	7
