EXPLAIN
TAG	EISPOT
TITLE	LABEL	Potentiostatic EIS	Test Identifier
DATE	LABEL	9/13/2020	Date
TIME	LABEL	12:43:42	Time
NOTES	NOTES	1	Notes...
	
PSTAT	PSTAT	REF3000-16137	Potentiostat
VDC	POTEN	0.00000E+000	T	DC Voltage (V)
FREQINIT	QUANT	3.00000E+005	Initial Freq. (Hz)
FREQFINAL	QUANT	1.00000E+000	Final Freq. (Hz)
PTSPERDEC	QUANT	1.00000E+001	Points/decade
VAC	QUANT	5.00000E+001	AC Voltage (mV rms)
AREA	QUANT	1.00000E+000	Sample Area (cm^2)
SPEED	SELECTOR	2	Optimize for:
ZGUESS	QUANT	1.00000E+003	Estimated Z (ohms)
EOC	QUANT	0	Open Circuit (V)
SEQUENCER	TOGGLE	TRUE	Run as Sequence
PSTATMODEL	IQUANT	5	Pstat Model
PSTATSECTION	LABEL	REF3000-16137	Pstat Section
PSTATSERIALNO	LABEL	16137	Pstat Serial Number
CTRLMODE	IQUANT	1	Control Mode
IESTAB	IQUANT	0	I/E Stability
CASPEED	IQUANT	1	Control Amp Speed
CONVENTION	IQUANT	1	Current Convention
ICHRANGE	IQUANT	2	Ich Range
ICHRANGEMODE	TOGGLE	F	Ich Auto Range
ICHOFFSETENABLE	TOGGLE	T	Ich Offset Enable
ICHOFFSET	QUANT	0	Ich Offset (V)
ICHFILTER	IQUANT	3	Ich Filter
VCHRANGE	IQUANT	2	Vch Range
VCHRANGEMODE	TOGGLE	F	Vch Auto Range
VCHOFFSETENABLE	TOGGLE	T	Vch Offset Enable
VCHOFFSET	QUANT	0	Vch Offset (V)
VCHFILTER	IQUANT	3	Vch Filter
ACHRANGE	IQUANT	2	Ach Range
ACHOFFSETENABLE	TOGGLE	F	Ach Offset Enable
ACHOFFSET	QUANT	0	Ach Offset (V)
ACHFILTER	IQUANT	3	Ach Filter
IERANGELOWERLIMIT	IQUANT	2	I/E Range Lower Limit
IERANGEMODE	TOGGLE	F	I/E AutoRange
IERANGE	IQUANT	11	I/E Range
POSFEEDENABLE	TOGGLE	F	Positive Feedback IR Comp
POSFEEDRESISTANCE	QUANT	0	Positive Feedback Resistance (ohm)
ACHSELECT	IQUANT	0	Ach Select
CABLEID	IQUANT	13	Cable ID
DCCALDATE	LABEL	7/31/2020	DC Calibration Date
ACCALDATE	LABEL	7/31/2020	AC Calibration Date
THERMOSELECT	IQUANT	1	Thermo Select
FRAMEWORKVERSION	QUANT	6.33	Framework Version
INSTRUMENTVERSION	LABEL	3.50	Instrument Version
COMPLIANCEVOLTAGE	IQUANT	0	Compliance Voltage
ZCURVE	TABLE
	Pt	Time	Freq	Zreal	Zimag	Zsig	Zmod	Zphz	Idc	Vdc	IERange
	#	s	Hz	ohm	ohm	V	ohm	°	A	V	#
	0	10	300046.9	3.703215	2.176231	1	4.295321	30.44104	-5.449189E-005	-3.065775E-005	10
	1	14	238359.4	3.679765	1.694628	1	4.051227	24.72731	3.070215E-006	-0.0003626	10
	2	17	189328.1	3.684084	1.31539	1	3.91187	19.64893	-2.246054E-005	-0.0001373	10
	3	19	150421.9	3.684595	1.003553	1	3.818816	15.23577	-3.451344E-005	0.0001463	10
	4	22	119484.4	3.69741	0.7611526	1	3.774943	11.63246	5.896887E-005	0.0001198	10
	5	24	94921.88	3.712428	0.5751873	1	3.756723	8.80713	2.065728E-005	0.0003916	10
	6	27	75421.88	3.726557	0.406887	1	3.748705	6.2312	5.91624E-006	0.0004433	10
	7	29	59859.37	3.742408	0.2662199	1	3.751865	4.068938	-2.18838E-005	0.0005714	10
	8	32	47578.12	3.758126	0.145565	1	3.760944	2.218151	-8.016666E-006	0.0005871	10
	9	34	37828.12	3.772385	0.0373432	1	3.772569	0.5671586	1.977169E-005	0.0005531	10
	10	37	30046.88	3.787343	-0.0642889	1	3.787889	-0.972484	-2.974606E-005	0.0006472	10
	11	39	23859.38	3.802538	-0.1652704	1	3.806128	-2.48869	-1.932349E-005	0.0006076	10
	12	42	18984.38	3.816892	-0.2696652	1	3.826406	-4.041259	2.160989E-005	0.0006117	10
	13	44	15046.87	3.832483	-0.3857427	1	3.851847	-5.747513	1.147085E-005	0.0006031	10
	14	46	11953.13	3.851077	-0.5171332	1	3.885643	-7.648084	-2.180381E-005	0.0006715	10
	15	49	9515.62	3.870831	-0.6700705	1	3.9284	-9.82101	1.898511E-005	0.0006197	10
	16	51	7546.875	3.89597	-0.8551694	1	3.988721	-12.38015	-2.367242E-005	0.0006791	10
	17	53	5928.309	3.927236	-1.089649	1	4.0756	-15.50718	-2.666898E-005	0.0006577	10
	18	55	4733.456	3.964454	-1.356194	1	4.190007	-18.88522	3.87619E-006	0.000644	10
	19	58	3796.875	4.010773	-1.673734	1	4.345996	-22.65124	-2.72518E-005	0.0006533	10
	20	60	2987.132	4.073702	-2.09638	1	4.581469	-27.23094	1.524477E-005	0.000614	10
	21	62	2390.625	4.148026	-2.57967	1	4.884753	-31.87761	1.817812E-005	0.0006461	10
	22	65	1884.191	4.248604	-3.211652	1	5.325912	-37.08677	3.539464E-006	0.0006442	10
	23	67	1516.544	4.36544	-3.918594	1	5.866212	-41.91242	-2.607376E-005	0.0006599	10
	24	69	1193.986	4.528905	-4.87131	1	6.651364	-47.08609	1.746711E-005	0.0006357	10
	25	72	946.5144	4.733928	-6.010727	1	7.651073	-51.77674	1.523612E-005	0.0006248	10
	26	74	751.7689	4.988903	-7.40564	1	8.929315	-56.03333	-2.664523E-005	0.000667	10
	27	76	597.4265	5.313821	-9.102067	1	10.53965	-59.72345	1.223313E-005	0.0006351	10
	28	79	477.4305	5.728113	-11.13123	1	12.51861	-62.76973	-3.499872E-006	0.000658	10
	29	81	376.6741	6.289659	-13.75581	1	15.12554	-65.42838	-3.725558E-006	0.0006502	10
	30	83	298.2954	7.011981	-16.92491	1	18.31994	-67.4958	-3.216094E-006	0.0006549	10
	31	86	237.7717	7.928388	-20.67183	1	22.14009	-69.01639	-8.221954E-006	0.0007021	10
	32	88	189.0121	9.139411	-25.26446	1	26.86674	-70.11243	-3.672926E-006	0.0006505	10
	33	90	150.2404	10.71926	-30.79964	1	32.61166	-70.81048	-3.366163E-006	0.0006479	10
	34	93	119.1737	12.78336	-37.48893	1	39.60851	-71.17112	-3.871496E-006	0.0006523	10
	35	95	95.0169	15.33362	-45.19431	1	47.72469	-71.25884	-2.124927E-007	0.0001084	9
	36	98	75.60484	18.5494	-54.41825	1	57.49284	-71.17744	2.274006E-007	5.022845E-005	9
	37	100	54.50582	24.32686	-70.47601	1	74.55645	-70.95639	-3.782339E-007	0.0001084	9
	38	103	45.95588	27.88909	-80.48712	1	85.18203	-70.8886	2.996647E-007	6.618149E-005	9
	39	105	37.20238	32.76302	-94.72875	1	100.2345	-70.92147	2.571654E-007	5.898041E-005	9
	40	107	30.04808	38.16	-111.6756	1	118.0153	-71.13449	2.079516E-007	5.63404E-005	9
	41	110	23.91582	44.46373	-133.4563	1	140.6684	-71.57343	2.051391E-007	5.44157E-005	9
	42	112	18.60119	52.04347	-163.043	1	171.1478	-72.29688	2.177172E-007	5.240798E-005	9
	43	115	15.02404	59.15081	-194.0521	1	202.867	-73.04777	5.295407E-007	6.61188E-005	9
	44	117	12.01923	67.47468	-233.7803	1	243.3229	-73.90057	2.938828E-007	5.148375E-005	9
	45	119	9.450605	78.11947	-287.197	1	297.632	-74.78333	3.438378E-007	4.553322E-005	9
	46	122	7.512019	90.28022	-350.8897	1	362.3177	-75.57135	5.033366E-007	4.070243E-005	9
	47	124	5.978954	105.2905	-427.1223	1	439.9086	-76.15204	-1.305837E-007	0.0006313	8
	48	127	4.734848	126.0338	-525.8163	1	540.71	-76.52097	-1.896761E-007	0.0006493	8
	49	131	3.75601	152.855	-646.9787	1	664.7903	-76.70707	-2.36743E-007	0.000636	8
	50	134	3.004808	187.6541	-789.0167	1	811.0249	-76.62173	-3.429082E-007	0.0006626	8
	51	138	2.372217	237.5816	-972.335	1	1000.94	-76.2693	-2.529034E-007	0.0006949	8
	52	142	1.878005	305.583	-1191.825	1	1230.377	-75.6192	-2.990654E-007	0.0006039	8
	53	147	1.512097	390.0308	-1432.883	1	1485.018	-74.773	-2.59108E-007	0.0006896	8
	54	152	1.201923	506.7675	-1739.678	1	1811.986	-73.75918	-2.345698E-007	0.0005925	8
	55	158	0.956633	660.4266	-2096.582	1	2198.14	-72.5155	-3.410392E-007	-1.290883E-005	8
