EXPLAIN
TAG	EISPOT
TITLE	LABEL	Potentiostatic EIS	Test Identifier
DATE	LABEL	9/13/2020	Date
TIME	LABEL	12:18:22	Time
NOTES	NOTES	1	Notes...
	
PSTAT	PSTAT	REF3000-16137	Potentiostat
VDC	POTEN	0.00000E+000	T	DC Voltage (V)
FREQINIT	QUANT	3.00000E+005	Initial Freq. (Hz)
FREQFINAL	QUANT	1.00000E+000	Final Freq. (Hz)
PTSPERDEC	QUANT	1.00000E+001	Points/decade
VAC	QUANT	5.00000E+001	AC Voltage (mV rms)
AREA	QUANT	1.00000E+000	Sample Area (cm^2)
SPEED	SELECTOR	2	Optimize for:
ZGUESS	QUANT	1.00000E+003	Estimated Z (ohms)
EOC	QUANT	0	Open Circuit (V)
SEQUENCER	TOGGLE	TRUE	Run as Sequence
PSTATMODEL	IQUANT	5	Pstat Model
PSTATSECTION	LABEL	REF3000-16137	Pstat Section
PSTATSERIALNO	LABEL	16137	Pstat Serial Number
CTRLMODE	IQUANT	1	Control Mode
IESTAB	IQUANT	0	I/E Stability
CASPEED	IQUANT	1	Control Amp Speed
CONVENTION	IQUANT	1	Current Convention
ICHRANGE	IQUANT	2	Ich Range
ICHRANGEMODE	TOGGLE	F	Ich Auto Range
ICHOFFSETENABLE	TOGGLE	T	Ich Offset Enable
ICHOFFSET	QUANT	0	Ich Offset (V)
ICHFILTER	IQUANT	3	Ich Filter
VCHRANGE	IQUANT	2	Vch Range
VCHRANGEMODE	TOGGLE	F	Vch Auto Range
VCHOFFSETENABLE	TOGGLE	T	Vch Offset Enable
VCHOFFSET	QUANT	0	Vch Offset (V)
VCHFILTER	IQUANT	3	Vch Filter
ACHRANGE	IQUANT	2	Ach Range
ACHOFFSETENABLE	TOGGLE	F	Ach Offset Enable
ACHOFFSET	QUANT	0	Ach Offset (V)
ACHFILTER	IQUANT	3	Ach Filter
IERANGELOWERLIMIT	IQUANT	2	I/E Range Lower Limit
IERANGEMODE	TOGGLE	F	I/E AutoRange
IERANGE	IQUANT	11	I/E Range
POSFEEDENABLE	TOGGLE	F	Positive Feedback IR Comp
POSFEEDRESISTANCE	QUANT	0	Positive Feedback Resistance (ohm)
ACHSELECT	IQUANT	0	Ach Select
CABLEID	IQUANT	13	Cable ID
DCCALDATE	LABEL	7/31/2020	DC Calibration Date
ACCALDATE	LABEL	7/31/2020	AC Calibration Date
THERMOSELECT	IQUANT	1	Thermo Select
FRAMEWORKVERSION	QUANT	6.33	Framework Version
INSTRUMENTVERSION	LABEL	3.50	Instrument Version
COMPLIANCEVOLTAGE	IQUANT	0	Compliance Voltage
ZCURVE	TABLE
	Pt	Time	Freq	Zreal	Zimag	Zsig	Zmod	Zphz	Idc	Vdc	IERange
	#	s	Hz	ohm	ohm	V	ohm	°	A	V	#
	0	10	300046.9	3.061797	1.893869	1	3.600186	31.73879	3.961412E-006	-0.0001324	10
	1	13	238359.4	3.103395	1.417642	1	3.411857	24.55109	4.356609E-005	-0.0006034	10
	2	16	189328.1	3.202451	0.7910603	1	3.298707	13.87528	-0.0001827	-0.0001806	12
	3	20	150421.9	3.218858	0.7033063	1	3.294797	12.32518	1.209357E-005	0.0004436	11
	4	22	119484.4	3.282207	0.473017	1	3.316116	8.200748	6.247475E-005	0.0003831	11
	5	25	94921.88	3.345655	0.29401	1	3.358549	5.022146	3.384452E-006	0.0005686	11
	6	27	75421.88	3.403864	0.1540959	1	3.40735	2.59206	-1.10433E-006	0.0005859	11
	7	30	59859.37	3.458581	0.0446588	1	3.458869	0.7397889	-5.117291E-005	0.0005847	11
	8	33	47578.12	3.505429	-0.0429525	1	3.505692	-0.7020173	-1.516685E-005	0.0006335	11
	9	35	37828.12	3.548363	-0.1077573	1	3.549999	-1.739434	9.998756E-006	0.0006042	10
	10	38	30046.88	3.582033	-0.1788897	1	3.586497	-2.859024	1.371285E-005	0.0006017	10
	11	40	23859.38	3.611779	-0.2501102	1	3.620428	-3.961322	-3.273801E-005	0.0006186	10
	12	43	18984.38	3.638871	-0.3248805	1	3.653345	-5.101872	-2.511286E-005	0.0006609	10
	13	45	15046.87	3.663921	-0.4108675	1	3.686887	-6.398345	7.704756E-006	0.0006445	10
	14	47	11953.13	3.687946	-0.5107526	1	3.723146	-7.884875	-2.678928E-005	0.0006319	10
	15	49	9515.62	3.71329	-0.6293864	1	3.766251	-9.61996	-1.288418E-005	0.0006065	10
	16	52	7546.875	3.742507	-0.7760402	1	3.82212	-11.71474	-6.824537E-006	0.00066	10
	17	54	5928.309	3.776989	-0.964324	1	3.898149	-14.32253	-2.879929E-005	0.0006563	10
	18	56	4733.456	3.813933	-1.180495	1	3.99245	-17.19843	2.037655E-007	0.0006382	10
	19	59	3796.875	3.858144	-1.439572	1	4.117966	-20.46183	8.703887E-006	0.0006186	10
	20	61	2987.132	3.918637	-1.785384	1	4.306194	-24.49465	-2.298255E-005	0.0006526	10
	21	63	2390.625	3.989812	-2.179884	1	4.546482	-28.65054	-1.898446E-005	0.0006584	10
	22	66	1884.191	4.084383	-2.699857	1	4.896061	-33.46549	-8.371311E-006	0.0006217	10
	23	68	1516.544	4.193305	-3.279824	1	5.323632	-38.03099	8.718754E-006	0.0006163	10
	24	70	1193.986	4.345416	-4.063129	1	5.949089	-43.07722	6.782659E-006	0.000642	10
	25	73	946.5144	4.537117	-5.001223	1	6.752604	-47.78564	-2.764397E-005	0.0006364	10
	26	75	751.7689	4.784322	-6.134866	1	7.779866	-52.05084	-2.932469E-005	0.0007124	10
	27	77	597.4265	5.103781	-7.522244	1	9.090255	-55.84343	1.212226E-005	0.0006357	10
	28	80	477.4305	5.508175	-9.160456	1	10.68896	-58.98154	-7.759069E-006	0.0006553	10
	29	82	376.6741	6.070347	-11.26218	1	12.79398	-61.67521	-8.171379E-006	0.000653	10
	30	84	298.2954	6.795564	-13.76466	1	15.35075	-63.72461	-7.490888E-006	0.0006567	10
	31	87	237.7717	7.70808	-16.67093	1	18.36666	-65.18575	-8.046672E-006	0.0006546	10
	32	89	189.0121	8.882567	-20.15767	1	22.02798	-66.2191	-8.018283E-006	0.0006496	10
	33	91	150.2404	10.34048	-24.26318	1	26.37475	-66.91728	-8.415393E-006	0.0006455	10
	34	94	119.1737	12.11908	-29.13527	1	31.55529	-67.4147	-8.181879E-006	0.0006492	10
	35	96	95.0169	14.14069	-34.72242	1	37.49141	-67.84142	-8.579716E-006	0.0006429	10
	36	99	75.60484	16.4204	-41.33569	1	44.47773	-68.33479	-4.273172E-006	5.044699E-005	9
	37	101	54.50582	20.1085	-53.21191	1	56.88461	-69.29868	-4.311307E-006	4.538651E-005	9
	38	104	45.95588	22.21213	-60.8567	1	64.78361	-69.94839	-4.539005E-006	0.000111	9
	39	106	37.20238	25.02138	-72.0697	1	76.28966	-70.85386	-4.067383E-006	5.022072E-005	9
	40	109	30.04808	28.19723	-85.93934	1	90.44697	-71.83502	-4.412244E-006	5.941958E-005	9
	41	111	23.91582	32.10288	-104.1379	1	108.9738	-72.86689	-4.077795E-006	5.293154E-005	9
	42	113	18.60119	37.33129	-129.3702	1	134.6487	-73.90388	-4.687743E-006	5.697816E-005	9
	43	116	15.02404	43.02438	-155.8868	1	161.7152	-74.57063	-4.112791E-006	6.420501E-005	9
	44	118	12.01923	50.699	-189.8474	1	196.5004	-75.048	-4.506247E-006	0.0001122	9
	45	120	9.450605	61.89765	-234.9762	1	242.992	-75.24234	-4.380346E-006	4.579691E-005	9
	46	123	7.512019	76.49571	-287.8913	1	297.8808	-75.11975	-3.767807E-006	5.626855E-005	9
	47	126	5.978954	96.2573	-351.2221	1	364.1737	-74.67362	-3.780289E-006	5.209262E-005	9
	48	129	4.734848	123.2299	-427.8566	1	445.2492	-73.93272	-4.946942E-006	0.0006165	8
	49	132	3.75601	160.5181	-518.8256	1	543.0894	-72.80859	-4.46062E-006	0.0006475	8
	50	135	3.004808	208.0871	-620.6036	1	654.5602	-71.4638	-4.701829E-006	0.000662	8
	51	139	2.372217	273.0576	-743.7159	1	792.2587	-69.83913	-4.577334E-006	0.0006609	8
	52	143	1.878005	356.3266	-881.199	1	950.516	-67.98328	-4.511927E-006	0.0006138	8
	53	148	1.512097	447.0737	-1023.451	1	1116.838	-66.40286	-4.514234E-006	0.0007293	8
	54	153	1.201923	560.6231	-1190.152	1	1315.584	-64.77715	-4.443694E-006	0.000618	8
	55	160	0.956633	687.5209	-1376.043	1	1538.239	-63.45163	-4.578423E-006	-1.431847E-006	8
