EXPLAIN
TAG	EISPOT
TITLE	LABEL	Potentiostatic EIS	Test Identifier
DATE	LABEL	9/13/2020	Date
TIME	LABEL	12:49:18	Time
NOTES	NOTES	1	Notes...
	
PSTAT	PSTAT	REF3000-16137	Potentiostat
VDC	POTEN	0.00000E+000	T	DC Voltage (V)
FREQINIT	QUANT	3.00000E+005	Initial Freq. (Hz)
FREQFINAL	QUANT	1.00000E+000	Final Freq. (Hz)
PTSPERDEC	QUANT	1.00000E+001	Points/decade
VAC	QUANT	5.00000E+001	AC Voltage (mV rms)
AREA	QUANT	1.00000E+000	Sample Area (cm^2)
SPEED	SELECTOR	2	Optimize for:
ZGUESS	QUANT	1.00000E+003	Estimated Z (ohms)
EOC	QUANT	0	Open Circuit (V)
SEQUENCER	TOGGLE	TRUE	Run as Sequence
PSTATMODEL	IQUANT	5	Pstat Model
PSTATSECTION	LABEL	REF3000-16137	Pstat Section
PSTATSERIALNO	LABEL	16137	Pstat Serial Number
CTRLMODE	IQUANT	1	Control Mode
IESTAB	IQUANT	0	I/E Stability
CASPEED	IQUANT	1	Control Amp Speed
CONVENTION	IQUANT	1	Current Convention
ICHRANGE	IQUANT	2	Ich Range
ICHRANGEMODE	TOGGLE	F	Ich Auto Range
ICHOFFSETENABLE	TOGGLE	T	Ich Offset Enable
ICHOFFSET	QUANT	0	Ich Offset (V)
ICHFILTER	IQUANT	3	Ich Filter
VCHRANGE	IQUANT	2	Vch Range
VCHRANGEMODE	TOGGLE	F	Vch Auto Range
VCHOFFSETENABLE	TOGGLE	T	Vch Offset Enable
VCHOFFSET	QUANT	0	Vch Offset (V)
VCHFILTER	IQUANT	3	Vch Filter
ACHRANGE	IQUANT	2	Ach Range
ACHOFFSETENABLE	TOGGLE	F	Ach Offset Enable
ACHOFFSET	QUANT	0	Ach Offset (V)
ACHFILTER	IQUANT	3	Ach Filter
IERANGELOWERLIMIT	IQUANT	2	I/E Range Lower Limit
IERANGEMODE	TOGGLE	F	I/E AutoRange
IERANGE	IQUANT	11	I/E Range
POSFEEDENABLE	TOGGLE	F	Positive Feedback IR Comp
POSFEEDRESISTANCE	QUANT	0	Positive Feedback Resistance (ohm)
ACHSELECT	IQUANT	0	Ach Select
CABLEID	IQUANT	13	Cable ID
DCCALDATE	LABEL	7/31/2020	DC Calibration Date
ACCALDATE	LABEL	7/31/2020	AC Calibration Date
THERMOSELECT	IQUANT	1	Thermo Select
FRAMEWORKVERSION	QUANT	6.33	Framework Version
INSTRUMENTVERSION	LABEL	3.50	Instrument Version
COMPLIANCEVOLTAGE	IQUANT	0	Compliance Voltage
ZCURVE	TABLE
	Pt	Time	Freq	Zreal	Zimag	Zsig	Zmod	Zphz	Idc	Vdc	IERange
	#	s	Hz	ohm	ohm	V	ohm	°	A	V	#
	0	10	300046.9	4.011099	2.190677	1	4.570337	28.64133	1.02136E-005	-5.566817E-005	10
	1	13	238359.4	3.972907	1.715871	1	4.327609	23.35918	2.29592E-005	-0.0002615	10
	2	16	189328.1	3.969558	1.340705	1	4.189855	18.66222	-2.515015E-005	-6.189525E-005	10
	3	19	150421.9	3.979927	1.027388	1	4.110394	14.47448	1.535757E-005	0.0001604	10
	4	21	119484.4	3.980861	0.7829399	1	4.057123	11.12669	3.81705E-005	0.0004133	10
	5	24	94921.88	3.993394	0.5936888	1	4.037284	8.456098	3.27875E-005	0.00039	10
	6	26	75421.88	4.005189	0.4236505	1	4.027533	6.038032	-8.959425E-006	0.000499	10
	7	29	59859.37	4.017427	0.2784135	1	4.027063	3.964342	-2.571163E-005	0.0005279	10
	8	31	47578.12	4.031902	0.1542256	1	4.034851	2.190571	-8.199427E-006	0.0005971	10
	9	34	37828.12	4.044471	0.0420173	1	4.044689	0.5952146	2.090524E-005	0.0005608	10
	10	36	30046.88	4.05997	-0.0634291	1	4.060465	-0.8950617	-2.267401E-005	0.0006369	10
	11	39	23859.38	4.074713	-0.1687666	1	4.078207	-2.371723	1.722667E-005	0.0006318	10
	12	41	18984.38	4.089949	-0.2772485	1	4.099335	-3.87802	-2.833605E-005	0.0006305	10
	13	43	15046.87	4.105928	-0.3986242	1	4.125233	-5.545185	1.141778E-005	0.0006234	10
	14	46	11953.13	4.12487	-0.5351292	1	4.159437	-7.391834	-5.056702E-006	0.0006362	10
	15	48	9515.62	4.145578	-0.6947984	1	4.203399	-9.51434	-2.249862E-006	0.0006703	10
	16	50	7546.875	4.170863	-0.8874015	1	4.264221	-12.01127	-2.17382E-005	0.0007302	10
	17	53	5928.309	4.203004	-1.132215	1	4.352833	-15.07659	2.040531E-005	0.0006385	10
	18	55	4733.456	4.241529	-1.410746	1	4.469985	-18.39729	-1.136245E-005	0.0006387	10
	19	57	3796.875	4.288498	-1.742374	1	4.62894	-22.11142	-1.172102E-005	0.0006817	10
	20	60	2987.132	4.352277	-2.184552	1	4.869762	-26.65359	-2.476373E-005	0.0007062	10
	21	62	2390.625	4.427573	-2.689337	1	5.180342	-31.27477	-1.924383E-005	0.0006534	10
	22	64	1884.191	4.531237	-3.351941	1	5.636276	-36.49184	1.713524E-005	0.0006234	10
	23	67	1516.544	4.651168	-4.09209	1	6.195044	-41.34127	-6.46602E-006	0.0006534	10
	24	69	1193.986	4.817903	-5.091819	1	7.009908	-46.58332	-2.592044E-005	0.0006643	10
	25	71	946.5144	5.030166	-6.284107	1	8.049383	-51.32418	-1.581291E-006	0.0006257	10
	26	74	751.7689	5.287025	-7.747916	1	9.379917	-55.69114	1.786243E-005	0.0006373	10
	27	76	597.4265	5.615107	-9.53087	1	11.06196	-59.49555	2.284645E-006	0.0006484	10
	28	78	477.4305	6.032663	-11.66048	1	13.12859	-62.64477	-2.874935E-006	0.0006504	10
	29	81	376.6741	6.596581	-14.42014	1	15.85734	-65.41798	-2.661433E-006	0.0006471	10
	30	83	298.2954	7.318203	-17.75892	1	19.20769	-67.60412	-2.203163E-006	0.000645	10
	31	85	237.7717	8.230071	-21.72	1	23.22698	-69.24747	-3.02483E-006	0.0006477	10
	32	88	189.0121	9.432339	-26.58976	1	28.21319	-70.46858	-3.350703E-006	0.0006494	10
	33	90	150.2404	11.00258	-32.49013	1	34.30256	-71.29164	-2.761328E-006	0.0006461	10
	34	93	119.1737	13.07032	-39.66516	1	41.76313	-71.7621	-2.584991E-006	0.0006466	10
	35	95	95.0169	15.66294	-47.98698	1	50.47849	-71.92332	6.838034E-007	4.709008E-005	9
	36	97	75.60484	18.99567	-58.00296	1	61.03424	-71.86665	5.536249E-007	4.566589E-005	9
	37	100	54.50582	25.17867	-75.51381	1	79.60088	-71.56	4.399948E-008	0.0001042	9
	38	102	45.95588	29.0997	-86.40622	1	91.17471	-71.38762	7.563455E-007	5.429082E-005	9
	39	105	37.20238	34.58344	-101.8124	1	107.5257	-71.2385	6.186593E-007	4.798434E-005	9
	40	107	30.04808	40.81879	-120.0507	1	126.8004	-71.22131	4.889175E-007	4.708271E-005	9
	41	110	23.91582	48.18679	-143.261	1	151.1479	-71.40929	5.743283E-007	4.752528E-005	9
	42	112	18.60119	57.02472	-174.2939	1	183.3853	-71.88316	5.352716E-007	5.686118E-005	9
	43	114	15.02404	65.26624	-206.6427	1	216.7046	-72.47174	8.222253E-007	6.522029E-005	9
	44	116	12.01923	74.67652	-247.8758	1	258.8803	-73.23424	7.520495E-007	5.710807E-005	9
	45	119	9.450605	86.0838	-303.0888	1	315.0766	-74.1443	7.198915E-007	0.0001016	9
	46	121	7.512019	99.0347	-369.0252	1	382.0831	-74.9776	8.408138E-007	5.875582E-005	9
	47	124	5.978954	113.8192	-448.118	1	462.3468	-75.7486	1.144028E-007	0.0006293	8
	48	127	4.734848	133.7723	-550.6844	1	566.6996	-76.34618	1.06604E-007	0.0006507	8
	49	130	3.75601	159.0334	-677.0956	1	695.5214	-76.7822	8.432769E-009	0.0006189	8
	50	134	3.004808	190.8603	-826.163	1	847.9227	-76.99173	1.725728E-008	0.0006471	8
	51	138	2.372217	237.5172	-1020.302	1	1047.583	-76.89545	4.590196E-008	0.0006975	8
	52	142	1.878005	297.0175	-1256.911	1	1291.529	-76.70448	-4.985858E-008	0.0006054	8
	53	146	1.512097	371.4837	-1517.361	1	1562.173	-76.24331	3.461712E-008	0.0006367	8
	54	152	1.201923	479.1163	-1856.663	1	1917.485	-75.53036	1.162321E-008	0.0006028	8
	55	158	0.956633	622.2521	-2256.307	1	2340.539	-74.58202	-4.220689E-008	-4.575744E-006	8
