EXPLAIN
TAG	EISPOT
TITLE	LABEL	Potentiostatic EIS	Test Identifier
DATE	LABEL	9/13/2020	Date
TIME	LABEL	12:52:05	Time
NOTES	NOTES	1	Notes...
	
PSTAT	PSTAT	REF3000-16137	Potentiostat
VDC	POTEN	0.00000E+000	T	DC Voltage (V)
FREQINIT	QUANT	3.00000E+005	Initial Freq. (Hz)
FREQFINAL	QUANT	1.00000E+000	Final Freq. (Hz)
PTSPERDEC	QUANT	1.00000E+001	Points/decade
VAC	QUANT	5.00000E+001	AC Voltage (mV rms)
AREA	QUANT	1.00000E+000	Sample Area (cm^2)
SPEED	SELECTOR	2	Optimize for:
ZGUESS	QUANT	1.00000E+003	Estimated Z (ohms)
EOC	QUANT	0	Open Circuit (V)
SEQUENCER	TOGGLE	TRUE	Run as Sequence
PSTATMODEL	IQUANT	5	Pstat Model
PSTATSECTION	LABEL	REF3000-16137	Pstat Section
PSTATSERIALNO	LABEL	16137	Pstat Serial Number
CTRLMODE	IQUANT	1	Control Mode
IESTAB	IQUANT	0	I/E Stability
CASPEED	IQUANT	1	Control Amp Speed
CONVENTION	IQUANT	1	Current Convention
ICHRANGE	IQUANT	2	Ich Range
ICHRANGEMODE	TOGGLE	F	Ich Auto Range
ICHOFFSETENABLE	TOGGLE	T	Ich Offset Enable
ICHOFFSET	QUANT	0	Ich Offset (V)
ICHFILTER	IQUANT	3	Ich Filter
VCHRANGE	IQUANT	2	Vch Range
VCHRANGEMODE	TOGGLE	F	Vch Auto Range
VCHOFFSETENABLE	TOGGLE	T	Vch Offset Enable
VCHOFFSET	QUANT	0	Vch Offset (V)
VCHFILTER	IQUANT	3	Vch Filter
ACHRANGE	IQUANT	2	Ach Range
ACHOFFSETENABLE	TOGGLE	F	Ach Offset Enable
ACHOFFSET	QUANT	0	Ach Offset (V)
ACHFILTER	IQUANT	3	Ach Filter
IERANGELOWERLIMIT	IQUANT	2	I/E Range Lower Limit
IERANGEMODE	TOGGLE	F	I/E AutoRange
IERANGE	IQUANT	11	I/E Range
POSFEEDENABLE	TOGGLE	F	Positive Feedback IR Comp
POSFEEDRESISTANCE	QUANT	0	Positive Feedback Resistance (ohm)
ACHSELECT	IQUANT	0	Ach Select
CABLEID	IQUANT	13	Cable ID
DCCALDATE	LABEL	7/31/2020	DC Calibration Date
ACCALDATE	LABEL	7/31/2020	AC Calibration Date
THERMOSELECT	IQUANT	1	Thermo Select
FRAMEWORKVERSION	QUANT	6.33	Framework Version
INSTRUMENTVERSION	LABEL	3.50	Instrument Version
COMPLIANCEVOLTAGE	IQUANT	0	Compliance Voltage
ZCURVE	TABLE
	Pt	Time	Freq	Zreal	Zimag	Zsig	Zmod	Zphz	Idc	Vdc	IERange
	#	s	Hz	ohm	ohm	V	ohm	°	A	V	#
	0	11	300046.9	4.182048	2.186834	1	4.719298	27.60551	5.062684E-006	4.090245E-005	10
	1	14	238359.4	4.174967	1.729345	1	4.518959	22.5002	-0.0001026	-0.0003587	10
	2	17	189328.1	4.168068	1.344781	1	4.379638	17.88172	6.389399E-005	-0.0001994	10
	3	19	150421.9	4.173718	1.046348	1	4.302879	14.07394	-9.120497E-005	0.0002234	10
	4	22	119484.4	4.173074	0.7905335	1	4.247292	10.72682	2.062963E-005	0.0003397	10
	5	24	94921.88	4.183759	0.6020536	1	4.226856	8.188793	1.91366E-005	0.0004047	10
	6	27	75421.88	4.19362	0.4303406	1	4.215643	5.859066	-9.895274E-006	0.0005189	10
	7	30	59859.37	4.204846	0.2831301	1	4.214368	3.852153	1.80457E-005	0.0004984	10
	8	32	47578.12	4.217824	0.1576095	1	4.220767	2.140004	2.216139E-005	0.0005531	10
	9	35	37828.12	4.231934	0.043698	1	4.232159	0.591602	-2.319358E-006	0.000574	10
	10	37	30046.88	4.246293	-0.0640993	1	4.246777	-0.8648339	-3.027889E-005	0.0006065	10
	11	40	23859.38	4.261512	-0.1710991	1	4.264946	-2.299182	8.647646E-006	0.0005864	10
	12	42	18984.38	4.276485	-0.2819893	1	4.285772	-3.772594	1.901873E-005	0.0006085	10
	13	44	15046.87	4.293373	-0.4058482	1	4.312512	-5.400066	-6.996388E-006	0.0006063	10
	14	47	11953.13	4.311947	-0.5453065	1	4.346292	-7.207597	-1.288492E-005	0.0006549	10
	15	49	9515.62	4.332895	-0.7079251	1	4.390346	-9.279218	-1.472073E-005	0.0006546	10
	16	51	7546.875	4.358284	-0.9058125	1	4.451419	-11.74103	2.215355E-005	0.0006318	10
	17	53	5928.309	4.390912	-1.155455	1	4.540394	-14.74297	-6.535514E-006	0.0006529	10
	18	56	4733.456	4.429878	-1.439841	1	4.658	-18.00569	1.459019E-005	0.0006136	10
	19	58	3796.875	4.47763	-1.779211	1	4.81817	-21.67068	-2.347163E-005	0.0006817	10
	20	60	2987.132	4.541933	-2.231975	1	5.060718	-26.1702	-2.41692E-005	0.0006558	10
	21	63	2390.625	4.617462	-2.749197	1	5.373922	-30.7692	-3.160686E-005	0.0006497	10
	22	65	1884.191	4.721785	-3.427356	1	5.834554	-35.97441	1.24434E-005	0.0006424	10
	23	67	1516.544	4.843291	-4.185173	1	6.401027	-40.83087	-1.127109E-005	0.0006474	10
	24	70	1193.986	5.010304	-5.209899	1	7.228153	-46.11881	-1.43428E-005	0.0006695	10
	25	72	946.5144	5.22361	-6.431038	1	8.285189	-50.91477	-8.579941E-006	0.0006459	10
	26	74	751.7689	5.483238	-7.933286	1	9.6438	-55.34899	4.82961E-006	0.000643	10
	27	77	597.4265	5.82094	-9.75879	1	11.36298	-59.18469	9.02629E-006	0.0006077	10
	28	79	477.4305	6.236169	-11.94673	1	13.47643	-62.43553	-3.233409E-006	0.0006508	10
	29	81	376.6741	6.802034	-14.77868	1	16.2689	-65.28528	-2.753421E-006	0.0006522	10
	30	84	298.2954	7.523655	-18.20846	1	19.70161	-67.5498	-2.853305E-006	0.0006527	10
	31	86	237.7717	8.433034	-22.28182	1	23.82427	-69.26978	-3.319454E-006	0.0006527	10
	32	88	189.0121	9.63133	-27.3047	1	28.95357	-70.57045	-3.281685E-006	0.0006532	10
	33	91	150.2404	11.19365	-33.39371	1	35.21985	-71.46873	-3.522401E-006	0.0006492	10
	34	93	119.1737	13.23965	-40.77599	1	42.87155	-72.01178	7.635711E-007	5.16756E-005	9
	35	96	95.0169	15.84718	-49.47206	1	51.94822	-72.2384	7.476469E-007	4.740798E-005	9
	36	98	75.60484	19.2135	-59.91757	1	62.92276	-72.22075	6.590098E-007	5.027507E-005	9
	37	101	54.50582	25.54539	-78.23372	1	82.29874	-71.91676	5.753063E-007	4.27503E-005	9
	38	103	45.95588	29.63562	-89.6401	1	94.41196	-71.70576	8.272765E-007	5.397063E-005	9
	39	106	37.20238	35.43882	-105.7805	1	111.5591	-71.47801	7.453113E-007	5.679271E-005	9
	40	108	30.04808	42.08514	-124.7651	1	131.6719	-71.35998	7.110363E-007	5.385315E-005	9
	41	110	23.91582	49.99812	-148.7492	1	156.9271	-71.42129	6.458864E-007	5.5072E-005	9
	42	113	18.60119	59.70337	-180.866	1	190.4653	-71.73209	7.321284E-007	6.037663E-005	9
	43	115	15.02404	68.63071	-214.031	1	224.7653	-72.22115	8.666227E-007	4.769447E-005	9
	44	117	12.01923	78.75868	-256.1887	1	268.0216	-72.91129	7.618143E-007	5.141822E-005	9
	45	120	9.450605	91.00028	-312.5446	1	325.5229	-73.76659	8.710988E-007	6.024989E-005	9
	46	122	7.512019	104.347	-379.575	1	393.6566	-74.62881	8.511327E-007	5.324767E-005	9
	47	125	5.978954	119.5408	-460.1574	1	475.4312	-75.43746	1.071297E-007	0.0006271	8
	48	128	4.734848	139.4378	-564.8839	1	581.8391	-76.13411	1.825508E-007	0.000618	8
	49	131	3.75601	164.2103	-693.4743	1	712.6511	-76.6781	1.959928E-007	0.0006457	8
	50	135	3.004808	195.1081	-845.6453	1	867.8613	-77.00801	2.398562E-007	0.0006024	8
	51	138	2.372217	239.5826	-1045.416	1	1072.518	-77.09216	1.542329E-007	0.0005533	8
	52	142	1.878005	295.9925	-1288.122	1	1321.692	-77.05888	2.185422E-007	0.000633	8
	53	147	1.512097	367.8611	-1557.438	1	1600.292	-76.71051	1.785086E-007	0.0005761	8
	54	153	1.201923	468.7695	-1912.113	1	1968.736	-76.22517	1.931693E-007	0.000656	8
	55	159	0.956633	603.8407	-2332.468	1	2409.363	-75.48564	1.008515E-007	-1.5147E-005	8
