EXPLAIN
TAG	EISPOT
TITLE	LABEL	Potentiostatic EIS	Test Identifier
DATE	LABEL	9/13/2020	Date
TIME	LABEL	12:21:12	Time
NOTES	NOTES	1	Notes...
	
PSTAT	PSTAT	REF3000-16137	Potentiostat
VDC	POTEN	0.00000E+000	T	DC Voltage (V)
FREQINIT	QUANT	3.00000E+005	Initial Freq. (Hz)
FREQFINAL	QUANT	1.00000E+000	Final Freq. (Hz)
PTSPERDEC	QUANT	1.00000E+001	Points/decade
VAC	QUANT	5.00000E+001	AC Voltage (mV rms)
AREA	QUANT	1.00000E+000	Sample Area (cm^2)
SPEED	SELECTOR	2	Optimize for:
ZGUESS	QUANT	1.00000E+003	Estimated Z (ohms)
EOC	QUANT	0	Open Circuit (V)
SEQUENCER	TOGGLE	TRUE	Run as Sequence
PSTATMODEL	IQUANT	5	Pstat Model
PSTATSECTION	LABEL	REF3000-16137	Pstat Section
PSTATSERIALNO	LABEL	16137	Pstat Serial Number
CTRLMODE	IQUANT	1	Control Mode
IESTAB	IQUANT	0	I/E Stability
CASPEED	IQUANT	1	Control Amp Speed
CONVENTION	IQUANT	1	Current Convention
ICHRANGE	IQUANT	2	Ich Range
ICHRANGEMODE	TOGGLE	F	Ich Auto Range
ICHOFFSETENABLE	TOGGLE	T	Ich Offset Enable
ICHOFFSET	QUANT	0	Ich Offset (V)
ICHFILTER	IQUANT	3	Ich Filter
VCHRANGE	IQUANT	2	Vch Range
VCHRANGEMODE	TOGGLE	F	Vch Auto Range
VCHOFFSETENABLE	TOGGLE	T	Vch Offset Enable
VCHOFFSET	QUANT	0	Vch Offset (V)
VCHFILTER	IQUANT	3	Vch Filter
ACHRANGE	IQUANT	2	Ach Range
ACHOFFSETENABLE	TOGGLE	F	Ach Offset Enable
ACHOFFSET	QUANT	0	Ach Offset (V)
ACHFILTER	IQUANT	3	Ach Filter
IERANGELOWERLIMIT	IQUANT	2	I/E Range Lower Limit
IERANGEMODE	TOGGLE	F	I/E AutoRange
IERANGE	IQUANT	11	I/E Range
POSFEEDENABLE	TOGGLE	F	Positive Feedback IR Comp
POSFEEDRESISTANCE	QUANT	0	Positive Feedback Resistance (ohm)
ACHSELECT	IQUANT	0	Ach Select
CABLEID	IQUANT	13	Cable ID
DCCALDATE	LABEL	7/31/2020	DC Calibration Date
ACCALDATE	LABEL	7/31/2020	AC Calibration Date
THERMOSELECT	IQUANT	1	Thermo Select
FRAMEWORKVERSION	QUANT	6.33	Framework Version
INSTRUMENTVERSION	LABEL	3.50	Instrument Version
COMPLIANCEVOLTAGE	IQUANT	0	Compliance Voltage
ZCURVE	TABLE
	Pt	Time	Freq	Zreal	Zimag	Zsig	Zmod	Zphz	Idc	Vdc	IERange
	#	s	Hz	ohm	ohm	V	ohm	°	A	V	#
	0	10	300046.9	3.125197	1.949939	1	3.683629	31.96174	-5.777575E-005	-0.0001118	10
	1	13	238359.4	3.147208	1.452872	1	3.466375	24.77987	5.510759E-005	-0.0007285	10
	2	16	189328.1	3.244698	0.828249	1	3.34874	14.31966	-0.0001489	-0.0001856	12
	3	20	150421.9	3.247162	0.7476609	1	3.332125	12.9664	2.422692E-006	0.0004658	11
	4	23	119484.4	3.305444	0.5132859	1	3.345059	8.826678	-8.242019E-005	0.0005285	11
	5	25	94921.88	3.358778	0.3303227	1	3.374982	5.616754	-1.976969E-006	0.0005617	11
	6	28	75421.88	3.412708	0.1884151	1	3.417905	3.160084	-3.205376E-005	0.0006016	11
	7	30	59859.37	3.460462	0.0757	1	3.46129	1.253184	-5.635175E-005	0.0005947	11
	8	33	47578.12	3.501897	-0.0157834	1	3.501933	-0.2582366	1.234891E-005	0.000661	11
	9	35	37828.12	3.541397	-0.0838812	1	3.54239	-1.356848	-2.562891E-005	0.0006553	10
	10	38	30046.88	3.5705	-0.1591658	1	3.574046	-2.552441	1.174117E-005	0.0005852	10
	11	40	23859.38	3.597467	-0.2341811	1	3.605081	-3.724478	-1.082104E-005	0.0005953	10
	12	43	18984.38	3.621139	-0.3130776	1	3.634647	-4.94141	-1.874696E-005	0.0006162	10
	13	45	15046.87	3.643945	-0.4028865	1	3.66615	-6.309184	1.687206E-005	0.0006363	10
	14	47	11953.13	3.665839	-0.5063018	1	3.700638	-7.86357	1.336997E-005	0.0006147	10
	15	50	9515.62	3.688922	-0.6294288	1	3.742235	-9.68294	-2.602056E-005	0.0006346	10
	16	52	7546.875	3.702055	-0.7800862	1	3.783352	-11.89912	-2.507228E-005	0.0006408	10
	17	54	5928.309	3.710498	-0.972048	1	3.835711	-14.68002	5.62066E-006	0.000621	10
	18	57	4733.456	3.722792	-1.193358	1	3.909384	-17.7735	-2.805402E-005	0.0006638	10
	19	59	3796.875	3.748544	-1.458173	1	4.02217	-21.25589	-2.367241E-005	0.0006766	10
	20	61	2987.132	3.796002	-1.813543	1	4.206967	-25.53617	-3.159753E-005	0.0006655	10
	21	63	2390.625	3.855692	-2.219157	1	4.448709	-29.92274	-3.677206E-005	0.0006535	10
	22	66	1884.191	3.944273	-2.750182	1	4.808408	-34.88651	-8.271286E-006	0.00063	10
	23	68	1516.544	4.047889	-3.344755	1	5.25098	-39.56679	-3.177641E-005	0.0006654	10
	24	70	1193.986	4.196859	-4.145001	1	5.8987	-44.64382	1.501292E-005	0.0006328	10
	25	73	946.5144	4.385418	-5.105482	1	6.730367	-49.33865	3.259753E-006	0.0006101	10
	26	75	751.7689	4.631083	-6.26746	1	7.792816	-53.53897	9.079306E-006	0.0006175	10
	27	77	597.4265	4.948621	-7.686696	1	9.14189	-57.22696	1.443299E-005	0.0006389	10
	28	80	477.4305	5.352421	-9.37038	1	10.79131	-60.26472	-6.847682E-006	0.0006589	10
	29	82	376.6741	5.913107	-11.52938	1	12.95729	-62.84794	-6.19498E-006	0.0006567	10
	30	84	298.2954	6.640785	-14.1057	1	15.59073	-64.78954	-6.998757E-006	0.0006609	10
	31	87	237.7717	7.556918	-17.10329	1	18.69838	-66.16224	-1.17071E-005	0.0007118	10
	32	89	189.0121	8.744437	-20.70875	1	22.47927	-67.1077	-7.094535E-006	0.0006539	10
	33	92	150.2404	10.23064	-24.96063	1	26.9759	-67.71268	-1.17517E-005	0.0007083	10
	34	94	119.1737	12.0599	-30.01569	1	32.34784	-68.1104	-7.442971E-006	0.0006534	10
	35	96	95.0169	14.15986	-35.80556	1	38.50377	-68.42292	-7.509386E-006	0.000711	10
	36	99	75.60484	16.55396	-42.64166	1	45.74216	-68.78324	-3.290585E-006	5.237705E-005	9
	37	101	54.50582	20.44732	-54.85992	1	58.54659	-69.55863	-3.33434E-006	4.728137E-005	9
	38	104	45.95588	22.68367	-62.70645	1	66.68319	-70.11272	-3.169665E-006	5.364998E-005	9
	39	106	37.20238	25.63893	-74.17106	1	78.47739	-70.93111	-3.122932E-006	5.148055E-005	9
	40	109	30.04808	28.93774	-88.28869	1	92.9101	-71.85278	-3.10376E-006	5.18933E-005	9
	41	111	23.91582	32.96467	-106.8358	1	111.8059	-72.85216	-3.232861E-006	4.738462E-005	9
	42	113	18.60119	38.28237	-132.5211	1	137.9397	-73.88718	-3.070297E-006	5.154859E-005	9
	43	116	15.02404	43.97429	-159.7171	1	165.6601	-74.60638	-3.575855E-006	4.727778E-005	9
	44	118	12.01923	51.54559	-194.2986	1	201.0196	-75.14222	-2.963013E-006	5.524665E-005	9
	45	120	9.450605	62.46359	-240.4768	1	248.4568	-75.43925	-2.901266E-006	4.937091E-005	9
	46	123	7.512019	76.72975	-294.8862	1	304.7053	-75.41499	-2.746406E-006	5.791593E-005	9
	47	126	5.978954	95.8403	-360.1559	1	372.6898	-75.09849	-2.823938E-006	5.683585E-005	9
	48	129	4.734848	122.4727	-439.2899	1	456.043	-74.42169	-3.634658E-006	0.0006481	8
	49	132	3.75601	158.8497	-534.4921	1	557.5976	-73.44818	-3.724135E-006	0.0006899	8
	50	135	3.004808	205.3163	-641.4013	1	673.4615	-72.24983	-3.831788E-006	0.000665	8
	51	139	2.372217	271.1015	-772.359	1	818.5563	-70.6587	-3.666417E-006	0.0007139	8
	52	143	1.878005	352.7544	-918.9742	1	984.352	-69.00037	-3.726376E-006	0.0006112	8
	53	148	1.512097	445.4424	-1069.357	1	1158.422	-67.38575	-3.615322E-006	0.0006775	8
	54	153	1.201923	562.7971	-1250.948	1	1371.719	-65.77719	-3.594251E-006	0.0005999	8
	55	160	0.956633	696.668	-1451.339	1	1609.886	-64.35818	-3.6529E-006	-4.943617E-006	8
