EXPLAIN
TAG	EISPOT
TITLE	LABEL	Potentiostatic EIS	Test Identifier
DATE	LABEL	9/13/2020	Date
TIME	LABEL	13:51:38	Time
NOTES	NOTES	1	Notes...
	
PSTAT	PSTAT	REF3000-16137	Potentiostat
VDC	POTEN	0.00000E+000	T	DC Voltage (V)
FREQINIT	QUANT	3.00000E+005	Initial Freq. (Hz)
FREQFINAL	QUANT	1.00000E+000	Final Freq. (Hz)
PTSPERDEC	QUANT	1.00000E+001	Points/decade
VAC	QUANT	5.00000E+001	AC Voltage (mV rms)
AREA	QUANT	1.00000E+000	Sample Area (cm^2)
SPEED	SELECTOR	2	Optimize for:
ZGUESS	QUANT	1.00000E+003	Estimated Z (ohms)
EOC	QUANT	0	Open Circuit (V)
SEQUENCER	TOGGLE	TRUE	Run as Sequence
PSTATMODEL	IQUANT	5	Pstat Model
PSTATSECTION	LABEL	REF3000-16137	Pstat Section
PSTATSERIALNO	LABEL	16137	Pstat Serial Number
CTRLMODE	IQUANT	1	Control Mode
IESTAB	IQUANT	0	I/E Stability
CASPEED	IQUANT	1	Control Amp Speed
CONVENTION	IQUANT	1	Current Convention
ICHRANGE	IQUANT	2	Ich Range
ICHRANGEMODE	TOGGLE	F	Ich Auto Range
ICHOFFSETENABLE	TOGGLE	T	Ich Offset Enable
ICHOFFSET	QUANT	0	Ich Offset (V)
ICHFILTER	IQUANT	3	Ich Filter
VCHRANGE	IQUANT	2	Vch Range
VCHRANGEMODE	TOGGLE	F	Vch Auto Range
VCHOFFSETENABLE	TOGGLE	T	Vch Offset Enable
VCHOFFSET	QUANT	0	Vch Offset (V)
VCHFILTER	IQUANT	3	Vch Filter
ACHRANGE	IQUANT	2	Ach Range
ACHOFFSETENABLE	TOGGLE	F	Ach Offset Enable
ACHOFFSET	QUANT	0	Ach Offset (V)
ACHFILTER	IQUANT	3	Ach Filter
IERANGELOWERLIMIT	IQUANT	2	I/E Range Lower Limit
IERANGEMODE	TOGGLE	F	I/E AutoRange
IERANGE	IQUANT	11	I/E Range
POSFEEDENABLE	TOGGLE	F	Positive Feedback IR Comp
POSFEEDRESISTANCE	QUANT	0	Positive Feedback Resistance (ohm)
ACHSELECT	IQUANT	0	Ach Select
CABLEID	IQUANT	13	Cable ID
DCCALDATE	LABEL	7/31/2020	DC Calibration Date
ACCALDATE	LABEL	7/31/2020	AC Calibration Date
THERMOSELECT	IQUANT	1	Thermo Select
FRAMEWORKVERSION	QUANT	6.33	Framework Version
INSTRUMENTVERSION	LABEL	3.50	Instrument Version
COMPLIANCEVOLTAGE	IQUANT	0	Compliance Voltage
ZCURVE	TABLE
	Pt	Time	Freq	Zreal	Zimag	Zsig	Zmod	Zphz	Idc	Vdc	IERange
	#	s	Hz	ohm	ohm	V	ohm	°	A	V	#
	0	14	300046.9	1515.018	-3247.566	1	3583.569	-64.99053	3.364767E-005	-0.0017689	9
	1	29	238359.4	1997.762	-3739.903	1	4240.038	-61.88999	1.958175E-005	-0.0010708	9
	2	43	189328.1	2667.767	-4324.162	1	5080.882	-58.32773	5.90466E-007	-0.0019457	9
	3	53	150421.9	3616.27	-4769.392	1	5985.357	-52.8297	2.421436E-005	0.0011097	9
	4	61	119484.4	4744.663	-5226.858	1	7059.169	-47.76851	5.762814E-006	0.014118	8
	5	73	94921.88	5915.993	-5546.246	1	8109.243	-43.1524	-2.022274E-005	0.0029135	8
	6	80	75421.88	7053.712	-5881.269	1	9183.908	-39.82079	1.011778E-005	-0.0008313	9
	7	89	59859.37	8557.152	-6024.936	1	10465.41	-35.14868	-1.960045E-005	0.0011153	9
	8	98	47578.12	9874.96	-5838.694	1	11471.93	-30.59424	2.283942E-005	-0.0029532	8
	9	106	37828.12	11127.16	-5527.108	1	12424.28	-26.41461	2.140463E-005	-0.0093201	8
	10	115	30046.88	12370.64	-5168.707	1	13407.02	-22.67618	2.299627E-005	-0.0029208	8
	11	122	23859.38	13520.45	-4894.46	1	14379.1	-19.90047	-1.895511E-005	0.0110524	8
	12	129	18984.38	14482.3	-4272.612	1	15099.41	-16.43727	1.709748E-005	6.99377E-005	8
	13	135	15046.87	15323.26	-3750.977	1	15775.68	-13.75493	-1.085824E-005	0.0097391	8
	14	142	11953.13	16336.79	-2741.29	1	16565.18	-9.52541	-6.719683E-006	0.0213772	7
	15	146	9515.62	16838.18	-2278.557	1	16991.65	-7.706502	6.964417E-006	-0.0165789	7
	16	150	7546.875	17339.24	-1886.709	1	17441.58	-6.21001	-5.061428E-006	0.0250763	7
	17	154	5928.309	17752.83	-1635.715	1	17828.02	-5.264272	6.986407E-006	-0.0167141	7
	18	159	4733.456	18289.95	-1317.14	1	18337.31	-4.119011	6.462766E-006	-0.0250489	7
	19	163	3796.875	18648.32	-1165.221	1	18684.69	-3.575418	-8.537759E-007	-0.0127346	7
	20	167	2987.132	18978.92	-1011.448	1	19005.86	-3.050589	2.425322E-006	0.0084062	7
	21	171	2390.625	19566.76	-860.856	1	19585.69	-2.519151	6.525646E-006	-0.0254105	7
	22	176	1884.191	19993.37	-831.265	1	20010.64	-2.380818	-3.030042E-006	-0.0053801	7
	23	180	1516.544	20305.94	-603.1791	1	20314.89	-1.701446	-6.170605E-006	0.0241078	7
	24	184	1193.986	20868.37	-431.2788	1	20872.83	-1.183942	-6.155422E-006	0.0106901	7
	25	189	946.5144	21377.92	-206.1	1	21378.91	-0.5523593	4.349907E-006	0.0004214	7
	26	191	751.7689	21473.34	-620.412	1	21482.3	-1.654941	-5.184126E-006	0.0254399	7
	27	194	597.4265	21535.19	-311.8026	1	21537.45	-0.8295132	-6.700486E-006	0.0218942	7
	28	196	477.4305	22018.86	-301.149	1	22020.91	-0.7835779	-8.968761E-008	0.0005712	7
	29	199	376.6741	22274.47	-266.3056	1	22276.07	-0.6849751	-9.175452E-008	0.0005443	7
	30	201	298.2954	22537.09	-248.8594	1	22538.46	-0.6326468	-9.609843E-008	0.0006101	7
	31	203	237.7717	22806.46	-225.275	1	22807.58	-0.5659311	-8.610898E-008	0.0005436	7
	32	206	189.0121	23088.77	-218.1593	1	23089.8	-0.5413557	-9.006784E-008	0.000558	7
	33	208	150.2404	23362.04	-215.3848	1	23363.03	-0.5282198	-9.465329E-008	0.0005631	7
	34	211	119.1737	23640.68	-214.9827	1	23641.65	-0.5210198	-9.224761E-008	0.0005504	7
	35	213	95.0169	23939.77	-242.4307	1	23941	-0.5801967	-9.331458E-008	0.0006134	7
	36	216	75.60484	24246.62	-265.2999	1	24248.07	-0.6268898	-8.890618E-008	0.0005767	7
	37	218	54.50582	24567.06	-338.6907	1	24569.4	-0.789851	-9.506207E-008	0.0005443	7
	38	221	45.95588	24863.35	-357.0597	1	24865.91	-0.8227615	-9.839779E-008	0.0005642	7
	39	223	37.20238	25159.19	-424.3939	1	25162.77	-0.966393	-1.130914E-007	0.0006554	7
	40	225	30.04808	25462.33	-494.2474	1	25467.13	-1.112024	-8.386413E-008	0.0006036	7
	41	228	23.91582	25779.31	-597.2585	1	25786.23	-1.327199	-9.243311E-008	0.0005474	7
	42	230	18.60119	26069.93	-723.5894	1	26079.97	-1.589877	-1.102749E-007	0.0006028	7
	43	232	15.02404	26414.86	-855.2974	1	26428.71	-1.854555	-1.253618E-007	0.000598	7
	44	235	12.01923	26764.37	-1048.123	1	26784.89	-2.242621	-1.161283E-007	0.00056	7
	45	237	9.450605	27094.72	-1313.832	1	27126.55	-2.776118	-8.098079E-008	0.0005936	7
	46	240	7.512019	27412.7	-1622.353	1	27460.66	-3.38696	-1.465739E-007	0.0006008	7
	47	242	5.978954	27916.46	-2010.298	1	27988.75	-4.118827	-1.074451E-007	0.0005521	7
	48	245	4.734848	28368.69	-2499.39	1	28478.58	-5.034976	-1.267213E-007	0.0005614	7
	49	249	3.75601	28945.01	-3046.182	1	29104.86	-6.007712	-7.157742E-008	0.0005609	7
	50	252	3.004808	29610.52	-3789.481	1	29852.02	-7.292929	-5.0859E-008	0.0005725	7
	51	256	2.372217	30280.87	-4589.734	1	30626.73	-8.618836	-9.514108E-008	0.0005193	7
	52	260	1.878005	31083.47	-5759.835	1	31612.63	-10.49796	-7.980832E-008	0.0006046	7
	53	265	1.512097	32063.26	-7069.177	1	32833.3	-12.43342	-7.281174E-008	0.0005253	7
	54	270	1.201923	33172.07	-8684.024	1	34289.92	-14.67009	-8.7274E-008	0.0006251	7
	55	276	0.956633	34621.18	-10760.14	1	36254.75	-17.26507	-1.076874E-007	-4.095712E-005	7
