EXPLAIN
TAG	EISPOT
TITLE	LABEL	Potentiostatic EIS	Test Identifier
DATE	LABEL	9/13/2020	Date
TIME	LABEL	12:09:21	Time
NOTES	NOTES	1	Notes...
	
PSTAT	PSTAT	REF3000-16137	Potentiostat
VDC	POTEN	0.00000E+000	T	DC Voltage (V)
FREQINIT	QUANT	3.00000E+005	Initial Freq. (Hz)
FREQFINAL	QUANT	1.00000E+000	Final Freq. (Hz)
PTSPERDEC	QUANT	1.00000E+001	Points/decade
VAC	QUANT	5.00000E+001	AC Voltage (mV rms)
AREA	QUANT	1.00000E+000	Sample Area (cm^2)
SPEED	SELECTOR	2	Optimize for:
ZGUESS	QUANT	1.00000E+003	Estimated Z (ohms)
EOC	QUANT	0	Open Circuit (V)
SEQUENCER	TOGGLE	TRUE	Run as Sequence
PSTATMODEL	IQUANT	5	Pstat Model
PSTATSECTION	LABEL	REF3000-16137	Pstat Section
PSTATSERIALNO	LABEL	16137	Pstat Serial Number
CTRLMODE	IQUANT	1	Control Mode
IESTAB	IQUANT	0	I/E Stability
CASPEED	IQUANT	1	Control Amp Speed
CONVENTION	IQUANT	1	Current Convention
ICHRANGE	IQUANT	2	Ich Range
ICHRANGEMODE	TOGGLE	F	Ich Auto Range
ICHOFFSETENABLE	TOGGLE	T	Ich Offset Enable
ICHOFFSET	QUANT	0	Ich Offset (V)
ICHFILTER	IQUANT	3	Ich Filter
VCHRANGE	IQUANT	2	Vch Range
VCHRANGEMODE	TOGGLE	F	Vch Auto Range
VCHOFFSETENABLE	TOGGLE	T	Vch Offset Enable
VCHOFFSET	QUANT	0	Vch Offset (V)
VCHFILTER	IQUANT	3	Vch Filter
ACHRANGE	IQUANT	2	Ach Range
ACHOFFSETENABLE	TOGGLE	F	Ach Offset Enable
ACHOFFSET	QUANT	0	Ach Offset (V)
ACHFILTER	IQUANT	3	Ach Filter
IERANGELOWERLIMIT	IQUANT	2	I/E Range Lower Limit
IERANGEMODE	TOGGLE	F	I/E AutoRange
IERANGE	IQUANT	11	I/E Range
POSFEEDENABLE	TOGGLE	F	Positive Feedback IR Comp
POSFEEDRESISTANCE	QUANT	0	Positive Feedback Resistance (ohm)
ACHSELECT	IQUANT	0	Ach Select
CABLEID	IQUANT	13	Cable ID
DCCALDATE	LABEL	7/31/2020	DC Calibration Date
ACCALDATE	LABEL	7/31/2020	AC Calibration Date
THERMOSELECT	IQUANT	1	Thermo Select
FRAMEWORKVERSION	QUANT	6.33	Framework Version
INSTRUMENTVERSION	LABEL	3.50	Instrument Version
COMPLIANCEVOLTAGE	IQUANT	0	Compliance Voltage
ZCURVE	TABLE
	Pt	Time	Freq	Zreal	Zimag	Zsig	Zmod	Zphz	Idc	Vdc	IERange
	#	s	Hz	ohm	ohm	V	ohm	°	A	V	#
	0	10	300046.9	2.960132	1.910884	1	3.523331	32.84387	9.288394E-006	-0.0001983	10
	1	13	238359.4	2.981963	1.443089	1	3.312795	25.82417	-9.137312E-005	-0.0005028	10
	2	16	189328.1	3.073723	0.831597	1	3.184231	15.13897	-0.0001141	-0.0003215	12
	3	20	150421.9	3.079905	0.7411602	1	3.167828	13.53061	-0.0001389	0.0001506	11
	4	22	119484.4	3.136606	0.5150663	1	3.178615	9.32539	-5.360674E-005	0.000421	11
	5	25	94921.88	3.190705	0.3385049	1	3.208611	6.055911	-3.901025E-005	0.0005663	11
	6	28	75421.88	3.240737	0.1991243	1	3.246849	3.51607	-2.705158E-005	0.0006009	11
	7	30	59859.37	3.286872	0.0884116	1	3.288061	1.540793	-3.403922E-005	0.0006021	11
	8	33	47578.12	3.328007	-0.0017957	1	3.328007	-0.0309143	4.153812E-006	0.0006512	11
	9	35	37828.12	3.363283	-0.0785188	1	3.364199	-1.337377	1.050141E-005	0.0006768	11
	10	38	30046.88	3.395451	-0.1493047	1	3.398732	-2.517786	-5.540107E-005	0.0006173	11
	11	40	23859.38	3.423724	-0.2188109	1	3.430709	-3.656811	9.044441E-006	0.0006976	11
	12	43	18984.38	3.449167	-0.2911582	1	3.461434	-4.82513	-4.204047E-005	0.0006435	11
	13	45	15046.87	3.473965	-0.3734846	1	3.493984	-6.136278	-5.826652E-005	0.0007098	11
	14	47	11953.13	3.502681	-0.4659699	1	3.53354	-7.577699	-3.207633E-005	0.0006749	10
	15	49	9515.62	3.528181	-0.5777667	1	3.575175	-9.300078	-2.745125E-006	0.0006038	10
	16	52	7546.875	3.556804	-0.7145142	1	3.627862	-11.35877	-2.355389E-006	0.0006075	10
	17	54	5928.309	3.592305	-0.8887318	1	3.700608	-13.89588	2.690359E-006	0.0006358	10
	18	56	4733.456	3.632242	-1.088439	1	3.791818	-16.68138	-3.711818E-005	0.0006556	10
	19	59	3796.875	3.67806	-1.326689	1	3.910016	-19.83455	-3.919145E-005	0.0006454	10
	20	61	2987.132	3.738868	-1.643888	1	4.084299	-23.7339	-1.519496E-005	0.0006493	10
	21	63	2390.625	3.809764	-2.004629	1	4.304978	-27.75253	2.139602E-006	0.0006155	10
	22	66	1884.191	3.903273	-2.480764	1	4.624903	-32.4384	2.139625E-007	0.0006144	10
	23	68	1516.544	4.010252	-3.01049	1	5.014496	-36.8955	-7.983034E-006	0.0006145	10
	24	70	1193.986	4.160919	-3.724718	1	5.584512	-41.83386	-2.710697E-005	0.0006509	10
	25	73	946.5144	4.349688	-4.574506	1	6.31236	-46.44309	-1.813381E-005	0.0006481	10
	26	75	751.7689	4.587267	-5.611851	1	7.248164	-50.73658	3.272481E-006	0.0006423	10
	27	77	597.4265	4.897258	-6.867148	1	8.434504	-54.5057	9.692003E-006	0.0006349	10
	28	80	477.4305	5.293303	-8.35202	1	9.88814	-57.63449	-1.271265E-005	0.0006501	10
	29	82	376.6741	5.838019	-10.24494	1	11.79158	-60.3236	-1.205213E-005	0.0006467	10
	30	84	298.2954	6.534847	-12.4879	1	14.09439	-62.37719	-1.254776E-005	0.0006514	10
	31	87	237.7717	7.398534	-15.07801	1	16.79538	-63.86357	-1.284034E-005	0.0006467	10
	32	89	189.0121	8.492187	-18.16953	1	20.05615	-64.94926	-1.28323E-005	0.0006492	10
	33	91	150.2404	9.82215	-21.79702	1	23.90784	-65.74277	-1.251336E-005	0.0006486	10
	34	94	119.1737	11.40307	-26.10646	1	28.48819	-66.40473	-1.258533E-005	0.000649	10
	35	96	95.0169	13.1598	-31.06417	1	33.73667	-67.04089	-1.226329E-005	0.0006412	10
	36	99	75.60484	15.11882	-37.02708	1	39.99479	-67.78893	-1.280614E-005	0.0006465	10
	37	101	54.50582	18.21807	-47.73821	1	51.09633	-69.11192	-9.38707E-006	4.312123E-005	9
	38	104	45.95588	20.00737	-54.73563	1	58.27765	-69.92126	-9.607031E-006	0.0001064	9
	39	106	37.20238	22.44938	-65.04245	1	68.80766	-70.95791	-9.092365E-006	5.042574E-005	9
	40	109	30.04808	25.28917	-77.84232	1	81.84722	-72.00222	-9.388923E-006	5.494083E-005	9
	41	111	23.91582	28.95475	-94.68209	1	99.0105	-72.99583	-9.707181E-006	5.241585E-005	9
	42	113	18.60119	34.06912	-117.829	1	122.6555	-73.87328	-9.191283E-006	4.807225E-005	9
	43	116	15.02404	39.80599	-142.2326	1	147.6978	-74.3649	-9.400771E-006	0.0001092	9
	44	118	12.01923	47.73388	-173.2838	1	179.7381	-74.5989	-9.173707E-006	4.656168E-005	9
	45	120	9.450605	59.44927	-214.2312	1	222.3268	-74.49064	-9.308753E-006	6.391187E-005	9
	46	123	7.512019	74.89198	-261.6395	1	272.1471	-74.0267	-8.911357E-006	6.673738E-005	9
	47	126	5.978954	96.1959	-318.0102	1	332.2411	-73.1698	-9.133606E-006	5.217334E-005	9
	48	129	4.734848	125.8123	-386.032	1	406.0166	-71.94862	-8.893092E-006	4.489935E-005	9
	49	132	3.75601	163.8173	-462.6584	1	490.8043	-70.50205	-9.740901E-006	0.0006387	8
	50	135	3.004808	212.2934	-547.1461	1	586.8879	-68.79368	-9.417213E-006	0.0006149	8
	51	139	2.372217	277.1955	-647.4676	1	704.3093	-66.82314	-9.538997E-006	0.0005945	8
	52	143	1.878005	355.8106	-755.6504	1	835.2297	-64.78582	-9.49972E-006	0.0006451	8
	53	148	1.512097	438.8487	-866.4406	1	971.24	-63.13797	-9.306038E-006	0.0005297	8
	54	159	1.201923	538.7537	-998.465	1	1134.543	-61.6495	-9.166117E-006	0.000653	8
	55	172	0.956633	649.6628	-1147.337	1	1318.5	-60.47992	-9.144781E-006	-4.473595E-006	8
