EXPLAIN
TAG	EISPOT
TITLE	LABEL	Potentiostatic EIS	Test Identifier
DATE	LABEL	9/13/2020	Date
TIME	LABEL	14:13:13	Time
NOTES	NOTES	1	Notes...
	
PSTAT	PSTAT	REF3000-16137	Potentiostat
VDC	POTEN	0.00000E+000	T	DC Voltage (V)
FREQINIT	QUANT	3.00000E+005	Initial Freq. (Hz)
FREQFINAL	QUANT	1.00000E+000	Final Freq. (Hz)
PTSPERDEC	QUANT	1.00000E+001	Points/decade
VAC	QUANT	5.00000E+001	AC Voltage (mV rms)
AREA	QUANT	1.00000E+000	Sample Area (cm^2)
SPEED	SELECTOR	2	Optimize for:
ZGUESS	QUANT	1.00000E+003	Estimated Z (ohms)
EOC	QUANT	0	Open Circuit (V)
SEQUENCER	TOGGLE	TRUE	Run as Sequence
PSTATMODEL	IQUANT	5	Pstat Model
PSTATSECTION	LABEL	REF3000-16137	Pstat Section
PSTATSERIALNO	LABEL	16137	Pstat Serial Number
CTRLMODE	IQUANT	1	Control Mode
IESTAB	IQUANT	0	I/E Stability
CASPEED	IQUANT	1	Control Amp Speed
CONVENTION	IQUANT	1	Current Convention
ICHRANGE	IQUANT	2	Ich Range
ICHRANGEMODE	TOGGLE	F	Ich Auto Range
ICHOFFSETENABLE	TOGGLE	T	Ich Offset Enable
ICHOFFSET	QUANT	0	Ich Offset (V)
ICHFILTER	IQUANT	3	Ich Filter
VCHRANGE	IQUANT	2	Vch Range
VCHRANGEMODE	TOGGLE	F	Vch Auto Range
VCHOFFSETENABLE	TOGGLE	T	Vch Offset Enable
VCHOFFSET	QUANT	0	Vch Offset (V)
VCHFILTER	IQUANT	3	Vch Filter
ACHRANGE	IQUANT	2	Ach Range
ACHOFFSETENABLE	TOGGLE	F	Ach Offset Enable
ACHOFFSET	QUANT	0	Ach Offset (V)
ACHFILTER	IQUANT	3	Ach Filter
IERANGELOWERLIMIT	IQUANT	2	I/E Range Lower Limit
IERANGEMODE	TOGGLE	F	I/E AutoRange
IERANGE	IQUANT	11	I/E Range
POSFEEDENABLE	TOGGLE	F	Positive Feedback IR Comp
POSFEEDRESISTANCE	QUANT	0	Positive Feedback Resistance (ohm)
ACHSELECT	IQUANT	0	Ach Select
CABLEID	IQUANT	13	Cable ID
DCCALDATE	LABEL	7/31/2020	DC Calibration Date
ACCALDATE	LABEL	7/31/2020	AC Calibration Date
THERMOSELECT	IQUANT	1	Thermo Select
FRAMEWORKVERSION	QUANT	6.33	Framework Version
INSTRUMENTVERSION	LABEL	3.50	Instrument Version
COMPLIANCEVOLTAGE	IQUANT	0	Compliance Voltage
ZCURVE	TABLE
	Pt	Time	Freq	Zreal	Zimag	Zsig	Zmod	Zphz	Idc	Vdc	IERange
	#	s	Hz	ohm	ohm	V	ohm	°	A	V	#
	0	14	300046.9	-22.52924	-4514.969	1	4515.025	-90.2859	-6.443509E-005	0.0003941	9
	1	39	238359.4	57.82896	-5590.93	1	5591.229	-89.40739	-9.35707E-005	0.0021242	9
	2	57	189328.1	191.4505	-7091.508	1	7094.092	-88.45355	-5.920565E-005	0.0005319	9
	3	67	150421.9	88.34562	-8622.413	1	8622.865	-89.41296	1.987941E-005	-0.0021001	9
	4	76	119484.4	369.3123	-10973.15	1	10979.37	-88.07238	-5.203226E-006	-0.0151602	8
	5	83	94921.88	781.1492	-13584.89	1	13607.33	-86.70904	-2.055336E-005	0.0028282	8
	6	92	75421.88	739.5547	-16963.81	1	16979.92	-87.50372	-1.577804E-005	0.0005167	8
	7	100	59859.37	891.5323	-21574.91	1	21593.32	-87.63374	2.307237E-005	-0.0027816	8
	8	109	47578.12	4053.679	-27926.74	1	28219.41	-81.74097	3.177463E-006	-0.0241187	7
	9	117	37828.12	4290.788	-34457.18	1	34723.31	-82.90177	6.188938E-007	0.0158633	7
	10	124	30046.88	1535.61	-40904.48	1	40933.3	-87.85005	-1.221349E-005	0.010317	8
	11	133	23859.38	4866.756	-53641.01	1	53861.34	-84.81585	-6.47015E-006	0.0255904	7
	12	138	18984.38	6429.674	-66321.88	1	66632.81	-84.46268	-3.518246E-006	-0.0048942	7
	13	143	15046.87	5786.126	-84813.64	1	85010.78	-86.09724	7.541709E-006	-0.0185415	7
	14	149	11953.13	15962.33	-104006.4	1	105224.2	-81.27464	-2.43358E-005	0.0051826	8
	15	156	9515.62	2536.394	-135220.1	1	135243.9	-88.9254	1.749983E-005	0.0003273	8
	16	164	7546.875	14970.08	-166328	1	167000.3	-84.85705	2.845263E-006	0.0080724	7
	17	170	5928.309	10045.45	-215579.9	1	215813.8	-87.3321	6.7997E-006	-0.0267762	7
	18	176	4733.456	-8805.511	-237696.3	1	237859.4	-92.12157	4.862401E-006	-0.0006783	7
	19	182	3796.875	27831.17	-316294.8	1	317516.9	-84.97143	4.875286E-006	-0.0009144	7
	20	190	2987.132	-928.3418	-383863.9	1	383865	-90.13857	3.438821E-006	-0.0243042	7
	21	196	2390.625	73697.34	-522741.5	1	527910.9	-81.97519	-6.368855E-007	0.0097744	6
	22	202	1884.191	92013.48	-669627.4	1	675919.7	-82.17599	2.186169E-007	0.0101386	6
	23	208	1516.544	109911.4	-785796.1	1	793445.6	-82.03754	3.950289E-007	-0.0251862	6
	24	213	1193.986	137074.8	-981517	1	991042	-82.04971	5.832616E-007	-0.027278	6
	25	219	946.5144	292884.2	-1287061	1	1319965	-77.18005	3.919193E-007	-0.0256258	6
	26	222	751.7689	196721.5	-1534267	1	1546827	-82.69348	5.297061E-010	0.0174282	6
	27	227	597.4265	516883.6	-1647099	1	1726298	-72.57738	-5.645147E-007	0.0270048	6
	28	232	477.4305	458900.5	-2339155	1	2383744	-78.90055	-1.001111E-008	0.0006932	6
	29	236	376.6741	968608	-2930382	1	3086315	-71.70922	-9.838358E-010	0.0006158	5
	30	240	298.2954	876036.3	-3545561	1	3652184	-76.12135	-9.671542E-009	0.0006624	6
	31	244	237.7717	1571810	-4305805	1	4583726	-69.94567	-1.003916E-009	0.0005815	5
	32	247	189.0121	1921842	-5184247	1	5529005	-69.65985	-1.053456E-009	0.0006007	5
	33	252	150.2404	2574943	-6298796	1	6804790	-67.7653	-1.060563E-009	0.0006151	5
	34	255	119.1737	1410404	-7520414	1	7651526	-79.37794	-1.053301E-009	0.0006624	5
	35	257	95.0169	4349327	-8883052	1	9.890665E+006	-63.91267	-9.001848E-010	0.0005811	5
	36	260	75.60484	5428709	-1.080694E+007	1	1.209384E+007	-63.32801	-9.680876E-010	0.0006268	5
	37	263	54.50582	8763315	-1.229102E+007	1	1.509519E+007	-54.51169	-1.040773E-009	0.0005983	5
	38	266	45.95588	1.128807E+007	-1.267278E+007	1	1.697115E+007	-48.30746	-1.474999E-010	0.0006707	4
	39	269	37.20238	1.560205E+007	-1.466573E+007	1	2.141279E+007	-43.22815	-5.190492E-011	0.0006146	4
	40	271	30.04808	1.700793E+007	-1.464919E+007	1	2.244702E+007	-40.73883	-1.019628E-010	0.0006668	4
	41	274	23.91582	1.936163E+007	-1.63851E+007	1	2.536423E+007	-40.24012	-1.611513E-010	0.0005934	4
	42	277	18.60119	2.067176E+007	-1.442339E+007	1	2.520627E+007	-34.90479	-9.743687E-010	0.0006434	5
	43	280	15.02404	2.606923E+007	-1.586044E+007	1	3.051489E+007	-31.3162	-1.039753E-009	0.000613	5
	44	284	12.01923	3.009536E+007	-1.532918E+007	1	3.377447E+007	-26.99217	-9.83554E-010	0.000586	5
	45	288	9.450605	3.181561E+007	-1.472834E+007	1	3.505934E+007	-24.84075	-1.020646E-009	0.0006249	5
	46	292	7.512019	3.50021E+007	-1.246156E+007	1	3.715424E+007	-19.59691	-1.02178E-009	0.0006091	5
	47	296	5.978954	3.871122E+007	-1.006327E+007	1	3.999785E+007	-14.57193	-8.696989E-011	0.0006221	4
	48	302	4.734848	4.079782E+007	-9205990	1	4.182359E+007	-12.71578	-9.488364E-011	0.0005799	4
	49	308	3.75601	4.258988E+007	-8402091	1	4.341075E+007	-11.15995	-8.826134E-011	0.0005716	4
	50	315	3.004808	4.563712E+007	-7387035	1	4.62311E+007	-9.194415	-1.051888E-010	0.0006671	4
	51	323	2.372217	4.932365E+007	-2900094	1	4.940884E+007	-3.364959	-1.335167E-011	0.0007502	3
	52	327	1.878005	5.052485E+007	-2513112	1	5.058731E+007	-2.847553	-1.427224E-011	0.0006859	3
	53	331	1.512097	5.196668E+007	-2204000	1	5.20134E+007	-2.428561	-1.538847E-011	0.0006362	3
	54	337	1.201923	5.365565E+007	-1989183	1	5.369251E+007	-2.123162	-1.368476E-011	0.0006854	3
	55	343	0.956633	5.561245E+007	-1809688	1	5.564189E+007	-1.863807	-2.461521E-011	5.954242E-005	3
