EXPLAIN
TAG	EISPOT
TITLE	LABEL	Potentiostatic EIS	Test Identifier
DATE	LABEL	9/13/2020	Date
TIME	LABEL	12:26:51	Time
NOTES	NOTES	1	Notes...
	
PSTAT	PSTAT	REF3000-16137	Potentiostat
VDC	POTEN	0.00000E+000	T	DC Voltage (V)
FREQINIT	QUANT	3.00000E+005	Initial Freq. (Hz)
FREQFINAL	QUANT	1.00000E+000	Final Freq. (Hz)
PTSPERDEC	QUANT	1.00000E+001	Points/decade
VAC	QUANT	5.00000E+001	AC Voltage (mV rms)
AREA	QUANT	1.00000E+000	Sample Area (cm^2)
SPEED	SELECTOR	2	Optimize for:
ZGUESS	QUANT	1.00000E+003	Estimated Z (ohms)
EOC	QUANT	0	Open Circuit (V)
SEQUENCER	TOGGLE	TRUE	Run as Sequence
PSTATMODEL	IQUANT	5	Pstat Model
PSTATSECTION	LABEL	REF3000-16137	Pstat Section
PSTATSERIALNO	LABEL	16137	Pstat Serial Number
CTRLMODE	IQUANT	1	Control Mode
IESTAB	IQUANT	0	I/E Stability
CASPEED	IQUANT	1	Control Amp Speed
CONVENTION	IQUANT	1	Current Convention
ICHRANGE	IQUANT	2	Ich Range
ICHRANGEMODE	TOGGLE	F	Ich Auto Range
ICHOFFSETENABLE	TOGGLE	T	Ich Offset Enable
ICHOFFSET	QUANT	0	Ich Offset (V)
ICHFILTER	IQUANT	3	Ich Filter
VCHRANGE	IQUANT	2	Vch Range
VCHRANGEMODE	TOGGLE	F	Vch Auto Range
VCHOFFSETENABLE	TOGGLE	T	Vch Offset Enable
VCHOFFSET	QUANT	0	Vch Offset (V)
VCHFILTER	IQUANT	3	Vch Filter
ACHRANGE	IQUANT	2	Ach Range
ACHOFFSETENABLE	TOGGLE	F	Ach Offset Enable
ACHOFFSET	QUANT	0	Ach Offset (V)
ACHFILTER	IQUANT	3	Ach Filter
IERANGELOWERLIMIT	IQUANT	2	I/E Range Lower Limit
IERANGEMODE	TOGGLE	F	I/E AutoRange
IERANGE	IQUANT	11	I/E Range
POSFEEDENABLE	TOGGLE	F	Positive Feedback IR Comp
POSFEEDRESISTANCE	QUANT	0	Positive Feedback Resistance (ohm)
ACHSELECT	IQUANT	0	Ach Select
CABLEID	IQUANT	13	Cable ID
DCCALDATE	LABEL	7/31/2020	DC Calibration Date
ACCALDATE	LABEL	7/31/2020	AC Calibration Date
THERMOSELECT	IQUANT	1	Thermo Select
FRAMEWORKVERSION	QUANT	6.33	Framework Version
INSTRUMENTVERSION	LABEL	3.50	Instrument Version
COMPLIANCEVOLTAGE	IQUANT	0	Compliance Voltage
ZCURVE	TABLE
	Pt	Time	Freq	Zreal	Zimag	Zsig	Zmod	Zphz	Idc	Vdc	IERange
	#	s	Hz	ohm	ohm	V	ohm	°	A	V	#
	0	10	300046.9	3.196113	2.031723	1	3.78722	32.44352	-0.0001136	-0.0001495	10
	1	13	238359.4	3.21304	1.551636	1	3.56808	25.77674	-0.0001044	-0.0005653	10
	2	16	189328.1	3.241832	1.166339	1	3.445261	19.7876	3.247585E-005	-0.000193	10
	3	19	150421.9	3.302643	0.6598592	1	3.367917	11.29877	-0.0001079	-2.466348E-005	12
	4	23	119484.4	3.313882	0.6055483	1	3.368754	10.35545	-4.119666E-005	0.0004718	11
	5	25	94921.88	3.349265	0.420298	1	3.375534	7.152636	-3.789279E-005	0.0005688	11
	6	28	75421.88	3.385493	0.2714399	1	3.396357	4.584019	-3.665187E-005	0.0005952	11
	7	30	59859.37	3.419292	0.1503248	1	3.422595	2.517314	-3.365361E-005	0.0006262	11
	8	33	47578.12	3.448479	0.0500426	1	3.448842	0.8313888	1.028299E-005	0.000643	11
	9	35	37828.12	3.47469	-0.0374928	1	3.474893	-0.6182126	-1.711439E-005	0.0006315	11
	10	38	30046.88	3.496853	-0.1193343	1	3.498888	-1.954529	-3.120933E-005	0.0006329	11
	11	40	23859.38	3.520333	-0.1961263	1	3.525792	-3.18879	-3.164199E-005	0.000691	10
	12	43	18984.38	3.539206	-0.2835754	1	3.550548	-4.580983	-2.143815E-005	0.0006516	10
	13	45	15046.87	3.55855	-0.3822443	1	3.57902	-6.130962	-2.358485E-005	0.0006674	10
	14	47	11953.13	3.577635	-0.4950822	1	3.611727	-7.878698	-3.147025E-005	0.0006387	10
	15	50	9515.62	3.600397	-0.6270684	1	3.654596	-9.8799	-1.305841E-005	0.0006815	10
	16	52	7546.875	3.625698	-0.7882826	1	3.710401	-12.26609	-3.411513E-006	0.0006646	10
	17	54	5928.309	3.657399	-0.993151	1	3.789844	-15.19209	-2.893206E-005	0.0006643	10
	18	57	4733.456	3.693743	-1.226689	1	3.892108	-18.37128	6.179888E-006	0.0006168	10
	19	59	3796.875	3.737639	-1.506039	1	4.029652	-21.94641	-6.639366E-006	0.0006153	10
	20	61	2987.132	3.798481	-1.877179	1	4.23701	-26.29821	1.633299E-005	0.0006251	10
	21	64	2390.625	3.869712	-2.301922	1	4.502612	-30.74656	-3.114988E-005	0.0007046	10
	22	66	1884.191	3.96648	-2.85703	1	4.888311	-35.76497	-2.970471E-005	0.0006639	10
	23	68	1516.544	4.077268	-3.477237	1	5.358665	-40.45871	-2.812672E-005	0.0007099	10
	24	70	1193.986	4.232141	-4.313694	1	6.043092	-45.54676	1.128451E-005	0.0006431	10
	25	73	946.5144	4.425208	-5.315855	1	6.916702	-50.22416	-3.287326E-005	0.0006486	10
	26	75	751.7689	4.674064	-6.532465	1	8.032432	-54.41578	-8.525175E-006	0.0006568	10
	27	78	597.4265	4.995296	-8.015037	1	9.444246	-58.06717	7.076557E-006	0.0006118	10
	28	80	477.4305	5.400183	-9.78241	1	11.17397	-61.09999	-5.59084E-006	0.0006529	10
	29	82	376.6741	5.961419	-12.05301	1	13.4467	-63.68301	-5.948481E-006	0.0006496	10
	30	84	298.2954	6.687934	-14.77277	1	16.21614	-65.64278	-5.881658E-006	0.0006534	10
	31	87	237.7717	7.610095	-17.95381	1	19.50008	-67.02934	-4.410269E-006	0.0006461	10
	32	89	189.0121	8.815207	-21.79671	1	23.51179	-67.98019	-5.415963E-006	0.0006466	10
	33	92	150.2404	10.34361	-26.3501	1	28.30756	-68.56773	-5.750239E-006	0.0006503	10
	34	94	119.1737	12.26256	-31.78149	1	34.06514	-68.9014	-5.572625E-006	0.0006506	10
	35	96	95.0169	14.51618	-38.0034	1	40.68142	-69.09461	-5.135193E-006	0.0006491	10
	36	99	75.60484	17.13932	-45.32534	1	48.45764	-69.28639	-1.833208E-006	4.700179E-005	9
	37	101	54.50582	21.49347	-58.2926	1	62.12887	-69.76022	-1.948125E-006	4.625595E-005	9
	38	104	45.95588	24.01092	-66.53935	1	70.73903	-70.15788	-1.788062E-006	5.607208E-005	9
	39	106	37.20238	27.34515	-78.53327	1	83.15788	-70.80197	-1.756048E-006	5.39999E-005	9
	40	109	30.04808	31.02698	-93.23441	1	98.2615	-71.59335	-1.849368E-006	5.288357E-005	9
	41	111	23.91582	35.33413	-112.3714	1	117.7957	-72.54473	-1.840631E-006	4.940031E-005	9
	42	113	18.60119	40.94529	-138.9383	1	144.846	-73.57969	-1.714546E-006	5.08458E-005	9
	43	116	15.02404	46.65728	-167.1295	1	173.5199	-74.40194	-2.067124E-006	4.572811E-005	9
	44	118	12.01923	54.11964	-203.0744	1	210.1622	-75.07742	-1.651923E-006	5.216101E-005	9
	45	121	9.450605	64.59323	-251.382	1	259.548	-75.58945	-2.092055E-006	6.050338E-005	9
	46	123	7.512019	77.98002	-308.2546	1	317.9651	-75.80356	-1.72602E-006	6.358635E-005	9
	47	126	5.978954	96.1115	-377.1814	1	389.2341	-75.7044	-1.757555E-006	5.133104E-005	9
	48	129	4.734848	120.6136	-461.2464	1	476.7556	-75.34559	-2.133487E-006	0.0006517	8
	49	132	3.75601	154.7962	-563.3463	1	584.2268	-74.63548	-2.50932E-006	0.000618	8
	50	135	3.004808	198.7735	-680.2569	1	708.7033	-73.71145	-2.30014E-006	0.0006204	8
	51	139	2.372217	261.3913	-825.0988	1	865.5134	-72.4218	-2.380217E-006	0.0006146	8
	52	143	1.878005	344.8099	-992.18	1	1050.388	-70.83625	-2.412982E-006	0.0006292	8
	53	148	1.512097	440.0937	-1166.353	1	1246.62	-69.32729	-2.288143E-006	0.0005152	8
	54	153	1.201923	563.8973	-1374.544	1	1485.716	-67.69444	-2.297114E-006	0.000643	8
	55	160	0.956633	707.6786	-1604.592	1	1753.717	-66.20092	-2.293347E-006	-1.027678E-005	8
