EXPLAIN
TAG	EISPOT
TITLE	LABEL	Potentiostatic EIS	Test Identifier
DATE	LABEL	9/13/2020	Date
TIME	LABEL	13:20:00	Time
NOTES	NOTES	1	Notes...
	
PSTAT	PSTAT	REF3000-16137	Potentiostat
VDC	POTEN	0.00000E+000	T	DC Voltage (V)
FREQINIT	QUANT	3.00000E+005	Initial Freq. (Hz)
FREQFINAL	QUANT	1.00000E+000	Final Freq. (Hz)
PTSPERDEC	QUANT	1.00000E+001	Points/decade
VAC	QUANT	5.00000E+001	AC Voltage (mV rms)
AREA	QUANT	1.00000E+000	Sample Area (cm^2)
SPEED	SELECTOR	2	Optimize for:
ZGUESS	QUANT	1.00000E+003	Estimated Z (ohms)
EOC	QUANT	0	Open Circuit (V)
SEQUENCER	TOGGLE	TRUE	Run as Sequence
PSTATMODEL	IQUANT	5	Pstat Model
PSTATSECTION	LABEL	REF3000-16137	Pstat Section
PSTATSERIALNO	LABEL	16137	Pstat Serial Number
CTRLMODE	IQUANT	1	Control Mode
IESTAB	IQUANT	0	I/E Stability
CASPEED	IQUANT	1	Control Amp Speed
CONVENTION	IQUANT	1	Current Convention
ICHRANGE	IQUANT	2	Ich Range
ICHRANGEMODE	TOGGLE	F	Ich Auto Range
ICHOFFSETENABLE	TOGGLE	T	Ich Offset Enable
ICHOFFSET	QUANT	0	Ich Offset (V)
ICHFILTER	IQUANT	3	Ich Filter
VCHRANGE	IQUANT	2	Vch Range
VCHRANGEMODE	TOGGLE	F	Vch Auto Range
VCHOFFSETENABLE	TOGGLE	T	Vch Offset Enable
VCHOFFSET	QUANT	0	Vch Offset (V)
VCHFILTER	IQUANT	3	Vch Filter
ACHRANGE	IQUANT	2	Ach Range
ACHOFFSETENABLE	TOGGLE	F	Ach Offset Enable
ACHOFFSET	QUANT	0	Ach Offset (V)
ACHFILTER	IQUANT	3	Ach Filter
IERANGELOWERLIMIT	IQUANT	2	I/E Range Lower Limit
IERANGEMODE	TOGGLE	F	I/E AutoRange
IERANGE	IQUANT	11	I/E Range
POSFEEDENABLE	TOGGLE	F	Positive Feedback IR Comp
POSFEEDRESISTANCE	QUANT	0	Positive Feedback Resistance (ohm)
ACHSELECT	IQUANT	0	Ach Select
CABLEID	IQUANT	13	Cable ID
DCCALDATE	LABEL	7/31/2020	DC Calibration Date
ACCALDATE	LABEL	7/31/2020	AC Calibration Date
THERMOSELECT	IQUANT	1	Thermo Select
FRAMEWORKVERSION	QUANT	6.33	Framework Version
INSTRUMENTVERSION	LABEL	3.50	Instrument Version
COMPLIANCEVOLTAGE	IQUANT	0	Compliance Voltage
ZCURVE	TABLE
	Pt	Time	Freq	Zreal	Zimag	Zsig	Zmod	Zphz	Idc	Vdc	IERange
	#	s	Hz	ohm	ohm	V	ohm	°	A	V	#
	0	8	300046.9	12.95865	2.133269	1	13.13307	9.348256	-2.969056E-005	0.0001215	10
	1	11	238359.4	13.0007	1.668885	1	13.10737	7.314993	2.221216E-005	0.0001831	10
	2	14	189328.1	13.05862	1.312011	1	13.12437	5.737303	-8.029567E-006	0.0004121	10
	3	17	150421.9	13.13073	1.022744	1	13.1705	4.453738	1.169623E-005	0.0006504	10
	4	19	119484.4	13.18937	0.7726688	1	13.21199	3.352709	-1.944345E-005	0.0006236	10
	5	22	94921.88	13.25706	0.5850307	1	13.26997	2.526808	-2.485339E-005	0.0006583	10
	6	24	75421.88	13.3296	0.4027681	1	13.33568	1.730727	-2.526231E-005	0.0006484	10
	7	27	59859.37	13.40729	0.2426379	1	13.40949	1.036795	1.344702E-005	0.0005864	10
	8	29	47578.12	13.49104	0.1045309	1	13.49145	0.4439284	-1.92374E-005	0.0006923	10
	9	32	37828.12	13.57375	-0.0258584	1	13.57377	-0.1091502	2.42434E-005	0.000596	10
	10	34	30046.88	13.66147	-0.1529402	1	13.66233	-0.6413997	-2.340115E-005	0.0006944	10
	11	37	23859.38	13.74709	-0.287856	1	13.7501	-1.199565	2.354231E-005	0.0006044	10
	12	39	18984.38	13.83475	-0.430701	1	13.84145	-1.783147	2.325873E-005	0.000611	10
	13	41	15046.87	13.92438	-0.5961377	1	13.93714	-2.451478	-2.884329E-005	0.0006481	10
	14	44	11953.13	14.02039	-0.7872012	1	14.04247	-3.213605	5.274268E-006	0.0005876	10
	15	46	9515.62	14.1215	-1.010434	1	14.1576	-4.092702	9.511417E-006	0.0006781	10
	16	48	7546.875	14.23	-1.284576	1	14.28786	-5.158247	1.218542E-005	0.0005828	10
	17	51	5928.309	14.34983	-1.632676	1	14.44241	-6.491013	2.101128E-005	0.0005974	10
	18	53	4733.456	14.48163	-2.032038	1	14.6235	-7.987499	-1.510924E-005	0.0006787	10
	19	55	3796.875	14.62941	-2.50605	1	14.8425	-9.72054	8.713047E-006	0.0006738	10
	20	57	2987.132	14.80336	-3.140552	1	15.13283	-11.97778	-4.253096E-006	0.0006645	10
	21	60	2390.625	15.00096	-3.861181	1	15.48992	-14.43435	-2.286719E-005	0.0006766	10
	22	62	1884.191	15.24336	-4.810055	1	15.98426	-17.51313	2.378135E-005	0.0006314	10
	23	64	1516.544	15.51573	-5.861908	1	16.58614	-20.69677	-1.111032E-005	0.0006262	10
	24	67	1193.986	15.86836	-7.274031	1	17.45613	-24.62665	-2.84299E-005	0.0006723	10
	25	69	946.5144	16.27851	-8.946019	1	18.57475	-28.79144	1.348848E-005	0.0006197	10
	26	71	751.7689	16.75898	-10.97039	1	20.0303	-33.20866	-1.751497E-005	0.0006405	10
	27	74	597.4265	17.31766	-13.42597	1	21.91251	-37.78557	-1.762143E-005	0.0006435	10
	28	76	477.4305	17.95488	-16.35582	1	24.28766	-42.33165	-2.80734E-006	0.0006539	10
	29	78	376.6741	18.73911	-20.15398	1	27.51977	-47.08341	-1.950111E-006	0.0006483	10
	30	81	298.2954	19.64934	-24.77402	1	31.62038	-51.58055	-2.037076E-006	0.0006548	10
	31	83	237.7717	20.7125	-30.30553	1	36.70739	-55.64911	-2.051406E-006	0.0006527	10
	32	86	189.0121	21.98991	-37.15903	1	43.17812	-59.38387	1.274174E-006	5.047435E-005	9
	33	88	150.2404	23.59335	-45.64429	1	51.38139	-62.66574	1.24595E-006	5.121631E-005	9
	34	90	119.1737	25.6153	-56.20271	1	61.76479	-65.4981	1.263826E-006	5.035723E-005	9
	35	93	95.0169	28.11489	-68.87672	1	74.39388	-67.79514	1.23711E-006	5.10411E-005	9
	36	95	75.60484	31.32192	-84.55513	1	90.17002	-69.67376	1.300053E-006	4.422844E-005	9
	37	98	54.50582	37.51322	-113.2757	1	119.3257	-71.67682	1.2358E-006	4.609985E-005	9
	38	100	45.95588	41.81519	-131.8875	1	138.3576	-72.40868	1.33294E-006	5.019725E-005	9
	39	103	37.20238	48.41276	-159.0028	1	166.2098	-73.0657	8.89928E-007	0.0001073	9
	40	105	30.04808	56.90587	-191.7796	1	200.0442	-73.47304	1.376282E-006	4.664659E-005	9
	41	107	23.91582	68.62383	-233.7689	1	243.6332	-73.64018	1.331611E-006	4.374401E-005	9
	42	110	18.60119	85.44846	-290.0243	1	302.35	-73.5837	1.11604E-006	5.275981E-005	9
	43	112	15.02404	103.7743	-346.8577	1	362.0489	-73.34366	1.23357E-006	4.812439E-005	9
	44	114	12.01923	127.2436	-414.9167	1	433.9894	-72.95065	6.292419E-007	0.000629	8
	45	117	9.450605	158.792	-503.4139	1	527.8641	-72.49315	6.646137E-007	0.0006339	8
	46	119	7.512019	194.5887	-603.7283	1	634.3127	-72.13525	5.317375E-007	0.0006393	8
	47	122	5.978954	235.8372	-720.6387	1	758.2475	-71.87872	4.976341E-007	0.0006295	8
	48	125	4.734848	284.2579	-863.4866	1	909.0719	-71.77857	5.521513E-007	0.0006107	8
	49	128	3.75601	337.0301	-1033.919	1	1087.464	-71.94542	5.714379E-007	0.0006491	8
	50	132	3.004808	392.6451	-1231.616	1	1292.69	-72.31747	5.712868E-007	0.0006194	8
	51	135	2.372217	459.8372	-1488.034	1	1557.465	-72.82763	5.364227E-007	0.0005669	8
	52	139	1.878005	529.8923	-1804.721	1	1880.905	-73.637	5.961094E-007	0.0006258	8
	53	144	1.512097	600.895	-2161.339	1	2243.315	-74.46302	5.386037E-007	0.0006732	8
	54	150	1.201923	694.7535	-2635.462	1	2725.498	-75.23182	5.818095E-007	0.0006372	8
	55	156	0.956633	800.0544	-3213.897	1	3311.982	-76.02115	5.374456E-007	-1.029589E-005	8
