EXPLAIN
TAG	EISPOT
TITLE	LABEL	Potentiostatic EIS	Test Identifier
DATE	LABEL	9/13/2020	Date
TIME	LABEL	12:24:02	Time
NOTES	NOTES	1	Notes...
	
PSTAT	PSTAT	REF3000-16137	Potentiostat
VDC	POTEN	0.00000E+000	T	DC Voltage (V)
FREQINIT	QUANT	3.00000E+005	Initial Freq. (Hz)
FREQFINAL	QUANT	1.00000E+000	Final Freq. (Hz)
PTSPERDEC	QUANT	1.00000E+001	Points/decade
VAC	QUANT	5.00000E+001	AC Voltage (mV rms)
AREA	QUANT	1.00000E+000	Sample Area (cm^2)
SPEED	SELECTOR	2	Optimize for:
ZGUESS	QUANT	1.00000E+003	Estimated Z (ohms)
EOC	QUANT	0	Open Circuit (V)
SEQUENCER	TOGGLE	TRUE	Run as Sequence
PSTATMODEL	IQUANT	5	Pstat Model
PSTATSECTION	LABEL	REF3000-16137	Pstat Section
PSTATSERIALNO	LABEL	16137	Pstat Serial Number
CTRLMODE	IQUANT	1	Control Mode
IESTAB	IQUANT	0	I/E Stability
CASPEED	IQUANT	1	Control Amp Speed
CONVENTION	IQUANT	1	Current Convention
ICHRANGE	IQUANT	2	Ich Range
ICHRANGEMODE	TOGGLE	F	Ich Auto Range
ICHOFFSETENABLE	TOGGLE	T	Ich Offset Enable
ICHOFFSET	QUANT	0	Ich Offset (V)
ICHFILTER	IQUANT	3	Ich Filter
VCHRANGE	IQUANT	2	Vch Range
VCHRANGEMODE	TOGGLE	F	Vch Auto Range
VCHOFFSETENABLE	TOGGLE	T	Vch Offset Enable
VCHOFFSET	QUANT	0	Vch Offset (V)
VCHFILTER	IQUANT	3	Vch Filter
ACHRANGE	IQUANT	2	Ach Range
ACHOFFSETENABLE	TOGGLE	F	Ach Offset Enable
ACHOFFSET	QUANT	0	Ach Offset (V)
ACHFILTER	IQUANT	3	Ach Filter
IERANGELOWERLIMIT	IQUANT	2	I/E Range Lower Limit
IERANGEMODE	TOGGLE	F	I/E AutoRange
IERANGE	IQUANT	11	I/E Range
POSFEEDENABLE	TOGGLE	F	Positive Feedback IR Comp
POSFEEDRESISTANCE	QUANT	0	Positive Feedback Resistance (ohm)
ACHSELECT	IQUANT	0	Ach Select
CABLEID	IQUANT	13	Cable ID
DCCALDATE	LABEL	7/31/2020	DC Calibration Date
ACCALDATE	LABEL	7/31/2020	AC Calibration Date
THERMOSELECT	IQUANT	1	Thermo Select
FRAMEWORKVERSION	QUANT	6.33	Framework Version
INSTRUMENTVERSION	LABEL	3.50	Instrument Version
COMPLIANCEVOLTAGE	IQUANT	0	Compliance Voltage
ZCURVE	TABLE
	Pt	Time	Freq	Zreal	Zimag	Zsig	Zmod	Zphz	Idc	Vdc	IERange
	#	s	Hz	ohm	ohm	V	ohm	°	A	V	#
	0	10	300046.9	3.145606	1.978419	1	3.716043	32.16771	6.95845E-005	-0.000353	10
	1	13	238359.4	3.149914	1.514049	1	3.494897	25.67191	3.025848E-005	-0.0004889	10
	2	16	189328.1	3.187129	1.132594	1	3.38239	19.56342	1.381627E-005	-0.0002102	10
	3	19	150421.9	3.255244	0.6324999	1	3.316123	10.99567	-0.0001961	9.249974E-005	12
	4	23	119484.4	3.272365	0.5752858	1	3.322548	9.97078	1.020178E-005	0.0005837	11
	5	25	94921.88	3.314229	0.3918435	1	3.337312	6.742817	8.858192E-006	0.0005951	11
	6	28	75421.88	3.355311	0.2459335	1	3.364312	4.192099	-3.658311E-005	0.0005889	11
	7	30	59859.37	3.394059	0.127882	1	3.396467	2.15778	-3.760525E-005	0.0006282	11
	8	33	47578.12	3.42709	0.0308887	1	3.42723	0.5163987	-5.732319E-005	0.0006057	11
	9	35	37828.12	3.455863	-0.0534662	1	3.456276	-0.8863608	-6.396291E-005	0.0006122	11
	10	38	30046.88	3.480716	-0.132265	1	3.483228	-2.176156	-3.088619E-006	0.0006692	11
	11	40	23859.38	3.504601	-0.205878	1	3.510643	-3.36198	1.332696E-005	0.0006138	10
	12	43	18984.38	3.524704	-0.290116	1	3.536624	-4.705369	1.886406E-005	0.0006126	10
	13	45	15046.87	3.544617	-0.3857023	1	3.56554	-6.210123	7.893815E-006	0.0006199	10
	14	47	11953.13	3.565508	-0.49452	1	3.599638	-7.896294	-2.403256E-005	0.0007289	10
	15	50	9515.62	3.587047	-0.6228359	1	3.640718	-9.85033	1.343867E-005	0.0006286	10
	16	52	7546.875	3.61434	-0.7803448	1	3.69762	-12.18329	-2.484337E-005	0.0006821	10
	17	54	5928.309	3.646443	-0.980303	1	3.775916	-15.04751	9.577271E-007	0.0006392	10
	18	56	4733.456	3.683191	-1.208907	1	3.876513	-18.17101	-2.880948E-005	0.0007155	10
	19	59	3796.875	3.726912	-1.481742	1	4.010665	-21.68173	-3.20584E-005	0.0006485	10
	20	61	2987.132	3.78744	-1.844885	1	4.212873	-25.97099	1.589319E-005	0.0006269	10
	21	63	2390.625	3.858153	-2.260215	1	4.471456	-30.36298	-3.267244E-005	0.0006535	10
	22	66	1884.191	3.954021	-2.803689	1	4.847159	-35.33941	-2.70393E-005	0.0007173	10
	23	68	1516.544	4.065228	-3.410221	1	5.306193	-39.99247	-5.539609E-007	0.0006199	10
	24	70	1193.986	4.218654	-4.230204	1	5.97425	-45.07833	-3.037708E-005	0.0006618	10
	25	73	946.5144	4.411898	-5.209935	1	6.827024	-49.74127	-2.942975E-005	0.0006536	10
	26	75	751.7689	4.661354	-6.401803	1	7.919047	-53.94046	-2.060665E-005	0.0006482	10
	27	77	597.4265	4.980524	-7.851933	1	9.298305	-57.61282	-2.974387E-005	0.0007081	10
	28	80	477.4305	5.386722	-9.57669	1	10.98771	-60.64301	-5.676767E-006	0.0006501	10
	29	82	376.6741	5.94856	-11.79225	1	13.20767	-63.2315	-6.177622E-006	0.0006515	10
	30	84	298.2954	6.676522	-14.44041	1	15.90916	-65.18655	-6.764399E-006	0.0006584	10
	31	87	237.7717	7.597471	-17.52955	1	19.10515	-66.56764	-6.95692E-006	0.0006479	10
	32	89	189.0121	8.794871	-21.25372	1	23.00153	-67.52004	-6.867995E-006	0.0006505	10
	33	92	150.2404	10.30493	-25.65574	1	27.64794	-68.11655	-6.672694E-006	0.0006491	10
	34	94	119.1737	12.18167	-30.89649	1	33.21123	-68.48199	-5.905305E-006	0.0006506	10
	35	96	95.0169	14.36122	-36.89754	1	39.59386	-68.73308	-6.009054E-006	0.0006471	10
	36	99	75.60484	16.86982	-43.97229	1	47.09728	-69.01086	-2.51089E-006	5.010354E-005	9
	37	101	54.50582	20.98791	-56.55333	1	60.32223	-69.63925	-2.545929E-006	4.774996E-005	9
	38	104	45.95588	23.35667	-64.59782	1	68.6907	-70.12151	-2.453939E-006	5.518164E-005	9
	39	106	37.20238	26.49681	-76.32963	1	80.79785	-70.85624	-2.421717E-006	6.34919E-005	9
	40	109	30.04808	29.94905	-90.70152	1	95.5181	-71.72712	-2.400624E-006	4.677653E-005	9
	41	111	23.91582	34.16983	-109.6722	1	114.872	-72.69489	-2.801805E-006	4.73847E-005	9
	42	113	18.60119	39.56242	-135.6934	1	141.3431	-73.74556	-2.281689E-006	5.096288E-005	9
	43	116	15.02404	45.19994	-163.3231	1	169.4623	-74.53049	-2.049417E-006	6.044182E-005	9
	44	118	12.01923	52.78358	-198.8095	1	205.6971	-75.1311	-2.822662E-006	4.376203E-005	9
	45	120	9.450605	63.43148	-246.0545	1	254.0991	-75.54421	-2.711926E-006	5.372638E-005	9
	46	123	7.512019	77.27804	-301.8405	1	311.576	-75.63944	-2.505201E-006	5.683533E-005	9
	47	126	5.978954	95.8342	-368.9582	1	381.2012	-75.4396	-2.345774E-006	4.629478E-005	9
	48	129	4.734848	121.273	-450.6453	1	466.678	-74.93798	-2.794523E-006	0.0006505	8
	49	132	3.75601	156.3633	-549.4539	1	571.2697	-74.11473	-3.185814E-006	0.0006166	8
	50	135	3.004808	201.8897	-661.3709	1	691.4991	-73.0247	-2.895843E-006	0.0006107	8
	51	139	2.372217	265.7473	-799.6685	1	842.6691	-71.61723	-3.009034E-006	0.0005972	8
	52	143	1.878005	349.8669	-956.375	1	1018.362	-69.90617	-3.020238E-006	0.0006399	8
	53	148	1.512097	444.4689	-1119.571	1	1204.571	-68.34695	-2.910571E-006	0.0005214	8
	54	153	1.201923	565.251	-1313.433	1	1429.9	-66.71481	-2.901514E-006	0.0006434	8
	55	160	0.956633	703.4321	-1527.486	1	1681.675	-65.27316	-2.907547E-006	-7.133448E-006	8
