EXPLAIN
TAG	EISPOT
TITLE	LABEL	Potentiostatic EIS	Test Identifier
DATE	LABEL	9/13/2020	Date
TIME	LABEL	13:00:29	Time
NOTES	NOTES	1	Notes...
	
PSTAT	PSTAT	REF3000-16137	Potentiostat
VDC	POTEN	0.00000E+000	T	DC Voltage (V)
FREQINIT	QUANT	3.00000E+005	Initial Freq. (Hz)
FREQFINAL	QUANT	1.00000E+000	Final Freq. (Hz)
PTSPERDEC	QUANT	1.00000E+001	Points/decade
VAC	QUANT	5.00000E+001	AC Voltage (mV rms)
AREA	QUANT	1.00000E+000	Sample Area (cm^2)
SPEED	SELECTOR	2	Optimize for:
ZGUESS	QUANT	1.00000E+003	Estimated Z (ohms)
EOC	QUANT	0	Open Circuit (V)
SEQUENCER	TOGGLE	TRUE	Run as Sequence
PSTATMODEL	IQUANT	5	Pstat Model
PSTATSECTION	LABEL	REF3000-16137	Pstat Section
PSTATSERIALNO	LABEL	16137	Pstat Serial Number
CTRLMODE	IQUANT	1	Control Mode
IESTAB	IQUANT	0	I/E Stability
CASPEED	IQUANT	1	Control Amp Speed
CONVENTION	IQUANT	1	Current Convention
ICHRANGE	IQUANT	2	Ich Range
ICHRANGEMODE	TOGGLE	F	Ich Auto Range
ICHOFFSETENABLE	TOGGLE	T	Ich Offset Enable
ICHOFFSET	QUANT	0	Ich Offset (V)
ICHFILTER	IQUANT	3	Ich Filter
VCHRANGE	IQUANT	2	Vch Range
VCHRANGEMODE	TOGGLE	F	Vch Auto Range
VCHOFFSETENABLE	TOGGLE	T	Vch Offset Enable
VCHOFFSET	QUANT	0	Vch Offset (V)
VCHFILTER	IQUANT	3	Vch Filter
ACHRANGE	IQUANT	2	Ach Range
ACHOFFSETENABLE	TOGGLE	F	Ach Offset Enable
ACHOFFSET	QUANT	0	Ach Offset (V)
ACHFILTER	IQUANT	3	Ach Filter
IERANGELOWERLIMIT	IQUANT	2	I/E Range Lower Limit
IERANGEMODE	TOGGLE	F	I/E AutoRange
IERANGE	IQUANT	11	I/E Range
POSFEEDENABLE	TOGGLE	F	Positive Feedback IR Comp
POSFEEDRESISTANCE	QUANT	0	Positive Feedback Resistance (ohm)
ACHSELECT	IQUANT	0	Ach Select
CABLEID	IQUANT	13	Cable ID
DCCALDATE	LABEL	7/31/2020	DC Calibration Date
ACCALDATE	LABEL	7/31/2020	AC Calibration Date
THERMOSELECT	IQUANT	1	Thermo Select
FRAMEWORKVERSION	QUANT	6.33	Framework Version
INSTRUMENTVERSION	LABEL	3.50	Instrument Version
COMPLIANCEVOLTAGE	IQUANT	0	Compliance Voltage
ZCURVE	TABLE
	Pt	Time	Freq	Zreal	Zimag	Zsig	Zmod	Zphz	Idc	Vdc	IERange
	#	s	Hz	ohm	ohm	V	ohm	°	A	V	#
	0	10	300046.9	5.018834	2.209926	1	5.483837	23.76517	2.573149E-005	5.215508E-005	10
	1	14	238359.4	4.982745	1.73974	1	5.27773	19.2468	1.031862E-005	-0.0002008	10
	2	17	189328.1	4.967006	1.362794	1	5.150569	15.34265	5.944046E-005	-0.0001281	10
	3	19	150421.9	4.969523	1.068085	1	5.083007	12.12988	5.509517E-006	0.0003645	10
	4	22	119484.4	4.970341	0.8104996	1	5.03599	9.261546	-2.343431E-005	0.0003906	10
	5	24	94921.88	4.979688	0.6232446	1	5.018538	7.133894	-2.170344E-005	0.0004784	10
	6	27	75421.88	4.988068	0.4463166	1	5.007995	5.11303	2.447524E-005	0.0004838	10
	7	29	59859.37	4.997597	0.2956293	1	5.006333	3.385346	-2.37888E-005	0.0005636	10
	8	32	47578.12	5.010472	0.1639104	1	5.013153	1.873681	-2.847201E-005	0.0005815	10
	9	34	37828.12	5.024941	0.0444744	1	5.025138	0.5070964	-8.561517E-006	0.0006008	10
	10	37	30046.88	5.039738	-0.068967	1	5.04021	-0.7840236	-1.364897E-005	0.0006021	10
	11	41	23859.38	5.057731	-0.1820378	1	5.061006	-2.061299	2.026234E-005	0.0006048	10
	12	43	18984.38	5.073609	-0.2993111	1	5.08243	-3.376179	1.946786E-005	0.0006163	10
	13	45	15046.87	5.092052	-0.4311441	1	5.110272	-4.839691	1.975301E-005	0.000638	10
	14	47	11953.13	5.113088	-0.5801913	1	5.145901	-6.473765	-2.154368E-005	0.0007215	10
	15	50	9515.62	5.135489	-0.7543073	1	5.19059	-8.355931	-3.172093E-005	0.0006452	10
	16	52	7546.875	5.163106	-0.964788	1	5.252474	-10.58434	1.884757E-005	0.000629	10
	17	54	5928.309	5.199736	-1.232958	1	5.343916	-13.33958	-2.550666E-005	0.000658	10
	18	57	4733.456	5.240543	-1.538266	1	5.461644	-16.35864	-1.798378E-005	0.0006461	10
	19	59	3796.875	5.290187	-1.902977	1	5.622046	-19.78459	-2.873917E-005	0.0006415	10
	20	61	2987.132	5.357732	-2.389179	1	5.8663	-24.03358	-2.700811E-005	0.0006649	10
	21	64	2390.625	5.436562	-2.945165	1	6.183058	-28.44587	-9.000928E-006	0.0006377	10
	22	66	1884.191	5.543454	-3.677246	1	6.652219	-33.55828	3.52615E-006	0.0006413	10
	23	68	1516.544	5.666895	-4.496902	1	7.234351	-38.43337	-2.564807E-005	0.0006644	10
	24	71	1193.986	5.840293	-5.604691	1	8.094541	-43.8207	-1.582925E-005	0.0006694	10
	25	73	946.5144	6.06093	-6.929213	1	9.205914	-48.82406	-1.561375E-005	0.0006589	10
	26	75	751.7689	6.326676	-8.556637	1	10.64156	-53.52121	-1.603857E-005	0.0006689	10
	27	78	597.4265	6.669228	-10.53984	1	12.47264	-57.67585	-2.746449E-005	0.0006649	10
	28	80	477.4305	7.098946	-12.90976	1	14.73285	-61.19406	-2.947854E-006	0.0006555	10
	29	82	376.6741	7.673055	-15.98742	1	17.73339	-64.36163	-2.960032E-006	0.0006488	10
	30	85	298.2954	8.39898	-19.72234	1	21.43627	-66.93273	-3.158856E-006	0.0006524	10
	31	87	237.7717	9.304974	-24.17035	1	25.89958	-68.94456	-2.343534E-006	0.0006485	10
	32	90	189.0121	10.48869	-29.67352	1	31.47269	-70.53304	-2.783887E-006	0.0006518	10
	33	92	150.2404	12.02266	-36.38307	1	38.31804	-71.71404	-3.027652E-006	0.00065	10
	34	94	119.1737	14.02475	-44.58768	1	46.74137	-72.53939	9.631621E-007	5.19002E-005	9
	35	97	95.0169	16.5976	-54.34488	1	56.82294	-73.01669	9.672061E-007	5.166033E-005	9
	36	99	75.60484	19.96923	-66.19649	1	69.14293	-73.21323	8.582878E-007	4.548626E-005	9
	37	102	54.50582	26.55947	-87.28817	1	91.23941	-73.07639	8.549691E-007	4.367773E-005	9
	38	104	45.95588	30.99117	-100.5353	1	105.2036	-72.86749	1.120848E-006	4.824407E-005	9
	39	107	37.20238	37.5527	-119.3462	1	125.1149	-72.53365	1.036594E-006	5.47225E-005	9
	40	109	30.04808	45.51482	-141.4709	1	148.6123	-72.16569	8.245705E-007	5.038305E-005	9
	41	112	23.91582	55.46093	-169.1434	1	178.004	-71.84605	8.628984E-007	4.657215E-005	9
	42	114	18.60119	67.8828	-205.2946	1	216.2266	-71.703	8.610253E-007	5.979078E-005	9
	43	116	15.02404	79.76742	-242.1242	1	254.9255	-71.76562	1.010102E-006	6.437408E-005	9
	44	118	12.01923	93.30126	-288.1255	1	302.8554	-72.05692	1.049445E-006	5.334558E-005	9
	45	121	9.450605	109.21	-348.754	1	365.4534	-72.6124	1.011849E-006	5.945869E-005	9
	46	123	7.512019	125.3806	-418.3321	1	436.7174	-73.31572	3.527998E-007	0.0006226	8
	47	126	5.978954	143.617	-505.4731	1	525.4797	-74.13889	3.533816E-007	0.0006292	8
	48	129	4.734848	165.4506	-616.2823	1	638.1049	-74.9724	4.053847E-007	0.0006095	8
	49	132	3.75601	190.6315	-752.8313	1	776.5921	-75.79028	4.507039E-007	0.0006436	8
	50	136	3.004808	220.5708	-915.5203	1	941.7159	-76.45422	4.45951E-007	0.0006067	8
	51	140	2.372217	260.0796	-1130.547	1	1160.077	-77.04465	4.035149E-007	0.0005608	8
	52	144	1.878005	310.8817	-1392.514	1	1426.795	-77.41497	4.264061E-007	0.0006393	8
	53	149	1.512097	373.741	-1688.806	1	1729.667	-77.52129	3.837712E-007	0.0005486	8
	54	154	1.201923	457.0882	-2080.875	1	2130.486	-77.61108	3.99114E-007	0.0006577	8
	55	160	0.956633	568.5329	-2554.278	1	2616.785	-77.45162	3.535059E-007	-1.151817E-005	8
