EXPLAIN
TAG	EISPOT
TITLE	LABEL	Potentiostatic EIS	Test Identifier
DATE	LABEL	9/13/2020	Date
TIME	LABEL	12:12:23	Time
NOTES	NOTES	1	Notes...
	
PSTAT	PSTAT	REF3000-16137	Potentiostat
VDC	POTEN	0.00000E+000	T	DC Voltage (V)
FREQINIT	QUANT	3.00000E+005	Initial Freq. (Hz)
FREQFINAL	QUANT	1.00000E+000	Final Freq. (Hz)
PTSPERDEC	QUANT	1.00000E+001	Points/decade
VAC	QUANT	5.00000E+001	AC Voltage (mV rms)
AREA	QUANT	1.00000E+000	Sample Area (cm^2)
SPEED	SELECTOR	2	Optimize for:
ZGUESS	QUANT	1.00000E+003	Estimated Z (ohms)
EOC	QUANT	0	Open Circuit (V)
SEQUENCER	TOGGLE	TRUE	Run as Sequence
PSTATMODEL	IQUANT	5	Pstat Model
PSTATSECTION	LABEL	REF3000-16137	Pstat Section
PSTATSERIALNO	LABEL	16137	Pstat Serial Number
CTRLMODE	IQUANT	1	Control Mode
IESTAB	IQUANT	0	I/E Stability
CASPEED	IQUANT	1	Control Amp Speed
CONVENTION	IQUANT	1	Current Convention
ICHRANGE	IQUANT	2	Ich Range
ICHRANGEMODE	TOGGLE	F	Ich Auto Range
ICHOFFSETENABLE	TOGGLE	T	Ich Offset Enable
ICHOFFSET	QUANT	0	Ich Offset (V)
ICHFILTER	IQUANT	3	Ich Filter
VCHRANGE	IQUANT	2	Vch Range
VCHRANGEMODE	TOGGLE	F	Vch Auto Range
VCHOFFSETENABLE	TOGGLE	T	Vch Offset Enable
VCHOFFSET	QUANT	0	Vch Offset (V)
VCHFILTER	IQUANT	3	Vch Filter
ACHRANGE	IQUANT	2	Ach Range
ACHOFFSETENABLE	TOGGLE	F	Ach Offset Enable
ACHOFFSET	QUANT	0	Ach Offset (V)
ACHFILTER	IQUANT	3	Ach Filter
IERANGELOWERLIMIT	IQUANT	2	I/E Range Lower Limit
IERANGEMODE	TOGGLE	F	I/E AutoRange
IERANGE	IQUANT	11	I/E Range
POSFEEDENABLE	TOGGLE	F	Positive Feedback IR Comp
POSFEEDRESISTANCE	QUANT	0	Positive Feedback Resistance (ohm)
ACHSELECT	IQUANT	0	Ach Select
CABLEID	IQUANT	13	Cable ID
DCCALDATE	LABEL	7/31/2020	DC Calibration Date
ACCALDATE	LABEL	7/31/2020	AC Calibration Date
THERMOSELECT	IQUANT	1	Thermo Select
FRAMEWORKVERSION	QUANT	6.33	Framework Version
INSTRUMENTVERSION	LABEL	3.50	Instrument Version
COMPLIANCEVOLTAGE	IQUANT	0	Compliance Voltage
ZCURVE	TABLE
	Pt	Time	Freq	Zreal	Zimag	Zsig	Zmod	Zphz	Idc	Vdc	IERange
	#	s	Hz	ohm	ohm	V	ohm	°	A	V	#
	0	10	300046.9	2.975235	1.841802	1	3.49918	31.75934	-4.240862E-005	-0.0001831	11
	1	13	238359.4	2.988185	1.394642	1	3.297617	25.01935	3.017017E-005	-7.504239E-005	10
	2	16	189328.1	3.089789	0.779628	1	3.186631	14.1615	-5.265894E-005	-0.0002328	12
	3	20	150421.9	3.110212	0.6871774	1	3.185221	12.45891	-0.0001362	0.0001567	11
	4	23	119484.4	3.178542	0.4580626	1	3.211379	8.200488	7.422952E-005	0.0003972	11
	5	25	94921.88	3.244005	0.2817005	1	3.256213	4.962958	-4.213145E-005	0.0005339	11
	6	28	75421.88	3.30425	0.1443071	1	3.3074	2.5007	-1.25339E-005	0.0005841	11
	7	30	59859.37	3.36116	0.036674	1	3.36136	0.625136	-4.820009E-005	0.0005989	11
	8	33	47578.12	3.409447	-0.0489989	1	3.409799	-0.8233709	-5.016898E-006	0.0006434	11
	9	35	37828.12	3.450636	-0.12127	1	3.452766	-2.012789	-1.34479E-005	0.0006488	11
	10	38	30046.88	3.486997	-0.1876084	1	3.49204	-3.079674	-1.939662E-005	0.0006541	11
	11	40	23859.38	3.521492	-0.2490628	1	3.530289	-4.045593	-1.775953E-005	0.0006679	10
	12	43	18984.38	3.549175	-0.3205273	1	3.563619	-5.160404	-2.68347E-005	0.0006341	10
	13	45	15046.87	3.576169	-0.4024562	1	3.598744	-6.420957	1.056859E-005	0.0006181	10
	14	47	11953.13	3.604296	-0.4969838	1	3.638398	-7.85081	-2.373333E-005	0.0006239	10
	15	50	9515.62	3.633095	-0.609578	1	3.683879	-9.52464	1.184982E-006	0.000606	10
	16	52	7546.875	3.662585	-0.7478019	1	3.738146	-11.53966	-1.951479E-006	0.000612	10
	17	54	5928.309	3.698487	-0.9262528	1	3.812709	-14.06002	-3.359027E-005	0.0006576	10
	18	57	4733.456	3.737076	-1.130689	1	3.904382	-16.83371	-3.173427E-005	0.0006512	10
	19	59	3796.875	3.783483	-1.376073	1	4.025956	-19.9866	7.214209E-006	0.0006434	10
	20	61	2987.132	3.845062	-1.703394	1	4.205479	-23.89373	-2.943048E-005	0.0006627	10
	21	63	2390.625	3.915716	-2.076797	1	4.432372	-27.94035	-2.727521E-005	0.0006727	10
	22	66	1884.191	4.010842	-2.568462	1	4.762757	-32.63467	-3.151314E-005	0.0007089	10
	23	68	1516.544	4.119104	-3.116433	1	5.165189	-37.11043	1.153723E-005	0.000637	10
	24	70	1193.986	4.269364	-3.855056	1	5.752298	-42.08071	-5.475454E-006	0.0006172	10
	25	73	946.5144	4.458541	-4.741584	1	6.508549	-46.76216	-1.470673E-005	0.0006198	10
	26	75	751.7689	4.702304	-5.81128	1	7.47547	-51.02131	-2.056673E-005	0.0006389	10
	27	78	597.4265	5.016364	-7.11635	1	8.706683	-54.81973	-3.557151E-005	0.0006649	10
	28	80	477.4305	5.418547	-8.656198	1	10.21227	-57.95454	-1.003577E-005	0.0006468	10
	29	82	376.6741	5.973265	-10.62408	1	12.18815	-60.65364	-1.054097E-005	0.0006481	10
	30	84	298.2954	6.684847	-12.95788	1	14.5806	-62.71122	-1.034656E-005	0.0006526	10
	31	87	237.7717	7.57091	-15.65633	1	17.39079	-64.19305	-1.049009E-005	0.0006486	10
	32	89	189.0121	8.695843	-18.87971	1	20.78608	-65.26958	-1.006594E-005	0.0006502	10
	33	92	150.2404	10.07346	-22.66493	1	24.8027	-66.03719	-9.746018E-006	0.0006457	10
	34	94	119.1737	11.71566	-27.15919	1	29.57834	-66.66608	-1.047144E-005	0.000649	10
	35	96	95.0169	13.54924	-32.32836	1	35.05288	-67.26081	-1.068384E-005	0.0006528	10
	36	99	75.60484	15.58395	-38.48288	1	41.51857	-67.95412	-7.156915E-006	5.147058E-005	9
	37	101	54.50582	18.84624	-49.6441	1	53.10101	-69.21188	-7.123484E-006	5.205646E-005	9
	38	104	45.95588	20.723	-56.8948	1	60.55131	-69.98667	-7.098953E-006	6.048627E-005	9
	39	106	37.20238	23.26121	-67.59093	1	71.4816	-71.00925	-7.217127E-006	5.734942E-005	9
	40	109	30.04808	26.18781	-80.79842	1	84.93636	-72.04182	-7.357643E-006	5.247317E-005	9
	41	111	23.91582	29.91214	-98.2002	1	102.6549	-73.05907	-7.210665E-006	4.718149E-005	9
	42	113	18.60119	35.05365	-122.1646	1	127.0943	-73.98981	-6.784839E-006	4.818937E-005	9
	43	116	15.02404	40.82592	-147.4517	1	152.9993	-74.52384	-6.947585E-006	5.549379E-005	9
	44	118	12.01923	48.78689	-179.6279	1	186.1353	-74.80503	-6.802936E-006	5.505115E-005	9
	45	121	9.450605	60.40359	-222.1953	1	230.2593	-74.79173	-6.875261E-006	4.626562E-005	9
	46	123	7.512019	75.87372	-271.6454	1	282.0426	-74.39433	-6.622612E-006	4.98755E-005	9
	47	126	5.978954	96.7845	-330.4027	1	344.2865	-73.67317	-6.556863E-006	4.769554E-005	9
	48	129	4.734848	125.9521	-402.3469	1	421.6004	-72.61761	-6.904569E-006	4.030312E-005	9
	49	132	3.75601	164.0649	-482.6339	1	509.7575	-71.22523	-7.334793E-006	0.0006993	8
	50	135	3.004808	212.6063	-572.8723	1	611.0516	-69.63893	-7.53679E-006	0.0006674	8
	51	139	2.372217	277.6118	-680.4009	1	734.8563	-67.80395	-7.395283E-006	0.0006938	8
	52	143	1.878005	357.3893	-797.4221	1	873.8473	-65.85899	-7.327169E-006	0.0006129	8
	53	148	1.512097	442.9621	-917.7355	1	1019.046	-64.23486	-7.255135E-006	0.0007367	8
	54	159	1.201923	545.5216	-1061.613	1	1193.573	-62.80314	-7.172693E-006	0.000608	8
	55	172	0.956633	660.736	-1224.114	1	1391.053	-61.64131	-7.230354E-006	-5.575102E-007	8
