EXPLAIN
TAG	EISPOT
TITLE	LABEL	Potentiostatic EIS	Test Identifier
DATE	LABEL	9/13/2020	Date
TIME	LABEL	13:46:51	Time
NOTES	NOTES	1	Notes...
	
PSTAT	PSTAT	REF3000-16137	Potentiostat
VDC	POTEN	0.00000E+000	T	DC Voltage (V)
FREQINIT	QUANT	3.00000E+005	Initial Freq. (Hz)
FREQFINAL	QUANT	1.00000E+000	Final Freq. (Hz)
PTSPERDEC	QUANT	1.00000E+001	Points/decade
VAC	QUANT	5.00000E+001	AC Voltage (mV rms)
AREA	QUANT	1.00000E+000	Sample Area (cm^2)
SPEED	SELECTOR	2	Optimize for:
ZGUESS	QUANT	1.00000E+003	Estimated Z (ohms)
EOC	QUANT	0	Open Circuit (V)
SEQUENCER	TOGGLE	TRUE	Run as Sequence
PSTATMODEL	IQUANT	5	Pstat Model
PSTATSECTION	LABEL	REF3000-16137	Pstat Section
PSTATSERIALNO	LABEL	16137	Pstat Serial Number
CTRLMODE	IQUANT	1	Control Mode
IESTAB	IQUANT	0	I/E Stability
CASPEED	IQUANT	1	Control Amp Speed
CONVENTION	IQUANT	1	Current Convention
ICHRANGE	IQUANT	2	Ich Range
ICHRANGEMODE	TOGGLE	F	Ich Auto Range
ICHOFFSETENABLE	TOGGLE	T	Ich Offset Enable
ICHOFFSET	QUANT	0	Ich Offset (V)
ICHFILTER	IQUANT	3	Ich Filter
VCHRANGE	IQUANT	2	Vch Range
VCHRANGEMODE	TOGGLE	F	Vch Auto Range
VCHOFFSETENABLE	TOGGLE	T	Vch Offset Enable
VCHOFFSET	QUANT	0	Vch Offset (V)
VCHFILTER	IQUANT	3	Vch Filter
ACHRANGE	IQUANT	2	Ach Range
ACHOFFSETENABLE	TOGGLE	F	Ach Offset Enable
ACHOFFSET	QUANT	0	Ach Offset (V)
ACHFILTER	IQUANT	3	Ach Filter
IERANGELOWERLIMIT	IQUANT	2	I/E Range Lower Limit
IERANGEMODE	TOGGLE	F	I/E AutoRange
IERANGE	IQUANT	11	I/E Range
POSFEEDENABLE	TOGGLE	F	Positive Feedback IR Comp
POSFEEDRESISTANCE	QUANT	0	Positive Feedback Resistance (ohm)
ACHSELECT	IQUANT	0	Ach Select
CABLEID	IQUANT	13	Cable ID
DCCALDATE	LABEL	7/31/2020	DC Calibration Date
ACCALDATE	LABEL	7/31/2020	AC Calibration Date
THERMOSELECT	IQUANT	1	Thermo Select
FRAMEWORKVERSION	QUANT	6.33	Framework Version
INSTRUMENTVERSION	LABEL	3.50	Instrument Version
COMPLIANCEVOLTAGE	IQUANT	0	Compliance Voltage
ZCURVE	TABLE
	Pt	Time	Freq	Zreal	Zimag	Zsig	Zmod	Zphz	Idc	Vdc	IERange
	#	s	Hz	ohm	ohm	V	ohm	°	A	V	#
	0	16	300046.9	1732.839	-1210.158	1	2113.578	-34.92918	7.576639E-005	-0.0018006	9
	1	29	238359.4	2015.228	-1213.817	1	2352.551	-31.06149	1.683747E-005	-0.002201	9
	2	43	189328.1	2287.539	-1183.89	1	2575.739	-27.3633	5.101105E-005	0.0001271	9
	3	51	150421.9	2585.229	-1130.538	1	2821.617	-23.62008	-2.12299E-005	0.0015286	9
	4	62	119484.4	2812.724	-1025.727	1	2993.916	-20.03559	-1.996472E-005	0.0012673	9
	5	70	94921.88	3040.155	-838.3304	1	3153.623	-15.41633	-2.189413E-005	0.0100498	8
	6	76	75421.88	3198.812	-820.3034	1	3302.317	-14.38299	-2.492385E-005	0.0010611	9
	7	83	59859.37	3364.86	-648.6931	1	3426.819	-10.91187	2.419221E-005	-0.0049737	8
	8	89	47578.12	3508.503	-570.5061	1	3554.584	-9.235843	1.992932E-005	-0.0088167	8
	9	96	37828.12	3663.554	-489.6232	1	3696.128	-7.612303	-1.945244E-005	0.0030243	8
	10	103	30046.88	3811.433	-419.9472	1	3834.499	-6.28754	-1.01222E-005	0.009252	8
	11	110	23859.38	3947.047	-360.6268	1	3963.488	-5.220404	-2.46929E-005	0.0072521	8
	12	115	18984.38	4047.543	-298.9728	1	4058.57	-4.224495	-1.0264E-005	0.0092871	8
	13	121	15046.87	4135.331	-267.2516	1	4143.958	-3.697679	-2.260474E-005	0.0053104	8
	14	126	11953.13	4257.866	-225.1275	1	4263.813	-3.026599	-1.546948E-005	0.0009372	8
	15	131	9515.62	4364.185	-189.1548	1	4368.282	-2.481791	1.427246E-005	-0.0084431	8
	16	137	7546.875	4473.667	-126.9235	1	4475.468	-1.625117	1.683347E-005	0.0001002	8
	17	142	5928.309	4578.378	-123.0793	1	4580.033	-1.539895	1.674876E-005	1.835984E-005	8
	18	147	4733.456	4667.577	-115.3489	1	4669.002	-1.415651	2.457119E-005	-0.0050753	8
	19	153	3796.875	4801.105	-104.698	1	4802.247	-1.249255	-2.474571E-005	0.0091667	8
	20	158	2987.132	4936.156	-57.68441	1	4936.493	-0.6695336	-1.766087E-005	0.0104676	8
	21	163	2390.625	5030.84	-64.83943	1	5031.258	-0.7384095	-2.481047E-005	0.0073789	8
	22	169	1884.191	5170.565	-31.29838	1	5170.66	-0.3468176	-2.487338E-005	0.0091745	8
	23	174	1516.544	5283.949	-38.25956	1	5284.088	-0.4148551	-2.279001E-005	0.0104474	8
	24	180	1193.986	5411.47	-55.21139	1	5411.751	-0.5845491	1.706019E-005	-2.99056E-005	8
	25	185	946.5144	5553.773	14.77232	1	5553.793	0.152399	-1.783573E-005	0.01073	8
	26	189	751.7689	5637.025	27.90048	1	5637.094	0.2835834	-2.452613E-005	0.0090122	8
	27	193	597.4265	5661.461	41.23013	1	5661.611	0.4172546	2.506944E-005	-0.0052635	8
	28	197	477.4305	5827.383	-57.31276	1	5827.665	-0.5634903	-3.762829E-007	0.0006343	8
	29	200	376.6741	5906.437	-53.46396	1	5906.679	-0.5186165	-8.327787E-008	0.0005963	7
	30	202	298.2954	5971.323	-60.52853	1	5971.629	-0.5807609	-9.133979E-008	0.0006596	7
	31	205	237.7717	6037.611	-70.30164	1	6038.021	-0.667119	-8.831742E-008	0.0005534	7
	32	207	189.0121	6106.848	-82.76241	1	6107.409	-0.7764474	-9.651947E-008	0.0005558	7
	33	209	150.2404	6174.594	-98.5964	1	6175.381	-0.9148258	-8.775024E-008	0.0005798	7
	34	212	119.1737	6247.187	-120.2875	1	6248.344	-1.103075	-6.394405E-008	0.000553	7
	35	214	95.0169	6317.226	-141.9865	1	6318.821	-1.287568	-9.984577E-008	0.0005768	7
	36	217	75.60484	6395.266	-171.9893	1	6397.578	-1.540497	-1.024287E-007	0.0005982	7
	37	219	54.50582	6477.686	-229.9805	1	6481.767	-2.033347	-9.697069E-008	0.0005418	7
	38	222	45.95588	6551.826	-264.4149	1	6557.16	-2.311056	-3.997242E-008	0.0006311	7
	39	224	37.20238	6629.066	-324.4778	1	6637.002	-2.802262	-1.562648E-007	0.0005657	7
	40	226	30.04808	6709.127	-385.8618	1	6720.214	-3.291624	-1.371277E-007	0.0006428	7
	41	229	23.91582	6794.289	-475.1233	1	6810.881	-4.00017	-1.172893E-007	0.0005661	7
	42	231	18.60119	6892.298	-607.0339	1	6918.979	-5.033295	7.577404E-008	0.0005544	7
	43	233	15.02404	6964.683	-727.3022	1	7002.555	-5.961628	-9.786778E-008	0.0005785	7
	44	236	12.01923	7068.806	-893.9019	1	7125.102	-7.207212	-1.247321E-007	0.000568	7
	45	238	9.450605	7167.089	-1120.52	1	7254.153	-8.88583	-5.843597E-008	0.0005657	7
	46	241	7.512019	7266.983	-1364.42	1	7393.963	-10.63382	-1.982426E-007	0.0006099	7
	47	243	5.978954	7421.037	-1719.225	1	7617.58	-13.04356	-1.31932E-007	0.000588	7
	48	246	4.734848	7573.353	-2127.466	1	7866.498	-15.69083	-1.288101E-007	0.0005297	7
	49	250	3.75601	7763.809	-2622.779	1	8194.858	-18.66606	-5.152635E-008	0.0005739	7
	50	253	3.004808	7983.139	-3225.7	1	8610.206	-22.00187	-5.395244E-008	0.0005903	7
	51	257	2.372217	8237.463	-3987.937	1	9152.019	-25.83265	-8.480139E-008	0.0005195	7
	52	261	1.878005	8543.936	-4963.957	1	9881.28	-30.15624	-6.661161E-008	0.0005984	7
	53	266	1.512097	8894.3	-6053.414	1	10758.83	-34.239	-7.54543E-008	0.000598	7
	54	271	1.201923	9352.599	-7487.521	1	11980.57	-38.68013	-7.269181E-008	0.0006128	7
	55	277	0.956633	9894.94	-9233.249	1	13533.76	-43.01879	-9.380813E-008	-4.102515E-005	7
