EXPLAIN
TAG	EISPOT
TITLE	LABEL	Potentiostatic EIS	Test Identifier
DATE	LABEL	9/13/2020	Date
TIME	LABEL	12:35:19	Time
NOTES	NOTES	1	Notes...
	
PSTAT	PSTAT	REF3000-16137	Potentiostat
VDC	POTEN	0.00000E+000	T	DC Voltage (V)
FREQINIT	QUANT	3.00000E+005	Initial Freq. (Hz)
FREQFINAL	QUANT	1.00000E+000	Final Freq. (Hz)
PTSPERDEC	QUANT	1.00000E+001	Points/decade
VAC	QUANT	5.00000E+001	AC Voltage (mV rms)
AREA	QUANT	1.00000E+000	Sample Area (cm^2)
SPEED	SELECTOR	2	Optimize for:
ZGUESS	QUANT	1.00000E+003	Estimated Z (ohms)
EOC	QUANT	0	Open Circuit (V)
SEQUENCER	TOGGLE	TRUE	Run as Sequence
PSTATMODEL	IQUANT	5	Pstat Model
PSTATSECTION	LABEL	REF3000-16137	Pstat Section
PSTATSERIALNO	LABEL	16137	Pstat Serial Number
CTRLMODE	IQUANT	1	Control Mode
IESTAB	IQUANT	0	I/E Stability
CASPEED	IQUANT	1	Control Amp Speed
CONVENTION	IQUANT	1	Current Convention
ICHRANGE	IQUANT	2	Ich Range
ICHRANGEMODE	TOGGLE	F	Ich Auto Range
ICHOFFSETENABLE	TOGGLE	T	Ich Offset Enable
ICHOFFSET	QUANT	0	Ich Offset (V)
ICHFILTER	IQUANT	3	Ich Filter
VCHRANGE	IQUANT	2	Vch Range
VCHRANGEMODE	TOGGLE	F	Vch Auto Range
VCHOFFSETENABLE	TOGGLE	T	Vch Offset Enable
VCHOFFSET	QUANT	0	Vch Offset (V)
VCHFILTER	IQUANT	3	Vch Filter
ACHRANGE	IQUANT	2	Ach Range
ACHOFFSETENABLE	TOGGLE	F	Ach Offset Enable
ACHOFFSET	QUANT	0	Ach Offset (V)
ACHFILTER	IQUANT	3	Ach Filter
IERANGELOWERLIMIT	IQUANT	2	I/E Range Lower Limit
IERANGEMODE	TOGGLE	F	I/E AutoRange
IERANGE	IQUANT	11	I/E Range
POSFEEDENABLE	TOGGLE	F	Positive Feedback IR Comp
POSFEEDRESISTANCE	QUANT	0	Positive Feedback Resistance (ohm)
ACHSELECT	IQUANT	0	Ach Select
CABLEID	IQUANT	13	Cable ID
DCCALDATE	LABEL	7/31/2020	DC Calibration Date
ACCALDATE	LABEL	7/31/2020	AC Calibration Date
THERMOSELECT	IQUANT	1	Thermo Select
FRAMEWORKVERSION	QUANT	6.33	Framework Version
INSTRUMENTVERSION	LABEL	3.50	Instrument Version
COMPLIANCEVOLTAGE	IQUANT	0	Compliance Voltage
ZCURVE	TABLE
	Pt	Time	Freq	Zreal	Zimag	Zsig	Zmod	Zphz	Idc	Vdc	IERange
	#	s	Hz	ohm	ohm	V	ohm	°	A	V	#
	0	10	300046.9	3.456123	2.089531	1	4.038679	31.15667	1.909809E-005	-0.0001161	10
	1	13	238359.4	3.445772	1.622645	1	3.808717	25.21616	-2.221374E-005	-0.0005128	10
	2	16	189328.1	3.458186	1.242279	1	3.674549	19.75974	8.066466E-006	-0.000131	10
	3	18	150421.9	3.483983	0.9424027	1	3.609191	15.13605	-4.208032E-005	0.0001726	10
	4	21	119484.4	3.503043	0.6953158	1	3.571383	11.22667	-1.243562E-005	0.0003081	10
	5	23	94921.88	3.531334	0.5105914	1	3.568056	8.227312	2.032589E-006	0.0003888	10
	6	26	75421.88	3.559621	0.3487282	1	3.576663	5.595284	2.407565E-005	0.0004023	10
	7	29	59859.37	3.587398	0.2146437	1	3.593813	3.42408	7.245084E-006	0.0004939	10
	8	31	47578.12	3.612788	0.1026127	1	3.614245	1.626913	-1.87688E-005	0.0005848	10
	9	34	37828.12	3.636095	0.0031851	1	3.636096	0.0501884	-2.068717E-005	0.0005735	10
	10	36	30046.88	3.660368	-0.0900086	1	3.661474	-1.408623	-2.208036E-005	0.0006373	10
	11	39	23859.38	3.680614	-0.1825382	1	3.685138	-2.839229	-2.983432E-005	0.0006634	10
	12	41	18984.38	3.700456	-0.2781673	1	3.710896	-4.298902	9.185904E-006	0.0006376	10
	13	43	15046.87	3.720484	-0.3850306	1	3.740355	-5.90847	-9.563376E-006	0.0006261	10
	14	46	11953.13	3.74151	-0.5063822	1	3.775622	-7.707672	-2.316072E-005	0.0006669	10
	15	48	9515.62	3.762681	-0.6484562	1	3.818149	-9.77824	-7.628372E-006	0.0006176	10
	16	50	7546.875	3.787251	-0.8208122	1	3.875178	-12.22861	-3.24685E-005	0.0006456	10
	17	52	5928.309	3.819099	-1.039588	1	3.958063	-15.22741	1.899064E-005	0.0006285	10
	18	55	4733.456	3.856617	-1.289045	1	4.066341	-18.48181	1.758132E-005	0.0006166	10
	19	57	3796.875	3.901586	-1.585645	1	4.211489	-22.11734	-1.69612E-005	0.0007143	10
	20	59	2987.132	3.9619	-1.982031	1	4.430023	-26.57756	1.440029E-005	0.0006178	10
	21	62	2390.625	4.027645	-2.433254	1	4.705598	-31.13778	1.019599E-005	0.0006295	10
	22	64	1884.191	4.119345	-3.025466	1	5.111012	-36.29554	-1.975862E-005	0.0006543	10
	23	66	1516.544	4.228566	-3.686015	1	5.609588	-41.07846	1.705241E-005	0.0006265	10
	24	69	1193.986	4.384238	-4.578047	1	6.338774	-46.23883	1.821623E-005	0.0006249	10
	25	71	946.5144	4.580008	-5.641983	1	7.266942	-50.93125	1.768906E-005	0.0006249	10
	26	73	751.7689	4.827501	-6.946093	1	8.458899	-55.20088	1.80855E-005	0.0006369	10
	27	76	597.4265	5.147079	-8.535832	1	9.96759	-58.91016	-2.812529E-005	0.0006619	10
	28	78	477.4305	5.55434	-10.42467	1	11.81205	-61.95099	-4.184707E-006	0.0006496	10
	29	80	376.6741	6.112591	-12.86509	1	14.2434	-64.5862	-4.283669E-006	0.0006548	10
	30	83	298.2954	6.836934	-15.80204	1	17.21767	-66.60373	-4.126608E-006	0.0006598	10
	31	85	237.7717	7.757486	-19.25742	1	20.76118	-68.05889	-4.202707E-006	0.0006489	10
	32	87	189.0121	8.971939	-23.46405	1	25.12085	-69.07466	-3.893629E-006	0.0006497	10
	33	90	150.2404	10.54201	-28.49314	1	30.3808	-69.69632	-3.875566E-006	0.0006499	10
	34	92	119.1737	12.55682	-34.51843	1	36.7314	-70.01006	-4.173523E-006	0.0006515	10
	35	94	95.0169	14.98038	-41.40856	1	44.03499	-70.11139	-4.341287E-007	5.024869E-005	9
	36	97	75.60484	17.93983	-49.6143	1	52.75809	-70.12073	-4.6113E-007	4.703308E-005	9
	37	100	54.50582	23.01671	-63.92855	1	67.94577	-70.1992	-5.688394E-007	4.841365E-005	9
	38	102	45.95588	26.02341	-72.90869	1	77.4138	-70.35691	-2.159973E-007	5.295485E-005	9
	39	104	37.20238	30.05799	-85.84873	1	90.95872	-70.70345	-4.664072E-007	5.315998E-005	9
	40	107	30.04808	34.47273	-101.508	1	107.2019	-71.24221	-4.104853E-007	4.941328E-005	9
	41	109	23.91582	39.56747	-121.8014	1	128.067	-72.00349	-5.955762E-007	5.716573E-005	9
	42	112	18.60119	45.86975	-149.6477	1	156.5198	-72.95874	-2.306844E-007	5.342371E-005	9
	43	114	15.02404	52.00373	-179.1777	1	186.5718	-73.81539	-4.84309E-007	4.501223E-005	9
	44	116	12.01923	59.58834	-217.0827	1	225.1126	-74.6506	-6.551281E-007	4.868431E-005	9
	45	119	9.450605	69.80268	-267.744	1	276.6935	-75.38786	-2.607587E-007	5.885325E-005	9
	46	121	7.512019	82.18102	-328.1398	1	338.2742	-75.93975	-2.896786E-007	7.620308E-005	9
	47	124	5.978954	98.7981	-401.9607	1	413.9244	-76.19099	-4.582832E-007	5.467942E-005	9
	48	127	4.734848	120.9621	-493.0205	1	507.6427	-76.21484	-9.742296E-007	0.0006378	8
	49	130	3.75601	151.1469	-605.1401	1	623.7307	-75.97607	-1.148385E-006	0.0006262	8
	50	133	3.004808	190.8909	-734.6916	1	759.0857	-75.4352	-8.769829E-007	0.0006001	8
	51	137	2.372217	247.7445	-900.5815	1	934.0366	-74.61875	-1.074288E-006	0.0005812	8
	52	141	1.878005	325.6773	-1093.961	1	1141.41	-73.42149	-1.024149E-006	0.0006404	8
	53	146	1.512097	419.0553	-1301.392	1	1367.197	-72.15116	-9.623972E-007	0.0005368	8
	54	151	1.201923	544.886	-1558.839	1	1651.326	-70.73312	-9.779615E-007	0.0006586	8
	55	158	0.956633	700.3346	-1847.668	1	1975.941	-69.24143	-1.040462E-006	-2.789114E-006	8
