EXPLAIN
TAG	EISPOT
TITLE	LABEL	Potentiostatic EIS	Test Identifier
DATE	LABEL	9/13/2020	Date
TIME	LABEL	13:06:07	Time
NOTES	NOTES	1	Notes...
	
PSTAT	PSTAT	REF3000-16137	Potentiostat
VDC	POTEN	0.00000E+000	T	DC Voltage (V)
FREQINIT	QUANT	3.00000E+005	Initial Freq. (Hz)
FREQFINAL	QUANT	1.00000E+000	Final Freq. (Hz)
PTSPERDEC	QUANT	1.00000E+001	Points/decade
VAC	QUANT	5.00000E+001	AC Voltage (mV rms)
AREA	QUANT	1.00000E+000	Sample Area (cm^2)
SPEED	SELECTOR	2	Optimize for:
ZGUESS	QUANT	1.00000E+003	Estimated Z (ohms)
EOC	QUANT	0	Open Circuit (V)
SEQUENCER	TOGGLE	TRUE	Run as Sequence
PSTATMODEL	IQUANT	5	Pstat Model
PSTATSECTION	LABEL	REF3000-16137	Pstat Section
PSTATSERIALNO	LABEL	16137	Pstat Serial Number
CTRLMODE	IQUANT	1	Control Mode
IESTAB	IQUANT	0	I/E Stability
CASPEED	IQUANT	1	Control Amp Speed
CONVENTION	IQUANT	1	Current Convention
ICHRANGE	IQUANT	2	Ich Range
ICHRANGEMODE	TOGGLE	F	Ich Auto Range
ICHOFFSETENABLE	TOGGLE	T	Ich Offset Enable
ICHOFFSET	QUANT	0	Ich Offset (V)
ICHFILTER	IQUANT	3	Ich Filter
VCHRANGE	IQUANT	2	Vch Range
VCHRANGEMODE	TOGGLE	F	Vch Auto Range
VCHOFFSETENABLE	TOGGLE	T	Vch Offset Enable
VCHOFFSET	QUANT	0	Vch Offset (V)
VCHFILTER	IQUANT	3	Vch Filter
ACHRANGE	IQUANT	2	Ach Range
ACHOFFSETENABLE	TOGGLE	F	Ach Offset Enable
ACHOFFSET	QUANT	0	Ach Offset (V)
ACHFILTER	IQUANT	3	Ach Filter
IERANGELOWERLIMIT	IQUANT	2	I/E Range Lower Limit
IERANGEMODE	TOGGLE	F	I/E AutoRange
IERANGE	IQUANT	11	I/E Range
POSFEEDENABLE	TOGGLE	F	Positive Feedback IR Comp
POSFEEDRESISTANCE	QUANT	0	Positive Feedback Resistance (ohm)
ACHSELECT	IQUANT	0	Ach Select
CABLEID	IQUANT	13	Cable ID
DCCALDATE	LABEL	7/31/2020	DC Calibration Date
ACCALDATE	LABEL	7/31/2020	AC Calibration Date
THERMOSELECT	IQUANT	1	Thermo Select
FRAMEWORKVERSION	QUANT	6.33	Framework Version
INSTRUMENTVERSION	LABEL	3.50	Instrument Version
COMPLIANCEVOLTAGE	IQUANT	0	Compliance Voltage
ZCURVE	TABLE
	Pt	Time	Freq	Zreal	Zimag	Zsig	Zmod	Zphz	Idc	Vdc	IERange
	#	s	Hz	ohm	ohm	V	ohm	°	A	V	#
	0	10	300046.9	5.878031	2.197193	1	6.275261	20.49561	2.95331E-005	0.0002732	10
	1	13	238359.4	5.864014	1.747681	1	6.118909	16.5959	2.254302E-005	-1.039696E-005	10
	2	16	189328.1	5.86119	1.373522	1	6.019976	13.18881	-0.0000994	0.0001217	10
	3	19	150421.9	5.852483	1.068464	1	5.949216	10.34632	1.103514E-005	0.0002862	10
	4	21	119484.4	5.866294	0.8162368	1	5.922807	7.921284	-2.976145E-005	0.0003776	10
	5	24	94921.88	5.876191	0.6308771	1	5.90996	6.127892	-7.043263E-008	0.0004871	10
	6	26	75421.88	5.883928	0.4518434	1	5.901252	4.391286	2.444363E-005	0.0005209	10
	7	29	59859.37	5.895446	0.2966715	1	5.902905	2.880816	-2.005034E-006	0.0005481	10
	8	31	47578.12	5.90992	0.1621015	1	5.912142	1.571155	8.726553E-006	0.0006079	10
	9	34	37828.12	5.925708	0.0393363	1	5.925838	0.3803378	1.793363E-005	0.0005663	10
	10	36	30046.88	5.943109	-0.0769577	1	5.943607	-0.7418851	1.68708E-005	0.0005915	10
	11	39	23859.38	5.962602	-0.1933284	1	5.965735	-1.857079	-8.254921E-006	0.0006226	10
	12	41	18984.38	5.981266	-0.3150657	1	5.989559	-3.015292	-1.791665E-005	0.0006842	10
	13	44	15046.87	6.001376	-0.4527131	1	6.018426	-4.313931	-6.156626E-006	0.0006046	10
	14	46	11953.13	6.025317	-0.6090097	1	6.056016	-5.771577	-2.833768E-005	0.0006983	10
	15	48	9515.62	6.051363	-0.7907831	1	6.102814	-7.445138	-1.92345E-005	0.0006326	10
	16	51	7546.875	6.081785	-1.011814	1	6.165378	-9.44567	1.197937E-005	0.0006238	10
	17	53	5928.309	6.121496	-1.292286	1	6.256414	-11.92047	3.20117E-006	0.0006056	10
	18	55	4733.456	6.165725	-1.612579	1	6.373114	-14.6568	-1.20296E-005	0.0006327	10
	19	58	3796.875	6.21776	-1.994557	1	6.529839	-17.7854	1.608528E-005	0.0006037	10
	20	60	2987.132	6.288553	-2.508506	1	6.770413	-21.74708	-2.600116E-005	0.000674	10
	21	62	2390.625	6.369771	-3.095579	1	7.082132	-25.91881	-2.112895E-005	0.0006512	10
	22	64	1884.191	6.481256	-3.868427	1	7.547941	-30.83145	-1.525207E-005	0.0006665	10
	23	67	1516.544	6.608944	-4.732332	1	8.128537	-35.60454	1.404867E-005	0.0006412	10
	24	69	1193.986	6.786723	-5.904607	1	8.995776	-41.02403	-2.767769E-005	0.000666	10
	25	72	946.5144	7.008604	-7.313027	1	10.12921	-46.2177	-1.732774E-005	0.0006959	10
	26	74	751.7689	7.288831	-9.029839	1	11.60453	-51.08974	-1.742912E-005	0.0006469	10
	27	76	597.4265	7.640219	-11.13394	1	13.50324	-55.5417	9.924673E-006	0.0006018	10
	28	79	477.4305	8.072793	-13.65148	1	15.85979	-59.40208	-2.432275E-006	0.0006508	10
	29	81	376.6741	8.657352	-16.92021	1	19.0064	-62.9031	-2.70659E-006	0.0006486	10
	30	83	298.2954	9.392219	-20.88947	1	22.9038	-65.7906	-3.558157E-006	0.0006477	10
	31	86	237.7717	10.30299	-25.61915	1	27.61326	-68.092	-6.978764E-006	0.0007001	10
	32	88	189.0121	11.48458	-31.48849	1	33.51746	-69.96191	-2.793255E-006	0.0006493	10
	33	90	150.2404	13.00184	-38.66125	1	40.78897	-71.41212	-2.436625E-006	0.0006435	10
	34	93	119.1737	14.97184	-47.46281	1	49.76821	-72.49245	1.166173E-006	4.775956E-005	9
	35	95	95.0169	17.49416	-57.98488	1	60.56643	-73.21133	1.172717E-006	4.076213E-005	9
	36	98	75.60484	20.80926	-70.85503	1	73.84755	-73.63313	1.078352E-006	4.222825E-005	9
	37	100	54.50582	27.35796	-93.98672	1	97.8875	-73.77061	1.043331E-006	3.990814E-005	9
	38	103	45.95588	31.85749	-108.6833	1	113.2562	-73.66296	1.094132E-006	5.461127E-005	9
	39	105	37.20238	38.6907	-129.6729	1	135.322	-73.3864	1.165881E-006	5.638253E-005	9
	40	108	30.04808	47.20732	-154.5013	1	161.5525	-73.00966	5.795367E-007	0.0000976	9
	41	110	23.91582	58.27266	-185.5672	1	194.5016	-72.56643	1.002575E-006	4.265003E-005	9
	42	112	18.60119	72.72663	-225.9929	1	237.4067	-72.16134	9.453931E-007	5.467364E-005	9
	43	115	15.02404	87.01642	-266.7375	1	280.5722	-71.93239	1.157496E-006	4.360641E-005	9
	44	117	12.01923	103.7609	-316.8614	1	333.4178	-71.8682	1.232568E-006	0.0001089	9
	45	119	9.450605	123.6473	-381.8445	1	401.365	-72.05722	1.195418E-006	4.312085E-005	9
	46	122	7.512019	143.6056	-455.6481	1	477.7424	-72.50683	4.363735E-007	0.0006184	8
	47	125	5.978954	165.8655	-547.4706	1	572.0449	-73.14492	4.492199E-007	0.0006768	8
	48	128	4.734848	191.468	-663.3414	1	690.4214	-73.89965	5.026922E-007	0.0006074	8
	49	131	3.75601	219.9058	-806.3347	1	835.7836	-74.74512	5.042822E-007	0.0006335	8
	50	134	3.004808	251.9323	-975.804	1	1007.801	-75.52354	5.287951E-007	0.0005922	8
	51	138	2.372217	292.2903	-1200.637	1	1235.704	-76.31773	5.037465E-007	0.0005483	8
	52	142	1.878005	341.8885	-1475.416	1	1514.51	-76.95348	4.834654E-007	0.0006842	8
	53	147	1.512097	401.623	-1788.292	1	1832.836	-77.34227	4.801727E-007	0.0005326	8
	54	152	1.201923	477.3658	-2202.152	1	2253.298	-77.76909	5.001987E-007	0.0006509	8
	55	159	0.956633	577.2011	-2706.309	1	2767.177	-77.96036	4.707112E-007	-1.576372E-005	8
