EXPLAIN
TAG	EISPOT
TITLE	LABEL	Potentiostatic EIS	Test Identifier
DATE	LABEL	9/13/2020	Date
TIME	LABEL	13:17:14	Time
NOTES	NOTES	1	Notes...
	
PSTAT	PSTAT	REF3000-16137	Potentiostat
VDC	POTEN	0.00000E+000	T	DC Voltage (V)
FREQINIT	QUANT	3.00000E+005	Initial Freq. (Hz)
FREQFINAL	QUANT	1.00000E+000	Final Freq. (Hz)
PTSPERDEC	QUANT	1.00000E+001	Points/decade
VAC	QUANT	5.00000E+001	AC Voltage (mV rms)
AREA	QUANT	1.00000E+000	Sample Area (cm^2)
SPEED	SELECTOR	2	Optimize for:
ZGUESS	QUANT	1.00000E+003	Estimated Z (ohms)
EOC	QUANT	0	Open Circuit (V)
SEQUENCER	TOGGLE	TRUE	Run as Sequence
PSTATMODEL	IQUANT	5	Pstat Model
PSTATSECTION	LABEL	REF3000-16137	Pstat Section
PSTATSERIALNO	LABEL	16137	Pstat Serial Number
CTRLMODE	IQUANT	1	Control Mode
IESTAB	IQUANT	0	I/E Stability
CASPEED	IQUANT	1	Control Amp Speed
CONVENTION	IQUANT	1	Current Convention
ICHRANGE	IQUANT	2	Ich Range
ICHRANGEMODE	TOGGLE	F	Ich Auto Range
ICHOFFSETENABLE	TOGGLE	T	Ich Offset Enable
ICHOFFSET	QUANT	0	Ich Offset (V)
ICHFILTER	IQUANT	3	Ich Filter
VCHRANGE	IQUANT	2	Vch Range
VCHRANGEMODE	TOGGLE	F	Vch Auto Range
VCHOFFSETENABLE	TOGGLE	T	Vch Offset Enable
VCHOFFSET	QUANT	0	Vch Offset (V)
VCHFILTER	IQUANT	3	Vch Filter
ACHRANGE	IQUANT	2	Ach Range
ACHOFFSETENABLE	TOGGLE	F	Ach Offset Enable
ACHOFFSET	QUANT	0	Ach Offset (V)
ACHFILTER	IQUANT	3	Ach Filter
IERANGELOWERLIMIT	IQUANT	2	I/E Range Lower Limit
IERANGEMODE	TOGGLE	F	I/E AutoRange
IERANGE	IQUANT	11	I/E Range
POSFEEDENABLE	TOGGLE	F	Positive Feedback IR Comp
POSFEEDRESISTANCE	QUANT	0	Positive Feedback Resistance (ohm)
ACHSELECT	IQUANT	0	Ach Select
CABLEID	IQUANT	13	Cable ID
DCCALDATE	LABEL	7/31/2020	DC Calibration Date
ACCALDATE	LABEL	7/31/2020	AC Calibration Date
THERMOSELECT	IQUANT	1	Thermo Select
FRAMEWORKVERSION	QUANT	6.33	Framework Version
INSTRUMENTVERSION	LABEL	3.50	Instrument Version
COMPLIANCEVOLTAGE	IQUANT	0	Compliance Voltage
ZCURVE	TABLE
	Pt	Time	Freq	Zreal	Zimag	Zsig	Zmod	Zphz	Idc	Vdc	IERange
	#	s	Hz	ohm	ohm	V	ohm	°	A	V	#
	0	7	300046.9	9.80287	2.18156	1	10.04268	12.54632	-2.685448E-005	4.045187E-005	10
	1	11	238359.4	9.80427	1.712511	1	9.95271	9.9079	2.035735E-005	0.000102	10
	2	14	189328.1	9.82007	1.348298	1	9.9122	7.817846	-1.540844E-005	0.0003589	10
	3	16	150421.9	9.8365	1.050045	1	9.89239	6.093242	-5.133562E-005	0.0005193	10
	4	19	119484.4	9.87547	0.798673	1	9.90771	4.623701	-1.452326E-005	0.0006016	10
	5	21	94921.88	9.90636	0.6172301	1	9.92557	3.565286	2.341937E-005	0.0005748	10
	6	24	75421.88	9.94013	0.4332229	1	9.94957	2.495555	-2.321235E-005	0.0006726	10
	7	26	59859.37	9.97837	0.2738228	1	9.98213	1.571895	-1.938417E-005	0.000587	10
	8	29	47578.12	10.02017	0.134849	1	10.02108	0.7710263	-2.905059E-005	0.000617	10
	9	31	37828.12	10.06243	0.0090146	1	10.06244	0.0513293	-7.432057E-006	0.0006151	10
	10	34	30046.88	10.10869	-0.1132359	1	10.10932	-0.6417913	-2.258471E-005	0.0006934	10
	11	36	23859.38	10.15326	-0.2398715	1	10.1561	-1.353364	-1.522555E-005	0.0006481	10
	12	39	18984.38	10.19932	-0.3733744	1	10.20615	-2.096536	-2.455997E-005	0.000684	10
	13	41	15046.87	10.24817	-0.5282564	1	10.26177	-2.950781	1.786862E-005	0.0006012	10
	14	43	11953.13	10.30027	-0.7027749	1	10.32421	-3.903174	1.999343E-005	0.000615	10
	15	46	9515.62	10.35683	-0.9063943	1	10.39642	-5.001586	-1.642861E-005	0.0006535	10
	16	48	7546.875	10.41949	-1.157445	1	10.48358	-6.338691	-2.312183E-005	0.0007025	10
	17	50	5928.309	10.49073	-1.477899	1	10.59432	-8.018867	-2.633017E-005	0.000681	10
	18	53	4733.456	10.56896	-1.842096	1	10.72829	-9.88694	2.253926E-005	0.0006245	10
	19	55	3796.875	10.65942	-2.278828	1	10.90029	-12.06735	3.353307E-006	0.000628	10
	20	57	2987.132	10.77132	-2.864706	1	11.14575	-14.89344	-2.634274E-005	0.0006661	10
	21	59	2390.625	10.8977	-3.535722	1	11.45693	-17.97548	-3.028458E-005	0.0006507	10
	22	62	1884.191	11.0572	-4.413704	1	11.90556	-21.76041	2.029256E-005	0.000609	10
	23	64	1516.544	11.24141	-5.400905	1	12.47153	-25.66184	1.477661E-005	0.0006415	10
	24	66	1193.986	11.48348	-6.731208	1	13.31088	-30.37731	-2.427359E-005	0.0006583	10
	25	69	946.5144	11.77652	-8.325505	1	14.42222	-35.25871	-2.473735E-005	0.0006856	10
	26	71	751.7689	12.12189	-10.27559	1	15.89113	-40.28756	1.949933E-005	0.0006308	10
	27	73	597.4265	12.54661	-12.65167	1	17.81803	-45.23889	1.770532E-005	0.0005907	10
	28	76	477.4305	13.05588	-15.50418	1	20.26908	-49.89967	-2.533889E-006	0.0006508	10
	29	78	376.6741	13.71466	-19.20882	1	23.60234	-54.47403	-5.75501E-006	0.0006965	10
	30	80	298.2954	14.52052	-23.72127	1	27.81266	-58.52792	-2.069892E-006	0.0006467	10
	31	83	237.7717	15.49651	-29.10922	1	32.97709	-61.97107	-2.457331E-006	0.000653	10
	32	85	189.0121	16.7304	-35.80886	1	39.52444	-64.95737	-2.156693E-006	0.0006451	10
	33	88	150.2404	18.25966	-43.98161	1	47.62139	-67.45344	8.071898E-007	0.0000995	9
	34	90	119.1737	20.24542	-54.17839	1	57.83749	-69.51025	1.28765E-006	4.560131E-005	9
	35	92	95.0169	22.72195	-66.38814	1	70.16888	-71.10602	1.179305E-006	4.79442E-005	9
	36	95	75.60484	25.92083	-81.45094	1	85.476	-72.34692	1.188574E-006	4.686099E-005	9
	37	97	54.50582	32.1643	-108.9596	1	113.6078	-73.55367	1.198889E-006	4.675363E-005	9
	38	100	45.95588	36.50722	-126.737	1	131.8902	-73.93069	1.296768E-006	5.064239E-005	9
	39	102	37.20238	43.16107	-152.5164	1	158.5059	-74.19886	1.23238E-006	4.816027E-005	9
	40	105	30.04808	51.77974	-183.6391	1	190.7995	-74.25342	1.23658E-006	5.199802E-005	9
	41	107	23.91582	63.5882	-223.206	1	232.087	-74.0985	7.890005E-007	0.0000975	9
	42	109	18.60119	80.36635	-275.7024	1	287.1769	-73.74877	1.255133E-006	4.607999E-005	9
	43	112	15.02404	98.3017	-328.7527	1	343.1349	-73.35259	1.224755E-006	5.523327E-005	9
	44	114	12.01923	121.4215	-393.4962	1	411.8039	-72.8513	1.517934E-006	5.399641E-005	9
	45	116	9.450605	150.3001	-473.8319	1	497.0984	-72.4009	6.777278E-007	0.0006219	8
	46	119	7.512019	182.8484	-566.3351	1	595.121	-72.10667	6.412658E-007	0.0006487	8
	47	122	5.978954	219.7018	-675.7945	1	710.6104	-71.99059	5.52345E-007	0.0006249	8
	48	125	4.734848	261.4235	-810.7315	1	851.8379	-72.12788	6.52323E-007	0.0006378	8
	49	128	3.75601	307.1133	-972.535	1	1019.874	-72.47459	5.600779E-007	0.0006205	8
	50	131	3.004808	355.0908	-1162.259	1	1215.292	-73.01115	6.12915E-007	0.0006018	8
	51	135	2.372217	411.0146	-1410.342	1	1469.012	-73.75234	5.876605E-007	0.0005716	8
	52	139	1.878005	474.7622	-1714.069	1	1778.604	-74.51835	5.870517E-007	0.0006413	8
	53	144	1.512097	543.3408	-2058.74	1	2129.232	-75.21566	5.644964E-007	0.0005549	8
	54	149	1.201923	623.6796	-2519.057	1	2595.115	-76.09409	5.885141E-007	0.0006525	8
	55	155	0.956633	722.2914	-3082.369	1	3165.865	-76.81184	5.661602E-007	-1.381127E-005	8
