EXPLAIN
TAG	EISPOT
TITLE	LABEL	Potentiostatic EIS	Test Identifier
DATE	LABEL	9/13/2020	Date
TIME	LABEL	13:08:55	Time
NOTES	NOTES	1	Notes...
	
PSTAT	PSTAT	REF3000-16137	Potentiostat
VDC	POTEN	0.00000E+000	T	DC Voltage (V)
FREQINIT	QUANT	3.00000E+005	Initial Freq. (Hz)
FREQFINAL	QUANT	1.00000E+000	Final Freq. (Hz)
PTSPERDEC	QUANT	1.00000E+001	Points/decade
VAC	QUANT	5.00000E+001	AC Voltage (mV rms)
AREA	QUANT	1.00000E+000	Sample Area (cm^2)
SPEED	SELECTOR	2	Optimize for:
ZGUESS	QUANT	1.00000E+003	Estimated Z (ohms)
EOC	QUANT	0	Open Circuit (V)
SEQUENCER	TOGGLE	TRUE	Run as Sequence
PSTATMODEL	IQUANT	5	Pstat Model
PSTATSECTION	LABEL	REF3000-16137	Pstat Section
PSTATSERIALNO	LABEL	16137	Pstat Serial Number
CTRLMODE	IQUANT	1	Control Mode
IESTAB	IQUANT	0	I/E Stability
CASPEED	IQUANT	1	Control Amp Speed
CONVENTION	IQUANT	1	Current Convention
ICHRANGE	IQUANT	2	Ich Range
ICHRANGEMODE	TOGGLE	F	Ich Auto Range
ICHOFFSETENABLE	TOGGLE	T	Ich Offset Enable
ICHOFFSET	QUANT	0	Ich Offset (V)
ICHFILTER	IQUANT	3	Ich Filter
VCHRANGE	IQUANT	2	Vch Range
VCHRANGEMODE	TOGGLE	F	Vch Auto Range
VCHOFFSETENABLE	TOGGLE	T	Vch Offset Enable
VCHOFFSET	QUANT	0	Vch Offset (V)
VCHFILTER	IQUANT	3	Vch Filter
ACHRANGE	IQUANT	2	Ach Range
ACHOFFSETENABLE	TOGGLE	F	Ach Offset Enable
ACHOFFSET	QUANT	0	Ach Offset (V)
ACHFILTER	IQUANT	3	Ach Filter
IERANGELOWERLIMIT	IQUANT	2	I/E Range Lower Limit
IERANGEMODE	TOGGLE	F	I/E AutoRange
IERANGE	IQUANT	11	I/E Range
POSFEEDENABLE	TOGGLE	F	Positive Feedback IR Comp
POSFEEDRESISTANCE	QUANT	0	Positive Feedback Resistance (ohm)
ACHSELECT	IQUANT	0	Ach Select
CABLEID	IQUANT	13	Cable ID
DCCALDATE	LABEL	7/31/2020	DC Calibration Date
ACCALDATE	LABEL	7/31/2020	AC Calibration Date
THERMOSELECT	IQUANT	1	Thermo Select
FRAMEWORKVERSION	QUANT	6.33	Framework Version
INSTRUMENTVERSION	LABEL	3.50	Instrument Version
COMPLIANCEVOLTAGE	IQUANT	0	Compliance Voltage
ZCURVE	TABLE
	Pt	Time	Freq	Zreal	Zimag	Zsig	Zmod	Zphz	Idc	Vdc	IERange
	#	s	Hz	ohm	ohm	V	ohm	°	A	V	#
	0	10	300046.9	6.493661	2.197875	1	6.85553	18.69915	1.826179E-005	0.0002772	10
	1	13	238359.4	6.485978	1.741661	1	6.71575	15.03089	6.160678E-005	-0.0002825	10
	2	17	189328.1	6.484837	1.367256	1	6.627405	11.90581	6.162396E-005	-1.437543E-005	10
	3	19	150421.9	6.483411	1.055882	1	6.568828	9.249924	4.921062E-005	0.0001373	10
	4	22	119484.4	6.491719	0.8154585	1	6.542735	7.159719	-9.139258E-005	0.000484	10
	5	24	94921.88	6.5024	0.6324148	1	6.533082	5.55504	-2.237292E-005	0.0005279	10
	6	27	75421.88	6.511563	0.4508137	1	6.52715	3.960427	1.809995E-005	0.0005151	10
	7	29	59859.37	6.525536	0.2955027	1	6.532223	2.592813	-2.93114E-005	0.0005786	10
	8	32	47578.12	6.541534	0.1585154	1	6.543455	1.388128	2.002484E-005	0.0005726	10
	9	34	37828.12	6.55979	0.035591	1	6.559886	0.3108624	2.477421E-006	0.0005905	10
	10	37	30046.88	6.580201	-0.0819718	1	6.580712	-0.7137163	-1.801471E-005	0.0006224	10
	11	39	23859.38	6.60099	-0.2005487	1	6.604036	-1.740203	-2.681671E-005	0.0006248	10
	12	42	18984.38	6.622191	-0.3248539	1	6.630155	-2.808413	1.657195E-005	0.0006456	10
	13	44	15046.87	6.64411	-0.4650995	1	6.660369	-4.004275	1.790076E-005	0.0006135	10
	14	46	11953.13	6.671338	-0.6240498	1	6.700462	-5.344007	-2.259748E-005	0.0006975	10
	15	49	9515.62	6.69997	-0.8103341	1	6.748796	-6.896195	-2.320605E-005	0.0007275	10
	16	51	7546.875	6.732896	-1.036408	1	6.812198	-8.750964	-9.144727E-006	0.0006429	10
	17	53	5928.309	6.773613	-1.324943	1	6.901979	-11.06752	-1.888531E-005	0.0006383	10
	18	55	4733.456	6.819347	-1.653619	1	7.016976	-13.63052	2.062712E-005	0.0006269	10
	19	58	3796.875	6.874264	-2.046942	1	7.17255	-16.58189	3.130882E-006	0.0006178	10
	20	60	2987.132	6.947407	-2.572714	1	7.408463	-20.32024	-1.729248E-005	0.0006421	10
	21	62	2390.625	7.03125	-3.176637	1	7.715537	-24.3129	8.847548E-006	0.0005984	10
	22	65	1884.191	7.143967	-3.970374	1	8.173135	-29.06382	4.641618E-006	0.0006461	10
	23	67	1516.544	7.274062	-4.86013	1	8.748305	-33.74868	2.144807E-005	0.0006244	10
	24	69	1193.986	7.454916	-6.065473	1	9.61071	-39.13251	-4.78898E-006	0.0006135	10
	25	72	946.5144	7.674755	-7.519919	1	10.74481	-44.41617	-5.255353E-006	0.0006086	10
	26	74	751.7689	7.959382	-9.285396	1	12.22989	-49.39703	-1.166222E-005	0.0006349	10
	27	77	597.4265	8.313328	-11.45795	1	14.15613	-54.03719	2.123078E-005	0.0006312	10
	28	79	477.4305	8.755832	-14.05821	1	16.56194	-58.08424	-1.917565E-006	0.0006483	10
	29	81	376.6741	9.345521	-17.43139	1	19.77857	-61.80282	-6.086551E-006	0.0006993	10
	30	84	298.2954	10.08596	-21.53268	1	23.77778	-64.9015	-2.605101E-006	0.0006532	10
	31	86	237.7717	11.0042	-26.42382	1	28.6236	-67.39072	-2.416431E-006	0.0006433	10
	32	88	189.0121	12.18532	-32.48637	1	34.69649	-69.43941	-2.09644E-006	0.0006494	10
	33	91	150.2404	13.70004	-39.90891	1	42.19493	-71.05354	-3.149201E-006	0.0007032	10
	34	93	119.1737	15.65567	-49.02871	1	51.46761	-72.29086	1.199669E-006	4.774017E-005	9
	35	96	95.0169	18.15183	-59.95922	1	62.6466	-73.15703	1.178412E-006	4.738042E-005	9
	36	98	75.60484	21.42676	-73.3598	1	76.42491	-73.71809	1.096474E-006	5.271285E-005	9
	37	101	54.50582	27.90557	-97.5785	1	101.4904	-74.0405	1.056122E-006	4.007428E-005	9
	38	103	45.95588	32.38608	-113.0343	1	117.5824	-74.01217	1.212245E-006	5.238457E-005	9
	39	105	37.20238	39.23446	-135.194	1	140.772	-73.81682	1.295559E-006	4.836489E-005	9
	40	108	30.04808	47.88919	-161.5042	1	168.4547	-73.48386	1.096293E-006	5.494692E-005	9
	41	110	23.91582	59.3688	-194.6192	1	203.4731	-73.03562	1.086789E-006	4.747827E-005	9
	42	113	18.60119	74.77596	-237.7522	1	249.2339	-72.54101	7.110369E-007	0.0001141	9
	43	115	15.02404	90.21409	-280.9612	1	295.0894	-72.19865	1.360005E-006	5.824154E-005	9
	44	117	12.01923	108.7627	-333.9081	1	351.1751	-71.95821	1.028626E-006	0.0001043	9
	45	120	9.450605	130.3645	-400.4729	1	421.1573	-71.96856	4.911503E-007	0.0006381	8
	46	122	7.512019	153.5269	-478.8906	1	502.8983	-72.22474	5.144274E-007	0.0006973	8
	47	125	5.978954	178.8548	-573.5714	1	600.8104	-72.68113	5.274608E-007	0.0006286	8
	48	128	4.734848	206.7293	-692.9948	1	723.1727	-73.38948	6.177748E-007	0.0006521	8
	49	131	3.75601	237.9583	-839.3152	1	872.3956	-74.17118	5.009509E-007	0.0006101	8
	50	135	3.004808	271.8209	-1013.122	1	1048.953	-74.98124	5.843674E-007	0.0006083	8
	51	138	2.372217	314.6637	-1240.383	1	1279.673	-75.76534	5.605551E-007	0.0006357	8
	52	143	1.878005	366.1478	-1525.377	1	1568.707	-76.50224	5.051417E-007	0.0006257	8
	53	147	1.512097	421.4991	-1848.466	1	1895.913	-77.15468	5.119292E-007	0.0005893	8
	54	153	1.201923	500.0404	-2272.317	1	2326.685	-77.58944	5.096076E-007	0.0006355	8
	55	159	0.956633	595.4694	-2788.948	1	2851.81	-77.94772	5.149413E-007	-1.116416E-005	8
