EXPLAIN
TAG	EISPOT
TITLE	LABEL	Potentiostatic EIS	Test Identifier
DATE	LABEL	9/13/2020	Date
TIME	LABEL	13:03:18	Time
NOTES	NOTES	1	Notes...
	
PSTAT	PSTAT	REF3000-16137	Potentiostat
VDC	POTEN	0.00000E+000	T	DC Voltage (V)
FREQINIT	QUANT	3.00000E+005	Initial Freq. (Hz)
FREQFINAL	QUANT	1.00000E+000	Final Freq. (Hz)
PTSPERDEC	QUANT	1.00000E+001	Points/decade
VAC	QUANT	5.00000E+001	AC Voltage (mV rms)
AREA	QUANT	1.00000E+000	Sample Area (cm^2)
SPEED	SELECTOR	2	Optimize for:
ZGUESS	QUANT	1.00000E+003	Estimated Z (ohms)
EOC	QUANT	0	Open Circuit (V)
SEQUENCER	TOGGLE	TRUE	Run as Sequence
PSTATMODEL	IQUANT	5	Pstat Model
PSTATSECTION	LABEL	REF3000-16137	Pstat Section
PSTATSERIALNO	LABEL	16137	Pstat Serial Number
CTRLMODE	IQUANT	1	Control Mode
IESTAB	IQUANT	0	I/E Stability
CASPEED	IQUANT	1	Control Amp Speed
CONVENTION	IQUANT	1	Current Convention
ICHRANGE	IQUANT	2	Ich Range
ICHRANGEMODE	TOGGLE	F	Ich Auto Range
ICHOFFSETENABLE	TOGGLE	T	Ich Offset Enable
ICHOFFSET	QUANT	0	Ich Offset (V)
ICHFILTER	IQUANT	3	Ich Filter
VCHRANGE	IQUANT	2	Vch Range
VCHRANGEMODE	TOGGLE	F	Vch Auto Range
VCHOFFSETENABLE	TOGGLE	T	Vch Offset Enable
VCHOFFSET	QUANT	0	Vch Offset (V)
VCHFILTER	IQUANT	3	Vch Filter
ACHRANGE	IQUANT	2	Ach Range
ACHOFFSETENABLE	TOGGLE	F	Ach Offset Enable
ACHOFFSET	QUANT	0	Ach Offset (V)
ACHFILTER	IQUANT	3	Ach Filter
IERANGELOWERLIMIT	IQUANT	2	I/E Range Lower Limit
IERANGEMODE	TOGGLE	F	I/E AutoRange
IERANGE	IQUANT	11	I/E Range
POSFEEDENABLE	TOGGLE	F	Positive Feedback IR Comp
POSFEEDRESISTANCE	QUANT	0	Positive Feedback Resistance (ohm)
ACHSELECT	IQUANT	0	Ach Select
CABLEID	IQUANT	13	Cable ID
DCCALDATE	LABEL	7/31/2020	DC Calibration Date
ACCALDATE	LABEL	7/31/2020	AC Calibration Date
THERMOSELECT	IQUANT	1	Thermo Select
FRAMEWORKVERSION	QUANT	6.33	Framework Version
INSTRUMENTVERSION	LABEL	3.50	Instrument Version
COMPLIANCEVOLTAGE	IQUANT	0	Compliance Voltage
ZCURVE	TABLE
	Pt	Time	Freq	Zreal	Zimag	Zsig	Zmod	Zphz	Idc	Vdc	IERange
	#	s	Hz	ohm	ohm	V	ohm	°	A	V	#
	0	11	300046.9	5.40521	2.216066	1	5.841853	22.29299	9.107747E-006	6.568435E-005	10
	1	14	238359.4	5.370888	1.745065	1	5.647273	17.9996	4.232706E-005	-6.230154E-005	10
	2	17	189328.1	5.364479	1.37147	1	5.537017	14.34093	-1.939114E-005	0.0001619	10
	3	19	150421.9	5.354411	1.065414	1	5.45938	11.25366	-3.356322E-005	0.0002505	10
	4	22	119484.4	5.365796	0.8129084	1	5.427024	8.614697	1.296334E-005	0.0004175	10
	5	25	94921.88	5.375695	0.6280259	1	5.412256	6.663484	2.673756E-005	0.0004864	10
	6	27	75421.88	5.382076	0.449404	1	5.400806	4.773131	1.935777E-005	0.0004947	10
	7	30	59859.37	5.393646	0.2972602	1	5.401832	3.154552	2.3282E-005	0.000549	10
	8	32	47578.12	5.407285	0.1639106	1	5.409769	1.736271	-1.002979E-005	0.0006286	10
	9	35	37828.12	5.421762	0.0428813	1	5.421932	0.4531491	-3.045149E-005	0.0006058	10
	10	37	30046.88	5.438318	-0.072256	1	5.438798	-0.7612138	4.920593E-006	0.0005824	10
	11	40	23859.38	5.455479	-0.1870455	1	5.458685	-1.963662	-2.910244E-005	0.000685	10
	12	42	18984.38	5.472781	-0.3067757	1	5.481372	-3.208346	2.279335E-005	0.0006252	10
	13	44	15046.87	5.492489	-0.440926	1	5.510159	-4.589748	-1.641044E-005	0.0006565	10
	14	47	11953.13	5.514025	-0.5940657	1	5.545934	-6.149168	-1.997658E-005	0.0006713	10
	15	49	9515.62	5.538408	-0.7715762	1	5.591896	-7.931041	-3.010858E-005	0.0006505	10
	16	51	7546.875	5.568209	-0.987928	1	5.65517	-10.06089	-2.073356E-005	0.0006375	10
	17	54	5928.309	5.604558	-1.261836	1	5.74485	-12.68827	2.138329E-005	0.0006362	10
	18	56	4733.456	5.647297	-1.574674	1	5.862727	-15.58042	-2.439032E-005	0.0006718	10
	19	58	3796.875	5.699102	-1.947473	1	6.022658	-18.86611	-2.081175E-005	0.0006959	10
	20	61	2987.132	5.766681	-2.446685	1	6.264254	-22.99052	1.837183E-005	0.0006357	10
	21	63	2390.625	5.847881	-3.016491	1	6.58004	-27.28588	2.249101E-005	0.00063	10
	22	65	1884.191	5.956958	-3.770639	1	7.05004	-32.33302	-2.47575E-005	0.000678	10
	23	68	1516.544	6.083279	-4.610686	1	7.633132	-37.1595	-3.931856E-006	0.0006231	10
	24	70	1193.986	6.258954	-5.749798	1	8.499099	-42.57219	-2.486714E-005	0.0006631	10
	25	72	946.5144	6.477167	-7.113921	1	9.62089	-47.6824	1.525479E-005	0.0006227	10
	26	75	751.7689	6.75097	-8.788085	1	11.08179	-52.46868	-2.1158E-005	0.0006738	10
	27	77	597.4265	7.102916	-10.83099	1	12.95229	-56.74331	-2.585135E-005	0.0006638	10
	28	79	477.4305	7.531721	-13.26928	1	15.2578	-60.42049	-2.440937E-006	0.0006562	10
	29	82	376.6741	8.110401	-16.43924	1	18.33104	-63.74028	-3.642268E-006	0.000646	10
	30	84	298.2954	8.840147	-20.28683	1	22.12925	-66.45445	-3.693553E-006	0.0006484	10
	31	86	237.7717	9.74796	-24.87036	1	26.7125	-68.59727	-3.042118E-006	0.0006505	10
	32	89	189.0121	10.92867	-30.55333	1	32.44907	-70.31831	-2.356083E-006	0.0006504	10
	33	91	150.2404	12.45424	-37.48843	1	39.50304	-71.6227	-2.709772E-006	0.0006452	10
	34	94	119.1737	14.4398	-45.98593	1	48.19973	-72.56746	1.161687E-006	4.862892E-005	9
	35	96	95.0169	16.98776	-56.12001	1	58.6348	-73.15872	9.929341E-007	4.762053E-005	9
	36	98	75.60484	20.33768	-68.47424	1	71.43068	-73.45794	9.414841E-007	4.675977E-005	9
	37	101	54.50582	26.92483	-90.57092	1	94.4883	-73.44389	9.454924E-007	4.310142E-005	9
	38	104	45.95588	31.4027	-104.5156	1	109.1313	-73.2766	1.173345E-006	5.137669E-005	9
	39	106	37.20238	38.15226	-124.3909	1	130.1103	-72.94856	1.152993E-006	3.943934E-005	9
	40	108	30.04808	46.36472	-147.7363	1	154.8409	-72.57635	1.03894E-006	4.003199E-005	9
	41	111	23.91582	56.8689	-176.9065	1	185.8225	-72.17932	1.054914E-006	4.913448E-005	9
	42	113	18.60119	70.43093	-215.1867	1	226.4196	-71.87666	1.315286E-006	4.428336E-005	9
	43	115	15.02404	83.43275	-253.7355	1	267.1006	-71.79822	1.055279E-006	5.563745E-005	9
	44	118	12.01923	98.5519	-301.6231	1	317.3153	-71.90578	1.271328E-006	5.825428E-005	9
	45	120	9.450605	116.2047	-364.0719	1	382.1674	-72.29792	1.132553E-006	4.347266E-005	9
	46	123	7.512019	134.205	-435.7356	1	455.9348	-72.88136	4.157892E-007	0.0006269	8
	47	125	5.978954	154.1144	-524.9266	1	547.0825	-73.63817	4.275611E-007	0.0006305	8
	48	128	4.734848	177.4384	-638.0808	1	662.2926	-74.45974	4.501462E-007	0.0006097	8
	49	132	3.75601	204.0494	-777.8076	1	804.1273	-75.30032	4.786785E-007	0.0006451	8
	50	135	3.004808	234.6324	-943.5494	1	972.285	-76.0355	4.840833E-007	0.0006027	8
	51	139	2.372217	275.4045	-1162.918	1	1195.084	-76.67657	4.161024E-007	0.0005976	8
	52	143	1.878005	323.7896	-1431.918	1	1468.069	-77.25838	4.916973E-007	0.0006287	8
	53	148	1.512097	383.8547	-1735.286	1	1777.234	-77.52672	4.381236E-007	0.0005621	8
	54	153	1.201923	463.198	-2139.569	1	2189.134	-77.78448	4.581731E-007	0.0006545	8
	55	159	0.956633	568.7558	-2629.009	1	2689.827	-77.79284	4.125012E-007	-1.183532E-005	8
