EXPLAIN
TAG	EISPOT
TITLE	LABEL	Potentiostatic EIS	Test Identifier
DATE	LABEL	2/24/2021	Date
TIME	LABEL	22:03:13	Time
NOTES	NOTES	1	Notes...
	
PSTAT	PSTAT	REF3000-16137	Potentiostat
VDC	POTEN	0.00000E+000	T	DC Voltage (V)
FREQINIT	QUANT	3.00000E+005	Initial Freq. (Hz)
FREQFINAL	QUANT	1.00000E+000	Final Freq. (Hz)
PTSPERDEC	QUANT	1.00000E+001	Points/decade
VAC	QUANT	5.00000E+001	AC Voltage (mV rms)
AREA	QUANT	1.00000E+000	Sample Area (cm^2)
SPEED	SELECTOR	2	Optimize for:
ZGUESS	QUANT	1.00000E+003	Estimated Z (ohms)
EOC	QUANT	0	Open Circuit (V)
SEQUENCER	TOGGLE	TRUE	Run as Sequence
PSTATMODEL	IQUANT	5	Pstat Model
PSTATSECTION	LABEL	REF3000-16137	Pstat Section
PSTATSERIALNO	LABEL	16137	Pstat Serial Number
CTRLMODE	IQUANT	1	Control Mode
IESTAB	IQUANT	0	I/E Stability
CASPEED	IQUANT	1	Control Amp Speed
CONVENTION	IQUANT	1	Current Convention
ICHRANGE	IQUANT	2	Ich Range
ICHRANGEMODE	TOGGLE	F	Ich Auto Range
ICHOFFSETENABLE	TOGGLE	T	Ich Offset Enable
ICHOFFSET	QUANT	0	Ich Offset (V)
ICHFILTER	IQUANT	3	Ich Filter
VCHRANGE	IQUANT	2	Vch Range
VCHRANGEMODE	TOGGLE	F	Vch Auto Range
VCHOFFSETENABLE	TOGGLE	T	Vch Offset Enable
VCHOFFSET	QUANT	0	Vch Offset (V)
VCHFILTER	IQUANT	3	Vch Filter
ACHRANGE	IQUANT	2	Ach Range
ACHOFFSETENABLE	TOGGLE	F	Ach Offset Enable
ACHOFFSET	QUANT	0	Ach Offset (V)
ACHFILTER	IQUANT	3	Ach Filter
IERANGELOWERLIMIT	IQUANT	2	I/E Range Lower Limit
IERANGEMODE	TOGGLE	F	I/E AutoRange
IERANGE	IQUANT	11	I/E Range
POSFEEDENABLE	TOGGLE	F	Positive Feedback IR Comp
POSFEEDRESISTANCE	QUANT	0	Positive Feedback Resistance (ohm)
ACHSELECT	IQUANT	0	Ach Select
CABLEID	IQUANT	13	Cable ID
DCCALDATE	LABEL	7/31/2020	DC Calibration Date
ACCALDATE	LABEL	7/31/2020	AC Calibration Date
THERMOSELECT	IQUANT	1	Thermo Select
FRAMEWORKVERSION	QUANT	6.33	Framework Version
INSTRUMENTVERSION	LABEL	3.50	Instrument Version
COMPLIANCEVOLTAGE	IQUANT	0	Compliance Voltage
ZCURVE	TABLE
	Pt	Time	Freq	Zreal	Zimag	Zsig	Zmod	Zphz	Idc	Vdc	IERange
	#	s	Hz	ohm	ohm	V	ohm	°	A	V	#
	0	7	300046.9	69.10234	1.514213	1	69.11893	1.255299	-6.782843E-005	0.0021597	9
	1	10	238359.4	69.60641	1.083955	1	69.61485	0.8921741	6.667948E-005	-0.0023164	9
	2	13	189328.1	70.03068	0.6665147	1	70.03385	0.5452942	-7.097572E-005	0.0022374	9
	3	16	150421.9	70.37963	0.5183699	1	70.38154	0.4219952	1.167238E-005	-0.0010088	9
	4	18	119484.4	70.77776	0.331616	1	70.77853	0.2684468	-8.373133E-006	0.0008314	9
	5	21	94921.88	71.18322	0.4181773	1	71.18445	0.3365894	-1.535957E-005	0.0002821	9
	6	23	75421.88	71.49274	0.2540565	1	71.49319	0.2036054	-1.028663E-005	0.000715	9
	7	26	59859.37	71.83966	0.081363	1	71.83971	0.0648911	1.414338E-005	-0.0005225	9
	8	28	47578.12	72.2112	-0.0746806	1	72.21124	-0.0592551	-1.77791E-005	0.0004382	9
	9	31	37828.12	72.56036	-0.1954833	1	72.56062	-0.154359	2.011575E-005	-0.0002811	9
	10	33	30046.88	72.94358	-0.3064138	1	72.94422	-0.2406807	4.575724E-006	-0.0004033	9
	11	36	23859.38	73.30201	-0.4224578	1	73.30323	-0.3302063	2.683219E-006	0.0003513	9
	12	38	18984.38	73.64297	-0.5434459	1	73.64498	-0.4228046	-1.04993E-005	0.0007574	9
	13	40	15046.87	73.93073	-0.6282195	1	73.9334	-0.4868539	-1.248086E-005	0.0001783	9
	14	43	11953.13	74.27171	-0.8639543	1	74.27673	-0.6664544	-1.523946E-005	0.0003118	9
	15	45	9515.62	74.69016	-1.100056	1	74.69826	-0.843806	-1.726344E-005	0.0004224	9
	16	47	7546.875	75.03574	-1.403136	1	75.04886	-1.071282	-1.034939E-005	0.0007744	9
	17	50	5928.309	75.46745	-1.647781	1	75.48544	-1.250816	-1.819243E-005	0.0007179	9
	18	52	4733.456	75.80984	-2.037988	1	75.83723	-1.539905	2.223585E-005	-0.000513	9
	19	54	3796.875	76.22743	-2.490815	1	76.26812	-1.871537	1.688636E-005	-0.0006175	9
	20	57	2987.132	76.64198	-3.110246	1	76.70506	-2.323873	4.483151E-006	-0.00039	9
	21	59	2390.625	77.05486	-3.783634	1	77.14769	-2.811144	1.997892E-005	-0.0006978	9
	22	61	1884.191	77.62848	-4.785509	1	77.77584	-3.527609	2.201212E-005	-0.0003874	9
	23	64	1516.544	77.98643	-5.765977	1	78.1993	-4.228507	1.112972E-005	-0.0005282	9
	24	66	1193.986	78.57447	-7.201533	1	78.9038	-5.236661	1.08475E-005	0.0001733	9
	25	69	946.5144	79.18841	-8.900546	1	79.68703	-6.412964	2.163207E-005	-0.0004026	9
	26	71	751.7689	79.8277	-10.96684	1	80.5775	-7.822405	1.097335E-005	0.0001564	9
	27	73	597.4265	80.59997	-13.56671	1	81.73378	-9.55455	-2.829771E-006	-0.000195	9
	28	75	477.4305	81.37171	-16.64964	1	83.05761	-11.5638	1.239986E-006	7.913945E-005	9
	29	78	376.6741	82.36859	-20.66497	1	84.9213	-14.08391	1.319582E-006	7.828009E-005	9
	30	80	298.2954	83.52592	-25.53732	1	87.34262	-17.00056	1.380601E-006	9.137885E-005	9
	31	82	237.7717	84.89219	-31.35116	1	90.49629	-20.26947	1.216798E-006	0.0001072	9
	32	85	189.0121	86.52119	-38.54184	1	94.71742	-24.01112	1.289311E-006	8.220236E-005	9
	33	87	150.2404	88.46684	-47.32938	1	100.3317	-28.14659	1.271277E-006	8.511557E-005	9
	34	90	119.1737	90.7897	-58.18348	1	107.8336	-32.65418	1.249173E-006	8.526877E-005	9
	35	92	95.0169	93.49525	-71.16119	1	117.4959	-37.27552	1.311433E-006	8.005829E-005	9
	36	95	75.60484	96.7408	-87.17879	1	130.2264	-42.02386	1.313723E-006	7.76501E-005	9
	37	97	54.50582	102.2984	-116.5966	1	155.112	-48.73725	1.260503E-006	8.699766E-005	9
	38	100	45.95588	106.0302	-135.7762	1	172.2719	-52.01306	1.282006E-006	8.684509E-005	9
	39	102	37.20238	111.3116	-163.9783	1	198.1897	-55.83059	1.369577E-006	8.104023E-005	9
	40	104	30.04808	117.7914	-198.5297	1	230.8438	-59.31856	1.146743E-006	0.0001126	9
	41	107	23.91582	126.2419	-243.555	1	274.3283	-62.60093	1.258805E-006	7.941543E-005	9
	42	109	18.60119	137.878	-305.2154	1	334.9131	-65.68941	1.37266E-006	8.584498E-005	9
	43	112	15.02404	150.4408	-369.4893	1	398.9421	-67.84587	1.318614E-006	9.458212E-005	9
	44	114	12.01923	166.1364	-449.3247	1	479.0553	-69.70829	1.268733E-007	0.0006618	8
	45	116	9.450605	188.4253	-557.0837	1	588.087	-71.31265	1.496846E-007	0.0006806	8
	46	119	7.512019	215.7909	-683.5069	1	716.7617	-72.4785	2.229922E-007	0.0006776	8
	47	122	5.978954	250.7094	-836.4318	1	873.1973	-73.31459	2.473865E-007	0.0006556	8
	48	125	4.734848	296.3575	-1027.34	1	1069.231	-73.9087	3.494685E-007	0.0006895	8
	49	128	3.75601	355.703	-1259.268	1	1308.541	-74.22671	2.968085E-007	0.0006518	8
	50	131	3.004808	428.0714	-1527.754	1	1586.593	-74.34731	2.229591E-007	0.0007011	8
	51	135	2.372217	525.4911	-1871.885	1	1944.246	-74.31907	2.781438E-007	0.0007008	8
	52	139	1.878005	654.0157	-2283.039	1	2374.869	-74.01473	2.8172E-007	0.0006342	8
	53	144	1.512097	802.7506	-2737.917	1	2853.173	-73.65899	2.851075E-007	0.0007597	8
	54	149	1.201923	995.89	-3313.042	1	3459.486	-73.26939	3.062456E-007	0.0006391	8
	55	156	0.956633	1229.256	-3990.148	1	4175.208	-72.87736	2.352553E-007	1.696208E-005	8
