EXPLAIN
TAG	EISPOT
TITLE	LABEL	Potentiostatic EIS	Test Identifier
DATE	LABEL	2/24/2021	Date
TIME	LABEL	21:04:39	Time
NOTES	NOTES	1	Notes...
	
PSTAT	PSTAT	REF3000-16137	Potentiostat
VDC	POTEN	0.00000E+000	T	DC Voltage (V)
FREQINIT	QUANT	3.00000E+005	Initial Freq. (Hz)
FREQFINAL	QUANT	1.00000E+000	Final Freq. (Hz)
PTSPERDEC	QUANT	1.00000E+001	Points/decade
VAC	QUANT	5.00000E+001	AC Voltage (mV rms)
AREA	QUANT	1.00000E+000	Sample Area (cm^2)
SPEED	SELECTOR	2	Optimize for:
ZGUESS	QUANT	1.00000E+003	Estimated Z (ohms)
EOC	QUANT	0	Open Circuit (V)
SEQUENCER	TOGGLE	TRUE	Run as Sequence
PSTATMODEL	IQUANT	5	Pstat Model
PSTATSECTION	LABEL	REF3000-16137	Pstat Section
PSTATSERIALNO	LABEL	16137	Pstat Serial Number
CTRLMODE	IQUANT	1	Control Mode
IESTAB	IQUANT	0	I/E Stability
CASPEED	IQUANT	1	Control Amp Speed
CONVENTION	IQUANT	1	Current Convention
ICHRANGE	IQUANT	2	Ich Range
ICHRANGEMODE	TOGGLE	F	Ich Auto Range
ICHOFFSETENABLE	TOGGLE	T	Ich Offset Enable
ICHOFFSET	QUANT	0	Ich Offset (V)
ICHFILTER	IQUANT	3	Ich Filter
VCHRANGE	IQUANT	2	Vch Range
VCHRANGEMODE	TOGGLE	F	Vch Auto Range
VCHOFFSETENABLE	TOGGLE	T	Vch Offset Enable
VCHOFFSET	QUANT	0	Vch Offset (V)
VCHFILTER	IQUANT	3	Vch Filter
ACHRANGE	IQUANT	2	Ach Range
ACHOFFSETENABLE	TOGGLE	F	Ach Offset Enable
ACHOFFSET	QUANT	0	Ach Offset (V)
ACHFILTER	IQUANT	3	Ach Filter
IERANGELOWERLIMIT	IQUANT	2	I/E Range Lower Limit
IERANGEMODE	TOGGLE	F	I/E AutoRange
IERANGE	IQUANT	11	I/E Range
POSFEEDENABLE	TOGGLE	F	Positive Feedback IR Comp
POSFEEDRESISTANCE	QUANT	0	Positive Feedback Resistance (ohm)
ACHSELECT	IQUANT	0	Ach Select
CABLEID	IQUANT	13	Cable ID
DCCALDATE	LABEL	7/31/2020	DC Calibration Date
ACCALDATE	LABEL	7/31/2020	AC Calibration Date
THERMOSELECT	IQUANT	1	Thermo Select
FRAMEWORKVERSION	QUANT	6.33	Framework Version
INSTRUMENTVERSION	LABEL	3.50	Instrument Version
COMPLIANCEVOLTAGE	IQUANT	0	Compliance Voltage
ZCURVE	TABLE
	Pt	Time	Freq	Zreal	Zimag	Zsig	Zmod	Zphz	Idc	Vdc	IERange
	#	s	Hz	ohm	ohm	V	ohm	°	A	V	#
	0	10	300046.9	2.642743	2.217895	1	3.450094	40.00471	-3.860605E-005	-0.0001781	11
	1	13	238359.4	2.599846	1.763035	1	3.141257	34.14239	-0.0001594	-0.0003187	11
	2	16	189328.1	2.567412	1.388231	1	2.918696	28.40064	-3.79799E-006	0.0001445	11
	3	19	150421.9	2.554688	1.083029	1	2.774776	22.97392	-9.099924E-006	0.0003369	11
	4	21	119484.4	2.577727	0.7343245	1	2.680281	15.90082	-0.0000952	0.0004617	12
	5	25	94921.88	2.541126	0.6448749	1	2.621676	14.23964	6.672724E-006	0.0005603	11
	6	27	75421.88	2.551959	0.408753	1	2.584487	9.0999	-0.0001084	0.0005353	12
	7	31	59859.37	2.543089	0.3369575	1	2.565315	7.547685	1.215438E-005	0.0006427	11
	8	33	47578.12	2.547776	0.215627	1	2.556885	4.837608	-4.371342E-005	0.0006891	11
	9	36	37828.12	2.55187	0.106027	1	2.554072	2.379199	-6.498313E-005	0.0006246	11
	10	38	30046.88	2.559552	0.0028311	1	2.559554	0.063374	-3.703154E-005	0.0006832	11
	11	41	23859.38	2.567614	-0.0986435	1	2.569508	-2.200126	-6.071633E-005	0.000709	11
	12	43	18984.38	2.578203	-0.2024142	1	2.586137	-4.489073	-6.501751E-005	0.0006587	11
	13	46	15046.87	2.59244	-0.3157417	1	2.611597	-6.944038	-1.994851E-005	0.0007189	11
	14	48	11953.13	2.608821	-0.4413885	1	2.645897	-9.60298	1.125758E-005	0.0007504	11
	15	50	9515.62	2.630091	-0.5835029	1	2.694041	-12.50884	-3.205452E-005	0.000717	11
	16	53	7546.875	2.655581	-0.7533507	1	2.760371	-15.83789	-4.076948E-005	0.0006765	11
	17	55	5928.309	2.690418	-0.964288	1	2.858006	-19.71847	6.186085E-006	0.0007361	11
	18	57	4733.456	2.730075	-1.20093	1	2.982539	-23.74417	-4.891207E-006	0.0007255	11
	19	60	3796.875	2.777079	-1.479909	1	3.146791	-28.05321	-5.853445E-005	0.0007104	11
	20	62	2987.132	2.840028	-1.848406	1	3.388564	-33.05772	-4.936646E-005	0.0007417	11
	21	64	2390.625	2.91147	-2.265509	1	3.689063	-37.88764	-1.271708E-005	0.0007131	11
	22	66	1884.191	3.005445	-2.81813	1	4.120019	-43.15772	-7.139349E-006	0.000686	10
	23	69	1516.544	3.110067	-3.430578	1	4.630484	-47.80542	7.59775E-006	0.000678	10
	24	71	1193.986	3.253046	-4.258836	1	5.359104	-52.62616	-7.274755E-006	0.0006588	10
	25	74	946.5144	3.429399	-5.249706	1	6.270582	-56.84521	-2.380447E-005	0.0006945	10
	26	76	751.7689	3.641354	-6.462235	1	7.417543	-60.59952	-2.354998E-005	0.0006985	10
	27	78	597.4265	3.917876	-7.945616	1	8.859038	-63.75272	1.064269E-005	0.0006747	10
	28	82	477.4305	4.253424	-9.71587	1	10.60612	-66.35711	-1.317874E-005	0.0006844	10
	29	84	376.6741	4.706437	-12.01081	1	12.90001	-68.60227	-1.274826E-005	0.0006839	10
	30	86	298.2954	5.278522	-14.78957	1	15.70331	-70.35809	-1.252521E-005	0.0006873	10
	31	88	237.7717	5.992599	-18.08895	1	19.05574	-71.67074	-1.308031E-005	0.0006931	10
	32	91	189.0121	6.919985	-22.1579	1	23.21333	-72.65624	-1.292121E-005	0.000691	10
	33	93	150.2404	8.112991	-27.10333	1	28.29154	-73.33569	-1.365064E-005	0.0006897	10
	34	96	119.1737	9.66776	-33.17501	1	34.55499	-73.75299	-1.260886E-005	0.0006865	10
	35	98	95.0169	11.61914	-40.33791	1	41.97799	-73.93121	-1.287625E-005	0.0006858	10
	36	101	75.60484	14.11859	-48.97669	1	50.97108	-73.91923	-1.005332E-005	0.000106	9
	37	103	54.50582	18.95648	-64.46168	1	67.19119	-73.61279	-1.014355E-005	8.2935E-005	9
	38	106	45.95588	22.19569	-74.24014	1	77.48708	-73.35483	-9.728581E-006	9.350896E-005	9
	39	108	37.20238	26.97976	-88.17222	1	92.20763	-72.98645	-9.906655E-006	9.053241E-005	9
	40	110	30.04808	32.80221	-104.6686	1	109.6882	-72.59947	-9.793577E-006	8.439314E-005	9
	41	113	23.91582	40.29583	-125.6117	1	131.9168	-72.21392	-9.929348E-006	8.579026E-005	9
	42	115	18.60119	50.08394	-153.1095	1	161.0929	-71.88647	-9.626795E-006	9.482895E-005	9
	43	117	15.02404	60.05171	-181.2821	1	190.9697	-71.67197	-9.877947E-006	9.049306E-005	9
	44	120	12.01923	72.41005	-216.4105	1	228.2032	-71.49998	-9.997987E-006	8.924343E-005	9
	45	122	9.450605	88.79552	-262.3784	1	276.9966	-71.30288	-9.54936E-006	9.16553E-005	9
	46	125	7.512019	108.1592	-315.6649	1	333.6806	-71.08652	-9.418558E-006	0.0001013	9
	47	127	5.978954	132.7278	-379.502	1	402.0428	-70.72312	-9.583246E-006	8.39224E-005	9
	48	130	4.734848	164.4876	-456.2916	1	485.0342	-70.17638	-1.005882E-005	0.0007047	8
	49	134	3.75601	207.0743	-549.4413	1	587.1674	-69.3495	-1.021106E-005	0.000665	8
	50	137	3.004808	260.7908	-655.1558	1	705.1531	-68.29452	-1.018038E-005	0.0006903	8
	51	141	2.372217	338.0603	-785.16	1	854.8456	-66.70511	-1.012702E-005	0.0007184	8
	52	145	1.878005	440.372	-934.9332	1	1033.454	-64.77863	-1.020277E-005	0.0006626	8
	53	150	1.512097	562.3616	-1086.251	1	1223.189	-62.629	-1.006365E-005	0.0006493	8
	54	155	1.201923	735.3195	-1259.478	1	1458.417	-59.7224	-1.004701E-005	0.0006523	8
	55	161	0.956633	949.6002	-1431.08	1	1717.478	-56.43354	-1.015126E-005	3.205929E-005	8
