EXPLAIN
TAG	EISPOT
TITLE	LABEL	Potentiostatic EIS	Test Identifier
DATE	LABEL	2/24/2021	Date
TIME	LABEL	21:18:45	Time
NOTES	NOTES	1	Notes...
	
PSTAT	PSTAT	REF3000-16137	Potentiostat
VDC	POTEN	0.00000E+000	T	DC Voltage (V)
FREQINIT	QUANT	3.00000E+005	Initial Freq. (Hz)
FREQFINAL	QUANT	1.00000E+000	Final Freq. (Hz)
PTSPERDEC	QUANT	1.00000E+001	Points/decade
VAC	QUANT	5.00000E+001	AC Voltage (mV rms)
AREA	QUANT	1.00000E+000	Sample Area (cm^2)
SPEED	SELECTOR	2	Optimize for:
ZGUESS	QUANT	1.00000E+003	Estimated Z (ohms)
EOC	QUANT	0	Open Circuit (V)
SEQUENCER	TOGGLE	TRUE	Run as Sequence
PSTATMODEL	IQUANT	5	Pstat Model
PSTATSECTION	LABEL	REF3000-16137	Pstat Section
PSTATSERIALNO	LABEL	16137	Pstat Serial Number
CTRLMODE	IQUANT	1	Control Mode
IESTAB	IQUANT	0	I/E Stability
CASPEED	IQUANT	1	Control Amp Speed
CONVENTION	IQUANT	1	Current Convention
ICHRANGE	IQUANT	2	Ich Range
ICHRANGEMODE	TOGGLE	F	Ich Auto Range
ICHOFFSETENABLE	TOGGLE	T	Ich Offset Enable
ICHOFFSET	QUANT	0	Ich Offset (V)
ICHFILTER	IQUANT	3	Ich Filter
VCHRANGE	IQUANT	2	Vch Range
VCHRANGEMODE	TOGGLE	F	Vch Auto Range
VCHOFFSETENABLE	TOGGLE	T	Vch Offset Enable
VCHOFFSET	QUANT	0	Vch Offset (V)
VCHFILTER	IQUANT	3	Vch Filter
ACHRANGE	IQUANT	2	Ach Range
ACHOFFSETENABLE	TOGGLE	F	Ach Offset Enable
ACHOFFSET	QUANT	0	Ach Offset (V)
ACHFILTER	IQUANT	3	Ach Filter
IERANGELOWERLIMIT	IQUANT	2	I/E Range Lower Limit
IERANGEMODE	TOGGLE	F	I/E AutoRange
IERANGE	IQUANT	11	I/E Range
POSFEEDENABLE	TOGGLE	F	Positive Feedback IR Comp
POSFEEDRESISTANCE	QUANT	0	Positive Feedback Resistance (ohm)
ACHSELECT	IQUANT	0	Ach Select
CABLEID	IQUANT	13	Cable ID
DCCALDATE	LABEL	7/31/2020	DC Calibration Date
ACCALDATE	LABEL	7/31/2020	AC Calibration Date
THERMOSELECT	IQUANT	1	Thermo Select
FRAMEWORKVERSION	QUANT	6.33	Framework Version
INSTRUMENTVERSION	LABEL	3.50	Instrument Version
COMPLIANCEVOLTAGE	IQUANT	0	Compliance Voltage
ZCURVE	TABLE
	Pt	Time	Freq	Zreal	Zimag	Zsig	Zmod	Zphz	Idc	Vdc	IERange
	#	s	Hz	ohm	ohm	V	ohm	°	A	V	#
	0	10	300046.9	3.808818	2.249783	1	4.423643	30.56938	-8.975797E-005	0.0001012	10
	1	14	238359.4	3.786635	1.78196	1	4.184971	25.20129	-0.0001093	-0.0004063	10
	2	17	189328.1	3.772766	1.400152	1	4.0242	20.36094	6.368285E-005	-0.0001912	10
	3	19	150421.9	3.769772	1.105241	1	3.928453	16.34035	-0.0001004	0.0002138	10
	4	22	119484.4	3.758313	0.8482811	1	3.852856	12.71898	2.353637E-005	0.0003418	10
	5	24	94921.88	3.761433	0.6599845	1	3.818895	9.95187	2.010614E-005	0.0004229	10
	6	27	75421.88	3.763668	0.4866222	1	3.794997	7.367167	2.208836E-005	0.0004662	10
	7	29	59859.37	3.76914	0.3402294	1	3.784465	5.157946	-1.848528E-005	0.0005891	10
	8	32	47578.12	3.775701	0.2118484	1	3.78164	3.211405	5.765566E-006	0.0005721	10
	9	35	37828.12	3.784752	0.0972178	1	3.786	1.471416	-2.004416E-005	0.0006623	10
	10	37	30046.88	3.795574	-0.0121002	1	3.795594	-0.1826575	-2.645804E-005	0.0006668	10
	11	40	23859.38	3.80771	-0.1203775	1	3.809612	-1.810753	1.632984E-005	0.0006484	10
	12	42	18984.38	3.822244	-0.2305296	1	3.82919	-3.451479	-1.255065E-005	0.0006686	10
	13	44	15046.87	3.839223	-0.352337	1	3.855357	-5.243517	1.422062E-005	0.0006702	10
	14	47	11953.13	3.859085	-0.4870946	1	3.889704	-7.193846	1.117803E-006	0.000652	10
	15	49	9515.62	3.88349	-0.6421676	1	3.936226	-9.389374	1.082796E-005	0.0006569	10
	16	51	7546.875	3.914202	-0.8269978	1	4.000613	-11.93007	-2.533312E-005	0.0007035	10
	17	53	5928.309	3.952459	-1.058704	1	4.091795	-14.99521	-1.13726E-005	0.0006885	10
	18	56	4733.456	3.997736	-1.318861	1	4.209666	-18.25782	6.386082E-006	0.0006575	10
	19	58	3796.875	4.051564	-1.62644	1	4.36583	-21.87226	-1.197805E-005	0.0006655	10
	20	60	2987.132	4.12306	-2.031507	1	4.596374	-26.23031	1.034675E-005	0.0006641	10
	21	63	2390.625	4.203665	-2.492794	1	4.88721	-30.66815	-2.268812E-005	0.0006702	10
	22	65	1884.191	4.308754	-3.09319	1	5.304073	-35.674	-3.026249E-005	0.0006942	10
	23	67	1516.544	4.424926	-3.763594	1	5.809011	-40.38263	-2.239908E-005	0.0006849	10
	24	70	1193.986	4.579734	-4.670562	1	6.541262	-45.56256	-3.034887E-005	0.0006927	10
	25	72	946.5144	4.763705	-5.757883	1	7.473025	-50.39782	-2.478096E-005	0.0006819	10
	26	74	751.7689	4.99566	-7.084443	1	8.668676	-54.81007	1.113902E-005	0.0006583	10
	27	77	597.4265	5.278109	-8.711657	1	10.18584	-58.78969	9.933323E-006	0.0006584	10
	28	79	477.4305	5.62719	-10.66356	1	12.05723	-62.17926	-7.669678E-006	0.0006863	10
	29	81	376.6741	6.090652	-13.19521	1	14.53305	-65.22287	-7.647997E-006	0.0006826	10
	30	84	298.2954	6.669955	-16.26824	1	17.58249	-67.70644	-7.766932E-006	0.0006872	10
	31	86	237.7717	7.386723	-19.93024	1	21.25507	-69.66384	-8.33744E-006	0.0006836	10
	32	89	189.0121	8.310253	-24.46458	1	25.83749	-71.23814	-8.39814E-006	0.0006891	10
	33	91	150.2404	9.495274	-30.01168	1	31.47795	-72.44336	-8.529413E-006	0.0006892	10
	34	93	119.1737	11.03294	-36.848	1	38.46428	-73.33138	-8.124079E-006	0.0006917	10
	35	96	95.0169	12.9515	-44.9248	1	46.75446	-73.91811	-4.185217E-006	9.042086E-005	9
	36	98	75.60484	15.4576	-54.85625	1	56.9925	-74.26303	-4.126777E-006	8.618885E-005	9
	37	101	54.50582	20.35171	-72.77537	1	75.5675	-74.3763	-4.222838E-006	8.829617E-005	9
	38	103	45.95588	23.69149	-84.20863	1	87.47787	-74.28644	-3.91554E-006	9.079809E-005	9
	39	106	37.20238	28.76882	-100.6548	1	104.6854	-74.04918	-3.972079E-006	8.767109E-005	9
	40	108	30.04808	35.15251	-120.2246	1	125.2583	-73.70158	-4.094759E-006	8.999855E-005	9
	41	110	23.91582	43.52557	-144.8022	1	151.2023	-73.26994	-4.375581E-006	8.250923E-005	9
	42	113	18.60119	54.97884	-177.2309	1	185.5626	-72.76558	-4.28465E-006	9.279807E-005	9
	43	115	15.02404	66.63117	-209.9215	1	220.2425	-72.39005	-3.788469E-006	8.880092E-005	9
	44	117	12.01923	80.98006	-250.2052	1	262.9837	-72.06559	-4.049384E-006	8.841004E-005	9
	45	120	9.450605	99.0478	-302.4118	1	318.219	-71.86503	-3.814448E-006	9.347202E-005	9
	46	122	7.512019	119.4881	-362.8301	1	381.9988	-71.77213	-3.68648E-006	0.0001062	9
	47	125	5.978954	143.3151	-433.8047	1	456.8651	-71.71812	-4.404185E-006	0.0006738	8
	48	128	4.734848	174.1476	-523.6385	1	551.8376	-71.60432	-4.387247E-006	0.0007002	8
	49	131	3.75601	212.4945	-632.179	1	666.9364	-71.42094	-4.496414E-006	0.0006637	8
	50	135	3.004808	259.1933	-757.7037	1	800.8096	-71.11534	-4.492469E-006	0.0006987	8
	51	138	2.372217	324.6033	-917.5099	1	973.238	-70.51687	-4.422342E-006	0.0007353	8
	52	143	1.878005	407.4952	-1109.072	1	1181.563	-69.82565	-4.51639E-006	0.0006562	8
	53	147	1.512097	506.3532	-1316.394	1	1410.42	-68.96067	-4.40472E-006	0.0006108	8
	54	153	1.201923	649.6409	-1575.552	1	1704.23	-67.59238	-4.427479E-006	0.0006601	8
	55	159	0.956633	833.1941	-1869.245	1	2046.531	-65.97564	-4.43957E-006	2.708017E-005	8
