EXPLAIN
TAG	EISPOT
TITLE	LABEL	Potentiostatic EIS	Test Identifier
DATE	LABEL	2/24/2021	Date
TIME	LABEL	22:11:30	Time
NOTES	NOTES	1	Notes...
	
PSTAT	PSTAT	REF3000-16137	Potentiostat
VDC	POTEN	0.00000E+000	T	DC Voltage (V)
FREQINIT	QUANT	3.00000E+005	Initial Freq. (Hz)
FREQFINAL	QUANT	1.00000E+000	Final Freq. (Hz)
PTSPERDEC	QUANT	1.00000E+001	Points/decade
VAC	QUANT	5.00000E+001	AC Voltage (mV rms)
AREA	QUANT	1.00000E+000	Sample Area (cm^2)
SPEED	SELECTOR	2	Optimize for:
ZGUESS	QUANT	1.00000E+003	Estimated Z (ohms)
EOC	QUANT	0	Open Circuit (V)
SEQUENCER	TOGGLE	TRUE	Run as Sequence
PSTATMODEL	IQUANT	5	Pstat Model
PSTATSECTION	LABEL	REF3000-16137	Pstat Section
PSTATSERIALNO	LABEL	16137	Pstat Serial Number
CTRLMODE	IQUANT	1	Control Mode
IESTAB	IQUANT	0	I/E Stability
CASPEED	IQUANT	1	Control Amp Speed
CONVENTION	IQUANT	1	Current Convention
ICHRANGE	IQUANT	2	Ich Range
ICHRANGEMODE	TOGGLE	F	Ich Auto Range
ICHOFFSETENABLE	TOGGLE	T	Ich Offset Enable
ICHOFFSET	QUANT	0	Ich Offset (V)
ICHFILTER	IQUANT	3	Ich Filter
VCHRANGE	IQUANT	2	Vch Range
VCHRANGEMODE	TOGGLE	F	Vch Auto Range
VCHOFFSETENABLE	TOGGLE	T	Vch Offset Enable
VCHOFFSET	QUANT	0	Vch Offset (V)
VCHFILTER	IQUANT	3	Vch Filter
ACHRANGE	IQUANT	2	Ach Range
ACHOFFSETENABLE	TOGGLE	F	Ach Offset Enable
ACHOFFSET	QUANT	0	Ach Offset (V)
ACHFILTER	IQUANT	3	Ach Filter
IERANGELOWERLIMIT	IQUANT	2	I/E Range Lower Limit
IERANGEMODE	TOGGLE	F	I/E AutoRange
IERANGE	IQUANT	11	I/E Range
POSFEEDENABLE	TOGGLE	F	Positive Feedback IR Comp
POSFEEDRESISTANCE	QUANT	0	Positive Feedback Resistance (ohm)
ACHSELECT	IQUANT	0	Ach Select
CABLEID	IQUANT	13	Cable ID
DCCALDATE	LABEL	7/31/2020	DC Calibration Date
ACCALDATE	LABEL	7/31/2020	AC Calibration Date
THERMOSELECT	IQUANT	1	Thermo Select
FRAMEWORKVERSION	QUANT	6.33	Framework Version
INSTRUMENTVERSION	LABEL	3.50	Instrument Version
COMPLIANCEVOLTAGE	IQUANT	0	Compliance Voltage
ZCURVE	TABLE
	Pt	Time	Freq	Zreal	Zimag	Zsig	Zmod	Zphz	Idc	Vdc	IERange
	#	s	Hz	ohm	ohm	V	ohm	°	A	V	#
	0	13	300046.9	192.4969	-8.754377	1	192.6959	-2.603904	2.786542E-005	0.0003821	9
	1	16	238359.4	194.4633	-7.721015	1	194.6165	-2.273691	-5.733585E-005	0.0005825	9
	2	19	189328.1	196.0882	-6.905263	1	196.2097	-2.016843	1.843579E-005	-0.0015911	9
	3	22	150421.9	197.8425	-5.281899	1	197.9129	-1.529291	1.845143E-005	-0.0015332	9
	4	25	119484.4	200.7057	-4.848722	1	200.7643	-1.383903	-3.104449E-005	-0.0004629	9
	5	31	94921.88	202.7842	-4.08055	1	202.8253	-1.152786	7.532201E-007	0.0005546	9
	6	33	75421.88	203.9983	-3.347795	1	204.0258	-0.9401904	1.527882E-006	0.0005984	9
	7	36	59859.37	205.3226	-2.81464	1	205.3419	-0.785383	2.037881E-005	-0.000099	9
	8	38	47578.12	206.8545	-2.362767	1	206.868	-0.6544248	-7.774408E-006	0.0008571	9
	9	41	37828.12	208.0379	-2.308506	1	208.0507	-0.6357602	-1.79469E-005	0.000361	9
	10	43	30046.88	209.2469	-2.025203	1	209.2567	-0.5545216	2.598218E-005	-0.0004641	9
	11	46	23859.38	210.5769	-1.799647	1	210.5846	-0.4896532	2.264949E-005	-0.0008217	9
	12	48	18984.38	211.8406	-1.714116	1	211.8475	-0.4636009	-1.57763E-005	0.0009276	9
	13	51	15046.87	213.6765	-1.530926	1	213.682	-0.4104995	-1.704033E-005	0.0002659	9
	14	53	11953.13	214.2646	-2.013932	1	214.2741	-0.5385228	1.503487E-005	-0.0007532	9
	15	55	9515.62	215.1336	-2.039347	1	215.1432	-0.543116	2.254989E-005	-0.0001516	9
	16	58	7546.875	216.6504	-2.318637	1	216.6628	-0.6131679	2.54384E-005	-0.0007224	9
	17	60	5928.309	217.941	-2.413295	1	217.9543	-0.6344193	1.135033E-005	0.0002806	9
	18	62	4733.456	219.1789	-2.854203	1	219.1974	-0.7460781	-8.283936E-006	0.0008575	9
	19	65	3796.875	220.8515	-3.106852	1	220.8734	-0.8059611	2.177237E-005	-0.0007807	9
	20	67	2987.132	221.6574	-4.0069	1	221.6936	-1.035623	-2.217148E-005	0.0008249	9
	21	69	2390.625	223.0352	-4.688183	1	223.0845	-1.204176	-2.298227E-005	0.000824	9
	22	72	1884.191	224.5659	-5.625811	1	224.6364	-1.43507	-8.493606E-006	0.0008653	9
	23	74	1516.544	226.1997	-6.728528	1	226.2998	-1.703816	1.906454E-005	-3.600148E-005	9
	24	76	1193.986	227.3843	-8.347723	1	227.5375	-2.102496	-1.571558E-005	0.0001681	9
	25	79	946.5144	229.2171	-10.01885	1	229.4359	-2.502748	-2.341982E-005	0.0006694	9
	26	81	751.7689	230.8902	-12.84658	1	231.2473	-3.184618	-2.039528E-005	0.0004725	9
	27	83	597.4265	232.5086	-15.35415	1	233.0151	-3.778149	-1.523681E-005	0.0001476	9
	28	86	477.4305	234.1448	-18.90427	1	234.9067	-4.615906	1.194072E-006	8.14136E-005	9
	29	88	376.6741	236.0956	-23.44808	1	237.2571	-5.671791	1.236689E-006	7.587533E-005	9
	30	90	298.2954	238.2317	-29.01289	1	239.9918	-6.943537	1.256464E-006	8.243792E-005	9
	31	93	237.7717	240.5992	-35.6898	1	243.2319	-8.437566	1.210933E-006	8.336164E-005	9
	32	95	189.0121	243.2449	-44.00757	1	247.1937	-10.25496	1.213954E-006	8.564976E-005	9
	33	98	150.2404	246.239	-54.23906	1	252.1419	-12.42217	1.224482E-006	8.232317E-005	9
	34	100	119.1737	249.7117	-66.94302	1	258.5291	-15.00706	1.284279E-006	7.784703E-005	9
	35	102	95.0169	253.7172	-82.15466	1	266.6867	-17.94217	1.189992E-006	8.053822E-005	9
	36	105	75.60484	258.5288	-100.9188	1	277.5279	-21.32358	1.193073E-006	7.964978E-005	9
	37	107	54.50582	266.2456	-135.1854	1	298.5997	-26.91904	1.212088E-006	7.282777E-005	9
	38	110	45.95588	271.7699	-157.381	1	314.0504	-30.07498	1.300252E-006	8.539956E-005	9
	39	112	37.20238	279.1287	-189.8322	1	337.5635	-34.21916	1.364555E-006	7.317935E-005	9
	40	115	30.04808	287.8268	-229.3756	1	368.0454	-38.55213	1.248738E-006	7.85598E-005	9
	41	117	23.91582	297.3441	-279.5526	1	408.1215	-43.23355	1.396876E-008	0.0006548	8
	42	120	18.60119	311.2946	-349.3862	1	467.9477	-48.29974	5.266005E-008	0.0006595	8
	43	122	15.02404	325.6805	-422.3348	1	533.3239	-52.36264	4.370355E-009	0.0006506	8
	44	124	12.01923	343.9736	-515.2885	1	619.5483	-56.27547	-2.557548E-008	0.0006454	8
	45	127	9.450605	367.9002	-638.6557	1	737.0425	-60.05573	1.339829E-007	0.0006489	8
	46	129	7.512019	396.0276	-784.4139	1	878.7167	-63.21213	5.212817E-008	0.0006383	8
	47	132	5.978954	431.4797	-961.774	1	1054.128	-65.83762	5.976045E-008	0.0006554	8
	48	135	4.734848	477.3658	-1184.881	1	1277.428	-68.05645	3.309446E-008	0.0006326	8
	49	138	3.75601	534.0919	-1458.136	1	1552.873	-69.88303	1.356766E-008	0.0006534	8
	50	142	3.004808	603.1028	-1777.223	1	1876.767	-71.25529	8.951669E-008	0.0006428	8
	51	145	2.372217	700.3188	-2189.921	1	2299.174	-72.26614	6.47573E-008	0.0007004	8
	52	150	1.878005	818.937	-2698.512	1	2820.04	-73.11815	2.240628E-008	0.0006483	8
	53	154	1.512097	957.112	-3258.918	1	3396.559	-73.633	7.587994E-008	0.0006475	8
	54	160	1.201923	1152.475	-3995.732	1	4158.614	-73.91104	5.705447E-008	0.000611	8
	55	166	0.956633	1400.422	-4884.29	1	5081.09	-74.00136	-4.07092E-008	-1.06575E-005	7
