EXPLAIN
TAG	EISPOT
TITLE	LABEL	Potentiostatic EIS	Test Identifier
DATE	LABEL	2/24/2021	Date
TIME	LABEL	21:27:09	Time
NOTES	NOTES	1	Notes...
	
PSTAT	PSTAT	REF3000-16137	Potentiostat
VDC	POTEN	0.00000E+000	T	DC Voltage (V)
FREQINIT	QUANT	3.00000E+005	Initial Freq. (Hz)
FREQFINAL	QUANT	1.00000E+000	Final Freq. (Hz)
PTSPERDEC	QUANT	1.00000E+001	Points/decade
VAC	QUANT	5.00000E+001	AC Voltage (mV rms)
AREA	QUANT	1.00000E+000	Sample Area (cm^2)
SPEED	SELECTOR	2	Optimize for:
ZGUESS	QUANT	1.00000E+003	Estimated Z (ohms)
EOC	QUANT	0	Open Circuit (V)
SEQUENCER	TOGGLE	TRUE	Run as Sequence
PSTATMODEL	IQUANT	5	Pstat Model
PSTATSECTION	LABEL	REF3000-16137	Pstat Section
PSTATSERIALNO	LABEL	16137	Pstat Serial Number
CTRLMODE	IQUANT	1	Control Mode
IESTAB	IQUANT	0	I/E Stability
CASPEED	IQUANT	1	Control Amp Speed
CONVENTION	IQUANT	1	Current Convention
ICHRANGE	IQUANT	2	Ich Range
ICHRANGEMODE	TOGGLE	F	Ich Auto Range
ICHOFFSETENABLE	TOGGLE	T	Ich Offset Enable
ICHOFFSET	QUANT	0	Ich Offset (V)
ICHFILTER	IQUANT	3	Ich Filter
VCHRANGE	IQUANT	2	Vch Range
VCHRANGEMODE	TOGGLE	F	Vch Auto Range
VCHOFFSETENABLE	TOGGLE	T	Vch Offset Enable
VCHOFFSET	QUANT	0	Vch Offset (V)
VCHFILTER	IQUANT	3	Vch Filter
ACHRANGE	IQUANT	2	Ach Range
ACHOFFSETENABLE	TOGGLE	F	Ach Offset Enable
ACHOFFSET	QUANT	0	Ach Offset (V)
ACHFILTER	IQUANT	3	Ach Filter
IERANGELOWERLIMIT	IQUANT	2	I/E Range Lower Limit
IERANGEMODE	TOGGLE	F	I/E AutoRange
IERANGE	IQUANT	11	I/E Range
POSFEEDENABLE	TOGGLE	F	Positive Feedback IR Comp
POSFEEDRESISTANCE	QUANT	0	Positive Feedback Resistance (ohm)
ACHSELECT	IQUANT	0	Ach Select
CABLEID	IQUANT	13	Cable ID
DCCALDATE	LABEL	7/31/2020	DC Calibration Date
ACCALDATE	LABEL	7/31/2020	AC Calibration Date
THERMOSELECT	IQUANT	1	Thermo Select
FRAMEWORKVERSION	QUANT	6.33	Framework Version
INSTRUMENTVERSION	LABEL	3.50	Instrument Version
COMPLIANCEVOLTAGE	IQUANT	0	Compliance Voltage
ZCURVE	TABLE
	Pt	Time	Freq	Zreal	Zimag	Zsig	Zmod	Zphz	Idc	Vdc	IERange
	#	s	Hz	ohm	ohm	V	ohm	°	A	V	#
	0	11	300046.9	5.233877	2.233154	1	5.690382	23.10663	-8.599724E-005	0.0002461	10
	1	14	238359.4	5.22215	1.762409	1	5.511528	18.64888	-1.190841E-005	-0.0002118	10
	2	17	189328.1	5.207021	1.387956	1	5.38883	14.92543	6.424377E-005	-3.09538E-005	10
	3	19	150421.9	5.194511	1.085063	1	5.306629	11.79866	-0.0001151	0.0003011	10
	4	22	119484.4	5.202847	0.8380116	1	5.269904	9.149924	2.586685E-005	0.0004415	10
	5	25	94921.88	5.211465	0.655274	1	5.2525	7.166591	1.960654E-005	0.000503	10
	6	27	75421.88	5.217304	0.4820235	1	5.239523	5.278538	-2.858017E-005	0.0005465	10
	7	30	59859.37	5.225733	0.3307686	1	5.236191	3.621769	1.829956E-005	0.0005749	10
	8	32	47578.12	5.238634	0.2001969	1	5.242458	2.188521	-2.160301E-005	0.0006809	10
	9	35	37828.12	5.251978	0.0820972	1	5.25262	0.8955564	2.038612E-005	0.0006385	10
	10	37	30046.88	5.267885	-0.0295369	1	5.267968	-0.321253	-1.666279E-005	0.000646	10
	11	40	23859.38	5.28509	-0.1401279	1	5.286947	-1.518773	7.680535E-006	0.000635	10
	12	42	18984.38	5.303612	-0.2540313	1	5.309692	-2.742245	1.83562E-005	0.0006596	10
	13	44	15046.87	5.324591	-0.3800938	1	5.33814	-4.083111	1.838984E-005	0.0006656	10
	14	47	11953.13	5.349042	-0.5213752	1	5.374391	-5.567078	-3.409891E-005	0.0006815	10
	15	49	9515.62	5.378477	-0.6832386	1	5.4217	-7.239621	-2.569095E-005	0.0007178	10
	16	51	7546.875	5.412392	-0.8795835	1	5.483398	-9.230606	-1.687214E-005	0.000671	10
	17	54	5928.309	5.455247	-1.124339	1	5.569907	-11.64572	1.851791E-005	0.000681	10
	18	56	4733.456	5.505256	-1.400977	1	5.68072	-14.27757	-6.753459E-006	0.0006626	10
	19	58	3796.875	5.564753	-1.72974	1	5.82739	-17.26726	1.382842E-005	0.0006557	10
	20	61	2987.132	5.643188	-2.161889	1	6.043123	-20.96169	1.883429E-005	0.0006653	10
	21	63	2390.625	5.733292	-2.651314	1	6.316653	-24.81779	1.767576E-005	0.0006565	10
	22	65	1884.191	5.849531	-3.294824	1	6.713634	-29.39095	8.284373E-006	0.0006531	10
	23	68	1516.544	5.977872	-4.008605	1	7.197491	-33.84478	-7.310477E-006	0.0006657	10
	24	70	1193.986	6.147194	-4.971183	1	7.905736	-38.96217	-6.643802E-006	0.0006694	10
	25	72	946.5144	6.34571	-6.130069	1	8.823026	-44.00976	1.453772E-005	0.0007046	10
	26	75	751.7689	6.58938	-7.539271	1	10.01302	-48.8463	1.255214E-006	0.0006973	10
	27	77	597.4265	6.891704	-9.267068	1	11.54877	-53.36267	1.677957E-005	0.0006681	10
	28	79	477.4305	7.248836	-11.33869	1	13.45777	-57.40918	-5.379061E-006	0.0006919	10
	29	82	376.6741	7.7243	-14.03432	1	16.01958	-61.17221	-5.25929E-006	0.0006895	10
	30	84	298.2954	8.314199	-17.31158	1	19.2046	-64.34651	-5.716761E-006	0.0006926	10
	31	86	237.7717	9.037701	-21.22439	1	23.06848	-66.93488	-5.322639E-006	0.0006941	10
	32	89	189.0121	9.96525	-26.07488	1	27.91426	-69.08424	-5.763596E-006	0.0006941	10
	33	91	150.2404	11.14627	-32.02951	1	33.91355	-70.81211	-5.470732E-006	0.0006882	10
	34	94	119.1737	12.67089	-39.38615	1	41.37415	-72.16653	-5.050018E-006	0.0006946	10
	35	96	95.0169	14.56226	-48.10989	1	50.2655	-73.15959	-1.712482E-006	9.058797E-005	9
	36	98	75.60484	17.03523	-58.8832	1	61.29788	-73.86456	-1.763998E-006	9.157145E-005	9
	37	101	54.50582	21.85695	-78.44318	1	81.43131	-74.43034	-1.790033E-006	8.794497E-005	9
	38	103	45.95588	25.1601	-91.00147	1	94.41557	-74.54494	-1.710564E-006	8.721225E-005	9
	39	106	37.20238	30.21416	-109.1913	1	113.2944	-74.53278	-1.621976E-006	8.70656E-005	9
	40	108	30.04808	36.66939	-131.0237	1	136.0583	-74.36475	-1.672235E-006	8.675663E-005	9
	41	111	23.91582	45.34171	-158.6532	1	165.0051	-74.05052	-1.544561E-006	8.250892E-005	9
	42	113	18.60119	57.48467	-195.2433	1	203.53	-73.59422	-1.365357E-006	8.084487E-005	9
	43	115	15.02404	70.32198	-232.1674	1	242.5838	-73.14879	-1.707646E-006	8.669091E-005	9
	44	118	12.01923	86.49829	-277.5071	1	290.6754	-72.68787	-1.399549E-006	9.107945E-005	9
	45	120	9.450605	107.0512	-335.5958	1	352.2563	-72.30791	-1.40814E-006	7.795484E-005	9
	46	123	7.512019	129.8626	-400.3193	1	420.8561	-72.02707	-2.08412E-006	0.0006755	8
	47	125	5.978954	156.4351	-479.3053	1	504.188	-71.92442	-2.081194E-006	0.0006592	8
	48	128	4.734848	189.3922	-577.087	1	607.3704	-71.83086	-2.106497E-006	0.0006924	8
	49	132	3.75601	228.4817	-695.3723	1	731.947	-71.81078	-2.152905E-006	0.0006639	8
	50	135	3.004808	274.5733	-832.8848	1	876.9763	-71.7544	-2.192843E-006	0.0007038	8
	51	139	2.372217	337.452	-1009.72	1	1064.617	-71.5202	-2.134582E-006	0.0007373	8
	52	143	1.878005	414.4997	-1222.376	1	1290.741	-71.26854	-2.171061E-006	0.000643	8
	53	148	1.512097	507.172	-1454.636	1	1540.516	-70.77843	-2.102359E-006	0.0007078	8
	54	153	1.201923	634.5126	-1755.471	1	1866.624	-70.12768	-2.098277E-006	0.0006377	8
	55	159	0.956633	799.3273	-2105.979	1	2252.571	-69.21568	-2.15911E-006	2.351931E-005	8
