EXPLAIN
TAG	EISPOT
TITLE	LABEL	Potentiostatic EIS	Test Identifier
DATE	LABEL	2/24/2021	Date
TIME	LABEL	21:15:57	Time
NOTES	NOTES	1	Notes...
	
PSTAT	PSTAT	REF3000-16137	Potentiostat
VDC	POTEN	0.00000E+000	T	DC Voltage (V)
FREQINIT	QUANT	3.00000E+005	Initial Freq. (Hz)
FREQFINAL	QUANT	1.00000E+000	Final Freq. (Hz)
PTSPERDEC	QUANT	1.00000E+001	Points/decade
VAC	QUANT	5.00000E+001	AC Voltage (mV rms)
AREA	QUANT	1.00000E+000	Sample Area (cm^2)
SPEED	SELECTOR	2	Optimize for:
ZGUESS	QUANT	1.00000E+003	Estimated Z (ohms)
EOC	QUANT	0	Open Circuit (V)
SEQUENCER	TOGGLE	TRUE	Run as Sequence
PSTATMODEL	IQUANT	5	Pstat Model
PSTATSECTION	LABEL	REF3000-16137	Pstat Section
PSTATSERIALNO	LABEL	16137	Pstat Serial Number
CTRLMODE	IQUANT	1	Control Mode
IESTAB	IQUANT	0	I/E Stability
CASPEED	IQUANT	1	Control Amp Speed
CONVENTION	IQUANT	1	Current Convention
ICHRANGE	IQUANT	2	Ich Range
ICHRANGEMODE	TOGGLE	F	Ich Auto Range
ICHOFFSETENABLE	TOGGLE	T	Ich Offset Enable
ICHOFFSET	QUANT	0	Ich Offset (V)
ICHFILTER	IQUANT	3	Ich Filter
VCHRANGE	IQUANT	2	Vch Range
VCHRANGEMODE	TOGGLE	F	Vch Auto Range
VCHOFFSETENABLE	TOGGLE	T	Vch Offset Enable
VCHOFFSET	QUANT	0	Vch Offset (V)
VCHFILTER	IQUANT	3	Vch Filter
ACHRANGE	IQUANT	2	Ach Range
ACHOFFSETENABLE	TOGGLE	F	Ach Offset Enable
ACHOFFSET	QUANT	0	Ach Offset (V)
ACHFILTER	IQUANT	3	Ach Filter
IERANGELOWERLIMIT	IQUANT	2	I/E Range Lower Limit
IERANGEMODE	TOGGLE	F	I/E AutoRange
IERANGE	IQUANT	11	I/E Range
POSFEEDENABLE	TOGGLE	F	Positive Feedback IR Comp
POSFEEDRESISTANCE	QUANT	0	Positive Feedback Resistance (ohm)
ACHSELECT	IQUANT	0	Ach Select
CABLEID	IQUANT	13	Cable ID
DCCALDATE	LABEL	7/31/2020	DC Calibration Date
ACCALDATE	LABEL	7/31/2020	AC Calibration Date
THERMOSELECT	IQUANT	1	Thermo Select
FRAMEWORKVERSION	QUANT	6.33	Framework Version
INSTRUMENTVERSION	LABEL	3.50	Instrument Version
COMPLIANCEVOLTAGE	IQUANT	0	Compliance Voltage
ZCURVE	TABLE
	Pt	Time	Freq	Zreal	Zimag	Zsig	Zmod	Zphz	Idc	Vdc	IERange
	#	s	Hz	ohm	ohm	V	ohm	°	A	V	#
	0	10	300046.9	3.479977	2.228583	1	4.132411	32.63556	2.966165E-005	6.794515E-006	10
	1	13	238359.4	3.461898	1.781947	1	3.893594	27.2363	-8.860499E-005	-0.0003113	10
	2	17	189328.1	3.444004	1.402636	1	3.718676	22.15955	3.796411E-005	-9.284687E-006	10
	3	19	150421.9	3.428574	1.093821	1	3.598828	17.69429	-3.259322E-005	0.0001328	10
	4	22	119484.4	3.430769	0.8542653	1	3.535526	13.98236	-7.550872E-005	0.0004026	10
	5	24	94921.88	3.429362	0.6629139	1	3.492847	10.94064	1.089164E-005	0.000391	10
	6	27	75421.88	3.431419	0.4882392	1	3.465979	8.09797	3.249646E-005	0.0004504	10
	7	29	59859.37	3.433823	0.3250086	1	3.449169	5.406893	9.404544E-006	0.0006002	11
	8	32	47578.12	3.439585	0.2020104	1	3.445512	3.361181	-5.61733E-005	0.000624	11
	9	34	37828.12	3.447647	0.0903585	1	3.448831	1.501307	6.156008E-006	0.0007273	11
	10	37	30046.88	3.457021	-0.0150034	1	3.457054	-0.2486608	-2.929626E-005	0.0006823	11
	11	39	23859.38	3.468689	-0.1195695	1	3.470749	-1.974267	-4.470586E-005	0.0006938	11
	12	42	18984.38	3.481835	-0.2272064	1	3.48924	-3.73353	-4.443245E-005	0.0006998	11
	13	44	15046.87	3.499683	-0.3436186	1	3.516512	-5.607648	1.354258E-005	0.0006664	10
	14	46	11953.13	3.519791	-0.477096	1	3.551979	-7.719206	3.609262E-007	0.0006957	10
	15	49	9515.62	3.54318	-0.6289408	1	3.598568	-10.06558	-1.3938E-005	0.0006856	10
	16	51	7546.875	3.572315	-0.8115025	1	3.663327	-12.79836	-2.094298E-005	0.000669	10
	17	53	5928.309	3.609673	-1.038267	1	3.756027	-16.04707	1.541971E-005	0.0006733	10
	18	56	4733.456	3.654258	-1.29364	1	3.876482	-19.49442	-3.274818E-005	0.0006956	10
	19	58	3796.875	3.706441	-1.594911	1	4.035028	-23.28259	-2.026793E-005	0.000667	10
	20	60	2987.132	3.775852	-1.991842	1	4.269016	-27.8126	4.759694E-006	0.0006515	10
	21	63	2390.625	3.854446	-2.443897	1	4.563922	-32.37658	2.35832E-006	0.0007	10
	22	65	1884.191	3.956106	-3.032518	1	4.984671	-37.47165	-2.718068E-005	0.0007126	10
	23	67	1516.544	4.067794	-3.690835	1	5.492651	-42.21843	8.126546E-006	0.0006826	10
	24	70	1193.986	4.219764	-4.581083	1	6.228381	-47.35096	-1.163121E-005	0.0006876	10
	25	72	946.5144	4.401857	-5.646704	1	7.159721	-52.062	-1.613944E-005	0.0006683	10
	26	74	751.7689	4.630661	-6.9506	1	8.351877	-56.32747	1.516039E-005	0.0006743	10
	27	77	597.4265	4.910917	-8.545609	1	9.85619	-60.11525	1.32526E-005	0.0006699	10
	28	79	477.4305	5.257857	-10.45691	1	11.70436	-63.30621	-8.736439E-006	0.0006856	10
	29	81	376.6741	5.719758	-12.93704	1	14.14506	-66.1487	-8.756399E-006	0.0006831	10
	30	84	298.2954	6.298542	-15.94584	1	17.14473	-68.44618	-8.785068E-006	0.0006849	10
	31	86	237.7717	7.015614	-19.52806	1	20.75003	-70.23876	-8.545549E-006	0.0006896	10
	32	88	189.0121	7.942797	-23.96022	1	25.24243	-71.65968	-8.701824E-006	0.0006887	10
	33	91	150.2404	9.131059	-29.37698	1	30.76334	-72.73352	-7.998926E-006	0.0006866	10
	34	93	119.1737	10.67545	-36.0423	1	37.59006	-73.50112	-8.434115E-006	0.0006861	10
	35	96	95.0169	12.60279	-43.90857	1	45.68143	-73.98528	-5.154164E-006	8.958386E-005	9
	36	98	75.60484	15.11842	-53.56149	1	55.65429	-74.23759	-5.136532E-006	8.40325E-005	9
	37	101	54.50582	20.01777	-70.94593	1	73.71591	-74.24331	-5.162115E-006	8.631342E-005	9
	38	103	45.95588	23.35326	-82.00928	1	85.26955	-74.10497	-5.010997E-006	8.66342E-005	9
	39	106	37.20238	28.39861	-97.8962	1	101.9321	-73.82314	-5.116616E-006	9.037623E-005	9
	40	108	30.04808	34.7023	-116.7257	1	121.7749	-73.44289	-5.176179E-006	8.825403E-005	9
	41	110	23.91582	42.88457	-140.3531	1	146.7586	-73.00959	-5.041465E-006	7.943115E-005	9
	42	113	18.60119	53.9979	-171.611	1	179.9058	-72.53367	-4.745551E-006	9.13918E-005	9
	43	115	15.02404	65.14731	-203.1123	1	213.3044	-72.2166	-4.746593E-006	9.223818E-005	9
	44	117	12.01923	78.87411	-242.1999	1	254.7193	-71.9618	-5.071566E-006	8.01419E-005	9
	45	120	9.450605	96.1987	-292.9386	1	308.3297	-71.82023	-4.763969E-006	7.467332E-005	9
	46	122	7.512019	116.1356	-351.923	1	370.5905	-71.73695	-4.692979E-006	7.790245E-005	9
	47	125	5.978954	139.5977	-420.9159	1	443.461	-71.65178	-5.368957E-006	0.0006654	8
	48	128	4.734848	170.3175	-508.9223	1	536.6656	-71.49651	-5.449473E-006	0.0006762	8
	49	131	3.75601	208.7112	-614.4629	1	648.9415	-71.2392	-5.343711E-006	0.000678	8
	50	135	3.004808	256.3084	-736.3269	1	779.661	-70.80747	-5.465972E-006	0.0007089	8
	51	138	2.372217	322.5556	-891.7031	1	948.2491	-70.11343	-5.384399E-006	0.0007409	8
	52	143	1.878005	408.9987	-1073.891	1	1149.14	-69.15033	-5.407016E-006	0.0006481	8
	53	147	1.512097	514.1431	-1269.861	1	1369.997	-67.95789	-5.331792E-006	0.0007349	8
	54	153	1.201923	660.6439	-1515.849	1	1653.557	-66.45126	-5.296785E-006	0.0006382	8
	55	159	0.956633	851.8155	-1790.874	1	1983.134	-64.56226	-5.417139E-006	2.99213E-005	8
