EXPLAIN
TAG	EISPOT
TITLE	LABEL	Potentiostatic EIS	Test Identifier
DATE	LABEL	2/24/2021	Date
TIME	LABEL	21:29:58	Time
NOTES	NOTES	1	Notes...
	
PSTAT	PSTAT	REF3000-16137	Potentiostat
VDC	POTEN	0.00000E+000	T	DC Voltage (V)
FREQINIT	QUANT	3.00000E+005	Initial Freq. (Hz)
FREQFINAL	QUANT	1.00000E+000	Final Freq. (Hz)
PTSPERDEC	QUANT	1.00000E+001	Points/decade
VAC	QUANT	5.00000E+001	AC Voltage (mV rms)
AREA	QUANT	1.00000E+000	Sample Area (cm^2)
SPEED	SELECTOR	2	Optimize for:
ZGUESS	QUANT	1.00000E+003	Estimated Z (ohms)
EOC	QUANT	0	Open Circuit (V)
SEQUENCER	TOGGLE	TRUE	Run as Sequence
PSTATMODEL	IQUANT	5	Pstat Model
PSTATSECTION	LABEL	REF3000-16137	Pstat Section
PSTATSERIALNO	LABEL	16137	Pstat Serial Number
CTRLMODE	IQUANT	1	Control Mode
IESTAB	IQUANT	0	I/E Stability
CASPEED	IQUANT	1	Control Amp Speed
CONVENTION	IQUANT	1	Current Convention
ICHRANGE	IQUANT	2	Ich Range
ICHRANGEMODE	TOGGLE	F	Ich Auto Range
ICHOFFSETENABLE	TOGGLE	T	Ich Offset Enable
ICHOFFSET	QUANT	0	Ich Offset (V)
ICHFILTER	IQUANT	3	Ich Filter
VCHRANGE	IQUANT	2	Vch Range
VCHRANGEMODE	TOGGLE	F	Vch Auto Range
VCHOFFSETENABLE	TOGGLE	T	Vch Offset Enable
VCHOFFSET	QUANT	0	Vch Offset (V)
VCHFILTER	IQUANT	3	Vch Filter
ACHRANGE	IQUANT	2	Ach Range
ACHOFFSETENABLE	TOGGLE	F	Ach Offset Enable
ACHOFFSET	QUANT	0	Ach Offset (V)
ACHFILTER	IQUANT	3	Ach Filter
IERANGELOWERLIMIT	IQUANT	2	I/E Range Lower Limit
IERANGEMODE	TOGGLE	F	I/E AutoRange
IERANGE	IQUANT	11	I/E Range
POSFEEDENABLE	TOGGLE	F	Positive Feedback IR Comp
POSFEEDRESISTANCE	QUANT	0	Positive Feedback Resistance (ohm)
ACHSELECT	IQUANT	0	Ach Select
CABLEID	IQUANT	13	Cable ID
DCCALDATE	LABEL	7/31/2020	DC Calibration Date
ACCALDATE	LABEL	7/31/2020	AC Calibration Date
THERMOSELECT	IQUANT	1	Thermo Select
FRAMEWORKVERSION	QUANT	6.33	Framework Version
INSTRUMENTVERSION	LABEL	3.50	Instrument Version
COMPLIANCEVOLTAGE	IQUANT	0	Compliance Voltage
ZCURVE	TABLE
	Pt	Time	Freq	Zreal	Zimag	Zsig	Zmod	Zphz	Idc	Vdc	IERange
	#	s	Hz	ohm	ohm	V	ohm	°	A	V	#
	0	10	300046.9	5.936356	2.221283	1	6.338329	20.515	9.996947E-007	0.0001177	10
	1	13	238359.4	5.911311	1.752328	1	6.16557	16.51175	-6.493967E-006	-0.0001178	10
	2	16	189328.1	5.901605	1.379694	1	6.060734	13.15844	2.646782E-005	0.0001877	10
	3	19	150421.9	5.904861	1.072376	1	6.001448	10.29325	5.942679E-006	0.0003549	10
	4	21	119484.4	5.904869	0.8346125	1	5.963561	8.045071	1.692897E-005	0.0004697	10
	5	24	94921.88	5.915106	0.6541698	1	5.951169	6.310871	1.099664E-005	0.0005129	10
	6	26	75421.88	5.923097	0.4791227	1	5.942443	4.624619	-2.416415E-005	0.0006056	10
	7	29	59859.37	5.933748	0.3270316	1	5.942753	3.154598	-1.939735E-005	0.0006542	10
	8	31	47578.12	5.947274	0.1947163	1	5.95046	1.875218	2.273082E-005	0.0006312	10
	9	34	37828.12	5.963959	0.0757627	1	5.96444	0.7278136	-3.792308E-006	0.0006381	10
	10	36	30046.88	5.981726	-0.0364251	1	5.981837	-0.3488925	-1.139568E-005	0.0006486	10
	11	39	23859.38	6.000913	-0.1475139	1	6.002726	-1.408156	9.71708E-006	0.0006508	10
	12	41	18984.38	6.0226	-0.2624935	1	6.028317	-2.495642	-3.28756E-005	0.0006681	10
	13	43	15046.87	6.045562	-0.3903167	1	6.058148	-3.694033	1.870855E-005	0.0006527	10
	14	46	11953.13	6.072201	-0.5337943	1	6.095618	-5.023836	1.893898E-005	0.0006575	10
	15	48	9515.62	6.103188	-0.6994272	1	6.143135	-6.537594	-3.324819E-005	0.0006768	10
	16	50	7546.875	6.139674	-0.8985463	1	6.205077	-8.326175	2.159966E-005	0.0006889	10
	17	53	5928.309	6.185749	-1.148425	1	6.291452	-10.51759	-2.720337E-005	0.0006931	10
	18	55	4733.456	6.237303	-1.431665	1	6.399501	-12.92734	-2.37896E-005	0.0007068	10
	19	57	3796.875	6.29955	-1.766529	1	6.542549	-15.66464	-3.374504E-005	0.0006749	10
	20	60	2987.132	6.380458	-2.209743	1	6.752274	-19.10249	1.988813E-005	0.0006801	10
	21	62	2390.625	6.474733	-2.711273	1	7.019485	-22.72134	-3.652186E-006	0.0006771	10
	22	64	1884.191	6.593802	-3.370065	1	7.405105	-27.07139	2.046148E-005	0.0006686	10
	23	66	1516.544	6.72771	-4.101084	1	7.879148	-31.36569	2.044271E-005	0.0006696	10
	24	69	1193.986	6.903724	-5.086506	1	8.575193	-36.38194	1.707909E-005	0.0006843	10
	25	71	946.5144	7.112026	-6.264588	1	9.477656	-41.37503	9.684153E-006	0.0006699	10
	26	74	751.7689	7.365141	-7.70481	1	10.65877	-46.2912	-6.708578E-006	0.0006636	10
	27	76	597.4265	7.667013	-9.475287	1	12.18869	-51.02164	-2.888859E-005	0.0007046	10
	28	78	477.4305	8.033543	-11.59151	1	14.10323	-55.27596	-5.116065E-006	0.0007148	10
	29	81	376.6741	8.515924	-14.34565	1	16.68288	-59.30561	-4.761081E-006	0.0006869	10
	30	83	298.2954	9.111229	-17.69599	1	19.90383	-62.75718	-4.494656E-006	0.0006943	10
	31	85	237.7717	9.84053	-21.70002	1	23.82702	-65.60664	-4.717784E-006	0.0006909	10
	32	88	189.0121	10.77122	-26.67124	1	28.76411	-68.00861	-4.68723E-006	0.0006959	10
	33	90	150.2404	11.95251	-32.76424	1	34.87633	-69.95786	-4.553238E-006	0.0006936	10
	34	92	119.1737	13.47357	-40.30669	1	42.49902	-71.51644	-4.400955E-006	0.0006884	10
	35	95	95.0169	15.35716	-49.26348	1	51.60168	-72.68591	-1.273008E-006	0.0001181	9
	36	97	75.60484	17.816	-60.33866	1	62.91394	-73.54988	-1.289193E-006	0.0000952	9
	37	100	54.50582	22.60371	-80.48264	1	83.59654	-74.31249	-1.262239E-006	8.605944E-005	9
	38	102	45.95588	25.89077	-93.44264	1	96.9632	-74.51319	-9.71717E-007	9.307916E-005	9
	39	105	37.20238	30.92318	-112.2516	1	116.4331	-74.59814	-9.588472E-007	8.76614E-005	9
	40	107	30.04808	37.35244	-134.8721	1	139.9489	-74.52008	-1.173249E-006	9.082518E-005	9
	41	110	23.91582	46.00898	-163.5757	1	169.923	-74.29028	-1.219588E-006	8.827491E-005	9
	42	112	18.60119	58.32291	-201.8426	1	210.1	-73.88322	-1.304815E-006	9.271973E-005	9
	43	114	15.02404	71.40179	-240.3922	1	250.7721	-73.45742	-1.075928E-006	8.628757E-005	9
	44	116	12.01923	88.12483	-287.7884	1	300.9787	-72.97468	-1.073937E-006	8.088441E-005	9
	45	119	9.450605	109.8141	-348.4663	1	365.36	-72.50851	-1.123573E-006	8.968298E-005	9
	46	121	7.512019	133.3618	-415.6187	1	436.4908	-72.20985	-1.754206E-006	0.00065	8
	47	124	5.978954	161.5116	-497.5219	1	523.0813	-72.0149	-1.705139E-006	0.00067	8
	48	127	4.734848	195.6133	-598.9887	1	630.1207	-71.91438	-1.531374E-006	0.0006739	8
	49	130	3.75601	235.4332	-720.584	1	758.07	-71.90646	-1.670887E-006	0.0006497	8
	50	134	3.004808	282.0461	-862.5165	1	907.4606	-71.89206	-1.536941E-006	0.0006437	8
	51	138	2.372217	343.4203	-1044.902	1	1099.89	-71.80624	-1.58637E-006	0.0006295	8
	52	142	1.878005	422.5273	-1265.114	1	1333.808	-71.53153	-1.58202E-006	0.0006703	8
	53	146	1.512097	514.9243	-1509.404	1	1594.819	-71.16323	-1.560464E-006	0.0005692	8
	54	152	1.201923	638.4178	-1820.856	1	1929.532	-70.67862	-1.546323E-006	0.0006919	8
	55	158	0.956633	797.4706	-2188.58	1	2329.344	-69.97937	-1.581679E-006	2.446139E-005	8
