EXPLAIN
TAG	EISPOT
TITLE	LABEL	Potentiostatic EIS	Test Identifier
DATE	LABEL	2/24/2021	Date
TIME	LABEL	20:58:50	Time
NOTES	NOTES	1	Notes...
	
PSTAT	PSTAT	REF3000-16137	Potentiostat
VDC	POTEN	0.00000E+000	T	DC Voltage (V)
FREQINIT	QUANT	3.00000E+005	Initial Freq. (Hz)
FREQFINAL	QUANT	1.00000E+000	Final Freq. (Hz)
PTSPERDEC	QUANT	1.00000E+001	Points/decade
VAC	QUANT	5.00000E+001	AC Voltage (mV rms)
AREA	QUANT	1.00000E+000	Sample Area (cm^2)
SPEED	SELECTOR	2	Optimize for:
ZGUESS	QUANT	1.00000E+003	Estimated Z (ohms)
EOC	QUANT	0	Open Circuit (V)
SEQUENCER	TOGGLE	TRUE	Run as Sequence
PSTATMODEL	IQUANT	5	Pstat Model
PSTATSECTION	LABEL	REF3000-16137	Pstat Section
PSTATSERIALNO	LABEL	16137	Pstat Serial Number
CTRLMODE	IQUANT	1	Control Mode
IESTAB	IQUANT	0	I/E Stability
CASPEED	IQUANT	1	Control Amp Speed
CONVENTION	IQUANT	1	Current Convention
ICHRANGE	IQUANT	2	Ich Range
ICHRANGEMODE	TOGGLE	F	Ich Auto Range
ICHOFFSETENABLE	TOGGLE	T	Ich Offset Enable
ICHOFFSET	QUANT	0	Ich Offset (V)
ICHFILTER	IQUANT	3	Ich Filter
VCHRANGE	IQUANT	2	Vch Range
VCHRANGEMODE	TOGGLE	F	Vch Auto Range
VCHOFFSETENABLE	TOGGLE	T	Vch Offset Enable
VCHOFFSET	QUANT	0	Vch Offset (V)
VCHFILTER	IQUANT	3	Vch Filter
ACHRANGE	IQUANT	2	Ach Range
ACHOFFSETENABLE	TOGGLE	F	Ach Offset Enable
ACHOFFSET	QUANT	0	Ach Offset (V)
ACHFILTER	IQUANT	3	Ach Filter
IERANGELOWERLIMIT	IQUANT	2	I/E Range Lower Limit
IERANGEMODE	TOGGLE	F	I/E AutoRange
IERANGE	IQUANT	11	I/E Range
POSFEEDENABLE	TOGGLE	F	Positive Feedback IR Comp
POSFEEDRESISTANCE	QUANT	0	Positive Feedback Resistance (ohm)
ACHSELECT	IQUANT	0	Ach Select
CABLEID	IQUANT	13	Cable ID
DCCALDATE	LABEL	7/31/2020	DC Calibration Date
ACCALDATE	LABEL	7/31/2020	AC Calibration Date
THERMOSELECT	IQUANT	1	Thermo Select
FRAMEWORKVERSION	QUANT	6.33	Framework Version
INSTRUMENTVERSION	LABEL	3.50	Instrument Version
COMPLIANCEVOLTAGE	IQUANT	0	Compliance Voltage
ZCURVE	TABLE
	Pt	Time	Freq	Zreal	Zimag	Zsig	Zmod	Zphz	Idc	Vdc	IERange
	#	s	Hz	ohm	ohm	V	ohm	°	A	V	#
	0	10	300046.9	2.400367	2.209477	1	3.262446	42.62878	6.064163E-005	-0.0002751	11
	1	14	238359.4	2.354697	1.761095	1	2.940417	36.79309	2.069449E-005	-2.73582E-005	11
	2	17	189328.1	2.332138	1.394049	1	2.717027	30.86912	-0.0001405	0.0002502	11
	3	20	150421.9	2.359704	0.969441	1	2.551082	22.33442	-1.433578E-005	0.0003895	12
	4	24	119484.4	2.331157	0.7495024	1	2.448683	17.82339	-0.0001009	0.0003479	12
	5	28	94921.88	2.314752	0.5704048	1	2.383996	13.84311	7.320236E-006	0.0005392	12
	6	31	75421.88	2.305445	0.4203863	1	2.343459	10.33406	-4.039483E-005	0.0005502	12
	7	35	59859.37	2.295777	0.3431538	1	2.321281	8.501163	-4.488475E-005	0.0006116	11
	8	37	47578.12	2.297471	0.2213787	1	2.308112	5.503888	3.759742E-006	0.0006706	11
	9	40	37828.12	2.30077	0.1125572	1	2.303522	2.800763	-6.191497E-005	0.0006247	11
	10	43	30046.88	2.307197	0.0106297	1	2.307221	0.2639719	-2.673021E-005	0.000686	11
	11	45	23859.38	2.314195	-0.0891994	1	2.315914	-2.207343	-2.842536E-005	0.0006779	11
	12	47	18984.38	2.323446	-0.1908524	1	2.331271	-4.695846	-6.785965E-005	0.0006586	11
	13	50	15046.87	2.335542	-0.3014711	1	2.354918	-7.355054	1.962717E-006	0.0007188	11
	14	52	11953.13	2.352216	-0.423529	1	2.390041	-10.20704	-4.279928E-005	0.0007014	11
	15	54	9515.62	2.371665	-0.5614729	1	2.437221	-13.3191	5.990189E-007	0.0007148	11
	16	57	7546.875	2.396392	-0.7255614	1	2.503824	-16.84487	1.197625E-005	0.0007242	11
	17	59	5928.309	2.428845	-0.9298739	1	2.60076	-20.94915	9.013094E-006	0.0007222	11
	18	61	4733.456	2.466564	-1.158328	1	2.725007	-25.15532	-4.911956E-005	0.0006878	11
	19	64	3796.875	2.510469	-1.427572	1	2.887978	-29.62463	-5.841806E-005	0.0006729	11
	20	66	2987.132	2.569052	-1.783146	1	3.127241	-34.76401	1.301128E-005	0.0007232	11
	21	68	2390.625	2.637278	-2.188256	1	3.426908	-39.68387	-4.210921E-005	0.0007018	11
	22	70	1884.191	2.724812	-2.718186	1	3.848783	-44.93025	-3.966093E-005	0.0006985	11
	23	73	1516.544	2.827194	-3.311639	1	4.354306	-49.51213	7.721191E-006	0.0006762	10
	24	75	1193.986	2.963735	-4.111768	1	5.068566	-54.21618	-3.928693E-005	0.0006889	10
	25	78	946.5144	3.129855	-5.072478	1	5.960371	-58.3243	2.145015E-006	0.0006581	10
	26	80	751.7689	3.339475	-6.240281	1	7.077654	-61.84662	-3.532158E-005	0.0006854	10
	27	82	597.4265	3.599997	-7.668686	1	8.471642	-64.85271	-3.890405E-005	0.0006858	10
	28	85	477.4305	3.926351	-9.377158	1	10.16599	-67.28024	-1.435314E-005	0.0006803	10
	29	87	376.6741	4.363428	-11.59175	1	12.3858	-69.37239	-1.435578E-005	0.0006785	10
	30	89	298.2954	4.916676	-14.27332	1	15.0964	-70.9929	-1.443998E-005	0.0006851	10
	31	92	237.7717	5.607602	-17.45568	1	18.33428	-72.19049	-1.452551E-005	0.0006829	10
	32	94	189.0121	6.506262	-21.37847	1	22.3466	-73.07305	-1.448456E-005	0.0006834	10
	33	96	150.2404	7.662824	-26.14565	1	27.24544	-73.66508	-1.462386E-005	0.000681	10
	34	99	119.1737	9.169793	-31.99424	1	33.28238	-74.00729	-1.450588E-005	0.0006843	10
	35	101	95.0169	11.05886	-38.89097	1	40.43273	-74.1266	-1.449202E-005	0.0006776	10
	36	104	75.60484	13.4847	-47.20682	1	49.09502	-74.05792	-1.246969E-005	7.853287E-005	9
	37	106	54.50582	18.16488	-62.11414	1	64.71576	-73.69878	-1.25166E-005	7.787663E-005	9
	38	109	45.95588	21.2864	-71.51695	1	74.61759	-73.42482	-1.227064E-005	9.29307E-005	9
	39	111	37.20238	25.91717	-84.94935	1	88.81493	-73.03359	-1.225275E-005	8.437043E-005	9
	40	113	30.04808	31.58809	-100.9343	1	105.7617	-72.62213	-1.235424E-005	8.908724E-005	9
	41	116	23.91582	38.81895	-121.0076	1	127.0816	-72.21387	-1.250883E-005	8.321214E-005	9
	42	118	18.60119	48.52847	-147.6204	1	155.3924	-71.80233	-1.244922E-005	8.893101E-005	9
	43	121	15.02404	58.46661	-174.8389	1	184.3556	-71.50992	-1.1952E-005	8.436084E-005	9
	44	123	12.01923	71.07928	-208.6617	1	220.4359	-71.18892	-1.206214E-005	8.549374E-005	9
	45	125	9.450605	87.89902	-252.7093	1	267.5597	-70.82096	-1.196069E-005	7.705591E-005	9
	46	128	7.512019	108.322	-303.538	1	322.2871	-70.36031	-1.179196E-005	0.0001065	9
	47	131	5.978954	134.3476	-364.0525	1	388.0509	-69.74424	-1.181593E-005	9.103474E-005	9
	48	134	4.734848	168.5807	-436.3965	1	467.8262	-68.87836	-1.258205E-005	0.00069	8
	49	137	3.75601	214.0838	-522.9536	1	565.0773	-67.73707	-1.260244E-005	0.000669	8
	50	140	3.004808	272.4965	-619.6659	1	676.9344	-66.26263	-1.264419E-005	0.0007088	8
	51	144	2.372217	356.3153	-736.7066	1	818.3503	-64.18882	-1.253547E-005	0.0007494	8
	52	148	1.878005	465.4132	-863.9933	1	981.373	-61.68968	-1.259104E-005	0.0006519	8
	53	153	1.512097	595.183	-986.281	1	1151.952	-58.89063	-1.250545E-005	0.000722	8
	54	158	1.201923	770.4142	-1118.242	1	1357.941	-55.43505	-1.248318E-005	0.0006457	8
	55	165	0.956633	980.082	-1235.494	1	1577.025	-51.57604	-1.269397E-005	3.238457E-005	8
