EXPLAIN
TAG	EISPOT
TITLE	LABEL	Potentiostatic EIS	Test Identifier
DATE	LABEL	2/24/2021	Date
TIME	LABEL	21:38:17	Time
NOTES	NOTES	1	Notes...
	
PSTAT	PSTAT	REF3000-16137	Potentiostat
VDC	POTEN	0.00000E+000	T	DC Voltage (V)
FREQINIT	QUANT	3.00000E+005	Initial Freq. (Hz)
FREQFINAL	QUANT	1.00000E+000	Final Freq. (Hz)
PTSPERDEC	QUANT	1.00000E+001	Points/decade
VAC	QUANT	5.00000E+001	AC Voltage (mV rms)
AREA	QUANT	1.00000E+000	Sample Area (cm^2)
SPEED	SELECTOR	2	Optimize for:
ZGUESS	QUANT	1.00000E+003	Estimated Z (ohms)
EOC	QUANT	0	Open Circuit (V)
SEQUENCER	TOGGLE	TRUE	Run as Sequence
PSTATMODEL	IQUANT	5	Pstat Model
PSTATSECTION	LABEL	REF3000-16137	Pstat Section
PSTATSERIALNO	LABEL	16137	Pstat Serial Number
CTRLMODE	IQUANT	1	Control Mode
IESTAB	IQUANT	0	I/E Stability
CASPEED	IQUANT	1	Control Amp Speed
CONVENTION	IQUANT	1	Current Convention
ICHRANGE	IQUANT	2	Ich Range
ICHRANGEMODE	TOGGLE	F	Ich Auto Range
ICHOFFSETENABLE	TOGGLE	T	Ich Offset Enable
ICHOFFSET	QUANT	0	Ich Offset (V)
ICHFILTER	IQUANT	3	Ich Filter
VCHRANGE	IQUANT	2	Vch Range
VCHRANGEMODE	TOGGLE	F	Vch Auto Range
VCHOFFSETENABLE	TOGGLE	T	Vch Offset Enable
VCHOFFSET	QUANT	0	Vch Offset (V)
VCHFILTER	IQUANT	3	Vch Filter
ACHRANGE	IQUANT	2	Ach Range
ACHOFFSETENABLE	TOGGLE	F	Ach Offset Enable
ACHOFFSET	QUANT	0	Ach Offset (V)
ACHFILTER	IQUANT	3	Ach Filter
IERANGELOWERLIMIT	IQUANT	2	I/E Range Lower Limit
IERANGEMODE	TOGGLE	F	I/E AutoRange
IERANGE	IQUANT	11	I/E Range
POSFEEDENABLE	TOGGLE	F	Positive Feedback IR Comp
POSFEEDRESISTANCE	QUANT	0	Positive Feedback Resistance (ohm)
ACHSELECT	IQUANT	0	Ach Select
CABLEID	IQUANT	13	Cable ID
DCCALDATE	LABEL	7/31/2020	DC Calibration Date
ACCALDATE	LABEL	7/31/2020	AC Calibration Date
THERMOSELECT	IQUANT	1	Thermo Select
FRAMEWORKVERSION	QUANT	6.33	Framework Version
INSTRUMENTVERSION	LABEL	3.50	Instrument Version
COMPLIANCEVOLTAGE	IQUANT	0	Compliance Voltage
ZCURVE	TABLE
	Pt	Time	Freq	Zreal	Zimag	Zsig	Zmod	Zphz	Idc	Vdc	IERange
	#	s	Hz	ohm	ohm	V	ohm	°	A	V	#
	0	8	300046.9	9.093087	2.146024	1	9.342894	13.27917	7.365891E-005	-8.061586E-005	10
	1	11	238359.4	9.087017	1.713705	1	9.247198	10.67988	1.594482E-005	0.0001168	10
	2	14	189328.1	9.095377	1.351912	1	9.1953	8.454388	-4.913383E-005	0.0004372	10
	3	16	150421.9	9.096702	1.062436	1	9.158534	6.661593	-2.789587E-005	0.0004204	10
	4	19	119484.4	9.11987	0.812016	1	9.155949	5.08809	1.227529E-005	0.0005166	10
	5	21	94921.88	9.141115	0.6373643	1	9.163308	3.988494	-2.357247E-005	0.0006494	10
	6	24	75421.88	9.158216	0.4570751	1	9.169616	2.857189	2.043687E-005	0.0005821	10
	7	27	59859.37	9.182302	0.3037743	1	9.187325	1.894801	1.188795E-006	0.0006176	10
	8	29	47578.12	9.210591	0.1714583	1	9.212187	1.066457	2.122736E-005	0.0006335	10
	9	32	37828.12	9.241163	0.053083	1	9.241316	0.3291145	-2.574069E-005	0.0007049	10
	10	34	30046.88	9.271161	-0.0604901	1	9.271358	-0.3738234	-2.35623E-005	0.0007272	10
	11	37	23859.38	9.301187	-0.1738693	1	9.302812	-1.070919	2.240267E-005	0.0006573	10
	12	39	18984.38	9.333221	-0.2928841	1	9.337816	-1.797399	-2.334907E-005	0.0007058	10
	13	41	15046.87	9.367167	-0.4257747	1	9.376839	-2.602528	-3.560864E-006	0.0007178	10
	14	44	11953.13	9.406268	-0.5782571	1	9.424026	-3.517872	-5.52087E-006	0.000643	10
	15	46	9515.62	9.447799	-0.7518818	1	9.47767	-4.550166	-3.119496E-006	0.0007197	10
	16	48	7546.875	9.493998	-0.962555	1	9.54267	-5.789187	1.251516E-005	0.000659	10
	17	51	5928.309	9.55201	-1.22837	1	9.63067	-7.327906	-1.917992E-005	0.0006817	10
	18	53	4733.456	9.61431	-1.531183	1	9.73547	-9.048983	-1.643249E-005	0.0007036	10
	19	55	3796.875	9.68906	-1.889432	1	9.87156	-11.03459	7.183575E-006	0.0007195	10
	20	57	2987.132	9.78099	-2.36627	1	10.06315	-13.6	1.66117E-005	0.0006432	10
	21	60	2390.625	9.88876	-2.907203	1	10.30725	-16.38284	-1.627158E-005	0.0006929	10
	22	62	1884.191	10.02251	-3.619908	1	10.65619	-19.85859	2.911992E-006	0.0006984	10
	23	64	1516.544	10.17923	-4.409347	1	11.0932	-23.42086	-1.388669E-005	0.0006795	10
	24	67	1193.986	10.38032	-5.471378	1	11.73401	-27.79332	-1.331357E-005	0.0006763	10
	25	69	946.5144	10.61699	-6.747776	1	12.57986	-32.43856	1.697799E-005	0.0006554	10
	26	72	751.7689	10.90393	-8.293646	1	13.69965	-37.257	-1.54171E-005	0.0007078	10
	27	74	597.4265	11.24695	-10.18029	1	15.17011	-42.15014	3.326773E-006	0.0006426	10
	28	76	477.4305	11.64292	-12.44694	1	17.04358	-46.91159	-3.62664E-006	0.0006849	10
	29	78	376.6741	12.1583	-15.39484	1	19.61697	-51.69957	-3.91397E-006	0.0006789	10
	30	81	298.2954	12.78431	-18.98509	1	22.88826	-56.0442	-3.425348E-006	0.0006806	10
	31	83	237.7717	13.53996	-23.27932	1	26.9306	-59.81641	-3.725113E-006	0.0006786	10
	32	86	189.0121	14.49558	-28.6232	1	32.08441	-63.14108	-3.404734E-006	0.000682	10
	33	88	150.2404	15.6932	-35.18438	1	38.52554	-65.96181	-4.123654E-006	0.0006849	10
	34	90	119.1737	17.19833	-43.27377	1	46.5661	-68.3256	1.54635E-007	8.554226E-005	9
	35	93	95.0169	19.0891	-53.01882	1	56.35059	-70.1989	1.399876E-007	8.533731E-005	9
	36	95	75.60484	21.51606	-65.04547	1	68.5117	-71.69656	6.498892E-008	8.651678E-005	9
	37	98	54.50582	26.20647	-87.04379	1	90.90324	-73.24441	3.950954E-008	8.302281E-005	9
	38	100	45.95588	29.41934	-101.2696	1	105.4563	-73.80115	8.616534E-008	9.018843E-005	9
	39	103	37.20238	34.31102	-121.996	1	126.7291	-74.29151	1.052267E-007	9.001476E-005	9
	40	105	30.04808	40.57772	-147.0897	1	152.5842	-74.57738	8.035967E-008	9.247262E-005	9
	41	108	23.91582	49.12062	-179.3559	1	185.9607	-74.68384	1.784233E-007	8.26031E-005	9
	42	110	18.60119	61.36789	-222.6132	1	230.917	-74.58804	3.02867E-007	0.0000955	9
	43	112	15.02404	74.76722	-266.7299	1	277.0108	-74.34126	3.049501E-007	0.0001052	9
	44	114	12.01923	92.27434	-321.5557	1	334.5334	-73.98852	3.823111E-007	8.777224E-005	9
	45	117	9.450605	115.996	-391.5661	1	408.386	-73.4988	2.162099E-007	7.544459E-005	9
	46	119	7.512019	143.1381	-469.2689	1	490.6137	-73.03705	-5.600103E-007	0.0006495	8
	47	122	5.978954	176.2903	-562.7245	1	589.6924	-72.60527	-4.173346E-007	0.0006692	8
	48	125	4.734848	216.1152	-677.0573	1	710.7125	-72.29703	-4.923515E-007	0.0006615	8
	49	128	3.75601	262.4853	-812.5777	1	853.921	-72.09809	-3.672299E-007	0.000673	8
	50	132	3.004808	314.8107	-969.305	1	1019.146	-72.00726	-4.690836E-007	0.0007023	8
	51	136	2.372217	381.0618	-1171.808	1	1232.21	-71.98593	-4.009487E-007	0.0007391	8
	52	140	1.878005	460.1696	-1414.818	1	1487.773	-71.98289	-4.469904E-007	0.0006397	8
	53	144	1.512097	551.1149	-1684.698	1	1772.551	-71.88554	-3.861015E-007	0.0007206	8
	54	150	1.201923	670.0706	-2038.838	1	2146.126	-71.80673	-3.931775E-007	0.0006344	8
	55	156	0.956633	821.0723	-2459.682	1	2593.105	-71.54035	-4.550627E-007	1.898448E-005	8
