EXPLAIN
TAG	EISPOT
TITLE	LABEL	Potentiostatic EIS	Test Identifier
DATE	LABEL	2/24/2021	Date
TIME	LABEL	21:49:20	Time
NOTES	NOTES	1	Notes...
	
PSTAT	PSTAT	REF3000-16137	Potentiostat
VDC	POTEN	0.00000E+000	T	DC Voltage (V)
FREQINIT	QUANT	3.00000E+005	Initial Freq. (Hz)
FREQFINAL	QUANT	1.00000E+000	Final Freq. (Hz)
PTSPERDEC	QUANT	1.00000E+001	Points/decade
VAC	QUANT	5.00000E+001	AC Voltage (mV rms)
AREA	QUANT	1.00000E+000	Sample Area (cm^2)
SPEED	SELECTOR	2	Optimize for:
ZGUESS	QUANT	1.00000E+003	Estimated Z (ohms)
EOC	QUANT	0	Open Circuit (V)
SEQUENCER	TOGGLE	TRUE	Run as Sequence
PSTATMODEL	IQUANT	5	Pstat Model
PSTATSECTION	LABEL	REF3000-16137	Pstat Section
PSTATSERIALNO	LABEL	16137	Pstat Serial Number
CTRLMODE	IQUANT	1	Control Mode
IESTAB	IQUANT	0	I/E Stability
CASPEED	IQUANT	1	Control Amp Speed
CONVENTION	IQUANT	1	Current Convention
ICHRANGE	IQUANT	2	Ich Range
ICHRANGEMODE	TOGGLE	F	Ich Auto Range
ICHOFFSETENABLE	TOGGLE	T	Ich Offset Enable
ICHOFFSET	QUANT	0	Ich Offset (V)
ICHFILTER	IQUANT	3	Ich Filter
VCHRANGE	IQUANT	2	Vch Range
VCHRANGEMODE	TOGGLE	F	Vch Auto Range
VCHOFFSETENABLE	TOGGLE	T	Vch Offset Enable
VCHOFFSET	QUANT	0	Vch Offset (V)
VCHFILTER	IQUANT	3	Vch Filter
ACHRANGE	IQUANT	2	Ach Range
ACHOFFSETENABLE	TOGGLE	F	Ach Offset Enable
ACHOFFSET	QUANT	0	Ach Offset (V)
ACHFILTER	IQUANT	3	Ach Filter
IERANGELOWERLIMIT	IQUANT	2	I/E Range Lower Limit
IERANGEMODE	TOGGLE	F	I/E AutoRange
IERANGE	IQUANT	11	I/E Range
POSFEEDENABLE	TOGGLE	F	Positive Feedback IR Comp
POSFEEDRESISTANCE	QUANT	0	Positive Feedback Resistance (ohm)
ACHSELECT	IQUANT	0	Ach Select
CABLEID	IQUANT	13	Cable ID
DCCALDATE	LABEL	7/31/2020	DC Calibration Date
ACCALDATE	LABEL	7/31/2020	AC Calibration Date
THERMOSELECT	IQUANT	1	Thermo Select
FRAMEWORKVERSION	QUANT	6.33	Framework Version
INSTRUMENTVERSION	LABEL	3.50	Instrument Version
COMPLIANCEVOLTAGE	IQUANT	0	Compliance Voltage
ZCURVE	TABLE
	Pt	Time	Freq	Zreal	Zimag	Zsig	Zmod	Zphz	Idc	Vdc	IERange
	#	s	Hz	ohm	ohm	V	ohm	°	A	V	#
	0	8	300046.9	19.09613	1.99379	1	19.19993	5.960547	-0.0001024	0.0002576	10
	1	11	238359.4	19.1553	1.558199	1	19.21857	4.65052	4.975934E-005	0.0004184	10
	2	14	189328.1	19.22137	1.219138	1	19.25999	3.62919	4.695832E-005	0.0006121	10
	3	17	150421.9	19.27459	0.9316301	1	19.29709	2.767217	1.084888E-005	0.0005404	10
	4	19	119484.4	19.33846	0.720328	1	19.35187	2.133194	3.067801E-005	0.0006005	10
	5	22	94921.88	19.39907	0.5474598	1	19.4068	1.616511	2.50809E-005	0.0006471	10
	6	24	75421.88	19.4681	0.3804071	1	19.47182	1.119418	2.436455E-005	0.0006715	10
	7	27	59859.37	19.53973	0.240225	1	19.54121	0.7043691	7.431172E-006	0.0007057	10
	8	29	47578.12	19.61218	0.1130176	1	19.6125	0.3301705	-1.105443E-005	0.0006573	10
	9	32	37828.12	19.68237	-0.0027672	1	19.68237	-0.0080553	1.300454E-005	0.0006106	10
	10	34	30046.88	19.75856	-0.1155073	1	19.75889	-0.3349438	2.197843E-005	0.0006287	10
	11	37	23859.38	19.83255	-0.2336345	1	19.83393	-0.6749334	-2.921428E-005	0.0006649	10
	12	39	18984.38	19.90747	-0.3560022	1	19.91065	-1.024502	-2.816671E-005	0.0007176	10
	13	42	15046.87	19.98218	-0.5014676	1	19.98847	-1.437578	2.438683E-005	0.0006991	10
	14	44	11953.13	20.06397	-0.6624315	1	20.0749	-1.890989	-2.523179E-005	0.0007489	10
	15	46	9515.62	20.14724	-0.8492967	1	20.16513	-2.413845	-1.627627E-005	0.0006762	10
	16	49	7546.875	20.23548	-1.077962	1	20.26417	-3.049316	-2.415674E-006	0.0006526	10
	17	51	5928.309	20.33562	-1.369869	1	20.38171	-3.853797	-1.593488E-005	0.0007173	10
	18	53	4733.456	20.44469	-1.700527	1	20.51529	-4.754743	-2.267886E-005	0.0007271	10
	19	55	3796.875	20.55932	-2.091496	1	20.66543	-5.808704	-2.758393E-005	0.0007398	10
	20	58	2987.132	20.69416	-2.6255	1	20.86004	-7.230576	-3.810857E-006	0.00065	10
	21	60	2390.625	20.84037	-3.228322	1	21.08894	-8.805534	1.863576E-005	0.0006288	10
	22	62	1884.191	21.01919	-4.025721	1	21.40124	-10.84233	1.86803E-005	0.0006805	10
	23	65	1516.544	21.21919	-4.917995	1	21.78166	-13.04911	3.59638E-006	0.00063	10
	24	67	1193.986	21.47687	-6.114094	1	22.3302	-15.89074	4.819642E-006	0.0006317	10
	25	69	946.5144	21.77848	-7.564242	1	23.05472	-19.15347	2.056297E-005	0.0007106	10
	26	72	751.7689	22.13784	-9.305415	1	24.01406	-22.79895	-2.933948E-005	0.0007098	10
	27	74	597.4265	22.57166	-11.44176	1	25.306	-26.88082	1.849965E-005	0.0006347	10
	28	76	477.4305	23.08061	-13.98827	1	26.98863	-31.21844	-3.006702E-006	0.0006818	10
	29	79	376.6741	23.71773	-17.28502	1	29.34796	-36.08382	-2.616456E-006	0.0006788	10
	30	81	298.2954	24.46878	-21.28287	1	32.42965	-41.01664	-2.871121E-006	0.0006833	10
	31	83	237.7717	25.34847	-26.05749	1	36.35296	-45.79021	-2.704579E-006	0.0006841	10
	32	86	189.0121	26.38865	-31.95539	1	41.44283	-50.45022	9.297673E-007	8.751477E-005	9
	33	88	150.2404	27.69262	-39.25227	1	48.03771	-54.79689	9.634216E-007	8.413943E-005	9
	34	91	119.1737	29.30876	-48.32447	1	56.51776	-58.76321	8.699089E-007	8.883321E-005	9
	35	93	95.0169	31.272	-59.23104	1	66.97951	-62.16745	9.022573E-007	8.704489E-005	9
	36	95	75.60484	33.74252	-72.73964	1	80.18487	-65.11432	9.321107E-007	8.508733E-005	9
	37	98	54.50582	38.40265	-97.5807	1	104.8654	-68.51801	9.124846E-007	7.60892E-005	9
	38	101	45.95588	41.56476	-113.727	1	121.0845	-69.92373	9.892175E-007	9.08607E-005	9
	39	103	37.20238	46.32855	-137.4074	1	145.0074	-71.36785	9.611128E-007	8.925331E-005	9
	40	105	30.04808	52.38381	-166.2782	1	174.3344	-72.51363	9.163581E-007	8.39635E-005	9
	41	108	23.91582	60.57804	-203.6566	1	212.4752	-73.43479	8.769619E-007	8.568111E-005	9
	42	110	18.60119	72.34102	-254.3087	1	264.3977	-74.12099	9.086769E-007	9.041529E-005	9
	43	112	15.02404	85.293	-306.8672	1	318.5002	-74.46686	1.219612E-006	0.0000965	9
	44	115	12.01923	102.4696	-372.6337	1	386.4659	-74.62441	8.87608E-007	8.261571E-005	9
	45	117	9.450605	125.9398	-456.6741	1	473.7215	-74.58242	3.164694E-008	0.000668	8
	46	119	7.512019	155.0235	-555.0938	1	576.3345	-74.39631	7.894845E-008	0.0006495	8
	47	122	5.978954	192.0558	-672.499	1	699.3857	-74.06144	2.903961E-007	0.0006617	8
	48	125	4.734848	239.901	-816.1335	1	850.6624	-73.61939	2.156783E-007	0.0006662	8
	49	128	3.75601	297.8221	-984.866	1	1028.911	-73.17476	3.145245E-007	0.0006709	8
	50	132	3.004808	365.7192	-1176.661	1	1232.185	-72.73418	2.02073E-007	0.0007005	8
	51	136	2.372217	450.0374	-1418.647	1	1488.319	-72.39941	2.548508E-007	0.0007088	8
	52	140	1.878005	551.061	-1706.138	1	1792.924	-72.1002	2.728679E-007	0.0006383	8
	53	145	1.512097	659.712	-2024.936	1	2129.691	-71.9547	2.625777E-007	0.0007617	8
	54	150	1.201923	792.2761	-2436.667	1	2562.235	-71.9882	2.747127E-007	0.000637	8
	55	156	0.956633	949.7853	-2932.403	1	3082.382	-72.05322	2.075753E-007	1.209726E-005	8
