EXPLAIN
TAG	EISPOT
TITLE	LABEL	Potentiostatic EIS	Test Identifier
DATE	LABEL	2/24/2021	Date
TIME	LABEL	21:07:30	Time
NOTES	NOTES	1	Notes...
	
PSTAT	PSTAT	REF3000-16137	Potentiostat
VDC	POTEN	0.00000E+000	T	DC Voltage (V)
FREQINIT	QUANT	3.00000E+005	Initial Freq. (Hz)
FREQFINAL	QUANT	1.00000E+000	Final Freq. (Hz)
PTSPERDEC	QUANT	1.00000E+001	Points/decade
VAC	QUANT	5.00000E+001	AC Voltage (mV rms)
AREA	QUANT	1.00000E+000	Sample Area (cm^2)
SPEED	SELECTOR	2	Optimize for:
ZGUESS	QUANT	1.00000E+003	Estimated Z (ohms)
EOC	QUANT	0	Open Circuit (V)
SEQUENCER	TOGGLE	TRUE	Run as Sequence
PSTATMODEL	IQUANT	5	Pstat Model
PSTATSECTION	LABEL	REF3000-16137	Pstat Section
PSTATSERIALNO	LABEL	16137	Pstat Serial Number
CTRLMODE	IQUANT	1	Control Mode
IESTAB	IQUANT	0	I/E Stability
CASPEED	IQUANT	1	Control Amp Speed
CONVENTION	IQUANT	1	Current Convention
ICHRANGE	IQUANT	2	Ich Range
ICHRANGEMODE	TOGGLE	F	Ich Auto Range
ICHOFFSETENABLE	TOGGLE	T	Ich Offset Enable
ICHOFFSET	QUANT	0	Ich Offset (V)
ICHFILTER	IQUANT	3	Ich Filter
VCHRANGE	IQUANT	2	Vch Range
VCHRANGEMODE	TOGGLE	F	Vch Auto Range
VCHOFFSETENABLE	TOGGLE	T	Vch Offset Enable
VCHOFFSET	QUANT	0	Vch Offset (V)
VCHFILTER	IQUANT	3	Vch Filter
ACHRANGE	IQUANT	2	Ach Range
ACHOFFSETENABLE	TOGGLE	F	Ach Offset Enable
ACHOFFSET	QUANT	0	Ach Offset (V)
ACHFILTER	IQUANT	3	Ach Filter
IERANGELOWERLIMIT	IQUANT	2	I/E Range Lower Limit
IERANGEMODE	TOGGLE	F	I/E AutoRange
IERANGE	IQUANT	11	I/E Range
POSFEEDENABLE	TOGGLE	F	Positive Feedback IR Comp
POSFEEDRESISTANCE	QUANT	0	Positive Feedback Resistance (ohm)
ACHSELECT	IQUANT	0	Ach Select
CABLEID	IQUANT	13	Cable ID
DCCALDATE	LABEL	7/31/2020	DC Calibration Date
ACCALDATE	LABEL	7/31/2020	AC Calibration Date
THERMOSELECT	IQUANT	1	Thermo Select
FRAMEWORKVERSION	QUANT	6.33	Framework Version
INSTRUMENTVERSION	LABEL	3.50	Instrument Version
COMPLIANCEVOLTAGE	IQUANT	0	Compliance Voltage
ZCURVE	TABLE
	Pt	Time	Freq	Zreal	Zimag	Zsig	Zmod	Zphz	Idc	Vdc	IERange
	#	s	Hz	ohm	ohm	V	ohm	°	A	V	#
	0	10	300046.9	2.770693	2.255291	1	3.572544	39.14493	-3.755994E-005	-0.0001764	10
	1	13	238359.4	2.749743	1.787011	1	3.279405	33.01915	-1.410868E-005	-0.000544	10
	2	16	189328.1	2.820132	1.189622	1	3.060775	22.87158	-0.0001379	-0.0001781	12
	3	20	150421.9	2.729251	1.092571	1	2.939817	21.81717	-3.300124E-005	0.0003854	11
	4	22	119484.4	2.720099	0.8439705	1	2.848021	17.23765	-1.63412E-005	0.0005176	11
	5	25	94921.88	2.713748	0.6421844	1	2.788697	13.31363	7.185957E-006	0.0005706	11
	6	27	75421.88	2.713926	0.4769602	1	2.755519	9.96768	-7.565194E-006	0.0005903	11
	7	30	59859.37	2.716067	0.3349645	1	2.736645	7.030617	-5.729787E-006	0.0006493	11
	8	32	47578.12	2.719787	0.2125343	1	2.728078	4.468226	-3.274698E-005	0.0006389	11
	9	35	37828.12	2.725522	0.1023041	1	2.727441	2.149622	4.201638E-007	0.000689	11
	10	37	30046.88	2.733089	-0.0014232	1	2.733089	-0.0298348	6.504305E-006	0.0007189	11
	11	40	23859.38	2.74206	-0.1037805	1	2.744023	-2.167476	-1.727432E-006	0.0007093	11
	12	42	18984.38	2.753616	-0.2081702	1	2.761473	-4.323273	-2.978992E-005	0.0007028	11
	13	45	15046.87	2.766843	-0.3230774	1	2.785641	-6.660127	6.982096E-006	0.0007299	11
	14	47	11953.13	2.785141	-0.4502542	1	2.821301	-9.183158	-4.394186E-005	0.0007012	11
	15	49	9515.62	2.805269	-0.5950165	1	2.867678	-11.97534	-3.909384E-005	0.0006703	11
	16	52	7546.875	2.83357	-0.7678802	1	2.935773	-15.16264	-2.697137E-005	0.0007136	11
	17	54	5928.309	2.868366	-0.982374	1	3.031927	-18.90559	-1.510129E-005	0.0007078	11
	18	56	4733.456	2.908613	-1.223363	1	3.155416	-22.81164	1.153557E-005	0.0007357	11
	19	58	3796.875	2.957138	-1.507982	1	3.319438	-27.01915	1.455021E-005	0.0007494	11
	20	61	2987.132	3.021399	-1.882975	1	3.560119	-31.9317	-4.591437E-005	0.0006943	11
	21	63	2390.625	3.096292	-2.311376	1	3.863869	-36.74126	-4.059366E-005	0.000672	10
	22	65	1884.191	3.191274	-2.869687	1	4.291775	-41.96281	2.464559E-006	0.0006601	10
	23	68	1516.544	3.297446	-3.4937	1	4.80407	-46.65531	1.283713E-005	0.0006723	10
	24	70	1193.986	3.441828	-4.337805	1	5.537394	-51.56979	-1.518739E-005	0.0006872	10
	25	73	946.5144	3.617622	-5.349523	1	6.457908	-55.93142	-1.926494E-005	0.000707	10
	26	75	751.7689	3.837291	-6.583662	1	7.620328	-59.76421	-2.327656E-005	0.0006935	10
	27	77	597.4265	4.113288	-8.090386	1	9.075984	-63.05045	1.29417E-005	0.0006702	10
	28	79	477.4305	4.453663	-9.89498	1	10.85107	-65.76782	-1.151917E-005	0.0006869	10
	29	82	376.6741	4.910642	-12.23509	1	13.18377	-68.13158	-1.22561E-005	0.0006973	10
	30	84	298.2954	5.486331	-15.06731	1	16.03507	-69.99234	-1.091598E-005	0.0006835	10
	31	86	237.7717	6.204009	-18.43268	1	19.44873	-71.39796	-1.091922E-005	0.0006788	10
	32	89	189.0121	7.13625	-22.58541	1	23.686	-72.46517	-1.09204E-005	0.0006819	10
	33	91	150.2404	8.333713	-27.64408	1	28.87293	-73.2238	-1.117248E-005	0.0006783	10
	34	94	119.1737	9.89106	-33.84628	1	35.26193	-73.70979	-1.125332E-005	0.0006809	10
	35	96	95.0169	11.83478	-41.13136	1	42.80012	-73.94781	-8.591782E-006	8.399262E-005	9
	36	99	75.60484	14.36091	-50.03255	1	52.05278	-73.98486	-8.612974E-006	8.278244E-005	9
	37	101	54.50582	19.23102	-65.93869	1	68.68583	-73.74068	-8.808014E-006	7.669454E-005	9
	38	104	45.95588	22.49877	-75.98298	1	79.24397	-73.50583	-8.328152E-006	8.488399E-005	9
	39	106	37.20238	27.34971	-90.32893	1	94.37862	-73.15479	-8.402188E-006	8.527868E-005	9
	40	108	30.04808	33.32217	-107.3538	1	112.4064	-72.75587	-8.516537E-006	8.483597E-005	9
	41	111	23.91582	40.85283	-128.6764	1	135.0058	-72.38613	-8.614143E-006	8.499363E-005	9
	42	113	18.60119	50.92749	-157.0111	1	165.0639	-72.02922	-8.193708E-006	8.682169E-005	9
	43	115	15.02404	61.02026	-185.8744	1	195.6343	-71.82564	-8.333281E-006	8.949107E-005	9
	44	118	12.01923	73.56329	-221.8549	1	233.7331	-71.65536	-8.229644E-006	8.147035E-005	9
	45	120	9.450605	89.87821	-268.8703	1	283.4949	-71.5162	-8.156895E-006	8.462431E-005	9
	46	123	7.512019	109.141	-323.5644	1	341.4757	-71.36032	-8.05007E-006	0.000101	9
	47	125	5.978954	133.1728	-389.2017	1	411.355	-71.11064	-8.139277E-006	8.412903E-005	9
	48	128	4.734848	164.0113	-468.7473	1	496.6123	-70.71543	-8.693609E-006	0.0006905	8
	49	132	3.75601	204.8298	-565.0873	1	601.0648	-70.07571	-8.924727E-006	0.0006597	8
	50	135	3.004808	256.4048	-675.4965	1	722.5226	-69.21425	-8.734791E-006	0.0006586	8
	51	139	2.372217	329.4905	-812.505	1	876.7715	-67.92625	-8.765397E-006	0.0006663	8
	52	143	1.878005	428.6686	-972.088	1	1062.409	-66.20362	-8.802142E-006	0.0006726	8
	53	148	1.512097	547.2083	-1138.839	1	1263.484	-64.33588	-8.676692E-006	0.0005754	8
	54	153	1.201923	714.3479	-1331.58	1	1511.092	-61.78794	-8.673243E-006	0.0006885	8
	55	159	0.956633	924.9463	-1532.97	1	1790.397	-58.89453	-8.749183E-006	3.281563E-005	8
