EXPLAIN
TAG	EISPOT
TITLE	LABEL	Potentiostatic EIS	Test Identifier
DATE	LABEL	2/24/2021	Date
TIME	LABEL	21:35:31	Time
NOTES	NOTES	1	Notes...
	
PSTAT	PSTAT	REF3000-16137	Potentiostat
VDC	POTEN	0.00000E+000	T	DC Voltage (V)
FREQINIT	QUANT	3.00000E+005	Initial Freq. (Hz)
FREQFINAL	QUANT	1.00000E+000	Final Freq. (Hz)
PTSPERDEC	QUANT	1.00000E+001	Points/decade
VAC	QUANT	5.00000E+001	AC Voltage (mV rms)
AREA	QUANT	1.00000E+000	Sample Area (cm^2)
SPEED	SELECTOR	2	Optimize for:
ZGUESS	QUANT	1.00000E+003	Estimated Z (ohms)
EOC	QUANT	0	Open Circuit (V)
SEQUENCER	TOGGLE	TRUE	Run as Sequence
PSTATMODEL	IQUANT	5	Pstat Model
PSTATSECTION	LABEL	REF3000-16137	Pstat Section
PSTATSERIALNO	LABEL	16137	Pstat Serial Number
CTRLMODE	IQUANT	1	Control Mode
IESTAB	IQUANT	0	I/E Stability
CASPEED	IQUANT	1	Control Amp Speed
CONVENTION	IQUANT	1	Current Convention
ICHRANGE	IQUANT	2	Ich Range
ICHRANGEMODE	TOGGLE	F	Ich Auto Range
ICHOFFSETENABLE	TOGGLE	T	Ich Offset Enable
ICHOFFSET	QUANT	0	Ich Offset (V)
ICHFILTER	IQUANT	3	Ich Filter
VCHRANGE	IQUANT	2	Vch Range
VCHRANGEMODE	TOGGLE	F	Vch Auto Range
VCHOFFSETENABLE	TOGGLE	T	Vch Offset Enable
VCHOFFSET	QUANT	0	Vch Offset (V)
VCHFILTER	IQUANT	3	Vch Filter
ACHRANGE	IQUANT	2	Ach Range
ACHOFFSETENABLE	TOGGLE	F	Ach Offset Enable
ACHOFFSET	QUANT	0	Ach Offset (V)
ACHFILTER	IQUANT	3	Ach Filter
IERANGELOWERLIMIT	IQUANT	2	I/E Range Lower Limit
IERANGEMODE	TOGGLE	F	I/E AutoRange
IERANGE	IQUANT	11	I/E Range
POSFEEDENABLE	TOGGLE	F	Positive Feedback IR Comp
POSFEEDRESISTANCE	QUANT	0	Positive Feedback Resistance (ohm)
ACHSELECT	IQUANT	0	Ach Select
CABLEID	IQUANT	13	Cable ID
DCCALDATE	LABEL	7/31/2020	DC Calibration Date
ACCALDATE	LABEL	7/31/2020	AC Calibration Date
THERMOSELECT	IQUANT	1	Thermo Select
FRAMEWORKVERSION	QUANT	6.33	Framework Version
INSTRUMENTVERSION	LABEL	3.50	Instrument Version
COMPLIANCEVOLTAGE	IQUANT	0	Compliance Voltage
ZCURVE	TABLE
	Pt	Time	Freq	Zreal	Zimag	Zsig	Zmod	Zphz	Idc	Vdc	IERange
	#	s	Hz	ohm	ohm	V	ohm	°	A	V	#
	0	8	300046.9	7.800525	2.167282	1	8.096005	15.52732	7.991318E-005	-0.0001491	10
	1	11	238359.4	7.790643	1.732405	1	7.980936	12.53687	-1.251568E-005	-1.323793E-005	10
	2	14	189328.1	7.790037	1.367844	1	7.909214	9.95898	-3.255278E-005	0.0002318	10
	3	17	150421.9	7.799504	1.076378	1	7.873427	7.857528	-1.020814E-005	0.0005164	10
	4	19	119484.4	7.803463	0.8209064	1	7.846523	6.005297	1.404992E-005	0.0005	10
	5	22	94921.88	7.818615	0.6442785	1	7.845116	4.71071	1.96178E-005	0.0005563	10
	6	24	75421.88	7.834233	0.4674821	1	7.848168	3.414888	6.210691E-006	0.0006316	10
	7	27	59859.37	7.852615	0.3135211	1	7.858871	2.286359	-5.726647E-006	0.0006031	10
	8	30	47578.12	7.874549	0.180044	1	7.876607	1.309785	3.133212E-006	0.0006115	10
	9	32	37828.12	7.898581	0.0612924	1	7.898818	0.4446019	1.631025E-005	0.0006272	10
	10	35	30046.88	7.924133	-0.0510903	1	7.924297	-0.3694058	6.654413E-006	0.0006951	10
	11	37	23859.38	7.949759	-0.1640091	1	7.95145	-1.181885	-1.336627E-005	0.0006694	10
	12	39	18984.38	7.976504	-0.2820816	1	7.98149	-2.025367	-1.424976E-005	0.0006722	10
	13	42	15046.87	8.006489	-0.4135175	1	8.01716	-2.956574	1.686722E-005	0.0006914	10
	14	44	11953.13	8.039294	-0.5615436	1	8.058883	-3.995612	-2.666345E-006	0.0006581	10
	15	46	9515.62	8.076715	-0.7329969	1	8.109908	-5.185635	-1.319363E-005	0.0007234	10
	16	49	7546.875	8.118726	-0.939153	1	8.172865	-6.598498	1.099037E-005	0.0006385	10
	17	51	5928.309	8.170656	-1.200298	1	8.258349	-8.357178	1.654614E-005	0.0006409	10
	18	53	4733.456	8.228631	-1.495456	1	8.363418	-10.30041	2.02974E-005	0.0006592	10
	19	55	3796.875	8.298427	-1.846035	1	8.501278	-12.54157	2.365729E-005	0.000689	10
	20	58	2987.132	8.385968	-2.310898	1	8.698546	-15.40646	-2.219762E-005	0.0006953	10
	21	60	2390.625	8.487386	-2.841987	1	8.950564	-18.51304	6.070411E-006	0.0007158	10
	22	62	1884.191	8.617104	-3.530501	1	9.312299	-22.27933	2.03997E-005	0.0006687	10
	23	65	1516.544	8.763053	-4.301753	1	9.76198	-26.14626	-7.593365E-006	0.0006953	10
	24	67	1193.986	8.955873	-5.337334	1	10.42568	-30.79321	-1.706404E-005	0.0007006	10
	25	69	946.5144	9.182171	-6.576709	1	11.29448	-35.61205	2.157213E-005	0.0006768	10
	26	72	751.7689	9.4515	-8.080185	1	12.43464	-40.52747	-2.73684E-005	0.0007076	10
	27	74	597.4265	9.77679	-9.92888	1	13.93443	-45.44221	-2.815349E-005	0.0007026	10
	28	76	477.4305	10.16493	-12.13906	1	15.83296	-50.05808	-3.713435E-006	0.0006847	10
	29	79	376.6741	10.66534	-15.01824	1	18.42001	-54.61919	-3.845386E-006	0.0006867	10
	30	81	298.2954	11.27749	-18.52589	1	21.68849	-58.66937	-3.815933E-006	0.0006877	10
	31	83	237.7717	12.02205	-22.71682	1	25.70182	-62.1116	-4.504636E-006	0.0006854	10
	32	86	189.0121	12.96646	-27.93106	1	30.79405	-65.09782	-3.873446E-006	0.0006871	10
	33	88	150.2404	14.15406	-34.3292	1	37.13262	-67.59345	-3.358555E-006	0.0006886	10
	34	91	119.1737	15.65617	-42.21099	1	45.02092	-69.65004	-1.220956E-007	8.809123E-005	9
	35	93	95.0169	17.54721	-51.69775	1	54.59452	-71.2518	-2.141648E-007	8.942172E-005	9
	36	95	75.60484	19.98076	-63.39308	1	66.46738	-72.50575	-2.689618E-007	8.505599E-005	9
	37	98	54.50582	24.69732	-84.74676	1	88.27214	-73.75256	-4.2774E-007	8.649977E-005	9
	38	101	45.95588	27.93243	-98.533	1	102.4157	-74.17287	-8.132312E-008	8.725101E-005	9
	39	103	37.20238	32.87954	-118.6073	1	123.0802	-74.50591	-2.655445E-007	8.915575E-005	9
	40	105	30.04808	39.20642	-142.8781	1	148.1597	-74.65546	-2.866704E-007	9.318213E-005	9
	41	108	23.91582	47.83111	-173.973	1	180.4285	-74.62727	-2.665408E-007	8.580591E-005	9
	42	110	18.60119	60.14798	-215.4063	1	223.6462	-74.39865	-2.107638E-007	0.000097	9
	43	112	15.02404	73.41882	-257.7069	1	267.9612	-74.09814	-2.239116E-007	7.949103E-005	9
	44	115	12.01923	90.93081	-309.8803	1	322.9462	-73.64629	1.486059E-007	8.774614E-005	9
	45	117	9.450605	114.0015	-376.6214	1	393.4972	-73.15919	6.189044E-009	7.953643E-005	9
	46	120	7.512019	140.1264	-450.4469	1	471.7391	-72.71997	-7.772072E-007	0.0006547	8
	47	122	5.978954	171.3834	-539.2365	1	565.8164	-72.36839	-6.807286E-007	0.0006639	8
	48	125	4.734848	209.4078	-648.1259	1	681.1158	-72.09449	-7.179453E-007	0.0006906	8
	49	129	3.75601	253.0736	-778.6802	1	818.7729	-71.99567	-7.197438E-007	0.0006594	8
	50	132	3.004808	302.8411	-929.9032	1	977.974	-71.96115	-7.789638E-007	0.000704	8
	51	136	2.372217	367.1213	-1125.757	1	1184.106	-71.93829	-7.05895E-007	0.000746	8
	52	140	1.878005	444.5003	-1360.654	1	1431.419	-71.90874	-7.486857E-007	0.0006423	8
	53	145	1.512097	535.1134	-1621.238	1	1707.267	-71.73377	-6.930464E-007	0.0007311	8
	54	150	1.201923	655.0959	-1961.613	1	2068.109	-71.53285	-6.747774E-007	0.0006324	8
	55	156	0.956633	807.41	-2365.071	1	2499.094	-71.15064	-7.618865E-007	2.226028E-005	8
