EXPLAIN
TAG	EISPOT
TITLE	LABEL	Potentiostatic EIS	Test Identifier
DATE	LABEL	2/24/2021	Date
TIME	LABEL	21:10:19	Time
NOTES	NOTES	1	Notes...
	
PSTAT	PSTAT	REF3000-16137	Potentiostat
VDC	POTEN	0.00000E+000	T	DC Voltage (V)
FREQINIT	QUANT	3.00000E+005	Initial Freq. (Hz)
FREQFINAL	QUANT	1.00000E+000	Final Freq. (Hz)
PTSPERDEC	QUANT	1.00000E+001	Points/decade
VAC	QUANT	5.00000E+001	AC Voltage (mV rms)
AREA	QUANT	1.00000E+000	Sample Area (cm^2)
SPEED	SELECTOR	2	Optimize for:
ZGUESS	QUANT	1.00000E+003	Estimated Z (ohms)
EOC	QUANT	0	Open Circuit (V)
SEQUENCER	TOGGLE	TRUE	Run as Sequence
PSTATMODEL	IQUANT	5	Pstat Model
PSTATSECTION	LABEL	REF3000-16137	Pstat Section
PSTATSERIALNO	LABEL	16137	Pstat Serial Number
CTRLMODE	IQUANT	1	Control Mode
IESTAB	IQUANT	0	I/E Stability
CASPEED	IQUANT	1	Control Amp Speed
CONVENTION	IQUANT	1	Current Convention
ICHRANGE	IQUANT	2	Ich Range
ICHRANGEMODE	TOGGLE	F	Ich Auto Range
ICHOFFSETENABLE	TOGGLE	T	Ich Offset Enable
ICHOFFSET	QUANT	0	Ich Offset (V)
ICHFILTER	IQUANT	3	Ich Filter
VCHRANGE	IQUANT	2	Vch Range
VCHRANGEMODE	TOGGLE	F	Vch Auto Range
VCHOFFSETENABLE	TOGGLE	T	Vch Offset Enable
VCHOFFSET	QUANT	0	Vch Offset (V)
VCHFILTER	IQUANT	3	Vch Filter
ACHRANGE	IQUANT	2	Ach Range
ACHOFFSETENABLE	TOGGLE	F	Ach Offset Enable
ACHOFFSET	QUANT	0	Ach Offset (V)
ACHFILTER	IQUANT	3	Ach Filter
IERANGELOWERLIMIT	IQUANT	2	I/E Range Lower Limit
IERANGEMODE	TOGGLE	F	I/E AutoRange
IERANGE	IQUANT	11	I/E Range
POSFEEDENABLE	TOGGLE	F	Positive Feedback IR Comp
POSFEEDRESISTANCE	QUANT	0	Positive Feedback Resistance (ohm)
ACHSELECT	IQUANT	0	Ach Select
CABLEID	IQUANT	13	Cable ID
DCCALDATE	LABEL	7/31/2020	DC Calibration Date
ACCALDATE	LABEL	7/31/2020	AC Calibration Date
THERMOSELECT	IQUANT	1	Thermo Select
FRAMEWORKVERSION	QUANT	6.33	Framework Version
INSTRUMENTVERSION	LABEL	3.50	Instrument Version
COMPLIANCEVOLTAGE	IQUANT	0	Compliance Voltage
ZCURVE	TABLE
	Pt	Time	Freq	Zreal	Zimag	Zsig	Zmod	Zphz	Idc	Vdc	IERange
	#	s	Hz	ohm	ohm	V	ohm	°	A	V	#
	0	10	300046.9	2.990354	2.253986	1	3.744685	37.00725	3.693761E-006	-0.000141	10
	1	13	238359.4	2.94894	1.781969	1	3.445527	31.14349	1.799693E-005	-0.0004202	10
	2	16	189328.1	3.015814	1.179491	1	3.23826	21.36057	-0.0002481	-0.000518	12
	3	20	150421.9	2.934988	1.086049	1	3.129482	20.30626	-5.162611E-005	0.0003579	11
	4	22	119484.4	2.920436	0.8394126	1	3.038677	16.03609	6.495743E-005	0.0004348	11
	5	25	94921.88	2.916252	0.6412555	1	2.985923	12.40142	-4.183421E-005	0.0005617	11
	6	27	75421.88	2.916392	0.473707	1	2.954613	9.22593	-3.535903E-005	0.0005939	11
	7	30	59859.37	2.917735	0.3320369	1	2.936567	6.492303	-6.327809E-005	0.0005904	11
	8	32	47578.12	2.92347	0.209383	1	2.930959	4.096608	-4.23787E-005	0.0006503	11
	9	35	37828.12	2.929443	0.098685	1	2.931105	1.929411	-2.979819E-005	0.0006819	11
	10	38	30046.88	2.93704	-0.0058502	1	2.937046	-0.1141258	1.429398E-005	0.0007306	11
	11	40	23859.38	2.946809	-0.1087803	1	2.948816	-2.114091	1.786946E-005	0.0007324	11
	12	42	18984.38	2.957851	-0.2144235	1	2.965613	-4.146289	-5.769544E-005	0.000655	11
	13	45	15046.87	2.972674	-0.3306853	1	2.99101	-6.347584	-4.885786E-005	0.0006805	11
	14	47	11953.13	2.990939	-0.4591979	1	3.025984	-8.728447	-1.391701E-005	0.0007091	11
	15	49	9515.62	3.01183	-0.6064776	1	3.072285	-11.38512	-1.996183E-005	0.0006758	11
	16	52	7546.875	3.040257	-0.7825107	1	3.139344	-14.43368	4.681541E-006	0.0007316	11
	17	54	5928.309	3.076107	-1.000478	1	3.234717	-18.01668	1.406361E-005	0.0007419	11
	18	56	4733.456	3.118018	-1.246383	1	3.357902	-21.78835	-4.295051E-005	0.0006982	11
	19	59	3796.875	3.16847	-1.53525	1	3.520823	-25.85203	-4.417542E-005	0.0007068	11
	20	61	2987.132	3.236627	-1.918912	1	3.762709	-30.66259	-1.149376E-005	0.0006683	10
	21	63	2390.625	3.310394	-2.354431	1	4.062272	-35.42135	1.338867E-005	0.000677	10
	22	66	1884.191	3.407698	-2.923171	1	4.489692	-40.62346	-3.330597E-005	0.000691	10
	23	68	1516.544	3.515404	-3.557153	1	5.00114	-45.33822	1.351365E-005	0.0006749	10
	24	70	1193.986	3.662521	-4.415187	1	5.736544	-50.32334	-1.182867E-005	0.0006664	10
	25	73	946.5144	3.838079	-5.446634	1	6.663083	-54.8288	-3.851648E-005	0.000676	10
	26	75	751.7689	4.063033	-6.701535	1	7.837015	-58.77224	1.152962E-005	0.0006744	10
	27	77	597.4265	4.344278	-8.241175	1	9.3161	-62.20435	-3.079302E-005	0.0007319	10
	28	80	477.4305	4.683846	-10.07667	1	11.11206	-65.07002	-9.867403E-006	0.0006846	10
	29	82	376.6741	5.14372	-12.46055	1	13.48047	-67.56915	-1.030054E-005	0.0006853	10
	30	84	298.2954	5.72216	-15.34978	1	16.38166	-69.55533	-1.062086E-005	0.0006904	10
	31	87	237.7717	6.441412	-18.78416	1	19.85791	-71.07227	-1.031159E-005	0.0006899	10
	32	89	189.0121	7.373142	-23.02502	1	24.17674	-72.24374	-1.116354E-005	0.0006897	10
	33	91	150.2404	8.572765	-28.19486	1	29.46935	-73.08789	-1.061414E-005	0.0007207	10
	34	94	119.1737	10.13112	-34.54054	1	35.99567	-73.65302	-1.001601E-005	0.0006857	10
	35	96	95.0169	12.07551	-42.00624	1	43.70747	-73.96167	-7.456819E-006	0.000113	9
	36	99	75.60484	14.60757	-51.13787	1	53.18329	-74.05797	-7.351356E-006	8.045475E-005	9
	37	101	54.50582	19.50211	-67.48532	1	70.24671	-73.88161	-7.45139E-006	7.546449E-005	9
	38	104	45.95588	22.79716	-77.8372	1	81.10696	-73.67561	-7.15012E-006	8.716515E-005	9
	39	106	37.20238	27.7258	-92.62355	1	96.6842	-73.33553	-7.128559E-006	7.626512E-005	9
	40	108	30.04808	33.77076	-110.1505	1	115.2111	-72.95512	-7.234866E-006	8.041541E-005	9
	41	111	23.91582	41.53319	-132.1738	1	138.5457	-72.55563	-7.495953E-006	8.443101E-005	9
	42	113	18.60119	51.89593	-161.3502	1	169.4906	-72.17037	-7.336356E-006	8.826674E-005	9
	43	116	15.02404	62.233	-191.0513	1	200.9317	-71.95751	-7.262924E-006	7.13922E-005	9
	44	118	12.01923	74.96133	-227.9221	1	239.9327	-71.79448	-7.053826E-006	8.170442E-005	9
	45	120	9.450605	91.41093	-276.2475	1	290.9788	-71.69051	-7.130447E-006	9.290555E-005	9
	46	123	7.512019	110.5484	-332.2051	1	350.1159	-71.59403	-6.924829E-006	0.000097	9
	47	126	5.978954	134.5067	-399.5986	1	421.6291	-71.39654	-6.956717E-006	8.286214E-005	9
	48	129	4.734848	165.1629	-481.3811	1	508.9268	-71.0628	-7.540479E-006	0.0006674	8
	49	132	3.75601	205.0026	-580.9212	1	616.032	-70.56246	-7.60238E-006	0.0006841	8
	50	135	3.004808	255.2052	-695.0841	1	740.4536	-69.83892	-7.456802E-006	0.0006415	8
	51	139	2.372217	326.5395	-839.0099	1	900.3142	-68.7342	-7.556457E-006	0.0005946	8
	52	143	1.878005	419.485	-1005.753	1	1089.728	-67.35968	-7.440734E-006	0.000678	8
	53	148	1.512097	533.2938	-1180.835	1	1295.675	-65.69492	-7.441118E-006	0.0006162	8
	54	153	1.201923	693.2479	-1394.596	1	1557.399	-63.56822	-7.396239E-006	0.0006961	8
	55	160	0.956633	898.7086	-1622.744	1	1854.987	-61.02143	-7.517952E-006	2.678012E-005	8
