EXPLAIN
TAG	EISPOT
TITLE	LABEL	Potentiostatic EIS	Test Identifier
DATE	LABEL	2/24/2021	Date
TIME	LABEL	22:34:19	Time
NOTES	NOTES	1	Notes...
	
PSTAT	PSTAT	REF3000-16137	Potentiostat
VDC	POTEN	0.00000E+000	T	DC Voltage (V)
FREQINIT	QUANT	3.00000E+005	Initial Freq. (Hz)
FREQFINAL	QUANT	1.00000E+000	Final Freq. (Hz)
PTSPERDEC	QUANT	1.00000E+001	Points/decade
VAC	QUANT	5.00000E+001	AC Voltage (mV rms)
AREA	QUANT	1.00000E+000	Sample Area (cm^2)
SPEED	SELECTOR	2	Optimize for:
ZGUESS	QUANT	1.00000E+003	Estimated Z (ohms)
EOC	QUANT	0	Open Circuit (V)
SEQUENCER	TOGGLE	TRUE	Run as Sequence
PSTATMODEL	IQUANT	5	Pstat Model
PSTATSECTION	LABEL	REF3000-16137	Pstat Section
PSTATSERIALNO	LABEL	16137	Pstat Serial Number
CTRLMODE	IQUANT	1	Control Mode
IESTAB	IQUANT	0	I/E Stability
CASPEED	IQUANT	1	Control Amp Speed
CONVENTION	IQUANT	1	Current Convention
ICHRANGE	IQUANT	2	Ich Range
ICHRANGEMODE	TOGGLE	F	Ich Auto Range
ICHOFFSETENABLE	TOGGLE	T	Ich Offset Enable
ICHOFFSET	QUANT	0	Ich Offset (V)
ICHFILTER	IQUANT	3	Ich Filter
VCHRANGE	IQUANT	2	Vch Range
VCHRANGEMODE	TOGGLE	F	Vch Auto Range
VCHOFFSETENABLE	TOGGLE	T	Vch Offset Enable
VCHOFFSET	QUANT	0	Vch Offset (V)
VCHFILTER	IQUANT	3	Vch Filter
ACHRANGE	IQUANT	2	Ach Range
ACHOFFSETENABLE	TOGGLE	F	Ach Offset Enable
ACHOFFSET	QUANT	0	Ach Offset (V)
ACHFILTER	IQUANT	3	Ach Filter
IERANGELOWERLIMIT	IQUANT	2	I/E Range Lower Limit
IERANGEMODE	TOGGLE	F	I/E AutoRange
IERANGE	IQUANT	11	I/E Range
POSFEEDENABLE	TOGGLE	F	Positive Feedback IR Comp
POSFEEDRESISTANCE	QUANT	0	Positive Feedback Resistance (ohm)
ACHSELECT	IQUANT	0	Ach Select
CABLEID	IQUANT	13	Cable ID
DCCALDATE	LABEL	7/31/2020	DC Calibration Date
ACCALDATE	LABEL	7/31/2020	AC Calibration Date
THERMOSELECT	IQUANT	1	Thermo Select
FRAMEWORKVERSION	QUANT	6.33	Framework Version
INSTRUMENTVERSION	LABEL	3.50	Instrument Version
COMPLIANCEVOLTAGE	IQUANT	0	Compliance Voltage
ZCURVE	TABLE
	Pt	Time	Freq	Zreal	Zimag	Zsig	Zmod	Zphz	Idc	Vdc	IERange
	#	s	Hz	ohm	ohm	V	ohm	°	A	V	#
	0	27	300046.9	1084.524	-3370.757	1	3540.931	-72.16467	-9.414132E-005	0.004115	9
	1	48	238359.4	1447.142	-4077.439	1	4326.63	-70.4595	8.590576E-005	-0.0034123	9
	2	65	189328.1	2225.722	-5076.375	1	5542.871	-66.3251	-9.122696E-005	0.0022622	9
	3	75	150421.9	3442.005	-5416.496	1	6417.618	-57.56538	-8.989927E-005	0.0022321	9
	4	83	119484.4	3784.212	-6707.625	1	7701.46	-60.5698	7.785925E-005	-0.0234921	8
	5	90	94921.88	5023.605	-7640.245	1	9143.848	-56.67432	2.692249E-005	-0.0073919	8
	6	99	75421.88	6532.866	-8589.66	1	10791.69	-52.7452	1.556301E-005	-0.0089477	8
	7	106	59859.37	8260.658	-9518.2	1	12602.96	-49.04594	2.701586E-005	-0.0073589	8
	8	115	47578.12	10182.63	-10254.14	1	14451.06	-45.20048	-1.166968E-006	0.0074081	8
	9	122	37828.12	14017.51	-9804.41	1	17106.05	-34.97049	3.296474E-006	-0.0226817	7
	10	129	30046.88	16095.56	-9742.98	1	18814.7	-31.1874	-3.504415E-006	0.023546	7
	11	135	23859.38	18207.4	-9426.937	1	20503.09	-27.373	-4.915816E-006	0.0035325	7
	12	139	18984.38	20138.98	-8880.826	1	22010.17	-23.79637	1.230326E-006	-0.0183549	7
	13	144	15046.87	21887.81	-8134.516	1	23350.52	-20.38738	3.271331E-006	-0.0226819	7
	14	148	11953.13	23456.38	-7495.163	1	24624.77	-17.72056	-3.16145E-006	-0.0049276	7
	15	152	9515.62	24538.49	-7009.992	1	25520.14	-15.94322	7.435149E-006	-0.0073602	8
	16	159	7546.875	26310.11	-6018.679	1	26989.74	-12.88522	-3.110022E-006	-0.0047014	7
	17	164	5928.309	27503.62	-6481.92	1	28257.11	-13.26121	9.143561E-006	0.0038044	8
	18	170	4733.456	28984.1	-4944.296	1	29402.79	-9.6807	7.084834E-006	-0.0172801	7
	19	176	3796.875	30067.56	-4117.896	1	30348.23	-7.798413	-6.269155E-006	0.0114645	7
	20	181	2987.132	31415.32	-3563.413	1	31616.77	-6.471352	-6.096681E-006	0.0242379	7
	21	187	2390.625	32542.34	-1320.61	1	32569.12	-2.323862	-1.865104E-005	0.0002521	9
	22	193	1884.191	34906.05	684.3019	1	34912.76	1.123089	1.776738E-005	0.0001168	8
	23	199	1516.544	36767.24	-686.6669	1	36773.65	-1.069935	-9.901227E-006	-0.0018183	8
	24	207	1193.986	35853.7	-1992.493	1	35909.02	-3.180819	-6.113806E-006	0.0244682	7
	25	213	946.5144	35079.6	-3177.648	1	35223.23	-5.175951	-3.486886E-006	0.0237055	7
	26	216	751.7689	36838.78	-2600.245	1	36930.43	-4.037495	-7.034225E-006	0.0183682	7
	27	220	597.4265	39514.62	-4506.156	1	39770.73	-6.505774	2.184522E-005	-0.0095512	8
	28	225	477.4305	38809.6	-1069.964	1	38824.35	-1.57922	-2.526E-007	0.0006508	8
	29	228	376.6741	39363.27	-850.7935	1	39372.46	-1.238192	-7.093083E-008	0.0006572	7
	30	231	298.2954	39917.14	-341.0724	1	39918.6	-0.4895525	-1.229822E-008	0.0007212	6
	31	233	237.7717	40421.97	-330.6523	1	40423.32	-0.4686699	-1.090832E-008	0.0006649	6
	32	235	189.0121	40876.91	-303.3046	1	40878.03	-0.425124	-1.241485E-008	0.0006596	6
	33	238	150.2404	41361.91	-303.933	1	41363.03	-0.4210096	-9.936063E-009	0.0006591	6
	34	240	119.1737	41914.34	-302.09	1	41915.43	-0.4129417	-1.185097E-008	0.0006269	6
	35	243	95.0169	42362.46	-294.357	1	42363.48	-0.3981153	-9.474646E-009	0.0006909	6
	36	245	75.60484	42938.19	-333.199	1	42939.48	-0.4446045	-9.800714E-009	0.0007072	6
	37	248	54.50582	43467.51	-294.8028	1	43468.51	-0.3885821	-9.649616E-009	0.0007037	6
	38	250	45.95588	44019.61	-403.9039	1	44021.46	-0.5257052	-1.661602E-008	0.0006424	6
	39	253	37.20238	44529.58	-444.0263	1	44531.79	-0.5713055	-1.116088E-008	0.0007241	6
	40	255	30.04808	45053	-519.7526	1	45055.99	-0.6609617	-5.612085E-009	0.000711	6
	41	257	23.91582	45618.54	-619.5917	1	45622.75	-0.7781444	-3.683192E-009	0.0007088	6
	42	260	18.60119	46166.18	-813.3029	1	46173.34	-1.009267	-2.064732E-008	0.0006446	6
	43	262	15.02404	46711.24	-876.1528	1	46719.45	-1.074559	3.541268E-009	0.0006578	6
	44	264	12.01923	47276.79	-1041.99	1	47288.27	-1.262606	-2.41858E-008	0.0007209	6
	45	267	9.450605	47962.16	-1294.269	1	47979.63	-1.545763	-1.387732E-008	0.0007172	6
	46	269	7.512019	48585.34	-1595.561	1	48611.54	-1.880939	-1.188296E-009	0.0006495	6
	47	272	5.978954	49329.15	-1930.404	1	49366.91	-2.24102	-9.183272E-009	0.0007072	6
	48	275	4.734848	50187.58	-2420.665	1	50245.92	-2.76137	1.062617E-008	0.0006916	6
	49	278	3.75601	51126.63	-2943.498	1	51211.29	-3.295035	-2.21256E-008	0.0006397	6
	50	282	3.004808	52253.7	-3628.696	1	52379.54	-3.97246	-3.246082E-008	0.0006956	6
	51	285	2.372217	53373.5	-4339.531	1	53549.62	-4.648208	-9.719116E-009	0.0007512	6
	52	290	1.878005	54765.53	-5442.997	1	55035.35	-5.675832	-2.16054E-008	0.0006515	6
	53	294	1.512097	56431.83	-6644.418	1	56821.65	-6.715224	-2.597688E-008	0.0007402	6
	54	300	1.201923	58312.14	-8020.991	1	58861.21	-7.832038	-4.499437E-009	0.0006446	6
	55	306	0.956633	60806.87	-9923.05	1	61611.21	-9.268375	-3.385428E-008	3.704831E-005	6
