EXPLAIN
TAG	EISPOT
TITLE	LABEL	Potentiostatic EIS	Test Identifier
DATE	LABEL	2/24/2021	Date
TIME	LABEL	21:54:57	Time
NOTES	NOTES	1	Notes...
	
PSTAT	PSTAT	REF3000-16137	Potentiostat
VDC	POTEN	0.00000E+000	T	DC Voltage (V)
FREQINIT	QUANT	3.00000E+005	Initial Freq. (Hz)
FREQFINAL	QUANT	1.00000E+000	Final Freq. (Hz)
PTSPERDEC	QUANT	1.00000E+001	Points/decade
VAC	QUANT	5.00000E+001	AC Voltage (mV rms)
AREA	QUANT	1.00000E+000	Sample Area (cm^2)
SPEED	SELECTOR	2	Optimize for:
ZGUESS	QUANT	1.00000E+003	Estimated Z (ohms)
EOC	QUANT	0	Open Circuit (V)
SEQUENCER	TOGGLE	TRUE	Run as Sequence
PSTATMODEL	IQUANT	5	Pstat Model
PSTATSECTION	LABEL	REF3000-16137	Pstat Section
PSTATSERIALNO	LABEL	16137	Pstat Serial Number
CTRLMODE	IQUANT	1	Control Mode
IESTAB	IQUANT	0	I/E Stability
CASPEED	IQUANT	1	Control Amp Speed
CONVENTION	IQUANT	1	Current Convention
ICHRANGE	IQUANT	2	Ich Range
ICHRANGEMODE	TOGGLE	F	Ich Auto Range
ICHOFFSETENABLE	TOGGLE	T	Ich Offset Enable
ICHOFFSET	QUANT	0	Ich Offset (V)
ICHFILTER	IQUANT	3	Ich Filter
VCHRANGE	IQUANT	2	Vch Range
VCHRANGEMODE	TOGGLE	F	Vch Auto Range
VCHOFFSETENABLE	TOGGLE	T	Vch Offset Enable
VCHOFFSET	QUANT	0	Vch Offset (V)
VCHFILTER	IQUANT	3	Vch Filter
ACHRANGE	IQUANT	2	Ach Range
ACHOFFSETENABLE	TOGGLE	F	Ach Offset Enable
ACHOFFSET	QUANT	0	Ach Offset (V)
ACHFILTER	IQUANT	3	Ach Filter
IERANGELOWERLIMIT	IQUANT	2	I/E Range Lower Limit
IERANGEMODE	TOGGLE	F	I/E AutoRange
IERANGE	IQUANT	11	I/E Range
POSFEEDENABLE	TOGGLE	F	Positive Feedback IR Comp
POSFEEDRESISTANCE	QUANT	0	Positive Feedback Resistance (ohm)
ACHSELECT	IQUANT	0	Ach Select
CABLEID	IQUANT	13	Cable ID
DCCALDATE	LABEL	7/31/2020	DC Calibration Date
ACCALDATE	LABEL	7/31/2020	AC Calibration Date
THERMOSELECT	IQUANT	1	Thermo Select
FRAMEWORKVERSION	QUANT	6.33	Framework Version
INSTRUMENTVERSION	LABEL	3.50	Instrument Version
COMPLIANCEVOLTAGE	IQUANT	0	Compliance Voltage
ZCURVE	TABLE
	Pt	Time	Freq	Zreal	Zimag	Zsig	Zmod	Zphz	Idc	Vdc	IERange
	#	s	Hz	ohm	ohm	V	ohm	°	A	V	#
	0	7	300046.9	30.47116	1.219818	1	30.49557	2.292434	-5.093554E-005	-0.0002062	11
	1	11	238359.4	30.62481	1.298394	1	30.65233	2.427704	-0.0001006	0.0003842	10
	2	14	189328.1	30.75179	1.000841	1	30.76807	1.864079	-5.106913E-005	0.0006342	10
	3	17	150421.9	30.87584	0.7757996	1	30.88559	1.439335	-0.0000996	0.0006077	10
	4	19	119484.4	31.00758	0.580627	1	31.01302	1.072757	-3.150194E-005	0.0005405	10
	5	22	94921.88	31.12375	0.4234079	1	31.12663	0.7794045	2.489143E-005	0.0006871	10
	6	24	75421.88	31.25502	0.2784977	1	31.25627	0.5105202	2.051937E-005	0.0005982	10
	7	27	59859.37	31.38262	0.1540362	1	31.383	0.2812242	-2.282074E-005	0.0006755	10
	8	29	47578.12	31.51597	0.0391956	1	31.51599	0.0712573	-2.475048E-005	0.000693	10
	9	32	37828.12	31.64518	-0.0724352	1	31.64526	-0.1311487	-3.597888E-006	0.000729	10
	10	34	30046.88	31.77873	-0.1809852	1	31.77925	-0.3263055	2.190022E-005	0.0007093	10
	11	37	23859.38	31.91397	-0.2935449	1	31.91532	-0.5269921	-2.389566E-005	0.0006813	10
	12	39	18984.38	32.03971	-0.4184661	1	32.04244	-0.7482894	2.289203E-005	0.0006506	10
	13	42	15046.87	32.17399	-0.563565	1	32.17893	-1.0035	-1.644299E-005	0.0006782	10
	14	44	11953.13	32.296	-0.7276767	1	32.3042	-1.29074	1.855753E-005	0.0007174	10
	15	46	9515.62	32.44473	-0.9251523	1	32.45792	-1.63333	2.384093E-005	0.0006939	10
	16	48	7546.875	32.59961	-1.164322	1	32.62039	-2.045497	-2.686534E-005	0.0007176	10
	17	51	5928.309	32.75215	-1.472646	1	32.78524	-2.574475	1.642309E-005	0.0006918	10
	18	53	4733.456	32.90667	-1.814872	1	32.95668	-3.156785	1.460824E-005	0.000625	10
	19	55	3796.875	33.08661	-2.230428	1	33.1617	-3.856577	2.002639E-005	0.0006529	10
	20	58	2987.132	33.26423	-2.790633	1	33.38108	-4.795481	5.56718E-006	0.0006269	10
	21	60	2390.625	33.47706	-3.439739	1	33.65331	-5.866504	-2.927547E-005	0.0006698	10
	22	62	1884.191	33.7045	-4.27443	1	33.97446	-7.227709	6.535624E-006	0.0006196	10
	23	65	1516.544	33.96664	-5.225758	1	34.36628	-8.74636	5.879184E-006	0.0007008	10
	24	67	1193.986	34.28227	-6.502695	1	34.89354	-10.74032	-2.93676E-006	0.0006389	10
	25	69	946.5144	34.59987	-8.039347	1	35.52157	-13.08068	-1.372291E-005	0.0005011	9
	26	72	751.7689	35.01648	-9.91378	1	36.39281	-15.80775	-1.228035E-005	0.00034	9
	27	74	597.4265	35.52446	-12.21622	1	37.56625	-18.97717	-2.826376E-006	-5.931364E-005	9
	28	76	477.4305	36.11339	-14.95905	1	39.089	-22.50054	1.140946E-006	7.997263E-005	9
	29	79	376.6741	36.85363	-18.50894	1	41.2404	-26.6671	1.054408E-006	7.713421E-005	9
	30	81	298.2954	37.73146	-22.80213	1	44.08628	-31.14569	1.109179E-006	8.038051E-005	9
	31	83	237.7717	38.75529	-27.91212	1	47.76043	-35.76197	1.027524E-006	8.215677E-005	9
	32	86	189.0121	39.98655	-34.24271	1	52.64491	-40.57529	9.775172E-007	8.7134E-005	9
	33	88	150.2404	41.45233	-42.01169	1	59.0193	-45.38398	1.12949E-006	8.14832E-005	9
	34	91	119.1737	43.23148	-51.66256	1	67.36453	-50.07724	1.164905E-006	8.18413E-005	9
	35	93	95.0169	45.34351	-63.26492	1	77.83626	-54.36991	1.153744E-006	8.392542E-005	9
	36	96	75.60484	47.95413	-77.65061	1	91.26454	-58.30206	1.09163E-006	7.881375E-005	9
	37	98	54.50582	52.73425	-104.1438	1	116.734	-63.14418	9.577977E-007	8.421431E-005	9
	38	101	45.95588	55.97219	-121.4097	1	133.6907	-65.24939	1.16061E-006	8.275145E-005	9
	39	103	37.20238	60.76271	-146.7588	1	158.8404	-67.50893	1.129363E-006	8.110883E-005	9
	40	105	30.04808	66.79668	-177.767	1	189.9024	-69.40609	1.061008E-006	8.353395E-005	9
	41	108	23.91582	74.92612	-218.0711	1	230.5838	-71.038	1.076163E-006	7.947778E-005	9
	42	110	18.60119	86.42522	-272.882	1	286.2409	-72.42634	1.182872E-006	7.908771E-005	9
	43	112	15.02404	99.0443	-329.9113	1	344.4579	-73.28945	1.300193E-006	0.0000966	9
	44	115	12.01923	115.809	-401.9826	1	418.3321	-73.9286	1.013639E-006	8.495965E-005	9
	45	117	9.450605	138.3764	-494.3242	1	513.3268	-74.36145	3.638372E-007	0.0006761	8
	46	120	7.512019	166.8973	-603.6443	1	626.2916	-74.54479	4.414579E-007	0.0006839	8
	47	122	5.978954	203.5651	-735.2125	1	762.8736	-74.52369	2.795796E-007	0.000648	8
	48	125	4.734848	251.8328	-897.8149	1	932.4653	-74.33144	3.520955E-007	0.0006641	8
	49	129	3.75601	311.8598	-1090.741	1	1134.448	-74.04395	2.592724E-007	0.0006561	8
	50	132	3.004808	385.1152	-1311.215	1	1366.601	-73.63203	3.484647E-007	0.0006371	8
	51	136	2.372217	480.694	-1587.361	1	1658.548	-73.15233	3.299428E-007	0.0006488	8
	52	140	1.878005	598.3361	-1917.47	1	2008.656	-72.66975	2.923464E-007	0.0006598	8
	53	145	1.512097	722.1797	-2277.431	1	2389.192	-72.40604	3.418801E-007	0.0005708	8
	54	150	1.201923	882.4063	-2734.479	1	2873.328	-72.1153	3.189784E-007	0.0006627	8
	55	156	0.956633	1063.97	-3277.239	1	3445.624	-72.01375	3.168298E-007	1.302525E-005	8
