EXPLAIN
TAG	EISPOT
TITLE	LABEL	Potentiostatic EIS	Test Identifier
DATE	LABEL	2/24/2021	Date
TIME	LABEL	22:17:32	Time
NOTES	NOTES	1	Notes...
	
PSTAT	PSTAT	REF3000-16137	Potentiostat
VDC	POTEN	0.00000E+000	T	DC Voltage (V)
FREQINIT	QUANT	3.00000E+005	Initial Freq. (Hz)
FREQFINAL	QUANT	1.00000E+000	Final Freq. (Hz)
PTSPERDEC	QUANT	1.00000E+001	Points/decade
VAC	QUANT	5.00000E+001	AC Voltage (mV rms)
AREA	QUANT	1.00000E+000	Sample Area (cm^2)
SPEED	SELECTOR	2	Optimize for:
ZGUESS	QUANT	1.00000E+003	Estimated Z (ohms)
EOC	QUANT	0	Open Circuit (V)
SEQUENCER	TOGGLE	TRUE	Run as Sequence
PSTATMODEL	IQUANT	5	Pstat Model
PSTATSECTION	LABEL	REF3000-16137	Pstat Section
PSTATSERIALNO	LABEL	16137	Pstat Serial Number
CTRLMODE	IQUANT	1	Control Mode
IESTAB	IQUANT	0	I/E Stability
CASPEED	IQUANT	1	Control Amp Speed
CONVENTION	IQUANT	1	Current Convention
ICHRANGE	IQUANT	2	Ich Range
ICHRANGEMODE	TOGGLE	F	Ich Auto Range
ICHOFFSETENABLE	TOGGLE	T	Ich Offset Enable
ICHOFFSET	QUANT	0	Ich Offset (V)
ICHFILTER	IQUANT	3	Ich Filter
VCHRANGE	IQUANT	2	Vch Range
VCHRANGEMODE	TOGGLE	F	Vch Auto Range
VCHOFFSETENABLE	TOGGLE	T	Vch Offset Enable
VCHOFFSET	QUANT	0	Vch Offset (V)
VCHFILTER	IQUANT	3	Vch Filter
ACHRANGE	IQUANT	2	Ach Range
ACHOFFSETENABLE	TOGGLE	F	Ach Offset Enable
ACHOFFSET	QUANT	0	Ach Offset (V)
ACHFILTER	IQUANT	3	Ach Filter
IERANGELOWERLIMIT	IQUANT	2	I/E Range Lower Limit
IERANGEMODE	TOGGLE	F	I/E AutoRange
IERANGE	IQUANT	11	I/E Range
POSFEEDENABLE	TOGGLE	F	Positive Feedback IR Comp
POSFEEDRESISTANCE	QUANT	0	Positive Feedback Resistance (ohm)
ACHSELECT	IQUANT	0	Ach Select
CABLEID	IQUANT	13	Cable ID
DCCALDATE	LABEL	7/31/2020	DC Calibration Date
ACCALDATE	LABEL	7/31/2020	AC Calibration Date
THERMOSELECT	IQUANT	1	Thermo Select
FRAMEWORKVERSION	QUANT	6.33	Framework Version
INSTRUMENTVERSION	LABEL	3.50	Instrument Version
COMPLIANCEVOLTAGE	IQUANT	0	Compliance Voltage
ZCURVE	TABLE
	Pt	Time	Freq	Zreal	Zimag	Zsig	Zmod	Zphz	Idc	Vdc	IERange
	#	s	Hz	ohm	ohm	V	ohm	°	A	V	#
	0	16	300046.9	463.9069	-69.84939	1	469.1359	-8.562574	-9.211217E-005	0.0020926	9
	1	22	238359.4	479.4808	-60.32716	1	483.261	-7.171141	-1.870696E-005	0.0014568	9
	2	33	189328.1	495.072	-58.35838	1	498.4997	-6.72292	7.687795E-005	-0.0015574	9
	3	42	150421.9	517.1833	-45.86933	1	519.2134	-5.068339	-8.670416E-005	0.0022249	9
	4	50	119484.4	525.2269	-38.926	1	526.6674	-4.238598	8.486629E-005	-0.0023479	9
	5	58	94921.88	534.2247	-33.26646	1	535.2594	-3.563238	9.212274E-006	-0.0007169	9
	6	62	75421.88	540.8056	-15.91413	1	541.0397	-1.68554	8.175775E-006	-0.0050084	8
	7	64	59859.37	544.4662	-13.9183	1	544.6441	-1.464345	-7.80373E-006	-0.0001339	8
	8	67	47578.12	548.7407	-11.40954	1	548.8593	-1.191135	-9.358723E-006	0.0065374	8
	9	69	37828.12	552.9091	-10.80546	1	553.0146	-1.119585	1.549788E-005	-0.0022448	8
	10	72	30046.88	556.853	-7.876563	1	556.9087	-0.8103821	-1.56197E-005	0.0043169	8
	11	75	23859.38	561.2641	-7.946939	1	561.3204	-0.8111967	1.625295E-005	-0.0056909	8
	12	77	18984.38	565.8152	-6.397265	1	565.8514	-0.6477745	-1.106156E-005	0.0013302	8
	13	80	15046.87	569.5889	-4.514113	1	569.6068	-0.4540717	1.334152E-005	-0.0059015	8
	14	82	11953.13	574.0285	-4.130265	1	574.0433	-0.412249	-1.564166E-005	0.0052725	8
	15	84	9515.62	578.0156	-4.809986	1	578.0356	-0.4767787	1.633886E-005	-0.0023942	8
	16	87	7546.875	581.4167	-4.058057	1	581.4308	-0.3998952	1.886715E-005	-0.0052068	8
	17	89	5928.309	585.2708	-3.822468	1	585.2833	-0.3741998	1.738817E-005	-0.0048799	8
	18	91	4733.456	590.6089	-3.672449	1	590.6204	-0.3562647	1.568395E-005	-0.0055393	8
	19	94	3796.875	594.1114	-4.166926	1	594.126	-0.4018495	-9.61866E-006	0.0068188	8
	20	96	2987.132	597.0228	-6.593622	1	597.0592	-0.6327587	-1.54518E-005	0.0064235	8
	21	99	2390.625	603.4098	-8.495431	1	603.4696	-0.8066163	1.55086E-005	-0.0055518	8
	22	101	1884.191	606.1626	-10.86222	1	606.2599	-1.026611	7.302121E-006	0.002057	8
	23	104	1516.544	611.5106	-6.33803	1	611.5434	-0.5938236	-2.764418E-006	-0.0022741	8
	24	106	1193.986	616.0927	-9.027178	1	616.1588	-0.8394551	-1.201933E-005	0.0015645	8
	25	109	946.5144	620.9056	-10.82757	1	621.0001	-0.999042	-2.959323E-006	-0.0022032	8
	26	111	751.7689	625.9184	-11.38325	1	626.0219	-1.041894	-8.38871E-006	-0.0001747	8
	27	114	597.4265	631.317	-16.80857	1	631.5406	-1.525118	-1.240767E-005	0.0017641	8
	28	116	477.4305	635.9543	-21.55411	1	636.3195	-1.941156	-6.828829E-008	0.0006685	8
	29	119	376.6741	640.9135	-26.57655	1	641.4642	-2.374505	-2.12779E-008	0.000655	8
	30	121	298.2954	646.0037	-32.6979	1	646.8307	-2.89759	-3.168547E-008	0.0006505	8
	31	123	237.7717	651.47	-40.10007	1	652.7029	-3.522295	-4.411117E-008	0.000673	8
	32	126	189.0121	657.2725	-49.37014	1	659.1241	-4.295629	-3.848421E-008	0.000657	8
	33	128	150.2404	663.4566	-60.81296	1	666.2379	-5.237143	-3.397233E-008	0.0006453	8
	34	131	119.1737	670.1052	-75.05901	1	674.2958	-6.391106	-6.406448E-009	0.0006641	8
	35	133	95.0169	677.3967	-92.26354	1	683.6511	-7.756136	-2.213734E-008	0.0006474	8
	36	136	75.60484	685.5692	-113.5853	1	694.9149	-9.407329	-7.219579E-008	0.0006661	8
	37	138	54.50582	696.8409	-152.877	1	713.4133	-12.37385	-4.086624E-008	0.0006367	8
	38	141	45.95588	705.9426	-178.4097	1	728.1381	-14.18312	1.006307E-008	0.000644	8
	39	143	37.20238	717.0304	-215.9221	1	748.8358	-16.75883	-6.622566E-008	0.0006642	8
	40	145	30.04808	730.0422	-261.684	1	775.5257	-19.72024	-5.992081E-008	0.0006489	8
	41	148	23.91582	745.6608	-320.9937	1	811.8171	-23.29102	-4.821293E-008	0.0006609	8
	42	150	18.60119	765.6735	-401.7608	1	864.6777	-27.6867	-2.035676E-007	0.0006523	8
	43	152	15.02404	785.694	-484.7219	1	923.1849	-31.67187	-2.39464E-008	0.0006547	8
	44	155	12.01923	810.6946	-590.0798	1	1002.706	-36.04973	-1.346923E-007	0.0006695	8
	45	157	9.450605	842.0389	-729.8079	1	1114.293	-40.91597	-1.104586E-007	0.0006703	8
	46	160	7.512019	877.5734	-894.6724	1	1253.225	-45.55278	-1.914736E-008	0.0006801	8
	47	162	5.978954	920.6083	-1094.452	1	1430.156	-49.93083	-7.39926E-008	0.0006677	8
	48	165	4.734848	972.801	-1346.711	1	1661.316	-54.15741	1.744434E-008	0.0006836	8
	49	169	3.75601	1037.465	-1654.819	1	1953.141	-57.91492	-5.295545E-008	0.0006402	8
	50	172	3.004808	1113.724	-2018.499	1	2305.367	-61.11192	-7.953297E-008	0.0007015	8
	51	176	2.372217	1216.219	-2493.724	1	2774.5	-64.00095	-5.611372E-008	0.0007439	8
	52	180	1.878005	1337.426	-3074.776	1	3353.051	-66.49255	-6.188605E-008	0.0006357	8
	53	185	1.512097	1486.033	-3726.001	1	4011.406	-68.25651	-5.163442E-008	0.0007469	8
	54	190	1.201923	1679.116	-4594.283	1	4891.51	-69.92368	-2.130783E-008	0.0006022	7
	55	197	0.956633	1919.331	-5635.036	1	5952.938	-71.19082	-4.831774E-008	-1.595912E-005	7
