EXPLAIN
TAG	EISPOT
TITLE	LABEL	Potentiostatic EIS	Test Identifier
DATE	LABEL	2/24/2021	Date
TIME	LABEL	21:13:08	Time
NOTES	NOTES	1	Notes...
	
PSTAT	PSTAT	REF3000-16137	Potentiostat
VDC	POTEN	0.00000E+000	T	DC Voltage (V)
FREQINIT	QUANT	3.00000E+005	Initial Freq. (Hz)
FREQFINAL	QUANT	1.00000E+000	Final Freq. (Hz)
PTSPERDEC	QUANT	1.00000E+001	Points/decade
VAC	QUANT	5.00000E+001	AC Voltage (mV rms)
AREA	QUANT	1.00000E+000	Sample Area (cm^2)
SPEED	SELECTOR	2	Optimize for:
ZGUESS	QUANT	1.00000E+003	Estimated Z (ohms)
EOC	QUANT	0	Open Circuit (V)
SEQUENCER	TOGGLE	TRUE	Run as Sequence
PSTATMODEL	IQUANT	5	Pstat Model
PSTATSECTION	LABEL	REF3000-16137	Pstat Section
PSTATSERIALNO	LABEL	16137	Pstat Serial Number
CTRLMODE	IQUANT	1	Control Mode
IESTAB	IQUANT	0	I/E Stability
CASPEED	IQUANT	1	Control Amp Speed
CONVENTION	IQUANT	1	Current Convention
ICHRANGE	IQUANT	2	Ich Range
ICHRANGEMODE	TOGGLE	F	Ich Auto Range
ICHOFFSETENABLE	TOGGLE	T	Ich Offset Enable
ICHOFFSET	QUANT	0	Ich Offset (V)
ICHFILTER	IQUANT	3	Ich Filter
VCHRANGE	IQUANT	2	Vch Range
VCHRANGEMODE	TOGGLE	F	Vch Auto Range
VCHOFFSETENABLE	TOGGLE	T	Vch Offset Enable
VCHOFFSET	QUANT	0	Vch Offset (V)
VCHFILTER	IQUANT	3	Vch Filter
ACHRANGE	IQUANT	2	Ach Range
ACHOFFSETENABLE	TOGGLE	F	Ach Offset Enable
ACHOFFSET	QUANT	0	Ach Offset (V)
ACHFILTER	IQUANT	3	Ach Filter
IERANGELOWERLIMIT	IQUANT	2	I/E Range Lower Limit
IERANGEMODE	TOGGLE	F	I/E AutoRange
IERANGE	IQUANT	11	I/E Range
POSFEEDENABLE	TOGGLE	F	Positive Feedback IR Comp
POSFEEDRESISTANCE	QUANT	0	Positive Feedback Resistance (ohm)
ACHSELECT	IQUANT	0	Ach Select
CABLEID	IQUANT	13	Cable ID
DCCALDATE	LABEL	7/31/2020	DC Calibration Date
ACCALDATE	LABEL	7/31/2020	AC Calibration Date
THERMOSELECT	IQUANT	1	Thermo Select
FRAMEWORKVERSION	QUANT	6.33	Framework Version
INSTRUMENTVERSION	LABEL	3.50	Instrument Version
COMPLIANCEVOLTAGE	IQUANT	0	Compliance Voltage
ZCURVE	TABLE
	Pt	Time	Freq	Zreal	Zimag	Zsig	Zmod	Zphz	Idc	Vdc	IERange
	#	s	Hz	ohm	ohm	V	ohm	°	A	V	#
	0	10	300046.9	3.205413	2.232277	1	3.906115	34.85369	1.94521E-005	9.003896E-006	10
	1	13	238359.4	3.19082	1.782829	1	3.655107	29.1937	-1.090752E-006	-0.000494	10
	2	16	189328.1	3.170534	1.409226	1	3.469612	23.964	7.953108E-006	-0.0001424	10
	3	19	150421.9	3.202812	0.9022918	1	3.327482	15.73352	-0.0001842	7.659137E-006	12
	4	23	119484.4	3.152825	0.8345022	1	3.261396	14.8253	6.299325E-005	0.0004582	11
	5	25	94921.88	3.150997	0.6376249	1	3.214864	11.4397	6.727471E-006	0.0006125	11
	6	28	75421.88	3.150354	0.4701651	1	3.185245	8.488286	-3.007502E-005	0.0005713	11
	7	30	59859.37	3.155539	0.3284976	1	3.172591	5.943192	-4.340407E-005	0.0006764	11
	8	33	47578.12	3.160206	0.2055422	1	3.166883	3.721319	9.114423E-006	0.0007024	11
	9	35	37828.12	3.166751	0.0943498	1	3.168156	1.706558	4.179975E-006	0.0006907	11
	10	38	30046.88	3.17482	-0.0102856	1	3.174837	-0.1856226	-2.702761E-005	0.0006536	11
	11	40	23859.38	3.186031	-0.1140431	1	3.188071	-2.050012	1.690001E-005	0.0007366	11
	12	43	18984.38	3.197644	-0.2206025	1	3.205245	-3.946528	1.907954E-005	0.0007299	11
	13	45	15046.87	3.21304	-0.3378459	1	3.230753	-6.002501	-1.556298E-007	0.0007156	11
	14	47	11953.13	3.231325	-0.4688476	1	3.265162	-8.255692	-5.154204E-005	0.0006631	11
	15	50	9515.62	3.254703	-0.6182002	1	3.312893	-10.75468	-1.899476E-005	0.0007234	11
	16	52	7546.875	3.282565	-0.7969179	1	3.377915	-13.64586	1.728514E-005	0.0007531	11
	17	54	5928.309	3.31969	-1.019089	1	3.47259	-17.06561	-4.159989E-005	0.0007341	11
	18	56	4733.456	3.361839	-1.269113	1	3.593411	-20.6818	1.707352E-005	0.0007408	11
	19	59	3796.875	3.416073	-1.564133	1	3.757135	-24.60185	-7.393984E-006	0.0006746	10
	20	61	2987.132	3.484125	-1.954706	1	3.994997	-29.29382	-2.366611E-005	0.0006834	10
	21	63	2390.625	3.559513	-2.396502	1	4.291079	-33.95108	-1.58246E-005	0.0006714	10
	22	66	1884.191	3.658654	-2.976409	1	4.716436	-39.12924	-1.610136E-006	0.0006892	10
	23	68	1516.544	3.769302	-3.622638	1	5.22792	-43.86335	8.146132E-006	0.0006832	10
	24	70	1193.986	3.918637	-4.495006	1	5.963287	-48.91887	4.075379E-006	0.0006512	10
	25	73	946.5144	4.101187	-5.544667	1	6.896598	-53.51102	-2.843376E-005	0.0007103	10
	26	75	751.7689	4.325621	-6.823302	1	8.078889	-57.62741	-2.47426E-005	0.0006803	10
	27	78	597.4265	4.603476	-8.390929	1	9.57077	-61.24971	-3.386935E-005	0.0006959	10
	28	80	477.4305	4.948166	-10.26267	1	11.39327	-64.25887	-8.760733E-006	0.0006882	10
	29	82	376.6741	5.409138	-12.69325	1	13.79773	-66.91907	-8.995094E-006	0.0006862	10
	30	84	298.2954	5.98825	-15.64052	1	16.74769	-69.04977	-9.352741E-006	0.0006906	10
	31	87	237.7717	6.706163	-19.14598	1	20.28647	-70.69643	-1.142143E-005	0.0007216	10
	32	89	189.0121	7.637197	-23.48136	1	24.69213	-71.98314	-8.808266E-006	0.000683	10
	33	92	150.2404	8.833629	-28.77089	1	30.09646	-72.93176	-8.745605E-006	0.0006816	10
	34	94	119.1737	10.38663	-35.27148	1	36.769	-73.59152	-8.760744E-006	0.0006821	10
	35	96	95.0169	12.32553	-42.93068	1	44.665	-73.98106	-6.115751E-006	8.778148E-005	9
	36	99	75.60484	14.85301	-52.31526	1	54.38288	-74.15004	-6.244572E-006	8.692306E-005	9
	37	101	54.50582	19.76056	-69.17091	1	71.93813	-74.05656	-6.306754E-006	8.318923E-005	9
	38	104	45.95588	23.08058	-79.84276	1	83.11185	-73.87672	-5.916237E-006	8.82356E-005	9
	39	106	37.20238	28.0927	-95.1753	1	99.2348	-73.55508	-6.136843E-006	8.930184E-005	9
	40	109	30.04808	34.24229	-113.2671	1	118.3299	-73.17917	-6.012569E-006	8.298707E-005	9
	41	111	23.91582	42.29473	-136.1503	1	142.5684	-72.74273	-6.015917E-006	8.54622E-005	9
	42	114	18.60119	52.93289	-166.2028	1	174.4284	-72.33418	-5.850539E-006	8.248546E-005	9
	43	116	15.02404	63.64793	-196.7164	1	206.7569	-72.07093	-5.659149E-006	9.204282E-005	9
	44	118	12.01923	76.8004	-234.6014	1	246.8525	-71.87334	-5.932955E-006	8.99076E-005	9
	45	121	9.450605	93.62852	-284.0229	1	299.0574	-71.75513	-5.995422E-006	0.0000989	9
	46	123	7.512019	113.1697	-341.4149	1	359.6825	-71.66105	-5.881847E-006	8.123565E-005	9
	47	126	5.978954	136.3148	-408.8001	1	430.9284	-71.55898	-6.579611E-006	0.0006737	8
	48	129	4.734848	167.0412	-494.1825	1	521.6503	-71.32397	-6.510681E-006	0.0006527	8
	49	132	3.75601	206.0436	-596.8135	1	631.3798	-70.9533	-6.334474E-006	0.0006876	8
	50	135	3.004808	254.6285	-714.9167	1	758.9082	-70.39587	-6.367925E-006	0.0006615	8
	51	139	2.372217	323.8129	-863.7486	1	922.4513	-69.44936	-6.394322E-006	0.0006108	8
	52	143	1.878005	412.92	-1040.252	1	1119.208	-68.34978	-6.27144E-006	0.0006771	8
	53	148	1.512097	520.3968	-1226.386	1	1332.229	-67.00685	-6.295754E-006	0.0006588	8
	54	154	1.201923	674.9666	-1457.152	1	1605.887	-65.14598	-6.247476E-006	0.0007002	8
	55	160	0.956633	873.9426	-1709.231	1	1919.7	-62.919	-6.408432E-006	2.786096E-005	8
