EXPLAIN
TAG	EISPOT
TITLE	LABEL	Potentiostatic EIS	Test Identifier
DATE	LABEL	2/24/2021	Date
TIME	LABEL	22:24:49	Time
NOTES	NOTES	1	Notes...
	
PSTAT	PSTAT	REF3000-16137	Potentiostat
VDC	POTEN	0.00000E+000	T	DC Voltage (V)
FREQINIT	QUANT	3.00000E+005	Initial Freq. (Hz)
FREQFINAL	QUANT	1.00000E+000	Final Freq. (Hz)
PTSPERDEC	QUANT	1.00000E+001	Points/decade
VAC	QUANT	5.00000E+001	AC Voltage (mV rms)
AREA	QUANT	1.00000E+000	Sample Area (cm^2)
SPEED	SELECTOR	2	Optimize for:
ZGUESS	QUANT	1.00000E+003	Estimated Z (ohms)
EOC	QUANT	0	Open Circuit (V)
SEQUENCER	TOGGLE	TRUE	Run as Sequence
PSTATMODEL	IQUANT	5	Pstat Model
PSTATSECTION	LABEL	REF3000-16137	Pstat Section
PSTATSERIALNO	LABEL	16137	Pstat Serial Number
CTRLMODE	IQUANT	1	Control Mode
IESTAB	IQUANT	0	I/E Stability
CASPEED	IQUANT	1	Control Amp Speed
CONVENTION	IQUANT	1	Current Convention
ICHRANGE	IQUANT	2	Ich Range
ICHRANGEMODE	TOGGLE	F	Ich Auto Range
ICHOFFSETENABLE	TOGGLE	T	Ich Offset Enable
ICHOFFSET	QUANT	0	Ich Offset (V)
ICHFILTER	IQUANT	3	Ich Filter
VCHRANGE	IQUANT	2	Vch Range
VCHRANGEMODE	TOGGLE	F	Vch Auto Range
VCHOFFSETENABLE	TOGGLE	T	Vch Offset Enable
VCHOFFSET	QUANT	0	Vch Offset (V)
VCHFILTER	IQUANT	3	Vch Filter
ACHRANGE	IQUANT	2	Ach Range
ACHOFFSETENABLE	TOGGLE	F	Ach Offset Enable
ACHOFFSET	QUANT	0	Ach Offset (V)
ACHFILTER	IQUANT	3	Ach Filter
IERANGELOWERLIMIT	IQUANT	2	I/E Range Lower Limit
IERANGEMODE	TOGGLE	F	I/E AutoRange
IERANGE	IQUANT	11	I/E Range
POSFEEDENABLE	TOGGLE	F	Positive Feedback IR Comp
POSFEEDRESISTANCE	QUANT	0	Positive Feedback Resistance (ohm)
ACHSELECT	IQUANT	0	Ach Select
CABLEID	IQUANT	13	Cable ID
DCCALDATE	LABEL	7/31/2020	DC Calibration Date
ACCALDATE	LABEL	7/31/2020	AC Calibration Date
THERMOSELECT	IQUANT	1	Thermo Select
FRAMEWORKVERSION	QUANT	6.33	Framework Version
INSTRUMENTVERSION	LABEL	3.50	Instrument Version
COMPLIANCEVOLTAGE	IQUANT	0	Compliance Voltage
ZCURVE	TABLE
	Pt	Time	Freq	Zreal	Zimag	Zsig	Zmod	Zphz	Idc	Vdc	IERange
	#	s	Hz	ohm	ohm	V	ohm	°	A	V	#
	0	14	300046.9	1335.703	-698.6183	1	1507.372	-27.6111	1.840684E-005	-0.0010087	9
	1	36	238359.4	1532.946	-728.506	1	1697.246	-25.41859	-6.1151E-005	0.0005003	9
	2	65	189328.1	1681.597	-692.4656	1	1818.592	-22.3814	-1.906777E-005	0.0016102	9
	3	75	150421.9	1758.533	-630.9274	1	1868.29	-19.737	1.801617E-005	-0.001904	9
	4	81	119484.4	1974.462	-508.7633	1	2038.956	-14.4492	5.963482E-006	-0.0142946	8
	5	88	94921.88	2056.393	-428.2353	1	2100.509	-11.76348	-2.54876E-006	-0.0037651	8
	6	91	75421.88	2128.797	-381.8189	1	2162.767	-10.1684	2.325875E-005	-0.0048749	8
	7	98	59859.37	2202.488	-321.6878	1	2225.856	-8.309668	-1.531439E-005	0.0013593	8
	8	101	47578.12	2252.989	-275.3107	1	2269.748	-6.966887	-9.756137E-006	-0.001108	8
	9	107	37828.12	2326.575	-239.3378	1	2338.853	-5.873432	8.896634E-006	0.0030566	8
	10	111	30046.88	2365.465	-198.1957	1	2373.753	-4.789466	1.656128E-005	-0.000197	8
	11	114	23859.38	2414.848	-173.0694	1	2421.042	-4.099313	1.641452E-005	-0.0001198	8
	12	120	18984.38	2480.935	-156.6344	1	2485.874	-3.612588	2.782808E-005	-0.0004589	9
	13	125	15046.87	2517.084	-124.8101	1	2520.177	-2.838696	5.53773E-006	-0.0062361	8
	14	130	11953.13	2584.856	-116.2241	1	2587.468	-2.574483	2.479293E-005	-0.0001411	9
	15	136	9515.62	2626.089	-88.65664	1	2627.585	-1.933568	2.169433E-005	-0.0029779	8
	16	141	7546.875	2690.774	-87.59266	1	2692.199	-1.864489	2.864811E-005	-0.0008003	9
	17	146	5928.309	2732.132	-69.44184	1	2733.014	-1.455958	2.373823E-005	-0.0049282	8
	18	152	4733.456	2790.348	-77.56837	1	2791.426	-1.592345	-5.169671E-008	-0.0004777	9
	19	157	3796.875	2858.065	-43.27708	1	2858.392	-0.8675116	2.951745E-005	-0.0006785	9
	20	163	2987.132	2903.38	-47.43357	1	2903.768	-0.9359785	2.173883E-005	-0.0029802	8
	21	168	2390.625	2951.411	-36.83055	1	2951.64	-0.7149549	2.303276E-005	-0.0080637	8
	22	173	1884.191	2999.803	-59.78197	1	3000.398	-1.141675	-1.616576E-005	0.0099714	8
	23	179	1516.544	3070.465	-20.4187	1	3070.533	-0.3810132	5.953229E-006	-0.0064133	8
	24	184	1193.986	3127.956	-17.77929	1	3128.006	-0.3256656	2.954409E-005	-0.0006561	9
	25	190	946.5144	3236.308	-10.1814	1	3236.324	-0.1802514	-1.862462E-006	-0.0041764	8
	26	193	751.7689	3227.801	-61.65778	1	3228.39	-1.094337	6.031911E-006	-0.0065542	8
	27	197	597.4265	3269.729	-74.40856	1	3270.575	-1.303644	-2.077258E-005	0.0098292	8
	28	201	477.4305	3312.541	-35.63555	1	3312.732	-0.6163511	-2.054809E-007	0.0006835	8
	29	204	376.6741	3342.37	-40.27808	1	3342.613	-0.690424	-1.647587E-007	0.0006707	8
	30	208	298.2954	3383.475	-46.38723	1	3383.793	-0.7854722	-1.519689E-007	0.0006469	8
	31	210	237.7717	3415.27	-54.64897	1	3415.707	-0.9167322	-1.897641E-007	0.0006578	8
	32	212	189.0121	3446.584	-65.27644	1	3447.203	-1.085021	-1.657504E-007	0.0006797	8
	33	215	150.2404	3479.354	-78.62038	1	3480.242	-1.29445	-1.719979E-007	0.0006772	8
	34	217	119.1737	3511.64	-95.7598	1	3512.946	-1.562027	-1.862204E-007	0.0006548	8
	35	219	95.0169	3556.746	-114.7147	1	3558.595	-1.847304	-4.791377E-008	0.000678	7
	36	222	75.60484	3592.317	-140.4181	1	3595.06	-2.238463	-7.891726E-008	0.0006627	7
	37	225	54.50582	3634.354	-187.8437	1	3639.205	-2.958734	-2.208766E-008	0.0005928	7
	38	227	45.95588	3669.125	-218.1744	1	3675.606	-3.402928	-1.336756E-007	0.0006432	7
	39	229	37.20238	3709.072	-265.4771	1	3718.56	-4.093968	-3.124002E-009	0.0006289	7
	40	232	30.04808	3751.007	-320.8965	1	3764.708	-4.889716	-7.29187E-009	0.0006124	7
	41	234	23.91582	3792.997	-394.3032	1	3813.437	-5.934898	-1.189382E-009	0.0006618	7
	42	237	18.60119	3849.955	-499.6652	1	3882.244	-7.394781	1.458083E-007	0.0006563	7
	43	239	15.02404	3892.341	-601.7104	1	3938.575	-8.787698	-5.999894E-008	0.0006717	7
	44	241	12.01923	3943.436	-726.1523	1	4009.736	-10.43368	-2.252447E-007	0.0006375	7
	45	244	9.450605	4005.146	-914.0052	1	4108.113	-12.8552	9.519888E-008	0.0006284	7
	46	246	7.512019	4084.55	-1129.587	1	4237.867	-15.45885	3.988435E-008	0.0006154	7
	47	249	5.978954	4172.544	-1380.562	1	4395.006	-18.30774	2.412622E-008	0.0006178	7
	48	252	4.734848	4288.691	-1702.129	1	4614.121	-21.64752	-9.059018E-008	0.0006236	7
	49	255	3.75601	4411.682	-2090.784	1	4882.04	-25.3572	-2.900883E-009	0.0006969	7
	50	259	3.004808	4559.646	-2541.592	1	5220.16	-29.13573	-2.894108E-008	0.0006555	7
	51	262	2.372217	4736.123	-3122.755	1	5672.958	-33.3988	-4.201939E-008	0.000587	7
	52	267	1.878005	4952.359	-3844.073	1	6269.191	-37.81899	-2.89832E-008	0.0006236	7
	53	271	1.512097	5185.162	-4650.63	1	6965.219	-41.88929	-4.545724E-008	0.000655	7
	54	277	1.201923	5490.318	-5705.498	1	7918.1	-46.10107	-4.036003E-008	0.0006515	7
	55	283	0.956633	5844.567	-6983.782	1	9106.711	-50.07481	-6.502843E-008	-9.505842E-006	7
