EXPLAIN
TAG	EISPOT
TITLE	LABEL	Potentiostatic EIS	Test Identifier
DATE	LABEL	8/30/2020	Date
TIME	LABEL	11:00:31	Time
NOTES	NOTES	1	Notes...
	
PSTAT	PSTAT	REF3000-16137	Potentiostat
VDC	POTEN	0.00000E+000	T	DC Voltage (V)
FREQINIT	QUANT	3.00000E+005	Initial Freq. (Hz)
FREQFINAL	QUANT	1.00000E+000	Final Freq. (Hz)
PTSPERDEC	QUANT	1.00000E+001	Points/decade
VAC	QUANT	5.00000E+001	AC Voltage (mV rms)
AREA	QUANT	1.00000E+000	Sample Area (cm^2)
SPEED	SELECTOR	2	Optimize for:
ZGUESS	QUANT	1.00000E+003	Estimated Z (ohms)
EOC	QUANT	0	Open Circuit (V)
SEQUENCER	TOGGLE	TRUE	Run as Sequence
PSTATMODEL	IQUANT	5	Pstat Model
PSTATSECTION	LABEL	REF3000-16137	Pstat Section
PSTATSERIALNO	LABEL	16137	Pstat Serial Number
CTRLMODE	IQUANT	1	Control Mode
IESTAB	IQUANT	0	I/E Stability
CASPEED	IQUANT	1	Control Amp Speed
CONVENTION	IQUANT	1	Current Convention
ICHRANGE	IQUANT	2	Ich Range
ICHRANGEMODE	TOGGLE	F	Ich Auto Range
ICHOFFSETENABLE	TOGGLE	T	Ich Offset Enable
ICHOFFSET	QUANT	0	Ich Offset (V)
ICHFILTER	IQUANT	3	Ich Filter
VCHRANGE	IQUANT	2	Vch Range
VCHRANGEMODE	TOGGLE	F	Vch Auto Range
VCHOFFSETENABLE	TOGGLE	T	Vch Offset Enable
VCHOFFSET	QUANT	0	Vch Offset (V)
VCHFILTER	IQUANT	3	Vch Filter
ACHRANGE	IQUANT	2	Ach Range
ACHOFFSETENABLE	TOGGLE	F	Ach Offset Enable
ACHOFFSET	QUANT	0	Ach Offset (V)
ACHFILTER	IQUANT	3	Ach Filter
IERANGELOWERLIMIT	IQUANT	2	I/E Range Lower Limit
IERANGEMODE	TOGGLE	F	I/E AutoRange
IERANGE	IQUANT	11	I/E Range
POSFEEDENABLE	TOGGLE	F	Positive Feedback IR Comp
POSFEEDRESISTANCE	QUANT	0	Positive Feedback Resistance (ohm)
ACHSELECT	IQUANT	0	Ach Select
CABLEID	IQUANT	13	Cable ID
DCCALDATE	LABEL	7/31/2020	DC Calibration Date
ACCALDATE	LABEL	7/31/2020	AC Calibration Date
THERMOSELECT	IQUANT	1	Thermo Select
FRAMEWORKVERSION	QUANT	6.33	Framework Version
INSTRUMENTVERSION	LABEL	3.50	Instrument Version
COMPLIANCEVOLTAGE	IQUANT	0	Compliance Voltage
ZCURVE	TABLE
	Pt	Time	Freq	Zreal	Zimag	Zsig	Zmod	Zphz	Idc	Vdc	IERange
	#	s	Hz	ohm	ohm	V	ohm	°	A	V	#
	0	8	300046.9	11.32604	1.75836	1	11.46171	8.824685	7.136371E-005	-0.0002001	10
	1	11	238359.4	11.38964	1.410563	1	11.47666	7.059912	-1.974086E-006	0.0001525	10
	2	15	189328.1	11.45825	1.117449	1	11.51261	5.57007	-7.487671E-005	0.0005922	10
	3	17	150421.9	11.51349	0.8672985	1	11.54611	4.307891	1.018215E-005	0.0004802	10
	4	20	119484.4	11.59273	0.672726	1	11.61223	3.32115	7.952008E-005	0.0004198	10
	5	22	94921.88	11.66318	0.5275378	1	11.6751	2.589783	1.533708E-005	0.0005331	10
	6	25	75421.88	11.7339	0.3738784	1	11.73985	1.825004	2.009768E-005	0.0005296	10
	7	27	59859.37	11.81297	0.241247	1	11.81544	1.169944	-1.347424E-005	0.0006145	10
	8	30	47578.12	11.89348	0.1267454	1	11.89416	0.6105616	-2.329414E-005	0.000633	10
	9	32	37828.12	11.97461	0.0200299	1	11.97462	0.0958386	2.345715E-005	0.0005738	10
	10	35	30046.88	12.05878	-0.0860881	1	12.05908	-0.40903	2.77439E-005	0.000626	10
	11	37	23859.38	12.14206	-0.1952194	1	12.14363	-0.9211193	-2.122985E-005	0.0006685	10
	12	40	18984.38	12.22325	-0.3131692	1	12.22726	-1.467642	-2.500065E-005	0.0007295	10
	13	42	15046.87	12.30791	-0.4487045	1	12.31609	-2.087883	-2.783008E-005	0.0006726	10
	14	44	11953.13	12.39934	-0.6031151	1	12.414	-2.784723	-1.844726E-005	0.0006598	10
	15	47	9515.62	12.4897	-0.7832041	1	12.51423	-3.588206	-1.163219E-005	0.0007171	10
	16	49	7546.875	12.58744	-1.005085	1	12.6275	-4.565283	2.753104E-005	0.0006149	10
	17	51	5928.309	12.69233	-1.287552	1	12.75747	-5.792455	-3.093452E-005	0.0007021	10
	18	54	4733.456	12.8031	-1.609502	1	12.90387	-7.165174	4.894604E-006	0.0006633	10
	19	56	3796.875	12.91707	-1.997715	1	13.07064	-8.791539	2.970274E-005	0.000623	10
	20	58	2987.132	13.05095	-2.51925	1	13.29187	-10.92554	1.73186E-005	0.0006227	10
	21	60	2390.625	13.19066	-3.119421	1	13.55449	-13.30527	-2.799961E-005	0.0006652	10
	22	63	1884.191	13.35492	-3.908004	1	13.91497	-16.31087	-2.716996E-005	0.0007061	10
	23	65	1516.544	13.52978	-4.805356	1	14.35779	-19.55346	-2.843003E-005	0.0007107	10
	24	67	1193.986	13.74365	-6.023605	1	15.00572	-23.66702	2.633079E-005	0.0006085	10
	25	70	946.5144	13.99608	-7.491816	1	15.87506	-28.15924	-3.036111E-005	0.0007171	10
	26	72	751.7689	14.27759	-9.316416	1	17.04832	-33.12525	1.612115E-005	0.0006298	10
	27	75	597.4265	14.61782	-11.55134	1	18.631	-38.31659	1.368222E-005	0.0005875	10
	28	77	477.4305	15.02279	-14.25703	1	20.71104	-43.50189	-2.809047E-006	0.0006547	10
	29	79	376.6741	15.54187	-17.80014	1	23.63038	-48.87474	-2.52524E-006	0.0006554	10
	30	81	298.2954	16.17896	-22.14283	1	27.42378	-53.84575	-2.037421E-006	0.0006536	10
	31	84	237.7717	16.9587	-27.36148	1	32.19081	-58.20928	-2.310912E-006	0.0006555	10
	32	86	189.0121	17.95155	-33.8762	1	38.33869	-62.08015	-2.272699E-006	0.0006601	10
	33	89	150.2404	19.18939	-41.86655	1	46.05476	-65.3758	1.377852E-006	5.551361E-005	9
	34	91	119.1737	20.80548	-51.86171	1	55.87938	-68.14071	1.324461E-006	5.720284E-005	9
	35	93	95.0169	22.81989	-63.87391	1	67.8279	-70.33998	1.332134E-006	5.836755E-005	9
	36	96	75.60484	25.40312	-78.74136	1	82.73766	-72.11954	1.35653E-006	5.347867E-005	9
	37	98	54.50582	30.2963	-106.0096	1	110.2538	-74.05068	1.317824E-006	5.333603E-005	9
	38	101	45.95588	33.6282	-123.7474	1	128.2352	-74.79708	1.29474E-006	5.804088E-005	9
	39	103	37.20238	38.60574	-149.7363	1	154.633	-75.54259	1.340966E-006	7.459526E-005	9
	40	106	30.04808	44.85482	-181.4445	1	186.9066	-76.11433	1.304868E-006	6.255099E-005	9
	41	108	23.91582	53.21111	-222.5074	1	228.7815	-76.5507	1.490661E-006	4.735354E-005	9
	42	110	18.60119	65.05997	-278.3703	1	285.872	-76.84512	1.26568E-006	5.518157E-005	9
	43	113	15.02404	77.86205	-336.5313	1	345.4212	-76.9729	1.416276E-006	4.822834E-005	9
	44	115	12.01923	94.71088	-409.9486	1	420.747	-76.99114	1.274243E-006	4.950448E-005	9
	45	117	9.450605	117.2979	-504.3015	1	517.7633	-76.90611	5.282864E-007	0.0006419	8
	46	120	7.512019	145.3423	-616.259	1	633.1663	-76.72952	6.041339E-007	0.0006466	8
	47	123	5.978954	180.6943	-750.6154	1	772.0582	-76.46482	5.891083E-007	0.0006372	8
	48	126	4.734848	226.0818	-918.0948	1	945.5215	-76.1661	7.136618E-007	0.0006504	8
	49	129	3.75601	282.8793	-1117.993	1	1153.225	-75.80079	5.72768E-007	0.0006215	8
	50	132	3.004808	350.8994	-1349.224	1	1394.107	-75.42176	6.617015E-007	0.0006166	8
	51	136	2.372217	440.7872	-1641.818	1	1699.959	-74.97189	6.538094E-007	0.000645	8
	52	140	1.878005	550.4448	-1997.992	1	2072.429	-74.59718	6.093669E-007	0.0006325	8
	53	145	1.512097	667.3688	-2391.186	1	2482.57	-74.40583	6.382816E-007	0.0005473	8
	54	151	1.201923	822.9488	-2895.031	1	3009.726	-74.13154	6.20745E-007	0.0006328	8
	55	157	0.956633	1001.532	-3497.633	1	3638.201	-74.02116	6.15337E-007	1.568924E-008	8
