EXPLAIN
TAG	EISPOT
TITLE	LABEL	Potentiostatic EIS	Test Identifier
DATE	LABEL	8/30/2020	Date
TIME	LABEL	10:57:46	Time
NOTES	NOTES	1	Notes...
	
PSTAT	PSTAT	REF3000-16137	Potentiostat
VDC	POTEN	0.00000E+000	T	DC Voltage (V)
FREQINIT	QUANT	3.00000E+005	Initial Freq. (Hz)
FREQFINAL	QUANT	1.00000E+000	Final Freq. (Hz)
PTSPERDEC	QUANT	1.00000E+001	Points/decade
VAC	QUANT	5.00000E+001	AC Voltage (mV rms)
AREA	QUANT	1.00000E+000	Sample Area (cm^2)
SPEED	SELECTOR	2	Optimize for:
ZGUESS	QUANT	1.00000E+003	Estimated Z (ohms)
EOC	QUANT	0	Open Circuit (V)
SEQUENCER	TOGGLE	TRUE	Run as Sequence
PSTATMODEL	IQUANT	5	Pstat Model
PSTATSECTION	LABEL	REF3000-16137	Pstat Section
PSTATSERIALNO	LABEL	16137	Pstat Serial Number
CTRLMODE	IQUANT	1	Control Mode
IESTAB	IQUANT	0	I/E Stability
CASPEED	IQUANT	1	Control Amp Speed
CONVENTION	IQUANT	1	Current Convention
ICHRANGE	IQUANT	2	Ich Range
ICHRANGEMODE	TOGGLE	F	Ich Auto Range
ICHOFFSETENABLE	TOGGLE	T	Ich Offset Enable
ICHOFFSET	QUANT	0	Ich Offset (V)
ICHFILTER	IQUANT	3	Ich Filter
VCHRANGE	IQUANT	2	Vch Range
VCHRANGEMODE	TOGGLE	F	Vch Auto Range
VCHOFFSETENABLE	TOGGLE	T	Vch Offset Enable
VCHOFFSET	QUANT	0	Vch Offset (V)
VCHFILTER	IQUANT	3	Vch Filter
ACHRANGE	IQUANT	2	Ach Range
ACHOFFSETENABLE	TOGGLE	F	Ach Offset Enable
ACHOFFSET	QUANT	0	Ach Offset (V)
ACHFILTER	IQUANT	3	Ach Filter
IERANGELOWERLIMIT	IQUANT	2	I/E Range Lower Limit
IERANGEMODE	TOGGLE	F	I/E AutoRange
IERANGE	IQUANT	11	I/E Range
POSFEEDENABLE	TOGGLE	F	Positive Feedback IR Comp
POSFEEDRESISTANCE	QUANT	0	Positive Feedback Resistance (ohm)
ACHSELECT	IQUANT	0	Ach Select
CABLEID	IQUANT	13	Cable ID
DCCALDATE	LABEL	7/31/2020	DC Calibration Date
ACCALDATE	LABEL	7/31/2020	AC Calibration Date
THERMOSELECT	IQUANT	1	Thermo Select
FRAMEWORKVERSION	QUANT	6.33	Framework Version
INSTRUMENTVERSION	LABEL	3.50	Instrument Version
COMPLIANCEVOLTAGE	IQUANT	0	Compliance Voltage
ZCURVE	TABLE
	Pt	Time	Freq	Zreal	Zimag	Zsig	Zmod	Zphz	Idc	Vdc	IERange
	#	s	Hz	ohm	ohm	V	ohm	°	A	V	#
	0	8	300046.9	7.752864	1.831399	1	7.966237	13.29089	-7.610339E-006	3.238145E-006	10
	1	11	238359.4	7.757615	1.454503	1	7.892792	10.6193	-4.031355E-005	5.149731E-005	10
	2	14	189328.1	7.785678	1.15198	1	7.870441	8.4165	-4.022427E-005	0.0002506	10
	3	16	150421.9	7.8216	0.9034495	1	7.873604	6.588864	-9.371794E-005	0.0006371	10
	4	19	119484.4	7.842419	0.6969822	1	7.87333	5.078725	-3.685646E-006	0.0005209	10
	5	21	94921.88	7.880264	0.551838	1	7.899562	4.005761	-5.982057E-006	0.0005274	10
	6	24	75421.88	7.914018	0.3993886	1	7.924089	2.889036	1.109389E-005	0.0005912	10
	7	27	59859.37	7.951666	0.2651784	1	7.956086	1.910037	-3.421607E-005	0.0006318	10
	8	29	47578.12	7.9936	0.1470764	1	7.994953	1.054081	-6.626596E-006	0.0005827	10
	9	32	37828.12	8.036625	0.0387642	1	8.036718	0.2763605	2.473885E-005	0.000564	10
	10	34	30046.88	8.082266	-0.0656442	1	8.082533	-0.4653461	-6.093012E-006	0.0006082	10
	11	37	23859.38	8.127308	-0.1738814	1	8.129168	-1.22564	1.599384E-005	0.0005744	10
	12	39	18984.38	8.173458	-0.288748	1	8.178556	-2.023277	2.78265E-005	0.0005718	10
	13	41	15046.87	8.221992	-0.4191568	1	8.232669	-2.91841	3.018953E-005	0.0006126	10
	14	44	11953.13	8.274332	-0.5689667	1	8.293871	-3.933629	3.025596E-005	0.0006114	10
	15	46	9515.62	8.329688	-0.7430537	1	8.362764	-5.097603	-3.243969E-005	0.000667	10
	16	48	7546.875	8.388826	-0.956276	1	8.443155	-6.503306	2.610317E-005	0.0006084	10
	17	50	5928.309	8.454644	-1.225707	1	8.54303	-8.248949	-7.695636E-006	0.0006247	10
	18	53	4733.456	8.525768	-1.534474	1	8.662756	-10.2029	2.673121E-005	0.0005963	10
	19	55	3796.875	8.603983	-1.904392	1	8.812221	-12.48054	-2.70511E-005	0.0007232	10
	20	57	2987.132	8.694971	-2.404003	1	9.021184	-15.45516	-3.018525E-005	0.0006996	10
	21	60	2390.625	8.794326	-2.977044	1	9.284554	-18.70192	1.291201E-005	0.0005993	10
	22	62	1884.191	8.914832	-3.733542	1	9.66507	-22.72399	-2.142974E-005	0.0006981	10
	23	64	1516.544	9.048405	-4.584908	1	10.14372	-26.87174	2.785218E-005	0.0006018	10
	24	67	1193.986	9.219458	-5.746758	1	10.86387	-31.9365	-5.491713E-006	0.00062	10
	25	69	946.5144	9.418552	-7.159129	1	11.83056	-37.2388	2.612958E-005	0.0006114	10
	26	71	751.7689	9.66403	-8.887225	1	13.12922	-42.60222	6.923079E-006	0.0006501	10
	27	74	597.4265	9.96416	-11.02311	1	14.85912	-47.88851	3.740807E-006	0.0006019	10
	28	76	477.4305	10.32851	-13.60348	1	17.08019	-52.79223	-3.190047E-006	0.0006731	10
	29	78	376.6741	10.81518	-16.975	1	20.12756	-57.49781	-2.736981E-006	0.0006534	10
	30	81	298.2954	11.4278	-21.09745	1	23.99369	-61.55703	-2.350787E-006	0.0006559	10
	31	83	237.7717	12.19412	-26.04453	1	28.75785	-64.91089	-2.327654E-006	0.0006571	10
	32	86	189.0121	13.18037	-32.19893	1	34.79214	-67.73865	-2.087167E-006	0.0006614	10
	33	88	150.2404	14.44142	-39.76931	1	42.3102	-70.04253	-2.801114E-006	0.00066	10
	34	90	119.1737	16.04767	-49.10315	1	51.65895	-71.9018	1.420158E-006	5.372638E-005	9
	35	93	95.0169	18.06541	-60.34537	1	62.99145	-73.33404	1.347537E-006	5.640928E-005	9
	36	95	75.60484	20.64239	-74.22686	1	77.04372	-74.45882	1.362312E-006	4.87675E-005	9
	37	98	54.50582	25.54351	-99.6468	1	102.8687	-75.62236	1.294192E-006	5.31603E-005	9
	38	100	45.95588	28.85436	-116.1458	1	119.6763	-76.04833	1.45332E-006	5.638427E-005	9
	39	103	37.20238	33.84258	-140.2699	1	144.2948	-76.43562	1.32583E-006	5.342349E-005	9
	40	105	30.04808	40.15149	-169.7017	1	174.387	-76.68858	1.415015E-006	4.811125E-005	9
	41	107	23.91582	48.69329	-207.8024	1	213.4312	-76.8121	1.458164E-006	5.168164E-005	9
	42	110	18.60119	60.69462	-259.096	1	266.11	-76.81589	1.227793E-006	5.369706E-005	9
	43	112	15.02404	73.87404	-312.5346	1	321.1468	-76.70104	1.634163E-006	6.447786E-005	9
	44	114	12.01923	91.15264	-379.4463	1	390.2413	-76.49206	1.529926E-006	5.736888E-005	9
	45	117	9.450605	114.402	-464.86	1	478.7303	-76.17427	5.976263E-007	0.0006457	8
	46	119	7.512019	143.1095	-565.1545	1	582.9922	-75.79015	6.059691E-007	0.0006291	8
	47	122	5.978954	178.3631	-685.3844	1	708.2126	-75.413	6.813996E-007	0.0006376	8
	48	125	4.734848	223.5095	-832.9236	1	862.3911	-74.97894	6.690422E-007	0.0006106	8
	49	128	3.75601	279.0697	-1009.128	1	1047.005	-74.54147	7.704778E-007	0.0006556	8
	50	132	3.004808	343.1709	-1211.633	1	1259.293	-74.18628	7.384233E-007	0.000643	8
	51	135	2.372217	426.5056	-1468.093	1	1528.792	-73.80054	7.115154E-007	0.0006044	8
	52	140	1.878005	524.5464	-1780.959	1	1856.6	-73.5887	7.574188E-007	0.000624	8
	53	144	1.512097	628.2137	-2125.714	1	2216.6	-73.53597	7.089303E-007	0.0006979	8
	54	150	1.201923	767.7463	-2573.231	1	2685.322	-73.38706	7.439393E-007	0.0006335	8
	55	156	0.956633	929.5582	-3110.073	1	3246.018	-73.35931	6.759974E-007	-4.659397E-006	8
