EXPLAIN
TAG	EISPOT
TITLE	LABEL	Potentiostatic EIS	Test Identifier
DATE	LABEL	8/30/2020	Date
TIME	LABEL	11:17:49	Time
NOTES	NOTES	1	Notes...
	
PSTAT	PSTAT	REF3000-16137	Potentiostat
VDC	POTEN	0.00000E+000	T	DC Voltage (V)
FREQINIT	QUANT	3.00000E+005	Initial Freq. (Hz)
FREQFINAL	QUANT	1.00000E+000	Final Freq. (Hz)
PTSPERDEC	QUANT	1.00000E+001	Points/decade
VAC	QUANT	5.00000E+001	AC Voltage (mV rms)
AREA	QUANT	1.00000E+000	Sample Area (cm^2)
SPEED	SELECTOR	2	Optimize for:
ZGUESS	QUANT	1.00000E+003	Estimated Z (ohms)
EOC	QUANT	0	Open Circuit (V)
SEQUENCER	TOGGLE	TRUE	Run as Sequence
PSTATMODEL	IQUANT	5	Pstat Model
PSTATSECTION	LABEL	REF3000-16137	Pstat Section
PSTATSERIALNO	LABEL	16137	Pstat Serial Number
CTRLMODE	IQUANT	1	Control Mode
IESTAB	IQUANT	0	I/E Stability
CASPEED	IQUANT	1	Control Amp Speed
CONVENTION	IQUANT	1	Current Convention
ICHRANGE	IQUANT	2	Ich Range
ICHRANGEMODE	TOGGLE	F	Ich Auto Range
ICHOFFSETENABLE	TOGGLE	T	Ich Offset Enable
ICHOFFSET	QUANT	0	Ich Offset (V)
ICHFILTER	IQUANT	3	Ich Filter
VCHRANGE	IQUANT	2	Vch Range
VCHRANGEMODE	TOGGLE	F	Vch Auto Range
VCHOFFSETENABLE	TOGGLE	T	Vch Offset Enable
VCHOFFSET	QUANT	0	Vch Offset (V)
VCHFILTER	IQUANT	3	Vch Filter
ACHRANGE	IQUANT	2	Ach Range
ACHOFFSETENABLE	TOGGLE	F	Ach Offset Enable
ACHOFFSET	QUANT	0	Ach Offset (V)
ACHFILTER	IQUANT	3	Ach Filter
IERANGELOWERLIMIT	IQUANT	2	I/E Range Lower Limit
IERANGEMODE	TOGGLE	F	I/E AutoRange
IERANGE	IQUANT	11	I/E Range
POSFEEDENABLE	TOGGLE	F	Positive Feedback IR Comp
POSFEEDRESISTANCE	QUANT	0	Positive Feedback Resistance (ohm)
ACHSELECT	IQUANT	0	Ach Select
CABLEID	IQUANT	13	Cable ID
DCCALDATE	LABEL	7/31/2020	DC Calibration Date
ACCALDATE	LABEL	7/31/2020	AC Calibration Date
THERMOSELECT	IQUANT	1	Thermo Select
FRAMEWORKVERSION	QUANT	6.33	Framework Version
INSTRUMENTVERSION	LABEL	3.50	Instrument Version
COMPLIANCEVOLTAGE	IQUANT	0	Compliance Voltage
ZCURVE	TABLE
	Pt	Time	Freq	Zreal	Zimag	Zsig	Zmod	Zphz	Idc	Vdc	IERange
	#	s	Hz	ohm	ohm	V	ohm	°	A	V	#
	0	17	300046.9	1824.235	-1816.112	1	2574.12	-44.87216	-2.606044E-005	-0.0012421	9
	1	30	238359.4	2252.873	-2114.598	1	3089.816	-43.1866	-1.976039E-005	0.0011201	9
	2	44	189328.1	2749.739	-2347.325	1	3615.384	-40.48585	-1.493472E-005	0.0018485	9
	3	53	150421.9	3359.006	-2529.65	1	4205.003	-36.98322	-6.111651E-005	0.0005708	9
	4	60	119484.4	4013.698	-2653.851	1	4811.725	-33.47262	-1.470453E-005	0.0018147	9
	5	68	94921.88	4778.954	-2621.024	1	5450.52	-28.74262	-1.590851E-005	0.0009054	8
	6	75	75421.88	5506.585	-2696.302	1	6131.274	-26.0887	-2.52917E-005	0.0074385	8
	7	83	59859.37	6319.942	-2725.973	1	6882.775	-23.33193	8.706404E-006	0.0037624	8
	8	90	47578.12	7201.331	-2808.424	1	7729.581	-21.30513	-1.933573E-006	-0.0046315	8
	9	98	37828.12	8494.58	-1974.141	1	8720.959	-13.0833	-5.276835E-007	-0.0130335	7
	10	102	30046.88	9006.686	-1806.277	1	9186.023	-11.34015	-5.848417E-006	0.0097791	7
	11	106	23859.38	9559.09	-1672.917	1	9704.37	-9.92669	-6.692829E-007	-0.0127863	7
	12	110	18984.38	10113.19	-1498.58	1	10223.62	-8.428794	-6.018188E-006	0.0230646	7
	13	114	15046.87	10698.84	-1381.771	1	10787.7	-7.359101	6.400686E-006	-0.0243288	7
	14	118	11953.13	11317.07	-1260.521	1	11387.06	-6.355536	6.909987E-006	-0.0216174	7
	15	122	9515.62	12001.19	-1112.409	1	12052.63	-5.295703	-6.206917E-006	0.0236527	7
	16	127	7546.875	12702.14	-1035.358	1	12744.27	-4.659904	-6.696062E-006	0.0211087	7
	17	131	5928.309	13474.23	-850.5898	1	13501.05	-3.612127	-2.874513E-006	-0.0055953	7
	18	135	4733.456	14202.61	-747.8322	1	14222.29	-3.0141	-6.686048E-006	0.0212413	7
	19	139	3796.875	15009.95	-684.6147	1	15025.56	-2.611491	-7.393785E-007	-0.0130438	7
	20	144	2987.132	15851.49	-628.1626	1	15863.93	-2.26933	-1.868397E-006	0.0207848	7
	21	148	2390.625	16468.03	-560.4121	1	16477.57	-1.94904	7.165605E-006	-0.0224389	7
	22	152	1884.191	17789.19	-491.4779	1	17795.98	-1.582559	-6.12224E-006	0.0105284	7
	23	157	1516.544	18592.81	-424.33	1	18597.65	-1.307392	7.070864E-006	-0.0168804	7
	24	161	1193.986	19662.3	-327.9498	1	19665.04	-0.955554	-6.779557E-006	0.0217129	7
	25	165	946.5144	20374.86	-238.2869	1	20376.25	-0.6700518	7.341286E-006	-0.0231152	7
	26	168	751.7689	21162.79	-846.122	1	21179.7	-2.289557	6.375024E-006	-0.0245922	7
	27	171	597.4265	22073.62	-408.2643	1	22077.39	-1.059598	2.578177E-006	0.0083808	7
	28	173	477.4305	22760.75	-282.1082	1	22762.5	-0.7101165	-7.898495E-008	0.0006165	7
	29	175	376.6741	23459.87	-253.4512	1	23461.24	-0.6189771	-7.614629E-008	0.0005529	7
	30	178	298.2954	24199.12	-231.6319	1	24200.23	-0.5484136	-8.410061E-008	0.0006526	7
	31	180	237.7717	24977.92	-220.6488	1	24978.89	-0.5061237	-7.990177E-008	0.0006484	7
	32	183	189.0121	25786.51	-215.583	1	25787.41	-0.4789988	-8.720368E-008	0.0006031	7
	33	185	150.2404	26624.73	-218.4798	1	26625.63	-0.4701526	-8.274253E-008	0.0006505	7
	34	187	119.1737	27533.58	-243.9853	1	27534.66	-0.507706	-7.883212E-008	0.000606	7
	35	190	95.0169	28431.06	-230.9294	1	28432	-0.465371	-7.696024E-008	0.0005639	7
	36	192	75.60484	29402.99	-253.4788	1	29404.08	-0.4939262	-7.40972E-008	0.0005575	7
	37	195	54.50582	30452.62	-308.6839	1	30454.19	-0.5807604	-7.715041E-008	0.0005938	7
	38	197	45.95588	31454.72	-340.0399	1	31456.56	-0.6193695	-7.679131E-008	0.0005539	7
	39	200	37.20238	32472.33	-388.8447	1	32474.66	-0.6860639	-8.002658E-008	0.0006091	7
	40	202	30.04808	33560.91	-461.3198	1	33564.08	-0.7875237	-7.957468E-008	0.0006129	7
	41	204	23.91582	34701.01	-562.8958	1	34705.57	-0.9293311	-7.32129E-008	0.0006316	7
	42	207	18.60119	35816.68	-716.1226	1	35823.84	-1.145425	-9.526816E-008	0.0005577	7
	43	209	15.02404	36977.64	-825.4063	1	36986.86	-1.278731	-7.143915E-008	0.0006559	7
	44	211	12.01923	38276.67	-958.03	1	38288.66	-1.433761	-3.727922E-008	0.0006253	6
	45	214	9.450605	39686.31	-1256.02	1	39706.18	-1.812731	3.64138E-009	0.0006941	6
	46	216	7.512019	41079.98	-1524.169	1	41108.25	-2.12484	-3.178043E-008	0.0006872	6
	47	219	5.978954	42851.96	-1932.896	1	42895.53	-2.582653	-3.357671E-008	0.0006166	6
	48	222	4.734848	44890.27	-2380.298	1	44953.34	-3.035255	-3.348468E-009	0.000613	6
	49	225	3.75601	47207.5	-2969.459	1	47300.8	-3.599293	-2.442193E-008	0.000685	6
	50	229	3.004808	49687.45	-3682.151	1	49823.7	-4.238228	9.121827E-009	0.0005811	6
	51	232	2.372217	52702.49	-4424.735	1	52887.91	-4.799119	-1.695074E-008	0.0005711	6
	52	237	1.878005	56326.39	-5563.659	1	56600.5	-5.641112	-1.148596E-008	0.0006498	6
	53	241	1.512097	60718.41	-6974.691	1	61117.69	-6.552815	3.332897E-009	0.000543	6
	54	247	1.201923	66358.91	-8531.817	1	66905.14	-7.32637	-1.218247E-008	0.0006688	6
	55	253	0.956633	73276.42	-10785.92	1	74065.98	-8.373521	-2.549706E-008	4.448509E-006	6
