EXPLAIN
TAG	EISPOT
TITLE	LABEL	Potentiostatic EIS	Test Identifier
DATE	LABEL	8/30/2020	Date
TIME	LABEL	11:22:11	Time
NOTES	NOTES	1	Notes...
	
PSTAT	PSTAT	REF3000-16137	Potentiostat
VDC	POTEN	0.00000E+000	T	DC Voltage (V)
FREQINIT	QUANT	3.00000E+005	Initial Freq. (Hz)
FREQFINAL	QUANT	1.00000E+000	Final Freq. (Hz)
PTSPERDEC	QUANT	1.00000E+001	Points/decade
VAC	QUANT	5.00000E+001	AC Voltage (mV rms)
AREA	QUANT	1.00000E+000	Sample Area (cm^2)
SPEED	SELECTOR	2	Optimize for:
ZGUESS	QUANT	1.00000E+003	Estimated Z (ohms)
EOC	QUANT	0	Open Circuit (V)
SEQUENCER	TOGGLE	TRUE	Run as Sequence
PSTATMODEL	IQUANT	5	Pstat Model
PSTATSECTION	LABEL	REF3000-16137	Pstat Section
PSTATSERIALNO	LABEL	16137	Pstat Serial Number
CTRLMODE	IQUANT	1	Control Mode
IESTAB	IQUANT	0	I/E Stability
CASPEED	IQUANT	1	Control Amp Speed
CONVENTION	IQUANT	1	Current Convention
ICHRANGE	IQUANT	2	Ich Range
ICHRANGEMODE	TOGGLE	F	Ich Auto Range
ICHOFFSETENABLE	TOGGLE	T	Ich Offset Enable
ICHOFFSET	QUANT	0	Ich Offset (V)
ICHFILTER	IQUANT	3	Ich Filter
VCHRANGE	IQUANT	2	Vch Range
VCHRANGEMODE	TOGGLE	F	Vch Auto Range
VCHOFFSETENABLE	TOGGLE	T	Vch Offset Enable
VCHOFFSET	QUANT	0	Vch Offset (V)
VCHFILTER	IQUANT	3	Vch Filter
ACHRANGE	IQUANT	2	Ach Range
ACHOFFSETENABLE	TOGGLE	F	Ach Offset Enable
ACHOFFSET	QUANT	0	Ach Offset (V)
ACHFILTER	IQUANT	3	Ach Filter
IERANGELOWERLIMIT	IQUANT	2	I/E Range Lower Limit
IERANGEMODE	TOGGLE	F	I/E AutoRange
IERANGE	IQUANT	11	I/E Range
POSFEEDENABLE	TOGGLE	F	Positive Feedback IR Comp
POSFEEDRESISTANCE	QUANT	0	Positive Feedback Resistance (ohm)
ACHSELECT	IQUANT	0	Ach Select
CABLEID	IQUANT	13	Cable ID
DCCALDATE	LABEL	7/31/2020	DC Calibration Date
ACCALDATE	LABEL	7/31/2020	AC Calibration Date
THERMOSELECT	IQUANT	1	Thermo Select
FRAMEWORKVERSION	QUANT	6.33	Framework Version
INSTRUMENTVERSION	LABEL	3.50	Instrument Version
COMPLIANCEVOLTAGE	IQUANT	0	Compliance Voltage
ZCURVE	TABLE
	Pt	Time	Freq	Zreal	Zimag	Zsig	Zmod	Zphz	Idc	Vdc	IERange
	#	s	Hz	ohm	ohm	V	ohm	°	A	V	#
	0	15	300046.9	298.8749	-4189.58	1	4200.227	-85.91956	-2.084724E-005	0.0011146	9
	1	28	238359.4	360.4201	-5196.946	1	5209.429	-86.03276	-6.155371E-005	0.0004112	9
	2	42	189328.1	610.5204	-6451.851	1	6480.672	-84.59436	2.340303E-005	0.0010638	9
	3	52	150421.9	1022.627	-8036.706	1	8101.506	-82.74839	7.640307E-005	-0.0014374	9
	4	59	119484.4	1447.218	-10186.19	1	10288.48	-81.91373	-3.115444E-005	-0.0060604	8
	5	68	94921.88	1621.918	-12439.87	1	12545.16	-82.57165	-2.128875E-006	0.0078195	8
	6	76	75421.88	1982.386	-15666.35	1	15791.27	-82.78825	2.331417E-005	-0.0028664	8
	7	85	59859.37	2612.41	-19632.63	1	19805.68	-82.42048	-1.020403E-006	-0.0051602	8
	8	94	47578.12	6284.223	-25411.03	1	26176.55	-76.10929	5.300099E-006	-0.02678	7
	9	100	37828.12	7361.045	-31293.14	1	32147.25	-76.76303	-1.764216E-006	0.0217081	7
	10	107	30046.88	8847.825	-38916.84	1	39909.95	-77.19141	2.757629E-006	0.0082606	7
	11	115	23859.38	6643.483	-45926.89	1	46404.9	-81.76906	-9.54234E-006	-0.002168	8
	12	121	18984.38	13047.61	-59727.79	1	61136.31	-77.67725	-6.932623E-006	0.0227462	7
	13	127	15046.87	14646.31	-74777.73	1	76198.57	-78.91808	6.715264E-006	-0.0266732	7
	14	132	11953.13	22077.31	-91964.36	1	94577.22	-76.50082	5.309982E-006	-0.0266016	7
	15	137	9515.62	28238.51	-113582.2	1	117039.8	-76.03834	-6.453536E-006	0.025741	7
	16	144	7546.875	38040.5	-142217.4	1	147217.1	-75.02501	-1.018645E-006	-0.013222	7
	17	149	5928.309	56721.13	-187345.8	1	195744	-73.1557	4.722788E-007	0.0159321	7
	18	154	4733.456	94246.7	-224817.5	1	243773.2	-67.25587	-7.326931E-007	0.0174774	6
	19	159	3796.875	114069.8	-274019.7	1	296814.3	-67.39885	-5.583765E-007	0.0263499	6
	20	164	2987.132	147715.9	-334542.2	1	365702.7	-66.17631	2.127889E-007	0.010459	6
	21	169	2390.625	109044.6	-437180.2	1	450574.3	-75.99465	7.625878E-006	-0.0242572	7
	22	176	1884.191	173065.6	-506718.8	1	535458.3	-71.14283	-3.3414E-006	-0.0051719	7
	23	183	1516.544	274452.2	-611790.9	1	670531.2	-65.83878	2.797996E-006	0.0083902	7
	24	190	1193.986	306212	-394884.4	1	499699.3	-52.20831	-6.414668E-006	0.0253414	7
	25	198	946.5144	1044181	-721319.5	1	1269100	-34.6367	4.763021E-006	-0.0002776	7
	26	202	751.7689	55473.4	-545308.1	1	548122.4	-84.19137	3.494118E-006	-0.0239803	7
	27	209	597.4265	928840.7	-1321892	1	1615594	-54.90582	-2.688043E-007	-0.0079219	6
	28	214	477.4305	1341551	-1471637	1	1991350	-47.64756	-8.365211E-010	0.0006267	5
	29	218	376.6741	1651195	-1630821	1	2320780	-44.64432	-1.020456E-009	0.0006768	5
	30	221	298.2954	2009538	-1775036	1	2681230	-41.45433	-8.419028E-010	0.0005913	5
	31	224	237.7717	2231339	-2106724	1	3068739	-43.35459	-7.958909E-009	0.0006008	6
	32	228	189.0121	2917061	-2122622	1	3607599	-36.04179	-8.579473E-010	0.0006201	5
	33	232	150.2404	3442930	-2225491	1	4099582	-32.8784	-9.687393E-010	0.0006856	5
	34	235	119.1737	3646909	-1781275	1	4058680	-26.03247	-8.779462E-010	0.0006023	5
	35	237	95.0169	4543880	-2206615	1	5051336	-25.9023	-8.630029E-010	0.0005797	5
	36	240	75.60484	5204171	-2124493	1	5621109	-22.2067	-9.813007E-010	0.0006608	5
	37	243	54.50582	5908396	-1963504	1	6226113	-18.38291	-9.364962E-010	0.0006226	5
	38	246	45.95588	7024074	-1150921	1	7117741	-9.305443	-1.381798E-010	0.0005938	4
	39	249	37.20238	7453396	-1240403	1	7555905	-9.448635	-6.728183E-011	0.0006632	4
	40	251	30.04808	7898711	-1099641	1	7974888	-7.925652	-1.156613E-010	0.0006174	4
	41	254	23.91582	8405854	-991357	1	8464111	-6.726191	-1.308783E-010	0.0006603	4
	42	257	18.60119	9302358	-681379.8	1	9327279	-4.189323	5.791192E-011	0.0006799	4
	43	259	15.02404	9487239	-896393.6	1	9.529492E+006	-5.397519	-1.014986E-010	0.0005772	4
	44	262	12.01923	1.008822E+007	-843373.8	1	1.012342E+007	-4.778805	-1.03203E-010	0.0006209	4
	45	264	9.450605	1.074375E+007	-744320.4	1	1.07695E+007	-3.963085	-1.064196E-010	0.0005906	4
	46	267	7.512019	1.153029E+007	-717061.7	1	1.155256E+007	-3.558608	-1.028909E-010	0.0007	4
	47	270	5.978954	1.254518E+007	-709282.1	1	1.256521E+007	-3.235956	-9.189747E-011	0.0006654	4
	48	275	4.734848	1.399252E+007	-746330.9	1	1.401241E+007	-3.05314	-1.037938E-010	0.0006937	4
	49	279	3.75601	1.585522E+007	-782200.1	1	1.587451E+007	-2.824335	-1.070535E-010	0.0006757	4
	50	285	3.004808	1.821856E+007	-886268	1	1.82401E+007	-2.78504	-9.003766E-011	0.0006976	4
	51	291	2.372217	2.075577E+007	-880754.3	1	2.077445E+007	-2.429842	-9.351995E-011	0.0007235	4
	52	296	1.878005	2.318077E+007	-904316.3	1	2.31984E+007	-2.234061	-9.527115E-011	0.0006132	4
	53	300	1.512097	2.629947E+007	-992516	1	2.631819E+007	-2.16126	-8.958308E-011	0.0006446	4
	54	306	1.201923	3.044201E+007	-1016590	1	3.045898E+007	-1.912642	-9.253188E-011	0.0005939	4
	55	312	0.956633	3.575365E+007	-1246603	1	3.577538E+007	-1.996892	-1.039007E-010	-1.918993E-006	4
