EXPLAIN
TAG	EISPOT
TITLE	LABEL	Potentiostatic EIS	Test Identifier
DATE	LABEL	8/30/2020	Date
TIME	LABEL	10:43:43	Time
NOTES	NOTES	1	Notes...
	
PSTAT	PSTAT	REF3000-16137	Potentiostat
VDC	POTEN	0.00000E+000	T	DC Voltage (V)
FREQINIT	QUANT	3.00000E+005	Initial Freq. (Hz)
FREQFINAL	QUANT	1.00000E+000	Final Freq. (Hz)
PTSPERDEC	QUANT	1.00000E+001	Points/decade
VAC	QUANT	5.00000E+001	AC Voltage (mV rms)
AREA	QUANT	1.00000E+000	Sample Area (cm^2)
SPEED	SELECTOR	2	Optimize for:
ZGUESS	QUANT	1.00000E+003	Estimated Z (ohms)
EOC	QUANT	0	Open Circuit (V)
SEQUENCER	TOGGLE	TRUE	Run as Sequence
PSTATMODEL	IQUANT	5	Pstat Model
PSTATSECTION	LABEL	REF3000-16137	Pstat Section
PSTATSERIALNO	LABEL	16137	Pstat Serial Number
CTRLMODE	IQUANT	1	Control Mode
IESTAB	IQUANT	0	I/E Stability
CASPEED	IQUANT	1	Control Amp Speed
CONVENTION	IQUANT	1	Current Convention
ICHRANGE	IQUANT	2	Ich Range
ICHRANGEMODE	TOGGLE	F	Ich Auto Range
ICHOFFSETENABLE	TOGGLE	T	Ich Offset Enable
ICHOFFSET	QUANT	0	Ich Offset (V)
ICHFILTER	IQUANT	3	Ich Filter
VCHRANGE	IQUANT	2	Vch Range
VCHRANGEMODE	TOGGLE	F	Vch Auto Range
VCHOFFSETENABLE	TOGGLE	T	Vch Offset Enable
VCHOFFSET	QUANT	0	Vch Offset (V)
VCHFILTER	IQUANT	3	Vch Filter
ACHRANGE	IQUANT	2	Ach Range
ACHOFFSETENABLE	TOGGLE	F	Ach Offset Enable
ACHOFFSET	QUANT	0	Ach Offset (V)
ACHFILTER	IQUANT	1	Ach Filter
IERANGELOWERLIMIT	IQUANT	2	I/E Range Lower Limit
IERANGEMODE	TOGGLE	F	I/E AutoRange
IERANGE	IQUANT	11	I/E Range
POSFEEDENABLE	TOGGLE	F	Positive Feedback IR Comp
POSFEEDRESISTANCE	QUANT	0	Positive Feedback Resistance (ohm)
ACHSELECT	IQUANT	0	Ach Select
CABLEID	IQUANT	13	Cable ID
DCCALDATE	LABEL	7/31/2020	DC Calibration Date
ACCALDATE	LABEL	7/31/2020	AC Calibration Date
THERMOSELECT	IQUANT	1	Thermo Select
FRAMEWORKVERSION	QUANT	6.33	Framework Version
INSTRUMENTVERSION	LABEL	3.50	Instrument Version
COMPLIANCEVOLTAGE	IQUANT	0	Compliance Voltage
ZCURVE	TABLE
	Pt	Time	Freq	Zreal	Zimag	Zsig	Zmod	Zphz	Idc	Vdc	IERange
	#	s	Hz	ohm	ohm	V	ohm	°	A	V	#
	0	10	300046.9	3.335864	1.869631	1	3.82407	29.26905	6.374421E-005	-0.0003049	10
	1	13	238359.4	3.298921	1.49653	1	3.622497	24.40105	4.326303E-005	-0.0004653	10
	2	17	189328.1	3.284626	1.183854	1	3.491458	19.82032	8.013901E-005	-0.0003724	10
	3	19	150421.9	3.266866	0.9065186	1	3.390308	15.50874	-0.0001282	2.909701E-005	11
	4	23	119484.4	3.258537	0.7057747	1	3.334094	12.22107	-0.0001186	0.0003086	11
	5	25	94921.88	3.245841	0.5376546	1	3.290069	9.405312	1.151533E-005	0.0005514	11
	6	28	75421.88	3.238998	0.3968099	1	3.263214	6.984506	-4.086237E-005	0.0005375	11
	7	30	59859.37	3.235322	0.2745538	1	3.246951	4.850576	-4.291742E-005	0.0006045	11
	8	33	47578.12	3.231202	0.1658577	1	3.235456	2.938415	1.767423E-005	0.0006696	11
	9	35	37828.12	3.228945	0.0656397	1	3.229612	1.164578	-5.405947E-005	0.0006001	11
	10	38	30046.88	3.229308	-0.0321306	1	3.229467	-0.570056	-2.401693E-005	0.000666	11
	11	41	23859.38	3.230937	-0.1315789	1	3.233615	-2.332065	1.438765E-006	0.0006873	11
	12	43	18984.38	3.233699	-0.2361576	1	3.242311	-4.176905	1.328393E-005	0.0006654	11
	13	45	15046.87	3.239911	-0.3538577	1	3.259177	-6.233045	2.095752E-005	0.000688	11
	14	47	11953.13	3.2479	-0.4870677	1	3.284218	-8.528741	1.852641E-005	0.0006819	11
	15	50	9515.62	3.259592	-0.6418838	1	3.322191	-11.14023	1.887176E-005	0.0006895	11
	16	52	7546.875	3.274307	-0.8303475	1	3.377953	-14.22993	2.339453E-006	0.0006655	11
	17	54	5928.309	3.29608	-1.069145	1	3.465142	-17.97143	-3.31139E-005	0.0006643	11
	18	57	4733.456	3.321499	-1.341179	1	3.582055	-21.98823	-3.451845E-005	0.0006614	11
	19	59	3796.875	3.355855	-1.667095	1	3.747128	-26.4169	-3.473237E-006	0.0006464	10
	20	61	2987.132	3.401814	-2.103985	1	3.999887	-31.73635	3.787086E-006	0.0006153	10
	21	64	2390.625	3.456325	-2.605861	1	4.32859	-37.01409	-1.540429E-005	0.0006312	10
	22	66	1884.191	3.533802	-3.266553	1	4.812289	-42.74947	2.405731E-005	0.0006314	10
	23	68	1516.544	3.626391	-4.009524	1	5.406199	-47.87241	-1.104527E-005	0.000636	10
	24	71	1193.986	3.759794	-5.018477	1	6.270659	-53.15981	3.035983E-006	0.000616	10
	25	73	946.5144	3.935182	-6.231636	1	7.370139	-57.72822	-1.451618E-005	0.0006538	10
	26	75	751.7689	4.154668	-7.719254	1	8.766307	-61.70991	2.187077E-005	0.0006393	10
	27	78	597.4265	4.448474	-9.54005	1	10.52623	-65.00062	1.623279E-005	0.0006152	10
	28	80	477.4305	4.813244	-11.713	1	12.6634	-67.66068	-1.043168E-007	0.0006562	10
	29	82	376.6741	5.316643	-14.53229	1	15.47431	-69.90494	3.018926E-008	0.0006511	10
	30	85	298.2954	5.957307	-17.94555	1	18.90853	-71.6356	-2.258934E-007	0.0006591	10
	31	87	237.7717	6.757834	-22.00437	1	23.0187	-72.92758	-7.58278E-007	0.0006557	10
	32	90	189.0121	7.795377	-27.01299	1	28.11529	-73.90298	-3.812055E-007	0.0006476	10
	33	92	150.2404	9.128257	-33.13414	1	34.36854	-74.59744	-1.026634E-006	0.00069	10
	34	94	119.1737	10.86209	-40.65411	1	42.08018	-75.04096	-1.009819E-006	0.0006507	10
	35	97	95.0169	13.02436	-49.53834	1	51.22188	-75.26946	2.629689E-006	5.000869E-005	9
	36	99	75.60484	15.84234	-60.43445	1	62.47642	-75.31095	2.437146E-006	4.884565E-005	9
	37	102	54.50582	21.31302	-80.094	1	82.8812	-75.09889	2.387268E-006	4.197859E-005	9
	38	104	45.95588	25.02347	-92.57342	1	95.8958	-74.8739	2.630491E-006	5.270505E-005	9
	39	107	37.20238	30.66224	-110.602	1	114.7735	-74.505	2.56987E-006	5.207607E-005	9
	40	109	30.04808	37.73188	-132.1454	1	137.4267	-74.06421	2.484981E-006	4.980411E-005	9
	41	111	23.91582	47.27945	-159.4657	1	166.327	-73.48562	2.29372E-006	5.161906E-005	9
	42	114	18.60119	60.32045	-195.2548	1	204.36	-72.83241	2.485111E-006	5.85409E-005	9
	43	116	15.02404	74.14262	-231.637	1	243.2135	-72.25111	2.481725E-006	4.58589E-005	9
	44	118	12.01923	91.94585	-276.5468	1	291.4313	-71.60915	2.761337E-006	5.407468E-005	9
	45	121	9.450605	115.4195	-333.9027	1	353.2884	-70.93137	2.34056E-006	5.097263E-005	9
	46	123	7.512019	142.503	-398.055	1	422.7941	-70.30273	1.811329E-006	0.0006214	8
	47	126	5.978954	177.0334	-475.644	1	507.5215	-69.58487	1.907233E-006	0.0006303	8
	48	129	4.734848	221.585	-569.8406	1	611.4067	-68.75121	1.739292E-006	0.0006028	8
	49	132	3.75601	278.8104	-680.6939	1	735.5811	-67.72612	2.10792E-006	0.0006483	8
	50	136	3.004808	349.5381	-804.8564	1	877.4798	-66.52536	2.021957E-006	0.0006288	8
	51	139	2.372217	447.6144	-955.629	1	1055.266	-64.90172	1.988169E-006	0.0006023	8
	52	144	1.878005	574.7408	-1127.345	1	1265.399	-62.98669	2.100914E-006	0.0006209	8
	53	148	1.512097	721.1609	-1299.569	1	1486.254	-60.97309	1.988392E-006	0.0006955	8
	54	154	1.201923	919.0135	-1493.623	1	1753.709	-58.39636	2.041665E-006	0.0006326	8
	55	160	0.956633	1155.204	-1688.758	1	2046.069	-55.6257	1.600243E-006	-1.260147E-005	8
