June 13, 2026   01:23:35
A.C. Impedance
File: e:\chi_data\Data Source:  Experiment
Instrument Model:  CHI660E
Header: 
Note: 

Init E (V) = 0
High Frequency (Hz) = 1e+6
Low Frequency (Hz) = 0.1
Imp SF
Amplitude (V) = 0.005
Quiet Time (sec) = 2
Cycles (.1-1Hz) = 1

Freq/Hz, Z'/ohm, Z"/ohm, Z/ohm, Phase/deg

8.252e+5, 6.995e+0, 1.390e+1, 1.556e+1, 63.3
6.816e+5, 6.423e+0, 1.127e+1, 1.297e+1, 60.3
5.625e+5, 5.789e+0, 9.334e+0, 1.098e+1, 58.2
4.639e+5, 5.579e+0, 7.660e+0, 9.476e+0, 53.9
3.828e+5, 5.400e+0, 6.383e+0, 8.361e+0, 49.8
3.164e+5, 5.324e+0, 5.287e+0, 7.503e+0, 44.8
2.607e+5, 5.223e+0, 4.389e+0, 6.823e+0, 40.0
2.158e+5, 5.149e+0, 3.618e+0, 6.293e+0, 35.1
1.777e+5, 5.095e+0, 2.962e+0, 5.893e+0, 30.2
1.465e+5, 5.063e+0, 2.410e+0, 5.607e+0, 25.5
1.211e+5, 5.021e+0, 1.971e+0, 5.394e+0, 21.4
9.961e+4, 4.993e+0, 1.602e+0, 5.244e+0, 17.8
8.252e+4, 4.976e+0, 1.295e+0, 5.142e+0, 14.6
6.812e+4, 4.972e+0, 1.028e+0, 5.077e+0, 11.7
5.625e+4, 4.971e+0, 7.915e-1, 5.034e+0, 9.0
4.644e+4, 4.976e+0, 5.795e-1, 5.010e+0, 6.6
3.833e+4, 4.985e+0, 3.904e-1, 5.000e+0, 4.5
3.164e+4, 4.998e+0, 2.238e-1, 5.003e+0, 2.6
2.612e+4, 5.014e+0, 7.204e-2, 5.014e+0, 0.8
2.153e+4, 5.029e+0, -7.360e-2, 5.030e+0, -0.8
1.777e+4, 5.047e+0, -2.210e-1, 5.052e+0, -2.5
1.470e+4, 5.070e+0, -3.756e-1, 5.084e+0, -4.2
1.211e+4, 5.098e+0, -5.328e-1, 5.126e+0, -6.0
1.001e+4, 5.131e+0, -7.000e-1, 5.178e+0, -7.8
8.252e+3, 5.167e+0, -8.874e-1, 5.243e+0, -9.7
6.812e+3, 5.211e+0, -1.098e+0, 5.326e+0, -11.9
5.625e+3, 5.262e+0, -1.338e+0, 5.429e+0, -14.3
4.643e+3, 5.321e+0, -1.612e+0, 5.560e+0, -16.9
3.833e+3, 5.391e+0, -1.927e+0, 5.725e+0, -19.7
3.164e+3, 5.471e+0, -2.294e+0, 5.932e+0, -22.7
2.612e+3, 5.563e+0, -2.724e+0, 6.194e+0, -26.1
2.153e+3, 5.672e+0, -3.230e+0, 6.527e+0, -29.7
1.777e+3, 5.800e+0, -3.825e+0, 6.948e+0, -33.4
1.470e+3, 5.949e+0, -4.527e+0, 7.476e+0, -37.3
1.211e+3, 6.126e+0, -5.355e+0, 8.136e+0, -41.2
1.001e+3, 6.336e+0, -6.329e+0, 8.956e+0, -45.0
8.252e+2, 6.584e+0, -7.473e+0, 9.960e+0, -48.6
6.836e+2, 6.880e+0, -8.832e+0, 1.120e+1, -52.1
5.615e+2, 7.233e+0, -1.045e+1, 1.271e+1, -55.3
4.639e+2, 7.660e+0, -1.237e+1, 1.455e+1, -58.2
3.809e+2, 8.164e+0, -1.460e+1, 1.673e+1, -60.8
3.174e+2, 8.774e+0, -1.723e+1, 1.934e+1, -63.0
2.588e+2, 9.524e+0, -2.036e+1, 2.248e+1, -64.9
2.148e+2, 1.044e+1, -2.408e+1, 2.625e+1, -66.6
1.758e+2, 1.150e+1, -2.841e+1, 3.065e+1, -68.0
1.465e+2, 1.271e+1, -3.330e+1, 3.564e+1, -69.1
1.221e+2, 1.417e+1, -3.931e+1, 4.179e+1, -70.2
9.766e+1, 1.598e+1, -4.627e+1, 4.895e+1, -70.9
8.254e+1, 1.807e+1, -5.414e+1, 5.708e+1, -71.5
6.813e+1, 2.041e+1, -6.355e+1, 6.675e+1, -72.2
5.623e+1, 2.303e+1, -7.468e+1, 7.815e+1, -72.9
4.642e+1, 2.600e+1, -8.792e+1, 9.169e+1, -73.5
3.831e+1, 2.945e+1, -1.036e+2, 1.077e+2, -74.1
3.162e+1, 3.346e+1, -1.222e+2, 1.267e+2, -74.7
2.610e+1, 3.813e+1, -1.441e+2, 1.491e+2, -75.2
2.154e+1, 4.349e+1, -1.700e+2, 1.755e+2, -75.7
1.778e+1, 4.966e+1, -2.006e+2, 2.066e+2, -76.1
1.468e+1, 5.682e+1, -2.368e+2, 2.435e+2, -76.5
1.212e+1, 6.503e+1, -2.796e+2, 2.871e+2, -76.9
1.000e+1, 7.466e+1, -3.304e+2, 3.387e+2, -77.3
8.254e+0, 8.568e+1, -3.906e+2, 3.999e+2, -77.6
6.813e+0, 9.788e+1, -4.623e+2, 4.726e+2, -78.0
5.623e+0, 1.114e+2, -5.478e+2, 5.590e+2, -78.5
4.642e+0, 1.266e+2, -6.500e+2, 6.622e+2, -79.0
3.831e+0, 1.440e+2, -7.715e+2, 7.848e+2, -79.4
3.162e+0, 1.631e+2, -9.175e+2, 9.319e+2, -79.9
2.610e+0, 1.847e+2, -1.093e+3, 1.108e+3, -80.4
2.154e+0, 2.051e+2, -1.305e+3, 1.321e+3, -81.1
1.778e+0, 2.262e+2, -1.561e+3, 1.577e+3, -81.8
1.468e+0, 2.542e+2, -1.867e+3, 1.884e+3, -82.2
1.212e+0, 2.938e+2, -2.224e+3, 2.244e+3, -82.5
1.000e+0, 3.485e+2, -2.641e+3, 2.664e+3, -82.5
8.254e-1, 4.142e+2, -3.135e+3, 3.162e+3, -82.5
6.813e-1, 4.889e+2, -3.722e+3, 3.754e+3, -82.5
5.623e-1, 5.740e+2, -4.427e+3, 4.464e+3, -82.6
4.642e-1, 6.741e+2, -5.272e+3, 5.315e+3, -82.7
3.831e-1, 7.941e+2, -6.280e+3, 6.330e+3, -82.8
3.162e-1, 9.390e+2, -7.481e+3, 7.540e+3, -82.8
2.610e-1, 1.117e+3, -8.913e+3, 8.983e+3, -82.9
2.154e-1, 1.333e+3, -1.062e+4, 1.070e+4, -82.8
1.778e-1, 1.596e+3, -1.264e+4, 1.274e+4, -82.8
1.468e-1, 1.909e+3, -1.498e+4, 1.510e+4, -82.7
1.212e-1, 2.318e+3, -1.783e+4, 1.798e+4, -82.6
1.000e-1, 2.845e+3, -2.127e+4, 2.146e+4, -82.4
