EXPLAIN
TAG	EISPOT
TITLE	LABEL	Potentiostatic EIS	Test Identifier
DATE	LABEL	11/21/2021	Date
TIME	LABEL	15:19:35	Time
NOTES	NOTES	1	Notes...
	
PSTAT	PSTAT	REF3000-16137	Potentiostat
VDC	POTEN	0.00000E+000	T	DC Voltage (V)
FREQINIT	QUANT	3.00000E+005	Initial Freq. (Hz)
FREQFINAL	QUANT	1.00000E+000	Final Freq. (Hz)
PTSPERDEC	QUANT	1.00000E+001	Points/decade
VAC	QUANT	5.00000E+001	AC Voltage (mV rms)
AREA	QUANT	1.00000E+000	Sample Area (cm^2)
SPEED	SELECTOR	2	Optimize for:
ZGUESS	QUANT	1.00000E+003	Estimated Z (ohms)
EOC	QUANT	0	Open Circuit (V)
SEQUENCER	TOGGLE	TRUE	Run as Sequence
PSTATMODEL	IQUANT	5	Pstat Model
PSTATSECTION	LABEL	REF3000-16137	Pstat Section
PSTATSERIALNO	LABEL	16137	Pstat Serial Number
CTRLMODE	IQUANT	1	Control Mode
IESTAB	IQUANT	0	I/E Stability
CASPEED	IQUANT	1	Control Amp Speed
CONVENTION	IQUANT	1	Current Convention
ICHRANGE	IQUANT	2	Ich Range
ICHRANGEMODE	TOGGLE	F	Ich Auto Range
ICHOFFSETENABLE	TOGGLE	T	Ich Offset Enable
ICHOFFSET	QUANT	0	Ich Offset (V)
ICHFILTER	IQUANT	3	Ich Filter
VCHRANGE	IQUANT	2	Vch Range
VCHRANGEMODE	TOGGLE	F	Vch Auto Range
VCHOFFSETENABLE	TOGGLE	T	Vch Offset Enable
VCHOFFSET	QUANT	0	Vch Offset (V)
VCHFILTER	IQUANT	3	Vch Filter
ACHRANGE	IQUANT	2	Ach Range
ACHOFFSETENABLE	TOGGLE	F	Ach Offset Enable
ACHOFFSET	QUANT	0	Ach Offset (V)
ACHFILTER	IQUANT	3	Ach Filter
IERANGELOWERLIMIT	IQUANT	2	I/E Range Lower Limit
IERANGEMODE	TOGGLE	F	I/E AutoRange
IERANGE	IQUANT	11	I/E Range
POSFEEDENABLE	TOGGLE	F	Positive Feedback IR Comp
POSFEEDRESISTANCE	QUANT	0	Positive Feedback Resistance (ohm)
ACHSELECT	IQUANT	0	Ach Select
CABLEID	IQUANT	13	Cable ID
DCCALDATE	LABEL	9/10/2021	DC Calibration Date
ACCALDATE	LABEL	9/10/2021	AC Calibration Date
THERMOSELECT	IQUANT	1	Thermo Select
FRAMEWORKVERSION	QUANT	6.33	Framework Version
INSTRUMENTVERSION	LABEL	3.50	Instrument Version
COMPLIANCEVOLTAGE	IQUANT	0	Compliance Voltage
ZCURVE	TABLE
	Pt	Time	Freq	Zreal	Zimag	Zsig	Zmod	Zphz	Idc	Vdc	IERange
	#	s	Hz	ohm	ohm	V	ohm	°	A	V	#
	0	7	300046.9	68.21062	0.5463688	1	68.21281	0.4589308	9.55936E-006	-0.0013458	9
	1	10	238359.4	68.73643	-0.0193267	1	68.73643	-0.0161099	-3.271622E-005	-0.0005484	9
	2	13	189328.1	69.26451	-0.5272203	1	69.26652	-0.4361095	-1.274004E-005	-0.0010608	9
	3	16	150421.9	69.68042	-1.077476	1	69.68875	-0.8859	-5.930311E-005	0.0017873	9
	4	18	119484.4	70.36482	-1.656213	1	70.38431	-1.348351	-7.247993E-006	0.0005791	9
	5	21	94921.88	71.02687	-2.048133	1	71.0564	-1.651725	1.701401E-005	-0.0003746	9
	6	23	75421.88	71.61472	-2.62781	1	71.66291	-2.101452	-3.841909E-006	0.0003483	9
	7	26	59859.37	72.33479	-3.224748	1	72.40663	-2.552606	1.891049E-005	-0.0005729	9
	8	28	47578.12	73.11691	-3.837729	1	73.21756	-3.004559	2.029011E-005	-0.0007636	9
	9	31	37828.12	73.93262	-4.562072	1	74.07323	-3.531006	2.042424E-005	-0.0005813	9
	10	33	30046.88	74.85427	-5.125861	1	75.02957	-3.917377	9.466494E-006	-0.0007266	9
	11	36	23859.38	75.83717	-5.818841	1	76.06008	-4.387599	1.680512E-005	-0.0004345	9
	12	38	18984.38	76.88908	-6.595521	1	77.17145	-4.902812	-1.398964E-005	2.189661E-005	9
	13	41	15046.87	78.14211	-7.49217	1	78.50045	-5.476708	2.256395E-005	-0.0005096	9
	14	43	11953.13	79.36745	-8.377692	1	79.80839	-6.025587	-4.448699E-006	-0.0003596	9
	15	45	9515.62	80.81296	-9.358798	1	81.35307	-6.605891	2.670096E-006	0.0002028	9
	16	48	7546.875	82.35588	-10.51151	1	83.02399	-7.273631	2.125171E-005	-0.00072	9
	17	50	5928.309	84.14004	-11.73212	1	84.95404	-7.937896	-1.474919E-005	0.0005287	9
	18	52	4733.456	85.88427	-13.01103	1	86.86423	-8.614515	-1.447781E-005	2.089674E-005	9
	19	55	3796.875	87.85874	-14.50577	1	89.04816	-9.375149	-5.252621E-006	-0.0003386	9
	20	57	2987.132	90.10771	-16.0788	1	91.53102	-10.11736	-9.989267E-006	-0.0001383	9
	21	59	2390.625	92.41175	-17.73065	1	94.09733	-10.86111	-1.762724E-005	0.0005281	9
	22	63	1884.191	95.3325	-19.67833	1	97.3423	-11.66307	-4.225594E-006	-0.0003677	9
	23	65	1516.544	97.8699	-21.75006	1	100.2576	-12.52947	-1.589652E-005	0.0005572	9
	24	67	1193.986	101.0009	-24.21612	1	103.8634	-13.4828	-1.591025E-005	0.0001157	9
	25	70	946.5144	104.2809	-27.06633	1	107.7362	-14.55018	9.832871E-006	-0.0007374	9
	26	72	751.7689	107.5859	-30.25431	1	111.7589	-15.70655	3.240493E-006	0.0001632	9
	27	74	597.4265	111.3112	-33.82761	1	116.3379	-16.90409	1.882292E-005	-0.0008018	9
	28	77	477.4305	115.1853	-38.01099	1	121.295	-18.26282	8.506589E-007	-0.0001576	9
	29	79	376.6741	119.506	-43.17659	1	127.0666	-19.86439	4.624064E-007	-0.0001239	9
	30	81	298.2954	124.1457	-49.22634	1	133.5492	-21.62935	4.537254E-007	-0.0001205	9
	31	84	237.7717	129.134	-56.22396	1	140.8429	-23.52794	5.297081E-007	-0.0001275	9
	32	86	189.0121	134.6751	-64.64152	1	149.3851	-25.64013	5.065205E-007	-0.0001281	9
	33	89	150.2404	140.8046	-74.67435	1	159.3806	-27.93881	4.794393E-007	-0.0001287	9
	34	91	119.1737	147.6537	-86.76233	1	171.2581	-30.43878	4.733216E-007	-0.0001241	9
	35	93	95.0169	155.1552	-100.8836	1	185.0692	-33.03236	5.578857E-007	-0.0001367	9
	36	96	75.60484	163.6257	-117.9272	1	201.6933	-35.78078	4.337559E-007	-0.0001269	9
	37	98	54.50582	177.3499	-148.3161	1	231.194	-39.90545	5.308365E-007	-0.0001299	9
	38	101	45.95588	185.7935	-167.75	1	250.3184	-42.07837	5.782733E-007	-0.0001236	9
	39	103	37.20238	197.2388	-195.8275	1	277.9417	-44.79428	5.157272E-007	-0.000125	9
	40	106	30.04808	210.3753	-229.6363	1	311.4332	-47.50646	6.295035E-007	-0.0001219	9
	41	108	23.91582	226.382	-272.9944	1	354.6473	-50.3326	3.307753E-007	-0.000131	9
	42	110	18.60119	245.8651	-329.9121	1	411.4507	-53.30489	2.074788E-007	-0.0001166	8
	43	113	15.02404	266.5171	-389.8822	1	472.2705	-55.64413	3.517648E-007	-0.0001037	8
	44	115	12.01923	291.804	-464.8066	1	548.8121	-57.87954	1.139868E-007	-0.0001174	8
	45	117	9.450605	324.4095	-563.0853	1	649.8512	-60.05253	1.18602E-007	-0.0001063	8
	46	120	7.512019	362.1271	-677.0187	1	767.7827	-61.85835	2.071363E-007	-0.0001031	8
	47	123	5.978954	407.8983	-813.1341	1	909.7077	-63.35995	1.872761E-007	-0.0001143	8
	48	126	4.734848	464.6226	-981.764	1	1086.156	-64.67401	3.249287E-007	-9.007576E-005	8
	49	129	3.75601	534.8498	-1181.136	1	1296.59	-65.63772	1.752668E-007	-0.0001299	8
	50	132	3.004808	617.1428	-1410.493	1	1539.596	-66.36885	2.172353E-007	-8.453152E-005	8
	51	136	2.372217	721.5992	-1700.669	1	1847.425	-67.00833	2.55042E-007	-4.33229E-005	8
	52	140	1.878005	843.7941	-2038.963	1	2206.662	-67.51852	2.427979E-007	-0.0001353	8
	53	145	1.512097	974.712	-2411.079	1	2600.647	-67.98829	2.602998E-007	-1.635389E-005	8
	54	151	1.201923	1125.31	-2887.224	1	3098.772	-68.70641	2.553366E-007	-0.0001373	8
	55	157	0.956633	1289.835	-3458.823	1	3691.495	-69.54894	2.213497E-007	-0.0006599	8
