EXPLAIN
TAG	EISPOT
TITLE	LABEL	Potentiostatic EIS	Test Identifier
DATE	LABEL	11/21/2021	Date
TIME	LABEL	14:57:21	Time
NOTES	NOTES	1	Notes...
	
PSTAT	PSTAT	REF3000-16137	Potentiostat
VDC	POTEN	0.00000E+000	T	DC Voltage (V)
FREQINIT	QUANT	3.00000E+005	Initial Freq. (Hz)
FREQFINAL	QUANT	1.00000E+000	Final Freq. (Hz)
PTSPERDEC	QUANT	1.00000E+001	Points/decade
VAC	QUANT	5.00000E+001	AC Voltage (mV rms)
AREA	QUANT	1.00000E+000	Sample Area (cm^2)
SPEED	SELECTOR	2	Optimize for:
ZGUESS	QUANT	1.00000E+003	Estimated Z (ohms)
EOC	QUANT	0	Open Circuit (V)
SEQUENCER	TOGGLE	TRUE	Run as Sequence
PSTATMODEL	IQUANT	5	Pstat Model
PSTATSECTION	LABEL	REF3000-16137	Pstat Section
PSTATSERIALNO	LABEL	16137	Pstat Serial Number
CTRLMODE	IQUANT	1	Control Mode
IESTAB	IQUANT	0	I/E Stability
CASPEED	IQUANT	1	Control Amp Speed
CONVENTION	IQUANT	1	Current Convention
ICHRANGE	IQUANT	2	Ich Range
ICHRANGEMODE	TOGGLE	F	Ich Auto Range
ICHOFFSETENABLE	TOGGLE	T	Ich Offset Enable
ICHOFFSET	QUANT	0	Ich Offset (V)
ICHFILTER	IQUANT	3	Ich Filter
VCHRANGE	IQUANT	2	Vch Range
VCHRANGEMODE	TOGGLE	F	Vch Auto Range
VCHOFFSETENABLE	TOGGLE	T	Vch Offset Enable
VCHOFFSET	QUANT	0	Vch Offset (V)
VCHFILTER	IQUANT	3	Vch Filter
ACHRANGE	IQUANT	2	Ach Range
ACHOFFSETENABLE	TOGGLE	F	Ach Offset Enable
ACHOFFSET	QUANT	0	Ach Offset (V)
ACHFILTER	IQUANT	3	Ach Filter
IERANGELOWERLIMIT	IQUANT	2	I/E Range Lower Limit
IERANGEMODE	TOGGLE	F	I/E AutoRange
IERANGE	IQUANT	11	I/E Range
POSFEEDENABLE	TOGGLE	F	Positive Feedback IR Comp
POSFEEDRESISTANCE	QUANT	0	Positive Feedback Resistance (ohm)
ACHSELECT	IQUANT	0	Ach Select
CABLEID	IQUANT	13	Cable ID
DCCALDATE	LABEL	9/10/2021	DC Calibration Date
ACCALDATE	LABEL	9/10/2021	AC Calibration Date
THERMOSELECT	IQUANT	1	Thermo Select
FRAMEWORKVERSION	QUANT	6.33	Framework Version
INSTRUMENTVERSION	LABEL	3.50	Instrument Version
COMPLIANCEVOLTAGE	IQUANT	0	Compliance Voltage
ZCURVE	TABLE
	Pt	Time	Freq	Zreal	Zimag	Zsig	Zmod	Zphz	Idc	Vdc	IERange
	#	s	Hz	ohm	ohm	V	ohm	°	A	V	#
	0	8	300046.9	7.451904	1.708358	1	7.645218	12.91201	1.923164E-005	-0.000827	10
	1	11	238359.4	7.512689	1.139102	1	7.598556	8.621733	-8.786313E-005	-0.0008276	10
	2	15	189328.1	7.615507	0.6556987	1	7.643683	4.921057	7.078514E-005	-0.0007484	10
	3	17	150421.9	7.728922	0.2383267	1	7.732596	1.766195	2.113327E-005	-0.0004342	10
	4	20	119484.4	7.884325	-0.1464449	1	7.885685	-1.0641	6.125739E-005	-0.0005124	10
	5	22	94921.88	8.062982	-0.4693093	1	8.076629	-3.331167	2.09553E-006	-0.0001747	10
	6	25	75421.88	8.259987	-0.7798983	1	8.296723	-5.39381	-7.0811E-006	-0.0001413	10
	7	27	59859.37	8.489655	-1.06727	1	8.556478	-7.165302	-1.948755E-005	-0.0001188	10
	8	30	47578.12	8.747466	-1.327628	1	8.847641	-8.630082	5.537805E-006	-0.000168	10
	9	32	37828.12	9.031285	-1.568119	1	9.166412	-9.85017	-1.713185E-005	-0.0001844	10
	10	35	30046.88	9.33362	-1.783851	1	9.50256	-10.81995	-2.068312E-005	-0.0000951	10
	11	37	23859.38	9.65425	-1.995138	1	9.85825	-11.67632	-1.742831E-005	-0.0001761	10
	12	39	18984.38	9.97817	-2.192466	1	10.21621	-12.39245	1.980381E-005	-0.0001129	10
	13	42	15046.87	10.31619	-2.396559	1	10.5909	-13.07844	-7.611935E-006	-7.818744E-005	10
	14	44	11953.13	10.65836	-2.608697	1	10.97296	-13.75311	-1.410672E-005	-0.0000987	10
	15	46	9515.62	11.00777	-2.848495	1	11.37036	-14.50825	-2.315677E-005	-7.578113E-005	10
	16	49	7546.875	11.37048	-3.124298	1	11.79191	-15.36415	-9.336813E-006	-0.0001105	10
	17	51	5928.309	11.76605	-3.470232	1	12.26713	-16.43269	1.698061E-005	-0.0001339	10
	18	53	4733.456	12.15264	-3.851802	1	12.74846	-17.5861	-1.935553E-005	-0.0001043	10
	19	56	3796.875	12.55557	-4.300186	1	13.27154	-18.90594	-2.94383E-005	-0.0001255	10
	20	58	2987.132	13.01486	-4.870612	1	13.89638	-20.51759	2.137241E-005	-0.0001487	10
	21	60	2390.625	13.47813	-5.506636	1	14.55963	-22.223	4.827653E-006	-0.0001503	10
	22	62	1884.191	14.02738	-6.346779	1	15.39639	-24.34469	-1.578238E-005	-0.0001154	10
	23	65	1516.544	14.5761	-7.256094	1	16.2823	-26.46448	-3.148249E-006	-0.000117	10
	24	67	1193.986	15.23719	-8.441484	1	17.41926	-28.98669	-1.125343E-005	-0.0001243	10
	25	70	946.5144	15.955	-9.83371	1	18.74203	-31.64719	-2.304198E-005	-7.159392E-005	10
	26	72	751.7689	16.75673	-11.5182	1	20.33364	-34.50377	-2.603612E-005	-0.0001011	10
	27	74	597.4265	17.66553	-13.51867	1	22.24467	-37.42527	-2.394744E-005	-9.349972E-005	10
	28	76	477.4305	18.67628	-15.86306	1	24.50388	-40.34354	-1.230012E-006	-0.0001117	10
	29	79	376.6741	19.88359	-18.85266	1	27.40037	-43.47548	-1.38083E-006	-0.0001139	10
	30	81	298.2954	21.24567	-22.42355	1	30.89003	-46.54504	-1.464934E-006	-0.0001114	10
	31	83	237.7717	22.77827	-26.62501	1	35.03913	-49.45229	-1.594963E-006	-0.0001084	10
	32	86	189.0121	24.55944	-31.72927	1	40.12372	-52.25902	3.464075E-007	-0.0001349	9
	33	88	150.2404	26.68846	-37.94674	1	46.39212	-54.88076	2.885361E-007	-0.0001276	9
	34	91	119.1737	29.23409	-45.54905	1	54.12344	-57.30702	6.650297E-007	-0.000159	9
	35	93	95.0169	32.20488	-54.53395	1	63.33329	-59.43614	2.518999E-007	-0.0001213	9
	36	96	75.60484	35.81451	-65.47524	1	74.63033	-61.32164	3.251133E-007	-0.0001313	9
	37	98	54.50582	42.35595	-85.11279	1	95.0695	-63.543	1.381059E-007	-0.0001307	9
	38	101	45.95588	46.62435	-97.622	1	108.1845	-64.47083	2.713431E-007	-0.0001259	9
	39	103	37.20238	52.856	-115.5675	1	127.0811	-65.42252	2.843722E-007	-0.0001262	9
	40	105	30.04808	60.38787	-136.8737	1	149.6032	-66.19321	2.374036E-007	-0.0001241	9
	41	108	23.91582	69.93111	-163.6935	1	178.0054	-66.86745	1.324513E-007	-0.0001323	9
	42	110	18.60119	82.28362	-198.9302	1	215.2762	-67.52852	4.828906E-007	-0.0001308	9
	43	112	15.02404	94.23805	-234.6317	1	252.8495	-68.11752	2.853816E-007	-0.0001288	9
	44	115	12.01923	107.9714	-279.1513	1	299.3046	-68.85431	9.673512E-008	-0.0001319	9
	45	117	9.450605	123.9768	-337.472	1	359.5241	-69.82822	2.230846E-007	-0.0001254	9
	46	120	7.512019	140.3167	-404.4144	1	428.0651	-70.86514	2.945361E-007	-0.0001374	8
	47	122	5.978954	159.2211	-488.5983	1	513.8868	-71.95059	4.23618E-007	-0.0001445	8
	48	125	4.734848	181.7378	-596.0821	1	623.1713	-73.04421	3.170524E-007	-0.00013	8
	49	128	3.75601	209.3425	-728.1104	1	757.6075	-73.95927	4.440685E-007	-0.0001074	8
	50	132	3.004808	242.8416	-885.386	1	918.0852	-74.66223	3.522519E-007	-7.740423E-005	8
	51	136	2.372217	288.2137	-1091.397	1	1128.811	-75.20716	3.914043E-007	-3.883626E-005	8
	52	140	1.878005	348.5962	-1342.209	1	1386.738	-75.4409	3.852562E-007	-0.000139	8
	53	145	1.512097	423.0844	-1623.904	1	1678.114	-75.39706	4.002939E-007	-3.564344E-005	8
	54	150	1.201923	524.3461	-1992.16	1	2060.01	-75.25392	4.165294E-007	-0.0001737	8
	55	156	0.956633	660.8305	-2434.972	1	2523.051	-74.81615	3.321572E-007	-0.0006677	8
