EXPLAIN
TAG	EISPOT
TITLE	LABEL	Potentiostatic EIS	Test Identifier
DATE	LABEL	11/21/2021	Date
TIME	LABEL	14:31:52	Time
NOTES	NOTES	1	Notes...
	
PSTAT	PSTAT	REF3000-16137	Potentiostat
VDC	POTEN	0.00000E+000	T	DC Voltage (V)
FREQINIT	QUANT	3.00000E+005	Initial Freq. (Hz)
FREQFINAL	QUANT	1.00000E+000	Final Freq. (Hz)
PTSPERDEC	QUANT	1.00000E+001	Points/decade
VAC	QUANT	5.00000E+001	AC Voltage (mV rms)
AREA	QUANT	1.00000E+000	Sample Area (cm^2)
SPEED	SELECTOR	2	Optimize for:
ZGUESS	QUANT	1.00000E+003	Estimated Z (ohms)
EOC	QUANT	0	Open Circuit (V)
SEQUENCER	TOGGLE	TRUE	Run as Sequence
PSTATMODEL	IQUANT	5	Pstat Model
PSTATSECTION	LABEL	REF3000-16137	Pstat Section
PSTATSERIALNO	LABEL	16137	Pstat Serial Number
CTRLMODE	IQUANT	1	Control Mode
IESTAB	IQUANT	0	I/E Stability
CASPEED	IQUANT	1	Control Amp Speed
CONVENTION	IQUANT	1	Current Convention
ICHRANGE	IQUANT	2	Ich Range
ICHRANGEMODE	TOGGLE	F	Ich Auto Range
ICHOFFSETENABLE	TOGGLE	T	Ich Offset Enable
ICHOFFSET	QUANT	0	Ich Offset (V)
ICHFILTER	IQUANT	3	Ich Filter
VCHRANGE	IQUANT	2	Vch Range
VCHRANGEMODE	TOGGLE	F	Vch Auto Range
VCHOFFSETENABLE	TOGGLE	T	Vch Offset Enable
VCHOFFSET	QUANT	0	Vch Offset (V)
VCHFILTER	IQUANT	3	Vch Filter
ACHRANGE	IQUANT	2	Ach Range
ACHOFFSETENABLE	TOGGLE	F	Ach Offset Enable
ACHOFFSET	QUANT	0	Ach Offset (V)
ACHFILTER	IQUANT	3	Ach Filter
IERANGELOWERLIMIT	IQUANT	2	I/E Range Lower Limit
IERANGEMODE	TOGGLE	F	I/E AutoRange
IERANGE	IQUANT	11	I/E Range
POSFEEDENABLE	TOGGLE	F	Positive Feedback IR Comp
POSFEEDRESISTANCE	QUANT	0	Positive Feedback Resistance (ohm)
ACHSELECT	IQUANT	0	Ach Select
CABLEID	IQUANT	13	Cable ID
DCCALDATE	LABEL	9/10/2021	DC Calibration Date
ACCALDATE	LABEL	9/10/2021	AC Calibration Date
THERMOSELECT	IQUANT	1	Thermo Select
FRAMEWORKVERSION	QUANT	6.33	Framework Version
INSTRUMENTVERSION	LABEL	3.50	Instrument Version
COMPLIANCEVOLTAGE	IQUANT	0	Compliance Voltage
ZCURVE	TABLE
	Pt	Time	Freq	Zreal	Zimag	Zsig	Zmod	Zphz	Idc	Vdc	IERange
	#	s	Hz	ohm	ohm	V	ohm	°	A	V	#
	0	10	300046.9	2.031551	2.200341	1	2.994779	47.28405	4.174052E-005	-0.0007591	11
	1	14	238359.4	1.999171	1.710882	1	2.631312	40.55677	2.268242E-005	-0.0002767	11
	2	18	189328.1	2.07231	1.170169	1	2.379867	29.45206	2.621423E-005	-0.0008924	12
	3	21	150421.9	2.052712	0.8789972	1	2.232994	23.18122	-2.098128E-005	-0.0007421	12
	4	25	119484.4	2.023526	0.7182292	1	2.14721	19.54178	-2.313228E-005	0.000124	11
	5	28	94921.88	2.047805	0.4993497	1	2.107808	13.70392	-1.235039E-005	0.0001695	11
	6	30	75421.88	2.0771	0.319473	1	2.101525	8.743981	-1.460834E-005	0.0002305	11
	7	33	59859.37	2.10986	0.1687254	1	2.116596	4.572212	-4.376192E-005	0.0002675	11
	8	35	47578.12	2.144244	0.040399	1	2.144624	1.079363	-4.524233E-005	0.0003037	11
	9	38	37828.12	2.179819	-0.0729592	1	2.18104	-1.916992	-4.319565E-005	0.0002717	11
	10	40	30046.88	2.217617	-0.1776706	1	2.224723	-4.580628	-1.499486E-005	0.0003695	11
	11	43	23859.38	2.256637	-0.2786353	1	2.273774	-7.038893	-1.729535E-005	0.0003863	11
	12	45	18984.38	2.296422	-0.3795378	1	2.327574	-9.384644	-4.608986E-005	0.0003418	11
	13	47	15046.87	2.339603	-0.4885026	1	2.390058	-11.79376	-4.837096E-005	0.0003407	11
	14	50	11953.13	2.38622	-0.608255	1	2.462523	-14.30034	-1.316572E-005	0.0003907	11
	15	52	9515.62	2.432829	-0.7420259	1	2.543474	-16.96199	-2.221822E-005	0.0003664	11
	16	54	7546.875	2.484426	-0.9025809	1	2.643298	-19.96586	-9.055951E-005	0.0003514	11
	17	56	5928.309	2.541693	-1.102016	1	2.770315	-23.44038	-4.394219E-005	0.0003767	11
	18	59	4733.456	2.599286	-1.328143	1	2.918947	-27.06541	-6.942145E-005	0.0003371	11
	19	61	3796.875	2.660286	-1.595552	1	3.102081	-30.95394	-8.077183E-006	0.0003984	11
	20	63	2987.132	2.735008	-1.957649	1	3.36343	-35.59411	-6.91428E-005	0.000335	11
	21	66	2390.625	2.81437	-2.373077	1	3.681327	-40.1376	-2.42269E-005	0.0003858	11
	22	68	1884.191	2.918653	-2.923138	1	4.130771	-45.04399	-1.228763E-005	-0.0001162	10
	23	70	1516.544	3.032711	-3.540066	1	4.661481	-49.41393	2.802578E-006	-0.0001443	10
	24	73	1193.986	3.189055	-4.380427	1	5.418322	-53.9445	2.508948E-006	-0.0001442	10
	25	75	946.5144	3.384635	-5.394132	1	6.368078	-57.89312	-6.186251E-006	-0.0000983	10
	26	77	751.7689	3.643972	-6.626368	1	7.562228	-61.19273	1.606819E-005	-0.0001359	10
	27	80	597.4265	3.97359	-8.132339	1	9.051208	-63.95913	-2.764654E-006	-0.0001196	10
	28	82	477.4305	4.408106	-9.92314	1	10.85818	-66.04802	-1.492993E-006	-0.0001091	10
	29	84	376.6741	5.004244	-12.20862	1	13.19443	-67.71156	-1.435705E-006	-0.0001094	10
	30	87	298.2954	5.772161	-14.93205	1	16.00887	-68.8654	-1.360201E-006	-0.0001076	10
	31	89	237.7717	6.734457	-18.10015	1	19.31238	-69.59145	-1.900154E-006	-0.0001081	10
	32	91	189.0121	7.970342	-21.91442	1	23.31884	-70.01352	-2.354926E-006	-0.0001051	10
	33	94	150.2404	9.50997	-26.42163	1	28.08099	-70.20461	-2.026175E-006	-0.0001147	10
	34	96	119.1737	11.39986	-31.79001	1	33.7722	-70.27222	-2.438252E-006	-0.0001115	10
	35	98	95.0169	13.56655	-37.95391	1	40.30571	-70.33067	-2.438014E-006	-0.0001152	10
	36	101	75.60484	16.02469	-45.24341	1	47.99747	-70.49645	-1.604882E-006	-0.0001341	9
	37	104	54.50582	19.98632	-58.32349	1	61.65292	-71.08442	-1.647375E-006	-0.0001322	9
	38	106	45.95588	22.24853	-66.74744	1	70.35778	-71.56553	-1.469426E-006	-0.0001277	9
	39	108	37.20238	25.23727	-79.12662	1	83.05385	-72.31003	-1.495056E-006	-0.0001244	9
	40	111	30.04808	28.56757	-94.37518	1	98.6042	-73.15882	-1.63008E-006	-0.0001284	9
	41	113	23.91582	32.76644	-114.5721	1	119.1655	-74.04002	-1.761301E-006	-0.0001353	9
	42	116	18.60119	38.31637	-142.3676	1	147.4337	-74.93653	-1.473201E-006	-0.0001263	9
	43	118	15.02404	44.29816	-171.7229	1	177.3445	-75.53516	-1.307979E-006	-0.0001155	9
	44	120	12.01923	52.43978	-209.308	1	215.7771	-75.9347	-1.195618E-006	-0.000159	9
	45	124	9.450605	64.16649	-259.2994	1	267.1208	-76.10075	-1.642426E-006	-0.0001188	9
	46	126	7.512019	79.18879	-317.9351	1	327.6485	-76.0138	-1.536348E-006	-0.0001342	9
	47	129	5.978954	99.3083	-388.949	1	401.4268	-75.67697	-1.410042E-006	-0.0001228	9
	48	132	4.734848	126.9881	-475.234	1	491.9078	-75.03943	-1.349092E-006	-0.0001327	8
	49	135	3.75601	165.3172	-579.9023	1	603.0062	-74.08833	-1.127965E-006	-0.0001035	8
	50	138	3.004808	215.5018	-699.6365	1	732.0739	-72.88013	-1.327363E-006	-7.460714E-005	8
	51	142	2.372217	287.5041	-849.1777	1	896.5274	-71.29556	-1.25347E-006	-4.293358E-005	8
	52	146	1.878005	384.5073	-1019.579	1	1089.673	-69.33736	-1.282271E-006	-0.0001657	8
	53	151	1.512097	502.3922	-1196.591	1	1297.778	-67.22475	-1.263079E-006	-5.616103E-005	8
	54	156	1.201923	665.051	-1408.514	1	1557.628	-64.72496	-1.279943E-006	-0.000137	8
	55	163	0.956633	871.4338	-1632.916	1	1850.895	-61.91262	-1.414075E-006	-0.000655	8
