EXPLAIN
TAG	EISPOT
TITLE	LABEL	Potentiostatic EIS	Test Identifier
DATE	LABEL	11/21/2021	Date
TIME	LABEL	14:06:19	Time
NOTES	NOTES	1	Notes...
	
PSTAT	PSTAT	REF3000-16137	Potentiostat
VDC	POTEN	0.00000E+000	T	DC Voltage (V)
FREQINIT	QUANT	3.00000E+005	Initial Freq. (Hz)
FREQFINAL	QUANT	1.00000E+000	Final Freq. (Hz)
PTSPERDEC	QUANT	1.00000E+001	Points/decade
VAC	QUANT	5.00000E+001	AC Voltage (mV rms)
AREA	QUANT	1.00000E+000	Sample Area (cm^2)
SPEED	SELECTOR	2	Optimize for:
ZGUESS	QUANT	1.00000E+003	Estimated Z (ohms)
EOC	QUANT	0	Open Circuit (V)
SEQUENCER	TOGGLE	TRUE	Run as Sequence
PSTATMODEL	IQUANT	5	Pstat Model
PSTATSECTION	LABEL	REF3000-16137	Pstat Section
PSTATSERIALNO	LABEL	16137	Pstat Serial Number
CTRLMODE	IQUANT	1	Control Mode
IESTAB	IQUANT	0	I/E Stability
CASPEED	IQUANT	1	Control Amp Speed
CONVENTION	IQUANT	1	Current Convention
ICHRANGE	IQUANT	2	Ich Range
ICHRANGEMODE	TOGGLE	F	Ich Auto Range
ICHOFFSETENABLE	TOGGLE	T	Ich Offset Enable
ICHOFFSET	QUANT	0	Ich Offset (V)
ICHFILTER	IQUANT	3	Ich Filter
VCHRANGE	IQUANT	2	Vch Range
VCHRANGEMODE	TOGGLE	F	Vch Auto Range
VCHOFFSETENABLE	TOGGLE	T	Vch Offset Enable
VCHOFFSET	QUANT	0	Vch Offset (V)
VCHFILTER	IQUANT	3	Vch Filter
ACHRANGE	IQUANT	2	Ach Range
ACHOFFSETENABLE	TOGGLE	F	Ach Offset Enable
ACHOFFSET	QUANT	0	Ach Offset (V)
ACHFILTER	IQUANT	3	Ach Filter
IERANGELOWERLIMIT	IQUANT	2	I/E Range Lower Limit
IERANGEMODE	TOGGLE	F	I/E AutoRange
IERANGE	IQUANT	11	I/E Range
POSFEEDENABLE	TOGGLE	F	Positive Feedback IR Comp
POSFEEDRESISTANCE	QUANT	0	Positive Feedback Resistance (ohm)
ACHSELECT	IQUANT	0	Ach Select
CABLEID	IQUANT	13	Cable ID
DCCALDATE	LABEL	9/10/2021	DC Calibration Date
ACCALDATE	LABEL	9/10/2021	AC Calibration Date
THERMOSELECT	IQUANT	1	Thermo Select
FRAMEWORKVERSION	QUANT	6.33	Framework Version
INSTRUMENTVERSION	LABEL	3.50	Instrument Version
COMPLIANCEVOLTAGE	IQUANT	0	Compliance Voltage
ZCURVE	TABLE
	Pt	Time	Freq	Zreal	Zimag	Zsig	Zmod	Zphz	Idc	Vdc	IERange
	#	s	Hz	ohm	ohm	V	ohm	°	A	V	#
	0	10	300046.9	1.67836	2.257109	1	2.812727	53.36594	-1.817117E-005	-0.0006387	11
	1	13	238359.4	1.791789	1.623534	1	2.417927	42.17963	-0.0001379	-0.0010645	12
	2	18	189328.1	1.720092	1.268577	1	2.137289	36.40897	-0.0002392	-0.0008395	12
	3	21	150421.9	1.639652	1.064074	1	1.954664	32.98209	-6.793881E-005	-8.151311E-005	11
	4	24	119484.4	1.639698	0.802506	1	1.825548	26.07819	-0.0001054	-4.600824E-005	11
	5	26	94921.88	1.649062	0.5879455	1	1.750738	19.62284	-4.503933E-005	9.004241E-005	11
	6	29	75421.88	1.661396	0.4134558	1	1.71207	13.97478	-0.0000964	0.0001229	11
	7	31	59859.37	1.678383	0.2663012	1	1.699378	9.0157	-0.0000982	0.0001936	11
	8	34	47578.12	1.698267	0.1419306	1	1.704188	4.777323	-6.082684E-005	0.0002751	11
	9	36	37828.12	1.718075	0.0322665	1	1.718378	1.075923	-8.083311E-005	0.0002768	11
	10	39	30046.88	1.741695	-0.0677994	1	1.743014	-2.229241	-5.023801E-005	0.0003374	11
	11	41	23859.38	1.766048	-0.1633348	1	1.773585	-5.284029	-6.116679E-005	0.000353	11
	12	44	18984.38	1.79296	-0.2572908	1	1.811327	-8.166225	-8.178236E-005	0.0003664	11
	13	46	15046.87	1.821751	-0.3572577	1	1.856451	-11.09529	-6.652576E-005	0.0003835	11
	14	48	11953.13	1.851981	-0.4648761	1	1.909435	-14.091	-8.032938E-005	0.0003723	11
	15	51	9515.62	1.884026	-0.5845045	1	1.972612	-17.2361	-6.265887E-005	0.000353	11
	16	53	7546.875	1.921087	-0.7263599	1	2.053819	-20.71153	-8.397752E-005	0.0003848	11
	17	55	5928.309	1.961464	-0.9021439	1	2.158982	-24.69931	-3.874664E-005	0.0004018	11
	18	58	4733.456	2.003709	-1.100662	1	2.286111	-28.78054	-3.375499E-005	0.0004088	11
	19	60	3796.875	2.050633	-1.335802	1	2.447338	-33.08062	-3.343471E-005	0.0004006	11
	20	62	2987.132	2.110056	-1.652043	1	2.679848	-38.05874	-6.832779E-005	0.0003674	11
	21	64	2390.625	2.177744	-2.012074	1	2.964963	-42.73564	-6.729196E-005	0.0003909	11
	22	67	1884.191	2.264681	-2.489817	1	3.365704	-47.71106	-8.824513E-005	0.0003642	11
	23	69	1516.544	2.366829	-3.022824	1	3.839185	-51.93956	-2.603448E-005	0.0004001	11
	24	71	1193.986	2.515245	-3.749056	1	4.514629	-56.14231	-1.812379E-005	-0.0001115	10
	25	74	946.5144	2.702171	-4.615677	1	5.348476	-59.65388	-6.962062E-006	-0.0001153	10
	26	76	751.7689	2.947681	-5.660697	1	6.382188	-62.49276	-2.096612E-005	-0.0001535	10
	27	78	597.4265	3.269003	-6.926798	1	7.659433	-64.7357	-9.693762E-006	-0.0001375	10
	28	81	477.4305	3.680912	-8.421762	1	9.191038	-66.39123	-4.233354E-006	-0.0001522	10
	29	83	376.6741	4.242827	-10.31039	1	11.14924	-67.63235	-8.308406E-006	-0.0001106	10
	30	85	298.2954	4.954988	-12.53799	1	13.48158	-68.43616	-7.877029E-006	-0.0001119	10
	31	88	237.7717	5.824936	-15.10231	1	16.18671	-68.90845	-7.842182E-006	-0.0001151	10
	32	90	189.0121	6.905024	-18.16003	1	19.42849	-69.18159	-7.399435E-006	-0.0001092	10
	33	93	150.2404	8.192219	-21.75488	1	23.24623	-69.36517	-7.766591E-006	-0.0001109	10
	34	95	119.1737	9.69277	-26.03684	1	27.78249	-69.58115	-8.284135E-006	-0.0001083	10
	35	97	95.0169	11.33346	-31.02113	1	33.02663	-69.9304	-7.701561E-006	-0.0001509	10
	36	100	75.60484	13.15139	-37.07547	1	39.33891	-70.46941	-7.967013E-006	-0.0001146	10
	37	102	54.50582	16.0652	-48.09197	1	50.70432	-71.52802	-7.098204E-006	-0.0001289	9
	38	105	45.95588	17.82368	-55.34665	1	58.14581	-72.14951	-6.855939E-006	-0.0001278	9
	39	107	37.20238	20.29638	-66.04796	1	69.09614	-72.91793	-7.025659E-006	-0.0001275	9
	40	110	30.04808	23.3721	-79.30647	1	82.67872	-73.57944	-7.224281E-006	-0.000131	9
	41	112	23.91582	27.47678	-96.6537	1	100.4834	-74.13058	-7.069767E-006	-0.0001294	9
	42	114	18.60119	33.40414	-120.3476	1	124.8975	-74.48727	-6.638014E-006	-0.0001277	9
	43	117	15.02404	40.22284	-145.1618	1	150.6314	-74.5125	-6.945412E-006	-0.0001314	9
	44	119	12.01923	49.71387	-176.4803	1	183.3487	-74.26766	-7.224034E-006	-0.0001228	9
	45	121	9.450605	63.74102	-217.2971	1	226.4529	-73.6517	-6.636454E-006	-0.0001304	9
	46	124	7.512019	82.27275	-264.1914	1	276.7055	-72.70271	-6.492389E-006	-0.0001096	9
	47	127	5.978954	107.5993	-319.5168	1	337.1477	-71.38871	-6.846025E-006	-0.0001265	9
	48	130	4.734848	142.9238	-385.8481	1	411.4681	-69.67463	-6.5565E-006	-0.0001148	9
	49	133	3.75601	189.8633	-458.7408	1	496.4789	-67.51635	-6.619337E-006	-0.0001104	8
	50	136	3.004808	250.6117	-537.6215	1	593.1636	-65.00747	-6.329011E-006	-0.0001424	8
	51	140	2.372217	334.7893	-628.0971	1	711.7512	-61.94143	-6.502525E-006	-0.0001757	8
	52	144	1.878005	440.2205	-717.4661	1	841.7552	-58.46769	-6.30299E-006	-0.000096	8
	53	149	1.512097	557.8932	-796.0692	1	972.096	-54.97684	-6.292377E-006	-0.0001471	8
	54	154	1.201923	706.7771	-873.1627	1	1123.364	-51.01174	-6.244305E-006	-7.679201E-005	8
	55	162	0.956633	872.454	-932.1382	1	1276.737	-46.89428	-6.580463E-006	-0.0006541	8
