EXPLAIN
TAG	EISPOT
TITLE	LABEL	Potentiostatic EIS	Test Identifier
DATE	LABEL	11/21/2021	Date
TIME	LABEL	15:16:48	Time
NOTES	NOTES	1	Notes...
	
PSTAT	PSTAT	REF3000-16137	Potentiostat
VDC	POTEN	0.00000E+000	T	DC Voltage (V)
FREQINIT	QUANT	3.00000E+005	Initial Freq. (Hz)
FREQFINAL	QUANT	1.00000E+000	Final Freq. (Hz)
PTSPERDEC	QUANT	1.00000E+001	Points/decade
VAC	QUANT	5.00000E+001	AC Voltage (mV rms)
AREA	QUANT	1.00000E+000	Sample Area (cm^2)
SPEED	SELECTOR	2	Optimize for:
ZGUESS	QUANT	1.00000E+003	Estimated Z (ohms)
EOC	QUANT	0	Open Circuit (V)
SEQUENCER	TOGGLE	TRUE	Run as Sequence
PSTATMODEL	IQUANT	5	Pstat Model
PSTATSECTION	LABEL	REF3000-16137	Pstat Section
PSTATSERIALNO	LABEL	16137	Pstat Serial Number
CTRLMODE	IQUANT	1	Control Mode
IESTAB	IQUANT	0	I/E Stability
CASPEED	IQUANT	1	Control Amp Speed
CONVENTION	IQUANT	1	Current Convention
ICHRANGE	IQUANT	2	Ich Range
ICHRANGEMODE	TOGGLE	F	Ich Auto Range
ICHOFFSETENABLE	TOGGLE	T	Ich Offset Enable
ICHOFFSET	QUANT	0	Ich Offset (V)
ICHFILTER	IQUANT	3	Ich Filter
VCHRANGE	IQUANT	2	Vch Range
VCHRANGEMODE	TOGGLE	F	Vch Auto Range
VCHOFFSETENABLE	TOGGLE	T	Vch Offset Enable
VCHOFFSET	QUANT	0	Vch Offset (V)
VCHFILTER	IQUANT	3	Vch Filter
ACHRANGE	IQUANT	2	Ach Range
ACHOFFSETENABLE	TOGGLE	F	Ach Offset Enable
ACHOFFSET	QUANT	0	Ach Offset (V)
ACHFILTER	IQUANT	3	Ach Filter
IERANGELOWERLIMIT	IQUANT	2	I/E Range Lower Limit
IERANGEMODE	TOGGLE	F	I/E AutoRange
IERANGE	IQUANT	11	I/E Range
POSFEEDENABLE	TOGGLE	F	Positive Feedback IR Comp
POSFEEDRESISTANCE	QUANT	0	Positive Feedback Resistance (ohm)
ACHSELECT	IQUANT	0	Ach Select
CABLEID	IQUANT	13	Cable ID
DCCALDATE	LABEL	9/10/2021	DC Calibration Date
ACCALDATE	LABEL	9/10/2021	AC Calibration Date
THERMOSELECT	IQUANT	1	Thermo Select
FRAMEWORKVERSION	QUANT	6.33	Framework Version
INSTRUMENTVERSION	LABEL	3.50	Instrument Version
COMPLIANCEVOLTAGE	IQUANT	0	Compliance Voltage
ZCURVE	TABLE
	Pt	Time	Freq	Zreal	Zimag	Zsig	Zmod	Zphz	Idc	Vdc	IERange
	#	s	Hz	ohm	ohm	V	ohm	°	A	V	#
	0	7	300046.9	52.21514	1.054972	1	52.2258	1.157466	9.889858E-006	-0.001227	9
	1	10	238359.4	52.62717	0.4055566	1	52.62874	0.4415252	-5.905416E-005	0.0010146	9
	2	13	189328.1	53.07005	-0.1443791	1	53.07024	-0.155875	-5.758772E-005	0.0012754	9
	3	16	150421.9	53.28995	-0.8301751	1	53.29641	-0.8925076	-2.585837E-005	-0.0002357	9
	4	19	119484.4	53.90463	-1.273136	1	53.91967	-1.352978	-6.173073E-005	0.0020096	9
	5	21	94921.88	54.45484	-1.651923	1	54.47989	-1.737572	1.859523E-005	-0.0007643	9
	6	24	75421.88	54.96535	-2.193193	1	55.00909	-2.284968	2.327763E-006	-0.0005648	9
	7	26	59859.37	55.49409	-2.737695	1	55.56158	-2.824288	1.312842E-005	-0.0007573	9
	8	29	47578.12	56.08463	-3.288452	1	56.18095	-3.355625	-8.714333E-006	0.0003986	9
	9	31	37828.12	56.78115	-3.868023	1	56.91275	-3.897059	8.863147E-006	-0.000684	9
	10	34	30046.88	57.53075	-4.437737	1	57.70166	-4.410878	-9.842291E-006	-0.0001055	9
	11	36	23859.38	58.35718	-5.085723	1	58.57837	-4.98064	-1.776957E-005	0.0002663	9
	12	38	18984.38	59.24287	-5.745439	1	59.52082	-5.539285	1.675887E-005	-0.0007388	9
	13	41	15046.87	60.24324	-6.475396	1	60.59025	-6.135026	1.072718E-005	-0.0001207	9
	14	43	11953.13	61.27291	-7.24136	1	61.69933	-6.74007	-1.512197E-005	0.0004554	9
	15	45	9515.62	62.44282	-8.092845	1	62.96507	-7.384604	-4.290275E-006	-0.0003105	9
	16	48	7546.875	63.76902	-9.024726	1	64.40446	-8.055125	-1.696175E-005	0.0004254	9
	17	50	5928.309	65.22072	-10.06337	1	65.99252	-8.771405	-9.47696E-006	0.0004369	9
	18	52	4733.456	66.71656	-11.11521	1	67.63614	-9.458797	-1.717837E-005	0.0003731	9
	19	55	3796.875	68.35081	-12.28472	1	69.44601	-10.18901	-1.768856E-005	0.0002564	9
	20	57	2987.132	70.14552	-13.64485	1	71.4603	-11.00783	1.955997E-005	-0.0005996	9
	21	59	2390.625	72.03031	-15.06229	1	73.5883	-11.81096	-1.665778E-005	0.0004298	9
	22	62	1884.191	74.12961	-16.64385	1	75.97511	-12.6544	1.726125E-005	-0.0007426	9
	23	64	1516.544	76.2223	-18.45441	1	78.42451	-13.61015	3.217552E-006	0.0001057	9
	24	66	1193.986	78.62912	-20.56333	1	81.27354	-14.65593	-1.703425E-005	0.000274	9
	25	69	946.5144	81.20322	-23.03998	1	84.40855	-15.84036	1.765255E-005	-0.0007437	9
	26	71	751.7689	83.97564	-25.86308	1	87.86812	-17.11795	3.047451E-006	0.0001054	9
	27	73	597.4265	86.87272	-29.16603	1	91.63802	-18.5586	1.382005E-005	-0.000744	9
	28	76	477.4305	90.00577	-32.9233	1	95.8383	-20.09206	5.816811E-007	-0.0001252	9
	29	78	376.6741	93.53396	-37.65176	1	100.8279	-21.92707	5.330718E-007	-0.0001218	9
	30	80	298.2954	97.3432	-43.21408	1	106.5042	-23.93814	6.021548E-007	-0.0001262	9
	31	83	237.7717	101.4321	-49.67248	1	112.9417	-26.09153	5.18324E-007	-0.0001248	9
	32	85	189.0121	106.0215	-57.46048	1	120.5913	-28.45638	5.589571E-007	-0.0001222	9
	33	88	150.2404	111.1511	-66.75611	1	129.657	-30.98855	5.393968E-007	-0.0001239	9
	34	90	119.1737	116.8816	-77.99595	1	140.5157	-33.71547	8.605942E-007	-0.0001658	9
	35	92	95.0169	123.2063	-91.14788	1	153.257	-36.494	5.421493E-007	-0.000127	9
	36	95	75.60484	130.4225	-107.0734	1	168.7446	-39.38507	5.458542E-007	-0.0001341	9
	37	97	54.50582	142.2336	-135.5769	1	196.4981	-43.62738	5.302502E-007	-0.0001356	9
	38	100	45.95588	149.5534	-153.8537	1	214.5628	-45.81202	6.544392E-007	-0.0001248	9
	39	102	37.20238	159.5878	-180.2783	1	240.7665	-48.48378	7.204689E-007	-0.0001309	9
	40	105	30.04808	171.2552	-212.2058	1	272.6896	-51.09564	4.818785E-007	-0.0001288	9
	41	107	23.91582	185.6654	-253.1166	1	313.9102	-53.7393	4.749514E-007	-0.0001221	9
	42	110	18.60119	204.418	-308.1814	1	369.8141	-56.44352	6.563503E-007	-0.0001234	9
	43	112	15.02404	222.5336	-363.3524	1	426.0823	-58.5148	6.652677E-008	-0.0001114	8
	44	114	12.01923	246.2531	-433.904	1	498.9121	-60.42384	2.858198E-007	-0.0001187	8
	45	117	9.450605	277.1794	-526.0717	1	594.6257	-62.21592	1.931763E-007	-0.0001103	8
	46	119	7.512019	313.5426	-632.2558	1	705.7311	-63.62268	1.528435E-007	-0.0001153	8
	47	122	5.978954	356.9308	-758.9089	1	838.655	-64.81141	2.218804E-007	-0.0001161	8
	48	125	4.734848	412.304	-914.2095	1	1002.883	-65.72486	2.760211E-007	-0.0001244	8
	49	128	3.75601	478.1056	-1097.652	1	1197.257	-66.46344	3.292308E-007	-0.0001051	8
	50	131	3.004808	553.0602	-1306.04	1	1418.315	-67.04912	3.374339E-007	-0.0001445	8
	51	135	2.372217	646.4193	-1570.389	1	1698.229	-67.62646	2.959165E-007	-0.0001827	8
	52	139	1.878005	748.5457	-1880.826	1	2024.309	-68.29805	3.334885E-007	-0.0001064	8
	53	144	1.512097	856.046	-2223.398	1	2382.502	-68.94245	2.91641E-007	-0.0001916	8
	54	150	1.201923	978.265	-2679.66	1	2852.644	-69.94434	2.931853E-007	-0.0001271	8
	55	158	0.956633	1112.613	-3225.228	1	3411.745	-70.967	2.927555E-007	-0.0006632	8
