EXPLAIN
TAG	EISPOT
TITLE	LABEL	Potentiostatic EIS	Test Identifier
DATE	LABEL	11/21/2021	Date
TIME	LABEL	14:29:02	Time
NOTES	NOTES	1	Notes...
	
PSTAT	PSTAT	REF3000-16137	Potentiostat
VDC	POTEN	0.00000E+000	T	DC Voltage (V)
FREQINIT	QUANT	3.00000E+005	Initial Freq. (Hz)
FREQFINAL	QUANT	1.00000E+000	Final Freq. (Hz)
PTSPERDEC	QUANT	1.00000E+001	Points/decade
VAC	QUANT	5.00000E+001	AC Voltage (mV rms)
AREA	QUANT	1.00000E+000	Sample Area (cm^2)
SPEED	SELECTOR	2	Optimize for:
ZGUESS	QUANT	1.00000E+003	Estimated Z (ohms)
EOC	QUANT	0	Open Circuit (V)
SEQUENCER	TOGGLE	TRUE	Run as Sequence
PSTATMODEL	IQUANT	5	Pstat Model
PSTATSECTION	LABEL	REF3000-16137	Pstat Section
PSTATSERIALNO	LABEL	16137	Pstat Serial Number
CTRLMODE	IQUANT	1	Control Mode
IESTAB	IQUANT	0	I/E Stability
CASPEED	IQUANT	1	Control Amp Speed
CONVENTION	IQUANT	1	Current Convention
ICHRANGE	IQUANT	2	Ich Range
ICHRANGEMODE	TOGGLE	F	Ich Auto Range
ICHOFFSETENABLE	TOGGLE	T	Ich Offset Enable
ICHOFFSET	QUANT	0	Ich Offset (V)
ICHFILTER	IQUANT	3	Ich Filter
VCHRANGE	IQUANT	2	Vch Range
VCHRANGEMODE	TOGGLE	F	Vch Auto Range
VCHOFFSETENABLE	TOGGLE	T	Vch Offset Enable
VCHOFFSET	QUANT	0	Vch Offset (V)
VCHFILTER	IQUANT	3	Vch Filter
ACHRANGE	IQUANT	2	Ach Range
ACHOFFSETENABLE	TOGGLE	F	Ach Offset Enable
ACHOFFSET	QUANT	0	Ach Offset (V)
ACHFILTER	IQUANT	3	Ach Filter
IERANGELOWERLIMIT	IQUANT	2	I/E Range Lower Limit
IERANGEMODE	TOGGLE	F	I/E AutoRange
IERANGE	IQUANT	11	I/E Range
POSFEEDENABLE	TOGGLE	F	Positive Feedback IR Comp
POSFEEDRESISTANCE	QUANT	0	Positive Feedback Resistance (ohm)
ACHSELECT	IQUANT	0	Ach Select
CABLEID	IQUANT	13	Cable ID
DCCALDATE	LABEL	9/10/2021	DC Calibration Date
ACCALDATE	LABEL	9/10/2021	AC Calibration Date
THERMOSELECT	IQUANT	1	Thermo Select
FRAMEWORKVERSION	QUANT	6.33	Framework Version
INSTRUMENTVERSION	LABEL	3.50	Instrument Version
COMPLIANCEVOLTAGE	IQUANT	0	Compliance Voltage
ZCURVE	TABLE
	Pt	Time	Freq	Zreal	Zimag	Zsig	Zmod	Zphz	Idc	Vdc	IERange
	#	s	Hz	ohm	ohm	V	ohm	°	A	V	#
	0	10	300046.9	1.949845	2.216762	1	2.952275	48.66542	-7.084951E-005	-0.0007371	11
	1	14	238359.4	2.059198	1.545476	1	2.574644	36.88908	3.849235E-006	-0.0009799	12
	2	18	189328.1	1.997945	1.185807	1	2.323343	30.6897	-7.368179E-005	-0.0006966	12
	3	21	150421.9	1.934721	1.004392	1	2.179897	27.43565	-5.64136E-005	-9.27308E-005	11
	4	24	119484.4	1.950658	0.7349845	1	2.084531	20.64581	-0.0001249	7.764377E-005	11
	5	27	94921.88	1.970035	0.5147992	1	2.036187	14.64475	-6.016698E-005	0.0001147	11
	6	29	75421.88	1.99721	0.3367468	1	2.0254	9.57055	-1.559657E-005	0.0002221	11
	7	32	59859.37	2.025626	0.186502	1	2.034194	5.260466	-9.111775E-005	0.000225	11
	8	34	47578.12	2.056517	0.0586712	1	2.057353	1.634171	-7.534154E-005	0.0002671	11
	9	37	37828.12	2.089643	-0.0539943	1	2.090341	-1.480137	-4.383633E-005	0.0003359	11
	10	39	30046.88	2.123647	-0.1582829	1	2.129538	-4.262574	-7.286521E-005	0.0003346	11
	11	42	23859.38	2.159921	-0.2587469	1	2.175364	-6.831172	-7.206431E-005	0.000375	11
	12	44	18984.38	2.196381	-0.359503	1	2.225608	-9.29573	-7.986841E-005	0.000344	11
	13	46	15046.87	2.236133	-0.467658	1	2.284512	-11.81241	-2.533382E-005	0.0003541	11
	14	49	11953.13	2.278657	-0.5863571	1	2.352891	-14.4306	-3.206767E-005	0.0003852	11
	15	51	9515.62	2.322584	-0.7187864	1	2.431265	-17.19609	-2.581029E-005	0.0003877	11
	16	53	7546.875	2.370689	-0.8767653	1	2.527624	-20.29619	-3.256262E-005	0.0003877	11
	17	56	5928.309	2.424167	-1.07469	1	2.651706	-23.90882	-4.363441E-005	0.0003869	11
	18	58	4733.456	2.47826	-1.297914	1	2.797562	-27.64195	-3.608661E-005	0.0003909	11
	19	60	3796.875	2.536834	-1.564059	1	2.980236	-31.65549	-7.074242E-005	0.0003796	11
	20	62	2987.132	2.607608	-1.919536	1	3.237937	-36.35786	-6.078233E-005	0.0003707	11
	21	65	2390.625	2.685464	-2.326958	1	3.553372	-40.90897	-4.615482E-005	0.0003832	11
	22	67	1884.191	2.786123	-2.872514	1	4.001727	-45.87467	-2.367114E-005	-0.0001053	10
	23	69	1516.544	2.896675	-3.481629	1	4.529069	-50.23994	8.969264E-006	-0.0001396	10
	24	72	1193.986	3.050927	-4.309921	1	5.28049	-54.70591	2.123782E-005	-0.0001273	10
	25	74	946.5144	3.243866	-5.309595	1	6.222095	-58.5774	2.170366E-005	-0.0001252	10
	26	77	751.7689	3.500269	-6.523201	1	7.402975	-61.78254	-3.137751E-006	-0.000118	10
	27	79	597.4265	3.834014	-8.00563	1	8.87636	-64.40955	-2.473867E-005	-0.000112	10
	28	81	477.4305	4.265022	-9.75893	1	10.65022	-66.39285	-2.449536E-006	-0.000105	10
	29	83	376.6741	4.858814	-11.99971	1	12.94608	-67.95644	-2.347084E-006	-0.0001101	10
	30	86	298.2954	5.623071	-14.66681	1	15.70778	-69.0238	-2.333209E-006	-0.0001087	10
	31	88	237.7717	6.577648	-17.76611	1	18.94466	-69.68365	-2.563603E-006	-0.0001132	10
	32	91	189.0121	7.800086	-21.4901	1	22.86189	-70.05103	-2.871479E-006	-0.0001078	10
	33	93	150.2404	9.315284	-25.88688	1	27.51191	-70.20895	-2.499447E-006	-0.0001172	10
	34	95	119.1737	11.1635	-31.12089	1	33.06256	-70.26637	-2.831768E-006	-0.0001098	10
	35	98	95.0169	13.26642	-37.13214	1	39.43087	-70.33942	-3.69896E-006	-0.0001139	10
	36	100	75.60484	15.63674	-44.25998	1	46.94096	-70.54205	-1.935472E-006	-0.0001307	9
	37	103	54.50582	19.44156	-57.08763	1	60.30731	-71.1934	-2.072248E-006	-0.0001361	9
	38	105	45.95588	21.60291	-65.3794	1	68.85603	-71.71521	-1.774323E-006	-0.0001261	9
	39	108	37.20238	24.51019	-77.59956	1	81.37838	-72.47103	-1.875201E-006	-0.0001252	9
	40	110	30.04808	27.77612	-92.64584	1	96.72	-73.31076	-1.908374E-006	-0.000132	9
	41	113	23.91582	31.92151	-112.5885	1	117.0263	-74.17072	-2.146583E-006	-0.0001292	9
	42	115	18.60119	37.47008	-139.9721	1	144.9007	-75.0135	-1.634905E-006	-0.0001315	9
	43	117	15.02404	43.57141	-168.8979	1	174.4275	-75.53452	-1.710811E-006	-0.000122	9
	44	119	12.01923	51.84776	-205.8632	1	212.2919	-75.86375	-2.076927E-006	-0.0001221	9
	45	122	9.450605	63.81681	-254.9835	1	262.8482	-75.94875	-1.976675E-006	-0.0001186	9
	46	124	7.512019	79.23155	-312.5324	1	322.4192	-75.77438	-1.761871E-006	-0.0001435	9
	47	127	5.978954	100.1639	-381.7143	1	394.6373	-75.29676	-1.614892E-006	-0.0001309	9
	48	130	4.734848	129.0707	-465.9362	1	483.483	-74.51654	-1.570762E-006	-0.0001103	8
	49	133	3.75601	168.7068	-567.5577	1	592.1011	-73.44539	-1.55775E-006	-0.0001181	8
	50	137	3.004808	220.3798	-682.879	1	717.5591	-72.11399	-1.642344E-006	-8.882457E-005	8
	51	140	2.372217	295.7872	-825.9941	1	877.3575	-70.29764	-1.587395E-006	-3.565147E-005	8
	52	145	1.878005	394.5068	-989.193	1	1064.96	-68.25706	-1.708874E-006	-0.0001306	8
	53	149	1.512097	513.481	-1155.507	1	1264.46	-66.04073	-1.607309E-006	-0.0001277	8
	54	155	1.201923	680.5269	-1351.176	1	1512.876	-63.26764	-1.643396E-006	-0.0001396	8
	55	161	0.956633	887.9622	-1553.003	1	1788.937	-60.24032	-1.744101E-006	-0.0006614	8
