EXPLAIN
TAG	EISPOT
TITLE	LABEL	Potentiostatic EIS	Test Identifier
DATE	LABEL	11/21/2021	Date
TIME	LABEL	15:05:39	Time
NOTES	NOTES	1	Notes...
	
PSTAT	PSTAT	REF3000-16137	Potentiostat
VDC	POTEN	0.00000E+000	T	DC Voltage (V)
FREQINIT	QUANT	3.00000E+005	Initial Freq. (Hz)
FREQFINAL	QUANT	1.00000E+000	Final Freq. (Hz)
PTSPERDEC	QUANT	1.00000E+001	Points/decade
VAC	QUANT	5.00000E+001	AC Voltage (mV rms)
AREA	QUANT	1.00000E+000	Sample Area (cm^2)
SPEED	SELECTOR	2	Optimize for:
ZGUESS	QUANT	1.00000E+003	Estimated Z (ohms)
EOC	QUANT	0	Open Circuit (V)
SEQUENCER	TOGGLE	TRUE	Run as Sequence
PSTATMODEL	IQUANT	5	Pstat Model
PSTATSECTION	LABEL	REF3000-16137	Pstat Section
PSTATSERIALNO	LABEL	16137	Pstat Serial Number
CTRLMODE	IQUANT	1	Control Mode
IESTAB	IQUANT	0	I/E Stability
CASPEED	IQUANT	1	Control Amp Speed
CONVENTION	IQUANT	1	Current Convention
ICHRANGE	IQUANT	2	Ich Range
ICHRANGEMODE	TOGGLE	F	Ich Auto Range
ICHOFFSETENABLE	TOGGLE	T	Ich Offset Enable
ICHOFFSET	QUANT	0	Ich Offset (V)
ICHFILTER	IQUANT	3	Ich Filter
VCHRANGE	IQUANT	2	Vch Range
VCHRANGEMODE	TOGGLE	F	Vch Auto Range
VCHOFFSETENABLE	TOGGLE	T	Vch Offset Enable
VCHOFFSET	QUANT	0	Vch Offset (V)
VCHFILTER	IQUANT	3	Vch Filter
ACHRANGE	IQUANT	2	Ach Range
ACHOFFSETENABLE	TOGGLE	F	Ach Offset Enable
ACHOFFSET	QUANT	0	Ach Offset (V)
ACHFILTER	IQUANT	3	Ach Filter
IERANGELOWERLIMIT	IQUANT	2	I/E Range Lower Limit
IERANGEMODE	TOGGLE	F	I/E AutoRange
IERANGE	IQUANT	11	I/E Range
POSFEEDENABLE	TOGGLE	F	Positive Feedback IR Comp
POSFEEDRESISTANCE	QUANT	0	Positive Feedback Resistance (ohm)
ACHSELECT	IQUANT	0	Ach Select
CABLEID	IQUANT	13	Cable ID
DCCALDATE	LABEL	9/10/2021	DC Calibration Date
ACCALDATE	LABEL	9/10/2021	AC Calibration Date
THERMOSELECT	IQUANT	1	Thermo Select
FRAMEWORKVERSION	QUANT	6.33	Framework Version
INSTRUMENTVERSION	LABEL	3.50	Instrument Version
COMPLIANCEVOLTAGE	IQUANT	0	Compliance Voltage
ZCURVE	TABLE
	Pt	Time	Freq	Zreal	Zimag	Zsig	Zmod	Zphz	Idc	Vdc	IERange
	#	s	Hz	ohm	ohm	V	ohm	°	A	V	#
	0	8	300046.9	18.01312	1.113452	1	18.0475	3.537145	6.79139E-005	-0.0006311	10
	1	12	238359.4	18.23442	0.5428179	1	18.2425	1.705127	-2.681193E-005	-0.0005318	10
	2	15	189328.1	18.45955	0.0083218	1	18.45955	0.0258297	-3.146494E-005	-0.0003936	10
	3	17	150421.9	18.73548	-0.4406222	1	18.74066	-1.347238	3.431339E-005	-4.255684E-005	10
	4	20	119484.4	19.02665	-0.9258104	1	19.04916	-2.785736	7.153766E-005	-0.0005082	10
	5	22	94921.88	19.41346	-1.391545	1	19.46327	-4.099915	1.4105E-005	-0.0002108	10
	6	25	75421.88	19.84287	-1.834216	1	19.92747	-5.281241	-1.550197E-005	-0.0001373	10
	7	27	59859.37	20.28288	-2.267159	1	20.4092	-6.377873	2.687974E-005	-0.0001316	10
	8	30	47578.12	20.74884	-2.68286	1	20.92157	-7.367563	2.72629E-005	-0.0001324	10
	9	32	37828.12	21.25146	-3.092348	1	21.47527	-8.279132	-1.667769E-005	-0.0001367	10
	10	35	30046.88	21.82144	-3.507924	1	22.1016	-9.132497	-1.50173E-005	-0.0001353	10
	11	37	23859.38	22.43865	-3.919852	1	22.77846	-9.90912	2.100282E-005	-0.000155	10
	12	40	18984.38	23.1217	-4.329435	1	23.52354	-10.60557	-1.495831E-005	-0.0001361	10
	13	42	15046.87	23.91701	-4.783647	1	24.3907	-11.3105	-4.122475E-006	-0.0001442	10
	14	44	11953.13	24.76753	-5.22853	1	25.31339	-11.92036	-2.615348E-005	-0.0001178	10
	15	47	9515.62	25.65145	-5.675424	1	26.2718	-12.4758	-2.061986E-005	-0.0001644	10
	16	49	7546.875	26.65649	-6.161255	1	27.35926	-13.01453	-2.888256E-005	-0.0001165	10
	17	51	5928.309	27.71278	-6.68001	1	28.50651	-13.5523	-1.978961E-005	-0.0001472	10
	18	54	4733.456	28.72749	-7.195213	1	29.61486	-14.06128	2.190254E-005	-0.0001274	10
	19	56	3796.875	29.75379	-7.767328	1	30.75092	-14.63074	2.354194E-005	-0.0000984	10
	20	58	2987.132	30.94147	-8.46946	1	32.07969	-15.30832	2.426719E-005	-0.0001347	10
	21	61	2390.625	32.15265	-9.273676	1	33.46333	-16.08896	-2.649212E-005	-0.0001157	10
	22	63	1884.191	33.39359	-10.22611	1	34.92428	-17.02614	-1.980196E-005	-0.0001433	10
	23	65	1516.544	34.73096	-11.2916	1	36.5204	-18.01019	1.999887E-005	-0.0001663	10
	24	68	1193.986	36.18795	-12.69001	1	38.34846	-19.3242	1.101742E-005	-0.0003172	9
	25	70	946.5144	37.65956	-14.34401	1	40.2988	-20.85116	2.85262E-006	-2.393063E-005	9
	26	72	751.7689	39.15229	-16.29317	1	42.40718	-22.59457	-1.159445E-005	0.000184	9
	27	75	597.4265	40.80021	-18.64482	1	44.85852	-24.55939	1.242943E-005	-0.0003721	9
	28	77	477.4305	42.5286	-21.40908	1	47.61335	-26.72087	4.455911E-007	-0.000123	9
	29	79	376.6741	44.63216	-24.93081	1	51.12314	-29.18703	4.757183E-007	-0.0001262	9
	30	82	298.2954	46.94246	-29.1256	1	55.24395	-31.81767	4.771006E-007	-0.000126	9
	31	84	237.7717	49.44106	-34.04584	1	60.02947	-34.55186	4.46867E-007	-0.0001287	9
	32	87	189.0121	52.37843	-40.04982	1	65.93549	-37.4024	4.060622E-007	-0.0001219	9
	33	89	150.2404	55.57642	-47.29232	1	72.97467	-40.39586	4.680668E-007	-0.0001209	9
	34	91	119.1737	59.13275	-56.1298	1	81.53059	-43.50761	4.254884E-007	-0.0001218	9
	35	94	95.0169	63.23083	-66.58218	1	91.82224	-46.47887	4.993666E-007	-0.0001293	9
	36	96	75.60484	67.88144	-79.3148	1	104.397	-49.44149	4.669606E-007	-0.0001322	9
	37	99	54.50582	75.95683	-102.2481	1	127.3739	-53.39254	5.236107E-007	-0.0001276	9
	38	101	45.95588	81.09899	-116.9607	1	142.3265	-55.26307	6.242853E-007	-0.0001226	9
	39	104	37.20238	88.51068	-138.2154	1	164.1269	-57.36523	4.146349E-007	-0.0001166	9
	40	106	30.04808	97.3172	-163.7801	1	190.5113	-59.28145	3.828328E-007	-0.0001283	9
	41	108	23.91582	108.7208	-196.3598	1	224.4491	-61.0275	3.741501E-007	-0.0001306	9
	42	111	18.60119	124.0209	-239.7795	1	269.9544	-62.65069	7.34824E-007	-0.0001351	9
	43	113	15.02404	140.0089	-283.9417	1	316.5839	-63.75255	2.698578E-007	-0.0001317	9
	44	115	12.01923	159.7623	-338.0237	1	373.877	-64.70288	5.953385E-007	-0.0001271	9
	45	118	9.450605	183.9794	-405.7044	1	445.4711	-65.60659	5.000533E-007	-0.0001378	8
	46	120	7.512019	211.3366	-484.3631	1	528.4608	-66.42747	4.260576E-007	-0.0001382	8
	47	123	5.978954	241.986	-577.4618	1	626.1145	-67.26382	4.842311E-007	-0.0001231	8
	48	126	4.734848	276.2597	-693.2861	1	746.3008	-68.27377	3.819337E-007	-0.0001271	8
	49	129	3.75601	314.3769	-833.3137	1	890.6428	-69.33046	5.118284E-007	-0.0001105	8
	50	133	3.004808	354.8734	-998.788	1	1059.958	-70.43967	4.231163E-007	-0.0001024	8
	51	137	2.372217	403.9534	-1215.247	1	1280.626	-71.61296	4.202681E-007	-0.0001479	8
	52	141	1.878005	460.1018	-1486.78	1	1556.345	-72.8047	5.044449E-007	-0.0001258	8
	53	145	1.512097	521.0792	-1791.294	1	1865.545	-73.78053	4.588736E-007	-0.0001153	8
	54	151	1.201923	608.1967	-2198.071	1	2280.662	-74.53346	4.855726E-007	-0.0000958	8
	55	157	0.956633	716.78	-2691.557	1	2785.364	-75.08783	4.201642E-007	-0.0006668	8
