EXPLAIN
TAG	EISPOT
TITLE	LABEL	Potentiostatic EIS	Test Identifier
DATE	LABEL	11/21/2021	Date
TIME	LABEL	14:14:51	Time
NOTES	NOTES	1	Notes...
	
PSTAT	PSTAT	REF3000-16137	Potentiostat
VDC	POTEN	0.00000E+000	T	DC Voltage (V)
FREQINIT	QUANT	3.00000E+005	Initial Freq. (Hz)
FREQFINAL	QUANT	1.00000E+000	Final Freq. (Hz)
PTSPERDEC	QUANT	1.00000E+001	Points/decade
VAC	QUANT	5.00000E+001	AC Voltage (mV rms)
AREA	QUANT	1.00000E+000	Sample Area (cm^2)
SPEED	SELECTOR	2	Optimize for:
ZGUESS	QUANT	1.00000E+003	Estimated Z (ohms)
EOC	QUANT	0	Open Circuit (V)
SEQUENCER	TOGGLE	TRUE	Run as Sequence
PSTATMODEL	IQUANT	5	Pstat Model
PSTATSECTION	LABEL	REF3000-16137	Pstat Section
PSTATSERIALNO	LABEL	16137	Pstat Serial Number
CTRLMODE	IQUANT	1	Control Mode
IESTAB	IQUANT	0	I/E Stability
CASPEED	IQUANT	1	Control Amp Speed
CONVENTION	IQUANT	1	Current Convention
ICHRANGE	IQUANT	2	Ich Range
ICHRANGEMODE	TOGGLE	F	Ich Auto Range
ICHOFFSETENABLE	TOGGLE	T	Ich Offset Enable
ICHOFFSET	QUANT	0	Ich Offset (V)
ICHFILTER	IQUANT	3	Ich Filter
VCHRANGE	IQUANT	2	Vch Range
VCHRANGEMODE	TOGGLE	F	Vch Auto Range
VCHOFFSETENABLE	TOGGLE	T	Vch Offset Enable
VCHOFFSET	QUANT	0	Vch Offset (V)
VCHFILTER	IQUANT	3	Vch Filter
ACHRANGE	IQUANT	2	Ach Range
ACHOFFSETENABLE	TOGGLE	F	Ach Offset Enable
ACHOFFSET	QUANT	0	Ach Offset (V)
ACHFILTER	IQUANT	3	Ach Filter
IERANGELOWERLIMIT	IQUANT	2	I/E Range Lower Limit
IERANGEMODE	TOGGLE	F	I/E AutoRange
IERANGE	IQUANT	11	I/E Range
POSFEEDENABLE	TOGGLE	F	Positive Feedback IR Comp
POSFEEDRESISTANCE	QUANT	0	Positive Feedback Resistance (ohm)
ACHSELECT	IQUANT	0	Ach Select
CABLEID	IQUANT	13	Cable ID
DCCALDATE	LABEL	9/10/2021	DC Calibration Date
ACCALDATE	LABEL	9/10/2021	AC Calibration Date
THERMOSELECT	IQUANT	1	Thermo Select
FRAMEWORKVERSION	QUANT	6.33	Framework Version
INSTRUMENTVERSION	LABEL	3.50	Instrument Version
COMPLIANCEVOLTAGE	IQUANT	0	Compliance Voltage
ZCURVE	TABLE
	Pt	Time	Freq	Zreal	Zimag	Zsig	Zmod	Zphz	Idc	Vdc	IERange
	#	s	Hz	ohm	ohm	V	ohm	°	A	V	#
	0	10	300046.9	1.733566	2.264151	1	2.851601	52.56022	-0.0001915	-0.0007445	11
	1	14	238359.4	1.83654	1.608876	1	2.44159	41.21954	-0.0001187	-0.0011757	12
	2	18	189328.1	1.776267	1.252058	1	2.173194	35.17931	-0.0001608	-0.0008368	12
	3	21	150421.9	1.692694	1.053204	1	1.993603	31.89011	-5.375731E-005	-0.0001415	11
	4	24	119484.4	1.700199	0.7861016	1	1.873134	24.81387	3.413257E-005	-8.605848E-005	11
	5	26	94921.88	1.710893	0.5708093	1	1.803602	18.45037	-7.461102E-005	6.739055E-005	11
	6	29	75421.88	1.728386	0.3953027	1	1.773015	12.88266	-6.659214E-005	0.0001424	11
	7	31	59859.37	1.747373	0.2463876	1	1.764658	8.026056	-8.343444E-005	0.0001926	11
	8	34	47578.12	1.769103	0.1204389	1	1.773198	3.894633	-9.105517E-005	0.0002455	11
	9	36	37828.12	1.792852	0.0093014	1	1.792876	0.2972515	-7.664987E-005	0.0003001	11
	10	39	30046.88	1.818398	-0.0930666	1	1.820778	-2.929871	-5.385486E-005	0.0003383	11
	11	42	23859.38	1.845542	-0.191153	1	1.855415	-5.913354	-5.425348E-005	0.000312	11
	12	44	18984.38	1.874338	-0.2883194	1	1.896384	-8.74496	-2.314639E-005	0.0003689	11
	13	46	15046.87	1.906474	-0.3923744	1	1.946433	-11.62974	-5.495637E-005	0.0003774	11
	14	48	11953.13	1.939642	-0.5042847	1	2.004124	-14.5736	-6.515873E-005	0.0003508	11
	15	51	9515.62	1.975408	-0.6301076	1	2.073469	-17.69143	-5.09489E-005	0.0003518	11
	16	53	7546.875	2.014956	-0.7793152	1	2.160412	-21.14474	-0.0000966	0.0003467	11
	17	55	5928.309	2.059586	-0.964311	1	2.274157	-25.08928	-2.548221E-005	0.0003753	11
	18	58	4733.456	2.105282	-1.173703	1	2.410351	-29.13984	-4.798821E-005	0.0003757	11
	19	60	3796.875	2.156153	-1.423224	1	2.583518	-33.42783	-5.157984E-005	0.0003875	11
	20	62	2987.132	2.218659	-1.755734	1	2.829319	-38.3563	-8.352495E-005	0.0003637	11
	21	65	2390.625	2.289566	-2.137428	1	3.132205	-43.03175	-7.660918E-005	0.0003793	11
	22	67	1884.191	2.380201	-2.641731	1	3.555854	-47.98114	-4.294724E-005	0.0003663	11
	23	69	1516.544	2.488841	-3.210261	1	4.062032	-52.21441	-1.377893E-005	-0.0001069	10
	24	71	1193.986	2.638574	-3.977032	1	4.77272	-56.43759	-1.492124E-005	-0.0001087	10
	25	74	946.5144	2.833707	-4.895869	1	5.656803	-59.93793	-2.179748E-005	-0.000102	10
	26	76	751.7689	3.085189	-6.009807	1	6.755455	-62.82589	-7.108025E-007	-0.000137	10
	27	79	597.4265	3.412236	-7.364658	1	8.116745	-65.14049	-2.193885E-005	-0.0001019	10
	28	81	477.4305	3.83983	-8.960751	1	9.74881	-66.80407	-4.520636E-006	-0.0001059	10
	29	83	376.6741	4.422064	-10.98533	1	11.84197	-68.07312	-4.587349E-006	-0.0001083	10
	30	85	298.2954	5.163138	-13.38006	1	14.34169	-68.89925	-4.842548E-006	-0.0001045	10
	31	88	237.7717	6.074924	-16.14414	1	17.24928	-69.37904	-4.569018E-006	-0.000116	10
	32	90	189.0121	7.218724	-19.44621	1	20.74283	-69.63432	-5.049032E-006	-0.0001091	10
	33	93	150.2404	8.598371	-23.32947	1	24.86355	-69.768	-4.818918E-006	-0.0001084	10
	34	95	119.1737	10.22587	-27.9545	1	29.76613	-69.90727	-5.107853E-006	-0.0001106	10
	35	97	95.0169	12.01898	-33.30196	1	35.40447	-70.15503	-5.161628E-006	-0.0001126	10
	36	100	75.60484	13.99282	-39.72047	1	42.11312	-70.59354	-4.353643E-006	-0.0001209	9
	37	102	54.50582	17.15294	-51.47786	1	54.26042	-71.57141	-4.469709E-006	-0.0001252	9
	38	105	45.95588	19.00397	-59.16084	1	62.1382	-72.19166	-3.998362E-006	-0.000123	9
	39	107	37.20238	21.59128	-70.53645	1	73.76703	-72.9806	-4.254889E-006	-0.0001207	9
	40	110	30.04808	24.65872	-84.58106	1	88.10226	-73.74651	-4.001628E-006	-0.0001624	9
	41	112	23.91582	28.82629	-103.1695	1	107.1209	-74.38925	-4.57857E-006	-0.0001307	9
	42	114	18.60119	34.69632	-128.4987	1	133.1005	-74.88972	-3.898004E-006	-0.000126	9
	43	117	15.02404	41.36822	-155.0978	1	160.5199	-75.06554	-3.946176E-006	-0.0001219	9
	44	119	12.01923	50.73691	-188.854	1	195.5507	-74.96218	-4.458765E-006	-0.0001229	9
	45	121	9.450605	64.45322	-233.1853	1	241.9289	-74.54901	-4.389566E-006	-0.0001207	9
	46	124	7.512019	82.51015	-284.4699	1	296.1943	-73.82526	-4.170041E-006	-0.0001778	9
	47	127	5.978954	107.4139	-345.2835	1	361.6054	-72.71966	-3.929655E-006	-0.0001281	9
	48	130	4.734848	141.4741	-417.6169	1	440.9294	-71.2854	-4.000925E-006	-0.0001239	8
	49	133	3.75601	188.4541	-502.0597	1	536.2639	-69.42578	-3.71179E-006	-0.0000964	8
	50	136	3.004808	249.1864	-594.4927	1	644.6049	-67.25861	-3.938672E-006	-7.827363E-005	8
	51	140	2.372217	334.2527	-702.6429	1	778.095	-64.5592	-3.853888E-006	-5.975976E-005	8
	52	144	1.878005	445.0958	-815.7099	1	929.2432	-61.38071	-3.894153E-006	-0.0001311	8
	53	149	1.512097	572.4373	-921.7582	1	1085.045	-58.15858	-3.855408E-006	-1.74041E-005	8
	54	154	1.201923	735.4951	-1030.996	1	1266.454	-54.49657	-3.823802E-006	-0.0001384	8
	55	161	0.956633	925.0693	-1128.393	1	1459.118	-50.65472	-4.106282E-006	-0.0006618	8
