EXPLAIN
TAG	EISPOT
TITLE	LABEL	Potentiostatic EIS	Test Identifier
DATE	LABEL	11/21/2021	Date
TIME	LABEL	14:37:34	Time
NOTES	NOTES	1	Notes...
	
PSTAT	PSTAT	REF3000-16137	Potentiostat
VDC	POTEN	0.00000E+000	T	DC Voltage (V)
FREQINIT	QUANT	3.00000E+005	Initial Freq. (Hz)
FREQFINAL	QUANT	1.00000E+000	Final Freq. (Hz)
PTSPERDEC	QUANT	1.00000E+001	Points/decade
VAC	QUANT	5.00000E+001	AC Voltage (mV rms)
AREA	QUANT	1.00000E+000	Sample Area (cm^2)
SPEED	SELECTOR	2	Optimize for:
ZGUESS	QUANT	1.00000E+003	Estimated Z (ohms)
EOC	QUANT	0	Open Circuit (V)
SEQUENCER	TOGGLE	TRUE	Run as Sequence
PSTATMODEL	IQUANT	5	Pstat Model
PSTATSECTION	LABEL	REF3000-16137	Pstat Section
PSTATSERIALNO	LABEL	16137	Pstat Serial Number
CTRLMODE	IQUANT	1	Control Mode
IESTAB	IQUANT	0	I/E Stability
CASPEED	IQUANT	1	Control Amp Speed
CONVENTION	IQUANT	1	Current Convention
ICHRANGE	IQUANT	2	Ich Range
ICHRANGEMODE	TOGGLE	F	Ich Auto Range
ICHOFFSETENABLE	TOGGLE	T	Ich Offset Enable
ICHOFFSET	QUANT	0	Ich Offset (V)
ICHFILTER	IQUANT	3	Ich Filter
VCHRANGE	IQUANT	2	Vch Range
VCHRANGEMODE	TOGGLE	F	Vch Auto Range
VCHOFFSETENABLE	TOGGLE	T	Vch Offset Enable
VCHOFFSET	QUANT	0	Vch Offset (V)
VCHFILTER	IQUANT	3	Vch Filter
ACHRANGE	IQUANT	2	Ach Range
ACHOFFSETENABLE	TOGGLE	F	Ach Offset Enable
ACHOFFSET	QUANT	0	Ach Offset (V)
ACHFILTER	IQUANT	3	Ach Filter
IERANGELOWERLIMIT	IQUANT	2	I/E Range Lower Limit
IERANGEMODE	TOGGLE	F	I/E AutoRange
IERANGE	IQUANT	11	I/E Range
POSFEEDENABLE	TOGGLE	F	Positive Feedback IR Comp
POSFEEDRESISTANCE	QUANT	0	Positive Feedback Resistance (ohm)
ACHSELECT	IQUANT	0	Ach Select
CABLEID	IQUANT	13	Cable ID
DCCALDATE	LABEL	9/10/2021	DC Calibration Date
ACCALDATE	LABEL	9/10/2021	AC Calibration Date
THERMOSELECT	IQUANT	1	Thermo Select
FRAMEWORKVERSION	QUANT	6.33	Framework Version
INSTRUMENTVERSION	LABEL	3.50	Instrument Version
COMPLIANCEVOLTAGE	IQUANT	0	Compliance Voltage
ZCURVE	TABLE
	Pt	Time	Freq	Zreal	Zimag	Zsig	Zmod	Zphz	Idc	Vdc	IERange
	#	s	Hz	ohm	ohm	V	ohm	°	A	V	#
	0	10	300046.9	2.439948	2.079161	1	3.20566	40.43542	-0.000115	-0.0005358	11
	1	13	238359.4	2.443285	1.561669	1	2.899733	32.58539	-8.884251E-005	-0.0005509	11
	2	16	189328.1	2.521052	0.963616	1	2.698936	20.91824	-0.0001334	-0.0007741	12
	3	20	150421.9	2.531425	0.6375657	1	2.610479	14.13652	-0.0001338	-0.0005791	12
	4	23	119484.4	2.573629	0.3750078	1	2.600807	8.290319	-0.0001077	-0.0003909	12
	5	27	94921.88	2.630744	0.239219	1	2.641598	5.195735	-2.862975E-005	0.0002488	11
	6	29	75421.88	2.71226	-0.0376758	1	2.712521	-0.7958412	-5.174646E-005	-0.00022	12
	7	33	59859.37	2.807392	-0.1310323	1	2.810448	-2.672287	-9.265339E-005	0.0002831	11
	8	36	47578.12	2.906714	-0.2700102	1	2.919228	-5.307085	-1.298303E-005	0.0003703	11
	9	38	37828.12	3.010808	-0.3862695	1	3.035485	-7.310785	-7.643298E-005	0.0003056	11
	10	41	30046.88	3.114217	-0.4857019	1	3.151865	-8.864592	-1.116727E-005	0.0003972	11
	11	43	23859.38	3.217311	-0.5749422	1	3.268279	-10.13196	-8.251423E-005	0.0003325	11
	12	45	18984.38	3.315359	-0.6597775	1	3.380372	-11.25518	-8.610379E-005	0.0003481	11
	13	48	15046.87	3.410688	-0.7492794	1	3.492021	-12.39024	-4.641648E-005	0.0003877	11
	14	50	11953.13	3.505238	-0.8466661	1	3.606042	-13.5793	-1.023786E-005	-0.0001072	10
	15	52	9515.62	3.594925	-0.963451	1	3.72179	-15.00288	-2.074947E-005	-0.0000966	10
	16	55	7546.875	3.683321	-1.107046	1	3.84609	-16.72849	-2.143848E-005	-0.0001273	10
	17	57	5928.309	3.775573	-1.291751	1	3.990435	-18.88755	-2.539047E-005	-0.0001151	10
	18	59	4733.456	3.863344	-1.506961	1	4.146849	-21.30909	3.440772E-006	-0.0001434	10
	19	62	3796.875	3.961835	-1.770911	1	4.339616	-24.08428	-3.147673E-005	-0.0001222	10
	20	65	2987.132	4.063023	-2.126407	1	4.585822	-27.62558	1.026682E-005	-0.000144	10
	21	67	2390.625	4.168699	-2.541513	1	4.88235	-31.36924	-2.019002E-005	-0.000095	10
	22	69	1884.191	4.294488	-3.094691	1	5.293368	-35.77725	1.544156E-005	-0.0001356	10
	23	72	1516.544	4.440215	-3.724423	1	5.795415	-39.98971	1.648845E-005	-0.000129	10
	24	74	1193.986	4.625882	-4.583024	1	6.51175	-44.73335	1.584768E-005	-0.0001319	10
	25	77	946.5144	4.845653	-5.622623	1	7.42255	-49.24479	1.248567E-005	-0.0001134	10
	26	79	751.7689	5.120919	-6.890514	1	8.585045	-53.38087	-2.866045E-006	-0.0001204	10
	27	81	597.4265	5.475922	-8.443939	1	10.06409	-57.03646	2.149587E-005	-0.0001348	10
	28	83	477.4305	5.927204	-10.2997	1	11.88342	-60.08072	-1.023422E-006	-0.0001151	10
	29	86	376.6741	6.542306	-12.6745	1	14.2634	-62.69818	-1.440906E-006	-0.0001126	10
	30	88	298.2954	7.338366	-15.5146	1	17.16258	-64.68597	-1.395782E-006	-0.0001075	10
	31	90	237.7717	8.32721	-18.82917	1	20.58835	-66.14256	-2.4693E-006	-0.000111	10
	32	93	189.0121	9.60129	-22.83426	1	24.77072	-67.19434	-2.077604E-006	-0.0001078	10
	33	95	150.2404	11.2019	-27.58464	1	29.77238	-67.89832	-2.305513E-006	-0.0001084	10
	34	98	119.1737	13.1874	-33.24438	1	35.76445	-68.36274	-2.312966E-006	-0.0001101	10
	35	100	95.0169	15.49544	-39.69829	1	42.61529	-68.6778	-9.557446E-007	-0.0001249	9
	36	102	75.60484	18.18834	-47.41082	1	50.77993	-69.01156	-1.086572E-006	-0.0001296	9
	37	105	54.50582	22.554	-61.0482	1	65.08122	-69.72346	-1.089325E-006	-0.0001314	9
	38	108	45.95588	25.05004	-69.76605	1	74.12696	-70.24893	-8.704164E-007	-0.0001219	9
	39	110	37.20238	28.31783	-82.5043	1	87.22878	-71.05632	-9.470561E-007	-0.000123	9
	40	112	30.04808	31.91965	-98.1853	1	103.2435	-71.99086	-6.499531E-007	-0.0001636	9
	41	115	23.91582	36.21411	-118.7806	1	124.1784	-73.04446	-1.192287E-006	-0.0001275	9
	42	117	18.60119	41.9097	-147.3761	1	153.2192	-74.12571	-7.998179E-007	-0.0001264	9
	43	119	15.02404	47.88986	-177.6465	1	183.9884	-74.91289	-1.125312E-006	-0.0001295	9
	44	122	12.01923	55.74206	-216.3775	1	223.4422	-75.55386	-1.139633E-006	-0.0001288	9
	45	124	9.450605	66.88417	-267.9395	1	276.1613	-75.98402	-1.000485E-006	-0.000112	9
	46	126	7.512019	81.11579	-328.7577	1	338.6169	-76.14	-8.332753E-007	-0.0001042	9
	47	129	5.978954	100.2379	-402.8312	1	415.1152	-76.02667	-9.64764E-007	-0.0001234	9
	48	132	4.734848	126.1038	-493.0825	1	508.9524	-75.65433	-6.237356E-007	-9.34656E-005	8
	49	135	3.75601	161.924	-603.3787	1	624.7281	-74.97792	-8.584562E-007	-0.0001268	8
	50	139	3.004808	208.4087	-730.4137	1	759.5646	-74.07498	-7.565313E-007	-0.000111	8
	51	143	2.372217	275.7411	-890.2206	1	931.9473	-72.78991	-7.772672E-007	-0.0000996	8
	52	147	1.878005	367.571	-1079.152	1	1140.034	-71.1906	-8.573824E-007	-0.0001127	8
	53	152	1.512097	477.3653	-1278.888	1	1365.076	-69.53111	-7.727979E-007	-0.000187	8
	54	157	1.201923	636.138	-1519.792	1	1647.556	-67.28732	-8.080357E-007	-0.0001094	8
	55	163	0.956633	836.9824	-1783.01	1	1969.686	-64.85365	-8.608774E-007	-0.0006612	8
