EXPLAIN
TAG	EISPOT
TITLE	LABEL	Potentiostatic EIS	Test Identifier
DATE	LABEL	11/21/2021	Date
TIME	LABEL	14:48:53	Time
NOTES	NOTES	1	Notes...
	
PSTAT	PSTAT	REF3000-16137	Potentiostat
VDC	POTEN	0.00000E+000	T	DC Voltage (V)
FREQINIT	QUANT	3.00000E+005	Initial Freq. (Hz)
FREQFINAL	QUANT	1.00000E+000	Final Freq. (Hz)
PTSPERDEC	QUANT	1.00000E+001	Points/decade
VAC	QUANT	5.00000E+001	AC Voltage (mV rms)
AREA	QUANT	1.00000E+000	Sample Area (cm^2)
SPEED	SELECTOR	2	Optimize for:
ZGUESS	QUANT	1.00000E+003	Estimated Z (ohms)
EOC	QUANT	0	Open Circuit (V)
SEQUENCER	TOGGLE	TRUE	Run as Sequence
PSTATMODEL	IQUANT	5	Pstat Model
PSTATSECTION	LABEL	REF3000-16137	Pstat Section
PSTATSERIALNO	LABEL	16137	Pstat Serial Number
CTRLMODE	IQUANT	1	Control Mode
IESTAB	IQUANT	0	I/E Stability
CASPEED	IQUANT	1	Control Amp Speed
CONVENTION	IQUANT	1	Current Convention
ICHRANGE	IQUANT	2	Ich Range
ICHRANGEMODE	TOGGLE	F	Ich Auto Range
ICHOFFSETENABLE	TOGGLE	T	Ich Offset Enable
ICHOFFSET	QUANT	0	Ich Offset (V)
ICHFILTER	IQUANT	3	Ich Filter
VCHRANGE	IQUANT	2	Vch Range
VCHRANGEMODE	TOGGLE	F	Vch Auto Range
VCHOFFSETENABLE	TOGGLE	T	Vch Offset Enable
VCHOFFSET	QUANT	0	Vch Offset (V)
VCHFILTER	IQUANT	3	Vch Filter
ACHRANGE	IQUANT	2	Ach Range
ACHOFFSETENABLE	TOGGLE	F	Ach Offset Enable
ACHOFFSET	QUANT	0	Ach Offset (V)
ACHFILTER	IQUANT	3	Ach Filter
IERANGELOWERLIMIT	IQUANT	2	I/E Range Lower Limit
IERANGEMODE	TOGGLE	F	I/E AutoRange
IERANGE	IQUANT	11	I/E Range
POSFEEDENABLE	TOGGLE	F	Positive Feedback IR Comp
POSFEEDRESISTANCE	QUANT	0	Positive Feedback Resistance (ohm)
ACHSELECT	IQUANT	0	Ach Select
CABLEID	IQUANT	13	Cable ID
DCCALDATE	LABEL	9/10/2021	DC Calibration Date
ACCALDATE	LABEL	9/10/2021	AC Calibration Date
THERMOSELECT	IQUANT	1	Thermo Select
FRAMEWORKVERSION	QUANT	6.33	Framework Version
INSTRUMENTVERSION	LABEL	3.50	Instrument Version
COMPLIANCEVOLTAGE	IQUANT	0	Compliance Voltage
ZCURVE	TABLE
	Pt	Time	Freq	Zreal	Zimag	Zsig	Zmod	Zphz	Idc	Vdc	IERange
	#	s	Hz	ohm	ohm	V	ohm	°	A	V	#
	0	10	300046.9	3.688726	1.809145	1	4.108492	26.12576	-9.121513E-005	-0.0008238	10
	1	13	238359.4	3.731581	1.221324	1	3.926363	18.12296	-8.708436E-005	-0.0011786	10
	2	16	189328.1	3.797163	0.7237968	1	3.865531	10.79198	2.969604E-005	-0.0008989	10
	3	19	150421.9	3.885283	0.2930764	1	3.896321	4.313791	3.1547E-005	-0.0005233	10
	4	21	119484.4	3.99663	-0.1040526	1	3.997985	-1.491363	2.742552E-005	-0.0005072	10
	5	24	94921.88	4.147875	-0.4489784	1	4.172103	-6.177814	-1.449651E-005	-0.0003106	10
	6	26	75421.88	4.320803	-0.7745096	1	4.38967	-10.16242	-6.873713E-006	-0.0002543	10
	7	29	59859.37	4.531602	-1.079183	1	4.658331	-13.39526	-2.687591E-005	-0.0001867	10
	8	31	47578.12	4.779464	-1.357075	1	4.968393	-15.8513	-1.745323E-005	-0.0001179	10
	9	34	37828.12	5.069158	-1.609623	1	5.318575	-17.61634	2.103017E-005	-0.0001517	10
	10	36	30046.88	5.399584	-1.832942	1	5.702209	-18.75029	-3.096936E-005	-0.0001236	10
	11	39	23859.38	5.755878	-2.01194	1	6.097379	-19.26683	6.057292E-006	-0.0001416	10
	12	41	18984.38	6.125696	-2.152564	1	6.492895	-19.36143	6.423659E-006	-0.000136	10
	13	44	15046.87	6.503901	-2.261037	1	6.885711	-19.16966	-8.870394E-006	-0.0001352	10
	14	46	11953.13	6.864916	-2.343266	1	7.253824	-18.84679	1.876877E-005	-0.0001188	10
	15	48	9515.62	7.199704	-2.414771	1	7.593869	-18.54138	-7.165084E-006	-0.000145	10
	16	50	7546.875	7.500922	-2.484386	1	7.901646	-18.32543	5.738584E-006	-0.0001338	10
	17	53	5928.309	7.795741	-2.601992	1	8.218513	-18.45752	2.187007E-005	-0.0001341	10
	18	55	4733.456	8.048231	-2.755435	1	8.506847	-18.89942	1.959915E-005	-0.0001324	10
	19	57	3796.875	8.28304	-2.966937	1	8.798379	-19.70723	-3.239662E-005	-0.0001255	10
	20	60	2987.132	8.531337	-3.273007	1	9.13763	-20.98907	-3.470069E-006	-0.0001341	10
	21	62	2390.625	8.75985	-3.658365	1	9.493081	-22.66681	-5.858152E-006	-0.0001477	10
	22	64	1884.191	9.011309	-4.178374	1	9.9329	-24.87627	-3.701306E-006	-0.0001381	10
	23	67	1516.544	9.257648	-4.790489	1	10.42367	-27.35988	-1.092496E-005	-0.000121	10
	24	69	1193.986	9.55698	-5.638125	1	11.09614	-30.53842	-1.639142E-005	-0.0001144	10
	25	71	946.5144	9.88108	-6.66015	1	11.9161	-33.98117	5.529186E-006	-0.0001397	10
	26	74	751.7689	10.23341	-7.959247	1	12.96427	-37.87474	-1.561329E-005	-0.0001477	10
	27	76	597.4265	10.65163	-9.55009	1	14.306	-41.87891	-1.604175E-005	-0.0001477	10
	28	78	477.4305	11.14332	-11.47529	1	15.99549	-45.84087	-1.701322E-006	-0.0001038	10
	29	81	376.6741	11.76568	-13.98082	1	18.27278	-49.9174	-1.14754E-006	-0.0001124	10
	30	83	298.2954	12.5415	-17.03039	1	21.15002	-53.63137	-1.21265E-006	-0.000111	10
	31	85	237.7717	13.49214	-20.66071	1	24.67595	-56.85411	-1.547508E-006	-0.0001064	10
	32	88	189.0121	14.73373	-25.13069	1	29.13133	-59.61757	-1.853444E-006	-0.0001063	10
	33	90	150.2404	16.32604	-30.52909	1	34.6203	-61.86347	-1.886993E-006	-0.0001064	10
	34	93	119.1737	18.38075	-37.0774	1	41.3834	-63.63055	-1.852646E-006	-0.0001058	10
	35	95	95.0169	20.9088	-44.64209	1	49.29599	-64.90324	-2.241104E-007	-0.000125	9
	36	97	75.60484	24.08558	-53.71075	1	58.86391	-65.84704	-2.408562E-007	-0.0001242	9
	37	100	54.50582	29.76989	-69.5143	1	75.62066	-66.8167	-2.686853E-007	-0.0001303	9
	38	102	45.95588	33.26535	-79.39419	1	86.08147	-67.26682	-2.835911E-007	-0.0001181	9
	39	105	37.20238	38.00782	-93.47566	1	100.9074	-67.87302	-2.975046E-007	-0.0001241	9
	40	107	30.04808	43.23623	-110.3294	1	118.4987	-68.60062	-3.464046E-007	-0.0001212	9
	41	110	23.91582	49.25561	-132.0799	1	140.9653	-69.54837	-2.651738E-007	-0.0001287	9
	42	112	18.60119	56.53359	-161.778	1	171.3715	-70.73795	-9.20631E-008	-0.0001241	9
	43	114	15.02404	63.59214	-193.2022	1	203.3988	-71.78114	-3.426951E-007	-0.0001275	9
	44	116	12.01923	72.20822	-233.3901	1	244.3051	-72.80853	3.644238E-008	-0.0001318	9
	45	119	9.450605	83.61716	-287.474	1	299.3879	-73.78194	-1.258611E-007	-0.0001275	9
	46	121	7.512019	97.3747	-351.7441	1	364.9736	-74.52611	-1.917002E-007	-0.0001067	9
	47	124	5.978954	114.9059	-428.4027	1	443.5451	-74.98556	-1.975662E-007	-0.0001145	8
	48	127	4.734848	139.3452	-526.9883	1	545.0998	-75.18893	-8.471453E-008	-0.0001241	8
	49	130	3.75601	171.3023	-646.7055	1	669.0086	-75.16396	-1.5468E-007	-0.0001082	8
	50	134	3.004808	212.932	-785.613	1	813.9581	-74.83494	-2.506658E-008	-0.000145	8
	51	138	2.372217	272.7825	-965.424	1	1003.222	-74.22226	-1.180129E-007	-0.0001826	8
	52	142	1.878005	352.417	-1177.541	1	1229.146	-73.33849	-3.987816E-008	-0.0000984	8
	53	146	1.512097	451.215	-1407.846	1	1478.386	-72.22933	-8.684502E-008	-0.000155	8
	54	152	1.201923	591.5916	-1702.331	1	1802.196	-70.83672	-5.854196E-008	-8.375062E-005	8
	55	158	0.956633	775.8085	-2037.965	1	2180.637	-69.15927	-1.597123E-007	-0.0006605	8
