EXPLAIN
TAG	EISPOT
TITLE	LABEL	Potentiostatic EIS	Test Identifier
DATE	LABEL	11/21/2021	Date
TIME	LABEL	14:20:32	Time
NOTES	NOTES	1	Notes...
	
PSTAT	PSTAT	REF3000-16137	Potentiostat
VDC	POTEN	0.00000E+000	T	DC Voltage (V)
FREQINIT	QUANT	3.00000E+005	Initial Freq. (Hz)
FREQFINAL	QUANT	1.00000E+000	Final Freq. (Hz)
PTSPERDEC	QUANT	1.00000E+001	Points/decade
VAC	QUANT	5.00000E+001	AC Voltage (mV rms)
AREA	QUANT	1.00000E+000	Sample Area (cm^2)
SPEED	SELECTOR	2	Optimize for:
ZGUESS	QUANT	1.00000E+003	Estimated Z (ohms)
EOC	QUANT	0	Open Circuit (V)
SEQUENCER	TOGGLE	TRUE	Run as Sequence
PSTATMODEL	IQUANT	5	Pstat Model
PSTATSECTION	LABEL	REF3000-16137	Pstat Section
PSTATSERIALNO	LABEL	16137	Pstat Serial Number
CTRLMODE	IQUANT	1	Control Mode
IESTAB	IQUANT	0	I/E Stability
CASPEED	IQUANT	1	Control Amp Speed
CONVENTION	IQUANT	1	Current Convention
ICHRANGE	IQUANT	2	Ich Range
ICHRANGEMODE	TOGGLE	F	Ich Auto Range
ICHOFFSETENABLE	TOGGLE	T	Ich Offset Enable
ICHOFFSET	QUANT	0	Ich Offset (V)
ICHFILTER	IQUANT	3	Ich Filter
VCHRANGE	IQUANT	2	Vch Range
VCHRANGEMODE	TOGGLE	F	Vch Auto Range
VCHOFFSETENABLE	TOGGLE	T	Vch Offset Enable
VCHOFFSET	QUANT	0	Vch Offset (V)
VCHFILTER	IQUANT	3	Vch Filter
ACHRANGE	IQUANT	2	Ach Range
ACHOFFSETENABLE	TOGGLE	F	Ach Offset Enable
ACHOFFSET	QUANT	0	Ach Offset (V)
ACHFILTER	IQUANT	3	Ach Filter
IERANGELOWERLIMIT	IQUANT	2	I/E Range Lower Limit
IERANGEMODE	TOGGLE	F	I/E AutoRange
IERANGE	IQUANT	11	I/E Range
POSFEEDENABLE	TOGGLE	F	Positive Feedback IR Comp
POSFEEDRESISTANCE	QUANT	0	Positive Feedback Resistance (ohm)
ACHSELECT	IQUANT	0	Ach Select
CABLEID	IQUANT	13	Cable ID
DCCALDATE	LABEL	9/10/2021	DC Calibration Date
ACCALDATE	LABEL	9/10/2021	AC Calibration Date
THERMOSELECT	IQUANT	1	Thermo Select
FRAMEWORKVERSION	QUANT	6.33	Framework Version
INSTRUMENTVERSION	LABEL	3.50	Instrument Version
COMPLIANCEVOLTAGE	IQUANT	0	Compliance Voltage
ZCURVE	TABLE
	Pt	Time	Freq	Zreal	Zimag	Zsig	Zmod	Zphz	Idc	Vdc	IERange
	#	s	Hz	ohm	ohm	V	ohm	°	A	V	#
	0	10	300046.9	1.811553	2.234034	1	2.876219	50.96178	3.657139E-005	-0.0007651	11
	1	13	238359.4	1.903095	1.584559	1	2.476408	39.78152	-6.312945E-005	-0.0012536	12
	2	17	189328.1	1.841935	1.232605	1	2.216312	33.79004	-0.0002386	-0.0011112	12
	3	21	150421.9	1.77166	1.027988	1	2.048301	30.12403	3.356076E-005	-0.0002353	11
	4	23	119484.4	1.777345	0.7698872	1	1.936926	23.42067	4.69772E-006	0.0001035	11
	5	26	94921.88	1.791589	0.5542831	1	1.875372	17.19106	-8.99692E-005	8.607002E-005	11
	6	28	75421.88	1.81218	0.3770471	1	1.85099	11.75342	-4.25785E-005	0.0001687	11
	7	31	59859.37	1.834501	0.2276862	1	1.848577	7.074995	-3.651258E-005	0.0002486	11
	8	33	47578.12	1.858564	0.1003631	1	1.861272	3.090989	-2.832959E-005	0.0002697	11
	9	36	37828.12	1.885778	-0.0112711	1	1.885812	-0.3424465	-1.841252E-005	0.0003277	11
	10	38	30046.88	1.914229	-0.1145749	1	1.917655	-3.425313	-1.950613E-005	0.000345	11
	11	41	23859.38	1.943725	-0.2138928	1	1.955458	-6.279716	-8.568045E-005	0.000315	11
	12	43	18984.38	1.975971	-0.3125917	1	2.000544	-8.989494	-4.608995E-005	0.0003689	11
	13	46	15046.87	2.010767	-0.4185002	1	2.053856	-11.7571	-7.093951E-005	0.0003733	11
	14	48	11953.13	2.046793	-0.5335147	1	2.115183	-14.60957	-7.694688E-005	0.000363	11
	15	50	9515.62	2.085657	-0.6624964	1	2.188348	-17.62214	-7.722795E-005	0.0003715	11
	16	52	7546.875	2.127885	-0.8154559	1	2.278786	-20.96801	-4.46214E-005	0.0003868	11
	17	55	5928.309	2.175618	-1.00546	1	2.396719	-24.80398	-7.140815E-005	0.000363	11
	18	57	4733.456	2.224634	-1.220543	1	2.537464	-28.75131	-1.905352E-005	0.0003931	11
	19	59	3796.875	2.277823	-1.477131	1	2.714847	-32.96275	-1.788498E-005	0.0004089	11
	20	62	2987.132	2.343788	-1.81855	1	2.966558	-37.80795	-1.642338E-005	0.0004002	11
	21	64	2390.625	2.417366	-2.210746	1	3.27583	-42.44375	-5.346111E-005	0.0003887	11
	22	66	1884.191	2.510392	-2.730607	1	3.709216	-47.40603	-2.488227E-005	0.0003941	11
	23	69	1516.544	2.6219	-3.317759	1	4.228698	-51.68201	1.950507E-005	-0.0001307	10
	24	71	1193.986	2.773216	-4.110089	1	4.958181	-55.99113	1.822665E-005	-0.0001317	10
	25	73	946.5144	2.965951	-5.064028	1	5.868667	-59.64291	-2.179624E-007	-0.0001131	10
	26	76	751.7689	3.22113	-6.216511	1	7.001477	-62.60874	1.811579E-005	-0.0001289	10
	27	78	597.4265	3.555159	-7.623999	1	8.412165	-64.99982	-6.860425E-006	-0.000132	10
	28	80	477.4305	3.981115	-9.286809	1	10.10416	-66.79591	-3.42171E-006	-0.0001046	10
	29	83	376.6741	4.570504	-11.40123	1	12.28322	-68.15522	-3.887776E-006	-0.0001065	10
	30	85	298.2954	5.325059	-13.90858	1	14.89312	-69.05009	-3.339206E-006	-0.0001068	10
	31	87	237.7717	6.261621	-16.81061	1	17.93891	-69.57063	-2.886677E-006	-0.0001173	10
	32	90	189.0121	7.449247	-20.28613	1	21.61061	-69.83631	-3.602854E-006	-0.0001095	10
	33	92	150.2404	8.904559	-24.37902	1	25.95434	-69.93503	-3.583983E-006	-0.0001146	10
	34	94	119.1737	10.64936	-29.2454	1	31.12399	-69.99152	-3.739802E-006	-0.0001133	10
	35	97	95.0169	12.60622	-34.85333	1	37.06307	-70.11529	-4.150335E-006	-0.000111	10
	36	99	75.60484	14.79529	-41.54498	1	44.10086	-70.39781	-3.370591E-006	-0.0001249	9
	37	102	54.50582	18.33741	-53.71014	1	56.75421	-71.14936	-3.452996E-006	-0.000128	9
	38	104	45.95588	20.4184	-61.62833	1	64.92274	-71.66918	-3.048361E-006	-0.0001175	9
	39	107	37.20238	23.31907	-73.29916	1	76.91908	-72.35228	-3.179486E-006	-0.0001256	9
	40	109	30.04808	26.77437	-87.68533	1	91.68197	-73.02016	-3.513385E-006	-0.0001198	9
	41	111	23.91582	31.35923	-106.5796	1	111.0973	-73.60437	-3.564282E-006	-0.0001235	9
	42	114	18.60119	37.99569	-132.5163	1	137.8558	-74.00109	-2.969953E-006	-0.0001189	9
	43	116	15.02404	45.46978	-159.5242	1	165.8779	-74.09066	-2.974771E-006	-0.0001297	9
	44	118	12.01923	55.83972	-193.6188	1	201.5101	-73.91242	-3.473689E-006	-0.0001237	9
	45	121	9.450605	70.90874	-238.145	1	248.4775	-73.41886	-3.486415E-006	-0.000122	9
	46	123	7.512019	90.25463	-289.3675	1	303.1162	-72.67714	-3.209651E-006	-0.0001413	9
	47	126	5.978954	116.54	-349.8723	1	368.7712	-71.57744	-3.018052E-006	-0.0001271	9
	48	129	4.734848	152.134	-421.4439	1	448.0622	-70.15128	-3.025842E-006	-0.0001211	8
	49	132	3.75601	200.197	-505.0962	1	543.324	-68.37889	-2.918553E-006	-0.0001099	8
	50	136	3.004808	261.4482	-596.5016	1	651.2829	-66.33204	-3.057683E-006	-8.246261E-005	8
	51	139	2.372217	347.3428	-704.7872	1	785.7303	-63.76438	-2.96663E-006	-3.814158E-005	8
	52	144	1.878005	456.4767	-819.6223	1	938.1639	-60.88502	-3.112481E-006	-0.0001299	8
	53	148	1.512097	582.198	-928.4459	1	1095.886	-57.90952	-3.000956E-006	-8.548336E-005	8
	54	154	1.201923	748.1417	-1045.274	1	1285.423	-54.40728	-2.989541E-006	-0.0001477	8
	55	160	0.956633	941.5771	-1151.935	1	1487.791	-50.73788	-3.22334E-006	-0.0006557	8
