EXPLAIN
TAG	EISPOT
TITLE	LABEL	Potentiostatic EIS	Test Identifier
DATE	LABEL	11/21/2021	Date
TIME	LABEL	15:37:09	Time
NOTES	NOTES	1	Notes...
	
PSTAT	PSTAT	REF3000-16137	Potentiostat
VDC	POTEN	0.00000E+000	T	DC Voltage (V)
FREQINIT	QUANT	3.00000E+005	Initial Freq. (Hz)
FREQFINAL	QUANT	1.00000E+000	Final Freq. (Hz)
PTSPERDEC	QUANT	1.00000E+001	Points/decade
VAC	QUANT	5.00000E+001	AC Voltage (mV rms)
AREA	QUANT	1.00000E+000	Sample Area (cm^2)
SPEED	SELECTOR	2	Optimize for:
ZGUESS	QUANT	1.00000E+003	Estimated Z (ohms)
EOC	QUANT	0	Open Circuit (V)
SEQUENCER	TOGGLE	TRUE	Run as Sequence
PSTATMODEL	IQUANT	5	Pstat Model
PSTATSECTION	LABEL	REF3000-16137	Pstat Section
PSTATSERIALNO	LABEL	16137	Pstat Serial Number
CTRLMODE	IQUANT	1	Control Mode
IESTAB	IQUANT	0	I/E Stability
CASPEED	IQUANT	1	Control Amp Speed
CONVENTION	IQUANT	1	Current Convention
ICHRANGE	IQUANT	2	Ich Range
ICHRANGEMODE	TOGGLE	F	Ich Auto Range
ICHOFFSETENABLE	TOGGLE	T	Ich Offset Enable
ICHOFFSET	QUANT	0	Ich Offset (V)
ICHFILTER	IQUANT	3	Ich Filter
VCHRANGE	IQUANT	2	Vch Range
VCHRANGEMODE	TOGGLE	F	Vch Auto Range
VCHOFFSETENABLE	TOGGLE	T	Vch Offset Enable
VCHOFFSET	QUANT	0	Vch Offset (V)
VCHFILTER	IQUANT	3	Vch Filter
ACHRANGE	IQUANT	2	Ach Range
ACHOFFSETENABLE	TOGGLE	F	Ach Offset Enable
ACHOFFSET	QUANT	0	Ach Offset (V)
ACHFILTER	IQUANT	3	Ach Filter
IERANGELOWERLIMIT	IQUANT	2	I/E Range Lower Limit
IERANGEMODE	TOGGLE	F	I/E AutoRange
IERANGE	IQUANT	11	I/E Range
POSFEEDENABLE	TOGGLE	F	Positive Feedback IR Comp
POSFEEDRESISTANCE	QUANT	0	Positive Feedback Resistance (ohm)
ACHSELECT	IQUANT	0	Ach Select
CABLEID	IQUANT	13	Cable ID
DCCALDATE	LABEL	9/10/2021	DC Calibration Date
ACCALDATE	LABEL	9/10/2021	AC Calibration Date
THERMOSELECT	IQUANT	1	Thermo Select
FRAMEWORKVERSION	QUANT	6.33	Framework Version
INSTRUMENTVERSION	LABEL	3.50	Instrument Version
COMPLIANCEVOLTAGE	IQUANT	0	Compliance Voltage
ZCURVE	TABLE
	Pt	Time	Freq	Zreal	Zimag	Zsig	Zmod	Zphz	Idc	Vdc	IERange
	#	s	Hz	ohm	ohm	V	ohm	°	A	V	#
	0	25	300046.9	751.4084	-165.8456	1	769.493	-12.44638	2.747325E-005	0.0004857	9
	1	41	238359.4	799.4922	-151.3705	1	813.6957	-10.7211	7.71897E-005	-0.0019832	9
	2	57	189328.1	847.1548	-138.6335	1	858.4233	-9.29385	-8.937459E-005	0.0020693	9
	3	70	150421.9	876.7695	-120.9159	1	885.068	-7.852169	2.380378E-005	-0.0016712	9
	4	79	119484.4	908.9505	-71.53319	1	911.7609	-4.499826	2.71063E-005	-0.014862	8
	5	85	94921.88	916.8101	-64.32439	1	919.0638	-4.013358	1.810266E-005	-0.0074682	8
	6	87	75421.88	929.1869	-55.70304	1	930.855	-3.43067	-1.836455E-005	0.0041045	8
	7	90	59859.37	938.8085	-49.73112	1	940.1248	-3.032272	8.584849E-006	0.0012272	8
	8	93	47578.12	949.8051	-50.00128	1	951.12	-3.013482	9.400463E-006	-0.0068599	8
	9	96	37828.12	960.832	-39.86709	1	961.659	-2.375968	3.103177E-006	-0.0055736	8
	10	99	30046.88	967.978	-40.70692	1	968.834	-2.408072	1.452125E-005	-0.0075812	8
	11	101	23859.38	982.056	-38.17941	1	982.798	-2.226368	-1.591913E-005	0.0073894	8
	12	105	18984.38	994.553	-38.04214	1	995.28	-2.190524	-1.934924E-005	0.0057	8
	13	108	15046.87	999.355	-38.37942	1	1000.092	-2.199317	-1.391853E-005	0.001016	8
	14	111	11953.13	1021.061	-42.86829	1	1021.96	-2.404098	9.729028E-006	-0.0070578	8
	15	113	9515.62	1026.83	-44.0973	1	1027.776	-2.459061	1.787838E-005	-0.0073415	8
	16	116	7546.875	1035.425	-48.39081	1	1036.556	-2.675782	-1.651158E-005	0.0075409	8
	17	118	5928.309	1053.305	-49.1249	1	1054.449	-2.670274	1.386017E-006	0.0041505	8
	18	122	4733.456	1069.598	-58.39537	1	1071.191	-3.124995	-1.955681E-005	0.0057236	8
	19	125	3796.875	1087.848	-62.51557	1	1089.643	-3.28901	-6.090105E-006	0.0062948	8
	20	127	2987.132	1101.815	-71.99281	1	1104.164	-3.738403	-1.707725E-005	0.0026063	8
	21	131	2390.625	1122.574	-77.80035	1	1125.267	-3.964563	-3.805499E-006	-0.0034085	8
	22	134	1884.191	1141.739	-84.18295	1	1144.839	-4.216913	-1.429033E-005	0.0010046	8
	23	137	1516.544	1164.551	-99.6176	1	1168.804	-4.889272	-6.100461E-006	0.0063231	8
	24	141	1193.986	1193.511	-112.5033	1	1198.802	-5.384928	1.526145E-005	-0.0078371	8
	25	145	946.5144	1218.78	-118.9968	1	1224.576	-5.576456	-1.227754E-005	0.0074859	8
	26	148	751.7689	1248.968	-137.9832	1	1256.567	-6.304346	9.083783E-006	0.001418	8
	27	150	597.4265	1274.79	-155.6166	1	1284.254	-6.959794	1.016287E-005	-0.0072727	8
	28	153	477.4305	1301.469	-168.1938	1	1312.292	-7.363739	-2.600307E-007	-0.0001202	8
	29	155	376.6741	1332.934	-186.1797	1	1345.874	-7.951439	-2.780849E-007	-0.0001251	8
	30	158	298.2954	1366.366	-205.8477	1	1381.785	-8.567375	-2.62522E-007	-0.0001103	8
	31	160	237.7717	1402.015	-226.7826	1	1420.238	-9.188282	-2.555413E-007	-0.0001139	8
	32	163	189.0121	1440.687	-250.1911	1	1462.25	-9.85179	-2.587038E-007	-0.0001128	8
	33	165	150.2404	1481.903	-276.1633	1	1507.416	-10.55639	-2.234625E-007	-0.0001319	8
	34	167	119.1737	1526.005	-305.2968	1	1556.245	-11.31339	-2.107488E-007	-0.0001307	8
	35	170	95.0169	1572.39	-337.5967	1	1608.223	-12.11761	-2.655016E-007	-0.0001107	8
	36	172	75.60484	1622.343	-374.7278	1	1665.058	-13.00605	-2.569911E-007	-0.0001129	8
	37	175	54.50582	1695.111	-437.1866	1	1750.581	-14.46201	-2.894727E-007	-0.000117	8
	38	177	45.95588	1741.208	-476.124	1	1805.131	-15.29337	-2.595298E-007	-0.0001056	8
	39	180	37.20238	1797.645	-530.441	1	1874.272	-16.44004	-3.25925E-007	-0.0001109	8
	40	182	30.04808	1860.013	-594.5809	1	1952.736	-17.72725	-2.583361E-007	-0.0001524	8
	41	185	23.91582	1929.218	-674.1541	1	2043.616	-19.26167	-3.559518E-007	-0.0001205	8
	42	187	18.60119	2014.369	-780.9252	1	2160.446	-21.19019	-3.901288E-007	-0.0001295	8
	43	189	15.02404	2091.991	-886.9635	1	2272.252	-22.976	-4.049582E-007	-0.0001021	8
	44	192	12.01923	2180.447	-1013.244	1	2404.373	-24.92408	-4.212591E-007	-0.0001149	8
	45	194	9.450605	2287.214	-1180.626	1	2573.951	-27.30211	-1.316663E-007	-0.0001134	8
	46	197	7.512019	2396.971	-1374.303	1	2763.002	-29.82781	-1.406927E-007	-0.0001034	8
	47	199	5.978954	2524.406	-1605.299	1	2991.59	-32.45276	-2.13119E-007	-0.0001081	8
	48	202	4.734848	2670.086	-1890.916	1	3271.838	-35.30558	-3.566783E-007	-0.0001394	8
	49	206	3.75601	2833.819	-2225.159	1	3603.035	-38.13956	-2.01221E-007	-0.0001179	8
	50	209	3.004808	3018.361	-2623.598	1	3999.221	-40.99759	-1.533657E-008	-0.0001561	7
	51	213	2.372217	3238.034	-3123.836	1	4499.247	-43.97163	-6.160072E-008	-0.0001757	7
	52	217	1.878005	3476.287	-3733.64	1	5101.436	-47.04426	-3.578369E-008	-9.369887E-005	7
	53	222	1.512097	3740.933	-4407.804	1	5781.29	-49.67851	-5.054457E-008	-0.0001881	7
	54	227	1.201923	4063.556	-5298.427	1	6677.261	-52.51409	-5.253481E-008	-7.544975E-005	7
	55	233	0.956633	4441.203	-6369.807	1	7765.226	-55.11474	-7.110192E-008	-0.0006537	7
