EXPLAIN
TAG	EISPOT
TITLE	LABEL	Potentiostatic EIS	Test Identifier
DATE	LABEL	11/21/2021	Date
TIME	LABEL	15:45:47	Time
NOTES	NOTES	1	Notes...
	
PSTAT	PSTAT	REF3000-16137	Potentiostat
VDC	POTEN	0.00000E+000	T	DC Voltage (V)
FREQINIT	QUANT	3.00000E+005	Initial Freq. (Hz)
FREQFINAL	QUANT	1.00000E+000	Final Freq. (Hz)
PTSPERDEC	QUANT	1.00000E+001	Points/decade
VAC	QUANT	5.00000E+001	AC Voltage (mV rms)
AREA	QUANT	1.00000E+000	Sample Area (cm^2)
SPEED	SELECTOR	2	Optimize for:
ZGUESS	QUANT	1.00000E+003	Estimated Z (ohms)
EOC	QUANT	0	Open Circuit (V)
SEQUENCER	TOGGLE	TRUE	Run as Sequence
PSTATMODEL	IQUANT	5	Pstat Model
PSTATSECTION	LABEL	REF3000-16137	Pstat Section
PSTATSERIALNO	LABEL	16137	Pstat Serial Number
CTRLMODE	IQUANT	1	Control Mode
IESTAB	IQUANT	0	I/E Stability
CASPEED	IQUANT	1	Control Amp Speed
CONVENTION	IQUANT	1	Current Convention
ICHRANGE	IQUANT	2	Ich Range
ICHRANGEMODE	TOGGLE	F	Ich Auto Range
ICHOFFSETENABLE	TOGGLE	T	Ich Offset Enable
ICHOFFSET	QUANT	0	Ich Offset (V)
ICHFILTER	IQUANT	3	Ich Filter
VCHRANGE	IQUANT	2	Vch Range
VCHRANGEMODE	TOGGLE	F	Vch Auto Range
VCHOFFSETENABLE	TOGGLE	T	Vch Offset Enable
VCHOFFSET	QUANT	0	Vch Offset (V)
VCHFILTER	IQUANT	3	Vch Filter
ACHRANGE	IQUANT	2	Ach Range
ACHOFFSETENABLE	TOGGLE	F	Ach Offset Enable
ACHOFFSET	QUANT	0	Ach Offset (V)
ACHFILTER	IQUANT	3	Ach Filter
IERANGELOWERLIMIT	IQUANT	2	I/E Range Lower Limit
IERANGEMODE	TOGGLE	F	I/E AutoRange
IERANGE	IQUANT	11	I/E Range
POSFEEDENABLE	TOGGLE	F	Positive Feedback IR Comp
POSFEEDRESISTANCE	QUANT	0	Positive Feedback Resistance (ohm)
ACHSELECT	IQUANT	0	Ach Select
CABLEID	IQUANT	13	Cable ID
DCCALDATE	LABEL	9/10/2021	DC Calibration Date
ACCALDATE	LABEL	9/10/2021	AC Calibration Date
THERMOSELECT	IQUANT	1	Thermo Select
FRAMEWORKVERSION	QUANT	6.33	Framework Version
INSTRUMENTVERSION	LABEL	3.50	Instrument Version
COMPLIANCEVOLTAGE	IQUANT	0	Compliance Voltage
ZCURVE	TABLE
	Pt	Time	Freq	Zreal	Zimag	Zsig	Zmod	Zphz	Idc	Vdc	IERange
	#	s	Hz	ohm	ohm	V	ohm	°	A	V	#
	0	17	300046.9	1807.18	-1911.957	1	2630.87	-46.61373	-7.094182E-005	0.0004598	9
	1	33	238359.4	2221.543	-1999.896	1	2989.12	-41.99443	-0.0001026	0.003479	9
	2	48	189328.1	2612.616	-1967.312	1	3270.486	-36.97992	-9.16299E-005	0.0020967	9
	3	58	150421.9	3093.536	-2096.814	1	3737.19	-34.12962	-7.853835E-005	0.0030243	9
	4	67	119484.4	3611.451	-1966.537	1	4112.158	-28.56954	-1.297164E-005	0.0015967	9
	5	76	94921.88	4034.023	-1706.39	1	4380.081	-22.92833	-1.648211E-005	0.000646	8
	6	84	75421.88	4393.997	-1534.702	1	4654.301	-19.2529	-2.436716E-005	0.0086136	8
	7	91	59859.37	4682.746	-1380.632	1	4882.034	-16.42731	5.378305E-006	-0.0073976	8
	8	99	47578.12	5330.02	-729.5831	1	5379.722	-7.794315	6.3262E-006	-0.0204989	7
	9	104	37828.12	5392.508	-616.2516	1	5427.606	-6.519435	3.143884E-006	-0.0215214	7
	10	106	30046.88	5465.561	-492.0536	1	5487.665	-5.144357	-1.752514E-006	0.0182868	7
	11	109	23859.38	5505.435	-428.3825	1	5522.076	-4.449268	6.278514E-006	-0.0157055	7
	12	112	18984.38	5497.083	-645.2537	1	5534.824	-6.694806	1.333777E-005	-0.0090904	8
	13	118	15046.87	5648.32	-553.4727	1	5675.372	-5.596485	-1.655667E-005	0.0095273	8
	14	123	11953.13	5809.274	-469.3707	1	5828.205	-4.619281	2.252042E-005	-0.0039896	8
	15	128	9515.62	5941.987	-414.7909	1	5956.447	-3.993155	-2.329508E-005	0.0048711	8
	16	135	7546.875	6078.267	-365.7964	1	6089.264	-3.443966	-1.648683E-005	0.0005907	8
	17	140	5928.309	6192.008	-285.9725	1	6198.608	-2.644276	-8.959803E-006	0.00829	8
	18	145	4733.456	6395.911	-252.193	1	6400.881	-2.258023	-2.192384E-005	0.0096904	8
	19	151	3796.875	6548.189	-293.6856	1	6554.771	-2.567989	-9.00457E-006	0.0082768	8
	20	156	2987.132	6650.319	-257.7098	1	6655.311	-2.219186	-1.643834E-006	0.0184304	7
	21	160	2390.625	6814.58	-272.2265	1	6820.015	-2.287616	-4.580418E-006	0.0222405	7
	22	165	1884.191	6915.692	-312.7358	1	6922.759	-2.58922	2.929125E-007	0.0135411	7
	23	169	1516.544	7046.072	-321.6063	1	7053.408	-2.613357	6.580889E-006	-0.0214524	7
	24	173	1193.986	7181.521	-341.779	1	7189.65	-2.724733	-1.60965E-006	0.0184103	7
	25	178	946.5144	7330.194	-406.5325	1	7341.458	-3.174371	-6.400497E-006	0.0155423	7
	26	180	751.7689	7533.806	-434.0136	1	7546.297	-3.297097	2.389632E-006	0.0066617	7
	27	183	597.4265	7506.57	-387.8322	1	7516.582	-2.957597	-1.556887E-006	0.0183902	7
	28	185	477.4305	7706.101	-505.2189	1	7722.645	-3.750995	-9.091373E-008	-8.090984E-005	7
	29	188	376.6741	7840.721	-562.1528	1	7860.847	-4.100894	-8.648907E-008	-0.0001394	7
	30	190	298.2954	7985.07	-623.606	1	8009.384	-4.465536	-8.785287E-008	-7.389597E-005	7
	31	192	237.7717	8138.917	-687.9462	1	8167.94	-4.831471	-8.555457E-008	-0.0001257	7
	32	195	189.0121	8303.464	-758.8096	1	8338.063	-5.221455	-7.569386E-008	-0.0001358	7
	33	197	150.2404	8483.624	-834.0538	1	8524.524	-5.614898	-8.584172E-008	-0.0001393	7
	34	200	119.1737	8668.977	-917.4957	1	8717.394	-6.041504	-1.026255E-007	-6.817598E-005	7
	35	202	95.0169	8868.633	-1005.014	1	8925.396	-6.465312	-8.047122E-008	-6.281852E-005	7
	36	205	75.60484	9083.184	-1102.69	1	9149.872	-6.921785	-7.92043E-008	-6.442585E-005	7
	37	207	54.50582	9374.958	-1256.047	1	9458.726	-7.630983	-9.181745E-008	-0.0001382	7
	38	210	45.95588	9580.22	-1347.022	1	9674.46	-8.00358	-1.081671E-007	-6.094931E-005	7
	39	212	37.20238	9814.5	-1469.965	1	9923.97	-8.518149	-7.078932E-008	-0.0001255	7
	40	214	30.04808	10076.16	-1608.051	1	10203.66	-9.067358	-7.336587E-008	-0.0001504	7
	41	217	23.91582	10361.06	-1770.111	1	10511.18	-9.69496	-8.436147E-008	-0.0001252	7
	42	219	18.60119	10691.63	-1977.22	1	10872.92	-10.47743	-2.29349E-008	-6.622243E-005	7
	43	222	15.02404	10983.76	-2165.559	1	11195.21	-11.15339	-8.901419E-008	-0.0001041	7
	44	224	12.01923	11323.82	-2402.929	1	11575.96	-11.98053	-1.003753E-007	-0.00016	7
	45	226	9.450605	11705.75	-2690.651	1	12011.01	-12.94499	-6.949914E-008	-8.824375E-005	7
	46	229	7.512019	12099.11	-3019.875	1	12470.29	-14.01439	-7.749814E-008	-0.0001562	7
	47	232	5.978954	12533.77	-3397.83	1	12986.17	-15.16799	-7.520693E-008	-5.975473E-005	7
	48	235	4.734848	13010.46	-3860.341	1	13571.08	-16.52618	-1.145844E-007	-0.0001506	7
	49	238	3.75601	13568.44	-4397.9	1	14263.39	-17.95892	-7.653359E-008	-0.000123	7
	50	241	3.004808	14132.42	-5024.641	1	14999.08	-19.57233	-4.836594E-008	-0.0001468	7
	51	245	2.372217	14845.78	-5805.828	1	15940.66	-21.35928	-1.185489E-007	-0.0001121	7
	52	249	1.878005	15605.16	-6707.46	1	16985.62	-23.25915	-1.106377E-007	-0.0001098	7
	53	254	1.512097	16404.14	-7707.52	1	18124.62	-25.16658	-9.039707E-008	-0.000241	7
	54	260	1.201923	17383.25	-9027.607	1	19587.62	-27.44412	-1.00617E-007	-0.0001049	7
	55	266	0.956633	18482.48	-10577.12	1	21295.01	-29.78157	-1.040183E-007	-0.0006584	7
