EXPLAIN
TAG	EISPOT
TITLE	LABEL	Potentiostatic EIS	Test Identifier
DATE	LABEL	11/21/2021	Date
TIME	LABEL	16:00:34	Time
NOTES	NOTES	1	Notes...
	
PSTAT	PSTAT	REF3000-16137	Potentiostat
VDC	POTEN	0.00000E+000	T	DC Voltage (V)
FREQINIT	QUANT	3.00000E+005	Initial Freq. (Hz)
FREQFINAL	QUANT	1.00000E+000	Final Freq. (Hz)
PTSPERDEC	QUANT	1.00000E+001	Points/decade
VAC	QUANT	5.00000E+001	AC Voltage (mV rms)
AREA	QUANT	1.00000E+000	Sample Area (cm^2)
SPEED	SELECTOR	2	Optimize for:
ZGUESS	QUANT	1.00000E+003	Estimated Z (ohms)
EOC	QUANT	0	Open Circuit (V)
SEQUENCER	TOGGLE	TRUE	Run as Sequence
PSTATMODEL	IQUANT	5	Pstat Model
PSTATSECTION	LABEL	REF3000-16137	Pstat Section
PSTATSERIALNO	LABEL	16137	Pstat Serial Number
CTRLMODE	IQUANT	1	Control Mode
IESTAB	IQUANT	0	I/E Stability
CASPEED	IQUANT	1	Control Amp Speed
CONVENTION	IQUANT	1	Current Convention
ICHRANGE	IQUANT	2	Ich Range
ICHRANGEMODE	TOGGLE	F	Ich Auto Range
ICHOFFSETENABLE	TOGGLE	T	Ich Offset Enable
ICHOFFSET	QUANT	0	Ich Offset (V)
ICHFILTER	IQUANT	3	Ich Filter
VCHRANGE	IQUANT	2	Vch Range
VCHRANGEMODE	TOGGLE	F	Vch Auto Range
VCHOFFSETENABLE	TOGGLE	T	Vch Offset Enable
VCHOFFSET	QUANT	0	Vch Offset (V)
VCHFILTER	IQUANT	3	Vch Filter
ACHRANGE	IQUANT	2	Ach Range
ACHOFFSETENABLE	TOGGLE	F	Ach Offset Enable
ACHOFFSET	QUANT	0	Ach Offset (V)
ACHFILTER	IQUANT	3	Ach Filter
IERANGELOWERLIMIT	IQUANT	2	I/E Range Lower Limit
IERANGEMODE	TOGGLE	F	I/E AutoRange
IERANGE	IQUANT	11	I/E Range
POSFEEDENABLE	TOGGLE	F	Positive Feedback IR Comp
POSFEEDRESISTANCE	QUANT	0	Positive Feedback Resistance (ohm)
ACHSELECT	IQUANT	0	Ach Select
CABLEID	IQUANT	13	Cable ID
DCCALDATE	LABEL	9/10/2021	DC Calibration Date
ACCALDATE	LABEL	9/10/2021	AC Calibration Date
THERMOSELECT	IQUANT	1	Thermo Select
FRAMEWORKVERSION	QUANT	6.33	Framework Version
INSTRUMENTVERSION	LABEL	3.50	Instrument Version
COMPLIANCEVOLTAGE	IQUANT	0	Compliance Voltage
ZCURVE	TABLE
	Pt	Time	Freq	Zreal	Zimag	Zsig	Zmod	Zphz	Idc	Vdc	IERange
	#	s	Hz	ohm	ohm	V	ohm	°	A	V	#
	0	17	300046.9	229.8862	-4211.515	1	4217.785	-86.8756	-8.669402E-005	0.0030932	9
	1	34	238359.4	283.8561	-5241.603	1	5249.283	-86.90021	-6.681406E-005	0.0005292	9
	2	53	189328.1	582.7042	-6382.156	1	6408.702	-84.78324	-2.242336E-005	0.0013203	9
	3	64	150421.9	755.7259	-8134.257	1	8169.288	-84.69209	-3.387562E-005	-0.000929	9
	4	71	119484.4	1219.802	-9880.05	1	9955.06	-82.96181	-3.611848E-005	0.019738	8
	5	79	94921.88	1852.18	-12604.67	1	12740.03	-81.64056	2.121841E-005	-0.0103227	8
	6	87	75421.88	2020.231	-15193.61	1	15327.33	-82.42605	9.744006E-006	0.0027258	8
	7	96	59859.37	3089.046	-19202.8	1	19449.67	-80.86144	-2.421567E-005	0.0048651	8
	8	105	47578.12	6832.372	-24227.24	1	25172.22	-74.25092	7.443286E-006	-0.0198703	7
	9	112	37828.12	7953.799	-30039.93	1	31075.07	-75.16986	5.151775E-006	-0.0033009	7
	10	120	30046.88	10674.24	-36430.74	1	37962.32	-73.66936	2.960826E-006	-0.0238485	7
	11	127	23859.38	8727.624	-45383.41	1	46214.99	-79.11442	2.589012E-005	-0.0061803	8
	12	134	18984.38	17418.06	-55104.45	1	57791.78	-72.45869	-1.295141E-006	0.0200607	7
	13	140	15046.87	24183.97	-66255.79	1	70531.51	-69.94746	-6.27923E-006	0.0249976	7
	14	145	11953.13	32510.2	-80902.49	1	87190.17	-68.10756	-6.949816E-006	0.0231562	7
	15	152	9515.62	36334.83	-96054.3	1	102696.9	-69.27968	2.10312E-005	-0.01032	8
	16	159	7546.875	51703.13	-120728.3	1	131333.6	-66.81647	2.336301E-005	-0.0039585	8
	17	167	5928.309	94017.38	-132126	1	162162.1	-54.56535	-3.296793E-006	0.0236298	7
	18	173	4733.456	116564.9	-156313.5	1	194990.4	-53.28765	4.914866E-006	-0.0266266	7
	19	179	3796.875	139711.7	-171773.6	1	221417.1	-50.87689	8.883419E-007	-0.0192442	7
	20	185	2987.132	197625	-163610.6	1	256562	-39.62082	-7.308744E-007	0.0176233	6
	21	189	2390.625	260511.6	-181602.5	1	317562.2	-34.88033	-2.885321E-006	-0.0053606	8
	22	197	1884.191	330121.8	-21541.71	1	330823.9	-3.733476	2.336138E-005	-0.0039171	8
	23	205	1516.544	131537.6	-593211.3	1	607619.8	-77.49763	-2.624076E-005	0.009086	8
	24	213	1193.986	494493.7	216141.6	1	539667.7	23.60999	-4.345288E-007	0.0063211	8
	25	221	946.5144	376779	-128323.2	1	398031.8	-18.8078	6.137909E-007	-0.0093266	6
	26	225	751.7689	376479.3	-123448.4	1	396202.2	-18.15443	7.219273E-007	-0.0177007	6
	27	230	597.4265	422459.4	-98765.5	1	433850.9	-13.15867	-6.536086E-007	0.0103696	6
	28	233	477.4305	438499.7	-99136.9	1	449566.5	-12.73937	-9.715167E-009	-0.0001887	6
	29	237	376.6741	476249	-44199.7	1	478295.7	-5.302315	-1.328924E-009	-0.0001079	5
	30	239	298.2954	481219.2	-40663.95	1	482934.2	-4.83013	-1.398093E-009	-3.212126E-005	5
	31	241	237.7717	486871.4	-40352.89	1	488540.8	-4.737961	-1.388511E-009	-1.556456E-005	5
	32	244	189.0121	494480.5	-41103.64	1	496186	-4.751781	-1.294122E-009	-0.0001047	5
	33	246	150.2404	503236.2	-43078.72	1	505076.7	-4.892785	-1.285021E-009	-6.234881E-005	5
	34	249	119.1737	510712.2	-46645.37	1	512837.9	-5.218572	-1.205711E-009	-0.0001015	5
	35	251	95.0169	526441.6	-48868.39	1	528704.9	-5.30344	-1.357821E-009	-6.26734E-005	5
	36	254	75.60484	540742.1	-51789.34	1	543216.5	-5.470791	-1.294098E-009	-0.0001113	5
	37	256	54.50582	558713.1	-54859.09	1	561399.9	-5.6078	-1.23937E-009	-0.0001106	5
	38	259	45.95588	573481.6	-56517.31	1	576259.8	-5.628394	-1.178936E-009	-2.557447E-005	5
	39	261	37.20238	589622.6	-57247.79	1	592395.2	-5.545595	-1.329294E-009	-0.0001101	5
	40	264	30.04808	605889.7	-57145.01	1	608578.6	-5.387963	-1.182786E-009	-4.361515E-005	5
	41	266	23.91582	623426.6	-55546.14	1	625896.2	-5.091503	-1.448929E-009	-0.0001137	5
	42	269	18.60119	639171.3	-53774.13	1	641429.3	-4.809028	-1.135215E-009	-6.860515E-005	5
	43	271	15.02404	654198.1	-51983.79	1	656260.2	-4.543282	-1.365431E-009	-1.005778E-005	5
	44	274	12.01923	669391.6	-50144.79	1	671267.1	-4.284082	-1.46002E-009	-2.650314E-005	5
	45	276	9.450605	683768.2	-49365.28	1	685547.9	-4.129357	-1.828727E-009	-4.097878E-005	5
	46	279	7.512019	699679.9	-48076.97	1	701329.7	-3.930776	-1.704288E-009	-2.524667E-005	5
	47	282	5.978954	718147.9	-48256.56	1	719767.4	-3.84426	-1.565657E-009	-8.818037E-005	5
	48	286	4.734848	737701.1	-49105.3	1	739333.6	-3.808294	-1.08964E-009	-8.125021E-005	5
	49	289	3.75601	760448.5	-50769.41	1	762141.4	-3.819539	-1.684765E-009	-8.074193E-005	5
	50	295	3.004808	789709.3	-53225.11	1	791500.9	-3.855811	-1.449816E-009	-8.085356E-005	5
	51	301	2.372217	817606.5	-56016.3	1	819523.2	-3.919355	-1.390045E-009	1.808326E-005	5
	52	305	1.878005	843398.3	-60031.3	1	845532	-4.071326	-1.915353E-009	-7.561189E-005	5
	53	310	1.512097	872265.7	-64515.96	1	874648.4	-4.230103	-2.017756E-009	-2.411747E-005	5
	54	316	1.201923	905558	-69633.37	1	908231.3	-4.397137	-1.652586E-009	-9.43357E-005	5
	55	322	0.956633	944560.1	-76212.63	1	947629.7	-4.612965	-2.556223E-009	-0.0006087	5
