EXPLAIN
TAG	EISPOT
TITLE	LABEL	Potentiostatic EIS	Test Identifier
DATE	LABEL	11/21/2021	Date
TIME	LABEL	15:08:25	Time
NOTES	NOTES	1	Notes...
	
PSTAT	PSTAT	REF3000-16137	Potentiostat
VDC	POTEN	0.00000E+000	T	DC Voltage (V)
FREQINIT	QUANT	3.00000E+005	Initial Freq. (Hz)
FREQFINAL	QUANT	1.00000E+000	Final Freq. (Hz)
PTSPERDEC	QUANT	1.00000E+001	Points/decade
VAC	QUANT	5.00000E+001	AC Voltage (mV rms)
AREA	QUANT	1.00000E+000	Sample Area (cm^2)
SPEED	SELECTOR	2	Optimize for:
ZGUESS	QUANT	1.00000E+003	Estimated Z (ohms)
EOC	QUANT	0	Open Circuit (V)
SEQUENCER	TOGGLE	TRUE	Run as Sequence
PSTATMODEL	IQUANT	5	Pstat Model
PSTATSECTION	LABEL	REF3000-16137	Pstat Section
PSTATSERIALNO	LABEL	16137	Pstat Serial Number
CTRLMODE	IQUANT	1	Control Mode
IESTAB	IQUANT	0	I/E Stability
CASPEED	IQUANT	1	Control Amp Speed
CONVENTION	IQUANT	1	Current Convention
ICHRANGE	IQUANT	2	Ich Range
ICHRANGEMODE	TOGGLE	F	Ich Auto Range
ICHOFFSETENABLE	TOGGLE	T	Ich Offset Enable
ICHOFFSET	QUANT	0	Ich Offset (V)
ICHFILTER	IQUANT	3	Ich Filter
VCHRANGE	IQUANT	2	Vch Range
VCHRANGEMODE	TOGGLE	F	Vch Auto Range
VCHOFFSETENABLE	TOGGLE	T	Vch Offset Enable
VCHOFFSET	QUANT	0	Vch Offset (V)
VCHFILTER	IQUANT	3	Vch Filter
ACHRANGE	IQUANT	2	Ach Range
ACHOFFSETENABLE	TOGGLE	F	Ach Offset Enable
ACHOFFSET	QUANT	0	Ach Offset (V)
ACHFILTER	IQUANT	3	Ach Filter
IERANGELOWERLIMIT	IQUANT	2	I/E Range Lower Limit
IERANGEMODE	TOGGLE	F	I/E AutoRange
IERANGE	IQUANT	11	I/E Range
POSFEEDENABLE	TOGGLE	F	Positive Feedback IR Comp
POSFEEDRESISTANCE	QUANT	0	Positive Feedback Resistance (ohm)
ACHSELECT	IQUANT	0	Ach Select
CABLEID	IQUANT	13	Cable ID
DCCALDATE	LABEL	9/10/2021	DC Calibration Date
ACCALDATE	LABEL	9/10/2021	AC Calibration Date
THERMOSELECT	IQUANT	1	Thermo Select
FRAMEWORKVERSION	QUANT	6.33	Framework Version
INSTRUMENTVERSION	LABEL	3.50	Instrument Version
COMPLIANCEVOLTAGE	IQUANT	0	Compliance Voltage
ZCURVE	TABLE
	Pt	Time	Freq	Zreal	Zimag	Zsig	Zmod	Zphz	Idc	Vdc	IERange
	#	s	Hz	ohm	ohm	V	ohm	°	A	V	#
	0	7	300046.9	26.21773	0.1604384	1	26.21822	0.350615	-0.0001581	-0.0010318	11
	1	12	238359.4	26.60567	-0.133023	1	26.606	-0.286465	2.903786E-005	-0.0003616	10
	2	15	189328.1	26.95043	-0.7274705	1	26.96024	-1.546204	1.862502E-005	-0.0003488	10
	3	19	150421.9	27.29749	-1.242563	1	27.32576	-2.606265	2.195142E-005	-0.000271	10
	4	21	119484.4	27.68739	-1.779434	1	27.74451	-3.67727	7.581844E-006	-5.122487E-006	10
	5	24	94921.88	28.1269	-2.338591	1	28.22395	-4.752886	2.448593E-005	-0.0001212	10
	6	26	75421.88	28.61805	-2.85747	1	28.76036	-5.701999	5.964606E-006	-0.0001835	10
	7	29	59859.37	29.20914	-3.401042	1	29.40647	-6.641478	6.71213E-006	-0.0001882	10
	8	31	47578.12	29.8178	-3.943831	1	30.07748	-7.534454	-2.329093E-005	-6.004703E-005	10
	9	34	37828.12	30.4652	-4.485501	1	30.79364	-8.375688	-1.24686E-005	-6.562528E-005	10
	10	36	30046.88	31.27166	-5.083073	1	31.68209	-9.232435	-2.04241E-005	-0.0001213	10
	11	39	23859.38	32.12738	-5.665648	1	32.62312	-10.00125	-2.092741E-005	-7.172664E-005	10
	12	41	18984.38	33.0429	-6.260023	1	33.63065	-10.72763	2.662709E-005	-0.0001117	10
	13	44	15046.87	34.11848	-6.882312	1	34.80571	-11.40455	2.157225E-005	-0.0001684	10
	14	46	11953.13	35.23242	-7.493147	1	36.02042	-12.00664	-2.484741E-005	-0.0001221	10
	15	48	9515.62	36.40397	-8.042171	1	37.2817	-12.4574	1.654518E-005	-0.0005544	9
	16	50	7546.875	37.71521	-8.636782	1	38.69149	-12.89833	6.112357E-006	-0.0004899	9
	17	53	5928.309	39.23894	-9.314672	1	40.32936	-13.35389	1.492688E-005	-0.0005011	9
	18	55	4733.456	40.66943	-9.91761	1	41.86121	-13.70462	-3.93698E-006	-0.0002177	9
	19	57	3796.875	41.97442	-10.488	1	43.26488	-14.02904	9.672384E-006	-0.000535	9
	20	60	2987.132	43.47301	-11.20325	1	44.89338	-14.45102	-1.131723E-005	5.903661E-005	9
	21	62	2390.625	44.91472	-11.95008	1	46.47727	-14.89904	-1.225497E-005	6.233356E-005	9
	22	64	1884.191	46.43992	-12.87278	1	48.19102	-15.49295	1.015189E-005	-0.0005514	9
	23	67	1516.544	48.05767	-13.94037	1	50.03872	-16.17617	-2.460212E-006	0.0001424	9
	24	69	1193.986	49.46064	-15.25214	1	51.7589	-17.13816	1.473416E-005	-0.0005549	9
	25	72	946.5144	51.17177	-16.9178	1	53.89584	-18.2943	2.383242E-006	-3.86809E-005	9
	26	74	751.7689	52.97781	-18.89176	1	56.24542	-19.62611	-1.175638E-005	7.264307E-005	9
	27	76	597.4265	54.8674	-21.31774	1	58.86321	-21.23274	1.464975E-005	-0.0005592	9
	28	79	477.4305	56.84473	-24.19673	1	61.7803	-23.05769	4.812668E-007	-0.0001222	9
	29	81	376.6741	59.10392	-27.86082	1	65.3414	-25.23858	5.006216E-007	-0.0001362	9
	30	83	298.2954	63.44633	-32.43233	1	71.25513	-27.07509	5.333405E-007	-0.0001337	9
	31	85	237.7717	65.87682	-37.54554	1	75.82495	-29.68035	5.069043E-007	-0.0001278	9
	32	88	189.0121	68.90245	-43.82587	1	81.65939	-32.45868	5.175735E-007	-0.000124	9
	33	90	150.2404	72.32362	-51.41983	1	88.73954	-35.41164	4.929965E-007	-0.0001274	9
	34	93	119.1737	76.1406	-60.69265	1	97.3704	-38.5588	4.480426E-007	-0.0001249	9
	35	95	95.0169	80.54395	-71.66534	1	107.8112	-41.66163	6.200441E-007	-0.0001337	9
	36	98	75.60484	85.51288	-85.04091	1	120.6002	-44.84145	5.577268E-007	-0.0001296	9
	37	100	54.50582	93.80991	-109.1563	1	143.9285	-49.32395	9.079536E-007	-0.0001707	9
	38	103	45.95588	99.2407	-124.6476	1	159.3291	-51.47425	6.1491E-007	-0.0001241	9
	39	105	37.20238	106.8609	-147.0518	1	181.7787	-53.9945	5.075972E-007	-0.0001182	9
	40	109	30.04808	116.0588	-174.1182	1	209.2529	-56.31448	6.346348E-007	-0.0001311	9
	41	111	23.91582	127.6636	-208.6605	1	244.6164	-58.54067	6.705321E-007	-0.0001276	9
	42	113	18.60119	143.3226	-254.905	1	292.4345	-60.65273	5.25893E-007	-0.0001308	9
	43	116	15.02404	159.5568	-302.1625	1	341.7024	-62.16373	2.925912E-007	-0.0001309	9
	44	118	12.01923	180.0604	-360.477	1	402.9459	-63.4576	6.154415E-007	-0.0001272	9
	45	120	9.450605	206.0876	-433.5406	1	480.0308	-64.57549	3.132332E-007	-0.0001086	8
	46	123	7.512019	236.6193	-518.3608	1	569.8128	-65.46443	3.669354E-007	-0.0001384	8
	47	126	5.978954	271.1177	-617.9924	1	674.8477	-66.31259	3.4742E-007	-0.0001095	8
	48	129	4.734848	311.7335	-740.163	1	803.1308	-67.1607	4.542867E-007	-0.0001542	8
	49	132	3.75601	355.4055	-886.5546	1	955.14	-68.15495	4.053915E-007	-0.0001158	8
	50	135	3.004808	401.385	-1057.282	1	1130.909	-69.2113	4.63028E-007	-0.0001424	8
	51	139	2.372217	454.7885	-1280.372	1	1358.744	-70.44494	4.529083E-007	-0.0001569	8
	52	143	1.878005	517.2432	-1555.378	1	1639.128	-71.60538	4.295129E-007	-0.0001024	8
	53	148	1.512097	584.1652	-1870.046	1	1959.164	-72.65224	4.31678E-007	-0.0002277	8
	54	153	1.201923	668.2141	-2284.215	1	2379.947	-73.69392	4.283456E-007	-0.0000995	8
	55	160	0.956633	771.1394	-2792.476	1	2896.994	-74.56256	4.187828E-007	-0.0006585	8
