EXPLAIN
TAG	EISPOT
TITLE	LABEL	Potentiostatic EIS	Test Identifier
DATE	LABEL	11/21/2021	Date
TIME	LABEL	14:23:21	Time
NOTES	NOTES	1	Notes...
	
PSTAT	PSTAT	REF3000-16137	Potentiostat
VDC	POTEN	0.00000E+000	T	DC Voltage (V)
FREQINIT	QUANT	3.00000E+005	Initial Freq. (Hz)
FREQFINAL	QUANT	1.00000E+000	Final Freq. (Hz)
PTSPERDEC	QUANT	1.00000E+001	Points/decade
VAC	QUANT	5.00000E+001	AC Voltage (mV rms)
AREA	QUANT	1.00000E+000	Sample Area (cm^2)
SPEED	SELECTOR	2	Optimize for:
ZGUESS	QUANT	1.00000E+003	Estimated Z (ohms)
EOC	QUANT	0	Open Circuit (V)
SEQUENCER	TOGGLE	TRUE	Run as Sequence
PSTATMODEL	IQUANT	5	Pstat Model
PSTATSECTION	LABEL	REF3000-16137	Pstat Section
PSTATSERIALNO	LABEL	16137	Pstat Serial Number
CTRLMODE	IQUANT	1	Control Mode
IESTAB	IQUANT	0	I/E Stability
CASPEED	IQUANT	1	Control Amp Speed
CONVENTION	IQUANT	1	Current Convention
ICHRANGE	IQUANT	2	Ich Range
ICHRANGEMODE	TOGGLE	F	Ich Auto Range
ICHOFFSETENABLE	TOGGLE	T	Ich Offset Enable
ICHOFFSET	QUANT	0	Ich Offset (V)
ICHFILTER	IQUANT	3	Ich Filter
VCHRANGE	IQUANT	2	Vch Range
VCHRANGEMODE	TOGGLE	F	Vch Auto Range
VCHOFFSETENABLE	TOGGLE	T	Vch Offset Enable
VCHOFFSET	QUANT	0	Vch Offset (V)
VCHFILTER	IQUANT	3	Vch Filter
ACHRANGE	IQUANT	2	Ach Range
ACHOFFSETENABLE	TOGGLE	F	Ach Offset Enable
ACHOFFSET	QUANT	0	Ach Offset (V)
ACHFILTER	IQUANT	3	Ach Filter
IERANGELOWERLIMIT	IQUANT	2	I/E Range Lower Limit
IERANGEMODE	TOGGLE	F	I/E AutoRange
IERANGE	IQUANT	11	I/E Range
POSFEEDENABLE	TOGGLE	F	Positive Feedback IR Comp
POSFEEDRESISTANCE	QUANT	0	Positive Feedback Resistance (ohm)
ACHSELECT	IQUANT	0	Ach Select
CABLEID	IQUANT	13	Cable ID
DCCALDATE	LABEL	9/10/2021	DC Calibration Date
ACCALDATE	LABEL	9/10/2021	AC Calibration Date
THERMOSELECT	IQUANT	1	Thermo Select
FRAMEWORKVERSION	QUANT	6.33	Framework Version
INSTRUMENTVERSION	LABEL	3.50	Instrument Version
COMPLIANCEVOLTAGE	IQUANT	0	Compliance Voltage
ZCURVE	TABLE
	Pt	Time	Freq	Zreal	Zimag	Zsig	Zmod	Zphz	Idc	Vdc	IERange
	#	s	Hz	ohm	ohm	V	ohm	°	A	V	#
	0	10	300046.9	1.858882	2.240721	1	2.911404	50.3212	-5.3511E-005	-0.0006161	11
	1	13	238359.4	1.951241	1.579602	1	2.510475	38.99144	-0.0001445	-0.0013069	12
	2	18	189328.1	1.886992	1.212624	1	2.243033	32.72571	-3.880086E-005	-0.0008982	12
	3	21	150421.9	1.811839	1.023746	1	2.081061	29.46782	3.084618E-005	-0.0002047	11
	4	24	119484.4	1.826517	0.7603619	1	1.978462	22.60151	-7.253515E-005	5.446035E-005	11
	5	26	94921.88	1.84407	0.5427402	1	1.92228	16.40002	-5.985822E-005	0.0001209	11
	6	29	75421.88	1.863767	0.3648928	1	1.899151	11.07739	-9.453516E-005	0.0001359	11
	7	31	59859.37	1.888175	0.2151804	1	1.900397	6.501499	-6.495572E-005	0.0002059	11
	8	34	47578.12	1.914956	0.0882272	1	1.916987	2.637906	-2.829057E-005	0.0002972	11
	9	36	37828.12	1.943161	-0.0237771	1	1.943306	-0.7010534	-2.55878E-005	0.0003429	11
	10	39	30046.88	1.972519	-0.1274587	1	1.976633	-3.697153	-8.357128E-005	0.0003123	11
	11	41	23859.38	2.003884	-0.2271581	1	2.016718	-6.46738	-2.834138E-005	0.0003494	11
	12	44	18984.38	2.038236	-0.3266063	1	2.064238	-9.103666	-5.665157E-005	0.000367	11
	13	46	15046.87	2.07331	-0.433136	1	2.118071	-11.79997	-7.454073E-005	0.0003382	11
	14	48	11953.13	2.111456	-0.549041	1	2.181672	-14.5758	-2.707593E-005	0.000389	11
	15	51	9515.62	2.151834	-0.6800809	1	2.256746	-17.53899	-5.947172E-005	0.0003747	11
	16	53	7546.875	2.196218	-0.8344361	1	2.349396	-20.8039	-6.499462E-005	0.0003749	11
	17	55	5928.309	2.244468	-1.026706	1	2.46815	-24.58117	-1.720173E-005	0.0003942	11
	18	58	4733.456	2.295214	-1.244687	1	2.610987	-28.47083	-3.405486E-005	0.0003926	11
	19	60	3796.875	2.349954	-1.504547	1	2.790331	-32.6292	-5.051275E-005	0.000376	11
	20	62	2987.132	2.416744	-1.850847	1	3.044057	-37.44646	-3.370017E-005	0.000367	11
	21	64	2390.625	2.489587	-2.250438	1	3.355968	-42.1117	-6.826468E-005	0.0003672	11
	22	67	1884.191	2.586329	-2.776045	1	3.794143	-47.02622	-7.013165E-005	0.0003781	11
	23	69	1516.544	2.697377	-3.37175	1	4.317933	-51.34042	-2.060184E-005	-0.0001093	10
	24	71	1193.986	2.849194	-4.175622	1	5.05507	-55.69272	7.108287E-006	-0.0001338	10
	25	74	946.5144	3.042326	-5.14422	1	5.976517	-59.39965	9.682771E-006	-0.000122	10
	26	76	751.7689	3.298103	-6.31849	1	7.127468	-62.4365	-2.777196E-005	-0.0001088	10
	27	78	597.4265	3.628514	-7.744286	1	8.552197	-64.89499	1.859999E-005	-0.0001347	10
	28	81	477.4305	4.059247	-9.441951	1	10.27754	-66.73635	-3.511137E-006	-0.0001168	10
	29	83	376.6741	4.650059	-11.59728	1	12.49479	-68.15112	-3.215067E-006	-0.0001158	10
	30	85	298.2954	5.407341	-14.15705	1	15.15458	-69.09544	-3.185567E-006	-0.0001094	10
	31	88	237.7717	6.348654	-17.12265	1	18.26172	-69.65647	-4.002662E-006	-0.0001141	10
	32	90	189.0121	7.545306	-20.67773	1	22.01136	-69.95297	-3.623373E-006	-0.0001115	10
	33	92	150.2404	9.013787	-24.86696	1	26.45022	-70.07541	-3.546888E-006	-0.0001144	10
	34	95	119.1737	10.78377	-29.84981	1	31.73801	-70.13685	-3.996913E-006	-0.0001074	10
	35	97	95.0169	12.77278	-35.58315	1	37.80614	-70.2541	-4.257461E-006	-0.0001088	10
	36	100	75.60484	14.99084	-42.41043	1	44.98188	-70.533	-2.959461E-006	-0.0001273	9
	37	102	54.50582	18.5412	-54.79089	1	57.84304	-71.30421	-2.835366E-006	-0.0001237	9
	38	105	45.95588	20.59807	-62.83933	1	66.12914	-71.8514	-2.704093E-006	-0.0001132	9
	39	107	37.20238	23.36362	-74.68162	1	78.25089	-72.62807	-2.643985E-006	-0.0001216	9
	40	110	30.04808	26.59354	-89.3613	1	93.23443	-73.42722	-2.769242E-006	-0.0001252	9
	41	112	23.91582	30.68489	-108.6452	1	112.8953	-74.22862	-2.852933E-006	-0.0001262	9
	42	114	18.60119	36.50554	-135.2979	1	140.1362	-74.90025	-2.586391E-006	-0.0001329	9
	43	117	15.02404	42.88009	-163.354	1	168.8883	-75.29181	-2.496424E-006	-0.0001705	9
	44	119	12.01923	51.60224	-198.9464	1	205.5297	-75.45919	-2.82309E-006	-0.0001275	9
	45	121	9.450605	64.47621	-245.9679	1	254.2782	-75.31139	-2.596352E-006	-0.0001175	9
	46	124	7.512019	81.09144	-301.0298	1	311.7608	-74.92354	-2.466234E-006	-0.0001061	9
	47	126	5.978954	103.9065	-366.8052	1	381.2383	-74.18394	-2.745028E-006	-0.0001236	9
	48	130	4.734848	135.3186	-445.9191	1	465.9989	-73.11906	-2.396505E-006	-0.0001196	8
	49	134	3.75601	178.2842	-540.3981	1	569.0477	-71.74162	-2.390203E-006	-0.0001037	8
	50	137	3.004808	234.2206	-645.9482	1	687.1014	-70.06937	-2.310367E-006	-0.0001295	8
	51	141	2.372217	315.1589	-774.3596	1	836.037	-67.85403	-2.421943E-006	-0.0001731	8
	52	145	1.878005	420.1305	-917.1203	1	1008.771	-65.3876	-2.284462E-006	-0.0001048	8
	53	150	1.512097	543.9183	-1058.081	1	1189.699	-62.79407	-2.355359E-006	-0.0001033	8
	54	155	1.201923	714.4148	-1217.011	1	1411.207	-59.58604	-2.298483E-006	-9.301939E-005	8
	55	161	0.956633	919.5404	-1371.968	1	1651.62	-56.16863	-2.575652E-006	-0.0006593	8
