EXPLAIN
TAG	EISPOT
TITLE	LABEL	Potentiostatic EIS	Test Identifier
DATE	LABEL	11/21/2021	Date
TIME	LABEL	14:46:02	Time
NOTES	NOTES	1	Notes...
	
PSTAT	PSTAT	REF3000-16137	Potentiostat
VDC	POTEN	0.00000E+000	T	DC Voltage (V)
FREQINIT	QUANT	3.00000E+005	Initial Freq. (Hz)
FREQFINAL	QUANT	1.00000E+000	Final Freq. (Hz)
PTSPERDEC	QUANT	1.00000E+001	Points/decade
VAC	QUANT	5.00000E+001	AC Voltage (mV rms)
AREA	QUANT	1.00000E+000	Sample Area (cm^2)
SPEED	SELECTOR	2	Optimize for:
ZGUESS	QUANT	1.00000E+003	Estimated Z (ohms)
EOC	QUANT	0	Open Circuit (V)
SEQUENCER	TOGGLE	TRUE	Run as Sequence
PSTATMODEL	IQUANT	5	Pstat Model
PSTATSECTION	LABEL	REF3000-16137	Pstat Section
PSTATSERIALNO	LABEL	16137	Pstat Serial Number
CTRLMODE	IQUANT	1	Control Mode
IESTAB	IQUANT	0	I/E Stability
CASPEED	IQUANT	1	Control Amp Speed
CONVENTION	IQUANT	1	Current Convention
ICHRANGE	IQUANT	2	Ich Range
ICHRANGEMODE	TOGGLE	F	Ich Auto Range
ICHOFFSETENABLE	TOGGLE	T	Ich Offset Enable
ICHOFFSET	QUANT	0	Ich Offset (V)
ICHFILTER	IQUANT	3	Ich Filter
VCHRANGE	IQUANT	2	Vch Range
VCHRANGEMODE	TOGGLE	F	Vch Auto Range
VCHOFFSETENABLE	TOGGLE	T	Vch Offset Enable
VCHOFFSET	QUANT	0	Vch Offset (V)
VCHFILTER	IQUANT	3	Vch Filter
ACHRANGE	IQUANT	2	Ach Range
ACHOFFSETENABLE	TOGGLE	F	Ach Offset Enable
ACHOFFSET	QUANT	0	Ach Offset (V)
ACHFILTER	IQUANT	3	Ach Filter
IERANGELOWERLIMIT	IQUANT	2	I/E Range Lower Limit
IERANGEMODE	TOGGLE	F	I/E AutoRange
IERANGE	IQUANT	11	I/E Range
POSFEEDENABLE	TOGGLE	F	Positive Feedback IR Comp
POSFEEDRESISTANCE	QUANT	0	Positive Feedback Resistance (ohm)
ACHSELECT	IQUANT	0	Ach Select
CABLEID	IQUANT	13	Cable ID
DCCALDATE	LABEL	9/10/2021	DC Calibration Date
ACCALDATE	LABEL	9/10/2021	AC Calibration Date
THERMOSELECT	IQUANT	1	Thermo Select
FRAMEWORKVERSION	QUANT	6.33	Framework Version
INSTRUMENTVERSION	LABEL	3.50	Instrument Version
COMPLIANCEVOLTAGE	IQUANT	0	Compliance Voltage
ZCURVE	TABLE
	Pt	Time	Freq	Zreal	Zimag	Zsig	Zmod	Zphz	Idc	Vdc	IERange
	#	s	Hz	ohm	ohm	V	ohm	°	A	V	#
	0	11	300046.9	3.268062	1.780335	1	3.721535	28.58013	-2.77599E-005	-0.001008	10
	1	14	238359.4	3.2979	1.161253	1	3.496377	19.39814	1.452867E-005	-0.0013407	10
	2	17	189328.1	3.404598	0.5362564	1	3.446572	8.951088	-1.180406E-005	-0.0010006	10
	3	19	150421.9	3.457678	-0.1699102	1	3.46185	-2.81325	-0.000159	-0.0007375	12
	4	23	119484.4	3.584442	-0.4365843	1	3.610932	-6.944407	-5.981897E-005	0.0001967	11
	5	26	94921.88	3.727669	-0.8400334	1	3.821148	-12.69952	3.502105E-006	-0.000178	10
	6	28	75421.88	3.881563	-1.283754	1	4.088344	-18.30067	3.804758E-005	-0.0002531	10
	7	31	59859.37	4.075301	-1.731041	1	4.427706	-23.01404	1.576801E-006	-0.0001466	10
	8	33	47578.12	4.31906	-2.167097	1	4.832245	-26.64529	2.109678E-005	-0.0001462	10
	9	36	37828.12	4.626412	-2.649454	1	5.331351	-29.79891	1.267377E-005	-0.0001398	10
	10	38	30046.88	5.014985	-3.165613	1	5.93053	-32.26139	-3.025692E-005	-0.0001054	10
	11	41	23859.38	5.499987	-3.691134	1	6.623769	-33.86623	2.475887E-005	-0.0001222	10
	12	43	18984.38	6.091397	-4.211228	1	7.405374	-34.65767	2.127479E-005	-0.0001226	10
	13	45	15046.87	6.810012	-4.732038	1	8.292674	-34.79408	2.01819E-005	-0.0001142	10
	14	49	11953.13	7.637092	-5.13486	1	9.202824	-33.91523	-2.023201E-005	-0.0001436	10
	15	52	9515.62	8.54493	-5.505507	1	10.16496	-32.79372	1.288561E-005	-0.0001385	10
	16	54	7546.875	9.53497	-5.796171	1	11.15846	-31.29481	-3.184821E-005	-0.0001212	10
	17	56	5928.309	10.5796	-5.979305	1	12.15237	-29.47397	-1.904462E-005	-0.0001036	10
	18	59	4733.456	11.52663	-6.066319	1	13.02549	-27.75725	8.827325E-006	-0.0001283	10
	19	61	3796.875	12.39738	-6.110089	1	13.8213	-26.23652	-2.438245E-005	-0.0001242	10
	20	63	2987.132	13.23379	-6.126441	1	14.58309	-24.84127	-2.534021E-005	-0.0001095	10
	21	66	2390.625	13.89752	-6.161236	1	15.20204	-23.90931	-1.080623E-005	-0.0001255	10
	22	68	1884.191	14.54242	-6.344528	1	15.86616	-23.57055	-2.291385E-005	-0.0001044	10
	23	70	1516.544	15.05103	-6.635956	1	16.44899	-23.79255	-1.902589E-005	-0.0001043	10
	24	73	1193.986	15.57249	-7.148989	1	17.13507	-24.65882	-2.484306E-005	-0.000102	10
	25	75	946.5144	16.0448	-7.909954	1	17.88863	-26.24292	-1.514417E-005	-0.0001265	10
	26	77	751.7689	16.5089	-8.907818	1	18.75881	-28.35026	7.670367E-006	-0.0001343	10
	27	80	597.4265	16.97878	-10.25345	1	19.83462	-31.12769	-3.710757E-006	-0.0001346	10
	28	82	477.4305	17.5535	-11.9692	1	21.24587	-34.28889	-1.260392E-006	-0.0001127	10
	29	84	376.6741	18.22179	-14.24196	1	23.12719	-38.01082	2.084823E-006	-0.0001578	10
	30	87	298.2954	17.56038	-16.83569	1	24.32709	-43.79301	-1.544228E-006	-0.0001098	10
	31	89	237.7717	18.50946	-20.2137	1	27.40792	-47.52002	-1.556902E-006	-0.0001073	10
	32	91	189.0121	19.68495	-24.3471	1	31.30939	-51.044	-1.996003E-006	-0.0001074	10
	33	94	150.2404	21.24697	-29.31366	1	36.20393	-54.06485	-1.761737E-006	-0.0001057	10
	34	96	119.1737	23.199	-35.24142	1	42.19184	-56.64358	-4.716914E-007	-0.0001236	9
	35	98	95.0169	25.57357	-42.12594	1	49.28085	-58.73915	-4.854765E-007	-0.0001276	9
	36	101	75.60484	28.40271	-50.29666	1	57.76217	-60.54642	-5.466111E-007	-0.0001215	9
	37	103	54.50582	33.23427	-64.61428	1	72.66032	-62.78103	-5.739349E-007	-0.0001293	9
	38	106	45.95588	35.91354	-73.66908	1	81.95679	-64.01085	-3.881905E-007	-0.0001219	9
	39	108	37.20238	39.54119	-86.81613	1	95.3968	-65.51268	-4.165362E-007	-0.0001247	9
	40	111	30.04808	43.50716	-102.8434	1	111.6675	-67.06955	-4.86039E-007	-0.0001221	9
	41	113	23.91582	48.16822	-123.8708	1	132.9065	-68.751	-6.1624E-007	-0.0001226	9
	42	115	18.60119	54.07967	-152.8782	1	162.1615	-70.5191	-5.334326E-007	-0.0001146	9
	43	118	15.02404	59.96019	-183.6217	1	193.1636	-71.91597	-3.195175E-007	-0.0001125	9
	44	120	12.01923	67.71298	-223.1608	1	233.2076	-73.1208	-5.918919E-007	-0.0001224	9
	45	122	9.450605	78.41969	-276.1042	1	287.0247	-74.14429	-5.463216E-007	-0.0001164	9
	46	125	7.512019	91.84814	-338.6594	1	350.8936	-74.82578	-4.559349E-007	-0.0001764	9
	47	128	5.978954	109.3949	-413.2401	1	427.4747	-75.17251	-3.079817E-007	-0.000112	8
	48	131	4.734848	133.9393	-509.0057	1	526.3331	-75.25745	-4.300871E-007	-0.0001196	8
	49	134	3.75601	166.9282	-624.2572	1	646.1904	-75.02921	-2.894493E-007	-0.0001067	8
	50	137	3.004808	210.4836	-758.127	1	786.8035	-74.48341	-4.292765E-007	-8.449508E-005	8
	51	141	2.372217	272.6234	-928.9729	1	968.15	-73.64474	-3.426374E-007	-4.578903E-005	8
	52	145	1.878005	357.8077	-1129.765	1	1185.072	-72.42649	-3.891502E-007	-0.000134	8
	53	150	1.512097	463.1455	-1346.173	1	1423.617	-71.01443	-3.393122E-007	-4.249138E-005	8
	54	155	1.201923	609.5989	-1616.577	1	1727.696	-69.33893	-3.407975E-007	-0.0001389	8
	55	162	0.956633	801.7171	-1921.702	1	2082.232	-67.35453	-4.581769E-007	-0.0006621	8
