EXPLAIN
TAG	EISPOT
TITLE	LABEL	Potentiostatic EIS	Test Identifier
DATE	LABEL	11/21/2021	Date
TIME	LABEL	14:03:29	Time
NOTES	NOTES	1	Notes...
	
PSTAT	PSTAT	REF3000-16137	Potentiostat
VDC	POTEN	0.00000E+000	T	DC Voltage (V)
FREQINIT	QUANT	3.00000E+005	Initial Freq. (Hz)
FREQFINAL	QUANT	1.00000E+000	Final Freq. (Hz)
PTSPERDEC	QUANT	1.00000E+001	Points/decade
VAC	QUANT	5.00000E+001	AC Voltage (mV rms)
AREA	QUANT	1.00000E+000	Sample Area (cm^2)
SPEED	SELECTOR	2	Optimize for:
ZGUESS	QUANT	1.00000E+003	Estimated Z (ohms)
EOC	QUANT	0	Open Circuit (V)
SEQUENCER	TOGGLE	TRUE	Run as Sequence
PSTATMODEL	IQUANT	5	Pstat Model
PSTATSECTION	LABEL	REF3000-16137	Pstat Section
PSTATSERIALNO	LABEL	16137	Pstat Serial Number
CTRLMODE	IQUANT	1	Control Mode
IESTAB	IQUANT	0	I/E Stability
CASPEED	IQUANT	1	Control Amp Speed
CONVENTION	IQUANT	1	Current Convention
ICHRANGE	IQUANT	2	Ich Range
ICHRANGEMODE	TOGGLE	F	Ich Auto Range
ICHOFFSETENABLE	TOGGLE	T	Ich Offset Enable
ICHOFFSET	QUANT	0	Ich Offset (V)
ICHFILTER	IQUANT	3	Ich Filter
VCHRANGE	IQUANT	2	Vch Range
VCHRANGEMODE	TOGGLE	F	Vch Auto Range
VCHOFFSETENABLE	TOGGLE	T	Vch Offset Enable
VCHOFFSET	QUANT	0	Vch Offset (V)
VCHFILTER	IQUANT	3	Vch Filter
ACHRANGE	IQUANT	2	Ach Range
ACHOFFSETENABLE	TOGGLE	F	Ach Offset Enable
ACHOFFSET	QUANT	0	Ach Offset (V)
ACHFILTER	IQUANT	2	Ach Filter
IERANGELOWERLIMIT	IQUANT	2	I/E Range Lower Limit
IERANGEMODE	TOGGLE	F	I/E AutoRange
IERANGE	IQUANT	11	I/E Range
POSFEEDENABLE	TOGGLE	F	Positive Feedback IR Comp
POSFEEDRESISTANCE	QUANT	0	Positive Feedback Resistance (ohm)
ACHSELECT	IQUANT	0	Ach Select
CABLEID	IQUANT	13	Cable ID
DCCALDATE	LABEL	9/10/2021	DC Calibration Date
ACCALDATE	LABEL	9/10/2021	AC Calibration Date
THERMOSELECT	IQUANT	1	Thermo Select
FRAMEWORKVERSION	QUANT	6.33	Framework Version
INSTRUMENTVERSION	LABEL	3.50	Instrument Version
COMPLIANCEVOLTAGE	IQUANT	0	Compliance Voltage
ZCURVE	TABLE
	Pt	Time	Freq	Zreal	Zimag	Zsig	Zmod	Zphz	Idc	Vdc	IERange
	#	s	Hz	ohm	ohm	V	ohm	°	A	V	#
	0	11	300046.9	1.678031	2.259906	1	2.814776	53.40528	-6.803874E-005	-0.0007327	11
	1	14	238359.4	1.78354	1.619842	1	2.409337	42.24626	-0.0003303	-0.0012235	12
	2	18	189328.1	1.719331	1.266414	1	2.135393	36.37439	-0.0002783	-0.0010093	12
	3	22	150421.9	1.638135	1.068184	1	1.955634	33.10729	-9.216902E-005	-0.0001314	11
	4	24	119484.4	1.634712	0.8026285	1	1.821125	26.15061	-9.463233E-006	5.956794E-005	11
	5	27	94921.88	1.645835	0.5912812	1	1.748824	19.76129	-4.369961E-005	0.0000976	11
	6	29	75421.88	1.657978	0.4179186	1	1.709839	14.14756	-5.236267E-005	0.0001571	11
	7	32	59859.37	1.669558	0.2720273	1	1.691574	9.254094	-8.504766E-005	0.0002101	11
	8	34	47578.12	1.688112	0.1481846	1	1.694603	5.016639	-9.455875E-005	0.0002711	11
	9	37	37828.12	1.707108	0.0387944	1	1.707549	1.301836	-0.0001091	0.0002753	11
	10	39	30046.88	1.729587	-0.0605928	1	1.730648	-2.006429	-3.807512E-005	0.0003597	11
	11	42	23859.38	1.75347	-0.1551621	1	1.760321	-5.056851	-3.592669E-005	0.0003825	11
	12	44	18984.38	1.778941	-0.2481668	1	1.796167	-7.941655	-3.270049E-005	0.0003977	11
	13	46	15046.87	1.806728	-0.3465175	1	1.839658	-10.85708	-6.56196E-005	0.0003403	11
	14	49	11953.13	1.83651	-0.4522099	1	1.891365	-13.83294	-0.0001124	0.0003494	11
	15	51	9515.62	1.868742	-0.5700967	1	1.953768	-16.96536	-3.856713E-005	0.0003975	11
	16	53	7546.875	1.903796	-0.7088901	1	2.031493	-20.42312	-6.624452E-005	0.0003318	11
	17	56	5928.309	1.943662	-0.8806276	1	2.133852	-24.37417	-3.362217E-005	0.0003993	11
	18	58	4733.456	1.98551	-1.074436	1	2.257579	-28.41952	-5.448773E-005	0.0003882	11
	19	60	3796.875	2.030908	-1.305413	1	2.414268	-32.73182	-5.973728E-005	0.0003904	11
	20	63	2987.132	2.089732	-1.612209	1	2.639356	-37.64985	-3.882312E-005	0.0004045	11
	21	65	2390.625	2.154838	-1.963207	1	2.915048	-42.3357	-4.168228E-005	0.0003646	11
	22	67	1884.191	2.241997	-2.428779	1	3.305377	-47.29001	-6.823023E-005	0.0003762	11
	23	69	1516.544	2.342428	-2.948308	1	3.765567	-51.53289	-5.91896E-005	0.0003782	11
	24	72	1193.986	2.487672	-3.655385	1	4.421578	-55.76276	1.282164E-005	-0.0001296	10
	25	74	946.5144	2.671751	-4.498066	1	5.231716	-59.29063	-2.880717E-005	-0.0001003	10
	26	77	751.7689	2.911427	-5.516703	1	6.237822	-62.17725	8.036744E-006	-0.0001425	10
	27	79	597.4265	3.223784	-6.751038	1	7.481263	-64.4744	-2.175616E-006	-0.0001257	10
	28	81	477.4305	3.630452	-8.206472	1	8.973649	-66.13593	-1.009053E-005	-0.0001072	10
	29	84	376.6741	4.182343	-10.04508	1	10.88097	-67.39523	-9.752724E-006	-0.0001141	10
	30	86	298.2954	4.882883	-12.21435	1	13.1542	-68.21014	-9.803967E-006	-0.000102	10
	31	88	237.7717	5.739055	-14.70847	1	15.78847	-68.68491	-9.652294E-006	-0.000112	10
	32	91	189.0121	6.805535	-17.68287	1	18.94728	-68.94998	-9.955842E-006	-0.0001059	10
	33	93	150.2404	8.078963	-21.17334	1	22.6623	-69.115	-1.065632E-005	-0.0001111	10
	34	95	119.1737	9.5705	-25.33133	1	27.07897	-69.3028	-6.311643E-006	-0.0001454	10
	35	98	95.0169	11.20582	-30.15564	1	32.17037	-69.61496	-1.037344E-005	-0.0001114	10
	36	100	75.60484	13.02658	-36.00415	1	38.28826	-70.10948	-1.052532E-005	-0.000108	10
	37	103	54.50582	15.95887	-46.61538	1	49.27148	-71.10126	-8.914561E-006	-0.0001251	9
	38	105	45.95588	17.72165	-53.57856	1	56.43332	-71.69785	-8.397457E-006	-0.0001225	9
	39	108	37.20238	20.22757	-63.86971	1	66.99622	-72.42698	-8.6514E-006	-0.0001345	9
	40	110	30.04808	23.24424	-76.50766	1	79.96072	-73.10039	-9.019054E-006	-0.0001224	9
	41	112	23.91582	27.30093	-93.09638	1	97.0169	-73.65599	-9.016013E-006	-0.0001284	9
	42	115	18.60119	33.16417	-115.7781	1	120.4344	-74.01586	-8.505051E-006	-0.0001228	9
	43	117	15.02404	39.81438	-139.4053	1	144.9794	-74.06058	-8.496457E-006	-0.0001233	9
	44	119	12.01923	49.07737	-169.2944	1	176.2645	-73.83346	-9.016467E-006	-0.0001284	9
	45	122	9.450605	62.54462	-208.2369	1	217.4269	-73.2822	-8.874063E-006	-0.0001184	9
	46	124	7.512019	80.39156	-252.9217	1	265.3907	-72.36707	-8.783282E-006	-0.0001337	9
	47	127	5.978954	104.2657	-305.562	1	322.8614	-71.15901	-8.47671E-006	-0.0001245	9
	48	130	4.734848	137.701	-368.4319	1	393.3238	-69.50682	-8.556313E-006	-0.0001464	9
	49	133	3.75601	181.9489	-437.7159	1	474.0259	-67.42841	-7.946327E-006	-9.110102E-005	8
	50	137	3.004808	238.8595	-513.5267	1	566.3599	-65.05519	-8.181586E-006	-6.750041E-005	8
	51	140	2.372217	317.0392	-600.1881	1	678.778	-62.1555	-8.022842E-006	-3.661163E-005	8
	52	145	1.878005	415.7543	-687.1519	1	803.1372	-58.82439	-8.077103E-006	-0.0001292	8
	53	149	1.512097	526.465	-765.0305	1	928.6749	-55.46572	-7.994333E-006	-3.278199E-005	8
	54	155	1.201923	664.843	-842.2766	1	1073.054	-51.71454	-7.922952E-006	-0.0001366	8
	55	161	0.956633	820.5569	-905.704	1	1222.135	-47.8238	-8.213251E-006	-0.0006557	8
