EXPLAIN
TAG	EISPOT
TITLE	LABEL	Potentiostatic EIS	Test Identifier
DATE	LABEL	11/21/2021	Date
TIME	LABEL	15:55:20	Time
NOTES	NOTES	1	Notes...
	
PSTAT	PSTAT	REF3000-16137	Potentiostat
VDC	POTEN	0.00000E+000	T	DC Voltage (V)
FREQINIT	QUANT	3.00000E+005	Initial Freq. (Hz)
FREQFINAL	QUANT	1.00000E+000	Final Freq. (Hz)
PTSPERDEC	QUANT	1.00000E+001	Points/decade
VAC	QUANT	5.00000E+001	AC Voltage (mV rms)
AREA	QUANT	1.00000E+000	Sample Area (cm^2)
SPEED	SELECTOR	2	Optimize for:
ZGUESS	QUANT	1.00000E+003	Estimated Z (ohms)
EOC	QUANT	0	Open Circuit (V)
SEQUENCER	TOGGLE	TRUE	Run as Sequence
PSTATMODEL	IQUANT	5	Pstat Model
PSTATSECTION	LABEL	REF3000-16137	Pstat Section
PSTATSERIALNO	LABEL	16137	Pstat Serial Number
CTRLMODE	IQUANT	1	Control Mode
IESTAB	IQUANT	0	I/E Stability
CASPEED	IQUANT	1	Control Amp Speed
CONVENTION	IQUANT	1	Current Convention
ICHRANGE	IQUANT	2	Ich Range
ICHRANGEMODE	TOGGLE	F	Ich Auto Range
ICHOFFSETENABLE	TOGGLE	T	Ich Offset Enable
ICHOFFSET	QUANT	0	Ich Offset (V)
ICHFILTER	IQUANT	3	Ich Filter
VCHRANGE	IQUANT	2	Vch Range
VCHRANGEMODE	TOGGLE	F	Vch Auto Range
VCHOFFSETENABLE	TOGGLE	T	Vch Offset Enable
VCHOFFSET	QUANT	0	Vch Offset (V)
VCHFILTER	IQUANT	3	Vch Filter
ACHRANGE	IQUANT	2	Ach Range
ACHOFFSETENABLE	TOGGLE	F	Ach Offset Enable
ACHOFFSET	QUANT	0	Ach Offset (V)
ACHFILTER	IQUANT	3	Ach Filter
IERANGELOWERLIMIT	IQUANT	2	I/E Range Lower Limit
IERANGEMODE	TOGGLE	F	I/E AutoRange
IERANGE	IQUANT	11	I/E Range
POSFEEDENABLE	TOGGLE	F	Positive Feedback IR Comp
POSFEEDRESISTANCE	QUANT	0	Positive Feedback Resistance (ohm)
ACHSELECT	IQUANT	0	Ach Select
CABLEID	IQUANT	13	Cable ID
DCCALDATE	LABEL	9/10/2021	DC Calibration Date
ACCALDATE	LABEL	9/10/2021	AC Calibration Date
THERMOSELECT	IQUANT	1	Thermo Select
FRAMEWORKVERSION	QUANT	6.33	Framework Version
INSTRUMENTVERSION	LABEL	3.50	Instrument Version
COMPLIANCEVOLTAGE	IQUANT	0	Compliance Voltage
ZCURVE	TABLE
	Pt	Time	Freq	Zreal	Zimag	Zsig	Zmod	Zphz	Idc	Vdc	IERange
	#	s	Hz	ohm	ohm	V	ohm	°	A	V	#
	0	22	300046.9	570.9521	-3903.028	1	3944.568	-81.67755	-6.496217E-005	0.0004465	9
	1	36	238359.4	875.2479	-4797.518	1	4876.703	-79.6608	5.252748E-005	-0.0002987	9
	2	54	189328.1	1036.6	-5802.966	1	5894.824	-79.87192	2.855509E-005	0.0006923	9
	3	64	150421.9	1780.457	-7136.002	1	7354.764	-75.99054	1.991688E-005	-0.0011404	9
	4	72	119484.4	2633.956	-8835.752	1	9219.991	-73.40057	2.860489E-005	0.0057312	8
	5	79	94921.88	3517.198	-10629.28	1	11196.08	-71.69077	2.517193E-005	-0.0098134	8
	6	88	75421.88	4752.904	-12892.98	1	13741.14	-69.76395	-1.078933E-005	-0.0023357	8
	7	96	59859.37	6664.886	-15570.75	1	16937.21	-66.8272	-2.10241E-005	0.0025643	8
	8	104	47578.12	8759.252	-18500.2	1	20469.05	-64.66395	2.335535E-005	-0.0039359	8
	9	113	37828.12	14561.89	-21354.6	1	25847	-55.70959	-3.299777E-006	0.0230501	7
	10	120	30046.88	18390.82	-24180.08	1	30379.24	-52.7442	4.87508E-006	-0.0261151	7
	11	128	23859.38	21252.27	-27980.35	1	35136.29	-52.78177	2.113948E-005	-0.0102853	8
	12	134	18984.38	27292.18	-29929.47	1	40504.77	-47.63884	9.737402E-006	0.0026457	8
	13	141	15046.87	34090.48	-31606.05	1	46487.67	-42.83429	9.680422E-006	0.0027218	8
	14	147	11953.13	42626.88	-29982.95	1	52115.53	-35.12184	-3.543027E-006	-0.0043568	7
	15	152	9515.62	49367.89	-29769.52	1	57649.05	-31.09056	-6.957772E-006	0.022676	7
	16	158	7546.875	55632.19	-27363.96	1	61997.8	-26.19132	6.534164E-006	-0.0118362	7
	17	163	5928.309	62934.42	-25740.51	1	67994.96	-22.24482	-1.408152E-006	-0.0123608	7
	18	168	4733.456	66846.48	-20770.07	1	69998.91	-17.2607	6.344199E-006	-0.0267389	7
	19	174	3796.875	71142.81	-22050.42	1	74481.68	-17.22061	7.118204E-006	-0.0245914	7
	20	179	2987.132	75405.67	-18918.08	1	77742.59	-14.08391	7.260502E-006	-0.0247386	7
	21	185	2390.625	78262.38	-15954.55	1	79872.08	-11.52242	-6.964216E-006	0.0226932	7
	22	191	1884.191	83437.15	-19762.78	1	85745.7	-13.32541	-3.264149E-006	0.0232075	7
	23	196	1516.544	86276.67	-11062.98	1	86983.06	-7.306983	-6.647542E-006	0.0121487	7
	24	203	1193.986	84073.88	-7548.272	1	84412.05	-5.130341	-2.425852E-005	0.0048944	8
	25	211	946.5144	80131.01	-9852.51	1	80734.45	-7.009625	-9.258532E-007	0.0005463	9
	26	218	751.7689	94263.2	-6743.418	1	94504.09	-4.091866	2.532509E-007	0.0077161	6
	27	220	597.4265	94752.27	-5646.813	1	94920.38	-3.410539	-5.112716E-007	0.002128	6
	28	223	477.4305	97733	-6093.255	1	97922.8	-3.567541	-1.157288E-008	-0.0001005	6
	29	225	376.6741	99250.3	-6043.708	1	99434.2	-3.484643	-1.159107E-008	-0.0001341	6
	30	227	298.2954	100831.7	-6195.011	1	101021.8	-3.515783	-1.182862E-008	-0.000105	6
	31	230	237.7717	102602.6	-6430.396	1	102804	-3.586197	-1.15079E-008	-9.286545E-005	6
	32	232	189.0121	104525.2	-6780.319	1	104744.9	-3.71145	-1.140553E-008	-8.926579E-005	6
	33	235	150.2404	106638.3	-7116.03	1	106875.5	-3.817717	-1.077723E-008	-0.0001135	6
	34	237	119.1737	108935.6	-7438.229	1	109189.2	-3.906149	-1.165775E-008	-0.0001432	6
	35	241	95.0169	111813.2	-8015.998	1	112100.1	-4.100576	-1.047403E-008	-0.0001849	6
	36	243	75.60484	114346.2	-8339.825	1	114649.9	-4.171474	-1.152615E-008	-9.360174E-005	6
	37	246	54.50582	117463.5	-8765.702	1	117790.1	-4.267781	-1.191797E-008	-0.0001469	6
	38	248	45.95588	119799.5	-8927.962	1	120131.7	-4.262043	-1.03376E-008	-0.0001756	6
	39	251	37.20238	122211	-9163.627	1	122554.1	-4.288129	-1.288839E-008	-8.574062E-005	6
	40	253	30.04808	124781.1	-9499.082	1	125142.2	-4.353299	-1.0585E-008	-0.0000989	6
	41	255	23.91582	127510.7	-9876.8	1	127892.7	-4.429208	-1.07438E-008	-0.0001443	6
	42	258	18.60119	130169.1	-10373.83	1	130581.9	-4.556559	-1.041803E-008	-8.899265E-005	6
	43	260	15.02404	132867.4	-11010.16	1	133322.8	-4.737035	-1.210795E-008	-0.0001773	6
	44	262	12.01923	135663.8	-11522.72	1	136152.3	-4.854813	-1.402159E-008	-0.0001562	6
	45	265	9.450605	138818.2	-12514.7	1	139381.2	-5.151384	-7.697198E-009	-0.0001814	6
	46	267	7.512019	142161.3	-13472.56	1	142798.3	-5.413725	-1.132773E-008	-0.0001418	6
	47	270	5.978954	145808.8	-14636.47	1	146541.6	-5.732218	-1.410156E-008	-8.994935E-005	6
	48	273	4.734848	149801.8	-15973.89	1	150651	-6.08665	-1.420429E-008	-0.0001635	6
	49	276	3.75601	154326.8	-17347.02	1	155298.6	-6.413384	-1.045822E-008	-9.14647E-005	6
	50	280	3.004808	158994.5	-19056.35	1	160132.5	-6.834605	-5.896976E-009	-0.0001243	6
	51	284	2.372217	164589.7	-20918.67	1	165913.7	-7.243226	-1.365176E-008	-0.0001336	6
	52	288	1.878005	170670	-23129.16	1	172230.1	-7.717691	-1.440982E-008	-0.0001362	6
	53	293	1.512097	177293.9	-25470.69	1	179114.2	-8.175381	-1.318422E-008	-0.0001972	6
	54	298	1.201923	185044.3	-28731.58	1	187261.6	-8.825763	-1.294812E-008	-0.0001582	6
	55	304	0.956633	194079.8	-31998.99	1	196700	-9.362439	-1.629967E-008	-0.0007065	6
