EXPLAIN
TAG	EISPOT
TITLE	LABEL	Potentiostatic EIS	Test Identifier
DATE	LABEL	11/21/2021	Date
TIME	LABEL	14:34:44	Time
NOTES	NOTES	1	Notes...
	
PSTAT	PSTAT	REF3000-16137	Potentiostat
VDC	POTEN	0.00000E+000	T	DC Voltage (V)
FREQINIT	QUANT	3.00000E+005	Initial Freq. (Hz)
FREQFINAL	QUANT	1.00000E+000	Final Freq. (Hz)
PTSPERDEC	QUANT	1.00000E+001	Points/decade
VAC	QUANT	5.00000E+001	AC Voltage (mV rms)
AREA	QUANT	1.00000E+000	Sample Area (cm^2)
SPEED	SELECTOR	2	Optimize for:
ZGUESS	QUANT	1.00000E+003	Estimated Z (ohms)
EOC	QUANT	0	Open Circuit (V)
SEQUENCER	TOGGLE	TRUE	Run as Sequence
PSTATMODEL	IQUANT	5	Pstat Model
PSTATSECTION	LABEL	REF3000-16137	Pstat Section
PSTATSERIALNO	LABEL	16137	Pstat Serial Number
CTRLMODE	IQUANT	1	Control Mode
IESTAB	IQUANT	0	I/E Stability
CASPEED	IQUANT	1	Control Amp Speed
CONVENTION	IQUANT	1	Current Convention
ICHRANGE	IQUANT	2	Ich Range
ICHRANGEMODE	TOGGLE	F	Ich Auto Range
ICHOFFSETENABLE	TOGGLE	T	Ich Offset Enable
ICHOFFSET	QUANT	0	Ich Offset (V)
ICHFILTER	IQUANT	3	Ich Filter
VCHRANGE	IQUANT	2	Vch Range
VCHRANGEMODE	TOGGLE	F	Vch Auto Range
VCHOFFSETENABLE	TOGGLE	T	Vch Offset Enable
VCHOFFSET	QUANT	0	Vch Offset (V)
VCHFILTER	IQUANT	3	Vch Filter
ACHRANGE	IQUANT	2	Ach Range
ACHOFFSETENABLE	TOGGLE	F	Ach Offset Enable
ACHOFFSET	QUANT	0	Ach Offset (V)
ACHFILTER	IQUANT	3	Ach Filter
IERANGELOWERLIMIT	IQUANT	2	I/E Range Lower Limit
IERANGEMODE	TOGGLE	F	I/E AutoRange
IERANGE	IQUANT	11	I/E Range
POSFEEDENABLE	TOGGLE	F	Positive Feedback IR Comp
POSFEEDRESISTANCE	QUANT	0	Positive Feedback Resistance (ohm)
ACHSELECT	IQUANT	0	Ach Select
CABLEID	IQUANT	13	Cable ID
DCCALDATE	LABEL	9/10/2021	DC Calibration Date
ACCALDATE	LABEL	9/10/2021	AC Calibration Date
THERMOSELECT	IQUANT	1	Thermo Select
FRAMEWORKVERSION	QUANT	6.33	Framework Version
INSTRUMENTVERSION	LABEL	3.50	Instrument Version
COMPLIANCEVOLTAGE	IQUANT	0	Compliance Voltage
ZCURVE	TABLE
	Pt	Time	Freq	Zreal	Zimag	Zsig	Zmod	Zphz	Idc	Vdc	IERange
	#	s	Hz	ohm	ohm	V	ohm	°	A	V	#
	0	10	300046.9	2.132563	2.193548	1	3.059326	45.80765	-0.0001735	-0.0006708	11
	1	13	238359.4	2.126227	1.677539	1	2.708317	38.27254	-2.845592E-005	-0.0006295	11
	2	16	189328.1	2.200336	1.128241	1	2.472733	27.14687	-0.0001789	-0.0008742	12
	3	20	150421.9	2.18881	0.8261325	1	2.339526	20.67824	-6.15071E-005	-0.0004605	12
	4	24	119484.4	2.178961	0.6745704	1	2.28099	17.20167	-5.552102E-005	7.561214E-005	11
	5	26	94921.88	2.21414	0.4505063	1	2.259507	11.50086	-7.493909E-005	0.000158	11
	6	29	75421.88	2.255004	0.2678598	1	2.270857	6.774115	-8.73757E-005	0.0001923	11
	7	31	59859.37	2.301088	0.1152906	1	2.303975	2.868272	-5.717874E-005	0.000287	11
	8	34	47578.12	2.347972	-0.0135781	1	2.348011	-0.3313315	-9.447664E-005	0.0002807	11
	9	36	37828.12	2.398021	-0.1261807	1	2.401339	-3.012051	-7.505236E-005	0.0003443	11
	10	39	30046.88	2.448468	-0.2298034	1	2.459229	-5.361845	-8.252407E-005	0.0003221	11
	11	41	23859.38	2.500627	-0.3286182	1	2.522127	-7.486586	-6.915499E-005	0.0003764	11
	12	43	18984.38	2.552047	-0.4282082	1	2.587722	-9.52494	-6.790437E-005	0.0003673	11
	13	46	15046.87	2.60639	-0.5354461	1	2.660822	-11.60909	-7.980876E-005	0.0003126	11
	14	48	11953.13	2.663987	-0.6534551	1	2.74296	-13.78209	-3.222675E-005	0.0003964	11
	15	50	9515.62	2.722785	-0.7871084	1	2.834271	-16.12364	-2.042074E-005	0.0004054	11
	16	53	7546.875	2.783556	-0.9451329	1	2.939636	-18.75448	-1.645396E-005	0.000386	11
	17	55	5928.309	2.850957	-1.145857	1	3.072612	-21.89618	-1.447126E-005	0.0004024	11
	18	57	4733.456	2.918697	-1.373081	1	3.225545	-25.19432	-7.637019E-005	0.0003718	11
	19	60	3796.875	2.990205	-1.644458	1	3.41256	-28.80853	-5.318005E-005	0.0003853	11
	20	62	2987.132	3.073382	-2.007629	1	3.671002	-33.15382	-7.888886E-005	0.0003676	11
	21	64	2390.625	3.165302	-2.42874	1	3.989726	-37.49907	-1.67568E-005	-0.0001228	10
	22	66	1884.191	3.274661	-2.982147	1	4.429064	-42.3233	1.606477E-005	-0.0001405	10
	23	69	1516.544	3.395449	-3.608748	1	4.955011	-46.74429	-1.260933E-005	-0.0001213	10
	24	71	1193.986	3.557738	-4.459743	1	5.704981	-51.41906	2.229383E-005	-0.0001318	10
	25	74	946.5144	3.760618	-5.488801	1	6.65351	-55.58325	-2.876409E-005	-0.0001193	10
	26	76	751.7689	4.021885	-6.740507	1	7.849203	-59.17657	-2.456742E-005	-0.0001077	10
	27	78	597.4265	4.362087	-8.275612	1	9.354868	-62.20622	-2.505348E-005	-0.0001074	10
	28	81	477.4305	4.799642	-10.09589	1	11.17871	-64.57332	-1.559822E-006	-0.0001056	10
	29	83	376.6741	5.402526	-12.42616	1	13.54978	-66.50202	-2.251611E-006	-0.0001107	10
	30	85	298.2954	6.178832	-15.20772	1	16.41502	-67.88831	-1.54855E-006	-0.0001074	10
	31	87	237.7717	7.152452	-18.44791	1	19.78593	-68.80816	-2.035178E-006	-0.00011	10
	32	90	189.0121	8.406312	-22.354	1	23.88236	-69.39102	-2.13717E-006	-0.0001117	10
	33	92	150.2404	9.97604	-26.98355	1	28.76862	-69.71024	-2.463187E-006	-0.0001098	10
	34	95	119.1737	11.91015	-32.49005	1	34.60426	-69.86815	-2.42877E-006	-0.0001078	10
	35	97	95.0169	14.14851	-38.81608	1	41.31427	-69.97314	-2.661708E-006	-0.0001062	10
	36	100	75.60484	16.70981	-46.28485	1	49.2088	-70.14935	-1.302953E-006	-0.0001218	9
	37	102	54.50582	20.8548	-59.62694	1	63.16878	-70.72247	-1.350138E-006	-0.000124	9
	38	105	45.95588	23.22054	-68.19037	1	72.03555	-71.195	-1.153595E-006	-0.000117	9
	39	107	37.20238	26.32782	-80.73914	1	84.92327	-71.93963	-1.163542E-006	-0.0001162	9
	40	109	30.04808	29.81062	-96.2615	1	100.7718	-72.79311	-1.353346E-006	-0.0001165	9
	41	112	23.91582	33.97888	-116.5465	1	121.3987	-73.74607	-8.374712E-007	-0.0001684	9
	42	114	18.60119	39.6304	-144.8201	1	150.1447	-74.69555	-1.327119E-006	-0.0001181	9
	43	116	15.02404	45.57691	-174.6354	1	180.4848	-75.37302	-8.947316E-007	-0.0001161	9
	44	119	12.01923	53.57838	-212.8444	1	219.4843	-75.87074	-1.231684E-006	-0.0001291	9
	45	121	9.450605	64.96967	-263.6136	1	271.5018	-76.15492	-1.019526E-006	-0.0001323	9
	46	124	7.512019	79.59319	-323.4514	1	333.1004	-76.17563	-1.099958E-006	-0.0001328	9
	47	126	5.978954	99.3048	-395.7877	1	408.0556	-75.91501	-1.11159E-006	-0.0001266	9
	48	129	4.734848	125.9498	-484.1149	1	500.2306	-75.41692	-1.078578E-006	-0.0001346	8
	49	133	3.75601	163.0555	-591.2947	1	613.3649	-74.58327	-8.501761E-007	-9.406832E-005	8
	50	136	3.004808	211.1559	-714.7157	1	745.2552	-73.54073	-9.703937E-007	-0.0000987	8
	51	140	2.372217	281.272	-868.4819	1	912.8936	-72.05461	-9.890008E-007	-0.0001414	8
	52	144	1.878005	375.7961	-1049.307	1	1114.571	-70.29566	-8.897077E-007	-0.0001244	8
	53	149	1.512097	489.0457	-1239.23	1	1332.238	-68.46399	-9.502849E-007	-6.356257E-005	8
	54	154	1.201923	651.2035	-1464.354	1	1602.622	-66.02511	-8.933152E-007	-0.0001155	8
	55	160	0.956633	854.6844	-1708.565	1	1910.414	-63.42417	-1.13776E-006	-0.0006608	8
