EXPLAIN
TAG	EISPOT
TITLE	LABEL	Potentiostatic EIS	Test Identifier
DATE	LABEL	8/10/2020	Date
TIME	LABEL	0:24:24	Time
NOTES	NOTES	1	Notes...
	
PSTAT	PSTAT	REF3000-16137	Potentiostat
VDC	POTEN	0.00000E+000	T	DC Voltage (V)
FREQINIT	QUANT	3.00000E+005	Initial Freq. (Hz)
FREQFINAL	QUANT	1.00000E+000	Final Freq. (Hz)
PTSPERDEC	QUANT	1.00000E+001	Points/decade
VAC	QUANT	5.00000E+001	AC Voltage (mV rms)
AREA	QUANT	1.00000E+000	Sample Area (cm^2)
SPEED	SELECTOR	2	Optimize for:
ZGUESS	QUANT	1.00000E+003	Estimated Z (ohms)
EOC	QUANT	0	Open Circuit (V)
SEQUENCER	TOGGLE	TRUE	Run as Sequence
PSTATMODEL	IQUANT	5	Pstat Model
PSTATSECTION	LABEL	REF3000-16137	Pstat Section
PSTATSERIALNO	LABEL	16137	Pstat Serial Number
CTRLMODE	IQUANT	1	Control Mode
IESTAB	IQUANT	0	I/E Stability
CASPEED	IQUANT	1	Control Amp Speed
CONVENTION	IQUANT	1	Current Convention
ICHRANGE	IQUANT	2	Ich Range
ICHRANGEMODE	TOGGLE	F	Ich Auto Range
ICHOFFSETENABLE	TOGGLE	T	Ich Offset Enable
ICHOFFSET	QUANT	0	Ich Offset (V)
ICHFILTER	IQUANT	3	Ich Filter
VCHRANGE	IQUANT	2	Vch Range
VCHRANGEMODE	TOGGLE	F	Vch Auto Range
VCHOFFSETENABLE	TOGGLE	T	Vch Offset Enable
VCHOFFSET	QUANT	0	Vch Offset (V)
VCHFILTER	IQUANT	3	Vch Filter
ACHRANGE	IQUANT	2	Ach Range
ACHOFFSETENABLE	TOGGLE	F	Ach Offset Enable
ACHOFFSET	QUANT	0	Ach Offset (V)
ACHFILTER	IQUANT	3	Ach Filter
IERANGELOWERLIMIT	IQUANT	2	I/E Range Lower Limit
IERANGEMODE	TOGGLE	F	I/E AutoRange
IERANGE	IQUANT	11	I/E Range
POSFEEDENABLE	TOGGLE	F	Positive Feedback IR Comp
POSFEEDRESISTANCE	QUANT	0	Positive Feedback Resistance (ohm)
ACHSELECT	IQUANT	0	Ach Select
CABLEID	IQUANT	13	Cable ID
DCCALDATE	LABEL	7/31/2020	DC Calibration Date
ACCALDATE	LABEL	7/31/2020	AC Calibration Date
THERMOSELECT	IQUANT	1	Thermo Select
FRAMEWORKVERSION	QUANT	6.33	Framework Version
INSTRUMENTVERSION	LABEL	3.50	Instrument Version
COMPLIANCEVOLTAGE	IQUANT	0	Compliance Voltage
ZCURVE	TABLE
	Pt	Time	Freq	Zreal	Zimag	Zsig	Zmod	Zphz	Idc	Vdc	IERange
	#	s	Hz	ohm	ohm	V	ohm	°	A	V	#
	0	11	300046.9	4.587444	-0.1145683	1	4.588874	-1.430626	-9.327756E-005	0.0001886	10
	1	14	238359.4	4.743413	-0.6365802	1	4.785938	-7.643595	7.1752E-005	-0.0003451	10
	2	17	189328.1	4.912277	-1.131503	1	5.040909	-12.97137	-2.63463E-005	0.000134	10
	3	19	150421.9	5.127815	-1.621795	1	5.378169	-17.55081	4.131586E-005	0.0003831	10
	4	22	119484.4	5.369824	-2.108748	1	5.769041	-21.4401	2.310744E-005	0.0006135	10
	5	24	94921.88	5.670965	-2.619162	1	6.246587	-24.79007	3.013722E-006	0.0005744	10
	6	27	75421.88	5.982428	-3.184733	1	6.777312	-28.02851	-1.849001E-005	0.0006328	10
	7	30	59859.37	6.341338	-3.79983	1	7.39265	-30.93071	1.888624E-005	0.0006476	10
	8	32	47578.12	6.737706	-4.486209	1	8.094612	-33.65712	1.334387E-007	0.0007088	10
	9	35	37828.12	7.190795	-5.257483	1	8.907786	-36.17205	-5.169263E-006	0.0007185	10
	10	37	30046.88	7.707324	-6.147828	1	9.85894	-38.57798	9.581417E-006	0.0006614	10
	11	40	23859.38	8.283522	-7.204207	1	10.97804	-41.0136	1.597181E-005	0.0006561	10
	12	42	18984.38	8.928825	-8.44221	1	12.288	-43.39539	-2.926982E-005	0.0006768	10
	13	44	15046.87	9.69106	-9.93145	1	13.87625	-45.70187	-2.941198E-005	0.0007262	10
	14	47	11953.13	10.58908	-11.67526	1	15.76199	-47.79299	2.316501E-005	0.0006732	10
	15	49	9515.62	11.68773	-13.69959	1	18.00782	-49.53103	-2.285466E-005	0.0007229	10
	16	51	7546.875	13.01819	-16.24226	1	20.81548	-51.28779	-3.291788E-005	0.0006646	10
	17	54	5928.309	14.78184	-19.29199	1	24.30399	-52.54006	-1.521069E-005	0.0006847	10
	18	56	4733.456	16.8554	-22.63256	1	28.21945	-53.32342	4.805063E-006	0.0006609	10
	19	58	3796.875	19.39174	-26.39053	1	32.74904	-53.69159	1.423515E-005	0.000632	10
	20	60	2987.132	22.91775	-30.93501	1	38.49933	-53.46764	-2.666778E-005	0.0006896	10
	21	63	2390.625	26.96646	-35.61833	1	44.675	-52.87082	6.189073E-006	-2.933749E-005	9
	22	65	1884.191	32.34705	-41.19567	1	52.37762	-51.86081	1.485413E-006	2.618515E-005	9
	23	67	1516.544	38.37944	-46.30335	1	60.14134	-50.3457	4.600407E-006	-1.997828E-005	9
	24	70	1193.986	46.24329	-52.283	1	69.79939	-48.50787	1.085182E-006	3.316429E-005	9
	25	72	946.5144	55.1863	-57.99899	1	80.05879	-46.42352	6.231526E-006	-4.294669E-005	9
	26	74	751.7689	65.35637	-62.6499	1	90.53433	-43.78876	-4.234264E-006	0.0001285	9
	27	77	597.4265	76.21884	-66.72796	1	101.3012	-41.20145	4.770003E-006	-2.746254E-005	9
	28	79	477.4305	87.60204	-69.8416	1	112.0356	-38.56395	-1.099233E-006	8.126624E-005	9
	29	81	376.6741	99.839	-72.42403	1	123.3413	-35.95744	-1.059219E-006	7.285494E-005	9
	30	84	298.2954	111.6053	-73.97071	1	133.8933	-33.53595	-1.050453E-006	7.359284E-005	9
	31	86	237.7717	122.7657	-75.34098	1	144.0406	-31.53733	-1.053498E-006	7.511403E-005	9
	32	89	189.0121	133.3864	-76.58383	1	153.8084	-29.86229	-9.909731E-007	7.522986E-005	9
	33	91	150.2404	144.7495	-79.42467	1	165.1081	-28.75377	-9.896718E-007	7.535072E-005	9
	34	93	119.1737	156.22	-83.13952	1	176.9658	-28.02168	-1.027201E-006	8.46439E-005	9
	35	96	95.0169	165.0545	-86.30896	1	186.2585	-27.60561	-1.017843E-006	7.822807E-005	9
	36	98	75.60484	175.5946	-91.90889	1	198.1936	-27.62824	-8.998467E-007	7.381381E-005	9
	37	101	54.50582	191.5787	-102.6506	1	217.3466	-28.18305	-8.52313E-007	7.142148E-005	9
	38	103	45.95588	201.527	-109.9682	1	229.5782	-28.62019	-9.829669E-007	8.127489E-005	9
	39	106	37.20238	213.3549	-119.9322	1	244.7531	-29.34144	-9.728097E-007	8.353063E-005	9
	40	108	30.04808	224.6141	-131.2097	1	260.1298	-30.2916	-6.534504E-007	7.687363E-005	9
	41	110	23.91582	239.8569	-146.1294	1	280.865	-31.35127	-6.170537E-007	7.375918E-005	9
	42	113	18.60119	254.3197	-165.4392	1	303.3952	-33.04467	-6.769E-007	7.900929E-005	9
	43	115	15.02404	267.3889	-186.0358	1	325.7394	-34.82827	-4.408124E-007	7.304597E-005	9
	44	117	12.01923	282.533	-212.712	1	353.6542	-36.97517	-7.845082E-007	7.120983E-005	9
	45	120	9.450605	296.9902	-248.226	1	387.065	-39.88906	-1.612685E-006	0.0006468	8
	46	122	7.512019	317.8783	-292.4805	1	431.9623	-42.61722	-1.651037E-006	0.0006513	8
	47	125	5.978954	341.9758	-347.24	1	487.3634	-45.43761	-1.675906E-006	0.000653	8
	48	128	4.734848	373.6263	-416.8678	1	559.7994	-48.13107	-1.793745E-006	0.0006421	8
	49	131	3.75601	418.0948	-499.1729	1	651.1351	-50.0513	-1.511272E-006	0.0006676	8
	50	135	3.004808	474.308	-592.6749	1	759.0992	-51.33028	-1.633551E-006	0.000668	8
	51	139	2.372217	555.7276	-705.0072	1	897.7017	-51.75277	-1.645962E-006	0.0006799	8
	52	143	1.878005	659.4104	-833.1205	1	1062.503	-51.63858	-1.505175E-006	0.0007075	8
	53	147	1.512097	782.7591	-958.883	1	1237.808	-50.77442	-1.524161E-006	0.0007298	8
	54	153	1.201923	950.996	-1093.586	1	1449.249	-48.98939	-1.457465E-006	0.0006519	8
	55	159	0.956633	1153.556	-1221.16	1	1679.858	-46.63069	-1.763813E-006	1.623522E-005	8
