EXPLAIN
TAG	EISPOT
TITLE	LABEL	Potentiostatic EIS	Test Identifier
DATE	LABEL	8/10/2020	Date
TIME	LABEL	1:31:55	Time
NOTES	NOTES	1	Notes...
	
PSTAT	PSTAT	REF3000-16137	Potentiostat
VDC	POTEN	0.00000E+000	T	DC Voltage (V)
FREQINIT	QUANT	3.00000E+005	Initial Freq. (Hz)
FREQFINAL	QUANT	1.00000E+000	Final Freq. (Hz)
PTSPERDEC	QUANT	1.00000E+001	Points/decade
VAC	QUANT	5.00000E+001	AC Voltage (mV rms)
AREA	QUANT	1.00000E+000	Sample Area (cm^2)
SPEED	SELECTOR	2	Optimize for:
ZGUESS	QUANT	1.00000E+003	Estimated Z (ohms)
EOC	QUANT	0	Open Circuit (V)
SEQUENCER	TOGGLE	TRUE	Run as Sequence
PSTATMODEL	IQUANT	5	Pstat Model
PSTATSECTION	LABEL	REF3000-16137	Pstat Section
PSTATSERIALNO	LABEL	16137	Pstat Serial Number
CTRLMODE	IQUANT	1	Control Mode
IESTAB	IQUANT	0	I/E Stability
CASPEED	IQUANT	1	Control Amp Speed
CONVENTION	IQUANT	1	Current Convention
ICHRANGE	IQUANT	2	Ich Range
ICHRANGEMODE	TOGGLE	F	Ich Auto Range
ICHOFFSETENABLE	TOGGLE	T	Ich Offset Enable
ICHOFFSET	QUANT	0	Ich Offset (V)
ICHFILTER	IQUANT	3	Ich Filter
VCHRANGE	IQUANT	2	Vch Range
VCHRANGEMODE	TOGGLE	F	Vch Auto Range
VCHOFFSETENABLE	TOGGLE	T	Vch Offset Enable
VCHOFFSET	QUANT	0	Vch Offset (V)
VCHFILTER	IQUANT	3	Vch Filter
ACHRANGE	IQUANT	2	Ach Range
ACHOFFSETENABLE	TOGGLE	F	Ach Offset Enable
ACHOFFSET	QUANT	0	Ach Offset (V)
ACHFILTER	IQUANT	3	Ach Filter
IERANGELOWERLIMIT	IQUANT	2	I/E Range Lower Limit
IERANGEMODE	TOGGLE	F	I/E AutoRange
IERANGE	IQUANT	11	I/E Range
POSFEEDENABLE	TOGGLE	F	Positive Feedback IR Comp
POSFEEDRESISTANCE	QUANT	0	Positive Feedback Resistance (ohm)
ACHSELECT	IQUANT	0	Ach Select
CABLEID	IQUANT	13	Cable ID
DCCALDATE	LABEL	7/31/2020	DC Calibration Date
ACCALDATE	LABEL	7/31/2020	AC Calibration Date
THERMOSELECT	IQUANT	1	Thermo Select
FRAMEWORKVERSION	QUANT	6.33	Framework Version
INSTRUMENTVERSION	LABEL	3.50	Instrument Version
COMPLIANCEVOLTAGE	IQUANT	0	Compliance Voltage
ZCURVE	TABLE
	Pt	Time	Freq	Zreal	Zimag	Zsig	Zmod	Zphz	Idc	Vdc	IERange
	#	s	Hz	ohm	ohm	V	ohm	°	A	V	#
	0	28	300046.9	719.493	-150.0717	1	734.9773	-11.78182	2.728596E-006	0.0014847	9
	1	37	238359.4	743.9359	-129.4383	1	755.1124	-9.87015	3.822393E-006	0.0014548	9
	2	42	189328.1	772.8666	-114.3767	1	781.2841	-8.418111	2.188551E-005	-0.0003586	9
	3	52	150421.9	793.7585	-96.398	1	799.5906	-6.924375	2.691074E-005	0.000912	9
	4	57	119484.4	813.5112	-52.04225	1	815.1742	-3.660359	4.947027E-005	-0.0200059	8
	5	62	94921.88	826.0969	-42.24993	1	827.1766	-2.927786	-1.805817E-005	0.007509	8
	6	65	75421.88	833.0297	-36.58896	1	833.8329	-2.514972	1.824778E-005	-0.0065598	8
	7	68	59859.37	841.3166	-31.66083	1	841.9121	-2.155165	-6.610958E-006	0.0071337	8
	8	71	47578.12	848.4218	-27.56455	1	848.8694	-1.86084	2.003826E-005	-0.0057496	8
	9	74	37828.12	855.1663	-21.69063	1	855.4413	-1.452952	2.003357E-005	-0.0037772	8
	10	77	30046.88	865.6941	-18.43931	1	865.8904	-1.220218	-7.029095E-006	0.0070364	8
	11	80	23859.38	874.1763	-17.48257	1	874.3511	-1.1457	1.559859E-005	-0.0070042	8
	12	83	18984.38	878.8243	-13.81112	1	878.9328	-0.9003551	-1.433425E-005	0.0017121	8
	13	85	15046.87	888.0377	-11.28131	1	888.1093	-0.7278259	-2.218368E-008	0.0053296	8
	14	88	11953.13	893.7457	-9.373548	1	893.7948	-0.6008924	-1.384618E-005	0.0015552	8
	15	90	9515.62	901.7302	-10.43368	1	901.7905	-0.6629246	2.126546E-005	-0.0043848	8
	16	94	7546.875	909.7014	-8.887657	1	909.7448	-0.559754	-1.874461E-005	0.0048755	8
	17	96	5928.309	917.6992	-7.227172	1	917.7277	-0.4512131	2.752433E-007	0.0052879	8
	18	99	4733.456	926.3895	-9.116722	1	926.4343	-0.5638372	-1.923732E-005	0.0061958	8
	19	102	3796.875	938.5385	-7.689145	1	938.5699	-0.4693955	2.062597E-005	-0.0058147	8
	20	105	2987.132	940.231	-9.277956	1	940.2768	-0.5653616	1.87134E-005	-0.0065842	8
	21	107	2390.625	948.7931	-8.486292	1	948.8311	-0.5124571	3.326555E-007	0.0051688	8
	22	110	1884.191	958.572	-13.82781	1	958.671	-0.8264589	-1.936023E-005	0.0062771	8
	23	113	1516.544	967.917	-12.16288	1	967.994	-0.7199429	1.549325E-005	-0.0070181	8
	24	116	1193.986	977.167	-14.90193	1	977.28	-0.873701	4.062349E-006	-0.0051884	8
	25	120	946.5144	988.464	-20.95781	1	988.687	-1.214625	-2.947847E-006	-0.003095	8
	26	122	751.7689	993.279	-17.90922	1	993.44	-1.032954	-1.918926E-005	0.0049914	8
	27	125	597.4265	1001.38	-22.18427	1	1001.625	-1.269107	-9.670143E-006	-0.0005871	8
	28	127	477.4305	1010.239	-26.87909	1	1010.596	-1.52409	-1.69277E-007	0.0006379	8
	29	130	376.6741	1018.615	-32.39802	1	1019.13	-1.821732	-2.38421E-007	0.0007014	8
	30	132	298.2954	1026.718	-39.25966	1	1027.468	-2.189811	-1.89484E-007	0.0006455	8
	31	134	237.7717	1035.281	-47.57943	1	1036.373	-2.631348	-1.853262E-007	0.000643	8
	32	137	189.0121	1044.04	-58.0345	1	1045.651	-3.181597	-2.057444E-007	0.0006574	8
	33	139	150.2404	1053.589	-71.0968	1	1055.985	-3.860501	-1.80984E-007	0.0006411	8
	34	142	119.1737	1063.54	-87.35597	1	1067.122	-4.69556	-1.49518E-007	0.0006454	8
	35	144	95.0169	1074.422	-107.0753	1	1079.745	-5.691216	-2.207745E-007	0.0006614	8
	36	147	75.60484	1086.263	-131.5284	1	1094.197	-6.903959	-1.839429E-007	0.0006475	8
	37	149	54.50582	1101.858	-176.6153	1	1115.923	-9.106404	-2.191803E-007	0.0006502	8
	38	152	45.95588	1114.952	-205.9645	1	1133.816	-10.46623	-2.449769E-007	0.000652	8
	39	154	37.20238	1130.29	-249.1027	1	1157.414	-12.42864	-2.764902E-007	0.0007009	8
	40	156	30.04808	1148.691	-301.4724	1	1187.593	-14.70555	-2.289743E-007	0.0006677	8
	41	159	23.91582	1170.535	-369.3214	1	1227.417	-17.51126	-2.103548E-007	0.0006345	8
	42	161	18.60119	1198.794	-461.8969	1	1284.7	-21.07174	2.778236E-008	0.0006566	8
	43	163	15.02404	1226.86	-554.9018	1	1346.514	-24.33697	-3.084799E-007	0.0006375	8
	44	166	12.01923	1259.796	-672.6589	1	1428.13	-28.09967	-2.098289E-007	0.0006324	8
	45	168	9.450605	1303.405	-827.0842	1	1543.675	-32.39743	-3.090267E-007	0.000663	8
	46	171	7.512019	1352.17	-1008.189	1	1686.656	-36.7085	-2.166318E-007	0.0006381	8
	47	173	5.978954	1408.744	-1227.317	1	1868.386	-41.06282	-2.151257E-007	0.0006321	8
	48	176	4.734848	1477.442	-1501.524	1	2106.516	-45.46316	-2.301554E-007	0.0006294	8
	49	180	3.75601	1557.222	-1836.729	1	2408.01	-49.70794	-1.68194E-007	0.0006624	8
	50	183	3.004808	1649.719	-2230.953	1	2774.657	-53.51825	-1.756985E-007	0.0006316	8
	51	187	2.372217	1771.239	-2744.726	1	3266.62	-57.16485	-2.097113E-007	0.0005743	8
	52	191	1.878005	1910.497	-3379.456	1	3882.103	-60.51936	-1.806719E-007	0.0006466	8
	53	196	1.512097	2074.883	-4096.044	1	4591.592	-63.13515	-4.832971E-008	0.0006097	7
	54	201	1.201923	2295.778	-5040.561	1	5538.759	-65.5126	-3.457518E-008	0.0006378	7
	55	207	0.956633	2568.339	-6179.203	1	6691.705	-67.43015	-6.612041E-008	-1.805302E-005	7
