EXPLAIN
TAG	EISPOT
TITLE	LABEL	Potentiostatic EIS	Test Identifier
DATE	LABEL	8/10/2020	Date
TIME	LABEL	1:17:14	Time
NOTES	NOTES	1	Notes...
	
PSTAT	PSTAT	REF3000-16137	Potentiostat
VDC	POTEN	0.00000E+000	T	DC Voltage (V)
FREQINIT	QUANT	3.00000E+005	Initial Freq. (Hz)
FREQFINAL	QUANT	1.00000E+000	Final Freq. (Hz)
PTSPERDEC	QUANT	1.00000E+001	Points/decade
VAC	QUANT	5.00000E+001	AC Voltage (mV rms)
AREA	QUANT	1.00000E+000	Sample Area (cm^2)
SPEED	SELECTOR	2	Optimize for:
ZGUESS	QUANT	1.00000E+003	Estimated Z (ohms)
EOC	QUANT	0	Open Circuit (V)
SEQUENCER	TOGGLE	TRUE	Run as Sequence
PSTATMODEL	IQUANT	5	Pstat Model
PSTATSECTION	LABEL	REF3000-16137	Pstat Section
PSTATSERIALNO	LABEL	16137	Pstat Serial Number
CTRLMODE	IQUANT	1	Control Mode
IESTAB	IQUANT	0	I/E Stability
CASPEED	IQUANT	1	Control Amp Speed
CONVENTION	IQUANT	1	Current Convention
ICHRANGE	IQUANT	2	Ich Range
ICHRANGEMODE	TOGGLE	F	Ich Auto Range
ICHOFFSETENABLE	TOGGLE	T	Ich Offset Enable
ICHOFFSET	QUANT	0	Ich Offset (V)
ICHFILTER	IQUANT	3	Ich Filter
VCHRANGE	IQUANT	2	Vch Range
VCHRANGEMODE	TOGGLE	F	Vch Auto Range
VCHOFFSETENABLE	TOGGLE	T	Vch Offset Enable
VCHOFFSET	QUANT	0	Vch Offset (V)
VCHFILTER	IQUANT	3	Vch Filter
ACHRANGE	IQUANT	2	Ach Range
ACHOFFSETENABLE	TOGGLE	F	Ach Offset Enable
ACHOFFSET	QUANT	0	Ach Offset (V)
ACHFILTER	IQUANT	3	Ach Filter
IERANGELOWERLIMIT	IQUANT	2	I/E Range Lower Limit
IERANGEMODE	TOGGLE	F	I/E AutoRange
IERANGE	IQUANT	11	I/E Range
POSFEEDENABLE	TOGGLE	F	Positive Feedback IR Comp
POSFEEDRESISTANCE	QUANT	0	Positive Feedback Resistance (ohm)
ACHSELECT	IQUANT	0	Ach Select
CABLEID	IQUANT	13	Cable ID
DCCALDATE	LABEL	7/31/2020	DC Calibration Date
ACCALDATE	LABEL	7/31/2020	AC Calibration Date
THERMOSELECT	IQUANT	1	Thermo Select
FRAMEWORKVERSION	QUANT	6.33	Framework Version
INSTRUMENTVERSION	LABEL	3.50	Instrument Version
COMPLIANCEVOLTAGE	IQUANT	0	Compliance Voltage
ZCURVE	TABLE
	Pt	Time	Freq	Zreal	Zimag	Zsig	Zmod	Zphz	Idc	Vdc	IERange
	#	s	Hz	ohm	ohm	V	ohm	°	A	V	#
	0	7	300046.9	108.1696	-2.734889	1	108.2042	-1.44832	-1.6216E-005	0.0007255	9
	1	10	238359.4	109.6777	-2.990412	1	109.7185	-1.561808	2.002054E-005	-0.0011752	9
	2	14	189328.1	110.3919	-3.736642	1	110.4551	-1.938658	-7.875721E-005	0.0020124	9
	3	16	150421.9	111.4254	-4.092315	1	111.5005	-2.103354	7.573447E-005	-0.0022204	9
	4	19	119484.4	112.3103	-4.785827	1	112.4122	-2.440043	1.351601E-005	-0.0010985	9
	5	21	94921.88	113.5273	-5.130202	1	113.6431	-2.587388	4.615718E-006	-0.0004734	9
	6	24	75421.88	114.5695	-5.866446	1	114.7196	-2.931228	2.333783E-005	-0.0007131	9
	7	26	59859.37	115.8217	-6.670414	1	116.0136	-3.296144	5.230239E-006	-0.000514	9
	8	29	47578.12	117.2563	-7.530319	1	117.4978	-3.674547	2.322893E-005	-0.0007342	9
	9	32	37828.12	118.6652	-8.346017	1	118.9583	-4.023129	-1.324619E-005	0.0009046	9
	10	34	30046.88	120.6245	-9.394461	1	120.9898	-4.453312	-2.17514E-005	0.0006348	9
	11	37	23859.38	122.6088	-10.27143	1	123.0382	-4.788716	1.9592E-005	-0.0001032	9
	12	39	18984.38	124.3222	-11.27497	1	124.8324	-5.182065	-1.719931E-005	0.0003989	9
	13	41	15046.87	126.7055	-12.32962	1	127.304	-5.557909	2.340856E-005	-0.0007197	9
	14	44	11953.13	128.8277	-13.40777	1	129.5235	-5.941677	2.274112E-005	-0.0002023	9
	15	46	9515.62	131.4221	-14.14186	1	132.1808	-6.141759	2.582962E-005	-0.0005844	9
	16	48	7546.875	134.1394	-14.91481	1	134.966	-6.344597	2.361519E-005	-0.0002463	9
	17	51	5928.309	137.021	-15.80637	1	137.9297	-6.580398	-6.62829E-006	0.000765	9
	18	53	4733.456	139.9355	-16.60242	1	140.917	-6.766136	2.399477E-005	-0.0007168	9
	19	55	3796.875	142.5819	-16.87759	1	143.5773	-6.750757	-6.574309E-006	0.0007279	9
	20	57	2987.132	145.823	-17.39668	1	146.8571	-6.803228	-1.517455E-005	0.0001852	9
	21	60	2390.625	148.1732	-17.76347	1	149.2341	-6.836176	-2.057927E-005	0.0004913	9
	22	62	1884.191	151.2807	-18.3971	1	152.3952	-6.933636	-1.48195E-005	0.0001679	9
	23	64	1516.544	154.0576	-19.22543	1	155.2526	-7.113383	-1.756451E-005	0.0003864	9
	24	67	1193.986	157.1288	-20.15134	1	158.4157	-7.308137	2.525813E-005	-0.0004599	9
	25	69	946.5144	159.1876	-21.41062	1	160.621	-7.660268	-1.843913E-005	0.0009294	9
	26	72	751.7689	161.928	-23.05529	1	163.5611	-8.103303	1.383588E-005	-0.0006915	9
	27	74	597.4265	164.1991	-25.11041	1	166.108	-8.694686	2.377744E-005	-0.0007052	9
	28	76	477.4305	166.7128	-27.79685	1	169.0142	-9.466132	1.277137E-006	7.62316E-005	9
	29	79	376.6741	168.842	-31.29141	1	171.7172	-10.49947	1.328868E-006	7.528544E-005	9
	30	81	298.2954	171.3211	-35.78986	1	175.0195	-11.79968	1.237731E-006	8.137905E-005	9
	31	83	237.7717	174.8458	-41.50278	1	179.704	-13.35305	1.310262E-006	7.957274E-005	9
	32	86	189.0121	176.845	-48.35413	1	183.3365	-15.2924	1.276322E-006	7.450709E-005	9
	33	88	150.2404	180.3822	-57.15565	1	189.2208	-17.58125	1.304413E-006	7.094275E-005	9
	34	90	119.1737	184.5844	-68.18269	1	196.7746	-20.27347	9.100438E-007	0.0001317	9
	35	93	95.0169	187.788	-81.33553	1	204.6456	-23.4186	8.756981E-007	0.0001203	9
	36	95	75.60484	192.3371	-97.7932	1	215.7709	-26.95092	1.279505E-006	7.736878E-005	9
	37	98	54.50582	200.0313	-128.1896	1	237.5818	-32.6537	1.26929E-006	6.55329E-005	9
	38	100	45.95588	205.035	-148.0916	1	252.9239	-35.83963	1.410485E-006	7.338436E-005	9
	39	103	37.20238	210.7849	-177.3358	1	275.4601	-40.07429	1.404631E-006	7.450728E-005	9
	40	105	30.04808	218.491	-213.3263	1	305.3628	-44.31476	1.393219E-006	6.855361E-005	9
	41	108	23.91582	228.3248	-260.3483	1	346.2852	-48.74932	1.25556E-006	7.404062E-005	9
	42	110	18.60119	241.244	-324.7649	1	404.5627	-53.39405	1.247279E-006	7.139242E-005	9
	43	112	15.02404	254.5324	-390.7003	1	466.2976	-56.91667	2.457705E-007	0.0006524	8
	44	114	12.01923	272.6758	-476.2446	1	548.7814	-60.20653	-8.154771E-009	0.0006513	8
	45	117	9.450605	297.6202	-589.4694	1	660.3423	-63.21101	2.364941E-007	0.0006639	8
	46	119	7.512019	328.4802	-722.719	1	793.8652	-65.55791	2.013865E-007	0.0006754	8
	47	122	5.978954	367.5336	-883.9872	1	957.348	-67.42403	2.032166E-007	0.0006686	8
	48	125	4.734848	421.0575	-1085.106	1	1163.935	-68.79208	2.510632E-007	0.0006789	8
	49	128	3.75601	490.593	-1326.373	1	1414.194	-69.70179	5.889948E-008	0.0006474	8
	50	132	3.004808	577.7187	-1604.233	1	1705.088	-70.19497	1.126398E-007	0.0006951	8
	51	136	2.372217	697.7011	-1953.892	1	2074.724	-70.34923	1.321246E-007	0.0006834	8
	52	140	1.878005	849.0231	-2373.686	1	2520.957	-70.31882	9.856976E-008	0.0006328	8
	53	144	1.512097	1018.638	-2825.437	1	3003.451	-70.17455	1.49756E-007	0.0005915	8
	54	150	1.201923	1249.106	-3391.792	1	3614.487	-69.78261	1.301548E-007	0.0006399	8
	55	156	0.956633	1522.028	-4055.107	1	4331.335	-69.42708	-2.518308E-008	-1.098194E-005	7
