EXPLAIN
TAG	EISPOT
TITLE	LABEL	Potentiostatic EIS	Test Identifier
DATE	LABEL	8/10/2020	Date
TIME	LABEL	0:30:01	Time
NOTES	NOTES	1	Notes...
	
PSTAT	PSTAT	REF3000-16137	Potentiostat
VDC	POTEN	0.00000E+000	T	DC Voltage (V)
FREQINIT	QUANT	3.00000E+005	Initial Freq. (Hz)
FREQFINAL	QUANT	1.00000E+000	Final Freq. (Hz)
PTSPERDEC	QUANT	1.00000E+001	Points/decade
VAC	QUANT	5.00000E+001	AC Voltage (mV rms)
AREA	QUANT	1.00000E+000	Sample Area (cm^2)
SPEED	SELECTOR	2	Optimize for:
ZGUESS	QUANT	1.00000E+003	Estimated Z (ohms)
EOC	QUANT	0	Open Circuit (V)
SEQUENCER	TOGGLE	TRUE	Run as Sequence
PSTATMODEL	IQUANT	5	Pstat Model
PSTATSECTION	LABEL	REF3000-16137	Pstat Section
PSTATSERIALNO	LABEL	16137	Pstat Serial Number
CTRLMODE	IQUANT	1	Control Mode
IESTAB	IQUANT	0	I/E Stability
CASPEED	IQUANT	1	Control Amp Speed
CONVENTION	IQUANT	1	Current Convention
ICHRANGE	IQUANT	2	Ich Range
ICHRANGEMODE	TOGGLE	F	Ich Auto Range
ICHOFFSETENABLE	TOGGLE	T	Ich Offset Enable
ICHOFFSET	QUANT	0	Ich Offset (V)
ICHFILTER	IQUANT	3	Ich Filter
VCHRANGE	IQUANT	2	Vch Range
VCHRANGEMODE	TOGGLE	F	Vch Auto Range
VCHOFFSETENABLE	TOGGLE	T	Vch Offset Enable
VCHOFFSET	QUANT	0	Vch Offset (V)
VCHFILTER	IQUANT	3	Vch Filter
ACHRANGE	IQUANT	2	Ach Range
ACHOFFSETENABLE	TOGGLE	F	Ach Offset Enable
ACHOFFSET	QUANT	0	Ach Offset (V)
ACHFILTER	IQUANT	3	Ach Filter
IERANGELOWERLIMIT	IQUANT	2	I/E Range Lower Limit
IERANGEMODE	TOGGLE	F	I/E AutoRange
IERANGE	IQUANT	11	I/E Range
POSFEEDENABLE	TOGGLE	F	Positive Feedback IR Comp
POSFEEDRESISTANCE	QUANT	0	Positive Feedback Resistance (ohm)
ACHSELECT	IQUANT	0	Ach Select
CABLEID	IQUANT	13	Cable ID
DCCALDATE	LABEL	7/31/2020	DC Calibration Date
ACCALDATE	LABEL	7/31/2020	AC Calibration Date
THERMOSELECT	IQUANT	1	Thermo Select
FRAMEWORKVERSION	QUANT	6.33	Framework Version
INSTRUMENTVERSION	LABEL	3.50	Instrument Version
COMPLIANCEVOLTAGE	IQUANT	0	Compliance Voltage
ZCURVE	TABLE
	Pt	Time	Freq	Zreal	Zimag	Zsig	Zmod	Zphz	Idc	Vdc	IERange
	#	s	Hz	ohm	ohm	V	ohm	°	A	V	#
	0	10	300046.9	5.439213	-0.2685832	1	5.44584	-2.826915	-1.380391E-005	0.0002282	10
	1	13	238359.4	5.623655	-0.7985244	1	5.680065	-8.081622	2.456345E-005	-5.930229E-005	10
	2	16	189328.1	5.803713	-1.320001	1	5.951931	-12.81342	-3.063323E-005	0.0002177	10
	3	19	150421.9	6.038215	-1.855709	1	6.316937	-17.08363	5.313746E-006	0.000478	10
	4	22	119484.4	6.302563	-2.388564	1	6.739995	-20.75585	-3.113049E-005	0.000536	10
	5	24	94921.88	6.632727	-2.939184	1	7.254783	-23.89974	-2.969614E-005	0.0006181	10
	6	27	75421.88	6.976065	-3.550147	1	7.827453	-26.97173	1.856281E-005	0.0006126	10
	7	29	59859.37	7.375032	-4.235198	1	8.504586	-29.8671	-1.291393E-005	0.0006529	10
	8	32	47578.12	7.830124	-4.990986	1	9.285515	-32.51377	-1.858772E-005	0.0006686	10
	9	34	37828.12	8.328429	-5.826778	1	10.16435	-34.9776	-2.339131E-005	0.0007268	10
	10	37	30046.88	8.891726	-6.816297	1	11.20378	-37.47337	1.631281E-005	0.0006519	10
	11	39	23859.38	9.50254	-7.9709	1	12.40296	-39.99054	-1.389451E-005	0.0006549	10
	12	42	18984.38	10.18381	-9.312334	1	13.79962	-42.44059	2.572259E-005	0.0006631	10
	13	44	15046.87	10.96372	-10.9597	1	15.5022	-44.98948	-2.874797E-005	0.0007269	10
	14	46	11953.13	11.84764	-12.89403	1	17.51064	-47.42175	2.318767E-005	0.0006752	10
	15	48	9515.62	12.86453	-15.23188	1	19.93756	-49.81625	2.25573E-005	0.0006736	10
	16	51	7546.875	14.09186	-18.10338	1	22.94151	-52.10243	-7.614429E-006	0.0006397	10
	17	53	5928.309	15.68099	-21.68263	1	26.75874	-54.12535	-2.152268E-005	0.0006892	10
	18	55	4733.456	17.50482	-25.74255	1	31.13033	-55.78446	2.020177E-005	0.0006567	10
	19	58	3796.875	19.66056	-30.53521	1	36.31717	-57.22392	-3.071284E-005	0.0006676	10
	20	60	2987.132	22.76122	-36.43473	1	42.96001	-58.00647	-7.21648E-006	0.000196	9
	21	62	2390.625	26.36084	-43.03221	1	50.4645	-58.50903	-2.095238E-006	0.000143	9
	22	65	1884.191	31.27653	-51.19334	1	59.99149	-58.57719	1.510814E-006	2.098212E-005	9
	23	67	1516.544	36.96104	-59.67068	1	70.19051	-58.22521	-6.67094E-006	0.000165	9
	24	69	1193.986	44.78336	-70.25254	1	83.31248	-57.48402	6.574968E-006	-4.906501E-005	9
	25	72	946.5144	54.25751	-81.81114	1	98.1679	-56.44748	3.137479E-006	-1.705637E-005	9
	26	74	751.7689	66.09869	-93.89636	1	114.8284	-54.85623	-4.998526E-006	0.0001705	9
	27	76	597.4265	80.37777	-106.3494	1	133.3071	-52.91839	6.793667E-006	-5.527446E-005	9
	28	79	477.4305	96.8214	-119.6403	1	153.9096	-51.01777	-4.848744E-007	8.734241E-005	9
	29	81	376.6741	117.1147	-133.6181	1	177.6785	-48.76582	-5.272324E-007	7.536329E-005	9
	30	83	298.2954	140.0372	-148.0788	1	203.8082	-46.59877	-9.404791E-007	0.0001372	9
	31	86	237.7717	164.9155	-159.7352	1	229.5919	-44.08584	-4.869673E-007	7.447263E-005	9
	32	88	189.0121	192.755	-172.7505	1	258.8382	-41.86727	-5.448192E-007	8.433165E-005	9
	33	90	150.2404	222.6143	-184.1233	1	288.8919	-39.59399	-4.235997E-007	8.320207E-005	9
	34	93	119.1737	254.5453	-194.7705	1	320.5134	-37.42213	-3.530388E-007	7.971204E-005	9
	35	95	95.0169	287.0797	-204.3611	1	352.3893	-35.44562	-4.448485E-007	8.838948E-005	9
	36	98	75.60484	324.0629	-219.0244	1	391.1374	-34.05358	-1.510752E-006	0.0006563	8
	37	100	54.50582	375.4781	-231.9601	1	441.3493	-31.70664	-1.575831E-006	0.0006494	8
	38	103	45.95588	408.0518	-243.5164	1	475.191	-30.82783	-1.257265E-006	0.0006581	8
	39	105	37.20238	444.2025	-252.2984	1	510.8525	-29.59573	-1.40106E-006	0.0006579	8
	40	108	30.04808	479.076	-259.1245	1	544.6645	-28.40824	-1.549671E-006	0.0006594	8
	41	110	23.91582	515.1532	-265.7921	1	579.6794	-27.29137	-1.280396E-006	0.0006519	8
	42	112	18.60119	553.0425	-275.0636	1	617.6698	-26.44411	-2.465223E-006	0.0006601	8
	43	115	15.02404	587.9851	-284.3499	1	653.132	-25.80844	-8.016322E-007	0.0006665	8
	44	117	12.01923	617.4561	-295.0433	1	684.3264	-25.5402	-8.239874E-007	0.0006689	8
	45	119	9.450605	643.9223	-314.3761	1	716.567	-26.02258	-1.171176E-006	0.0006468	8
	46	122	7.512019	666.6216	-341.784	1	749.1332	-27.1447	-1.365415E-006	0.0006483	8
	47	125	5.978954	696.1276	-380.7381	1	793.4451	-28.67589	-1.26808E-006	0.0006638	8
	48	128	4.734848	729.9332	-435.5745	1	850.0163	-30.82588	-1.476345E-006	0.0006386	8
	49	131	3.75601	768.0871	-504.5015	1	918.9557	-33.29805	-1.16628E-006	0.0006856	8
	50	134	3.004808	814.4406	-589.1356	1	1005.184	-35.88056	-1.18494E-006	0.000653	8
	51	138	2.372217	879.2692	-697.4991	1	1122.328	-38.42397	-1.199656E-006	0.000606	8
	52	142	1.878005	962.484	-829.3113	1	1270.485	-40.74939	-1.103471E-006	0.0006656	8
	53	147	1.512097	1056.743	-971.681	1	1435.573	-42.59872	-1.108371E-006	0.0006881	8
	54	152	1.201923	1199.171	-1140.018	1	1654.586	-43.55143	-1.048071E-006	0.0006751	8
	55	159	0.956633	1379.139	-1321.25	1	1909.902	-43.77193	-1.285242E-006	1.712233E-005	8
