EXPLAIN
TAG	EISPOT
TITLE	LABEL	Potentiostatic EIS	Test Identifier
DATE	LABEL	8/10/2020	Date
TIME	LABEL	1:14:28	Time
NOTES	NOTES	1	Notes...
	
PSTAT	PSTAT	REF3000-16137	Potentiostat
VDC	POTEN	0.00000E+000	T	DC Voltage (V)
FREQINIT	QUANT	3.00000E+005	Initial Freq. (Hz)
FREQFINAL	QUANT	1.00000E+000	Final Freq. (Hz)
PTSPERDEC	QUANT	1.00000E+001	Points/decade
VAC	QUANT	5.00000E+001	AC Voltage (mV rms)
AREA	QUANT	1.00000E+000	Sample Area (cm^2)
SPEED	SELECTOR	2	Optimize for:
ZGUESS	QUANT	1.00000E+003	Estimated Z (ohms)
EOC	QUANT	0	Open Circuit (V)
SEQUENCER	TOGGLE	TRUE	Run as Sequence
PSTATMODEL	IQUANT	5	Pstat Model
PSTATSECTION	LABEL	REF3000-16137	Pstat Section
PSTATSERIALNO	LABEL	16137	Pstat Serial Number
CTRLMODE	IQUANT	1	Control Mode
IESTAB	IQUANT	0	I/E Stability
CASPEED	IQUANT	1	Control Amp Speed
CONVENTION	IQUANT	1	Current Convention
ICHRANGE	IQUANT	2	Ich Range
ICHRANGEMODE	TOGGLE	F	Ich Auto Range
ICHOFFSETENABLE	TOGGLE	T	Ich Offset Enable
ICHOFFSET	QUANT	0	Ich Offset (V)
ICHFILTER	IQUANT	3	Ich Filter
VCHRANGE	IQUANT	2	Vch Range
VCHRANGEMODE	TOGGLE	F	Vch Auto Range
VCHOFFSETENABLE	TOGGLE	T	Vch Offset Enable
VCHOFFSET	QUANT	0	Vch Offset (V)
VCHFILTER	IQUANT	3	Vch Filter
ACHRANGE	IQUANT	2	Ach Range
ACHOFFSETENABLE	TOGGLE	F	Ach Offset Enable
ACHOFFSET	QUANT	0	Ach Offset (V)
ACHFILTER	IQUANT	3	Ach Filter
IERANGELOWERLIMIT	IQUANT	2	I/E Range Lower Limit
IERANGEMODE	TOGGLE	F	I/E AutoRange
IERANGE	IQUANT	11	I/E Range
POSFEEDENABLE	TOGGLE	F	Positive Feedback IR Comp
POSFEEDRESISTANCE	QUANT	0	Positive Feedback Resistance (ohm)
ACHSELECT	IQUANT	0	Ach Select
CABLEID	IQUANT	13	Cable ID
DCCALDATE	LABEL	7/31/2020	DC Calibration Date
ACCALDATE	LABEL	7/31/2020	AC Calibration Date
THERMOSELECT	IQUANT	1	Thermo Select
FRAMEWORKVERSION	QUANT	6.33	Framework Version
INSTRUMENTVERSION	LABEL	3.50	Instrument Version
COMPLIANCEVOLTAGE	IQUANT	0	Compliance Voltage
ZCURVE	TABLE
	Pt	Time	Freq	Zreal	Zimag	Zsig	Zmod	Zphz	Idc	Vdc	IERange
	#	s	Hz	ohm	ohm	V	ohm	°	A	V	#
	0	6	300046.9	82.2196	-2.190176	1	82.24876	-1.525891	3.049224E-005	-3.806248E-005	9
	1	10	238359.4	83.10805	-2.815711	1	83.15573	-1.940446	1.406502E-005	-0.0016687	9
	2	13	189328.1	83.91227	-3.419738	1	83.98193	-2.333725	6.732468E-005	-0.0022498	9
	3	15	150421.9	84.7232	-4.272816	1	84.83087	-2.887132	-5.60698E-006	0.000943	9
	4	18	119484.4	85.57417	-4.937113	1	85.71648	-3.30196	-7.650878E-005	0.0029131	9
	5	20	94921.88	86.71291	-5.489384	1	86.88649	-3.622291	1.946522E-005	-0.0001456	9
	6	23	75421.88	87.72325	-6.423502	1	87.95811	-4.187987	3.317191E-006	0.0004511	9
	7	25	59859.37	88.98193	-7.477449	1	89.29555	-4.803471	1.972406E-005	-0.0002447	9
	8	28	47578.12	90.33121	-8.550654	1	90.735	-5.407444	-9.617069E-006	-6.357098E-006	9
	9	31	37828.12	91.94823	-9.72508	1	92.4611	-6.037549	-1.474572E-005	0.0002234	9
	10	33	30046.88	93.73006	-10.9227	1	94.36434	-6.646905	2.632014E-006	0.0004762	9
	11	36	23859.38	95.6515	-12.23195	1	96.4304	-7.287454	1.128432E-005	0.0001385	9
	12	38	18984.38	97.6911	-13.49328	1	98.6186	-7.864045	-1.689089E-005	0.0004242	9
	13	40	15046.87	100.2421	-14.95542	1	101.3516	-8.485541	-1.957615E-005	0.0004944	9
	14	43	11953.13	102.6242	-16.06174	1	103.8735	-8.895219	3.652514E-006	0.0004884	9
	15	45	9515.62	105.36	-17.20172	1	106.755	-9.272649	5.277229E-006	-0.0004698	9
	16	47	7546.875	108.4937	-18.35391	1	110.0352	-9.60184	-1.977425E-005	0.0006019	9
	17	49	5928.309	111.9053	-19.48695	1	113.5894	-9.87831	-1.692613E-005	0.0008385	9
	18	52	4733.456	115.2789	-20.39169	1	117.0686	-10.03128	-1.683434E-005	0.0008396	9
	19	54	3796.875	118.9017	-21.41294	1	120.8145	-10.20893	2.110805E-005	-0.0004734	9
	20	56	2987.132	122.4012	-22.0316	1	124.3682	-10.2037	1.799885E-005	-0.0006669	9
	21	59	2390.625	125.9098	-22.69193	1	127.9382	-10.21639	-1.868411E-005	0.0007681	9
	22	61	1884.191	129.0493	-23.50321	1	131.1721	-10.32191	-1.937959E-005	0.0007604	9
	23	63	1516.544	132.6383	-24.12356	1	134.8142	-10.30798	2.235779E-005	-0.0002686	9
	24	66	1193.986	136.6188	-25.22282	1	138.9277	-10.46027	2.411951E-005	-0.0004459	9
	25	68	946.5144	140.0865	-26.46893	1	142.5652	-10.69973	1.122659E-005	0.0001446	9
	26	71	751.7689	143.5423	-27.76643	1	146.2032	-10.94792	1.847535E-005	-0.0006892	9
	27	73	597.4265	146.5432	-29.35781	1	149.455	-11.32841	1.229861E-005	-0.0006102	9
	28	75	477.4305	148.8805	-31.43886	1	152.1638	-11.92388	1.312724E-006	7.957343E-005	9
	29	77	376.6741	152.0293	-34.3996	1	155.8725	-12.7496	1.316195E-006	7.072809E-005	9
	30	80	298.2954	155.0308	-38.15865	1	159.6579	-13.82768	1.274965E-006	7.250773E-005	9
	31	82	237.7717	158.1013	-42.91309	1	163.8217	-15.1858	1.377889E-006	7.037089E-005	9
	32	85	189.0121	160.8047	-48.95984	1	168.0928	-16.9338	1.262359E-006	7.660708E-005	9
	33	87	150.2404	164.0551	-56.77392	1	173.6011	-19.08901	1.303176E-006	7.187391E-005	9
	34	89	119.1737	168.4612	-66.87964	1	181.2514	-21.65324	1.353172E-006	7.272021E-005	9
	35	92	95.0169	170.9148	-78.912	1	188.2525	-24.78294	1.372032E-006	7.017011E-005	9
	36	94	75.60484	175.6604	-94.35741	1	199.3989	-28.24282	1.340519E-006	6.686884E-005	9
	37	97	54.50582	181.6745	-123.0178	1	219.406	-34.10324	1.397992E-006	6.904838E-005	9
	38	99	45.95588	186.1781	-141.9638	1	234.1281	-37.3261	1.425198E-006	7.757164E-005	9
	39	102	37.20238	191.0914	-169.8953	1	255.6958	-41.63961	1.320949E-006	8.220229E-005	9
	40	104	30.04808	198.2028	-204.392	1	284.7112	-45.88076	1.382764E-006	7.293494E-005	9
	41	107	23.91582	206.8732	-249.5077	1	324.1151	-50.33701	1.450904E-006	6.243139E-005	9
	42	109	18.60119	219.8607	-311.2921	1	381.1057	-54.76703	1.46734E-006	7.084527E-005	9
	43	111	15.02404	232.6622	-374.5558	1	440.935	-58.15276	3.909274E-007	0.0006574	8
	44	113	12.01923	250.3632	-456.3589	1	520.524	-61.25037	1.642538E-007	0.0006448	8
	45	116	9.450605	275.777	-564.2641	1	628.0501	-63.95351	2.757295E-007	0.0006591	8
	46	118	7.512019	306.5338	-690.3987	1	755.3895	-66.05901	3.461146E-007	0.000673	8
	47	121	5.978954	348.5627	-842.785	1	912.0211	-67.53078	2.806848E-007	0.0006574	8
	48	124	4.734848	405.5508	-1030.204	1	1107.155	-68.5124	3.032312E-007	0.000685	8
	49	127	3.75601	478.3177	-1254.155	1	1342.272	-69.12383	1.773243E-007	0.0006421	8
	50	131	3.004808	567.5558	-1509.411	1	1612.588	-69.39317	1.891922E-007	0.0006747	8
	51	135	2.372217	688.1071	-1828.284	1	1953.488	-69.37528	2.147576E-007	0.0007152	8
	52	139	1.878005	834.3528	-2204.288	1	2356.911	-69.26767	1.900931E-007	0.0006296	8
	53	144	1.512097	997.901	-2604.342	1	2788.979	-69.03476	2.269897E-007	0.0006834	8
	54	149	1.201923	1208.036	-3117.407	1	3343.289	-68.81799	2.180237E-007	0.0007001	8
	55	157	0.956633	1443.722	-3705.806	1	3977.101	-68.71492	1.883883E-007	1.170317E-005	8
