EXPLAIN
TAG	EISPOT
TITLE	LABEL	Potentiostatic EIS	Test Identifier
DATE	LABEL	8/10/2020	Date
TIME	LABEL	0:27:12	Time
NOTES	NOTES	1	Notes...
	
PSTAT	PSTAT	REF3000-16137	Potentiostat
VDC	POTEN	0.00000E+000	T	DC Voltage (V)
FREQINIT	QUANT	3.00000E+005	Initial Freq. (Hz)
FREQFINAL	QUANT	1.00000E+000	Final Freq. (Hz)
PTSPERDEC	QUANT	1.00000E+001	Points/decade
VAC	QUANT	5.00000E+001	AC Voltage (mV rms)
AREA	QUANT	1.00000E+000	Sample Area (cm^2)
SPEED	SELECTOR	2	Optimize for:
ZGUESS	QUANT	1.00000E+003	Estimated Z (ohms)
EOC	QUANT	0	Open Circuit (V)
SEQUENCER	TOGGLE	TRUE	Run as Sequence
PSTATMODEL	IQUANT	5	Pstat Model
PSTATSECTION	LABEL	REF3000-16137	Pstat Section
PSTATSERIALNO	LABEL	16137	Pstat Serial Number
CTRLMODE	IQUANT	1	Control Mode
IESTAB	IQUANT	0	I/E Stability
CASPEED	IQUANT	1	Control Amp Speed
CONVENTION	IQUANT	1	Current Convention
ICHRANGE	IQUANT	2	Ich Range
ICHRANGEMODE	TOGGLE	F	Ich Auto Range
ICHOFFSETENABLE	TOGGLE	T	Ich Offset Enable
ICHOFFSET	QUANT	0	Ich Offset (V)
ICHFILTER	IQUANT	3	Ich Filter
VCHRANGE	IQUANT	2	Vch Range
VCHRANGEMODE	TOGGLE	F	Vch Auto Range
VCHOFFSETENABLE	TOGGLE	T	Vch Offset Enable
VCHOFFSET	QUANT	0	Vch Offset (V)
VCHFILTER	IQUANT	3	Vch Filter
ACHRANGE	IQUANT	2	Ach Range
ACHOFFSETENABLE	TOGGLE	F	Ach Offset Enable
ACHOFFSET	QUANT	0	Ach Offset (V)
ACHFILTER	IQUANT	3	Ach Filter
IERANGELOWERLIMIT	IQUANT	2	I/E Range Lower Limit
IERANGEMODE	TOGGLE	F	I/E AutoRange
IERANGE	IQUANT	11	I/E Range
POSFEEDENABLE	TOGGLE	F	Positive Feedback IR Comp
POSFEEDRESISTANCE	QUANT	0	Positive Feedback Resistance (ohm)
ACHSELECT	IQUANT	0	Ach Select
CABLEID	IQUANT	13	Cable ID
DCCALDATE	LABEL	7/31/2020	DC Calibration Date
ACCALDATE	LABEL	7/31/2020	AC Calibration Date
THERMOSELECT	IQUANT	1	Thermo Select
FRAMEWORKVERSION	QUANT	6.33	Framework Version
INSTRUMENTVERSION	LABEL	3.50	Instrument Version
COMPLIANCEVOLTAGE	IQUANT	0	Compliance Voltage
ZCURVE	TABLE
	Pt	Time	Freq	Zreal	Zimag	Zsig	Zmod	Zphz	Idc	Vdc	IERange
	#	s	Hz	ohm	ohm	V	ohm	°	A	V	#
	0	10	300046.9	4.99975	-0.2005955	1	5.003773	-2.297537	1.385092E-005	0.0001686	10
	1	13	238359.4	5.146524	-0.7354112	1	5.198802	-8.132213	3.328806E-005	-3.150052E-005	10
	2	16	189328.1	5.325741	-1.240708	1	5.468352	-13.11397	-4.625794E-005	0.0003171	10
	3	19	150421.9	5.548906	-1.749589	1	5.818198	-17.50024	-8.959032E-006	0.0004805	10
	4	21	119484.4	5.792614	-2.279207	1	6.224883	-21.47804	1.617723E-005	0.0005204	10
	5	24	94921.88	6.110765	-2.820202	1	6.730155	-24.77397	3.485142E-006	0.000586	10
	6	26	75421.88	6.434177	-3.416613	1	7.285045	-27.96875	4.473705E-006	0.000626	10
	7	29	59859.37	6.799957	-4.090252	1	7.935337	-31.02739	2.052752E-005	0.0006824	10
	8	31	47578.12	7.216233	-4.835115	1	8.686332	-33.82339	2.016228E-005	0.0006888	10
	9	34	37828.12	7.686777	-5.680021	1	9.55768	-36.46196	1.879784E-005	0.0006567	10
	10	36	30046.88	8.192037	-6.669793	1	10.56388	-39.15179	2.470747E-005	0.0006768	10
	11	39	23859.38	8.763965	-7.836298	1	11.75647	-41.80148	-1.836524E-005	0.0006727	10
	12	41	18984.38	9.390014	-9.193519	1	13.14128	-44.3942	2.286578E-005	0.0006603	10
	13	44	15046.87	10.10252	-10.84802	1	14.82365	-47.03794	-4.516349E-006	0.0006851	10
	14	46	11953.13	10.88089	-12.89025	1	16.86868	-49.83169	-3.579034E-005	0.0006791	10
	15	48	9515.62	11.78726	-15.29946	1	19.31355	-52.38803	-2.946973E-005	0.0007212	10
	16	50	7546.875	12.92588	-18.20407	1	22.32636	-54.62317	1.910528E-005	0.0006464	10
	17	53	5928.309	14.30506	-21.94448	1	26.19532	-56.90067	3.04487E-006	0.0006462	10
	18	55	4733.456	15.86607	-26.20569	1	30.63447	-58.80746	-2.745873E-005	0.0006942	10
	19	57	3796.875	17.84716	-31.04666	1	35.81084	-60.10757	-2.004286E-005	0.0007185	10
	20	60	2987.132	20.47106	-37.39182	1	42.62877	-61.30043	1.271897E-006	2.193539E-005	9
	21	62	2390.625	23.588	-44.41038	1	50.28594	-62.02557	-6.258262E-006	0.0001478	9
	22	64	1884.191	27.89268	-53.15328	1	60.02727	-62.31134	6.69852E-006	-4.575112E-005	9
	23	67	1516.544	32.91519	-62.39092	1	70.54102	-62.18549	-4.038655E-006	0.0001184	9
	24	69	1193.986	40.61538	-73.07832	1	83.60652	-60.93562	6.292354E-006	-4.388314E-005	9
	25	72	946.5144	49.73421	-85.22243	1	98.673	-59.73297	4.014048E-006	-3.048683E-006	9
	26	74	751.7689	60.84559	-98.5743	1	115.8408	-58.3148	-7.002356E-006	0.0002324	9
	27	76	597.4265	76.2774	-108.9613	1	133.0068	-55.00639	-7.491345E-006	0.0001897	9
	28	79	477.4305	92.93443	-120.2318	1	151.9621	-52.29739	-1.15105E-006	0.000136	9
	29	81	376.6741	112.9867	-133.1927	1	174.6605	-49.69225	-7.026494E-007	8.292415E-005	9
	30	83	298.2954	135.3247	-140.8333	1	195.312	-46.14274	-7.505628E-007	8.338412E-005	9
	31	85	237.7717	157.885	-145.6114	1	214.7798	-42.6842	-6.534733E-007	7.807198E-005	9
	32	88	189.0121	180.6147	-148.0878	1	233.563	-39.34867	-7.425551E-007	7.661671E-005	9
	33	90	150.2404	201.3966	-146.9282	1	249.296	-36.1125	-7.196406E-007	7.410044E-005	9
	34	93	119.1737	221.1604	-146.0767	1	265.0478	-33.4448	-5.800222E-007	7.072818E-005	9
	35	95	95.0169	240.624	-147.5588	1	282.265	-31.51804	-6.069955E-007	7.907634E-005	9
	36	98	75.60484	253.5867	-144.3545	1	291.7952	-29.65074	-5.85954E-007	7.539979E-005	9
	37	100	54.50582	272.9406	-146.2369	1	309.6479	-28.18163	-4.937801E-007	8.224158E-005	9
	38	103	45.95588	283.455	-149.4456	1	320.4383	-27.79949	-6.172954E-007	0.0001443	9
	39	105	37.20238	300.3064	-157.1397	1	338.9348	-27.62147	-3.398664E-007	8.303263E-005	9
	40	107	30.04808	311.5175	-163.629	1	351.8772	-27.71134	-3.770347E-007	8.166516E-005	9
	41	110	23.91582	327.8094	-174.5542	1	371.3868	-28.03471	-1.369889E-006	0.0007202	8
	42	112	18.60119	348.3268	-190.6347	1	397.0808	-28.6913	-2.24821E-006	0.0006576	8
	43	114	15.02404	361.1654	-206.9056	1	416.2336	-29.80767	-1.155354E-006	0.0006699	8
	44	117	12.01923	378.5995	-230.18	1	443.0806	-31.29867	-1.775422E-006	0.0006599	8
	45	119	9.450605	397.7852	-262.5318	1	476.6089	-33.42416	-1.358506E-006	0.000651	8
	46	122	7.512019	415.6193	-303.1248	1	514.4162	-36.1045	-1.440254E-006	0.0006446	8
	47	125	5.978954	436.8961	-354.7359	1	562.7751	-39.07472	-1.322187E-006	0.000652	8
	48	128	4.734848	462.5091	-422.038	1	626.1236	-42.38035	-1.449324E-006	0.0006623	8
	49	131	3.75601	493.9167	-505.4606	1	706.7136	-45.6618	-1.31289E-006	0.0006613	8
	50	134	3.004808	536.5655	-602.8343	1	807.0389	-48.32864	-1.405176E-006	0.0006907	8
	51	138	2.372217	604.1588	-724.8065	1	943.5848	-50.18728	-1.282826E-006	0.0007162	8
	52	142	1.878005	694.6104	-864.0431	1	1108.627	-51.20395	-1.287145E-006	0.0006401	8
	53	147	1.512097	804.7322	-1009.144	1	1290.723	-51.42972	-1.256742E-006	0.0007617	8
	54	152	1.201923	963.167	-1172.005	1	1516.999	-50.58627	-1.217031E-006	0.000639	8
	55	159	0.956633	1159.714	-1338.401	1	1770.947	-49.09132	-1.476129E-006	1.471509E-005	8
