EXPLAIN
TAG	EISPOT
TITLE	LABEL	Potentiostatic EIS	Test Identifier
DATE	LABEL	8/10/2020	Date
TIME	LABEL	0:04:51	Time
NOTES	NOTES	1	Notes...
	
PSTAT	PSTAT	REF3000-16137	Potentiostat
VDC	POTEN	0.00000E+000	T	DC Voltage (V)
FREQINIT	QUANT	3.00000E+005	Initial Freq. (Hz)
FREQFINAL	QUANT	1.00000E+000	Final Freq. (Hz)
PTSPERDEC	QUANT	1.00000E+001	Points/decade
VAC	QUANT	5.00000E+001	AC Voltage (mV rms)
AREA	QUANT	1.00000E+000	Sample Area (cm^2)
SPEED	SELECTOR	2	Optimize for:
ZGUESS	QUANT	1.00000E+003	Estimated Z (ohms)
EOC	QUANT	0	Open Circuit (V)
SEQUENCER	TOGGLE	TRUE	Run as Sequence
PSTATMODEL	IQUANT	5	Pstat Model
PSTATSECTION	LABEL	REF3000-16137	Pstat Section
PSTATSERIALNO	LABEL	16137	Pstat Serial Number
CTRLMODE	IQUANT	1	Control Mode
IESTAB	IQUANT	0	I/E Stability
CASPEED	IQUANT	1	Control Amp Speed
CONVENTION	IQUANT	1	Current Convention
ICHRANGE	IQUANT	2	Ich Range
ICHRANGEMODE	TOGGLE	F	Ich Auto Range
ICHOFFSETENABLE	TOGGLE	T	Ich Offset Enable
ICHOFFSET	QUANT	0	Ich Offset (V)
ICHFILTER	IQUANT	3	Ich Filter
VCHRANGE	IQUANT	2	Vch Range
VCHRANGEMODE	TOGGLE	F	Vch Auto Range
VCHOFFSETENABLE	TOGGLE	T	Vch Offset Enable
VCHOFFSET	QUANT	0	Vch Offset (V)
VCHFILTER	IQUANT	3	Vch Filter
ACHRANGE	IQUANT	2	Ach Range
ACHOFFSETENABLE	TOGGLE	F	Ach Offset Enable
ACHOFFSET	QUANT	0	Ach Offset (V)
ACHFILTER	IQUANT	3	Ach Filter
IERANGELOWERLIMIT	IQUANT	2	I/E Range Lower Limit
IERANGEMODE	TOGGLE	F	I/E AutoRange
IERANGE	IQUANT	11	I/E Range
POSFEEDENABLE	TOGGLE	F	Positive Feedback IR Comp
POSFEEDRESISTANCE	QUANT	0	Positive Feedback Resistance (ohm)
ACHSELECT	IQUANT	0	Ach Select
CABLEID	IQUANT	13	Cable ID
DCCALDATE	LABEL	7/31/2020	DC Calibration Date
ACCALDATE	LABEL	7/31/2020	AC Calibration Date
THERMOSELECT	IQUANT	1	Thermo Select
FRAMEWORKVERSION	QUANT	6.33	Framework Version
INSTRUMENTVERSION	LABEL	3.50	Instrument Version
COMPLIANCEVOLTAGE	IQUANT	0	Compliance Voltage
ZCURVE	TABLE
	Pt	Time	Freq	Zreal	Zimag	Zsig	Zmod	Zphz	Idc	Vdc	IERange
	#	s	Hz	ohm	ohm	V	ohm	°	A	V	#
	0	9	300046.9	3.136087	-0.2517297	1	3.146174	-4.58922	-0.0001148	-0.0005862	12
	1	13	238359.4	3.279083	-0.3859912	1	3.301723	-6.713572	-0.0001421	-0.0001276	11
	2	16	189328.1	3.413521	-0.8358905	1	3.514376	-13.75962	-5.212766E-005	0.0002727	11
	3	19	150421.9	3.589678	-1.246336	1	3.799887	-19.147	7.301785E-006	0.000495	10
	4	21	119484.4	3.766637	-1.692443	1	4.129396	-24.19556	4.958393E-005	0.0003952	10
	5	24	94921.88	3.987013	-2.152257	1	4.530837	-28.36093	-1.139097E-005	0.0006067	10
	6	26	75421.88	4.220254	-2.671989	1	4.995005	-32.33931	-3.063626E-005	0.0006185	10
	7	29	59859.37	4.483428	-3.235569	1	5.529017	-35.81697	-1.501956E-005	0.0006872	10
	8	31	47578.12	4.775986	-3.892333	1	6.161193	-39.17934	-3.967892E-005	0.000687	10
	9	34	37828.12	5.103377	-4.634075	1	6.893411	-42.24073	4.452249E-006	0.0006972	10
	10	37	30046.88	5.487182	-5.51183	1	7.777496	-45.1284	4.756078E-006	0.0006689	10
	11	39	23859.38	5.910273	-6.556492	1	8.827169	-47.96729	-1.432951E-005	0.0006614	10
	12	41	18984.38	6.401306	-7.786911	1	10.08031	-50.57775	-2.199221E-005	0.0006646	10
	13	44	15046.87	6.996201	-9.261391	1	11.6069	-52.93202	-2.578259E-005	0.0007188	10
	14	46	11953.13	7.690435	-11.03242	1	13.44831	-55.12057	-1.866554E-006	0.0006711	10
	15	48	9515.62	8.469176	-13.18447	1	15.67027	-57.28494	1.588669E-005	0.0006625	10
	16	51	7546.875	9.470342	-15.78393	1	18.40705	-59.03628	-2.798706E-005	0.0006631	10
	17	53	5928.309	10.73445	-19.01963	1	21.83975	-60.56015	-2.285954E-006	0.0006613	10
	18	55	4733.456	12.19758	-22.64801	1	25.72379	-61.69434	-3.399744E-005	0.0006897	10
	19	58	3796.875	13.95379	-26.89987	1	30.30365	-62.58284	-1.754227E-005	0.0006639	10
	20	60	2987.132	16.40695	-32.29907	1	36.22731	-63.07082	8.355467E-006	0.0006477	10
	21	62	2390.625	19.19495	-38.2089	1	42.7594	-63.32649	-2.961746E-006	1.676327E-005	9
	22	64	1884.191	22.91033	-45.78002	1	51.19271	-63.4146	-1.107943E-005	0.0001166	9
	23	67	1516.544	27.21094	-53.75615	1	60.25079	-63.15182	-1.252773E-005	0.0001339	9
	24	69	1193.986	33.10836	-63.85832	1	71.93086	-62.5948	-6.374154E-006	5.241282E-005	9
	25	72	946.5144	40.29042	-75.16366	1	85.28126	-61.80709	-1.512526E-005	0.000144	9
	26	74	751.7689	49.19431	-87.7367	1	100.5873	-60.72048	-1.364114E-005	0.0001536	9
	27	76	597.4265	60.28074	-101.7272	1	118.2463	-59.35018	-1.329269E-006	-1.503718E-007	9
	28	79	477.4305	72.99886	-116.7266	1	137.6732	-57.97882	-7.779853E-006	8.237698E-005	9
	29	81	376.6741	89.23956	-133.8852	1	160.9004	-56.31504	-7.803722E-006	7.592776E-005	9
	30	83	298.2954	108.1541	-151.9872	1	186.5407	-54.56433	-8.151958E-006	0.0001354	9
	31	86	237.7717	129.4848	-170.4977	1	214.0929	-52.78507	-7.777502E-006	7.692182E-005	9
	32	88	189.0121	154.277	-190.1294	1	244.848	-50.94303	-7.667677E-006	7.469289E-005	9
	33	90	150.2404	182.3957	-210.6533	1	278.645	-49.11211	-7.560109E-006	7.836478E-005	9
	34	93	119.1737	214.5222	-231.9174	1	315.92	-47.23137	-7.582979E-006	7.259331E-005	9
	35	95	95.0169	249.7711	-253.0938	1	355.5869	-45.37858	-7.518978E-006	7.692248E-005	9
	36	98	75.60484	289.561	-274.0627	1	398.6927	-43.4249	-7.502743E-006	7.872779E-005	9
	37	100	54.50582	353.0735	-301.3658	1	464.2007	-40.4824	-8.709663E-006	0.0007192	8
	38	103	45.95588	390.4766	-314.6093	1	501.4489	-38.8586	-8.562468E-006	0.0006658	8
	39	105	37.20238	440.1021	-328.5092	1	549.1886	-36.73908	-8.579996E-006	0.0006567	8
	40	107	30.04808	493.1624	-340.1045	1	599.0661	-34.5917	-8.701304E-006	0.000662	8
	41	110	23.91582	550.4804	-346.113	1	650.2484	-32.15952	-8.924126E-006	0.0007209	8
	42	112	18.60119	611.6915	-348.3613	1	703.9332	-29.66172	-8.255265E-006	0.0006684	8
	43	114	15.02404	660.5065	-346.3076	1	745.7866	-27.66829	-9.049108E-006	0.0006658	8
	44	117	12.01923	706.4168	-343.5557	1	785.5286	-25.93531	-8.604534E-006	0.0006625	8
	45	119	9.450605	752.3576	-343.7587	1	827.1711	-24.55607	-8.55903E-006	0.0006632	8
	46	122	7.512019	793.6618	-349.3367	1	867.142	-23.75709	-8.663182E-006	0.0006815	8
	47	124	5.978954	834.6703	-359.417	1	908.7657	-23.29717	-8.936845E-006	0.000667	8
	48	127	4.734848	877.6281	-376.9397	1	955.152	-23.24343	-8.810879E-006	0.0007499	8
	49	131	3.75601	925.1562	-399.9126	1	1007.891	-23.37714	-9.010711E-006	0.0006526	8
	50	134	3.004808	978.177	-425.814	1	1066.84	-23.52415	-8.84867E-006	0.000638	8
	51	138	2.372217	1044.163	-456.5009	1	1139.592	-23.61461	-8.801339E-006	0.0006593	8
	52	142	1.878005	1118.518	-484.1705	1	1218.813	-23.40623	-8.716824E-006	0.0006682	8
	53	147	1.512097	1195.822	-506.5655	1	1298.691	-22.95814	-8.5472E-006	0.0005561	8
	54	152	1.201923	1288.414	-523.855	1	1390.84	-22.12612	-8.370469E-006	0.0006758	8
	55	158	0.956633	1383.165	-529.6609	1	1481.109	-20.95355	-8.532755E-006	1.980534E-005	8
