EXPLAIN
TAG	EISPOT
TITLE	LABEL	Potentiostatic EIS	Test Identifier
DATE	LABEL	8/10/2020	Date
TIME	LABEL	0:16:01	Time
NOTES	NOTES	1	Notes...
	
PSTAT	PSTAT	REF3000-16137	Potentiostat
VDC	POTEN	0.00000E+000	T	DC Voltage (V)
FREQINIT	QUANT	3.00000E+005	Initial Freq. (Hz)
FREQFINAL	QUANT	1.00000E+000	Final Freq. (Hz)
PTSPERDEC	QUANT	1.00000E+001	Points/decade
VAC	QUANT	5.00000E+001	AC Voltage (mV rms)
AREA	QUANT	1.00000E+000	Sample Area (cm^2)
SPEED	SELECTOR	2	Optimize for:
ZGUESS	QUANT	1.00000E+003	Estimated Z (ohms)
EOC	QUANT	0	Open Circuit (V)
SEQUENCER	TOGGLE	TRUE	Run as Sequence
PSTATMODEL	IQUANT	5	Pstat Model
PSTATSECTION	LABEL	REF3000-16137	Pstat Section
PSTATSERIALNO	LABEL	16137	Pstat Serial Number
CTRLMODE	IQUANT	1	Control Mode
IESTAB	IQUANT	0	I/E Stability
CASPEED	IQUANT	1	Control Amp Speed
CONVENTION	IQUANT	1	Current Convention
ICHRANGE	IQUANT	2	Ich Range
ICHRANGEMODE	TOGGLE	F	Ich Auto Range
ICHOFFSETENABLE	TOGGLE	T	Ich Offset Enable
ICHOFFSET	QUANT	0	Ich Offset (V)
ICHFILTER	IQUANT	3	Ich Filter
VCHRANGE	IQUANT	2	Vch Range
VCHRANGEMODE	TOGGLE	F	Vch Auto Range
VCHOFFSETENABLE	TOGGLE	T	Vch Offset Enable
VCHOFFSET	QUANT	0	Vch Offset (V)
VCHFILTER	IQUANT	3	Vch Filter
ACHRANGE	IQUANT	2	Ach Range
ACHOFFSETENABLE	TOGGLE	F	Ach Offset Enable
ACHOFFSET	QUANT	0	Ach Offset (V)
ACHFILTER	IQUANT	3	Ach Filter
IERANGELOWERLIMIT	IQUANT	2	I/E Range Lower Limit
IERANGEMODE	TOGGLE	F	I/E AutoRange
IERANGE	IQUANT	11	I/E Range
POSFEEDENABLE	TOGGLE	F	Positive Feedback IR Comp
POSFEEDRESISTANCE	QUANT	0	Positive Feedback Resistance (ohm)
ACHSELECT	IQUANT	0	Ach Select
CABLEID	IQUANT	13	Cable ID
DCCALDATE	LABEL	7/31/2020	DC Calibration Date
ACCALDATE	LABEL	7/31/2020	AC Calibration Date
THERMOSELECT	IQUANT	1	Thermo Select
FRAMEWORKVERSION	QUANT	6.33	Framework Version
INSTRUMENTVERSION	LABEL	3.50	Instrument Version
COMPLIANCEVOLTAGE	IQUANT	0	Compliance Voltage
ZCURVE	TABLE
	Pt	Time	Freq	Zreal	Zimag	Zsig	Zmod	Zphz	Idc	Vdc	IERange
	#	s	Hz	ohm	ohm	V	ohm	°	A	V	#
	0	9	300046.9	3.776804	-0.0021882	1	3.776804	-0.0331957	1.783068E-005	-0.0004442	10
	1	12	238359.4	3.891546	-0.4979477	1	3.923275	-7.29173	-1.683092E-005	-0.0003201	10
	2	15	189328.1	4.05234	-0.966899	1	4.166095	-13.42	1.764629E-005	0.0000991	10
	3	18	150421.9	4.226981	-1.428431	1	4.461814	-18.67175	7.364558E-005	0.0001785	10
	4	21	119484.4	4.442112	-1.917924	1	4.83847	-23.35272	4.588845E-006	0.0005112	10
	5	23	94921.88	4.688485	-2.398455	1	5.266354	-27.0926	1.678328E-005	0.0005459	10
	6	26	75421.88	4.961859	-2.934231	1	5.764525	-30.59826	-3.884552E-006	0.0006325	10
	7	28	59859.37	5.259074	-3.541328	1	6.340258	-33.95533	-9.365373E-006	0.0007066	10
	8	31	47578.12	5.596601	-4.217865	1	7.008019	-37.00343	-2.223504E-005	0.0007298	10
	9	33	37828.12	5.971019	-5.001581	1	7.789023	-39.95098	9.027644E-006	0.0006961	10
	10	36	30046.88	6.395253	-5.912367	1	8.709497	-42.75317	-5.032649E-007	0.0007161	10
	11	38	23859.38	6.876941	-7.001259	1	9.81376	-45.51323	-2.219219E-005	0.0006798	10
	12	41	18984.38	7.412074	-8.282845	1	11.11505	-48.17558	-3.273125E-005	0.0006834	10
	13	43	15046.87	8.041069	-9.83022	1	12.70008	-50.71701	-1.378334E-006	0.0007055	10
	14	45	11953.13	8.778533	-11.7002	1	14.62728	-53.11949	-1.248366E-005	0.0006631	10
	15	48	9515.62	9.6447	-13.88937	1	16.90961	-55.2241	-2.019474E-005	0.0007209	10
	16	50	7546.875	10.68401	-16.61966	1	19.75756	-57.26492	1.342522E-005	0.0006716	10
	17	52	5928.309	12.04677	-20.00967	1	23.35619	-58.95008	-2.01345E-005	0.0006866	10
	18	55	4733.456	13.5804	-23.84088	1	27.43747	-60.333	-2.974153E-005	0.0006883	10
	19	57	3796.875	15.55534	-28.14358	1	32.15633	-61.06997	-4.311587E-007	0.0006746	10
	20	59	2987.132	18.02555	-33.96178	1	38.44897	-62.04243	-7.846028E-006	0.0006553	10
	21	61	2390.625	20.90097	-40.28347	1	45.38291	-62.57758	-8.781893E-006	0.0001247	9
	22	64	1884.191	24.87171	-48.20086	1	54.23952	-62.7062	-5.642746E-006	0.0001149	9
	23	66	1516.544	29.47463	-56.54755	1	63.76816	-62.46984	-2.909682E-006	6.103623E-005	9
	24	68	1193.986	35.78625	-67.18159	1	76.11848	-61.9567	1.47291E-006	2.222796E-006	9
	25	71	946.5144	43.38799	-79.33174	1	90.42147	-61.32494	4.244343E-006	-1.843132E-005	9
	26	73	751.7689	52.91619	-92.43436	1	106.5093	-60.21002	2.302355E-006	1.932072E-006	9
	27	76	597.4265	64.84728	-107.2309	1	125.3142	-58.83679	4.502054E-006	-2.627516E-005	9
	28	78	477.4305	78.51282	-122.9769	1	145.9026	-57.4444	-2.719066E-006	8.267244E-005	9
	29	80	376.6741	96.1798	-140.7076	1	170.4382	-55.64568	-2.754827E-006	6.940869E-005	9
	30	83	298.2954	116.8113	-159.1914	1	197.4507	-53.72956	-2.689122E-006	8.244662E-005	9
	31	85	237.7717	140.0307	-178.0923	1	226.5512	-51.82269	-2.56046E-006	8.134163E-005	9
	32	87	189.0121	167.0167	-197.6459	1	258.7634	-49.80119	-2.571021E-006	7.623556E-005	9
	33	90	150.2404	197.5086	-217.4411	1	293.7521	-47.75014	-2.509915E-006	7.60666E-005	9
	34	92	119.1737	231.9729	-237.1555	1	331.7441	-45.63295	-2.618538E-006	7.917536E-005	9
	35	94	95.0169	269.454	-257.547	1	372.7411	-43.70568	-2.538249E-006	7.754139E-005	9
	36	97	75.60484	309.2279	-273.3412	1	412.7194	-41.475	-3.6488E-006	0.0006621	8
	37	100	54.50582	374.9729	-298.0293	1	478.9845	-38.47775	-3.614515E-006	0.0006519	8
	38	102	45.95588	412.5263	-309.4246	1	515.6758	-36.87255	-3.717123E-006	0.0006648	8
	39	105	37.20238	461.1563	-321.5241	1	562.1769	-34.88471	-3.890948E-006	0.0006645	8
	40	107	30.04808	512.5103	-330.0171	1	609.5721	-32.77841	-3.844773E-006	0.0006664	8
	41	109	23.91582	564.6983	-332.2627	1	655.1967	-30.47212	-3.954025E-006	0.0006532	8
	42	112	18.60119	622.6399	-334.4596	1	706.784	-28.24308	-4.281717E-006	0.0006684	8
	43	114	15.02404	666.2629	-331.1044	1	744.0002	-26.42543	-3.384459E-006	0.0006573	8
	44	116	12.01923	704.6059	-327.3457	1	776.9329	-24.91863	-3.345763E-006	0.0006673	8
	45	119	9.450605	741.792	-330.3546	1	812.028	-24.00564	-4.038778E-006	0.0007145	8
	46	121	7.512019	778.7386	-340.9973	1	850.1252	-23.64785	-4.100982E-006	0.0006503	8
	47	124	5.978954	811.0048	-357.5842	1	886.3381	-23.7934	-3.895241E-006	0.0006604	8
	48	127	4.734848	846.2042	-383.8224	1	929.183	-24.39815	-3.839757E-006	0.0006395	8
	49	130	3.75601	893.8149	-421.6192	1	988.265	-25.2536	-3.774963E-006	0.0006609	8
	50	134	3.004808	938.0779	-465.3193	1	1047.145	-26.38301	-3.593388E-006	0.0006366	8
	51	137	2.372217	1004.093	-520.819	1	1131.13	-27.41558	-3.666205E-006	0.0005971	8
	52	142	1.878005	1068.709	-581.3542	1	1216.598	-28.54522	-3.434452E-006	0.0006636	8
	53	146	1.512097	1155.814	-639.6381	1	1321.001	-28.96055	-3.363041E-006	0.00056	8
	54	152	1.201923	1259.814	-701.7499	1	1442.077	-29.11896	-3.152849E-006	0.0006886	8
	55	158	0.956633	1367.678	-760.4107	1	1564.854	-29.07347	-3.162151E-006	1.199488E-005	8
