EXPLAIN
TAG	EISPOT
TITLE	LABEL	Potentiostatic EIS	Test Identifier
DATE	LABEL	8/9/2020	Date
TIME	LABEL	23:59:06	Time
NOTES	NOTES	1	Notes...
	
PSTAT	PSTAT	REF3000-16137	Potentiostat
VDC	POTEN	0.00000E+000	T	DC Voltage (V)
FREQINIT	QUANT	3.00000E+005	Initial Freq. (Hz)
FREQFINAL	QUANT	1.00000E+000	Final Freq. (Hz)
PTSPERDEC	QUANT	1.00000E+001	Points/decade
VAC	QUANT	5.00000E+001	AC Voltage (mV rms)
AREA	QUANT	1.00000E+000	Sample Area (cm^2)
SPEED	SELECTOR	2	Optimize for:
ZGUESS	QUANT	1.00000E+003	Estimated Z (ohms)
EOC	QUANT	0	Open Circuit (V)
SEQUENCER	TOGGLE	TRUE	Run as Sequence
PSTATMODEL	IQUANT	5	Pstat Model
PSTATSECTION	LABEL	REF3000-16137	Pstat Section
PSTATSERIALNO	LABEL	16137	Pstat Serial Number
CTRLMODE	IQUANT	1	Control Mode
IESTAB	IQUANT	0	I/E Stability
CASPEED	IQUANT	1	Control Amp Speed
CONVENTION	IQUANT	1	Current Convention
ICHRANGE	IQUANT	2	Ich Range
ICHRANGEMODE	TOGGLE	F	Ich Auto Range
ICHOFFSETENABLE	TOGGLE	T	Ich Offset Enable
ICHOFFSET	QUANT	0	Ich Offset (V)
ICHFILTER	IQUANT	3	Ich Filter
VCHRANGE	IQUANT	2	Vch Range
VCHRANGEMODE	TOGGLE	F	Vch Auto Range
VCHOFFSETENABLE	TOGGLE	T	Vch Offset Enable
VCHOFFSET	QUANT	0	Vch Offset (V)
VCHFILTER	IQUANT	3	Vch Filter
ACHRANGE	IQUANT	2	Ach Range
ACHOFFSETENABLE	TOGGLE	F	Ach Offset Enable
ACHOFFSET	QUANT	0	Ach Offset (V)
ACHFILTER	IQUANT	3	Ach Filter
IERANGELOWERLIMIT	IQUANT	2	I/E Range Lower Limit
IERANGEMODE	TOGGLE	F	I/E AutoRange
IERANGE	IQUANT	11	I/E Range
POSFEEDENABLE	TOGGLE	F	Positive Feedback IR Comp
POSFEEDRESISTANCE	QUANT	0	Positive Feedback Resistance (ohm)
ACHSELECT	IQUANT	0	Ach Select
CABLEID	IQUANT	13	Cable ID
DCCALDATE	LABEL	7/31/2020	DC Calibration Date
ACCALDATE	LABEL	7/31/2020	AC Calibration Date
THERMOSELECT	IQUANT	1	Thermo Select
FRAMEWORKVERSION	QUANT	6.33	Framework Version
INSTRUMENTVERSION	LABEL	3.50	Instrument Version
COMPLIANCEVOLTAGE	IQUANT	0	Compliance Voltage
ZCURVE	TABLE
	Pt	Time	Freq	Zreal	Zimag	Zsig	Zmod	Zphz	Idc	Vdc	IERange
	#	s	Hz	ohm	ohm	V	ohm	°	A	V	#
	0	9	300046.9	2.993824	-0.1875036	1	2.99969	-3.583761	-0.0001326	0.0009177	12
	1	14	238359.4	3.126406	-0.3319297	1	3.143977	-6.060374	2.580222E-005	7.689123E-005	11
	2	17	189328.1	3.251569	-0.7728471	1	3.342154	-13.37022	6.451997E-006	0.0003274	11
	3	19	150421.9	3.39508	-1.207482	1	3.603412	-19.57825	-0.0001038	0.0004714	11
	4	22	119484.4	3.585586	-1.627081	1	3.937489	-24.40778	2.2383E-005	0.000661	10
	5	24	94921.88	3.790492	-2.082624	1	4.324946	-28.78588	2.870697E-005	0.0005435	10
	6	27	75421.88	4.014642	-2.587384	1	4.776182	-32.80125	-5.710944E-006	0.0006222	10
	7	30	59859.37	4.261315	-3.15665	1	5.303135	-36.5299	-2.851802E-005	0.0007094	10
	8	32	47578.12	4.54169	-3.807623	1	5.92663	-39.9755	-8.901331E-006	0.0006643	10
	9	35	37828.12	4.850022	-4.552674	1	6.652034	-43.1887	-1.777994E-005	0.0007195	10
	10	37	30046.88	5.207867	-5.432999	1	7.525912	-46.21205	-1.684686E-005	0.0007204	10
	11	40	23859.38	5.615321	-6.48799	1	8.58055	-49.12399	-1.690116E-005	0.0006603	10
	12	42	18984.38	6.092875	-7.725595	1	9.8391	-51.73854	-8.687816E-006	0.0006628	10
	13	44	15046.87	6.650889	-9.2478	1	11.39106	-54.27684	-3.842612E-005	0.0006773	10
	14	47	11953.13	7.328197	-11.02189	1	13.23573	-56.38099	-2.287268E-005	0.0006965	10
	15	49	9515.62	8.092021	-13.19045	1	15.47478	-58.4719	-1.003854E-005	0.0006937	10
	16	51	7546.875	9.052302	-15.82829	1	18.234	-60.23447	1.075901E-005	0.0006605	10
	17	54	5928.309	10.32681	-19.09804	1	21.71124	-61.59874	-6.228092E-007	0.0006415	10
	18	56	4733.456	11.76445	-22.78912	1	25.64657	-62.69582	-2.323816E-005	0.0006738	10
	19	58	3796.875	13.43203	-27.14802	1	30.28918	-63.67517	-2.604971E-005	0.0006419	10
	20	61	2987.132	15.89008	-32.61691	1	36.28164	-64.0259	1.092597E-005	0.0006473	10
	21	63	2390.625	18.61655	-38.68866	1	42.9347	-64.30367	-1.553182E-005	0.0001344	9
	22	65	1884.191	22.35981	-46.34794	1	51.45962	-64.24577	-1.35311E-005	8.6575E-005	9
	23	68	1516.544	26.63414	-54.48587	1	60.64723	-63.94939	-1.346351E-005	8.808282E-005	9
	24	70	1193.986	32.50674	-64.81671	1	72.51134	-63.36541	-1.675083E-005	0.0001407	9
	25	72	946.5144	39.6486	-76.53809	1	86.19798	-62.61474	-1.861325E-005	0.0001386	9
	26	75	751.7689	48.56176	-89.50036	1	101.8261	-61.5163	-1.692447E-005	0.0001374	9
	27	77	597.4265	59.50088	-104.0181	1	119.8337	-60.22939	-9.381425E-006	4.252112E-005	9
	28	79	477.4305	72.55741	-119.5361	1	139.8336	-58.74259	-1.132236E-005	7.900044E-005	9
	29	82	376.6741	89.02624	-137.465	1	163.7752	-57.07177	-1.132063E-005	7.537194E-005	9
	30	84	298.2954	108.3125	-156.378	1	190.2253	-55.29227	-1.124945E-005	7.367089E-005	9
	31	86	237.7717	130.1114	-175.7532	1	218.6737	-53.48717	-1.118839E-005	7.014759E-005	9
	32	89	189.0121	155.5856	-196.2925	1	250.4748	-51.5989	-1.117188E-005	6.755415E-005	9
	33	91	150.2404	184.5926	-217.4205	1	285.2124	-49.66835	-1.101616E-005	7.098856E-005	9
	34	94	119.1737	217.6965	-239.006	1	323.2887	-47.67145	-1.09963E-005	7.698769E-005	9
	35	96	95.0169	253.8629	-260.4453	1	363.7006	-45.73326	-1.078791E-005	7.789877E-005	9
	36	98	75.60484	294.7249	-282.0522	1	407.9414	-43.74133	-1.07714E-005	7.476701E-005	9
	37	101	54.50582	359.8899	-310.5471	1	475.3528	-40.79073	-1.202483E-005	0.0006613	8
	38	104	45.95588	398.4229	-324.503	1	513.8511	-39.16174	-1.187249E-005	0.0007217	8
	39	106	37.20238	449.2972	-339.3965	1	563.079	-37.06718	-1.218004E-005	0.00067	8
	40	108	30.04808	503.2505	-350.6089	1	613.3414	-34.86449	-1.186981E-005	0.0006624	8
	41	111	23.91582	563.9832	-359.6729	1	668.9108	-32.52716	-1.194815E-005	0.0006666	8
	42	113	18.60119	628.1886	-360.9794	1	724.5185	-29.8832	-1.207879E-005	0.000668	8
	43	115	15.02404	680.8108	-359.6296	1	769.9589	-27.84468	-1.25278E-005	0.0006642	8
	44	118	12.01923	729.5386	-356.2619	1	811.88	-26.02805	-1.186387E-005	0.0006682	8
	45	120	9.450605	777.4382	-354.8333	1	854.5858	-24.5326	-1.249951E-005	0.0006629	8
	46	123	7.512019	821.3146	-358.7498	1	896.2473	-23.59568	-1.244904E-005	0.0007152	8
	47	125	5.978954	863.1962	-366.4584	1	937.7629	-23.003	-1.220135E-005	0.0006787	8
	48	128	4.734848	907.4693	-381.7004	1	984.477	-22.81263	-1.241929E-005	0.0006478	8
	49	132	3.75601	955.943	-401.8491	1	1036.972	-22.80038	-1.223406E-005	0.0006883	8
	50	135	3.004808	1011.23	-427.1175	1	1097.732	-22.89794	-1.222528E-005	0.0006497	8
	51	139	2.372217	1073.436	-453.3304	1	1165.235	-22.89517	-1.216131E-005	0.0006077	8
	52	143	1.878005	1146.027	-479.754	1	1242.394	-22.71533	-1.194024E-005	0.0006658	8
	53	148	1.512097	1222.541	-500.2942	1	1320.947	-22.25559	-1.18332E-005	0.0006804	8
	54	153	1.201923	1310.306	-512.7037	1	1407.042	-21.36968	-1.168036E-005	0.0007507	8
	55	166	0.956633	1402.615	-514.0159	1	1493.834	-20.12636	-1.193134E-005	7.380585E-005	8
