EXPLAIN
TAG	EISPOT
TITLE	LABEL	Potentiostatic EIS	Test Identifier
DATE	LABEL	8/10/2020	Date
TIME	LABEL	0:57:52	Time
NOTES	NOTES	1	Notes...
	
PSTAT	PSTAT	REF3000-16137	Potentiostat
VDC	POTEN	0.00000E+000	T	DC Voltage (V)
FREQINIT	QUANT	3.00000E+005	Initial Freq. (Hz)
FREQFINAL	QUANT	1.00000E+000	Final Freq. (Hz)
PTSPERDEC	QUANT	1.00000E+001	Points/decade
VAC	QUANT	5.00000E+001	AC Voltage (mV rms)
AREA	QUANT	1.00000E+000	Sample Area (cm^2)
SPEED	SELECTOR	2	Optimize for:
ZGUESS	QUANT	1.00000E+003	Estimated Z (ohms)
EOC	QUANT	0	Open Circuit (V)
SEQUENCER	TOGGLE	TRUE	Run as Sequence
PSTATMODEL	IQUANT	5	Pstat Model
PSTATSECTION	LABEL	REF3000-16137	Pstat Section
PSTATSERIALNO	LABEL	16137	Pstat Serial Number
CTRLMODE	IQUANT	1	Control Mode
IESTAB	IQUANT	0	I/E Stability
CASPEED	IQUANT	1	Control Amp Speed
CONVENTION	IQUANT	1	Current Convention
ICHRANGE	IQUANT	2	Ich Range
ICHRANGEMODE	TOGGLE	F	Ich Auto Range
ICHOFFSETENABLE	TOGGLE	T	Ich Offset Enable
ICHOFFSET	QUANT	0	Ich Offset (V)
ICHFILTER	IQUANT	3	Ich Filter
VCHRANGE	IQUANT	2	Vch Range
VCHRANGEMODE	TOGGLE	F	Vch Auto Range
VCHOFFSETENABLE	TOGGLE	T	Vch Offset Enable
VCHOFFSET	QUANT	0	Vch Offset (V)
VCHFILTER	IQUANT	3	Vch Filter
ACHRANGE	IQUANT	2	Ach Range
ACHOFFSETENABLE	TOGGLE	F	Ach Offset Enable
ACHOFFSET	QUANT	0	Ach Offset (V)
ACHFILTER	IQUANT	3	Ach Filter
IERANGELOWERLIMIT	IQUANT	2	I/E Range Lower Limit
IERANGEMODE	TOGGLE	F	I/E AutoRange
IERANGE	IQUANT	11	I/E Range
POSFEEDENABLE	TOGGLE	F	Positive Feedback IR Comp
POSFEEDRESISTANCE	QUANT	0	Positive Feedback Resistance (ohm)
ACHSELECT	IQUANT	0	Ach Select
CABLEID	IQUANT	13	Cable ID
DCCALDATE	LABEL	7/31/2020	DC Calibration Date
ACCALDATE	LABEL	7/31/2020	AC Calibration Date
THERMOSELECT	IQUANT	1	Thermo Select
FRAMEWORKVERSION	QUANT	6.33	Framework Version
INSTRUMENTVERSION	LABEL	3.50	Instrument Version
COMPLIANCEVOLTAGE	IQUANT	0	Compliance Voltage
ZCURVE	TABLE
	Pt	Time	Freq	Zreal	Zimag	Zsig	Zmod	Zphz	Idc	Vdc	IERange
	#	s	Hz	ohm	ohm	V	ohm	°	A	V	#
	0	8	300046.9	21.21669	-1.755568	1	21.2892	-4.730144	1.523132E-005	0.0003319	10
	1	11	238359.4	21.56143	-2.437317	1	21.69875	-6.449372	7.09268E-005	0.0002977	10
	2	14	189328.1	21.9469	-3.148765	1	22.17163	-8.164623	-0.0001069	0.0004659	10
	3	17	150421.9	22.4257	-3.952127	1	22.77129	-9.99472	1.918415E-005	0.0005357	10
	4	19	119484.4	22.92876	-4.784101	1	23.42255	-11.78571	-2.51004E-006	0.0004804	10
	5	22	94921.88	23.53648	-5.70835	1	24.21882	-13.63283	-1.960134E-005	0.0007348	10
	6	24	75421.88	24.22855	-6.784323	1	25.16048	-15.64297	7.379194E-006	0.000599	10
	7	27	59859.37	25.03657	-7.971846	1	26.27509	-17.66189	-2.589085E-005	0.000715	10
	8	29	47578.12	25.96587	-9.32495	1	27.58951	-19.7544	-2.614931E-005	0.0007165	10
	9	32	37828.12	27.04115	-10.84837	1	29.13608	-21.85966	-1.072803E-005	0.000659	10
	10	35	30046.88	28.28367	-12.58927	1	30.95894	-23.99419	-2.586308E-005	0.0007175	10
	11	37	23859.38	29.71603	-14.61228	1	33.11436	-26.18476	-2.118065E-005	0.0007078	10
	12	39	18984.38	31.35064	-16.84947	1	35.59167	-28.25591	2.14087E-005	0.0006329	10
	13	42	15046.87	33.19098	-19.38615	1	38.43779	-30.28829	-1.176901E-005	0.000319	9
	14	44	11953.13	35.27693	-22.30648	1	41.73777	-32.30619	-1.194203E-005	0.0003508	9
	15	46	9515.62	37.57982	-25.63918	1	45.49297	-34.30412	8.694266E-006	-1.852486E-005	9
	16	49	7546.875	40.15496	-29.59425	1	49.88226	-36.39025	-1.209903E-005	0.0004119	9
	17	51	5928.309	43.15659	-34.37959	1	55.17651	-38.54168	1.515338E-005	-0.0001972	9
	18	53	4733.456	46.26014	-39.73631	1	60.9834	-40.66176	-1.061726E-005	0.0004628	9
	19	56	3796.875	49.64168	-45.97042	1	67.65778	-42.80107	9.683197E-006	1.788848E-005	9
	20	58	2987.132	53.83657	-54.02426	1	76.26924	-45.0997	1.561232E-005	-0.0002863	9
	21	60	2390.625	58.43775	-62.92697	1	85.8765	-47.11838	-1.042556E-005	0.0003836	9
	22	62	1884.191	64.23786	-74.61185	1	98.4552	-49.27285	6.760232E-006	-0.000236	9
	23	65	1516.544	70.83839	-87.44283	1	112.5359	-50.98869	-6.912718E-006	0.0001363	9
	24	67	1193.986	79.79326	-104.3083	1	131.3286	-52.58492	-1.099136E-005	0.0003784	9
	25	70	946.5144	91.50723	-123.0075	1	153.3115	-53.35386	-1.074147E-005	0.0004577	9
	26	72	751.7689	105.8896	-144.5172	1	179.1587	-53.76929	1.862201E-006	-0.0001231	9
	27	74	597.4265	124.8813	-168.6004	1	209.8128	-53.47288	-6.9442E-006	0.0001405	9
	28	77	477.4305	148.4206	-194.9141	1	244.9902	-52.71194	1.325484E-006	7.387908E-005	9
	29	79	376.6741	179.3484	-224.7425	1	287.5327	-51.40952	1.337724E-006	6.186526E-005	9
	30	81	298.2954	217.159	-252.9556	1	333.3835	-49.35435	1.380203E-006	6.90873E-005	9
	31	83	237.7717	260.639	-278.1782	1	381.2031	-46.86439	1.377012E-006	7.275947E-005	9
	32	86	189.0121	309.4332	-301.9178	1	432.3231	-44.29569	2.788535E-007	0.000641	8
	33	88	150.2404	363.6065	-318.2734	1	483.2263	-41.19643	2.163389E-007	0.0006446	8
	34	91	119.1737	422.1704	-334.7539	1	538.7838	-38.41215	2.000128E-007	0.0006435	8
	35	93	95.0169	476.7233	-337.5806	1	584.1453	-35.30334	2.312234E-007	0.000651	8
	36	96	75.60484	531.5826	-341.1754	1	631.6492	-32.69278	2.281857E-007	0.0006466	8
	37	98	54.50582	597.4673	-336.076	1	685.503	-29.3578	2.331059E-007	0.0006422	8
	38	101	45.95588	624.3746	-331.7656	1	707.0446	-27.98424	1.701128E-007	0.0006512	8
	39	103	37.20238	658.7043	-333.8912	1	738.4949	-26.88003	3.836407E-007	0.0006578	8
	40	105	30.04808	690.2283	-340.5781	1	769.6808	-26.26303	1.221419E-007	0.0006515	8
	41	108	23.91582	724.0005	-356.4811	1	807.004	-26.21457	-1.232698E-007	0.0006476	8
	42	110	18.60119	769.0411	-387.8439	1	861.3055	-26.76279	6.616367E-007	0.0006403	8
	43	112	15.02404	804.8537	-419.3598	1	907.5528	-27.52125	7.715236E-007	0.0006555	8
	44	115	12.01923	838.4098	-459.8817	1	956.254	-28.7455	-2.417413E-007	0.000643	8
	45	117	9.450605	872.6666	-516.0634	1	1013.839	-30.59853	6.727687E-007	0.0006522	8
	46	120	7.512019	919.0673	-585.6614	1	1089.809	-32.50669	6.525631E-007	0.0006535	8
	47	122	5.978954	946.7692	-664.7087	1	1156.81	-35.07197	3.952529E-007	0.0006443	8
	48	125	4.734848	1012.169	-766.0222	1	1269.36	-37.11891	2.570542E-007	0.000645	8
	49	129	3.75601	1053.828	-884.3737	1	1375.743	-40.00342	3.862399E-007	0.0006568	8
	50	132	3.004808	1110.921	-1023.405	1	1510.465	-42.65195	3.19627E-007	0.0006754	8
	51	136	2.372217	1173.259	-1204.849	1	1681.725	-45.76104	3.628234E-007	0.0006663	8
	52	140	1.878005	1233.592	-1430.89	1	1889.231	-49.23488	3.718852E-007	0.0006328	8
	53	145	1.512097	1304.115	-1692.539	1	2136.681	-52.38545	3.647114E-007	0.0007541	8
	54	150	1.201923	1389.021	-2038.633	1	2466.861	-55.73148	3.72921E-007	0.0006371	8
	55	156	0.956633	1478.327	-2470.788	1	2879.279	-59.10699	2.929274E-007	5.948087E-005	8
