EXPLAIN
TAG	EISPOT
TITLE	LABEL	Potentiostatic EIS	Test Identifier
DATE	LABEL	8/10/2020	Date
TIME	LABEL	1:00:38	Time
NOTES	NOTES	1	Notes...
	
PSTAT	PSTAT	REF3000-16137	Potentiostat
VDC	POTEN	0.00000E+000	T	DC Voltage (V)
FREQINIT	QUANT	3.00000E+005	Initial Freq. (Hz)
FREQFINAL	QUANT	1.00000E+000	Final Freq. (Hz)
PTSPERDEC	QUANT	1.00000E+001	Points/decade
VAC	QUANT	5.00000E+001	AC Voltage (mV rms)
AREA	QUANT	1.00000E+000	Sample Area (cm^2)
SPEED	SELECTOR	2	Optimize for:
ZGUESS	QUANT	1.00000E+003	Estimated Z (ohms)
EOC	QUANT	0	Open Circuit (V)
SEQUENCER	TOGGLE	TRUE	Run as Sequence
PSTATMODEL	IQUANT	5	Pstat Model
PSTATSECTION	LABEL	REF3000-16137	Pstat Section
PSTATSERIALNO	LABEL	16137	Pstat Serial Number
CTRLMODE	IQUANT	1	Control Mode
IESTAB	IQUANT	0	I/E Stability
CASPEED	IQUANT	1	Control Amp Speed
CONVENTION	IQUANT	1	Current Convention
ICHRANGE	IQUANT	2	Ich Range
ICHRANGEMODE	TOGGLE	F	Ich Auto Range
ICHOFFSETENABLE	TOGGLE	T	Ich Offset Enable
ICHOFFSET	QUANT	0	Ich Offset (V)
ICHFILTER	IQUANT	3	Ich Filter
VCHRANGE	IQUANT	2	Vch Range
VCHRANGEMODE	TOGGLE	F	Vch Auto Range
VCHOFFSETENABLE	TOGGLE	T	Vch Offset Enable
VCHOFFSET	QUANT	0	Vch Offset (V)
VCHFILTER	IQUANT	3	Vch Filter
ACHRANGE	IQUANT	2	Ach Range
ACHOFFSETENABLE	TOGGLE	F	Ach Offset Enable
ACHOFFSET	QUANT	0	Ach Offset (V)
ACHFILTER	IQUANT	3	Ach Filter
IERANGELOWERLIMIT	IQUANT	2	I/E Range Lower Limit
IERANGEMODE	TOGGLE	F	I/E AutoRange
IERANGE	IQUANT	11	I/E Range
POSFEEDENABLE	TOGGLE	F	Positive Feedback IR Comp
POSFEEDRESISTANCE	QUANT	0	Positive Feedback Resistance (ohm)
ACHSELECT	IQUANT	0	Ach Select
CABLEID	IQUANT	13	Cable ID
DCCALDATE	LABEL	7/31/2020	DC Calibration Date
ACCALDATE	LABEL	7/31/2020	AC Calibration Date
THERMOSELECT	IQUANT	1	Thermo Select
FRAMEWORKVERSION	QUANT	6.33	Framework Version
INSTRUMENTVERSION	LABEL	3.50	Instrument Version
COMPLIANCEVOLTAGE	IQUANT	0	Compliance Voltage
ZCURVE	TABLE
	Pt	Time	Freq	Zreal	Zimag	Zsig	Zmod	Zphz	Idc	Vdc	IERange
	#	s	Hz	ohm	ohm	V	ohm	°	A	V	#
	0	7	300046.9	25.70925	-2.38204	1	25.81936	-5.293515	4.226517E-006	-0.0002246	11
	1	11	238359.4	26.18103	-2.717888	1	26.32173	-5.926722	2.731048E-005	0.0004029	10
	2	14	189328.1	26.60277	-3.692989	1	26.85788	-7.903274	2.390174E-005	0.0006813	11
	3	18	150421.9	27.19105	-4.300124	1	27.52897	-8.986606	2.554511E-005	0.0005554	10
	4	20	119484.4	27.75716	-5.177484	1	28.23591	-10.56584	-2.261194E-005	0.0007167	10
	5	23	94921.88	28.41837	-6.166312	1	29.07967	-12.24245	1.998949E-005	0.0006878	10
	6	26	75421.88	29.18779	-7.307051	1	30.08854	-14.05491	-2.254858E-005	0.0006548	10
	7	28	59859.37	30.06752	-8.553328	1	31.26044	-15.8795	-2.417588E-005	0.000691	10
	8	31	47578.12	31.09185	-10.01349	1	32.66455	-17.85176	-5.08231E-006	0.0006517	10
	9	33	37828.12	32.26725	-11.64028	1	34.30264	-19.83671	2.571191E-005	0.0006288	10
	10	36	30046.88	33.62593	-13.51996	1	36.24214	-21.90355	-4.954509E-006	0.000656	10
	11	38	23859.38	35.1806	-15.5262	1	38.45436	-23.81324	1.580305E-005	-0.0002426	9
	12	41	18984.38	36.95956	-17.91376	1	41.07203	-25.85878	1.197806E-005	-0.000368	9
	13	43	15046.87	39.03886	-20.62719	1	44.15329	-27.85089	-2.480297E-006	-7.501745E-006	9
	14	45	11953.13	41.39635	-23.74394	1	47.72245	-29.83754	1.654785E-005	-0.0002467	9
	15	48	9515.62	44.00742	-27.19939	1	51.73451	-31.7187	6.858101E-006	-0.0002585	9
	16	50	7546.875	46.98846	-31.25148	1	56.432	-33.62742	1.005543E-005	4.616905E-005	9
	17	52	5928.309	50.42879	-36.07211	1	62.00209	-35.57644	-2.635412E-006	-2.211103E-005	9
	18	55	4733.456	54.04259	-41.35818	1	68.05219	-37.42642	1.448718E-005	-0.0001452	9
	19	57	3796.875	57.96098	-47.54622	1	74.96745	-39.36251	-4.068575E-006	0.0004524	9
	20	59	2987.132	62.82168	-55.47311	1	83.80829	-41.4453	-1.284817E-006	0.0003585	9
	21	61	2390.625	68.02599	-64.25082	1	93.57191	-43.36523	9.061373E-006	-1.66623E-006	9
	22	64	1884.191	74.73071	-75.14508	1	105.9786	-45.15841	7.465798E-006	-0.0002978	9
	23	66	1516.544	82.17299	-86.7326	1	119.4778	-46.54633	1.478403E-005	-0.0003931	9
	24	68	1193.986	92.27371	-102.1357	1	137.6449	-47.904	1.690941E-005	-0.0003016	9
	25	71	946.5144	104.8371	-119.5743	1	159.0246	-48.75723	-1.128151E-005	0.0002349	9
	26	73	751.7689	120.7734	-138.7285	1	183.9342	-48.95802	2.539229E-006	-0.0001764	9
	27	76	597.4265	141.0318	-158.8518	1	212.4238	-48.40069	-1.195442E-005	0.0003874	9
	28	78	477.4305	165.4028	-179.5643	1	244.1341	-47.35077	9.901808E-007	0.0001245	9
	29	80	376.6741	196.8715	-201.0174	1	281.3652	-45.59698	1.374648E-006	7.402677E-005	9
	30	82	298.2954	233.1906	-219.2024	1	320.0431	-43.22895	1.476194E-006	7.36013E-005	9
	31	85	237.7717	272.144	-231.3078	1	357.1634	-40.36275	1.401296E-006	6.687199E-005	9
	32	87	189.0121	312.1595	-238.2711	1	392.7043	-37.35447	3.037049E-007	0.0006469	8
	33	90	150.2404	352.76	-240.9782	1	427.212	-34.33784	3.011949E-007	0.0006536	8
	34	92	119.1737	390.5639	-238.8686	1	457.8191	-31.44993	2.263971E-007	0.0006498	8
	35	94	95.0169	425.4757	-237.2851	1	487.1692	-29.14814	3.147436E-007	0.0006508	8
	36	97	75.60484	454.4119	-233.4979	1	510.8928	-27.1962	2.245143E-007	0.0006448	8
	37	100	54.50582	487.1774	-231.9547	1	539.5784	-25.46004	1.950231E-007	0.0007028	8
	38	102	45.95588	508.2342	-238.7717	1	561.5281	-25.16444	3.213347E-007	0.000654	8
	39	104	37.20238	524.8317	-246.8732	1	579.9954	-25.19161	2.667744E-007	0.0006468	8
	40	107	30.04808	542.2797	-262.1519	1	602.3212	-25.80031	2.205383E-007	0.0006456	8
	41	109	23.91582	557.1798	-285.5298	1	626.0803	-27.13311	2.17234E-007	0.0006476	8
	42	112	18.60119	587.5958	-326.462	1	672.1951	-29.05608	-2.345424E-007	0.0006611	8
	43	114	15.02404	610.1238	-367.4543	1	712.2315	-31.05896	-1.610325E-007	0.0006567	8
	44	116	12.01923	633.4036	-420.8321	1	760.4603	-33.59998	6.846677E-007	0.0006464	8
	45	119	9.450605	669.6853	-494.2135	1	832.3013	-36.42654	3.26878E-007	0.0006423	8
	46	121	7.512019	710.87	-576.456	1	915.2255	-39.03915	4.989023E-007	0.0006499	8
	47	124	5.978954	756.9786	-674.1071	1	1013.626	-41.68581	3.60188E-007	0.0006515	8
	48	127	4.734848	806.6472	-790.9604	1	1129.734	-44.43744	2.252167E-007	0.0006354	8
	49	130	3.75601	862.1263	-927.7511	1	1266.485	-47.09977	3.552579E-007	0.0006606	8
	50	134	3.004808	929.3618	-1084.157	1	1427.974	-49.39614	3.508682E-007	0.0006846	8
	51	137	2.372217	1002.22	-1283.703	1	1628.6	-52.01994	3.294597E-007	0.0005787	8
	52	141	1.878005	1077.051	-1526.77	1	1868.44	-54.79917	4.00618E-007	0.0006598	8
	53	146	1.512097	1152.289	-1798.364	1	2135.857	-57.35056	3.440649E-007	0.0006193	8
	54	152	1.201923	1248.734	-2165.179	1	2499.468	-60.02645	3.799977E-007	0.0006723	8
	55	158	0.956633	1348.286	-2615.271	1	2942.366	-62.72693	3.29171E-007	1.276109E-005	8
