EXPLAIN
TAG	EISPOT
TITLE	LABEL	Potentiostatic EIS	Test Identifier
DATE	LABEL	8/10/2020	Date
TIME	LABEL	0:07:39	Time
NOTES	NOTES	1	Notes...
	
PSTAT	PSTAT	REF3000-16137	Potentiostat
VDC	POTEN	0.00000E+000	T	DC Voltage (V)
FREQINIT	QUANT	3.00000E+005	Initial Freq. (Hz)
FREQFINAL	QUANT	1.00000E+000	Final Freq. (Hz)
PTSPERDEC	QUANT	1.00000E+001	Points/decade
VAC	QUANT	5.00000E+001	AC Voltage (mV rms)
AREA	QUANT	1.00000E+000	Sample Area (cm^2)
SPEED	SELECTOR	2	Optimize for:
ZGUESS	QUANT	1.00000E+003	Estimated Z (ohms)
EOC	QUANT	0	Open Circuit (V)
SEQUENCER	TOGGLE	TRUE	Run as Sequence
PSTATMODEL	IQUANT	5	Pstat Model
PSTATSECTION	LABEL	REF3000-16137	Pstat Section
PSTATSERIALNO	LABEL	16137	Pstat Serial Number
CTRLMODE	IQUANT	1	Control Mode
IESTAB	IQUANT	0	I/E Stability
CASPEED	IQUANT	1	Control Amp Speed
CONVENTION	IQUANT	1	Current Convention
ICHRANGE	IQUANT	2	Ich Range
ICHRANGEMODE	TOGGLE	F	Ich Auto Range
ICHOFFSETENABLE	TOGGLE	T	Ich Offset Enable
ICHOFFSET	QUANT	0	Ich Offset (V)
ICHFILTER	IQUANT	3	Ich Filter
VCHRANGE	IQUANT	2	Vch Range
VCHRANGEMODE	TOGGLE	F	Vch Auto Range
VCHOFFSETENABLE	TOGGLE	T	Vch Offset Enable
VCHOFFSET	QUANT	0	Vch Offset (V)
VCHFILTER	IQUANT	3	Vch Filter
ACHRANGE	IQUANT	2	Ach Range
ACHOFFSETENABLE	TOGGLE	F	Ach Offset Enable
ACHOFFSET	QUANT	0	Ach Offset (V)
ACHFILTER	IQUANT	3	Ach Filter
IERANGELOWERLIMIT	IQUANT	2	I/E Range Lower Limit
IERANGEMODE	TOGGLE	F	I/E AutoRange
IERANGE	IQUANT	11	I/E Range
POSFEEDENABLE	TOGGLE	F	Positive Feedback IR Comp
POSFEEDRESISTANCE	QUANT	0	Positive Feedback Resistance (ohm)
ACHSELECT	IQUANT	0	Ach Select
CABLEID	IQUANT	13	Cable ID
DCCALDATE	LABEL	7/31/2020	DC Calibration Date
ACCALDATE	LABEL	7/31/2020	AC Calibration Date
THERMOSELECT	IQUANT	1	Thermo Select
FRAMEWORKVERSION	QUANT	6.33	Framework Version
INSTRUMENTVERSION	LABEL	3.50	Instrument Version
COMPLIANCEVOLTAGE	IQUANT	0	Compliance Voltage
ZCURVE	TABLE
	Pt	Time	Freq	Zreal	Zimag	Zsig	Zmod	Zphz	Idc	Vdc	IERange
	#	s	Hz	ohm	ohm	V	ohm	°	A	V	#
	0	9	300046.9	3.249809	-0.2812664	1	3.261957	-4.946543	-0.0000972	-0.000606	12
	1	13	238359.4	3.395042	-0.4121075	1	3.419962	-6.920994	6.475409E-006	0.0000975	11
	2	16	189328.1	3.531586	-0.8650529	1	3.635989	-13.76346	9.327909E-006	0.00036	11
	3	19	150421.9	3.708259	-1.278955	1	3.922615	-19.02899	-4.748876E-006	0.0005393	10
	4	21	119484.4	3.895828	-1.736627	1	4.265366	-24.02568	3.581703E-006	0.0004489	10
	5	24	94921.88	4.115005	-2.206253	1	4.669135	-28.19792	-4.737683E-007	0.0005367	10
	6	26	75421.88	4.354806	-2.723007	1	5.136059	-32.01723	6.788418E-006	0.0005851	10
	7	29	59859.37	4.624052	-3.300951	1	5.681385	-35.52173	-3.477191E-005	0.0006636	10
	8	32	47578.12	4.928294	-3.948716	1	6.315096	-38.70289	1.223208E-005	0.0006658	10
	9	34	37828.12	5.267894	-4.696461	1	7.05744	-41.71781	1.812258E-005	0.0006783	10
	10	37	30046.88	5.647884	-5.580836	1	7.940046	-44.65788	1.876121E-005	0.0006809	10
	11	39	23859.38	6.095491	-6.613833	1	8.99432	-47.33548	-1.802529E-005	0.0007142	10
	12	41	18984.38	6.601252	-7.854257	1	10.25992	-49.95403	1.391815E-005	0.0006658	10
	13	44	15046.87	7.182731	-9.370033	1	11.80632	-52.52752	1.083551E-005	0.0006493	10
	14	46	11953.13	7.877855	-11.15749	1	13.65833	-54.77562	1.919344E-005	0.0006671	10
	15	48	9515.62	8.697453	-13.29209	1	15.88475	-56.80195	1.563126E-005	0.0006489	10
	16	51	7546.875	9.72051	-15.87389	1	18.61367	-58.51844	-1.360933E-005	0.0007021	10
	17	53	5928.309	11.01895	-19.12564	1	22.07277	-60.05225	-2.352252E-005	0.0006839	10
	18	55	4733.456	12.50732	-22.78225	1	25.98969	-61.23347	1.642347E-005	0.0006531	10
	19	58	3796.875	14.27132	-27.04212	1	30.5769	-62.17741	6.032994E-006	0.0006719	10
	20	60	2987.132	16.74519	-32.49122	1	36.55244	-62.73451	-2.913047E-005	0.0006927	10
	21	62	2390.625	19.57112	-38.46669	1	43.15918	-63.03387	-7.918923E-006	0.0001171	9
	22	65	1884.191	23.39982	-45.98532	1	51.59653	-63.03055	-7.795634E-007	1.161522E-005	9
	23	67	1516.544	27.7639	-53.95196	1	60.67659	-62.76947	-1.023198E-006	1.169326E-005	9
	24	69	1193.986	33.84162	-64.01366	1	72.40858	-62.13627	-8.153913E-006	9.127137E-005	9
	25	72	946.5144	41.21039	-75.31528	1	85.85271	-61.31377	-1.022308E-005	0.0001119	9
	26	74	751.7689	50.20406	-87.87386	1	101.2041	-60.25982	-1.135495E-005	0.0001413	9
	27	76	597.4265	61.20842	-101.9775	1	118.9364	-59.02719	-9.094886E-006	0.0001133	9
	28	79	477.4305	74.31495	-116.6446	1	138.3065	-57.49856	-5.779148E-006	8.350566E-005	9
	29	81	376.6741	90.80906	-133.4982	1	161.4561	-55.77542	-5.735315E-006	7.446051E-005	9
	30	83	298.2954	109.9379	-151.3302	1	187.0486	-54.00246	-5.741217E-006	8.373994E-005	9
	31	86	237.7717	131.4956	-169.392	1	214.4405	-52.17852	-5.767621E-006	8.027023E-005	9
	32	88	189.0121	156.4924	-188.3386	1	244.87	-50.27647	-5.718909E-006	7.842305E-005	9
	33	90	150.2404	184.7683	-207.7495	1	278.0273	-48.35074	-5.588557E-006	7.805241E-005	9
	34	93	119.1737	216.8909	-227.8025	1	314.5403	-46.40561	-5.542334E-006	8.260306E-005	9
	35	95	95.0169	251.9319	-247.7112	1	353.3137	-44.51601	-5.574676E-006	0.0001291	9
	36	98	75.60484	291.4014	-267.595	1	395.6284	-42.56137	-5.448043E-006	7.567331E-005	9
	37	100	54.50582	353.8462	-292.9812	1	459.3964	-39.62442	-6.652943E-006	0.000657	8
	38	103	45.95588	390.4838	-305.0272	1	495.4989	-37.99524	-6.871869E-006	0.0006681	8
	39	105	37.20238	438.2478	-317.272	1	541.0385	-35.90287	-6.664935E-006	0.0006634	8
	40	107	30.04808	489.0473	-326.4995	1	588.0214	-33.728	-6.84407E-006	0.0006654	8
	41	110	23.91582	542.7958	-331.1509	1	635.8366	-31.38669	-6.800187E-006	0.0006575	8
	42	112	18.60119	600.5191	-332.485	1	686.4178	-28.97166	-7.21988E-006	0.0006612	8
	43	115	15.02404	646.8481	-330.5097	1	726.3947	-27.06495	-6.553357E-006	0.0006731	8
	44	117	12.01923	690.2192	-328.934	1	764.5915	-25.48082	-6.483623E-006	0.0006579	8
	45	119	9.450605	733.9031	-331.7033	1	805.3824	-24.32162	-6.839148E-006	0.0006436	8
	46	122	7.512019	772.1693	-337.8399	1	842.8412	-23.63036	-6.739827E-006	0.000662	8
	47	124	5.978954	809.0749	-350.6246	1	881.7822	-23.43021	-6.808883E-006	0.0006581	8
	48	127	4.734848	851.4383	-371.0051	1	928.7583	-23.54465	-6.831941E-006	0.0006855	8
	49	131	3.75601	898.2581	-397.771	1	982.39	-23.88495	-7.054436E-006	0.0006469	8
	50	134	3.004808	950.368	-428.3887	1	1042.457	-24.26399	-6.985187E-006	0.000683	8
	51	138	2.372217	1015.761	-463.1757	1	1116.379	-24.51245	-6.833946E-006	0.0007076	8
	52	142	1.878005	1092.689	-498.2178	1	1200.912	-24.51088	-6.813658E-006	0.0006446	8
	53	147	1.512097	1172.892	-527.2943	1	1285.968	-24.20715	-6.635863E-006	0.0006362	8
	54	152	1.201923	1267.588	-549.9658	1	1381.753	-23.45447	-6.441253E-006	0.0006304	8
	55	158	0.956633	1369.118	-561.5482	1	1479.804	-22.30114	-6.631862E-006	1.761421E-005	8
