EXPLAIN
TAG	EISPOT
TITLE	LABEL	Potentiostatic EIS	Test Identifier
DATE	LABEL	8/10/2020	Date
TIME	LABEL	0:35:37	Time
NOTES	NOTES	1	Notes...
	
PSTAT	PSTAT	REF3000-16137	Potentiostat
VDC	POTEN	0.00000E+000	T	DC Voltage (V)
FREQINIT	QUANT	3.00000E+005	Initial Freq. (Hz)
FREQFINAL	QUANT	1.00000E+000	Final Freq. (Hz)
PTSPERDEC	QUANT	1.00000E+001	Points/decade
VAC	QUANT	5.00000E+001	AC Voltage (mV rms)
AREA	QUANT	1.00000E+000	Sample Area (cm^2)
SPEED	SELECTOR	2	Optimize for:
ZGUESS	QUANT	1.00000E+003	Estimated Z (ohms)
EOC	QUANT	0	Open Circuit (V)
SEQUENCER	TOGGLE	TRUE	Run as Sequence
PSTATMODEL	IQUANT	5	Pstat Model
PSTATSECTION	LABEL	REF3000-16137	Pstat Section
PSTATSERIALNO	LABEL	16137	Pstat Serial Number
CTRLMODE	IQUANT	1	Control Mode
IESTAB	IQUANT	0	I/E Stability
CASPEED	IQUANT	1	Control Amp Speed
CONVENTION	IQUANT	1	Current Convention
ICHRANGE	IQUANT	2	Ich Range
ICHRANGEMODE	TOGGLE	F	Ich Auto Range
ICHOFFSETENABLE	TOGGLE	T	Ich Offset Enable
ICHOFFSET	QUANT	0	Ich Offset (V)
ICHFILTER	IQUANT	3	Ich Filter
VCHRANGE	IQUANT	2	Vch Range
VCHRANGEMODE	TOGGLE	F	Vch Auto Range
VCHOFFSETENABLE	TOGGLE	T	Vch Offset Enable
VCHOFFSET	QUANT	0	Vch Offset (V)
VCHFILTER	IQUANT	3	Vch Filter
ACHRANGE	IQUANT	2	Ach Range
ACHOFFSETENABLE	TOGGLE	F	Ach Offset Enable
ACHOFFSET	QUANT	0	Ach Offset (V)
ACHFILTER	IQUANT	3	Ach Filter
IERANGELOWERLIMIT	IQUANT	2	I/E Range Lower Limit
IERANGEMODE	TOGGLE	F	I/E AutoRange
IERANGE	IQUANT	11	I/E Range
POSFEEDENABLE	TOGGLE	F	Positive Feedback IR Comp
POSFEEDRESISTANCE	QUANT	0	Positive Feedback Resistance (ohm)
ACHSELECT	IQUANT	0	Ach Select
CABLEID	IQUANT	13	Cable ID
DCCALDATE	LABEL	7/31/2020	DC Calibration Date
ACCALDATE	LABEL	7/31/2020	AC Calibration Date
THERMOSELECT	IQUANT	1	Thermo Select
FRAMEWORKVERSION	QUANT	6.33	Framework Version
INSTRUMENTVERSION	LABEL	3.50	Instrument Version
COMPLIANCEVOLTAGE	IQUANT	0	Compliance Voltage
ZCURVE	TABLE
	Pt	Time	Freq	Zreal	Zimag	Zsig	Zmod	Zphz	Idc	Vdc	IERange
	#	s	Hz	ohm	ohm	V	ohm	°	A	V	#
	0	10	300046.9	6.679959	-0.4362735	1	6.694191	-3.736727	-3.27675E-005	0.0002587	10
	1	13	238359.4	6.842201	-1.005062	1	6.915625	-8.356513	-8.908501E-005	0.0001337	10
	2	17	189328.1	7.065022	-1.558312	1	7.234837	-12.43841	2.405565E-005	0.0002781	10
	3	19	150421.9	7.324457	-2.12907	1	7.627622	-16.20807	-4.21568E-005	0.0006098	10
	4	22	119484.4	7.610516	-2.717937	1	8.081283	-19.65312	7.375961E-006	0.0005288	10
	5	24	94921.88	7.973222	-3.31803	1	8.636064	-22.59447	9.516906E-007	0.0006746	10
	6	27	75421.88	8.365188	-4.001701	1	9.273078	-25.56531	-2.103015E-005	0.000745	10
	7	29	59859.37	8.819726	-4.768993	1	10.02651	-28.40093	2.171795E-005	0.0006396	10
	8	32	47578.12	9.329341	-5.608641	1	10.88547	-31.01357	2.059063E-005	0.0006517	10
	9	34	37828.12	9.88794	-6.556424	1	11.86415	-33.54728	4.404794E-006	0.0006409	10
	10	37	30046.88	10.51952	-7.648879	1	13.00637	-36.02139	-2.725711E-005	0.0007319	10
	11	39	23859.38	11.2248	-8.897562	1	14.32351	-38.4028	2.036447E-005	0.0006391	10
	12	42	18984.38	11.96384	-10.38716	1	15.84382	-40.96494	1.904504E-005	0.0006351	10
	13	44	15046.87	12.80114	-12.18845	1	17.67562	-43.59552	-1.595444E-005	0.0006619	10
	14	46	11953.13	13.73668	-14.31731	1	19.84141	-46.18567	9.257595E-006	0.0006459	10
	15	49	9515.62	14.72986	-16.88276	1	22.40527	-48.89598	1.86686E-005	0.0006337	10
	16	51	7546.875	15.94011	-19.99873	1	25.57413	-51.44319	1.875764E-005	0.0006343	10
	17	53	5928.309	17.34081	-24.08995	1	29.68213	-54.25231	2.189468E-005	0.0006614	10
	18	56	4733.456	18.92779	-28.67599	1	34.35947	-56.5729	-2.493316E-005	0.0006948	10
	19	58	3796.875	20.75005	-34.23072	1	40.02883	-58.77651	-1.79331E-005	0.0006668	10
	20	60	2987.132	23.26582	-41.2872	1	47.39126	-60.59823	3.367046E-006	2.321658E-005	9
	21	63	2390.625	26.12462	-49.38634	1	55.87044	-62.12185	7.739211E-006	-8.409424E-005	9
	22	65	1884.191	30.05611	-59.70525	1	66.84375	-63.27895	8.412439E-006	-5.368091E-005	9
	23	67	1516.544	34.55017	-70.93999	1	78.90626	-64.03236	-1.329891E-006	7.146548E-005	9
	24	70	1193.986	40.71314	-85.71655	1	94.89408	-64.5935	-7.176213E-006	0.000222	9
	25	72	946.5144	48.6941	-102.4307	1	113.4159	-64.57426	7.556259E-006	-6.81882E-005	9
	26	74	751.7689	58.14702	-122.5584	1	135.6526	-64.61832	-7.097488E-006	0.0002238	9
	27	77	597.4265	70.38086	-145.682	1	161.7922	-64.21421	6.512829E-006	-3.240764E-005	9
	28	79	477.4305	85.11445	-171.3417	1	191.3176	-63.58398	-7.431497E-008	8.470353E-005	9
	29	81	376.6741	104.8311	-202.6582	1	228.1664	-62.64837	-1.268854E-008	8.161335E-005	9
	30	84	298.2954	129.0195	-237.7357	1	270.489	-61.51126	4.843969E-009	8.119676E-005	9
	31	86	237.7717	158.0317	-275.9462	1	317.9942	-60.20065	3.564272E-008	8.247463E-005	9
	32	89	189.0121	193.6174	-319.13	1	373.2715	-58.75465	-2.671826E-008	8.594264E-005	9
	33	91	150.2404	236.1974	-363.7201	1	433.6836	-57.00058	-1.038951E-006	0.0006564	8
	34	93	119.1737	288.8901	-412.4866	1	503.5898	-54.99405	-1.106085E-006	0.0006513	8
	35	96	95.0169	348.8375	-465.4984	1	581.7013	-53.15266	-1.042284E-006	0.0006583	8
	36	98	75.60484	420.1306	-518.9939	1	667.7308	-51.00949	-1.039705E-006	0.0006573	8
	37	101	54.50582	541.0948	-595.8453	1	804.8697	-47.757	-1.028611E-006	0.000716	8
	38	104	45.95588	613.6077	-630.7877	1	880.0043	-45.79097	-1.110405E-006	0.0006683	8
	39	106	37.20238	711.184	-672.3137	1	978.667	-43.39066	-9.48208E-007	0.0006681	8
	40	109	30.04808	817.2887	-707.348	1	1080.88	-40.87557	-9.176561E-007	0.0006577	8
	41	112	23.91582	941.9856	-745.0527	1	1201.016	-38.34183	-9.835113E-007	0.0006625	8
	42	114	18.60119	1084.251	-767.4786	1	1328.391	-35.29247	-5.983003E-007	0.0006597	8
	43	116	15.02404	1210.373	-783.1797	1	1441.656	-32.90516	-8.970522E-007	0.0006635	8
	44	119	12.01923	1330.474	-772.3287	1	1538.393	-30.1348	-1.433064E-006	0.0006534	8
	45	121	9.450605	1455.213	-762.7401	1	1642.991	-27.66097	-5.101629E-007	0.0006633	8
	46	124	7.512019	1558.432	-747.6925	1	1728.512	-25.6304	-4.888564E-007	0.0006613	8
	47	126	5.978954	1649.705	-738.8732	1	1807.612	-24.12675	-6.188179E-007	0.0006544	8
	48	129	4.734848	1718.745	-730.3036	1	1867.465	-23.02089	-9.763324E-007	0.0006609	8
	49	133	3.75601	1814.499	-756.9123	1	1966.042	-22.6433	-7.816665E-007	0.0006723	8
	50	136	3.004808	1863.695	-787.4911	1	2023.24	-22.90614	-9.933811E-007	0.0006948	8
	51	140	2.372217	1938.396	-847.5685	1	2115.598	-23.61747	-7.487506E-007	0.0007073	8
	52	144	1.878005	2003.98	-932.5676	1	2210.344	-24.95528	-8.124609E-007	0.0006441	8
	53	149	1.512097	2075.515	-1040.762	1	2321.842	-26.63138	-8.040839E-007	0.0007576	8
	54	154	1.201923	2163.074	-1188.824	1	2468.237	-28.79316	-7.498056E-007	0.0006495	8
	55	160	0.956633	2291.602	-1370.433	1	2670.117	-30.88043	-9.484772E-007	1.140429E-005	8
