EXPLAIN
TAG	EISPOT
TITLE	LABEL	Potentiostatic EIS	Test Identifier
DATE	LABEL	8/10/2020	Date
TIME	LABEL	0:41:16	Time
NOTES	NOTES	1	Notes...
	
PSTAT	PSTAT	REF3000-16137	Potentiostat
VDC	POTEN	0.00000E+000	T	DC Voltage (V)
FREQINIT	QUANT	3.00000E+005	Initial Freq. (Hz)
FREQFINAL	QUANT	1.00000E+000	Final Freq. (Hz)
PTSPERDEC	QUANT	1.00000E+001	Points/decade
VAC	QUANT	5.00000E+001	AC Voltage (mV rms)
AREA	QUANT	1.00000E+000	Sample Area (cm^2)
SPEED	SELECTOR	2	Optimize for:
ZGUESS	QUANT	1.00000E+003	Estimated Z (ohms)
EOC	QUANT	0	Open Circuit (V)
SEQUENCER	TOGGLE	TRUE	Run as Sequence
PSTATMODEL	IQUANT	5	Pstat Model
PSTATSECTION	LABEL	REF3000-16137	Pstat Section
PSTATSERIALNO	LABEL	16137	Pstat Serial Number
CTRLMODE	IQUANT	1	Control Mode
IESTAB	IQUANT	0	I/E Stability
CASPEED	IQUANT	1	Control Amp Speed
CONVENTION	IQUANT	1	Current Convention
ICHRANGE	IQUANT	2	Ich Range
ICHRANGEMODE	TOGGLE	F	Ich Auto Range
ICHOFFSETENABLE	TOGGLE	T	Ich Offset Enable
ICHOFFSET	QUANT	0	Ich Offset (V)
ICHFILTER	IQUANT	3	Ich Filter
VCHRANGE	IQUANT	2	Vch Range
VCHRANGEMODE	TOGGLE	F	Vch Auto Range
VCHOFFSETENABLE	TOGGLE	T	Vch Offset Enable
VCHOFFSET	QUANT	0	Vch Offset (V)
VCHFILTER	IQUANT	3	Vch Filter
ACHRANGE	IQUANT	2	Ach Range
ACHOFFSETENABLE	TOGGLE	F	Ach Offset Enable
ACHOFFSET	QUANT	0	Ach Offset (V)
ACHFILTER	IQUANT	3	Ach Filter
IERANGELOWERLIMIT	IQUANT	2	I/E Range Lower Limit
IERANGEMODE	TOGGLE	F	I/E AutoRange
IERANGE	IQUANT	11	I/E Range
POSFEEDENABLE	TOGGLE	F	Positive Feedback IR Comp
POSFEEDRESISTANCE	QUANT	0	Positive Feedback Resistance (ohm)
ACHSELECT	IQUANT	0	Ach Select
CABLEID	IQUANT	13	Cable ID
DCCALDATE	LABEL	7/31/2020	DC Calibration Date
ACCALDATE	LABEL	7/31/2020	AC Calibration Date
THERMOSELECT	IQUANT	1	Thermo Select
FRAMEWORKVERSION	QUANT	6.33	Framework Version
INSTRUMENTVERSION	LABEL	3.50	Instrument Version
COMPLIANCEVOLTAGE	IQUANT	0	Compliance Voltage
ZCURVE	TABLE
	Pt	Time	Freq	Zreal	Zimag	Zsig	Zmod	Zphz	Idc	Vdc	IERange
	#	s	Hz	ohm	ohm	V	ohm	°	A	V	#
	0	8	300046.9	8.4377	-0.6694064	1	8.464212	-4.53607	1.629507E-005	0.0001067	10
	1	12	238359.4	8.620535	-1.245248	1	8.71001	-8.2196	-0.0001095	0.0001361	10
	2	15	189328.1	8.874674	-1.837259	1	9.062856	-11.6963	1.955708E-005	0.0003284	10
	3	17	150421.9	9.147116	-2.439599	1	9.466856	-14.93357	-2.72963E-005	0.0004888	10
	4	20	119484.4	9.494524	-3.080453	1	9.98174	-17.97541	-1.102598E-005	0.0007045	10
	5	22	94921.88	9.8963	-3.744094	1	10.58088	-20.72326	1.166444E-005	0.0005949	10
	6	25	75421.88	10.33671	-4.515124	1	11.2798	-23.59593	-1.712932E-005	0.000643	10
	7	27	59859.37	10.85366	-5.341011	1	12.09662	-26.20148	-1.098772E-005	0.0006742	10
	8	30	47578.12	11.44635	-6.279169	1	13.05553	-28.74803	1.884033E-005	0.000636	10
	9	32	37828.12	12.1054	-7.303151	1	14.13777	-31.10246	-2.403976E-005	0.0007616	10
	10	35	30046.88	12.85278	-8.494121	1	15.40597	-33.45985	4.440747E-006	0.0006458	10
	11	38	23859.38	13.66518	-9.88852	1	16.86772	-35.89058	-1.315234E-005	0.0006505	10
	12	40	18984.38	14.56801	-11.47682	1	18.54574	-38.23137	-6.82472E-006	0.0006616	10
	13	42	15046.87	15.55887	-13.34736	1	20.49952	-40.62502	-1.680511E-005	0.0007338	10
	14	44	11953.13	16.65312	-15.56734	1	22.79624	-43.06995	-1.123756E-005	0.0006761	10
	15	47	9515.62	17.83023	-18.25104	1	25.51504	-45.66821	1.726011E-005	0.0006237	10
	16	49	7546.875	19.17637	-21.51439	1	28.82017	-48.28849	-1.570704E-005	0.0006966	10
	17	51	5928.309	20.72016	-25.79255	1	33.08445	-51.22373	-2.620594E-005	0.0006939	10
	18	54	4733.456	22.42355	-30.60645	1	37.94167	-53.77196	-2.699369E-005	0.0007038	10
	19	56	3796.875	24.36639	-36.27691	1	43.70051	-56.11162	2.223694E-006	0.0001118	9
	20	58	2987.132	26.9738	-43.83526	1	51.46956	-58.39415	-4.33068E-006	0.0001281	9
	21	61	2390.625	29.91944	-52.42781	1	60.36429	-60.28752	5.465728E-006	1.329473E-005	9
	22	63	1884.191	33.93262	-63.43785	1	71.94292	-61.85787	4.724068E-006	5.396171E-006	9
	23	65	1516.544	38.58028	-75.43001	1	84.72381	-62.91156	-8.885996E-007	5.245042E-005	9
	24	68	1193.986	45.03102	-91.30931	1	101.8095	-63.74886	-7.204163E-006	0.0002611	9
	25	70	946.5144	53.08716	-109.6111	1	121.7902	-64.15804	-2.662908E-006	0.0001578	9
	26	72	751.7689	63.54203	-130.9532	1	145.5552	-64.11608	4.547138E-006	-6.55582E-005	9
	27	75	597.4265	76.39839	-156.0619	1	173.7585	-63.91645	1.314033E-006	9.359805E-005	9
	28	77	477.4305	92.62228	-184.0081	1	206.0045	-63.28115	5.941184E-007	7.100571E-005	9
	29	79	376.6741	114.3211	-217.7576	1	245.9425	-62.30087	5.960291E-007	7.087563E-005	9
	30	82	298.2954	141.0831	-255.5497	1	291.9077	-61.09792	6.178435E-007	7.43218E-005	9
	31	84	237.7717	173.2198	-296.5833	1	343.4629	-59.71289	6.572778E-007	7.264779E-005	9
	32	87	189.0121	213.2421	-341.6821	1	402.764	-58.03192	6.143325E-007	7.481988E-005	9
	33	89	150.2404	260.5641	-388.8136	1	468.0487	-56.17192	-4.842428E-007	0.0006556	8
	34	91	119.1737	318.7798	-440.3574	1	543.6315	-54.09879	-5.590089E-007	0.0006562	8
	35	94	95.0169	385.816	-492.3269	1	625.4916	-51.91568	-4.874293E-007	0.0006536	8
	36	96	75.60484	464.1981	-542.3875	1	713.9076	-49.4417	-5.654686E-007	0.0006514	8
	37	99	54.50582	593.5397	-602.8329	1	845.9886	-45.44505	-5.777076E-007	0.0006497	8
	38	101	45.95588	667.7538	-628.7497	1	917.1812	-43.27683	-4.950674E-007	0.0006673	8
	39	104	37.20238	765.4706	-659.2988	1	1010.257	-40.73828	-3.38439E-007	0.0006545	8
	40	106	30.04808	869.1	-683.9752	1	1105.964	-38.20248	-3.713982E-007	0.0006497	8
	41	108	23.91582	983.38	-706.1873	1	1210.676	-35.68299	-4.317589E-007	0.0006523	8
	42	111	18.60119	1108.014	-714.3386	1	1318.323	-32.80995	-5.377361E-008	0.0006544	8
	43	113	15.02404	1213.617	-717.5418	1	1409.869	-30.59339	-2.46753E-007	0.0006541	8
	44	115	12.01923	1322.465	-715.5207	1	1503.624	-28.41563	-8.443874E-007	0.0006525	8
	45	118	9.450605	1442.293	-718.563	1	1611.379	-26.48289	-8.484507E-009	0.000654	8
	46	120	7.512019	1542.999	-717.7609	1	1701.772	-24.94656	-3.964743E-007	0.0006703	8
	47	123	5.978954	1622.538	-718.8878	1	1774.663	-23.89639	-6.715674E-007	0.000654	8
	48	126	4.734848	1680.897	-723.0076	1	1829.797	-23.27408	-5.552071E-007	0.0006319	8
	49	129	3.75601	1740.657	-751.3724	1	1895.903	-23.34794	-3.383689E-007	0.000674	8
	50	133	3.004808	1796.171	-804.946	1	1968.291	-24.13932	-2.632483E-007	0.0006784	8
	51	136	2.372217	1860.353	-887.4473	1	2061.183	-25.50262	-4.573719E-007	0.0006458	8
	52	141	1.878005	1895.515	-1003.981	1	2144.984	-27.90843	-3.55939E-007	0.0006627	8
	53	145	1.512097	1952.953	-1150.411	1	2266.599	-30.50073	-3.13957E-007	0.0005465	8
	54	151	1.201923	2059.513	-1353.273	1	2464.334	-33.30827	-3.16282E-007	0.0006746	8
	55	157	0.956633	2175.439	-1603.006	1	2702.252	-36.38522	-3.68005E-007	2.513058E-005	8
