EXPLAIN
TAG	EISPOT
TITLE	LABEL	Potentiostatic EIS	Test Identifier
DATE	LABEL	8/10/2020	Date
TIME	LABEL	1:11:41	Time
NOTES	NOTES	1	Notes...
	
PSTAT	PSTAT	REF3000-16137	Potentiostat
VDC	POTEN	0.00000E+000	T	DC Voltage (V)
FREQINIT	QUANT	3.00000E+005	Initial Freq. (Hz)
FREQFINAL	QUANT	1.00000E+000	Final Freq. (Hz)
PTSPERDEC	QUANT	1.00000E+001	Points/decade
VAC	QUANT	5.00000E+001	AC Voltage (mV rms)
AREA	QUANT	1.00000E+000	Sample Area (cm^2)
SPEED	SELECTOR	2	Optimize for:
ZGUESS	QUANT	1.00000E+003	Estimated Z (ohms)
EOC	QUANT	0	Open Circuit (V)
SEQUENCER	TOGGLE	TRUE	Run as Sequence
PSTATMODEL	IQUANT	5	Pstat Model
PSTATSECTION	LABEL	REF3000-16137	Pstat Section
PSTATSERIALNO	LABEL	16137	Pstat Serial Number
CTRLMODE	IQUANT	1	Control Mode
IESTAB	IQUANT	0	I/E Stability
CASPEED	IQUANT	1	Control Amp Speed
CONVENTION	IQUANT	1	Current Convention
ICHRANGE	IQUANT	2	Ich Range
ICHRANGEMODE	TOGGLE	F	Ich Auto Range
ICHOFFSETENABLE	TOGGLE	T	Ich Offset Enable
ICHOFFSET	QUANT	0	Ich Offset (V)
ICHFILTER	IQUANT	3	Ich Filter
VCHRANGE	IQUANT	2	Vch Range
VCHRANGEMODE	TOGGLE	F	Vch Auto Range
VCHOFFSETENABLE	TOGGLE	T	Vch Offset Enable
VCHOFFSET	QUANT	0	Vch Offset (V)
VCHFILTER	IQUANT	3	Vch Filter
ACHRANGE	IQUANT	2	Ach Range
ACHOFFSETENABLE	TOGGLE	F	Ach Offset Enable
ACHOFFSET	QUANT	0	Ach Offset (V)
ACHFILTER	IQUANT	3	Ach Filter
IERANGELOWERLIMIT	IQUANT	2	I/E Range Lower Limit
IERANGEMODE	TOGGLE	F	I/E AutoRange
IERANGE	IQUANT	11	I/E Range
POSFEEDENABLE	TOGGLE	F	Positive Feedback IR Comp
POSFEEDRESISTANCE	QUANT	0	Positive Feedback Resistance (ohm)
ACHSELECT	IQUANT	0	Ach Select
CABLEID	IQUANT	13	Cable ID
DCCALDATE	LABEL	7/31/2020	DC Calibration Date
ACCALDATE	LABEL	7/31/2020	AC Calibration Date
THERMOSELECT	IQUANT	1	Thermo Select
FRAMEWORKVERSION	QUANT	6.33	Framework Version
INSTRUMENTVERSION	LABEL	3.50	Instrument Version
COMPLIANCEVOLTAGE	IQUANT	0	Compliance Voltage
ZCURVE	TABLE
	Pt	Time	Freq	Zreal	Zimag	Zsig	Zmod	Zphz	Idc	Vdc	IERange
	#	s	Hz	ohm	ohm	V	ohm	°	A	V	#
	0	7	300046.9	63.86122	-1.988968	1	63.89219	-1.78391	-3.120385E-005	-0.0004717	9
	1	10	238359.4	64.39285	-2.836359	1	64.45528	-2.522119	3.200872E-005	-0.0002662	9
	2	13	189328.1	65.12264	-3.669169	1	65.22593	-3.224775	-8.191636E-006	0.0007205	9
	3	16	150421.9	65.8918	-4.525921	1	66.04705	-3.929313	3.884476E-006	-0.0005953	9
	4	18	119484.4	66.8457	-5.436351	1	67.0664	-4.649453	-1.201926E-005	-0.0007507	9
	5	21	94921.88	67.84315	-6.176314	1	68.12371	-5.201763	-1.386829E-005	0.0001526	9
	6	23	75421.88	68.88152	-7.293416	1	69.26656	-6.044157	-1.64166E-005	0.0004443	9
	7	26	59859.37	70.02331	-8.522936	1	70.54008	-6.939661	-1.717384E-005	0.0007177	9
	8	28	47578.12	71.42018	-9.88185	1	72.10058	-7.877554	1.140181E-005	6.398127E-005	9
	9	31	37828.12	72.99709	-11.34175	1	73.87294	-8.831581	-1.583184E-005	0.0004151	9
	10	33	30046.88	74.73543	-12.86278	1	75.83426	-9.76555	2.275237E-005	-0.0004287	9
	11	36	23859.38	76.6598	-14.40828	1	78.00207	-10.64461	-1.889175E-005	0.000597	9
	12	38	18984.38	78.97047	-16.18501	1	80.61198	-11.58239	-1.774465E-005	0.0008439	9
	13	40	15046.87	81.58765	-18.00327	1	83.55035	-12.44357	1.693831E-005	-0.0006142	9
	14	43	11953.13	84.38533	-19.78287	1	86.67321	-13.19387	-1.820985E-005	0.000836	9
	15	45	9515.62	87.70599	-21.75732	1	90.36438	-13.93218	-9.46298E-006	3.831792E-005	9
	16	47	7546.875	91.32735	-23.67912	1	94.34716	-14.53543	1.756467E-005	-0.0001439	9
	17	50	5928.309	95.4071	-25.43983	1	98.7405	-14.93026	1.139478E-005	-0.0005505	9
	18	52	4733.456	99.3494	-26.8661	1	102.9178	-15.13203	-4.171771E-006	0.000613	9
	19	54	3796.875	103.5049	-28.30665	1	107.3058	-15.29532	-1.6129E-005	0.0004478	9
	20	57	2987.132	108.3983	-30.00387	1	112.4741	-15.4717	-1.414174E-005	0.0002352	9
	21	59	2390.625	113.1257	-31.42476	1	117.4093	-15.52456	-1.760459E-005	0.0005161	9
	22	61	1884.191	117.9992	-32.53739	1	122.403	-15.41579	-1.779785E-005	0.0004943	9
	23	64	1516.544	122.5825	-33.84582	1	127.1692	-15.43518	-1.095411E-005	0.0007475	9
	24	66	1193.986	127.4322	-34.7447	1	132.0839	-15.25113	1.708254E-005	-0.0006192	9
	25	68	946.5144	133.0097	-36.59605	1	137.9524	-15.38361	2.120492E-005	-0.0002914	9
	26	71	751.7689	138.6416	-38.02859	1	143.7626	-15.33865	2.289235E-005	-0.0004317	9
	27	73	597.4265	143.5997	-39.26535	1	148.8712	-15.29292	-9.961534E-006	6.677822E-005	9
	28	75	477.4305	147.2589	-40.31853	1	152.6786	-15.31196	1.381034E-006	7.242939E-005	9
	29	78	376.6741	150.7398	-41.75798	1	156.4168	-15.48381	9.723874E-007	0.0001279	9
	30	80	298.2954	154.7921	-44.34923	1	161.02	-15.98745	1.346402E-006	8.552807E-005	9
	31	82	237.7717	158.0195	-47.67908	1	165.0559	-16.79009	1.421246E-006	7.431034E-005	9
	32	85	189.0121	163.5177	-53.08402	1	171.9185	-17.98538	1.442422E-006	7.041583E-005	9
	33	87	150.2404	166.0527	-59.30011	1	176.3236	-19.65247	1.400498E-006	7.657446E-005	9
	34	90	119.1737	168.684	-67.81231	1	181.8043	-21.90052	1.453164E-006	7.171449E-005	9
	35	92	95.0169	171.8363	-78.73899	1	189.0173	-24.61824	1.318019E-006	7.679367E-005	9
	36	94	75.60484	178.0201	-93.24715	1	200.9632	-27.6456	1.368483E-006	7.310283E-005	9
	37	97	54.50582	183.5796	-120.069	1	219.3582	-33.18643	1.353564E-006	6.482958E-005	9
	38	100	45.95588	188.4759	-138.1242	1	233.6695	-36.23574	1.466678E-006	7.905625E-005	9
	39	102	37.20238	192.5542	-164.6627	1	253.3593	-40.53539	1.409027E-006	7.39801E-005	9
	40	104	30.04808	201.3215	-197.7581	1	282.2031	-44.48842	1.421224E-006	0.0001185	9
	41	107	23.91582	209.6393	-240.9255	1	319.3646	-48.97212	1.452997E-006	7.375961E-005	9
	42	109	18.60119	222.0918	-300.1413	1	373.3759	-53.50013	1.155412E-006	8.350134E-005	9
	43	111	15.02404	236.9764	-360.6063	1	431.5029	-56.68864	5.642313E-008	0.0006467	8
	44	114	12.01923	254.6238	-438.6439	1	507.19	-59.86571	1.09688E-007	0.0006565	8
	45	116	9.450605	281.0428	-541.05	1	609.6886	-62.55085	4.415559E-007	0.0006507	8
	46	119	7.512019	316.4316	-660.1967	1	732.1124	-64.39164	3.887675E-007	0.0006752	8
	47	121	5.978954	360.548	-802.8846	1	880.1241	-65.81678	2.320253E-007	0.0006586	8
	48	124	4.734848	416.5534	-976.832	1	1061.941	-66.90501	3.721879E-007	0.0006826	8
	49	128	3.75601	492.6959	-1182.739	1	1281.258	-67.38477	2.487623E-007	0.0006453	8
	50	131	3.004808	580.7172	-1415.192	1	1529.706	-67.68944	2.255228E-007	0.0006781	8
	51	135	2.372217	699.9212	-1702.723	1	1840.966	-67.6544	2.742203E-007	0.0007067	8
	52	139	1.878005	833.608	-2041.855	1	2205.464	-67.79176	2.343774E-007	0.0006316	8
	53	144	1.512097	977.68	-2403.104	1	2594.372	-67.86152	2.767496E-007	0.0006308	8
	54	149	1.201923	1163.694	-2864.535	1	3091.884	-67.89095	3.025517E-007	0.0006348	8
	55	157	0.956633	1361.912	-3401.961	1	3664.443	-68.18221	2.518051E-007	1.033463E-005	8
