EXPLAIN
TAG	EISPOT
TITLE	LABEL	Potentiostatic EIS	Test Identifier
DATE	LABEL	8/10/2020	Date
TIME	LABEL	0:13:14	Time
NOTES	NOTES	1	Notes...
	
PSTAT	PSTAT	REF3000-16137	Potentiostat
VDC	POTEN	0.00000E+000	T	DC Voltage (V)
FREQINIT	QUANT	3.00000E+005	Initial Freq. (Hz)
FREQFINAL	QUANT	1.00000E+000	Final Freq. (Hz)
PTSPERDEC	QUANT	1.00000E+001	Points/decade
VAC	QUANT	5.00000E+001	AC Voltage (mV rms)
AREA	QUANT	1.00000E+000	Sample Area (cm^2)
SPEED	SELECTOR	2	Optimize for:
ZGUESS	QUANT	1.00000E+003	Estimated Z (ohms)
EOC	QUANT	0	Open Circuit (V)
SEQUENCER	TOGGLE	TRUE	Run as Sequence
PSTATMODEL	IQUANT	5	Pstat Model
PSTATSECTION	LABEL	REF3000-16137	Pstat Section
PSTATSERIALNO	LABEL	16137	Pstat Serial Number
CTRLMODE	IQUANT	1	Control Mode
IESTAB	IQUANT	0	I/E Stability
CASPEED	IQUANT	1	Control Amp Speed
CONVENTION	IQUANT	1	Current Convention
ICHRANGE	IQUANT	2	Ich Range
ICHRANGEMODE	TOGGLE	F	Ich Auto Range
ICHOFFSETENABLE	TOGGLE	T	Ich Offset Enable
ICHOFFSET	QUANT	0	Ich Offset (V)
ICHFILTER	IQUANT	3	Ich Filter
VCHRANGE	IQUANT	2	Vch Range
VCHRANGEMODE	TOGGLE	F	Vch Auto Range
VCHOFFSETENABLE	TOGGLE	T	Vch Offset Enable
VCHOFFSET	QUANT	0	Vch Offset (V)
VCHFILTER	IQUANT	3	Vch Filter
ACHRANGE	IQUANT	2	Ach Range
ACHOFFSETENABLE	TOGGLE	F	Ach Offset Enable
ACHOFFSET	QUANT	0	Ach Offset (V)
ACHFILTER	IQUANT	3	Ach Filter
IERANGELOWERLIMIT	IQUANT	2	I/E Range Lower Limit
IERANGEMODE	TOGGLE	F	I/E AutoRange
IERANGE	IQUANT	11	I/E Range
POSFEEDENABLE	TOGGLE	F	Positive Feedback IR Comp
POSFEEDRESISTANCE	QUANT	0	Positive Feedback Resistance (ohm)
ACHSELECT	IQUANT	0	Ach Select
CABLEID	IQUANT	13	Cable ID
DCCALDATE	LABEL	7/31/2020	DC Calibration Date
ACCALDATE	LABEL	7/31/2020	AC Calibration Date
THERMOSELECT	IQUANT	1	Thermo Select
FRAMEWORKVERSION	QUANT	6.33	Framework Version
INSTRUMENTVERSION	LABEL	3.50	Instrument Version
COMPLIANCEVOLTAGE	IQUANT	0	Compliance Voltage
ZCURVE	TABLE
	Pt	Time	Freq	Zreal	Zimag	Zsig	Zmod	Zphz	Idc	Vdc	IERange
	#	s	Hz	ohm	ohm	V	ohm	°	A	V	#
	0	9	300046.9	3.558999	0.038862	1	3.559211	0.6256083	-1.866776E-005	-0.0004849	10
	1	12	238359.4	3.69772	-0.455158	1	3.725628	-7.017326	1.369643E-005	-0.0003678	10
	2	15	189328.1	3.84261	-0.9173284	1	3.950588	-13.42666	1.65269E-005	9.964922E-006	10
	3	18	150421.9	4.019124	-1.380582	1	4.24963	-18.95776	4.081883E-005	0.0001523	10
	4	20	119484.4	4.218054	-1.841873	1	4.60266	-23.58917	-4.13638E-006	0.0005256	10
	5	23	94921.88	4.456933	-2.32466	1	5.026759	-27.54577	1.678568E-005	0.0005421	10
	6	25	75421.88	4.716247	-2.853116	1	5.512101	-31.17204	-3.929811E-006	0.0006634	10
	7	28	59859.37	5.005799	-3.446401	1	6.077475	-34.5467	-2.344861E-005	0.0007187	10
	8	31	47578.12	5.332524	-4.115484	1	6.73595	-37.6599	1.313117E-005	0.0006702	10
	9	33	37828.12	5.688241	-4.889008	1	7.500566	-40.67886	1.986347E-005	0.0006765	10
	10	36	30046.88	6.097974	-5.794211	1	8.411788	-43.53681	-1.806552E-005	0.000666	10
	11	38	23859.38	6.568964	-6.845403	1	9.487404	-46.18057	-1.2225E-005	0.0007089	10
	12	40	18984.38	7.095224	-8.117315	1	10.78114	-48.84378	1.259396E-005	0.0006614	10
	13	43	15046.87	7.70359	-9.66823	1	12.36204	-51.45236	-3.075251E-005	0.000677	10
	14	45	11953.13	8.424229	-11.50607	1	14.26034	-53.79009	-2.67161E-005	0.0006751	10
	15	47	9515.62	9.25771	-13.70026	1	16.53489	-55.95184	-3.022831E-005	0.0007143	10
	16	50	7546.875	10.30871	-16.36013	1	19.3371	-57.7845	-1.330307E-005	0.0006656	10
	17	52	5928.309	11.64349	-19.67939	1	22.8659	-59.38895	1.273783E-005	0.0006542	10
	18	54	4733.456	13.17258	-23.42038	1	26.87063	-60.64482	-7.958935E-006	0.0006618	10
	19	57	3796.875	14.95235	-27.86039	1	31.61921	-61.77806	2.135348E-005	0.000661	10
	20	59	2987.132	17.52556	-33.40661	1	37.72462	-62.31789	1.679096E-005	0.0006494	10
	21	61	2390.625	20.39101	-39.58686	1	44.52991	-62.74721	3.593354E-006	-2.060304E-005	9
	22	64	1884.191	24.36606	-47.28339	1	53.19233	-62.73706	3.29949E-006	-1.007989E-005	9
	23	66	1516.544	28.87903	-55.47038	1	62.53768	-62.49758	-3.543306E-006	6.396598E-005	9
	24	68	1193.986	35.09983	-65.86725	1	74.63573	-61.9474	3.141437E-006	-1.829749E-005	9
	25	71	946.5144	42.80029	-77.24083	1	88.30634	-61.00851	3.513465E-006	-1.24706E-005	9
	26	73	751.7689	52.10246	-90.27611	1	104.2326	-60.0088	-8.767663E-006	0.0001506	9
	27	75	597.4265	63.64428	-104.6241	1	122.4614	-58.68729	-1.057416E-006	3.222395E-005	9
	28	78	477.4305	77.10101	-119.8899	1	142.5418	-57.25499	-3.250274E-006	7.845349E-005	9
	29	80	376.6741	94.38694	-136.8475	1	166.2412	-55.40506	-3.278396E-006	7.643989E-005	9
	30	82	298.2954	114.4001	-154.7525	1	192.4467	-53.5265	-3.246975E-006	7.912193E-005	9
	31	85	237.7717	137.0007	-172.3035	1	220.1311	-51.51134	-3.199304E-006	7.10129E-005	9
	32	87	189.0121	163.0333	-190.9596	1	251.0885	-49.51069	-3.135231E-006	7.343318E-005	9
	33	89	150.2404	192.3575	-209.5755	1	284.4702	-47.45294	-3.084568E-006	7.660686E-005	9
	34	92	119.1737	225.3931	-228.2269	1	320.764	-45.35793	-3.003185E-006	7.552317E-005	9
	35	94	95.0169	261.0632	-246.1637	1	358.8182	-43.31745	-2.937084E-006	8.003548E-005	9
	36	97	75.60484	299.0817	-261.5321	1	397.302	-41.16808	-4.105989E-006	0.0007133	8
	37	99	54.50582	360.872	-282.5092	1	458.3012	-38.05566	-4.154521E-006	0.000653	8
	38	102	45.95588	396.7326	-293.5974	1	493.5547	-36.50287	-3.960165E-006	0.0006648	8
	39	104	37.20238	440.6289	-301.1219	1	533.693	-34.34835	-4.186442E-006	0.0006603	8
	40	106	30.04808	487.7693	-307.8491	1	576.7928	-32.25752	-4.133871E-006	0.0006581	8
	41	109	23.91582	536.0608	-309.5374	1	619.011	-30.00341	-4.231596E-006	0.0006586	8
	42	111	18.60119	582.4199	-305.112	1	657.5001	-27.64867	-4.708909E-006	0.0006713	8
	43	114	15.02404	619.0676	-301.2901	1	688.4915	-25.95143	-3.452201E-006	0.0006678	8
	44	116	12.01923	658.2501	-303.7036	1	724.9339	-24.76767	-4.073595E-006	0.000655	8
	45	118	9.450605	693.3121	-308.1559	1	758.7106	-23.96367	-4.154832E-006	0.0006672	8
	46	121	7.512019	731.9758	-321.9157	1	799.6363	-23.73942	-4.016061E-006	0.0006713	8
	47	124	5.978954	765.3109	-339.8734	1	837.3856	-23.94593	-4.33907E-006	0.0006676	8
	48	127	4.734848	797.0671	-366.4283	1	877.2603	-24.68922	-3.957545E-006	0.0006896	8
	49	130	3.75601	837.4961	-402.0852	1	929.0168	-25.64585	-4.248374E-006	0.0006431	8
	50	133	3.004808	888.0048	-444.5883	1	993.082	-26.59529	-4.170487E-006	0.0006847	8
	51	137	2.372217	955.252	-494.2933	1	1075.561	-27.35922	-3.936037E-006	0.0007369	8
	52	141	1.878005	1035.65	-548.1658	1	1171.775	-27.89212	-4.028652E-006	0.0006276	8
	53	146	1.512097	1123.83	-596.9612	1	1272.54	-27.97655	-3.849987E-006	0.000703	8
	54	151	1.201923	1229.906	-644.3211	1	1388.459	-27.64906	-3.729629E-006	0.0006233	8
	55	158	0.956633	1353.495	-678.8636	1	1514.201	-26.63667	-3.95933E-006	1.801709E-005	8
