EXPLAIN
TAG	EISPOT
TITLE	LABEL	Potentiostatic EIS	Test Identifier
DATE	LABEL	8/10/2020	Date
TIME	LABEL	1:08:56	Time
NOTES	NOTES	1	Notes...
	
PSTAT	PSTAT	REF3000-16137	Potentiostat
VDC	POTEN	0.00000E+000	T	DC Voltage (V)
FREQINIT	QUANT	3.00000E+005	Initial Freq. (Hz)
FREQFINAL	QUANT	1.00000E+000	Final Freq. (Hz)
PTSPERDEC	QUANT	1.00000E+001	Points/decade
VAC	QUANT	5.00000E+001	AC Voltage (mV rms)
AREA	QUANT	1.00000E+000	Sample Area (cm^2)
SPEED	SELECTOR	2	Optimize for:
ZGUESS	QUANT	1.00000E+003	Estimated Z (ohms)
EOC	QUANT	0	Open Circuit (V)
SEQUENCER	TOGGLE	TRUE	Run as Sequence
PSTATMODEL	IQUANT	5	Pstat Model
PSTATSECTION	LABEL	REF3000-16137	Pstat Section
PSTATSERIALNO	LABEL	16137	Pstat Serial Number
CTRLMODE	IQUANT	1	Control Mode
IESTAB	IQUANT	0	I/E Stability
CASPEED	IQUANT	1	Control Amp Speed
CONVENTION	IQUANT	1	Current Convention
ICHRANGE	IQUANT	2	Ich Range
ICHRANGEMODE	TOGGLE	F	Ich Auto Range
ICHOFFSETENABLE	TOGGLE	T	Ich Offset Enable
ICHOFFSET	QUANT	0	Ich Offset (V)
ICHFILTER	IQUANT	3	Ich Filter
VCHRANGE	IQUANT	2	Vch Range
VCHRANGEMODE	TOGGLE	F	Vch Auto Range
VCHOFFSETENABLE	TOGGLE	T	Vch Offset Enable
VCHOFFSET	QUANT	0	Vch Offset (V)
VCHFILTER	IQUANT	3	Vch Filter
ACHRANGE	IQUANT	2	Ach Range
ACHOFFSETENABLE	TOGGLE	F	Ach Offset Enable
ACHOFFSET	QUANT	0	Ach Offset (V)
ACHFILTER	IQUANT	3	Ach Filter
IERANGELOWERLIMIT	IQUANT	2	I/E Range Lower Limit
IERANGEMODE	TOGGLE	F	I/E AutoRange
IERANGE	IQUANT	11	I/E Range
POSFEEDENABLE	TOGGLE	F	Positive Feedback IR Comp
POSFEEDRESISTANCE	QUANT	0	Positive Feedback Resistance (ohm)
ACHSELECT	IQUANT	0	Ach Select
CABLEID	IQUANT	13	Cable ID
DCCALDATE	LABEL	7/31/2020	DC Calibration Date
ACCALDATE	LABEL	7/31/2020	AC Calibration Date
THERMOSELECT	IQUANT	1	Thermo Select
FRAMEWORKVERSION	QUANT	6.33	Framework Version
INSTRUMENTVERSION	LABEL	3.50	Instrument Version
COMPLIANCEVOLTAGE	IQUANT	0	Compliance Voltage
ZCURVE	TABLE
	Pt	Time	Freq	Zreal	Zimag	Zsig	Zmod	Zphz	Idc	Vdc	IERange
	#	s	Hz	ohm	ohm	V	ohm	°	A	V	#
	0	7	300046.9	49.9454	-1.808559	1	49.97813	-2.073816	-4.240573E-005	0.0005035	9
	1	10	238359.4	50.49102	-2.726853	1	50.56461	-3.091352	-3.957532E-006	0.0002704	9
	2	13	189328.1	51.15221	-3.555859	1	51.27565	-3.976533	5.901097E-005	-0.002146	9
	3	16	150421.9	51.86077	-4.413826	1	52.04826	-4.864672	5.756139E-005	-0.0019162	9
	4	18	119484.4	52.60006	-5.443051	1	52.88094	-5.907936	1.0559E-005	0.0004963	9
	5	21	94921.88	53.54603	-6.30966	1	53.9165	-6.720525	-1.608555E-005	0.0005673	9
	6	23	75421.88	54.4872	-7.48097	1	54.99836	-7.817703	-9.188842E-006	0.000546	9
	7	26	59859.37	55.55342	-8.744196	1	56.23738	-8.945056	2.035779E-005	-0.000542	9
	8	29	47578.12	56.85451	-10.22496	1	57.76664	-10.19534	2.16971E-005	-0.0005288	9
	9	31	37828.12	58.37488	-11.85005	1	59.56551	-11.47507	-1.693495E-005	0.0004383	9
	10	34	30046.88	60.07859	-13.54621	1	61.58682	-12.70628	1.498652E-005	-0.0005516	9
	11	36	23859.38	62.06596	-15.45053	1	63.96016	-13.97892	-1.457007E-005	0.0006834	9
	12	38	18984.38	64.32598	-17.53255	1	66.6725	-15.24608	-3.949834E-006	0.0005096	9
	13	41	15046.87	66.90582	-19.70293	1	69.74664	-16.40905	-4.193328E-006	0.0005608	9
	14	43	11953.13	69.9369	-22.12773	1	73.35398	-17.55714	-8.240812E-006	0.0006734	9
	15	45	9515.62	73.28363	-24.62236	1	77.30945	-18.57169	1.199418E-005	0.0001102	9
	16	48	7546.875	77.15743	-27.1932	1	81.80917	-19.41438	-1.26603E-005	0.0007174	9
	17	50	5928.309	81.46237	-29.79822	1	86.74129	-20.09208	-1.499933E-005	0.0004062	9
	18	52	4733.456	85.75926	-32.11274	1	91.57445	-20.52852	-8.813739E-006	6.277051E-005	9
	19	55	3796.875	90.56516	-34.55734	1	96.9343	-20.88557	1.897971E-005	-0.0005642	9
	20	57	2987.132	96.1958	-37.36617	1	103.1982	-21.22809	-9.10832E-006	0.0006674	9
	21	59	2390.625	101.7057	-40.04157	1	109.3041	-21.48958	-9.41861E-006	8.44733E-005	9
	22	61	1884.191	108.3475	-43.28849	1	116.6751	-21.77838	2.028671E-005	-0.0002701	9
	23	64	1516.544	114.2999	-45.15718	1	122.8968	-21.5578	1.976316E-005	-0.0002479	9
	24	66	1193.986	122.1064	-48.41321	1	131.3538	-21.62752	3.664658E-006	0.000354	9
	25	69	946.5144	129.9393	-50.9185	1	139.5597	-21.39841	-1.343117E-005	0.0007436	9
	26	71	751.7689	137.7166	-52.63254	1	147.4315	-20.91585	1.025683E-005	-0.0005002	9
	27	73	597.4265	145.6361	-54.1295	1	155.3701	-20.38891	1.910173E-005	-0.000559	9
	28	75	477.4305	153.9042	-55.70691	1	163.6758	-19.89815	1.435543E-006	6.928705E-005	9
	29	78	376.6741	161.7661	-56.79873	1	171.4479	-19.34701	1.383638E-006	6.773331E-005	9
	30	80	298.2954	168.1594	-57.68726	1	177.7791	-18.93458	1.376781E-006	7.523315E-005	9
	31	82	237.7717	174.4994	-59.6873	1	184.4251	-18.88319	1.383973E-006	7.684948E-005	9
	32	85	189.0121	179.5022	-62.5158	1	190.077	-19.20186	1.402973E-006	7.705607E-005	9
	33	87	150.2404	183.9865	-67.03268	1	195.8172	-20.01845	1.420616E-006	7.88917E-005	9
	34	90	119.1737	185.7415	-73.15014	1	199.6267	-21.4959	1.468104E-006	7.980973E-005	9
	35	92	95.0169	189.6797	-82.50505	1	206.8465	-23.50761	1.43157E-006	7.813885E-005	9
	36	95	75.60484	193.7568	-95.0916	1	215.8335	-26.1408	1.41973E-006	7.779823E-005	9
	37	97	54.50582	202.8764	-120.2969	1	235.8605	-30.6661	1.42758E-006	7.234896E-005	9
	38	100	45.95588	206.181	-136.9734	1	247.5324	-33.59752	1.540319E-006	7.718902E-005	9
	39	102	37.20238	211.1397	-162.0514	1	266.159	-37.50654	1.290129E-006	8.227085E-005	9
	40	104	30.04808	219.6534	-193.4925	1	292.7234	-41.3768	1.480126E-006	6.88464E-005	9
	41	107	23.91582	229.3225	-234.685	1	328.1248	-45.66214	1.458185E-006	8.200894E-005	9
	42	109	18.60119	242.84	-291.2602	1	379.2147	-50.18013	1.302978E-006	0.0001312	9
	43	111	15.02404	257.3976	-348.7367	1	433.4406	-53.5695	4.889149E-007	0.000668	8
	44	114	12.01923	274.3457	-422.7261	1	503.9474	-57.01676	3.294895E-008	0.0006516	8
	45	116	9.450605	304.895	-520.1051	1	602.8849	-59.6204	2.333497E-007	0.0006639	8
	46	119	7.512019	339.2587	-631.6372	1	716.9812	-61.7593	3.287004E-007	0.0006728	8
	47	121	5.978954	383.9388	-763.9257	1	854.9804	-63.31651	2.763851E-007	0.0006545	8
	48	125	4.734848	439.7902	-924.8642	1	1024.104	-64.56804	4.23824E-007	0.0006832	8
	49	128	3.75601	511.4923	-1112.334	1	1224.3	-65.30528	2.258134E-007	0.0006421	8
	50	131	3.004808	597.3013	-1323.44	1	1451.986	-65.70917	2.932427E-007	0.000667	8
	51	135	2.372217	710.9001	-1584.309	1	1736.495	-65.8336	3.208788E-007	0.0007252	8
	52	139	1.878005	830.2583	-1891.179	1	2065.403	-66.29775	2.854899E-007	0.0006279	8
	53	144	1.512097	955.967	-2220.734	1	2417.754	-66.7094	3.265442E-007	0.0006431	8
	54	149	1.201923	1113.324	-2645.197	1	2869.941	-67.1745	3.020492E-007	0.0006321	8
	55	155	0.956633	1281.165	-3147.067	1	3397.854	-67.84885	2.972846E-007	1.467983E-005	8
