EXPLAIN
TAG	EISPOT
TITLE	LABEL	Potentiostatic EIS	Test Identifier
DATE	LABEL	8/10/2020	Date
TIME	LABEL	0:18:48	Time
NOTES	NOTES	1	Notes...
	
PSTAT	PSTAT	REF3000-16137	Potentiostat
VDC	POTEN	0.00000E+000	T	DC Voltage (V)
FREQINIT	QUANT	3.00000E+005	Initial Freq. (Hz)
FREQFINAL	QUANT	1.00000E+000	Final Freq. (Hz)
PTSPERDEC	QUANT	1.00000E+001	Points/decade
VAC	QUANT	5.00000E+001	AC Voltage (mV rms)
AREA	QUANT	1.00000E+000	Sample Area (cm^2)
SPEED	SELECTOR	2	Optimize for:
ZGUESS	QUANT	1.00000E+003	Estimated Z (ohms)
EOC	QUANT	0	Open Circuit (V)
SEQUENCER	TOGGLE	TRUE	Run as Sequence
PSTATMODEL	IQUANT	5	Pstat Model
PSTATSECTION	LABEL	REF3000-16137	Pstat Section
PSTATSERIALNO	LABEL	16137	Pstat Serial Number
CTRLMODE	IQUANT	1	Control Mode
IESTAB	IQUANT	0	I/E Stability
CASPEED	IQUANT	1	Control Amp Speed
CONVENTION	IQUANT	1	Current Convention
ICHRANGE	IQUANT	2	Ich Range
ICHRANGEMODE	TOGGLE	F	Ich Auto Range
ICHOFFSETENABLE	TOGGLE	T	Ich Offset Enable
ICHOFFSET	QUANT	0	Ich Offset (V)
ICHFILTER	IQUANT	3	Ich Filter
VCHRANGE	IQUANT	2	Vch Range
VCHRANGEMODE	TOGGLE	F	Vch Auto Range
VCHOFFSETENABLE	TOGGLE	T	Vch Offset Enable
VCHOFFSET	QUANT	0	Vch Offset (V)
VCHFILTER	IQUANT	3	Vch Filter
ACHRANGE	IQUANT	2	Ach Range
ACHOFFSETENABLE	TOGGLE	F	Ach Offset Enable
ACHOFFSET	QUANT	0	Ach Offset (V)
ACHFILTER	IQUANT	3	Ach Filter
IERANGELOWERLIMIT	IQUANT	2	I/E Range Lower Limit
IERANGEMODE	TOGGLE	F	I/E AutoRange
IERANGE	IQUANT	11	I/E Range
POSFEEDENABLE	TOGGLE	F	Positive Feedback IR Comp
POSFEEDRESISTANCE	QUANT	0	Positive Feedback Resistance (ohm)
ACHSELECT	IQUANT	0	Ach Select
CABLEID	IQUANT	13	Cable ID
DCCALDATE	LABEL	7/31/2020	DC Calibration Date
ACCALDATE	LABEL	7/31/2020	AC Calibration Date
THERMOSELECT	IQUANT	1	Thermo Select
FRAMEWORKVERSION	QUANT	6.33	Framework Version
INSTRUMENTVERSION	LABEL	3.50	Instrument Version
COMPLIANCEVOLTAGE	IQUANT	0	Compliance Voltage
ZCURVE	TABLE
	Pt	Time	Freq	Zreal	Zimag	Zsig	Zmod	Zphz	Idc	Vdc	IERange
	#	s	Hz	ohm	ohm	V	ohm	°	A	V	#
	0	10	300046.9	3.997727	-0.0532371	1	3.998081	-0.7629539	7.121157E-005	-7.798103E-005	10
	1	14	238359.4	4.13585	-0.5406677	1	4.171041	-7.447875	6.540982E-005	-0.0004672	10
	2	17	189328.1	4.288253	-1.026157	1	4.409321	-13.45753	3.638556E-005	7.849593E-005	10
	3	19	150421.9	4.477362	-1.502621	1	4.722779	-18.55197	4.252213E-006	0.0003611	10
	4	22	119484.4	4.701056	-1.983743	1	5.102467	-22.87868	2.348796E-005	0.0005383	10
	5	24	94921.88	4.963062	-2.464502	1	5.541277	-26.40756	-1.418873E-005	0.0006452	10
	6	27	75421.88	5.249444	-3.015993	1	6.054162	-29.8789	1.443942E-005	0.0006013	10
	7	29	59859.37	5.559535	-3.62682	1	6.63794	-33.11883	-6.522598E-006	0.0006363	10
	8	32	47578.12	5.915806	-4.307823	1	7.318067	-36.06168	-1.462665E-005	0.0006584	10
	9	35	37828.12	6.317624	-5.074606	1	8.103333	-38.77303	-2.203547E-005	0.0007275	10
	10	37	30046.88	6.773441	-5.977729	1	9.033978	-41.4292	1.797921E-005	0.0006628	10
	11	40	23859.38	7.274243	-7.057499	1	10.13523	-44.13356	-2.58669E-005	0.0006719	10
	12	42	18984.38	7.858815	-8.288719	1	11.42208	-46.52505	-1.660056E-005	0.0007149	10
	13	44	15046.87	8.545456	-9.80654	1	13.00743	-48.931	-4.353098E-006	0.000677	10
	14	47	11953.13	9.355266	-11.6179	1	14.91632	-51.15739	1.737954E-005	0.0006484	10
	15	49	9515.62	10.28218	-13.78863	1	17.20028	-53.28812	-2.275233E-005	0.0006632	10
	16	51	7546.875	11.47283	-16.37488	1	19.99406	-54.98352	-7.511357E-006	0.0006423	10
	17	53	5928.309	13.03342	-19.58377	1	23.52432	-56.35538	-2.105787E-005	0.0006878	10
	18	56	4733.456	14.86863	-23.09981	1	27.4714	-57.23187	-2.701988E-005	0.0006867	10
	19	58	3796.875	17.05976	-27.20858	1	32.11452	-57.91232	1.505586E-005	0.0006302	10
	20	60	2987.132	20.24398	-32.13903	1	37.98337	-57.79368	-2.739686E-005	0.0006791	10
	21	63	2390.625	23.87042	-37.42724	1	44.39138	-57.471	-8.731898E-006	0.0001545	9
	22	65	1884.191	28.83945	-43.75676	1	52.4058	-56.6117	5.548526E-006	-2.557984E-005	9
	23	67	1516.544	34.52428	-49.93011	1	60.70372	-55.338	8.091517E-007	2.837255E-005	9
	24	70	1193.986	42.16107	-57.33602	1	71.16863	-53.67173	5.166096E-006	-2.798503E-005	9
	25	72	946.5144	51.19015	-64.44958	1	82.3054	-51.54105	-3.454252E-006	0.0001202	9
	26	74	751.7689	61.70971	-71.09423	1	94.14074	-49.04206	-7.427928E-006	0.0001577	9
	27	77	597.4265	73.77747	-77.22441	1	106.8023	-46.30767	-4.61564E-006	0.0001196	9
	28	79	477.4305	86.47531	-82.089	1	119.2333	-43.50941	-1.481841E-006	7.763766E-005	9
	29	81	376.6741	100.7341	-86.30419	1	132.649	-40.58841	-1.467519E-006	7.527675E-005	9
	30	84	298.2954	115.1962	-89.64951	1	145.9698	-37.89125	-1.499808E-006	7.493816E-005	9
	31	86	237.7717	128.5393	-90.85814	1	157.4089	-35.25462	-1.489008E-006	6.822278E-005	9
	32	88	189.0121	141.1651	-91.3403	1	168.1387	-32.90472	-1.536925E-006	6.968311E-005	9
	33	91	150.2404	151.9113	-90.80417	1	176.9815	-30.86864	-1.453371E-006	6.832549E-005	9
	34	93	119.1737	162.8606	-92.02267	1	187.0608	-29.46816	-1.33987E-006	7.431213E-005	9
	35	96	95.0169	172.9614	-94.12753	1	196.9153	-28.55552	-1.319378E-006	7.272046E-005	9
	36	98	75.60484	183.6152	-97.9174	1	208.0922	-28.06989	-1.280441E-006	6.836872E-005	9
	37	101	54.50582	199.0367	-105.5953	1	225.313	-27.94738	-1.21654E-006	6.389222E-005	9
	38	103	45.95588	206.6393	-110.3948	1	234.2794	-28.11287	-1.455193E-006	7.217328E-005	9
	39	106	37.20238	216.0041	-117.5798	1	245.9325	-28.56125	-1.131097E-006	7.528854E-005	9
	40	108	30.04808	224.0011	-125.9297	1	256.9723	-29.34397	-1.257041E-006	7.331268E-005	9
	41	110	23.91582	233.9846	-137.8271	1	271.5605	-30.49994	-1.308263E-006	6.777515E-005	9
	42	113	18.60119	245.6199	-154.8243	1	290.3441	-32.22492	-1.216894E-006	7.510289E-005	9
	43	115	15.02404	253.5068	-173.4038	1	307.1394	-34.37292	-8.439818E-007	8.044179E-005	9
	44	117	12.01923	263.7178	-198.4395	1	330.0383	-36.96033	-1.242153E-006	7.131402E-005	9
	45	120	9.450605	277.3176	-233.4893	1	362.5221	-40.09591	-1.032115E-006	9.00247E-005	9
	46	122	7.512019	292.6616	-274.926	1	401.5409	-43.21025	-2.084395E-006	0.0006739	8
	47	125	5.978954	312.6142	-327.3779	1	452.6631	-46.3215	-2.093196E-006	0.0006545	8
	48	128	4.734848	342.3438	-393.0838	1	521.2621	-48.9468	-1.853842E-006	0.0006854	8
	49	131	3.75601	384.1537	-470.1982	1	607.1741	-50.75105	-2.100331E-006	0.0007015	8
	50	135	3.004808	439.014	-555.9031	1	708.3513	-51.70075	-1.989029E-006	0.0006812	8
	51	138	2.372217	520.1251	-656.3517	1	837.4531	-51.60498	-1.837305E-006	0.000733	8
	52	143	1.878005	624.8597	-761.6716	1	985.187	-50.63525	-1.895743E-006	0.0006301	8
	53	147	1.512097	748.1943	-857.0124	1	1137.658	-48.87819	-1.813235E-006	0.0007284	8
	54	153	1.201923	906.5442	-954.329	1	1316.27	-46.47096	-1.819189E-006	0.0006233	8
	55	159	0.956633	1091.396	-1031.593	1	1501.776	-43.38643	-2.085891E-006	1.375559E-005	8
