EXPLAIN
TAG	EISPOT
TITLE	LABEL	Potentiostatic EIS	Test Identifier
DATE	LABEL	8/10/2020	Date
TIME	LABEL	0:21:36	Time
NOTES	NOTES	1	Notes...
	
PSTAT	PSTAT	REF3000-16137	Potentiostat
VDC	POTEN	0.00000E+000	T	DC Voltage (V)
FREQINIT	QUANT	3.00000E+005	Initial Freq. (Hz)
FREQFINAL	QUANT	1.00000E+000	Final Freq. (Hz)
PTSPERDEC	QUANT	1.00000E+001	Points/decade
VAC	QUANT	5.00000E+001	AC Voltage (mV rms)
AREA	QUANT	1.00000E+000	Sample Area (cm^2)
SPEED	SELECTOR	2	Optimize for:
ZGUESS	QUANT	1.00000E+003	Estimated Z (ohms)
EOC	QUANT	0	Open Circuit (V)
SEQUENCER	TOGGLE	TRUE	Run as Sequence
PSTATMODEL	IQUANT	5	Pstat Model
PSTATSECTION	LABEL	REF3000-16137	Pstat Section
PSTATSERIALNO	LABEL	16137	Pstat Serial Number
CTRLMODE	IQUANT	1	Control Mode
IESTAB	IQUANT	0	I/E Stability
CASPEED	IQUANT	1	Control Amp Speed
CONVENTION	IQUANT	1	Current Convention
ICHRANGE	IQUANT	2	Ich Range
ICHRANGEMODE	TOGGLE	F	Ich Auto Range
ICHOFFSETENABLE	TOGGLE	T	Ich Offset Enable
ICHOFFSET	QUANT	0	Ich Offset (V)
ICHFILTER	IQUANT	3	Ich Filter
VCHRANGE	IQUANT	2	Vch Range
VCHRANGEMODE	TOGGLE	F	Vch Auto Range
VCHOFFSETENABLE	TOGGLE	T	Vch Offset Enable
VCHOFFSET	QUANT	0	Vch Offset (V)
VCHFILTER	IQUANT	3	Vch Filter
ACHRANGE	IQUANT	2	Ach Range
ACHOFFSETENABLE	TOGGLE	F	Ach Offset Enable
ACHOFFSET	QUANT	0	Ach Offset (V)
ACHFILTER	IQUANT	3	Ach Filter
IERANGELOWERLIMIT	IQUANT	2	I/E Range Lower Limit
IERANGEMODE	TOGGLE	F	I/E AutoRange
IERANGE	IQUANT	11	I/E Range
POSFEEDENABLE	TOGGLE	F	Positive Feedback IR Comp
POSFEEDRESISTANCE	QUANT	0	Positive Feedback Resistance (ohm)
ACHSELECT	IQUANT	0	Ach Select
CABLEID	IQUANT	13	Cable ID
DCCALDATE	LABEL	7/31/2020	DC Calibration Date
ACCALDATE	LABEL	7/31/2020	AC Calibration Date
THERMOSELECT	IQUANT	1	Thermo Select
FRAMEWORKVERSION	QUANT	6.33	Framework Version
INSTRUMENTVERSION	LABEL	3.50	Instrument Version
COMPLIANCEVOLTAGE	IQUANT	0	Compliance Voltage
ZCURVE	TABLE
	Pt	Time	Freq	Zreal	Zimag	Zsig	Zmod	Zphz	Idc	Vdc	IERange
	#	s	Hz	ohm	ohm	V	ohm	°	A	V	#
	0	11	300046.9	4.274494	-0.0802176	1	4.275247	-1.075119	7.557355E-005	-3.234145E-005	10
	1	14	238359.4	4.414283	-0.5674382	1	4.450604	-7.324972	2.149272E-005	-0.0002452	10
	2	17	189328.1	4.572058	-1.047722	1	4.690569	-12.90692	1.511952E-005	9.229602E-005	10
	3	19	150421.9	4.778145	-1.532295	1	5.017828	-17.78044	1.972785E-005	0.0003565	10
	4	22	119484.4	5.006869	-2.013355	1	5.396512	-21.90597	4.590846E-005	0.0005375	10
	5	24	94921.88	5.289052	-2.502419	1	5.851169	-25.32032	-1.663933E-005	0.0006434	10
	6	27	75421.88	5.587356	-3.047176	1	6.364262	-28.60672	-2.113042E-005	0.0006827	10
	7	29	59859.37	5.930562	-3.64957	1	6.963543	-31.60746	1.085519E-005	0.0006439	10
	8	32	47578.12	6.309793	-4.316746	1	7.645115	-34.37737	-2.184053E-005	0.0007212	10
	9	35	37828.12	6.7454	-5.081471	1	8.445222	-36.99159	1.109072E-005	0.0006507	10
	10	37	30046.88	7.230311	-5.963754	1	9.372499	-39.51672	-2.662305E-005	0.0006788	10
	11	40	23859.38	7.785425	-6.989501	1	10.4626	-41.91646	1.077766E-006	0.000655	10
	12	42	18984.38	8.408855	-8.195333	1	11.74191	-44.26324	-1.490851E-005	0.0006617	10
	13	44	15046.87	9.164752	-9.65177	1	13.30975	-46.48264	-3.051425E-005	0.0006656	10
	14	47	11953.13	10.04985	-11.35494	1	15.16358	-48.48911	9.277083E-006	0.0006281	10
	15	49	9515.62	11.11005	-13.39411	1	17.40216	-50.32521	-2.246485E-005	0.0006572	10
	16	51	7546.875	12.47108	-15.74911	1	20.08887	-51.62573	-2.285698E-005	0.0007164	10
	17	53	5928.309	14.21706	-18.74594	1	23.52732	-52.82306	-2.643712E-005	0.0006894	10
	18	56	4733.456	16.26516	-21.96704	1	27.33325	-53.48247	1.839205E-005	0.000656	10
	19	58	3796.875	18.79028	-25.58328	1	31.74239	-53.70365	6.038343E-007	0.0006361	10
	20	60	2987.132	22.31823	-29.78861	1	37.22183	-53.15871	-2.555076E-005	0.0006887	10
	21	63	2390.625	26.32071	-34.16582	1	43.12868	-52.39001	-7.049694E-006	0.0001904	9
	22	65	1884.191	31.6083	-39.31704	1	50.44714	-51.20302	-7.930625E-006	0.0001714	9
	23	67	1516.544	37.50434	-43.87259	1	57.71811	-49.47464	4.478541E-006	-2.417345E-005	9
	24	70	1193.986	45.12135	-48.86103	1	66.50817	-47.27867	5.980702E-007	3.260435E-005	9
	25	72	946.5144	53.60231	-53.1983	1	75.51997	-44.78326	1.37934E-006	3.181784E-005	9
	26	74	751.7689	63.08356	-57.51443	1	85.36653	-42.356	5.773428E-006	-2.790263E-005	9
	27	77	597.4265	72.93988	-60.15529	1	94.54568	-39.51323	6.056305E-006	-3.53139E-005	9
	28	79	477.4305	83.23801	-63.02264	1	104.4051	-37.13074	-1.338364E-006	7.726422E-005	9
	29	81	376.6741	93.84846	-64.56844	1	113.915	-34.52826	-1.34114E-006	7.185663E-005	9
	30	84	298.2954	104.2898	-66.08414	1	123.4645	-32.36074	-1.258595E-006	7.593638E-005	9
	31	86	237.7717	116.1412	-69.81213	1	135.5084	-31.00994	-1.312852E-006	6.926581E-005	9
	32	89	189.0121	125.7729	-71.09707	1	144.477	-29.47867	-1.349636E-006	7.686066E-005	9
	33	91	150.2404	133.6138	-71.90575	1	151.7336	-28.28741	-1.242711E-006	7.208212E-005	9
	34	93	119.1737	142.1663	-74.60626	1	160.5533	-27.68966	-1.292122E-006	7.863813E-005	9
	35	96	95.0169	148.9424	-77.63879	1	167.9631	-27.53156	-1.178318E-006	7.462878E-005	9
	36	98	75.60484	156.6782	-82.68155	1	177.1561	-27.82131	-1.24232E-006	7.082194E-005	9
	37	101	54.50582	168.5759	-92.73701	1	192.4006	-28.81608	-1.126607E-006	6.809134E-005	9
	38	103	45.95588	176.8288	-99.8706	1	203.0826	-29.45719	-1.027337E-006	7.829048E-005	9
	39	106	37.20238	187.3422	-109.8573	1	217.1767	-30.38732	-1.148088E-006	8.126508E-005	9
	40	108	30.04808	195.9447	-120.8958	1	230.2392	-31.67414	-9.140903E-007	6.602774E-005	9
	41	110	23.91582	207.9422	-135.6485	1	248.275	-33.11792	-7.943102E-007	6.655646E-005	9
	42	113	18.60119	220.232	-155.3397	1	269.5043	-35.19707	-7.446287E-007	7.432151E-005	9
	43	115	15.02404	231.6047	-176.3415	1	291.0963	-37.28528	-5.5204E-007	8.615764E-005	9
	44	117	12.01923	245.8118	-203.7969	1	319.3065	-39.66135	-1.072336E-006	7.64827E-005	9
	45	120	9.450605	258.6615	-241.0628	1	353.5775	-42.98306	-6.425273E-007	7.544486E-005	9
	46	122	7.512019	276.6087	-285.0146	1	397.1721	-45.85749	-1.846477E-006	0.0006495	8
	47	125	5.978954	298.2146	-340.2744	1	452.4583	-48.76885	-1.797811E-006	0.0006567	8
	48	128	4.734848	329.27	-409.8677	1	525.7473	-51.22311	-1.974785E-006	0.0006462	8
	49	131	3.75601	371.947	-491.5377	1	616.404	-52.88518	-1.713187E-006	0.0006769	8
	50	135	3.004808	425.682	-584.2658	1	722.8912	-53.92382	-1.83878E-006	0.0006833	8
	51	138	2.372217	504.4377	-694.2299	1	858.1448	-53.99729	-1.772026E-006	0.0006498	8
	52	143	1.878005	612.6835	-812.8818	1	1017.918	-52.99401	-1.659836E-006	0.0006435	8
	53	147	1.512097	736.3677	-926.6591	1	1183.611	-51.52766	-1.71868E-006	0.0006923	8
	54	153	1.201923	904.3705	-1043.359	1	1380.755	-49.08166	-1.643253E-006	0.0006655	8
	55	159	0.956633	1100.341	-1146.431	1	1589.042	-46.17521	-1.954228E-006	1.895213E-005	8
