EXPLAIN
TAG	EISPOT
TITLE	LABEL	Potentiostatic EIS	Test Identifier
DATE	LABEL	8/10/2020	Date
TIME	LABEL	0:10:27	Time
NOTES	NOTES	1	Notes...
	
PSTAT	PSTAT	REF3000-16137	Potentiostat
VDC	POTEN	0.00000E+000	T	DC Voltage (V)
FREQINIT	QUANT	3.00000E+005	Initial Freq. (Hz)
FREQFINAL	QUANT	1.00000E+000	Final Freq. (Hz)
PTSPERDEC	QUANT	1.00000E+001	Points/decade
VAC	QUANT	5.00000E+001	AC Voltage (mV rms)
AREA	QUANT	1.00000E+000	Sample Area (cm^2)
SPEED	SELECTOR	2	Optimize for:
ZGUESS	QUANT	1.00000E+003	Estimated Z (ohms)
EOC	QUANT	0	Open Circuit (V)
SEQUENCER	TOGGLE	TRUE	Run as Sequence
PSTATMODEL	IQUANT	5	Pstat Model
PSTATSECTION	LABEL	REF3000-16137	Pstat Section
PSTATSERIALNO	LABEL	16137	Pstat Serial Number
CTRLMODE	IQUANT	1	Control Mode
IESTAB	IQUANT	0	I/E Stability
CASPEED	IQUANT	1	Control Amp Speed
CONVENTION	IQUANT	1	Current Convention
ICHRANGE	IQUANT	2	Ich Range
ICHRANGEMODE	TOGGLE	F	Ich Auto Range
ICHOFFSETENABLE	TOGGLE	T	Ich Offset Enable
ICHOFFSET	QUANT	0	Ich Offset (V)
ICHFILTER	IQUANT	3	Ich Filter
VCHRANGE	IQUANT	2	Vch Range
VCHRANGEMODE	TOGGLE	F	Vch Auto Range
VCHOFFSETENABLE	TOGGLE	T	Vch Offset Enable
VCHOFFSET	QUANT	0	Vch Offset (V)
VCHFILTER	IQUANT	3	Vch Filter
ACHRANGE	IQUANT	2	Ach Range
ACHOFFSETENABLE	TOGGLE	F	Ach Offset Enable
ACHOFFSET	QUANT	0	Ach Offset (V)
ACHFILTER	IQUANT	3	Ach Filter
IERANGELOWERLIMIT	IQUANT	2	I/E Range Lower Limit
IERANGEMODE	TOGGLE	F	I/E AutoRange
IERANGE	IQUANT	11	I/E Range
POSFEEDENABLE	TOGGLE	F	Positive Feedback IR Comp
POSFEEDRESISTANCE	QUANT	0	Positive Feedback Resistance (ohm)
ACHSELECT	IQUANT	0	Ach Select
CABLEID	IQUANT	13	Cable ID
DCCALDATE	LABEL	7/31/2020	DC Calibration Date
ACCALDATE	LABEL	7/31/2020	AC Calibration Date
THERMOSELECT	IQUANT	1	Thermo Select
FRAMEWORKVERSION	QUANT	6.33	Framework Version
INSTRUMENTVERSION	LABEL	3.50	Instrument Version
COMPLIANCEVOLTAGE	IQUANT	0	Compliance Voltage
ZCURVE	TABLE
	Pt	Time	Freq	Zreal	Zimag	Zsig	Zmod	Zphz	Idc	Vdc	IERange
	#	s	Hz	ohm	ohm	V	ohm	°	A	V	#
	0	9	300046.9	3.4129	0.0324121	1	3.413054	0.5441182	-1.193893E-005	-0.000557	11
	1	12	238359.4	3.520762	-0.4520115	1	3.549659	-7.315874	1.490743E-005	0.0001579	11
	2	15	189328.1	3.667603	-0.8663566	1	3.768539	-13.29071	9.966625E-006	0.0002949	10
	3	18	150421.9	3.843244	-1.322535	1	4.064434	-18.98934	-0.0001022	0.0003087	10
	4	20	119484.4	4.029435	-1.789008	1	4.408729	-23.94049	-2.106067E-005	0.0004082	10
	5	23	94921.88	4.267982	-2.253677	1	4.826462	-27.83597	-1.221313E-005	0.0006151	10
	6	25	75421.88	4.519694	-2.783549	1	5.308086	-31.62771	1.092786E-006	0.0006029	10
	7	28	59859.37	4.794099	-3.371212	1	5.860755	-35.11489	-3.26471E-005	0.000715	10
	8	30	47578.12	5.10668	-4.032423	1	6.506813	-38.29593	-3.330837E-005	0.00068	10
	9	33	37828.12	5.459567	-4.780618	1	7.256802	-41.2067	1.163063E-006	0.0006834	10
	10	35	30046.88	5.855663	-5.684051	1	8.160712	-44.14799	-3.613514E-005	0.0006845	10
	11	38	23859.38	6.309857	-6.733463	1	9.227882	-46.86013	7.880383E-006	0.0006539	10
	12	40	18984.38	6.826297	-7.966325	1	10.49098	-49.40692	-6.404471E-006	0.00068	10
	13	43	15046.87	7.418667	-9.50403	1	12.05667	-52.02509	6.607732E-006	0.0006734	10
	14	45	11953.13	8.145307	-11.28965	1	13.92128	-54.19013	-1.393433E-005	0.0006954	10
	15	47	9515.62	8.955651	-13.47137	1	16.17657	-56.38437	7.712368E-006	0.0006775	10
	16	50	7546.875	10.01042	-16.08261	1	18.94357	-58.10032	1.398141E-005	0.0006543	10
	17	52	5928.309	11.3023	-19.39396	1	22.447	-59.76747	-2.27421E-005	0.0006865	10
	18	54	4733.456	12.80069	-23.09371	1	26.40411	-61.00069	-2.957671E-005	0.0007381	10
	19	57	3796.875	14.69025	-27.29841	1	31.0001	-61.71371	-1.675328E-005	0.0007528	10
	20	59	2987.132	17.1125	-32.90855	1	37.09192	-62.52549	1.124195E-005	0.0006444	10
	21	61	2390.625	19.99502	-38.9151	1	43.7514	-62.80539	-3.76089E-006	6.616113E-005	9
	22	63	1884.191	23.76849	-46.66237	1	52.36715	-63.007	-5.951794E-006	9.254366E-005	9
	23	66	1516.544	28.19742	-54.77159	1	61.60375	-62.75976	-9.284716E-006	0.0001397	9
	24	68	1193.986	34.25493	-65.0588	1	73.52583	-62.23218	-1.058279E-005	0.0001505	9
	25	71	946.5144	41.62096	-76.66866	1	87.23753	-61.50388	-5.782656E-006	5.6716E-005	9
	26	73	751.7689	50.86194	-89.42705	1	102.8792	-60.3708	-1.076689E-005	0.0001474	9
	27	75	597.4265	61.98376	-103.5794	1	120.709	-59.10293	2.061006E-006	-1.486111E-005	9
	28	78	477.4305	75.25746	-118.9291	1	140.7402	-57.67467	-4.733834E-006	8.016364E-005	9
	29	80	376.6741	92.01974	-136.2727	1	164.432	-55.97036	-4.726629E-006	7.283758E-005	9
	30	82	298.2954	111.5699	-154.4871	1	190.5626	-54.16335	-4.642607E-006	8.009419E-005	9
	31	85	237.7717	133.6084	-172.9452	1	218.5434	-52.31221	-4.631497E-006	7.461725E-005	9
	32	87	189.0121	159.1849	-192.4062	1	249.7198	-50.39777	-4.514905E-006	7.42241E-005	9
	33	89	150.2404	188.1548	-212.4885	1	283.8196	-48.47569	-4.464911E-006	7.401602E-005	9
	34	92	119.1737	221.1251	-233.3474	1	321.4767	-46.5405	-4.397563E-006	7.534712E-005	9
	35	94	95.0169	257.0969	-253.5524	1	361.0923	-44.60231	-4.410932E-006	7.278711E-005	9
	36	97	75.60484	296.122	-271.8058	1	401.9536	-42.54834	-5.567552E-006	0.0006615	8
	37	99	54.50582	360.9042	-298.121	1	468.1111	-39.55803	-5.470724E-006	0.0006474	8
	38	102	45.95588	398.06	-309.567	1	504.2654	-37.87183	-5.684027E-006	0.000659	8
	39	104	37.20238	447.1081	-322.6394	1	551.3636	-35.81474	-5.477149E-006	0.0006601	8
	40	106	30.04808	497.1456	-329.8128	1	596.5989	-33.56081	-5.642084E-006	0.0006605	8
	41	109	23.91582	551.7576	-334.739	1	645.3578	-31.24426	-5.222392E-006	0.000653	8
	42	111	18.60119	609.8727	-334.3657	1	695.5179	-28.73397	-5.963027E-006	0.0006587	8
	43	113	15.02404	655.3016	-333.421	1	735.248	-26.96724	-5.851305E-006	0.0006658	8
	44	116	12.01923	696.0362	-329.8233	1	770.2271	-25.35438	-5.788523E-006	0.0006607	8
	45	118	9.450605	738.3704	-332.3304	1	809.7125	-24.23186	-5.454172E-006	0.0006688	8
	46	121	7.512019	776.2803	-340.1924	1	847.5506	-23.66466	-5.37189E-006	0.0006817	8
	47	124	5.978954	811.4207	-353.0891	1	884.9155	-23.51623	-5.521107E-006	0.0006522	8
	48	127	4.734848	849.9728	-374.1351	1	928.6715	-23.7578	-5.52847E-006	0.0006853	8
	49	130	3.75601	891.8338	-402.7283	1	978.549	-24.30266	-5.520455E-006	0.000651	8
	50	133	3.004808	943.2457	-438.0021	1	1039.98	-24.9081	-5.590377E-006	0.0006807	8
	51	137	2.372217	1003.385	-477.3238	1	1111.135	-25.44105	-5.319309E-006	0.0007211	8
	52	141	1.878005	1075.978	-519.938	1	1195.017	-25.79093	-5.272024E-006	0.0006365	8
	53	146	1.512097	1159.726	-556.9095	1	1286.512	-25.65068	-5.156709E-006	0.000763	8
	54	151	1.201923	1257.697	-589.5102	1	1389.001	-25.11352	-4.927707E-006	0.0006254	8
	55	158	0.956633	1372.822	-610.8533	1	1502.591	-23.98724	-5.216698E-006	2.782099E-005	8
