EXPLAIN
TAG	EISPOT
TITLE	LABEL	Potentiostatic EIS	Test Identifier
DATE	LABEL	8/10/2020	Date
TIME	LABEL	0:46:48	Time
NOTES	NOTES	1	Notes...
	
PSTAT	PSTAT	REF3000-16137	Potentiostat
VDC	POTEN	0.00000E+000	T	DC Voltage (V)
FREQINIT	QUANT	3.00000E+005	Initial Freq. (Hz)
FREQFINAL	QUANT	1.00000E+000	Final Freq. (Hz)
PTSPERDEC	QUANT	1.00000E+001	Points/decade
VAC	QUANT	5.00000E+001	AC Voltage (mV rms)
AREA	QUANT	1.00000E+000	Sample Area (cm^2)
SPEED	SELECTOR	2	Optimize for:
ZGUESS	QUANT	1.00000E+003	Estimated Z (ohms)
EOC	QUANT	0	Open Circuit (V)
SEQUENCER	TOGGLE	TRUE	Run as Sequence
PSTATMODEL	IQUANT	5	Pstat Model
PSTATSECTION	LABEL	REF3000-16137	Pstat Section
PSTATSERIALNO	LABEL	16137	Pstat Serial Number
CTRLMODE	IQUANT	1	Control Mode
IESTAB	IQUANT	0	I/E Stability
CASPEED	IQUANT	1	Control Amp Speed
CONVENTION	IQUANT	1	Current Convention
ICHRANGE	IQUANT	2	Ich Range
ICHRANGEMODE	TOGGLE	F	Ich Auto Range
ICHOFFSETENABLE	TOGGLE	T	Ich Offset Enable
ICHOFFSET	QUANT	0	Ich Offset (V)
ICHFILTER	IQUANT	3	Ich Filter
VCHRANGE	IQUANT	2	Vch Range
VCHRANGEMODE	TOGGLE	F	Vch Auto Range
VCHOFFSETENABLE	TOGGLE	T	Vch Offset Enable
VCHOFFSET	QUANT	0	Vch Offset (V)
VCHFILTER	IQUANT	3	Vch Filter
ACHRANGE	IQUANT	2	Ach Range
ACHOFFSETENABLE	TOGGLE	F	Ach Offset Enable
ACHOFFSET	QUANT	0	Ach Offset (V)
ACHFILTER	IQUANT	3	Ach Filter
IERANGELOWERLIMIT	IQUANT	2	I/E Range Lower Limit
IERANGEMODE	TOGGLE	F	I/E AutoRange
IERANGE	IQUANT	11	I/E Range
POSFEEDENABLE	TOGGLE	F	Positive Feedback IR Comp
POSFEEDRESISTANCE	QUANT	0	Positive Feedback Resistance (ohm)
ACHSELECT	IQUANT	0	Ach Select
CABLEID	IQUANT	13	Cable ID
DCCALDATE	LABEL	7/31/2020	DC Calibration Date
ACCALDATE	LABEL	7/31/2020	AC Calibration Date
THERMOSELECT	IQUANT	1	Thermo Select
FRAMEWORKVERSION	QUANT	6.33	Framework Version
INSTRUMENTVERSION	LABEL	3.50	Instrument Version
COMPLIANCEVOLTAGE	IQUANT	0	Compliance Voltage
ZCURVE	TABLE
	Pt	Time	Freq	Zreal	Zimag	Zsig	Zmod	Zphz	Idc	Vdc	IERange
	#	s	Hz	ohm	ohm	V	ohm	°	A	V	#
	0	8	300046.9	10.99345	-0.9341331	1	11.03306	-4.856859	2.020387E-005	0.0001585	10
	1	11	238359.4	11.21806	-1.537967	1	11.32299	-7.806439	-2.909905E-005	0.0002416	10
	2	14	189328.1	11.50935	-2.170572	1	11.71224	-10.68009	7.239736E-005	0.0003424	10
	3	17	150421.9	11.82988	-2.817974	1	12.16088	-13.39862	6.728342E-005	0.0004575	10
	4	20	119484.4	12.19589	-3.528936	1	12.69618	-16.13804	-6.024323E-005	0.0007149	10
	5	22	94921.88	12.64475	-4.262105	1	13.34373	-18.62717	2.759239E-005	0.0006385	10
	6	25	75421.88	13.15713	-5.122353	1	14.11909	-21.27202	-2.25684E-005	0.0006468	10
	7	27	59859.37	13.74682	-6.054487	1	15.02105	-23.77005	6.27886E-006	0.000615	10
	8	30	47578.12	14.439	-7.095421	1	16.08819	-26.16981	2.406728E-005	0.0006283	10
	9	32	37828.12	15.2075	-8.252305	1	17.30227	-28.48634	-2.348744E-005	0.0007365	10
	10	35	30046.88	16.08713	-9.59136	1	18.72938	-30.80396	2.385248E-005	0.0006784	10
	11	37	23859.38	17.07915	-11.08931	1	20.36345	-32.99524	-2.44053E-005	0.0007098	10
	12	40	18984.38	18.15631	-12.84703	1	22.24181	-35.28243	2.171912E-005	0.0006253	10
	13	42	15046.87	19.37753	-14.88135	1	24.43242	-37.52317	-1.743629E-005	0.0007391	10
	14	44	11953.13	20.71488	-17.2494	1	26.95641	-39.78434	-1.041527E-005	0.0006698	10
	15	47	9515.62	22.1214	-20.1186	1	29.90174	-42.28536	1.778391E-005	0.0006839	10
	16	49	7546.875	23.72417	-23.59887	1	33.46255	-44.84829	7.273451E-006	0.0006333	10
	17	51	5928.309	25.57379	-27.92761	1	37.8678	-47.51914	-2.442023E-005	0.0006839	10
	18	53	4733.456	27.52043	-32.85933	1	42.86152	-50.05307	-1.264151E-006	4.609121E-005	9
	19	56	3796.875	29.72993	-38.79522	1	48.87676	-52.53599	-1.223497E-007	0.0002004	9
	20	58	2987.132	32.60665	-46.61668	1	56.88856	-55.02863	-6.12896E-006	0.0002903	9
	21	60	2390.625	35.88597	-55.46774	1	66.06416	-57.09834	5.304987E-007	0.0001165	9
	22	63	1884.191	40.24709	-66.9906	1	78.15094	-59.00309	-1.497535E-006	0.000196	9
	23	65	1516.544	45.21614	-79.56667	1	91.51696	-60.3913	5.437529E-006	-0.000109	9
	24	67	1193.986	52.26348	-96.1843	1	109.4664	-61.48177	-1.384236E-006	4.453573E-005	9
	25	70	946.5144	61.3454	-115.0804	1	130.41	-61.93947	-6.992869E-006	0.0003205	9
	26	72	751.7689	72.3292	-137.7376	1	155.5736	-62.29499	-8.331415E-006	0.0002624	9
	27	75	597.4265	87.09475	-163.5702	1	185.3124	-61.96644	-7.929982E-006	0.0002989	9
	28	77	477.4305	105.1436	-193.0585	1	219.8335	-61.42638	8.898427E-007	7.42435E-005	9
	29	79	376.6741	129.7695	-227.6629	1	262.0506	-60.31655	9.404451E-007	7.045919E-005	9
	30	81	298.2954	160.4808	-265.425	1	310.1685	-58.84208	9.631623E-007	7.658745E-005	9
	31	84	237.7717	197.8609	-304.1899	1	362.8781	-56.95793	1.030985E-006	7.052737E-005	9
	32	86	189.0121	241.9816	-345.8834	1	422.126	-55.02319	-2.119371E-007	0.0006576	8
	33	89	150.2404	297.6998	-381.9102	1	484.2319	-52.06351	-1.404226E-007	0.0006521	8
	34	91	119.1737	360.7722	-425.1886	1	557.6216	-49.68542	-2.682118E-007	0.0006531	8
	35	93	95.0169	431.2309	-459.3873	1	630.0768	-46.81077	-1.501963E-007	0.0006505	8
	36	96	75.60484	508.3185	-486.1528	1	703.3721	-43.72315	-1.607904E-007	0.0006502	8
	37	98	54.50582	627.3365	-521.7023	1	815.9193	-39.74741	-1.115832E-007	0.0006483	8
	38	101	45.95588	685.7394	-522.4722	1	862.0996	-37.30416	-8.484302E-008	0.0006571	8
	39	103	37.20238	760.9788	-531.4923	1	928.2094	-34.9317	-4.189896E-007	0.0006545	8
	40	106	30.04808	853.067	-560.27	1	1020.601	-33.29576	-3.574543E-007	0.0006603	8
	41	108	23.91582	938.1053	-570.0475	1	1097.723	-31.28531	2.068619E-007	0.0006401	8
	42	110	18.60119	1027.75	-577.0995	1	1178.692	-29.31497	-3.107062E-007	0.0006501	8
	43	113	15.02404	1105.312	-584.4135	1	1250.302	-27.86682	-3.180622E-007	0.0006392	8
	44	115	12.01923	1166.984	-585.0809	1	1305.439	-26.62742	-1.380766E-007	0.0006468	8
	45	118	9.450605	1233.1	-594.4417	1	1368.903	-25.73737	-8.592938E-008	0.000643	8
	46	120	7.512019	1289.883	-608.6462	1	1426.271	-25.26083	1.72686E-007	0.0006378	8
	47	123	5.978954	1355.508	-642.0203	1	1499.864	-25.34402	2.222643E-007	0.0006516	8
	48	126	4.734848	1421.613	-686.907	1	1578.868	-25.7893	1.195654E-008	0.0006575	8
	49	129	3.75601	1474.396	-750.6777	1	1654.497	-26.98257	1.236004E-008	0.0006483	8
	50	132	3.004808	1517.498	-836.3935	1	1732.731	-28.86206	-7.271381E-008	0.0006852	8
	51	136	2.372217	1571.385	-959.803	1	1841.323	-31.41662	5.41948E-008	0.0007253	8
	52	140	1.878005	1628.547	-1123.486	1	1978.481	-34.60062	9.796671E-009	0.0006309	8
	53	145	1.512097	1685.812	-1317.156	1	2139.36	-38.00118	4.727789E-008	0.0007344	8
	54	150	1.201923	1764.215	-1583.403	1	2370.574	-41.90833	6.480764E-008	0.0006218	8
	55	157	0.956633	1882.406	-1909.544	1	2681.383	-45.41004	-1.580179E-008	1.232836E-005	8
