EXPLAIN
TAG	EISPOT
TITLE	LABEL	Potentiostatic EIS	Test Identifier
DATE	LABEL	8/10/2020	Date
TIME	LABEL	0:38:27	Time
NOTES	NOTES	1	Notes...
	
PSTAT	PSTAT	REF3000-16137	Potentiostat
VDC	POTEN	0.00000E+000	T	DC Voltage (V)
FREQINIT	QUANT	3.00000E+005	Initial Freq. (Hz)
FREQFINAL	QUANT	1.00000E+000	Final Freq. (Hz)
PTSPERDEC	QUANT	1.00000E+001	Points/decade
VAC	QUANT	5.00000E+001	AC Voltage (mV rms)
AREA	QUANT	1.00000E+000	Sample Area (cm^2)
SPEED	SELECTOR	2	Optimize for:
ZGUESS	QUANT	1.00000E+003	Estimated Z (ohms)
EOC	QUANT	0	Open Circuit (V)
SEQUENCER	TOGGLE	TRUE	Run as Sequence
PSTATMODEL	IQUANT	5	Pstat Model
PSTATSECTION	LABEL	REF3000-16137	Pstat Section
PSTATSERIALNO	LABEL	16137	Pstat Serial Number
CTRLMODE	IQUANT	1	Control Mode
IESTAB	IQUANT	0	I/E Stability
CASPEED	IQUANT	1	Control Amp Speed
CONVENTION	IQUANT	1	Current Convention
ICHRANGE	IQUANT	2	Ich Range
ICHRANGEMODE	TOGGLE	F	Ich Auto Range
ICHOFFSETENABLE	TOGGLE	T	Ich Offset Enable
ICHOFFSET	QUANT	0	Ich Offset (V)
ICHFILTER	IQUANT	3	Ich Filter
VCHRANGE	IQUANT	2	Vch Range
VCHRANGEMODE	TOGGLE	F	Vch Auto Range
VCHOFFSETENABLE	TOGGLE	T	Vch Offset Enable
VCHOFFSET	QUANT	0	Vch Offset (V)
VCHFILTER	IQUANT	3	Vch Filter
ACHRANGE	IQUANT	2	Ach Range
ACHOFFSETENABLE	TOGGLE	F	Ach Offset Enable
ACHOFFSET	QUANT	0	Ach Offset (V)
ACHFILTER	IQUANT	3	Ach Filter
IERANGELOWERLIMIT	IQUANT	2	I/E Range Lower Limit
IERANGEMODE	TOGGLE	F	I/E AutoRange
IERANGE	IQUANT	11	I/E Range
POSFEEDENABLE	TOGGLE	F	Positive Feedback IR Comp
POSFEEDRESISTANCE	QUANT	0	Positive Feedback Resistance (ohm)
ACHSELECT	IQUANT	0	Ach Select
CABLEID	IQUANT	13	Cable ID
DCCALDATE	LABEL	7/31/2020	DC Calibration Date
ACCALDATE	LABEL	7/31/2020	AC Calibration Date
THERMOSELECT	IQUANT	1	Thermo Select
FRAMEWORKVERSION	QUANT	6.33	Framework Version
INSTRUMENTVERSION	LABEL	3.50	Instrument Version
COMPLIANCEVOLTAGE	IQUANT	0	Compliance Voltage
ZCURVE	TABLE
	Pt	Time	Freq	Zreal	Zimag	Zsig	Zmod	Zphz	Idc	Vdc	IERange
	#	s	Hz	ohm	ohm	V	ohm	°	A	V	#
	0	10	300046.9	7.477157	-0.5644434	1	7.498432	-4.317016	2.266045E-005	0.000295	10
	1	13	238359.4	7.65333	-1.123118	1	7.735299	-8.348507	-0.0001054	8.80357E-005	10
	2	16	189328.1	7.890352	-1.696342	1	8.070641	-12.1333	-7.850065E-005	0.0004749	10
	3	19	150421.9	8.154483	-2.269365	1	8.464373	-15.5517	2.027309E-005	0.0004647	10
	4	21	119484.4	8.480195	-2.888455	1	8.958621	-18.80945	1.732022E-005	0.0005513	10
	5	24	94921.88	8.854493	-3.53228	1	9.53305	-21.7483	-2.37924E-005	0.0006385	10
	6	26	75421.88	9.266159	-4.239903	1	10.19012	-24.58735	-2.391581E-005	0.0007155	10
	7	29	59859.37	9.75506	-5.039754	1	10.98	-27.32222	1.74936E-005	0.0006282	10
	8	31	47578.12	10.29743	-5.914782	1	11.87526	-29.8728	-2.42503E-005	0.0007289	10
	9	34	37828.12	10.91478	-6.899085	1	12.91239	-32.29643	-1.065649E-005	0.0006816	10
	10	36	30046.88	11.5988	-8.057077	1	14.12263	-34.78568	-2.477874E-005	0.0006665	10
	11	39	23859.38	12.35438	-9.367932	1	15.50448	-37.17189	5.250067E-006	0.0006428	10
	12	41	18984.38	13.17474	-10.85744	1	17.07213	-39.49229	-1.795663E-005	0.0007031	10
	13	44	15046.87	14.07458	-12.74207	1	18.98563	-42.15532	-2.424986E-005	0.000711	10
	14	46	11953.13	15.06368	-14.91226	1	21.19646	-44.71056	2.419702E-005	0.0006492	10
	15	48	9515.62	16.17198	-17.49546	1	23.82486	-47.25117	2.028643E-005	0.0006275	10
	16	51	7546.875	17.40768	-20.75579	1	27.0893	-50.01376	1.887368E-005	0.0006326	10
	17	53	5928.309	18.87886	-24.89194	1	31.24132	-52.82213	-1.277767E-005	0.0006931	10
	18	55	4733.456	20.50428	-29.58833	1	35.99854	-55.27861	-2.702557E-005	0.0007017	10
	19	58	3796.875	22.44781	-35.06796	1	41.63731	-57.37575	2.900355E-006	8.318131E-006	9
	20	60	2987.132	24.94758	-42.50525	1	49.28568	-59.59008	-6.839466E-006	0.0002356	9
	21	62	2390.625	27.85376	-50.83331	1	57.96428	-61.27977	8.320024E-006	-5.269638E-005	9
	22	64	1884.191	31.80943	-61.47239	1	69.21484	-62.6403	7.507124E-006	-5.851682E-005	9
	23	67	1516.544	36.31315	-73.16037	1	81.67671	-63.60249	-1.97859E-006	0.0001549	9
	24	69	1193.986	42.73479	-88.4437	1	98.227	-64.21079	9.033362E-006	-9.285381E-005	9
	25	72	946.5144	50.49669	-106.1625	1	117.5602	-64.56169	-1.233182E-006	0.0001581	9
	26	74	751.7689	60.59827	-126.5176	1	140.2813	-64.40693	4.439771E-006	-4.640907E-005	9
	27	76	597.4265	73.23423	-150.3103	1	167.2018	-64.02371	-4.130447E-006	0.0001286	9
	28	79	477.4305	88.68299	-177.5211	1	198.44	-63.45498	2.874601E-007	7.347123E-005	9
	29	81	376.6741	109.3045	-210.0876	1	236.8212	-62.51291	2.630695E-007	7.449533E-005	9
	30	83	298.2954	134.7704	-246.4922	1	280.9296	-61.33223	3.08397E-007	7.827134E-005	9
	31	85	237.7717	165.4006	-285.8196	1	330.2274	-59.94252	3.694047E-007	7.318889E-005	9
	32	88	189.0121	203.1981	-329.7789	1	387.3546	-58.3601	3.545883E-007	7.963382E-005	9
	33	90	150.2404	247.9902	-375.7382	1	450.1981	-56.57487	-7.930203E-007	0.0006573	8
	34	93	119.1737	303.2077	-426.4376	1	523.2437	-54.58623	-7.664431E-007	0.0006559	8
	35	95	95.0169	366.6899	-478.5583	1	602.8926	-52.53926	-7.487416E-007	0.0006449	8
	36	98	75.60484	441.4786	-531.3347	1	690.8111	-50.27728	-6.988798E-007	0.000649	8
	37	100	54.50582	567.2051	-605.8886	1	829.9534	-46.88868	-7.085782E-007	0.0006502	8
	38	103	45.95588	641.7728	-641.8932	1	907.6889	-45.00537	-8.174636E-007	0.0006596	8
	39	106	37.20238	742.4401	-683.4812	1	1009.14	-42.63229	-6.256912E-007	0.000652	8
	40	109	30.04808	853.1802	-725.217	1	1119.757	-40.36508	-6.889182E-007	0.0006593	8
	41	112	23.91582	973.839	-746.7867	1	1227.213	-37.48273	-5.916211E-007	0.0006544	8
	42	114	18.60119	1118.984	-773.4213	1	1360.26	-34.65152	-4.676858E-007	0.0006511	8
	43	116	15.02404	1239.872	-782.8337	1	1466.325	-32.26762	-8.297401E-007	0.0006725	8
	44	118	12.01923	1364.719	-778.9673	1	1571.384	-29.71727	-2.523127E-007	0.0006528	8
	45	121	9.450605	1488.297	-770.3696	1	1675.857	-27.36691	-6.188945E-007	0.0006487	8
	46	123	7.512019	1579.746	-748.0799	1	1747.919	-25.33963	-1.493651E-007	0.0006567	8
	47	126	5.978954	1671.451	-740.8028	1	1828.261	-23.90337	-3.561352E-007	0.0006539	8
	48	129	4.734848	1764.45	-749.0078	1	1916.846	-23.00118	-7.175163E-007	0.000646	8
	49	132	3.75601	1831.849	-767.4795	1	1986.125	-22.73195	-5.00369E-007	0.0006604	8
	50	136	3.004808	1909.865	-811.1769	1	2074.992	-23.01239	-6.48638E-007	0.0006838	8
	51	140	2.372217	1989.501	-880.8527	1	2175.78	-23.88139	-4.281181E-007	0.0006618	8
	52	144	1.878005	2051.364	-975.15	1	2271.346	-25.42485	-4.874469E-007	0.0006951	8
	53	148	1.512097	2112.922	-1092.837	1	2378.808	-27.34872	-4.585389E-007	0.0007501	8
	54	154	1.201923	2184.254	-1263.874	1	2523.557	-30.05494	-4.404063E-007	0.0006428	8
	55	160	0.956633	2319.512	-1473.167	1	2747.792	-32.42042	-6.460942E-007	9.270365E-006	8
