EXPLAIN
TAG	EISPOT
TITLE	LABEL	Potentiostatic EIS	Test Identifier
DATE	LABEL	8/10/2020	Date
TIME	LABEL	1:06:11	Time
NOTES	NOTES	1	Notes...
	
PSTAT	PSTAT	REF3000-16137	Potentiostat
VDC	POTEN	0.00000E+000	T	DC Voltage (V)
FREQINIT	QUANT	3.00000E+005	Initial Freq. (Hz)
FREQFINAL	QUANT	1.00000E+000	Final Freq. (Hz)
PTSPERDEC	QUANT	1.00000E+001	Points/decade
VAC	QUANT	5.00000E+001	AC Voltage (mV rms)
AREA	QUANT	1.00000E+000	Sample Area (cm^2)
SPEED	SELECTOR	2	Optimize for:
ZGUESS	QUANT	1.00000E+003	Estimated Z (ohms)
EOC	QUANT	0	Open Circuit (V)
SEQUENCER	TOGGLE	TRUE	Run as Sequence
PSTATMODEL	IQUANT	5	Pstat Model
PSTATSECTION	LABEL	REF3000-16137	Pstat Section
PSTATSERIALNO	LABEL	16137	Pstat Serial Number
CTRLMODE	IQUANT	1	Control Mode
IESTAB	IQUANT	0	I/E Stability
CASPEED	IQUANT	1	Control Amp Speed
CONVENTION	IQUANT	1	Current Convention
ICHRANGE	IQUANT	2	Ich Range
ICHRANGEMODE	TOGGLE	F	Ich Auto Range
ICHOFFSETENABLE	TOGGLE	T	Ich Offset Enable
ICHOFFSET	QUANT	0	Ich Offset (V)
ICHFILTER	IQUANT	3	Ich Filter
VCHRANGE	IQUANT	2	Vch Range
VCHRANGEMODE	TOGGLE	F	Vch Auto Range
VCHOFFSETENABLE	TOGGLE	T	Vch Offset Enable
VCHOFFSET	QUANT	0	Vch Offset (V)
VCHFILTER	IQUANT	3	Vch Filter
ACHRANGE	IQUANT	2	Ach Range
ACHOFFSETENABLE	TOGGLE	F	Ach Offset Enable
ACHOFFSET	QUANT	0	Ach Offset (V)
ACHFILTER	IQUANT	3	Ach Filter
IERANGELOWERLIMIT	IQUANT	2	I/E Range Lower Limit
IERANGEMODE	TOGGLE	F	I/E AutoRange
IERANGE	IQUANT	11	I/E Range
POSFEEDENABLE	TOGGLE	F	Positive Feedback IR Comp
POSFEEDRESISTANCE	QUANT	0	Positive Feedback Resistance (ohm)
ACHSELECT	IQUANT	0	Ach Select
CABLEID	IQUANT	13	Cable ID
DCCALDATE	LABEL	7/31/2020	DC Calibration Date
ACCALDATE	LABEL	7/31/2020	AC Calibration Date
THERMOSELECT	IQUANT	1	Thermo Select
FRAMEWORKVERSION	QUANT	6.33	Framework Version
INSTRUMENTVERSION	LABEL	3.50	Instrument Version
COMPLIANCEVOLTAGE	IQUANT	0	Compliance Voltage
ZCURVE	TABLE
	Pt	Time	Freq	Zreal	Zimag	Zsig	Zmod	Zphz	Idc	Vdc	IERange
	#	s	Hz	ohm	ohm	V	ohm	°	A	V	#
	0	7	300046.9	39.67291	-1.690122	1	39.70889	-2.439406	-2.523941E-005	-0.0004348	9
	1	10	238359.4	40.12433	-2.639593	1	40.21106	-3.763799	-4.622063E-006	9.816362E-006	9
	2	13	189328.1	40.77136	-3.398154	1	40.91273	-4.764396	6.367386E-005	-0.0022804	9
	3	16	150421.9	41.37252	-4.458939	1	41.61211	-6.15133	-3.936007E-005	0.0007929	9
	4	19	119484.4	42.03016	-5.462508	1	42.38364	-7.405019	-5.456437E-005	0.0015506	9
	5	21	94921.88	42.90267	-6.373599	1	43.37352	-8.450029	2.041233E-005	-0.0003373	9
	6	24	75421.88	43.806	-7.619352	1	44.4637	-9.86697	1.996486E-005	-0.0003241	9
	7	26	59859.37	44.84249	-9.001178	1	45.73697	-11.35007	1.950725E-005	-0.0002723	9
	8	29	47578.12	46.02339	-10.49053	1	47.20385	-12.84057	-1.378437E-005	0.000613	9
	9	31	37828.12	47.41787	-12.18016	1	48.95723	-14.40603	1.863369E-005	-0.0003039	9
	10	34	30046.88	49.02418	-14.07462	1	51.00456	-16.01853	-1.421769E-005	0.0003734	9
	11	36	23859.38	50.92836	-16.22239	1	53.44964	-17.66842	-2.751113E-006	0.0004274	9
	12	39	18984.38	53.09863	-18.58955	1	56.25865	-19.29488	1.661725E-005	-0.0001605	9
	13	41	15046.87	55.62545	-21.1961	1	59.52701	-20.85936	-3.51581E-006	0.0004616	9
	14	43	11953.13	58.48507	-24.01097	1	63.22207	-22.32054	-1.532867E-005	0.0004299	9
	15	46	9515.62	61.72204	-26.98166	1	67.36186	-23.61245	2.599947E-006	0.0002789	9
	16	48	7546.875	65.46075	-30.31811	1	72.14082	-24.85119	4.354332E-006	0.000333	9
	17	50	5928.309	69.82996	-34.05244	1	77.69035	-25.99608	-3.181146E-006	-9.01724E-005	9
	18	53	4733.456	74.33773	-37.75874	1	83.37758	-26.92761	-1.186208E-005	0.0006381	9
	19	55	3796.875	79.30723	-41.63928	1	89.57381	-27.70116	8.726243E-006	-0.0003919	9
	20	57	2987.132	85.35693	-46.5055	1	97.2037	-28.58312	4.169897E-006	0.0002905	9
	21	59	2390.625	91.46092	-50.62375	1	104.5364	-28.96459	-2.616664E-006	0.0005397	9
	22	62	1884.191	99.2135	-56.59093	1	114.2184	-29.70024	-2.702438E-006	0.0004876	9
	23	64	1516.544	107.0926	-61.76649	1	123.6282	-29.97453	2.029226E-005	-0.0003873	9
	24	66	1193.986	117.1662	-68.06909	1	135.5039	-30.15496	1.130592E-005	5.110245E-005	9
	25	69	946.5144	128.1264	-73.51726	1	147.7199	-29.84663	-1.292387E-005	0.0002305	9
	26	71	751.7689	140.4609	-78.51131	1	160.914	-29.20321	1.074229E-005	5.759086E-005	9
	27	74	597.4265	154.1873	-82.89938	1	175.06	-28.26487	2.005493E-005	-0.0003844	9
	28	76	477.4305	167.8479	-85.46609	1	188.3543	-26.98464	1.425648E-006	7.697802E-005	9
	29	78	376.6741	181.5342	-86.11301	1	200.9232	-25.3779	1.48797E-006	7.483399E-005	9
	30	80	298.2954	194.2657	-86.03477	1	212.4644	-23.8872	1.481199E-006	7.593632E-005	9
	31	83	237.7717	204.7535	-85.29219	1	221.8079	-22.61468	1.414328E-006	6.912668E-005	9
	32	85	189.0121	213.4084	-84.92296	1	229.6847	-21.69941	1.413226E-006	7.552281E-005	9
	33	88	150.2404	221.2293	-86.44813	1	237.5199	-21.3437	1.395943E-006	6.93021E-005	9
	34	90	119.1737	229.7901	-90.85128	1	247.098	-21.57218	1.504018E-006	7.627467E-005	9
	35	92	95.0169	237.0339	-97.5096	1	256.3069	-22.361	1.455042E-006	6.515354E-005	9
	36	95	75.60484	243.9881	-107.4581	1	266.6035	-23.76982	1.454256E-006	6.743865E-005	9
	37	97	54.50582	245.7114	-126.79	1	276.4956	-27.29426	1.428017E-006	6.362855E-005	9
	38	100	45.95588	254.7993	-142.6066	1	291.992	-29.23496	1.551302E-006	7.972812E-005	9
	39	102	37.20238	263.7233	-165.9156	1	311.5734	-32.17513	1.393294E-006	8.204614E-005	9
	40	105	30.04808	267.1898	-194.1417	1	330.2747	-36.00238	1.361483E-006	7.967301E-005	9
	41	107	23.91582	277.2133	-232.7733	1	361.9815	-40.01986	1.316133E-006	7.411866E-005	9
	42	110	18.60119	293.1656	-285.1292	1	408.9556	-44.20382	-1.022094E-007	0.000667	8
	43	112	15.02404	306.3055	-340.2313	1	457.7995	-48.00373	1.097782E-007	0.0006392	8
	44	114	12.01923	329.8676	-409.8429	1	526.1025	-51.17068	7.976809E-008	0.0006459	8
	45	117	9.450605	357.2839	-500.4849	1	614.9284	-54.47789	2.975276E-008	0.0006545	8
	46	119	7.512019	389.9543	-603.996	1	718.9406	-57.15275	1.11296E-007	0.000653	8
	47	122	5.978954	438.3123	-726.6183	1	848.5823	-58.90069	2.397366E-007	0.0006526	8
	48	125	4.734848	494.0903	-873.1916	1	1003.289	-60.4969	2.636523E-007	0.000631	8
	49	128	3.75601	561.8461	-1044.859	1	1186.34	-61.73201	3.119899E-007	0.0006528	8
	50	131	3.004808	641.1644	-1235.715	1	1392.151	-62.57697	3.277256E-007	0.0006849	8
	51	135	2.372217	734.7138	-1475.431	1	1648.242	-63.52828	3.21733E-007	0.0005743	8
	52	139	1.878005	842.6669	-1754.361	1	1946.245	-64.34377	3.480889E-007	0.0006522	8
	53	144	1.512097	957.565	-2062.517	1	2273.963	-65.09597	3.218073E-007	0.0005445	8
	54	150	1.201923	1079.094	-2460.594	1	2686.813	-66.32014	3.270563E-007	0.0006716	8
	55	156	0.956633	1218.884	-2941.901	1	3184.409	-67.49486	3.237566E-007	9.391342E-006	8
