EXPLAIN
TAG	EISPOT
TITLE	LABEL	Potentiostatic EIS	Test Identifier
DATE	LABEL	8/10/2020	Date
TIME	LABEL	1:03:25	Time
NOTES	NOTES	1	Notes...
	
PSTAT	PSTAT	REF3000-16137	Potentiostat
VDC	POTEN	0.00000E+000	T	DC Voltage (V)
FREQINIT	QUANT	3.00000E+005	Initial Freq. (Hz)
FREQFINAL	QUANT	1.00000E+000	Final Freq. (Hz)
PTSPERDEC	QUANT	1.00000E+001	Points/decade
VAC	QUANT	5.00000E+001	AC Voltage (mV rms)
AREA	QUANT	1.00000E+000	Sample Area (cm^2)
SPEED	SELECTOR	2	Optimize for:
ZGUESS	QUANT	1.00000E+003	Estimated Z (ohms)
EOC	QUANT	0	Open Circuit (V)
SEQUENCER	TOGGLE	TRUE	Run as Sequence
PSTATMODEL	IQUANT	5	Pstat Model
PSTATSECTION	LABEL	REF3000-16137	Pstat Section
PSTATSERIALNO	LABEL	16137	Pstat Serial Number
CTRLMODE	IQUANT	1	Control Mode
IESTAB	IQUANT	0	I/E Stability
CASPEED	IQUANT	1	Control Amp Speed
CONVENTION	IQUANT	1	Current Convention
ICHRANGE	IQUANT	2	Ich Range
ICHRANGEMODE	TOGGLE	F	Ich Auto Range
ICHOFFSETENABLE	TOGGLE	T	Ich Offset Enable
ICHOFFSET	QUANT	0	Ich Offset (V)
ICHFILTER	IQUANT	3	Ich Filter
VCHRANGE	IQUANT	2	Vch Range
VCHRANGEMODE	TOGGLE	F	Vch Auto Range
VCHOFFSETENABLE	TOGGLE	T	Vch Offset Enable
VCHOFFSET	QUANT	0	Vch Offset (V)
VCHFILTER	IQUANT	3	Vch Filter
ACHRANGE	IQUANT	2	Ach Range
ACHOFFSETENABLE	TOGGLE	F	Ach Offset Enable
ACHOFFSET	QUANT	0	Ach Offset (V)
ACHFILTER	IQUANT	3	Ach Filter
IERANGELOWERLIMIT	IQUANT	2	I/E Range Lower Limit
IERANGEMODE	TOGGLE	F	I/E AutoRange
IERANGE	IQUANT	11	I/E Range
POSFEEDENABLE	TOGGLE	F	Positive Feedback IR Comp
POSFEEDRESISTANCE	QUANT	0	Positive Feedback Resistance (ohm)
ACHSELECT	IQUANT	0	Ach Select
CABLEID	IQUANT	13	Cable ID
DCCALDATE	LABEL	7/31/2020	DC Calibration Date
ACCALDATE	LABEL	7/31/2020	AC Calibration Date
THERMOSELECT	IQUANT	1	Thermo Select
FRAMEWORKVERSION	QUANT	6.33	Framework Version
INSTRUMENTVERSION	LABEL	3.50	Instrument Version
COMPLIANCEVOLTAGE	IQUANT	0	Compliance Voltage
ZCURVE	TABLE
	Pt	Time	Freq	Zreal	Zimag	Zsig	Zmod	Zphz	Idc	Vdc	IERange
	#	s	Hz	ohm	ohm	V	ohm	°	A	V	#
	0	7	300046.9	31.70634	-2.753941	1	31.82571	-4.964124	-0.0001198	-0.0005621	11
	1	11	238359.4	32.27457	-3.061036	1	32.41941	-5.417931	2.937548E-005	0.0003914	10
	2	14	189328.1	32.76057	-3.81541	1	32.98199	-6.642941	-9.993581E-006	0.0007428	10
	3	17	150421.9	33.36974	-4.650136	1	33.69218	-7.933188	1.190631E-006	0.0004207	10
	4	20	119484.4	33.9958	-5.56659	1	34.44854	-9.299283	5.149421E-005	0.0007982	10
	5	22	94921.88	34.74273	-6.579587	1	35.36027	-10.72369	2.498103E-005	0.0005966	10
	6	25	75421.88	35.60951	-7.442947	1	36.37904	-11.80575	1.29375E-005	-0.000413	9
	7	27	59859.37	36.54963	-8.825409	1	37.60004	-13.575	1.612189E-005	-0.000461	9
	8	30	47578.12	37.64891	-10.34299	1	39.04379	-15.36146	-2.605998E-006	-7.289521E-005	9
	9	32	37828.12	38.91523	-12.07009	1	40.74411	-17.23199	1.836304E-005	-0.0003299	9
	10	35	30046.88	40.39733	-13.97043	1	42.74479	-19.0767	2.93332E-006	-0.0002112	9
	11	37	23859.38	42.1088	-16.14061	1	45.09623	-20.97219	7.799962E-006	-0.0003336	9
	12	40	18984.38	44.11204	-18.60751	1	47.876	-22.87117	-2.357174E-006	0.0003838	9
	13	42	15046.87	46.39561	-21.33373	1	51.06545	-24.69402	-1.330089E-005	0.0005318	9
	14	44	11953.13	49.04065	-24.41741	1	54.78316	-26.46878	-2.822512E-006	-3.386099E-005	9
	15	47	9515.62	52.00061	-27.78808	1	58.95966	-28.11915	1.831015E-005	-0.0002301	9
	16	49	7546.875	55.38817	-31.6235	1	63.78006	-29.72391	2.525972E-006	-0.0001512	9
	17	51	5928.309	59.39196	-36.09733	1	69.50124	-31.29045	4.407378E-006	0.0002335	9
	18	53	4733.456	63.57755	-40.78466	1	75.53472	-32.67995	-6.599074E-006	0.0005124	9
	19	56	3796.875	68.19164	-46.12262	1	82.32494	-34.07315	2.06584E-005	-0.0003994	9
	20	58	2987.132	73.84266	-52.67733	1	90.70634	-35.50302	1.802705E-005	-0.0004118	9
	21	60	2390.625	79.89818	-59.69917	1	99.7382	-36.76674	-6.12685E-007	0.0004313	9
	22	63	1884.191	87.54137	-68.2853	1	111.0242	-37.95547	-1.350672E-006	0.000402	9
	23	65	1516.544	95.8006	-76.55194	1	122.6293	-38.6275	2.792665E-006	-0.0002219	9
	24	67	1193.986	106.8094	-87.18175	1	137.8728	-39.22259	-1.163913E-005	0.000244	9
	25	70	946.5144	120.0541	-97.9023	1	154.9124	-39.19672	-1.452468E-005	0.0004088	9
	26	72	751.7689	135.7726	-108.4091	1	173.7433	-38.60599	-1.168192E-005	0.0002429	9
	27	74	597.4265	154.1689	-117.6649	1	193.941	-37.35162	1.270811E-005	-0.0004292	9
	28	77	477.4305	174.6658	-126.6259	1	215.7366	-35.94065	1.376955E-006	7.387893E-005	9
	29	79	376.6741	197.7924	-132.2253	1	237.9189	-33.76295	1.40421E-006	7.360106E-005	9
	30	81	298.2954	222.4772	-137.5144	1	261.546	-31.72045	1.439617E-006	7.216881E-005	9
	31	84	237.7717	243.2912	-135.9711	1	278.709	-29.20006	1.456683E-006	7.494134E-005	9
	32	86	189.0121	263.4743	-134.592	1	295.8609	-27.05955	1.426416E-006	7.414624E-005	9
	33	89	150.2404	280.1933	-132.1109	1	309.7766	-25.24384	1.460544E-006	7.35858E-005	9
	34	91	119.1737	292.5496	-129.5874	1	319.9659	-23.89136	1.349186E-006	7.588405E-005	9
	35	93	95.0169	303.5885	-130.6316	1	330.5005	-23.28181	1.474035E-006	7.167674E-005	9
	36	96	75.60484	312.7355	-134.9073	1	340.5928	-23.33432	1.409946E-006	7.161091E-005	9
	37	99	54.50582	319.5285	-147.1736	1	351.7933	-24.73062	1.397444E-006	6.283793E-005	9
	38	101	45.95588	324.4461	-158.3302	1	361.0176	-26.01245	4.160842E-007	0.0006546	8
	39	103	37.20238	327.6196	-176.3057	1	372.0461	-28.28654	3.101688E-007	0.0006446	8
	40	106	30.04808	331.2967	-200.7705	1	387.3839	-31.21646	3.632671E-007	0.0006453	8
	41	108	23.91582	349.5066	-236.674	1	422.1013	-34.10452	5.128816E-007	0.0006428	8
	42	111	18.60119	362.4818	-284.9997	1	461.1051	-38.17604	5.80114E-008	0.0006638	8
	43	113	15.02404	379.9942	-336.6703	1	507.6835	-41.54056	8.341859E-009	0.0006539	8
	44	115	12.01923	402.7494	-401.1728	1	568.4599	-44.88764	3.664508E-007	0.0006477	8
	45	118	9.450605	431.1729	-484.4789	1	648.5598	-48.33179	2.01829E-007	0.0006677	8
	46	120	7.512019	454.1339	-579.6237	1	736.3431	-51.92138	4.434114E-007	0.0006713	8
	47	123	5.978954	497.6211	-690.6039	1	851.2112	-54.22501	3.972744E-007	0.0006576	8
	48	126	4.734848	556.7127	-824.8232	1	995.119	-55.9827	4.281748E-007	0.0007367	8
	49	129	3.75601	630.4988	-979.852	1	1165.178	-57.24021	2.80524E-007	0.0006373	8
	50	133	3.004808	710.5732	-1154.506	1	1355.655	-58.38862	3.302099E-007	0.0006757	8
	51	136	2.372217	796.5663	-1372.723	1	1587.1	-59.87419	3.92194E-007	0.0007361	8
	52	141	1.878005	881.4723	-1634.45	1	1856.992	-61.66165	3.436282E-007	0.0006346	8
	53	145	1.512097	975.753	-1922.839	1	2156.248	-63.09428	3.798237E-007	0.0007171	8
	54	151	1.201923	1087.719	-2306.118	1	2549.767	-64.74831	3.5489E-007	0.0006196	8
	55	157	0.956633	1210.879	-2773.145	1	3025.981	-66.41177	3.296595E-007	7.373505E-006	8
