EXPLAIN
TAG	EISPOT
TITLE	LABEL	Potentiostatic EIS	Test Identifier
DATE	LABEL	8/10/2020	Date
TIME	LABEL	0:52:20	Time
NOTES	NOTES	1	Notes...
	
PSTAT	PSTAT	REF3000-16137	Potentiostat
VDC	POTEN	0.00000E+000	T	DC Voltage (V)
FREQINIT	QUANT	3.00000E+005	Initial Freq. (Hz)
FREQFINAL	QUANT	1.00000E+000	Final Freq. (Hz)
PTSPERDEC	QUANT	1.00000E+001	Points/decade
VAC	QUANT	5.00000E+001	AC Voltage (mV rms)
AREA	QUANT	1.00000E+000	Sample Area (cm^2)
SPEED	SELECTOR	2	Optimize for:
ZGUESS	QUANT	1.00000E+003	Estimated Z (ohms)
EOC	QUANT	0	Open Circuit (V)
SEQUENCER	TOGGLE	TRUE	Run as Sequence
PSTATMODEL	IQUANT	5	Pstat Model
PSTATSECTION	LABEL	REF3000-16137	Pstat Section
PSTATSERIALNO	LABEL	16137	Pstat Serial Number
CTRLMODE	IQUANT	1	Control Mode
IESTAB	IQUANT	0	I/E Stability
CASPEED	IQUANT	1	Control Amp Speed
CONVENTION	IQUANT	1	Current Convention
ICHRANGE	IQUANT	2	Ich Range
ICHRANGEMODE	TOGGLE	F	Ich Auto Range
ICHOFFSETENABLE	TOGGLE	T	Ich Offset Enable
ICHOFFSET	QUANT	0	Ich Offset (V)
ICHFILTER	IQUANT	3	Ich Filter
VCHRANGE	IQUANT	2	Vch Range
VCHRANGEMODE	TOGGLE	F	Vch Auto Range
VCHOFFSETENABLE	TOGGLE	T	Vch Offset Enable
VCHOFFSET	QUANT	0	Vch Offset (V)
VCHFILTER	IQUANT	3	Vch Filter
ACHRANGE	IQUANT	2	Ach Range
ACHOFFSETENABLE	TOGGLE	F	Ach Offset Enable
ACHOFFSET	QUANT	0	Ach Offset (V)
ACHFILTER	IQUANT	3	Ach Filter
IERANGELOWERLIMIT	IQUANT	2	I/E Range Lower Limit
IERANGEMODE	TOGGLE	F	I/E AutoRange
IERANGE	IQUANT	11	I/E Range
POSFEEDENABLE	TOGGLE	F	Positive Feedback IR Comp
POSFEEDRESISTANCE	QUANT	0	Positive Feedback Resistance (ohm)
ACHSELECT	IQUANT	0	Ach Select
CABLEID	IQUANT	13	Cable ID
DCCALDATE	LABEL	7/31/2020	DC Calibration Date
ACCALDATE	LABEL	7/31/2020	AC Calibration Date
THERMOSELECT	IQUANT	1	Thermo Select
FRAMEWORKVERSION	QUANT	6.33	Framework Version
INSTRUMENTVERSION	LABEL	3.50	Instrument Version
COMPLIANCEVOLTAGE	IQUANT	0	Compliance Voltage
ZCURVE	TABLE
	Pt	Time	Freq	Zreal	Zimag	Zsig	Zmod	Zphz	Idc	Vdc	IERange
	#	s	Hz	ohm	ohm	V	ohm	°	A	V	#
	0	8	300046.9	14.92134	-1.275051	1	14.97572	-4.884145	1.253111E-005	0.000238	10
	1	11	238359.4	15.18375	-1.928971	1	15.30579	-7.240173	-1.834055E-005	0.0004081	10
	2	14	189328.1	15.52685	-2.607727	1	15.74431	-9.53382	8.999882E-005	0.0002187	10
	3	17	150421.9	15.91074	-3.300565	1	16.24947	-11.71937	5.096426E-005	0.0006534	10
	4	19	119484.4	16.34779	-4.086267	1	16.85075	-14.034	7.081573E-005	0.0003417	10
	5	22	94921.88	16.83744	-4.908158	1	17.53823	-16.25154	6.747592E-006	0.0005966	10
	6	24	75421.88	17.43254	-5.86469	1	18.39261	-18.59407	-2.970372E-005	0.0006513	10
	7	27	59859.37	18.11514	-6.910945	1	19.38864	-20.88191	2.183663E-005	0.0006918	10
	8	29	47578.12	18.91156	-8.11144	1	20.57772	-23.21519	-2.953574E-005	0.0006727	10
	9	32	37828.12	19.81834	-9.425119	1	21.94537	-25.43463	-1.822529E-005	0.0007449	10
	10	35	30046.88	20.87664	-10.96078	1	23.57907	-27.70064	1.622699E-005	0.0006375	10
	11	37	23859.38	22.06209	-12.69156	1	25.45214	-29.91034	-2.62507E-005	0.0006651	10
	12	39	18984.38	23.38742	-14.60151	1	27.57128	-31.97784	-2.568637E-005	0.0007225	10
	13	42	15046.87	24.88706	-16.92755	1	30.09831	-34.22255	-2.444476E-005	0.0006801	10
	14	44	11953.13	26.54539	-19.54385	1	32.96392	-36.36208	-1.557056E-005	0.000673	10
	15	46	9515.62	28.3418	-22.50685	1	36.19138	-38.45386	-1.855781E-005	0.0007464	10
	16	49	7546.875	30.33249	-26.13489	1	40.03864	-40.74864	7.939237E-006	1.450582E-005	9
	17	51	5928.309	32.64293	-30.6815	1	44.79861	-43.22588	1.957314E-006	-5.633701E-005	9
	18	53	4733.456	35.04795	-35.81296	1	50.10915	-45.61853	-1.028844E-006	0.0002462	9
	19	56	3796.875	37.72277	-41.8796	1	56.36407	-47.98926	1.37424E-005	-0.0002085	9
	20	58	2987.132	41.10536	-49.85642	1	64.61666	-50.49528	1.301425E-005	-0.0001997	9
	21	60	2390.625	44.8468	-58.97319	1	74.08828	-52.74843	1.154336E-005	-0.0002434	9
	22	62	1884.191	49.8526	-70.58721	1	86.41664	-54.76814	-8.331823E-006	0.0003696	9
	23	65	1516.544	55.58337	-83.28902	1	100.1328	-56.28263	2.042099E-006	-6.406338E-005	9
	24	67	1193.986	63.51117	-100.0998	1	118.548	-57.60575	-8.600185E-006	0.000368	9
	25	70	946.5144	73.52192	-119.3096	1	140.1437	-58.35746	-3.473624E-006	0.0003354	9
	26	72	751.7689	86.37977	-142.0556	1	166.2566	-58.69746	-8.847259E-006	0.0003799	9
	27	74	597.4265	103.3024	-167.2662	1	196.5944	-58.30082	1.80876E-006	-6.327457E-005	9
	28	77	477.4305	124.324	-195.7933	1	231.9299	-57.58545	1.135743E-006	8.329739E-005	9
	29	79	376.6741	152.8905	-227.6561	1	274.2314	-56.11526	1.190685E-006	7.762913E-005	9
	30	81	298.2954	188.0503	-260.8752	1	321.5879	-54.21428	1.21441E-006	7.878338E-005	9
	31	84	237.7717	229.848	-292.2046	1	371.771	-51.81142	1.193662E-006	7.155433E-005	9
	32	86	189.0121	278.1222	-321.9331	1	425.4326	-49.17583	1.297053E-007	0.0006561	8
	33	88	150.2404	334.2262	-354.8273	1	487.4521	-46.7125	8.453264E-008	0.0006483	8
	34	91	119.1737	397.35	-381.2934	1	550.7011	-43.81865	1.605528E-007	0.0006469	8
	35	93	95.0169	462.3853	-397.3646	1	609.671	-40.6751	3.821432E-008	0.0006509	8
	36	96	75.60484	530.6003	-412.4606	1	672.0569	-37.8596	1.582932E-007	0.0006482	8
	37	98	54.50582	625.4976	-422.2873	1	754.7012	-34.02416	3.63052E-008	0.00065	8
	38	101	45.95588	670.9123	-422.4978	1	792.8605	-32.20011	2.760342E-007	0.0006558	8
	39	103	37.20238	724.653	-424.2366	1	839.7015	-30.34616	3.141154E-007	0.0006551	8
	40	105	30.04808	778.5817	-429.5834	1	889.2308	-28.88777	-1.295631E-007	0.0006547	8
	41	108	23.91582	834.2814	-439.415	1	942.9269	-27.77572	-2.461497E-007	0.0006476	8
	42	110	18.60119	896.7443	-457.9891	1	1006.928	-27.05451	-1.16582E-007	0.0006495	8
	43	113	15.02404	945.7432	-475.7227	1	1058.651	-26.70306	4.325277E-007	0.0007116	8
	44	115	12.01923	991.751	-499.2971	1	1110.346	-26.72297	6.255471E-007	0.000656	8
	45	117	9.450605	1050.107	-539.9072	1	1180.773	-27.20974	-2.859424E-007	0.0006477	8
	46	120	7.512019	1094.886	-583.2375	1	1240.541	-28.04389	-3.687808E-007	0.0006919	8
	47	123	5.978954	1154.35	-640.2033	1	1319.994	-29.01278	-5.461062E-008	0.0006584	8
	48	126	4.734848	1217.984	-712.4875	1	1411.071	-30.32648	2.076572E-007	0.0006558	8
	49	129	3.75601	1275.27	-805.0717	1	1508.129	-32.26402	1.910356E-007	0.0006575	8
	50	132	3.004808	1321.741	-916.7607	1	1608.555	-34.74521	2.429667E-007	0.0006234	8
	51	136	2.372217	1367.262	-1071.285	1	1736.968	-38.07962	1.892786E-007	0.0006016	8
	52	140	1.878005	1424.041	-1267.891	1	1906.683	-41.68018	2.28228E-007	0.0006619	8
	53	145	1.512097	1493.659	-1497.767	1	2115.26	-45.07867	2.201661E-007	0.0005641	8
	54	150	1.201923	1568.834	-1811.839	1	2396.665	-49.11138	2.582781E-007	0.0006839	8
	55	157	0.956633	1674.978	-2197.303	1	2762.914	-52.68215	1.980368E-007	1.949683E-005	8
