EXPLAIN
TAG	EISPOT
TITLE	LABEL	Potentiostatic EIS	Test Identifier
DATE	LABEL	8/10/2020	Date
TIME	LABEL	0:32:49	Time
NOTES	NOTES	1	Notes...
	
PSTAT	PSTAT	REF3000-16137	Potentiostat
VDC	POTEN	0.00000E+000	T	DC Voltage (V)
FREQINIT	QUANT	3.00000E+005	Initial Freq. (Hz)
FREQFINAL	QUANT	1.00000E+000	Final Freq. (Hz)
PTSPERDEC	QUANT	1.00000E+001	Points/decade
VAC	QUANT	5.00000E+001	AC Voltage (mV rms)
AREA	QUANT	1.00000E+000	Sample Area (cm^2)
SPEED	SELECTOR	2	Optimize for:
ZGUESS	QUANT	1.00000E+003	Estimated Z (ohms)
EOC	QUANT	0	Open Circuit (V)
SEQUENCER	TOGGLE	TRUE	Run as Sequence
PSTATMODEL	IQUANT	5	Pstat Model
PSTATSECTION	LABEL	REF3000-16137	Pstat Section
PSTATSERIALNO	LABEL	16137	Pstat Serial Number
CTRLMODE	IQUANT	1	Control Mode
IESTAB	IQUANT	0	I/E Stability
CASPEED	IQUANT	1	Control Amp Speed
CONVENTION	IQUANT	1	Current Convention
ICHRANGE	IQUANT	2	Ich Range
ICHRANGEMODE	TOGGLE	F	Ich Auto Range
ICHOFFSETENABLE	TOGGLE	T	Ich Offset Enable
ICHOFFSET	QUANT	0	Ich Offset (V)
ICHFILTER	IQUANT	3	Ich Filter
VCHRANGE	IQUANT	2	Vch Range
VCHRANGEMODE	TOGGLE	F	Vch Auto Range
VCHOFFSETENABLE	TOGGLE	T	Vch Offset Enable
VCHOFFSET	QUANT	0	Vch Offset (V)
VCHFILTER	IQUANT	3	Vch Filter
ACHRANGE	IQUANT	2	Ach Range
ACHOFFSETENABLE	TOGGLE	F	Ach Offset Enable
ACHOFFSET	QUANT	0	Ach Offset (V)
ACHFILTER	IQUANT	3	Ach Filter
IERANGELOWERLIMIT	IQUANT	2	I/E Range Lower Limit
IERANGEMODE	TOGGLE	F	I/E AutoRange
IERANGE	IQUANT	11	I/E Range
POSFEEDENABLE	TOGGLE	F	Positive Feedback IR Comp
POSFEEDRESISTANCE	QUANT	0	Positive Feedback Resistance (ohm)
ACHSELECT	IQUANT	0	Ach Select
CABLEID	IQUANT	13	Cable ID
DCCALDATE	LABEL	7/31/2020	DC Calibration Date
ACCALDATE	LABEL	7/31/2020	AC Calibration Date
THERMOSELECT	IQUANT	1	Thermo Select
FRAMEWORKVERSION	QUANT	6.33	Framework Version
INSTRUMENTVERSION	LABEL	3.50	Instrument Version
COMPLIANCEVOLTAGE	IQUANT	0	Compliance Voltage
ZCURVE	TABLE
	Pt	Time	Freq	Zreal	Zimag	Zsig	Zmod	Zphz	Idc	Vdc	IERange
	#	s	Hz	ohm	ohm	V	ohm	°	A	V	#
	0	10	300046.9	5.99441	-0.3575704	1	6.005065	-3.413685	-1.215315E-005	0.0002682	10
	1	13	238359.4	6.185558	-0.9004475	1	6.250754	-8.282515	1.926833E-005	-4.202339E-005	10
	2	16	189328.1	6.379439	-1.455839	1	6.543448	-12.85521	-3.63996E-005	0.0002839	10
	3	19	150421.9	6.629126	-1.9943	1	6.922611	-16.74334	-7.836038E-005	0.0005872	10
	4	21	119484.4	6.905116	-2.558399	1	7.363832	-20.33006	6.352382E-005	0.0005118	10
	5	24	94921.88	7.243393	-3.138499	1	7.894107	-23.42666	2.521382E-005	0.0006359	10
	6	27	75421.88	7.616201	-3.79431	1	8.509013	-26.48199	1.652545E-005	0.0006142	10
	7	29	59859.37	8.033695	-4.517641	1	9.216796	-29.35064	-1.689336E-005	0.0007085	10
	8	32	47578.12	8.510633	-5.334918	1	10.04451	-32.08168	-8.433499E-006	0.0006655	10
	9	34	37828.12	9.033593	-6.230688	1	10.97394	-34.59497	-2.122711E-005	0.0007452	10
	10	37	30046.88	9.61867	-7.295559	1	12.07245	-37.17955	-3.090561E-005	0.0006823	10
	11	39	23859.38	10.26146	-8.503427	1	13.32688	-39.64773	-1.679426E-005	0.0007392	10
	12	42	18984.38	10.96195	-9.9628	1	14.81289	-42.26623	-1.911515E-005	0.0006811	10
	13	44	15046.87	11.73636	-11.70162	1	16.57317	-44.91507	2.493285E-005	0.0006704	10
	14	46	11953.13	12.595	-13.78965	1	18.67588	-47.59249	1.927239E-005	0.0006853	10
	15	49	9515.62	13.58356	-16.26626	1	21.19208	-50.13557	-2.012827E-005	0.0007274	10
	16	51	7546.875	14.69389	-19.4002	1	24.33677	-52.85937	-1.017594E-005	0.0007211	10
	17	53	5928.309	16.08792	-23.37838	1	28.37904	-55.46605	2.256252E-005	0.0006481	10
	18	55	4733.456	17.66092	-27.85729	1	32.98388	-57.62619	-4.706204E-006	0.0006527	10
	19	58	3796.875	19.50917	-33.15881	1	38.47226	-59.52934	-1.710942E-005	0.0007297	10
	20	60	2987.132	21.95818	-40.12357	1	45.73907	-61.3097	1.204246E-006	1.795098E-005	9
	21	62	2390.625	24.77997	-47.99195	1	54.0118	-62.69106	3.584237E-006	2.324762E-005	9
	22	65	1884.191	28.6361	-57.98574	1	64.67126	-63.71767	-7.616569E-007	9.462167E-005	9
	23	67	1516.544	33.07015	-68.8375	1	76.36908	-64.33995	7.307451E-006	-5.454029E-005	9
	24	69	1193.986	39.1964	-83.06406	1	91.84768	-64.73824	-6.453181E-006	0.0002076	9
	25	72	946.5144	46.59967	-99.4688	1	109.8434	-64.89761	-8.594457E-006	0.0002148	9
	26	74	751.7689	56.25123	-118.2991	1	130.9919	-64.56891	-1.613733E-006	7.253009E-005	9
	27	76	597.4265	68.04346	-140.5563	1	156.1601	-64.16832	2.686502E-006	2.278675E-005	9
	28	79	477.4305	82.38148	-165.0738	1	184.4887	-63.47813	-5.182036E-007	8.02507E-005	9
	29	81	376.6741	101.3388	-195.0635	1	219.8165	-62.54735	-5.004977E-007	7.496402E-005	9
	30	83	298.2954	124.4902	-228.7239	1	260.4082	-61.44136	-5.038824E-007	9.111849E-005	9
	31	86	237.7717	152.2977	-265.1545	1	305.7802	-60.12807	-3.602626E-007	8.106243E-005	9
	32	88	189.0121	186.3704	-306.2285	1	358.4827	-58.67534	-4.530218E-007	8.539571E-005	9
	33	90	150.2404	226.7523	-349.1499	1	416.3199	-56.99865	-1.5565E-006	0.0006594	8
	34	93	119.1737	276.3643	-397.3905	1	484.0418	-55.18341	-1.563118E-006	0.0006593	8
	35	95	95.0169	333.7683	-446.6736	1	557.6008	-53.23178	-1.521242E-006	0.0007212	8
	36	98	75.60484	401.2375	-499.0876	1	640.3748	-51.20274	-1.523978E-006	0.0006638	8
	37	100	54.50582	516.4457	-574.1125	1	772.2184	-48.02688	-1.517515E-006	0.0006503	8
	38	103	45.95588	586.0492	-611.9161	1	847.2869	-46.23696	-1.482332E-006	0.0006576	8
	39	105	37.20238	680.6934	-658.6658	1	947.1981	-44.05777	-1.581543E-006	0.000663	8
	40	108	30.04808	786.3435	-702.1196	1	1054.186	-41.7614	-1.5398E-006	0.0006546	8
	41	110	23.91582	907.304	-736.9245	1	1168.87	-39.08397	-1.240881E-006	0.0007109	8
	42	112	18.60119	1048.085	-761.6593	1	1295.611	-36.00647	-1.675948E-006	0.0006664	8
	43	115	15.02404	1175.248	-775.2754	1	1407.927	-33.41162	-1.015442E-006	0.0006815	8
	44	117	12.01923	1295.082	-767.481	1	1505.412	-30.65149	-1.739198E-006	0.0006633	8
	45	119	9.450605	1419.948	-757.0165	1	1609.138	-28.06341	-1.790275E-006	0.0006686	8
	46	122	7.512019	1521.843	-739.7301	1	1692.102	-25.92323	-1.696331E-006	0.0006685	8
	47	125	5.978954	1619.479	-735.997	1	1778.877	-24.44016	-1.574938E-006	0.000664	8
	48	128	4.734848	1694.116	-728.1528	1	1843.972	-23.25866	-1.273275E-006	0.0006571	8
	49	131	3.75601	1752.134	-737.9952	1	1901.213	-22.84073	-1.498282E-006	0.0007105	8
	50	134	3.004808	1818.342	-769.9072	1	1974.62	-22.94836	-1.244891E-006	0.0006282	8
	51	138	2.372217	1904.555	-828.3505	1	2076.896	-23.50573	-1.408997E-006	0.0005973	8
	52	142	1.878005	1981.492	-907.1416	1	2179.27	-24.59865	-1.36024E-006	0.0006632	8
	53	147	1.512097	2066.382	-1004.339	1	2297.527	-25.9215	-1.288766E-006	0.0005519	8
	54	152	1.201923	2181.913	-1135.014	1	2459.472	-27.4831	-1.304404E-006	0.0006751	8
	55	159	0.956633	2316.388	-1286.654	1	2649.742	-29.05028	-1.361E-006	1.846513E-005	8
