EXPLAIN
TAG	EISPOT
TITLE	LABEL	Potentiostatic EIS	Test Identifier
DATE	LABEL	9/11/2020	Date
TIME	LABEL	17:33:11	Time
NOTES	NOTES	1	Notes...
	
PSTAT	PSTAT	REF3000-16137	Potentiostat
VDC	POTEN	0.00000E+000	T	DC Voltage (V)
FREQINIT	QUANT	3.00000E+005	Initial Freq. (Hz)
FREQFINAL	QUANT	1.00000E+000	Final Freq. (Hz)
PTSPERDEC	QUANT	1.00000E+001	Points/decade
VAC	QUANT	5.00000E+001	AC Voltage (mV rms)
AREA	QUANT	1.00000E+000	Sample Area (cm^2)
SPEED	SELECTOR	2	Optimize for:
ZGUESS	QUANT	1.00000E+003	Estimated Z (ohms)
EOC	QUANT	0	Open Circuit (V)
SEQUENCER	TOGGLE	TRUE	Run as Sequence
PSTATMODEL	IQUANT	5	Pstat Model
PSTATSECTION	LABEL	REF3000-16137	Pstat Section
PSTATSERIALNO	LABEL	16137	Pstat Serial Number
CTRLMODE	IQUANT	1	Control Mode
IESTAB	IQUANT	0	I/E Stability
CASPEED	IQUANT	1	Control Amp Speed
CONVENTION	IQUANT	1	Current Convention
ICHRANGE	IQUANT	2	Ich Range
ICHRANGEMODE	TOGGLE	F	Ich Auto Range
ICHOFFSETENABLE	TOGGLE	T	Ich Offset Enable
ICHOFFSET	QUANT	0	Ich Offset (V)
ICHFILTER	IQUANT	3	Ich Filter
VCHRANGE	IQUANT	2	Vch Range
VCHRANGEMODE	TOGGLE	F	Vch Auto Range
VCHOFFSETENABLE	TOGGLE	T	Vch Offset Enable
VCHOFFSET	QUANT	0	Vch Offset (V)
VCHFILTER	IQUANT	3	Vch Filter
ACHRANGE	IQUANT	2	Ach Range
ACHOFFSETENABLE	TOGGLE	F	Ach Offset Enable
ACHOFFSET	QUANT	0	Ach Offset (V)
ACHFILTER	IQUANT	3	Ach Filter
IERANGELOWERLIMIT	IQUANT	2	I/E Range Lower Limit
IERANGEMODE	TOGGLE	F	I/E AutoRange
IERANGE	IQUANT	11	I/E Range
POSFEEDENABLE	TOGGLE	F	Positive Feedback IR Comp
POSFEEDRESISTANCE	QUANT	0	Positive Feedback Resistance (ohm)
ACHSELECT	IQUANT	0	Ach Select
CABLEID	IQUANT	13	Cable ID
DCCALDATE	LABEL	7/31/2020	DC Calibration Date
ACCALDATE	LABEL	7/31/2020	AC Calibration Date
THERMOSELECT	IQUANT	1	Thermo Select
FRAMEWORKVERSION	QUANT	6.33	Framework Version
INSTRUMENTVERSION	LABEL	3.50	Instrument Version
COMPLIANCEVOLTAGE	IQUANT	0	Compliance Voltage
ZCURVE	TABLE
	Pt	Time	Freq	Zreal	Zimag	Zsig	Zmod	Zphz	Idc	Vdc	IERange
	#	s	Hz	ohm	ohm	V	ohm	°	A	V	#
	0	10	300046.9	4.866072	2.308341	1	5.385823	25.37848	-0.0001288	-4.878642E-005	10
	1	13	238359.4	4.814997	1.825075	1	5.149281	20.7587	0.0003073	-0.0004858	10
	2	16	189328.1	4.800229	1.430095	1	5.008729	16.58997	0.0001968	-0.0007856	10
	3	19	150421.9	4.806959	1.120805	1	4.935894	13.12476	-0.0001275	0.0002054	10
	4	22	119484.4	4.796696	0.8698329	1	4.874926	10.27832	2.436953E-005	-5.144309E-005	10
	5	24	94921.88	4.800801	0.6814132	1	4.848919	8.078452	-0.0000988	0.0005415	10
	6	27	75421.88	4.801301	0.5045815	1	4.827743	5.999344	0.00015	0.0003317	10
	7	29	59859.37	4.80603	0.3540436	1	4.819053	4.213172	-0.0001072	0.0005931	10
	8	32	47578.12	4.812196	0.2215653	1	4.817294	2.636177	0.000141	0.000167	10
	9	34	37828.12	4.821031	0.1029202	1	4.82213	1.222974	5.210697E-005	0.0002788	10
	10	37	30046.88	4.831342	-0.0081893	1	4.831349	-0.0971184	-0.0001201	0.0009961	10
	11	39	23859.38	4.840998	-0.1191739	1	4.842464	-1.410202	0.0001649	0.0002014	10
	12	42	18984.38	4.852958	-0.2322222	1	4.85851	-2.739609	0.0001018	0.0002498	10
	13	44	15046.87	4.867507	-0.3585458	1	4.880695	-4.21286	0.0001471	0.0004614	10
	14	46	11953.13	4.882533	-0.4985699	1	4.907922	-5.830434	-7.292932E-005	0.0009619	10
	15	49	9515.62	4.900238	-0.6602502	1	4.944519	-7.673727	0.0001485	0.0004109	10
	16	51	7546.875	4.92075	-0.8567435	1	4.994776	-9.87667	0.000141	0.0004292	10
	17	53	5928.309	4.948414	-1.105149	1	5.070322	-12.58949	0.0001799	0.0002571	10
	18	55	4733.456	4.980644	-1.388539	1	5.170576	-15.57779	0.0001381	0.0004615	10
	19	58	3796.875	5.017004	-1.728279	1	5.306343	-19.00802	-9.676683E-006	0.0009055	10
	20	60	2987.132	5.065194	-2.182503	1	5.515388	-23.31036	0.0001483	0.0004391	10
	21	62	2390.625	5.125005	-2.704736	1	5.794935	-27.82298	0.0001486	0.00047	10
	22	65	1884.191	5.203527	-3.39657	1	6.213966	-33.13424	3.980761E-005	0.0007645	10
	23	67	1516.544	5.296623	-4.169295	1	6.740715	-38.20844	-0.0001508	0.0010824	10
	24	69	1193.986	5.42958	-5.222658	1	7.533691	-43.88716	-0.0001469	0.0008451	10
	25	72	946.5144	5.594474	-6.494537	1	8.571881	-49.25799	-0.0001724	0.0011048	10
	26	74	751.7689	5.802901	-8.06109	1	9.93251	-54.25119	4.320058E-005	0.0007668	10
	27	76	597.4265	6.077677	-9.97787	1	11.68315	-58.65374	-7.581994E-005	0.0010054	10
	28	79	477.4305	6.417704	-12.27328	1	13.84992	-62.39491	-2.805506E-006	0.0006592	10
	29	81	376.6741	6.883629	-15.26263	1	16.74312	-65.72405	-3.95994E-006	0.0006563	10
	30	83	298.2954	7.471454	-18.89078	1	20.31463	-68.42081	-3.402734E-006	0.0006567	10
	31	86	237.7717	8.19385	-23.21529	1	24.61887	-70.55949	-3.872962E-006	0.0006584	10
	32	88	189.0121	9.110815	-28.57957	1	29.99664	-72.31836	-3.634301E-006	0.000657	10
	33	91	150.2404	10.25178	-35.15091	1	36.61537	-73.74065	-2.97772E-006	0.0006456	10
	34	93	119.1737	11.67658	-43.25003	1	44.79853	-74.89157	-2.001209E-007	5.739781E-005	9
	35	95	95.0169	13.43033	-53.0181	1	54.69271	-75.78508	-1.122126E-007	5.442808E-005	9
	36	98	75.60484	15.65847	-65.11593	1	66.97218	-76.47877	-2.67707E-007	5.412698E-005	9
	37	100	54.50582	19.95648	-87.35672	1	89.60724	-77.13171	-3.957063E-007	5.036743E-005	9
	38	103	45.95588	22.90107	-101.8083	1	104.3522	-77.32272	-9.421093E-008	5.754858E-005	9
	39	105	37.20238	27.43444	-122.9546	1	125.9781	-77.42182	3.461246E-007	-3.597122E-006	9
	40	108	30.04808	33.3358	-148.6702	1	152.3618	-77.36181	-1.600514E-007	5.560459E-005	9
	41	110	23.91582	41.53836	-181.8624	1	186.5459	-77.13404	-3.071622E-007	5.605627E-005	9
	42	112	18.60119	53.397	-226.4777	1	232.6873	-76.73357	6.694804E-008	5.486918E-005	9
	43	115	15.02404	66.59342	-272.2516	1	280.2778	-76.25519	-1.198847E-007	5.788961E-005	9
	44	117	12.01923	84.22109	-329.2648	1	339.8654	-75.65221	-7.015274E-008	5.817606E-005	9
	45	119	9.450605	108.5778	-402.6192	1	417.0029	-74.90759	-1.622061E-007	4.937103E-005	9
	46	122	7.512019	137.1879	-484.7302	1	503.7697	-74.19747	-8.859721E-008	0.0006318	8
	47	125	5.978954	173.4487	-583.499	1	608.7327	-73.44508	-1.077556E-007	0.0006373	8
	48	128	4.734848	219.8162	-704.0851	1	737.6009	-72.66158	-1.479386E-007	0.0006054	8
	49	131	3.75601	277.6148	-846.9781	1	891.3147	-71.85236	-2.720488E-008	0.0006482	8
	50	134	3.004808	347.275	-1010.361	1	1068.377	-71.03146	-1.018234E-007	0.0006419	8
	51	138	2.372217	441.3342	-1215.577	1	1293.214	-70.04578	-1.252223E-007	0.0006476	8
	52	142	1.878005	564.3097	-1459.478	1	1564.775	-68.86092	-8.958244E-008	0.0006181	8
	53	147	1.512097	707.9568	-1723.902	1	1863.61	-67.67346	-1.170813E-007	0.0007301	8
	54	152	1.201923	908.499	-2048.246	1	2240.688	-66.08033	-7.891087E-008	0.0006242	8
	55	159	0.956633	1166.063	-2415.654	1	2682.366	-64.23288	-1.814448E-007	-4.895169E-005	8
