EXPLAIN
TAG	EISPOT
TITLE	LABEL	Potentiostatic EIS	Test Identifier
DATE	LABEL	9/11/2020	Date
TIME	LABEL	17:49:53	Time
NOTES	NOTES	1	Notes...
	
PSTAT	PSTAT	REF3000-16137	Potentiostat
VDC	POTEN	0.00000E+000	T	DC Voltage (V)
FREQINIT	QUANT	3.00000E+005	Initial Freq. (Hz)
FREQFINAL	QUANT	1.00000E+000	Final Freq. (Hz)
PTSPERDEC	QUANT	1.00000E+001	Points/decade
VAC	QUANT	5.00000E+001	AC Voltage (mV rms)
AREA	QUANT	1.00000E+000	Sample Area (cm^2)
SPEED	SELECTOR	2	Optimize for:
ZGUESS	QUANT	1.00000E+003	Estimated Z (ohms)
EOC	QUANT	0	Open Circuit (V)
SEQUENCER	TOGGLE	TRUE	Run as Sequence
PSTATMODEL	IQUANT	5	Pstat Model
PSTATSECTION	LABEL	REF3000-16137	Pstat Section
PSTATSERIALNO	LABEL	16137	Pstat Serial Number
CTRLMODE	IQUANT	1	Control Mode
IESTAB	IQUANT	0	I/E Stability
CASPEED	IQUANT	1	Control Amp Speed
CONVENTION	IQUANT	1	Current Convention
ICHRANGE	IQUANT	2	Ich Range
ICHRANGEMODE	TOGGLE	F	Ich Auto Range
ICHOFFSETENABLE	TOGGLE	T	Ich Offset Enable
ICHOFFSET	QUANT	0	Ich Offset (V)
ICHFILTER	IQUANT	3	Ich Filter
VCHRANGE	IQUANT	2	Vch Range
VCHRANGEMODE	TOGGLE	F	Vch Auto Range
VCHOFFSETENABLE	TOGGLE	T	Vch Offset Enable
VCHOFFSET	QUANT	0	Vch Offset (V)
VCHFILTER	IQUANT	3	Vch Filter
ACHRANGE	IQUANT	2	Ach Range
ACHOFFSETENABLE	TOGGLE	F	Ach Offset Enable
ACHOFFSET	QUANT	0	Ach Offset (V)
ACHFILTER	IQUANT	3	Ach Filter
IERANGELOWERLIMIT	IQUANT	2	I/E Range Lower Limit
IERANGEMODE	TOGGLE	F	I/E AutoRange
IERANGE	IQUANT	11	I/E Range
POSFEEDENABLE	TOGGLE	F	Positive Feedback IR Comp
POSFEEDRESISTANCE	QUANT	0	Positive Feedback Resistance (ohm)
ACHSELECT	IQUANT	0	Ach Select
CABLEID	IQUANT	13	Cable ID
DCCALDATE	LABEL	7/31/2020	DC Calibration Date
ACCALDATE	LABEL	7/31/2020	AC Calibration Date
THERMOSELECT	IQUANT	1	Thermo Select
FRAMEWORKVERSION	QUANT	6.33	Framework Version
INSTRUMENTVERSION	LABEL	3.50	Instrument Version
COMPLIANCEVOLTAGE	IQUANT	0	Compliance Voltage
ZCURVE	TABLE
	Pt	Time	Freq	Zreal	Zimag	Zsig	Zmod	Zphz	Idc	Vdc	IERange
	#	s	Hz	ohm	ohm	V	ohm	°	A	V	#
	0	8	300046.9	9.101661	2.308962	1	9.38997	14.23483	-0.0003088	0.0017785	10
	1	11	238359.4	9.082311	1.807499	1	9.260422	11.25555	0.0001292	0.0006451	10
	2	15	189328.1	9.083034	1.41893	1	9.193196	8.878848	0.0003145	-0.0015826	10
	3	17	150421.9	9.084222	1.112934	1	9.152143	6.984661	-0.0003206	0.000489	10
	4	20	119484.4	9.102188	0.8528929	1	9.142059	5.353097	0.0005199	-0.0010584	10
	5	22	94921.88	9.11977	0.6684057	1	9.144232	4.191824	-0.0001605	0.0007574	10
	6	25	75421.88	9.133583	0.4894851	1	9.146689	3.067649	-0.0001881	0.0012437	10
	7	27	59859.37	9.151092	0.3297302	1	9.15703	2.063577	0.0002069	0.0001403	10
	8	30	47578.12	9.174315	0.1964899	1	9.176419	1.226939	5.335095E-005	5.240064E-005	10
	9	32	37828.12	9.197537	0.0774396	1	9.197864	0.4823965	0.000212	7.679485E-005	10
	10	35	30046.88	9.220361	-0.0335733	1	9.220422	-0.2086249	-1.244915E-005	0.0002175	10
	11	37	23859.38	9.243142	-0.1488912	1	9.244341	-0.9228568	-7.74814E-005	0.0004312	10
	12	40	18984.38	9.268465	-0.266852	1	9.272305	-1.64917	-8.690908E-006	0.0010338	10
	13	42	15046.87	9.302664	-0.395191	1	9.311054	-2.432547	-7.138035E-005	0.0011991	10
	14	44	11953.13	9.324162	-0.5527899	1	9.340533	-3.392852	3.317497E-006	0.0010989	10
	15	47	9515.62	9.353191	-0.7229163	1	9.381087	-4.419654	0.0001708	0.0005288	10
	16	49	7546.875	9.390517	-0.9288001	1	9.436338	-5.648656	0.0001125	-2.003545E-005	10
	17	51	5928.309	9.428884	-1.203999	1	9.50544	-7.276868	-0.0002022	0.0012939	10
	18	54	4733.456	9.478613	-1.510351	1	9.59819	-9.053573	-9.165864E-006	0.0002347	10
	19	56	3796.875	9.52454	-1.874404	1	9.70723	-11.13339	-0.0002063	0.0010652	10
	20	58	2987.132	9.5854	-2.366698	1	9.87325	-13.86931	0.0001572	-3.050416E-005	10
	21	61	2390.625	9.65765	-2.938211	1	10.09472	-16.92168	-0.0001822	0.0008848	10
	22	63	1884.191	9.73364	-3.682338	1	10.40689	-20.72215	0.0001996	-4.012284E-006	10
	23	65	1516.544	9.84603	-4.531179	1	10.83863	-24.71206	0.0002061	9.487681E-005	10
	24	67	1193.986	9.9879	-5.678203	1	11.48913	-29.61858	-8.092049E-005	0.0004468	10
	25	70	946.5144	10.15902	-7.068411	1	12.37611	-34.8293	-0.0002044	0.0010896	10
	26	72	751.7689	10.37163	-8.782515	1	13.59056	-40.25734	5.483845E-005	6.444749E-005	10
	27	75	597.4265	10.6429	-10.90626	1	15.23869	-45.7002	0.0001662	-4.902697E-005	10
	28	77	477.4305	10.97751	-13.44017	1	17.3535	-50.75911	-3.391426E-006	0.0006609	10
	29	79	376.6741	11.43281	-16.76174	1	20.28953	-55.70298	-3.096337E-006	0.0006488	10
	30	82	298.2954	12.01116	-20.81669	1	24.03336	-60.01521	-3.001762E-006	0.0006592	10
	31	84	237.7717	12.73775	-25.67499	1	28.66104	-63.61329	-2.680796E-006	0.0006558	10
	32	86	189.0121	13.67567	-31.71067	1	34.53391	-66.67121	-2.510371E-006	0.0006552	10
	33	89	150.2404	14.86934	-39.12043	1	41.85099	-69.18864	-2.731331E-006	0.0006512	10
	34	91	119.1737	16.37795	-48.24184	1	50.94617	-71.24781	3.355787E-007	6.024989E-005	9
	35	93	95.0169	18.24183	-59.2223	1	61.9681	-72.87997	4.861689E-007	5.449506E-005	9
	36	96	75.60484	20.58026	-72.7836	1	75.63729	-74.21124	3.285676E-007	5.464253E-005	9
	37	98	54.50582	24.92131	-97.6923	1	100.8209	-75.68906	2.266032E-007	5.600161E-005	9
	38	101	45.95588	27.79672	-113.8991	1	117.2419	-76.28523	3.083337E-007	5.748622E-005	9
	39	103	37.20238	32.07142	-137.7182	1	141.4032	-76.89077	3.433905E-007	5.745686E-005	9
	40	106	30.04808	37.44738	-166.9073	1	171.0565	-77.3545	3.37955E-007	4.88276E-005	9
	41	108	23.91582	44.76467	-204.9265	1	209.7588	-77.67773	5.340196E-007	4.446305E-005	9
	42	111	18.60119	55.21867	-256.6995	1	262.5714	-77.86009	1.743622E-007	5.701741E-005	9
	43	113	15.02404	66.87143	-310.8512	1	317.9627	-77.85935	2.126235E-007	5.063701E-005	9
	44	115	12.01923	82.61346	-378.9347	1	387.8356	-77.7011	7.376074E-007	5.330653E-005	9
	45	118	9.450605	104.1542	-466.4034	1	477.8914	-77.41163	3.191435E-007	0.0005644	8
	46	120	7.512019	131.8559	-569.49	1	584.5552	-76.96383	3.756233E-007	0.0006376	8
	47	123	5.978954	166.4941	-692.975	1	712.6953	-76.49019	3.527075E-007	0.0006269	8
	48	126	4.734848	212.6243	-845.2932	1	871.6248	-75.88079	2.943526E-007	0.0006309	8
	49	129	3.75601	269.9838	-1025.804	1	1060.738	-75.25459	3.581886E-007	0.0006239	8
	50	133	3.004808	338.3266	-1233.048	1	1278.622	-74.65665	3.868785E-007	0.0006631	8
	51	136	2.372217	427.6427	-1495.665	1	1555.6	-74.04362	2.667066E-007	0.0006789	8
	52	140	1.878005	540.9419	-1808.84	1	1887.994	-73.35046	2.993121E-007	0.0006108	8
	53	145	1.512097	667.2511	-2155.699	1	2256.604	-72.80119	3.08762E-007	0.0007353	8
	54	151	1.201923	834.3024	-2594.733	1	2725.564	-72.17548	3.3512E-007	0.0006095	8
	55	157	0.956633	1039.35	-3118.613	1	3287.247	-71.56815	3.47485E-007	-1.183831E-005	8
