EXPLAIN
TAG	EISPOT
TITLE	LABEL	Potentiostatic EIS	Test Identifier
DATE	LABEL	9/11/2020	Date
TIME	LABEL	17:13:33	Time
NOTES	NOTES	1	Notes...
	
PSTAT	PSTAT	REF3000-16137	Potentiostat
VDC	POTEN	0.00000E+000	T	DC Voltage (V)
FREQINIT	QUANT	3.00000E+005	Initial Freq. (Hz)
FREQFINAL	QUANT	1.00000E+000	Final Freq. (Hz)
PTSPERDEC	QUANT	1.00000E+001	Points/decade
VAC	QUANT	5.00000E+001	AC Voltage (mV rms)
AREA	QUANT	1.00000E+000	Sample Area (cm^2)
SPEED	SELECTOR	2	Optimize for:
ZGUESS	QUANT	1.00000E+003	Estimated Z (ohms)
EOC	QUANT	0	Open Circuit (V)
SEQUENCER	TOGGLE	TRUE	Run as Sequence
PSTATMODEL	IQUANT	5	Pstat Model
PSTATSECTION	LABEL	REF3000-16137	Pstat Section
PSTATSERIALNO	LABEL	16137	Pstat Serial Number
CTRLMODE	IQUANT	1	Control Mode
IESTAB	IQUANT	0	I/E Stability
CASPEED	IQUANT	1	Control Amp Speed
CONVENTION	IQUANT	1	Current Convention
ICHRANGE	IQUANT	2	Ich Range
ICHRANGEMODE	TOGGLE	F	Ich Auto Range
ICHOFFSETENABLE	TOGGLE	T	Ich Offset Enable
ICHOFFSET	QUANT	0	Ich Offset (V)
ICHFILTER	IQUANT	3	Ich Filter
VCHRANGE	IQUANT	2	Vch Range
VCHRANGEMODE	TOGGLE	F	Vch Auto Range
VCHOFFSETENABLE	TOGGLE	T	Vch Offset Enable
VCHOFFSET	QUANT	0	Vch Offset (V)
VCHFILTER	IQUANT	3	Vch Filter
ACHRANGE	IQUANT	2	Ach Range
ACHOFFSETENABLE	TOGGLE	F	Ach Offset Enable
ACHOFFSET	QUANT	0	Ach Offset (V)
ACHFILTER	IQUANT	3	Ach Filter
IERANGELOWERLIMIT	IQUANT	2	I/E Range Lower Limit
IERANGEMODE	TOGGLE	F	I/E AutoRange
IERANGE	IQUANT	11	I/E Range
POSFEEDENABLE	TOGGLE	F	Positive Feedback IR Comp
POSFEEDRESISTANCE	QUANT	0	Positive Feedback Resistance (ohm)
ACHSELECT	IQUANT	0	Ach Select
CABLEID	IQUANT	13	Cable ID
DCCALDATE	LABEL	7/31/2020	DC Calibration Date
ACCALDATE	LABEL	7/31/2020	AC Calibration Date
THERMOSELECT	IQUANT	1	Thermo Select
FRAMEWORKVERSION	QUANT	6.33	Framework Version
INSTRUMENTVERSION	LABEL	3.50	Instrument Version
COMPLIANCEVOLTAGE	IQUANT	0	Compliance Voltage
ZCURVE	TABLE
	Pt	Time	Freq	Zreal	Zimag	Zsig	Zmod	Zphz	Idc	Vdc	IERange
	#	s	Hz	ohm	ohm	V	ohm	°	A	V	#
	0	11	300046.9	3.363454	2.309217	1	4.079866	34.47199	-8.829679E-005	-0.0001316	10
	1	14	238359.4	3.316446	1.822014	1	3.783986	28.78385	-2.281977E-005	-0.0006499	10
	2	17	189328.1	3.298061	1.440768	1	3.599031	23.59826	3.668862E-005	-0.0004163	10
	3	19	150421.9	3.289106	1.128237	1	3.477231	18.93312	-0.0001364	0.000114	10
	4	22	119484.4	3.302016	0.7090327	1	3.377283	12.11894	-0.0003026	0.0002431	12
	5	26	94921.88	3.267932	0.6515835	1	3.332257	11.27616	-0.0001015	0.0005179	11
	6	28	75421.88	3.2633	0.4824909	1	3.298777	8.410458	0.0001944	0.0005559	11
	7	31	59859.37	3.262299	0.3406298	1	3.280034	5.960884	-3.026341E-005	0.0006272	11
	8	33	47578.12	3.263389	0.217136	1	3.270605	3.806676	-0.0000951	0.0005906	11
	9	36	37828.12	3.26482	0.1063922	1	3.266553	1.866463	-0.0001989	0.0006531	11
	10	38	30046.88	3.268073	0.001502	1	3.268073	0.0263324	-0.0002077	0.0006308	11
	11	41	23859.38	3.273344	-0.1021	1	3.274936	-1.786554	-7.457358E-006	0.0007182	11
	12	43	18984.38	3.278065	-0.2093912	1	3.284746	-3.654886	-0.0001631	0.0006237	11
	13	45	15046.87	3.285108	-0.3269107	1	3.301334	-5.68296	0.0001119	0.0006196	11
	14	48	11953.13	3.293783	-0.4596385	1	3.325699	-7.944169	0.0001097	0.0006721	11
	15	50	9515.62	3.306275	-0.6109278	1	3.362244	-10.46893	-2.898842E-005	0.0006238	11
	16	52	7546.875	3.322341	-0.7947756	1	3.416083	-13.45355	-0.000155	0.0006522	11
	17	55	5928.309	3.342932	-1.026738	1	3.497053	-17.07365	0.0000962	0.0006414	11
	18	57	4733.456	3.368101	-1.29115	1	3.6071	-20.97415	3.06396E-005	0.0006266	11
	19	59	3796.875	3.40375	-1.606856	1	3.763974	-25.27125	0.0001266	0.0003659	10
	20	62	2987.132	3.449447	-2.028686	1	4.001781	-30.4606	5.271831E-005	0.0004387	10
	21	64	2390.625	3.505207	-2.512154	1	4.31247	-35.62887	-0.0001458	0.0008573	10
	22	66	1884.191	3.580584	-3.148841	1	4.768206	-41.32908	-0.0001254	0.0007919	10
	23	69	1516.544	3.673108	-3.864873	1	5.331882	-46.45729	-0.0001315	0.0009258	10
	24	71	1193.986	3.802733	-4.834203	1	6.150634	-51.81032	0.0001298	0.0004896	10
	25	73	946.5144	3.968632	-5.999232	1	7.19311	-56.51443	-7.53862E-005	0.000852	10
	26	76	751.7689	4.185978	-7.419897	1	8.51923	-60.57023	-0.0001467	0.0008473	10
	27	78	597.4265	4.46018	-9.158008	1	10.18638	-64.03275	7.879097E-005	0.0005959	10
	28	80	477.4305	4.804818	-11.23642	1	12.22061	-66.8479	-3.784573E-006	0.0006555	10
	29	83	376.6741	5.26391	-13.93012	1	14.89151	-69.29944	-3.746392E-006	0.0006514	10
	30	85	298.2954	5.834327	-17.19516	1	18.158	-71.2579	-4.67083E-006	0.0006533	10
	31	87	237.7717	6.52893	-21.08665	1	22.07428	-72.79623	-3.572788E-006	0.0006408	10
	32	90	189.0121	7.411084	-25.91463	1	26.95352	-74.04049	-4.203179E-006	0.000653	10
	33	92	150.2404	8.526311	-31.84495	1	32.96664	-75.01094	-4.504096E-006	0.0006493	10
	34	95	119.1737	9.96322	-39.19717	1	40.44359	-75.73846	-4.028519E-006	0.0006469	10
	35	97	95.0169	11.75709	-47.94189	1	49.36248	-76.22093	-1.167162E-006	5.102982E-005	9
	36	99	75.60484	14.11991	-58.77786	1	60.45005	-76.49208	-1.146312E-006	5.170499E-005	9
	37	102	54.50582	18.82251	-78.54813	1	80.77187	-76.52429	-1.313114E-006	4.844337E-005	9
	38	105	45.95588	22.11644	-91.26852	1	93.90996	-76.37849	-1.096161E-006	5.67206E-005	9
	39	107	37.20238	27.22153	-109.7029	1	113.0298	-76.06418	-1.222791E-006	6.117734E-005	9
	40	109	30.04808	33.78592	-131.7767	1	136.0389	-75.61982	-1.232293E-006	5.851474E-005	9
	41	112	23.91582	42.83893	-159.8322	1	165.4735	-74.99597	-1.294425E-006	4.840035E-005	9
	42	114	18.60119	55.94563	-197.2519	1	205.0322	-74.16532	-9.935134E-007	4.986902E-005	9
	43	116	15.02404	70.06765	-235.0008	1	245.224	-73.39757	-1.220578E-006	4.739495E-005	9
	44	119	12.01923	88.63866	-281.4169	1	295.0463	-72.517	-1.219967E-006	4.969969E-005	9
	45	121	9.450605	113.9654	-340.6777	1	359.2345	-71.50359	-8.740225E-007	5.260331E-005	9
	46	124	7.512019	143.9392	-406.1087	1	430.8628	-70.48388	-1.014454E-006	0.0006516	8
	47	126	5.978954	182.8797	-484.426	1	517.7968	-69.31756	-1.122725E-006	0.0006402	8
	48	129	4.734848	234.0627	-579.1838	1	624.6913	-67.99513	-9.28252E-007	0.0006474	8
	49	133	3.75601	300.2733	-687.843	1	750.5279	-66.41664	-1.129592E-006	0.0006198	8
	50	136	3.004808	383.5052	-807.2703	1	893.7346	-64.58929	-9.33087E-007	0.0006019	8
	51	140	2.372217	498.4916	-948.4903	1	1071.507	-62.27523	-1.044292E-006	0.0005797	8
	52	144	1.878005	648.3054	-1097.869	1	1274.996	-59.43761	-1.045174E-006	0.0006364	8
	53	149	1.512097	821.6101	-1239.531	1	1487.105	-56.46201	-9.812177E-007	0.0005219	8
	54	154	1.201923	1046.554	-1383.021	1	1734.365	-52.88463	-1.045785E-006	0.0006442	8
	55	160	0.956633	1308.462	-1505.172	1	1994.396	-48.99922	-1.204179E-006	-1.443727E-005	8
