EXPLAIN
TAG	EISPOT
TITLE	LABEL	Potentiostatic EIS	Test Identifier
DATE	LABEL	9/11/2020	Date
TIME	LABEL	17:55:25	Time
NOTES	NOTES	1	Notes...
	
PSTAT	PSTAT	REF3000-16137	Potentiostat
VDC	POTEN	0.00000E+000	T	DC Voltage (V)
FREQINIT	QUANT	3.00000E+005	Initial Freq. (Hz)
FREQFINAL	QUANT	1.00000E+000	Final Freq. (Hz)
PTSPERDEC	QUANT	1.00000E+001	Points/decade
VAC	QUANT	5.00000E+001	AC Voltage (mV rms)
AREA	QUANT	1.00000E+000	Sample Area (cm^2)
SPEED	SELECTOR	2	Optimize for:
ZGUESS	QUANT	1.00000E+003	Estimated Z (ohms)
EOC	QUANT	0	Open Circuit (V)
SEQUENCER	TOGGLE	TRUE	Run as Sequence
PSTATMODEL	IQUANT	5	Pstat Model
PSTATSECTION	LABEL	REF3000-16137	Pstat Section
PSTATSERIALNO	LABEL	16137	Pstat Serial Number
CTRLMODE	IQUANT	1	Control Mode
IESTAB	IQUANT	0	I/E Stability
CASPEED	IQUANT	1	Control Amp Speed
CONVENTION	IQUANT	1	Current Convention
ICHRANGE	IQUANT	2	Ich Range
ICHRANGEMODE	TOGGLE	F	Ich Auto Range
ICHOFFSETENABLE	TOGGLE	T	Ich Offset Enable
ICHOFFSET	QUANT	0	Ich Offset (V)
ICHFILTER	IQUANT	3	Ich Filter
VCHRANGE	IQUANT	2	Vch Range
VCHRANGEMODE	TOGGLE	F	Vch Auto Range
VCHOFFSETENABLE	TOGGLE	T	Vch Offset Enable
VCHOFFSET	QUANT	0	Vch Offset (V)
VCHFILTER	IQUANT	3	Vch Filter
ACHRANGE	IQUANT	2	Ach Range
ACHOFFSETENABLE	TOGGLE	F	Ach Offset Enable
ACHOFFSET	QUANT	0	Ach Offset (V)
ACHFILTER	IQUANT	3	Ach Filter
IERANGELOWERLIMIT	IQUANT	2	I/E Range Lower Limit
IERANGEMODE	TOGGLE	F	I/E AutoRange
IERANGE	IQUANT	11	I/E Range
POSFEEDENABLE	TOGGLE	F	Positive Feedback IR Comp
POSFEEDRESISTANCE	QUANT	0	Positive Feedback Resistance (ohm)
ACHSELECT	IQUANT	0	Ach Select
CABLEID	IQUANT	13	Cable ID
DCCALDATE	LABEL	7/31/2020	DC Calibration Date
ACCALDATE	LABEL	7/31/2020	AC Calibration Date
THERMOSELECT	IQUANT	1	Thermo Select
FRAMEWORKVERSION	QUANT	6.33	Framework Version
INSTRUMENTVERSION	LABEL	3.50	Instrument Version
COMPLIANCEVOLTAGE	IQUANT	0	Compliance Voltage
ZCURVE	TABLE
	Pt	Time	Freq	Zreal	Zimag	Zsig	Zmod	Zphz	Idc	Vdc	IERange
	#	s	Hz	ohm	ohm	V	ohm	°	A	V	#
	0	8	300046.9	12.08608	2.248925	1	12.29354	10.5408	0.0005698	-0.0016775	10
	1	11	238359.4	12.07934	1.780111	1	12.2098	8.383242	-0.0002287	-0.000328	10
	2	14	189328.1	12.07698	1.39754	1	12.15757	6.600872	0.0005547	-0.0008595	10
	3	17	150421.9	12.1019	1.092533	1	12.15112	5.158552	0.0001226	0.0012395	10
	4	19	119484.4	12.13109	0.8387875	1	12.16005	3.955343	-0.0004698	0.0010478	10
	5	22	94921.88	12.14514	0.653546	1	12.16271	3.080191	0.0002244	6.118605E-005	10
	6	24	75421.88	12.17645	0.4732622	1	12.18564	2.225796	-0.0001868	0.0008449	10
	7	27	59859.37	12.20855	0.3172008	1	12.21267	1.488316	-8.06848E-005	0.0003271	10
	8	29	47578.12	12.2409	0.1839122	1	12.24228	0.8607705	7.107943E-005	0.0008703	10
	9	32	37828.12	12.2731	0.0674186	1	12.27329	0.314734	2.387328E-007	0.0011182	10
	10	35	30046.88	12.30655	-0.0497606	1	12.30665	-0.2316698	0.0001354	0.0006438	10
	11	37	23859.38	12.3409	-0.1630972	1	12.34198	-0.7571762	-7.076879E-005	0.0012929	10
	12	39	18984.38	12.37304	-0.2864927	1	12.37636	-1.326424	0.0002178	0.0001469	10
	13	42	15046.87	12.41824	-0.4170169	1	12.42524	-1.923327	5.548737E-005	-3.214449E-005	10
	14	44	11953.13	12.44923	-0.5635372	1	12.46198	-2.591828	-0.0002184	0.0012208	10
	15	46	9515.62	12.49133	-0.7539017	1	12.51406	-3.45384	0.0002058	-6.912053E-005	10
	16	49	7546.875	12.53846	-0.961475	1	12.57527	-4.384978	0.0001193	-0.0001217	10
	17	51	5928.309	12.58702	-1.24686	1	12.64863	-5.657214	0.0001336	0.0006906	10
	18	53	4733.456	12.64359	-1.555295	1	12.73889	-7.012756	-0.0001466	0.0006393	10
	19	56	3796.875	12.70662	-1.935555	1	12.85319	-8.661087	-0.0002064	0.0014006	10
	20	58	2987.132	12.77709	-2.447544	1	13.0094	-10.84405	-0.0001337	0.0014375	10
	21	60	2390.625	12.85256	-3.032684	1	13.20551	-13.27664	-0.000218	0.0010651	10
	22	63	1884.191	12.94696	-3.810869	1	13.49617	-16.40151	-0.0001777	0.0014088	10
	23	65	1516.544	13.07703	-4.674599	1	13.88742	-19.67027	5.233632E-006	0.0011481	10
	24	67	1193.986	13.2132	-5.868637	1	14.45786	-23.94837	1.036031E-005	0.0011542	10
	25	70	946.5144	13.39356	-7.314819	1	15.26087	-28.64091	-8.603081E-005	0.0003389	10
	26	72	751.7689	13.59783	-9.090032	1	16.35633	-33.76239	-0.000211	0.0013554	10
	27	74	597.4265	13.89248	-11.26294	1	17.88448	-39.03244	-0.0002078	0.0011793	10
	28	77	477.4305	14.23656	-13.90778	1	19.90241	-44.33072	-2.267401E-006	0.0006596	10
	29	79	376.6741	14.69271	-17.35595	1	22.73993	-49.75035	2.349357E-006	0.0005899	10
	30	81	298.2954	15.2728	-21.5713	1	26.43066	-54.70094	-2.855071E-006	0.0006579	10
	31	84	237.7717	15.9952	-26.63372	1	31.06769	-59.01258	-2.893231E-006	0.000664	10
	32	86	189.0121	16.92788	-32.93377	1	37.02954	-62.79694	-2.52951E-006	0.0006593	10
	33	88	150.2404	18.10187	-40.63757	1	44.48696	-65.98958	3.817565E-007	5.945899E-005	9
	34	91	119.1737	19.63824	-50.24781	1	53.94907	-68.65306	5.47967E-007	5.450773E-005	9
	35	93	95.0169	21.54262	-61.76723	1	65.41618	-70.77271	4.747789E-007	6.277065E-005	9
	36	96	75.60484	23.9499	-75.99033	1	79.67514	-72.50669	3.459858E-007	6.147827E-005	9
	37	98	54.50582	28.43595	-102.0781	1	105.9648	-74.43373	4.600834E-007	5.746682E-005	9
	38	101	45.95588	31.38902	-119.0255	1	123.0948	-75.22649	7.003327E-007	5.756406E-005	9
	39	103	37.20238	35.75055	-143.9212	1	148.295	-76.04987	5.156409E-007	6.07477E-005	9
	40	105	30.04808	41.169	-174.4206	1	179.2133	-76.71938	1.01954E-006	-6.47128E-006	9
	41	108	23.91582	48.36733	-214.1789	1	219.5723	-77.27454	3.348167E-007	5.696271E-005	9
	42	110	18.60119	58.47973	-268.3037	1	274.6029	-77.70406	1.323097E-006	-3.841339E-006	9
	43	112	15.02404	69.57967	-325.1978	1	332.5582	-77.92303	1.221904E-006	5.511624E-005	9
	44	115	12.01923	84.48604	-397.3668	1	406.249	-77.99681	1.373297E-006	5.338473E-005	9
	45	117	9.450605	105.1978	-490.2878	1	501.4467	-77.89003	3.780744E-007	0.0006273	8
	46	120	7.512019	131.0432	-600.9038	1	615.0266	-77.69772	2.595844E-007	0.0006166	8
	47	122	5.978954	164.8262	-733.7536	1	752.0386	-77.33956	2.422586E-007	0.0006315	8
	48	125	4.734848	208.9848	-898.5157	1	922.4994	-76.90643	1.700571E-007	0.0006153	8
	49	129	3.75601	265.9036	-1095.432	1	1127.243	-76.356	3.448145E-007	0.00059	8
	50	132	3.004808	334.6055	-1322.033	1	1363.72	-75.79675	2.296904E-007	0.0006531	8
	51	136	2.372217	425.7973	-1609.259	1	1664.637	-75.17961	2.475356E-007	0.0006725	8
	52	140	1.878005	541.7627	-1952.387	1	2026.159	-74.49134	3.12431E-007	0.0005571	8
	53	145	1.512097	671.2289	-2331.757	1	2426.446	-73.9408	3.190437E-007	0.0006706	8
	54	150	1.201923	838.9221	-2812.583	1	2935.032	-73.39149	2.917063E-007	0.0006075	8
	55	156	0.956633	1042.666	-3385.873	1	3542.779	-72.884	2.225809E-007	-1.178363E-006	8
