EXPLAIN
TAG	EISPOT
TITLE	LABEL	Potentiostatic EIS	Test Identifier
DATE	LABEL	9/11/2020	Date
TIME	LABEL	17:24:47	Time
NOTES	NOTES	1	Notes...
	
PSTAT	PSTAT	REF3000-16137	Potentiostat
VDC	POTEN	0.00000E+000	T	DC Voltage (V)
FREQINIT	QUANT	3.00000E+005	Initial Freq. (Hz)
FREQFINAL	QUANT	1.00000E+000	Final Freq. (Hz)
PTSPERDEC	QUANT	1.00000E+001	Points/decade
VAC	QUANT	5.00000E+001	AC Voltage (mV rms)
AREA	QUANT	1.00000E+000	Sample Area (cm^2)
SPEED	SELECTOR	2	Optimize for:
ZGUESS	QUANT	1.00000E+003	Estimated Z (ohms)
EOC	QUANT	0	Open Circuit (V)
SEQUENCER	TOGGLE	TRUE	Run as Sequence
PSTATMODEL	IQUANT	5	Pstat Model
PSTATSECTION	LABEL	REF3000-16137	Pstat Section
PSTATSERIALNO	LABEL	16137	Pstat Serial Number
CTRLMODE	IQUANT	1	Control Mode
IESTAB	IQUANT	0	I/E Stability
CASPEED	IQUANT	1	Control Amp Speed
CONVENTION	IQUANT	1	Current Convention
ICHRANGE	IQUANT	2	Ich Range
ICHRANGEMODE	TOGGLE	F	Ich Auto Range
ICHOFFSETENABLE	TOGGLE	T	Ich Offset Enable
ICHOFFSET	QUANT	0	Ich Offset (V)
ICHFILTER	IQUANT	3	Ich Filter
VCHRANGE	IQUANT	2	Vch Range
VCHRANGEMODE	TOGGLE	F	Vch Auto Range
VCHOFFSETENABLE	TOGGLE	T	Vch Offset Enable
VCHOFFSET	QUANT	0	Vch Offset (V)
VCHFILTER	IQUANT	3	Vch Filter
ACHRANGE	IQUANT	2	Ach Range
ACHOFFSETENABLE	TOGGLE	F	Ach Offset Enable
ACHOFFSET	QUANT	0	Ach Offset (V)
ACHFILTER	IQUANT	3	Ach Filter
IERANGELOWERLIMIT	IQUANT	2	I/E Range Lower Limit
IERANGEMODE	TOGGLE	F	I/E AutoRange
IERANGE	IQUANT	11	I/E Range
POSFEEDENABLE	TOGGLE	F	Positive Feedback IR Comp
POSFEEDRESISTANCE	QUANT	0	Positive Feedback Resistance (ohm)
ACHSELECT	IQUANT	0	Ach Select
CABLEID	IQUANT	13	Cable ID
DCCALDATE	LABEL	7/31/2020	DC Calibration Date
ACCALDATE	LABEL	7/31/2020	AC Calibration Date
THERMOSELECT	IQUANT	1	Thermo Select
FRAMEWORKVERSION	QUANT	6.33	Framework Version
INSTRUMENTVERSION	LABEL	3.50	Instrument Version
COMPLIANCEVOLTAGE	IQUANT	0	Compliance Voltage
ZCURVE	TABLE
	Pt	Time	Freq	Zreal	Zimag	Zsig	Zmod	Zphz	Idc	Vdc	IERange
	#	s	Hz	ohm	ohm	V	ohm	°	A	V	#
	0	11	300046.9	3.902628	2.312225	1	4.536176	30.64585	-3.109113E-005	0.0002496	10
	1	14	238359.4	3.885604	1.829558	1	4.294788	25.21366	-0.0004159	0.0004945	10
	2	17	189328.1	3.8632	1.441606	1	4.123414	20.46375	-1.306215E-005	0.0002432	10
	3	19	150421.9	3.860834	1.122736	1	4.020768	16.21451	6.152987E-005	-0.0002112	10
	4	22	119484.4	3.851518	0.8759139	1	3.949863	12.81231	0.000372	-0.000267	10
	5	24	94921.88	3.85108	0.6820667	1	3.911015	10.04353	1.916548E-005	0.0002215	10
	6	27	75421.88	3.852389	0.5061575	1	3.885499	7.4851	-0.000142	0.0007177	10
	7	30	59859.37	3.853205	0.356031	1	3.869619	5.279064	-1.194324E-005	0.0006696	10
	8	32	47578.12	3.858872	0.2277499	1	3.865587	3.377667	-0.0000981	0.0008783	10
	9	35	37828.12	3.862306	0.1102724	1	3.86388	1.635403	0.0001761	0.0002453	10
	10	37	30046.88	3.870269	0.0009726	1	3.870269	0.0143987	0.0001262	0.0002844	10
	11	40	23859.38	3.879257	-0.1070753	1	3.880734	-1.581078	1.342931E-005	0.0007767	10
	12	42	18984.38	3.887902	-0.2186008	1	3.894043	-3.218118	0.0001602	0.0003878	10
	13	44	15046.87	3.898805	-0.340775	1	3.913669	-4.995243	0.0001612	0.00039	10
	14	47	11953.13	3.911376	-0.4771843	1	3.940376	-6.955661	0.0001536	0.0003702	10
	15	49	9515.62	3.927351	-0.6355072	1	3.978437	-9.191685	4.284178E-005	0.0007246	10
	16	51	7546.875	3.946479	-0.8263036	1	4.032056	-11.82561	-0.0001391	0.0008406	10
	17	53	5928.309	3.968781	-1.066903	1	4.109684	-15.04675	4.543059E-005	0.000701	10
	18	56	4733.456	3.99805	-1.341663	1	4.217164	-18.55069	0.0001344	0.0004706	10
	19	58	3796.875	4.03233	-1.669992	1	4.364466	-22.49692	-0.0001156	0.0009432	10
	20	60	2987.132	4.081642	-2.107714	1	4.59372	-27.31132	-0.000151	0.0008886	10
	21	63	2390.625	4.138549	-2.611505	1	4.893623	-32.25273	0.0001517	0.0003213	10
	22	65	1884.191	4.215496	-3.276499	1	5.339087	-37.85617	9.496869E-005	0.0005843	10
	23	67	1516.544	4.309289	-4.02253	1	5.894974	-43.0288	-0.0001436	0.0010062	10
	24	70	1193.986	4.43923	-5.036217	1	6.713438	-48.60507	0.000164	0.0003288	10
	25	72	946.5144	4.607796	-6.260386	1	7.773301	-53.64603	-8.873683E-006	0.0008355	10
	26	74	751.7689	4.819897	-7.756401	1	9.131986	-58.14281	9.428415E-005	0.0005807	10
	27	77	597.4265	5.095195	-9.58193	1	10.85239	-61.99816	0.0001558	0.0003027	10
	28	79	477.4305	5.444035	-11.77666	1	12.9741	-65.19016	-4.006773E-006	0.0006592	10
	29	81	376.6741	5.910889	-14.62122	1	15.77082	-67.98811	-3.074593E-006	0.000654	10
	30	84	298.2954	6.493162	-18.0706	1	19.20176	-70.23553	-3.052919E-006	0.000658	10
	31	86	237.7717	7.204539	-22.17929	1	23.32008	-72.00455	-3.211199E-006	0.0006535	10
	32	89	189.0121	8.101958	-27.27351	1	28.45147	-73.45525	-3.050914E-006	0.0006578	10
	33	91	150.2404	9.226299	-33.52908	1	34.77534	-74.61453	-3.663937E-006	0.0006568	10
	34	93	119.1737	10.65068	-41.28953	1	42.64109	-75.5358	-3.597212E-006	0.0006585	10
	35	96	95.0169	12.4016	-50.53531	1	52.03477	-76.21183	-6.067668E-007	5.461799E-005	9
	36	98	75.60484	14.67636	-62.03218	1	63.7447	-76.689	-6.326873E-007	5.959552E-005	9
	37	101	54.50582	19.14056	-83.10775	1	85.2834	-77.03036	-6.447136E-007	4.783768E-005	9
	38	103	45.95588	22.23209	-96.7451	1	99.2667	-77.05808	-3.45908E-007	6.011094E-005	9
	39	106	37.20238	27.04922	-116.6395	1	119.7349	-76.94364	-4.525421E-007	5.940003E-005	9
	40	108	30.04808	33.24644	-140.6084	1	144.4854	-76.6969	-4.350917E-007	5.350833E-005	9
	41	110	23.91582	41.96012	-171.5561	1	176.613	-76.25611	-6.19949E-007	5.808752E-005	9
	42	113	18.60119	54.40116	-212.6898	1	219.5369	-75.65266	-3.02162E-007	5.557202E-005	9
	43	115	15.02404	68.13716	-254.5898	1	263.5501	-75.01679	-3.776757E-007	6.902286E-005	9
	44	117	12.01923	86.26608	-306.5242	1	318.432	-74.28164	-3.058491E-007	5.92175E-005	9
	45	120	9.450605	110.9078	-373.0569	1	389.194	-73.44306	-3.841496E-007	-1.528607E-005	9
	46	122	7.512019	140.3159	-447.2036	1	468.7	-72.58008	-3.762436E-007	0.0006337	8
	47	125	5.978954	177.4055	-536.1584	1	564.7465	-71.69151	-3.563581E-007	0.0006329	8
	48	128	4.734848	225.966	-644.7221	1	683.1744	-70.68516	-3.769051E-007	0.0006032	8
	49	131	3.75601	287.0573	-772.5135	1	824.1232	-69.6155	-3.925713E-007	0.0006364	8
	50	135	3.004808	362.8453	-916.5118	1	985.723	-68.40148	-4.652286E-007	0.0006717	8
	51	138	2.372217	468.5192	-1095.678	1	1191.646	-66.84813	-4.151344E-007	0.000715	8
	52	143	1.878005	603.84	-1299.761	1	1433.179	-65.08147	-4.917923E-007	0.0006143	8
	53	147	1.512097	765.0854	-1510.283	1	1693.018	-63.13395	-4.534209E-007	0.0006438	8
	54	153	1.201923	992.037	-1760.281	1	2020.576	-60.59581	-4.187382E-007	0.0005572	8
	55	159	0.956633	1278.461	-2017.928	1	2388.827	-57.64364	-5.97383E-007	-1.749295E-006	8
