EXPLAIN
TAG	EISPOT
TITLE	LABEL	Potentiostatic EIS	Test Identifier
DATE	LABEL	9/11/2020	Date
TIME	LABEL	18:20:43	Time
NOTES	NOTES	1	Notes...
	
PSTAT	PSTAT	REF3000-16137	Potentiostat
VDC	POTEN	0.00000E+000	T	DC Voltage (V)
FREQINIT	QUANT	3.00000E+005	Initial Freq. (Hz)
FREQFINAL	QUANT	1.00000E+000	Final Freq. (Hz)
PTSPERDEC	QUANT	1.00000E+001	Points/decade
VAC	QUANT	5.00000E+001	AC Voltage (mV rms)
AREA	QUANT	1.00000E+000	Sample Area (cm^2)
SPEED	SELECTOR	2	Optimize for:
ZGUESS	QUANT	1.00000E+003	Estimated Z (ohms)
EOC	QUANT	0	Open Circuit (V)
SEQUENCER	TOGGLE	TRUE	Run as Sequence
PSTATMODEL	IQUANT	5	Pstat Model
PSTATSECTION	LABEL	REF3000-16137	Pstat Section
PSTATSERIALNO	LABEL	16137	Pstat Serial Number
CTRLMODE	IQUANT	1	Control Mode
IESTAB	IQUANT	0	I/E Stability
CASPEED	IQUANT	1	Control Amp Speed
CONVENTION	IQUANT	1	Current Convention
ICHRANGE	IQUANT	2	Ich Range
ICHRANGEMODE	TOGGLE	F	Ich Auto Range
ICHOFFSETENABLE	TOGGLE	T	Ich Offset Enable
ICHOFFSET	QUANT	0	Ich Offset (V)
ICHFILTER	IQUANT	3	Ich Filter
VCHRANGE	IQUANT	2	Vch Range
VCHRANGEMODE	TOGGLE	F	Vch Auto Range
VCHOFFSETENABLE	TOGGLE	T	Vch Offset Enable
VCHOFFSET	QUANT	0	Vch Offset (V)
VCHFILTER	IQUANT	3	Vch Filter
ACHRANGE	IQUANT	2	Ach Range
ACHOFFSETENABLE	TOGGLE	F	Ach Offset Enable
ACHOFFSET	QUANT	0	Ach Offset (V)
ACHFILTER	IQUANT	3	Ach Filter
IERANGELOWERLIMIT	IQUANT	2	I/E Range Lower Limit
IERANGEMODE	TOGGLE	F	I/E AutoRange
IERANGE	IQUANT	11	I/E Range
POSFEEDENABLE	TOGGLE	F	Positive Feedback IR Comp
POSFEEDRESISTANCE	QUANT	0	Positive Feedback Resistance (ohm)
ACHSELECT	IQUANT	0	Ach Select
CABLEID	IQUANT	13	Cable ID
DCCALDATE	LABEL	7/31/2020	DC Calibration Date
ACCALDATE	LABEL	7/31/2020	AC Calibration Date
THERMOSELECT	IQUANT	1	Thermo Select
FRAMEWORKVERSION	QUANT	6.33	Framework Version
INSTRUMENTVERSION	LABEL	3.50	Instrument Version
COMPLIANCEVOLTAGE	IQUANT	0	Compliance Voltage
ZCURVE	TABLE
	Pt	Time	Freq	Zreal	Zimag	Zsig	Zmod	Zphz	Idc	Vdc	IERange
	#	s	Hz	ohm	ohm	V	ohm	°	A	V	#
	0	7	300046.9	93.09008	6.461386	1	93.31406	3.970534	-0.000565	0.022118	9
	1	11	238359.4	91.84233	5.217429	1	91.99041	3.251395	0.0004049	-0.0036569	9
	2	18	189328.1	90.75451	3.863285	1	90.8367	2.437525	-0.0005713	0.0187042	9
	3	22	150421.9	90.78854	2.609938	1	90.82604	1.646654	0.0001207	-0.0117279	9
	4	26	119484.4	91.48486	1.934129	1	91.5053	1.21114	-0.0002052	-0.0043788	9
	5	29	94921.88	91.76818	1.804306	1	91.78592	1.126379	3.27008E-005	0.0041469	9
	6	32	75421.88	92.17429	1.194455	1	92.18202	0.7424347	0.0001953	-0.0032573	9
	7	35	59859.37	92.83832	0.8549908	1	92.84225	0.5276483	-0.0001407	0.0006087	9
	8	38	47578.12	93.22009	0.5891162	1	93.22195	0.3620831	-8.18101E-005	-0.0019008	9
	9	40	37828.12	93.61493	0.3513293	1	93.61559	0.2150254	-0.0002019	0.0048707	9
	10	43	30046.88	94.00865	0.0881174	1	94.00869	0.0537052	-0.0001372	0.000309	9
	11	45	23859.38	94.52914	-0.014172	1	94.52914	-0.0085899	-0.0001973	0.0041761	9
	12	48	18984.38	94.98917	-0.3753397	1	94.98991	-0.2263971	5.03056E-005	-0.0059693	9
	13	51	15046.87	95.4321	-0.4171554	1	95.433	-0.2504514	-2.029402E-005	-0.0041921	9
	14	53	11953.13	96.0832	-0.4877471	1	96.0844	-0.2908481	1.059352E-005	0.0045514	9
	15	56	9515.62	96.489	-0.9361917	1	96.4936	-0.5558989	0.0002195	-0.0065954	9
	16	59	7546.875	97.1537	-1.440867	1	97.1644	-0.8496798	0.0002175	-0.0050725	9
	17	62	5928.309	97.4156	-1.585826	1	97.4285	-0.9326338	0.0002171	-0.0053776	9
	18	64	4733.456	97.9305	-1.933529	1	97.9496	-1.131094	-1.252295E-005	-0.0044608	9
	19	67	3796.875	98.5589	-2.470509	1	98.5898	-1.435894	-0.0002151	0.0065156	9
	20	70	2987.132	99.066	-3.350856	1	99.1227	-1.937261	-0.0002122	0.0050262	9
	21	73	2390.625	100.0193	-3.82828	1	100.0925	-2.191951	-0.0001627	0.0077264	9
	22	76	1884.191	100.4932	-4.950992	1	100.6151	-2.820507	5.091648E-005	-0.0062146	9
	23	78	1516.544	101.0655	-5.801732	1	101.2319	-3.285496	-1.267395E-005	-0.0043265	9
	24	81	1193.986	101.7706	-6.97906	1	102.0096	-3.922997	-0.000213	0.0051102	9
	25	84	946.5144	102.2937	-9.006395	1	102.6894	-5.031602	0.0002206	-0.0064997	9
	26	87	751.7689	102.8089	-10.87288	1	103.3823	-6.037053	-0.0002057	0.0049607	9
	27	89	597.4265	103.7698	-13.49643	1	104.6438	-7.410366	-0.0001261	0.0078649	9
	28	92	477.4305	104.62	-16.9723	1	105.9878	-9.214705	4.576729E-007	4.258619E-005	9
	29	94	376.6741	105.4909	-21.22113	1	107.6042	-11.37413	3.910974E-007	3.323712E-005	9
	30	97	298.2954	106.4622	-26.44534	1	109.6976	-13.94999	4.565427E-007	5.057182E-005	9
	31	99	237.7717	107.5625	-32.75281	1	112.4386	-16.93551	3.780254E-007	3.897641E-005	9
	32	101	189.0121	108.8591	-40.66237	1	116.2055	-20.48228	3.638223E-008	6.008365E-005	9
	33	104	150.2404	110.3844	-50.46947	1	121.3749	-24.57063	4.691284E-007	4.637958E-005	9
	34	106	119.1737	112.2436	-62.73223	1	128.5844	-29.20055	1.191909E-007	6.604048E-005	9
	35	109	95.0169	114.4547	-77.57741	1	138.2683	-34.12942	4.764102E-008	6.399275E-005	9
	36	111	75.60484	117.1981	-96.0459	1	151.5262	-39.33522	4.687123E-007	4.779125E-005	9
	37	114	54.50582	122.063	-130.2432	1	178.5011	-46.85697	5.152515E-007	3.352154E-005	9
	38	116	45.95588	125.5069	-152.6315	1	197.6066	-50.56998	5.278491E-007	3.954111E-005	9
	39	119	37.20238	130.4959	-185.6231	1	226.9033	-54.89219	1.213393E-007	7.13531E-005	9
	40	121	30.04808	136.7375	-226.1647	1	264.287	-58.84315	4.041601E-007	5.820242E-005	9
	41	123	23.91582	145.0872	-279.1653	1	314.6165	-62.53829	2.598911E-007	-1.841151E-005	9
	42	126	18.60119	156.6321	-351.5845	1	384.8965	-65.98687	3.792257E-007	3.803318E-005	9
	43	128	15.02404	168.6619	-425.6367	1	457.8356	-68.38367	-1.988299E-007	0.0005629	8
	44	130	12.01923	184.9361	-521.4417	1	553.2656	-70.47229	-1.533124E-007	0.0005875	8
	45	133	9.450605	207.1094	-648.1508	1	680.4364	-72.2793	-1.603294E-007	0.0006555	8
	46	135	7.512019	233.4177	-797.3049	1	830.7701	-73.68216	-1.901314E-007	0.0006496	8
	47	138	5.978954	266.0698	-978.453	1	1013.983	-74.78745	-1.986089E-007	0.0006642	8
	48	141	4.734848	307.5171	-1207.087	1	1245.643	-75.70737	-1.72247E-007	0.0006567	8
	49	144	3.75601	357.6097	-1485.224	1	1527.67	-76.46211	-1.589688E-007	0.0006472	8
	50	148	3.004808	416.6985	-1813.481	1	1860.74	-77.0593	-1.197713E-007	0.0006178	8
	51	152	2.372217	494.1491	-2240.986	1	2294.82	-77.56497	-1.276346E-007	0.0005825	8
	52	156	1.878005	596.8386	-2767.277	1	2830.907	-77.82904	-1.449386E-007	0.0006294	8
	53	160	1.512097	712.489	-3364.024	1	3438.648	-78.04166	-1.245645E-007	0.0005175	8
	54	166	1.201923	872.2936	-4137.18	1	4228.138	-78.09399	-1.404432E-007	0.0006355	8
	55	172	0.956633	1075.617	-5090.563	1	5202.958	-78.06911	-4.433838E-008	-4.322257E-005	7
