EXPLAIN
TAG	EISPOT
TITLE	LABEL	Potentiostatic EIS	Test Identifier
DATE	LABEL	9/11/2020	Date
TIME	LABEL	18:31:15	Time
NOTES	NOTES	1	Notes...
	
PSTAT	PSTAT	REF3000-16137	Potentiostat
VDC	POTEN	0.00000E+000	T	DC Voltage (V)
FREQINIT	QUANT	3.00000E+005	Initial Freq. (Hz)
FREQFINAL	QUANT	1.00000E+000	Final Freq. (Hz)
PTSPERDEC	QUANT	1.00000E+001	Points/decade
VAC	QUANT	5.00000E+001	AC Voltage (mV rms)
AREA	QUANT	1.00000E+000	Sample Area (cm^2)
SPEED	SELECTOR	2	Optimize for:
ZGUESS	QUANT	1.00000E+003	Estimated Z (ohms)
EOC	QUANT	0	Open Circuit (V)
SEQUENCER	TOGGLE	TRUE	Run as Sequence
PSTATMODEL	IQUANT	5	Pstat Model
PSTATSECTION	LABEL	REF3000-16137	Pstat Section
PSTATSERIALNO	LABEL	16137	Pstat Serial Number
CTRLMODE	IQUANT	1	Control Mode
IESTAB	IQUANT	0	I/E Stability
CASPEED	IQUANT	1	Control Amp Speed
CONVENTION	IQUANT	1	Current Convention
ICHRANGE	IQUANT	2	Ich Range
ICHRANGEMODE	TOGGLE	F	Ich Auto Range
ICHOFFSETENABLE	TOGGLE	T	Ich Offset Enable
ICHOFFSET	QUANT	0	Ich Offset (V)
ICHFILTER	IQUANT	3	Ich Filter
VCHRANGE	IQUANT	2	Vch Range
VCHRANGEMODE	TOGGLE	F	Vch Auto Range
VCHOFFSETENABLE	TOGGLE	T	Vch Offset Enable
VCHOFFSET	QUANT	0	Vch Offset (V)
VCHFILTER	IQUANT	3	Vch Filter
ACHRANGE	IQUANT	2	Ach Range
ACHOFFSETENABLE	TOGGLE	F	Ach Offset Enable
ACHOFFSET	QUANT	0	Ach Offset (V)
ACHFILTER	IQUANT	3	Ach Filter
IERANGELOWERLIMIT	IQUANT	2	I/E Range Lower Limit
IERANGEMODE	TOGGLE	F	I/E AutoRange
IERANGE	IQUANT	11	I/E Range
POSFEEDENABLE	TOGGLE	F	Positive Feedback IR Comp
POSFEEDRESISTANCE	QUANT	0	Positive Feedback Resistance (ohm)
ACHSELECT	IQUANT	0	Ach Select
CABLEID	IQUANT	13	Cable ID
DCCALDATE	LABEL	7/31/2020	DC Calibration Date
ACCALDATE	LABEL	7/31/2020	AC Calibration Date
THERMOSELECT	IQUANT	1	Thermo Select
FRAMEWORKVERSION	QUANT	6.33	Framework Version
INSTRUMENTVERSION	LABEL	3.50	Instrument Version
COMPLIANCEVOLTAGE	IQUANT	0	Compliance Voltage
ZCURVE	TABLE
	Pt	Time	Freq	Zreal	Zimag	Zsig	Zmod	Zphz	Idc	Vdc	IERange
	#	s	Hz	ohm	ohm	V	ohm	°	A	V	#
	0	15	300046.9	344.4003	-24.31189	1	345.2574	-4.037923	2.944257E-005	0.0124118	9
	1	29	238359.4	335.1033	-44.90173	1	338.0982	-7.631815	0.0001302	-0.001602	10
	2	43	189328.1	346.61	-37.98601	1	348.6853	-6.254252	0.000142	-0.0014179	10
	3	50	150421.9	358.3757	-29.35035	1	359.5755	-4.681977	-0.0006652	0.0009945	10
	4	58	119484.4	364.741	-28.19424	1	365.829	-4.420136	-0.0005161	1.429483E-005	10
	5	65	94921.88	373.7318	-12.60838	1	373.9445	-1.932223	-0.0002031	0.0092923	9
	6	71	75421.88	380.0528	-10.74578	1	380.2047	-1.619575	-0.0002467	0.0070781	9
	7	76	59859.37	385.0838	-9.179368	1	385.1932	-1.36552	-8.751007E-005	-0.0030225	9
	8	81	47578.12	391.2684	-8.648754	1	391.364	-1.266283	-8.355622E-005	-0.0031336	9
	9	89	37828.12	397.6223	-6.11746	1	397.6693	-0.881432	-0.0002087	0.0027772	9
	10	96	30046.88	405.861	-6.766326	1	405.9174	-0.95512	0.0002031	-0.0093048	9
	11	103	23859.38	412.9861	-5.168186	1	413.0185	-0.7169727	-4.747499E-006	-0.0057559	9
	12	108	18984.38	417.7033	-4.944649	1	417.7325	-0.678219	-3.634885E-006	0.0061922	9
	13	113	15046.87	424.1679	-4.328111	1	424.19	-0.5846125	-8.416061E-005	0.0081786	9
	14	119	11953.13	428.8624	-2.528574	1	428.8699	-0.3378122	-0.0002402	0.0052465	9
	15	125	9515.62	435.333	-3.909944	1	435.3505	-0.5145882	7.613347E-005	-0.0078039	9
	16	130	7546.875	440.928	-3.476232	1	440.9417	-0.4517048	-0.0002104	0.0094304	9
	17	135	5928.309	445.705	-2.197976	1	445.7104	-0.2825496	-5.424621E-006	0.006347	9
	18	141	4733.456	456.3319	2.331233	1	456.3379	0.2927006	-8.693514E-005	0.0377278	8
	19	145	3796.875	458.4258	-2.946154	1	458.4353	-0.3682163	8.096785E-005	0.0036113	9
	20	150	2987.132	465.3624	-4.336755	1	465.3826	-0.5339292	-0.0001561	0.0093567	9
	21	156	2390.625	472.2685	-8.387212	1	472.3429	-1.017433	0.0001604	0.0002748	9
	22	161	1884.191	479.0311	-7.465535	1	479.0893	-0.8928627	0.0001469	-0.009011	9
	23	166	1516.544	486.2197	-9.97985	1	486.3221	-1.175853	-0.0001587	-8.711731E-005	9
	24	172	1193.986	490.5762	-10.34719	1	490.6853	-1.208298	0.0001586	0.0004334	9
	25	177	946.5144	495.9202	-7.752277	1	495.9807	-0.8955808	-0.0002141	0.0094939	9
	26	181	751.7689	497.5493	-19.32628	1	497.9246	-2.224418	0.0002509	-0.0090657	9
	27	185	597.4265	500.9169	-22.40982	1	501.418	-2.561568	7.965493E-005	0.0038304	9
	28	189	477.4305	511.8676	-19.94739	1	512.2562	-2.231677	3.706292E-007	3.119733E-005	9
	29	191	376.6741	518.0975	-24.40647	1	518.6721	-2.697088	-3.655652E-007	0.0005484	8
	30	193	298.2954	522.8099	-30.56939	1	523.7028	-3.346351	-3.310106E-007	0.0005525	8
	31	196	237.7717	530.5285	-38.13506	1	531.8973	-4.111422	-5.908426E-007	0.0006408	8
	32	198	189.0121	533.3951	-47.28059	1	535.4865	-5.065507	-5.661271E-007	0.0006595	8
	33	200	150.2404	534.1706	-58.16909	1	537.3284	-6.214798	-3.927721E-007	0.0005667	8
	34	203	119.1737	540.345	-72.827	1	545.2307	-7.675995	-4.199674E-007	0.0006398	8
	35	205	95.0169	549.2843	-90.65543	1	556.715	-9.371774	-6.133907E-007	0.0005912	8
	36	208	75.60484	552.2783	-111.9416	1	563.5089	-11.45808	-4.016617E-007	0.0005539	8
	37	210	54.50582	558.0452	-151.5056	1	578.2459	-15.1893	-3.920103E-007	0.0005412	8
	38	213	45.95588	568.4349	-179.1674	1	596.0027	-17.49455	-6.023957E-007	0.0006989	8
	39	215	37.20238	576.6926	-218.9558	1	616.8597	-20.79052	-4.852648E-007	0.0005709	8
	40	218	30.04808	582.6545	-266.0846	1	640.5367	-24.54506	-3.462973E-007	0.0005456	8
	41	220	23.91582	591.7535	-328.0858	1	676.6185	-29.00529	-4.409007E-007	0.0006284	8
	42	223	18.60119	608.3223	-417.3399	1	737.7185	-34.4521	-6.269715E-007	0.000698	8
	43	225	15.02404	626.6252	-510.8929	1	808.499	-39.19065	-6.831517E-007	0.000698	8
	44	227	12.01923	642.687	-625.139	1	896.5742	-44.20702	-3.701948E-007	0.0006126	8
	45	230	9.450605	663.8116	-776.71	1	1021.726	-49.4813	-4.373177E-007	0.0006972	8
	46	232	7.512019	699.2256	-967.692	1	1193.878	-54.14925	-5.560834E-007	0.0005527	8
	47	235	5.978954	732.4114	-1186.963	1	1394.743	-58.32349	-3.153626E-007	0.0005776	8
	48	238	4.734848	785.0126	-1481.569	1	1676.691	-62.08303	-4.135409E-007	0.0005899	8
	49	241	3.75601	843.2386	-1826.293	1	2011.566	-65.21622	-5.33804E-007	0.0005841	8
	50	245	3.004808	913.6516	-2232.173	1	2411.919	-67.7402	-4.6439E-007	0.0006904	8
	51	248	2.372217	1015.834	-2770.588	1	2950.945	-69.86459	-4.162163E-007	0.0006796	8
	52	253	1.878005	1133.219	-3428.994	1	3611.396	-71.71224	-4.356745E-007	0.0005989	8
	53	257	1.512097	1340.77	-4400.497	1	4600.221	-73.05475	-2.274E-007	0.0005856	7
	54	263	1.201923	1519.543	-5367.318	1	5578.272	-74.19263	-2.050785E-007	0.0005615	7
	55	269	0.956633	1751.843	-6545.884	1	6776.25	-75.01733	-1.829876E-007	-4.307861E-005	7
