EXPLAIN
TAG	EISPOT
TITLE	LABEL	Potentiostatic EIS	Test Identifier
DATE	LABEL	9/11/2020	Date
TIME	LABEL	17:27:35	Time
NOTES	NOTES	1	Notes...
	
PSTAT	PSTAT	REF3000-16137	Potentiostat
VDC	POTEN	0.00000E+000	T	DC Voltage (V)
FREQINIT	QUANT	3.00000E+005	Initial Freq. (Hz)
FREQFINAL	QUANT	1.00000E+000	Final Freq. (Hz)
PTSPERDEC	QUANT	1.00000E+001	Points/decade
VAC	QUANT	5.00000E+001	AC Voltage (mV rms)
AREA	QUANT	1.00000E+000	Sample Area (cm^2)
SPEED	SELECTOR	2	Optimize for:
ZGUESS	QUANT	1.00000E+003	Estimated Z (ohms)
EOC	QUANT	0	Open Circuit (V)
SEQUENCER	TOGGLE	TRUE	Run as Sequence
PSTATMODEL	IQUANT	5	Pstat Model
PSTATSECTION	LABEL	REF3000-16137	Pstat Section
PSTATSERIALNO	LABEL	16137	Pstat Serial Number
CTRLMODE	IQUANT	1	Control Mode
IESTAB	IQUANT	0	I/E Stability
CASPEED	IQUANT	1	Control Amp Speed
CONVENTION	IQUANT	1	Current Convention
ICHRANGE	IQUANT	2	Ich Range
ICHRANGEMODE	TOGGLE	F	Ich Auto Range
ICHOFFSETENABLE	TOGGLE	T	Ich Offset Enable
ICHOFFSET	QUANT	0	Ich Offset (V)
ICHFILTER	IQUANT	3	Ich Filter
VCHRANGE	IQUANT	2	Vch Range
VCHRANGEMODE	TOGGLE	F	Vch Auto Range
VCHOFFSETENABLE	TOGGLE	T	Vch Offset Enable
VCHOFFSET	QUANT	0	Vch Offset (V)
VCHFILTER	IQUANT	3	Vch Filter
ACHRANGE	IQUANT	2	Ach Range
ACHOFFSETENABLE	TOGGLE	F	Ach Offset Enable
ACHOFFSET	QUANT	0	Ach Offset (V)
ACHFILTER	IQUANT	3	Ach Filter
IERANGELOWERLIMIT	IQUANT	2	I/E Range Lower Limit
IERANGEMODE	TOGGLE	F	I/E AutoRange
IERANGE	IQUANT	11	I/E Range
POSFEEDENABLE	TOGGLE	F	Positive Feedback IR Comp
POSFEEDRESISTANCE	QUANT	0	Positive Feedback Resistance (ohm)
ACHSELECT	IQUANT	0	Ach Select
CABLEID	IQUANT	13	Cable ID
DCCALDATE	LABEL	7/31/2020	DC Calibration Date
ACCALDATE	LABEL	7/31/2020	AC Calibration Date
THERMOSELECT	IQUANT	1	Thermo Select
FRAMEWORKVERSION	QUANT	6.33	Framework Version
INSTRUMENTVERSION	LABEL	3.50	Instrument Version
COMPLIANCEVOLTAGE	IQUANT	0	Compliance Voltage
ZCURVE	TABLE
	Pt	Time	Freq	Zreal	Zimag	Zsig	Zmod	Zphz	Idc	Vdc	IERange
	#	s	Hz	ohm	ohm	V	ohm	°	A	V	#
	0	10	300046.9	4.163724	2.301078	1	4.757264	28.92719	0.0001598	4.138592E-006	10
	1	14	238359.4	4.14257	1.827012	1	4.527566	23.79908	1.773501E-006	3.307616E-005	10
	2	17	189328.1	4.126404	1.434739	1	4.368716	19.17241	-4.201895E-005	-0.0002683	10
	3	19	150421.9	4.114725	1.133113	1	4.267892	15.39649	0.0004115	-0.0006713	10
	4	22	119484.4	4.11396	0.8736209	1	4.205697	11.98896	-0.0002384	0.0011398	10
	5	24	94921.88	4.114119	0.682156	1	4.170289	9.414477	-9.37508E-005	0.0007336	10
	6	27	75421.88	4.114899	0.5049153	1	4.145761	6.995463	5.07044E-005	0.0005146	10
	7	29	59859.37	4.117871	0.3543761	1	4.133091	4.918647	0.0001617	0.0001589	10
	8	32	47578.12	4.12274	0.2251801	1	4.128885	3.126334	0.0001327	0.0002008	10
	9	34	37828.12	4.130453	0.1091781	1	4.131896	1.514117	-0.0001566	0.0009658	10
	10	37	30046.88	4.138849	-0.0013145	1	4.138849	-0.0181974	-0.0001122	0.0009999	10
	11	40	23859.38	4.147573	-0.110582	1	4.149047	-1.52725	-0.0001015	0.0009795	10
	12	42	18984.38	4.156541	-0.2228163	1	4.162509	-3.068471	-5.054989E-005	0.0005707	10
	13	44	15046.87	4.167569	-0.3450753	1	4.181831	-4.733302	-1.53418E-005	0.000801	10
	14	46	11953.13	4.181918	-0.4840509	1	4.209838	-6.602522	0.0001003	0.0005944	10
	15	49	9515.62	4.197892	-0.6433264	1	4.246901	-8.712785	-0.0001616	0.0008872	10
	16	51	7546.875	4.216781	-0.8364531	1	4.298941	-11.21972	-0.0001606	0.0008929	10
	17	53	5928.309	4.242567	-1.079647	1	4.377786	-14.27756	0.0001316	0.0002898	10
	18	56	4733.456	4.271817	-1.356401	1	4.481991	-17.61585	-5.802347E-005	0.0005871	10
	19	58	3796.875	4.307923	-1.686785	1	4.626385	-21.38303	-0.0000994	0.0007099	10
	20	60	2987.132	4.354536	-2.13216	1	4.848514	-26.08828	-0.0001056	0.0007081	10
	21	63	2390.625	4.412475	-2.640938	1	5.14242	-30.90121	-4.228652E-006	0.0004607	10
	22	65	1884.191	4.490959	-3.31693	1	5.583076	-36.44881	-6.608301E-005	0.0009213	10
	23	67	1516.544	4.584074	-4.070249	1	6.130307	-41.60222	-0.000158	0.0010076	10
	24	70	1193.986	4.714806	-5.097137	1	6.943357	-47.23145	-8.174485E-006	0.0008262	10
	25	72	946.5144	4.886128	-6.329894	1	7.996362	-52.33498	-0.0001034	0.0007169	10
	26	74	751.7689	5.091669	-7.852463	1	9.358753	-57.03995	0.0001338	0.0004658	10
	27	77	597.4265	5.370145	-9.70731	1	11.09371	-61.04835	4.866291E-005	0.0003821	10
	28	79	477.4305	5.714183	-11.93438	1	13.23183	-64.41489	-3.112758E-006	0.0006586	10
	29	81	376.6741	6.181102	-14.82465	1	16.06164	-67.36642	-3.165741E-006	0.0006544	10
	30	84	298.2954	6.766116	-18.32994	1	19.53886	-69.73943	-3.311583E-006	0.0006601	10
	31	86	237.7717	7.481148	-22.50546	1	23.71631	-71.61243	-3.403149E-006	0.0006557	10
	32	88	189.0121	8.384702	-27.68673	1	28.9285	-73.15149	-3.181316E-006	0.0006582	10
	33	91	150.2404	9.51103	-34.0376	1	35.34145	-74.3882	-3.046015E-006	0.0006546	10
	34	93	119.1737	10.92287	-41.86803	1	43.2694	-75.37813	-3.666121E-007	5.362877E-005	9
	35	96	95.0169	12.67881	-51.31423	1	52.85738	-76.12123	-3.809546E-007	5.728523E-005	9
	36	98	75.60484	14.92991	-63.00083	1	64.7457	-76.66801	-4.54651E-007	5.53612E-005	9
	37	101	54.50582	19.32155	-84.45292	1	86.63497	-77.11338	-4.311583E-007	4.828694E-005	9
	38	103	45.95588	22.36485	-98.3498	1	100.8606	-77.18874	-3.780943E-007	6.00798E-005	9
	39	106	37.20238	27.06527	-118.6504	1	121.6982	-77.15016	-2.865391E-007	5.705661E-005	9
	40	108	30.04808	33.16616	-143.2254	1	147.0153	-76.96204	-3.588623E-007	5.803928E-005	9
	41	110	23.91582	41.68879	-174.9434	1	179.842	-76.59647	-4.723049E-007	5.261898E-005	9
	42	113	18.60119	53.98716	-217.1787	1	223.7883	-76.04014	-1.092094E-007	5.537676E-005	9
	43	115	15.02404	67.52129	-260.4225	1	269.0334	-75.46465	-3.064589E-007	4.679622E-005	9
	44	117	12.01923	85.45925	-313.9216	1	325.346	-74.77134	-1.767714E-007	6.438705E-005	9
	45	120	9.450605	109.8825	-382.6601	1	398.1243	-73.97836	-3.095086E-007	4.786692E-005	9
	46	122	7.512019	139.0757	-459.3609	1	479.9526	-73.15583	-2.939321E-007	0.0006232	8
	47	125	5.978954	175.8673	-551.368	1	578.7366	-72.30911	-2.477666E-007	0.0006376	8
	48	128	4.734848	223.6177	-663.6962	1	700.3552	-71.3799	-2.728772E-007	0.0006528	8
	49	131	3.75601	283.4325	-796.589	1	845.5105	-70.41405	-2.999175E-007	0.000632	8
	50	135	3.004808	356.794	-947.2921	1	1012.257	-69.36131	-3.351097E-007	0.0006622	8
	51	138	2.372217	458.8763	-1135.531	1	1224.745	-67.99602	-3.094057E-007	0.0007082	8
	52	142	1.878005	588.7425	-1353.863	1	1476.334	-66.49765	-3.728183E-007	0.0006107	8
	53	147	1.512097	743.9105	-1582.102	1	1748.27	-64.8169	-3.126258E-007	0.0006394	8
	54	153	1.201923	963.697	-1860.881	1	2095.612	-62.62167	-3.387357E-007	0.0006075	8
	55	159	0.956633	1244.493	-2157.556	1	2490.745	-60.02335	-4.497591E-007	-2.33688E-006	8
