EXPLAIN
TAG	EISPOT
TITLE	LABEL	Potentiostatic EIS	Test Identifier
DATE	LABEL	9/11/2020	Date
TIME	LABEL	18:17:53	Time
NOTES	NOTES	1	Notes...
	
PSTAT	PSTAT	REF3000-16137	Potentiostat
VDC	POTEN	0.00000E+000	T	DC Voltage (V)
FREQINIT	QUANT	3.00000E+005	Initial Freq. (Hz)
FREQFINAL	QUANT	1.00000E+000	Final Freq. (Hz)
PTSPERDEC	QUANT	1.00000E+001	Points/decade
VAC	QUANT	5.00000E+001	AC Voltage (mV rms)
AREA	QUANT	1.00000E+000	Sample Area (cm^2)
SPEED	SELECTOR	2	Optimize for:
ZGUESS	QUANT	1.00000E+003	Estimated Z (ohms)
EOC	QUANT	0	Open Circuit (V)
SEQUENCER	TOGGLE	TRUE	Run as Sequence
PSTATMODEL	IQUANT	5	Pstat Model
PSTATSECTION	LABEL	REF3000-16137	Pstat Section
PSTATSERIALNO	LABEL	16137	Pstat Serial Number
CTRLMODE	IQUANT	1	Control Mode
IESTAB	IQUANT	0	I/E Stability
CASPEED	IQUANT	1	Control Amp Speed
CONVENTION	IQUANT	1	Current Convention
ICHRANGE	IQUANT	2	Ich Range
ICHRANGEMODE	TOGGLE	F	Ich Auto Range
ICHOFFSETENABLE	TOGGLE	T	Ich Offset Enable
ICHOFFSET	QUANT	0	Ich Offset (V)
ICHFILTER	IQUANT	3	Ich Filter
VCHRANGE	IQUANT	2	Vch Range
VCHRANGEMODE	TOGGLE	F	Vch Auto Range
VCHOFFSETENABLE	TOGGLE	T	Vch Offset Enable
VCHOFFSET	QUANT	0	Vch Offset (V)
VCHFILTER	IQUANT	3	Vch Filter
ACHRANGE	IQUANT	2	Ach Range
ACHOFFSETENABLE	TOGGLE	F	Ach Offset Enable
ACHOFFSET	QUANT	0	Ach Offset (V)
ACHFILTER	IQUANT	3	Ach Filter
IERANGELOWERLIMIT	IQUANT	2	I/E Range Lower Limit
IERANGEMODE	TOGGLE	F	I/E AutoRange
IERANGE	IQUANT	11	I/E Range
POSFEEDENABLE	TOGGLE	F	Positive Feedback IR Comp
POSFEEDRESISTANCE	QUANT	0	Positive Feedback Resistance (ohm)
ACHSELECT	IQUANT	0	Ach Select
CABLEID	IQUANT	13	Cable ID
DCCALDATE	LABEL	7/31/2020	DC Calibration Date
ACCALDATE	LABEL	7/31/2020	AC Calibration Date
THERMOSELECT	IQUANT	1	Thermo Select
FRAMEWORKVERSION	QUANT	6.33	Framework Version
INSTRUMENTVERSION	LABEL	3.50	Instrument Version
COMPLIANCEVOLTAGE	IQUANT	0	Compliance Voltage
ZCURVE	TABLE
	Pt	Time	Freq	Zreal	Zimag	Zsig	Zmod	Zphz	Idc	Vdc	IERange
	#	s	Hz	ohm	ohm	V	ohm	°	A	V	#
	0	7	300046.9	68.96244	5.895361	1	69.21397	4.886139	0.0004671	-0.0094066	9
	1	10	238359.4	67.34369	4.872651	1	67.51974	4.138422	-0.0005314	0.0174536	9
	2	13	189328.1	66.91602	3.621794	1	67.01395	3.098081	-0.0001806	-0.0037014	9
	3	16	150421.9	66.92755	2.740058	1	66.98362	2.344418	-0.000477	0.0120687	9
	4	19	119484.4	67.29104	2.043197	1	67.32205	1.739171	0.0003639	-0.0035413	9
	5	23	94921.88	67.4136	1.766185	1	67.43674	1.500762	0.0001389	-0.0009693	9
	6	25	75421.88	67.7418	1.31839	1	67.75462	1.114949	-0.0001831	0.0068676	9
	7	28	59859.37	68.0072	1.032676	1	68.01505	0.8699584	0.0001743	-0.0068829	9
	8	30	47578.12	68.28957	0.6173875	1	68.29237	0.5179815	-0.0001864	0.0045379	9
	9	33	37828.12	68.5584	0.3204299	1	68.55914	0.2677885	0.0001675	-0.0066465	9
	10	35	30046.88	69.21048	-0.0578984	1	69.2105	-0.0479311	-0.0001677	0.0071346	9
	11	38	23859.38	69.3119	-0.0806247	1	69.31195	-0.0666473	1.490488E-005	0.0038652	9
	12	40	18984.38	69.51796	-0.1748331	1	69.51818	-0.1440948	-0.0001021	0.0064868	9
	13	43	15046.87	69.8867	-0.5456662	1	69.88883	-0.4473488	0.0001949	-0.0063566	9
	14	45	11953.13	69.70757	-0.6344353	1	69.71045	-0.5214565	-0.0001907	0.0046895	9
	15	47	9515.62	70.38244	-0.812326	1	70.38712	-0.6612556	-0.0001797	0.0067276	9
	16	50	7546.875	70.53712	-1.05195	1	70.54497	-0.854413	-0.0001961	0.0048765	9
	17	52	5928.309	70.98894	-1.522782	1	71.00526	-1.228862	4.059518E-005	-0.0051814	9
	18	55	4733.456	71.29387	-1.808221	1	71.3168	-1.452877	-0.0001928	0.0048321	9
	19	57	3796.875	71.81867	-2.306714	1	71.85571	-1.839627	0.0001743	-0.0026836	9
	20	60	2987.132	72.05157	-2.793184	1	72.10569	-2.220042	-0.0001715	0.0066162	9
	21	63	2390.625	72.42325	-3.431602	1	72.5045	-2.712794	0.0001443	-0.0005601	9
	22	65	1884.191	73.18597	-4.700985	1	73.33679	-3.675255	7.595475E-006	0.0043143	9
	23	68	1516.544	73.22149	-5.414685	1	73.42142	-4.22929	0.0001771	-0.00679	9
	24	70	1193.986	73.73071	-6.895043	1	74.05241	-5.342567	-0.000142	0.0009917	9
	25	73	946.5144	74.28422	-8.615657	1	74.78218	-6.615739	0.000205	-0.0062351	9
	26	75	751.7689	74.772	-10.63402	1	75.5244	-8.094285	0.0001778	-0.0067467	9
	27	78	597.4265	75.36953	-13.35397	1	76.54342	-10.04739	-4.302721E-005	0.0056498	9
	28	80	477.4305	75.94363	-16.48242	1	77.71168	-12.24528	1.113453E-007	5.775052E-005	9
	29	83	376.6741	76.65285	-20.61623	1	79.37688	-15.0538	1.44416E-007	5.485132E-005	9
	30	85	298.2954	77.46191	-25.69366	1	81.61196	-18.35038	5.807507E-007	4.203936E-005	9
	31	87	237.7717	78.41547	-31.81635	1	84.62426	-22.0844	7.724703E-007	-1.779156E-005	9
	32	90	189.0121	79.56422	-39.48672	1	88.82379	-26.39463	1.397928E-007	6.361889E-005	9
	33	92	150.2404	80.95383	-48.99219	1	94.62429	-31.18177	2.786492E-007	6.440646E-005	9
	34	95	119.1737	82.66522	-60.87281	1	102.6598	-36.3671	4.227775E-007	5.882392E-005	9
	35	97	95.0169	84.73553	-75.21065	1	113.2994	-41.59203	7.547796E-007	-1.083875E-005	9
	36	99	75.60484	87.33553	-93.05917	1	127.6225	-46.8173	4.951946E-007	3.606442E-005	9
	37	102	54.50582	92.07257	-126.0791	1	156.1195	-53.86024	1.765102E-007	7.1216E-005	9
	38	105	45.95588	95.4047	-147.6878	1	175.823	-57.13798	1.869392E-007	6.081404E-005	9
	39	107	37.20238	100.2806	-179.4934	1	205.6066	-60.80848	4.519756E-007	4.74372E-005	9
	40	109	30.04808	106.4338	-218.5405	1	243.0804	-64.03295	4.27922E-007	3.572867E-005	9
	41	112	23.91582	114.6996	-269.4532	1	292.8499	-66.94173	5.758504E-007	3.216625E-005	9
	42	114	18.60119	126.2358	-338.9073	1	361.6541	-69.5707	4.389065E-007	3.916596E-005	9
	43	116	15.02404	138.0504	-409.6564	1	432.2919	-71.37666	-1.735846E-007	0.0006099	8
	44	119	12.01923	154.1028	-501.1978	1	524.3538	-72.90896	-9.916254E-008	0.0006492	8
	45	121	9.450605	175.6625	-622.3052	1	646.6229	-74.23685	-1.075606E-007	0.0006303	8
	46	124	7.512019	200.8208	-764.9389	1	790.8607	-75.28999	-6.242024E-008	0.0005977	8
	47	126	5.978954	232.0225	-938.274	1	966.536	-76.11018	-2.412257E-008	0.0006006	8
	48	129	4.734848	271.1125	-1157.688	1	1189.009	-76.81974	-1.670089E-007	0.0006461	8
	49	133	3.75601	319.7042	-1425.018	1	1460.441	-77.35502	-4.081253E-008	0.0005752	8
	50	136	3.004808	377.4581	-1739.992	1	1780.462	-77.76041	-1.453342E-007	0.0006842	8
	51	140	2.372217	457.2267	-2148.641	1	2196.751	-77.98676	-9.205058E-008	0.0006154	8
	52	144	1.878005	559.4045	-2656.627	1	2714.885	-78.10898	-4.978591E-008	0.0006153	8
	53	149	1.512097	675.0101	-3225.393	1	3295.27	-78.17974	-7.878082E-008	0.0007133	8
	54	154	1.201923	843.7867	-3963.633	1	4052.451	-77.98215	-5.139896E-008	0.0006207	8
	55	160	0.956633	1055.281	-4860.969	1	4974.197	-77.75156	-4.92007E-008	-3.439941E-005	7
