EXPLAIN
TAG	EISPOT
TITLE	LABEL	Potentiostatic EIS	Test Identifier
DATE	LABEL	9/11/2020	Date
TIME	LABEL	17:44:22	Time
NOTES	NOTES	1	Notes...
	
PSTAT	PSTAT	REF3000-16137	Potentiostat
VDC	POTEN	0.00000E+000	T	DC Voltage (V)
FREQINIT	QUANT	3.00000E+005	Initial Freq. (Hz)
FREQFINAL	QUANT	1.00000E+000	Final Freq. (Hz)
PTSPERDEC	QUANT	1.00000E+001	Points/decade
VAC	QUANT	5.00000E+001	AC Voltage (mV rms)
AREA	QUANT	1.00000E+000	Sample Area (cm^2)
SPEED	SELECTOR	2	Optimize for:
ZGUESS	QUANT	1.00000E+003	Estimated Z (ohms)
EOC	QUANT	0	Open Circuit (V)
SEQUENCER	TOGGLE	TRUE	Run as Sequence
PSTATMODEL	IQUANT	5	Pstat Model
PSTATSECTION	LABEL	REF3000-16137	Pstat Section
PSTATSERIALNO	LABEL	16137	Pstat Serial Number
CTRLMODE	IQUANT	1	Control Mode
IESTAB	IQUANT	0	I/E Stability
CASPEED	IQUANT	1	Control Amp Speed
CONVENTION	IQUANT	1	Current Convention
ICHRANGE	IQUANT	2	Ich Range
ICHRANGEMODE	TOGGLE	F	Ich Auto Range
ICHOFFSETENABLE	TOGGLE	T	Ich Offset Enable
ICHOFFSET	QUANT	0	Ich Offset (V)
ICHFILTER	IQUANT	3	Ich Filter
VCHRANGE	IQUANT	2	Vch Range
VCHRANGEMODE	TOGGLE	F	Vch Auto Range
VCHOFFSETENABLE	TOGGLE	T	Vch Offset Enable
VCHOFFSET	QUANT	0	Vch Offset (V)
VCHFILTER	IQUANT	3	Vch Filter
ACHRANGE	IQUANT	2	Ach Range
ACHOFFSETENABLE	TOGGLE	F	Ach Offset Enable
ACHOFFSET	QUANT	0	Ach Offset (V)
ACHFILTER	IQUANT	3	Ach Filter
IERANGELOWERLIMIT	IQUANT	2	I/E Range Lower Limit
IERANGEMODE	TOGGLE	F	I/E AutoRange
IERANGE	IQUANT	11	I/E Range
POSFEEDENABLE	TOGGLE	F	Positive Feedback IR Comp
POSFEEDRESISTANCE	QUANT	0	Positive Feedback Resistance (ohm)
ACHSELECT	IQUANT	0	Ach Select
CABLEID	IQUANT	13	Cable ID
DCCALDATE	LABEL	7/31/2020	DC Calibration Date
ACCALDATE	LABEL	7/31/2020	AC Calibration Date
THERMOSELECT	IQUANT	1	Thermo Select
FRAMEWORKVERSION	QUANT	6.33	Framework Version
INSTRUMENTVERSION	LABEL	3.50	Instrument Version
COMPLIANCEVOLTAGE	IQUANT	0	Compliance Voltage
ZCURVE	TABLE
	Pt	Time	Freq	Zreal	Zimag	Zsig	Zmod	Zphz	Idc	Vdc	IERange
	#	s	Hz	ohm	ohm	V	ohm	°	A	V	#
	0	8	300046.9	7.140336	2.31555	1	7.506409	17.96743	-0.000376	0.0016593	10
	1	11	238359.4	7.119837	1.818279	1	7.348348	14.3261	-0.000506	0.0014443	10
	2	14	189328.1	7.113843	1.42869	1	7.255889	11.35578	-0.0005028	0.0020179	10
	3	16	150421.9	7.108657	1.105381	1	7.194086	8.838589	0.0004436	-0.0013644	10
	4	19	119484.4	7.115299	0.8599459	1	7.167076	6.891271	-0.0002578	0.0018677	10
	5	22	94921.88	7.128718	0.6790773	1	7.160989	5.441541	-0.0001792	0.0009096	10
	6	24	75421.88	7.133504	0.4973297	1	7.15082	3.988062	0.0001427	4.173162E-007	10
	7	27	59859.37	7.146494	0.34341	1	7.15474	2.751114	-0.000179	0.0010207	10
	8	29	47578.12	7.161508	0.2091986	1	7.164562	1.673221	-0.0001678	0.0008738	10
	9	32	37828.12	7.176843	0.0876724	1	7.177379	0.6998913	-0.0001875	0.0010204	10
	10	34	30046.88	7.193771	-0.0253038	1	7.193815	-0.2015346	-0.00019	0.0009855	10
	11	37	23859.38	7.209912	-0.1372668	1	7.211218	-1.090701	0.000148	6.461177E-005	10
	12	39	18984.38	7.229462	-0.2553962	1	7.233972	-2.023254	0.0001123	8.721302E-005	10
	13	41	15046.87	7.253453	-0.3868222	1	7.26376	-3.052657	0.0001552	0.0005457	10
	14	44	11953.13	7.272401	-0.5323269	1	7.291858	-4.186483	-0.0001273	0.0006636	10
	15	46	9515.62	7.297092	-0.7004955	1	7.330637	-5.483394	-5.579413E-007	0.0009963	10
	16	48	7546.875	7.325285	-0.9068081	1	7.3812	-7.056829	0.0001154	0.0005987	10
	17	51	5928.309	7.358673	-1.16899	1	7.450946	-9.026514	-0.000113	0.0011916	10
	18	53	4733.456	7.392094	-1.463979	1	7.535668	-11.20227	0.0001721	0.0003956	10
	19	55	3796.875	7.438736	-1.822865	1	7.658827	-13.76903	0.0001458	8.992404E-005	10
	20	58	2987.132	7.495894	-2.302815	1	7.841644	-17.07749	0.0001121	8.725977E-005	10
	21	60	2390.625	7.559816	-2.849372	1	8.078969	-20.65194	0.0001468	6.007258E-005	10
	22	62	1884.191	7.643968	-3.575841	1	8.43901	-25.07015	-6.087493E-005	0.0011088	10
	23	65	1516.544	7.743606	-4.399254	1	8.906002	-29.60153	-0.0001714	0.0008994	10
	24	67	1193.986	7.876078	-5.51416	1	9.6145	-34.99644	0.0001106	7.448204E-005	10
	25	69	946.5144	8.047793	-6.857984	1	10.5735	-40.43621	-6.635737E-005	0.0004785	10
	26	72	751.7689	8.247869	-8.519589	1	11.85794	-45.92841	-0.0001243	0.0006888	10
	27	74	597.4265	8.523117	-10.56055	1	13.57088	-51.09401	-7.715185E-005	0.0005085	10
	28	76	477.4305	8.855509	-13.01992	1	15.74606	-55.77839	-3.03814E-006	0.000653	10
	29	79	376.6741	9.313932	-16.22485	1	18.70815	-60.14186	-2.673611E-006	0.0006518	10
	30	81	298.2954	9.89814	-20.12855	1	22.4306	-63.81452	-2.520033E-006	0.0006486	10
	31	83	237.7717	10.62342	-24.79281	1	26.97295	-66.80545	-3.624672E-006	0.0006639	10
	32	86	189.0121	11.56682	-30.58544	1	32.69955	-69.28436	-2.748628E-006	0.0006562	10
	33	88	150.2404	12.74993	-37.68189	1	39.78047	-71.30639	-3.0839E-006	0.0006579	10
	34	91	119.1737	14.23248	-46.4148	1	48.54789	-72.95255	2.268963E-007	5.948791E-005	9
	35	93	95.0169	16.04932	-56.93127	1	59.15023	-74.25648	4.786391E-008	6.172132E-005	9
	36	95	75.60484	18.3222	-69.93134	1	72.29173	-75.31836	5.88195E-008	6.022034E-005	9
	37	98	54.50582	22.57854	-93.84738	1	96.5252	-76.47243	3.823848E-008	5.502505E-005	9
	38	100	45.95588	25.43174	-109.4314	1	112.3477	-76.91676	1.287394E-007	6.283003E-005	9
	39	103	37.20238	29.74024	-132.3234	1	135.6243	-77.33302	3.990011E-008	6.529863E-005	9
	40	105	30.04808	35.22938	-160.337	1	164.1617	-77.60783	6.043903E-008	6.801941E-005	9
	41	108	23.91582	42.71157	-196.6085	1	201.1944	-77.74341	2.795098E-007	5.182224E-005	9
	42	110	18.60119	53.66255	-246.0873	1	251.8702	-77.69848	4.14576E-007	6.037669E-005	9
	43	112	15.02404	65.83047	-297.3071	1	304.5081	-77.51487	2.963676E-007	6.88012E-005	9
	44	115	12.01923	82.31985	-361.6845	1	370.9343	-77.17783	1.683955E-007	4.678298E-005	9
	45	117	9.450605	104.9162	-443.5919	1	455.8303	-76.69321	8.202308E-008	0.0006456	8
	46	119	7.512019	133.1903	-539.605	1	555.7996	-76.13487	4.268814E-008	0.0006179	8
	47	122	5.978954	168.8573	-654.1544	1	675.5966	-75.52615	1.254735E-007	0.0005855	8
	48	125	4.734848	214.8424	-794.1796	1	822.7262	-74.86259	9.780565E-008	0.000612	8
	49	128	3.75601	271.8399	-960.518	1	998.244	-74.19775	1.860206E-007	0.0006614	8
	50	132	3.004808	339.6124	-1150.939	1	1199.998	-73.56003	1.594958E-007	0.0006333	8
	51	136	2.372217	429.6432	-1391.295	1	1456.123	-72.83889	1.175038E-007	0.00061	8
	52	140	1.878005	540.9461	-1682.125	1	1766.966	-72.173	1.754783E-007	0.0006247	8
	53	145	1.512097	665.4772	-1999.81	1	2107.629	-71.59409	1.412605E-007	0.0006972	8
	54	150	1.201923	840.2486	-2404.019	1	2546.63	-70.73454	1.723807E-007	0.0006312	8
	55	156	0.956633	1057.126	-2879.357	1	3067.281	-69.83982	8.753138E-008	-5.98204E-006	8
