EXPLAIN
TAG	EISPOT
TITLE	LABEL	Potentiostatic EIS	Test Identifier
DATE	LABEL	9/11/2020	Date
TIME	LABEL	17:19:12	Time
NOTES	NOTES	1	Notes...
	
PSTAT	PSTAT	REF3000-16137	Potentiostat
VDC	POTEN	0.00000E+000	T	DC Voltage (V)
FREQINIT	QUANT	3.00000E+005	Initial Freq. (Hz)
FREQFINAL	QUANT	1.00000E+000	Final Freq. (Hz)
PTSPERDEC	QUANT	1.00000E+001	Points/decade
VAC	QUANT	5.00000E+001	AC Voltage (mV rms)
AREA	QUANT	1.00000E+000	Sample Area (cm^2)
SPEED	SELECTOR	2	Optimize for:
ZGUESS	QUANT	1.00000E+003	Estimated Z (ohms)
EOC	QUANT	0	Open Circuit (V)
SEQUENCER	TOGGLE	TRUE	Run as Sequence
PSTATMODEL	IQUANT	5	Pstat Model
PSTATSECTION	LABEL	REF3000-16137	Pstat Section
PSTATSERIALNO	LABEL	16137	Pstat Serial Number
CTRLMODE	IQUANT	1	Control Mode
IESTAB	IQUANT	0	I/E Stability
CASPEED	IQUANT	1	Control Amp Speed
CONVENTION	IQUANT	1	Current Convention
ICHRANGE	IQUANT	2	Ich Range
ICHRANGEMODE	TOGGLE	F	Ich Auto Range
ICHOFFSETENABLE	TOGGLE	T	Ich Offset Enable
ICHOFFSET	QUANT	0	Ich Offset (V)
ICHFILTER	IQUANT	3	Ich Filter
VCHRANGE	IQUANT	2	Vch Range
VCHRANGEMODE	TOGGLE	F	Vch Auto Range
VCHOFFSETENABLE	TOGGLE	T	Vch Offset Enable
VCHOFFSET	QUANT	0	Vch Offset (V)
VCHFILTER	IQUANT	3	Vch Filter
ACHRANGE	IQUANT	2	Ach Range
ACHOFFSETENABLE	TOGGLE	F	Ach Offset Enable
ACHOFFSET	QUANT	0	Ach Offset (V)
ACHFILTER	IQUANT	3	Ach Filter
IERANGELOWERLIMIT	IQUANT	2	I/E Range Lower Limit
IERANGEMODE	TOGGLE	F	I/E AutoRange
IERANGE	IQUANT	11	I/E Range
POSFEEDENABLE	TOGGLE	F	Positive Feedback IR Comp
POSFEEDRESISTANCE	QUANT	0	Positive Feedback Resistance (ohm)
ACHSELECT	IQUANT	0	Ach Select
CABLEID	IQUANT	13	Cable ID
DCCALDATE	LABEL	7/31/2020	DC Calibration Date
ACCALDATE	LABEL	7/31/2020	AC Calibration Date
THERMOSELECT	IQUANT	1	Thermo Select
FRAMEWORKVERSION	QUANT	6.33	Framework Version
INSTRUMENTVERSION	LABEL	3.50	Instrument Version
COMPLIANCEVOLTAGE	IQUANT	0	Compliance Voltage
ZCURVE	TABLE
	Pt	Time	Freq	Zreal	Zimag	Zsig	Zmod	Zphz	Idc	Vdc	IERange
	#	s	Hz	ohm	ohm	V	ohm	°	A	V	#
	0	10	300046.9	3.536081	2.30957	1	4.223504	33.15031	-9.41794E-005	-0.0001003	10
	1	13	238359.4	3.483851	1.822053	1	3.931551	27.60956	0.0001746	-0.0010026	10
	2	16	189328.1	3.472432	1.441736	1	3.759839	22.54797	-0.0001443	-0.0001045	10
	3	19	150421.9	3.453004	1.123223	1	3.631097	18.01912	-1.98097E-005	0.000365	10
	4	21	119484.4	3.450946	0.8766697	1	3.560559	14.25376	4.808129E-005	0.0003931	10
	5	24	94921.88	3.450646	0.6834448	1	3.517677	11.20317	1.188731E-005	0.0005493	10
	6	26	75421.88	3.448689	0.5068012	1	3.485728	8.360051	4.933963E-005	0.0004639	10
	7	29	59859.37	3.448929	0.3381374	1	3.465465	5.599458	-0.0002346	0.0005172	11
	8	31	47578.12	3.452005	0.2142336	1	3.458646	3.551258	0.0001003	0.0005952	11
	9	34	37828.12	3.454928	0.1024801	1	3.456447	1.699009	0.0001886	0.0006211	11
	10	36	30046.88	3.461653	-0.0025471	1	3.461653	-0.0421586	-8.109583E-005	0.0007351	11
	11	39	23859.38	3.467575	-0.1074189	1	3.469239	-1.774346	-0.0001562	0.0006458	11
	12	41	18984.38	3.475185	-0.2148363	1	3.481819	-3.537529	-3.24475E-005	0.0006167	11
	13	44	15046.87	3.483918	-0.3335767	1	3.499851	-5.46926	0.0001198	0.0006822	11
	14	46	11953.13	3.495807	-0.4683194	1	3.527037	-7.630258	0.000123	0.0006795	11
	15	48	9515.62	3.513423	-0.6205158	1	3.567797	-10.01589	-0.0001023	0.0009456	10
	16	50	7546.875	3.530226	-0.8082232	1	3.621563	-12.89527	8.429238E-005	0.0006188	10
	17	53	5928.309	3.553566	-1.044327	1	3.703843	-16.37708	-9.092939E-005	0.000694	10
	18	55	4733.456	3.580832	-1.314028	1	3.814319	-20.1512	-0.000151	0.0009481	10
	19	57	3796.875	3.614629	-1.634249	1	3.966902	-24.32872	-0.0001026	0.0007142	10
	20	60	2987.132	3.661839	-2.063448	1	4.203199	-29.40128	-0.0001008	0.000715	10
	21	62	2390.625	3.718207	-2.556012	1	4.512013	-34.50585	-8.872792E-006	0.0008156	10
	22	64	1884.191	3.798418	-3.20539	1	4.970161	-40.16018	-0.0001553	0.0008722	10
	23	67	1516.544	3.888726	-3.932507	1	5.530533	-45.32072	-9.194808E-005	0.0007017	10
	24	69	1193.986	4.020842	-4.9214	1	6.355104	-50.75077	0.0001456	0.000364	10
	25	72	946.5144	4.19234	-6.108486	1	7.408732	-55.53764	0.00015	0.0003439	10
	26	74	751.7689	4.407113	-7.56371	1	8.75399	-59.77212	5.164874E-005	0.0004308	10
	27	76	597.4265	4.682354	-9.346128	1	10.45345	-63.3894	-0.0001512	0.0008705	10
	28	78	477.4305	5.027881	-11.47399	1	12.52725	-66.33706	-3.118825E-006	0.0006589	10
	29	81	376.6741	5.492401	-14.23355	1	15.25649	-68.89954	-3.071985E-006	0.0006536	10
	30	83	298.2954	6.070184	-17.5788	1	18.59735	-70.94955	-3.633603E-006	0.00066	10
	31	85	237.7717	6.772929	-21.56412	1	22.60274	-72.56337	-4.126866E-006	0.0006545	10
	32	88	189.0121	7.663321	-26.50865	1	27.59411	-73.87608	-3.663174E-006	0.0006619	10
	33	90	150.2404	8.783298	-32.58293	1	33.74601	-74.91352	-3.711573E-006	0.0006575	10
	34	93	119.1737	10.21534	-40.11528	1	41.39552	-75.7133	-3.266471E-006	0.0006594	10
	35	95	95.0169	11.99352	-49.08323	1	50.52729	-76.2688	-6.795913E-007	5.844589E-005	9
	36	98	75.60484	14.32186	-60.21265	1	61.89248	-76.62055	-6.483846E-007	5.962663E-005	9
	37	100	54.50582	18.93964	-80.56525	1	82.76152	-76.77086	-9.222284E-007	5.375568E-005	9
	38	103	45.95588	22.14684	-93.67444	1	96.2569	-76.69818	-6.556497E-007	6.217362E-005	9
	39	105	37.20238	27.16051	-112.7905	1	116.0147	-76.46067	-8.641273E-007	6.732973E-005	9
	40	107	30.04808	33.6014	-135.6925	1	139.7909	-76.09168	-7.948297E-007	5.690004E-005	9
	41	110	23.91582	42.54538	-165.0484	1	170.4438	-75.54525	-3.801246E-007	3.088209E-006	9
	42	112	18.60119	55.43493	-203.9732	1	211.372	-74.79565	-4.841792E-007	5.568924E-005	9
	43	114	15.02404	69.53329	-243.5602	1	253.2912	-74.06664	-8.000382E-007	5.244733E-005	9
	44	117	12.01923	87.94371	-292.2875	1	305.2312	-73.25446	-6.462515E-007	5.238178E-005	9
	45	119	9.450605	113.2121	-354.709	1	372.3378	-72.29853	-6.63034E-007	6.59625E-005	9
	46	122	7.512019	143.0694	-423.5795	1	447.0888	-71.33694	-5.38959E-007	0.000652	8
	47	124	5.978954	181.1426	-506.7446	1	538.1475	-70.3299	-5.717116E-007	0.0006347	8
	48	127	4.734848	231.4088	-607.0073	1	649.6213	-69.13171	-5.636936E-007	0.0006634	8
	49	131	3.75601	295.7293	-724.1696	1	782.2259	-67.78636	-6.964679E-007	0.0006261	8
	50	134	3.004808	375.9487	-854.5317	1	933.5748	-66.25304	-6.851275E-007	0.000657	8
	51	138	2.372217	488.3628	-1011.495	1	1123.219	-64.22816	-6.797452E-007	0.0006911	8
	52	142	1.878005	633.3148	-1187.774	1	1346.066	-61.9337	-7.882335E-007	0.0006261	8
	53	147	1.512097	802.2462	-1360.803	1	1579.678	-59.479	-6.979464E-007	0.0005955	8
	54	152	1.201923	1035.742	-1550.389	1	1864.529	-56.25498	-7.237804E-007	0.0006182	8
	55	158	0.956633	1316.115	-1728.01	1	2172.137	-52.7058	-8.583096E-007	-2.254471E-006	8
