EXPLAIN
TAG	EISPOT
TITLE	LABEL	Potentiostatic EIS	Test Identifier
DATE	LABEL	9/11/2020	Date
TIME	LABEL	17:52:39	Time
NOTES	NOTES	1	Notes...
	
PSTAT	PSTAT	REF3000-16137	Potentiostat
VDC	POTEN	0.00000E+000	T	DC Voltage (V)
FREQINIT	QUANT	3.00000E+005	Initial Freq. (Hz)
FREQFINAL	QUANT	1.00000E+000	Final Freq. (Hz)
PTSPERDEC	QUANT	1.00000E+001	Points/decade
VAC	QUANT	5.00000E+001	AC Voltage (mV rms)
AREA	QUANT	1.00000E+000	Sample Area (cm^2)
SPEED	SELECTOR	2	Optimize for:
ZGUESS	QUANT	1.00000E+003	Estimated Z (ohms)
EOC	QUANT	0	Open Circuit (V)
SEQUENCER	TOGGLE	TRUE	Run as Sequence
PSTATMODEL	IQUANT	5	Pstat Model
PSTATSECTION	LABEL	REF3000-16137	Pstat Section
PSTATSERIALNO	LABEL	16137	Pstat Serial Number
CTRLMODE	IQUANT	1	Control Mode
IESTAB	IQUANT	0	I/E Stability
CASPEED	IQUANT	1	Control Amp Speed
CONVENTION	IQUANT	1	Current Convention
ICHRANGE	IQUANT	2	Ich Range
ICHRANGEMODE	TOGGLE	F	Ich Auto Range
ICHOFFSETENABLE	TOGGLE	T	Ich Offset Enable
ICHOFFSET	QUANT	0	Ich Offset (V)
ICHFILTER	IQUANT	3	Ich Filter
VCHRANGE	IQUANT	2	Vch Range
VCHRANGEMODE	TOGGLE	F	Vch Auto Range
VCHOFFSETENABLE	TOGGLE	T	Vch Offset Enable
VCHOFFSET	QUANT	0	Vch Offset (V)
VCHFILTER	IQUANT	3	Vch Filter
ACHRANGE	IQUANT	2	Ach Range
ACHOFFSETENABLE	TOGGLE	F	Ach Offset Enable
ACHOFFSET	QUANT	0	Ach Offset (V)
ACHFILTER	IQUANT	3	Ach Filter
IERANGELOWERLIMIT	IQUANT	2	I/E Range Lower Limit
IERANGEMODE	TOGGLE	F	I/E AutoRange
IERANGE	IQUANT	11	I/E Range
POSFEEDENABLE	TOGGLE	F	Positive Feedback IR Comp
POSFEEDRESISTANCE	QUANT	0	Positive Feedback Resistance (ohm)
ACHSELECT	IQUANT	0	Ach Select
CABLEID	IQUANT	13	Cable ID
DCCALDATE	LABEL	7/31/2020	DC Calibration Date
ACCALDATE	LABEL	7/31/2020	AC Calibration Date
THERMOSELECT	IQUANT	1	Thermo Select
FRAMEWORKVERSION	QUANT	6.33	Framework Version
INSTRUMENTVERSION	LABEL	3.50	Instrument Version
COMPLIANCEVOLTAGE	IQUANT	0	Compliance Voltage
ZCURVE	TABLE
	Pt	Time	Freq	Zreal	Zimag	Zsig	Zmod	Zphz	Idc	Vdc	IERange
	#	s	Hz	ohm	ohm	V	ohm	°	A	V	#
	0	8	300046.9	10.43625	2.254968	1	10.67708	12.19251	0.0005197	-0.0011584	10
	1	11	238359.4	10.42275	1.795668	1	10.5763	9.77516	-0.0003497	0.0019437	10
	2	14	189328.1	10.42842	1.408631	1	10.52313	7.692731	-9.257034E-005	0.0012446	10
	3	17	150421.9	10.44646	1.057243	1	10.49983	5.778992	9.668491E-006	0.0004071	10
	4	20	119484.4	10.45585	0.8246528	1	10.48832	4.509584	-8.810314E-006	0.0006006	10
	5	22	94921.88	10.47004	0.6452311	1	10.4899	3.526475	2.190973E-005	0.0005226	10
	6	25	75421.88	10.4891	0.4674676	1	10.49951	2.551811	-2.168243E-005	0.0005864	10
	7	27	59859.37	10.51521	0.3136506	1	10.51989	1.708527	-2.460994E-005	0.0006518	10
	8	30	47578.12	10.54111	0.1834451	1	10.54271	0.997007	-2.733903E-005	0.0006125	10
	9	32	37828.12	10.56676	0.0648318	1	10.56695	0.3515309	2.266822E-005	0.0005927	10
	10	35	30046.88	10.59647	-0.0475706	1	10.59658	-0.2572154	-5.486154E-006	0.0005885	10
	11	37	23859.38	10.62489	-0.1605984	1	10.62611	-0.8659769	1.02364E-005	0.0006644	10
	12	40	18984.38	10.65157	-0.2796192	1	10.65524	-1.503752	3.338512E-006	0.0006159	10
	13	42	15046.87	10.68406	-0.4123972	1	10.69201	-2.21048	-1.662863E-005	0.0006458	10
	14	44	11953.13	10.71586	-0.5631141	1	10.73065	-3.008103	1.918175E-005	0.0006127	10
	15	47	9515.62	10.75119	-0.7393087	1	10.77658	-3.93377	3.565025E-006	0.0005998	10
	16	49	7546.875	10.79086	-0.953746	1	10.83292	-5.050943	-3.054552E-005	0.0006429	10
	17	51	5928.309	10.83559	-1.225373	1	10.90466	-6.452043	-2.085489E-005	0.0006836	10
	18	53	4733.456	10.88502	-1.535454	1	10.99278	-8.029236	-2.642318E-005	0.0007126	10
	19	56	3796.875	10.93784	-1.913681	1	11.10399	-9.924	-0.0001582	0.001457	10
	20	58	2987.132	11.00068	-2.405119	1	11.26053	-12.33273	-0.0001352	0.0006372	10
	21	60	2390.625	11.08583	-2.98461	1	11.48057	-15.06832	-0.0001129	0.0013622	10
	22	63	1884.191	11.17444	-3.751707	1	11.78742	-18.55897	4.618811E-005	4.012755E-005	10
	23	65	1516.544	11.28149	-4.598182	1	12.18258	-22.17514	0.0001172	-8.434705E-005	10
	24	67	1193.986	11.42517	-5.76298	1	12.79634	-26.76688	-0.0002075	0.0010467	10
	25	70	946.5144	11.61471	-7.181606	1	13.65566	-31.72932	4.985033E-005	4.443235E-005	10
	26	72	751.7689	11.80719	-8.942216	1	14.81125	-37.13858	0.0001872	0.0003802	10
	27	74	597.4265	12.094	-11.08619	1	16.40636	-42.51052	-0.000175	0.0014018	10
	28	77	477.4305	12.42653	-13.66693	1	18.4717	-47.72161	-2.086835E-006	0.0006518	10
	29	79	376.6741	12.8817	-17.05067	1	21.36968	-52.92912	-2.481828E-006	0.0006456	10
	30	81	298.2954	13.45892	-21.18335	1	25.09735	-57.57	-1.89161E-006	0.0006561	10
	31	84	237.7717	14.18266	-26.142	1	29.74142	-61.51912	-2.292393E-006	0.0006582	10
	32	86	189.0121	15.1178	-32.30789	1	35.66999	-64.92374	-2.077301E-006	0.0006558	10
	33	88	150.2404	16.29526	-39.8363	1	43.04029	-67.75272	3.634102E-007	5.397039E-005	9
	34	91	119.1737	17.8272	-49.22068	1	52.34963	-70.09016	5.173979E-007	4.950761E-005	9
	35	93	95.0169	19.71633	-60.4593	1	63.59293	-71.93838	4.095005E-007	5.471276E-005	9
	36	96	75.60484	22.09093	-74.33225	1	77.54543	-73.44849	3.328632E-007	5.793125E-005	9
	37	98	54.50582	26.50395	-99.8016	1	103.2609	-75.12746	1.728972E-007	5.589423E-005	9
	38	101	45.95588	29.40707	-116.3623	1	120.0207	-75.81718	2.980244E-007	6.279851E-005	9
	39	103	37.20238	33.7085	-140.6967	1	144.6783	-76.52688	4.153576E-007	6.30526E-005	9
	40	105	30.04808	39.07948	-170.4775	1	174.8994	-77.08885	4.526598E-007	4.793556E-005	9
	41	108	23.91582	46.33589	-209.3886	1	214.4542	-77.52203	2.081084E-007	5.277509E-005	9
	42	110	18.60119	56.57022	-262.4396	1	268.4673	-77.83572	3.852828E-007	4.686117E-005	9
	43	113	15.02404	67.91651	-317.7685	1	324.9453	-77.93571	5.140453E-007	4.785036E-005	9
	44	115	12.01923	83.14263	-387.98	1	396.7886	-77.90467	3.729489E-007	-1.352868E-005	9
	45	117	9.450605	104.3971	-478.1121	1	489.3771	-77.68264	3.115659E-007	0.0006357	8
	46	120	7.512019	131.3718	-585.0414	1	599.6099	-77.34409	3.41492E-007	0.0006357	8
	47	123	5.978954	165.591	-713.0646	1	732.0393	-76.92625	3.105339E-007	0.0006225	8
	48	126	4.734848	210.7503	-871.8102	1	896.9218	-76.41011	2.016104E-007	0.0006193	8
	49	129	3.75601	267.6508	-1060.104	1	1093.37	-75.83032	2.923542E-007	0.0006445	8
	50	132	3.004808	336.4735	-1276.733	1	1320.326	-75.23582	2.185328E-007	0.000651	8
	51	136	2.372217	427.0058	-1550.266	1	1607.999	-74.6003	2.387721E-007	0.0006536	8
	52	140	1.878005	541.5355	-1878.724	1	1955.215	-73.92057	2.762954E-007	0.000608	8
	53	145	1.512097	666.9906	-2241.47	1	2338.603	-73.42866	2.572511E-007	0.0007145	8
	54	150	1.201923	835.1915	-2700.724	1	2826.917	-72.81592	2.802517E-007	0.0006195	8
	55	157	0.956633	1039.514	-3247.678	1	3409.985	-72.25121	2.144816E-007	-5.089345E-005	8
