May 14, 2026   05:27:08
A.C. Impedance
File: e:\chi_data\r0.62-n0.72-2_t-48.0_f0.1_1000000_v0.txt
Data Source:  Experiment
Instrument Model:  CHI660E
Header: 
Note: 

Init E (V) = 0
High Frequency (Hz) = 1e+6
Low Frequency (Hz) = 0.1
Imp SF
Amplitude (V) = 0.005
Quiet Time (sec) = 2
Cycles (.1-1Hz) = 1

Freq/Hz, Z'/ohm, Z"/ohm, Z/ohm, Phase/deg

8.252e+5, 5.589e+1, 7.299e+0, 5.636e+1, 7.4
6.816e+5, 5.565e+1, 4.681e+0, 5.584e+1, 4.8
5.625e+5, 5.484e+1, 4.166e+0, 5.499e+1, 4.3
4.639e+5, 5.529e+1, 2.953e+0, 5.537e+1, 3.1
3.828e+5, 5.564e+1, 2.534e+0, 5.570e+1, 2.6
3.164e+5, 5.608e+1, 1.895e+0, 5.611e+1, 1.9
2.607e+5, 5.623e+1, 1.543e+0, 5.625e+1, 1.6
2.158e+5, 5.634e+1, 1.140e+0, 5.635e+1, 1.2
1.777e+5, 5.646e+1, 6.247e-1, 5.647e+1, 0.6
1.465e+5, 5.659e+1, 2.363e-1, 5.659e+1, 0.2
1.211e+5, 5.662e+1, 1.401e+0, 5.664e+1, 1.4
9.961e+4, 5.668e+1, 3.121e+0, 5.676e+1, 3.2
8.252e+4, 5.673e+1, 3.829e+0, 5.686e+1, 3.9
6.812e+4, 5.677e+1, 3.635e+0, 5.689e+1, 3.7
5.625e+4, 5.680e+1, 2.846e+0, 5.687e+1, 2.9
4.644e+4, 5.687e+1, 1.951e+0, 5.691e+1, 2.0
3.833e+4, 5.705e+1, 1.177e+0, 5.706e+1, 1.2
3.164e+4, 5.724e+1, 5.995e-1, 5.724e+1, 0.6
2.612e+4, 5.741e+1, 1.319e-1, 5.741e+1, 0.1
2.153e+4, 5.753e+1, -2.854e-1, 5.753e+1, -0.3
1.777e+4, 5.761e+1, -6.896e-1, 5.761e+1, -0.7
1.470e+4, 5.773e+1, -1.109e+0, 5.774e+1, -1.1
1.211e+4, 5.789e+1, -1.520e+0, 5.791e+1, -1.5
1.001e+4, 5.808e+1, -1.949e+0, 5.811e+1, -1.9
8.252e+3, 5.828e+1, -2.450e+0, 5.833e+1, -2.4
6.812e+3, 5.848e+1, -2.999e+0, 5.856e+1, -2.9
5.625e+3, 5.869e+1, -3.606e+0, 5.880e+1, -3.5
4.643e+3, 5.892e+1, -4.293e+0, 5.908e+1, -4.2
3.833e+3, 5.919e+1, -5.078e+0, 5.941e+1, -4.9
3.164e+3, 5.950e+1, -5.996e+0, 5.980e+1, -5.8
2.612e+3, 5.983e+1, -7.075e+0, 6.025e+1, -6.7
2.153e+3, 6.019e+1, -8.326e+0, 6.076e+1, -7.9
1.777e+3, 6.059e+1, -9.788e+0, 6.137e+1, -9.2
1.470e+3, 6.103e+1, -1.151e+1, 6.210e+1, -10.7
1.211e+3, 6.154e+1, -1.353e+1, 6.301e+1, -12.4
1.001e+3, 6.211e+1, -1.586e+1, 6.410e+1, -14.3
8.252e+2, 6.274e+1, -1.859e+1, 6.544e+1, -16.5
6.836e+2, 6.346e+1, -2.190e+1, 6.713e+1, -19.0
5.615e+2, 6.427e+1, -2.590e+1, 6.929e+1, -22.0
4.639e+2, 6.520e+1, -3.071e+1, 7.207e+1, -25.2
3.809e+2, 6.625e+1, -3.636e+1, 7.557e+1, -28.8
3.174e+2, 6.747e+1, -4.311e+1, 8.007e+1, -32.6
2.588e+2, 6.887e+1, -5.116e+1, 8.580e+1, -36.6
2.148e+2, 7.050e+1, -6.080e+1, 9.310e+1, -40.8
1.758e+2, 7.234e+1, -7.217e+1, 1.022e+2, -44.9
1.465e+2, 7.438e+1, -8.525e+1, 1.131e+2, -48.9
1.221e+2, 7.684e+1, -1.016e+2, 1.274e+2, -52.9
9.766e+1, 8.013e+1, -1.207e+2, 1.449e+2, -56.4
8.254e+1, 8.409e+1, -1.427e+2, 1.656e+2, -59.5
6.813e+1, 8.836e+1, -1.695e+2, 1.912e+2, -62.5
5.623e+1, 9.295e+1, -2.017e+2, 2.220e+2, -65.3
4.642e+1, 9.812e+1, -2.402e+2, 2.595e+2, -67.8
3.831e+1, 1.042e+2, -2.863e+2, 3.047e+2, -70.0
3.162e+1, 1.113e+2, -3.414e+2, 3.591e+2, -71.9
2.610e+1, 1.198e+2, -4.069e+2, 4.242e+2, -73.6
2.154e+1, 1.298e+2, -4.850e+2, 5.021e+2, -75.0
1.778e+1, 1.417e+2, -5.781e+2, 5.952e+2, -76.2
1.468e+1, 1.558e+2, -6.894e+2, 7.068e+2, -77.3
1.212e+1, 1.721e+2, -8.225e+2, 8.403e+2, -78.2
1.000e+1, 1.919e+2, -9.816e+2, 1.000e+3, -78.9
8.254e+0, 2.154e+2, -1.172e+3, 1.191e+3, -79.6
6.813e+0, 2.423e+2, -1.399e+3, 1.420e+3, -80.2
5.623e+0, 2.734e+2, -1.671e+3, 1.693e+3, -80.7
4.642e+0, 3.106e+2, -1.996e+3, 2.020e+3, -81.2
3.831e+0, 3.556e+2, -2.384e+3, 2.410e+3, -81.5
3.162e+0, 4.064e+2, -2.850e+3, 2.879e+3, -81.9
2.610e+0, 4.657e+2, -3.407e+3, 3.439e+3, -82.2
2.154e+0, 5.269e+2, -4.085e+3, 4.119e+3, -82.7
1.778e+0, 5.941e+2, -4.900e+3, 4.935e+3, -83.1
1.468e+0, 6.839e+2, -5.861e+3, 5.901e+3, -83.3
1.212e+0, 8.057e+2, -7.000e+3, 7.047e+3, -83.4
1.000e+0, 9.675e+2, -8.351e+3, 8.407e+3, -83.4
8.254e-1, 1.169e+3, -9.954e+3, 1.002e+4, -83.3
6.813e-1, 1.406e+3, -1.186e+4, 1.194e+4, -83.2
5.623e-1, 1.683e+3, -1.412e+4, 1.422e+4, -83.2
4.642e-1, 2.012e+3, -1.683e+4, 1.695e+4, -83.2
3.831e-1, 2.415e+3, -2.005e+4, 2.020e+4, -83.1
3.162e-1, 2.912e+3, -2.387e+4, 2.405e+4, -83.0
2.610e-1, 3.513e+3, -2.843e+4, 2.865e+4, -83.0
2.154e-1, 4.244e+3, -3.386e+4, 3.413e+4, -82.9
1.778e-1, 5.126e+3, -4.032e+4, 4.065e+4, -82.8
1.468e-1, 6.182e+3, -4.796e+4, 4.836e+4, -82.7
1.212e-1, 7.470e+3, -5.701e+4, 5.750e+4, -82.5
1.000e-1, 9.008e+3, -6.753e+4, 6.813e+4, -82.4
