EXPLAIN
TAG	EISPOT
TITLE	LABEL	Potentiostatic EIS	Test Identifier
DATE	LABEL	9/13/2020	Date
TIME	LABEL	20:45:12	Time
NOTES	NOTES	1	Notes...
	
PSTAT	PSTAT	REF3000-16137	Potentiostat
VDC	POTEN	0.00000E+000	T	DC Voltage (V)
FREQINIT	QUANT	3.00000E+005	Initial Freq. (Hz)
FREQFINAL	QUANT	1.00000E+000	Final Freq. (Hz)
PTSPERDEC	QUANT	1.00000E+001	Points/decade
VAC	QUANT	5.00000E+001	AC Voltage (mV rms)
AREA	QUANT	1.00000E+000	Sample Area (cm^2)
SPEED	SELECTOR	2	Optimize for:
ZGUESS	QUANT	1.00000E+003	Estimated Z (ohms)
EOC	QUANT	0	Open Circuit (V)
SEQUENCER	TOGGLE	TRUE	Run as Sequence
PSTATMODEL	IQUANT	5	Pstat Model
PSTATSECTION	LABEL	REF3000-16137	Pstat Section
PSTATSERIALNO	LABEL	16137	Pstat Serial Number
CTRLMODE	IQUANT	1	Control Mode
IESTAB	IQUANT	0	I/E Stability
CASPEED	IQUANT	1	Control Amp Speed
CONVENTION	IQUANT	1	Current Convention
ICHRANGE	IQUANT	2	Ich Range
ICHRANGEMODE	TOGGLE	F	Ich Auto Range
ICHOFFSETENABLE	TOGGLE	T	Ich Offset Enable
ICHOFFSET	QUANT	0	Ich Offset (V)
ICHFILTER	IQUANT	3	Ich Filter
VCHRANGE	IQUANT	2	Vch Range
VCHRANGEMODE	TOGGLE	F	Vch Auto Range
VCHOFFSETENABLE	TOGGLE	T	Vch Offset Enable
VCHOFFSET	QUANT	0	Vch Offset (V)
VCHFILTER	IQUANT	3	Vch Filter
ACHRANGE	IQUANT	2	Ach Range
ACHOFFSETENABLE	TOGGLE	F	Ach Offset Enable
ACHOFFSET	QUANT	0	Ach Offset (V)
ACHFILTER	IQUANT	3	Ach Filter
IERANGELOWERLIMIT	IQUANT	2	I/E Range Lower Limit
IERANGEMODE	TOGGLE	F	I/E AutoRange
IERANGE	IQUANT	11	I/E Range
POSFEEDENABLE	TOGGLE	F	Positive Feedback IR Comp
POSFEEDRESISTANCE	QUANT	0	Positive Feedback Resistance (ohm)
ACHSELECT	IQUANT	0	Ach Select
CABLEID	IQUANT	13	Cable ID
DCCALDATE	LABEL	7/31/2020	DC Calibration Date
ACCALDATE	LABEL	7/31/2020	AC Calibration Date
THERMOSELECT	IQUANT	1	Thermo Select
FRAMEWORKVERSION	QUANT	6.33	Framework Version
INSTRUMENTVERSION	LABEL	3.50	Instrument Version
COMPLIANCEVOLTAGE	IQUANT	0	Compliance Voltage
ZCURVE	TABLE
	Pt	Time	Freq	Zreal	Zimag	Zsig	Zmod	Zphz	Idc	Vdc	IERange
	#	s	Hz	ohm	ohm	V	ohm	°	A	V	#
	0	10	300046.9	2.254155	2.250756	1	3.185454	44.95677	-0.0001344	-0.0004841	11
	1	13	238359.4	2.220157	1.792764	1	2.853612	38.92068	-0.00013	-0.0002205	11
	2	16	189328.1	2.26662	1.255479	1	2.591099	28.98203	-5.075369E-005	-8.098046E-005	12
	3	20	150421.9	2.221903	0.986206	1	2.430937	23.93435	-1.411041E-005	0.0003197	12
	4	24	119484.4	2.188964	0.7701454	1	2.320493	19.38346	-2.816164E-005	0.000481	12
	5	28	94921.88	2.15257	0.6657504	1	2.253171	17.18588	2.123869E-005	0.0005303	11
	6	31	75421.88	2.149155	0.4988759	1	2.206296	13.06843	3.346304E-007	0.0005147	11
	7	33	59859.37	2.148546	0.3578707	1	2.178146	9.456608	-1.564068E-005	0.000581	11
	8	36	47578.12	2.14877	0.2364278	1	2.161738	6.278961	2.587539E-005	0.000625	11
	9	38	37828.12	2.151939	0.1295267	1	2.155833	3.444518	-3.242061E-005	0.0006349	11
	10	41	30046.88	2.154907	0.0292735	1	2.155106	0.778291	-4.685707E-005	0.0006278	11
	11	43	23859.38	2.160224	-0.0685072	1	2.16131	-1.816412	2.466439E-005	0.0006881	11
	12	46	18984.38	2.166235	-0.1672256	1	2.17268	-4.414276	1.628209E-005	0.0006651	11
	13	48	15046.87	2.175686	-0.2747269	1	2.192963	-7.196729	-1.021592E-005	0.0006793	11
	14	50	11953.13	2.186342	-0.3936757	1	2.221502	-10.20738	-1.441881E-005	0.0006766	11
	15	52	9515.62	2.200138	-0.5288612	1	2.262808	-13.51612	1.632097E-005	0.0007088	11
	16	55	7546.875	2.217943	-0.6903867	1	2.322909	-17.28997	-3.863559E-005	0.0006755	11
	17	57	5928.309	2.241855	-0.8923047	1	2.412907	-21.70358	-3.63857E-005	0.0006714	11
	18	59	4733.456	2.270558	-1.120592	1	2.532027	-26.26779	-1.330921E-005	0.000684	11
	19	62	3796.875	2.306877	-1.391128	1	2.693867	-31.09146	-2.750415E-005	0.000692	11
	20	64	2987.132	2.355554	-1.750153	1	2.934564	-36.61198	8.12959E-006	0.0006892	11
	21	66	2390.625	2.413686	-2.160477	1	3.239374	-41.83155	2.465725E-005	0.0007102	11
	22	69	1884.191	2.494364	-2.697427	1	3.673957	-47.23983	-2.166317E-005	0.0006768	11
	23	71	1516.544	2.590013	-3.300416	1	4.195344	-51.87683	-1.742215E-005	0.0006789	10
	24	73	1193.986	2.722465	-4.113019	1	4.932417	-56.49886	-9.983746E-007	0.0006655	10
	25	76	946.5144	2.893213	-5.08526	1	5.850688	-60.36268	1.006703E-005	0.000633	10
	26	78	751.7689	3.106377	-6.272105	1	6.999206	-63.65223	2.248708E-005	0.0006371	10
	27	80	597.4265	3.387143	-7.725012	1	8.434959	-66.32426	-2.119454E-005	0.0006771	10
	28	83	477.4305	3.742559	-9.443288	1	10.15788	-68.38062	1.981462E-006	0.0006616	10
	29	85	376.6741	4.229295	-11.65714	1	12.40064	-70.05886	9.34665E-007	0.0006615	10
	30	87	298.2954	4.845535	-14.30994	1	15.10806	-71.29321	1.050074E-006	0.0006666	10
	31	90	237.7717	5.601795	-17.42203	1	18.30047	-72.17558	4.024214E-007	0.0006657	10
	32	92	189.0121	6.550215	-21.21605	1	22.20419	-72.84252	8.315861E-007	0.0006634	10
	33	94	150.2404	7.706824	-25.78621	1	26.91327	-73.35997	1.000504E-006	0.0006605	10
	34	97	119.1737	9.110688	-31.36719	1	32.66352	-73.80392	1.40503E-006	0.0006623	10
	35	99	95.0169	10.7422	-37.9557	1	39.44654	-74.19746	1.468401E-006	0.0006575	10
	36	102	75.60484	12.67413	-45.96031	1	47.67582	-74.58315	3.940384E-006	5.883792E-005	9
	37	104	54.50582	16.08876	-60.59586	1	62.69535	-75.13051	3.82602E-006	5.646091E-005	9
	38	107	45.95588	18.23813	-70.06359	1	72.39845	-75.40924	4.144273E-006	6.689227E-005	9
	39	109	37.20238	21.28602	-83.8766	1	86.53542	-75.76022	4.034302E-006	6.311099E-005	9
	40	111	30.04808	24.94646	-100.7856	1	103.8271	-76.09757	3.931671E-006	5.589136E-005	9
	41	114	23.91582	29.63741	-122.7458	1	126.2731	-76.42554	3.965772E-006	6.029064E-005	9
	42	116	18.60119	36.05864	-152.7674	1	156.9653	-76.7192	4.033032E-006	5.893118E-005	9
	43	118	15.02404	42.83878	-184.1555	1	189.0725	-76.90459	4.164142E-006	6.839754E-005	9
	44	121	12.01923	51.90617	-224.1428	1	230.0744	-76.96148	4.240307E-006	6.951711E-005	9
	45	123	9.450605	64.35515	-277.0127	1	284.3899	-76.92113	4.191907E-006	6.297414E-005	9
	46	126	7.512019	80.0667	-339.2715	1	348.5912	-76.72138	4.26982E-006	8.943871E-005	9
	47	128	5.978954	100.7992	-414.8944	1	426.9636	-76.34448	4.217193E-006	6.748348E-005	9
	48	131	4.734848	129.2652	-507.4653	1	523.6703	-75.70913	3.642401E-006	0.0006496	8
	49	135	3.75601	168.4806	-620.6483	1	643.1096	-74.81253	3.501538E-006	0.0006366	8
	50	138	3.004808	220.2559	-751.3041	1	782.9244	-73.66073	3.622734E-006	0.0006095	8
	51	142	2.372217	296.3435	-915.2556	1	962.035	-72.05897	3.535974E-006	0.0006044	8
	52	146	1.878005	403.4018	-1105.712	1	1177.001	-69.95629	3.520469E-006	0.0006518	8
	53	151	1.512097	536.462	-1304.756	1	1410.737	-67.64955	3.516748E-006	0.0005401	8
	54	156	1.201923	723.5048	-1539.874	1	1701.374	-64.83367	3.503217E-006	0.0006597	8
	55	162	0.956633	965.825	-1785.572	1	2030.046	-61.59081	3.350587E-006	-1.038726E-006	8
