EXPLAIN
TAG	EISPOT
TITLE	LABEL	Potentiostatic EIS	Test Identifier
DATE	LABEL	9/13/2020	Date
TIME	LABEL	22:01:00	Time
NOTES	NOTES	1	Notes...
	
PSTAT	PSTAT	REF3000-16137	Potentiostat
VDC	POTEN	0.00000E+000	T	DC Voltage (V)
FREQINIT	QUANT	3.00000E+005	Initial Freq. (Hz)
FREQFINAL	QUANT	1.00000E+000	Final Freq. (Hz)
PTSPERDEC	QUANT	1.00000E+001	Points/decade
VAC	QUANT	5.00000E+001	AC Voltage (mV rms)
AREA	QUANT	1.00000E+000	Sample Area (cm^2)
SPEED	SELECTOR	2	Optimize for:
ZGUESS	QUANT	1.00000E+003	Estimated Z (ohms)
EOC	QUANT	0	Open Circuit (V)
SEQUENCER	TOGGLE	TRUE	Run as Sequence
PSTATMODEL	IQUANT	5	Pstat Model
PSTATSECTION	LABEL	REF3000-16137	Pstat Section
PSTATSERIALNO	LABEL	16137	Pstat Serial Number
CTRLMODE	IQUANT	1	Control Mode
IESTAB	IQUANT	0	I/E Stability
CASPEED	IQUANT	1	Control Amp Speed
CONVENTION	IQUANT	1	Current Convention
ICHRANGE	IQUANT	2	Ich Range
ICHRANGEMODE	TOGGLE	F	Ich Auto Range
ICHOFFSETENABLE	TOGGLE	T	Ich Offset Enable
ICHOFFSET	QUANT	0	Ich Offset (V)
ICHFILTER	IQUANT	3	Ich Filter
VCHRANGE	IQUANT	2	Vch Range
VCHRANGEMODE	TOGGLE	F	Vch Auto Range
VCHOFFSETENABLE	TOGGLE	T	Vch Offset Enable
VCHOFFSET	QUANT	0	Vch Offset (V)
VCHFILTER	IQUANT	3	Vch Filter
ACHRANGE	IQUANT	2	Ach Range
ACHOFFSETENABLE	TOGGLE	F	Ach Offset Enable
ACHOFFSET	QUANT	0	Ach Offset (V)
ACHFILTER	IQUANT	3	Ach Filter
IERANGELOWERLIMIT	IQUANT	2	I/E Range Lower Limit
IERANGEMODE	TOGGLE	F	I/E AutoRange
IERANGE	IQUANT	11	I/E Range
POSFEEDENABLE	TOGGLE	F	Positive Feedback IR Comp
POSFEEDRESISTANCE	QUANT	0	Positive Feedback Resistance (ohm)
ACHSELECT	IQUANT	0	Ach Select
CABLEID	IQUANT	13	Cable ID
DCCALDATE	LABEL	7/31/2020	DC Calibration Date
ACCALDATE	LABEL	7/31/2020	AC Calibration Date
THERMOSELECT	IQUANT	1	Thermo Select
FRAMEWORKVERSION	QUANT	6.33	Framework Version
INSTRUMENTVERSION	LABEL	3.50	Instrument Version
COMPLIANCEVOLTAGE	IQUANT	0	Compliance Voltage
ZCURVE	TABLE
	Pt	Time	Freq	Zreal	Zimag	Zsig	Zmod	Zphz	Idc	Vdc	IERange
	#	s	Hz	ohm	ohm	V	ohm	°	A	V	#
	0	6	300046.9	60.86262	2.05232	1	60.89721	1.931313	-1.168381E-005	0.0004203	9
	1	9	238359.4	61.3013	1.471839	1	61.31897	1.375403	-1.41145E-007	0.0005231	9
	2	13	189328.1	61.7112	1.122876	1	61.72142	1.04242	2.860774E-005	-1.282202E-005	9
	3	15	150421.9	62.03704	0.7760141	1	62.04189	0.7166689	-4.2729E-005	0.000577	9
	4	18	119484.4	62.31766	0.6329208	1	62.32088	0.5818967	2.722956E-005	0.00016	9
	5	20	94921.88	62.69478	0.6780816	1	62.69844	0.6196641	-5.036427E-006	0.0005002	9
	6	23	75421.88	62.95313	0.4607864	1	62.95482	0.4193698	1.608389E-005	-0.0006412	9
	7	25	59859.37	63.24359	0.2598646	1	63.24412	0.235424	-5.173014E-006	0.0005224	9
	8	28	47578.12	63.57006	0.0850231	1	63.57012	0.0766314	2.242775E-005	-0.0005989	9
	9	30	37828.12	63.90259	-0.0508874	1	63.90261	-0.0456262	1.070523E-005	-0.0005482	9
	10	33	30046.88	64.21442	-0.1851771	1	64.21469	-0.1652251	8.516803E-006	0.0001685	9
	11	35	23859.38	64.54758	-0.3136974	1	64.54835	-0.2784519	-1.00534E-005	7.109834E-005	9
	12	38	18984.38	64.81918	-0.4386607	1	64.82066	-0.3877406	2.33106E-006	0.0003573	9
	13	40	15046.87	65.11935	-0.5685399	1	65.12183	-0.5002217	1.388231E-005	-0.0001071	9
	14	42	11953.13	65.42915	-0.7672302	1	65.43365	-0.6718265	-1.134728E-005	0.0006788	9
	15	45	9515.62	65.76314	-0.955506	1	65.77008	-0.8324212	-1.319447E-005	0.0001803	9
	16	47	7546.875	66.09233	-1.183206	1	66.10292	-1.025617	-8.816237E-006	1.284173E-005	9
	17	49	5928.309	66.43437	-1.510576	1	66.45155	-1.302559	4.820856E-006	-0.0003992	9
	18	51	4733.456	66.75649	-1.89725	1	66.78345	-1.627934	-1.482426E-005	0.0007338	9
	19	54	3796.875	67.08862	-2.29958	1	67.12802	-1.963145	2.060528E-005	-0.0002368	9
	20	56	2987.132	67.43954	-2.899459	1	67.50185	-2.461828	-4.340818E-006	0.000587	9
	21	58	2390.625	67.79252	-3.584561	1	67.88722	-3.026723	2.170354E-005	-0.0002456	9
	22	61	1884.191	68.22638	-4.521743	1	68.37605	-3.791766	-8.66671E-006	3.095087E-005	9
	23	63	1516.544	68.5878	-5.49985	1	68.80795	-4.584567	2.226178E-005	-0.0005523	9
	24	65	1193.986	69.07747	-6.869019	1	69.41815	-5.678786	-8.364269E-006	1.28824E-005	9
	25	68	946.5144	69.59647	-8.556675	1	70.1205	-7.009167	2.197462E-005	-0.0005509	9
	26	70	751.7689	70.05654	-10.63371	1	70.85898	-8.630904	-1.709997E-005	0.0004463	9
	27	72	597.4265	70.69478	-13.17676	1	71.9123	-10.55818	1.102231E-005	0.0001269	9
	28	75	477.4305	71.33416	-16.22856	1	73.15688	-12.81668	1.252745E-006	6.28724E-005	9
	29	77	376.6741	72.09951	-20.26062	1	74.89214	-15.69585	1.212385E-006	6.212571E-005	9
	30	79	298.2954	72.97701	-25.20169	1	77.20602	-19.05171	1.286945E-006	7.078893E-005	9
	31	82	237.7717	74.00392	-31.14926	1	80.29232	-22.82689	1.305964E-006	6.606885E-005	9
	32	84	189.0121	75.23206	-38.58635	1	84.5504	-27.15318	1.295461E-006	6.463454E-005	9
	33	86	150.2404	76.71094	-47.7744	1	90.37125	-31.91402	1.296342E-006	6.739493E-005	9
	34	89	119.1737	78.513	-59.24079	1	98.3553	-37.03582	1.268804E-006	6.964404E-005	9
	35	91	95.0169	80.68176	-73.0644	1	108.8483	-42.1636	1.292686E-006	6.856873E-005	9
	36	94	75.60484	83.37952	-90.24261	1	122.8653	-47.26366	1.264898E-006	6.787605E-005	9
	37	96	54.50582	88.21916	-121.9511	1	150.5147	-54.1181	1.268511E-006	6.58553E-005	9
	38	99	45.95588	91.56794	-142.6691	1	169.5263	-57.30682	1.300051E-006	7.264209E-005	9
	39	101	37.20238	96.4295	-173.1541	1	198.1944	-60.88658	1.282182E-006	6.766194E-005	9
	40	103	30.04808	102.4395	-210.5541	1	234.1514	-64.05599	1.261513E-006	6.162636E-005	9
	41	106	23.91582	110.3525	-259.3575	1	281.8581	-66.95101	1.402386E-006	6.880618E-005	9
	42	108	18.60119	121.3491	-326.2462	1	348.0836	-69.59702	1.249819E-006	7.635306E-005	9
	43	111	15.02404	133.267	-396.4055	1	418.2074	-71.41795	1.396576E-006	8.299375E-005	9
	44	113	12.01923	148.1082	-483.6196	1	505.7904	-72.97282	3.496817E-007	0.0006457	8
	45	115	9.450605	169.7128	-601.5173	1	625.0004	-74.24405	2.17648E-007	0.0006442	8
	46	118	7.512019	195.8491	-740.4625	1	765.9253	-75.18478	3.127187E-007	0.000637	8
	47	120	5.978954	229.7704	-908.7468	1	937.3448	-75.81054	3.561502E-007	0.0006446	8
	48	124	4.734848	274.8842	-1120.036	1	1153.274	-76.21075	3.185272E-007	0.0006729	8
	49	128	3.75601	331.1991	-1375.149	1	1414.471	-76.45844	2.758061E-007	0.000637	8
	50	131	3.004808	399.3587	-1671.826	1	1718.863	-76.56519	2.924681E-007	0.0006605	8
	51	135	2.372217	493.285	-2052.687	1	2111.126	-76.48737	3.151442E-007	0.0006902	8
	52	139	1.878005	604.0095	-2516.54	1	2588.011	-76.5034	2.683916E-007	0.0006304	8
	53	144	1.512097	725.6744	-3027.802	1	3113.549	-76.52213	3.08735E-007	0.0005828	8
	54	149	1.201923	892.4913	-3692.017	1	3798.359	-76.41029	2.793441E-007	0.0006337	8
	55	155	0.956633	1087.368	-4491.973	1	4621.708	-76.39223	1.529897E-008	-2.326454E-005	7
