EXPLAIN
TAG	EISPOT
TITLE	LABEL	Potentiostatic EIS	Test Identifier
DATE	LABEL	9/13/2020	Date
TIME	LABEL	22:15:12	Time
NOTES	NOTES	1	Notes...
	
PSTAT	PSTAT	REF3000-16137	Potentiostat
VDC	POTEN	0.00000E+000	T	DC Voltage (V)
FREQINIT	QUANT	3.00000E+005	Initial Freq. (Hz)
FREQFINAL	QUANT	1.00000E+000	Final Freq. (Hz)
PTSPERDEC	QUANT	1.00000E+001	Points/decade
VAC	QUANT	5.00000E+001	AC Voltage (mV rms)
AREA	QUANT	1.00000E+000	Sample Area (cm^2)
SPEED	SELECTOR	2	Optimize for:
ZGUESS	QUANT	1.00000E+003	Estimated Z (ohms)
EOC	QUANT	0	Open Circuit (V)
SEQUENCER	TOGGLE	TRUE	Run as Sequence
PSTATMODEL	IQUANT	5	Pstat Model
PSTATSECTION	LABEL	REF3000-16137	Pstat Section
PSTATSERIALNO	LABEL	16137	Pstat Serial Number
CTRLMODE	IQUANT	1	Control Mode
IESTAB	IQUANT	0	I/E Stability
CASPEED	IQUANT	1	Control Amp Speed
CONVENTION	IQUANT	1	Current Convention
ICHRANGE	IQUANT	2	Ich Range
ICHRANGEMODE	TOGGLE	F	Ich Auto Range
ICHOFFSETENABLE	TOGGLE	T	Ich Offset Enable
ICHOFFSET	QUANT	0	Ich Offset (V)
ICHFILTER	IQUANT	3	Ich Filter
VCHRANGE	IQUANT	2	Vch Range
VCHRANGEMODE	TOGGLE	F	Vch Auto Range
VCHOFFSETENABLE	TOGGLE	T	Vch Offset Enable
VCHOFFSET	QUANT	0	Vch Offset (V)
VCHFILTER	IQUANT	3	Vch Filter
ACHRANGE	IQUANT	2	Ach Range
ACHOFFSETENABLE	TOGGLE	F	Ach Offset Enable
ACHOFFSET	QUANT	0	Ach Offset (V)
ACHFILTER	IQUANT	3	Ach Filter
IERANGELOWERLIMIT	IQUANT	2	I/E Range Lower Limit
IERANGEMODE	TOGGLE	F	I/E AutoRange
IERANGE	IQUANT	11	I/E Range
POSFEEDENABLE	TOGGLE	F	Positive Feedback IR Comp
POSFEEDRESISTANCE	QUANT	0	Positive Feedback Resistance (ohm)
ACHSELECT	IQUANT	0	Ach Select
CABLEID	IQUANT	13	Cable ID
DCCALDATE	LABEL	7/31/2020	DC Calibration Date
ACCALDATE	LABEL	7/31/2020	AC Calibration Date
THERMOSELECT	IQUANT	1	Thermo Select
FRAMEWORKVERSION	QUANT	6.33	Framework Version
INSTRUMENTVERSION	LABEL	3.50	Instrument Version
COMPLIANCEVOLTAGE	IQUANT	0	Compliance Voltage
ZCURVE	TABLE
	Pt	Time	Freq	Zreal	Zimag	Zsig	Zmod	Zphz	Idc	Vdc	IERange
	#	s	Hz	ohm	ohm	V	ohm	°	A	V	#
	0	14	300046.9	438.1285	-53.18293	1	441.3445	-6.921079	-2.696466E-006	-0.0019028	9
	1	24	238359.4	456.4743	-49.59782	1	459.1609	-6.201097	-0.0000987	0.0035178	9
	2	38	189328.1	476.5522	-41.22019	1	478.3316	-4.943591	-1.140067E-005	0.0016094	9
	3	47	150421.9	490.3771	-34.92362	1	491.6192	-4.073606	7.480853E-005	-0.0014764	9
	4	56	119484.4	500.2433	-30.33945	1	501.1624	-3.470703	1.973495E-005	-0.000319	9
	5	61	94921.88	508.223	-11.00705	1	508.3421	-1.240713	-1.17489E-005	0.0016189	8
	6	64	75421.88	511.084	-9.145405	1	511.1659	-1.025149	2.651738E-007	-0.0027239	8
	7	66	59859.37	514.6873	-7.796672	1	514.7463	-0.8678711	-1.475906E-005	0.0039878	8
	8	69	47578.12	518.8057	-7.230193	1	518.8561	-0.7984352	-5.531839E-006	0.0059435	8
	9	71	37828.12	522.6888	-5.177657	1	522.7145	-0.5675426	-1.199009E-005	0.0016854	8
	10	74	30046.88	526.8359	-5.690948	1	526.8666	-0.6188922	1.621386E-005	-0.0034282	8
	11	76	23859.38	530.7814	-4.990981	1	530.8049	-0.5387409	-5.444834E-006	0.0059536	8
	12	79	18984.38	533.5815	-4.741258	1	533.6025	-0.5091011	1.537654E-005	-0.0042004	8
	13	81	15046.87	538.1549	-4.185874	1	538.1712	-0.4456488	-1.217615E-006	0.0050842	8
	14	84	11953.13	543.5367	-5.668702	1	543.5663	-0.5975326	8.674942E-007	0.0042367	8
	15	86	9515.62	546.2457	-3.154122	1	546.2548	-0.3308326	1.563965E-005	-0.0023372	8
	16	88	7546.875	549.9938	-3.178381	1	550.003	-0.3311052	-1.288035E-005	0.0058096	8
	17	91	5928.309	552.7528	-3.348145	1	552.7629	-0.3470489	-1.054669E-005	0.0070165	8
	18	93	4733.456	558.5369	-4.307149	1	558.5535	-0.4418268	1.237314E-005	-0.0004294	8
	19	96	3796.875	561.6307	-4.94287	1	561.6524	-0.5042428	7.388806E-006	0.001941	8
	20	98	2987.132	566.7478	-4.72442	1	566.7675	-0.4776075	8.488351E-006	-0.0051426	8
	21	100	2390.625	570.3018	-7.012193	1	570.3449	-0.7044495	9.526103E-006	0.0012641	8
	22	103	1884.191	578.234	-7.372134	1	578.281	-0.7304469	-7.728535E-006	-0.0002688	8
	23	105	1516.544	579.5452	-7.48311	1	579.5934	-0.7397643	-1.670847E-005	0.0055883	8
	24	108	1193.986	583.7043	-9.457038	1	583.7809	-0.9282113	-1.410885E-005	0.0028671	8
	25	110	946.5144	587.098	-11.35631	1	587.2078	-1.108141	1.759878E-005	-0.0049194	8
	26	113	751.7689	591.2689	-14.04647	1	591.4357	-1.36089	1.536639E-005	-0.0054879	8
	27	115	597.4265	595.2187	-14.59618	1	595.3976	-1.404747	1.749625E-005	-0.0036994	8
	28	118	477.4305	601.9579	-20.12849	1	602.2944	-1.915164	-1.601214E-007	0.0006512	8
	29	120	376.6741	606.6989	-24.98393	1	607.2131	-2.358115	-1.555816E-007	0.0006405	8
	30	122	298.2954	611.5449	-30.94133	1	612.3271	-2.89643	-1.466593E-007	0.0006468	8
	31	124	237.7717	616.7254	-38.14487	1	617.9039	-3.539273	-1.440305E-007	0.0006452	8
	32	127	189.0121	622.1152	-47.20369	1	623.9034	-4.339067	-1.600859E-007	0.0006345	8
	33	129	150.2404	627.796	-58.44807	1	630.5109	-5.318928	-2.067321E-007	0.0006951	8
	34	132	119.1737	633.8065	-72.5465	1	637.9449	-6.529748	-1.522346E-007	0.0006437	8
	35	134	95.0169	640.2223	-89.6264	1	646.4654	-7.969196	-1.301309E-007	0.0006267	8
	36	137	75.60484	647.3773	-110.9552	1	656.8169	-9.72553	-1.506035E-007	0.0006378	8
	37	139	54.50582	656.6639	-150.6258	1	673.7177	-12.91904	-1.504277E-007	0.0006343	8
	38	142	45.95588	664.3418	-176.6737	1	687.4326	-14.89243	-1.358705E-007	0.0006453	8
	39	144	37.20238	673.3343	-215.2218	1	706.8943	-17.72575	-1.283495E-007	0.0006518	8
	40	146	30.04808	683.8313	-262.6743	1	732.5456	-21.01285	-1.542751E-007	0.0006483	8
	41	149	23.91582	696.2374	-324.8444	1	768.2905	-25.01241	-1.138332E-007	0.0006272	8
	42	151	18.60119	711.5517	-410.5162	1	821.48	-29.98198	-2.407521E-007	0.0006296	8
	43	153	15.02404	728.1605	-499.8903	1	883.2372	-34.47003	-1.243817E-007	0.0006545	8
	44	156	12.01923	748.72	-614.5331	1	968.624	-39.3784	-9.506081E-008	0.0006542	8
	45	158	9.450605	775.0514	-767.4474	1	1090.725	-44.71755	-1.322242E-007	0.0006302	8
	46	161	7.512019	806.0735	-947.556	1	1244.032	-49.61262	-1.131177E-007	0.0006491	8
	47	163	5.978954	845.3145	-1168.375	1	1442.101	-54.11441	-1.454433E-007	0.0006252	8
	48	166	4.734848	894.4016	-1447.964	1	1701.927	-58.29654	-1.11087E-007	0.0006418	8
	49	170	3.75601	954.799	-1788.561	1	2027.459	-61.90508	-1.650089E-007	0.0006166	8
	50	173	3.004808	1026.852	-2190.94	1	2419.637	-64.8884	-1.661264E-007	0.0006163	8
	51	177	2.372217	1120.802	-2716.342	1	2938.488	-67.57824	-1.670104E-007	0.0006048	8
	52	181	1.878005	1242.868	-3361.454	1	3583.866	-69.70858	-1.760968E-007	0.0006448	8
	53	186	1.512097	1387.978	-4100.495	1	4329.035	-71.29954	-4.083093E-008	0.0005032	7
	54	191	1.201923	1568.113	-5059.105	1	5296.558	-72.77873	-4.22418E-008	0.0006326	7
	55	197	0.956633	1795.62	-6227.126	1	6480.845	-73.91485	-4.909911E-008	-3.484903E-005	7
