EXPLAIN
TAG	EISPOT
TITLE	LABEL	Potentiostatic EIS	Test Identifier
DATE	LABEL	9/13/2020	Date
TIME	LABEL	21:08:02	Time
NOTES	NOTES	1	Notes...
	
PSTAT	PSTAT	REF3000-16137	Potentiostat
VDC	POTEN	0.00000E+000	T	DC Voltage (V)
FREQINIT	QUANT	3.00000E+005	Initial Freq. (Hz)
FREQFINAL	QUANT	1.00000E+000	Final Freq. (Hz)
PTSPERDEC	QUANT	1.00000E+001	Points/decade
VAC	QUANT	5.00000E+001	AC Voltage (mV rms)
AREA	QUANT	1.00000E+000	Sample Area (cm^2)
SPEED	SELECTOR	2	Optimize for:
ZGUESS	QUANT	1.00000E+003	Estimated Z (ohms)
EOC	QUANT	0	Open Circuit (V)
SEQUENCER	TOGGLE	TRUE	Run as Sequence
PSTATMODEL	IQUANT	5	Pstat Model
PSTATSECTION	LABEL	REF3000-16137	Pstat Section
PSTATSERIALNO	LABEL	16137	Pstat Serial Number
CTRLMODE	IQUANT	1	Control Mode
IESTAB	IQUANT	0	I/E Stability
CASPEED	IQUANT	1	Control Amp Speed
CONVENTION	IQUANT	1	Current Convention
ICHRANGE	IQUANT	2	Ich Range
ICHRANGEMODE	TOGGLE	F	Ich Auto Range
ICHOFFSETENABLE	TOGGLE	T	Ich Offset Enable
ICHOFFSET	QUANT	0	Ich Offset (V)
ICHFILTER	IQUANT	3	Ich Filter
VCHRANGE	IQUANT	2	Vch Range
VCHRANGEMODE	TOGGLE	F	Vch Auto Range
VCHOFFSETENABLE	TOGGLE	T	Vch Offset Enable
VCHOFFSET	QUANT	0	Vch Offset (V)
VCHFILTER	IQUANT	3	Vch Filter
ACHRANGE	IQUANT	2	Ach Range
ACHOFFSETENABLE	TOGGLE	F	Ach Offset Enable
ACHOFFSET	QUANT	0	Ach Offset (V)
ACHFILTER	IQUANT	3	Ach Filter
IERANGELOWERLIMIT	IQUANT	2	I/E Range Lower Limit
IERANGEMODE	TOGGLE	F	I/E AutoRange
IERANGE	IQUANT	11	I/E Range
POSFEEDENABLE	TOGGLE	F	Positive Feedback IR Comp
POSFEEDRESISTANCE	QUANT	0	Positive Feedback Resistance (ohm)
ACHSELECT	IQUANT	0	Ach Select
CABLEID	IQUANT	13	Cable ID
DCCALDATE	LABEL	7/31/2020	DC Calibration Date
ACCALDATE	LABEL	7/31/2020	AC Calibration Date
THERMOSELECT	IQUANT	1	Thermo Select
FRAMEWORKVERSION	QUANT	6.33	Framework Version
INSTRUMENTVERSION	LABEL	3.50	Instrument Version
COMPLIANCEVOLTAGE	IQUANT	0	Compliance Voltage
ZCURVE	TABLE
	Pt	Time	Freq	Zreal	Zimag	Zsig	Zmod	Zphz	Idc	Vdc	IERange
	#	s	Hz	ohm	ohm	V	ohm	°	A	V	#
	0	10	300046.9	3.128003	2.265945	1	3.8625	35.91981	-1.569681E-005	-0.0001249	10
	1	13	238359.4	3.113753	1.80473	1	3.598959	30.09656	-1.973075E-005	-0.0005613	10
	2	17	189328.1	3.090704	1.429731	1	3.405375	24.82483	-0.0000974	-8.631058E-005	10
	3	19	150421.9	3.126462	0.9281151	1	3.261313	16.53394	-0.0001971	2.445161E-005	12
	4	23	119484.4	3.07614	0.8519199	1	3.191928	15.47977	-4.829951E-005	0.0004722	11
	5	25	94921.88	3.069628	0.6522252	1	3.138155	11.99564	-1.264334E-005	0.0005436	11
	6	28	75421.88	3.068935	0.4842121	1	3.106899	8.966132	-2.349273E-005	0.0005809	11
	7	30	59859.37	3.06966	0.3421979	1	3.088675	6.360926	1.721842E-005	0.0006495	11
	8	33	47578.12	3.073439	0.2198974	1	3.081295	4.092407	-3.869077E-005	0.0006364	11
	9	35	37828.12	3.077009	0.1097161	1	3.078965	2.042116	-5.753562E-005	0.0006186	11
	10	38	30046.88	3.084028	0.0061202	1	3.084034	0.1137017	-3.985246E-005	0.0006695	11
	11	40	23859.38	3.090066	-0.0963007	1	3.091567	-1.785022	-4.075158E-005	0.0006439	11
	12	43	18984.38	3.099062	-0.2010065	1	3.105574	-3.711031	1.188484E-005	0.0006956	11
	13	45	15046.87	3.109676	-0.3162017	1	3.12571	-5.806061	1.814294E-005	0.0006964	11
	14	47	11953.13	3.123026	-0.4448836	1	3.154555	-8.107393	7.151594E-006	0.0007065	11
	15	50	9515.62	3.137951	-0.5918125	1	3.19327	-10.68044	1.274414E-005	0.0006902	11
	16	52	7546.875	3.158178	-0.7696773	1	3.250614	-13.69651	-3.703469E-005	0.0006602	11
	17	54	5928.309	3.183771	-0.992294	1	3.334823	-17.31083	2.165745E-005	0.0007135	11
	18	57	4733.456	3.214391	-1.245264	1	3.447171	-21.1765	-9.807913E-006	0.0006777	11
	19	59	3796.875	3.252209	-1.546104	1	3.601014	-25.42646	-3.630966E-005	0.0006871	11
	20	61	2987.132	3.304696	-1.948602	1	3.836413	-30.52557	-4.802031E-006	0.0006625	10
	21	63	2390.625	3.365627	-2.406317	1	4.137367	-35.56358	7.943804E-006	0.0006353	10
	22	66	1884.191	3.444839	-3.011466	1	4.57557	-41.15984	5.224515E-006	0.000658	10
	23	68	1516.544	3.539206	-3.687412	1	5.111065	-46.17488	1.845078E-005	0.0006488	10
	24	70	1193.986	3.670182	-4.603817	1	5.887731	-51.438	2.019304E-005	0.0006365	10
	25	73	946.5144	3.830498	-5.708096	1	6.874233	-56.13586	-2.882046E-005	0.000661	10
	26	75	751.7689	4.039363	-7.057868	1	8.132032	-60.2166	-2.550297E-005	0.0006749	10
	27	78	597.4265	4.303028	-8.712117	1	9.71684	-63.71463	2.094574E-005	0.00065	10
	28	80	477.4305	4.636236	-10.69901	1	11.66034	-66.5713	-2.074631E-006	0.000664	10
	29	82	376.6741	5.093113	-13.28031	1	14.22345	-69.01775	-1.808165E-006	0.0006633	10
	30	84	298.2954	5.682307	-16.4096	1	17.36559	-70.90009	-1.673681E-006	0.00066	10
	31	87	237.7717	6.428229	-20.12667	1	21.12829	-72.28711	-1.771015E-006	0.0006643	10
	32	89	189.0121	7.407398	-24.7036	1	25.79026	-73.30859	-5.705976E-006	0.0007188	10
	33	92	150.2404	8.662698	-30.26244	1	31.47789	-74.0261	-1.332865E-006	0.0006657	10
	34	94	119.1737	10.27321	-37.04868	1	38.44664	-74.50186	-9.553294E-007	0.0006657	10
	35	96	95.0169	12.22518	-44.99595	1	46.62714	-74.79993	1.793981E-006	6.395914E-005	9
	36	99	75.60484	14.65691	-54.69839	1	56.62807	-74.9995	1.64721E-006	5.82438E-005	9
	37	101	54.50582	19.02075	-72.13992	1	74.60535	-75.22928	1.611842E-006	5.988878E-005	9
	38	104	45.95588	21.77415	-83.3201	1	86.11825	-75.35435	1.854382E-006	6.972008E-005	9
	39	106	37.20238	25.68548	-99.5358	1	102.7965	-75.53035	1.786925E-006	6.776901E-005	9
	40	109	30.04808	30.24667	-119.1842	1	122.9624	-75.76006	1.597879E-006	6.070212E-005	9
	41	111	23.91582	36.00753	-144.7031	1	149.1158	-76.02647	1.56706E-006	6.199357E-005	9
	42	113	18.60119	43.40997	-179.1199	1	184.305	-76.37694	1.899221E-006	6.404849E-005	9
	43	116	15.02404	50.88644	-215.114	1	221.0509	-76.69101	1.812771E-006	6.274619E-005	9
	44	118	12.01923	60.06319	-260.8583	1	267.6838	-77.03352	1.728141E-006	6.324126E-005	9
	45	120	9.450605	72.24515	-321.8677	1	329.876	-77.34929	1.813835E-006	6.895094E-005	9
	46	123	7.512019	86.18079	-393.6049	1	402.9292	-77.64984	1.94881E-006	8.423707E-005	9
	47	126	5.978954	103.3842	-479.4407	1	490.4607	-77.83135	1.187727E-006	0.0006426	8
	48	129	4.734848	126.0139	-590.0272	1	603.3337	-77.94428	1.271526E-006	0.0006406	8
	49	132	3.75601	154.878	-724.4471	1	740.8177	-77.93252	1.160432E-006	0.0007079	8
	50	135	3.004808	190.7702	-882.6136	1	902.9951	-77.80357	1.252516E-006	0.0006185	8
	51	139	2.372217	240.9857	-1089.012	1	1115.357	-77.52219	1.185989E-006	0.0005648	8
	52	143	1.878005	305.4066	-1339.548	1	1373.922	-77.15653	1.231091E-006	0.0006462	8
	53	148	1.512097	385.1325	-1618.123	1	1663.325	-76.61202	1.174786E-006	0.0006249	8
	54	153	1.201923	500.5528	-1985.156	1	2047.291	-75.848	1.221228E-006	0.0006626	8
	55	160	0.956633	657.459	-2420.555	1	2508.255	-74.80421	1.145272E-006	-7.047872E-006	8
