EXPLAIN
TAG	EISPOT
TITLE	LABEL	Potentiostatic EIS	Test Identifier
DATE	LABEL	9/13/2020	Date
TIME	LABEL	20:59:33	Time
NOTES	NOTES	1	Notes...
	
PSTAT	PSTAT	REF3000-16137	Potentiostat
VDC	POTEN	0.00000E+000	T	DC Voltage (V)
FREQINIT	QUANT	3.00000E+005	Initial Freq. (Hz)
FREQFINAL	QUANT	1.00000E+000	Final Freq. (Hz)
PTSPERDEC	QUANT	1.00000E+001	Points/decade
VAC	QUANT	5.00000E+001	AC Voltage (mV rms)
AREA	QUANT	1.00000E+000	Sample Area (cm^2)
SPEED	SELECTOR	2	Optimize for:
ZGUESS	QUANT	1.00000E+003	Estimated Z (ohms)
EOC	QUANT	0	Open Circuit (V)
SEQUENCER	TOGGLE	TRUE	Run as Sequence
PSTATMODEL	IQUANT	5	Pstat Model
PSTATSECTION	LABEL	REF3000-16137	Pstat Section
PSTATSERIALNO	LABEL	16137	Pstat Serial Number
CTRLMODE	IQUANT	1	Control Mode
IESTAB	IQUANT	0	I/E Stability
CASPEED	IQUANT	1	Control Amp Speed
CONVENTION	IQUANT	1	Current Convention
ICHRANGE	IQUANT	2	Ich Range
ICHRANGEMODE	TOGGLE	F	Ich Auto Range
ICHOFFSETENABLE	TOGGLE	T	Ich Offset Enable
ICHOFFSET	QUANT	0	Ich Offset (V)
ICHFILTER	IQUANT	3	Ich Filter
VCHRANGE	IQUANT	2	Vch Range
VCHRANGEMODE	TOGGLE	F	Vch Auto Range
VCHOFFSETENABLE	TOGGLE	T	Vch Offset Enable
VCHOFFSET	QUANT	0	Vch Offset (V)
VCHFILTER	IQUANT	3	Vch Filter
ACHRANGE	IQUANT	2	Ach Range
ACHOFFSETENABLE	TOGGLE	F	Ach Offset Enable
ACHOFFSET	QUANT	0	Ach Offset (V)
ACHFILTER	IQUANT	3	Ach Filter
IERANGELOWERLIMIT	IQUANT	2	I/E Range Lower Limit
IERANGEMODE	TOGGLE	F	I/E AutoRange
IERANGE	IQUANT	11	I/E Range
POSFEEDENABLE	TOGGLE	F	Positive Feedback IR Comp
POSFEEDRESISTANCE	QUANT	0	Positive Feedback Resistance (ohm)
ACHSELECT	IQUANT	0	Ach Select
CABLEID	IQUANT	13	Cable ID
DCCALDATE	LABEL	7/31/2020	DC Calibration Date
ACCALDATE	LABEL	7/31/2020	AC Calibration Date
THERMOSELECT	IQUANT	1	Thermo Select
FRAMEWORKVERSION	QUANT	6.33	Framework Version
INSTRUMENTVERSION	LABEL	3.50	Instrument Version
COMPLIANCEVOLTAGE	IQUANT	0	Compliance Voltage
ZCURVE	TABLE
	Pt	Time	Freq	Zreal	Zimag	Zsig	Zmod	Zphz	Idc	Vdc	IERange
	#	s	Hz	ohm	ohm	V	ohm	°	A	V	#
	0	10	300046.9	2.674683	2.269219	1	3.507603	40.31149	-3.539688E-006	-0.0001682	10
	1	14	238359.4	2.650256	1.806429	1	3.207342	34.27855	1.101929E-005	-0.0005491	10
	2	17	189328.1	2.715038	1.219974	1	2.976537	24.19627	-0.0001302	-0.0003481	12
	3	20	150421.9	2.622209	1.104206	1	2.845216	22.83584	-8.233646E-006	0.0003876	11
	4	23	119484.4	2.612772	0.8568474	1	2.749684	18.15668	4.855231E-005	0.000539	11
	5	25	94921.88	2.6071	0.6569732	1	2.688602	14.14371	1.867951E-005	0.0005259	11
	6	28	75421.88	2.615678	0.4186343	1	2.648967	9.092963	-8.475044E-005	0.0005461	12
	7	31	59859.37	2.607043	0.348657	1	2.630254	7.617343	-2.678437E-006	0.0006073	11
	8	34	47578.12	2.60813	0.2267202	1	2.617966	4.968132	1.814144E-005	0.000629	11
	9	37	37828.12	2.612104	0.1181681	1	2.614775	2.590219	-2.970617E-005	0.0006274	11
	10	39	30046.88	2.617056	0.0157778	1	2.617103	0.3454234	2.353034E-005	0.0006907	11
	11	42	23859.38	2.622993	-0.0845561	1	2.624355	-1.846377	-4.709316E-005	0.0006427	11
	12	44	18984.38	2.630523	-0.1868293	1	2.637149	-4.062532	7.140737E-006	0.0006781	11
	13	46	15046.87	2.640688	-0.2989558	1	2.657557	-6.459029	-2.500989E-005	0.00069	11
	14	48	11953.13	2.652278	-0.4237357	1	2.685913	-9.077033	4.312833E-006	0.0006804	11
	15	51	9515.62	2.667054	-0.5658108	1	2.726411	-11.97761	-1.140628E-005	0.0006892	11
	16	53	7546.875	2.685919	-0.7365142	1	2.78507	-15.33433	-1.412559E-005	0.0006854	11
	17	55	5928.309	2.710105	-0.951205	1	2.872187	-19.34029	1.647424E-005	0.000694	11
	18	58	4733.456	2.739579	-1.19398	1	2.988458	-23.54882	-7.795662E-006	0.000677	11
	19	60	3796.875	2.775379	-1.481342	1	3.145966	-28.0908	2.782335E-005	0.000708	11
	20	62	2987.132	2.824944	-1.866642	1	3.38595	-33.45559	2.306986E-005	0.0007115	11
	21	65	2390.625	2.88378	-2.306208	1	3.69253	-38.64993	2.276991E-005	0.0007165	11
	22	67	1884.191	2.966977	-2.884046	1	4.137713	-44.18795	-1.482541E-005	0.0006573	10
	23	69	1516.544	3.060266	-3.529267	1	4.67129	-49.07108	2.267621E-005	0.0006485	10
	24	71	1193.986	3.190929	-4.404116	1	5.43859	-54.07542	-2.382851E-005	0.0006719	10
	25	74	946.5144	3.353221	-5.457629	1	6.405451	-58.43303	9.958442E-006	0.0006643	10
	26	76	751.7689	3.564145	-6.740995	1	7.625231	-62.13339	-2.07542E-005	0.0006708	10
	27	79	597.4265	3.83301	-8.312584	1	9.153744	-65.24513	2.208863E-005	0.0006463	10
	28	81	477.4305	4.175755	-10.19662	1	11.01853	-67.72974	-5.070467E-007	0.0006654	10
	29	83	376.6741	4.647696	-12.63418	1	13.46194	-69.80311	2.723806E-007	0.0006617	10
	30	86	298.2954	5.255847	-15.5768	1	16.4396	-71.35483	-1.772609E-007	0.0006653	10
	31	88	237.7717	6.019392	-19.05263	1	19.98089	-72.46686	-4.223081E-007	0.0006608	10
	32	90	189.0121	7.007531	-23.3111	1	24.34159	-73.26875	-8.274689E-007	0.0006639	10
	33	93	150.2404	8.255537	-28.45699	1	29.63029	-73.82225	-1.295651E-007	0.0006567	10
	34	95	119.1737	9.81807	-34.7195	1	36.08099	-74.21002	-5.422714E-007	0.0006615	10
	35	97	95.0169	11.6633	-42.04353	1	43.63131	-74.49545	2.279046E-006	6.696706E-005	9
	36	100	75.60484	13.90887	-50.9952	1	52.85799	-74.74374	2.119986E-006	6.315809E-005	9
	37	103	54.50582	17.86395	-67.16753	1	69.5025	-75.10633	2.134556E-006	5.412658E-005	9
	38	105	45.95588	20.33017	-77.56965	1	80.18956	-75.31372	2.486441E-006	6.060331E-005	9
	39	107	37.20238	23.83238	-92.73965	1	95.7529	-75.5879	2.395762E-006	5.751547E-005	9
	40	110	30.04808	27.92141	-111.1497	1	114.6031	-75.89878	2.276337E-006	5.704354E-005	9
	41	112	23.91582	33.05244	-135.051	1	139.0368	-76.24773	2.23357E-006	5.847834E-005	9
	42	115	18.60119	39.85721	-167.6221	1	172.2955	-76.62459	2.103502E-006	6.701751E-005	9
	43	117	15.02404	46.77959	-201.7589	1	207.111	-76.94612	2.545132E-006	7.084486E-005	9
	44	119	12.01923	55.60394	-245.076	1	251.3047	-77.21689	2.275882E-006	6.268128E-005	9
	45	122	9.450605	67.51143	-302.8492	1	310.2828	-77.43305	2.218187E-006	0.0001178	9
	46	124	7.512019	81.60382	-370.887	1	379.7583	-77.5913	2.516278E-006	6.221914E-005	9
	47	127	5.978954	99.1735	-451.9764	1	462.7289	-77.62418	1.835679E-006	0.0006346	8
	48	130	4.734848	123.249	-555.7547	1	569.2571	-77.49596	1.841594E-006	0.0006674	8
	49	133	3.75601	154.3603	-682.3951	1	699.6357	-77.25399	1.76689E-006	0.0006247	8
	50	136	3.004808	193.9065	-830.6295	1	852.9625	-76.8599	1.778303E-006	0.0006559	8
	51	140	2.372217	252.1672	-1022.452	1	1053.089	-76.14564	1.78172E-006	0.0006973	8
	52	144	1.878005	328.8277	-1256.132	1	1298.459	-75.33041	1.689936E-006	0.0006278	8
	53	149	1.512097	424.133	-1513.392	1	1571.701	-74.34429	1.763369E-006	0.0005732	8
	54	154	1.201923	569.8368	-1841.182	1	1927.347	-72.80296	1.702418E-006	0.0006237	8
	55	161	0.956633	765.4729	-2219.381	1	2347.68	-70.9705	1.649365E-006	3.222E-005	8
