EXPLAIN
TAG	EISPOT
TITLE	LABEL	Potentiostatic EIS	Test Identifier
DATE	LABEL	9/13/2020	Date
TIME	LABEL	22:48:01	Time
NOTES	NOTES	1	Notes...
	
PSTAT	PSTAT	REF3000-16137	Potentiostat
VDC	POTEN	0.00000E+000	T	DC Voltage (V)
FREQINIT	QUANT	3.00000E+005	Initial Freq. (Hz)
FREQFINAL	QUANT	1.00000E+000	Final Freq. (Hz)
PTSPERDEC	QUANT	1.00000E+001	Points/decade
VAC	QUANT	5.00000E+001	AC Voltage (mV rms)
AREA	QUANT	1.00000E+000	Sample Area (cm^2)
SPEED	SELECTOR	2	Optimize for:
ZGUESS	QUANT	1.00000E+003	Estimated Z (ohms)
EOC	QUANT	0	Open Circuit (V)
SEQUENCER	TOGGLE	TRUE	Run as Sequence
PSTATMODEL	IQUANT	5	Pstat Model
PSTATSECTION	LABEL	REF3000-16137	Pstat Section
PSTATSERIALNO	LABEL	16137	Pstat Serial Number
CTRLMODE	IQUANT	1	Control Mode
IESTAB	IQUANT	0	I/E Stability
CASPEED	IQUANT	1	Control Amp Speed
CONVENTION	IQUANT	1	Current Convention
ICHRANGE	IQUANT	2	Ich Range
ICHRANGEMODE	TOGGLE	F	Ich Auto Range
ICHOFFSETENABLE	TOGGLE	T	Ich Offset Enable
ICHOFFSET	QUANT	0	Ich Offset (V)
ICHFILTER	IQUANT	3	Ich Filter
VCHRANGE	IQUANT	2	Vch Range
VCHRANGEMODE	TOGGLE	F	Vch Auto Range
VCHOFFSETENABLE	TOGGLE	T	Vch Offset Enable
VCHOFFSET	QUANT	0	Vch Offset (V)
VCHFILTER	IQUANT	3	Vch Filter
ACHRANGE	IQUANT	2	Ach Range
ACHOFFSETENABLE	TOGGLE	F	Ach Offset Enable
ACHOFFSET	QUANT	0	Ach Offset (V)
ACHFILTER	IQUANT	3	Ach Filter
IERANGELOWERLIMIT	IQUANT	2	I/E Range Lower Limit
IERANGEMODE	TOGGLE	F	I/E AutoRange
IERANGE	IQUANT	11	I/E Range
POSFEEDENABLE	TOGGLE	F	Positive Feedback IR Comp
POSFEEDRESISTANCE	QUANT	0	Positive Feedback Resistance (ohm)
ACHSELECT	IQUANT	0	Ach Select
CABLEID	IQUANT	13	Cable ID
DCCALDATE	LABEL	7/31/2020	DC Calibration Date
ACCALDATE	LABEL	7/31/2020	AC Calibration Date
THERMOSELECT	IQUANT	1	Thermo Select
FRAMEWORKVERSION	QUANT	6.33	Framework Version
INSTRUMENTVERSION	LABEL	3.50	Instrument Version
COMPLIANCEVOLTAGE	IQUANT	0	Compliance Voltage
ZCURVE	TABLE
	Pt	Time	Freq	Zreal	Zimag	Zsig	Zmod	Zphz	Idc	Vdc	IERange
	#	s	Hz	ohm	ohm	V	ohm	°	A	V	#
	0	25	300046.9	-42.43478	-4425.394	1	4425.598	-90.54939	1.674073E-005	-0.0011026	9
	1	42	238359.4	205.8469	-5572.889	1	5576.689	-87.88461	2.710697E-005	-0.0016312	9
	2	56	189328.1	268.2391	-6828.699	1	6833.965	-87.75051	-2.083039E-005	0.0012615	9
	3	64	150421.9	203.5915	-8880.183	1	8882.517	-88.68664	2.763646E-005	-0.0014425	9
	4	76	119484.4	290.5947	-10906.64	1	10910.51	-88.47379	-6.128077E-005	0.0006494	9
	5	84	94921.88	748.6448	-13429.22	1	13450.08	-86.80921	-9.61056E-006	-0.0021265	8
	6	93	75421.88	774.5334	-16750.97	1	16768.87	-87.35264	-2.627055E-005	0.0075331	8
	7	101	59859.37	596.3598	-22092.1	1	22100.14	-88.45372	-2.064321E-005	0.0028427	8
	8	110	47578.12	4175.306	-27635.11	1	27948.75	-81.40833	-7.190177E-006	0.0234519	7
	9	118	37828.12	1440.771	-33272.14	1	33303.32	-87.52049	-1.596515E-005	0.0005903	8
	10	126	30046.88	4613.922	-42536.52	1	42786.02	-83.80935	5.224432E-006	-0.026348	7
	11	134	23859.38	5172.286	-52993.58	1	53245.4	-84.42547	6.547451E-006	-0.0102274	7
	12	139	18984.38	5988.25	-66073.38	1	66344.19	-84.82141	7.679108E-006	-0.0243547	7
	13	144	15046.87	6427.88	-83991.73	1	84237.34	-85.62369	7.382601E-006	-0.0180658	7
	14	150	11953.13	7072.683	-103507.7	1	103749.1	-86.09106	2.751517E-005	-0.0074859	8
	15	157	9515.62	12121.22	-129543.6	1	130109.4	-84.65447	2.604748E-005	-0.009015	8
	16	165	7546.875	13368	-174381.2	1	174892.8	-85.6163	-1.219646E-005	0.0102874	8
	17	172	5928.309	10226.26	-206585.1	1	206838	-87.16609	-3.659138E-006	0.0252382	7
	18	179	4733.456	-7060.293	-246725.8	1	246826.8	-91.63912	-3.689882E-006	0.02526	7
	19	184	3796.875	22967.08	-314529.5	1	315366.9	-85.82365	4.329613E-007	0.0159346	7
	20	192	2987.132	63325.21	-417188.5	1	421967.3	-81.36893	6.034545E-007	-0.0071229	6
	21	197	2390.625	66004.16	-505569.5	1	509859.9	-82.56187	-5.663099E-007	0.0265462	6
	22	202	1884.191	74972.38	-635855.9	1	640260.6	-83.27543	-7.45599E-007	0.0232104	6
	23	208	1516.544	115143.3	-779971.9	1	788425.1	-81.60236	7.168814E-007	-0.0268725	6
	24	213	1193.986	152688.1	-965215	1	977217	-81.01082	6.096808E-007	-0.0074661	6
	25	219	946.5144	245018.2	-1166867	1	1192314	-78.14134	-6.509066E-007	0.0099053	6
	26	222	751.7689	377411.9	-1721690	1	1762570	-77.63575	7.149252E-007	-0.0156758	6
	27	226	597.4265	220466.1	-1624283	1	1639177	-82.2704	5.886228E-007	-0.0067833	6
	28	231	477.4305	419728.6	-2334101	1	2371540	-79.80576	-9.813873E-009	0.000657	6
	29	236	376.6741	905514.4	-2949918	1	3085769	-72.93547	-1.114933E-009	0.0006875	5
	30	239	298.2954	1120191	-3618908	1	3788314	-72.8007	-9.599604E-010	0.0006062	5
	31	243	237.7717	1443249	-4458716	1	4686482	-72.06367	-1.015809E-009	0.0006872	5
	32	247	189.0121	1834765	-5349655	1	5655543	-71.06963	-1.034281E-009	0.0006811	5
	33	251	150.2404	2499474	-6515719	1	6978680	-69.01285	-1.007806E-009	0.0006207	5
	34	254	119.1737	2831661	-6115208	1	6738996	-65.1534	-1.03303E-009	0.0006044	5
	35	258	95.0169	4110958	-9287430	1	1.015659E+007	-66.12405	-1.07475E-009	0.0006229	5
	36	261	75.60484	5596171	-1.027174E+007	1	1.169725E+007	-61.4179	-9.950688E-010	0.0006601	5
	37	264	54.50582	8216103	-1.300994E+007	1	1.53871E+007	-57.72657	-1.002433E-009	0.0006659	5
	38	267	45.95588	1.165666E+007	-1.475829E+007	1	1.880651E+007	-51.69696	-5.128949E-011	0.0006002	4
	39	270	37.20238	1.627222E+007	-1.466177E+007	1	2.190326E+007	-42.01982	-1.375195E-010	0.0006857	4
	40	273	30.04808	1.785527E+007	-1.635588E+007	1	2.421416E+007	-42.49047	-1.017438E-010	0.000668	4
	41	276	23.91582	1.847211E+007	-1.838601E+007	1	2.60627E+007	-44.86615	-1.011741E-009	0.0006843	5
	42	279	18.60119	1.947489E+007	-1.678448E+007	1	2.570973E+007	-40.75648	-8.739418E-010	0.000682	5
	43	283	15.02404	2.796824E+007	-1.889337E+007	1	3.375177E+007	-34.04018	-1.011166E-009	0.0006224	5
	44	286	12.01923	3.201288E+007	-1.89721E+007	1	3.721243E+007	-30.65267	-1.037504E-009	0.0006802	5
	45	290	9.450605	3.659477E+007	-1.81456E+007	1	4.084654E+007	-26.37461	-1.173892E-010	0.0006175	4
	46	294	7.512019	4.107919E+007	-1.61127E+007	1	4.412617E+007	-21.41685	-9.215378E-011	0.0006779	4
	47	299	5.978954	4.523116E+007	-1.718973E+007	1	4.838744E+007	-20.80889	-6.425496E-011	0.000604	4
	48	304	4.734848	4.944426E+007	-1.450656E+007	1	5.152839E+007	-16.35128	-9.505254E-011	0.0007072	4
	49	310	3.75601	5.308039E+007	-1.272131E+007	1	5.458351E+007	-13.47738	-7.748575E-011	0.0005887	4
	50	317	3.004808	5.800428E+007	-1.314156E+007	1	5.947434E+007	-12.76554	-9.342801E-011	0.0007314	4
	51	325	2.372217	6.513877E+007	-7931723	1	6.56199E+007	-6.942531	-7.766724E-012	0.0007746	3
	52	329	1.878005	6.82633E+007	-7380697	1	6.866115E+007	-6.170906	-8.741728E-012	0.0006985	3
	53	334	1.512097	7.181995E+007	-7063458	1	7.216646E+007	-5.616949	-6.775269E-012	0.0008116	3
	54	339	1.201923	7.621626E+007	-6794618	1	7.651853E+007	-5.094405	-8.940708E-012	0.0006901	3
	55	345	0.956633	8.11121E+007	-6653500	1	8.138454E+007	-4.689384	-1.488013E-011	8.449262E-005	3
