EXPLAIN
TAG	EISPOT
TITLE	LABEL	Potentiostatic EIS	Test Identifier
DATE	LABEL	9/13/2020	Date
TIME	LABEL	20:48:04	Time
NOTES	NOTES	1	Notes...
	
PSTAT	PSTAT	REF3000-16137	Potentiostat
VDC	POTEN	0.00000E+000	T	DC Voltage (V)
FREQINIT	QUANT	3.00000E+005	Initial Freq. (Hz)
FREQFINAL	QUANT	1.00000E+000	Final Freq. (Hz)
PTSPERDEC	QUANT	1.00000E+001	Points/decade
VAC	QUANT	5.00000E+001	AC Voltage (mV rms)
AREA	QUANT	1.00000E+000	Sample Area (cm^2)
SPEED	SELECTOR	2	Optimize for:
ZGUESS	QUANT	1.00000E+003	Estimated Z (ohms)
EOC	QUANT	0	Open Circuit (V)
SEQUENCER	TOGGLE	TRUE	Run as Sequence
PSTATMODEL	IQUANT	5	Pstat Model
PSTATSECTION	LABEL	REF3000-16137	Pstat Section
PSTATSERIALNO	LABEL	16137	Pstat Serial Number
CTRLMODE	IQUANT	1	Control Mode
IESTAB	IQUANT	0	I/E Stability
CASPEED	IQUANT	1	Control Amp Speed
CONVENTION	IQUANT	1	Current Convention
ICHRANGE	IQUANT	2	Ich Range
ICHRANGEMODE	TOGGLE	F	Ich Auto Range
ICHOFFSETENABLE	TOGGLE	T	Ich Offset Enable
ICHOFFSET	QUANT	0	Ich Offset (V)
ICHFILTER	IQUANT	3	Ich Filter
VCHRANGE	IQUANT	2	Vch Range
VCHRANGEMODE	TOGGLE	F	Vch Auto Range
VCHOFFSETENABLE	TOGGLE	T	Vch Offset Enable
VCHOFFSET	QUANT	0	Vch Offset (V)
VCHFILTER	IQUANT	3	Vch Filter
ACHRANGE	IQUANT	2	Ach Range
ACHOFFSETENABLE	TOGGLE	F	Ach Offset Enable
ACHOFFSET	QUANT	0	Ach Offset (V)
ACHFILTER	IQUANT	3	Ach Filter
IERANGELOWERLIMIT	IQUANT	2	I/E Range Lower Limit
IERANGEMODE	TOGGLE	F	I/E AutoRange
IERANGE	IQUANT	11	I/E Range
POSFEEDENABLE	TOGGLE	F	Positive Feedback IR Comp
POSFEEDRESISTANCE	QUANT	0	Positive Feedback Resistance (ohm)
ACHSELECT	IQUANT	0	Ach Select
CABLEID	IQUANT	13	Cable ID
DCCALDATE	LABEL	7/31/2020	DC Calibration Date
ACCALDATE	LABEL	7/31/2020	AC Calibration Date
THERMOSELECT	IQUANT	1	Thermo Select
FRAMEWORKVERSION	QUANT	6.33	Framework Version
INSTRUMENTVERSION	LABEL	3.50	Instrument Version
COMPLIANCEVOLTAGE	IQUANT	0	Compliance Voltage
ZCURVE	TABLE
	Pt	Time	Freq	Zreal	Zimag	Zsig	Zmod	Zphz	Idc	Vdc	IERange
	#	s	Hz	ohm	ohm	V	ohm	°	A	V	#
	0	10	300046.9	2.335542	2.234124	1	3.232038	43.72861	7.376272E-005	-0.0003297	11
	1	13	238359.4	2.285178	1.790967	1	2.903378	38.08694	-0.0001344	-0.0004186	11
	2	16	189328.1	2.333235	1.251072	1	2.647483	28.20005	-9.119923E-005	0.0001354	12
	3	20	150421.9	2.286662	0.982521	1	2.488809	23.25198	-0.0001676	0.0002021	12
	4	23	119484.4	2.2575	0.7660195	1	2.383924	18.7432	-2.134995E-005	0.0004632	12
	5	27	94921.88	2.240156	0.586862	1	2.315752	14.68009	-4.054316E-005	0.0005029	12
	6	31	75421.88	2.219157	0.4968277	1	2.274092	12.61936	-4.665142E-006	0.0005306	11
	7	33	59859.37	2.218253	0.3563792	1	2.246698	9.12701	-2.033559E-005	0.0005862	11
	8	36	47578.12	2.219401	0.235264	1	2.231836	6.050947	-2.53315E-005	0.0006167	11
	9	38	37828.12	2.220893	0.1269887	1	2.22452	3.272558	2.009825E-005	0.0006414	11
	10	41	30046.88	2.224874	0.0267398	1	2.225034	0.6885803	-4.026809E-005	0.0006178	11
	11	43	23859.38	2.23044	-0.0713561	1	2.231581	-1.832377	-4.110395E-005	0.0006519	11
	12	45	18984.38	2.237873	-0.1706869	1	2.244373	-4.361614	-7.299212E-005	0.0007431	11
	13	48	15046.87	2.245545	-0.2792358	1	2.26284	-7.088402	-3.434676E-005	0.0006499	11
	14	50	11953.13	2.257229	-0.3992281	1	2.292262	-10.02997	1.539133E-005	0.0006942	11
	15	52	9515.62	2.270371	-0.535366	1	2.332638	-13.26828	7.235623E-006	0.0006645	11
	16	55	7546.875	2.28864	-0.6985731	1	2.39288	-16.97403	2.624211E-005	0.0006973	11
	17	57	5928.309	2.313398	-0.9035969	1	2.483606	-21.33526	-3.482161E-005	0.0006697	11
	18	59	4733.456	2.341713	-1.134259	1	2.601954	-25.84423	2.807021E-005	0.0006982	11
	19	62	3796.875	2.377212	-1.40849	1	2.763147	-30.6466	-3.741588E-005	0.000727	11
	20	64	2987.132	2.426821	-1.772653	1	3.005289	-36.14598	-2.703542E-005	0.0006701	11
	21	66	2390.625	2.486755	-2.186916	1	3.311578	-41.32922	-1.466619E-005	0.0006932	11
	22	69	1884.191	2.565981	-2.731886	1	3.747994	-46.79365	1.487448E-005	0.0006843	11
	23	71	1516.544	2.661941	-3.343273	1	4.27357	-51.47291	2.173803E-005	0.0006376	10
	24	73	1193.986	2.793426	-4.167768	1	5.017323	-56.16823	-1.327791E-006	0.0006659	10
	25	76	946.5144	2.959878	-5.158341	1	5.947215	-60.15261	4.072977E-006	0.0006262	10
	26	78	751.7689	3.174855	-6.360664	1	7.108991	-63.47443	1.650236E-005	0.0006531	10
	27	80	597.4265	3.455074	-7.83787	1	8.565614	-66.21125	-1.673944E-005	0.0006791	10
	28	83	477.4305	3.809053	-9.58549	1	10.31458	-68.32826	1.44505E-006	0.0006607	10
	29	85	376.6741	4.295061	-11.84151	1	12.59638	-70.06367	-2.384513E-006	0.0007198	10
	30	87	298.2954	4.912	-14.54714	1	15.35406	-71.34219	1.523115E-006	0.0006701	10
	31	90	237.7717	5.673777	-17.72838	1	18.61417	-72.25329	6.373197E-007	0.000668	10
	32	93	189.0121	6.633168	-21.60548	1	22.60079	-72.93282	7.22205E-007	0.0006695	10
	33	95	150.2404	7.809488	-26.27446	1	27.4105	-73.44661	6.248983E-007	0.0006654	10
	34	98	119.1737	9.245769	-31.9742	1	33.28413	-73.87206	8.281256E-007	0.0007182	10
	35	100	95.0169	10.91654	-38.69713	1	40.20745	-74.24612	8.475171E-007	0.0006622	10
	36	103	75.60484	12.89484	-46.85656	1	48.5985	-74.6132	3.531587E-006	6.605597E-005	9
	37	105	54.50582	16.38675	-61.76118	1	63.89811	-75.1404	3.393148E-006	5.815945E-005	9
	38	108	45.95588	18.58003	-71.40519	1	73.78291	-75.41475	3.902886E-006	6.547821E-005	9
	39	110	37.20238	21.70244	-85.48209	1	88.19401	-75.75456	3.670658E-006	6.567917E-005	9
	40	112	30.04808	25.42658	-102.6717	1	105.7733	-76.09058	3.515235E-006	6.303945E-005	9
	41	115	23.91582	30.11956	-124.9422	1	128.5214	-76.44643	3.600801E-006	5.97437E-005	9
	42	117	18.60119	36.57733	-155.4924	1	159.7366	-76.76266	3.368242E-006	0.0001191	9
	43	119	15.02404	43.33157	-187.4295	1	192.3732	-76.98257	3.721859E-006	6.160047E-005	9
	44	122	12.01923	52.29776	-228.0672	1	233.9866	-77.08487	3.728111E-006	7.010314E-005	9
	45	124	9.450605	64.61845	-282.0784	1	289.3852	-77.09732	3.81557E-006	5.800367E-005	9
	46	127	7.512019	80.00687	-345.4481	1	354.5919	-76.96003	3.853012E-006	7.768111E-005	9
	47	129	5.978954	100.0306	-422.461	1	434.1421	-76.6788	3.770147E-006	6.646736E-005	9
	48	132	4.734848	127.324	-516.7159	1	532.1717	-76.15751	3.18418E-006	0.0006692	8
	49	136	3.75601	164.636	-632.7632	1	653.8304	-75.41582	3.057273E-006	0.0006228	8
	50	139	3.004808	213.772	-767.2656	1	796.4892	-74.43134	3.064988E-006	0.0007067	8
	51	143	2.372217	287.3872	-937.441	1	980.503	-72.95626	3.085776E-006	0.0006908	8
	52	147	1.878005	387.1635	-1139.074	1	1203.074	-71.22746	2.980172E-006	0.0006334	8
	53	152	1.512097	510.8214	-1351.901	1	1445.19	-69.30072	3.056793E-006	0.0005795	8
	54	157	1.201923	694.7899	-1608.143	1	1751.815	-66.63349	2.989509E-006	0.0006267	8
	55	163	0.956633	932.608	-1881.69	1	2100.122	-63.63594	2.898895E-006	-2.313368E-007	8
