EXPLAIN
TAG	EISPOT
TITLE	LABEL	Potentiostatic EIS	Test Identifier
DATE	LABEL	9/13/2020	Date
TIME	LABEL	22:03:46	Time
NOTES	NOTES	1	Notes...
	
PSTAT	PSTAT	REF3000-16137	Potentiostat
VDC	POTEN	0.00000E+000	T	DC Voltage (V)
FREQINIT	QUANT	3.00000E+005	Initial Freq. (Hz)
FREQFINAL	QUANT	1.00000E+000	Final Freq. (Hz)
PTSPERDEC	QUANT	1.00000E+001	Points/decade
VAC	QUANT	5.00000E+001	AC Voltage (mV rms)
AREA	QUANT	1.00000E+000	Sample Area (cm^2)
SPEED	SELECTOR	2	Optimize for:
ZGUESS	QUANT	1.00000E+003	Estimated Z (ohms)
EOC	QUANT	0	Open Circuit (V)
SEQUENCER	TOGGLE	TRUE	Run as Sequence
PSTATMODEL	IQUANT	5	Pstat Model
PSTATSECTION	LABEL	REF3000-16137	Pstat Section
PSTATSERIALNO	LABEL	16137	Pstat Serial Number
CTRLMODE	IQUANT	1	Control Mode
IESTAB	IQUANT	0	I/E Stability
CASPEED	IQUANT	1	Control Amp Speed
CONVENTION	IQUANT	1	Current Convention
ICHRANGE	IQUANT	2	Ich Range
ICHRANGEMODE	TOGGLE	F	Ich Auto Range
ICHOFFSETENABLE	TOGGLE	T	Ich Offset Enable
ICHOFFSET	QUANT	0	Ich Offset (V)
ICHFILTER	IQUANT	3	Ich Filter
VCHRANGE	IQUANT	2	Vch Range
VCHRANGEMODE	TOGGLE	F	Vch Auto Range
VCHOFFSETENABLE	TOGGLE	T	Vch Offset Enable
VCHOFFSET	QUANT	0	Vch Offset (V)
VCHFILTER	IQUANT	3	Vch Filter
ACHRANGE	IQUANT	2	Ach Range
ACHOFFSETENABLE	TOGGLE	F	Ach Offset Enable
ACHOFFSET	QUANT	0	Ach Offset (V)
ACHFILTER	IQUANT	3	Ach Filter
IERANGELOWERLIMIT	IQUANT	2	I/E Range Lower Limit
IERANGEMODE	TOGGLE	F	I/E AutoRange
IERANGE	IQUANT	11	I/E Range
POSFEEDENABLE	TOGGLE	F	Positive Feedback IR Comp
POSFEEDRESISTANCE	QUANT	0	Positive Feedback Resistance (ohm)
ACHSELECT	IQUANT	0	Ach Select
CABLEID	IQUANT	13	Cable ID
DCCALDATE	LABEL	7/31/2020	DC Calibration Date
ACCALDATE	LABEL	7/31/2020	AC Calibration Date
THERMOSELECT	IQUANT	1	Thermo Select
FRAMEWORKVERSION	QUANT	6.33	Framework Version
INSTRUMENTVERSION	LABEL	3.50	Instrument Version
COMPLIANCEVOLTAGE	IQUANT	0	Compliance Voltage
ZCURVE	TABLE
	Pt	Time	Freq	Zreal	Zimag	Zsig	Zmod	Zphz	Idc	Vdc	IERange
	#	s	Hz	ohm	ohm	V	ohm	°	A	V	#
	0	7	300046.9	84.10134	1.083657	1	84.10832	0.7382229	1.098596E-005	-0.001166	9
	1	10	238359.4	84.67582	0.8556082	1	84.68015	0.5789264	-4.196711E-006	0.0007324	9
	2	13	189328.1	85.29488	0.6013402	1	85.297	0.4039361	4.41985E-005	-0.0005162	9
	3	15	150421.9	85.78465	0.3868902	1	85.78551	0.2584032	-6.929453E-005	0.0018533	9
	4	18	119484.4	86.18617	0.1214106	1	86.18626	0.0807126	-6.356795E-005	0.0024585	9
	5	20	94921.88	86.73039	0.3745853	1	86.7312	0.2474568	2.270788E-005	-0.0006163	9
	6	23	75421.88	87.17173	0.1984775	1	87.17196	0.130454	-1.616673E-005	0.0003568	9
	7	26	59859.37	87.82661	-0.0080972	1	87.82661	-0.0052824	2.288377E-005	-0.0004312	9
	8	29	47578.12	88.29203	-0.1229849	1	88.29211	-0.0798091	2.067804E-005	-0.0005277	9
	9	32	37828.12	88.78682	-0.2136916	1	88.78708	-0.1378989	-1.307738E-005	0.0007586	9
	10	34	30046.88	89.28548	-0.3207475	1	89.28606	-0.2058274	-1.267135E-005	0.000826	9
	11	37	23859.38	89.73623	-0.4430521	1	89.73732	-0.2828825	1.037322E-005	0.0001468	9
	12	39	18984.38	90.17466	-0.5076591	1	90.17609	-0.3225564	2.942181E-006	0.0004756	9
	13	41	15046.87	90.64009	-0.6193509	1	90.6422	-0.3915005	-1.950349E-005	0.0007762	9
	14	43	11953.13	91.19186	-0.9167382	1	91.19647	-0.5759665	-1.715751E-005	0.00043	9
	15	46	9515.62	91.54003	-1.034053	1	91.54587	-0.6471959	-1.701737E-005	0.0008589	9
	16	48	7546.875	92.0246	-1.272596	1	92.0334	-0.792285	-1.646647E-005	0.0003896	9
	17	50	5928.309	92.52789	-1.657098	1	92.54273	-1.02601	1.794034E-005	-0.0006976	9
	18	53	4733.456	93.01682	-1.996784	1	93.03825	-1.229774	-1.952529E-005	0.0006	9
	19	55	3796.875	93.50217	-2.410283	1	93.53323	-1.476634	-1.193762E-005	0.0008946	9
	20	57	2987.132	94.02757	-3.006074	1	94.07561	-1.83113	-6.088098E-006	0.0006898	9
	21	60	2390.625	94.50265	-3.745497	1	94.57684	-2.26966	-1.176154E-005	0.0008327	9
	22	62	1884.191	95.0519	-4.591568	1	95.1627	-2.765576	2.410984E-005	-0.0005774	9
	23	64	1516.544	95.648	-5.696527	1	95.8175	-3.40835	-1.618853E-005	0.0003719	9
	24	67	1193.986	96.2465	-7.113955	1	96.509	-4.227268	-1.415208E-005	0.0001598	9
	25	69	946.5144	96.9215	-8.792737	1	97.3195	-5.183694	2.299798E-005	-0.0004103	9
	26	71	751.7689	97.6749	-10.95912	1	98.2878	-6.401808	-6.020666E-006	0.0007104	9
	27	74	597.4265	98.3254	-13.66137	1	99.2699	-7.910057	-1.833945E-005	0.0004417	9
	28	76	477.4305	99.1468	-16.76193	1	100.5537	-9.59579	1.244499E-006	7.138775E-005	9
	29	78	376.6741	100.0731	-20.92463	1	102.2373	-11.81003	1.263684E-006	6.849723E-005	9
	30	81	298.2954	101.1076	-26.03231	1	104.4051	-14.43843	1.21169E-006	7.315854E-005	9
	31	83	237.7717	102.2994	-32.18707	1	107.2435	-17.46546	1.244252E-006	6.871919E-005	9
	32	85	189.0121	103.6931	-39.88813	1	111.1005	-21.04049	1.265679E-006	6.522065E-005	9
	33	88	150.2404	105.3323	-49.41918	1	116.3493	-25.13475	1.222585E-006	6.73426E-005	9
	34	90	119.1737	107.3019	-61.31526	1	123.585	-29.74484	1.17887E-006	6.848235E-005	9
	35	92	95.0169	109.6379	-75.67598	1	133.2191	-34.61481	1.257084E-006	6.976278E-005	9
	36	95	75.60484	112.5211	-93.53436	1	146.3204	-39.73541	8.137625E-007	0.0001212	9
	37	99	54.50582	117.7785	-126.5461	1	172.8748	-47.05517	1.199766E-006	6.579663E-005	9
	38	101	45.95588	121.3339	-148.1116	1	191.4653	-50.67545	1.107177E-006	7.581418E-005	9
	39	103	37.20238	126.3851	-179.8509	1	219.8171	-54.90345	7.299806E-007	0.0001327	9
	40	106	30.04808	132.6729	-218.8031	1	255.8845	-58.76917	1.312292E-006	6.868364E-005	9
	41	108	23.91582	140.9112	-269.7006	1	304.2932	-62.41416	1.269668E-006	0.0001223	9
	42	111	18.60119	152.1773	-339.2899	1	371.8543	-65.84296	1.216071E-006	7.248591E-005	9
	43	113	15.02404	163.5242	-410.605	1	441.9691	-68.28499	2.848687E-007	0.0006559	8
	44	115	12.01923	179.1523	-503.1497	1	534.0929	-70.40114	2.427888E-007	0.0006367	8
	45	118	9.450605	200.5063	-626.1006	1	657.4229	-72.24254	1.701712E-007	0.0006317	8
	46	120	7.512019	226.5367	-771.5618	1	804.1309	-73.63734	2.458752E-007	0.0006382	8
	47	123	5.978954	259.5294	-948.2792	1	983.153	-74.69384	2.49449E-007	0.0006442	8
	48	126	4.734848	303.8496	-1170.646	1	1209.436	-75.44955	2.261863E-007	0.0006552	8
	49	129	3.75601	359.5804	-1440.607	1	1484.806	-75.98515	1.990641E-007	0.0006277	8
	50	132	3.004808	427.8238	-1755.887	1	1807.255	-76.30663	2.07769E-007	0.0006588	8
	51	136	2.372217	523.3448	-2162.524	1	2224.949	-76.39561	2.083623E-007	0.0007076	8
	52	140	1.878005	636.8925	-2657.327	1	2732.584	-76.52192	1.78434E-007	0.0006239	8
	53	145	1.512097	765.5382	-3202.871	1	3293.088	-76.55757	2.17346E-007	0.0005958	8
	54	150	1.201923	943.1256	-3914.289	1	4026.306	-76.45312	1.872178E-007	0.0006292	8
	55	157	0.956633	1155.879	-4769.718	1	4907.776	-76.37773	2.076785E-009	-1.448394E-005	7
