EXPLAIN
TAG	EISPOT
TITLE	LABEL	Potentiostatic EIS	Test Identifier
DATE	LABEL	9/13/2020	Date
TIME	LABEL	21:05:12	Time
NOTES	NOTES	1	Notes...
	
PSTAT	PSTAT	REF3000-16137	Potentiostat
VDC	POTEN	0.00000E+000	T	DC Voltage (V)
FREQINIT	QUANT	3.00000E+005	Initial Freq. (Hz)
FREQFINAL	QUANT	1.00000E+000	Final Freq. (Hz)
PTSPERDEC	QUANT	1.00000E+001	Points/decade
VAC	QUANT	5.00000E+001	AC Voltage (mV rms)
AREA	QUANT	1.00000E+000	Sample Area (cm^2)
SPEED	SELECTOR	2	Optimize for:
ZGUESS	QUANT	1.00000E+003	Estimated Z (ohms)
EOC	QUANT	0	Open Circuit (V)
SEQUENCER	TOGGLE	TRUE	Run as Sequence
PSTATMODEL	IQUANT	5	Pstat Model
PSTATSECTION	LABEL	REF3000-16137	Pstat Section
PSTATSERIALNO	LABEL	16137	Pstat Serial Number
CTRLMODE	IQUANT	1	Control Mode
IESTAB	IQUANT	0	I/E Stability
CASPEED	IQUANT	1	Control Amp Speed
CONVENTION	IQUANT	1	Current Convention
ICHRANGE	IQUANT	2	Ich Range
ICHRANGEMODE	TOGGLE	F	Ich Auto Range
ICHOFFSETENABLE	TOGGLE	T	Ich Offset Enable
ICHOFFSET	QUANT	0	Ich Offset (V)
ICHFILTER	IQUANT	3	Ich Filter
VCHRANGE	IQUANT	2	Vch Range
VCHRANGEMODE	TOGGLE	F	Vch Auto Range
VCHOFFSETENABLE	TOGGLE	T	Vch Offset Enable
VCHOFFSET	QUANT	0	Vch Offset (V)
VCHFILTER	IQUANT	3	Vch Filter
ACHRANGE	IQUANT	2	Ach Range
ACHOFFSETENABLE	TOGGLE	F	Ach Offset Enable
ACHOFFSET	QUANT	0	Ach Offset (V)
ACHFILTER	IQUANT	3	Ach Filter
IERANGELOWERLIMIT	IQUANT	2	I/E Range Lower Limit
IERANGEMODE	TOGGLE	F	I/E AutoRange
IERANGE	IQUANT	11	I/E Range
POSFEEDENABLE	TOGGLE	F	Positive Feedback IR Comp
POSFEEDRESISTANCE	QUANT	0	Positive Feedback Resistance (ohm)
ACHSELECT	IQUANT	0	Ach Select
CABLEID	IQUANT	13	Cable ID
DCCALDATE	LABEL	7/31/2020	DC Calibration Date
ACCALDATE	LABEL	7/31/2020	AC Calibration Date
THERMOSELECT	IQUANT	1	Thermo Select
FRAMEWORKVERSION	QUANT	6.33	Framework Version
INSTRUMENTVERSION	LABEL	3.50	Instrument Version
COMPLIANCEVOLTAGE	IQUANT	0	Compliance Voltage
ZCURVE	TABLE
	Pt	Time	Freq	Zreal	Zimag	Zsig	Zmod	Zphz	Idc	Vdc	IERange
	#	s	Hz	ohm	ohm	V	ohm	°	A	V	#
	0	10	300046.9	2.972176	2.285497	1	3.74931	37.55899	-2.298615E-005	-0.0002118	10
	1	13	238359.4	2.932865	1.806716	1	3.444695	31.63408	-1.057272E-005	-0.0005096	10
	2	16	189328.1	3.000542	1.194921	1	3.22972	21.71419	-0.0001276	-0.0001816	12
	3	20	150421.9	2.905202	1.101359	1	3.106958	20.76167	6.747879E-005	0.0003116	11
	4	22	119484.4	2.898382	0.8530576	1	3.021312	16.40032	2.193725E-005	0.0005128	11
	5	25	94921.88	2.892507	0.6545031	1	2.965631	12.74992	-1.909275E-005	0.0005544	11
	6	27	75421.88	2.890396	0.4872062	1	2.93117	9.56786	-5.367595E-005	0.0006027	11
	7	30	59859.37	2.891807	0.344874	1	2.912299	6.800916	-1.755537E-005	0.0006289	11
	8	32	47578.12	2.894775	0.2226658	1	2.903327	4.398524	-3.658227E-005	0.0006356	11
	9	35	37828.12	2.898334	0.1126114	1	2.900521	2.225041	8.218685E-006	0.000662	11
	10	37	30046.88	2.904013	0.0093918	1	2.904028	0.185298	2.844556E-006	0.0006659	11
	11	40	23859.38	2.911148	-0.0920163	1	2.912601	-1.810417	-2.604259E-005	0.0006761	11
	12	42	18984.38	2.919468	-0.1959665	1	2.926038	-3.840164	-3.616358E-005	0.000676	11
	13	44	15046.87	2.928472	-0.3102096	1	2.944856	-6.046725	-5.812173E-006	0.0006613	11
	14	47	11953.13	2.941846	-0.4370302	1	2.974131	-8.449858	-2.420308E-006	0.0006847	11
	15	49	9515.62	2.957351	-0.5829864	1	3.014266	-11.1518	-2.774399E-005	0.0006885	11
	16	51	7546.875	2.976203	-0.7574909	1	3.071088	-14.2795	2.287103E-006	0.0006881	11
	17	54	5928.309	3.00175	-0.977977	1	3.157046	-18.04573	-3.829858E-005	0.0006811	11
	18	56	4733.456	3.031337	-1.227643	1	3.270491	-22.04717	-3.257484E-005	0.0006793	11
	19	58	3796.875	3.067618	-1.524498	1	3.425547	-26.42575	6.104822E-006	0.0007001	11
	20	61	2987.132	3.118998	-1.919526	1	3.662339	-31.60941	-4.923941E-006	0.0006826	11
	21	64	2390.625	3.180879	-2.372619	1	3.968288	-36.71928	-2.963669E-005	0.0006647	10
	22	66	1884.191	3.261959	-2.966885	1	4.409398	-42.2878	1.491596E-005	0.0006523	10
	23	68	1516.544	3.355314	-3.632316	1	4.944881	-47.27011	2.029901E-005	0.0006411	10
	24	71	1193.986	3.486046	-4.534598	1	5.719711	-52.44813	2.155661E-005	0.0006486	10
	25	73	946.5144	3.647186	-5.621279	1	6.700802	-57.02378	2.230741E-005	0.0006477	10
	26	76	751.7689	3.854384	-6.946647	1	7.944317	-60.97606	-4.359697E-006	0.0006652	10
	27	78	597.4265	4.122178	-8.57733	1	9.51646	-64.33154	1.892638E-005	0.0006521	10
	28	80	477.4305	4.458173	-10.52591	1	11.4311	-67.04527	-1.407164E-006	0.0006685	10
	29	82	376.6741	4.920726	-13.05794	1	13.95433	-69.35169	-1.25874E-006	0.0006601	10
	30	85	298.2954	5.516991	-16.12317	1	17.04095	-71.1102	-1.066944E-006	0.0006681	10
	31	87	237.7717	6.269992	-19.7576	1	20.72862	-72.39338	-1.036115E-006	0.0006591	10
	32	90	189.0121	7.253919	-24.22448	1	25.28724	-73.3299	-8.518813E-007	0.0006651	10
	33	92	150.2404	8.512184	-29.63988	1	30.83796	-73.97663	-8.935111E-007	0.0006652	10
	34	94	119.1737	10.11273	-36.24284	1	37.62726	-74.40946	-9.784657E-007	0.0006649	10
	35	97	95.0169	12.03393	-43.96605	1	45.58321	-74.6925	1.918914E-006	6.319468E-005	9
	36	99	75.60484	14.40828	-53.39891	1	55.30861	-74.89985	1.790631E-006	6.26737E-005	9
	37	102	54.50582	18.63129	-70.37033	1	72.79498	-75.17059	1.717595E-006	6.052324E-005	9
	38	104	45.95588	21.2858	-81.2667	1	84.0081	-75.32251	2.03546E-006	6.747802E-005	9
	39	107	37.20238	25.01729	-97.0648	1	100.237	-75.54726	1.95127E-006	6.961462E-005	9
	40	109	30.04808	29.44702	-116.3382	1	120.0071	-75.79587	1.828459E-006	6.889229E-005	9
	41	111	23.91582	34.93779	-141.2636	1	145.52	-76.10819	1.943124E-006	5.932172E-005	9
	42	114	18.60119	42.07362	-174.9901	1	179.977	-76.48074	1.82696E-006	6.533765E-005	9
	43	116	15.02404	49.24814	-210.3084	1	215.9977	-76.82047	2.008456E-006	6.333212E-005	9
	44	118	12.01923	58.35577	-255.2977	1	261.8823	-77.12457	1.960284E-006	6.391834E-005	9
	45	121	9.450605	70.34808	-315.118	1	322.8749	-77.41544	2.038094E-006	7.242752E-005	9
	46	123	7.512019	84.1669	-385.6907	1	394.7675	-77.68969	2.103681E-006	8.337122E-005	9
	47	126	5.978954	101.4191	-469.8432	1	480.6646	-77.81918	1.337033E-006	0.0006385	8
	48	129	4.734848	124.3833	-578.2471	1	591.4735	-77.86042	1.436797E-006	0.0006461	8
	49	132	3.75601	153.8809	-709.9739	1	726.4587	-77.77077	1.357799E-006	0.0006476	8
	50	136	3.004808	190.756	-865.1308	1	885.9115	-77.5656	1.410304E-006	0.0006125	8
	51	139	2.372217	242.0101	-1066.895	1	1093.999	-77.21954	1.353345E-006	0.0005723	8
	52	144	1.878005	310.9452	-1311.629	1	1347.983	-76.66322	1.309966E-006	0.0006234	8
	53	149	1.512097	393.8924	-1583.62	1	1631.871	-76.03231	1.384095E-006	0.0006055	8
	54	155	1.201923	519.6136	-1939.419	1	2007.821	-75.00143	1.320138E-006	0.0006161	8
	55	161	0.956633	689.0506	-2357.714	1	2456.34	-73.70881	1.277655E-006	-6.644946E-007	8
