EXPLAIN
TAG	EISPOT
TITLE	LABEL	Potentiostatic EIS	Test Identifier
DATE	LABEL	9/13/2020	Date
TIME	LABEL	21:24:53	Time
NOTES	NOTES	1	Notes...
	
PSTAT	PSTAT	REF3000-16137	Potentiostat
VDC	POTEN	0.00000E+000	T	DC Voltage (V)
FREQINIT	QUANT	3.00000E+005	Initial Freq. (Hz)
FREQFINAL	QUANT	1.00000E+000	Final Freq. (Hz)
PTSPERDEC	QUANT	1.00000E+001	Points/decade
VAC	QUANT	5.00000E+001	AC Voltage (mV rms)
AREA	QUANT	1.00000E+000	Sample Area (cm^2)
SPEED	SELECTOR	2	Optimize for:
ZGUESS	QUANT	1.00000E+003	Estimated Z (ohms)
EOC	QUANT	0	Open Circuit (V)
SEQUENCER	TOGGLE	TRUE	Run as Sequence
PSTATMODEL	IQUANT	5	Pstat Model
PSTATSECTION	LABEL	REF3000-16137	Pstat Section
PSTATSERIALNO	LABEL	16137	Pstat Serial Number
CTRLMODE	IQUANT	1	Control Mode
IESTAB	IQUANT	0	I/E Stability
CASPEED	IQUANT	1	Control Amp Speed
CONVENTION	IQUANT	1	Current Convention
ICHRANGE	IQUANT	2	Ich Range
ICHRANGEMODE	TOGGLE	F	Ich Auto Range
ICHOFFSETENABLE	TOGGLE	T	Ich Offset Enable
ICHOFFSET	QUANT	0	Ich Offset (V)
ICHFILTER	IQUANT	3	Ich Filter
VCHRANGE	IQUANT	2	Vch Range
VCHRANGEMODE	TOGGLE	F	Vch Auto Range
VCHOFFSETENABLE	TOGGLE	T	Vch Offset Enable
VCHOFFSET	QUANT	0	Vch Offset (V)
VCHFILTER	IQUANT	3	Vch Filter
ACHRANGE	IQUANT	2	Ach Range
ACHOFFSETENABLE	TOGGLE	F	Ach Offset Enable
ACHOFFSET	QUANT	0	Ach Offset (V)
ACHFILTER	IQUANT	3	Ach Filter
IERANGELOWERLIMIT	IQUANT	2	I/E Range Lower Limit
IERANGEMODE	TOGGLE	F	I/E AutoRange
IERANGE	IQUANT	11	I/E Range
POSFEEDENABLE	TOGGLE	F	Positive Feedback IR Comp
POSFEEDRESISTANCE	QUANT	0	Positive Feedback Resistance (ohm)
ACHSELECT	IQUANT	0	Ach Select
CABLEID	IQUANT	13	Cable ID
DCCALDATE	LABEL	7/31/2020	DC Calibration Date
ACCALDATE	LABEL	7/31/2020	AC Calibration Date
THERMOSELECT	IQUANT	1	Thermo Select
FRAMEWORKVERSION	QUANT	6.33	Framework Version
INSTRUMENTVERSION	LABEL	3.50	Instrument Version
COMPLIANCEVOLTAGE	IQUANT	0	Compliance Voltage
ZCURVE	TABLE
	Pt	Time	Freq	Zreal	Zimag	Zsig	Zmod	Zphz	Idc	Vdc	IERange
	#	s	Hz	ohm	ohm	V	ohm	°	A	V	#
	0	10	300046.9	5.04711	2.256039	1	5.528384	24.08446	-9.070778E-005	0.0001101	10
	1	14	238359.4	5.033161	1.780682	1	5.33887	19.48327	2.390059E-005	-0.0001886	10
	2	17	189328.1	5.02174	1.408683	1	5.215579	15.66971	1.710288E-005	8.455096E-005	10
	3	19	150421.9	5.007602	1.097856	1	5.126536	12.36576	-1.427112E-005	0.000304	10
	4	22	119484.4	5.011161	0.854866	1	5.083555	9.68103	2.091114E-005	0.0004053	10
	5	24	94921.88	5.017074	0.6715135	1	5.061814	7.623483	1.574514E-005	0.0005092	10
	6	27	75421.88	5.020762	0.4960841	1	5.045211	5.642881	-1.565898E-005	0.0005656	10
	7	29	59859.37	5.026299	0.3459981	1	5.038194	3.937889	1.864492E-005	0.0005361	10
	8	32	47578.12	5.035452	0.2155922	1	5.040066	2.451614	-8.657604E-006	0.0005956	10
	9	34	37828.12	5.045703	0.0982955	1	5.046661	1.116039	-3.057143E-005	0.0006167	10
	10	37	30046.88	5.058275	-0.0123597	1	5.05829	-0.14	1.714458E-005	0.0005978	10
	11	39	23859.38	5.072205	-0.1213422	1	5.073656	-1.370424	1.619703E-005	0.0006064	10
	12	42	18984.38	5.086271	-0.2328442	1	5.091598	-2.621112	1.161225E-005	0.0006074	10
	13	44	15046.87	5.102448	-0.3565813	1	5.114893	-3.997579	1.2213E-005	0.0006316	10
	14	46	11953.13	5.121824	-0.4958418	1	5.14577	-5.529551	-1.763541E-005	0.0006387	10
	15	49	9515.62	5.143071	-0.6557603	1	5.184708	-7.266215	1.699694E-005	0.000667	10
	16	51	7546.875	5.168057	-0.848393	1	5.237231	-9.322577	-2.209288E-006	0.0006441	10
	17	53	5928.309	5.199776	-1.092817	1	5.313372	-11.86889	-2.486606E-005	0.000687	10
	18	56	4733.456	5.235649	-1.370453	1	5.412039	-14.66832	-2.070386E-005	0.0006856	10
	19	58	3796.875	5.278511	-1.700976	1	5.545809	-17.8613	-2.078826E-005	0.0007036	10
	20	60	2987.132	5.334353	-2.143282	1	5.748824	-21.8897	-1.19421E-005	0.0006462	10
	21	62	2390.625	5.398896	-2.649355	1	6.013914	-26.13819	1.419408E-005	0.0006395	10
	22	65	1884.191	5.485651	-3.318192	1	6.411143	-31.16915	-4.738777E-006	0.0006292	10
	23	67	1516.544	5.58485	-4.067976	1	6.90934	-36.0694	2.68949E-006	0.0006221	10
	24	69	1193.986	5.721544	-5.085616	1	7.655035	-41.63242	-4.792825E-006	0.0006311	10
	25	72	946.5144	5.887144	-6.315553	1	8.633925	-47.0107	1.9981E-005	0.0006639	10
	26	74	751.7689	6.096769	-7.815357	1	9.91213	-52.04216	-1.486238E-005	0.0006881	10
	27	77	597.4265	6.362679	-9.6607	1	11.56775	-56.63052	-3.749247E-006	0.000639	10
	28	79	477.4305	6.686522	-11.88174	1	13.63398	-60.6311	-2.531224E-006	0.0006701	10
	29	81	376.6741	7.121925	-14.7757	1	16.40253	-64.26581	-2.990404E-006	0.000653	10
	30	83	298.2954	7.669153	-18.30568	1	19.84726	-67.26878	-3.101522E-006	0.0006655	10
	31	86	237.7717	8.353081	-22.53445	1	24.0328	-69.66124	-3.39757E-006	0.0006576	10
	32	88	189.0121	9.244746	-27.79844	1	29.29536	-71.60475	-3.084346E-006	0.0006619	10
	33	91	150.2404	10.40064	-34.25794	1	35.80195	-73.11182	-3.388227E-006	0.0007109	10
	34	93	119.1737	11.90393	-42.20876	1	43.85525	-74.25022	1.417228E-006	6.596261E-005	9
	35	95	95.0169	13.82868	-51.74224	1	53.5583	-75.0368	1.340396E-006	6.402633E-005	9
	36	98	75.60484	16.33252	-63.4333	1	65.50217	-75.56135	1.298332E-006	6.210346E-005	9
	37	100	54.50582	21.15799	-84.59991	1	87.20554	-75.95865	1.189706E-006	5.734921E-005	9
	38	103	45.95588	24.38224	-98.1511	1	101.1342	-76.04924	1.302629E-006	6.893889E-005	9
	39	105	37.20238	29.16616	-117.7735	1	121.3312	-76.09076	1.370066E-006	6.254463E-005	9
	40	108	30.04808	34.99108	-141.4022	1	145.6673	-76.10092	1.21028E-006	5.067634E-005	9
	41	110	23.91582	42.49279	-171.7282	1	176.9074	-76.10178	1.362702E-006	5.780633E-005	9
	42	112	18.60119	52.33904	-212.2547	1	218.6125	-76.148	1.240681E-006	5.998657E-005	9
	43	115	15.02404	62.2826	-254.233	1	261.7509	-76.23465	1.465273E-006	7.051967E-005	9
	44	117	12.01923	74.44332	-306.9693	1	315.867	-76.36833	1.321884E-006	6.527253E-005	9
	45	119	9.450605	89.73116	-376.5291	1	387.0734	-76.59579	1.361009E-006	7.546453E-005	9
	46	122	7.512019	106.4653	-456.3947	1	468.6481	-76.86917	7.550007E-007	0.0006517	8
	47	125	5.978954	126.4839	-555.1804	1	569.4062	-77.16566	7.120863E-007	0.0006401	8
	48	128	4.734848	151.0009	-680.3893	1	696.9439	-77.48698	8.280963E-007	0.0006433	8
	49	131	3.75601	180.2313	-833.1053	1	852.3777	-77.79294	7.389347E-007	0.000636	8
	50	134	3.004808	215.0426	-1013.477	1	1036.04	-78.02048	7.885923E-007	0.0006083	8
	51	138	2.372217	260.7715	-1249.493	1	1276.415	-78.21148	7.550842E-007	0.0005663	8
	52	142	1.878005	318.1419	-1536.646	1	1569.234	-78.30293	7.602375E-007	0.0006475	8
	53	147	1.512097	386.4553	-1859.263	1	1899.001	-78.25803	7.197264E-007	0.0005648	8
	54	152	1.201923	473.5796	-2285.052	1	2333.611	-78.29115	7.645417E-007	0.0006616	8
	55	159	0.956633	586.3959	-2799.568	1	2860.322	-78.16988	7.190165E-007	2.196207E-006	8
