EXPLAIN
TAG	EISPOT
TITLE	LABEL	Potentiostatic EIS	Test Identifier
DATE	LABEL	9/13/2020	Date
TIME	LABEL	22:27:15	Time
NOTES	NOTES	1	Notes...
	
PSTAT	PSTAT	REF3000-16137	Potentiostat
VDC	POTEN	0.00000E+000	T	DC Voltage (V)
FREQINIT	QUANT	3.00000E+005	Initial Freq. (Hz)
FREQFINAL	QUANT	1.00000E+000	Final Freq. (Hz)
PTSPERDEC	QUANT	1.00000E+001	Points/decade
VAC	QUANT	5.00000E+001	AC Voltage (mV rms)
AREA	QUANT	1.00000E+000	Sample Area (cm^2)
SPEED	SELECTOR	2	Optimize for:
ZGUESS	QUANT	1.00000E+003	Estimated Z (ohms)
EOC	QUANT	0	Open Circuit (V)
SEQUENCER	TOGGLE	TRUE	Run as Sequence
PSTATMODEL	IQUANT	5	Pstat Model
PSTATSECTION	LABEL	REF3000-16137	Pstat Section
PSTATSERIALNO	LABEL	16137	Pstat Serial Number
CTRLMODE	IQUANT	1	Control Mode
IESTAB	IQUANT	0	I/E Stability
CASPEED	IQUANT	1	Control Amp Speed
CONVENTION	IQUANT	1	Current Convention
ICHRANGE	IQUANT	2	Ich Range
ICHRANGEMODE	TOGGLE	F	Ich Auto Range
ICHOFFSETENABLE	TOGGLE	T	Ich Offset Enable
ICHOFFSET	QUANT	0	Ich Offset (V)
ICHFILTER	IQUANT	3	Ich Filter
VCHRANGE	IQUANT	2	Vch Range
VCHRANGEMODE	TOGGLE	F	Vch Auto Range
VCHOFFSETENABLE	TOGGLE	T	Vch Offset Enable
VCHOFFSET	QUANT	0	Vch Offset (V)
VCHFILTER	IQUANT	3	Vch Filter
ACHRANGE	IQUANT	2	Ach Range
ACHOFFSETENABLE	TOGGLE	F	Ach Offset Enable
ACHOFFSET	QUANT	0	Ach Offset (V)
ACHFILTER	IQUANT	3	Ach Filter
IERANGELOWERLIMIT	IQUANT	2	I/E Range Lower Limit
IERANGEMODE	TOGGLE	F	I/E AutoRange
IERANGE	IQUANT	11	I/E Range
POSFEEDENABLE	TOGGLE	F	Positive Feedback IR Comp
POSFEEDRESISTANCE	QUANT	0	Positive Feedback Resistance (ohm)
ACHSELECT	IQUANT	0	Ach Select
CABLEID	IQUANT	13	Cable ID
DCCALDATE	LABEL	7/31/2020	DC Calibration Date
ACCALDATE	LABEL	7/31/2020	AC Calibration Date
THERMOSELECT	IQUANT	1	Thermo Select
FRAMEWORKVERSION	QUANT	6.33	Framework Version
INSTRUMENTVERSION	LABEL	3.50	Instrument Version
COMPLIANCEVOLTAGE	IQUANT	0	Compliance Voltage
ZCURVE	TABLE
	Pt	Time	Freq	Zreal	Zimag	Zsig	Zmod	Zphz	Idc	Vdc	IERange
	#	s	Hz	ohm	ohm	V	ohm	°	A	V	#
	0	17	300046.9	1823.121	-2344.187	1	2969.677	-52.12709	4.854517E-007	0.0014863	9
	1	39	238359.4	2307.44	-2529.614	1	3423.92	-47.62984	-2.116047E-005	0.0010337	9
	2	52	189328.1	2837.942	-2689.776	1	3910.09	-43.4646	2.758662E-005	-0.0015791	9
	3	60	150421.9	3512.667	-2789.872	1	4485.779	-38.45771	7.798331E-005	-0.0015207	9
	4	67	119484.4	4045.118	-2792.73	1	4915.518	-34.62102	1.477972E-006	0.0017135	9
	5	77	94921.88	4743.745	-2563.247	1	5391.971	-28.38424	-9.728119E-006	-0.001754	8
	6	85	75421.88	5257.556	-2440.379	1	5796.321	-24.89913	6.920554E-006	-0.0071559	8
	7	92	59859.37	5771.834	-2252.105	1	6195.647	-21.31518	-2.518224E-005	0.0074409	8
	8	100	47578.12	6296.929	-2075.825	1	6630.261	-18.24515	-1.068021E-005	0.0095781	8
	9	107	37828.12	6711.585	-1859.389	1	6964.388	-15.48495	2.627916E-005	-0.0072446	8
	10	114	30046.88	7125.141	-1627.782	1	7308.715	-12.86872	8.853981E-006	0.0037215	8
	11	122	23859.38	7641.729	-991.171	1	7705.74	-7.390297	-5.425164E-007	-0.0128654	7
	12	126	18984.38	7817.908	-856.9092	1	7864.73	-6.255135	6.797245E-006	-0.0208798	7
	13	129	15046.87	7981.545	-714.6248	1	8013.473	-5.116314	-6.103971E-006	0.0230798	7
	14	133	11953.13	8137.681	-614.7554	1	8160.868	-4.320164	1.585295E-006	-0.0184959	7
	15	136	9515.62	8305.516	-502.9882	1	8320.732	-3.465642	-2.021984E-006	0.0205148	7
	16	140	7546.875	8446.944	-434.7251	1	8458.124	-2.946149	-4.968848E-006	0.0237204	7
	17	143	5928.309	8565.771	-342.216	1	8572.604	-2.28784	4.043908E-006	0.0007775	7
	18	147	4733.456	8705.632	-309.8524	1	8711.145	-2.038421	3.424412E-006	-0.0221441	7
	19	151	3796.875	8891.388	-245.6052	1	8894.779	-1.582269	6.236372E-006	-0.0238364	7
	20	155	2987.132	9082.972	-202.7988	1	9085.235	-1.279051	6.265354E-006	-0.0237841	7
	21	159	2390.625	9312.848	-159.9229	1	9314.221	-0.983803	6.598046E-006	-0.0156389	7
	22	163	1884.191	9636.15	-87.42143	1	9636.55	-0.5197866	-2.031506E-005	0.0011302	9
	23	172	1516.544	9907.99	-118.3125	1	9908.69	-0.6841434	2.968666E-005	-0.0006766	9
	24	178	1193.986	9927.44	-295.7642	1	9931.85	-1.706485	7.07307E-006	-0.0071987	8
	25	185	946.5144	10312.44	-247.5085	1	10315.41	-1.37489	6.766063E-006	-0.0154891	7
	26	188	751.7689	10471.51	-84.77664	1	10471.86	-0.4638525	5.875511E-006	-0.0085827	7
	27	190	597.4265	10550.8	-290.343	1	10554.79	-1.576301	-6.216822E-007	-0.0126423	7
	28	193	477.4305	10662.61	-86.1985	1	10662.96	-0.4631795	-9.587797E-008	0.000567	7
	29	195	376.6741	10772.6	-82.51902	1	10772.92	-0.4388817	-9.406973E-008	0.0005668	7
	30	198	298.2954	10884.75	-82.6252	1	10885.06	-0.434919	-9.737714E-008	0.0005715	7
	31	200	237.7717	11001.17	-86.27517	1	11001.5	-0.4493253	-8.988758E-008	0.0006391	7
	32	202	189.0121	11120.28	-93.15015	1	11120.67	-0.4799328	-1.019501E-007	0.0005985	7
	33	205	150.2404	11240.74	-104.3525	1	11241.22	-0.5318858	-9.066031E-008	0.0006335	7
	34	207	119.1737	11371.7	-121.3369	1	11372.34	-0.6113274	-8.008503E-008	0.0005624	7
	35	210	95.0169	11489.38	-139.3013	1	11490.23	-0.6946402	-8.892378E-008	0.000645	7
	36	212	75.60484	11622.25	-165.4451	1	11623.43	-0.8155615	-8.42723E-008	0.0006519	7
	37	215	54.50582	11756	-210.7611	1	11757.89	-1.027086	-7.777146E-008	0.0005646	7
	38	217	45.95588	11892.02	-243.6339	1	11894.52	-1.173664	-1.30081E-007	0.0006547	7
	39	219	37.20238	12017.15	-295.3051	1	12020.78	-1.407683	-7.488364E-008	0.0005832	7
	40	222	30.04808	12155.25	-356.742	1	12160.48	-1.68108	-9.41728E-008	0.000614	7
	41	224	23.91582	12288.96	-440.1798	1	12296.84	-2.051407	-5.042569E-008	0.0006256	7
	42	227	18.60119	12438.61	-539.8599	1	12450.32	-2.485188	-1.374524E-007	0.0006169	7
	43	229	15.02404	12589.28	-652.572	1	12606.18	-2.967302	-1.913021E-007	0.0006157	7
	44	231	12.01923	12724.56	-810.1644	1	12750.33	-3.643067	-1.15419E-007	0.0006523	7
	45	234	9.450605	12861.51	-1022.798	1	12902.12	-4.546818	-1.975464E-008	0.0006592	7
	46	236	7.512019	13058.57	-1269.678	1	13120.15	-5.553381	-4.531291E-008	0.0005939	7
	47	239	5.978954	13233.89	-1551.913	1	13324.57	-6.688423	-1.413764E-007	0.0006566	7
	48	242	4.734848	13504.68	-1943.84	1	13643.86	-8.190798	-4.177242E-008	0.000591	7
	49	245	3.75601	13771.63	-2416.767	1	13982.08	-9.95342	-1.26262E-007	0.0005534	7
	50	248	3.004808	14027.34	-2950.605	1	14334.31	-11.8788	-7.0187E-008	0.000584	7
	51	252	2.372217	14419.32	-3667.229	1	14878.35	-14.26936	-1.248549E-007	0.0005964	7
	52	256	1.878005	14805.74	-4541.354	1	15486.57	-17.05231	-1.122507E-007	0.0006131	7
	53	261	1.512097	15236.5	-5555.335	1	16217.67	-20.03221	-9.273803E-008	0.0005056	7
	54	266	1.201923	15818.41	-6908.104	1	17261.06	-23.59151	-9.788949E-008	0.000632	7
	55	273	0.956633	16476.58	-8567.446	1	18570.91	-27.4734	-1.049307E-007	2.157616E-005	7
