EXPLAIN
TAG	EISPOT
TITLE	LABEL	Potentiostatic EIS	Test Identifier
DATE	LABEL	9/13/2020	Date
TIME	LABEL	22:12:04	Time
NOTES	NOTES	1	Notes...
	
PSTAT	PSTAT	REF3000-16137	Potentiostat
VDC	POTEN	0.00000E+000	T	DC Voltage (V)
FREQINIT	QUANT	3.00000E+005	Initial Freq. (Hz)
FREQFINAL	QUANT	1.00000E+000	Final Freq. (Hz)
PTSPERDEC	QUANT	1.00000E+001	Points/decade
VAC	QUANT	5.00000E+001	AC Voltage (mV rms)
AREA	QUANT	1.00000E+000	Sample Area (cm^2)
SPEED	SELECTOR	2	Optimize for:
ZGUESS	QUANT	1.00000E+003	Estimated Z (ohms)
EOC	QUANT	0	Open Circuit (V)
SEQUENCER	TOGGLE	TRUE	Run as Sequence
PSTATMODEL	IQUANT	5	Pstat Model
PSTATSECTION	LABEL	REF3000-16137	Pstat Section
PSTATSERIALNO	LABEL	16137	Pstat Serial Number
CTRLMODE	IQUANT	1	Control Mode
IESTAB	IQUANT	0	I/E Stability
CASPEED	IQUANT	1	Control Amp Speed
CONVENTION	IQUANT	1	Current Convention
ICHRANGE	IQUANT	2	Ich Range
ICHRANGEMODE	TOGGLE	F	Ich Auto Range
ICHOFFSETENABLE	TOGGLE	T	Ich Offset Enable
ICHOFFSET	QUANT	0	Ich Offset (V)
ICHFILTER	IQUANT	3	Ich Filter
VCHRANGE	IQUANT	2	Vch Range
VCHRANGEMODE	TOGGLE	F	Vch Auto Range
VCHOFFSETENABLE	TOGGLE	T	Vch Offset Enable
VCHOFFSET	QUANT	0	Vch Offset (V)
VCHFILTER	IQUANT	3	Vch Filter
ACHRANGE	IQUANT	2	Ach Range
ACHOFFSETENABLE	TOGGLE	F	Ach Offset Enable
ACHOFFSET	QUANT	0	Ach Offset (V)
ACHFILTER	IQUANT	3	Ach Filter
IERANGELOWERLIMIT	IQUANT	2	I/E Range Lower Limit
IERANGEMODE	TOGGLE	F	I/E AutoRange
IERANGE	IQUANT	11	I/E Range
POSFEEDENABLE	TOGGLE	F	Positive Feedback IR Comp
POSFEEDRESISTANCE	QUANT	0	Positive Feedback Resistance (ohm)
ACHSELECT	IQUANT	0	Ach Select
CABLEID	IQUANT	13	Cable ID
DCCALDATE	LABEL	7/31/2020	DC Calibration Date
ACCALDATE	LABEL	7/31/2020	AC Calibration Date
THERMOSELECT	IQUANT	1	Thermo Select
FRAMEWORKVERSION	QUANT	6.33	Framework Version
INSTRUMENTVERSION	LABEL	3.50	Instrument Version
COMPLIANCEVOLTAGE	IQUANT	0	Compliance Voltage
ZCURVE	TABLE
	Pt	Time	Freq	Zreal	Zimag	Zsig	Zmod	Zphz	Idc	Vdc	IERange
	#	s	Hz	ohm	ohm	V	ohm	°	A	V	#
	0	10	300046.9	263.5883	-15.95571	1	264.0707	-3.464041	2.736628E-005	-0.0020222	9
	1	15	238359.4	267.6168	-13.79037	1	267.9718	-2.949859	7.865564E-005	-0.0031286	9
	2	20	189328.1	271.7608	-11.57275	1	272.0071	-2.438429	5.14839E-005	-0.0001999	9
	3	25	150421.9	275.5829	-12.92736	1	275.886	-2.685728	7.169857E-005	0.0006024	10
	4	30	119484.4	280.1506	-8.566205	1	280.2816	-1.751395	-9.412337E-005	0.0034942	9
	5	37	94921.88	284.5561	-6.77147	1	284.6366	-1.363188	1.433985E-006	0.0006664	9
	6	41	75421.88	286.9509	-5.898073	1	287.0115	-1.177508	1.961916E-005	-0.0001089	9
	7	43	59859.37	289.8943	-5.096155	1	289.9391	-1.007119	2.303402E-005	-0.0009061	9
	8	47	47578.12	292.0677	-4.229204	1	292.0983	-0.8295975	-9.292759E-006	0.0008525	9
	9	50	37828.12	294.0507	-3.58654	1	294.0726	-0.6988027	-9.565416E-006	-0.0001163	9
	10	52	30046.88	296.1151	-2.903648	1	296.1293	-0.5618134	-1.847132E-005	0.0003854	9
	11	55	23859.38	297.9508	-2.647972	1	297.9626	-0.5091902	-2.209765E-005	0.0004825	9
	12	57	18984.38	301.1216	-2.487535	1	301.1318	-0.4733039	2.645082E-005	-0.0004273	9
	13	61	15046.87	304.6352	-1.863858	1	304.6409	-0.35055	-9.013721E-006	-0.0001344	9
	14	64	11953.13	306.866	-1.830299	1	306.8715	-0.341736	2.338377E-005	-0.0002595	9
	15	67	9515.62	308.2256	-2.15456	1	308.2332	-0.4005027	2.648288E-005	-0.0008222	9
	16	69	7546.875	309.8761	-1.980834	1	309.8824	-0.3662492	-2.1905E-005	0.0004728	9
	17	71	5928.309	312.265	-2.929217	1	312.2787	-0.5374501	2.275907E-005	-0.0008664	9
	18	74	4733.456	315.3395	-3.425452	1	315.3581	-0.622365	8.209945E-006	-0.0006763	9
	19	77	3796.875	316.5163	-3.075668	1	316.5313	-0.5567399	-1.83214E-005	0.0003121	9
	20	79	2987.132	318.8938	-4.25069	1	318.9221	-0.763678	-3.374858E-007	-0.0004416	9
	21	81	2390.625	320.8814	-4.449318	1	320.9123	-0.7944082	-1.884559E-005	0.0003394	9
	22	84	1884.191	322.5661	-5.938183	1	322.6208	-1.05465	1.542165E-008	0.0006686	9
	23	86	1516.544	324.7385	-6.59439	1	324.8055	-1.163332	1.116528E-005	0.000294	9
	24	88	1193.986	327.3654	-8.793113	1	327.4834	-1.538609	-2.474294E-005	0.0007047	9
	25	91	946.5144	329.3704	-10.1543	1	329.5269	-1.765837	2.372451E-005	-0.0002591	9
	26	93	751.7689	332.5531	-12.46983	1	332.7868	-2.147429	1.113927E-005	0.0003241	9
	27	95	597.4265	334.5386	-15.21247	1	334.8843	-2.603616	2.362055E-005	-0.0002208	9
	28	98	477.4305	336.868	-18.9435	1	337.4002	-3.218593	1.049847E-006	6.519E-005	9
	29	100	376.6741	339.4707	-23.57456	1	340.2883	-3.97253	1.063987E-006	6.508576E-005	9
	30	102	298.2954	342.1979	-29.28326	1	343.4485	-4.891117	1.14392E-006	6.776806E-005	9
	31	105	237.7717	345.1518	-36.1693	1	347.0417	-5.982331	1.057998E-006	6.067205E-005	9
	32	107	189.0121	348.2889	-44.80963	1	351.1596	-7.331201	1.100212E-006	0.0001189	9
	33	109	150.2404	350.2144	-55.29714	1	354.5531	-8.972647	-7.851365E-008	0.0006317	8
	34	112	119.1737	353.9618	-68.68044	1	360.5634	-10.98085	-6.024069E-008	0.0006301	8
	35	114	95.0169	358.0581	-84.87874	1	367.981	-13.33597	-7.986736E-008	0.0006429	8
	36	117	75.60484	362.7946	-105.1065	1	377.7132	-16.15702	-7.689088E-008	0.0006368	8
	37	119	54.50582	369.6728	-142.6376	1	396.2366	-21.09903	-8.285572E-008	0.0006446	8
	38	122	45.95588	375.0046	-167.2561	1	410.613	-24.03739	-5.470534E-008	0.0006481	8
	39	124	37.20238	381.7888	-203.5986	1	432.6836	-28.06991	-6.363813E-008	0.0006333	8
	40	127	30.04808	390.9033	-248.3575	1	463.1273	-32.42953	-5.846896E-008	0.0006357	8
	41	130	23.91582	401.0722	-306.8308	1	504.9793	-37.41694	-4.835431E-008	0.0006279	8
	42	132	18.60119	414.3376	-387.0825	1	567.0172	-43.0522	-1.917331E-007	0.0006621	8
	43	135	15.02404	428.6645	-471.1499	1	636.9738	-47.70325	-8.024029E-009	0.0006385	8
	44	137	12.01923	446.6263	-578.3646	1	730.7398	-52.32386	-9.377167E-008	0.0006343	8
	45	139	9.450605	470.602	-720.8638	1	860.878	-56.86227	-1.061731E-007	0.0006395	8
	46	142	7.512019	499.206	-889.7517	1	1020.228	-60.70486	-4.758342E-008	0.0006238	8
	47	144	5.978954	534.3578	-1095.261	1	1218.661	-63.9931	-4.282019E-008	0.0006455	8
	48	147	4.734848	580.0223	-1354.919	1	1473.849	-66.82489	-5.440525E-008	0.000655	8
	49	151	3.75601	635.8831	-1672.793	1	1789.576	-69.18657	-7.599064E-008	0.0006202	8
	50	154	3.004808	703.2098	-2047.807	1	2165.183	-71.04771	-1.034763E-007	0.0006643	8
	51	158	2.372217	796.6775	-2537.653	1	2659.77	-72.5707	-7.99031E-008	0.0007054	8
	52	162	1.878005	907.7819	-3141.023	1	3269.571	-73.88026	-1.064158E-007	0.0006238	8
	53	167	1.512097	1038.14	-3812.894	1	3951.696	-74.76923	-7.883961E-008	0.0006284	8
	54	172	1.201923	1226.313	-4714.354	1	4871.24	-75.41917	-3.519841E-008	0.0005935	7
	55	178	0.956633	1457.607	-5785.528	1	5966.318	-75.85918	-3.714029E-008	-1.828254E-005	7
