EXPLAIN
TAG	EISPOT
TITLE	LABEL	Potentiostatic EIS	Test Identifier
DATE	LABEL	9/13/2020	Date
TIME	LABEL	21:30:31	Time
NOTES	NOTES	1	Notes...
	
PSTAT	PSTAT	REF3000-16137	Potentiostat
VDC	POTEN	0.00000E+000	T	DC Voltage (V)
FREQINIT	QUANT	3.00000E+005	Initial Freq. (Hz)
FREQFINAL	QUANT	1.00000E+000	Final Freq. (Hz)
PTSPERDEC	QUANT	1.00000E+001	Points/decade
VAC	QUANT	5.00000E+001	AC Voltage (mV rms)
AREA	QUANT	1.00000E+000	Sample Area (cm^2)
SPEED	SELECTOR	2	Optimize for:
ZGUESS	QUANT	1.00000E+003	Estimated Z (ohms)
EOC	QUANT	0	Open Circuit (V)
SEQUENCER	TOGGLE	TRUE	Run as Sequence
PSTATMODEL	IQUANT	5	Pstat Model
PSTATSECTION	LABEL	REF3000-16137	Pstat Section
PSTATSERIALNO	LABEL	16137	Pstat Serial Number
CTRLMODE	IQUANT	1	Control Mode
IESTAB	IQUANT	0	I/E Stability
CASPEED	IQUANT	1	Control Amp Speed
CONVENTION	IQUANT	1	Current Convention
ICHRANGE	IQUANT	2	Ich Range
ICHRANGEMODE	TOGGLE	F	Ich Auto Range
ICHOFFSETENABLE	TOGGLE	T	Ich Offset Enable
ICHOFFSET	QUANT	0	Ich Offset (V)
ICHFILTER	IQUANT	3	Ich Filter
VCHRANGE	IQUANT	2	Vch Range
VCHRANGEMODE	TOGGLE	F	Vch Auto Range
VCHOFFSETENABLE	TOGGLE	T	Vch Offset Enable
VCHOFFSET	QUANT	0	Vch Offset (V)
VCHFILTER	IQUANT	3	Vch Filter
ACHRANGE	IQUANT	2	Ach Range
ACHOFFSETENABLE	TOGGLE	F	Ach Offset Enable
ACHOFFSET	QUANT	0	Ach Offset (V)
ACHFILTER	IQUANT	3	Ach Filter
IERANGELOWERLIMIT	IQUANT	2	I/E Range Lower Limit
IERANGEMODE	TOGGLE	F	I/E AutoRange
IERANGE	IQUANT	11	I/E Range
POSFEEDENABLE	TOGGLE	F	Positive Feedback IR Comp
POSFEEDRESISTANCE	QUANT	0	Positive Feedback Resistance (ohm)
ACHSELECT	IQUANT	0	Ach Select
CABLEID	IQUANT	13	Cable ID
DCCALDATE	LABEL	7/31/2020	DC Calibration Date
ACCALDATE	LABEL	7/31/2020	AC Calibration Date
THERMOSELECT	IQUANT	1	Thermo Select
FRAMEWORKVERSION	QUANT	6.33	Framework Version
INSTRUMENTVERSION	LABEL	3.50	Instrument Version
COMPLIANCEVOLTAGE	IQUANT	0	Compliance Voltage
ZCURVE	TABLE
	Pt	Time	Freq	Zreal	Zimag	Zsig	Zmod	Zphz	Idc	Vdc	IERange
	#	s	Hz	ohm	ohm	V	ohm	°	A	V	#
	0	11	300046.9	6.362336	2.245833	1	6.747079	19.44246	-4.714608E-005	0.0002559	10
	1	14	238359.4	6.339839	1.767055	1	6.581492	15.57435	1.978173E-005	-7.594846E-005	10
	2	17	189328.1	6.332912	1.399116	1	6.485623	12.45811	1.857273E-005	0.0003041	10
	3	19	150421.9	6.324588	1.098719	1	6.419314	9.85518	-8.967277E-006	0.0002808	10
	4	22	119484.4	6.335038	0.8478549	1	6.391523	7.622928	4.849852E-005	0.0005625	10
	5	24	94921.88	6.345208	0.6680948	1	6.380283	6.010597	2.189538E-005	0.0005041	10
	6	27	75421.88	6.350806	0.4896965	1	6.369658	4.409225	2.194419E-005	0.000516	10
	7	29	59859.37	6.362631	0.3380332	1	6.371604	3.041145	-2.049807E-005	0.0006393	10
	8	32	47578.12	6.375761	0.2060899	1	6.379091	1.851382	-1.977622E-005	0.0005954	10
	9	34	37828.12	6.391299	0.0875918	1	6.391899	0.7851812	-2.891888E-005	0.0006221	10
	10	37	30046.88	6.409186	-0.0235987	1	6.409229	-0.2109631	-1.531139E-005	0.0006458	10
	11	39	23859.38	6.427535	-0.1338008	1	6.428927	-1.192544	-2.105232E-005	0.0006969	10
	12	42	18984.38	6.444681	-0.2482045	1	6.449459	-2.205547	1.241994E-005	0.0006225	10
	13	44	15046.87	6.466057	-0.3750986	1	6.476927	-3.32003	2.066147E-005	0.0006171	10
	14	46	11953.13	6.488326	-0.5175092	1	6.508932	-4.56026	-9.242337E-006	0.0006372	10
	15	49	9515.62	6.51479	-0.6826941	1	6.550462	-5.982273	-2.034924E-005	0.0006371	10
	16	51	7546.875	6.544653	-0.8826681	1	6.603907	-7.681053	2.474003E-005	0.0006544	10
	17	53	5928.309	6.580816	-1.133895	1	6.677788	-9.77625	-2.61472E-005	0.0006769	10
	18	56	4733.456	6.620611	-1.420906	1	6.771371	-12.11299	-4.444321E-006	0.00063	10
	19	58	3796.875	6.667587	-1.762524	1	6.896608	-14.807	1.644384E-005	0.0006124	10
	20	60	2987.132	6.728603	-2.222406	1	7.086126	-18.27799	-2.43677E-005	0.0006713	10
	21	63	2390.625	6.799004	-2.746196	1	7.33267	-21.99435	-2.701502E-006	0.0006386	10
	22	65	1884.191	6.888846	-3.440942	1	7.700408	-26.54189	1.52728E-005	0.0006178	10
	23	67	1516.544	6.992804	-4.221901	1	8.168461	-31.12146	-2.85541E-005	0.0006837	10
	24	69	1193.986	7.133398	-5.280885	1	8.875422	-36.51271	-2.696986E-005	0.000681	10
	25	72	946.5144	7.306307	-6.552398	1	9.81407	-41.8862	2.044264E-005	0.0006424	10
	26	74	751.7689	7.521261	-8.117484	1	11.0663	-47.18333	1.501355E-005	0.0006215	10
	27	77	597.4265	7.790676	-10.04743	1	12.71398	-52.21035	-5.106934E-006	0.0006625	10
	28	79	477.4305	8.122292	-12.35517	1	14.78586	-56.67907	-2.272558E-006	0.0006744	10
	29	81	376.6741	8.562984	-15.37012	1	17.59446	-60.87699	-2.462665E-006	0.0006652	10
	30	84	298.2954	9.11231	-19.04825	1	21.11564	-64.43446	-2.712693E-006	0.0006635	10
	31	86	237.7717	9.79057	-23.45642	1	25.41769	-67.34463	-2.490273E-006	0.0006602	10
	32	88	189.0121	10.66408	-28.95329	1	30.85475	-69.78023	-2.612413E-006	0.0006654	10
	33	91	150.2404	11.78336	-35.71851	1	37.61196	-71.74253	-2.252258E-006	0.0006609	10
	34	93	119.1737	13.23052	-44.07108	1	46.01421	-73.28979	1.429237E-006	6.647993E-005	9
	35	95	95.0169	15.08535	-54.13141	1	56.1941	-74.4279	1.290623E-006	6.583425E-005	9
	36	98	75.60484	17.51087	-66.5331	1	68.79886	-75.2547	1.308331E-006	6.00252E-005	9
	37	100	54.50582	22.2588	-89.11208	1	91.84997	-75.97539	1.221542E-006	6.21932E-005	9
	38	103	45.95588	25.4912	-103.642	1	106.7308	-76.18213	1.34536E-006	6.606391E-005	9
	39	105	37.20238	30.36673	-124.7038	1	128.3479	-76.31422	1.326221E-006	7.292544E-005	9
	40	108	30.04808	36.42086	-150.1441	1	154.4983	-76.36497	1.219068E-006	6.695186E-005	9
	41	110	23.91582	44.38749	-182.7784	1	188.0909	-76.35004	8.55712E-007	0.0001178	9
	42	114	18.60119	55.08561	-226.4613	1	233.0647	-76.32859	1.47699E-006	5.795499E-005	9
	43	117	15.02404	66.01185	-271.5015	1	279.4112	-76.33448	1.249144E-006	5.829336E-005	9
	44	119	12.01923	79.54564	-327.9166	1	337.4267	-76.36464	1.417267E-006	6.156169E-005	9
	45	123	9.450605	96.7943	-402.1055	1	413.5916	-76.46533	1.54826E-006	5.725172E-005	9
	46	126	7.512019	115.7947	-486.5484	1	500.1378	-76.61309	7.657283E-007	0.0006537	8
	47	129	5.978954	138.0559	-590.9551	1	606.8669	-76.85069	7.103959E-007	0.0006408	8
	48	132	4.734848	164.6043	-722.3283	1	740.846	-77.16264	7.831891E-007	0.0006659	8
	49	135	3.75601	196.2388	-882.5468	1	904.1009	-77.46394	6.649762E-007	0.0006276	8
	50	138	3.004808	232.5795	-1071.74	1	1096.686	-77.75603	7.432573E-007	0.0006068	8
	51	142	2.372217	279.1949	-1318.488	1	1347.724	-78.04401	7.093294E-007	0.0005911	8
	52	146	1.878005	338.6541	-1621.193	1	1656.187	-78.20104	6.845852E-007	0.0006509	8
	53	151	1.512097	407.1554	-1961.703	1	2003.51	-78.27462	6.639529E-007	0.0005564	8
	54	156	1.201923	492.9716	-2409.738	1	2459.646	-78.43826	7.027293E-007	0.0006722	8
	55	163	0.956633	602.3365	-2952.51	1	3013.324	-78.46941	6.850912E-007	7.371469E-006	8
