EXPLAIN
TAG	EISPOT
TITLE	LABEL	Potentiostatic EIS	Test Identifier
DATE	LABEL	9/13/2020	Date
TIME	LABEL	20:39:27	Time
NOTES	NOTES	1	Notes...
	
PSTAT	PSTAT	REF3000-16137	Potentiostat
VDC	POTEN	0.00000E+000	T	DC Voltage (V)
FREQINIT	QUANT	3.00000E+005	Initial Freq. (Hz)
FREQFINAL	QUANT	1.00000E+000	Final Freq. (Hz)
PTSPERDEC	QUANT	1.00000E+001	Points/decade
VAC	QUANT	5.00000E+001	AC Voltage (mV rms)
AREA	QUANT	1.00000E+000	Sample Area (cm^2)
SPEED	SELECTOR	2	Optimize for:
ZGUESS	QUANT	1.00000E+003	Estimated Z (ohms)
EOC	QUANT	0	Open Circuit (V)
SEQUENCER	TOGGLE	TRUE	Run as Sequence
PSTATMODEL	IQUANT	5	Pstat Model
PSTATSECTION	LABEL	REF3000-16137	Pstat Section
PSTATSERIALNO	LABEL	16137	Pstat Serial Number
CTRLMODE	IQUANT	1	Control Mode
IESTAB	IQUANT	0	I/E Stability
CASPEED	IQUANT	1	Control Amp Speed
CONVENTION	IQUANT	1	Current Convention
ICHRANGE	IQUANT	2	Ich Range
ICHRANGEMODE	TOGGLE	F	Ich Auto Range
ICHOFFSETENABLE	TOGGLE	T	Ich Offset Enable
ICHOFFSET	QUANT	0	Ich Offset (V)
ICHFILTER	IQUANT	3	Ich Filter
VCHRANGE	IQUANT	2	Vch Range
VCHRANGEMODE	TOGGLE	F	Vch Auto Range
VCHOFFSETENABLE	TOGGLE	T	Vch Offset Enable
VCHOFFSET	QUANT	0	Vch Offset (V)
VCHFILTER	IQUANT	3	Vch Filter
ACHRANGE	IQUANT	2	Ach Range
ACHOFFSETENABLE	TOGGLE	F	Ach Offset Enable
ACHOFFSET	QUANT	0	Ach Offset (V)
ACHFILTER	IQUANT	3	Ach Filter
IERANGELOWERLIMIT	IQUANT	2	I/E Range Lower Limit
IERANGEMODE	TOGGLE	F	I/E AutoRange
IERANGE	IQUANT	11	I/E Range
POSFEEDENABLE	TOGGLE	F	Positive Feedback IR Comp
POSFEEDRESISTANCE	QUANT	0	Positive Feedback Resistance (ohm)
ACHSELECT	IQUANT	0	Ach Select
CABLEID	IQUANT	13	Cable ID
DCCALDATE	LABEL	7/31/2020	DC Calibration Date
ACCALDATE	LABEL	7/31/2020	AC Calibration Date
THERMOSELECT	IQUANT	1	Thermo Select
FRAMEWORKVERSION	QUANT	6.33	Framework Version
INSTRUMENTVERSION	LABEL	3.50	Instrument Version
COMPLIANCEVOLTAGE	IQUANT	0	Compliance Voltage
ZCURVE	TABLE
	Pt	Time	Freq	Zreal	Zimag	Zsig	Zmod	Zphz	Idc	Vdc	IERange
	#	s	Hz	ohm	ohm	V	ohm	°	A	V	#
	0	10	300046.9	2.15987	2.239215	1	3.111129	46.03331	7.687962E-005	-0.000355	11
	1	13	238359.4	2.112049	1.783126	1	2.764107	40.17318	7.750171E-005	-0.000308	11
	2	17	189328.1	2.157853	1.266012	1	2.501822	30.40014	-8.41259E-007	6.939639E-005	12
	3	20	150421.9	2.112242	1.00289	1	2.338238	25.39832	-4.103846E-005	0.0002383	12
	4	24	119484.4	2.050628	0.8692766	1	2.227267	22.97245	-5.579917E-006	0.0004459	11
	5	26	94921.88	2.04243	0.668468	1	2.149039	18.12278	-1.791014E-005	0.0004724	11
	6	29	75421.88	2.038443	0.5010941	1	2.099129	13.81072	2.666843E-005	0.000536	11
	7	31	59859.37	2.036749	0.3594981	1	2.068232	10.00994	2.000881E-005	0.0005665	11
	8	34	47578.12	2.037333	0.2399296	1	2.051412	6.716588	-5.176272E-005	0.0005656	11
	9	36	37828.12	2.039883	0.1331359	1	2.044223	3.734195	-1.348466E-005	0.0006369	11
	10	39	30046.88	2.042765	0.0333762	1	2.043038	0.9360569	2.733243E-005	0.0006663	11
	11	41	23859.38	2.047865	-0.0631359	1	2.048838	-1.765875	1.937592E-005	0.0006904	11
	12	44	18984.38	2.054333	-0.1605579	1	2.060598	-4.46891	8.66576E-006	0.0006867	11
	13	46	15046.87	2.061785	-0.2665175	1	2.078939	-7.365521	6.974778E-007	0.0006572	11
	14	48	11953.13	2.07343	-0.3834362	1	2.108586	-10.47726	-2.905011E-005	0.0006787	11
	15	51	9515.62	2.086435	-0.5161034	1	2.149319	-13.89387	-3.396052E-006	0.000679	11
	16	53	7546.875	2.103957	-0.674354	1	2.209386	-17.77154	-1.543067E-007	0.0006828	11
	17	55	5928.309	2.127781	-0.8718903	1	2.299488	-22.2821	6.503701E-007	0.0006773	11
	18	58	4733.456	2.156345	-1.094973	1	2.418427	-26.92105	-2.384776E-005	0.0006821	11
	19	60	3796.875	2.191536	-1.359583	1	2.579011	-31.81461	2.08208E-005	0.0007089	11
	20	62	2987.132	2.240733	-1.709528	1	2.818398	-37.3412	1.564932E-005	0.000696	11
	21	65	2390.625	2.298556	-2.109625	1	3.119916	-42.54585	-1.954706E-005	0.0006724	11
	22	67	1884.191	2.37934	-2.63286	1	3.548691	-47.89559	-1.956499E-005	0.0006842	11
	23	69	1516.544	2.474681	-3.219957	1	4.061055	-52.45611	2.4994E-005	0.0006455	10
	24	71	1193.986	2.607062	-4.011691	1	4.784395	-56.98153	-1.996421E-005	0.0006769	10
	25	74	946.5144	2.77684	-4.959339	1	5.683826	-60.7546	-1.276548E-005	0.0006764	10
	26	76	751.7689	2.993216	-6.113678	1	6.807085	-63.91394	-2.203881E-005	0.0006708	10
	27	79	597.4265	3.27752	-7.518062	1	8.201427	-66.44507	1.559619E-005	0.000625	10
	28	81	477.4305	3.631495	-9.182622	1	9.87463	-68.42245	2.139438E-006	0.0006589	10
	29	83	376.6741	4.1184	-11.3211	1	12.04693	-70.00958	2.63243E-006	0.0006589	10
	30	85	298.2954	4.730915	-13.87767	1	14.6619	-71.17569	2.417166E-006	0.0006609	10
	31	88	237.7717	5.475764	-16.87264	1	17.73894	-72.01994	-1.820625E-006	0.0007092	10
	32	90	189.0121	6.40162	-20.52194	1	21.49723	-72.67519	2.439857E-006	0.0006608	10
	33	93	150.2404	7.521087	-24.91893	1	26.02921	-73.20502	2.01931E-006	0.0006629	10
	34	95	119.1737	8.875622	-30.2945	1	31.56792	-73.67058	2.141405E-006	0.0006632	10
	35	97	95.0169	10.44452	-36.64742	1	38.10671	-74.09245	1.790584E-006	0.0006629	10
	36	100	75.60484	12.30623	-44.37605	1	46.0508	-74.5004	4.950686E-006	5.77125E-005	9
	37	102	54.50582	15.60488	-58.51212	1	60.55725	-75.06708	4.897024E-006	6.082629E-005	9
	38	105	45.95588	17.68026	-67.65552	1	69.92754	-75.35455	4.906867E-006	0.0001254	9
	39	107	37.20238	20.65389	-81.02879	1	83.61967	-75.70006	5.109409E-006	7.462478E-005	9
	40	110	30.04808	24.24942	-97.3729	1	100.347	-76.01572	4.421802E-006	0.0001129	9
	41	112	23.91582	28.83197	-118.5641	1	122.0194	-76.33232	5.011468E-006	6.652508E-005	9
	42	114	18.60119	35.24294	-147.6954	1	151.842	-76.5791	5.348551E-006	6.318947E-005	9
	43	117	15.02404	42.11766	-178.0548	1	182.9683	-76.69168	5.511297E-006	5.637939E-005	9
	44	119	12.01923	51.26481	-216.6139	1	222.5975	-76.6851	5.065632E-006	6.10407E-005	9
	45	122	9.450605	64.13661	-267.6811	1	275.2575	-76.52589	5.103551E-006	7.510299E-005	9
	46	125	7.512019	80.73552	-327.909	1	337.7018	-76.16814	5.251864E-006	5.324138E-005	9
	47	128	5.978954	102.7603	-400.4497	1	413.4243	-75.60775	5.281161E-006	5.873931E-005	9
	48	131	4.734848	133.174	-488.5909	1	506.4153	-74.75341	4.554377E-006	0.0006047	8
	49	134	3.75601	175.7565	-596.1031	1	621.4734	-73.57225	4.725513E-006	0.0006515	8
	50	137	3.004808	232.1197	-718.5289	1	755.0916	-72.09703	4.649976E-006	0.0006321	8
	51	141	2.372217	316.2813	-869.0832	1	924.8456	-70.00227	4.594217E-006	0.0005906	8
	52	145	1.878005	430.1846	-1041.865	1	1127.182	-67.56433	4.704259E-006	0.0006254	8
	53	150	1.512097	568.327	-1216.196	1	1342.434	-64.95337	4.603526E-006	0.0007011	8
	54	155	1.201923	764.8569	-1411.172	1	1605.12	-61.54225	4.643543E-006	0.0006293	8
	55	162	0.956633	1008.153	-1602.483	1	1893.231	-57.82521	4.307992E-006	-1.846525E-006	8
