EXPLAIN
TAG	EISPOT
TITLE	LABEL	Potentiostatic EIS	Test Identifier
DATE	LABEL	9/13/2020	Date
TIME	LABEL	21:47:10	Time
NOTES	NOTES	1	Notes...
	
PSTAT	PSTAT	REF3000-16137	Potentiostat
VDC	POTEN	0.00000E+000	T	DC Voltage (V)
FREQINIT	QUANT	3.00000E+005	Initial Freq. (Hz)
FREQFINAL	QUANT	1.00000E+000	Final Freq. (Hz)
PTSPERDEC	QUANT	1.00000E+001	Points/decade
VAC	QUANT	5.00000E+001	AC Voltage (mV rms)
AREA	QUANT	1.00000E+000	Sample Area (cm^2)
SPEED	SELECTOR	2	Optimize for:
ZGUESS	QUANT	1.00000E+003	Estimated Z (ohms)
EOC	QUANT	0	Open Circuit (V)
SEQUENCER	TOGGLE	TRUE	Run as Sequence
PSTATMODEL	IQUANT	5	Pstat Model
PSTATSECTION	LABEL	REF3000-16137	Pstat Section
PSTATSERIALNO	LABEL	16137	Pstat Serial Number
CTRLMODE	IQUANT	1	Control Mode
IESTAB	IQUANT	0	I/E Stability
CASPEED	IQUANT	1	Control Amp Speed
CONVENTION	IQUANT	1	Current Convention
ICHRANGE	IQUANT	2	Ich Range
ICHRANGEMODE	TOGGLE	F	Ich Auto Range
ICHOFFSETENABLE	TOGGLE	T	Ich Offset Enable
ICHOFFSET	QUANT	0	Ich Offset (V)
ICHFILTER	IQUANT	3	Ich Filter
VCHRANGE	IQUANT	2	Vch Range
VCHRANGEMODE	TOGGLE	F	Vch Auto Range
VCHOFFSETENABLE	TOGGLE	T	Vch Offset Enable
VCHOFFSET	QUANT	0	Vch Offset (V)
VCHFILTER	IQUANT	3	Vch Filter
ACHRANGE	IQUANT	2	Ach Range
ACHOFFSETENABLE	TOGGLE	F	Ach Offset Enable
ACHOFFSET	QUANT	0	Ach Offset (V)
ACHFILTER	IQUANT	3	Ach Filter
IERANGELOWERLIMIT	IQUANT	2	I/E Range Lower Limit
IERANGEMODE	TOGGLE	F	I/E AutoRange
IERANGE	IQUANT	11	I/E Range
POSFEEDENABLE	TOGGLE	F	Positive Feedback IR Comp
POSFEEDRESISTANCE	QUANT	0	Positive Feedback Resistance (ohm)
ACHSELECT	IQUANT	0	Ach Select
CABLEID	IQUANT	13	Cable ID
DCCALDATE	LABEL	7/31/2020	DC Calibration Date
ACCALDATE	LABEL	7/31/2020	AC Calibration Date
THERMOSELECT	IQUANT	1	Thermo Select
FRAMEWORKVERSION	QUANT	6.33	Framework Version
INSTRUMENTVERSION	LABEL	3.50	Instrument Version
COMPLIANCEVOLTAGE	IQUANT	0	Compliance Voltage
ZCURVE	TABLE
	Pt	Time	Freq	Zreal	Zimag	Zsig	Zmod	Zphz	Idc	Vdc	IERange
	#	s	Hz	ohm	ohm	V	ohm	°	A	V	#
	0	8	300046.9	16.89805	2.078977	1	17.02546	7.013886	-3.581541E-005	0.0001885	10
	1	11	238359.4	16.9185	1.633806	1	16.9972	5.515906	7.407786E-005	2.7695E-005	10
	2	14	189328.1	16.95187	1.285969	1	17.00057	4.338152	2.577509E-005	0.0004244	10
	3	17	150421.9	17.00521	0.992224	1	17.03413	3.339323	1.445312E-005	0.0004999	10
	4	19	119484.4	17.05798	0.7706913	1	17.07538	2.586904	2.276091E-005	0.000555	10
	5	22	94921.88	17.10516	0.5939955	1	17.11547	1.98886	-2.681023E-005	0.0006327	10
	6	24	75421.88	17.16107	0.4231202	1	17.16629	1.412388	-2.667E-005	0.0006283	10
	7	27	59859.37	17.22	0.2757161	1	17.22221	0.9173064	1.304241E-005	0.0006079	10
	8	29	47578.12	17.28062	0.1490857	1	17.28127	0.4942975	1.939891E-005	0.0005988	10
	9	32	37828.12	17.33917	0.0342034	1	17.33921	0.1130219	-6.832162E-006	0.0006054	10
	10	34	30046.88	17.40449	-0.0782792	1	17.40466	-0.2576942	-3.212119E-006	0.0007056	10
	11	37	23859.38	17.4664	-0.1947788	1	17.46749	-0.6389148	-2.9626E-005	0.0006643	10
	12	39	18984.38	17.52641	-0.3154177	1	17.52925	-1.031024	1.28307E-005	0.0005875	10
	13	41	15046.87	17.59091	-0.4499976	1	17.59666	-1.465379	2.471958E-005	0.0006671	10
	14	44	11953.13	17.65522	-0.6109626	1	17.66579	-1.981942	1.257839E-005	0.0006	10
	15	46	9515.62	17.72562	-0.7920452	1	17.7433	-2.558482	-1.216101E-005	0.0006313	10
	16	48	7546.875	17.79668	-1.010132	1	17.82532	-3.248599	-2.635361E-005	0.0007092	10
	17	51	5928.309	17.8809	-1.29484	1	17.92772	-4.141826	2.358609E-005	0.0006503	10
	18	53	4733.456	17.9622	-1.617133	1	18.03485	-5.144457	-2.874403E-005	0.0006909	10
	19	55	3796.875	18.05527	-2.006425	1	18.16642	-6.34108	4.199379E-006	0.0006391	10
	20	57	2987.132	18.16195	-2.521171	1	18.3361	-7.903074	-2.825502E-005	0.0006826	10
	21	60	2390.625	18.27744	-3.118641	1	18.54159	-9.68301	-4.656923E-006	0.0006177	10
	22	62	1884.191	18.41201	-3.903652	1	18.82128	-11.9704	2.367828E-005	0.0006514	10
	23	64	1516.544	18.56446	-4.787565	1	19.17185	-14.46085	-1.161963E-005	0.0006422	10
	24	67	1193.986	18.75326	-5.995358	1	19.6883	-17.72891	4.271888E-006	0.0006058	10
	25	69	946.5144	18.97681	-7.457295	1	20.38947	-21.45328	-2.0747E-005	0.0007255	10
	26	71	751.7689	19.23399	-9.24749	1	21.34156	-25.67774	1.8483E-005	0.0006014	10
	27	74	597.4265	19.55617	-11.46327	1	22.66827	-30.37763	-2.874552E-005	0.0006694	10
	28	76	477.4305	19.93783	-14.12524	1	24.43439	-35.3162	-2.258776E-006	0.0006629	10
	29	78	376.6741	20.43904	-17.60699	1	26.97703	-40.74289	-2.005217E-006	0.0006548	10
	30	81	298.2954	21.05153	-21.85557	1	30.34523	-46.07355	-2.481911E-006	0.000665	10
	31	83	237.7717	21.79686	-26.95217	1	34.66299	-51.03671	-2.219853E-006	0.0006574	10
	32	85	189.0121	22.73534	-33.30512	1	40.32526	-55.68107	-1.734169E-006	0.0006642	10
	33	88	150.2404	23.88004	-41.08871	1	47.52408	-59.8356	1.384874E-006	6.514889E-005	9
	34	90	119.1737	25.35958	-50.83083	1	56.80565	-63.48532	1.2981E-006	6.965377E-005	9
	35	93	95.0169	27.17561	-62.56371	1	68.21094	-66.52146	1.312944E-006	6.290438E-005	9
	36	95	75.60484	29.47877	-77.12817	1	82.56969	-69.0829	1.272321E-006	6.083753E-005	9
	37	98	54.50582	33.86079	-104.0055	1	109.3787	-71.96645	1.26822E-006	6.09629E-005	9
	38	100	45.95588	36.86639	-121.5382	1	127.0065	-73.12578	1.226229E-006	7.114213E-005	9
	39	102	37.20238	41.43146	-147.2908	1	153.007	-74.28922	1.363717E-006	5.68511E-005	9
	40	105	30.04808	47.30297	-178.7562	1	184.9091	-75.17797	8.446857E-007	0.0001194	9
	41	107	23.91582	55.28792	-219.5421	1	226.3967	-75.86496	1.289428E-006	5.835321E-005	9
	42	110	18.60119	66.81605	-274.8996	1	282.9031	-76.33881	6.762742E-007	0.0001225	9
	43	112	15.02404	79.3368	-332.2695	1	341.6099	-76.57079	1.440572E-006	6.615781E-005	9
	44	114	12.01923	95.9509	-404.329	1	415.5581	-76.65015	1.181894E-006	6.170479E-005	9
	45	117	9.450605	117.6237	-496.3413	1	510.0883	-76.66791	4.523853E-007	0.0007085	8
	46	119	7.512019	143.8836	-604.5767	1	621.4624	-76.61317	5.220963E-007	0.0006311	8
	47	122	5.978954	175.6072	-735.034	1	755.7201	-76.56332	6.057894E-007	0.000646	8
	48	125	4.734848	214.469	-897.1427	1	922.4218	-76.55532	5.363383E-007	0.0006287	8
	49	128	3.75601	261.0754	-1091.756	1	1122.538	-76.55122	6.283734E-007	0.0006485	8
	50	131	3.004808	313.7072	-1318.554	1	1355.359	-76.61714	5.604203E-007	0.0006761	8
	51	135	2.372217	379.551	-1612.45	1	1656.519	-76.75439	5.889103E-007	0.0007124	8
	52	139	1.878005	456.3803	-1967.504	1	2019.741	-76.94068	5.775373E-007	0.000618	8
	53	144	1.512097	541.0197	-2365.892	1	2426.962	-77.11937	6.107256E-007	0.0006973	8
	54	149	1.201923	642.3143	-2893.934	1	2964.359	-77.48595	5.942316E-007	0.0006078	8
	55	156	0.956633	763.5342	-3533.75	1	3615.297	-77.80758	5.751385E-007	3.238785E-006	8
