EXPLAIN
TAG	EISPOT
TITLE	LABEL	Potentiostatic EIS	Test Identifier
DATE	LABEL	9/13/2020	Date
TIME	LABEL	21:49:55	Time
NOTES	NOTES	1	Notes...
	
PSTAT	PSTAT	REF3000-16137	Potentiostat
VDC	POTEN	0.00000E+000	T	DC Voltage (V)
FREQINIT	QUANT	3.00000E+005	Initial Freq. (Hz)
FREQFINAL	QUANT	1.00000E+000	Final Freq. (Hz)
PTSPERDEC	QUANT	1.00000E+001	Points/decade
VAC	QUANT	5.00000E+001	AC Voltage (mV rms)
AREA	QUANT	1.00000E+000	Sample Area (cm^2)
SPEED	SELECTOR	2	Optimize for:
ZGUESS	QUANT	1.00000E+003	Estimated Z (ohms)
EOC	QUANT	0	Open Circuit (V)
SEQUENCER	TOGGLE	TRUE	Run as Sequence
PSTATMODEL	IQUANT	5	Pstat Model
PSTATSECTION	LABEL	REF3000-16137	Pstat Section
PSTATSERIALNO	LABEL	16137	Pstat Serial Number
CTRLMODE	IQUANT	1	Control Mode
IESTAB	IQUANT	0	I/E Stability
CASPEED	IQUANT	1	Control Amp Speed
CONVENTION	IQUANT	1	Current Convention
ICHRANGE	IQUANT	2	Ich Range
ICHRANGEMODE	TOGGLE	F	Ich Auto Range
ICHOFFSETENABLE	TOGGLE	T	Ich Offset Enable
ICHOFFSET	QUANT	0	Ich Offset (V)
ICHFILTER	IQUANT	3	Ich Filter
VCHRANGE	IQUANT	2	Vch Range
VCHRANGEMODE	TOGGLE	F	Vch Auto Range
VCHOFFSETENABLE	TOGGLE	T	Vch Offset Enable
VCHOFFSET	QUANT	0	Vch Offset (V)
VCHFILTER	IQUANT	3	Vch Filter
ACHRANGE	IQUANT	2	Ach Range
ACHOFFSETENABLE	TOGGLE	F	Ach Offset Enable
ACHOFFSET	QUANT	0	Ach Offset (V)
ACHFILTER	IQUANT	3	Ach Filter
IERANGELOWERLIMIT	IQUANT	2	I/E Range Lower Limit
IERANGEMODE	TOGGLE	F	I/E AutoRange
IERANGE	IQUANT	11	I/E Range
POSFEEDENABLE	TOGGLE	F	Positive Feedback IR Comp
POSFEEDRESISTANCE	QUANT	0	Positive Feedback Resistance (ohm)
ACHSELECT	IQUANT	0	Ach Select
CABLEID	IQUANT	13	Cable ID
DCCALDATE	LABEL	7/31/2020	DC Calibration Date
ACCALDATE	LABEL	7/31/2020	AC Calibration Date
THERMOSELECT	IQUANT	1	Thermo Select
FRAMEWORKVERSION	QUANT	6.33	Framework Version
INSTRUMENTVERSION	LABEL	3.50	Instrument Version
COMPLIANCEVOLTAGE	IQUANT	0	Compliance Voltage
ZCURVE	TABLE
	Pt	Time	Freq	Zreal	Zimag	Zsig	Zmod	Zphz	Idc	Vdc	IERange
	#	s	Hz	ohm	ohm	V	ohm	°	A	V	#
	0	8	300046.9	20.97325	1.99888	1	21.06829	5.444196	-5.771911E-005	0.0004308	10
	1	11	238359.4	21.02069	1.567938	1	21.07909	4.265805	-5.309551E-005	0.0004236	10
	2	14	189328.1	21.08593	1.228199	1	21.12167	3.333558	-1.808414E-005	0.0005277	10
	3	17	150421.9	21.14141	0.9489636	1	21.16269	2.570081	4.764758E-005	0.0006567	10
	4	19	119484.4	21.22832	0.7373866	1	21.24113	1.989425	-2.618566E-005	0.0005783	10
	5	22	94921.88	21.28942	0.5632922	1	21.29687	1.515623	7.346042E-006	0.0006054	10
	6	24	75421.88	21.36941	0.3957991	1	21.37307	1.061098	-2.801164E-005	0.000638	10
	7	27	59859.37	21.45014	0.2547857	1	21.45165	0.68053	-2.603757E-005	0.0006812	10
	8	29	47578.12	21.52794	0.1282139	1	21.52832	0.3412324	2.081996E-005	0.0006155	10
	9	32	37828.12	21.60954	0.0132375	1	21.60954	0.035098	1.379944E-005	0.0005847	10
	10	34	30046.88	21.69263	-0.0973606	1	21.69285	-0.2571525	2.088441E-005	0.0006004	10
	11	37	23859.38	21.77523	-0.2115929	1	21.77626	-0.5567334	-2.168594E-005	0.0007232	10
	12	39	18984.38	21.85487	-0.334072	1	21.85742	-0.8757511	-3.457724E-006	0.0007089	10
	13	42	15046.87	21.93542	-0.4724856	1	21.94051	-1.233951	-2.533408E-005	0.0006871	10
	14	44	11953.13	22.01851	-0.6322801	1	22.02759	-1.644845	2.465013E-005	0.0006135	10
	15	46	9515.62	22.10874	-0.8186507	1	22.12389	-2.120601	2.187302E-005	0.0006228	10
	16	48	7546.875	22.20629	-1.04476	1	22.23085	-2.693662	-3.824892E-006	0.0006152	10
	17	51	5928.309	22.30454	-1.330975	1	22.34422	-3.414952	2.360101E-005	0.0006196	10
	18	53	4733.456	22.40485	-1.659938	1	22.46626	-4.237207	1.355416E-005	0.0005969	10
	19	55	3796.875	22.51222	-2.052152	1	22.60556	-5.208529	2.138088E-005	0.0006371	10
	20	58	2987.132	22.64897	-2.582255	1	22.79569	-6.504323	-2.486146E-005	0.00072	10
	21	60	2390.625	22.78258	-3.20031	1	23.00626	-7.99612	2.37088E-005	0.0006711	10
	22	62	1884.191	22.93923	-4.001757	1	23.28567	-9.89569	2.085123E-005	0.00066	10
	23	65	1516.544	23.11061	-4.910268	1	23.6265	-11.99515	-1.192189E-005	0.000644	10
	24	67	1193.986	23.32352	-6.148863	1	24.12043	-14.76905	-2.968185E-005	0.0006976	10
	25	69	946.5144	23.56582	-7.640945	1	24.77362	-17.96468	4.759351E-006	0.0006023	10
	26	72	751.7689	23.84747	-9.490626	1	25.66659	-21.70118	-1.501429E-005	0.000708	10
	27	74	597.4265	24.19479	-11.75503	1	26.89923	-25.91278	-2.471825E-005	0.0006767	10
	28	76	477.4305	24.59224	-14.49415	1	28.54573	-30.5142	-2.090372E-006	0.0006692	10
	29	79	376.6741	25.113	-18.07054	1	30.93877	-35.73763	-2.483133E-006	0.0006702	10
	30	81	298.2954	25.74677	-22.4394	1	34.15293	-41.07352	-2.655599E-006	0.0006686	10
	31	83	237.7717	26.51809	-27.68321	1	38.33496	-46.23145	-2.183027E-006	0.0006719	10
	32	86	189.0121	27.45102	-34.18099	1	43.83946	-51.23178	1.268604E-006	7.037632E-005	9
	33	88	150.2404	28.65464	-42.23376	1	51.03704	-55.844	1.295359E-006	6.770724E-005	9
	34	91	119.1737	30.16987	-52.26347	1	60.34642	-60.00367	1.245954E-006	6.831604E-005	9
	35	93	95.0169	32.02265	-64.33978	1	71.86833	-63.53994	1.284369E-006	6.408775E-005	9
	36	95	75.60484	34.36202	-79.33215	1	86.45426	-66.58058	1.27193E-006	6.194688E-005	9
	37	98	54.50582	38.75668	-107.0038	1	113.8064	-70.08966	1.179652E-006	6.165613E-005	9
	38	101	45.95588	41.79491	-125.0887	1	131.8863	-71.52438	1.371922E-006	7.204831E-005	9
	39	104	37.20238	46.30918	-151.6699	1	158.5822	-73.02106	1.298391E-006	6.46835E-005	9
	40	106	30.04808	52.0885	-184.2137	1	191.4364	-74.21115	1.223691E-006	7.042191E-005	9
	41	109	23.91582	59.93	-226.4965	1	234.291	-75.17942	1.166469E-006	6.235329E-005	9
	42	111	18.60119	71.21146	-284.0818	1	292.8712	-75.92751	1.078194E-006	6.670495E-005	9
	43	113	15.02404	83.70667	-343.9062	1	353.9468	-76.32023	1.217465E-006	6.950423E-005	9
	44	116	12.01923	99.8158	-417.6066	1	429.3699	-76.55743	6.278884E-007	0.0006926	8
	45	118	9.450605	122.224	-515.7219	1	530.0074	-76.66713	5.61204E-007	0.000628	8
	46	120	7.512019	149.3305	-629.9743	1	647.4312	-76.66461	6.027146E-007	0.0006353	8
	47	123	5.978954	182.2563	-766.5681	1	787.9366	-76.62589	6.059597E-007	0.0006387	8
	48	126	4.734848	223.8194	-935.9477	1	962.337	-76.55105	5.906116E-007	0.0006664	8
	49	129	3.75601	273.2123	-1139.954	1	1172.237	-76.52217	5.201243E-007	0.0006222	8
	50	133	3.004808	329.2995	-1376.969	1	1415.798	-76.55043	5.263618E-007	0.0006897	8
	51	137	2.372217	402.2017	-1680.787	1	1728.24	-76.54254	5.738386E-007	0.0006745	8
	52	141	1.878005	485.5723	-2054.686	1	2111.282	-76.70356	5.291789E-007	0.0006371	8
	53	145	1.512097	573.5139	-2472.404	1	2538.05	-76.94029	5.252583E-007	0.000594	8
	54	151	1.201923	688.1602	-3014.482	1	3092.033	-77.14061	5.383973E-007	0.0006515	8
	55	157	0.956633	817.0476	-3672.147	1	3761.945	-77.4561	5.35986E-007	4.527231E-006	8
