EXPLAIN
TAG	EISPOT
TITLE	LABEL	Potentiostatic EIS	Test Identifier
DATE	LABEL	9/13/2020	Date
TIME	LABEL	21:52:41	Time
NOTES	NOTES	1	Notes...
	
PSTAT	PSTAT	REF3000-16137	Potentiostat
VDC	POTEN	0.00000E+000	T	DC Voltage (V)
FREQINIT	QUANT	3.00000E+005	Initial Freq. (Hz)
FREQFINAL	QUANT	1.00000E+000	Final Freq. (Hz)
PTSPERDEC	QUANT	1.00000E+001	Points/decade
VAC	QUANT	5.00000E+001	AC Voltage (mV rms)
AREA	QUANT	1.00000E+000	Sample Area (cm^2)
SPEED	SELECTOR	2	Optimize for:
ZGUESS	QUANT	1.00000E+003	Estimated Z (ohms)
EOC	QUANT	0	Open Circuit (V)
SEQUENCER	TOGGLE	TRUE	Run as Sequence
PSTATMODEL	IQUANT	5	Pstat Model
PSTATSECTION	LABEL	REF3000-16137	Pstat Section
PSTATSERIALNO	LABEL	16137	Pstat Serial Number
CTRLMODE	IQUANT	1	Control Mode
IESTAB	IQUANT	0	I/E Stability
CASPEED	IQUANT	1	Control Amp Speed
CONVENTION	IQUANT	1	Current Convention
ICHRANGE	IQUANT	2	Ich Range
ICHRANGEMODE	TOGGLE	F	Ich Auto Range
ICHOFFSETENABLE	TOGGLE	T	Ich Offset Enable
ICHOFFSET	QUANT	0	Ich Offset (V)
ICHFILTER	IQUANT	3	Ich Filter
VCHRANGE	IQUANT	2	Vch Range
VCHRANGEMODE	TOGGLE	F	Vch Auto Range
VCHOFFSETENABLE	TOGGLE	T	Vch Offset Enable
VCHOFFSET	QUANT	0	Vch Offset (V)
VCHFILTER	IQUANT	3	Vch Filter
ACHRANGE	IQUANT	2	Ach Range
ACHOFFSETENABLE	TOGGLE	F	Ach Offset Enable
ACHOFFSET	QUANT	0	Ach Offset (V)
ACHFILTER	IQUANT	3	Ach Filter
IERANGELOWERLIMIT	IQUANT	2	I/E Range Lower Limit
IERANGEMODE	TOGGLE	F	I/E AutoRange
IERANGE	IQUANT	11	I/E Range
POSFEEDENABLE	TOGGLE	F	Positive Feedback IR Comp
POSFEEDRESISTANCE	QUANT	0	Positive Feedback Resistance (ohm)
ACHSELECT	IQUANT	0	Ach Select
CABLEID	IQUANT	13	Cable ID
DCCALDATE	LABEL	7/31/2020	DC Calibration Date
ACCALDATE	LABEL	7/31/2020	AC Calibration Date
THERMOSELECT	IQUANT	1	Thermo Select
FRAMEWORKVERSION	QUANT	6.33	Framework Version
INSTRUMENTVERSION	LABEL	3.50	Instrument Version
COMPLIANCEVOLTAGE	IQUANT	0	Compliance Voltage
ZCURVE	TABLE
	Pt	Time	Freq	Zreal	Zimag	Zsig	Zmod	Zphz	Idc	Vdc	IERange
	#	s	Hz	ohm	ohm	V	ohm	°	A	V	#
	0	7	300046.9	26.46441	1.462966	1	26.50482	3.164119	7.422367E-006	-8.941726E-005	11
	1	11	238359.4	26.62954	1.457016	1	26.66937	3.131774	-2.642858E-005	0.0004108	10
	2	15	189328.1	26.78573	1.132933	1	26.80968	2.421947	2.813274E-005	0.0007382	10
	3	18	150421.9	26.95644	0.887807	1	26.97105	1.886348	2.810894E-005	0.0008699	10
	4	22	119484.4	27.03608	0.6735098	1	27.04447	1.42703	1.856287E-005	0.0006087	10
	5	25	94921.88	27.14022	0.5099289	1	27.14501	1.076385	2.651638E-005	0.0006292	10
	6	27	75421.88	27.24948	0.3536575	1	27.25177	0.7435719	2.101225E-005	0.0005908	10
	7	30	59859.37	27.35837	0.2180353	1	27.35924	0.4566149	-1.145488E-005	0.000614	10
	8	32	47578.12	27.47103	0.0986639	1	27.4712	0.2057804	-2.693854E-005	0.0006855	10
	9	35	37828.12	27.57882	-0.0131531	1	27.57882	-0.0273259	1.386822E-005	0.0005844	10
	10	37	30046.88	27.6939	-0.1232581	1	27.69418	-0.2550065	2.635642E-005	0.0006438	10
	11	40	23859.38	27.80337	-0.2379993	1	27.80439	-0.490445	-1.162861E-005	0.0006277	10
	12	42	18984.38	27.9115	-0.3595974	1	27.91382	-0.7381285	-3.013406E-005	0.0006727	10
	13	44	15046.87	28.01889	-0.4945124	1	28.02325	-1.011123	2.13784E-005	0.0006201	10
	14	47	11953.13	28.1284	-0.6572629	1	28.13608	-1.338559	4.767705E-006	0.0006348	10
	15	49	9515.62	28.25097	-0.8481176	1	28.26369	-1.719551	1.396127E-005	0.000594	10
	16	51	7546.875	28.36923	-1.07503	1	28.3896	-2.170141	1.29976E-005	0.0005837	10
	17	53	5928.309	28.50267	-1.371194	1	28.53563	-2.754237	1.634193E-005	0.0006677	10
	18	56	4733.456	28.63823	-1.712465	1	28.68938	-3.422011	2.116772E-005	0.0006595	10
	19	58	3796.875	28.77477	-2.115905	1	28.85246	-4.20558	-2.244266E-005	0.0006869	10
	20	60	2987.132	28.92935	-2.655443	1	29.05097	-5.244519	2.310912E-005	0.0006518	10
	21	63	2390.625	29.09777	-3.279505	1	29.282	-6.430464	2.248354E-005	0.0006263	10
	22	65	1884.191	29.28392	-4.098034	1	29.56927	-7.96632	1.97972E-005	0.0006583	10
	23	67	1516.544	29.48295	-5.038199	1	29.91033	-9.69733	1.875454E-005	0.0006003	10
	24	70	1193.986	29.72276	-6.317391	1	30.3867	-11.99931	1.497711E-005	0.0006655	10
	25	72	946.5144	30.00268	-7.850019	1	31.01264	-14.66241	2.442713E-005	0.0006213	10
	26	74	751.7689	30.31172	-9.7385	1	31.83769	-17.81109	2.032944E-005	0.0006028	10
	27	77	597.4265	30.68584	-12.07867	1	32.97749	-21.48577	-1.910667E-005	0.0006517	10
	28	79	477.4305	31.11755	-14.89391	1	34.49826	-25.57735	-2.591029E-006	0.0006639	10
	29	81	376.6741	31.66928	-18.5765	1	36.71552	-30.39495	-1.889264E-006	0.0006657	10
	30	84	298.2954	32.29657	-23.05083	1	39.67883	-35.51634	1.270023E-006	6.844522E-005	9
	31	86	237.7717	33.10149	-28.44965	1	43.64735	-40.67799	1.245427E-006	5.96795E-005	9
	32	88	189.0121	34.10404	-35.18583	1	49.00131	-45.89446	1.197228E-006	6.429273E-005	9
	33	91	150.2404	35.34827	-43.49335	1	56.04616	-50.89827	1.233715E-006	7.353407E-005	9
	34	93	119.1737	36.91002	-53.84292	1	65.27947	-55.56886	1.309819E-006	6.726159E-005	9
	35	96	95.0169	38.813	-66.30433	1	76.82912	-59.6563	1.179468E-006	6.491343E-005	9
	36	98	75.60484	41.20972	-81.77523	1	91.57199	-63.25469	1.241619E-006	6.272021E-005	9
	37	101	54.50582	45.66317	-110.3192	1	119.3962	-67.51442	1.165101E-006	6.237858E-005	9
	38	103	45.95588	48.69155	-128.9736	1	137.8588	-69.31692	1.229196E-006	7.065792E-005	9
	39	106	37.20238	53.21527	-156.4262	1	165.2302	-71.21201	1.215683E-006	6.872598E-005	9
	40	108	30.04808	58.93462	-190.0655	1	198.993	-72.77263	1.223561E-006	6.326074E-005	9
	41	110	23.91582	66.68076	-233.9046	1	243.2236	-74.08839	1.209279E-006	6.508762E-005	9
	42	113	18.60119	77.78264	-293.7574	1	303.8809	-75.16927	1.484799E-006	5.951765E-005	9
	43	115	15.02404	90.02228	-356.1692	1	367.3697	-75.81548	1.322325E-006	5.63011E-005	9
	44	117	12.01923	105.856	-433.1108	1	445.8593	-76.26567	4.769752E-007	0.0006442	8
	45	120	9.450605	128.4622	-536.1365	1	551.312	-76.52555	5.428953E-007	0.0006445	8
	46	122	7.512019	155.7722	-656.4287	1	674.6581	-76.6505	4.479224E-007	0.0006514	8
	47	125	5.978954	189.6839	-800.3002	1	822.4721	-76.66604	4.517368E-007	0.0006426	8
	48	128	4.734848	233.139	-978.881	1	1006.261	-76.6035	4.571459E-007	0.000621	8
	49	131	3.75601	285.398	-1193.762	1	1227.403	-76.55441	5.256624E-007	0.0006603	8
	50	135	3.004808	345.6735	-1443.072	1	1483.896	-76.52919	4.990828E-007	0.0006546	8
	51	138	2.372217	424.0425	-1761.864	1	1812.175	-76.46753	4.933864E-007	0.0006228	8
	52	142	1.878005	515.4269	-2153.112	1	2213.946	-76.53748	5.434085E-007	0.0006249	8
	53	147	1.512097	610.5322	-2587.956	1	2658.998	-76.72589	5.030819E-007	0.0007247	8
	54	153	1.201923	737.503	-3152.74	1	3237.851	-76.83386	5.416163E-007	0.0006348	8
	55	159	0.956633	878.6267	-3834.491	1	3933.866	-77.09416	4.865007E-007	2.104907E-006	8
