EXPLAIN
TAG	EISPOT
TITLE	LABEL	Potentiostatic EIS	Test Identifier
DATE	LABEL	9/13/2020	Date
TIME	LABEL	21:38:54	Time
NOTES	NOTES	1	Notes...
	
PSTAT	PSTAT	REF3000-16137	Potentiostat
VDC	POTEN	0.00000E+000	T	DC Voltage (V)
FREQINIT	QUANT	3.00000E+005	Initial Freq. (Hz)
FREQFINAL	QUANT	1.00000E+000	Final Freq. (Hz)
PTSPERDEC	QUANT	1.00000E+001	Points/decade
VAC	QUANT	5.00000E+001	AC Voltage (mV rms)
AREA	QUANT	1.00000E+000	Sample Area (cm^2)
SPEED	SELECTOR	2	Optimize for:
ZGUESS	QUANT	1.00000E+003	Estimated Z (ohms)
EOC	QUANT	0	Open Circuit (V)
SEQUENCER	TOGGLE	TRUE	Run as Sequence
PSTATMODEL	IQUANT	5	Pstat Model
PSTATSECTION	LABEL	REF3000-16137	Pstat Section
PSTATSERIALNO	LABEL	16137	Pstat Serial Number
CTRLMODE	IQUANT	1	Control Mode
IESTAB	IQUANT	0	I/E Stability
CASPEED	IQUANT	1	Control Amp Speed
CONVENTION	IQUANT	1	Current Convention
ICHRANGE	IQUANT	2	Ich Range
ICHRANGEMODE	TOGGLE	F	Ich Auto Range
ICHOFFSETENABLE	TOGGLE	T	Ich Offset Enable
ICHOFFSET	QUANT	0	Ich Offset (V)
ICHFILTER	IQUANT	3	Ich Filter
VCHRANGE	IQUANT	2	Vch Range
VCHRANGEMODE	TOGGLE	F	Vch Auto Range
VCHOFFSETENABLE	TOGGLE	T	Vch Offset Enable
VCHOFFSET	QUANT	0	Vch Offset (V)
VCHFILTER	IQUANT	3	Vch Filter
ACHRANGE	IQUANT	2	Ach Range
ACHOFFSETENABLE	TOGGLE	F	Ach Offset Enable
ACHOFFSET	QUANT	0	Ach Offset (V)
ACHFILTER	IQUANT	3	Ach Filter
IERANGELOWERLIMIT	IQUANT	2	I/E Range Lower Limit
IERANGEMODE	TOGGLE	F	I/E AutoRange
IERANGE	IQUANT	11	I/E Range
POSFEEDENABLE	TOGGLE	F	Positive Feedback IR Comp
POSFEEDRESISTANCE	QUANT	0	Positive Feedback Resistance (ohm)
ACHSELECT	IQUANT	0	Ach Select
CABLEID	IQUANT	13	Cable ID
DCCALDATE	LABEL	7/31/2020	DC Calibration Date
ACCALDATE	LABEL	7/31/2020	AC Calibration Date
THERMOSELECT	IQUANT	1	Thermo Select
FRAMEWORKVERSION	QUANT	6.33	Framework Version
INSTRUMENTVERSION	LABEL	3.50	Instrument Version
COMPLIANCEVOLTAGE	IQUANT	0	Compliance Voltage
ZCURVE	TABLE
	Pt	Time	Freq	Zreal	Zimag	Zsig	Zmod	Zphz	Idc	Vdc	IERange
	#	s	Hz	ohm	ohm	V	ohm	°	A	V	#
	0	8	300046.9	9.75002	2.198901	1	9.99491	12.70916	-2.815013E-005	5.054486E-005	10
	1	11	238359.4	9.74035	1.736821	1	9.89398	10.11027	-0.000102	0.0001046	10
	2	14	189328.1	9.74807	1.368405	1	9.84365	7.990793	-4.753646E-006	0.0004256	10
	3	16	150421.9	9.7592	1.05893	1	9.81648	6.192701	1.119058E-005	0.0004399	10
	4	19	119484.4	9.77364	0.8262175	1	9.8085	4.832026	6.418384E-005	0.0003113	10
	5	22	94921.88	9.79489	0.6502291	1	9.81645	3.797981	-2.397011E-005	0.0006322	10
	6	24	75421.88	9.81403	0.4703588	1	9.82529	2.743927	-1.187227E-005	0.0005697	10
	7	27	59859.37	9.83982	0.3159474	1	9.84489	1.839082	-1.119615E-005	0.0006743	10
	8	29	47578.12	9.86782	0.1845016	1	9.86954	1.071152	9.074821E-006	0.000655	10
	9	32	37828.12	9.89578	0.0671418	1	9.89601	0.3887399	1.814286E-005	0.0006086	10
	10	34	30046.88	9.9258	-0.0449086	1	9.9259	-0.2592292	2.258349E-005	0.0006024	10
	11	37	23859.38	9.95605	-0.158011	1	9.95731	-0.9092566	2.076136E-005	0.0006106	10
	12	39	18984.38	9.98871	-0.2753844	1	9.9925	-1.57922	-1.901041E-005	0.0007148	10
	13	41	15046.87	10.02215	-0.4082956	1	10.03046	-2.332901	-2.358581E-005	0.0007379	10
	14	44	11953.13	10.05581	-0.5565868	1	10.0712	-3.168075	-1.112512E-005	0.0007114	10
	15	46	9515.62	10.09553	-0.7291003	1	10.12182	-4.130736	-2.387643E-005	0.0007016	10
	16	48	7546.875	10.137	-0.939342	1	10.18043	-5.294178	1.685619E-005	0.0006766	10
	17	50	5928.309	10.18636	-1.206064	1	10.25751	-6.752383	-1.617317E-005	0.000683	10
	18	53	4733.456	10.23988	-1.507977	1	10.35032	-8.377453	3.130728E-006	0.0006096	10
	19	55	3796.875	10.30008	-1.869898	1	10.46844	-10.28954	1.676945E-005	0.0006065	10
	20	57	2987.132	10.37385	-2.357133	1	10.63828	-12.80132	-2.768321E-005	0.000684	10
	21	60	2390.625	10.45597	-2.915943	1	10.85495	-15.58263	1.190262E-005	0.0006093	10
	22	62	1884.191	10.56106	-3.651247	1	11.17442	-19.07166	1.075505E-005	0.0006057	10
	23	64	1516.544	10.67743	-4.479685	1	11.57908	-22.76034	-5.035836E-006	0.0006187	10
	24	67	1193.986	10.83273	-5.607353	1	12.19797	-27.36747	-2.806063E-005	0.0006854	10
	25	69	946.5144	11.01804	-6.970248	1	13.0377	-32.31833	2.182917E-005	0.0006698	10
	26	71	751.7689	11.24663	-8.638581	1	14.18139	-37.528	5.205362E-006	0.0006624	10
	27	74	597.4265	11.53274	-10.69355	1	15.72756	-42.83775	5.904681E-006	0.0006645	10
	28	76	477.4305	11.88219	-13.16051	1	17.73092	-47.92216	-3.015587E-006	0.0006673	10
	29	78	376.6741	12.34186	-16.38485	1	20.51304	-53.01118	-2.998259E-006	0.0006568	10
	30	81	298.2954	12.912	-20.31948	1	24.0749	-57.56611	-3.052109E-006	0.0006629	10
	31	83	237.7717	13.61346	-25.03826	1	28.49983	-61.46679	-2.226825E-006	0.0006626	10
	32	85	189.0121	14.4991	-30.91625	1	34.1473	-64.87437	-2.355305E-006	0.0006633	10
	33	88	150.2404	15.61644	-38.16188	1	41.23351	-67.74485	-2.535251E-006	0.0006545	10
	34	90	119.1737	17.02635	-47.1297	1	50.11093	-70.13695	1.334808E-006	6.203682E-005	9
	35	93	95.0169	18.81098	-57.97483	1	60.95026	-72.02341	1.309593E-006	6.169373E-005	9
	36	95	75.60484	21.12371	-71.41419	1	74.4728	-73.52223	1.29552E-006	5.98455E-005	9
	37	98	54.50582	25.65191	-96.1068	1	99.4713	-75.05555	1.257867E-006	5.433198E-005	9
	38	100	45.95588	28.78418	-112.1182	1	115.7542	-75.60139	1.312708E-006	6.263464E-005	9
	39	102	37.20238	33.56485	-135.4923	1	139.5878	-76.08649	1.262164E-006	6.742736E-005	9
	40	105	30.04808	39.69321	-163.8839	1	168.6223	-76.38497	1.306821E-006	6.485609E-005	9
	41	107	23.91582	47.89531	-200.2885	1	205.9356	-76.55132	1.285052E-006	6.180642E-005	9
	42	110	18.60119	59.43158	-249.354	1	256.3387	-76.59412	1.540656E-006	5.77987E-005	9
	43	112	15.02404	71.66221	-299.8665	1	308.3105	-76.55952	1.312717E-006	6.342345E-005	9
	44	114	12.01923	86.97421	-362.9753	1	373.25	-76.52515	1.39952E-006	6.855364E-005	9
	45	117	9.450605	106.6585	-443.7281	1	456.3668	-76.48428	7.207413E-007	0.0006384	8
	46	119	7.512019	129.5769	-538.9415	1	554.2997	-76.48106	7.17159E-007	0.0006541	8
	47	122	5.978954	156.2467	-653.8673	1	672.2764	-76.56074	6.658845E-007	0.000646	8
	48	125	4.734848	188.438	-796.9846	1	818.9587	-76.69735	7.204205E-007	0.0006717	8
	49	128	3.75601	225.9167	-970.874	1	996.813	-76.90072	6.183949E-007	0.000629	8
	50	132	3.004808	267.8209	-1175.121	1	1205.254	-77.16106	6.837557E-007	0.0006264	8
	51	135	2.372217	321.2187	-1439.252	1	1474.661	-77.41866	6.777528E-007	0.0006512	8
	52	139	1.878005	384.8937	-1767.77	1	1809.186	-77.71679	6.197934E-007	0.0006442	8
	53	144	1.512097	453.084	-2138.33	1	2185.805	-78.03672	6.537389E-007	0.0005421	8
	54	150	1.201923	545.2269	-2620.32	1	2676.443	-78.24582	6.273797E-007	0.0006538	8
	55	156	0.956633	654.4638	-3207.956	1	3274.035	-78.46917	6.304426E-007	-4.343759E-006	8
