EXPLAIN
TAG	EISPOT
TITLE	LABEL	Potentiostatic EIS	Test Identifier
DATE	LABEL	9/13/2020	Date
TIME	LABEL	22:42:17	Time
NOTES	NOTES	1	Notes...
	
PSTAT	PSTAT	REF3000-16137	Potentiostat
VDC	POTEN	0.00000E+000	T	DC Voltage (V)
FREQINIT	QUANT	3.00000E+005	Initial Freq. (Hz)
FREQFINAL	QUANT	1.00000E+000	Final Freq. (Hz)
PTSPERDEC	QUANT	1.00000E+001	Points/decade
VAC	QUANT	5.00000E+001	AC Voltage (mV rms)
AREA	QUANT	1.00000E+000	Sample Area (cm^2)
SPEED	SELECTOR	2	Optimize for:
ZGUESS	QUANT	1.00000E+003	Estimated Z (ohms)
EOC	QUANT	0	Open Circuit (V)
SEQUENCER	TOGGLE	TRUE	Run as Sequence
PSTATMODEL	IQUANT	5	Pstat Model
PSTATSECTION	LABEL	REF3000-16137	Pstat Section
PSTATSERIALNO	LABEL	16137	Pstat Serial Number
CTRLMODE	IQUANT	1	Control Mode
IESTAB	IQUANT	0	I/E Stability
CASPEED	IQUANT	1	Control Amp Speed
CONVENTION	IQUANT	1	Current Convention
ICHRANGE	IQUANT	2	Ich Range
ICHRANGEMODE	TOGGLE	F	Ich Auto Range
ICHOFFSETENABLE	TOGGLE	T	Ich Offset Enable
ICHOFFSET	QUANT	0	Ich Offset (V)
ICHFILTER	IQUANT	3	Ich Filter
VCHRANGE	IQUANT	2	Vch Range
VCHRANGEMODE	TOGGLE	F	Vch Auto Range
VCHOFFSETENABLE	TOGGLE	T	Vch Offset Enable
VCHOFFSET	QUANT	0	Vch Offset (V)
VCHFILTER	IQUANT	3	Vch Filter
ACHRANGE	IQUANT	2	Ach Range
ACHOFFSETENABLE	TOGGLE	F	Ach Offset Enable
ACHOFFSET	QUANT	0	Ach Offset (V)
ACHFILTER	IQUANT	3	Ach Filter
IERANGELOWERLIMIT	IQUANT	2	I/E Range Lower Limit
IERANGEMODE	TOGGLE	F	I/E AutoRange
IERANGE	IQUANT	11	I/E Range
POSFEEDENABLE	TOGGLE	F	Positive Feedback IR Comp
POSFEEDRESISTANCE	QUANT	0	Positive Feedback Resistance (ohm)
ACHSELECT	IQUANT	0	Ach Select
CABLEID	IQUANT	13	Cable ID
DCCALDATE	LABEL	7/31/2020	DC Calibration Date
ACCALDATE	LABEL	7/31/2020	AC Calibration Date
THERMOSELECT	IQUANT	1	Thermo Select
FRAMEWORKVERSION	QUANT	6.33	Framework Version
INSTRUMENTVERSION	LABEL	3.50	Instrument Version
COMPLIANCEVOLTAGE	IQUANT	0	Compliance Voltage
ZCURVE	TABLE
	Pt	Time	Freq	Zreal	Zimag	Zsig	Zmod	Zphz	Idc	Vdc	IERange
	#	s	Hz	ohm	ohm	V	ohm	°	A	V	#
	0	15	300046.9	84.22511	-4351.041	1	4351.855	-88.89104	-1.062157E-006	0.001594	9
	1	28	238359.4	174.072	-5411.565	1	5414.364	-88.15762	-6.256984E-005	0.0005269	9
	2	44	189328.1	564.7785	-6713.002	1	6736.718	-85.19092	-2.020996E-005	0.0016236	9
	3	51	150421.9	464.3846	-8223.845	1	8236.945	-86.76805	2.073738E-005	-0.0008792	9
	4	59	119484.4	753.097	-10378.58	1	10405.86	-85.84974	2.21015E-005	-0.0184489	8
	5	66	94921.88	1185.554	-13008.1	1	13062.01	-84.79247	-1.272302E-006	-0.0050786	8
	6	73	75421.88	1538.839	-16318.14	1	16390.54	-84.6128	-1.607465E-005	0.0006469	8
	7	82	59859.37	2227.755	-20474.73	1	20595.57	-83.79035	7.586646E-006	-0.0075737	8
	8	91	47578.12	5461.547	-26279.79	1	26841.31	-78.25974	-7.200796E-006	0.0233441	7
	9	97	37828.12	6249.545	-32510.3	1	33105.54	-79.11861	7.498157E-006	-0.0183134	7
	10	104	30046.88	4642.771	-38948.13	1	39223.87	-83.20219	-2.48589E-005	0.0111314	8
	11	113	23859.38	6544.544	-47149	1	47601.04	-82.09752	-2.406288E-005	0.0053202	8
	12	120	18984.38	9396.674	-60870.32	1	61591.34	-81.2244	-9.66817E-006	-0.002075	8
	13	126	15046.87	15355.52	-77345.05	1	78854.61	-78.77093	-1.857279E-006	0.0218463	7
	14	131	11953.13	11036.73	-95143.5	1	95781.5	-83.38321	2.325757E-005	-0.0028381	8
	15	139	9515.62	14803.35	-119133.3	1	120049.5	-82.91681	-2.680836E-005	0.0096877	8
	16	147	7546.875	23377.86	-131781.1	1	133838.7	-79.94043	2.747172E-005	-0.0074733	8
	17	154	5928.309	47484.2	-150973.5	1	158264.8	-72.54059	1.758127E-005	0.0002245	8
	18	163	4733.456	58241.75	-222240.2	1	229745	-75.31492	-1.173902E-006	-0.0129158	7
	19	169	3796.875	118346.3	-269328.1	1	294182.7	-66.27868	-4.826973E-007	0.0013164	6
	20	174	2987.132	125607.2	-351008.6	1	372805.9	-70.31043	2.719186E-005	-0.0073646	8
	21	181	2390.625	199117.8	-209660.6	1	289146.1	-46.47739	-1.995384E-005	0.0114658	8
	22	190	1884.191	1087525	269037.1	1	1120308	13.89513	-2.713258E-005	0.0009133	9
	23	199	1516.544	123331.2	-292241.2	1	317199.5	-67.11935	-9.793586E-006	-0.0020425	8
	24	207	1193.986	318620.8	-661253.1	1	734012.9	-64.27319	-1.728798E-006	0.0218513	7
	25	214	946.5144	550489.9	-807486.6	1	977279	-55.71647	7.409924E-007	-0.0164768	6
	26	219	751.7689	730975.4	-752591.8	1	1049152	-45.83477	-2.097383E-007	0.0222685	6
	27	224	597.4265	918330.6	-754749.3	1	1188687	-39.41579	4.08637E-007	0.0025521	6
	28	227	477.4305	1050753	-851930.4	1	1352726	-39.03447	-1.013893E-008	0.0007473	6
	29	231	376.6741	1375057	-740886.3	1	1561952	-28.31597	-1.127235E-009	0.0006323	5
	30	234	298.2954	1529264	-702661.2	1	1682968	-24.67768	-1.05381E-009	0.0006231	5
	31	237	237.7717	1662140	-645370.3	1	1783035	-21.22003	-1.065976E-009	0.0006823	5
	32	239	189.0121	1782805	-598593.9	1	1880614	-18.55997	-9.896879E-010	0.0006013	5
	33	242	150.2404	1902769	-543051.9	1	1978746	-15.92879	-1.121946E-009	0.0006428	5
	34	245	119.1737	2126572	-476706.9	1	2179348	-12.63494	-1.125566E-009	0.0005989	5
	35	248	95.0169	2087074	-428611	1	2130630	-11.60517	-1.122619E-009	0.0005932	5
	36	250	75.60484	2164028	-394774.4	1	2199741	-10.33854	-1.136986E-009	0.0006882	5
	37	253	54.50582	2270846	-300577.4	1	2290653	-7.540047	-1.095595E-009	0.0006803	5
	38	257	45.95588	2316851	-256466.9	1	2331003	-6.316715	-1.167315E-009	0.0007015	5
	39	259	37.20238	2406633	-244001	1	2418970	-5.789258	-1.116165E-009	0.0006113	5
	40	262	30.04808	2465069	-233409.2	1	2476095	-5.409019	-1.040294E-008	0.0007475	6
	41	266	23.91582	2534715	-188162.9	1	2541689	-4.245527	-9.216027E-009	0.0006095	6
	42	270	18.60119	2586387	-185087.5	1	2593002	-4.093232	-1.061043E-008	0.0006746	6
	43	273	15.02404	2708836	-144620	1	2712694	-3.056019	-1.013901E-008	0.0006323	6
	44	277	12.01923	2784735	-137940.2	1	2788149	-2.835795	-9.877834E-009	0.0006358	6
	45	281	9.450605	2874987	-116464.6	1	2877345	-2.319762	-9.435057E-009	0.0006418	6
	46	285	7.512019	2962074	-97692.2	1	2963684	-1.888988	-1.025357E-008	0.0007565	6
	47	289	5.978954	3077678	-88817.25	1	3078960	-1.653013	-9.400464E-009	0.0006143	6
	48	294	4.734848	3211155	-79874.19	1	3212149	-1.42488	-9.964233E-009	0.0006262	6
	49	300	3.75601	3369572	-75034.55	1	3370407	-1.275668	-1.061035E-009	0.0006925	5
	50	307	3.004808	3562237	-69993.83	1	3562924	-1.125651	-9.395805E-009	0.0006127	6
	51	315	2.372217	3701669	-58353.07	1	3702129	-0.9031351	-1.073983E-009	0.0005739	5
	52	319	1.878005	3843857	-28163.57	1	3843960	-0.4197932	-8.983853E-011	0.000658	4
	53	324	1.512097	3991355	-30641.04	1	3991473	-0.4398426	-8.599201E-011	0.00057	4
	54	329	1.201923	4173657	-31327.53	1	4173775	-0.4300549	-6.876523E-011	0.0006731	4
	55	335	0.956633	4380041	-38261.23	1	4380208	-0.5004866	-2.33272E-010	1.105647E-005	4
