EXPLAIN
TAG	EISPOT
TITLE	LABEL	Potentiostatic EIS	Test Identifier
DATE	LABEL	9/13/2020	Date
TIME	LABEL	21:33:23	Time
NOTES	NOTES	1	Notes...
	
PSTAT	PSTAT	REF3000-16137	Potentiostat
VDC	POTEN	0.00000E+000	T	DC Voltage (V)
FREQINIT	QUANT	3.00000E+005	Initial Freq. (Hz)
FREQFINAL	QUANT	1.00000E+000	Final Freq. (Hz)
PTSPERDEC	QUANT	1.00000E+001	Points/decade
VAC	QUANT	5.00000E+001	AC Voltage (mV rms)
AREA	QUANT	1.00000E+000	Sample Area (cm^2)
SPEED	SELECTOR	2	Optimize for:
ZGUESS	QUANT	1.00000E+003	Estimated Z (ohms)
EOC	QUANT	0	Open Circuit (V)
SEQUENCER	TOGGLE	TRUE	Run as Sequence
PSTATMODEL	IQUANT	5	Pstat Model
PSTATSECTION	LABEL	REF3000-16137	Pstat Section
PSTATSERIALNO	LABEL	16137	Pstat Serial Number
CTRLMODE	IQUANT	1	Control Mode
IESTAB	IQUANT	0	I/E Stability
CASPEED	IQUANT	1	Control Amp Speed
CONVENTION	IQUANT	1	Current Convention
ICHRANGE	IQUANT	2	Ich Range
ICHRANGEMODE	TOGGLE	F	Ich Auto Range
ICHOFFSETENABLE	TOGGLE	T	Ich Offset Enable
ICHOFFSET	QUANT	0	Ich Offset (V)
ICHFILTER	IQUANT	3	Ich Filter
VCHRANGE	IQUANT	2	Vch Range
VCHRANGEMODE	TOGGLE	F	Vch Auto Range
VCHOFFSETENABLE	TOGGLE	T	Vch Offset Enable
VCHOFFSET	QUANT	0	Vch Offset (V)
VCHFILTER	IQUANT	3	Vch Filter
ACHRANGE	IQUANT	2	Ach Range
ACHOFFSETENABLE	TOGGLE	F	Ach Offset Enable
ACHOFFSET	QUANT	0	Ach Offset (V)
ACHFILTER	IQUANT	3	Ach Filter
IERANGELOWERLIMIT	IQUANT	2	I/E Range Lower Limit
IERANGEMODE	TOGGLE	F	I/E AutoRange
IERANGE	IQUANT	11	I/E Range
POSFEEDENABLE	TOGGLE	F	Positive Feedback IR Comp
POSFEEDRESISTANCE	QUANT	0	Positive Feedback Resistance (ohm)
ACHSELECT	IQUANT	0	Ach Select
CABLEID	IQUANT	13	Cable ID
DCCALDATE	LABEL	7/31/2020	DC Calibration Date
ACCALDATE	LABEL	7/31/2020	AC Calibration Date
THERMOSELECT	IQUANT	1	Thermo Select
FRAMEWORKVERSION	QUANT	6.33	Framework Version
INSTRUMENTVERSION	LABEL	3.50	Instrument Version
COMPLIANCEVOLTAGE	IQUANT	0	Compliance Voltage
ZCURVE	TABLE
	Pt	Time	Freq	Zreal	Zimag	Zsig	Zmod	Zphz	Idc	Vdc	IERange
	#	s	Hz	ohm	ohm	V	ohm	°	A	V	#
	0	8	300046.9	7.249699	2.23363	1	7.585989	17.12405	-0.0001049	1.067137E-005	10
	1	11	238359.4	7.243105	1.759773	1	7.453816	13.6559	2.295468E-005	-3.421571E-006	10
	2	14	189328.1	7.236571	1.389049	1	7.368679	10.86568	6.542003E-005	4.020009E-005	10
	3	17	150421.9	7.246483	1.091999	1	7.3283	8.569633	-7.993083E-005	0.0005394	10
	4	19	119484.4	7.245649	0.8428699	1	7.294509	6.635266	-5.118725E-006	0.000583	10
	5	22	94921.88	7.25641	0.6634252	1	7.286674	5.223807	4.29723E-006	0.0005325	10
	6	24	75421.88	7.267283	0.486025	1	7.283517	3.826158	-2.821427E-005	0.0005691	10
	7	27	59859.37	7.282612	0.3323614	1	7.290192	2.613033	-2.184524E-005	0.0006526	10
	8	29	47578.12	7.299362	0.1992961	1	7.302082	1.563971	-1.491413E-006	0.0005983	10
	9	32	37828.12	7.317677	0.081	1	7.318126	0.6341862	2.162312E-005	0.0005994	10
	10	34	30046.88	7.33877	-0.0305957	1	7.338834	-0.2388679	1.69598E-005	0.0005969	10
	11	37	23859.38	7.359977	-0.1411063	1	7.36133	-1.098346	-2.595273E-005	0.0006473	10
	12	39	18984.38	7.381133	-0.256545	1	7.38559	-1.99062	-1.732295E-005	0.0006544	10
	13	41	15046.87	7.404737	-0.3850279	1	7.414741	-2.976557	4.385446E-006	0.0006198	10
	14	44	11953.13	7.431763	-0.529499	1	7.450602	-4.075329	-2.118749E-005	0.0007173	10
	15	46	9515.62	7.46044	-0.6970585	1	7.492933	-5.337875	-2.931918E-006	0.000632	10
	16	48	7546.875	7.493458	-0.9005589	1	7.547379	-6.852903	2.172464E-005	0.0006315	10
	17	51	5928.309	7.53189	-1.156744	1	7.620198	-8.731235	1.510955E-005	0.0006572	10
	18	53	4733.456	7.576643	-1.449531	1	7.714056	-10.83071	-2.73042E-005	0.0006863	10
	19	55	3796.875	7.625784	-1.797449	1	7.834756	-13.26292	1.92147E-005	0.0006435	10
	20	58	2987.132	7.691056	-2.264539	1	8.01751	-16.40643	-4.502933E-006	0.0006328	10
	21	60	2390.625	7.763305	-2.802398	1	8.253626	-19.84857	2.270424E-005	0.000659	10
	22	62	1884.191	7.858411	-3.508547	1	8.606074	-24.05934	2.215818E-005	0.0006369	10
	23	64	1516.544	7.964487	-4.302512	1	9.052329	-28.37845	-5.486479E-006	0.000633	10
	24	67	1193.986	8.108647	-5.384999	1	9.73388	-33.58836	-2.644519E-005	0.0006928	10
	25	69	946.5144	8.282738	-6.688262	1	10.64597	-38.92067	-1.66755E-005	0.0006698	10
	26	72	751.7689	8.505695	-8.284924	1	11.87379	-44.24669	-2.592147E-005	0.0007265	10
	27	74	597.4265	8.777294	-10.25164	1	13.49582	-49.43038	2.043943E-005	0.0006472	10
	28	76	477.4305	9.113729	-12.61222	1	15.56047	-54.14772	-3.179616E-006	0.0006682	10
	29	78	376.6741	9.55993	-15.69412	1	18.37655	-58.65271	-2.3021E-006	0.0006613	10
	30	81	298.2954	10.11414	-19.45216	1	21.92447	-62.52784	-3.05297E-006	0.0006663	10
	31	83	237.7717	10.79579	-23.95602	1	26.27623	-65.74127	-3.247473E-006	0.0006621	10
	32	86	189.0121	11.66954	-29.57638	1	31.79529	-68.46799	-2.663093E-006	0.0006644	10
	33	88	150.2404	12.78163	-36.49536	1	38.66887	-70.6984	-2.189242E-006	0.0006651	10
	34	90	119.1737	14.2084	-45.05045	1	47.23793	-72.49532	1.362158E-006	6.515178E-005	9
	35	93	95.0169	16.03083	-55.37202	1	57.64588	-73.85367	1.260045E-006	6.540454E-005	9
	36	95	75.60484	18.41311	-68.12222	1	70.56685	-74.87466	1.263254E-006	6.407978E-005	9
	37	98	54.50582	23.09032	-91.41393	1	94.28504	-75.82413	1.198496E-006	5.812069E-005	9
	38	100	45.95588	26.30501	-106.44	1	109.6423	-76.11838	1.231774E-006	6.792357E-005	9
	39	103	37.20238	31.18673	-128.2935	1	132.0297	-76.33704	1.274078E-006	6.247623E-005	9
	40	105	30.04808	37.29182	-154.646	1	159.0788	-76.44235	1.242177E-006	6.677632E-005	9
	41	107	23.91582	45.40107	-188.4721	1	193.8633	-76.45605	1.157563E-006	6.85404E-005	9
	42	110	18.60119	56.40814	-233.8169	1	240.5249	-76.43661	1.266851E-006	6.330624E-005	9
	43	112	15.02404	67.83966	-280.4975	1	288.5846	-76.40382	1.382594E-006	7.118381E-005	9
	44	114	12.01923	82.07854	-339.0241	1	348.8183	-76.39042	1.458682E-006	6.048068E-005	9
	45	117	9.450605	100.2516	-415.6175	1	427.5375	-76.43867	1.356898E-006	5.899993E-005	9
	46	119	7.512019	120.0541	-502.8548	1	516.9874	-76.57227	6.895367E-007	0.0006294	8
	47	122	5.978954	143.8428	-610.1485	1	626.8748	-76.73471	7.283411E-007	0.0006445	8
	48	125	4.734848	172.6218	-745.027	1	764.7637	-76.95483	6.958888E-007	0.000656	8
	49	128	3.75601	205.8288	-909.127	1	932.1359	-77.24314	6.896225E-007	0.0006381	8
	50	132	3.004808	243.661	-1102.74	1	1129.339	-77.54015	6.767797E-007	0.0006831	8
	51	135	2.372217	292.4652	-1356.679	1	1387.845	-77.83467	6.826435E-007	0.0007154	8
	52	140	1.878005	350.6488	-1665.719	1	1702.226	-78.1123	6.569812E-007	0.0006161	8
	53	144	1.512097	418.258	-2012.477	1	2055.481	-78.25922	7.060058E-007	0.0006747	8
	54	150	1.201923	505.1162	-2474.885	1	2525.906	-78.46455	6.638297E-007	0.0006065	8
	55	156	0.956633	615.0065	-3032.199	1	3093.94	-78.5345	6.558269E-007	-3.370033E-006	8
