EXPLAIN
TAG	EISPOT
TITLE	LABEL	Potentiostatic EIS	Test Identifier
DATE	LABEL	9/13/2020	Date
TIME	LABEL	22:31:57	Time
NOTES	NOTES	1	Notes...
	
PSTAT	PSTAT	REF3000-16137	Potentiostat
VDC	POTEN	0.00000E+000	T	DC Voltage (V)
FREQINIT	QUANT	3.00000E+005	Initial Freq. (Hz)
FREQFINAL	QUANT	1.00000E+000	Final Freq. (Hz)
PTSPERDEC	QUANT	1.00000E+001	Points/decade
VAC	QUANT	5.00000E+001	AC Voltage (mV rms)
AREA	QUANT	1.00000E+000	Sample Area (cm^2)
SPEED	SELECTOR	2	Optimize for:
ZGUESS	QUANT	1.00000E+003	Estimated Z (ohms)
EOC	QUANT	0	Open Circuit (V)
SEQUENCER	TOGGLE	TRUE	Run as Sequence
PSTATMODEL	IQUANT	5	Pstat Model
PSTATSECTION	LABEL	REF3000-16137	Pstat Section
PSTATSERIALNO	LABEL	16137	Pstat Serial Number
CTRLMODE	IQUANT	1	Control Mode
IESTAB	IQUANT	0	I/E Stability
CASPEED	IQUANT	1	Control Amp Speed
CONVENTION	IQUANT	1	Current Convention
ICHRANGE	IQUANT	2	Ich Range
ICHRANGEMODE	TOGGLE	F	Ich Auto Range
ICHOFFSETENABLE	TOGGLE	T	Ich Offset Enable
ICHOFFSET	QUANT	0	Ich Offset (V)
ICHFILTER	IQUANT	3	Ich Filter
VCHRANGE	IQUANT	2	Vch Range
VCHRANGEMODE	TOGGLE	F	Vch Auto Range
VCHOFFSETENABLE	TOGGLE	T	Vch Offset Enable
VCHOFFSET	QUANT	0	Vch Offset (V)
VCHFILTER	IQUANT	3	Vch Filter
ACHRANGE	IQUANT	2	Ach Range
ACHOFFSETENABLE	TOGGLE	F	Ach Offset Enable
ACHOFFSET	QUANT	0	Ach Offset (V)
ACHFILTER	IQUANT	3	Ach Filter
IERANGELOWERLIMIT	IQUANT	2	I/E Range Lower Limit
IERANGEMODE	TOGGLE	F	I/E AutoRange
IERANGE	IQUANT	11	I/E Range
POSFEEDENABLE	TOGGLE	F	Positive Feedback IR Comp
POSFEEDRESISTANCE	QUANT	0	Positive Feedback Resistance (ohm)
ACHSELECT	IQUANT	0	Ach Select
CABLEID	IQUANT	13	Cable ID
DCCALDATE	LABEL	7/31/2020	DC Calibration Date
ACCALDATE	LABEL	7/31/2020	AC Calibration Date
THERMOSELECT	IQUANT	1	Thermo Select
FRAMEWORKVERSION	QUANT	6.33	Framework Version
INSTRUMENTVERSION	LABEL	3.50	Instrument Version
COMPLIANCEVOLTAGE	IQUANT	0	Compliance Voltage
ZCURVE	TABLE
	Pt	Time	Freq	Zreal	Zimag	Zsig	Zmod	Zphz	Idc	Vdc	IERange
	#	s	Hz	ohm	ohm	V	ohm	°	A	V	#
	0	18	300046.9	1087.216	-3681.421	1	3838.606	-73.54681	2.035175E-005	-0.0004925	9
	1	34	238359.4	1526.752	-4391.548	1	4649.373	-70.82964	2.781675E-005	-0.0020847	9
	2	47	189328.1	2120.776	-5292.316	1	5701.429	-68.16267	2.801977E-005	-0.0019949	9
	3	55	150421.9	2895.457	-6127.66	1	6777.307	-64.70821	5.014015E-005	0.0002242	9
	4	62	119484.4	4135.093	-7075.478	1	8195.204	-59.69688	5.349499E-006	0.0145196	8
	5	71	94921.88	5375.187	-8160.92	1	9772.06	-56.62912	-1.142293E-005	0.0100438	8
	6	79	75421.88	7080.992	-9318.129	1	11703.33	-52.76823	-2.047683E-005	0.002934	8
	7	87	59859.37	8983.993	-10343.2	1	13700.14	-49.02275	-2.04447E-005	0.0029252	8
	8	95	47578.12	11150.62	-11160.07	1	15776.04	-45.02428	2.313471E-005	-0.0028872	8
	9	104	37828.12	13433.67	-11842.13	1	17908.09	-41.39701	-1.143608E-005	0.0099938	8
	10	112	30046.88	17502.91	-10641.63	1	20484.04	-31.29926	-3.09545E-006	-0.0051356	7
	11	118	23859.38	19850.91	-10244.73	1	22338.6	-27.29752	5.084379E-006	-0.025569	7
	12	122	18984.38	22024.98	-9626.79	1	24036.95	-23.60942	6.125998E-006	-0.0089422	7
	13	126	15046.87	23577.45	-9945	1	25589.04	-22.87008	-2.581083E-005	0.0075649	8
	14	133	11953.13	25075.92	-8988.634	1	26638.27	-19.72056	-1.873909E-005	0.0109726	8
	15	139	9515.62	27530.19	-8051.585	1	28683.44	-16.30229	2.696804E-005	-0.0074196	8
	16	146	7546.875	29573.42	-7483.881	1	30505.67	-14.20119	-2.084732E-006	0.0075399	8
	17	153	5928.309	31632.8	-5596.6	1	32124.08	-10.03317	2.578363E-005	-0.0051525	8
	18	160	4733.456	32048.18	-6110.734	1	32625.56	-10.7952	-9.617678E-006	-0.0020044	8
	19	166	3796.875	33861.28	-4369.229	1	34142	-7.352433	6.315393E-006	-0.0101389	7
	20	172	2987.132	34843.82	-3973.446	1	35069.65	-6.505672	3.754106E-007	0.0157293	7
	21	177	2390.625	35463.53	-3284.956	1	35615.35	-5.292156	-4.793559E-006	0.0026522	7
	22	182	1884.191	36051.88	-3351.962	1	36207.37	-5.311865	-9.616464E-006	-0.0020018	8
	23	189	1516.544	38444.33	-2416.502	1	38520.2	-3.596719	-5.112233E-006	0.003493	7
	24	194	1193.986	39745.31	-2833.325	1	39846.17	-4.077549	-9.179503E-007	-0.0130842	7
	25	200	946.5144	40939.01	-643.6381	1	40944.07	-0.9007231	-6.347785E-006	0.0117847	7
	26	203	751.7689	39603.69	-978.404	1	39615.77	-1.415197	-2.605088E-005	0.0077552	8
	27	208	597.4265	52105.39	-4795.18	1	52325.57	-5.258033	-1.073893E-005	0.0097715	8
	28	213	477.4305	43941.04	-1123.829	1	43955.41	-1.465068	-1.025883E-007	0.0006911	7
	29	216	376.6741	44600.91	-437.3689	1	44603.05	-0.5618402	-1.321444E-008	0.0006192	6
	30	219	298.2954	45118.27	-371.6938	1	45119.8	-0.472004	-1.328836E-008	0.000609	6
	31	221	237.7717	45718.8	-352.6255	1	45720.16	-0.4419091	-1.543521E-008	0.0007407	6
	32	223	189.0121	46271.77	-328.9007	1	46272.93	-0.4072528	-1.359991E-008	0.0006873	6
	33	226	150.2404	46882.52	-317.3864	1	46883.6	-0.3878764	-1.497271E-008	0.0006878	6
	34	228	119.1737	47507.31	-389.0797	1	47508.91	-0.4692356	-1.282852E-008	0.0007085	6
	35	231	95.0169	48062.61	-312.6258	1	48063.63	-0.3726782	-1.302229E-008	0.0006055	6
	36	233	75.60484	48704.91	-331.4747	1	48706.04	-0.3899362	-1.568617E-008	0.0006356	6
	37	236	54.50582	49284.88	-316.3673	1	49285.89	-0.3677855	-1.545896E-008	0.0006263	6
	38	238	45.95588	49999.25	-399.4422	1	50000.84	-0.4577242	-1.431162E-008	0.0007427	6
	39	241	37.20238	50853.18	-440.4407	1	50855.09	-0.4962278	-1.246434E-008	0.0006151	6
	40	244	30.04808	51446.39	-493.3788	1	51448.75	-0.5494585	-1.016115E-008	0.0006375	6
	41	246	23.91582	52167.3	-593.6177	1	52170.68	-0.651947	-7.419937E-009	0.0006946	6
	42	249	18.60119	52736.38	-643.4386	1	52740.3	-0.6990334	-1.643455E-008	0.0006248	6
	43	251	15.02404	53435.97	-830.4079	1	53442.42	-0.8903186	-2.414768E-008	0.0006557	6
	44	253	12.01923	54072.32	-980.223	1	54081.2	-1.038544	-1.618555E-009	0.0006826	6
	45	256	9.450605	54854.78	-1242.612	1	54868.86	-1.297685	-1.761131E-008	0.0006989	6
	46	258	7.512019	55557.18	-1490.991	1	55577.18	-1.537281	-9.507565E-009	0.0006805	6
	47	261	5.978954	56431.83	-1851.478	1	56462.2	-1.879149	2.861253E-009	0.0006218	6
	48	264	4.734848	57425.77	-2260.467	1	57470.25	-2.254186	-2.667238E-009	0.0006393	6
	49	267	3.75601	58543.23	-2789.603	1	58609.66	-2.728098	-9.703949E-009	0.0006592	6
	50	271	3.004808	59773.73	-3513.373	1	59876.89	-3.363854	-3.370819E-008	0.0006795	6
	51	274	2.372217	61075.98	-4195.748	1	61219.93	-3.929884	-1.306511E-008	0.0007303	6
	52	278	1.878005	62662.32	-5306.67	1	62886.62	-4.840645	-2.380863E-008	0.0006355	6
	53	283	1.512097	64609.46	-6504.229	1	64936.02	-5.748594	-2.979785E-008	0.0007063	6
	54	289	1.201923	66659.41	-7971.395	1	67134.34	-6.819273	-1.495921E-008	0.0006258	6
	55	295	0.956633	69496.09	-9804.37	1	70184.27	-8.030182	-3.340293E-008	2.048095E-005	6
