EXPLAIN
TAG	EISPOT
TITLE	LABEL	Potentiostatic EIS	Test Identifier
DATE	LABEL	9/13/2020	Date
TIME	LABEL	20:56:43	Time
NOTES	NOTES	1	Notes...
	
PSTAT	PSTAT	REF3000-16137	Potentiostat
VDC	POTEN	0.00000E+000	T	DC Voltage (V)
FREQINIT	QUANT	3.00000E+005	Initial Freq. (Hz)
FREQFINAL	QUANT	1.00000E+000	Final Freq. (Hz)
PTSPERDEC	QUANT	1.00000E+001	Points/decade
VAC	QUANT	5.00000E+001	AC Voltage (mV rms)
AREA	QUANT	1.00000E+000	Sample Area (cm^2)
SPEED	SELECTOR	2	Optimize for:
ZGUESS	QUANT	1.00000E+003	Estimated Z (ohms)
EOC	QUANT	0	Open Circuit (V)
SEQUENCER	TOGGLE	TRUE	Run as Sequence
PSTATMODEL	IQUANT	5	Pstat Model
PSTATSECTION	LABEL	REF3000-16137	Pstat Section
PSTATSERIALNO	LABEL	16137	Pstat Serial Number
CTRLMODE	IQUANT	1	Control Mode
IESTAB	IQUANT	0	I/E Stability
CASPEED	IQUANT	1	Control Amp Speed
CONVENTION	IQUANT	1	Current Convention
ICHRANGE	IQUANT	2	Ich Range
ICHRANGEMODE	TOGGLE	F	Ich Auto Range
ICHOFFSETENABLE	TOGGLE	T	Ich Offset Enable
ICHOFFSET	QUANT	0	Ich Offset (V)
ICHFILTER	IQUANT	3	Ich Filter
VCHRANGE	IQUANT	2	Vch Range
VCHRANGEMODE	TOGGLE	F	Vch Auto Range
VCHOFFSETENABLE	TOGGLE	T	Vch Offset Enable
VCHOFFSET	QUANT	0	Vch Offset (V)
VCHFILTER	IQUANT	3	Vch Filter
ACHRANGE	IQUANT	2	Ach Range
ACHOFFSETENABLE	TOGGLE	F	Ach Offset Enable
ACHOFFSET	QUANT	0	Ach Offset (V)
ACHFILTER	IQUANT	3	Ach Filter
IERANGELOWERLIMIT	IQUANT	2	I/E Range Lower Limit
IERANGEMODE	TOGGLE	F	I/E AutoRange
IERANGE	IQUANT	11	I/E Range
POSFEEDENABLE	TOGGLE	F	Positive Feedback IR Comp
POSFEEDRESISTANCE	QUANT	0	Positive Feedback Resistance (ohm)
ACHSELECT	IQUANT	0	Ach Select
CABLEID	IQUANT	13	Cable ID
DCCALDATE	LABEL	7/31/2020	DC Calibration Date
ACCALDATE	LABEL	7/31/2020	AC Calibration Date
THERMOSELECT	IQUANT	1	Thermo Select
FRAMEWORKVERSION	QUANT	6.33	Framework Version
INSTRUMENTVERSION	LABEL	3.50	Instrument Version
COMPLIANCEVOLTAGE	IQUANT	0	Compliance Voltage
ZCURVE	TABLE
	Pt	Time	Freq	Zreal	Zimag	Zsig	Zmod	Zphz	Idc	Vdc	IERange
	#	s	Hz	ohm	ohm	V	ohm	°	A	V	#
	0	10	300046.9	2.605351	2.228311	1	3.428297	40.53979	7.608574E-005	-0.0002807	11
	1	13	238359.4	2.557369	1.773951	1	3.112401	34.7476	4.952849E-006	-0.0000953	11
	2	16	189328.1	2.522448	1.406519	1	2.888086	29.14407	5.824585E-006	0.0001348	11
	3	19	150421.9	2.506285	1.105954	1	2.739452	23.81054	-5.833557E-006	0.000337	11
	4	21	119484.4	2.528342	0.7504913	1	2.637376	16.53254	-8.247217E-005	0.0004349	12
	5	25	94921.88	2.492226	0.660175	1	2.578182	14.83653	9.850642E-006	0.0005396	11
	6	27	75421.88	2.49941	0.4228046	1	2.534919	9.60136	-3.254762E-005	0.0005219	12
	7	31	59859.37	2.490749	0.351295	1	2.5154	8.028039	-3.304988E-005	0.0006023	11
	8	33	47578.12	2.491523	0.2294861	1	2.502069	5.262479	-5.092103E-005	0.0005908	11
	9	36	37828.12	2.495343	0.1207722	1	2.498264	2.770897	-1.792334E-005	0.0006529	11
	10	38	30046.88	2.499501	0.018684	1	2.499571	0.4282827	4.325988E-006	0.0006686	11
	11	41	23859.38	2.505944	-0.0809373	1	2.507251	-1.849903	-3.509889E-005	0.0006603	11
	12	43	18984.38	2.51261	-0.1825512	1	2.519233	-4.155468	1.100054E-005	0.000683	11
	13	46	15046.87	2.522648	-0.2936869	1	2.539686	-6.640486	-3.286306E-005	0.0007502	11
	14	48	11953.13	2.533987	-0.4171193	1	2.568088	-9.347626	-2.096255E-005	0.0006852	11
	15	50	9515.62	2.548496	-0.5580035	1	2.60887	-12.35024	-2.863689E-005	0.0006862	11
	16	52	7546.875	2.565868	-0.7265847	1	2.666759	-15.81069	-1.257648E-005	0.0006577	11
	17	55	5928.309	2.59094	-0.9387177	1	2.75575	-19.91585	-3.681282E-005	0.0007354	11
	18	57	4733.456	2.620103	-1.178417	1	2.872909	-24.2163	-3.443402E-005	0.0006732	11
	19	59	3796.875	2.656493	-1.4622	1	3.032323	-28.82949	-9.752495E-006	0.0006824	11
	20	62	2987.132	2.705298	-1.841973	1	3.272843	-34.25002	3.682392E-006	0.0006797	11
	21	64	2390.625	2.763583	-2.275236	1	3.579678	-39.46436	2.520715E-005	0.000717	11
	22	66	1884.191	2.846585	-2.844821	1	4.024432	-44.98225	-1.240608E-005	0.0006776	10
	23	69	1516.544	2.939667	-3.481034	1	4.556231	-49.81955	-2.240998E-005	0.0006782	10
	24	71	1193.986	3.070709	-4.341443	1	5.317647	-54.72818	2.23634E-005	0.0006396	10
	25	73	946.5144	3.232846	-5.379204	1	6.275916	-58.99457	2.006857E-005	0.0006431	10
	26	76	751.7689	3.445005	-6.642214	1	7.48245	-62.58634	-2.324098E-005	0.0006692	10
	27	78	597.4265	3.717715	-8.193068	1	8.997097	-65.59319	1.589149E-005	0.0006503	10
	28	80	477.4305	4.063446	-10.03847	1	10.8297	-67.96252	2.49813E-007	0.0006613	10
	29	83	376.6741	4.539699	-12.4296	1	13.23268	-69.93614	6.144603E-008	0.0006599	10
	30	85	298.2954	5.152302	-15.31099	1	16.15464	-71.40139	4.537815E-007	0.0006638	10
	31	87	237.7717	5.919245	-18.70958	1	19.62361	-72.44393	-5.154897E-007	0.0006571	10
	32	90	189.0121	6.90425	-22.86688	1	23.88646	-73.19923	-8.694563E-007	0.0006633	10
	33	92	150.2404	8.139715	-27.88448	1	29.04822	-73.72703	-5.339556E-007	0.0006604	10
	34	94	119.1737	9.67389	-33.98998	1	35.33982	-74.11311	3.394722E-008	0.0006662	10
	35	97	95.0169	11.47132	-41.13057	1	42.70029	-74.41621	2.642127E-006	6.111879E-005	9
	36	99	75.60484	13.64762	-49.87439	1	51.70795	-74.69623	2.49573E-006	5.93687E-005	9
	37	102	54.50582	17.46539	-65.68793	1	67.97017	-75.11044	2.281028E-006	6.009342E-005	9
	38	104	45.95588	19.85392	-75.87676	1	78.43125	-75.33672	2.846171E-006	6.899369E-005	9
	39	107	37.20238	23.22037	-90.7253	1	93.64969	-75.64381	2.344889E-006	0.0001211	9
	40	109	30.04808	27.20638	-108.8196	1	112.169	-75.96302	2.500931E-006	6.005751E-005	9
	41	112	23.91582	32.2154	-132.2817	1	136.148	-76.31284	2.342309E-006	5.360338E-005	9
	42	115	18.60119	38.9195	-164.348	1	168.8934	-76.67712	2.603461E-006	6.127504E-005	9
	43	117	15.02404	45.80604	-197.8578	1	203.0909	-76.9651	2.652676E-006	6.041592E-005	9
	44	119	12.01923	54.52426	-240.4985	1	246.6017	-77.2262	2.483678E-006	5.844951E-005	9
	45	122	9.450605	66.34556	-297.2993	1	304.6123	-77.41996	2.553102E-006	7.152861E-005	9
	46	124	7.512019	80.6595	-364.1465	1	372.9727	-77.51048	2.759598E-006	8.004456E-005	9
	47	127	5.978954	98.7702	-443.5818	1	454.4452	-77.44701	1.98187E-006	0.0006435	8
	48	130	4.734848	123.5376	-545.7662	1	559.5734	-77.24567	2.076445E-006	0.0006345	8
	49	133	3.75601	155.9656	-669.7419	1	687.6623	-76.89093	2.044595E-006	0.0006459	8
	50	137	3.004808	197.5195	-814.8831	1	838.4799	-76.37486	2.06258E-006	0.0006203	8
	51	140	2.372217	259.1595	-1002.266	1	1035.23	-75.50236	1.992759E-006	0.0005682	8
	52	145	1.878005	340.908	-1228.538	1	1274.96	-74.49116	2.080817E-006	0.0006321	8
	53	149	1.512097	443.7762	-1474.426	1	1539.763	-73.24913	2.008808E-006	0.0006454	8
	54	155	1.201923	598.9703	-1788.41	1	1886.047	-71.48338	2.023905E-006	0.0007041	8
	55	161	0.956633	807.6617	-2143.415	1	2290.533	-69.35305	1.902418E-006	-1.219842E-005	8
