EXPLAIN
TAG	EISPOT
TITLE	LABEL	Potentiostatic EIS	Test Identifier
DATE	LABEL	2/24/2021	Date
TIME	LABEL	13:41:36	Time
NOTES	NOTES	1	Notes...
	
PSTAT	PSTAT	REF3000-16137	Potentiostat
VDC	POTEN	0.00000E+000	T	DC Voltage (V)
FREQINIT	QUANT	3.00000E+005	Initial Freq. (Hz)
FREQFINAL	QUANT	1.00000E+000	Final Freq. (Hz)
PTSPERDEC	QUANT	1.00000E+001	Points/decade
VAC	QUANT	5.00000E+001	AC Voltage (mV rms)
AREA	QUANT	1.00000E+000	Sample Area (cm^2)
SPEED	SELECTOR	2	Optimize for:
ZGUESS	QUANT	1.00000E+003	Estimated Z (ohms)
EOC	QUANT	0	Open Circuit (V)
SEQUENCER	TOGGLE	TRUE	Run as Sequence
PSTATMODEL	IQUANT	5	Pstat Model
PSTATSECTION	LABEL	REF3000-16137	Pstat Section
PSTATSERIALNO	LABEL	16137	Pstat Serial Number
CTRLMODE	IQUANT	1	Control Mode
IESTAB	IQUANT	0	I/E Stability
CASPEED	IQUANT	1	Control Amp Speed
CONVENTION	IQUANT	1	Current Convention
ICHRANGE	IQUANT	2	Ich Range
ICHRANGEMODE	TOGGLE	F	Ich Auto Range
ICHOFFSETENABLE	TOGGLE	T	Ich Offset Enable
ICHOFFSET	QUANT	0	Ich Offset (V)
ICHFILTER	IQUANT	3	Ich Filter
VCHRANGE	IQUANT	2	Vch Range
VCHRANGEMODE	TOGGLE	F	Vch Auto Range
VCHOFFSETENABLE	TOGGLE	T	Vch Offset Enable
VCHOFFSET	QUANT	0	Vch Offset (V)
VCHFILTER	IQUANT	3	Vch Filter
ACHRANGE	IQUANT	2	Ach Range
ACHOFFSETENABLE	TOGGLE	F	Ach Offset Enable
ACHOFFSET	QUANT	0	Ach Offset (V)
ACHFILTER	IQUANT	3	Ach Filter
IERANGELOWERLIMIT	IQUANT	2	I/E Range Lower Limit
IERANGEMODE	TOGGLE	F	I/E AutoRange
IERANGE	IQUANT	11	I/E Range
POSFEEDENABLE	TOGGLE	F	Positive Feedback IR Comp
POSFEEDRESISTANCE	QUANT	0	Positive Feedback Resistance (ohm)
ACHSELECT	IQUANT	0	Ach Select
CABLEID	IQUANT	13	Cable ID
DCCALDATE	LABEL	7/31/2020	DC Calibration Date
ACCALDATE	LABEL	7/31/2020	AC Calibration Date
THERMOSELECT	IQUANT	1	Thermo Select
FRAMEWORKVERSION	QUANT	6.33	Framework Version
INSTRUMENTVERSION	LABEL	3.50	Instrument Version
COMPLIANCEVOLTAGE	IQUANT	0	Compliance Voltage
ZCURVE	TABLE
	Pt	Time	Freq	Zreal	Zimag	Zsig	Zmod	Zphz	Idc	Vdc	IERange
	#	s	Hz	ohm	ohm	V	ohm	°	A	V	#
	0	15	300046.9	116.2533	-4105.341	1	4106.986	-88.37795	8.072319E-005	-0.001805	9
	1	37	238359.4	218.4394	-5053.462	1	5058.181	-87.52489	2.21048E-005	0.000978	9
	2	51	189328.1	241.0226	-6346.175	1	6350.75	-87.825	7.826688E-005	-0.0016004	9
	3	61	150421.9	-46.40207	-7870.384	1	7870.521	-90.3378	8.777055E-005	-0.0024121	9
	4	69	119484.4	571.6891	-9714.81	1	9731.62	-86.63219	1.870747E-005	-0.0007572	9
	5	77	94921.88	955.262	-12384.08	1	12420.87	-85.58915	7.690502E-006	-0.007441	8
	6	86	75421.88	1674.646	-15179.47	1	15271.56	-83.70441	8.737519E-006	0.0039562	8
	7	94	59859.37	1660.005	-19022.5	1	19094.79	-85.0127	2.233511E-005	-0.0096419	8
	8	103	47578.12	5244.287	-24849.93	1	25397.27	-78.08325	-7.136267E-006	0.0187725	7
	9	110	37828.12	5722.353	-30295.26	1	30830.96	-79.30364	-5.342698E-006	0.0043825	7
	10	118	30046.88	6997.128	-37501.09	1	38148.29	-79.43102	-7.206444E-006	0.0189723	7
	11	125	23859.38	8359.494	-46487.86	1	47233.48	-79.80596	6.643785E-006	-0.026462	7
	12	131	18984.38	11056.24	-57381.59	1	58437.04	-79.09395	-6.470561E-006	0.0119799	7
	13	136	15046.87	12857.36	-73031.77	1	74154.91	-80.0153	3.319044E-006	-0.0233482	7
	14	141	11953.13	12666.65	-88051.73	1	88958.15	-81.8139	1.605681E-005	-0.0091311	8
	15	149	9515.62	21426.56	-108618.5	1	110711.6	-78.84086	3.328082E-006	-0.0237194	7
	16	155	7546.875	29592.26	-135761.1	1	138948.8	-77.7034	-6.617596E-006	0.0123685	7
	17	161	5928.309	55475.2	-179764.9	1	188130	-72.84985	6.500509E-006	-0.0102936	7
	18	166	4733.456	50258	-197498.1	1	203792.5	-75.72279	2.870535E-006	0.0075972	7
	19	172	3796.875	73078.61	-251152.5	1	261568.5	-73.77643	-5.265824E-006	0.0041356	7
	20	179	2987.132	81281.24	-305568.1	1	316193.8	-75.10423	6.514242E-006	-0.0104039	7
	21	185	2390.625	83004.98	-433099.5	1	440981.9	-79.15063	6.594304E-006	-0.0261474	7
	22	192	1884.191	131455.6	-618785.6	1	632594.8	-78.00632	5.148756E-006	-0.0260246	7
	23	198	1516.544	192505.2	-455500.9	1	494509.2	-67.08997	5.150604E-006	-0.0260129	7
	24	206	1193.986	497711.2	-735584.7	1	888144.8	-55.91694	4.916496E-006	-0.0012677	7
	25	214	946.5144	1294539	-535210.3	1	1400814	-22.46202	-3.480986E-006	0.0245682	7
	26	219	751.7689	607472.8	-881198.6	1	1070296	-55.41874	-6.622784E-006	0.0123703	7
	27	225	597.4265	-59005.52	-222017.3	1	229724.4	-104.8834	2.624178E-005	-0.0089776	8
	28	232	477.4305	933196.8	-986247	1	1357770	-46.58317	-2.467399E-007	0.0006739	8
	29	238	376.6741	1320209	-915423.4	1	1606534	-34.73716	-8.85354E-010	0.0006866	5
	30	242	298.2954	1516154	-905977.4	1	1766215	-30.86042	-8.403344E-010	0.0007006	5
	31	244	237.7717	1703405	-883159.7	1	1918739	-27.40526	-7.760846E-010	0.0006089	5
	32	247	189.0121	1881209	-841331.3	1	2060773	-24.09558	-8.891038E-010	0.0006955	5
	33	250	150.2404	2039582	-791925.4	1	2187931	-21.22011	-7.751416E-010	0.0006258	5
	34	253	119.1737	2206408	-656177.4	1	2301913	-16.56228	-6.684577E-010	0.0006754	5
	35	255	95.0169	2330485	-644137.5	1	2417866	-15.4506	-8.272117E-010	0.000678	5
	36	258	75.60484	2453365	-602072	1	2526162	-13.78828	-6.368242E-009	0.0006234	6
	37	262	54.50582	2641071	-513736	1	2690573	-11.00761	-7.409521E-009	0.0007083	6
	38	267	45.95588	2732493	-472687.1	1	2773076	-9.81433	-6.603228E-009	0.0006446	6
	39	270	37.20238	2901823	-419068.1	1	2931926	-8.217583	-6.951523E-009	0.0006269	6
	40	274	30.04808	2988690	-408376.1	1	3016461	-7.780738	-7.424526E-009	0.0007182	6
	41	278	23.91582	3146583	-322911.7	1	3163108	-5.859352	-8.69444E-010	0.0006052	5
	42	282	18.60119	3187262	-227061.1	1	3195340	-4.074876	-6.731756E-009	0.0006443	6
	43	286	15.02404	3325047	-259009.6	1	3335119	-4.454149	-6.893668E-009	0.0006859	6
	44	289	12.01923	3442834	-208087.1	1	3449117	-3.458786	-7.501968E-009	0.0007206	6
	45	293	9.450605	3552477	-205238.9	1	3558400	-3.306501	-6.825049E-009	0.0006918	6
	46	297	7.512019	3693228	-180483	1	3697635	-2.797742	-6.818061E-009	0.0006671	6
	47	301	5.978954	3831834	-158702.6	1	3835119	-2.371658	-7.963325E-010	0.0007052	5
	48	307	4.734848	4025213	-134105.9	1	4027446	-1.908187	-7.193319E-010	0.0006263	5
	49	313	3.75601	4245563	-126697.9	1	4247453	-1.709338	-7.290947E-010	0.000701	5
	50	320	3.004808	4507203	-130423.1	1	4509089	-1.657483	-6.670817E-010	0.0006108	5
	51	328	2.372217	4718610	-69670.13	1	4719124	-0.8459091	-7.601305E-011	0.0007031	4
	52	332	1.878005	4893909	-68232.05	1	4894384	-0.7987797	-1.000334E-010	0.0006527	4
	53	337	1.512097	5100184	-66287.35	1	5100615	-0.7446343	-1.068961E-010	0.0006049	4
	54	342	1.201923	5343545	-67667.62	1	5343974	-0.7255223	-9.345164E-011	0.0006487	4
	55	349	0.956633	5629493	-70835.59	1	5629938	-0.7209116	-2.042365E-010	1.70974E-005	4
