EXPLAIN
TAG	EISPOT
TITLE	LABEL	Potentiostatic EIS	Test Identifier
DATE	LABEL	2/24/2021	Date
TIME	LABEL	13:12:22	Time
NOTES	NOTES	1	Notes...
	
PSTAT	PSTAT	REF3000-16137	Potentiostat
VDC	POTEN	0.00000E+000	T	DC Voltage (V)
FREQINIT	QUANT	3.00000E+005	Initial Freq. (Hz)
FREQFINAL	QUANT	1.00000E+000	Final Freq. (Hz)
PTSPERDEC	QUANT	1.00000E+001	Points/decade
VAC	QUANT	5.00000E+001	AC Voltage (mV rms)
AREA	QUANT	1.00000E+000	Sample Area (cm^2)
SPEED	SELECTOR	2	Optimize for:
ZGUESS	QUANT	1.00000E+003	Estimated Z (ohms)
EOC	QUANT	0	Open Circuit (V)
SEQUENCER	TOGGLE	TRUE	Run as Sequence
PSTATMODEL	IQUANT	5	Pstat Model
PSTATSECTION	LABEL	REF3000-16137	Pstat Section
PSTATSERIALNO	LABEL	16137	Pstat Serial Number
CTRLMODE	IQUANT	1	Control Mode
IESTAB	IQUANT	0	I/E Stability
CASPEED	IQUANT	1	Control Amp Speed
CONVENTION	IQUANT	1	Current Convention
ICHRANGE	IQUANT	2	Ich Range
ICHRANGEMODE	TOGGLE	F	Ich Auto Range
ICHOFFSETENABLE	TOGGLE	T	Ich Offset Enable
ICHOFFSET	QUANT	0	Ich Offset (V)
ICHFILTER	IQUANT	3	Ich Filter
VCHRANGE	IQUANT	2	Vch Range
VCHRANGEMODE	TOGGLE	F	Vch Auto Range
VCHOFFSETENABLE	TOGGLE	T	Vch Offset Enable
VCHOFFSET	QUANT	0	Vch Offset (V)
VCHFILTER	IQUANT	3	Vch Filter
ACHRANGE	IQUANT	2	Ach Range
ACHOFFSETENABLE	TOGGLE	F	Ach Offset Enable
ACHOFFSET	QUANT	0	Ach Offset (V)
ACHFILTER	IQUANT	3	Ach Filter
IERANGELOWERLIMIT	IQUANT	2	I/E Range Lower Limit
IERANGEMODE	TOGGLE	F	I/E AutoRange
IERANGE	IQUANT	11	I/E Range
POSFEEDENABLE	TOGGLE	F	Positive Feedback IR Comp
POSFEEDRESISTANCE	QUANT	0	Positive Feedback Resistance (ohm)
ACHSELECT	IQUANT	0	Ach Select
CABLEID	IQUANT	13	Cable ID
DCCALDATE	LABEL	7/31/2020	DC Calibration Date
ACCALDATE	LABEL	7/31/2020	AC Calibration Date
THERMOSELECT	IQUANT	1	Thermo Select
FRAMEWORKVERSION	QUANT	6.33	Framework Version
INSTRUMENTVERSION	LABEL	3.50	Instrument Version
COMPLIANCEVOLTAGE	IQUANT	0	Compliance Voltage
ZCURVE	TABLE
	Pt	Time	Freq	Zreal	Zimag	Zsig	Zmod	Zphz	Idc	Vdc	IERange
	#	s	Hz	ohm	ohm	V	ohm	°	A	V	#
	0	9	300046.9	254.6775	-19.30508	1	255.4082	-4.334848	2.397014E-005	0.0005631	9
	1	13	238359.4	259.1449	-21.14758	1	260.0064	-4.665298	7.221498E-005	0.0004686	10
	2	18	189328.1	263.7773	-14.29141	1	264.1642	-3.101243	8.14106E-005	-0.0024073	9
	3	22	150421.9	268.5839	-11.22707	1	268.8185	-2.393625	-9.857517E-006	0.0015228	9
	4	27	119484.4	271.3768	-12.48482	1	271.6638	-2.634062	4.677301E-005	0.0008177	10
	5	30	94921.88	274.3796	-8.356172	1	274.5069	-1.744391	2.721958E-005	-0.0006089	9
	6	34	75421.88	277.8293	-6.853396	1	277.9138	-1.413066	-1.515037E-005	0.0001013	9
	7	38	59859.37	280.2052	-6.103023	1	280.2717	-1.247736	-1.359349E-006	-0.0003737	9
	8	41	47578.12	282.9719	-5.170559	1	283.0191	-1.046812	-1.76679E-005	0.0003124	9
	9	44	37828.12	286.2129	-4.333211	1	286.2457	-0.8673815	2.260121E-005	-0.0008523	9
	10	48	30046.88	288.8039	-3.817023	1	288.8291	-0.7572148	1.645458E-005	-0.0007882	9
	11	50	23859.38	290.4666	-3.193988	1	290.4842	-0.6300023	1.554892E-007	0.0006082	9
	12	53	18984.38	292.3584	-3.027367	1	292.3741	-0.5932757	2.298642E-005	-0.0008253	9
	13	55	15046.87	294.1839	-2.506865	1	294.1945	-0.4882297	1.649746E-005	-0.0008159	9
	14	57	11953.13	296.7384	-2.993428	1	296.7535	-0.5779669	-1.669456E-005	0.001053	9
	15	60	9515.62	298.8219	-2.920568	1	298.8362	-0.5599687	-3.002801E-006	-0.0004033	9
	16	62	7546.875	299.8108	-3.613332	1	299.8325	-0.6904976	-1.915249E-006	-0.0003682	9
	17	64	5928.309	302.431	-2.694685	1	302.443	-0.5104964	2.736201E-005	-0.0006165	9
	18	67	4733.456	304.9629	-3.610765	1	304.9843	-0.6783512	2.719584E-005	-0.0004537	9
	19	69	3796.875	307.6638	-3.924983	1	307.6888	-0.7309042	-8.441641E-006	0.0009356	9
	20	71	2987.132	308.8266	-4.003913	1	308.8525	-0.7427937	5.643395E-007	0.0006522	9
	21	74	2390.625	310.8668	-5.083842	1	310.9084	-0.936918	7.691158E-006	-0.0006168	9
	22	76	1884.191	313.7187	-5.622886	1	313.7691	-1.026822	2.445036E-005	-0.0002156	9
	23	78	1516.544	315.6057	-7.105923	1	315.6856	-1.289808	-2.339402E-005	0.0008686	9
	24	81	1193.986	317.8128	-9.273771	1	317.9481	-1.671415	2.295675E-005	-0.0008293	9
	25	83	946.5144	320.4959	-11.04289	1	320.6861	-1.973383	1.094106E-005	0.0002995	9
	26	86	751.7689	322.7057	-13.42035	1	322.9846	-2.381386	2.776829E-005	-0.0006246	9
	27	88	597.4265	325.409	-16.77169	1	325.8409	-2.950433	1.632164E-005	-0.0007779	9
	28	90	477.4305	327.6807	-20.53283	1	328.3234	-3.585528	1.207465E-006	8.271573E-005	9
	29	92	376.6741	330.3647	-25.54295	1	331.3506	-4.421167	1.25313E-006	8.552815E-005	9
	30	95	298.2954	333.181	-31.70733	1	334.6863	-5.436208	1.286391E-006	9.279371E-005	9
	31	97	237.7717	336.2339	-39.1632	1	338.507	-6.64365	1.335638E-006	8.689431E-005	9
	32	100	189.0121	339.5196	-48.53282	1	342.9708	-8.135067	1.342331E-006	8.743691E-005	9
	33	102	150.2404	343.0572	-60.16289	1	348.2927	-9.94697	1.321415E-006	8.477741E-005	9
	34	104	119.1737	346.9571	-74.74738	1	354.9174	-12.15781	1.373041E-006	8.507355E-005	9
	35	107	95.0169	349.8022	-92.00587	1	361.6997	-14.73631	4.415034E-008	0.0006539	8
	36	109	75.60484	354.7993	-113.961	1	372.6522	-17.80694	4.527831E-008	0.0006639	8
	37	112	54.50582	362.1804	-154.6779	1	393.8273	-23.12608	5.724969E-008	0.0006534	8
	38	114	45.95588	367.9276	-181.3487	1	410.1927	-26.23834	3.489652E-008	0.0006614	8
	39	117	37.20238	375.2784	-220.7024	1	435.3659	-30.45992	5.252357E-009	0.0006714	8
	40	119	30.04808	384.1133	-269.0334	1	468.9584	-35.00744	3.294205E-008	0.00066	8
	41	122	23.91582	395.0693	-332.1455	1	516.1398	-40.05468	8.71035E-008	0.0006579	8
	42	124	18.60119	409.334	-418.7091	1	585.5524	-45.64867	1.027744E-007	0.0006486	8
	43	126	15.02404	424.7276	-509.6531	1	663.4304	-50.19332	8.274944E-008	0.0006895	8
	44	128	12.01923	444.0341	-625.2701	1	766.8958	-54.61962	-4.227919E-008	0.0006644	8
	45	131	9.450605	469.3563	-779.631	1	910.0109	-58.95107	-2.382326E-009	0.0006704	8
	46	133	7.512019	499.7091	-961.348	1	1083.466	-62.53457	-7.488085E-009	0.0006678	8
	47	136	5.978954	536.8503	-1183.836	1	1299.876	-65.60649	-8.319851E-009	0.0006723	8
	48	139	4.734848	584.3639	-1465.417	1	1577.634	-68.25939	6.270566E-008	0.0006724	8
	49	142	3.75601	641.8828	-1808.257	1	1918.804	-70.4565	2.354043E-008	0.0006518	8
	50	146	3.004808	709.8652	-2212.653	1	2323.735	-72.21268	2.568643E-008	0.0006477	8
	51	150	2.372217	800.2226	-2737.417	1	2851.983	-73.7049	3.739538E-008	0.0006738	8
	52	154	1.878005	912.0234	-3392.213	1	3512.677	-74.95143	1.040493E-008	0.0006572	8
	53	159	1.512097	1033.57	-4134.65	1	4261.877	-75.96497	2.109184E-010	0.0005685	7
	54	164	1.201923	1204.215	-5103.609	1	5243.754	-76.72368	-2.1124E-008	0.0006281	7
	55	170	0.956633	1407.095	-6278.514	1	6434.256	-77.36801	-1.918118E-008	-5.525262E-006	7
