EXPLAIN
TAG	EISPOT
TITLE	LABEL	Potentiostatic EIS	Test Identifier
DATE	LABEL	2/24/2021	Date
TIME	LABEL	12:30:52	Time
NOTES	NOTES	1	Notes...
	
PSTAT	PSTAT	REF3000-16137	Potentiostat
VDC	POTEN	0.00000E+000	T	DC Voltage (V)
FREQINIT	QUANT	3.00000E+005	Initial Freq. (Hz)
FREQFINAL	QUANT	1.00000E+000	Final Freq. (Hz)
PTSPERDEC	QUANT	1.00000E+001	Points/decade
VAC	QUANT	5.00000E+001	AC Voltage (mV rms)
AREA	QUANT	1.00000E+000	Sample Area (cm^2)
SPEED	SELECTOR	2	Optimize for:
ZGUESS	QUANT	1.00000E+003	Estimated Z (ohms)
EOC	QUANT	0	Open Circuit (V)
SEQUENCER	TOGGLE	TRUE	Run as Sequence
PSTATMODEL	IQUANT	5	Pstat Model
PSTATSECTION	LABEL	REF3000-16137	Pstat Section
PSTATSERIALNO	LABEL	16137	Pstat Serial Number
CTRLMODE	IQUANT	1	Control Mode
IESTAB	IQUANT	0	I/E Stability
CASPEED	IQUANT	1	Control Amp Speed
CONVENTION	IQUANT	1	Current Convention
ICHRANGE	IQUANT	2	Ich Range
ICHRANGEMODE	TOGGLE	F	Ich Auto Range
ICHOFFSETENABLE	TOGGLE	T	Ich Offset Enable
ICHOFFSET	QUANT	0	Ich Offset (V)
ICHFILTER	IQUANT	3	Ich Filter
VCHRANGE	IQUANT	2	Vch Range
VCHRANGEMODE	TOGGLE	F	Vch Auto Range
VCHOFFSETENABLE	TOGGLE	T	Vch Offset Enable
VCHOFFSET	QUANT	0	Vch Offset (V)
VCHFILTER	IQUANT	3	Vch Filter
ACHRANGE	IQUANT	2	Ach Range
ACHOFFSETENABLE	TOGGLE	F	Ach Offset Enable
ACHOFFSET	QUANT	0	Ach Offset (V)
ACHFILTER	IQUANT	3	Ach Filter
IERANGELOWERLIMIT	IQUANT	2	I/E Range Lower Limit
IERANGEMODE	TOGGLE	F	I/E AutoRange
IERANGE	IQUANT	11	I/E Range
POSFEEDENABLE	TOGGLE	F	Positive Feedback IR Comp
POSFEEDRESISTANCE	QUANT	0	Positive Feedback Resistance (ohm)
ACHSELECT	IQUANT	0	Ach Select
CABLEID	IQUANT	13	Cable ID
DCCALDATE	LABEL	7/31/2020	DC Calibration Date
ACCALDATE	LABEL	7/31/2020	AC Calibration Date
THERMOSELECT	IQUANT	1	Thermo Select
FRAMEWORKVERSION	QUANT	6.33	Framework Version
INSTRUMENTVERSION	LABEL	3.50	Instrument Version
COMPLIANCEVOLTAGE	IQUANT	0	Compliance Voltage
ZCURVE	TABLE
	Pt	Time	Freq	Zreal	Zimag	Zsig	Zmod	Zphz	Idc	Vdc	IERange
	#	s	Hz	ohm	ohm	V	ohm	°	A	V	#
	0	10	300046.9	4.871308	2.235353	1	5.359705	24.64952	-9.455894E-005	0.0000979	10
	1	13	238359.4	4.856894	1.76949	1	5.169188	20.01797	-1.297961E-005	-0.0001881	10
	2	16	189328.1	4.85129	1.392681	1	5.047235	16.01742	-1.735193E-005	0.0001336	10
	3	19	150421.9	4.841383	1.094822	1	4.963631	12.74244	6.871591E-005	0.0001286	10
	4	21	119484.4	4.846675	0.84103	1	4.919105	9.84435	-3.079588E-005	0.0004099	10
	5	24	94921.88	4.856042	0.6542781	1	4.89992	7.673527	-1.217838E-005	0.0004891	10
	6	26	75421.88	4.861779	0.4774149	1	4.885163	5.608326	-2.459727E-005	0.0005328	10
	7	29	59859.37	4.87192	0.3261445	1	4.882824	3.829878	8.779464E-007	0.0006116	10
	8	31	47578.12	4.883618	0.1936539	1	4.887456	2.270804	-1.765996E-005	0.000651	10
	9	34	37828.12	4.896724	0.0722449	1	4.897257	0.8452653	2.259813E-005	0.0006392	10
	10	37	30046.88	4.911851	-0.0431338	1	4.912041	-0.5031343	-3.202095E-005	0.0006429	10
	11	39	23859.38	4.9292	-0.1584469	1	4.931746	-1.841113	-1.160543E-005	0.0006957	10
	12	41	18984.38	4.94584	-0.2781819	1	4.953658	-3.219245	-2.507618E-005	0.0006677	10
	13	44	15046.87	4.966743	-0.4119133	1	4.983795	-4.740935	-2.129837E-005	0.0007059	10
	14	46	11953.13	4.987784	-0.5638618	1	5.019555	-6.449822	1.247308E-005	0.0006516	10
	15	48	9515.62	5.013985	-0.7389818	1	5.06815	-8.38413	9.994421E-006	0.0006468	10
	16	51	7546.875	5.044578	-0.951671	1	5.133561	-10.68342	1.696806E-005	0.0006389	10
	17	53	5928.309	5.082709	-1.221772	1	5.227491	-13.51622	-5.261403E-006	0.0006594	10
	18	55	4733.456	5.125429	-1.52819	1	5.3484	-16.6024	3.389484E-006	0.0006823	10
	19	58	3796.875	5.177901	-1.892779	1	5.51301	-20.07986	-2.151398E-005	0.0007098	10
	20	60	2987.132	5.244225	-2.38049	1	5.759221	-24.41453	1.605874E-005	0.0006486	10
	21	62	2390.625	5.32254	-2.937871	1	6.079517	-28.89729	-2.000399E-005	0.0007194	10
	22	65	1884.191	5.423031	-3.672497	1	6.549542	-34.106	-2.676747E-005	0.0006921	10
	23	67	1516.544	5.536122	-4.495156	1	7.131274	-39.07551	-2.636361E-005	0.0006907	10
	24	69	1193.986	5.688779	-5.611601	1	7.990762	-44.60869	1.453419E-005	0.00068	10
	25	72	946.5144	5.871189	-6.959906	1	9.105556	-49.84992	1.033252E-005	0.0006451	10
	26	74	751.7689	6.104153	-8.607564	1	10.55229	-54.6572	1.437824E-005	0.0006779	10
	27	76	597.4265	6.394163	-10.6368	1	12.41076	-58.98842	2.178228E-005	0.0006635	10
	28	79	477.4305	6.73837	-13.06917	1	14.70404	-62.72469	-2.065973E-006	0.0006772	10
	29	81	376.6741	7.196834	-16.24338	1	17.76631	-66.10366	-2.233538E-006	0.0006782	10
	30	83	298.2954	7.760197	-20.11289	1	21.55804	-68.90179	-2.887171E-006	0.0006821	10
	31	86	237.7717	8.440981	-24.74919	1	26.14905	-71.1675	-2.529337E-006	0.0006804	10
	32	88	189.0121	9.296752	-30.53077	1	31.91485	-73.06429	-2.175729E-006	0.0006863	10
	33	90	150.2404	10.36139	-37.6527	1	39.05233	-74.61399	-2.381018E-006	0.0006857	10
	34	93	119.1737	11.69235	-46.47079	1	47.91915	-75.87716	1.330321E-006	8.423375E-005	9
	35	95	95.0169	13.34323	-57.14542	1	58.68254	-76.85714	1.267909E-006	7.896476E-005	9
	36	98	75.60484	15.44546	-70.39718	1	72.07166	-77.62513	1.239823E-006	8.062617E-005	9
	37	100	54.50582	19.49249	-94.8422	1	96.8246	-78.38599	1.025463E-006	7.870662E-005	9
	38	103	45.95588	22.26529	-110.795	1	113.0101	-78.63723	1.214121E-006	7.887635E-005	9
	39	105	37.20238	26.51341	-134.2052	1	136.7991	-78.82462	1.204941E-006	8.272008E-005	9
	40	108	30.04808	32.00226	-162.7979	1	165.9135	-78.87879	1.160608E-006	8.417207E-005	9
	41	110	23.91582	39.45144	-199.6874	1	203.5472	-78.82423	1.287865E-006	7.472795E-005	9
	42	112	18.60119	50.34289	-249.793	1	254.8156	-78.60534	1.498863E-006	7.607954E-005	9
	43	115	15.02404	62.20349	-301.5662	1	307.9147	-78.34516	1.561825E-006	0.000098	9
	44	117	12.01923	77.68093	-366.1151	1	374.2654	-78.02085	1.391877E-006	7.740757E-005	9
	45	119	9.450605	97.8984	-448.2124	1	458.7793	-77.67897	6.465484E-007	0.0006591	8
	46	122	7.512019	121.7083	-544.863	1	558.2908	-77.40831	7.001087E-007	0.0006704	8
	47	125	5.978954	150.0486	-660.4108	1	677.2422	-77.19943	6.728853E-007	0.0006585	8
	48	128	4.734848	183.5069	-804.5779	1	825.2396	-77.15184	7.515529E-007	0.0006704	8
	49	131	3.75601	222.1212	-977.946	1	1002.854	-77.20349	6.575114E-007	0.0006511	8
	50	134	3.004808	264.8296	-1181	1	1210.329	-77.36098	7.213192E-007	0.0006391	8
	51	138	2.372217	317.2635	-1442.74	1	1477.212	-77.59785	7.135632E-007	0.0006588	8
	52	142	1.878005	377.9144	-1767.763	1	1807.707	-77.93288	6.625111E-007	0.00066	8
	53	147	1.512097	439.2982	-2135.382	1	2180.101	-78.3751	6.755353E-007	0.0005574	8
	54	152	1.201923	517.5704	-2615.109	1	2665.835	-78.80496	6.633168E-007	0.0006718	8
	55	159	0.956633	605.4102	-3205.472	1	3262.142	-79.30466	6.690146E-007	1.365879E-005	8
