EXPLAIN
TAG	EISPOT
TITLE	LABEL	Potentiostatic EIS	Test Identifier
DATE	LABEL	2/24/2021	Date
TIME	LABEL	12:08:09	Time
NOTES	NOTES	1	Notes...
	
PSTAT	PSTAT	REF3000-16137	Potentiostat
VDC	POTEN	0.00000E+000	T	DC Voltage (V)
FREQINIT	QUANT	3.00000E+005	Initial Freq. (Hz)
FREQFINAL	QUANT	1.00000E+000	Final Freq. (Hz)
PTSPERDEC	QUANT	1.00000E+001	Points/decade
VAC	QUANT	5.00000E+001	AC Voltage (mV rms)
AREA	QUANT	1.00000E+000	Sample Area (cm^2)
SPEED	SELECTOR	2	Optimize for:
ZGUESS	QUANT	1.00000E+003	Estimated Z (ohms)
EOC	QUANT	0	Open Circuit (V)
SEQUENCER	TOGGLE	TRUE	Run as Sequence
PSTATMODEL	IQUANT	5	Pstat Model
PSTATSECTION	LABEL	REF3000-16137	Pstat Section
PSTATSERIALNO	LABEL	16137	Pstat Serial Number
CTRLMODE	IQUANT	1	Control Mode
IESTAB	IQUANT	0	I/E Stability
CASPEED	IQUANT	1	Control Amp Speed
CONVENTION	IQUANT	1	Current Convention
ICHRANGE	IQUANT	2	Ich Range
ICHRANGEMODE	TOGGLE	F	Ich Auto Range
ICHOFFSETENABLE	TOGGLE	T	Ich Offset Enable
ICHOFFSET	QUANT	0	Ich Offset (V)
ICHFILTER	IQUANT	3	Ich Filter
VCHRANGE	IQUANT	2	Vch Range
VCHRANGEMODE	TOGGLE	F	Vch Auto Range
VCHOFFSETENABLE	TOGGLE	T	Vch Offset Enable
VCHOFFSET	QUANT	0	Vch Offset (V)
VCHFILTER	IQUANT	3	Vch Filter
ACHRANGE	IQUANT	2	Ach Range
ACHOFFSETENABLE	TOGGLE	F	Ach Offset Enable
ACHOFFSET	QUANT	0	Ach Offset (V)
ACHFILTER	IQUANT	3	Ach Filter
IERANGELOWERLIMIT	IQUANT	2	I/E Range Lower Limit
IERANGEMODE	TOGGLE	F	I/E AutoRange
IERANGE	IQUANT	11	I/E Range
POSFEEDENABLE	TOGGLE	F	Positive Feedback IR Comp
POSFEEDRESISTANCE	QUANT	0	Positive Feedback Resistance (ohm)
ACHSELECT	IQUANT	0	Ach Select
CABLEID	IQUANT	13	Cable ID
DCCALDATE	LABEL	7/31/2020	DC Calibration Date
ACCALDATE	LABEL	7/31/2020	AC Calibration Date
THERMOSELECT	IQUANT	1	Thermo Select
FRAMEWORKVERSION	QUANT	6.33	Framework Version
INSTRUMENTVERSION	LABEL	3.50	Instrument Version
COMPLIANCEVOLTAGE	IQUANT	0	Compliance Voltage
ZCURVE	TABLE
	Pt	Time	Freq	Zreal	Zimag	Zsig	Zmod	Zphz	Idc	Vdc	IERange
	#	s	Hz	ohm	ohm	V	ohm	°	A	V	#
	0	11	300046.9	2.306383	2.226215	1	3.205532	43.98672	-0.0001376	-0.0004839	11
	1	14	238359.4	2.266138	1.767393	1	2.873858	37.95117	-1.858506E-005	-0.000228	11
	2	17	189328.1	2.326041	1.232556	1	2.632425	27.91886	-4.747312E-005	0.0001222	12
	3	20	150421.9	2.275874	0.968871	1	2.473523	23.06012	-0.0001496	0.0002687	12
	4	24	119484.4	2.251937	0.7497	1	2.373451	18.41329	-0.0001352	0.0003697	12
	5	28	94921.88	2.233479	0.5689992	1	2.304818	14.2926	-0.0001819	0.0004774	12
	6	31	75421.88	2.214103	0.4769927	1	2.264901	12.15763	1.167319E-005	0.0005861	11
	7	34	59859.37	2.215006	0.3331697	1	2.239923	8.554006	-6.5985E-006	0.0006022	11
	8	36	47578.12	2.217094	0.2083957	1	2.226867	5.369738	-5.858271E-005	0.0005941	11
	9	39	37828.12	2.222044	0.0954618	1	2.224094	2.459987	-8.266636E-006	0.0006612	11
	10	42	30046.88	2.227836	-0.0115091	1	2.227865	-0.2959897	1.308303E-005	0.0007007	11
	11	44	23859.38	2.235808	-0.1175392	1	2.238896	-3.009338	-3.535467E-005	0.00071	11
	12	46	18984.38	2.244446	-0.2275641	1	2.255953	-5.789427	1.193851E-005	0.0007267	11
	13	49	15046.87	2.255783	-0.3489143	1	2.282608	-8.792575	-5.698558E-005	0.0006661	11
	14	51	11953.13	2.270969	-0.4846379	1	2.322106	-12.04654	-2.473038E-005	0.0007049	11
	15	53	9515.62	2.288707	-0.6403388	1	2.376597	-15.63066	-2.839416E-005	0.0006977	11
	16	56	7546.875	2.311061	-0.8277162	1	2.454815	-19.7052	-1.866114E-005	0.0006944	11
	17	58	5928.309	2.340189	-1.062804	1	2.570221	-24.42531	-4.369266E-005	0.0006841	11
	18	60	4733.456	2.373975	-1.329106	1	2.720713	-29.24294	-3.376763E-005	0.0007141	11
	19	63	3796.875	2.414016	-1.645724	1	2.921623	-34.2837	-4.660263E-005	0.0006687	11
	20	65	2987.132	2.469559	-2.067676	1	3.22087	-39.93826	-2.859862E-005	0.0007002	11
	21	67	2390.625	2.53248	-2.551417	1	3.594883	-45.21342	2.48728E-005	0.0007417	11
	22	70	1884.191	2.62189	-3.18833	1	4.127924	-50.56819	-2.009613E-005	0.000687	10
	23	72	1516.544	2.72054	-3.899782	1	4.75496	-55.09986	-1.474031E-005	0.0006706	10
	24	74	1193.986	2.856619	-4.86308	1	5.640019	-59.56963	-1.435406E-006	0.0006612	10
	25	77	946.5144	3.025428	-6.021435	1	6.73876	-63.32308	-1.345765E-005	0.0007142	10
	26	79	751.7689	3.228792	-7.43771	1	8.108306	-66.53381	5.453745E-006	0.0006533	10
	27	81	597.4265	3.483191	-9.181267	1	9.81979	-69.22425	1.616407E-005	0.0006821	10
	28	84	477.4305	3.799319	-11.27165	1	11.89474	-71.37266	-1.036518E-006	0.0006847	10
	29	86	376.6741	4.216389	-13.99648	1	14.61778	-73.23526	9.190214E-007	0.000672	10
	30	88	298.2954	4.734702	-17.3152	1	17.95087	-74.70677	-6.59005E-007	0.0006794	10
	31	91	237.7717	5.373928	-21.29075	1	21.95849	-75.83405	-9.652854E-007	0.0006813	10
	32	93	189.0121	6.197788	-26.23977	1	26.96179	-76.7104	-1.016893E-006	0.0006859	10
	33	95	150.2404	7.253597	-32.32868	1	33.13243	-77.35396	-2.023102E-006	0.0006793	10
	34	98	119.1737	8.6325	-39.87983	1	40.80344	-77.78603	-1.658889E-006	0.0006771	10
	35	100	95.0169	10.37104	-48.86166	1	49.95018	-78.01664	1.271757E-006	7.485202E-005	9
	36	103	75.60484	12.66234	-59.96845	1	61.2907	-78.07713	1.123971E-006	7.60484E-005	9
	37	105	54.50582	17.15275	-80.12919	1	81.94452	-77.9174	1.053686E-006	7.880409E-005	9
	38	108	45.95588	20.19411	-93.0282	1	95.1948	-77.75253	1.364967E-006	8.852495E-005	9
	39	110	37.20238	24.80055	-111.7537	1	114.4725	-77.48761	1.266752E-006	8.401892E-005	9
	40	112	30.04808	30.38765	-134.09	1	137.4901	-77.23123	1.13496E-006	8.226427E-005	9
	41	115	23.91582	37.62528	-162.8304	1	167.1209	-76.98901	1.116315E-006	8.160289E-005	9
	42	117	18.60119	47.13859	-201.0308	1	206.4834	-76.80344	1.302785E-006	8.666531E-005	9
	43	120	15.02404	56.64456	-240.5053	1	247.0858	-76.74705	1.407594E-006	7.291559E-005	9
	44	122	12.01923	68.03521	-290.1586	1	298.0282	-76.80391	1.306936E-006	7.473867E-005	9
	45	124	9.450605	82.39401	-355.6024	1	365.0231	-76.95462	1.438943E-006	7.735853E-005	9
	46	127	7.512019	97.6075	-430.2399	1	441.173	-77.21781	8.167018E-007	0.0006771	8
	47	130	5.978954	115.1921	-523.3682	1	535.895	-77.58724	7.817317E-007	0.0006618	8
	48	134	4.734848	136.0034	-641.2296	1	655.494	-78.02515	7.163383E-007	0.0006474	8
	49	137	3.75601	160.189	-785.4647	1	801.6329	-78.47308	7.971591E-007	0.0006711	8
	50	140	3.004808	187.7355	-956.911	1	975.153	-78.90018	7.17791E-007	0.0006809	8
	51	144	2.372217	225.0472	-1181.411	1	1202.655	-79.21493	6.716022E-007	0.0006398	8
	52	148	1.878005	270.3343	-1463.309	1	1488.07	-79.53309	7.817016E-007	0.0006261	8
	53	153	1.512097	321.2182	-1779.081	1	1807.847	-79.76535	6.923703E-007	0.0006928	8
	54	158	1.201923	397.8694	-2201.249	1	2236.917	-79.75457	7.520151E-007	0.0006606	8
	55	165	0.956633	496.8924	-2712.174	1	2757.315	-79.61808	6.963079E-007	1.553756E-005	8
