EXPLAIN
TAG	EISPOT
TITLE	LABEL	Potentiostatic EIS	Test Identifier
DATE	LABEL	2/24/2021	Date
TIME	LABEL	12:16:48	Time
NOTES	NOTES	1	Notes...
	
PSTAT	PSTAT	REF3000-16137	Potentiostat
VDC	POTEN	0.00000E+000	T	DC Voltage (V)
FREQINIT	QUANT	3.00000E+005	Initial Freq. (Hz)
FREQFINAL	QUANT	1.00000E+000	Final Freq. (Hz)
PTSPERDEC	QUANT	1.00000E+001	Points/decade
VAC	QUANT	5.00000E+001	AC Voltage (mV rms)
AREA	QUANT	1.00000E+000	Sample Area (cm^2)
SPEED	SELECTOR	2	Optimize for:
ZGUESS	QUANT	1.00000E+003	Estimated Z (ohms)
EOC	QUANT	0	Open Circuit (V)
SEQUENCER	TOGGLE	TRUE	Run as Sequence
PSTATMODEL	IQUANT	5	Pstat Model
PSTATSECTION	LABEL	REF3000-16137	Pstat Section
PSTATSERIALNO	LABEL	16137	Pstat Serial Number
CTRLMODE	IQUANT	1	Control Mode
IESTAB	IQUANT	0	I/E Stability
CASPEED	IQUANT	1	Control Amp Speed
CONVENTION	IQUANT	1	Current Convention
ICHRANGE	IQUANT	2	Ich Range
ICHRANGEMODE	TOGGLE	F	Ich Auto Range
ICHOFFSETENABLE	TOGGLE	T	Ich Offset Enable
ICHOFFSET	QUANT	0	Ich Offset (V)
ICHFILTER	IQUANT	3	Ich Filter
VCHRANGE	IQUANT	2	Vch Range
VCHRANGEMODE	TOGGLE	F	Vch Auto Range
VCHOFFSETENABLE	TOGGLE	T	Vch Offset Enable
VCHOFFSET	QUANT	0	Vch Offset (V)
VCHFILTER	IQUANT	3	Vch Filter
ACHRANGE	IQUANT	2	Ach Range
ACHOFFSETENABLE	TOGGLE	F	Ach Offset Enable
ACHOFFSET	QUANT	0	Ach Offset (V)
ACHFILTER	IQUANT	3	Ach Filter
IERANGELOWERLIMIT	IQUANT	2	I/E Range Lower Limit
IERANGEMODE	TOGGLE	F	I/E AutoRange
IERANGE	IQUANT	11	I/E Range
POSFEEDENABLE	TOGGLE	F	Positive Feedback IR Comp
POSFEEDRESISTANCE	QUANT	0	Positive Feedback Resistance (ohm)
ACHSELECT	IQUANT	0	Ach Select
CABLEID	IQUANT	13	Cable ID
DCCALDATE	LABEL	7/31/2020	DC Calibration Date
ACCALDATE	LABEL	7/31/2020	AC Calibration Date
THERMOSELECT	IQUANT	1	Thermo Select
FRAMEWORKVERSION	QUANT	6.33	Framework Version
INSTRUMENTVERSION	LABEL	3.50	Instrument Version
COMPLIANCEVOLTAGE	IQUANT	0	Compliance Voltage
ZCURVE	TABLE
	Pt	Time	Freq	Zreal	Zimag	Zsig	Zmod	Zphz	Idc	Vdc	IERange
	#	s	Hz	ohm	ohm	V	ohm	°	A	V	#
	0	10	300046.9	2.866952	2.259115	1	3.65007	38.23758	1.525708E-005	-0.0001686	10
	1	13	238359.4	2.819251	1.783142	1	3.335832	32.31286	5.089875E-005	-0.0005751	10
	2	17	189328.1	2.891869	1.190079	1	3.12717	22.36844	-0.0001845	-0.0003126	12
	3	20	150421.9	2.797966	1.081721	1	2.999789	21.13698	-0.0001368	0.0003439	11
	4	23	119484.4	2.791615	0.8375635	1	2.914555	16.70073	6.222039E-006	0.0004912	11
	5	25	94921.88	2.789778	0.6379809	1	2.861797	12.8812	-2.266298E-006	0.0005548	11
	6	28	75421.88	2.79019	0.4683639	1	2.829226	9.52889	-1.573755E-005	0.0005835	11
	7	30	59859.37	2.792261	0.3238385	1	2.810977	6.615447	5.829784E-006	0.0006273	11
	8	33	47578.12	2.796938	0.1989052	1	2.804002	4.06776	1.891116E-005	0.000687	11
	9	35	37828.12	2.80269	0.0847021	1	2.803969	1.731049	6.405556E-006	0.0006756	11
	10	38	30046.88	2.809574	-0.0238829	1	2.809675	-0.4870337	-2.046882E-005	0.0006466	11
	11	40	23859.38	2.818622	-0.1325409	1	2.821737	-2.692253	-2.127189E-005	0.0006606	11
	12	43	18984.38	2.829497	-0.2450614	1	2.84009	-4.950008	-5.087183E-005	0.0006471	11
	13	45	15046.87	2.842367	-0.3705374	1	2.866418	-7.427322	-1.487788E-005	0.0006676	11
	14	47	11953.13	2.858857	-0.5115339	1	2.904261	-10.14455	2.108955E-005	0.0007286	11
	15	50	9515.62	2.878064	-0.6741056	1	2.955955	-13.18229	-1.007353E-005	0.0006914	11
	16	52	7546.875	2.902387	-0.8699577	1	3.029963	-16.68551	6.485287E-006	0.0007256	11
	17	54	5928.309	2.933468	-1.116206	1	3.138654	-20.83218	-3.825801E-005	0.0006762	11
	18	57	4733.456	2.96981	-1.395704	1	3.281426	-25.17185	-3.715184E-005	0.0007272	11
	19	59	3796.875	3.013535	-1.72655	1	3.473092	-29.80977	-2.031208E-006	0.0007036	11
	20	61	2987.132	3.071379	-2.171021	1	3.76121	-35.25478	-3.518405E-005	0.0007098	11
	21	63	2390.625	3.140635	-2.680238	1	4.128833	-40.47765	3.010632E-006	0.0006464	10
	22	66	1884.191	3.230936	-3.347178	1	4.652155	-46.01237	-2.236774E-005	0.0006888	10
	23	68	1516.544	3.331911	-4.095249	1	5.27946	-50.86806	-1.608788E-005	0.0006743	10
	24	70	1193.986	3.471843	-5.110489	1	6.178252	-55.80953	2.111272E-005	0.0006721	10
	25	73	946.5144	3.643913	-6.330621	1	7.304441	-60.07522	-8.865814E-006	0.0006633	10
	26	75	751.7689	3.857993	-7.826247	1	8.725494	-63.75874	1.77522E-005	0.0006514	10
	27	78	597.4265	4.11726	-9.66523	1	10.50564	-66.92665	-2.05486E-005	0.0006935	10
	28	80	477.4305	4.443751	-11.86438	1	12.66927	-69.46678	-1.375042E-006	0.0006808	10
	29	82	376.6741	4.869326	-14.73683	1	15.52045	-71.71547	-2.333322E-006	0.0006896	10
	30	84	298.2954	5.395795	-18.23934	1	19.02073	-73.52006	-1.586028E-006	0.0006815	10
	31	87	237.7717	6.037606	-22.43457	1	23.23279	-74.93739	-1.847485E-006	0.0006808	10
	32	89	189.0121	6.856371	-27.66197	1	28.49903	-76.07907	-1.446549E-006	0.0006816	10
	33	92	150.2404	7.896301	-34.10682	1	35.00895	-76.96472	-1.819748E-006	0.0006817	10
	34	94	119.1737	9.22601	-42.0673	1	43.06712	-77.63	1.293994E-006	7.799359E-005	9
	35	96	95.0169	10.91153	-51.68058	1	52.81992	-78.078	1.175676E-006	8.34236E-005	9
	36	99	75.60484	13.11053	-63.56582	1	64.90377	-78.34609	1.144828E-006	8.201679E-005	9
	37	101	54.50582	17.45008	-85.32275	1	87.08891	-78.44135	1.038257E-006	8.222201E-005	9
	38	104	45.95588	20.44739	-99.3643	1	101.4463	-78.37188	1.269897E-006	8.333718E-005	9
	39	106	37.20238	25.01287	-119.7445	1	122.329	-78.2014	1.132388E-006	8.679221E-005	9
	40	109	30.04808	30.86734	-144.4282	1	147.6899	-77.93619	1.101109E-006	8.021384E-005	9
	41	111	23.91582	38.45081	-175.7527	1	179.9097	-77.65939	1.165842E-006	7.682166E-005	9
	42	114	18.60119	49.00774	-217.9212	1	223.3638	-77.32575	1.089522E-006	8.264195E-005	9
	43	116	15.02404	59.72281	-260.9991	1	267.745	-77.11126	1.2856E-006	8.868373E-005	9
	44	118	12.01923	72.85461	-314.9994	1	323.3148	-76.97733	1.345853E-006	7.967338E-005	9
	45	121	9.450605	89.29752	-385.7188	1	395.9205	-76.96513	1.237983E-006	9.215345E-005	9
	46	123	7.512019	107.2101	-466.2306	1	478.3983	-77.0499	6.778449E-007	0.000664	8
	47	126	5.978954	127.936	-565.5463	1	579.8364	-77.25329	6.730328E-007	0.0006616	8
	48	129	4.734848	152.5528	-690.7159	1	707.3619	-77.54549	7.513762E-007	0.000647	8
	49	132	3.75601	180.1583	-843.6059	1	862.6285	-77.94514	6.963713E-007	0.0006639	8
	50	135	3.004808	211.0707	-1024.206	1	1045.729	-78.35538	7.347888E-007	0.0006303	8
	51	139	2.372217	250.0342	-1262.551	1	1287.072	-78.79815	6.79129E-007	0.0005785	8
	52	143	1.878005	294.5993	-1555.43	1	1583.083	-79.27518	7.100454E-007	0.000665	8
	53	148	1.512097	347.4519	-1887.065	1	1918.785	-79.56738	6.570608E-007	0.000604	8
	54	154	1.201923	413.6396	-2331.679	1	2368.084	-79.94039	7.0879E-007	0.0006911	8
	55	160	0.956633	500.8073	-2873.614	1	2916.928	-80.11391	6.740035E-007	1.444339E-005	8
