EXPLAIN
TAG	EISPOT
TITLE	LABEL	Potentiostatic EIS	Test Identifier
DATE	LABEL	2/24/2021	Date
TIME	LABEL	13:01:22	Time
NOTES	NOTES	1	Notes...
	
PSTAT	PSTAT	REF3000-16137	Potentiostat
VDC	POTEN	0.00000E+000	T	DC Voltage (V)
FREQINIT	QUANT	3.00000E+005	Initial Freq. (Hz)
FREQFINAL	QUANT	1.00000E+000	Final Freq. (Hz)
PTSPERDEC	QUANT	1.00000E+001	Points/decade
VAC	QUANT	5.00000E+001	AC Voltage (mV rms)
AREA	QUANT	1.00000E+000	Sample Area (cm^2)
SPEED	SELECTOR	2	Optimize for:
ZGUESS	QUANT	1.00000E+003	Estimated Z (ohms)
EOC	QUANT	0	Open Circuit (V)
SEQUENCER	TOGGLE	TRUE	Run as Sequence
PSTATMODEL	IQUANT	5	Pstat Model
PSTATSECTION	LABEL	REF3000-16137	Pstat Section
PSTATSERIALNO	LABEL	16137	Pstat Serial Number
CTRLMODE	IQUANT	1	Control Mode
IESTAB	IQUANT	0	I/E Stability
CASPEED	IQUANT	1	Control Amp Speed
CONVENTION	IQUANT	1	Current Convention
ICHRANGE	IQUANT	2	Ich Range
ICHRANGEMODE	TOGGLE	F	Ich Auto Range
ICHOFFSETENABLE	TOGGLE	T	Ich Offset Enable
ICHOFFSET	QUANT	0	Ich Offset (V)
ICHFILTER	IQUANT	3	Ich Filter
VCHRANGE	IQUANT	2	Vch Range
VCHRANGEMODE	TOGGLE	F	Vch Auto Range
VCHOFFSETENABLE	TOGGLE	T	Vch Offset Enable
VCHOFFSET	QUANT	0	Vch Offset (V)
VCHFILTER	IQUANT	3	Vch Filter
ACHRANGE	IQUANT	2	Ach Range
ACHOFFSETENABLE	TOGGLE	F	Ach Offset Enable
ACHOFFSET	QUANT	0	Ach Offset (V)
ACHFILTER	IQUANT	3	Ach Filter
IERANGELOWERLIMIT	IQUANT	2	I/E Range Lower Limit
IERANGEMODE	TOGGLE	F	I/E AutoRange
IERANGE	IQUANT	11	I/E Range
POSFEEDENABLE	TOGGLE	F	Positive Feedback IR Comp
POSFEEDRESISTANCE	QUANT	0	Positive Feedback Resistance (ohm)
ACHSELECT	IQUANT	0	Ach Select
CABLEID	IQUANT	13	Cable ID
DCCALDATE	LABEL	7/31/2020	DC Calibration Date
ACCALDATE	LABEL	7/31/2020	AC Calibration Date
THERMOSELECT	IQUANT	1	Thermo Select
FRAMEWORKVERSION	QUANT	6.33	Framework Version
INSTRUMENTVERSION	LABEL	3.50	Instrument Version
COMPLIANCEVOLTAGE	IQUANT	0	Compliance Voltage
ZCURVE	TABLE
	Pt	Time	Freq	Zreal	Zimag	Zsig	Zmod	Zphz	Idc	Vdc	IERange
	#	s	Hz	ohm	ohm	V	ohm	°	A	V	#
	0	7	300046.9	54.8313	1.840169	1	54.86217	1.922157	1.037623E-005	0.0001118	9
	1	10	238359.4	55.32101	1.399384	1	55.3387	1.449028	-5.927405E-005	0.001934	9
	2	14	189328.1	55.65816	1.015443	1	55.66742	1.045204	3.495564E-006	-0.0011633	9
	3	16	150421.9	56.00763	0.7539282	1	56.0127	0.7712217	7.06084E-006	-0.0006977	9
	4	19	119484.4	56.35426	0.5634388	1	56.35708	0.5728331	2.830008E-006	-0.0009547	9
	5	21	94921.88	56.68547	0.6096271	1	56.68874	0.6161669	-1.274456E-005	0.0001279	9
	6	24	75421.88	56.95644	0.3955908	1	56.95781	0.3979413	2.087508E-005	-0.0004166	9
	7	26	59859.37	57.2433	0.2053069	1	57.24367	0.2054943	3.623763E-006	0.0003407	9
	8	29	47578.12	57.53963	0.0316061	1	57.53964	0.0314722	-1.690776E-005	0.0005052	9
	9	31	37828.12	57.86903	-0.09638	1	57.86911	-0.0954251	-1.725274E-005	0.0005221	9
	10	34	30046.88	58.20589	-0.2176849	1	58.2063	-0.2142802	-1.721356E-005	0.0006927	9
	11	36	23859.38	58.50531	-0.3479922	1	58.50634	-0.3407938	-1.70376E-005	0.0003782	9
	12	39	18984.38	58.78441	-0.4951513	1	58.7865	-0.4826009	1.934038E-005	-0.0002046	9
	13	41	15046.87	59.12078	-0.638702	1	59.12423	-0.6189618	-1.316456E-005	0.0004062	9
	14	43	11953.13	59.34901	-0.8282097	1	59.35479	-0.7995051	-3.651111E-006	0.0006052	9
	15	46	9515.62	59.69896	-1.051135	1	59.70821	-1.008717	-1.446945E-005	0.0003393	9
	16	48	7546.875	60.00853	-1.333389	1	60.02334	-1.272903	1.026026E-005	-0.0004974	9
	17	50	5928.309	60.33687	-1.667603	1	60.35991	-1.58315	-1.645772E-005	0.0006694	9
	18	53	4733.456	60.70388	-2.039009	1	60.73811	-1.92381	-4.134195E-006	0.0005725	9
	19	55	3796.875	61.02962	-2.526573	1	61.0819	-2.370642	4.441356E-006	-0.0003398	9
	20	57	2987.132	61.34338	-3.154868	1	61.42445	-2.944108	2.121375E-005	-0.0003869	9
	21	59	2390.625	61.73077	-3.871733	1	61.85207	-3.588871	3.753521E-006	0.0003899	9
	22	62	1884.191	62.12928	-4.820699	1	62.31602	-4.436771	1.665443E-005	-0.0001012	9
	23	64	1516.544	62.5449	-5.929083	1	62.8253	-5.415299	1.910227E-005	-0.0005443	9
	24	66	1193.986	62.99579	-7.406023	1	63.42964	-6.70513	4.495752E-006	-0.0003601	9
	25	69	946.5144	63.48383	-9.223067	1	64.15031	-8.266219	2.016438E-005	-0.0002231	9
	26	71	751.7689	63.99425	-11.44184	1	65.00908	-10.13708	2.129074E-005	-0.0003808	9
	27	74	597.4265	64.62862	-14.20611	1	66.17153	-12.39711	-1.750631E-005	0.0005719	9
	28	76	477.4305	65.2847	-17.52105	1	67.59496	-15.02298	1.405074E-006	7.959933E-005	9
	29	78	376.6741	66.09402	-21.87868	1	69.62109	-18.31577	1.313243E-006	0.0000987	9
	30	80	298.2954	67.02892	-27.20665	1	72.34001	-22.09195	1.410806E-006	8.251588E-005	9
	31	83	237.7717	68.13289	-33.61391	1	75.97359	-26.2598	1.398092E-006	8.017004E-005	9
	32	85	189.0121	69.46002	-41.60908	1	80.96919	-30.92314	1.414105E-006	7.796402E-005	9
	33	88	150.2404	71.06485	-51.47137	1	87.74688	-35.91534	1.356491E-006	7.871641E-005	9
	34	90	119.1737	73.0184	-63.76392	1	96.9408	-41.12935	1.394674E-006	7.86576E-005	9
	35	92	95.0169	75.34716	-78.57564	1	108.8638	-46.20158	1.338608E-006	7.357982E-005	9
	36	95	75.60484	78.22945	-96.977	1	124.5969	-51.10755	1.352547E-006	7.704825E-005	9
	37	97	54.50582	83.38874	-130.9607	1	155.2559	-57.5132	1.305031E-006	7.673394E-005	9
	38	100	45.95588	86.93243	-153.1697	1	176.1198	-60.42265	1.35864E-006	7.911066E-005	9
	39	102	37.20238	92.05804	-185.8328	1	207.3849	-63.64706	1.36899E-006	8.159715E-005	9
	40	105	30.04808	98.3876	-225.9239	1	246.4178	-66.46735	1.309621E-006	7.840348E-005	9
	41	107	23.91582	106.6529	-278.1648	1	297.9102	-69.02237	1.352225E-006	7.544686E-005	9
	42	109	18.60119	117.9286	-349.6609	1	369.0121	-71.36252	1.468238E-006	7.62752E-005	9
	43	112	15.02404	129.1796	-422.728	1	442.0252	-73.0076	3.852381E-007	0.0006585	8
	44	114	12.01923	144.3326	-517.7748	1	537.5153	-74.42389	3.803949E-007	0.000665	8
	45	116	9.450605	164.5636	-644.2775	1	664.9622	-75.67167	3.954462E-007	0.0006656	8
	46	119	7.512019	188.406	-793.422	1	815.4847	-76.64195	4.109659E-007	0.0006777	8
	47	122	5.978954	218.0626	-976.286	1	1000.343	-77.40913	4.101084E-007	0.0006558	8
	48	125	4.734848	256.4578	-1207.903	1	1234.828	-78.01315	3.43625E-007	0.0006613	8
	49	128	3.75601	303.8877	-1490.149	1	1520.819	-78.47366	4.067358E-007	0.0006749	8
	50	131	3.004808	362.17	-1823.715	1	1859.329	-78.76781	3.488759E-007	0.0006818	8
	51	135	2.372217	440.9963	-2258.39	1	2301.044	-78.95087	3.658845E-007	0.0006968	8
	52	139	1.878005	546.959	-2791.95	1	2845.021	-78.9158	3.888003E-007	0.0006407	8
	53	144	1.512097	669.634	-3394.238	1	3459.662	-78.83969	3.825509E-007	0.0007639	8
	54	150	1.201923	835.4469	-4171.824	1	4254.655	-78.67578	3.930947E-007	0.0006396	8
	55	156	0.956633	1044.978	-5119.368	1	5224.931	-78.46313	1.563186E-008	-6.759061E-006	7
