EXPLAIN
TAG	EISPOT
TITLE	LABEL	Potentiostatic EIS	Test Identifier
DATE	LABEL	2/24/2021	Date
TIME	LABEL	12:55:52	Time
NOTES	NOTES	1	Notes...
	
PSTAT	PSTAT	REF3000-16137	Potentiostat
VDC	POTEN	0.00000E+000	T	DC Voltage (V)
FREQINIT	QUANT	3.00000E+005	Initial Freq. (Hz)
FREQFINAL	QUANT	1.00000E+000	Final Freq. (Hz)
PTSPERDEC	QUANT	1.00000E+001	Points/decade
VAC	QUANT	5.00000E+001	AC Voltage (mV rms)
AREA	QUANT	1.00000E+000	Sample Area (cm^2)
SPEED	SELECTOR	2	Optimize for:
ZGUESS	QUANT	1.00000E+003	Estimated Z (ohms)
EOC	QUANT	0	Open Circuit (V)
SEQUENCER	TOGGLE	TRUE	Run as Sequence
PSTATMODEL	IQUANT	5	Pstat Model
PSTATSECTION	LABEL	REF3000-16137	Pstat Section
PSTATSERIALNO	LABEL	16137	Pstat Serial Number
CTRLMODE	IQUANT	1	Control Mode
IESTAB	IQUANT	0	I/E Stability
CASPEED	IQUANT	1	Control Amp Speed
CONVENTION	IQUANT	1	Current Convention
ICHRANGE	IQUANT	2	Ich Range
ICHRANGEMODE	TOGGLE	F	Ich Auto Range
ICHOFFSETENABLE	TOGGLE	T	Ich Offset Enable
ICHOFFSET	QUANT	0	Ich Offset (V)
ICHFILTER	IQUANT	3	Ich Filter
VCHRANGE	IQUANT	2	Vch Range
VCHRANGEMODE	TOGGLE	F	Vch Auto Range
VCHOFFSETENABLE	TOGGLE	T	Vch Offset Enable
VCHOFFSET	QUANT	0	Vch Offset (V)
VCHFILTER	IQUANT	3	Vch Filter
ACHRANGE	IQUANT	2	Ach Range
ACHOFFSETENABLE	TOGGLE	F	Ach Offset Enable
ACHOFFSET	QUANT	0	Ach Offset (V)
ACHFILTER	IQUANT	3	Ach Filter
IERANGELOWERLIMIT	IQUANT	2	I/E Range Lower Limit
IERANGEMODE	TOGGLE	F	I/E AutoRange
IERANGE	IQUANT	11	I/E Range
POSFEEDENABLE	TOGGLE	F	Positive Feedback IR Comp
POSFEEDRESISTANCE	QUANT	0	Positive Feedback Resistance (ohm)
ACHSELECT	IQUANT	0	Ach Select
CABLEID	IQUANT	13	Cable ID
DCCALDATE	LABEL	7/31/2020	DC Calibration Date
ACCALDATE	LABEL	7/31/2020	AC Calibration Date
THERMOSELECT	IQUANT	1	Thermo Select
FRAMEWORKVERSION	QUANT	6.33	Framework Version
INSTRUMENTVERSION	LABEL	3.50	Instrument Version
COMPLIANCEVOLTAGE	IQUANT	0	Compliance Voltage
ZCURVE	TABLE
	Pt	Time	Freq	Zreal	Zimag	Zsig	Zmod	Zphz	Idc	Vdc	IERange
	#	s	Hz	ohm	ohm	V	ohm	°	A	V	#
	0	7	300046.9	29.85171	1.198198	1	29.87575	2.298524	6.790823E-005	-0.0001922	11
	1	11	238359.4	30.05737	1.313365	1	30.08605	2.501962	7.375389E-005	0.0001837	10
	2	14	189328.1	30.27122	1.010231	1	30.28807	1.911402	1.978961E-005	0.0005451	10
	3	17	150421.9	30.31989	0.7939172	1	30.33028	1.49993	-0.0001029	0.0005239	10
	4	19	119484.4	30.49813	0.5849374	1	30.50374	1.098767	-5.373854E-005	0.000758	10
	5	22	94921.88	30.62208	0.4270766	1	30.62506	0.7990347	2.114626E-005	0.0006236	10
	6	24	75421.88	30.7685	0.2798847	1	30.76977	0.521175	6.22455E-006	0.0005834	10
	7	27	59859.37	30.91301	0.1499878	1	30.91338	0.2779929	2.058811E-005	0.0006275	10
	8	29	47578.12	31.06086	0.0353567	1	31.06088	0.06522	2.504509E-005	0.000649	10
	9	32	37828.12	31.20294	-0.0743797	1	31.20303	-0.1365779	-1.597366E-005	0.0006626	10
	10	34	30046.88	31.35492	-0.1898077	1	31.3555	-0.346837	1.41966E-005	0.0006003	10
	11	37	23859.38	31.50045	-0.3019853	1	31.5019	-0.5492605	5.643738E-006	0.0006227	10
	12	39	18984.38	31.64389	-0.4314829	1	31.64683	-0.781213	-2.609705E-005	0.0006622	10
	13	41	15046.87	31.78865	-0.5947634	1	31.79422	-1.071875	1.611578E-005	0.0006214	10
	14	44	11953.13	31.93934	-0.7612739	1	31.94841	-1.365386	-3.300701E-006	0.0007343	10
	15	46	9515.62	32.08475	-0.95988	1	32.09911	-1.713607	-1.708067E-005	0.0006788	10
	16	48	7546.875	32.25196	-1.213884	1	32.2748	-2.155455	-2.118557E-005	0.0007369	10
	17	51	5928.309	32.4139	-1.52584	1	32.44979	-2.695132	-1.684921E-005	0.0006643	10
	18	53	4733.456	32.57756	-1.90857	1	32.63342	-3.352865	-2.806415E-005	0.0006946	10
	19	55	3796.875	32.76279	-2.345423	1	32.84663	-4.094705	-1.900302E-005	0.000718	10
	20	58	2987.132	32.95116	-2.944306	1	33.08244	-5.106026	-2.190215E-005	0.0007212	10
	21	60	2390.625	33.15453	-3.633369	1	33.35302	-6.254025	1.462551E-005	0.0006108	10
	22	62	1884.191	33.3983	-4.540379	1	33.70551	-7.741695	2.433729E-005	0.0006731	10
	23	65	1516.544	33.62474	-5.573578	1	34.08354	-9.411674	1.988663E-005	0.0006304	10
	24	67	1193.986	33.91784	-6.990349	1	34.63069	-11.64541	6.132642E-006	0.0006971	10
	25	69	946.5144	34.23976	-8.693185	1	35.32609	-14.2459	-1.336644E-005	0.0007506	10
	26	72	751.7689	34.58422	-10.78077	1	36.22559	-17.31356	-1.191042E-005	0.0003297	9
	27	74	597.4265	35.01676	-13.36574	1	37.48088	-20.89163	2.829888E-006	0.0002601	9
	28	76	477.4305	35.53118	-16.46962	1	39.16265	-24.86894	1.243114E-006	8.262882E-005	9
	29	79	376.6741	36.17804	-20.53325	1	41.59886	-29.57756	1.238689E-006	7.8549E-005	9
	30	81	298.2954	36.95141	-25.49515	1	44.89331	-34.60428	1.318454E-006	8.156117E-005	9
	31	83	237.7717	37.87401	-31.44594	1	49.2269	-39.70208	1.202849E-006	0.000102	9
	32	86	189.0121	39.00776	-38.86644	1	55.06546	-44.89603	1.29331E-006	8.367733E-005	9
	33	88	150.2404	40.39614	-48.02169	1	62.75293	-49.92925	1.377842E-006	7.752472E-005	9
	34	91	119.1737	42.12283	-59.43557	1	72.8486	-54.67426	1.251813E-006	0.0001007	9
	35	93	95.0169	44.20892	-73.17929	1	85.49642	-58.86307	1.256527E-006	8.068331E-005	9
	36	96	75.60484	46.82134	-90.24045	1	101.664	-62.57742	1.341845E-006	7.848584E-005	9
	37	98	54.50582	51.60511	-121.7018	1	132.1909	-67.02164	1.292044E-006	7.341352E-005	9
	38	101	45.95588	54.82069	-142.2343	1	152.4332	-68.92207	1.365983E-006	8.442318E-005	9
	39	103	37.20238	59.50854	-172.4252	1	182.4054	-70.95908	1.436076E-006	7.897985E-005	9
	40	105	30.04808	65.25636	-209.471	1	219.4003	-72.69666	1.36808E-006	7.926317E-005	9
	41	108	23.91582	72.78793	-257.8185	1	267.8964	-74.23444	1.302864E-006	7.547814E-005	9
	42	110	18.60119	83.10624	-324.009	1	334.4973	-75.61412	1.419961E-006	7.861862E-005	9
	43	112	15.02404	94.12406	-393.4327	1	404.5351	-76.54556	1.4219E-006	8.801967E-005	9
	44	115	12.01923	107.7363	-480.0662	1	492.0068	-77.35126	4.362499E-007	0.000661	8
	45	117	9.450605	126.9371	-597.4932	1	610.8282	-78.00587	5.553358E-007	0.0006676	8
	46	120	7.512019	150.2779	-736.2622	1	751.4423	-78.46386	5.430582E-007	0.0006689	8
	47	122	5.978954	179.3783	-905.5852	1	923.1799	-78.79588	5.302101E-007	0.0006597	8
	48	125	4.734848	218.5273	-1119.13	1	1140.266	-78.95115	5.219354E-007	0.0006857	8
	49	129	3.75601	268.1266	-1379.934	1	1405.742	-79.00421	5.072409E-007	0.0006531	8
	50	132	3.004808	329.7621	-1685.507	1	1717.462	-78.93016	4.832272E-007	0.0007007	8
	51	136	2.372217	414.812	-2083.149	1	2124.047	-78.73815	5.113611E-007	0.0007373	8
	52	140	1.878005	522.5045	-2560.786	1	2613.549	-78.46764	4.950711E-007	0.0006362	8
	53	145	1.512097	650.3109	-3089.758	1	3157.453	-78.11426	5.177199E-007	0.0007109	8
	54	150	1.201923	815.0195	-3781.361	1	3868.197	-77.83677	5.013266E-007	0.0006298	8
	55	156	0.956633	1019.966	-4611.724	1	4723.169	-77.52876	3.738057E-008	-1.004901E-005	7
