EXPLAIN
TAG	EISPOT
TITLE	LABEL	Potentiostatic EIS	Test Identifier
DATE	LABEL	2/24/2021	Date
TIME	LABEL	12:36:28	Time
NOTES	NOTES	1	Notes...
	
PSTAT	PSTAT	REF3000-16137	Potentiostat
VDC	POTEN	0.00000E+000	T	DC Voltage (V)
FREQINIT	QUANT	3.00000E+005	Initial Freq. (Hz)
FREQFINAL	QUANT	1.00000E+000	Final Freq. (Hz)
PTSPERDEC	QUANT	1.00000E+001	Points/decade
VAC	QUANT	5.00000E+001	AC Voltage (mV rms)
AREA	QUANT	1.00000E+000	Sample Area (cm^2)
SPEED	SELECTOR	2	Optimize for:
ZGUESS	QUANT	1.00000E+003	Estimated Z (ohms)
EOC	QUANT	0	Open Circuit (V)
SEQUENCER	TOGGLE	TRUE	Run as Sequence
PSTATMODEL	IQUANT	5	Pstat Model
PSTATSECTION	LABEL	REF3000-16137	Pstat Section
PSTATSERIALNO	LABEL	16137	Pstat Serial Number
CTRLMODE	IQUANT	1	Control Mode
IESTAB	IQUANT	0	I/E Stability
CASPEED	IQUANT	1	Control Amp Speed
CONVENTION	IQUANT	1	Current Convention
ICHRANGE	IQUANT	2	Ich Range
ICHRANGEMODE	TOGGLE	F	Ich Auto Range
ICHOFFSETENABLE	TOGGLE	T	Ich Offset Enable
ICHOFFSET	QUANT	0	Ich Offset (V)
ICHFILTER	IQUANT	3	Ich Filter
VCHRANGE	IQUANT	2	Vch Range
VCHRANGEMODE	TOGGLE	F	Vch Auto Range
VCHOFFSETENABLE	TOGGLE	T	Vch Offset Enable
VCHOFFSET	QUANT	0	Vch Offset (V)
VCHFILTER	IQUANT	3	Vch Filter
ACHRANGE	IQUANT	2	Ach Range
ACHOFFSETENABLE	TOGGLE	F	Ach Offset Enable
ACHOFFSET	QUANT	0	Ach Offset (V)
ACHFILTER	IQUANT	3	Ach Filter
IERANGELOWERLIMIT	IQUANT	2	I/E Range Lower Limit
IERANGEMODE	TOGGLE	F	I/E AutoRange
IERANGE	IQUANT	11	I/E Range
POSFEEDENABLE	TOGGLE	F	Positive Feedback IR Comp
POSFEEDRESISTANCE	QUANT	0	Positive Feedback Resistance (ohm)
ACHSELECT	IQUANT	0	Ach Select
CABLEID	IQUANT	13	Cable ID
DCCALDATE	LABEL	7/31/2020	DC Calibration Date
ACCALDATE	LABEL	7/31/2020	AC Calibration Date
THERMOSELECT	IQUANT	1	Thermo Select
FRAMEWORKVERSION	QUANT	6.33	Framework Version
INSTRUMENTVERSION	LABEL	3.50	Instrument Version
COMPLIANCEVOLTAGE	IQUANT	0	Compliance Voltage
ZCURVE	TABLE
	Pt	Time	Freq	Zreal	Zimag	Zsig	Zmod	Zphz	Idc	Vdc	IERange
	#	s	Hz	ohm	ohm	V	ohm	°	A	V	#
	0	10	300046.9	6.565971	2.194695	1	6.923053	18.48236	9.779737E-006	0.0001829	10
	1	13	238359.4	6.53906	1.745851	1	6.768109	14.94861	6.450511E-005	-0.0002308	10
	2	17	189328.1	6.543629	1.379885	1	6.687538	11.90777	-5.160614E-005	0.0002567	10
	3	19	150421.9	6.541802	1.084352	1	6.631063	9.411622	7.702168E-005	0.0002063	10
	4	22	119484.4	6.553584	0.8275358	1	6.605624	7.196779	3.222013E-005	0.0004731	10
	5	24	94921.88	6.567356	0.6488687	1	6.599333	5.642632	-1.652615E-005	0.0005409	10
	6	27	75421.88	6.579152	0.4691124	1	6.595855	4.078451	2.151997E-005	0.0005498	10
	7	29	59859.37	6.594856	0.315766	1	6.602411	2.741266	-3.073278E-005	0.0006055	10
	8	32	47578.12	6.613264	0.1803336	1	6.615722	1.561981	1.684504E-006	0.0006149	10
	9	34	37828.12	6.634574	0.0581244	1	6.634829	0.5019456	-1.024694E-005	0.0006289	10
	10	37	30046.88	6.657903	-0.0582717	1	6.658158	-0.5014551	4.637799E-006	0.0006173	10
	11	39	23859.38	6.680834	-0.1750066	1	6.683126	-1.500538	1.653208E-005	0.000633	10
	12	42	18984.38	6.705264	-0.2966155	1	6.711822	-2.532897	-2.301778E-005	0.0007058	10
	13	44	15046.87	6.730831	-0.4343365	1	6.74483	-3.692144	-2.815646E-005	0.0006662	10
	14	46	11953.13	6.759792	-0.5901726	1	6.785506	-4.989632	1.809447E-005	0.0006908	10
	15	49	9515.62	6.791973	-0.7720777	1	6.835715	-6.48526	-1.104689E-005	0.0007156	10
	16	51	7546.875	6.828163	-0.992756	1	6.899955	-8.272346	2.192634E-006	0.0006393	10
	17	53	5928.309	6.871349	-1.272174	1	6.988123	-10.48908	1.900614E-005	0.0006653	10
	18	56	4733.456	6.921261	-1.59082	1	7.10173	-12.94435	-4.045878E-006	0.0006546	10
	19	58	3796.875	6.978712	-1.971518	1	7.251848	-15.77522	3.859716E-006	0.0007099	10
	20	60	2987.132	7.051726	-2.480465	1	7.475262	-19.37947	1.439477E-005	0.0006808	10
	21	63	2390.625	7.135505	-3.06489	1	7.765885	-23.24482	-3.049456E-005	0.0006669	10
	22	65	1884.191	7.24507	-3.830012	1	8.195122	-27.86259	2.260972E-005	0.0006596	10
	23	67	1516.544	7.367815	-4.692108	1	8.73502	-32.49055	-2.652457E-005	0.0006934	10
	24	69	1193.986	7.533336	-5.857679	1	9.54272	-37.86749	-4.897046E-006	0.0006501	10
	25	72	946.5144	7.726544	-7.270244	1	10.60924	-43.25723	-3.041811E-005	0.0006675	10
	26	74	751.7689	7.970179	-8.992508	1	12.0162	-48.44901	4.23579E-006	0.0006835	10
	27	77	597.4265	8.264388	-11.11261	1	13.84883	-53.36202	1.482973E-005	0.0006766	10
	28	79	477.4305	8.630452	-13.66251	1	16.1601	-57.71986	-2.572039E-006	0.0006811	10
	29	81	376.6741	9.107635	-16.98844	1	19.27579	-61.8039	-2.62414E-006	0.0006762	10
	30	83	298.2954	9.69615	-21.04603	1	23.1722	-65.26392	-2.702315E-006	0.0006797	10
	31	86	237.7717	10.40736	-25.90285	1	27.91542	-68.11051	-2.475221E-006	0.0006772	10
	32	88	189.0121	11.30034	-31.95955	1	33.89853	-70.52729	-2.059923E-006	0.0006766	10
	33	91	150.2404	12.4067	-39.4166	1	41.32305	-72.52818	-2.281883E-006	0.0006788	10
	34	93	119.1737	13.77498	-48.64735	1	50.56001	-74.19	1.3645E-006	7.808126E-005	9
	35	95	95.0169	15.46185	-59.82018	1	61.78611	-75.5078	1.276004E-006	8.275914E-005	9
	36	98	75.60484	17.58665	-73.6958	1	75.76517	-76.57806	1.306454E-006	8.395451E-005	9
	37	100	54.50582	21.6083	-99.326	1	101.6493	-77.72659	1.247907E-006	8.074751E-005	9
	38	103	45.95588	24.33255	-116.0577	1	118.581	-78.15893	1.229587E-006	8.68371E-005	9
	39	105	37.20238	28.45041	-140.6797	1	143.5277	-78.56696	1.252984E-006	8.074744E-005	9
	40	108	30.04808	33.715	-170.8544	1	174.1492	-78.83714	1.330647E-006	7.469953E-005	9
	41	110	23.91582	41.00587	-210.2036	1	214.166	-78.96155	1.310518E-006	9.216513E-005	9
	42	112	18.60119	51.43739	-263.4901	1	268.4638	-78.95389	1.100849E-006	9.018079E-005	9
	43	115	15.02404	62.97361	-319.1173	1	325.2715	-78.83686	1.547022E-006	8.916513E-005	9
	44	117	12.01923	78.43768	-388.9186	1	396.7495	-78.59746	1.247969E-006	7.223849E-005	9
	45	120	9.450605	99.2604	-478.3284	1	488.5189	-78.27665	7.364342E-007	0.0006477	8
	46	122	7.512019	124.9216	-583.3149	1	596.5415	-77.91223	7.544144E-007	0.0006673	8
	47	125	5.978954	155.7901	-709.0001	1	725.9144	-77.60722	7.264047E-007	0.0006574	8
	48	128	4.734848	194.3102	-864.4265	1	885.9963	-77.33134	7.040354E-007	0.00068	8
	49	131	3.75601	238.9027	-1050.979	1	1077.79	-77.19345	6.499392E-007	0.0006495	8
	50	134	3.004808	288.7784	-1267.62	1	1300.098	-77.16639	6.81515E-007	0.0006739	8
	51	138	2.372217	352.4444	-1547.092	1	1586.729	-77.16641	6.929718E-007	0.0007158	8
	52	142	1.878005	421.1766	-1890.479	1	1936.827	-77.44028	6.397713E-007	0.0006433	8
	53	147	1.512097	491.7493	-2272.97	1	2325.556	-77.7924	6.841767E-007	0.0006003	8
	54	152	1.201923	584.7792	-2778.874	1	2839.738	-78.11622	6.38107E-007	0.0006445	8
	55	159	0.956633	686.7324	-3392.116	1	3460.933	-78.55518	6.509804E-007	1.071229E-005	8
