EXPLAIN
TAG	EISPOT
TITLE	LABEL	Potentiostatic EIS	Test Identifier
DATE	LABEL	2/24/2021	Date
TIME	LABEL	13:18:26	Time
NOTES	NOTES	1	Notes...
	
PSTAT	PSTAT	REF3000-16137	Potentiostat
VDC	POTEN	0.00000E+000	T	DC Voltage (V)
FREQINIT	QUANT	3.00000E+005	Initial Freq. (Hz)
FREQFINAL	QUANT	1.00000E+000	Final Freq. (Hz)
PTSPERDEC	QUANT	1.00000E+001	Points/decade
VAC	QUANT	5.00000E+001	AC Voltage (mV rms)
AREA	QUANT	1.00000E+000	Sample Area (cm^2)
SPEED	SELECTOR	2	Optimize for:
ZGUESS	QUANT	1.00000E+003	Estimated Z (ohms)
EOC	QUANT	0	Open Circuit (V)
SEQUENCER	TOGGLE	TRUE	Run as Sequence
PSTATMODEL	IQUANT	5	Pstat Model
PSTATSECTION	LABEL	REF3000-16137	Pstat Section
PSTATSERIALNO	LABEL	16137	Pstat Serial Number
CTRLMODE	IQUANT	1	Control Mode
IESTAB	IQUANT	0	I/E Stability
CASPEED	IQUANT	1	Control Amp Speed
CONVENTION	IQUANT	1	Current Convention
ICHRANGE	IQUANT	2	Ich Range
ICHRANGEMODE	TOGGLE	F	Ich Auto Range
ICHOFFSETENABLE	TOGGLE	T	Ich Offset Enable
ICHOFFSET	QUANT	0	Ich Offset (V)
ICHFILTER	IQUANT	3	Ich Filter
VCHRANGE	IQUANT	2	Vch Range
VCHRANGEMODE	TOGGLE	F	Vch Auto Range
VCHOFFSETENABLE	TOGGLE	T	Vch Offset Enable
VCHOFFSET	QUANT	0	Vch Offset (V)
VCHFILTER	IQUANT	3	Vch Filter
ACHRANGE	IQUANT	2	Ach Range
ACHOFFSETENABLE	TOGGLE	F	Ach Offset Enable
ACHOFFSET	QUANT	0	Ach Offset (V)
ACHFILTER	IQUANT	3	Ach Filter
IERANGELOWERLIMIT	IQUANT	2	I/E Range Lower Limit
IERANGEMODE	TOGGLE	F	I/E AutoRange
IERANGE	IQUANT	11	I/E Range
POSFEEDENABLE	TOGGLE	F	Positive Feedback IR Comp
POSFEEDRESISTANCE	QUANT	0	Positive Feedback Resistance (ohm)
ACHSELECT	IQUANT	0	Ach Select
CABLEID	IQUANT	13	Cable ID
DCCALDATE	LABEL	7/31/2020	DC Calibration Date
ACCALDATE	LABEL	7/31/2020	AC Calibration Date
THERMOSELECT	IQUANT	1	Thermo Select
FRAMEWORKVERSION	QUANT	6.33	Framework Version
INSTRUMENTVERSION	LABEL	3.50	Instrument Version
COMPLIANCEVOLTAGE	IQUANT	0	Compliance Voltage
ZCURVE	TABLE
	Pt	Time	Freq	Zreal	Zimag	Zsig	Zmod	Zphz	Idc	Vdc	IERange
	#	s	Hz	ohm	ohm	V	ohm	°	A	V	#
	0	17	300046.9	713.001	-181.1857	1	735.6621	-14.25804	-8.737275E-005	0.0021443	9
	1	25	238359.4	762.2682	-168.6792	1	780.7083	-12.47767	3.777545E-006	0.001426	9
	2	42	189328.1	798.7664	-154.2587	1	813.5254	-10.93047	-1.769584E-006	-0.0017243	9
	3	50	150421.9	836.4711	-138.3754	1	847.8394	-9.39323	3.258594E-006	0.0015804	9
	4	56	119484.4	869.6039	-86.40427	1	873.8859	-5.674313	-9.3274E-006	-0.0078209	8
	5	63	94921.88	888.1295	-70.89198	1	890.9544	-4.563768	-2.677545E-006	-0.0027819	8
	6	65	75421.88	898.4334	-60.69029	1	900.481	-3.86453	-1.601678E-005	0.0080118	8
	7	68	59859.37	909.6586	-51.58268	1	911.12	-3.245512	1.478056E-005	-0.0066141	8
	8	70	47578.12	919.713	-42.13725	1	920.6778	-2.623209	-1.228489E-005	0.0080374	8
	9	73	37828.12	932.8027	-35.5995	1	933.4818	-2.185577	-6.450522E-006	0.0070705	8
	10	76	30046.88	943.0396	-31.75364	1	943.574	-1.928511	-1.318664E-005	0.0014916	8
	11	79	23859.38	953.275	-25.16029	1	953.607	-1.511886	-1.810433E-005	0.0047549	8
	12	82	18984.38	961.578	-21.67017	1	961.822	-1.291002	-1.442828E-005	0.0019484	8
	13	85	15046.87	973.761	-18.56966	1	973.938	-1.0925	3.667088E-006	-0.0048553	8
	14	88	11953.13	984.008	-15.83105	1	984.135	-0.9217147	1.492791E-005	-0.0004832	8
	15	90	9515.62	992.287	-13.80429	1	992.383	-0.7970235	-3.144456E-006	-0.0027304	8
	16	93	7546.875	1000.434	-9.497061	1	1000.479	-0.5438893	-1.260168E-005	0.0081567	8
	17	95	5928.309	1007.871	-8.902503	1	1007.91	-0.5060794	1.482382E-005	-0.0004471	8
	18	98	4733.456	1018.539	-10.86047	1	1018.597	-0.6109099	-9.092265E-006	-0.000531	8
	19	101	3796.875	1027.906	-6.411957	1	1027.926	-0.3573996	-1.841243E-005	0.0047174	8
	20	104	2987.132	1041.365	-12.04912	1	1041.435	-0.6629116	-2.760442E-006	-0.0029213	8
	21	107	2390.625	1052.776	-7.597994	1	1052.804	-0.4135023	-2.88122E-006	-0.0028107	8
	22	111	1884.191	1068.041	-18.27907	1	1068.198	-0.980497	-1.691604E-005	0.0032701	8
	23	114	1516.544	1078.642	-12.80758	1	1078.718	-0.6802866	1.566899E-005	-0.0069781	8
	24	118	1193.986	1092.078	-14.67126	1	1092.177	-0.7696798	-1.910741E-005	0.0076261	8
	25	121	946.5144	1104.797	-12.44615	1	1104.867	-0.6454414	1.908359E-005	-0.0067044	8
	26	123	751.7689	1112.747	-15.1961	1	1112.851	-0.7824044	2.095337E-005	-0.005941	8
	27	126	597.4265	1122.042	-24.03353	1	1122.299	-1.227057	-6.587046E-006	0.0073031	8
	28	129	477.4305	1132.584	-24.44591	1	1132.848	-1.236491	-1.060438E-007	0.0006713	8
	29	131	376.6741	1142.383	-29.87258	1	1142.774	-1.497906	-5.634294E-008	0.000652	8
	30	133	298.2954	1152.255	-36.56369	1	1152.835	-1.817516	-6.298281E-008	0.0006561	8
	31	135	237.7717	1162.773	-44.73624	1	1163.634	-2.203296	-5.675868E-008	0.0006437	8
	32	138	189.0121	1173.604	-55.05674	1	1174.894	-2.685922	-1.049413E-007	0.0006713	8
	33	140	150.2404	1184.707	-67.8664	1	1186.649	-3.278629	-8.333523E-008	0.0006571	8
	34	143	119.1737	1196.262	-83.98091	1	1199.206	-4.015734	-1.013479E-007	0.0006795	8
	35	145	95.0169	1208.37	-103.4705	1	1212.792	-4.894197	-1.138356E-007	0.0006602	8
	36	148	75.60484	1221.414	-127.9443	1	1228.097	-5.97998	-5.871087E-008	0.0006494	8
	37	150	54.50582	1237.029	-173.4824	1	1249.135	-7.98316	-1.184167E-007	0.0006879	8
	38	153	45.95588	1250.553	-203.4386	1	1266.993	-9.239872	-7.431874E-008	0.0006642	8
	39	155	37.20238	1265.587	-247.8821	1	1289.634	-11.08186	-8.692528E-008	0.0006621	8
	40	157	30.04808	1281.941	-302.6884	1	1317.192	-13.2852	-1.199533E-007	0.0006737	8
	41	160	23.91582	1300.621	-375.0966	1	1353.629	-16.08746	-1.221588E-007	0.0006351	8
	42	162	18.60119	1322.952	-475.0612	1	1405.662	-19.7528	6.973207E-008	0.0006499	8
	43	164	15.02404	1345.883	-578.675	1	1465.014	-23.26574	-1.363452E-007	0.0006486	8
	44	167	12.01923	1372.993	-711.2829	1	1546.296	-27.38655	-1.339108E-007	0.0006438	8
	45	169	9.450605	1408.203	-889.0251	1	1665.353	-32.265	-1.505727E-007	0.0006807	8
	46	172	7.512019	1448.72	-1099.969	1	1818.989	-37.2083	-1.227919E-007	0.0006779	8
	47	174	5.978954	1497.827	-1357.329	1	2021.344	-42.18283	-5.648327E-008	0.0006404	8
	48	177	4.734848	1558.532	-1683.935	1	2294.485	-47.21483	-6.742152E-008	0.0006762	8
	49	181	3.75601	1632.561	-2081.993	1	2645.742	-51.89881	-1.047341E-007	0.0006504	8
	50	184	3.004808	1720.544	-2552.984	1	3078.635	-56.02261	-8.494133E-008	0.0006729	8
	51	188	2.372217	1838.139	-3165.907	1	3660.836	-59.86038	-8.598863E-008	0.000714	8
	52	192	1.878005	1980.683	-3936.711	1	4406.904	-63.29159	-4.645761E-008	0.0006171	7
	53	197	1.512097	2134.993	-4792.176	1	5246.25	-65.98624	-2.558625E-008	0.0005882	7
	54	202	1.201923	2351.601	-5922.734	1	6372.504	-68.34462	-4.19404E-008	0.0006129	7
	55	208	0.956633	2608.038	-7290.435	1	7742.887	-70.31613	-4.120752E-008	-1.614309E-005	7
