EXPLAIN
TAG	EISPOT
TITLE	LABEL	Potentiostatic EIS	Test Identifier
DATE	LABEL	2/24/2021	Date
TIME	LABEL	12:11:03	Time
NOTES	NOTES	1	Notes...
	
PSTAT	PSTAT	REF3000-16137	Potentiostat
VDC	POTEN	0.00000E+000	T	DC Voltage (V)
FREQINIT	QUANT	3.00000E+005	Initial Freq. (Hz)
FREQFINAL	QUANT	1.00000E+000	Final Freq. (Hz)
PTSPERDEC	QUANT	1.00000E+001	Points/decade
VAC	QUANT	5.00000E+001	AC Voltage (mV rms)
AREA	QUANT	1.00000E+000	Sample Area (cm^2)
SPEED	SELECTOR	2	Optimize for:
ZGUESS	QUANT	1.00000E+003	Estimated Z (ohms)
EOC	QUANT	0	Open Circuit (V)
SEQUENCER	TOGGLE	TRUE	Run as Sequence
PSTATMODEL	IQUANT	5	Pstat Model
PSTATSECTION	LABEL	REF3000-16137	Pstat Section
PSTATSERIALNO	LABEL	16137	Pstat Serial Number
CTRLMODE	IQUANT	1	Control Mode
IESTAB	IQUANT	0	I/E Stability
CASPEED	IQUANT	1	Control Amp Speed
CONVENTION	IQUANT	1	Current Convention
ICHRANGE	IQUANT	2	Ich Range
ICHRANGEMODE	TOGGLE	F	Ich Auto Range
ICHOFFSETENABLE	TOGGLE	T	Ich Offset Enable
ICHOFFSET	QUANT	0	Ich Offset (V)
ICHFILTER	IQUANT	3	Ich Filter
VCHRANGE	IQUANT	2	Vch Range
VCHRANGEMODE	TOGGLE	F	Vch Auto Range
VCHOFFSETENABLE	TOGGLE	T	Vch Offset Enable
VCHOFFSET	QUANT	0	Vch Offset (V)
VCHFILTER	IQUANT	3	Vch Filter
ACHRANGE	IQUANT	2	Ach Range
ACHOFFSETENABLE	TOGGLE	F	Ach Offset Enable
ACHOFFSET	QUANT	0	Ach Offset (V)
ACHFILTER	IQUANT	3	Ach Filter
IERANGELOWERLIMIT	IQUANT	2	I/E Range Lower Limit
IERANGEMODE	TOGGLE	F	I/E AutoRange
IERANGE	IQUANT	11	I/E Range
POSFEEDENABLE	TOGGLE	F	Positive Feedback IR Comp
POSFEEDRESISTANCE	QUANT	0	Positive Feedback Resistance (ohm)
ACHSELECT	IQUANT	0	Ach Select
CABLEID	IQUANT	13	Cable ID
DCCALDATE	LABEL	7/31/2020	DC Calibration Date
ACCALDATE	LABEL	7/31/2020	AC Calibration Date
THERMOSELECT	IQUANT	1	Thermo Select
FRAMEWORKVERSION	QUANT	6.33	Framework Version
INSTRUMENTVERSION	LABEL	3.50	Instrument Version
COMPLIANCEVOLTAGE	IQUANT	0	Compliance Voltage
ZCURVE	TABLE
	Pt	Time	Freq	Zreal	Zimag	Zsig	Zmod	Zphz	Idc	Vdc	IERange
	#	s	Hz	ohm	ohm	V	ohm	°	A	V	#
	0	10	300046.9	2.464088	2.214288	1	3.312824	41.94361	-2.210842E-005	-0.000206	11
	1	13	238359.4	2.430444	1.763975	1	3.003109	35.9715	-1.81365E-005	-0.0001403	11
	2	17	189328.1	2.407879	1.393782	1	2.782177	30.06407	-1.923995E-005	0.0001573	11
	3	19	150421.9	2.434345	0.957248	1	2.61579	21.46605	-0.0002244	0.0002186	12
	4	23	119484.4	2.410186	0.7412452	1	2.521595	17.09512	-8.880912E-005	0.0002504	12
	5	26	94921.88	2.37465	0.6441193	1	2.460457	15.17621	-3.320247E-005	0.000527	11
	6	29	75421.88	2.383422	0.4077869	1	2.418055	9.7089	-6.717799E-005	0.0004784	12
	7	32	59859.37	2.382801	0.2774685	1	2.398902	6.641972	-4.986665E-005	0.0005688	12
	8	36	47578.12	2.384472	0.1626787	1	2.390015	3.902911	-4.183994E-005	0.0006038	12
	9	40	37828.12	2.388809	0.05704	1	2.38949	1.367849	-0.0001066	0.0006128	12
	10	43	30046.88	2.394567	-0.0152767	1	2.394616	-0.3655273	-2.712799E-005	0.0006805	11
	11	46	23859.38	2.40252	-0.1223369	1	2.405633	-2.914998	-2.725804E-005	0.0006874	11
	12	48	18984.38	2.411996	-0.2331775	1	2.423241	-5.521856	-1.71339E-005	0.000698	11
	13	51	15046.87	2.422881	-0.3557903	1	2.448864	-8.35395	-2.760884E-005	0.0006636	11
	14	53	11953.13	2.437899	-0.4934435	1	2.487335	-11.44238	-4.176867E-005	0.000659	11
	15	55	9515.62	2.456147	-0.6512594	1	2.541023	-14.85052	-4.01024E-005	0.0006615	11
	16	57	7546.875	2.479768	-0.8416564	1	2.618709	-18.74769	-2.696766E-006	0.0007141	11
	17	60	5928.309	2.508914	-1.080159	1	2.731555	-23.29325	2.387058E-005	0.000723	11
	18	62	4733.456	2.543433	-1.350725	1	2.879846	-27.97114	2.316674E-005	0.0007212	11
	19	64	3796.875	2.584514	-1.672492	1	3.078464	-32.90774	-4.738849E-005	0.0006643	11
	20	67	2987.132	2.641059	-2.100926	1	3.374771	-38.50176	-1.063303E-006	0.0007123	11
	21	69	2390.625	2.705612	-2.592349	1	3.74708	-43.77528	-1.028525E-005	0.0007139	11
	22	71	1884.191	2.795364	-3.239814	1	4.279071	-49.21185	-1.900878E-005	0.0007058	10
	23	74	1516.544	2.894724	-3.96317	1	4.907763	-53.85538	-9.108739E-006	0.0006777	10
	24	76	1193.986	3.030805	-4.943762	1	5.798842	-58.48935	1.551282E-005	0.0006826	10
	25	78	946.5144	3.196752	-6.125586	1	6.90956	-62.44135	1.61306E-005	0.0006621	10
	26	81	751.7689	3.405737	-7.568356	1	8.29934	-65.7724	-2.497782E-005	0.0006895	10
	27	83	597.4265	3.663136	-9.338857	1	10.03159	-68.58257	-2.355849E-005	0.0006937	10
	28	85	477.4305	3.983335	-11.4644	1	12.13669	-70.84008	-1.366361E-006	0.0006879	10
	29	88	376.6741	4.402298	-14.23678	1	14.90189	-72.81734	-1.12855E-006	0.000684	10
	30	90	298.2954	4.922164	-17.61591	1	18.29066	-74.38879	-1.260516E-006	0.0006872	10
	31	92	237.7717	5.562554	-21.66399	1	22.36673	-75.59953	-1.135488E-006	0.0006841	10
	32	95	189.0121	6.38043	-26.70284	1	27.45454	-76.5616	-1.526635E-006	0.0006836	10
	33	97	150.2404	7.428719	-32.9122	1	33.74017	-77.28073	-9.180441E-007	0.000685	10
	34	100	119.1737	8.793681	-40.61786	1	41.55887	-77.78411	-1.178654E-006	0.0006798	10
	35	102	95.0169	10.50746	-49.79716	1	50.89366	-78.08507	1.27215E-006	8.328951E-005	9
	36	104	75.60484	12.76912	-61.17066	1	62.4892	-78.20906	1.1121E-006	8.222014E-005	9
	37	107	54.50582	17.21798	-81.87064	1	83.66158	-78.12337	9.553537E-007	7.446826E-005	9
	38	110	45.95588	20.27005	-95.1589	1	97.2938	-77.97499	1.318565E-006	9.229041E-005	9
	39	112	37.20238	24.86169	-114.3864	1	117.0571	-77.73758	1.2606E-006	8.227077E-005	9
	40	114	30.04808	30.55247	-137.4881	1	140.8419	-77.47137	1.208849E-006	7.611221E-005	9
	41	117	23.91582	37.94255	-166.9172	1	171.1754	-77.19351	1.102879E-006	7.563422E-005	9
	42	119	18.60119	47.88929	-206.5177	1	211.9975	-76.94446	1.324659E-006	7.783703E-005	9
	43	121	15.02404	57.69327	-247.0936	1	253.7395	-76.8576	1.339631E-006	7.726447E-005	9
	44	124	12.01923	69.79935	-298.1886	1	306.2489	-76.82553	1.395107E-006	8.141799E-005	9
	45	126	9.450605	84.48154	-365.0374	1	374.6857	-76.9693	1.338951E-006	6.866745E-005	9
	46	129	7.512019	100.5693	-441.7273	1	453.0311	-77.17394	7.142288E-007	0.0006455	8
	47	131	5.978954	119.3611	-536.5849	1	549.7003	-77.45898	7.825413E-007	0.000654	8
	48	134	4.734848	141.0915	-656.7788	1	671.7628	-77.87579	7.069321E-007	0.0006546	8
	49	138	3.75601	166.0202	-803.5356	1	820.5073	-78.32626	7.826506E-007	0.0006737	8
	50	141	3.004808	194.4565	-978.429	1	997.565	-78.7593	7.17421E-007	0.0006931	8
	51	145	2.372217	230.5707	-1208.457	1	1230.256	-79.19793	6.917762E-007	0.0007133	8
	52	149	1.878005	276.4852	-1492.1	1	1517.5	-79.5022	7.132321E-007	0.0006304	8
	53	154	1.512097	330.6683	-1813.912	1	1843.805	-79.66867	7.546838E-007	0.0007165	8
	54	159	1.201923	399.8764	-2242.443	1	2277.817	-79.88919	7.123181E-007	0.0006182	8
	55	165	0.956633	493.2369	-2765.164	1	2808.81	-79.88622	6.806694E-007	9.979034E-006	8
