EXPLAIN
TAG	EISPOT
TITLE	LABEL	Potentiostatic EIS	Test Identifier
DATE	LABEL	2/24/2021	Date
TIME	LABEL	11:39:48	Time
NOTES	NOTES	1	Notes...
	
PSTAT	PSTAT	REF3000-16137	Potentiostat
VDC	POTEN	0.00000E+000	T	DC Voltage (V)
FREQINIT	QUANT	3.00000E+005	Initial Freq. (Hz)
FREQFINAL	QUANT	1.00000E+000	Final Freq. (Hz)
PTSPERDEC	QUANT	1.00000E+001	Points/decade
VAC	QUANT	5.00000E+001	AC Voltage (mV rms)
AREA	QUANT	1.00000E+000	Sample Area (cm^2)
SPEED	SELECTOR	2	Optimize for:
ZGUESS	QUANT	1.00000E+003	Estimated Z (ohms)
EOC	QUANT	0	Open Circuit (V)
SEQUENCER	TOGGLE	TRUE	Run as Sequence
PSTATMODEL	IQUANT	5	Pstat Model
PSTATSECTION	LABEL	REF3000-16137	Pstat Section
PSTATSERIALNO	LABEL	16137	Pstat Serial Number
CTRLMODE	IQUANT	1	Control Mode
IESTAB	IQUANT	0	I/E Stability
CASPEED	IQUANT	1	Control Amp Speed
CONVENTION	IQUANT	1	Current Convention
ICHRANGE	IQUANT	2	Ich Range
ICHRANGEMODE	TOGGLE	F	Ich Auto Range
ICHOFFSETENABLE	TOGGLE	T	Ich Offset Enable
ICHOFFSET	QUANT	0	Ich Offset (V)
ICHFILTER	IQUANT	3	Ich Filter
VCHRANGE	IQUANT	2	Vch Range
VCHRANGEMODE	TOGGLE	F	Vch Auto Range
VCHOFFSETENABLE	TOGGLE	T	Vch Offset Enable
VCHOFFSET	QUANT	0	Vch Offset (V)
VCHFILTER	IQUANT	3	Vch Filter
ACHRANGE	IQUANT	2	Ach Range
ACHOFFSETENABLE	TOGGLE	F	Ach Offset Enable
ACHOFFSET	QUANT	0	Ach Offset (V)
ACHFILTER	IQUANT	3	Ach Filter
IERANGELOWERLIMIT	IQUANT	2	I/E Range Lower Limit
IERANGEMODE	TOGGLE	F	I/E AutoRange
IERANGE	IQUANT	11	I/E Range
POSFEEDENABLE	TOGGLE	F	Positive Feedback IR Comp
POSFEEDRESISTANCE	QUANT	0	Positive Feedback Resistance (ohm)
ACHSELECT	IQUANT	0	Ach Select
CABLEID	IQUANT	13	Cable ID
DCCALDATE	LABEL	7/31/2020	DC Calibration Date
ACCALDATE	LABEL	7/31/2020	AC Calibration Date
THERMOSELECT	IQUANT	1	Thermo Select
FRAMEWORKVERSION	QUANT	6.33	Framework Version
INSTRUMENTVERSION	LABEL	3.50	Instrument Version
COMPLIANCEVOLTAGE	IQUANT	0	Compliance Voltage
ZCURVE	TABLE
	Pt	Time	Freq	Zreal	Zimag	Zsig	Zmod	Zphz	Idc	Vdc	IERange
	#	s	Hz	ohm	ohm	V	ohm	°	A	V	#
	0	10	300046.9	1.574124	2.259675	1	2.753906	55.13834	-8.802843E-005	-0.0003974	11
	1	13	238359.4	1.657137	1.64296	1	2.333543	44.75387	-0.0001601	-0.0002632	12
	2	17	189328.1	1.50098	1.419554	1	2.065932	43.40297	-2.778915E-005	3.864442E-005	11
	3	20	150421.9	1.48258	1.107508	1	1.850572	36.76023	6.952482E-005	4.345214E-005	11
	4	22	119484.4	1.465768	0.8618556	1	1.700374	30.45506	5.42389E-005	0.0002463	11
	5	25	94921.88	1.456659	0.664003	1	1.60086	24.50539	9.545418E-006	0.0004103	11
	6	27	75421.88	1.45323	0.4944082	1	1.53503	18.78899	1.334976E-005	0.0004486	11
	7	30	59859.37	1.451547	0.3524769	1	1.49373	13.64887	1.580254E-005	0.00055	11
	8	32	47578.12	1.451684	0.2295376	1	1.469719	8.985119	-5.863672E-006	0.0005522	11
	9	35	37828.12	1.453909	0.1207932	1	1.458918	4.749321	-5.190282E-005	0.0005856	11
	10	38	30046.88	1.458587	0.0187662	1	1.458708	0.7371275	-9.615583E-007	0.0006412	11
	11	40	23859.38	1.463087	-0.0812484	1	1.465341	-3.178494	-4.475883E-005	0.0006416	11
	12	42	18984.38	1.471006	-0.1824326	1	1.482275	-7.069663	-2.797925E-005	0.0006897	11
	13	45	15046.87	1.479896	-0.2928083	1	1.508585	-11.19184	-5.080536E-005	0.0006741	11
	14	47	11953.13	1.492497	-0.4144466	1	1.548971	-15.51927	-3.127582E-005	0.0007017	11
	15	49	9515.62	1.506828	-0.552486	1	1.604921	-20.13572	1.518135E-005	0.0007217	11
	16	52	7546.875	1.526478	-0.7181842	1	1.686987	-25.19625	-2.998686E-005	0.0007106	11
	17	54	5928.309	1.55129	-0.9247549	1	1.80601	-30.80001	-1.413682E-005	0.0006921	11
	18	56	4733.456	1.581106	-1.158182	1	1.959919	-36.22328	-3.316669E-005	0.0006959	11
	19	59	3796.875	1.61837	-1.434859	1	2.162855	-41.56043	-3.398738E-005	0.0007061	11
	20	61	2987.132	1.668892	-1.801755	1	2.455915	-47.19232	-2.93629E-005	0.000706	11
	21	63	2390.625	1.728304	-2.219059	1	2.812696	-52.08692	-2.165646E-007	0.0006898	11
	22	66	1884.191	1.808748	-2.76866	1	3.307121	-56.84366	-2.628781E-005	0.0007003	11
	23	68	1516.544	1.900258	-3.381812	1	3.879128	-60.66814	-1.242332E-005	0.0007025	11
	24	70	1193.986	2.027871	-4.2147	1	4.677174	-64.30582	-2.007103E-005	0.0006785	10
	25	73	946.5144	2.183826	-5.211437	1	5.650502	-67.26412	-1.519026E-005	0.0006893	10
	26	75	751.7689	2.375005	-6.42978	1	6.854393	-69.72699	-2.199366E-005	0.0006903	10
	27	77	597.4265	2.618217	-7.924516	1	8.345839	-71.71673	-1.819009E-005	0.0006924	10
	28	80	477.4305	2.928692	-9.71371	1	10.14561	-73.22189	-1.37502E-006	0.000678	10
	29	82	376.6741	3.343471	-12.03986	1	12.49548	-74.48002	-1.427998E-006	0.0006793	10
	30	84	298.2954	3.871858	-14.86214	1	15.3582	-75.39797	-1.503534E-006	0.0006846	10
	31	87	237.7717	4.536416	-18.22004	1	18.77629	-76.01881	-1.913805E-006	0.0006824	10
	32	89	189.0121	5.405457	-22.36577	1	23.00971	-76.41306	1.861761E-006	0.0006516	10
	33	91	150.2404	6.533873	-27.40275	1	28.17095	-76.58889	-2.188029E-006	0.0006827	10
	34	94	119.1737	7.996201	-33.57602	1	34.51504	-76.60442	-9.137199E-007	0.0006356	10
	35	96	95.0169	9.80492	-40.84435	1	42.00473	-76.50125	-1.810362E-006	0.0006808	10
	36	99	75.60484	12.05731	-49.59911	1	51.04361	-76.33669	1.154746E-006	7.719668E-005	9
	37	101	54.50582	16.17161	-65.36146	1	67.33232	-76.10307	1.027123E-006	7.789595E-005	9
	38	104	45.95588	18.7704	-75.41443	1	77.71528	-76.02327	2.073894E-006	3.990813E-005	9
	39	106	37.20238	22.46534	-89.9734	1	92.73566	-75.98055	1.378854E-006	7.847212E-005	9
	40	108	30.04808	26.72164	-107.4588	1	110.7314	-76.03557	1.215292E-006	8.189325E-005	9
	41	111	23.91582	32.09393	-130.2326	1	134.1289	-76.15614	1.073349E-006	8.28216E-005	9
	42	113	18.60119	39.01281	-160.8976	1	165.5598	-76.37054	1.369187E-006	9.139188E-005	9
	43	116	15.02404	45.82135	-192.9675	1	198.3332	-76.64215	1.356818E-006	7.40616E-005	9
	44	118	12.01923	54.23501	-233.7506	1	239.96	-76.93732	1.174801E-006	8.163942E-005	9
	45	120	9.450605	65.10402	-287.9711	1	295.2387	-77.26083	1.375863E-006	8.922396E-005	9
	46	123	7.512019	77.69318	-352.4598	1	360.9212	-77.56901	1.557873E-006	0.0000974	9
	47	126	5.978954	93.02969	-429.6169	1	439.5739	-77.78175	9.822289E-007	0.0006578	8
	48	129	4.734848	114.224	-529.5393	1	541.7186	-77.82755	9.300123E-007	0.0006736	8
	49	132	3.75601	141.9755	-652.0387	1	667.3167	-77.7161	9.317491E-007	0.0006569	8
	50	135	3.004808	178.1795	-796.5701	1	816.2548	-77.39144	8.646054E-007	0.0006957	8
	51	139	2.372217	230.9588	-984.022	1	1010.763	-76.79125	8.680581E-007	0.0007066	8
	52	143	1.878005	307.148	-1210.65	1	1249.005	-75.76413	8.80902E-007	0.0006328	8
	53	148	1.512097	404.604	-1461.372	1	1516.349	-74.52441	8.749112E-007	0.0007514	8
	54	153	1.201923	545.9177	-1778.861	1	1860.745	-72.93919	9.024911E-007	0.0006211	8
	55	160	0.956633	741.3792	-2146.205	1	2270.647	-70.94318	7.457786E-007	1.266335E-005	8
