EXPLAIN
TAG	EISPOT
TITLE	LABEL	Potentiostatic EIS	Test Identifier
DATE	LABEL	2/24/2021	Date
TIME	LABEL	11:53:57	Time
NOTES	NOTES	1	Notes...
	
PSTAT	PSTAT	REF3000-16137	Potentiostat
VDC	POTEN	0.00000E+000	T	DC Voltage (V)
FREQINIT	QUANT	3.00000E+005	Initial Freq. (Hz)
FREQFINAL	QUANT	1.00000E+000	Final Freq. (Hz)
PTSPERDEC	QUANT	1.00000E+001	Points/decade
VAC	QUANT	5.00000E+001	AC Voltage (mV rms)
AREA	QUANT	1.00000E+000	Sample Area (cm^2)
SPEED	SELECTOR	2	Optimize for:
ZGUESS	QUANT	1.00000E+003	Estimated Z (ohms)
EOC	QUANT	0	Open Circuit (V)
SEQUENCER	TOGGLE	TRUE	Run as Sequence
PSTATMODEL	IQUANT	5	Pstat Model
PSTATSECTION	LABEL	REF3000-16137	Pstat Section
PSTATSERIALNO	LABEL	16137	Pstat Serial Number
CTRLMODE	IQUANT	1	Control Mode
IESTAB	IQUANT	0	I/E Stability
CASPEED	IQUANT	1	Control Amp Speed
CONVENTION	IQUANT	1	Current Convention
ICHRANGE	IQUANT	2	Ich Range
ICHRANGEMODE	TOGGLE	F	Ich Auto Range
ICHOFFSETENABLE	TOGGLE	T	Ich Offset Enable
ICHOFFSET	QUANT	0	Ich Offset (V)
ICHFILTER	IQUANT	3	Ich Filter
VCHRANGE	IQUANT	2	Vch Range
VCHRANGEMODE	TOGGLE	F	Vch Auto Range
VCHOFFSETENABLE	TOGGLE	T	Vch Offset Enable
VCHOFFSET	QUANT	0	Vch Offset (V)
VCHFILTER	IQUANT	3	Vch Filter
ACHRANGE	IQUANT	2	Ach Range
ACHOFFSETENABLE	TOGGLE	F	Ach Offset Enable
ACHOFFSET	QUANT	0	Ach Offset (V)
ACHFILTER	IQUANT	3	Ach Filter
IERANGELOWERLIMIT	IQUANT	2	I/E Range Lower Limit
IERANGEMODE	TOGGLE	F	I/E AutoRange
IERANGE	IQUANT	11	I/E Range
POSFEEDENABLE	TOGGLE	F	Positive Feedback IR Comp
POSFEEDRESISTANCE	QUANT	0	Positive Feedback Resistance (ohm)
ACHSELECT	IQUANT	0	Ach Select
CABLEID	IQUANT	13	Cable ID
DCCALDATE	LABEL	7/31/2020	DC Calibration Date
ACCALDATE	LABEL	7/31/2020	AC Calibration Date
THERMOSELECT	IQUANT	1	Thermo Select
FRAMEWORKVERSION	QUANT	6.33	Framework Version
INSTRUMENTVERSION	LABEL	3.50	Instrument Version
COMPLIANCEVOLTAGE	IQUANT	0	Compliance Voltage
ZCURVE	TABLE
	Pt	Time	Freq	Zreal	Zimag	Zsig	Zmod	Zphz	Idc	Vdc	IERange
	#	s	Hz	ohm	ohm	V	ohm	°	A	V	#
	0	10	300046.9	1.816197	2.235279	1	2.880112	50.90564	1.491373E-005	-0.0002954	11
	1	13	238359.4	1.899618	1.608801	1	2.489335	40.26152	-3.169538E-005	-0.00023	12
	2	18	189328.1	1.825283	1.282852	1	2.231001	35.10045	-0.0001231	7.394787E-005	12
	3	21	150421.9	1.726298	1.101488	1	2.047775	32.54047	4.449954E-006	0.0002673	11
	4	24	119484.4	1.710573	0.8561208	1	1.912852	26.5874	1.403437E-005	0.0003927	11
	5	26	94921.88	1.702476	0.6553045	1	1.824239	21.05235	-6.376993E-007	0.0004343	11
	6	29	75421.88	1.697997	0.4863013	1	1.766263	15.98155	-1.528879E-005	0.0004543	11
	7	31	59859.37	1.697986	0.3432489	1	1.732333	11.42836	7.018027E-006	0.0005456	11
	8	34	47578.12	1.699436	0.2201254	1	1.713633	7.380343	8.478793E-006	0.0005981	11
	9	36	37828.12	1.702798	0.1094691	1	1.706313	3.678356	1.71851E-005	0.0006523	11
	10	39	30046.88	1.707186	0.0052618	1	1.707194	0.1765933	-5.518011E-005	0.0006247	11
	11	42	23859.38	1.71382	-0.097639	1	1.7166	-3.260705	1.32674E-005	0.000717	11
	12	44	18984.38	1.721984	-0.2027754	1	1.733882	-6.716043	1.557193E-005	0.0007238	11
	13	46	15046.87	1.732126	-0.3180704	1	1.761087	-10.4053	-5.396168E-005	0.0006808	11
	14	48	11953.13	1.745031	-0.4460653	1	1.80114	-14.33892	-4.936832E-005	0.0006659	11
	15	51	9515.62	1.762169	-0.5920497	1	1.858968	-18.57121	-3.112773E-005	0.000706	11
	16	53	7546.875	1.782061	-0.7673898	1	1.940265	-23.29764	4.955266E-006	0.0007213	11
	17	55	5928.309	1.808616	-0.986598	1	2.06021	-28.61242	1.69071E-005	0.0007276	11
	18	58	4733.456	1.839991	-1.234884	1	2.215966	-33.86699	1.595375E-005	0.0007315	11
	19	60	3796.875	1.879185	-1.529638	1	2.423041	-39.14523	-1.659827E-005	0.0007113	11
	20	62	2987.132	1.931294	-1.922759	1	2.725233	-44.87312	-1.375453E-005	0.0007071	11
	21	65	2390.625	1.992985	-2.369141	1	3.095936	-49.92855	1.679615E-005	0.0007131	11
	22	67	1884.191	2.074989	-2.958253	1	3.613425	-54.95326	1.696406E-005	0.0007237	11
	23	69	1516.544	2.172212	-3.619191	1	4.221025	-59.02812	-1.933595E-005	0.0006907	10
	24	72	1193.986	2.302561	-4.509955	1	5.063742	-62.95338	-3.894805E-006	0.0006831	10
	25	74	946.5144	2.466143	-5.577194	1	6.098111	-66.14578	2.124971E-005	0.0006716	10
	26	76	751.7689	2.660946	-6.890524	1	7.386471	-68.8847	-2.210826E-005	0.0006838	10
	27	79	597.4265	2.911535	-8.498231	1	8.983149	-71.08829	2.071843E-005	0.0006738	10
	28	81	477.4305	3.220064	-10.42391	1	10.90994	-72.83349	-1.621555E-006	0.0006785	10
	29	83	376.6741	3.633048	-12.93376	1	13.43433	-74.31013	-2.129327E-006	0.0006809	10
	30	86	298.2954	4.153794	-15.98755	1	16.51834	-75.43575	-1.245748E-006	0.0006781	10
	31	88	237.7717	4.80315	-19.63469	1	20.21364	-76.25393	-2.106341E-006	0.0006763	10
	32	90	189.0121	5.653041	-24.16024	1	24.81278	-76.83078	-1.277618E-006	0.0006759	10
	33	93	150.2404	6.755548	-29.70232	1	30.46088	-77.18652	-1.346009E-006	0.0006773	10
	34	95	119.1737	8.201257	-36.52833	1	37.43768	-77.34592	-1.729092E-006	0.0006784	10
	35	98	95.0169	10.01515	-44.57898	1	45.69014	-77.33812	1.279293E-006	9.037599E-005	9
	36	100	75.60484	12.3652	-54.43758	1	55.82426	-77.20272	1.079523E-006	7.786075E-005	9
	37	103	54.50582	16.81386	-72.15387	1	74.08702	-76.88258	9.78887E-007	7.614798E-005	9
	38	105	45.95588	19.68702	-83.4056	1	85.69757	-76.71902	1.469646E-006	8.15638E-005	9
	39	108	37.20238	23.88132	-99.7151	1	102.535	-76.53159	1.251032E-006	7.361868E-005	9
	40	110	30.04808	28.8446	-119.3258	1	122.7626	-76.4106	1.145115E-006	7.521349E-005	9
	41	112	23.91582	34.86199	-144.224	1	148.3776	-76.41106	1.010231E-006	7.225912E-005	9
	42	115	18.60119	42.87086	-178.195	1	183.2795	-76.47263	1.182873E-006	7.709501E-005	9
	43	117	15.02404	50.70066	-213.3336	1	219.2756	-76.63116	1.296145E-006	7.808443E-005	9
	44	119	12.01923	60.13014	-257.817	1	264.7362	-76.8717	1.173109E-006	7.272026E-005	9
	45	122	9.450605	71.68842	-316.6829	1	324.6957	-77.24477	1.233824E-006	8.524948E-005	9
	46	124	7.512019	84.83059	-386.6314	1	395.8283	-77.62486	1.394858E-006	7.74141E-005	9
	47	127	5.978954	99.6724	-470.0413	1	480.4929	-78.02776	7.683985E-007	0.0006571	8
	48	130	4.734848	118.8887	-578.5319	1	590.6214	-78.38734	8.631752E-007	0.0006547	8
	49	133	3.75601	142.3114	-711.8716	1	725.9572	-78.69493	7.556777E-007	0.0006557	8
	50	137	3.004808	171.4469	-870.1703	1	886.8993	-78.85396	8.493809E-007	0.0006405	8
	51	140	2.372217	213.0702	-1076.906	1	1097.782	-78.80835	8.233628E-007	0.0006527	8
	52	145	1.878005	269.9138	-1334.39	1	1361.415	-78.56479	7.493945E-007	0.000656	8
	53	149	1.512097	339.1845	-1625.08	1	1660.099	-78.21055	7.886125E-007	0.0005518	8
	54	155	1.201923	442.8123	-2001.254	1	2049.658	-77.52333	7.498708E-007	0.0006684	8
	55	161	0.956633	584.0466	-2454.716	1	2523.24	-76.61655	7.261323E-007	1.853648E-005	8
