EXPLAIN
TAG	EISPOT
TITLE	LABEL	Potentiostatic EIS	Test Identifier
DATE	LABEL	2/24/2021	Date
TIME	LABEL	11:48:16	Time
NOTES	NOTES	1	Notes...
	
PSTAT	PSTAT	REF3000-16137	Potentiostat
VDC	POTEN	0.00000E+000	T	DC Voltage (V)
FREQINIT	QUANT	3.00000E+005	Initial Freq. (Hz)
FREQFINAL	QUANT	1.00000E+000	Final Freq. (Hz)
PTSPERDEC	QUANT	1.00000E+001	Points/decade
VAC	QUANT	5.00000E+001	AC Voltage (mV rms)
AREA	QUANT	1.00000E+000	Sample Area (cm^2)
SPEED	SELECTOR	2	Optimize for:
ZGUESS	QUANT	1.00000E+003	Estimated Z (ohms)
EOC	QUANT	0	Open Circuit (V)
SEQUENCER	TOGGLE	TRUE	Run as Sequence
PSTATMODEL	IQUANT	5	Pstat Model
PSTATSECTION	LABEL	REF3000-16137	Pstat Section
PSTATSERIALNO	LABEL	16137	Pstat Serial Number
CTRLMODE	IQUANT	1	Control Mode
IESTAB	IQUANT	0	I/E Stability
CASPEED	IQUANT	1	Control Amp Speed
CONVENTION	IQUANT	1	Current Convention
ICHRANGE	IQUANT	2	Ich Range
ICHRANGEMODE	TOGGLE	F	Ich Auto Range
ICHOFFSETENABLE	TOGGLE	T	Ich Offset Enable
ICHOFFSET	QUANT	0	Ich Offset (V)
ICHFILTER	IQUANT	3	Ich Filter
VCHRANGE	IQUANT	2	Vch Range
VCHRANGEMODE	TOGGLE	F	Vch Auto Range
VCHOFFSETENABLE	TOGGLE	T	Vch Offset Enable
VCHOFFSET	QUANT	0	Vch Offset (V)
VCHFILTER	IQUANT	3	Vch Filter
ACHRANGE	IQUANT	2	Ach Range
ACHOFFSETENABLE	TOGGLE	F	Ach Offset Enable
ACHOFFSET	QUANT	0	Ach Offset (V)
ACHFILTER	IQUANT	3	Ach Filter
IERANGELOWERLIMIT	IQUANT	2	I/E Range Lower Limit
IERANGEMODE	TOGGLE	F	I/E AutoRange
IERANGE	IQUANT	11	I/E Range
POSFEEDENABLE	TOGGLE	F	Positive Feedback IR Comp
POSFEEDRESISTANCE	QUANT	0	Positive Feedback Resistance (ohm)
ACHSELECT	IQUANT	0	Ach Select
CABLEID	IQUANT	13	Cable ID
DCCALDATE	LABEL	7/31/2020	DC Calibration Date
ACCALDATE	LABEL	7/31/2020	AC Calibration Date
THERMOSELECT	IQUANT	1	Thermo Select
FRAMEWORKVERSION	QUANT	6.33	Framework Version
INSTRUMENTVERSION	LABEL	3.50	Instrument Version
COMPLIANCEVOLTAGE	IQUANT	0	Compliance Voltage
ZCURVE	TABLE
	Pt	Time	Freq	Zreal	Zimag	Zsig	Zmod	Zphz	Idc	Vdc	IERange
	#	s	Hz	ohm	ohm	V	ohm	°	A	V	#
	0	10	300046.9	1.688177	2.232191	1	2.798682	52.90025	4.635686E-005	-0.0002288	11
	1	14	238359.4	1.775219	1.628172	1	2.408806	42.52602	-0.0001638	-0.0003387	12
	2	18	189328.1	1.700213	1.29742	1	2.138696	37.34698	-0.0001713	-1.024557E-006	12
	3	22	150421.9	1.593335	1.107143	1	1.940227	34.79384	7.568048E-005	0.0001447	11
	4	24	119484.4	1.584094	0.8574978	1	1.801293	28.42745	6.832571E-005	0.0002297	11
	5	27	94921.88	1.577916	0.6595855	1	1.710226	22.68544	-9.43791E-006	0.000407	11
	6	29	75421.88	1.57429	0.491182	1	1.649136	17.32804	-3.150991E-005	0.0004611	11
	7	32	59859.37	1.572893	0.3477952	1	1.610886	12.46851	-3.68262E-005	0.0005279	11
	8	34	47578.12	1.57422	0.2243752	1	1.59013	8.111788	1.445909E-005	0.0006071	11
	9	37	37828.12	1.577506	0.1146547	1	1.581667	4.157005	-9.496121E-006	0.0006276	11
	10	39	30046.88	1.581158	0.0111055	1	1.581197	0.4024205	-4.409899E-005	0.0006198	11
	11	42	23859.38	1.587312	-0.0903483	1	1.589881	-3.257707	-6.027334E-005	0.0006413	11
	12	44	18984.38	1.594979	-0.1938308	1	1.606713	-6.928928	-3.939243E-005	0.0006608	11
	13	46	15046.87	1.606017	-0.3068357	1	1.635065	-10.81623	-2.885427E-005	0.0006966	11
	14	49	11953.13	1.617942	-0.4321754	1	1.674667	-14.95536	-4.703252E-005	0.0006686	11
	15	51	9515.62	1.634465	-0.5747133	1	1.732562	-19.37277	-8.949725E-006	0.0007089	11
	16	53	7546.875	1.654256	-0.7454531	1	1.81446	-24.25763	2.479102E-006	0.0007127	11
	17	56	5928.309	1.680007	-0.959643	1	1.934771	-29.73559	-4.895714E-006	0.0007151	11
	18	58	4733.456	1.711122	-1.201881	1	2.091042	-35.08396	-3.961182E-005	0.0007019	11
	19	60	3796.875	1.748319	-1.488575	1	2.296187	-40.41214	-5.439986E-005	0.0006794	11
	20	63	2987.132	1.800403	-1.870545	1	2.596226	-46.09464	-2.516008E-005	0.0007012	11
	21	65	2390.625	1.863432	-2.305112	1	2.964106	-51.04823	5.115097E-006	0.0007095	11
	22	67	1884.191	1.944135	-2.87673	1	3.472065	-55.94862	1.895694E-005	0.0007288	11
	23	70	1516.544	2.036577	-3.516162	1	4.063378	-59.92039	-3.595894E-005	0.0006947	11
	24	72	1193.986	2.168117	-4.382442	1	4.889431	-63.67711	2.202712E-005	0.0006824	10
	25	74	946.5144	2.323447	-5.42446	1	5.901116	-66.8132	2.039433E-005	0.0006828	10
	26	77	751.7689	2.523168	-6.694279	1	7.154002	-69.34786	-1.559747E-005	0.0006862	10
	27	79	597.4265	2.772835	-8.24886	1	8.702432	-71.42005	6.860198E-006	0.0006593	10
	28	81	477.4305	3.079785	-10.11939	1	10.57767	-73.07264	-1.558167E-006	0.0006816	10
	29	84	376.6741	3.493813	-12.55032	1	13.02755	-74.44363	-1.837671E-006	0.0006811	10
	30	86	298.2954	4.018318	-15.5061	1	16.0183	-75.47172	-1.51134E-006	0.0006864	10
	31	88	237.7717	4.676742	-19.03095	1	19.59716	-76.19349	-1.488639E-006	0.0006784	10
	32	91	189.0121	5.537602	-23.39477	1	24.04122	-76.68304	-2.189658E-006	0.0006856	10
	33	93	150.2404	6.656041	-28.726	1	29.48705	-76.95433	-1.631531E-006	0.0006812	10
	34	96	119.1737	8.118427	-35.27004	1	36.19233	-77.03749	-1.802519E-006	0.0006788	10
	35	98	95.0169	9.94	-42.96095	1	44.09589	-76.97255	1.298375E-006	7.832266E-005	9
	36	100	75.60484	12.2675	-52.35592	1	53.77391	-76.81293	1.084364E-006	8.240755E-005	9
	37	103	54.50582	16.59212	-69.19397	1	71.15549	-76.51557	1.183458E-006	6.021031E-005	9
	38	106	45.95588	19.36197	-79.90719	1	82.21949	-76.37942	1.420275E-006	8.48453E-005	9
	39	108	37.20238	23.31428	-95.4145	1	98.2216	-76.26898	1.584697E-006	6.1656E-005	9
	40	110	30.04808	27.99823	-114.1459	1	117.5295	-76.21832	1.015766E-006	8.152863E-005	9
	41	113	23.91582	33.75481	-138.073	1	142.1392	-76.26231	1.144282E-006	7.896232E-005	9
	42	115	18.60119	41.1988	-170.5598	1	175.4651	-76.4203	1.209044E-006	8.518089E-005	9
	43	117	15.02404	48.45375	-204.2727	1	209.9407	-76.65598	1.401346E-006	8.459557E-005	9
	44	120	12.01923	57.2975	-247.0827	1	253.6393	-76.94411	1.293022E-006	8.272033E-005	9
	45	122	9.450605	68.25963	-304.0423	1	311.6105	-77.3465	1.353189E-006	7.274962E-005	9
	46	125	7.512019	80.94288	-371.7747	1	380.4841	-77.71723	1.483125E-006	7.094294E-005	9
	47	127	5.978954	95.8449	-452.655	1	462.6909	-78.04481	8.495779E-007	0.0006565	8
	48	130	4.734848	115.0976	-557.6024	1	569.3574	-78.33708	7.818447E-007	0.0006353	8
	49	134	3.75601	140.4929	-686.6208	1	700.8469	-78.43605	8.671008E-007	0.0006799	8
	50	137	3.004808	172.0825	-839.5195	1	856.9746	-78.41611	8.314247E-007	0.0006615	8
	51	141	2.372217	219.1236	-1038.946	1	1061.802	-78.09032	7.779619E-007	0.0006249	8
	52	145	1.878005	281.7302	-1286.04	1	1316.538	-77.64353	8.692736E-007	0.0006552	8
	53	150	1.512097	359.2669	-1559.667	1	1600.511	-77.02827	7.909053E-007	0.0006968	8
	54	155	1.201923	480.2571	-1917.642	1	1976.865	-75.93995	8.446911E-007	0.0006754	8
	55	161	0.956633	646.428	-2339.977	1	2427.625	-74.55698	7.224543E-007	9.171862E-006	8
