EXPLAIN
TAG	EISPOT
TITLE	LABEL	Potentiostatic EIS	Test Identifier
DATE	LABEL	2/24/2021	Date
TIME	LABEL	12:33:40	Time
NOTES	NOTES	1	Notes...
	
PSTAT	PSTAT	REF3000-16137	Potentiostat
VDC	POTEN	0.00000E+000	T	DC Voltage (V)
FREQINIT	QUANT	3.00000E+005	Initial Freq. (Hz)
FREQFINAL	QUANT	1.00000E+000	Final Freq. (Hz)
PTSPERDEC	QUANT	1.00000E+001	Points/decade
VAC	QUANT	5.00000E+001	AC Voltage (mV rms)
AREA	QUANT	1.00000E+000	Sample Area (cm^2)
SPEED	SELECTOR	2	Optimize for:
ZGUESS	QUANT	1.00000E+003	Estimated Z (ohms)
EOC	QUANT	0	Open Circuit (V)
SEQUENCER	TOGGLE	TRUE	Run as Sequence
PSTATMODEL	IQUANT	5	Pstat Model
PSTATSECTION	LABEL	REF3000-16137	Pstat Section
PSTATSERIALNO	LABEL	16137	Pstat Serial Number
CTRLMODE	IQUANT	1	Control Mode
IESTAB	IQUANT	0	I/E Stability
CASPEED	IQUANT	1	Control Amp Speed
CONVENTION	IQUANT	1	Current Convention
ICHRANGE	IQUANT	2	Ich Range
ICHRANGEMODE	TOGGLE	F	Ich Auto Range
ICHOFFSETENABLE	TOGGLE	T	Ich Offset Enable
ICHOFFSET	QUANT	0	Ich Offset (V)
ICHFILTER	IQUANT	3	Ich Filter
VCHRANGE	IQUANT	2	Vch Range
VCHRANGEMODE	TOGGLE	F	Vch Auto Range
VCHOFFSETENABLE	TOGGLE	T	Vch Offset Enable
VCHOFFSET	QUANT	0	Vch Offset (V)
VCHFILTER	IQUANT	3	Vch Filter
ACHRANGE	IQUANT	2	Ach Range
ACHOFFSETENABLE	TOGGLE	F	Ach Offset Enable
ACHOFFSET	QUANT	0	Ach Offset (V)
ACHFILTER	IQUANT	3	Ach Filter
IERANGELOWERLIMIT	IQUANT	2	I/E Range Lower Limit
IERANGEMODE	TOGGLE	F	I/E AutoRange
IERANGE	IQUANT	11	I/E Range
POSFEEDENABLE	TOGGLE	F	Positive Feedback IR Comp
POSFEEDRESISTANCE	QUANT	0	Positive Feedback Resistance (ohm)
ACHSELECT	IQUANT	0	Ach Select
CABLEID	IQUANT	13	Cable ID
DCCALDATE	LABEL	7/31/2020	DC Calibration Date
ACCALDATE	LABEL	7/31/2020	AC Calibration Date
THERMOSELECT	IQUANT	1	Thermo Select
FRAMEWORKVERSION	QUANT	6.33	Framework Version
INSTRUMENTVERSION	LABEL	3.50	Instrument Version
COMPLIANCEVOLTAGE	IQUANT	0	Compliance Voltage
ZCURVE	TABLE
	Pt	Time	Freq	Zreal	Zimag	Zsig	Zmod	Zphz	Idc	Vdc	IERange
	#	s	Hz	ohm	ohm	V	ohm	°	A	V	#
	0	10	300046.9	5.625454	2.2296	1	6.051186	21.62047	-2.520727E-005	0.0000979	10
	1	13	238359.4	5.602195	1.763323	1	5.873151	17.47169	-2.458331E-005	-0.0001289	10
	2	17	189328.1	5.598985	1.384989	1	5.76774	13.89402	1.822944E-005	0.0001294	10
	3	19	150421.9	5.60544	1.081688	1	5.708853	10.92217	-1.130015E-006	0.0002903	10
	4	22	119484.4	5.600826	0.8367097	1	5.66298	8.496604	-2.808875E-005	0.0003957	10
	5	24	94921.88	5.609594	0.6511524	1	5.64726	6.621168	2.208717E-005	0.0005079	10
	6	27	75421.88	5.620102	0.4754528	1	5.640177	4.835629	-2.040077E-005	0.0005909	10
	7	29	59859.37	5.630103	0.3216867	1	5.639285	3.270149	-2.426063E-005	0.0005951	10
	8	32	47578.12	5.645929	0.1875125	1	5.649042	1.902207	-1.715303E-005	0.0006717	10
	9	34	37828.12	5.662246	0.0656381	1	5.662627	0.664156	1.747504E-005	0.0006131	10
	10	37	30046.88	5.680321	-0.0504365	1	5.680545	-0.5087253	2.00046E-005	0.0006206	10
	11	39	23859.38	5.699845	-0.1661423	1	5.702266	-1.669617	-6.824553E-006	0.0006421	10
	12	42	18984.38	5.719711	-0.2871189	1	5.726913	-2.873729	2.171455E-005	0.0006372	10
	13	44	15046.87	5.742883	-0.4230591	1	5.758444	-4.21318	-3.051637E-005	0.000658	10
	14	46	11953.13	5.76785	-0.5769551	1	5.796635	-5.712266	2.28996E-005	0.0006596	10
	15	49	9515.62	5.796577	-0.7550424	1	5.845545	-7.421369	-2.338881E-005	0.0007079	10
	16	51	7546.875	5.830127	-0.971068	1	5.910444	-9.456391	-1.853457E-005	0.000728	10
	17	53	5928.309	5.869609	-1.246004	1	6.000403	-11.98487	1.699692E-005	0.0006444	10
	18	55	4733.456	5.915204	-1.558314	1	6.117023	-14.7588	-2.202646E-005	0.0007194	10
	19	58	3796.875	5.969481	-1.93181	1	6.274281	-17.93233	7.601599E-006	0.0007075	10
	20	60	2987.132	6.039146	-2.429272	1	6.509428	-21.91266	-5.098157E-006	0.0006909	10
	21	62	2390.625	6.119958	-2.999922	1	6.815675	-26.11347	2.548119E-006	0.0006464	10
	22	65	1884.191	6.225721	-3.749517	1	7.267632	-31.05897	-2.184524E-005	0.0007192	10
	23	67	1516.544	6.342487	-4.590871	1	7.829639	-35.89808	-1.49669E-005	0.0007018	10
	24	69	1193.986	6.500271	-5.731493	1	8.666229	-41.40364	-2.67112E-005	0.0006981	10
	25	72	946.5144	6.695726	-7.101443	1	9.76029	-46.68434	-1.852059E-005	0.0007339	10
	26	74	751.7689	6.925299	-8.792932	1	11.19265	-51.77609	-2.713578E-005	0.0006919	10
	27	77	597.4265	7.216053	-10.86549	1	13.0434	-56.41083	1.849584E-005	0.0006667	10
	28	79	477.4305	7.572343	-13.35617	1	15.35342	-60.44872	-2.516464E-006	0.0006777	10
	29	81	376.6741	8.040195	-16.60431	1	18.44852	-64.16265	-2.41234E-006	0.000677	10
	30	83	298.2954	8.614849	-20.56353	1	22.29517	-67.26933	-2.583398E-006	0.000685	10
	31	86	237.7717	9.310007	-25.30654	1	26.96474	-69.80197	-2.406573E-006	0.000683	10
	32	88	189.0121	10.18253	-31.22028	1	32.83884	-71.93621	-1.825072E-006	0.0006825	10
	33	91	150.2404	11.26539	-38.50374	1	40.11791	-73.69162	-2.317099E-006	0.0006861	10
	34	93	119.1737	12.61148	-47.52023	1	49.16525	-75.1368	1.362742E-006	8.230012E-005	9
	35	95	95.0169	14.27456	-58.4363	1	60.1545	-76.27286	1.283088E-006	8.256359E-005	9
	36	98	75.60484	16.38386	-71.99226	1	73.83302	-77.1791	1.243415E-006	8.050128E-005	9
	37	101	54.50582	20.41307	-97.0284	1	99.1524	-78.11924	1.146841E-006	7.481992E-005	9
	38	103	45.95588	23.14112	-113.3459	1	115.6841	-78.46087	1.216777E-006	8.378251E-005	9
	39	105	37.20238	27.32389	-137.3648	1	140.056	-78.74986	1.242047E-006	8.225127E-005	9
	40	108	30.04808	32.68383	-166.702	1	169.8758	-78.90721	1.177469E-006	7.931525E-005	9
	41	110	23.91582	40.10093	-204.9359	1	208.8224	-78.92851	1.125534E-006	7.568121E-005	9
	42	113	18.60119	50.71347	-256.6152	1	261.5783	-78.82099	1.359032E-006	7.79545E-005	9
	43	115	15.02404	62.43283	-310.2505	1	316.47	-78.62212	1.223337E-006	7.450444E-005	9
	44	117	12.01923	77.98446	-377.3848	1	385.3581	-78.32449	1.343705E-006	7.446492E-005	9
	45	120	9.450605	98.7622	-462.9123	1	473.3305	-77.95654	7.030873E-007	0.0006672	8
	46	122	7.512019	123.7047	-563.9119	1	577.3209	-77.62708	6.031116E-007	0.0006646	8
	47	125	5.978954	153.1326	-684.1039	1	701.0334	-77.38268	6.104904E-007	0.0006722	8
	48	128	4.734848	189.3614	-832.9277	1	854.1816	-77.19183	6.461125E-007	0.000636	8
	49	131	3.75601	230.9661	-1012.615	1	1038.621	-77.15128	6.981825E-007	0.0006807	8
	50	134	3.004808	277.0789	-1221.899	1	1252.921	-77.22363	6.672935E-007	0.0006514	8
	51	138	2.372217	336.2097	-1493.823	1	1531.191	-77.31599	6.339695E-007	0.0005922	8
	52	142	1.878005	398.6383	-1825.668	1	1868.683	-77.68268	6.920319E-007	0.0006625	8
	53	147	1.512097	465.5143	-2195.494	1	2244.304	-78.02878	6.288188E-007	0.0006506	8
	54	152	1.201923	548.2172	-2690.903	1	2746.179	-78.48473	6.787013E-007	0.0006862	8
	55	159	0.956633	643.4817	-3292.95	1	3355.233	-78.94305	6.520676E-007	1.339257E-005	8
