EXPLAIN
TAG	EISPOT
TITLE	LABEL	Potentiostatic EIS	Test Identifier
DATE	LABEL	2/24/2021	Date
TIME	LABEL	12:53:05	Time
NOTES	NOTES	1	Notes...
	
PSTAT	PSTAT	REF3000-16137	Potentiostat
VDC	POTEN	0.00000E+000	T	DC Voltage (V)
FREQINIT	QUANT	3.00000E+005	Initial Freq. (Hz)
FREQFINAL	QUANT	1.00000E+000	Final Freq. (Hz)
PTSPERDEC	QUANT	1.00000E+001	Points/decade
VAC	QUANT	5.00000E+001	AC Voltage (mV rms)
AREA	QUANT	1.00000E+000	Sample Area (cm^2)
SPEED	SELECTOR	2	Optimize for:
ZGUESS	QUANT	1.00000E+003	Estimated Z (ohms)
EOC	QUANT	0	Open Circuit (V)
SEQUENCER	TOGGLE	TRUE	Run as Sequence
PSTATMODEL	IQUANT	5	Pstat Model
PSTATSECTION	LABEL	REF3000-16137	Pstat Section
PSTATSERIALNO	LABEL	16137	Pstat Serial Number
CTRLMODE	IQUANT	1	Control Mode
IESTAB	IQUANT	0	I/E Stability
CASPEED	IQUANT	1	Control Amp Speed
CONVENTION	IQUANT	1	Current Convention
ICHRANGE	IQUANT	2	Ich Range
ICHRANGEMODE	TOGGLE	F	Ich Auto Range
ICHOFFSETENABLE	TOGGLE	T	Ich Offset Enable
ICHOFFSET	QUANT	0	Ich Offset (V)
ICHFILTER	IQUANT	3	Ich Filter
VCHRANGE	IQUANT	2	Vch Range
VCHRANGEMODE	TOGGLE	F	Vch Auto Range
VCHOFFSETENABLE	TOGGLE	T	Vch Offset Enable
VCHOFFSET	QUANT	0	Vch Offset (V)
VCHFILTER	IQUANT	3	Vch Filter
ACHRANGE	IQUANT	2	Ach Range
ACHOFFSETENABLE	TOGGLE	F	Ach Offset Enable
ACHOFFSET	QUANT	0	Ach Offset (V)
ACHFILTER	IQUANT	3	Ach Filter
IERANGELOWERLIMIT	IQUANT	2	I/E Range Lower Limit
IERANGEMODE	TOGGLE	F	I/E AutoRange
IERANGE	IQUANT	11	I/E Range
POSFEEDENABLE	TOGGLE	F	Positive Feedback IR Comp
POSFEEDRESISTANCE	QUANT	0	Positive Feedback Resistance (ohm)
ACHSELECT	IQUANT	0	Ach Select
CABLEID	IQUANT	13	Cable ID
DCCALDATE	LABEL	7/31/2020	DC Calibration Date
ACCALDATE	LABEL	7/31/2020	AC Calibration Date
THERMOSELECT	IQUANT	1	Thermo Select
FRAMEWORKVERSION	QUANT	6.33	Framework Version
INSTRUMENTVERSION	LABEL	3.50	Instrument Version
COMPLIANCEVOLTAGE	IQUANT	0	Compliance Voltage
ZCURVE	TABLE
	Pt	Time	Freq	Zreal	Zimag	Zsig	Zmod	Zphz	Idc	Vdc	IERange
	#	s	Hz	ohm	ohm	V	ohm	°	A	V	#
	0	7	300046.9	22.73493	1.853374	1	22.81035	4.660503	2.086909E-005	-0.0004399	10
	1	10	238359.4	22.80559	1.479301	1	22.85351	3.711333	-6.329134E-006	0.0002259	10
	2	13	189328.1	22.89502	1.146662	1	22.92372	2.867176	3.144632E-005	0.0005201	10
	3	16	150421.9	23.00029	0.9081089	1	23.01821	2.261006	3.214905E-005	0.0006092	10
	4	19	119484.4	23.0795	0.6814074	1	23.08956	1.69113	2.829775E-005	0.0008535	10
	5	21	94921.88	23.17249	0.5093823	1	23.17808	1.259285	-1.160316E-005	0.0006313	10
	6	24	75421.88	23.27359	0.3458774	1	23.27616	0.851431	1.569227E-005	0.0005882	10
	7	26	59859.37	23.37235	0.2074782	1	23.37327	0.5086057	1.392405E-005	0.0005979	10
	8	29	47578.12	23.47439	0.0838857	1	23.47454	0.2047456	2.441889E-005	0.0006299	10
	9	31	37828.12	23.57969	-0.0324706	1	23.57971	-0.0788995	-1.163245E-005	0.0006473	10
	10	34	30046.88	23.74685	-0.1447825	1	23.74729	-0.3493231	2.639922E-005	0.0006532	10
	11	38	23859.38	23.85157	-0.2691368	1	23.85309	-0.6464877	5.155802E-006	0.0006282	10
	12	40	18984.38	23.95332	-0.3971837	1	23.95661	-0.9499671	-1.065588E-005	0.0006618	10
	13	42	15046.87	24.05776	-0.5540882	1	24.06414	-1.319379	2.470782E-005	0.0007008	10
	14	45	11953.13	24.16736	-0.7212422	1	24.17812	-1.709408	1.460075E-005	0.0006293	10
	15	47	9515.62	24.27814	-0.9211161	1	24.29561	-2.172768	-1.691701E-005	0.0006953	10
	16	49	7546.875	24.39631	-1.166502	1	24.42418	-2.737495	1.891539E-005	0.0006202	10
	17	52	5928.309	24.51761	-1.480149	1	24.56224	-3.454802	-2.803469E-006	0.0006457	10
	18	54	4733.456	24.64864	-1.84314	1	24.71745	-4.276423	-1.789841E-005	0.000677	10
	19	56	3796.875	24.77564	-2.279376	1	24.88027	-5.256454	-1.375367E-005	0.0007519	10
	20	59	2987.132	24.9359	-2.85804	1	25.09916	-6.538451	1.338365E-005	0.0006235	10
	21	61	2390.625	25.09701	-3.531041	1	25.34419	-8.008702	1.909662E-005	0.0006205	10
	22	63	1884.191	25.28778	-4.43932	1	25.67449	-9.95693	-2.745819E-005	0.0007081	10
	23	66	1516.544	25.48688	-5.427979	1	26.05847	-12.02275	2.347158E-005	0.000649	10
	24	68	1193.986	25.73331	-6.795	1	26.61532	-14.7916	-1.821498E-005	0.0006733	10
	25	70	946.5144	26.02137	-8.454661	1	27.36043	-17.99961	7.109243E-006	0.0007312	10
	26	73	751.7689	26.35623	-10.48614	1	28.36565	-21.69573	-5.167345E-006	0.000698	10
	27	75	597.4265	26.75541	-12.99426	1	29.74395	-25.90439	-2.746679E-005	0.000688	10
	28	77	477.4305	27.226	-16.00327	1	31.581	-30.44675	-2.058249E-006	0.0006773	10
	29	80	376.6741	27.82804	-19.93542	1	34.23186	-35.61701	-2.069546E-006	0.0006755	10
	30	82	298.2954	28.55376	-24.73698	1	37.77877	-40.90337	-1.791449E-006	0.0006859	10
	31	84	237.7717	29.38205	-30.45593	1	42.31865	-46.02815	1.263836E-006	7.495236E-005	9
	32	87	189.0121	30.4539	-37.62971	1	48.40904	-51.01659	1.270561E-006	8.144099E-005	9
	33	89	150.2404	31.77647	-46.47793	1	56.30224	-55.64	1.275312E-006	7.565026E-005	9
	34	92	119.1737	33.43058	-57.50239	1	66.51412	-59.82725	1.310112E-006	7.893124E-005	9
	35	94	95.0169	35.44087	-70.77379	1	79.15166	-63.4	1.289729E-006	7.716184E-005	9
	36	96	75.60484	37.95388	-87.23759	1	95.1362	-66.48791	1.207635E-006	8.268851E-005	9
	37	99	54.50582	42.56538	-117.5878	1	125.0548	-70.10035	1.2565E-006	7.397991E-005	9
	38	102	45.95588	45.63626	-137.3997	1	144.7803	-71.62648	1.299426E-006	8.729025E-005	9
	39	104	37.20238	50.12305	-166.5555	1	173.934	-73.2514	1.242145E-006	8.31009E-005	9
	40	106	30.04808	55.65877	-202.3078	1	209.8246	-74.6174	1.301158E-006	7.522701E-005	9
	41	109	23.91582	62.91713	-248.9708	1	256.7977	-75.81778	1.234119E-006	7.797791E-005	9
	42	111	18.60119	72.94405	-313.0138	1	321.4008	-76.88203	1.483042E-006	7.498579E-005	9
	43	113	15.02404	83.59132	-380.1672	1	389.2488	-77.59912	1.335957E-006	7.838453E-005	9
	44	116	12.01923	97.2119	-463.8037	1	473.8819	-78.16233	4.921441E-007	0.0006532	8
	45	118	9.450605	116.3001	-577.1993	1	588.7994	-78.60798	5.490082E-007	0.0006607	8
	46	121	7.512019	139.5567	-711.2894	1	724.8508	-78.89944	5.408839E-007	0.0006752	8
	47	123	5.978954	169.6655	-874.3954	1	890.704	-79.01893	5.08058E-007	0.0006565	8
	48	126	4.734848	208.9994	-1079.322	1	1099.371	-79.04091	5.996698E-007	0.0006798	8
	49	130	3.75601	260.8367	-1329.172	1	1354.523	-78.89736	5.471546E-007	0.0006512	8
	50	133	3.004808	324.0249	-1620.484	1	1652.561	-78.69251	5.222919E-007	0.0006926	8
	51	137	2.372217	408.824	-1996.152	1	2037.587	-78.42554	5.507092E-007	0.0007164	8
	52	141	1.878005	519.4949	-2446.972	1	2501.509	-78.01401	5.583863E-007	0.000631	8
	53	146	1.512097	645.5345	-2949.055	1	3018.881	-77.65296	5.660148E-007	0.0007522	8
	54	151	1.201923	802.5621	-3592.688	1	3681.238	-77.40758	5.642268E-007	0.0006326	8
	55	157	0.956633	990.424	-4371.635	1	4482.425	-77.23473	4.343915E-008	-1.313873E-005	7
