EXPLAIN
TAG	EISPOT
TITLE	LABEL	Potentiostatic EIS	Test Identifier
DATE	LABEL	2/24/2021	Date
TIME	LABEL	13:22:04	Time
NOTES	NOTES	1	Notes...
	
PSTAT	PSTAT	REF3000-16137	Potentiostat
VDC	POTEN	0.00000E+000	T	DC Voltage (V)
FREQINIT	QUANT	3.00000E+005	Initial Freq. (Hz)
FREQFINAL	QUANT	1.00000E+000	Final Freq. (Hz)
PTSPERDEC	QUANT	1.00000E+001	Points/decade
VAC	QUANT	5.00000E+001	AC Voltage (mV rms)
AREA	QUANT	1.00000E+000	Sample Area (cm^2)
SPEED	SELECTOR	2	Optimize for:
ZGUESS	QUANT	1.00000E+003	Estimated Z (ohms)
EOC	QUANT	0	Open Circuit (V)
SEQUENCER	TOGGLE	TRUE	Run as Sequence
PSTATMODEL	IQUANT	5	Pstat Model
PSTATSECTION	LABEL	REF3000-16137	Pstat Section
PSTATSERIALNO	LABEL	16137	Pstat Serial Number
CTRLMODE	IQUANT	1	Control Mode
IESTAB	IQUANT	0	I/E Stability
CASPEED	IQUANT	1	Control Amp Speed
CONVENTION	IQUANT	1	Current Convention
ICHRANGE	IQUANT	2	Ich Range
ICHRANGEMODE	TOGGLE	F	Ich Auto Range
ICHOFFSETENABLE	TOGGLE	T	Ich Offset Enable
ICHOFFSET	QUANT	0	Ich Offset (V)
ICHFILTER	IQUANT	3	Ich Filter
VCHRANGE	IQUANT	2	Vch Range
VCHRANGEMODE	TOGGLE	F	Vch Auto Range
VCHOFFSETENABLE	TOGGLE	T	Vch Offset Enable
VCHOFFSET	QUANT	0	Vch Offset (V)
VCHFILTER	IQUANT	3	Vch Filter
ACHRANGE	IQUANT	2	Ach Range
ACHOFFSETENABLE	TOGGLE	F	Ach Offset Enable
ACHOFFSET	QUANT	0	Ach Offset (V)
ACHFILTER	IQUANT	3	Ach Filter
IERANGELOWERLIMIT	IQUANT	2	I/E Range Lower Limit
IERANGEMODE	TOGGLE	F	I/E AutoRange
IERANGE	IQUANT	11	I/E Range
POSFEEDENABLE	TOGGLE	F	Positive Feedback IR Comp
POSFEEDRESISTANCE	QUANT	0	Positive Feedback Resistance (ohm)
ACHSELECT	IQUANT	0	Ach Select
CABLEID	IQUANT	13	Cable ID
DCCALDATE	LABEL	7/31/2020	DC Calibration Date
ACCALDATE	LABEL	7/31/2020	AC Calibration Date
THERMOSELECT	IQUANT	1	Thermo Select
FRAMEWORKVERSION	QUANT	6.33	Framework Version
INSTRUMENTVERSION	LABEL	3.50	Instrument Version
COMPLIANCEVOLTAGE	IQUANT	0	Compliance Voltage
ZCURVE	TABLE
	Pt	Time	Freq	Zreal	Zimag	Zsig	Zmod	Zphz	Idc	Vdc	IERange
	#	s	Hz	ohm	ohm	V	ohm	°	A	V	#
	0	22	300046.9	1253.312	-646.8442	1	1410.389	-27.29861	-2.097995E-005	0.0010937	9
	1	37	238359.4	1422.578	-643.5406	1	1561.369	-24.34087	-3.008568E-005	-0.0009941	9
	2	56	189328.1	1543.182	-608.9201	1	1658.974	-21.53357	2.634685E-005	-0.0018616	9
	3	62	150421.9	1693.597	-541.7883	1	1778.146	-17.73968	2.528075E-005	0.0010485	9
	4	69	119484.4	1799.339	-437.6327	1	1851.794	-13.66998	-4.31917E-006	0.0137762	8
	5	75	94921.88	1873.058	-380.973	1	1911.409	-11.49692	1.849002E-007	0.00596	8
	6	78	75421.88	1952.955	-331.2945	1	1980.855	-9.62786	-2.181944E-005	0.0084828	8
	7	85	59859.37	2007.408	-288.8347	1	2028.081	-8.187773	2.215692E-005	-0.0077741	8
	8	88	47578.12	2054.68	-240.0955	1	2068.66	-6.664958	2.107037E-005	-0.0030212	8
	9	94	37828.12	2124.331	-205.6638	1	2134.264	-5.529766	-2.213772E-005	0.0085376	8
	10	101	30046.88	2191.834	-184.0157	1	2199.545	-4.799021	-2.249151E-005	0.0069957	8
	11	104	23859.38	2227.852	-155.9478	1	2233.303	-4.004126	2.226178E-005	-0.0077513	8
	12	108	18984.38	2259.785	-130.8465	1	2263.57	-3.31385	-1.513258E-005	0.0013637	8
	13	111	15046.87	2304.492	-102.1267	1	2306.754	-2.537479	9.337077E-006	0.0029086	8
	14	115	11953.13	2345.65	-92.01097	1	2347.454	-2.246345	1.27809E-005	-0.0076505	8
	15	120	9515.62	2381.095	-77.35393	1	2382.351	-1.860697	-2.007E-005	0.0095475	8
	16	123	7546.875	2432.478	-70.30598	1	2433.494	-1.655561	-2.562719E-006	-0.0037491	8
	17	128	5928.309	2504.579	-62.20498	1	2505.352	-1.422734	9.783847E-006	-0.0007343	9
	18	134	4733.456	2551.318	-52.24798	1	2551.853	-1.173186	2.018208E-005	1.508495E-005	9
	19	139	3796.875	2584.159	-40.93301	1	2584.483	-0.9074877	1.890599E-005	-0.0083062	8
	20	144	2987.132	2640.434	-30.45111	1	2640.609	-0.660741	-9.889302E-006	-0.0011005	8
	21	149	2390.625	2708.679	-37.57025	1	2708.94	-0.7946599	-2.525243E-005	0.0006738	9
	22	155	1884.191	2760.515	-32.31928	1	2760.705	-0.670771	-1.901316E-005	0.0032384	8
	23	160	1516.544	2808.143	-18.15215	1	2808.202	-0.3703612	2.859785E-005	-0.0008196	9
	24	166	1193.986	2888.982	-27.7702	1	2889.116	-0.5507359	1.916559E-005	-0.008424	8
	25	171	946.5144	2920.66	-30.61397	1	2920.82	-0.6005449	2.190238E-005	-0.0031012	8
	26	175	751.7689	2958.808	-45.21429	1	2959.154	-0.8754832	9.865747E-006	-0.0007367	9
	27	179	597.4265	3023.218	-35.21746	1	3023.423	-0.6674083	-1.132524E-005	0.0010171	9
	28	182	477.4305	3050.699	-34.76156	1	3050.897	-0.6528355	-1.556587E-007	0.000666	8
	29	186	376.6741	3080.302	-39.46473	1	3080.554	-0.7340316	-1.452515E-007	0.0006498	8
	30	188	298.2954	3109.671	-45.90996	1	3110.01	-0.845831	-1.439305E-007	0.000645	8
	31	190	237.7717	3140.675	-54.10174	1	3141.141	-0.986888	-1.572478E-007	0.0006495	8
	32	193	189.0121	3171.945	-64.86465	1	3172.608	-1.171506	-1.928937E-007	0.0006591	8
	33	195	150.2404	3204.203	-78.29903	1	3205.16	-1.399821	-1.848107E-007	0.000673	8
	34	198	119.1737	3237.374	-95.6168	1	3238.786	-1.691757	-1.924816E-007	0.0006768	8
	35	200	95.0169	3270.121	-116.922	1	3272.211	-2.047717	-1.608813E-007	0.0006527	8
	36	202	75.60484	3306.195	-143.2345	1	3309.297	-2.480678	-1.826592E-007	0.0006763	8
	37	205	54.50582	3344.898	-192.4798	1	3350.431	-3.293413	-1.692178E-007	0.0006587	8
	38	208	45.95588	3380.286	-223.9258	1	3387.695	-3.79	-8.045411E-008	0.0006691	8
	39	210	37.20238	3416.915	-275.0303	1	3427.966	-4.601863	-2.495678E-007	0.0006661	8
	40	212	30.04808	3456.882	-332.2209	1	3472.809	-5.489506	-1.446765E-007	0.0006736	8
	41	215	23.91582	3497.322	-410.5344	1	3521.335	-6.695047	-1.049138E-007	0.0006493	8
	42	217	18.60119	3552.392	-519.0779	1	3590.116	-8.313265	-8.3708E-008	0.0006073	7
	43	219	15.02404	3601.596	-636.7363	1	3657.448	-10.02588	8.738681E-008	0.0006208	7
	44	222	12.01923	3641.005	-781.4495	1	3723.92	-12.11332	3.287828E-008	0.000603	7
	45	224	9.450605	3700.294	-983.299	1	3828.715	-14.8816	-1.189838E-007	0.0006495	7
	46	227	7.512019	3764.079	-1221.275	1	3957.247	-17.97593	-1.479931E-007	0.0006632	7
	47	229	5.978954	3844.526	-1506.236	1	4129.059	-21.39461	-9.855944E-008	0.0006096	7
	48	232	4.734848	3936.607	-1869.006	1	4357.758	-25.39725	-9.008213E-008	0.0006449	7
	49	236	3.75601	4052.188	-2314.833	1	4666.763	-29.7374	-4.375195E-008	0.0006129	7
	50	239	3.004808	4178.26	-2845.828	1	5055.353	-34.25892	-3.130439E-008	0.0005583	7
	51	243	2.372217	4343.753	-3537.878	1	5602.211	-39.16195	-6.038445E-008	0.000562	7
	52	247	1.878005	4533.277	-4389.935	1	6310.478	-44.07968	-4.985423E-008	0.0006375	7
	53	252	1.512097	4762.47	-5351.29	1	7163.618	-48.33198	-5.534591E-008	0.0005313	7
	54	257	1.201923	5044.272	-6626.667	1	8328.108	-52.72132	-5.280707E-008	0.0006439	7
	55	263	0.956633	5385.98	-8178.307	1	9792.52	-56.63234	-5.660672E-008	-9.790128E-006	7
