EXPLAIN
TAG	EISPOT
TITLE	LABEL	Potentiostatic EIS	Test Identifier
DATE	LABEL	2/24/2021	Date
TIME	LABEL	13:36:21	Time
NOTES	NOTES	1	Notes...
	
PSTAT	PSTAT	REF3000-16137	Potentiostat
VDC	POTEN	0.00000E+000	T	DC Voltage (V)
FREQINIT	QUANT	3.00000E+005	Initial Freq. (Hz)
FREQFINAL	QUANT	1.00000E+000	Final Freq. (Hz)
PTSPERDEC	QUANT	1.00000E+001	Points/decade
VAC	QUANT	5.00000E+001	AC Voltage (mV rms)
AREA	QUANT	1.00000E+000	Sample Area (cm^2)
SPEED	SELECTOR	2	Optimize for:
ZGUESS	QUANT	1.00000E+003	Estimated Z (ohms)
EOC	QUANT	0	Open Circuit (V)
SEQUENCER	TOGGLE	TRUE	Run as Sequence
PSTATMODEL	IQUANT	5	Pstat Model
PSTATSECTION	LABEL	REF3000-16137	Pstat Section
PSTATSERIALNO	LABEL	16137	Pstat Serial Number
CTRLMODE	IQUANT	1	Control Mode
IESTAB	IQUANT	0	I/E Stability
CASPEED	IQUANT	1	Control Amp Speed
CONVENTION	IQUANT	1	Current Convention
ICHRANGE	IQUANT	2	Ich Range
ICHRANGEMODE	TOGGLE	F	Ich Auto Range
ICHOFFSETENABLE	TOGGLE	T	Ich Offset Enable
ICHOFFSET	QUANT	0	Ich Offset (V)
ICHFILTER	IQUANT	3	Ich Filter
VCHRANGE	IQUANT	2	Vch Range
VCHRANGEMODE	TOGGLE	F	Vch Auto Range
VCHOFFSETENABLE	TOGGLE	T	Vch Offset Enable
VCHOFFSET	QUANT	0	Vch Offset (V)
VCHFILTER	IQUANT	3	Vch Filter
ACHRANGE	IQUANT	2	Ach Range
ACHOFFSETENABLE	TOGGLE	F	Ach Offset Enable
ACHOFFSET	QUANT	0	Ach Offset (V)
ACHFILTER	IQUANT	3	Ach Filter
IERANGELOWERLIMIT	IQUANT	2	I/E Range Lower Limit
IERANGEMODE	TOGGLE	F	I/E AutoRange
IERANGE	IQUANT	11	I/E Range
POSFEEDENABLE	TOGGLE	F	Positive Feedback IR Comp
POSFEEDRESISTANCE	QUANT	0	Positive Feedback Resistance (ohm)
ACHSELECT	IQUANT	0	Ach Select
CABLEID	IQUANT	13	Cable ID
DCCALDATE	LABEL	7/31/2020	DC Calibration Date
ACCALDATE	LABEL	7/31/2020	AC Calibration Date
THERMOSELECT	IQUANT	1	Thermo Select
FRAMEWORKVERSION	QUANT	6.33	Framework Version
INSTRUMENTVERSION	LABEL	3.50	Instrument Version
COMPLIANCEVOLTAGE	IQUANT	0	Compliance Voltage
ZCURVE	TABLE
	Pt	Time	Freq	Zreal	Zimag	Zsig	Zmod	Zphz	Idc	Vdc	IERange
	#	s	Hz	ohm	ohm	V	ohm	°	A	V	#
	0	26	300046.9	400.4675	-3893.649	1	3914.189	-84.12769	-1.605722E-005	0.0017373	9
	1	41	238359.4	554.7532	-4779.693	1	4811.779	-83.37961	-9.179443E-005	0.0021178	9
	2	54	189328.1	602.982	-5706.982	1	5738.749	-83.96868	-8.972918E-005	0.0021761	9
	3	62	150421.9	1124.516	-7547.142	1	7630.458	-81.52534	6.529314E-007	-0.0018386	9
	4	71	119484.4	1789.626	-8933.122	1	9110.622	-78.67155	4.990466E-005	-0.0025014	8
	5	79	94921.88	2529.82	-10982.84	1	11270.44	-77.02858	1.591161E-005	-0.009058	8
	6	88	75421.88	3146.237	-13690.71	1	14047.57	-77.05767	-1.503421E-006	-0.0048851	8
	7	97	59859.37	4359.274	-16559.67	1	17123.84	-75.25169	-1.270393E-006	0.0074102	8
	8	105	47578.12	8480.671	-20712.99	1	22381.91	-67.73398	7.268148E-006	-0.0179853	7
	9	112	37828.12	10490.46	-24856.39	1	26979.43	-67.11818	-5.177747E-006	0.0041136	7
	10	118	30046.88	10508.5	-30351.91	1	32119.58	-70.90302	-2.060785E-005	0.0030737	8
	11	127	23859.38	15561.78	-36005.49	1	39224.54	-66.62572	2.58788E-005	-0.0089236	8
	12	133	18984.38	20781.66	-41493.32	1	46406.61	-63.3963	-2.379785E-005	0.0053633	8
	13	139	15046.87	26990.08	-52340.57	1	58889.72	-62.72153	-2.351057E-005	0.0053341	8
	14	147	11953.13	38609.37	-56602.15	1	68516.33	-55.70138	-6.242689E-006	0.0250373	7
	15	153	9515.62	49426.71	-63764.74	1	80678.02	-52.21924	3.312192E-006	-0.0232935	7
	16	159	7546.875	62974.8	-68825.03	1	93288.32	-47.54153	-1.129913E-006	-0.0122672	7
	17	165	5928.309	77551.47	-78213.01	1	110143.1	-45.24334	-3.353003E-006	-0.0043441	7
	18	170	4733.456	91636.02	-74177.48	1	117896	-38.98946	-6.212956E-006	0.0250138	7
	19	176	3796.875	114785.8	-79503.58	1	139630.2	-34.70747	-1.576799E-006	0.020759	7
	20	182	2987.132	126606.6	-73795.08	1	146543.4	-30.23658	3.264589E-006	-0.0233182	7
	21	188	2390.625	148138.3	-75093.45	1	166084.3	-26.88111	-5.065599E-006	0.0255966	7
	22	193	1884.191	164486.1	-82071.88	1	183824.6	-26.51733	2.813582E-006	0.0075984	7
	23	199	1516.544	185780	-60138.78	1	195271.3	-17.93727	3.779965E-007	-0.0241366	6
	24	205	1193.986	196069	-53214.43	1	203162.1	-15.18467	-7.118412E-007	0.0173621	6
	25	209	946.5144	204224.8	-49442.71	1	210124.6	-13.60942	5.9224E-007	-0.0072041	6
	26	212	751.7689	213055.8	-44060.53	1	217564	-11.68421	-6.550154E-007	0.0252879	6
	27	215	597.4265	226958	-43531.19	1	231095	-10.85763	5.625712E-007	-0.0264766	6
	28	217	477.4305	230884.3	-31656.67	1	233044.4	-7.807173	-7.186314E-009	0.0006448	6
	29	219	376.6741	236687.2	-26823.82	1	238202.4	-6.465756	-7.459655E-009	0.0006825	6
	30	222	298.2954	244186.4	-23604.76	1	245324.6	-5.521453	-7.854859E-009	0.0006259	6
	31	225	237.7717	248634.9	-19515.49	1	249399.6	-4.487975	-7.644187E-009	0.000679	6
	32	228	189.0121	253626.6	-16844.73	1	254185.4	-3.799744	-7.836078E-009	0.0006962	6
	33	230	150.2404	258545.7	-13904.19	1	258919.3	-3.078314	-7.192547E-009	0.0006605	6
	34	233	119.1737	264811	-12246.55	1	265094	-2.647835	-7.974134E-009	0.000717	6
	35	235	95.0169	267658	-10002.25	1	267844.8	-2.14012	-8.033981E-009	0.0007246	6
	36	238	75.60484	272077.3	-9044.575	1	272227.5	-1.903964	-7.430029E-009	0.0006265	6
	37	240	54.50582	280122.4	-6576.055	1	280199.6	-1.344809	-8.183758E-009	0.0007003	6
	38	243	45.95588	281610.4	-5927.427	1	281672.8	-1.205802	-8.125997E-009	0.0006864	6
	39	245	37.20238	285830.2	-5044.074	1	285874.7	-1.011	-7.376967E-009	0.0006281	6
	40	247	30.04808	291216.9	-4980.849	1	291259.5	-0.979867	-7.317245E-009	0.0006269	6
	41	250	23.91582	296273.5	-4300.789	1	296304.7	-0.8316631	-8.33968E-009	0.0006796	6
	42	253	18.60119	302371.4	-4042.28	1	302398.4	-0.7659183	-6.809956E-009	0.0006169	6
	43	255	15.02404	305735.8	-3711.729	1	305758.3	-0.6955546	-7.362047E-009	0.0007151	6
	44	258	12.01923	310806.3	-3521.082	1	310826.3	-0.6490682	-7.864657E-009	0.0006718	6
	45	260	9.450605	315968.9	-3673.194	1	315990.2	-0.6660436	-8.07419E-009	0.0006954	6
	46	263	7.512019	321658.2	-3674.043	1	321679.2	-0.6544151	-6.823559E-009	0.0006193	6
	47	266	5.978954	329434.2	-4037.764	1	329458.9	-0.70222	-7.113885E-009	0.0006796	6
	48	270	4.734848	337899.7	-4329.057	1	337927.4	-0.7340139	-8.184588E-009	0.0006533	6
	49	274	3.75601	348099.4	-4944.995	1	348134.6	-0.8138717	-9.34985E-009	0.0006986	6
	50	279	3.004808	361773.9	-5687.093	1	361818.6	-0.9006166	-8.168913E-009	0.0006566	6
	51	286	2.372217	374346.3	-6516.729	1	374403.1	-0.997321	-8.240092E-009	0.00072	6
	52	290	1.878005	386456.1	-7595.356	1	386530.7	-1.125939	-3.227532E-009	0.0006481	5
	53	294	1.512097	399635.2	-8956.455	1	399735.6	-1.283874	-2.849805E-009	0.0005947	5
	54	300	1.201923	415085	-11248.43	1	415237.4	-1.552285	-2.333407E-009	0.0006418	5
	55	306	0.956633	433299.4	-13648.02	1	433514.3	-1.804101	-4.087412E-009	9.771698E-006	5
