EXPLAIN
TAG	EISPOT
TITLE	LABEL	Potentiostatic EIS	Test Identifier
DATE	LABEL	2/24/2021	Date
TIME	LABEL	12:19:37	Time
NOTES	NOTES	1	Notes...
	
PSTAT	PSTAT	REF3000-16137	Potentiostat
VDC	POTEN	0.00000E+000	T	DC Voltage (V)
FREQINIT	QUANT	3.00000E+005	Initial Freq. (Hz)
FREQFINAL	QUANT	1.00000E+000	Final Freq. (Hz)
PTSPERDEC	QUANT	1.00000E+001	Points/decade
VAC	QUANT	5.00000E+001	AC Voltage (mV rms)
AREA	QUANT	1.00000E+000	Sample Area (cm^2)
SPEED	SELECTOR	2	Optimize for:
ZGUESS	QUANT	1.00000E+003	Estimated Z (ohms)
EOC	QUANT	0	Open Circuit (V)
SEQUENCER	TOGGLE	TRUE	Run as Sequence
PSTATMODEL	IQUANT	5	Pstat Model
PSTATSECTION	LABEL	REF3000-16137	Pstat Section
PSTATSERIALNO	LABEL	16137	Pstat Serial Number
CTRLMODE	IQUANT	1	Control Mode
IESTAB	IQUANT	0	I/E Stability
CASPEED	IQUANT	1	Control Amp Speed
CONVENTION	IQUANT	1	Current Convention
ICHRANGE	IQUANT	2	Ich Range
ICHRANGEMODE	TOGGLE	F	Ich Auto Range
ICHOFFSETENABLE	TOGGLE	T	Ich Offset Enable
ICHOFFSET	QUANT	0	Ich Offset (V)
ICHFILTER	IQUANT	3	Ich Filter
VCHRANGE	IQUANT	2	Vch Range
VCHRANGEMODE	TOGGLE	F	Vch Auto Range
VCHOFFSETENABLE	TOGGLE	T	Vch Offset Enable
VCHOFFSET	QUANT	0	Vch Offset (V)
VCHFILTER	IQUANT	3	Vch Filter
ACHRANGE	IQUANT	2	Ach Range
ACHOFFSETENABLE	TOGGLE	F	Ach Offset Enable
ACHOFFSET	QUANT	0	Ach Offset (V)
ACHFILTER	IQUANT	3	Ach Filter
IERANGELOWERLIMIT	IQUANT	2	I/E Range Lower Limit
IERANGEMODE	TOGGLE	F	I/E AutoRange
IERANGE	IQUANT	11	I/E Range
POSFEEDENABLE	TOGGLE	F	Positive Feedback IR Comp
POSFEEDRESISTANCE	QUANT	0	Positive Feedback Resistance (ohm)
ACHSELECT	IQUANT	0	Ach Select
CABLEID	IQUANT	13	Cable ID
DCCALDATE	LABEL	7/31/2020	DC Calibration Date
ACCALDATE	LABEL	7/31/2020	AC Calibration Date
THERMOSELECT	IQUANT	1	Thermo Select
FRAMEWORKVERSION	QUANT	6.33	Framework Version
INSTRUMENTVERSION	LABEL	3.50	Instrument Version
COMPLIANCEVOLTAGE	IQUANT	0	Compliance Voltage
ZCURVE	TABLE
	Pt	Time	Freq	Zreal	Zimag	Zsig	Zmod	Zphz	Idc	Vdc	IERange
	#	s	Hz	ohm	ohm	V	ohm	°	A	V	#
	0	10	300046.9	3.102591	2.249209	1	3.832103	35.94006	-2.359386E-005	-0.0001201	10
	1	13	238359.4	3.085548	1.789723	1	3.567032	30.11519	-2.45138E-005	-0.0005186	10
	2	17	189328.1	3.074393	1.408045	1	3.381492	24.60737	1.53998E-005	-0.0001884	10
	3	19	150421.9	3.10812	0.9060952	1	3.237502	16.25273	-0.0002219	-5.492854E-006	12
	4	23	119484.4	3.059619	0.8350874	1	3.171535	15.26638	-1.665118E-005	0.0005316	11
	5	25	94921.88	3.056275	0.6344243	1	3.121428	11.72696	-2.954263E-006	0.0005791	11
	6	28	75421.88	3.057179	0.4645544	1	3.092273	8.640296	7.085191E-006	0.0006034	11
	7	30	59859.37	3.061187	0.3212236	1	3.077994	5.990371	-3.353769E-005	0.0006264	11
	8	33	47578.12	3.065818	0.1953052	1	3.072032	3.645051	-2.307759E-005	0.000645	11
	9	35	37828.12	3.072106	0.0805391	1	3.073161	1.501737	1.878506E-005	0.0006918	11
	10	38	30046.88	3.08118	-0.0284515	1	3.081312	-0.5290524	-6.548085E-006	0.0006726	11
	11	40	23859.38	3.090457	-0.1378408	1	3.09353	-2.553818	-4.96406E-005	0.0006454	11
	12	43	18984.38	3.101897	-0.2515041	1	3.112076	-4.635443	-2.230072E-005	0.0006634	11
	13	45	15046.87	3.116408	-0.3784627	1	3.139305	-6.924204	-3.528088E-005	0.0006828	11
	14	47	11953.13	3.132226	-0.5210624	1	3.175271	-9.444965	-4.370751E-005	0.0006667	11
	15	50	9515.62	3.152452	-0.6859854	1	3.226225	-12.2764	-5.070472E-005	0.0006624	11
	16	52	7546.875	3.177141	-0.8840243	1	3.297836	-15.54897	2.150912E-005	0.0007309	11
	17	54	5928.309	3.209415	-1.135211	1	3.404269	-19.47934	1.905146E-005	0.0007289	11
	18	57	4733.456	3.247037	-1.419929	1	3.543931	-23.61975	-4.1264E-005	0.0006842	11
	19	59	3796.875	3.294594	-1.758936	1	3.734729	-28.09711	-2.330989E-005	0.0006749	10
	20	61	2987.132	3.354314	-2.209918	1	4.01686	-33.37804	-1.524805E-005	0.0006813	10
	21	64	2390.625	3.423552	-2.724218	1	4.375165	-38.51027	1.580961E-005	0.0006516	10
	22	66	1884.191	3.513599	-3.404582	1	4.8925	-44.0972	-2.238952E-006	0.0006593	10
	23	68	1516.544	3.616492	-4.166793	1	5.517353	-49.04425	-2.49379E-005	0.0006883	10
	24	70	1193.986	3.758501	-5.199347	1	6.41557	-54.13761	2.163215E-005	0.00067	10
	25	73	946.5144	3.930151	-6.444217	1	7.548113	-58.62214	-2.501532E-005	0.0006813	10
	26	75	751.7689	4.146029	-7.965257	1	8.979692	-62.50239	-2.28157E-005	0.0006864	10
	27	78	597.4265	4.414538	-9.83937	1	10.78431	-65.8361	-2.551933E-005	0.000691	10
	28	80	477.4305	4.741786	-12.07895	1	12.97634	-68.5667	-1.524342E-006	0.0006763	10
	29	82	376.6741	5.171718	-15.0048	1	15.87106	-70.98241	-1.783023E-006	0.0006772	10
	30	85	298.2954	5.701941	-18.57151	1	19.42712	-72.93214	-1.233632E-006	0.0006836	10
	31	87	237.7717	6.347696	-22.84749	1	23.71289	-74.47316	-2.064531E-006	0.000678	10
	32	89	189.0121	7.169056	-28.17712	1	29.07483	-75.72521	-1.766087E-006	0.0006763	10
	33	92	150.2404	8.205316	-34.74221	1	35.69802	-76.71156	-1.481809E-006	0.0006787	10
	34	94	119.1737	9.52362	-42.86345	1	43.9087	-77.47322	1.312258E-006	7.83841E-005	9
	35	96	95.0169	11.18795	-52.67523	1	53.85026	-78.00887	1.144544E-006	0.0001062	9
	36	99	75.60484	13.3542	-64.82266	1	66.18393	-78.35928	1.100066E-006	8.093048E-005	9
	37	102	54.50582	17.62265	-87.11662	1	88.88117	-78.56407	9.942177E-007	7.468285E-005	9
	38	104	45.95588	20.56007	-101.5247	1	103.5856	-78.55168	1.382934E-006	8.634493E-005	9
	39	106	37.20238	25.09016	-122.5342	1	125.0765	-78.42805	1.306495E-006	8.483922E-005	9
	40	109	30.04808	30.91578	-148.0202	1	151.2143	-78.20269	1.202599E-006	8.643101E-005	9
	41	111	23.91582	38.58981	-180.3709	1	184.4528	-77.9238	1.263961E-006	7.955611E-005	9
	42	114	18.60119	49.40031	-224.0598	1	229.4411	-77.56645	1.190685E-006	8.307178E-005	9
	43	116	15.02404	60.55281	-268.6389	1	275.3789	-77.29748	1.276487E-006	7.390533E-005	9
	44	118	12.01923	74.37164	-324.4588	1	332.8733	-77.08982	1.415143E-006	8.777205E-005	9
	45	121	9.450605	91.80212	-397.0666	1	407.5408	-76.98191	1.225249E-006	8.382351E-005	9
	46	123	7.512019	110.5295	-480.0035	1	492.5649	-77.03265	7.003362E-007	0.0006739	8
	47	126	5.978954	132.554	-581.8744	1	596.7817	-77.16673	6.66931E-007	0.0006634	8
	48	129	4.734848	158.5203	-709.5807	1	727.0718	-77.40691	7.674782E-007	0.0006893	8
	49	132	3.75601	188.1809	-866.1195	1	886.3267	-77.74192	7.388032E-007	0.0006604	8
	50	136	3.004808	220.6019	-1050.482	1	1073.396	-78.14018	7.183999E-007	0.0006991	8
	51	139	2.372217	261.292	-1292.89	1	1319.029	-78.57447	6.983268E-007	0.0007454	8
	52	144	1.878005	307.109	-1590.658	1	1620.034	-79.07233	6.823468E-007	0.0006341	8
	53	148	1.512097	360.5451	-1927.642	1	1961.07	-79.40584	7.17781E-007	0.0007141	8
	54	154	1.201923	426.669	-2379.688	1	2417.636	-79.83509	6.868461E-007	0.0006279	8
	55	160	0.956633	511.651	-2931.47	1	2975.787	-80.09948	6.718674E-007	1.447021E-005	8
