EXPLAIN
TAG	EISPOT
TITLE	LABEL	Potentiostatic EIS	Test Identifier
DATE	LABEL	2/24/2021	Date
TIME	LABEL	12:22:26	Time
NOTES	NOTES	1	Notes...
	
PSTAT	PSTAT	REF3000-16137	Potentiostat
VDC	POTEN	0.00000E+000	T	DC Voltage (V)
FREQINIT	QUANT	3.00000E+005	Initial Freq. (Hz)
FREQFINAL	QUANT	1.00000E+000	Final Freq. (Hz)
PTSPERDEC	QUANT	1.00000E+001	Points/decade
VAC	QUANT	5.00000E+001	AC Voltage (mV rms)
AREA	QUANT	1.00000E+000	Sample Area (cm^2)
SPEED	SELECTOR	2	Optimize for:
ZGUESS	QUANT	1.00000E+003	Estimated Z (ohms)
EOC	QUANT	0	Open Circuit (V)
SEQUENCER	TOGGLE	TRUE	Run as Sequence
PSTATMODEL	IQUANT	5	Pstat Model
PSTATSECTION	LABEL	REF3000-16137	Pstat Section
PSTATSERIALNO	LABEL	16137	Pstat Serial Number
CTRLMODE	IQUANT	1	Control Mode
IESTAB	IQUANT	0	I/E Stability
CASPEED	IQUANT	1	Control Amp Speed
CONVENTION	IQUANT	1	Current Convention
ICHRANGE	IQUANT	2	Ich Range
ICHRANGEMODE	TOGGLE	F	Ich Auto Range
ICHOFFSETENABLE	TOGGLE	T	Ich Offset Enable
ICHOFFSET	QUANT	0	Ich Offset (V)
ICHFILTER	IQUANT	3	Ich Filter
VCHRANGE	IQUANT	2	Vch Range
VCHRANGEMODE	TOGGLE	F	Vch Auto Range
VCHOFFSETENABLE	TOGGLE	T	Vch Offset Enable
VCHOFFSET	QUANT	0	Vch Offset (V)
VCHFILTER	IQUANT	3	Vch Filter
ACHRANGE	IQUANT	2	Ach Range
ACHOFFSETENABLE	TOGGLE	F	Ach Offset Enable
ACHOFFSET	QUANT	0	Ach Offset (V)
ACHFILTER	IQUANT	3	Ach Filter
IERANGELOWERLIMIT	IQUANT	2	I/E Range Lower Limit
IERANGEMODE	TOGGLE	F	I/E AutoRange
IERANGE	IQUANT	11	I/E Range
POSFEEDENABLE	TOGGLE	F	Positive Feedback IR Comp
POSFEEDRESISTANCE	QUANT	0	Positive Feedback Resistance (ohm)
ACHSELECT	IQUANT	0	Ach Select
CABLEID	IQUANT	13	Cable ID
DCCALDATE	LABEL	7/31/2020	DC Calibration Date
ACCALDATE	LABEL	7/31/2020	AC Calibration Date
THERMOSELECT	IQUANT	1	Thermo Select
FRAMEWORKVERSION	QUANT	6.33	Framework Version
INSTRUMENTVERSION	LABEL	3.50	Instrument Version
COMPLIANCEVOLTAGE	IQUANT	0	Compliance Voltage
ZCURVE	TABLE
	Pt	Time	Freq	Zreal	Zimag	Zsig	Zmod	Zphz	Idc	Vdc	IERange
	#	s	Hz	ohm	ohm	V	ohm	°	A	V	#
	0	11	300046.9	3.44031	2.254088	1	4.112985	33.23279	2.510292E-006	-0.0001104	10
	1	14	238359.4	3.406251	1.786988	1	3.846541	27.68241	-0.0001043	-0.0004783	10
	2	17	189328.1	3.39377	1.405327	1	3.67323	22.49397	1.858559E-005	-0.0001288	10
	3	19	150421.9	3.380813	1.108341	1	3.557853	18.15083	1.057022E-005	0.0001985	10
	4	22	119484.4	3.379218	0.851835	1	3.48493	14.14838	-4.150647E-005	0.0003639	10
	5	24	94921.88	3.378684	0.630566	1	3.437022	10.57153	1.045423E-005	0.0004775	11
	6	28	75421.88	3.381149	0.4618079	1	3.412541	7.777512	-3.582421E-005	0.0005945	11
	7	31	59859.37	3.385923	0.3171862	1	3.400748	5.351731	-1.365718E-006	0.0006581	11
	8	33	47578.12	3.392062	0.1910868	1	3.39744	3.224266	-1.27526E-005	0.0006595	11
	9	36	37828.12	3.400029	0.0760894	1	3.400881	1.28201	1.937288E-005	0.000723	11
	10	38	30046.88	3.409956	-0.0335518	1	3.410121	-0.5637353	-1.613166E-005	0.0006928	11
	11	41	23859.38	3.42005	-0.1437646	1	3.42307	-2.407057	-5.068975E-005	0.0006424	11
	12	43	18984.38	3.432575	-0.2588061	1	3.442317	-4.311777	-5.293261E-005	0.0006502	11
	13	45	15046.87	3.446793	-0.3865418	1	3.468399	-6.39872	1.738432E-005	0.0007213	11
	14	48	11953.13	3.464837	-0.5308129	1	3.505261	-8.709991	1.066924E-005	0.0007131	11
	15	50	9515.62	3.489479	-0.697309	1	3.558469	-11.30067	-7.172947E-006	0.0006841	10
	16	52	7546.875	3.515066	-0.9004088	1	3.628557	-14.36778	-2.907581E-005	0.0006734	10
	17	55	5928.309	3.547798	-1.155593	1	3.731255	-18.04153	5.477622E-006	0.0006844	10
	18	57	4733.456	3.586554	-1.445299	1	3.866815	-21.94831	1.187943E-005	0.0006533	10
	19	59	3796.875	3.632712	-1.79027	1	4.049897	-26.23497	-2.880941E-005	0.0006699	10
	20	62	2987.132	3.693848	-2.249682	1	4.324995	-31.34287	-2.542383E-005	0.0006919	10
	21	64	2390.625	3.763493	-2.775408	1	4.676192	-36.40711	-2.808452E-005	0.0006723	10
	22	66	1884.191	3.856191	-3.466249	1	5.185083	-41.95171	5.429142E-006	0.0006863	10
	23	69	1516.544	3.960984	-4.241963	1	5.803761	-46.96181	-1.358416E-005	0.0006939	10
	24	71	1193.986	4.106274	-5.293612	1	6.699539	-52.19914	1.641514E-005	0.000655	10
	25	73	946.5144	4.277953	-6.564129	1	7.835092	-56.90704	-3.039067E-005	0.000679	10
	26	76	751.7689	4.501601	-8.111335	1	9.276754	-60.97075	2.113211E-005	0.0006713	10
	27	78	597.4265	4.769247	-10.02217	1	11.09908	-64.55164	-2.006197E-005	0.0007028	10
	28	80	477.4305	5.102714	-12.30634	1	13.32231	-67.4791	-1.760458E-006	0.0006907	10
	29	83	376.6741	5.538074	-15.2887	1	16.26084	-70.08794	-2.19358E-006	0.0006869	10
	30	85	298.2954	6.074108	-18.92516	1	19.87603	-72.20576	-2.205777E-006	0.0006844	10
	31	87	237.7717	6.724548	-23.28351	1	24.23513	-73.89067	-2.223548E-006	0.0006854	10
	32	90	189.0121	7.550821	-28.71844	1	29.6945	-75.26887	-1.664632E-006	0.0006837	10
	33	92	150.2404	8.588233	-35.41216	1	36.43869	-76.36771	-2.372946E-006	0.000684	10
	34	95	119.1737	9.90551	-43.69693	1	44.80559	-77.22767	1.218903E-006	8.513201E-005	9
	35	97	95.0169	11.55888	-53.71545	1	54.94503	-77.85587	1.176011E-006	8.409252E-005	9
	36	99	75.60484	13.69895	-66.12714	1	67.53117	-78.29611	1.083193E-006	8.295436E-005	9
	37	102	54.50582	17.89358	-88.94527	1	90.72729	-78.62534	9.388516E-007	8.314947E-005	9
	38	105	45.95588	20.80124	-103.7446	1	105.8094	-78.66228	1.350752E-006	8.704827E-005	9
	39	107	37.20238	25.27183	-125.3754	1	127.8971	-78.60364	1.300148E-006	8.056178E-005	9
	40	109	30.04808	31.00191	-151.5352	1	154.6739	-78.43766	1.135352E-006	8.400901E-005	9
	41	112	23.91582	38.79124	-185.1186	1	189.1393	-78.16502	1.181466E-006	8.024368E-005	9
	42	114	18.60119	49.66093	-230.2598	1	235.5542	-77.82924	1.38481E-006	8.455596E-005	9
	43	116	15.02404	61.11433	-276.4635	1	283.1378	-77.5348	1.329346E-006	8.643109E-005	9
	44	119	12.01923	75.53347	-334.2364	1	342.6649	-77.26574	1.199146E-006	8.089704E-005	9
	45	121	9.450605	93.8131	-409.2171	1	419.8328	-77.08804	1.205651E-006	8.6304E-005	9
	46	124	7.512019	113.8346	-494.4188	1	507.3542	-77.03422	6.40576E-007	0.0006439	8
	47	126	5.978954	137.146	-599.3495	1	614.8406	-77.11121	6.989929E-007	0.0006628	8
	48	129	4.734848	164.398	-730.6896	1	748.9553	-77.32014	6.614122E-007	0.0006385	8
	49	132	3.75601	195.9509	-890.1809	1	911.4926	-77.58576	7.412281E-007	0.0006772	8
	50	136	3.004808	230.1553	-1078.215	1	1102.506	-77.95051	6.888239E-007	0.0006693	8
	51	140	2.372217	273.3264	-1322.974	1	1350.913	-78.32692	6.42912E-007	0.0006393	8
	52	144	1.878005	322.0345	-1629.378	1	1660.897	-78.82	7.07164E-007	0.0006461	8
	53	149	1.512097	371.7907	-1973.972	1	2008.679	-79.3335	6.551191E-007	0.0007157	8
	54	154	1.201923	442.5151	-2432.815	1	2472.733	-79.69093	7.017627E-007	0.0006654	8
	55	160	0.956633	527.006	-2992.671	1	3038.72	-80.01268	6.642049E-007	1.292995E-005	8
