EXPLAIN
TAG	EISPOT
TITLE	LABEL	Potentiostatic EIS	Test Identifier
DATE	LABEL	2/24/2021	Date
TIME	LABEL	12:42:02	Time
NOTES	NOTES	1	Notes...
	
PSTAT	PSTAT	REF3000-16137	Potentiostat
VDC	POTEN	0.00000E+000	T	DC Voltage (V)
FREQINIT	QUANT	3.00000E+005	Initial Freq. (Hz)
FREQFINAL	QUANT	1.00000E+000	Final Freq. (Hz)
PTSPERDEC	QUANT	1.00000E+001	Points/decade
VAC	QUANT	5.00000E+001	AC Voltage (mV rms)
AREA	QUANT	1.00000E+000	Sample Area (cm^2)
SPEED	SELECTOR	2	Optimize for:
ZGUESS	QUANT	1.00000E+003	Estimated Z (ohms)
EOC	QUANT	0	Open Circuit (V)
SEQUENCER	TOGGLE	TRUE	Run as Sequence
PSTATMODEL	IQUANT	5	Pstat Model
PSTATSECTION	LABEL	REF3000-16137	Pstat Section
PSTATSERIALNO	LABEL	16137	Pstat Serial Number
CTRLMODE	IQUANT	1	Control Mode
IESTAB	IQUANT	0	I/E Stability
CASPEED	IQUANT	1	Control Amp Speed
CONVENTION	IQUANT	1	Current Convention
ICHRANGE	IQUANT	2	Ich Range
ICHRANGEMODE	TOGGLE	F	Ich Auto Range
ICHOFFSETENABLE	TOGGLE	T	Ich Offset Enable
ICHOFFSET	QUANT	0	Ich Offset (V)
ICHFILTER	IQUANT	3	Ich Filter
VCHRANGE	IQUANT	2	Vch Range
VCHRANGEMODE	TOGGLE	F	Vch Auto Range
VCHOFFSETENABLE	TOGGLE	T	Vch Offset Enable
VCHOFFSET	QUANT	0	Vch Offset (V)
VCHFILTER	IQUANT	3	Vch Filter
ACHRANGE	IQUANT	2	Ach Range
ACHOFFSETENABLE	TOGGLE	F	Ach Offset Enable
ACHOFFSET	QUANT	0	Ach Offset (V)
ACHFILTER	IQUANT	3	Ach Filter
IERANGELOWERLIMIT	IQUANT	2	I/E Range Lower Limit
IERANGEMODE	TOGGLE	F	I/E AutoRange
IERANGE	IQUANT	11	I/E Range
POSFEEDENABLE	TOGGLE	F	Positive Feedback IR Comp
POSFEEDRESISTANCE	QUANT	0	Positive Feedback Resistance (ohm)
ACHSELECT	IQUANT	0	Ach Select
CABLEID	IQUANT	13	Cable ID
DCCALDATE	LABEL	7/31/2020	DC Calibration Date
ACCALDATE	LABEL	7/31/2020	AC Calibration Date
THERMOSELECT	IQUANT	1	Thermo Select
FRAMEWORKVERSION	QUANT	6.33	Framework Version
INSTRUMENTVERSION	LABEL	3.50	Instrument Version
COMPLIANCEVOLTAGE	IQUANT	0	Compliance Voltage
ZCURVE	TABLE
	Pt	Time	Freq	Zreal	Zimag	Zsig	Zmod	Zphz	Idc	Vdc	IERange
	#	s	Hz	ohm	ohm	V	ohm	°	A	V	#
	0	8	300046.9	9.292973	2.172835	1	9.54361	13.16018	-5.879633E-006	2.2941E-005	10
	1	11	238359.4	9.282876	1.712524	1	9.439519	10.45252	1.216797E-005	0.0001363	10
	2	14	189328.1	9.294951	1.352069	1	9.392775	8.276351	-8.786513E-005	0.0004233	10
	3	17	150421.9	9.320871	1.060017	1	9.380953	6.488091	-1.507075E-005	0.0005309	10
	4	19	119484.4	9.331241	0.8116296	1	9.366472	4.971066	-8.982081E-005	0.0006554	10
	5	22	94921.88	9.353782	0.6327544	1	9.375159	3.869987	-2.276985E-005	0.0006028	10
	6	24	75421.88	9.378278	0.4528738	1	9.389206	2.764646	2.119344E-005	0.0006366	10
	7	27	59859.37	9.407118	0.2957311	1	9.411765	1.800612	5.05253E-006	0.0005982	10
	8	29	47578.12	9.440584	0.16212	1	9.441977	0.983824	-1.695974E-005	0.0007043	10
	9	32	37828.12	9.47331	0.0405256	1	9.473396	0.2451027	-1.906425E-005	0.0006378	10
	10	35	30046.88	9.50667	-0.0758615	1	9.50697	-0.4572006	4.649417E-006	0.0006319	10
	11	37	23859.38	9.54135	-0.1944066	1	9.54333	-1.16725	-2.783076E-005	0.0006624	10
	12	39	18984.38	9.57725	-0.3197195	1	9.58258	-1.912008	-1.05439E-005	0.0007273	10
	13	42	15046.87	9.61426	-0.4613655	1	9.62532	-2.747381	-1.688009E-005	0.0006932	10
	14	44	11953.13	9.65299	-0.622525	1	9.67305	-3.689916	-7.910496E-006	0.0006601	10
	15	46	9515.62	9.69691	-0.8104094	1	9.73072	-4.777332	-2.595827E-005	0.0006733	10
	16	49	7546.875	9.744	-1.039454	1	9.79928	-6.089075	-8.715941E-006	0.0006595	10
	17	51	5928.309	9.80069	-1.328864	1	9.89037	-7.721582	-2.767533E-005	0.0006914	10
	18	53	4733.456	9.86003	-1.661694	1	9.99907	-9.56608	1.464311E-005	0.0006799	10
	19	56	3796.875	9.93055	-2.056687	1	10.14129	-11.70093	-2.073216E-005	0.0007147	10
	20	58	2987.132	10.01335	-2.589904	1	10.34286	-14.50148	-2.455295E-005	0.0006933	10
	21	60	2390.625	10.1085	-3.201274	1	10.6033	-17.57254	-3.143133E-005	0.0006761	10
	22	62	1884.191	10.23016	-4.004992	1	10.98618	-21.37978	-2.689814E-005	0.0006903	10
	23	65	1516.544	10.36314	-4.908508	1	11.46682	-25.34461	2.179243E-005	0.0006533	10
	24	67	1193.986	10.54527	-6.136887	1	12.20098	-30.19755	-2.126172E-005	0.0007041	10
	25	70	946.5144	10.76178	-7.605583	1	13.17805	-35.24966	-3.075073E-006	0.0006589	10
	26	72	751.7689	11.01666	-9.420646	1	14.49536	-40.53465	1.227337E-005	0.0006354	10
	27	74	597.4265	11.33329	-11.65563	1	16.25722	-45.80332	-2.518026E-005	0.0007119	10
	28	77	477.4305	11.71721	-14.33138	1	18.51165	-50.73088	-2.203158E-006	0.0006857	10
	29	79	376.6741	12.21796	-17.82988	1	21.61442	-55.57903	-2.400242E-006	0.0006782	10
	30	81	298.2954	12.83585	-22.09838	1	25.55577	-59.84982	-2.187601E-006	0.0006823	10
	31	83	237.7717	13.58542	-27.21701	1	30.41923	-63.47385	-2.051115E-006	0.0006807	10
	32	86	189.0121	14.52456	-33.58863	1	36.59452	-66.61514	-2.03044E-006	0.0006825	10
	33	88	150.2404	15.66947	-41.38517	1	44.25229	-69.26208	1.325826E-006	8.467981E-005	9
	34	91	119.1737	17.12398	-51.14104	1	53.93177	-71.48748	1.316551E-006	8.584524E-005	9
	35	93	95.0169	18.88469	-62.88559	1	65.65995	-73.28487	1.256248E-006	8.866855E-005	9
	36	96	75.60484	21.08612	-77.46632	1	80.28484	-74.77316	1.147563E-006	8.274356E-005	9
	37	98	54.50582	25.19161	-104.3931	1	107.3897	-76.43306	1.206992E-006	7.67342E-005	9
	38	101	45.95588	27.93551	-121.9979	1	125.1554	-77.10255	1.261695E-006	8.665751E-005	9
	39	103	37.20238	32.03522	-147.896	1	151.3258	-77.77818	1.336864E-006	8.404816E-005	9
	40	105	30.04808	37.19445	-179.6683	1	183.4779	-78.304	1.172197E-006	9.051288E-005	9
	41	108	23.91582	44.17216	-221.1102	1	225.4793	-78.7025	1.384887E-006	8.186882E-005	9
	42	110	18.60119	54.24954	-277.9594	1	283.2038	-78.95637	1.414495E-006	8.791501E-005	9
	43	112	15.02404	65.29436	-337.251	1	343.5136	-79.04266	1.470399E-006	9.006365E-005	9
	44	115	12.01923	80.15099	-412.2565	1	419.9757	-78.9978	1.377294E-006	7.895743E-005	9
	45	117	9.450605	100.6766	-508.9625	1	518.8242	-78.81091	7.015152E-007	0.0006623	8
	46	120	7.512019	126.2653	-623.6005	1	636.255	-78.55362	7.226403E-007	0.0006774	8
	47	122	5.978954	158.4722	-761.4871	1	777.802	-78.24403	6.860259E-007	0.0006582	8
	48	125	4.734848	199.8167	-931.6265	1	952.814	-77.89452	6.947134E-007	0.0006867	8
	49	129	3.75601	250.6249	-1136.15	1	1163.465	-77.56027	6.637973E-007	0.0006423	8
	50	132	3.004808	308.3721	-1372.083	1	1406.309	-77.33339	6.469422E-007	0.0006894	8
	51	136	2.372217	381.6255	-1676.303	1	1719.194	-77.17469	6.521267E-007	0.0007319	8
	52	140	1.878005	465.348	-2041.015	1	2093.392	-77.15621	6.404265E-007	0.0006359	8
	53	145	1.512097	557.088	-2448.297	1	2510.877	-77.18112	7.034778E-007	0.0007011	8
	54	150	1.201923	664.2355	-2984.694	1	3057.713	-77.45345	6.575138E-007	0.0006314	8
	55	156	0.956633	786.5915	-3632.472	1	3716.662	-77.78157	6.389899E-007	-5.668337E-006	8
