EXPLAIN
TAG	EISPOT
TITLE	LABEL	Potentiostatic EIS	Test Identifier
DATE	LABEL	8/3/2020	Date
TIME	LABEL	0:49:53	Time
NOTES	NOTES	1	Notes...
	
PSTAT	PSTAT	REF3000-16137	Potentiostat
VDC	POTEN	0.00000E+000	T	DC Voltage (V)
FREQINIT	QUANT	3.00000E+005	Initial Freq. (Hz)
FREQFINAL	QUANT	1.00000E+000	Final Freq. (Hz)
PTSPERDEC	QUANT	1.00000E+001	Points/decade
VAC	QUANT	5.00000E+001	AC Voltage (mV rms)
AREA	QUANT	1.00000E+000	Sample Area (cm^2)
SPEED	SELECTOR	2	Optimize for:
ZGUESS	QUANT	1.00000E+003	Estimated Z (ohms)
EOC	QUANT	0	Open Circuit (V)
SEQUENCER	TOGGLE	TRUE	Run as Sequence
PSTATMODEL	IQUANT	5	Pstat Model
PSTATSECTION	LABEL	REF3000-16137	Pstat Section
PSTATSERIALNO	LABEL	16137	Pstat Serial Number
CTRLMODE	IQUANT	1	Control Mode
IESTAB	IQUANT	0	I/E Stability
CASPEED	IQUANT	1	Control Amp Speed
CONVENTION	IQUANT	1	Current Convention
ICHRANGE	IQUANT	2	Ich Range
ICHRANGEMODE	TOGGLE	F	Ich Auto Range
ICHOFFSETENABLE	TOGGLE	T	Ich Offset Enable
ICHOFFSET	QUANT	0	Ich Offset (V)
ICHFILTER	IQUANT	3	Ich Filter
VCHRANGE	IQUANT	2	Vch Range
VCHRANGEMODE	TOGGLE	F	Vch Auto Range
VCHOFFSETENABLE	TOGGLE	T	Vch Offset Enable
VCHOFFSET	QUANT	0	Vch Offset (V)
VCHFILTER	IQUANT	3	Vch Filter
ACHRANGE	IQUANT	2	Ach Range
ACHOFFSETENABLE	TOGGLE	F	Ach Offset Enable
ACHOFFSET	QUANT	0	Ach Offset (V)
ACHFILTER	IQUANT	2	Ach Filter
IERANGELOWERLIMIT	IQUANT	2	I/E Range Lower Limit
IERANGEMODE	TOGGLE	F	I/E AutoRange
IERANGE	IQUANT	11	I/E Range
POSFEEDENABLE	TOGGLE	F	Positive Feedback IR Comp
POSFEEDRESISTANCE	QUANT	0	Positive Feedback Resistance (ohm)
ACHSELECT	IQUANT	0	Ach Select
CABLEID	IQUANT	13	Cable ID
DCCALDATE	LABEL	7/31/2020	DC Calibration Date
ACCALDATE	LABEL	7/31/2020	AC Calibration Date
THERMOSELECT	IQUANT	1	Thermo Select
FRAMEWORKVERSION	QUANT	6.33	Framework Version
INSTRUMENTVERSION	LABEL	3.50	Instrument Version
COMPLIANCEVOLTAGE	IQUANT	0	Compliance Voltage
ZCURVE	TABLE
	Pt	Time	Freq	Zreal	Zimag	Zsig	Zmod	Zphz	Idc	Vdc	IERange
	#	s	Hz	ohm	ohm	V	ohm	°	A	V	#
	0	10	300046.9	3.642547	1.240686	1	3.848045	18.80933	9.059355E-006	-2.516761E-005	10
	1	13	238359.4	3.658639	0.978589	1	3.787252	14.97456	-2.091889E-005	-0.0004624	10
	2	17	189328.1	3.662936	0.7606605	1	3.741083	11.73154	-0.0001038	-0.0001797	10
	3	19	150421.9	3.665339	0.5763556	1	3.710376	8.936293	-3.231431E-005	0.000131	10
	4	22	119484.4	3.681128	0.4246379	1	3.705539	6.580292	6.007425E-005	0.0003428	10
	5	24	94921.88	3.694081	0.3087654	1	3.706963	4.777894	3.533224E-005	0.0004239	10
	6	27	75421.88	3.706416	0.1921105	1	3.711391	2.967093	2.452718E-005	0.0004865	10
	7	29	59859.37	3.716621	0.0866478	1	3.717631	1.335529	1.866722E-005	0.0005408	10
	8	32	47578.12	3.731303	-0.0119392	1	3.731322	-0.183331	-7.883854E-006	0.0005631	10
	9	35	37828.12	3.746341	-0.1092343	1	3.747933	-1.670134	2.443774E-005	0.000623	10
	10	37	30046.88	3.764392	-0.2111308	1	3.770308	-3.210145	-1.840049E-005	0.0006466	10
	11	40	23859.38	3.76536	-0.3162938	1	3.778621	-4.801627	2.468776E-005	0.0006528	10
	12	42	18984.38	3.781104	-0.435364	1	3.806085	-6.568229	2.359114E-006	0.0006391	10
	13	44	15046.87	3.801726	-0.5754448	1	3.84503	-8.607187	-3.040462E-005	0.0006458	10
	14	47	11953.13	3.826862	-0.7398444	1	3.897722	-10.94196	-9.532093E-006	0.0006799	10
	15	49	9515.62	3.853798	-0.9349686	1	3.965593	-13.63703	-2.840705E-005	0.000657	10
	16	51	7546.875	3.885881	-1.174218	1	4.059416	-16.81353	1.802815E-005	0.0006568	10
	17	53	5928.309	3.923375	-1.479539	1	4.193079	-20.66189	2.222544E-005	0.0006666	10
	18	56	4733.456	3.972473	-1.831492	1	4.374347	-24.75187	-2.533629E-005	0.0006716	10
	19	58	3796.875	4.032459	-2.252487	1	4.61892	-29.18725	-9.472707E-006	0.0006857	10
	20	60	2987.132	4.114147	-2.815776	1	4.985459	-34.38825	-2.408404E-005	0.0006702	10
	21	63	2390.625	4.208869	-3.460687	1	5.448939	-39.4283	2.180046E-005	0.0006717	10
	22	65	1884.191	4.33763	-4.305514	1	6.111669	-44.7871	6.422798E-006	0.0006685	10
	23	67	1516.544	4.483535	-5.251809	1	6.90533	-49.5122	-2.638861E-005	0.0006701	10
	24	70	1193.986	4.682509	-6.53158	1	8.036631	-54.36315	-2.453471E-005	0.0006731	10
	25	72	946.5144	4.93073	-8.057517	1	9.446464	-58.5358	1.43619E-005	0.0006696	10
	26	74	751.7689	5.20906	-9.93802	1	11.22046	-62.33852	-2.022663E-005	0.0006801	10
	27	77	597.4265	5.564327	-12.22478	1	13.43157	-65.5265	1.816383E-005	0.0006646	10
	28	79	477.4305	5.978726	-14.9824	1	16.13126	-68.24554	-2.23352E-006	0.0006915	10
	29	81	376.6741	6.51333	-18.57135	1	19.68041	-70.67325	-9.87984E-007	0.0006803	10
	30	84	298.2954	7.155105	-22.94632	1	24.03599	-72.68151	-1.487141E-006	0.0006809	10
	31	86	237.7717	7.919167	-28.19557	1	29.28657	-74.31178	-1.797119E-006	0.0007136	10
	32	89	189.0121	8.863808	-34.74781	1	35.86052	-75.68962	-5.897281E-007	0.0006783	10
	33	91	150.2404	10.01424	-42.7767	1	43.93326	-76.82406	7.073257E-007	8.246627E-005	9
	34	93	119.1737	11.46156	-52.83844	1	54.06725	-77.76118	8.426665E-007	7.8892E-005	9
	35	96	95.0169	13.21215	-64.96169	1	66.29164	-78.50377	8.568408E-007	7.570045E-005	9
	36	98	75.60484	15.40097	-80.03053	1	81.49893	-79.10724	7.386909E-007	7.834529E-005	9
	37	101	54.50582	19.48099	-107.8616	1	109.6067	-79.76212	7.192398E-007	7.545472E-005	9
	38	103	45.95588	22.19021	-126.0401	1	127.9786	-80.01501	9.242219E-007	8.223583E-005	9
	39	106	37.20238	26.25427	-152.869	1	155.1071	-80.25489	7.956975E-007	7.858951E-005	9
	40	108	30.04808	31.25286	-185.5988	1	188.2118	-80.44167	7.238609E-007	8.403511E-005	9
	41	110	23.91582	37.89261	-228.3513	1	231.4739	-80.57819	7.858741E-007	8.254039E-005	9
	42	113	18.60119	47.36421	-287.112	1	290.9926	-80.63242	7.903275E-007	8.131363E-005	9
	43	115	15.02404	57.41133	-348.6237	1	353.3193	-80.64847	1.07952E-006	0.0000968	9
	44	117	12.01923	70.03958	-424.9417	1	430.6751	-80.64056	3.39968E-007	0.000667	8
	45	120	9.450605	87.8598	-528.2706	1	535.527	-80.55724	2.728774E-007	0.0006716	8
	46	122	7.512019	109.7389	-650.0612	1	659.2589	-80.41805	2.714653E-007	0.0006534	8
	47	125	5.978954	136.8851	-798.177	1	809.8297	-80.2686	2.670614E-007	0.0006744	8
	48	128	4.734848	173.6018	-984.717	1	999.903	-80.00172	3.162245E-007	0.0006473	8
	49	131	3.75601	220.387	-1212.865	1	1232.726	-79.70128	3.46422E-007	0.0006814	8
	50	135	3.004808	279.7893	-1481.031	1	1507.227	-79.30203	3.280849E-007	0.0006508	8
	51	138	2.372217	365.8632	-1827.8	1	1864.057	-78.68093	2.75239E-007	0.0006179	8
	52	143	1.878005	477.8524	-2254.384	1	2304.472	-78.03239	2.753807E-007	0.0007046	8
	53	147	1.512097	612.61	-2727.507	1	2795.458	-77.34119	2.895103E-007	0.0007248	8
	54	153	1.201923	817.7474	-3339.382	1	3438.049	-76.2402	3.258913E-007	0.0006559	8
	55	159	0.956633	1089.973	-4062.738	1	4206.409	-74.98203	2.675546E-007	1.507071E-005	8
