EXPLAIN
TAG	EISPOT
TITLE	LABEL	Potentiostatic EIS	Test Identifier
DATE	LABEL	8/3/2020	Date
TIME	LABEL	1:03:53	Time
NOTES	NOTES	1	Notes...
	
PSTAT	PSTAT	REF3000-16137	Potentiostat
VDC	POTEN	0.00000E+000	T	DC Voltage (V)
FREQINIT	QUANT	3.00000E+005	Initial Freq. (Hz)
FREQFINAL	QUANT	1.00000E+000	Final Freq. (Hz)
PTSPERDEC	QUANT	1.00000E+001	Points/decade
VAC	QUANT	5.00000E+001	AC Voltage (mV rms)
AREA	QUANT	1.00000E+000	Sample Area (cm^2)
SPEED	SELECTOR	2	Optimize for:
ZGUESS	QUANT	1.00000E+003	Estimated Z (ohms)
EOC	QUANT	0	Open Circuit (V)
SEQUENCER	TOGGLE	TRUE	Run as Sequence
PSTATMODEL	IQUANT	5	Pstat Model
PSTATSECTION	LABEL	REF3000-16137	Pstat Section
PSTATSERIALNO	LABEL	16137	Pstat Serial Number
CTRLMODE	IQUANT	1	Control Mode
IESTAB	IQUANT	0	I/E Stability
CASPEED	IQUANT	1	Control Amp Speed
CONVENTION	IQUANT	1	Current Convention
ICHRANGE	IQUANT	2	Ich Range
ICHRANGEMODE	TOGGLE	F	Ich Auto Range
ICHOFFSETENABLE	TOGGLE	T	Ich Offset Enable
ICHOFFSET	QUANT	0	Ich Offset (V)
ICHFILTER	IQUANT	3	Ich Filter
VCHRANGE	IQUANT	2	Vch Range
VCHRANGEMODE	TOGGLE	F	Vch Auto Range
VCHOFFSETENABLE	TOGGLE	T	Vch Offset Enable
VCHOFFSET	QUANT	0	Vch Offset (V)
VCHFILTER	IQUANT	3	Vch Filter
ACHRANGE	IQUANT	2	Ach Range
ACHOFFSETENABLE	TOGGLE	F	Ach Offset Enable
ACHOFFSET	QUANT	0	Ach Offset (V)
ACHFILTER	IQUANT	3	Ach Filter
IERANGELOWERLIMIT	IQUANT	2	I/E Range Lower Limit
IERANGEMODE	TOGGLE	F	I/E AutoRange
IERANGE	IQUANT	11	I/E Range
POSFEEDENABLE	TOGGLE	F	Positive Feedback IR Comp
POSFEEDRESISTANCE	QUANT	0	Positive Feedback Resistance (ohm)
ACHSELECT	IQUANT	0	Ach Select
CABLEID	IQUANT	13	Cable ID
DCCALDATE	LABEL	7/31/2020	DC Calibration Date
ACCALDATE	LABEL	7/31/2020	AC Calibration Date
THERMOSELECT	IQUANT	1	Thermo Select
FRAMEWORKVERSION	QUANT	6.33	Framework Version
INSTRUMENTVERSION	LABEL	3.50	Instrument Version
COMPLIANCEVOLTAGE	IQUANT	0	Compliance Voltage
ZCURVE	TABLE
	Pt	Time	Freq	Zreal	Zimag	Zsig	Zmod	Zphz	Idc	Vdc	IERange
	#	s	Hz	ohm	ohm	V	ohm	°	A	V	#
	0	8	300046.9	8.901499	1.149055	1	8.975355	7.355383	5.859736E-005	3.298113E-005	10
	1	11	238359.4	8.959006	0.9096664	1	9.00507	5.797745	-2.598323E-005	0.0000992	10
	2	14	189328.1	9.007446	0.6953349	1	9.034245	4.414225	-0.0000976	0.0003115	10
	3	17	150421.9	9.045096	0.5242943	1	9.060279	3.317408	-5.210021E-006	0.0003974	10
	4	19	119484.4	9.102467	0.3699078	1	9.10998	2.327116	-1.747744E-005	0.0005496	10
	5	22	94921.88	9.156939	0.2645498	1	9.160759	1.654851	-2.257022E-005	0.0006299	10
	6	24	75421.88	9.207481	0.1382134	1	9.208519	0.8600019	-2.054773E-005	0.0006338	10
	7	27	59859.37	9.263089	0.019357	1	9.263109	0.1197301	2.454548E-005	0.0006357	10
	8	29	47578.12	9.323332	-0.0903748	1	9.32377	-0.5553738	-2.228077E-005	0.0006869	10
	9	32	37828.12	9.384551	-0.1993216	1	9.386667	-1.216741	-2.497708E-005	0.0006365	10
	10	35	30046.88	9.449121	-0.3157846	1	9.454395	-1.914082	-1.079503E-005	0.0006477	10
	11	37	23859.38	9.51401	-0.4441794	1	9.52437	-2.673021	2.513212E-005	0.0006804	10
	12	39	18984.38	9.57985	-0.5900387	1	9.59801	-3.524487	2.518836E-005	0.000672	10
	13	42	15046.87	9.64984	-0.7623926	1	9.67991	-4.517313	-2.062587E-005	0.0006917	10
	14	44	11953.13	9.72575	-0.970084	1	9.77401	-5.696064	2.582814E-005	0.0006659	10
	15	46	9515.62	9.80621	-1.216528	1	9.88138	-7.071806	2.660778E-005	0.0006849	10
	16	49	7546.875	9.8961	-1.522381	1	10.01252	-8.745613	-1.778005E-005	0.0006498	10
	17	51	5928.309	9.99849	-1.911951	1	10.17965	-10.82564	1.968332E-005	0.0006493	10
	18	53	4733.456	10.10829	-2.361718	1	10.38052	-13.15078	-1.699342E-005	0.0006661	10
	19	56	3796.875	10.23248	-2.902277	1	10.63612	-15.83512	-6.198998E-006	0.0006967	10
	20	58	2987.132	10.38113	-3.625735	1	10.99608	-19.25237	1.888017E-005	0.0006454	10
	21	60	2390.625	10.5469	-4.456864	1	11.44992	-22.90775	1.476724E-005	0.0006431	10
	22	62	1884.191	10.7552	-5.551298	1	12.10336	-27.30053	-2.382573E-005	0.0006679	10
	23	65	1516.544	10.98346	-6.780694	1	12.90792	-31.68931	-2.690829E-005	0.0006736	10
	24	67	1193.986	11.28778	-8.444049	1	14.09666	-36.79906	2.434659E-005	0.0006666	10
	25	70	946.5144	11.6465	-10.45412	1	15.65022	-41.91177	-2.460377E-005	0.0006528	10
	26	72	751.7689	12.08421	-12.88644	1	17.66602	-46.84011	1.938305E-005	0.0006504	10
	27	74	597.4265	12.60844	-15.89063	1	20.28509	-51.56973	-1.472014E-005	0.0006864	10
	28	77	477.4305	13.25191	-19.46495	1	23.54777	-55.75263	-2.088645E-006	0.0006867	10
	29	79	376.6741	14.07164	-24.11534	1	27.92062	-59.73583	-1.904633E-006	0.0006797	10
	30	81	298.2954	15.06134	-29.77363	1	33.36635	-63.1669	-9.556561E-007	0.0006828	10
	31	84	237.7717	16.23298	-36.52504	1	39.96984	-66.038	-1.226085E-006	0.0006761	10
	32	86	189.0121	17.64509	-44.86169	1	48.20706	-68.5292	6.101669E-007	0.0001207	9
	33	88	150.2404	19.3781	-55.16635	1	58.47082	-70.64532	9.980547E-007	7.856017E-005	9
	34	91	119.1737	21.50149	-67.98031	1	71.29962	-72.44836	8.902178E-007	9.010261E-005	9
	35	93	95.0169	24.02597	-83.39268	1	86.78471	-73.92796	9.659827E-007	7.782031E-005	9
	36	96	75.60484	27.12997	-102.525	1	106.0539	-75.17823	9.260972E-007	7.132955E-005	9
	37	98	54.50582	32.77963	-137.7705	1	141.6165	-76.6165	8.88267E-007	7.482972E-005	9
	38	101	45.95588	36.49883	-160.8454	1	164.9345	-77.21502	9.945282E-007	8.784505E-005	9
	39	103	37.20238	41.96688	-194.792	1	199.2615	-77.84177	9.766402E-007	7.786677E-005	9
	40	105	30.04808	48.6206	-236.3495	1	241.2987	-78.37557	8.691632E-007	8.309163E-005	9
	41	108	23.91582	57.33886	-290.625	1	296.2274	-78.83917	9.413209E-007	7.724367E-005	9
	42	110	18.60119	69.34013	-365.036	1	371.5634	-79.24457	9.674977E-007	8.482934E-005	9
	43	113	15.02404	81.59408	-440.9308	1	448.4167	-79.51603	3.370396E-007	0.00066	8
	44	115	12.01923	97.8179	-539.7042	1	548.497	-79.72703	3.001672E-007	0.00066	8
	45	117	9.450605	119.1631	-670.6082	1	681.1132	-79.92406	3.474519E-007	0.0006645	8
	46	120	7.512019	144.3988	-825.177	1	837.716	-80.07424	3.754417E-007	0.0006779	8
	47	123	5.978954	174.8649	-1014.471	1	1029.431	-80.22	3.151025E-007	0.000712	8
	48	126	4.734848	214.2789	-1253.09	1	1271.278	-80.29625	3.722186E-007	0.0006784	8
	49	129	3.75601	260.6208	-1545.794	1	1567.61	-80.42993	3.821921E-007	0.0006616	8
	50	132	3.004808	315.17	-1891.273	1	1917.354	-80.53892	3.527922E-007	0.0006854	8
	51	136	2.372217	385.9539	-2342.485	1	2374.068	-80.64386	3.326358E-007	0.0006963	8
	52	140	1.878005	477.5116	-2901.127	1	2940.163	-80.6532	3.65109E-007	0.0006393	8
	53	145	1.512097	574.5839	-3537.306	1	3583.669	-80.77372	3.520059E-007	0.0008143	8
	54	150	1.201923	711.9038	-4377.934	1	4435.438	-80.76387	5.500248E-008	0.0006272	7
	55	157	0.956633	873.2512	-5397.37	1	5467.556	-80.80964	3.048452E-008	-4.223215E-006	7
