EXPLAIN
TAG	EISPOT
TITLE	LABEL	Potentiostatic EIS	Test Identifier
DATE	LABEL	11/21/2021	Date
TIME	LABEL	11:03:26	Time
NOTES	NOTES	1	Notes...
	
PSTAT	PSTAT	REF3000-16137	Potentiostat
VDC	POTEN	0.00000E+000	T	DC Voltage (V)
FREQINIT	QUANT	3.00000E+005	Initial Freq. (Hz)
FREQFINAL	QUANT	1.00000E+000	Final Freq. (Hz)
PTSPERDEC	QUANT	1.00000E+001	Points/decade
VAC	QUANT	5.00000E+001	AC Voltage (mV rms)
AREA	QUANT	1.00000E+000	Sample Area (cm^2)
SPEED	SELECTOR	2	Optimize for:
ZGUESS	QUANT	1.00000E+003	Estimated Z (ohms)
EOC	QUANT	0	Open Circuit (V)
SEQUENCER	TOGGLE	TRUE	Run as Sequence
PSTATMODEL	IQUANT	5	Pstat Model
PSTATSECTION	LABEL	REF3000-16137	Pstat Section
PSTATSERIALNO	LABEL	16137	Pstat Serial Number
CTRLMODE	IQUANT	1	Control Mode
IESTAB	IQUANT	0	I/E Stability
CASPEED	IQUANT	1	Control Amp Speed
CONVENTION	IQUANT	1	Current Convention
ICHRANGE	IQUANT	2	Ich Range
ICHRANGEMODE	TOGGLE	F	Ich Auto Range
ICHOFFSETENABLE	TOGGLE	T	Ich Offset Enable
ICHOFFSET	QUANT	0	Ich Offset (V)
ICHFILTER	IQUANT	3	Ich Filter
VCHRANGE	IQUANT	2	Vch Range
VCHRANGEMODE	TOGGLE	F	Vch Auto Range
VCHOFFSETENABLE	TOGGLE	T	Vch Offset Enable
VCHOFFSET	QUANT	0	Vch Offset (V)
VCHFILTER	IQUANT	3	Vch Filter
ACHRANGE	IQUANT	2	Ach Range
ACHOFFSETENABLE	TOGGLE	F	Ach Offset Enable
ACHOFFSET	QUANT	0	Ach Offset (V)
ACHFILTER	IQUANT	3	Ach Filter
IERANGELOWERLIMIT	IQUANT	2	I/E Range Lower Limit
IERANGEMODE	TOGGLE	F	I/E AutoRange
IERANGE	IQUANT	11	I/E Range
POSFEEDENABLE	TOGGLE	F	Positive Feedback IR Comp
POSFEEDRESISTANCE	QUANT	0	Positive Feedback Resistance (ohm)
ACHSELECT	IQUANT	0	Ach Select
CABLEID	IQUANT	13	Cable ID
DCCALDATE	LABEL	9/10/2021	DC Calibration Date
ACCALDATE	LABEL	9/10/2021	AC Calibration Date
THERMOSELECT	IQUANT	1	Thermo Select
FRAMEWORKVERSION	QUANT	6.33	Framework Version
INSTRUMENTVERSION	LABEL	3.50	Instrument Version
COMPLIANCEVOLTAGE	IQUANT	0	Compliance Voltage
ZCURVE	TABLE
	Pt	Time	Freq	Zreal	Zimag	Zsig	Zmod	Zphz	Idc	Vdc	IERange
	#	s	Hz	ohm	ohm	V	ohm	°	A	V	#
	0	8	300046.9	7.417746	2.299623	1	7.766029	17.22429	2.106543E-005	-0.000839	10
	1	11	238359.4	7.381437	1.819621	1	7.60241	13.84806	-8.568682E-006	-0.0008441	10
	2	14	189328.1	7.371008	1.432196	1	7.508858	10.99564	1.310325E-005	-0.0005831	10
	3	17	150421.9	7.373168	1.108242	1	7.455991	8.54799	2.208589E-005	-0.0004135	10
	4	19	119484.4	7.369668	0.8611808	1	7.419814	6.665058	-1.643948E-005	-0.0002459	10
	5	22	94921.88	7.377325	0.6584331	1	7.40665	5.100188	2.057487E-005	-0.0002601	10
	6	24	75421.88	7.382165	0.4736449	1	7.397345	3.671105	1.999836E-005	-0.0002416	10
	7	27	59859.37	7.39367	0.3122641	1	7.400261	2.418391	-1.18358E-005	-0.0001977	10
	8	29	47578.12	7.406599	0.1714147	1	7.408582	1.325789	-2.179395E-005	-0.0001229	10
	9	32	37828.12	7.421202	0.0417566	1	7.421319	0.3223803	2.595758E-005	-0.0001586	10
	10	34	30046.88	7.438241	-0.0816017	1	7.438689	-0.6285417	1.855859E-005	-0.0001775	10
	11	37	23859.38	7.455086	-0.206431	1	7.457943	-1.586112	5.838552E-006	-0.0001669	10
	12	39	18984.38	7.475376	-0.3387053	1	7.483046	-2.594267	-1.282787E-005	-0.0001144	10
	13	42	15046.87	7.496894	-0.4879459	1	7.512756	-3.723924	-1.782516E-005	-0.0001419	10
	14	44	11953.13	7.523266	-0.6575158	1	7.551944	-4.994824	-2.027494E-005	-0.0000984	10
	15	46	9515.62	7.552057	-0.8559438	1	7.600408	-6.466262	2.433863E-005	-0.000146	10
	16	48	7546.875	7.585918	-1.094804	1	7.664512	-8.212258	-9.695352E-006	-0.0001521	10
	17	51	5928.309	7.630126	-1.398131	1	7.757164	-10.38358	1.26958E-005	-0.0001662	10
	18	53	4733.456	7.680562	-1.743702	1	7.87601	-12.79093	1.824383E-005	-0.0001628	10
	19	55	3796.875	7.740664	-2.157264	1	8.035649	-15.57275	4.297276E-006	-0.0001651	10
	20	58	2987.132	7.819055	-2.706247	1	8.274139	-19.09121	-2.631059E-006	-0.0001478	10
	21	60	2390.625	7.909252	-3.336676	1	8.584269	-22.87342	-1.85001E-005	-0.0001392	10
	22	62	1884.191	8.028624	-4.158685	1	9.041762	-27.38336	-1.105542E-005	-0.0001304	10
	23	65	1516.544	8.161777	-5.082067	1	9.61468	-31.90915	1.678297E-005	-0.0001391	10
	24	67	1193.986	8.340425	-6.327044	1	10.46872	-37.18394	-2.297594E-005	-0.0001069	10
	25	69	946.5144	8.55204	-7.815186	1	11.5851	-42.42228	-8.281409E-006	-0.0001148	10
	26	72	751.7689	8.788221	-9.64996	1	13.05199	-47.67585	2.18229E-005	-0.0001507	10
	27	74	597.4265	9.069296	-11.90506	1	14.96605	-52.69978	-2.605967E-005	-0.0001078	10
	28	76	477.4305	9.403728	-14.62922	1	17.39092	-57.26691	-1.450313E-007	-0.000118	10
	29	79	376.6741	9.80931	-18.1891	1	20.66558	-61.66219	-6.951319E-008	-0.0001193	10
	30	81	298.2954	10.28832	-22.56722	1	24.8018	-65.49193	-3.385996E-007	-0.0001147	10
	31	83	237.7717	10.85498	-27.85951	1	29.89955	-68.71247	-8.491543E-007	-0.0001157	10
	32	86	189.0121	11.55528	-34.49762	1	36.38145	-71.48127	-9.378813E-007	-0.0001178	10
	33	88	150.2404	12.40637	-42.69424	1	44.46028	-73.79685	9.720716E-007	-0.0001732	9
	34	91	119.1737	13.49879	-53.01903	1	54.71046	-75.71583	6.263641E-007	-0.0001329	9
	35	93	95.0169	14.83827	-65.54203	1	67.20068	-77.24366	6.012628E-007	-0.0001361	9
	36	95	75.60484	16.53809	-81.18134	1	82.84877	-78.48539	5.840723E-007	-0.0001336	9
	37	98	54.50582	19.77342	-110.2677	1	112.0266	-79.83366	4.966593E-007	-0.0001354	9
	38	100	45.95588	21.95831	-129.3357	1	131.1865	-80.36433	6.318629E-007	-0.0001208	9
	39	103	37.20238	25.26892	-157.5559	1	159.5693	-80.88846	5.406022E-007	-0.0001298	9
	40	105	30.04808	29.43523	-192.2939	1	194.5337	-81.29705	6.247408E-007	-0.000133	9
	41	108	23.91582	35.1165	-237.9763	1	240.5533	-81.60583	6.317849E-007	-0.000132	9
	42	110	18.60119	43.07225	-300.666	1	303.7355	-81.8475	6.217437E-007	-0.0001254	9
	43	112	15.02404	51.78327	-366.6161	1	370.2551	-81.96035	6.740175E-007	-0.0001241	9
	44	115	12.01923	63.25417	-449.2146	1	453.6462	-81.98485	6.05598E-007	-0.0001262	8
	45	117	9.450605	79.43843	-561.3163	1	566.9096	-81.9449	7.269713E-007	-0.0001218	8
	46	119	7.512019	99.6324	-693.882	1	700.9985	-81.82893	7.232865E-007	-0.0000967	8
	47	122	5.978954	125.5892	-856.5464	1	865.7046	-81.65857	7.258992E-007	-0.0001228	8
	48	125	4.734848	161.259	-1062.379	1	1074.548	-81.36893	7.022861E-007	-0.0001168	8
	49	129	3.75601	207.3292	-1313.617	1	1329.878	-81.03095	7.261634E-007	-0.0001199	8
	50	132	3.004808	267.0937	-1609.648	1	1631.658	-80.57858	6.703017E-007	-9.069443E-005	8
	51	136	2.372217	349.898	-1993.133	1	2023.613	-80.04308	6.772243E-007	-6.91606E-005	8
	52	140	1.878005	466.1813	-2460.716	1	2504.485	-79.27248	6.89999E-007	-0.000141	8
	53	145	1.512097	610.3424	-2982.518	1	3044.328	-78.43467	6.864486E-007	-2.959895E-005	8
	54	150	1.201923	808.4473	-3655.536	1	3743.866	-77.52937	6.933701E-007	-0.0001453	8
	55	156	0.956633	1075.569	-4466.632	1	4594.306	-76.46089	9.018274E-008	-0.0006521	7
