EXPLAIN
TAG	EISPOT
TITLE	LABEL	Potentiostatic EIS	Test Identifier
DATE	LABEL	11/21/2021	Date
TIME	LABEL	11:22:51	Time
NOTES	NOTES	1	Notes...
	
PSTAT	PSTAT	REF3000-16137	Potentiostat
VDC	POTEN	0.00000E+000	T	DC Voltage (V)
FREQINIT	QUANT	3.00000E+005	Initial Freq. (Hz)
FREQFINAL	QUANT	1.00000E+000	Final Freq. (Hz)
PTSPERDEC	QUANT	1.00000E+001	Points/decade
VAC	QUANT	5.00000E+001	AC Voltage (mV rms)
AREA	QUANT	1.00000E+000	Sample Area (cm^2)
SPEED	SELECTOR	2	Optimize for:
ZGUESS	QUANT	1.00000E+003	Estimated Z (ohms)
EOC	QUANT	0	Open Circuit (V)
SEQUENCER	TOGGLE	TRUE	Run as Sequence
PSTATMODEL	IQUANT	5	Pstat Model
PSTATSECTION	LABEL	REF3000-16137	Pstat Section
PSTATSERIALNO	LABEL	16137	Pstat Serial Number
CTRLMODE	IQUANT	1	Control Mode
IESTAB	IQUANT	0	I/E Stability
CASPEED	IQUANT	1	Control Amp Speed
CONVENTION	IQUANT	1	Current Convention
ICHRANGE	IQUANT	2	Ich Range
ICHRANGEMODE	TOGGLE	F	Ich Auto Range
ICHOFFSETENABLE	TOGGLE	T	Ich Offset Enable
ICHOFFSET	QUANT	0	Ich Offset (V)
ICHFILTER	IQUANT	3	Ich Filter
VCHRANGE	IQUANT	2	Vch Range
VCHRANGEMODE	TOGGLE	F	Vch Auto Range
VCHOFFSETENABLE	TOGGLE	T	Vch Offset Enable
VCHOFFSET	QUANT	0	Vch Offset (V)
VCHFILTER	IQUANT	3	Vch Filter
ACHRANGE	IQUANT	2	Ach Range
ACHOFFSETENABLE	TOGGLE	F	Ach Offset Enable
ACHOFFSET	QUANT	0	Ach Offset (V)
ACHFILTER	IQUANT	3	Ach Filter
IERANGELOWERLIMIT	IQUANT	2	I/E Range Lower Limit
IERANGEMODE	TOGGLE	F	I/E AutoRange
IERANGE	IQUANT	11	I/E Range
POSFEEDENABLE	TOGGLE	F	Positive Feedback IR Comp
POSFEEDRESISTANCE	QUANT	0	Positive Feedback Resistance (ohm)
ACHSELECT	IQUANT	0	Ach Select
CABLEID	IQUANT	13	Cable ID
DCCALDATE	LABEL	9/10/2021	DC Calibration Date
ACCALDATE	LABEL	9/10/2021	AC Calibration Date
THERMOSELECT	IQUANT	1	Thermo Select
FRAMEWORKVERSION	QUANT	6.33	Framework Version
INSTRUMENTVERSION	LABEL	3.50	Instrument Version
COMPLIANCEVOLTAGE	IQUANT	0	Compliance Voltage
ZCURVE	TABLE
	Pt	Time	Freq	Zreal	Zimag	Zsig	Zmod	Zphz	Idc	Vdc	IERange
	#	s	Hz	ohm	ohm	V	ohm	°	A	V	#
	0	8	300046.9	16.13462	2.128392	1	16.2744	7.51476	2.784765E-005	-0.0006786	10
	1	11	238359.4	16.14812	1.701253	1	16.23749	6.0141	2.173553E-005	-0.0005197	10
	2	14	189328.1	16.17204	1.326619	1	16.22636	4.689568	-2.880133E-005	-0.0004104	10
	3	17	150421.9	16.20806	1.046027	1	16.24177	3.692605	-1.603691E-005	-0.0002054	10
	4	19	119484.4	16.22841	0.7912304	1	16.24769	2.791296	2.387922E-005	-0.0001938	10
	5	22	94921.88	16.25698	0.5763723	1	16.26719	2.030505	-1.543522E-007	-0.0001246	10
	6	25	75421.88	16.29594	0.3980328	1	16.3008	1.399187	-2.125186E-005	-0.0001192	10
	7	27	59859.37	16.33232	0.2418136	1	16.33411	0.8482496	2.357888E-005	-0.000188	10
	8	30	47578.12	16.37409	0.1063395	1	16.37443	0.3720952	1.42597E-005	-0.0001869	10
	9	32	37828.12	16.41914	-0.0241687	1	16.41916	-0.0843384	2.51928E-005	-0.0001361	10
	10	35	30046.88	16.45906	-0.1497289	1	16.45975	-0.5212081	-2.18241E-005	-0.0001421	10
	11	37	23859.38	16.5043	-0.2833335	1	16.50673	-0.983515	-2.194205E-005	-7.253154E-005	10
	12	39	18984.38	16.55004	-0.4260716	1	16.55553	-1.474722	1.983658E-005	-0.0001141	10
	13	42	15046.87	16.59579	-0.592547	1	16.60636	-2.044858	1.747505E-005	-0.0001612	10
	14	44	11953.13	16.65252	-0.781505	1	16.67085	-2.686927	2.613841E-005	-0.0001242	10
	15	46	9515.62	16.70667	-0.999623	1	16.73655	-3.42414	2.137785E-005	-0.0001116	10
	16	49	7546.875	16.77279	-1.267268	1	16.8206	-4.320771	-1.385209E-005	-0.0001369	10
	17	51	5928.309	16.84438	-1.612182	1	16.92136	-5.467147	-1.078983E-005	-0.0001306	10
	18	53	4733.456	16.92251	-2.006836	1	17.04109	-6.763106	2.549707E-005	-0.0001516	10
	19	56	3796.875	17.01587	-2.474154	1	17.1948	-8.272985	1.618766E-005	-0.0001624	10
	20	58	2987.132	17.12896	-3.103962	1	17.40792	-10.27119	-1.603239E-005	-0.0001527	10
	21	60	2390.625	17.25569	-3.825351	1	17.67462	-12.49955	2.044668E-005	-0.0001597	10
	22	62	1884.191	17.41208	-4.767794	1	18.05305	-15.31343	2.369016E-005	-0.0001579	10
	23	65	1516.544	17.59883	-5.832006	1	18.53999	-18.33447	2.210436E-005	-0.0001359	10
	24	67	1193.986	17.84151	-7.265404	1	19.2641	-22.15709	-2.634509E-005	-0.0001027	10
	25	70	946.5144	18.13123	-8.992426	1	20.23871	-26.37972	6.326694E-006	-0.0001609	10
	26	72	751.7689	18.48175	-11.07913	1	21.54814	-30.94114	2.566277E-005	-0.0001468	10
	27	74	597.4265	18.90874	-13.65077	1	23.32132	-35.82661	-2.680814E-005	-0.0001001	10
	28	76	477.4305	19.42179	-16.71625	1	25.62497	-40.71843	-9.496647E-007	-0.000114	10
	29	79	376.6741	20.04732	-20.68509	1	28.80569	-45.89704	-1.170262E-006	-0.0001207	10
	30	81	298.2954	20.76752	-25.51155	1	32.89573	-50.85291	-1.069052E-006	-0.0001131	10
	31	83	237.7717	21.58129	-31.29869	1	38.01789	-55.41269	-1.160614E-006	-0.000118	10
	32	86	189.0121	22.50772	-38.48386	1	44.58257	-59.67829	5.475632E-007	-0.0001297	9
	33	88	150.2404	23.61946	-47.4363	1	52.99133	-63.53038	5.567413E-007	-0.0001295	9
	34	91	119.1737	24.95047	-58.66079	1	63.74648	-66.95827	6.05365E-007	-0.0001303	9
	35	93	95.0169	26.51101	-72.28053	1	76.98901	-69.858	5.635968E-007	-0.0001318	9
	36	96	75.60484	28.42294	-89.31033	1	93.72406	-72.34637	5.193818E-007	-0.0001329	9
	37	98	54.50582	31.92701	-121.0449	1	125.1846	-75.22408	4.931455E-007	-0.0001361	9
	38	101	45.95588	34.25272	-141.8992	1	145.9747	-76.42912	5.557755E-007	-0.0001305	9
	39	103	37.20238	37.69976	-172.7954	1	176.8602	-77.69232	4.166844E-007	-0.0001244	9
	40	105	30.04808	41.99003	-210.8947	1	215.0342	-78.73943	4.849746E-007	-0.0001318	9
	41	108	23.91582	47.76662	-260.9362	1	265.2723	-79.62637	4.080528E-007	-0.0001331	9
	42	110	18.60119	55.75856	-329.8827	1	334.5618	-80.40623	5.404604E-007	-0.0001268	9
	43	112	15.02404	64.46275	-402.6026	1	407.7307	-80.9033	4.556751E-007	-0.0001338	9
	44	115	12.01923	75.43691	-493.4653	1	499.1981	-81.30838	5.762664E-007	-0.0001149	8
	45	117	9.450605	90.91762	-617.2851	1	623.9446	-81.62136	5.847857E-007	-0.0001182	8
	46	120	7.512019	109.5347	-764.2243	1	772.0341	-81.84347	5.643212E-007	-0.0001132	8
	47	122	5.978954	133.2372	-944.1237	1	953.479	-81.96732	5.531253E-007	-0.0001191	8
	48	125	4.734848	164.8763	-1172.49	1	1184.026	-81.99551	5.901722E-007	-0.0001324	8
	49	129	3.75601	204.0952	-1452.4	1	1466.669	-82.00101	5.873478E-007	-0.0001085	8
	50	132	3.004808	252.7691	-1783.323	1	1801.147	-81.9326	5.866588E-007	-0.000134	8
	51	136	2.372217	322.5321	-2217.853	1	2241.182	-81.72575	5.730645E-007	-0.0001786	8
	52	140	1.878005	407.6074	-2754.16	1	2784.159	-81.5815	6.075723E-007	-0.0001233	8
	53	145	1.512097	508.119	-3354.333	1	3392.601	-81.38625	5.700767E-007	-7.332195E-005	8
	54	150	1.201923	659.8203	-4149.981	1	4202.107	-80.96596	6.010092E-007	-0.0001088	8
	55	156	0.956633	856.2643	-5119.299	1	5190.416	-80.50449	6.417486E-008	-0.0006581	7
