EXPLAIN
TAG	EISPOT
TITLE	LABEL	Potentiostatic EIS	Test Identifier
DATE	LABEL	11/21/2021	Date
TIME	LABEL	12:31:44	Time
NOTES	NOTES	1	Notes...
	
PSTAT	PSTAT	REF3000-16137	Potentiostat
VDC	POTEN	0.00000E+000	T	DC Voltage (V)
FREQINIT	QUANT	3.00000E+005	Initial Freq. (Hz)
FREQFINAL	QUANT	1.00000E+000	Final Freq. (Hz)
PTSPERDEC	QUANT	1.00000E+001	Points/decade
VAC	QUANT	5.00000E+001	AC Voltage (mV rms)
AREA	QUANT	1.00000E+000	Sample Area (cm^2)
SPEED	SELECTOR	2	Optimize for:
ZGUESS	QUANT	1.00000E+003	Estimated Z (ohms)
EOC	QUANT	0	Open Circuit (V)
SEQUENCER	TOGGLE	TRUE	Run as Sequence
PSTATMODEL	IQUANT	5	Pstat Model
PSTATSECTION	LABEL	REF3000-16137	Pstat Section
PSTATSERIALNO	LABEL	16137	Pstat Serial Number
CTRLMODE	IQUANT	1	Control Mode
IESTAB	IQUANT	0	I/E Stability
CASPEED	IQUANT	1	Control Amp Speed
CONVENTION	IQUANT	1	Current Convention
ICHRANGE	IQUANT	2	Ich Range
ICHRANGEMODE	TOGGLE	F	Ich Auto Range
ICHOFFSETENABLE	TOGGLE	T	Ich Offset Enable
ICHOFFSET	QUANT	0	Ich Offset (V)
ICHFILTER	IQUANT	3	Ich Filter
VCHRANGE	IQUANT	2	Vch Range
VCHRANGEMODE	TOGGLE	F	Vch Auto Range
VCHOFFSETENABLE	TOGGLE	T	Vch Offset Enable
VCHOFFSET	QUANT	0	Vch Offset (V)
VCHFILTER	IQUANT	3	Vch Filter
ACHRANGE	IQUANT	2	Ach Range
ACHOFFSETENABLE	TOGGLE	F	Ach Offset Enable
ACHOFFSET	QUANT	0	Ach Offset (V)
ACHFILTER	IQUANT	3	Ach Filter
IERANGELOWERLIMIT	IQUANT	2	I/E Range Lower Limit
IERANGEMODE	TOGGLE	F	I/E AutoRange
IERANGE	IQUANT	11	I/E Range
POSFEEDENABLE	TOGGLE	F	Positive Feedback IR Comp
POSFEEDRESISTANCE	QUANT	0	Positive Feedback Resistance (ohm)
ACHSELECT	IQUANT	0	Ach Select
CABLEID	IQUANT	13	Cable ID
DCCALDATE	LABEL	9/10/2021	DC Calibration Date
ACCALDATE	LABEL	9/10/2021	AC Calibration Date
THERMOSELECT	IQUANT	1	Thermo Select
FRAMEWORKVERSION	QUANT	6.33	Framework Version
INSTRUMENTVERSION	LABEL	3.50	Instrument Version
COMPLIANCEVOLTAGE	IQUANT	0	Compliance Voltage
ZCURVE	TABLE
	Pt	Time	Freq	Zreal	Zimag	Zsig	Zmod	Zphz	Idc	Vdc	IERange
	#	s	Hz	ohm	ohm	V	ohm	°	A	V	#
	0	30	300046.9	313.7471	-4431.647	1	4442.74	-85.95039	9.344825E-005	-0.0031863	9
	1	47	238359.4	453.5167	-5389.997	1	5409.043	-85.19044	-1.520601E-005	0.001435	9
	2	64	189328.1	1042.388	-6968.759	1	7046.288	-81.49276	-1.363978E-005	0.0014791	9
	3	73	150421.9	2002.404	-9299.592	1	9512.73	-77.8485	-7.804245E-005	0.0030749	9
	4	84	119484.4	1638.14	-10251.18	1	10381.25	-80.92089	-0.0001017	0.0035035	9
	5	95	94921.88	1939.073	-12916.9	1	13061.63	-81.46256	-2.429541E-005	0.0048724	8
	6	103	75421.88	2959.77	-15709.28	1	15985.67	-79.33004	-1.031114E-005	0.0089936	8
	7	112	59859.37	4077.344	-19709.03	1	20126.37	-78.31171	2.131999E-005	-0.0103188	8
	8	119	47578.12	5914.125	-24114.21	1	24828.86	-76.21993	-2.423381E-005	0.0048323	8
	9	128	37828.12	8100.512	-29152.82	1	30257.31	-74.47131	2.538455E-005	-0.0098031	8
	10	138	30046.88	11165.61	-36794.53	1	38451.38	-73.11914	2.68635E-005	-0.0083929	8
	11	147	23859.38	15270.85	-41899.79	1	44595.87	-69.97516	2.112415E-005	-0.0103038	8
	12	155	18984.38	20384.63	-54198.89	1	57905.55	-69.38833	2.652884E-005	-0.0083073	8
	13	162	15046.87	33562.17	-63786.32	1	72077.14	-62.2482	8.287565E-007	0.0139669	7
	14	168	11953.13	42893.84	-72855.8	1	84544.96	-59.51256	-2.42418E-005	0.000276	9
	15	176	9515.62	57631.38	-85020.93	1	102712.9	-55.86864	1.80964E-005	-0.0010373	8
	16	183	7546.875	75678.63	-94601.98	1	121147.8	-51.34129	-9.847081E-007	0.0196704	7
	17	190	5928.309	92976.7	-89277.1	1	128899.5	-43.8371	7.47086E-006	-0.0199091	7
	18	195	4733.456	107786.2	-112455.8	1	155769.6	-46.21462	-2.421936E-005	0.0048085	8
	19	203	3796.875	151338	-126763.6	1	197413.8	-39.95019	9.605487E-006	0.0026733	8
	20	210	2987.132	177861.8	-101568.7	1	204819.5	-29.72871	-5.559038E-006	0.0042269	7
	21	217	2390.625	190601.6	-99031.2	1	214793.3	-27.45512	5.025137E-006	-0.0269303	7
	22	223	1884.191	236889.6	-64930.16	1	245626.9	-15.32801	-6.267299E-006	0.0250966	7
	23	229	1516.544	238089	-75431.19	1	249752.3	-17.57921	-6.287361E-006	0.0251356	7
	24	235	1193.986	262381.7	-92011.95	1	278047.4	-19.32474	-1.334449E-006	0.0199626	7
	25	242	946.5144	262727.1	-53495.1	1	268118	-11.50893	-6.589772E-007	0.0102923	6
	26	245	751.7689	232614.8	20438.4	1	233511	5.021326	6.473613E-006	-0.0273985	7
	27	250	597.4265	210473.7	-31098.38	1	212758.8	-8.404882	8.703545E-007	-0.0193067	7
	28	256	477.4305	286623.5	-32707.41	1	288483.6	-6.510021	-9.874459E-009	-0.0001773	6
	29	259	376.6741	291910.9	-26898.76	1	293147.6	-5.264776	-1.08631E-008	-0.0001488	6
	30	261	298.2954	296890.8	-22408.55	1	297735.3	-4.316353	-1.023742E-008	-0.0001868	6
	31	263	237.7717	301170.2	-18461.93	1	301735.5	-3.50788	-1.066489E-008	-0.0001027	6
	32	266	189.0121	305432.5	-15311.99	1	305816	-2.869958	-1.097937E-008	-0.0001335	6
	33	268	150.2404	310206.4	-12992.79	1	310478.3	-2.398394	-1.080724E-008	-0.0001552	6
	34	271	119.1737	312504.2	-9279.237	1	312642	-1.700793	-9.874582E-009	-0.000162	6
	35	273	95.0169	317973.4	-8990.639	1	318100.5	-1.619596	-1.081662E-008	-9.446133E-005	6
	36	275	75.60484	322321.8	-7296.179	1	322404.4	-1.296744	-1.00145E-008	-0.000191	6
	37	278	54.50582	326622.3	-6153.457	1	326680.3	-1.079306	-9.794778E-009	-0.0001939	6
	38	280	45.95588	331124.5	-5173.448	1	331164.9	-0.8951094	-1.034546E-008	-0.0001411	6
	39	283	37.20238	335084.1	-4846.361	1	335119.2	-0.8286178	-1.091552E-008	-0.0001419	6
	40	285	30.04808	339580.3	-4298.126	1	339607.4	-0.7251639	-9.95685E-009	-0.0001899	6
	41	288	23.91582	343659.1	-3822.078	1	343680.3	-0.637201	-9.824359E-009	-0.0001785	6
	42	290	18.60119	348240.8	-4270.974	1	348267	-0.7026647	-9.97753E-009	-0.0001455	6
	43	292	15.02404	352470.6	-3567.474	1	352488.7	-0.5798901	-1.074524E-008	-0.0001046	6
	44	295	12.01923	357088.5	-4027.27	1	357111.2	-0.6461586	-9.041605E-009	-0.0001901	6
	45	297	9.450605	361518.4	-3861.727	1	361539	-0.6120082	-1.061329E-008	-0.0001046	6
	46	300	7.512019	366721.7	-4740.701	1	366752.3	-0.7406354	-1.117599E-008	-0.0001142	6
	47	302	5.978954	372534.1	-5246.803	1	372571	-0.8069054	-1.117252E-008	-0.0001038	6
	48	305	4.734848	379755.1	-5744.58	1	379798.6	-0.8666508	-2.81453E-009	-4.107088E-005	5
	49	309	3.75601	386903.2	-6991.872	1	386966.3	-1.035301	1.867558E-010	-2.206452E-005	5
	50	312	3.004808	394674.1	-8504.052	1	394765.7	-1.234363	7.416078E-010	-0.0001318	5
	51	316	2.372217	403271.2	-10076.19	1	403397	-1.431303	-7.704362E-010	-0.0001416	5
	52	320	1.878005	413473.9	-12748.24	1	413670.3	-1.765985	1.162231E-009	-6.031527E-005	5
	53	325	1.512097	425449	-15431.14	1	425728.7	-2.077221	1.491136E-009	-9.072839E-005	5
	54	330	1.201923	439015.6	-18990	1	439426.2	-2.476835	2.130719E-010	-4.732934E-005	5
	55	336	0.956633	455793.4	-23100.32	1	456378.4	-2.901357	-4.521485E-009	-0.0006125	5
