EXPLAIN
TAG	EISPOT
TITLE	LABEL	Potentiostatic EIS	Test Identifier
DATE	LABEL	11/21/2021	Date
TIME	LABEL	11:08:57	Time
NOTES	NOTES	1	Notes...
	
PSTAT	PSTAT	REF3000-16137	Potentiostat
VDC	POTEN	0.00000E+000	T	DC Voltage (V)
FREQINIT	QUANT	3.00000E+005	Initial Freq. (Hz)
FREQFINAL	QUANT	1.00000E+000	Final Freq. (Hz)
PTSPERDEC	QUANT	1.00000E+001	Points/decade
VAC	QUANT	5.00000E+001	AC Voltage (mV rms)
AREA	QUANT	1.00000E+000	Sample Area (cm^2)
SPEED	SELECTOR	2	Optimize for:
ZGUESS	QUANT	1.00000E+003	Estimated Z (ohms)
EOC	QUANT	0	Open Circuit (V)
SEQUENCER	TOGGLE	TRUE	Run as Sequence
PSTATMODEL	IQUANT	5	Pstat Model
PSTATSECTION	LABEL	REF3000-16137	Pstat Section
PSTATSERIALNO	LABEL	16137	Pstat Serial Number
CTRLMODE	IQUANT	1	Control Mode
IESTAB	IQUANT	0	I/E Stability
CASPEED	IQUANT	1	Control Amp Speed
CONVENTION	IQUANT	1	Current Convention
ICHRANGE	IQUANT	2	Ich Range
ICHRANGEMODE	TOGGLE	F	Ich Auto Range
ICHOFFSETENABLE	TOGGLE	T	Ich Offset Enable
ICHOFFSET	QUANT	0	Ich Offset (V)
ICHFILTER	IQUANT	3	Ich Filter
VCHRANGE	IQUANT	2	Vch Range
VCHRANGEMODE	TOGGLE	F	Vch Auto Range
VCHOFFSETENABLE	TOGGLE	T	Vch Offset Enable
VCHOFFSET	QUANT	0	Vch Offset (V)
VCHFILTER	IQUANT	3	Vch Filter
ACHRANGE	IQUANT	2	Ach Range
ACHOFFSETENABLE	TOGGLE	F	Ach Offset Enable
ACHOFFSET	QUANT	0	Ach Offset (V)
ACHFILTER	IQUANT	3	Ach Filter
IERANGELOWERLIMIT	IQUANT	2	I/E Range Lower Limit
IERANGEMODE	TOGGLE	F	I/E AutoRange
IERANGE	IQUANT	11	I/E Range
POSFEEDENABLE	TOGGLE	F	Positive Feedback IR Comp
POSFEEDRESISTANCE	QUANT	0	Positive Feedback Resistance (ohm)
ACHSELECT	IQUANT	0	Ach Select
CABLEID	IQUANT	13	Cable ID
DCCALDATE	LABEL	9/10/2021	DC Calibration Date
ACCALDATE	LABEL	9/10/2021	AC Calibration Date
THERMOSELECT	IQUANT	1	Thermo Select
FRAMEWORKVERSION	QUANT	6.33	Framework Version
INSTRUMENTVERSION	LABEL	3.50	Instrument Version
COMPLIANCEVOLTAGE	IQUANT	0	Compliance Voltage
ZCURVE	TABLE
	Pt	Time	Freq	Zreal	Zimag	Zsig	Zmod	Zphz	Idc	Vdc	IERange
	#	s	Hz	ohm	ohm	V	ohm	°	A	V	#
	0	8	300046.9	8.915567	2.255776	1	9.196514	14.19874	6.622379E-005	-0.0009917	10
	1	11	238359.4	8.898085	1.798402	1	9.078004	11.42619	2.194268E-005	-0.0007335	10
	2	14	189328.1	8.897004	1.417829	1	9.009269	9.054533	5.034596E-005	-0.0003987	10
	3	17	150421.9	8.897555	1.115545	1	8.967215	7.146259	6.698672E-005	-0.0005759	10
	4	19	119484.4	8.903186	0.8476077	1	8.943442	5.438324	3.151765E-005	-0.0003567	10
	5	22	94921.88	8.916213	0.6462348	1	8.939602	4.14547	2.020687E-005	-0.0002482	10
	6	24	75421.88	8.92759	0.4602056	1	8.939444	2.95091	6.464652E-006	-0.0002286	10
	7	27	59859.37	8.942231	0.2987647	1	8.947221	1.913571	-2.618306E-005	-0.0001732	10
	8	29	47578.12	8.961556	0.157773	1	8.962945	1.008619	-2.185336E-005	-0.0001171	10
	9	32	37828.12	8.980797	0.0288322	1	8.980844	0.1839433	-1.615655E-005	-0.0000962	10
	10	34	30046.88	9.000107	-0.0965031	1	9.000624	-0.614327	1.89328E-005	-0.0001786	10
	11	37	23859.38	9.0237	-0.2236082	1	9.02647	-1.419505	2.322151E-005	-0.0001311	10
	12	39	18984.38	9.046064	-0.3586298	1	9.05317	-2.270293	2.277546E-005	-0.0001681	10
	13	41	15046.87	9.07387	-0.5118538	1	9.088295	-3.228613	1.810553E-005	-0.0001718	10
	14	44	11953.13	9.104919	-0.6848586	1	9.13064	-4.301604	-1.709785E-005	-7.637512E-005	10
	15	46	9515.62	9.138811	-0.8887138	1	9.181921	-5.554327	1.12928E-005	-0.000108	10
	16	48	7546.875	9.177875	-1.13531	1	9.247828	-7.051711	1.213806E-005	-0.0001609	10
	17	51	5928.309	9.227122	-1.449507	1	9.340281	-8.927744	7.76496E-006	-0.0001324	10
	18	53	4733.456	9.283079	-1.80611	1	9.457145	-11.00989	2.386756E-005	-0.0001484	10
	19	55	3796.875	9.347548	-2.228938	1	9.60962	-13.41182	1.477532E-005	-0.000172	10
	20	58	2987.132	9.43292	-2.800866	1	9.83996	-16.53745	2.33043E-005	-0.0001475	10
	21	60	2390.625	9.53275	-3.447475	1	10.13698	-19.8823	-6.058937E-006	-0.0001195	10
	22	62	1884.191	9.66051	-4.304864	1	10.57626	-24.01846	-2.396373E-005	-0.0001076	10
	23	64	1516.544	9.80446	-5.259735	1	11.1262	-28.21192	-1.590031E-005	-0.0001567	10
	24	67	1193.986	9.99724	-6.549836	1	11.95179	-33.23138	-2.425104E-005	-0.0001079	10
	25	69	946.5144	10.2253	-8.098895	1	13.04412	-38.38079	-9.786757E-006	-7.917178E-005	10
	26	72	751.7689	10.49861	-9.98235	1	14.48683	-43.55605	4.701016E-006	-0.0001579	10
	27	74	597.4265	10.81022	-12.29936	1	16.37483	-48.68694	2.156614E-005	-0.0001489	10
	28	76	477.4305	11.1802	-15.09454	1	18.78409	-53.47346	-1.515575E-006	-0.0001113	10
	29	78	376.6741	11.62586	-18.73963	1	22.05299	-58.18499	2.587401E-006	-0.000159	10
	30	81	298.2954	12.14603	-23.21546	1	26.20083	-62.38201	-7.890793E-007	-0.0001145	10
	31	83	237.7717	12.75044	-28.62086	1	31.33253	-65.98728	-1.175635E-006	-0.0001154	10
	32	86	189.0121	13.48726	-35.40316	1	37.88522	-69.14506	-1.248303E-006	-0.0001133	10
	33	88	150.2404	14.37079	-43.77796	1	46.07634	-71.82678	5.724888E-007	-0.0001357	9
	34	90	119.1737	15.49751	-54.33237	1	56.49938	-74.07999	6.500941E-007	-0.0001373	9
	35	93	95.0169	16.86744	-67.13911	1	69.22551	-75.89738	5.523818E-007	-0.0001337	9
	36	95	75.60484	18.59741	-83.14001	1	85.19463	-77.3912	5.164171E-007	-0.0001389	9
	37	98	54.50582	21.86851	-112.899	1	114.9975	-79.03758	5.170662E-007	-0.0001355	9
	38	100	45.95588	24.07122	-132.4339	1	134.6037	-79.69836	9.03716E-007	-0.0001667	9
	39	103	37.20238	27.38794	-161.3531	1	163.6609	-80.36648	5.515378E-007	-0.0001389	9
	40	105	30.04808	31.5627	-196.9245	1	199.4378	-80.89418	5.904993E-007	-0.0001342	9
	41	107	23.91582	37.17747	-243.7118	1	246.5311	-81.32658	5.700714E-007	-0.0001289	9
	42	110	18.60119	45.17171	-307.9993	1	311.2942	-81.65639	5.011286E-007	-0.0001274	9
	43	112	15.02404	53.81333	-375.6195	1	379.4547	-81.84697	5.647295E-007	-0.0001271	9
	44	114	12.01923	65.01395	-460.3309	1	464.8993	-81.96111	6.69682E-007	-0.0001237	8
	45	117	9.450605	80.75883	-575.3981	1	581.0378	-82.01056	6.703452E-007	-0.0001209	8
	46	119	7.512019	100.4316	-711.5058	1	718.559	-81.96558	6.792926E-007	-0.0001049	8
	47	122	5.978954	125.3824	-878.8719	1	887.7706	-81.88081	6.482268E-007	-0.00012	8
	48	125	4.734848	158.3991	-1090.458	1	1101.903	-81.73507	7.068079E-007	-0.0001018	8
	49	128	3.75601	202.5257	-1349.639	1	1364.749	-81.46591	6.118432E-007	-0.0001315	8
	50	132	3.004808	257.699	-1654.501	1	1674.45	-81.14696	6.670505E-007	-0.000145	8
	51	135	2.372217	336.2989	-2051.2	1	2078.585	-80.68906	6.602869E-007	-0.0001284	8
	52	140	1.878005	443.5168	-2540.694	1	2579.115	-80.09792	6.287117E-007	-0.0001228	8
	53	144	1.512097	572.592	-3089.026	1	3141.647	-79.49866	6.496735E-007	-0.0002329	8
	54	150	1.201923	758.4391	-3795.455	1	3870.492	-78.69953	6.316482E-007	-0.0001043	8
	55	156	0.956633	1003.698	-4652.55	1	4759.583	-77.8261	9.264707E-008	-0.0006563	7
