EXPLAIN
TAG	EISPOT
TITLE	LABEL	Potentiostatic EIS	Test Identifier
DATE	LABEL	11/21/2021	Date
TIME	LABEL	11:20:06	Time
NOTES	NOTES	1	Notes...
	
PSTAT	PSTAT	REF3000-16137	Potentiostat
VDC	POTEN	0.00000E+000	T	DC Voltage (V)
FREQINIT	QUANT	3.00000E+005	Initial Freq. (Hz)
FREQFINAL	QUANT	1.00000E+000	Final Freq. (Hz)
PTSPERDEC	QUANT	1.00000E+001	Points/decade
VAC	QUANT	5.00000E+001	AC Voltage (mV rms)
AREA	QUANT	1.00000E+000	Sample Area (cm^2)
SPEED	SELECTOR	2	Optimize for:
ZGUESS	QUANT	1.00000E+003	Estimated Z (ohms)
EOC	QUANT	0	Open Circuit (V)
SEQUENCER	TOGGLE	TRUE	Run as Sequence
PSTATMODEL	IQUANT	5	Pstat Model
PSTATSECTION	LABEL	REF3000-16137	Pstat Section
PSTATSERIALNO	LABEL	16137	Pstat Serial Number
CTRLMODE	IQUANT	1	Control Mode
IESTAB	IQUANT	0	I/E Stability
CASPEED	IQUANT	1	Control Amp Speed
CONVENTION	IQUANT	1	Current Convention
ICHRANGE	IQUANT	2	Ich Range
ICHRANGEMODE	TOGGLE	F	Ich Auto Range
ICHOFFSETENABLE	TOGGLE	T	Ich Offset Enable
ICHOFFSET	QUANT	0	Ich Offset (V)
ICHFILTER	IQUANT	3	Ich Filter
VCHRANGE	IQUANT	2	Vch Range
VCHRANGEMODE	TOGGLE	F	Vch Auto Range
VCHOFFSETENABLE	TOGGLE	T	Vch Offset Enable
VCHOFFSET	QUANT	0	Vch Offset (V)
VCHFILTER	IQUANT	3	Vch Filter
ACHRANGE	IQUANT	2	Ach Range
ACHOFFSETENABLE	TOGGLE	F	Ach Offset Enable
ACHOFFSET	QUANT	0	Ach Offset (V)
ACHFILTER	IQUANT	3	Ach Filter
IERANGELOWERLIMIT	IQUANT	2	I/E Range Lower Limit
IERANGEMODE	TOGGLE	F	I/E AutoRange
IERANGE	IQUANT	11	I/E Range
POSFEEDENABLE	TOGGLE	F	Positive Feedback IR Comp
POSFEEDRESISTANCE	QUANT	0	Positive Feedback Resistance (ohm)
ACHSELECT	IQUANT	0	Ach Select
CABLEID	IQUANT	13	Cable ID
DCCALDATE	LABEL	9/10/2021	DC Calibration Date
ACCALDATE	LABEL	9/10/2021	AC Calibration Date
THERMOSELECT	IQUANT	1	Thermo Select
FRAMEWORKVERSION	QUANT	6.33	Framework Version
INSTRUMENTVERSION	LABEL	3.50	Instrument Version
COMPLIANCEVOLTAGE	IQUANT	0	Compliance Voltage
ZCURVE	TABLE
	Pt	Time	Freq	Zreal	Zimag	Zsig	Zmod	Zphz	Idc	Vdc	IERange
	#	s	Hz	ohm	ohm	V	ohm	°	A	V	#
	0	8	300046.9	14.11936	2.210924	1	14.29141	8.899571	-5.776103E-005	-0.0005024	10
	1	11	238359.4	14.11417	1.733022	1	14.22017	7.00008	5.511434E-005	-0.0004541	10
	2	14	189328.1	14.13055	1.358702	1	14.19572	5.492305	-9.575492E-006	-0.0003151	10
	3	17	150421.9	14.15198	1.04521	1	14.19053	4.223973	2.120011E-005	-0.0003079	10
	4	19	119484.4	14.17264	0.8068762	1	14.19559	3.258443	-3.331087E-005	-0.0002574	10
	5	22	94921.88	14.19475	0.5952539	1	14.20722	2.40128	2.365233E-005	-0.0002255	10
	6	24	75421.88	14.22796	0.4146399	1	14.234	1.669276	-2.17475E-005	-0.0001145	10
	7	27	59859.37	14.25968	0.257789	1	14.262	1.035691	-1.656903E-005	-0.0002024	10
	8	29	47578.12	14.29323	0.1199542	1	14.29374	0.4808364	1.37078E-005	-0.0001828	10
	9	32	37828.12	14.32694	-0.0088266	1	14.32694	-0.0352991	2.266333E-005	-0.0001762	10
	10	34	30046.88	14.36538	-0.1354938	1	14.36602	-0.5403958	-6.643288E-006	-0.0001277	10
	11	37	23859.38	14.40355	-0.2686218	1	14.40605	-1.068425	2.709617E-005	-0.0001227	10
	12	39	18984.38	14.44136	-0.4084767	1	14.44714	-1.620191	1.339806E-005	-0.0001754	10
	13	41	15046.87	14.48515	-0.5685971	1	14.49631	-2.247922	-1.520274E-005	-0.0001099	10
	14	44	11953.13	14.52921	-0.7580254	1	14.54897	-2.986557	-1.050312E-005	-0.0001377	10
	15	46	9515.62	14.58014	-0.974455	1	14.61267	-3.823645	-2.626592E-005	-0.0001205	10
	16	48	7546.875	14.63627	-1.240775	1	14.68877	-4.845607	2.001784E-005	-0.0001584	10
	17	51	5928.309	14.70445	-1.576018	1	14.78867	-6.117585	2.540723E-005	-0.0001428	10
	18	53	4733.456	14.77692	-1.95939	1	14.90625	-7.553246	-1.263498E-005	-0.0001004	10
	19	55	3796.875	14.8616	-2.415197	1	15.05657	-9.230585	-1.452311E-005	-0.0001072	10
	20	58	2987.132	14.96723	-3.033742	1	15.27159	-11.45818	2.401047E-005	-0.0001524	10
	21	60	2390.625	15.08747	-3.734052	1	15.54268	-13.901	-2.511522E-005	-7.852322E-005	10
	22	62	1884.191	15.23629	-4.658974	1	15.93269	-17.00266	2.427529E-005	-0.000153	10
	23	64	1516.544	15.41104	-5.698755	1	16.43094	-20.29358	-2.675259E-005	-0.0001024	10
	24	67	1193.986	15.64123	-7.099164	1	17.17691	-24.41212	-1.055732E-005	-0.0001264	10
	25	69	946.5144	15.91398	-8.789054	1	18.17972	-28.91121	5.14948E-006	-0.0001628	10
	26	72	751.7689	16.25296	-10.83018	1	19.53079	-33.67755	2.386348E-005	-0.000138	10
	27	74	597.4265	16.6574	-13.3331	1	21.33637	-38.67486	2.560481E-005	-0.0001506	10
	28	76	477.4305	17.13468	-16.33082	1	23.6705	-43.62399	-5.035145E-007	-0.0001118	10
	29	78	376.6741	17.71556	-20.21669	1	26.8804	-48.77243	-1.059418E-006	-0.0001141	10
	30	81	298.2954	18.38193	-24.95256	1	30.99235	-53.62185	-1.347415E-006	-0.0001139	10
	31	83	237.7717	19.13591	-30.64375	1	36.12787	-58.01672	-1.09974E-006	-0.0001111	10
	32	86	189.0121	19.99947	-37.72357	1	42.69714	-62.06932	5.951176E-007	-0.000128	9
	33	88	150.2404	21.04727	-46.55402	1	51.09075	-65.67207	5.146914E-007	-0.0001267	9
	34	90	119.1737	22.3121	-57.6315	1	61.79984	-68.83603	5.501965E-007	-0.0001225	9
	35	93	95.0169	23.81135	-71.07385	1	74.95647	-71.47798	4.949638E-007	-0.0001291	9
	36	95	75.60484	25.66706	-87.8866	1	91.55792	-73.71969	5.142288E-007	-0.000132	9
	37	98	54.50582	29.09369	-119.1874	1	122.6869	-76.28233	4.704903E-007	-0.0001296	9
	38	100	45.95588	31.38607	-139.7636	1	143.2444	-77.34332	5.108569E-007	-0.0001268	9
	39	103	37.20238	34.7796	-170.2333	1	173.7498	-78.45306	4.554522E-007	-0.0001262	9
	40	105	30.04808	39.02995	-207.7937	1	211.4275	-79.36207	5.155699E-007	-0.0001383	9
	41	107	23.91582	44.70655	-257.0495	1	260.9082	-80.1337	4.6633E-007	-0.0001315	9
	42	110	18.60119	52.69338	-325.0921	1	329.3349	-80.79314	5.174163E-007	-0.0001264	9
	43	112	15.02404	61.32921	-396.5816	1	401.2957	-81.20915	5.747153E-007	-0.0001262	9
	44	114	12.01923	72.32014	-486.2495	1	491.5982	-81.54038	6.119922E-007	-0.0001192	8
	45	117	9.450605	87.90965	-608.2218	1	614.542	-81.77568	5.605003E-007	-0.0001244	8
	46	119	7.512019	106.6506	-752.4165	1	759.9374	-81.93241	5.754857E-007	-0.0001358	8
	47	122	5.978954	130.4708	-929.8817	1	938.9902	-82.01302	6.041089E-007	-0.000116	8
	48	125	4.734848	161.1793	-1154.966	1	1166.158	-82.05549	5.849927E-007	-0.0001391	8
	49	128	3.75601	201.1942	-1430.437	1	1444.517	-81.99374	6.334772E-007	-0.0001098	8
	50	132	3.004808	250.9686	-1756.906	1	1774.741	-81.87048	5.837654E-007	-9.455364E-005	8
	51	135	2.372217	318.4989	-2182.774	1	2205.888	-81.69829	5.994459E-007	-8.4575E-005	8
	52	140	1.878005	411.8121	-2708.611	1	2739.738	-81.35506	6.097566E-007	-0.0001384	8
	53	144	1.512097	523.947	-3303.609	1	3344.899	-80.98804	6.036461E-007	-1.753037E-005	8
	54	150	1.201923	675.008	-4076.068	1	4131.582	-80.597	6.191182E-007	-0.0001554	8
	55	156	0.956633	878.4455	-5026.214	1	5102.401	-80.08639	6.623251E-008	-0.0006571	7
