EXPLAIN
TAG	EISPOT
TITLE	LABEL	Potentiostatic EIS	Test Identifier
DATE	LABEL	11/21/2021	Date
TIME	LABEL	11:36:41	Time
NOTES	NOTES	1	Notes...
	
PSTAT	PSTAT	REF3000-16137	Potentiostat
VDC	POTEN	0.00000E+000	T	DC Voltage (V)
FREQINIT	QUANT	3.00000E+005	Initial Freq. (Hz)
FREQFINAL	QUANT	1.00000E+000	Final Freq. (Hz)
PTSPERDEC	QUANT	1.00000E+001	Points/decade
VAC	QUANT	5.00000E+001	AC Voltage (mV rms)
AREA	QUANT	1.00000E+000	Sample Area (cm^2)
SPEED	SELECTOR	2	Optimize for:
ZGUESS	QUANT	1.00000E+003	Estimated Z (ohms)
EOC	QUANT	0	Open Circuit (V)
SEQUENCER	TOGGLE	TRUE	Run as Sequence
PSTATMODEL	IQUANT	5	Pstat Model
PSTATSECTION	LABEL	REF3000-16137	Pstat Section
PSTATSERIALNO	LABEL	16137	Pstat Serial Number
CTRLMODE	IQUANT	1	Control Mode
IESTAB	IQUANT	0	I/E Stability
CASPEED	IQUANT	1	Control Amp Speed
CONVENTION	IQUANT	1	Current Convention
ICHRANGE	IQUANT	2	Ich Range
ICHRANGEMODE	TOGGLE	F	Ich Auto Range
ICHOFFSETENABLE	TOGGLE	T	Ich Offset Enable
ICHOFFSET	QUANT	0	Ich Offset (V)
ICHFILTER	IQUANT	3	Ich Filter
VCHRANGE	IQUANT	2	Vch Range
VCHRANGEMODE	TOGGLE	F	Vch Auto Range
VCHOFFSETENABLE	TOGGLE	T	Vch Offset Enable
VCHOFFSET	QUANT	0	Vch Offset (V)
VCHFILTER	IQUANT	3	Vch Filter
ACHRANGE	IQUANT	2	Ach Range
ACHOFFSETENABLE	TOGGLE	F	Ach Offset Enable
ACHOFFSET	QUANT	0	Ach Offset (V)
ACHFILTER	IQUANT	3	Ach Filter
IERANGELOWERLIMIT	IQUANT	2	I/E Range Lower Limit
IERANGEMODE	TOGGLE	F	I/E AutoRange
IERANGE	IQUANT	11	I/E Range
POSFEEDENABLE	TOGGLE	F	Positive Feedback IR Comp
POSFEEDRESISTANCE	QUANT	0	Positive Feedback Resistance (ohm)
ACHSELECT	IQUANT	0	Ach Select
CABLEID	IQUANT	13	Cable ID
DCCALDATE	LABEL	9/10/2021	DC Calibration Date
ACCALDATE	LABEL	9/10/2021	AC Calibration Date
THERMOSELECT	IQUANT	1	Thermo Select
FRAMEWORKVERSION	QUANT	6.33	Framework Version
INSTRUMENTVERSION	LABEL	3.50	Instrument Version
COMPLIANCEVOLTAGE	IQUANT	0	Compliance Voltage
ZCURVE	TABLE
	Pt	Time	Freq	Zreal	Zimag	Zsig	Zmod	Zphz	Idc	Vdc	IERange
	#	s	Hz	ohm	ohm	V	ohm	°	A	V	#
	0	7	300046.9	36.12507	2.382182	1	36.20353	3.772772	9.886552E-006	-0.0013332	9
	1	10	238359.4	36.23916	1.920534	1	36.29001	3.033614	8.439212E-007	-0.0002323	9
	2	13	189328.1	36.33603	1.447113	1	36.36484	2.280648	2.142832E-006	-0.0011363	9
	3	16	150421.9	36.45293	1.119062	1	36.47011	1.758361	2.287267E-005	-0.0004319	9
	4	18	119484.4	36.58632	0.8776329	1	36.59684	1.374148	4.35253E-005	-0.001412	9
	5	21	94921.88	36.74389	0.7120532	1	36.75078	1.110186	-6.224686E-006	-0.0002153	9
	6	23	75421.88	36.84524	0.4994817	1	36.84863	0.7766659	-7.907575E-006	0.0002486	9
	7	26	59859.37	36.93554	0.3076066	1	36.93682	0.4771598	1.225279E-005	-0.0006879	9
	8	28	47578.12	37.04433	0.1377356	1	37.04458	0.2130322	7.656055E-006	-0.0006153	9
	9	31	37828.12	37.14844	-0.0125733	1	37.14844	-0.0193924	-1.219515E-005	-2.746582E-005	9
	10	33	30046.88	37.27345	-0.1731844	1	37.27385	-0.2662127	-3.639353E-006	-0.0002883	9
	11	36	23859.38	37.39341	-0.3347174	1	37.39491	-0.5128545	1.615364E-005	-0.0006373	9
	12	38	18984.38	37.51474	-0.5016894	1	37.51809	-0.7661781	-1.457815E-005	0.0003114	9
	13	41	15046.87	37.61652	-0.6927796	1	37.6229	-1.055091	-9.035792E-006	-8.796117E-005	9
	14	43	11953.13	37.75347	-0.9063972	1	37.76435	-1.375311	1.147919E-005	-0.0006306	9
	15	45	9515.62	37.89013	-1.152115	1	37.90764	-1.741641	-1.467783E-005	0.0002381	9
	16	47	7546.875	38.01786	-1.455526	1	38.04572	-2.192517	-1.420428E-005	0.0003107	9
	17	50	5928.309	38.1741	-1.854149	1	38.2191	-2.780721	-1.418139E-005	0.0003542	9
	18	52	4733.456	38.3305	-2.298219	1	38.39933	-3.431231	1.391344E-005	-0.0003438	9
	19	54	3796.875	38.50401	-2.828627	1	38.60777	-4.201583	-1.274868E-005	7.974781E-006	9
	20	57	2987.132	38.71004	-3.538366	1	38.87142	-5.222717	1.676969E-005	-0.0006219	9
	21	59	2390.625	38.90083	-4.355862	1	39.14394	-6.388995	1.122124E-005	-0.0006232	9
	22	61	1884.191	39.1537	-5.429998	1	39.52843	-7.895655	9.087586E-006	-0.000165	9
	23	64	1516.544	39.4232	-6.644823	1	39.97927	-9.56734	-9.104917E-006	-8.620335E-005	9
	24	66	1193.986	39.76064	-8.286555	1	40.61497	-11.77255	-8.05476E-006	0.0003221	9
	25	68	946.5144	40.15343	-10.26072	1	41.4437	-14.33448	1.686164E-005	-0.0005969	9
	26	71	751.7689	40.61359	-12.6709	1	42.54428	-17.32723	-1.186752E-005	1.510087E-005	9
	27	73	597.4265	41.20267	-15.63428	1	44.06916	-20.77916	9.075637E-006	-0.0001615	9
	28	75	477.4305	41.89302	-19.17785	1	46.07402	-24.59743	5.860344E-007	-0.0001289	9
	29	78	376.6741	42.75713	-23.75396	1	48.9124	-29.0546	5.870747E-007	-0.0001254	9
	30	80	298.2954	43.80426	-29.29289	1	52.69617	-33.77154	5.472324E-007	-0.0001232	9
	31	82	237.7717	45.04206	-35.87469	1	57.58281	-38.5363	5.295598E-007	-0.0001271	9
	32	85	189.0121	46.53421	-44.0033	1	64.0447	-43.39875	5.714807E-007	-0.0001192	9
	33	87	150.2404	48.28963	-53.94471	1	72.4011	-48.16608	5.784778E-007	-0.0001246	9
	34	90	119.1737	50.34835	-66.25945	1	83.21822	-52.77001	5.77527E-007	-0.0001219	9
	35	92	95.0169	52.66618	-81.06632	1	96.672	-56.98951	5.687222E-007	-0.0001259	9
	36	94	75.60484	55.35237	-99.4751	1	113.8384	-60.90649	5.953816E-007	-0.00013	9
	37	97	54.50582	59.8915	-133.6575	1	146.4627	-65.863	4.967567E-007	-0.000135	9
	38	99	45.95588	62.77359	-156.1277	1	168.2747	-68.09663	4.899209E-007	-0.0001252	9
	39	102	37.20238	66.85953	-189.4207	1	200.8741	-70.55858	6.73011E-007	-0.0001286	9
	40	104	30.04808	71.77089	-230.549	1	241.462	-72.7084	5.848357E-007	-0.0001228	9
	41	107	23.91582	78.12525	-284.6562	1	295.1825	-74.65279	4.956377E-007	-0.0001743	9
	42	109	18.60119	86.80439	-359.3173	1	369.6538	-76.41862	5.729971E-007	-0.0001293	9
	43	111	15.02404	95.6039	-436.1466	1	446.502	-77.63624	4.181657E-007	-0.0001311	8
	44	113	12.01923	107.4239	-536.8308	1	547.4735	-78.68414	3.66323E-007	-0.0001208	8
	45	116	9.450605	123.3536	-671.2302	1	682.4706	-79.58681	4.022902E-007	-0.000112	8
	46	118	7.512019	142.6575	-831.4079	1	843.5581	-80.26369	4.058701E-007	-0.0001225	8
	47	121	5.978954	166.5266	-1027.406	1	1040.814	-80.79331	4.059155E-007	-0.0001221	8
	48	124	4.734848	197.9276	-1276.206	1	1291.463	-81.1842	4.325025E-007	-0.0001462	8
	49	127	3.75601	236.6618	-1582.12	1	1599.723	-81.49248	4.271672E-007	-0.0001007	8
	50	131	3.004808	283.9757	-1944.298	1	1964.927	-81.69038	4.322583E-007	-0.0001334	8
	51	134	2.372217	350.0958	-2420.371	1	2445.56	-81.76951	4.130063E-007	-0.0001727	8
	52	139	1.878005	427.9651	-3009.645	1	3039.92	-81.90692	4.448118E-007	-0.000119	8
	53	143	1.512097	517.4246	-3669.301	1	3705.604	-81.97339	4.148151E-007	-8.012652E-005	8
	54	149	1.201923	650.9486	-4559.496	1	4605.729	-81.87492	6.850938E-008	-8.3915E-005	7
	55	155	0.956633	815.8195	-5627.214	1	5686.044	-81.75088	4.359959E-008	-0.0006484	7
