EXPLAIN
TAG	EISPOT
TITLE	LABEL	Potentiostatic EIS	Test Identifier
DATE	LABEL	11/21/2021	Date
TIME	LABEL	11:50:27	Time
NOTES	NOTES	1	Notes...
	
PSTAT	PSTAT	REF3000-16137	Potentiostat
VDC	POTEN	0.00000E+000	T	DC Voltage (V)
FREQINIT	QUANT	3.00000E+005	Initial Freq. (Hz)
FREQFINAL	QUANT	1.00000E+000	Final Freq. (Hz)
PTSPERDEC	QUANT	1.00000E+001	Points/decade
VAC	QUANT	5.00000E+001	AC Voltage (mV rms)
AREA	QUANT	1.00000E+000	Sample Area (cm^2)
SPEED	SELECTOR	2	Optimize for:
ZGUESS	QUANT	1.00000E+003	Estimated Z (ohms)
EOC	QUANT	0	Open Circuit (V)
SEQUENCER	TOGGLE	TRUE	Run as Sequence
PSTATMODEL	IQUANT	5	Pstat Model
PSTATSECTION	LABEL	REF3000-16137	Pstat Section
PSTATSERIALNO	LABEL	16137	Pstat Serial Number
CTRLMODE	IQUANT	1	Control Mode
IESTAB	IQUANT	0	I/E Stability
CASPEED	IQUANT	1	Control Amp Speed
CONVENTION	IQUANT	1	Current Convention
ICHRANGE	IQUANT	2	Ich Range
ICHRANGEMODE	TOGGLE	F	Ich Auto Range
ICHOFFSETENABLE	TOGGLE	T	Ich Offset Enable
ICHOFFSET	QUANT	0	Ich Offset (V)
ICHFILTER	IQUANT	3	Ich Filter
VCHRANGE	IQUANT	2	Vch Range
VCHRANGEMODE	TOGGLE	F	Vch Auto Range
VCHOFFSETENABLE	TOGGLE	T	Vch Offset Enable
VCHOFFSET	QUANT	0	Vch Offset (V)
VCHFILTER	IQUANT	3	Vch Filter
ACHRANGE	IQUANT	2	Ach Range
ACHOFFSETENABLE	TOGGLE	F	Ach Offset Enable
ACHOFFSET	QUANT	0	Ach Offset (V)
ACHFILTER	IQUANT	3	Ach Filter
IERANGELOWERLIMIT	IQUANT	2	I/E Range Lower Limit
IERANGEMODE	TOGGLE	F	I/E AutoRange
IERANGE	IQUANT	11	I/E Range
POSFEEDENABLE	TOGGLE	F	Positive Feedback IR Comp
POSFEEDRESISTANCE	QUANT	0	Positive Feedback Resistance (ohm)
ACHSELECT	IQUANT	0	Ach Select
CABLEID	IQUANT	13	Cable ID
DCCALDATE	LABEL	9/10/2021	DC Calibration Date
ACCALDATE	LABEL	9/10/2021	AC Calibration Date
THERMOSELECT	IQUANT	1	Thermo Select
FRAMEWORKVERSION	QUANT	6.33	Framework Version
INSTRUMENTVERSION	LABEL	3.50	Instrument Version
COMPLIANCEVOLTAGE	IQUANT	0	Compliance Voltage
ZCURVE	TABLE
	Pt	Time	Freq	Zreal	Zimag	Zsig	Zmod	Zphz	Idc	Vdc	IERange
	#	s	Hz	ohm	ohm	V	ohm	°	A	V	#
	0	7	300046.9	108.3519	0.2365972	1	108.3521	0.1251109	-5.243432E-005	0.00057	9
	1	10	238359.4	108.8462	0.143179	1	108.8463	0.0753683	-1.088094E-005	0.0005105	9
	2	13	189328.1	109.4748	-0.195183	1	109.4749	-0.1021528	-7.276661E-005	0.0016781	9
	3	16	150421.9	109.9518	-0.2425154	1	109.952	-0.1263744	-7.485427E-005	0.0025738	9
	4	18	119484.4	110.5336	-0.2562927	1	110.5339	-0.1328507	-3.335133E-005	-0.0003042	9
	5	21	94921.88	110.9792	-0.1702167	1	110.9793	-0.0878785	-3.822541E-006	-0.0004777	9
	6	24	75421.88	111.4085	-0.3102218	1	111.409	-0.1595421	2.102314E-005	-0.0009392	9
	7	26	59859.37	111.8955	-0.4069453	1	111.8962	-0.2083743	2.175401E-005	-0.0004881	9
	8	29	47578.12	112.4534	-0.4762014	1	112.4544	-0.2426265	-3.878592E-006	-0.0004506	9
	9	31	37828.12	112.8213	-0.5429688	1	112.8226	-0.275742	2.206949E-005	-0.0004862	9
	10	34	30046.88	113.3102	-0.6796524	1	113.3122	-0.3436651	-2.001092E-005	0.0002443	9
	11	36	23859.38	113.772	-0.752269	1	113.7745	-0.3788386	-6.065914E-006	0.0004369	9
	12	38	18984.38	114.2794	-0.8656066	1	114.2826	-0.4339774	2.334662E-005	-0.0008049	9
	13	41	15046.87	114.6605	-0.956919	1	114.6645	-0.4781609	-5.936861E-006	0.0004377	9
	14	43	11953.13	115.183	-1.174591	1	115.1889	-0.5842599	1.117753E-005	-0.0008526	9
	15	45	9515.62	115.5777	-1.529039	1	115.5879	-0.7579522	1.705205E-005	-0.000902	9
	16	48	7546.875	116.1364	-1.776085	1	116.15	-0.8761612	2.095158E-005	-0.00051	9
	17	50	5928.309	116.6564	-2.278516	1	116.6787	-1.118951	-1.547101E-005	1.373505E-006	9
	18	52	4733.456	117.0221	-2.812797	1	117.0559	-1.376922	-1.353398E-005	0.0006428	9
	19	55	3796.875	117.5474	-3.464294	1	117.5984	-1.688102	-2.011407E-005	0.0003067	9
	20	57	2987.132	118.0581	-4.307911	1	118.1367	-2.089782	4.304025E-006	-0.0006866	9
	21	59	2390.625	118.6046	-5.231129	1	118.7199	-2.52543	1.036017E-005	-0.0008129	9
	22	61	1884.191	119.493	-6.466207	1	119.6678	-3.097465	-1.282919E-005	0.0006092	9
	23	64	1516.544	119.8927	-7.917649	1	120.1538	-3.778296	-6.312923E-006	0.0004893	9
	24	66	1193.986	120.6234	-9.88983	1	121.0281	-4.687159	2.167463E-005	-0.0008993	9
	25	69	946.5144	121.3032	-12.27395	1	121.9225	-5.777758	2.29479E-005	-0.0008267	9
	26	71	751.7689	122.2496	-15.15087	1	123.1849	-7.064865	3.953367E-006	-0.0006846	9
	27	73	597.4265	123.1684	-18.72528	1	124.5836	-8.644478	-1.767013E-005	0.0001257	9
	28	75	477.4305	124.3629	-22.91146	1	126.4558	-10.43859	4.728217E-007	-0.0001284	9
	29	78	376.6741	125.6506	-28.44536	1	128.8302	-12.75587	3.325557E-007	-0.0001265	9
	30	80	298.2954	127.1755	-35.19241	1	131.955	-15.468	3.622399E-007	-0.0001235	9
	31	82	237.7717	128.9917	-43.26138	1	136.0529	-18.54049	3.254256E-007	-0.0001299	9
	32	85	189.0121	131.2066	-53.25241	1	141.6016	-22.0906	3.789937E-007	-0.0001282	9
	33	87	150.2404	133.9016	-65.47945	1	149.0543	-26.05918	4.167505E-007	-0.0001247	9
	34	90	119.1737	137.2063	-80.54982	1	159.1032	-30.41596	3.961795E-007	-0.000129	9
	35	92	95.0169	141.1545	-98.496	1	172.1222	-34.90689	5.062705E-007	-0.0001329	9
	36	95	75.60484	145.9618	-120.4832	1	189.2645	-39.53774	4.515645E-007	-0.0001304	9
	37	97	54.50582	154.2585	-160.432	1	222.5626	-46.12388	4.455899E-007	-0.0001348	9
	38	100	45.95588	159.6592	-186.2269	1	245.2988	-49.39229	4.160998E-007	-0.0001274	9
	39	102	37.20238	167.0393	-223.918	1	279.3589	-53.27764	2.932365E-007	-0.0001258	9
	40	104	30.04808	175.5072	-269.9248	1	321.9661	-56.96777	3.675914E-007	-0.000168	9
	41	107	23.91582	185.7421	-329.8072	1	378.5141	-60.61249	4.737629E-007	-0.0001337	9
	42	109	18.60119	197.7334	-410.318	1	455.4771	-64.27045	6.690489E-008	-0.0001118	8
	43	111	15.02404	210.4167	-496.643	1	539.3788	-67.03869	1.617824E-007	-0.0001154	8
	44	114	12.01923	225.6369	-607.2818	1	647.845	-69.61734	1.409247E-007	-0.000114	8
	45	116	9.450605	245.1179	-755.4208	1	794.1935	-72.02287	1.306416E-007	-0.000127	8
	46	119	7.512019	268.051	-931.9151	1	969.699	-73.95293	1.25957E-007	-0.0000992	8
	47	121	5.978954	295.0674	-1149.06	1	1186.341	-75.59818	1.390921E-007	-0.0001116	8
	48	124	4.734848	329.1018	-1424.797	1	1462.311	-76.99383	1.358878E-007	-8.255398E-005	8
	49	129	3.75601	372.4881	-1765.963	1	1804.819	-78.0894	1.054923E-007	-0.0001166	8
	50	132	3.004808	423.1087	-2169.803	1	2210.671	-78.96587	1.287345E-007	-0.000155	8
	51	136	2.372217	487.5374	-2700.538	1	2744.194	-79.76643	1.326177E-007	-0.0001667	8
	52	140	1.878005	574.4671	-3354.365	1	3403.201	-80.28183	1.203789E-007	-0.0001043	8
	53	145	1.512097	675.2739	-4098.604	1	4153.859	-80.64417	1.163869E-007	-0.0002137	8
	54	150	1.201923	801.7556	-5086.574	1	5149.374	-81.04263	9.709247E-009	-7.652534E-005	7
	55	156	0.956633	959.277	-6285.814	1	6358.59	-81.32305	6.780666E-009	-0.000654	7
