EXPLAIN
TAG	EISPOT
TITLE	LABEL	Potentiostatic EIS	Test Identifier
DATE	LABEL	11/21/2021	Date
TIME	LABEL	12:05:22	Time
NOTES	NOTES	1	Notes...
	
PSTAT	PSTAT	REF3000-16137	Potentiostat
VDC	POTEN	0.00000E+000	T	DC Voltage (V)
FREQINIT	QUANT	3.00000E+005	Initial Freq. (Hz)
FREQFINAL	QUANT	1.00000E+000	Final Freq. (Hz)
PTSPERDEC	QUANT	1.00000E+001	Points/decade
VAC	QUANT	5.00000E+001	AC Voltage (mV rms)
AREA	QUANT	1.00000E+000	Sample Area (cm^2)
SPEED	SELECTOR	2	Optimize for:
ZGUESS	QUANT	1.00000E+003	Estimated Z (ohms)
EOC	QUANT	0	Open Circuit (V)
SEQUENCER	TOGGLE	TRUE	Run as Sequence
PSTATMODEL	IQUANT	5	Pstat Model
PSTATSECTION	LABEL	REF3000-16137	Pstat Section
PSTATSERIALNO	LABEL	16137	Pstat Serial Number
CTRLMODE	IQUANT	1	Control Mode
IESTAB	IQUANT	0	I/E Stability
CASPEED	IQUANT	1	Control Amp Speed
CONVENTION	IQUANT	1	Current Convention
ICHRANGE	IQUANT	2	Ich Range
ICHRANGEMODE	TOGGLE	F	Ich Auto Range
ICHOFFSETENABLE	TOGGLE	T	Ich Offset Enable
ICHOFFSET	QUANT	0	Ich Offset (V)
ICHFILTER	IQUANT	3	Ich Filter
VCHRANGE	IQUANT	2	Vch Range
VCHRANGEMODE	TOGGLE	F	Vch Auto Range
VCHOFFSETENABLE	TOGGLE	T	Vch Offset Enable
VCHOFFSET	QUANT	0	Vch Offset (V)
VCHFILTER	IQUANT	3	Vch Filter
ACHRANGE	IQUANT	2	Ach Range
ACHOFFSETENABLE	TOGGLE	F	Ach Offset Enable
ACHOFFSET	QUANT	0	Ach Offset (V)
ACHFILTER	IQUANT	3	Ach Filter
IERANGELOWERLIMIT	IQUANT	2	I/E Range Lower Limit
IERANGEMODE	TOGGLE	F	I/E AutoRange
IERANGE	IQUANT	11	I/E Range
POSFEEDENABLE	TOGGLE	F	Positive Feedback IR Comp
POSFEEDRESISTANCE	QUANT	0	Positive Feedback Resistance (ohm)
ACHSELECT	IQUANT	0	Ach Select
CABLEID	IQUANT	13	Cable ID
DCCALDATE	LABEL	9/10/2021	DC Calibration Date
ACCALDATE	LABEL	9/10/2021	AC Calibration Date
THERMOSELECT	IQUANT	1	Thermo Select
FRAMEWORKVERSION	QUANT	6.33	Framework Version
INSTRUMENTVERSION	LABEL	3.50	Instrument Version
COMPLIANCEVOLTAGE	IQUANT	0	Compliance Voltage
ZCURVE	TABLE
	Pt	Time	Freq	Zreal	Zimag	Zsig	Zmod	Zphz	Idc	Vdc	IERange
	#	s	Hz	ohm	ohm	V	ohm	°	A	V	#
	0	18	300046.9	574.3242	-82.65606	1	580.2416	-8.189706	-9.007858E-005	0.0019424	9
	1	25	238359.4	589.2822	-71.47622	1	593.6012	-6.915833	-3.430378E-005	-0.0009014	9
	2	34	189328.1	602.2973	-58.47228	1	605.129	-5.545017	8.166071E-005	-0.0028223	9
	3	43	150421.9	621.1209	-50.9334	1	623.2057	-4.687902	-3.323529E-005	-0.0007364	9
	4	50	119484.4	632.5359	-19.17272	1	632.8264	-1.736154	2.549294E-005	-0.0139073	8
	5	57	94921.88	639.1246	-18.82983	1	639.4019	-1.687555	-2.930069E-006	-0.0031413	8
	6	59	75421.88	643.1556	-16.77793	1	643.3744	-1.494329	-1.257575E-005	0.0009468	8
	7	62	59859.37	646.3224	-13.05231	1	646.4542	-1.156916	-1.503089E-005	0.0023518	8
	8	64	47578.12	650.4419	-11.19022	1	650.5381	-0.985621	-1.669382E-005	0.0049168	8
	9	67	37828.12	653.5875	-9.85472	1	653.6617	-0.8638342	1.764332E-005	-0.0059767	8
	10	69	30046.88	658.1274	-9.290715	1	658.193	-0.8087847	-1.621047E-005	0.0060085	8
	11	72	23859.38	663.6125	-7.150858	1	663.651	-0.6173756	-1.505536E-005	0.0023428	8
	12	74	18984.38	666.0133	-6.173049	1	666.0419	-0.5310397	1.376641E-005	-0.001369	8
	13	77	15046.87	668.3984	-6.653894	1	668.4316	-0.5703596	-1.203899E-005	0.0008175	8
	14	79	11953.13	673.7955	-5.897311	1	673.8213	-0.5014613	8.464949E-006	-0.0062736	8
	15	82	9515.62	676.7859	-4.856534	1	676.8033	-0.4111406	8.232987E-006	-0.006233	8
	16	84	7546.875	682.3081	-4.594047	1	682.3235	-0.3857723	-1.401481E-005	0.0063479	8
	17	87	5928.309	688.6665	-4.951962	1	688.6843	-0.4119869	1.779445E-005	-0.0047022	8
	18	89	4733.456	691.4684	-3.719954	1	691.4784	-0.3082363	2.765247E-006	-0.0049829	8
	19	92	3796.875	695.4411	-5.107128	1	695.4598	-0.4207569	3.053239E-006	-0.0051196	8
	20	95	2987.132	700.7428	-6.687554	1	700.7747	-0.5467869	1.318789E-005	-0.0068608	8
	21	98	2390.625	704.2752	-8.532535	1	704.3269	-0.694124	2.751841E-006	-0.0050017	8
	22	100	1884.191	704.5952	-13.32951	1	704.7213	-1.083791	-1.540488E-005	0.0024141	8
	23	103	1516.544	711.1188	-10.51121	1	711.1965	-0.8468403	-1.681424E-005	0.0038211	8
	24	105	1193.986	718.4724	-14.15189	1	718.6117	-1.12842	-1.677494E-005	0.0037788	8
	25	108	946.5144	723.8397	-16.67228	1	724.0317	-1.319466	-1.683666E-005	0.0038112	8
	26	110	751.7689	726.433	-19.14852	1	726.6853	-1.509947	-9.033379E-006	-0.0009129	8
	27	113	597.4265	732.1493	-23.48041	1	732.5257	-1.836876	-1.461358E-005	0.0067095	8
	28	116	477.4305	738.0341	-30.42279	1	738.6609	-2.360476	-1.884804E-007	-0.0001424	8
	29	118	376.6741	742.9854	-37.58415	1	743.9354	-2.895857	-1.835589E-007	-0.0001681	8
	30	120	298.2954	748.1601	-46.41964	1	749.5988	-3.550369	-1.775699E-007	-0.0001402	8
	31	122	237.7717	753.8734	-57.08473	1	756.0316	-4.330282	-1.818844E-007	-0.0001359	8
	32	125	189.0121	760.0937	-70.41376	1	763.3482	-5.292676	-2.270638E-007	-0.0001244	8
	33	127	150.2404	766.8272	-86.85825	1	771.7307	-6.462329	-1.953836E-007	-0.00013	8
	34	130	119.1737	774.2924	-107.3297	1	781.6958	-7.891849	-1.773313E-007	-0.0001317	8
	35	132	95.0169	782.6316	-131.9841	1	793.6826	-9.57237	-1.979827E-007	-0.00014	8
	36	135	75.60484	792.2991	-162.5019	1	808.7921	-11.59072	-1.883937E-007	-0.0001405	8
	37	137	54.50582	806.8423	-218.5563	1	835.9194	-15.15648	-2.200822E-007	-0.0001365	8
	38	140	45.95588	818.0951	-255.0306	1	856.9248	-17.31419	-2.261171E-007	-0.0001452	8
	39	142	37.20238	832.5627	-308.333	1	887.8231	-20.32171	-2.575698E-007	-0.0001271	8
	40	144	30.04808	850.1893	-373.0793	1	928.4449	-23.69278	-1.923696E-007	-0.0001258	8
	41	147	23.91582	872.1076	-456.5998	1	984.406	-27.63471	-2.861437E-007	-0.0001124	8
	42	149	18.60119	901.3893	-569.9025	1	1066.439	-32.30308	-1.326881E-007	-0.0001272	8
	43	151	15.02404	931.3899	-686.4181	1	1157.003	-36.38957	-1.789218E-007	-0.0001233	8
	44	154	12.01923	969.629	-832.4089	1	1277.922	-40.64548	-1.58702E-007	-0.0001395	8
	45	156	9.450605	1018.133	-1023.734	1	1443.823	-45.15715	-1.373172E-007	-0.0001397	8
	46	159	7.512019	1074.264	-1246.042	1	1645.194	-49.234	-1.800937E-007	-0.0001166	8
	47	161	5.978954	1139.629	-1514.193	1	1895.135	-53.03373	-1.806144E-007	-0.0001449	8
	48	165	4.734848	1218.524	-1848.978	1	2214.389	-56.61409	-2.059682E-007	-0.0001279	8
	49	168	3.75601	1307.499	-2254.892	1	2606.548	-59.8927	-1.862374E-007	-0.0001274	8
	50	171	3.004808	1406.268	-2731.271	1	3072.04	-62.75711	-2.3657E-007	-8.754469E-005	8
	51	175	2.372217	1523.61	-3355.451	1	3685.164	-65.57862	-2.257987E-007	-7.160057E-005	8
	52	179	1.878005	1665.492	-4126.418	1	4449.853	-68.02016	-3.561525E-008	-0.0001468	7
	53	184	1.512097	1817.414	-4998.859	1	5318.984	-70.02047	-3.227755E-008	-1.701976E-005	7
	54	189	1.201923	1995.558	-6149.466	1	6465.151	-72.02128	-3.640569E-008	-0.0001366	7
	55	196	0.956633	2207.557	-7560.744	1	7876.431	-73.72345	-4.818625E-008	-0.0006617	7
