EXPLAIN
TAG	EISPOT
TITLE	LABEL	Potentiostatic EIS	Test Identifier
DATE	LABEL	11/21/2021	Date
TIME	LABEL	12:43:19	Time
NOTES	NOTES	1	Notes...
	
PSTAT	PSTAT	REF3000-16137	Potentiostat
VDC	POTEN	0.00000E+000	T	DC Voltage (V)
FREQINIT	QUANT	3.00000E+005	Initial Freq. (Hz)
FREQFINAL	QUANT	1.00000E+000	Final Freq. (Hz)
PTSPERDEC	QUANT	1.00000E+001	Points/decade
VAC	QUANT	5.00000E+001	AC Voltage (mV rms)
AREA	QUANT	1.00000E+000	Sample Area (cm^2)
SPEED	SELECTOR	2	Optimize for:
ZGUESS	QUANT	1.00000E+003	Estimated Z (ohms)
EOC	QUANT	0	Open Circuit (V)
SEQUENCER	TOGGLE	TRUE	Run as Sequence
PSTATMODEL	IQUANT	5	Pstat Model
PSTATSECTION	LABEL	REF3000-16137	Pstat Section
PSTATSERIALNO	LABEL	16137	Pstat Serial Number
CTRLMODE	IQUANT	1	Control Mode
IESTAB	IQUANT	0	I/E Stability
CASPEED	IQUANT	1	Control Amp Speed
CONVENTION	IQUANT	1	Current Convention
ICHRANGE	IQUANT	2	Ich Range
ICHRANGEMODE	TOGGLE	F	Ich Auto Range
ICHOFFSETENABLE	TOGGLE	T	Ich Offset Enable
ICHOFFSET	QUANT	0	Ich Offset (V)
ICHFILTER	IQUANT	3	Ich Filter
VCHRANGE	IQUANT	2	Vch Range
VCHRANGEMODE	TOGGLE	F	Vch Auto Range
VCHOFFSETENABLE	TOGGLE	T	Vch Offset Enable
VCHOFFSET	QUANT	0	Vch Offset (V)
VCHFILTER	IQUANT	3	Vch Filter
ACHRANGE	IQUANT	2	Ach Range
ACHOFFSETENABLE	TOGGLE	F	Ach Offset Enable
ACHOFFSET	QUANT	0	Ach Offset (V)
ACHFILTER	IQUANT	3	Ach Filter
IERANGELOWERLIMIT	IQUANT	2	I/E Range Lower Limit
IERANGEMODE	TOGGLE	F	I/E AutoRange
IERANGE	IQUANT	11	I/E Range
POSFEEDENABLE	TOGGLE	F	Positive Feedback IR Comp
POSFEEDRESISTANCE	QUANT	0	Positive Feedback Resistance (ohm)
ACHSELECT	IQUANT	0	Ach Select
CABLEID	IQUANT	13	Cable ID
DCCALDATE	LABEL	9/10/2021	DC Calibration Date
ACCALDATE	LABEL	9/10/2021	AC Calibration Date
THERMOSELECT	IQUANT	1	Thermo Select
FRAMEWORKVERSION	QUANT	6.33	Framework Version
INSTRUMENTVERSION	LABEL	3.50	Instrument Version
COMPLIANCEVOLTAGE	IQUANT	0	Compliance Voltage
ZCURVE	TABLE
	Pt	Time	Freq	Zreal	Zimag	Zsig	Zmod	Zphz	Idc	Vdc	IERange
	#	s	Hz	ohm	ohm	V	ohm	°	A	V	#
	0	19	300046.9	-24.3419	-4610.177	1	4610.242	-90.30252	-3.900508E-005	-0.0011717	9
	1	37	238359.4	52.74172	-5708.415	1	5708.659	-89.47064	1.663693E-005	-0.0022039	9
	2	61	189328.1	-269.9904	-6394.524	1	6400.222	-92.41772	3.152127E-006	0.0012716	9
	3	68	150421.9	443.3279	-8866.706	1	8877.782	-87.13764	-9.186495E-005	0.0020951	9
	4	80	119484.4	480.2105	-11495.07	1	11505.1	-87.60784	1.946282E-005	-0.0011387	9
	5	89	94921.88	737.8005	-14283.42	1	14302.47	-87.04305	-1.056991E-005	-0.0024489	8
	6	97	75421.88	693.4948	-17467.34	1	17481.1	-87.72642	-2.422729E-005	0.0048179	8
	7	106	59859.37	964.321	-21719.03	1	21740.43	-87.45775	1.804901E-005	-0.0009025	8
	8	114	47578.12	3992.4	-28706.49	1	28982.79	-82.08229	5.081225E-006	-0.0272692	7
	9	122	37828.12	4062.065	-35520.37	1	35751.88	-83.47607	6.76117E-006	-0.0121498	7
	10	129	30046.88	628.3192	-43337.13	1	43341.68	-89.16936	-2.038901E-005	2.874764E-005	9
	11	139	23859.38	5387.466	-54863.05	1	55126.93	-84.39162	-1.41124E-006	-0.0129417	7
	12	145	18984.38	6321.157	-67782.58	1	68076.69	-84.67221	5.166497E-006	-0.0029063	7
	13	151	15046.87	7928.807	-84762.57	1	85132.6	-84.65602	8.693905E-007	0.0141304	7
	14	156	11953.13	8278.177	-107622	1	107940	-85.60153	-1.393436E-006	0.0201828	7
	15	161	9515.62	8565.881	-134541.2	1	134813.7	-86.35705	-7.189481E-006	0.0234549	7
	16	167	7546.875	8150.285	-166569.8	1	166769.1	-87.19875	3.171491E-006	-0.0246575	7
	17	173	5928.309	15182.94	-213347.1	1	213886.6	-85.92938	8.788467E-007	-0.019674	7
	18	180	4733.456	47484.9	-279623.8	1	283627	-80.36214	7.593309E-007	-0.0243832	6
	19	184	3796.875	96420.6	-387426.9	1	399245	-76.02448	-2.644535E-005	0.0071481	8
	20	191	2987.132	154326.8	-439281.6	1	465601.8	-70.64279	2.538583E-005	-0.0097928	8
	21	200	2390.625	166796.4	-559286.6	1	583628.8	-73.39381	-3.129944E-006	0.0234781	7
	22	208	1884.191	71417.6	-828351.4	1	831424.4	-85.07234	7.491615E-006	-0.0255107	7
	23	214	1516.544	-299996.2	-634858.6	1	702170.3	-115.2926	9.070786E-007	0.0140831	7
	24	223	1193.986	71342.91	-1085026	1	1087369	-86.23809	4.040468E-008	0.015232	6
	25	228	946.5144	207212.2	-1188789	1	1206713	-80.11238	6.258268E-007	-0.0094174	6
	26	232	751.7689	91615.17	-1999748	1	2001846	-87.37692	-8.790661E-008	-0.0147031	6
	27	236	597.4265	324582.9	-2368758	1	2390893	-82.19755	-3.726982E-007	0.0242881	6
	28	241	477.4305	469970.6	-2499256	1	2543060	-79.35023	-1.01755E-008	-0.0001035	6
	29	246	376.6741	1018846	-3152979	1	3313506	-72.09241	-9.554161E-010	-0.0001176	5
	30	249	298.2954	1305529	-3841760	1	4057527	-71.23092	-9.92656E-010	-9.252552E-005	5
	31	252	237.7717	1763785	-4683492	1	5004602	-69.36382	-9.947948E-010	-0.0000952	5
	32	255	189.0121	2331967	-5633000	1	6096619	-67.51128	-1.040171E-009	-5.548683E-005	5
	33	258	150.2404	3049094	-6754344	1	7410677	-65.70429	-1.053871E-009	-2.799021E-005	5
	34	261	119.1737	3512231	-8306397	1	9018425	-67.07968	-1.056176E-009	-4.182444E-005	5
	35	263	95.0169	5721123	-9020706	1	1.068197E+007	-57.61626	-1.067281E-009	-2.202463E-005	5
	36	266	75.60484	7568413	-1.012044E+007	1	1.263741E+007	-53.20959	-9.362674E-010	-0.0001091	5
	37	269	54.50582	1.082566E+007	-1.113955E+007	1	1.553334E+007	-45.81873	-9.848007E-010	-0.0001135	5
	38	272	45.95588	1.460201E+007	-1.027525E+007	1	1.785496E+007	-35.13356	-8.706583E-011	0.0004505	4
	39	275	37.20238	1.68407E+007	-1.021013E+007	1	1.969406E+007	-31.22748	-8.901717E-011	0.0004804	4
	40	277	30.04808	1.876461E+007	-9.76167E+006	1	2.115185E+007	-27.48422	-8.696376E-011	0.0003859	4
	41	280	23.91582	2.051193E+007	-9067816	1	2.242687E+007	-23.84904	-1.001462E-010	0.0004288	4
	42	283	18.60119	2.234853E+007	-8480055	1	2.39033E+007	-20.77904	-6.252645E-011	0.0003924	4
	43	285	15.02404	2.367071E+007	-8267365	1	2.507293E+007	-19.25255	-1.013842E-009	-1.837193E-005	5
	44	289	12.01923	2.538717E+007	-7251265	1	2.640245E+007	-15.94078	-1.038741E-009	-8.56676E-006	5
	45	293	9.450605	2.673734E+007	-6384396	1	2.748902E+007	-13.42973	-1.040148E-009	-7.123517E-005	5
	46	297	7.512019	2.836456E+007	-5566499	1	2.890561E+007	-11.1031	-9.785416E-010	-0.0001018	5
	47	301	5.978954	2.959137E+007	-4909321	1	2.999584E+007	-9.419789	-9.554976E-010	-0.0000953	5
	48	307	4.734848	3.140767E+007	-4375153	1	3.171094E+007	-7.930385	-9.525829E-010	-0.0000989	5
	49	313	3.75601	3.331255E+007	-3893908	1	3.353936E+007	-6.667056	-1.062105E-009	-4.69511E-005	5
	50	320	3.004808	3.539871E+007	-3503223	1	3.557163E+007	-5.651857	-9.798484E-010	-0.0001318	5
	51	328	2.372217	3.711531E+007	-2780067	1	3.721928E+007	-4.283656	-9.088954E-011	0.0004321	4
	52	332	1.878005	3.919223E+007	-254959.4	1	3.919306E+007	-0.3727242	1.753334E-012	-0.0001534	3
	53	337	1.512097	4.066561E+007	-283800.7	1	4.06666E+007	-0.3998542	-1.251912E-012	-0.0002333	3
	54	342	1.201923	4.252374E+007	-356232.2	1	4.252523E+007	-0.4799701	2.553606E-012	-0.0001256	3
	55	348	0.956633	4.46706E+007	-410679.6	1	4.467248E+007	-0.5267345	-9.229443E-012	-0.0006788	3
