EXPLAIN
TAG	EISPOT
TITLE	LABEL	Potentiostatic EIS	Test Identifier
DATE	LABEL	11/21/2021	Date
TIME	LABEL	11:47:43	Time
NOTES	NOTES	1	Notes...
	
PSTAT	PSTAT	REF3000-16137	Potentiostat
VDC	POTEN	0.00000E+000	T	DC Voltage (V)
FREQINIT	QUANT	3.00000E+005	Initial Freq. (Hz)
FREQFINAL	QUANT	1.00000E+000	Final Freq. (Hz)
PTSPERDEC	QUANT	1.00000E+001	Points/decade
VAC	QUANT	5.00000E+001	AC Voltage (mV rms)
AREA	QUANT	1.00000E+000	Sample Area (cm^2)
SPEED	SELECTOR	2	Optimize for:
ZGUESS	QUANT	1.00000E+003	Estimated Z (ohms)
EOC	QUANT	0	Open Circuit (V)
SEQUENCER	TOGGLE	TRUE	Run as Sequence
PSTATMODEL	IQUANT	5	Pstat Model
PSTATSECTION	LABEL	REF3000-16137	Pstat Section
PSTATSERIALNO	LABEL	16137	Pstat Serial Number
CTRLMODE	IQUANT	1	Control Mode
IESTAB	IQUANT	0	I/E Stability
CASPEED	IQUANT	1	Control Amp Speed
CONVENTION	IQUANT	1	Current Convention
ICHRANGE	IQUANT	2	Ich Range
ICHRANGEMODE	TOGGLE	F	Ich Auto Range
ICHOFFSETENABLE	TOGGLE	T	Ich Offset Enable
ICHOFFSET	QUANT	0	Ich Offset (V)
ICHFILTER	IQUANT	3	Ich Filter
VCHRANGE	IQUANT	2	Vch Range
VCHRANGEMODE	TOGGLE	F	Vch Auto Range
VCHOFFSETENABLE	TOGGLE	T	Vch Offset Enable
VCHOFFSET	QUANT	0	Vch Offset (V)
VCHFILTER	IQUANT	3	Vch Filter
ACHRANGE	IQUANT	2	Ach Range
ACHOFFSETENABLE	TOGGLE	F	Ach Offset Enable
ACHOFFSET	QUANT	0	Ach Offset (V)
ACHFILTER	IQUANT	3	Ach Filter
IERANGELOWERLIMIT	IQUANT	2	I/E Range Lower Limit
IERANGEMODE	TOGGLE	F	I/E AutoRange
IERANGE	IQUANT	11	I/E Range
POSFEEDENABLE	TOGGLE	F	Positive Feedback IR Comp
POSFEEDRESISTANCE	QUANT	0	Positive Feedback Resistance (ohm)
ACHSELECT	IQUANT	0	Ach Select
CABLEID	IQUANT	13	Cable ID
DCCALDATE	LABEL	9/10/2021	DC Calibration Date
ACCALDATE	LABEL	9/10/2021	AC Calibration Date
THERMOSELECT	IQUANT	1	Thermo Select
FRAMEWORKVERSION	QUANT	6.33	Framework Version
INSTRUMENTVERSION	LABEL	3.50	Instrument Version
COMPLIANCEVOLTAGE	IQUANT	0	Compliance Voltage
ZCURVE	TABLE
	Pt	Time	Freq	Zreal	Zimag	Zsig	Zmod	Zphz	Idc	Vdc	IERange
	#	s	Hz	ohm	ohm	V	ohm	°	A	V	#
	0	7	300046.9	84.6932	1.42757	1	84.70523	0.965674	-7.418735E-005	0.0021599	9
	1	10	238359.4	85.03458	0.958041	1	85.03997	0.6454949	-1.138685E-005	-0.0013018	9
	2	13	189328.1	85.59628	0.1474546	1	85.59641	0.0987019	4.396135E-005	-0.0007694	9
	3	16	150421.9	85.89368	0.5249169	1	85.89528	0.3501439	-1.52927E-005	-0.0009473	9
	4	18	119484.4	86.15887	0.3007302	1	86.15939	0.1999853	-4.865111E-006	0.0009384	9
	5	21	94921.88	86.59846	0.2889556	1	86.59894	0.1911798	-1.01034E-005	-0.0002045	9
	6	23	75421.88	86.90695	0.0989557	1	86.90701	0.0652392	-1.914001E-005	0.0002875	9
	7	26	59859.37	87.23563	-0.0729518	1	87.23566	-0.0479142	1.008493E-005	-0.0007865	9
	8	28	47578.12	87.6005	-0.2006031	1	87.60073	-0.1312057	2.095568E-005	-0.0007876	9
	9	31	37828.12	87.99309	-0.3064378	1	87.99362	-0.199533	1.51938E-005	-0.0008618	9
	10	33	30046.88	88.27505	-0.4334613	1	88.27612	-0.28134	2.72845E-006	0.0001326	9
	11	36	23859.38	88.60801	-0.6082738	1	88.6101	-0.3933163	2.205313E-005	-0.0007081	9
	12	38	18984.38	88.92068	-0.7134039	1	88.92355	-0.4596699	-2.002048E-005	0.0004691	9
	13	40	15046.87	89.21931	-0.8456722	1	89.22331	-0.5430663	-1.40487E-005	-4.759185E-006	9
	14	43	11953.13	89.55432	-1.144524	1	89.56164	-0.7322128	-5.379019E-006	0.0004764	9
	15	45	9515.62	89.93082	-1.412753	1	89.94192	-0.9000046	-2.025453E-005	0.0004153	9
	16	47	7546.875	90.22996	-1.79062	1	90.24773	-1.13689	-1.498183E-005	3.595122E-005	9
	17	50	5928.309	90.65078	-2.191791	1	90.67728	-1.38505	2.192619E-005	-0.0007657	9
	18	52	4733.456	91.06384	-2.687398	1	91.10348	-1.690374	-4.186456E-006	-0.0004023	9
	19	54	3796.875	91.43997	-3.258586	1	91.49802	-2.040948	-1.027838E-005	-0.0001729	9
	20	57	2987.132	91.82494	-4.138655	1	91.91816	-2.58064	-2.000681E-005	0.0004319	9
	21	59	2390.625	92.2513	-5.028995	1	92.38828	-3.120338	1.130228E-005	-0.0008516	9
	22	61	1884.191	92.74964	-6.08682	1	92.94916	-3.754729	1.100551E-005	-8.404705E-005	9
	23	63	1516.544	93.23313	-7.62087	1	93.54408	-4.672964	1.61115E-005	-0.0008551	9
	24	66	1193.986	93.90265	-9.51969	1	94.38396	-5.788772	-5.094249E-006	0.0004283	9
	25	68	946.5144	94.48482	-11.75311	1	95.213	-7.090687	-1.038142E-005	-0.0001415	9
	26	71	751.7689	95.2497	-14.5029	1	96.3475	-8.657472	-4.291448E-006	-0.0003998	9
	27	73	597.4265	96.1045	-17.95393	1	97.7672	-10.58183	-1.4681E-005	-9.782052E-007	9
	28	75	477.4305	97.0708	-22.02968	1	99.5392	-12.78639	4.667568E-007	-0.0001238	9
	29	77	376.6741	98.2283	-27.34533	1	101.9635	-15.55643	4.370697E-007	-0.0001272	9
	30	80	298.2954	99.6127	-33.81353	1	105.1952	-18.74979	4.362002E-007	-0.0001196	9
	31	82	237.7717	101.2748	-41.53112	1	109.4597	-22.29773	5.872346E-007	-0.0001297	9
	32	85	189.0121	103.3143	-51.08026	1	115.2521	-26.30853	4.579892E-007	-0.0001285	9
	33	87	150.2404	105.8004	-62.73459	1	123.0014	-30.66592	4.187029E-007	-0.0001273	9
	34	89	119.1737	108.8537	-77.09244	1	133.388	-35.30693	5.938189E-007	-0.0001331	9
	35	92	95.0169	112.4613	-94.18221	1	146.6895	-39.94495	5.52024E-007	-0.0001263	9
	36	94	75.60484	116.803	-115.1344	1	164.0087	-44.5878	5.081238E-007	-0.0001323	9
	37	97	54.50582	124.1654	-153.288	1	197.2669	-50.99206	4.387533E-007	-0.0001321	9
	38	99	45.95588	128.8516	-178.0328	1	219.769	-54.10478	4.935153E-007	-0.0001278	9
	39	102	37.20238	135.1989	-214.3559	1	253.4308	-57.75949	4.268394E-007	-0.0001267	9
	40	104	30.04808	142.4871	-258.9254	1	295.5417	-61.17594	4.432822E-007	-0.0001229	9
	41	106	23.91582	151.3281	-317.2316	1	351.477	-64.4976	4.090341E-007	-0.0001267	9
	42	109	18.60119	161.8377	-395.8291	1	427.6355	-67.76243	1.297511E-007	-0.0001164	8
	43	111	15.02404	173.1596	-480.3307	1	510.5897	-70.17573	2.423478E-007	-0.0001081	8
	44	113	12.01923	187.0186	-588.6342	1	617.6295	-72.37411	1.97209E-007	-0.0001175	8
	45	116	9.450605	205.3054	-733.8384	1	762.0165	-74.37002	2.035168E-007	-0.0001078	8
	46	118	7.512019	226.3137	-906.6677	1	934.4861	-75.98476	2.084573E-007	-0.0000961	8
	47	121	5.978954	252.6586	-1119.187	1	1147.351	-77.27861	1.974636E-007	-0.0001178	8
	48	124	4.734848	285.3048	-1389.162	1	1418.157	-78.39403	2.187136E-007	-8.29293E-005	8
	49	127	3.75601	326.4442	-1721.766	1	1752.439	-79.26424	1.915595E-007	-0.0001388	8
	50	131	3.004808	375.4759	-2115.503	1	2148.565	-79.93551	2.196541E-007	-0.00012	8
	51	134	2.372217	445.1225	-2633.767	1	2671.116	-80.40731	2.182729E-007	-5.724345E-005	8
	52	139	1.878005	523.9933	-3275.566	1	3317.213	-80.91138	1.883592E-007	-0.0001355	8
	53	143	1.512097	617.3414	-3992.826	1	4040.269	-81.21095	2.206655E-007	-0.00012	8
	54	149	1.201923	745.9097	-4966.367	1	5022.069	-81.45847	1.77918E-008	-0.000163	7
	55	155	0.956633	905.7349	-6134.548	1	6201.051	-81.60125	1.564957E-008	-0.0006554	7
