EXPLAIN
TAG	EISPOT
TITLE	LABEL	Potentiostatic EIS	Test Identifier
DATE	LABEL	11/21/2021	Date
TIME	LABEL	11:53:12	Time
NOTES	NOTES	1	Notes...
	
PSTAT	PSTAT	REF3000-16137	Potentiostat
VDC	POTEN	0.00000E+000	T	DC Voltage (V)
FREQINIT	QUANT	3.00000E+005	Initial Freq. (Hz)
FREQFINAL	QUANT	1.00000E+000	Final Freq. (Hz)
PTSPERDEC	QUANT	1.00000E+001	Points/decade
VAC	QUANT	5.00000E+001	AC Voltage (mV rms)
AREA	QUANT	1.00000E+000	Sample Area (cm^2)
SPEED	SELECTOR	2	Optimize for:
ZGUESS	QUANT	1.00000E+003	Estimated Z (ohms)
EOC	QUANT	0	Open Circuit (V)
SEQUENCER	TOGGLE	TRUE	Run as Sequence
PSTATMODEL	IQUANT	5	Pstat Model
PSTATSECTION	LABEL	REF3000-16137	Pstat Section
PSTATSERIALNO	LABEL	16137	Pstat Serial Number
CTRLMODE	IQUANT	1	Control Mode
IESTAB	IQUANT	0	I/E Stability
CASPEED	IQUANT	1	Control Amp Speed
CONVENTION	IQUANT	1	Current Convention
ICHRANGE	IQUANT	2	Ich Range
ICHRANGEMODE	TOGGLE	F	Ich Auto Range
ICHOFFSETENABLE	TOGGLE	T	Ich Offset Enable
ICHOFFSET	QUANT	0	Ich Offset (V)
ICHFILTER	IQUANT	3	Ich Filter
VCHRANGE	IQUANT	2	Vch Range
VCHRANGEMODE	TOGGLE	F	Vch Auto Range
VCHOFFSETENABLE	TOGGLE	T	Vch Offset Enable
VCHOFFSET	QUANT	0	Vch Offset (V)
VCHFILTER	IQUANT	3	Vch Filter
ACHRANGE	IQUANT	2	Ach Range
ACHOFFSETENABLE	TOGGLE	F	Ach Offset Enable
ACHOFFSET	QUANT	0	Ach Offset (V)
ACHFILTER	IQUANT	3	Ach Filter
IERANGELOWERLIMIT	IQUANT	2	I/E Range Lower Limit
IERANGEMODE	TOGGLE	F	I/E AutoRange
IERANGE	IQUANT	11	I/E Range
POSFEEDENABLE	TOGGLE	F	Positive Feedback IR Comp
POSFEEDRESISTANCE	QUANT	0	Positive Feedback Resistance (ohm)
ACHSELECT	IQUANT	0	Ach Select
CABLEID	IQUANT	13	Cable ID
DCCALDATE	LABEL	9/10/2021	DC Calibration Date
ACCALDATE	LABEL	9/10/2021	AC Calibration Date
THERMOSELECT	IQUANT	1	Thermo Select
FRAMEWORKVERSION	QUANT	6.33	Framework Version
INSTRUMENTVERSION	LABEL	3.50	Instrument Version
COMPLIANCEVOLTAGE	IQUANT	0	Compliance Voltage
ZCURVE	TABLE
	Pt	Time	Freq	Zreal	Zimag	Zsig	Zmod	Zphz	Idc	Vdc	IERange
	#	s	Hz	ohm	ohm	V	ohm	°	A	V	#
	0	6	300046.9	140.8141	-1.646064	1	140.8237	-0.6697357	1.931392E-005	-0.0018949	9
	1	9	238359.4	141.8159	-1.507661	1	141.8239	-0.609095	-1.362042E-005	-0.0014635	9
	2	13	189328.1	142.8743	-1.514285	1	142.8823	-0.6072394	-5.507436E-005	0.0007104	9
	3	15	150421.9	143.2161	-1.515887	1	143.2241	-0.6064309	-3.403477E-005	-0.0004328	9
	4	19	119484.4	144.4355	-1.02597	1	144.4391	-0.406983	-7.483574E-005	0.0018978	9
	5	21	94921.88	145.0288	-1.089873	1	145.0329	-0.4305623	1.871203E-005	-0.0003405	9
	6	24	75421.88	145.5768	-0.970298	1	145.58	-0.3818819	1.85731E-005	-0.000284	9
	7	26	59859.37	146.4049	-0.9298987	1	146.4079	-0.3639123	-1.4186E-005	0.0006095	9
	8	29	47578.12	147.055	-0.8860677	1	147.0576	-0.3452269	2.230608E-005	-0.0009575	9
	9	31	37828.12	147.7356	-0.9485419	1	147.7386	-0.3678647	-1.429118E-005	0.0006274	9
	10	34	30046.88	148.3314	-0.8882616	1	148.334	-0.3431037	-1.839058E-005	0.0006584	9
	11	36	23859.38	148.9594	-0.992258	1	148.9627	-0.3816565	-2.160707E-005	0.0006421	9
	12	38	18984.38	149.5709	-1.08353	1	149.5748	-0.4150582	1.245578E-005	-0.0008993	9
	13	41	15046.87	150.1671	-1.328351	1	150.173	-0.5068147	1.785347E-005	-0.0003475	9
	14	43	11953.13	150.8485	-1.513766	1	150.8561	-0.5749444	-9.540085E-006	-0.0001775	9
	15	45	9515.62	151.4418	-1.687662	1	151.4512	-0.6384757	-1.09281E-005	-0.0001887	9
	16	48	7546.875	152.0134	-2.154552	1	152.0286	-0.8120239	1.92714E-005	-0.0003137	9
	17	50	5928.309	152.6629	-2.485266	1	152.6831	-0.9326608	1.830578E-005	-0.0003166	9
	18	52	4733.456	153.3843	-3.033795	1	153.4143	-1.133108	-1.131861E-005	-0.0001877	9
	19	55	3796.875	154.0635	-3.56965	1	154.1049	-1.327305	2.317148E-005	-0.0009447	9
	20	57	2987.132	154.8555	-4.552233	1	154.9224	-1.683819	-3.586818E-006	-0.0004805	9
	21	59	2390.625	155.6446	-5.462605	1	155.7404	-2.010065	-1.091419E-005	-0.000215	9
	22	61	1884.191	156.1638	-6.649499	1	156.3053	-2.438198	2.006633E-006	0.0002895	9
	23	64	1516.544	157.2474	-8.29073	1	157.4658	-3.018075	1.150969E-005	-2.67825E-005	9
	24	66	1193.986	158.0741	-10.32911	1	158.4112	-3.738588	2.201944E-005	-0.0004694	9
	25	69	946.5144	158.9904	-12.78796	1	159.5039	-4.598532	1.8496E-005	-0.0009389	9
	26	71	751.7689	160.2125	-15.66458	1	160.9765	-5.584276	-2.102933E-005	0.0003101	9
	27	73	597.4265	161.2597	-19.36379	1	162.4181	-6.847195	-1.082795E-005	-0.0002055	9
	28	76	477.4305	162.662	-23.89947	1	164.4084	-8.358501	4.45394E-007	-0.0001267	9
	29	78	376.6741	164.1479	-29.67323	1	166.8084	-10.24678	7.157705E-007	-0.0001754	9
	30	80	298.2954	165.8604	-36.7246	1	169.8775	-12.48493	3.340312E-007	-0.0001286	9
	31	82	237.7717	167.8948	-45.1707	1	173.865	-15.05839	3.903752E-007	-0.0001274	9
	32	85	189.0121	170.3244	-55.65834	1	179.1878	-18.09628	4.436352E-007	-0.0001322	9
	33	87	150.2404	173.2747	-68.49895	1	186.3229	-21.56988	7.48233E-007	-0.0001683	9
	34	90	119.1737	176.8846	-84.3696	1	195.9755	-25.49999	4.268405E-007	-0.000126	9
	35	92	95.0169	181.1833	-103.2813	1	208.5531	-29.68477	4.033203E-007	-0.000127	9
	36	95	75.60484	186.4738	-126.496	1	225.3302	-34.15133	3.657125E-007	-0.0001306	9
	37	97	54.50582	195.667	-168.6156	1	258.296	-40.75304	4.230324E-007	-0.0001361	9
	38	100	45.95588	201.8506	-195.7905	1	281.2074	-44.12688	4.200111E-007	-0.0001265	9
	39	102	37.20238	210.332	-235.3123	1	315.6128	-48.20832	3.302531E-007	-0.0001356	9
	40	104	30.04808	220.2526	-283.315	1	358.8574	-52.13806	3.583202E-007	-0.0001359	9
	41	107	23.91582	231.3317	-344.0518	1	414.5914	-56.08412	2.52357E-008	-0.0001251	8
	42	109	18.60119	246.4216	-428.5462	1	494.3434	-60.10034	6.089034E-008	-0.0001164	8
	43	111	15.02404	261.1418	-517.1627	1	579.355	-63.20847	1.658583E-008	-0.000135	8
	44	114	12.01923	278.6262	-630.3593	1	689.1918	-66.15401	1.651987E-008	-0.0001301	8
	45	116	9.450605	300.301	-782.0783	1	837.7512	-68.9943	1.971345E-008	-0.0001056	8
	46	119	7.512019	324.9521	-962.114	1	1015.508	-71.3377	4.60287E-008	-0.0001344	8
	47	121	5.978954	354.2727	-1184.426	1	1236.274	-73.34759	8.536878E-008	-0.0001479	8
	48	124	4.734848	390.3078	-1467.574	1	1518.59	-75.10669	3.192936E-008	-0.0001321	8
	49	128	3.75601	434.907	-1815.597	1	1866.96	-76.52923	7.453774E-008	-0.0001108	8
	50	131	3.004808	487.7932	-2229.292	1	2282.035	-77.65759	6.792951E-008	-0.0000956	8
	51	135	2.372217	555.4164	-2774.344	1	2829.395	-78.67919	5.460699E-008	-4.618974E-005	8
	52	139	1.878005	642.5314	-3443.498	1	3502.931	-79.43057	5.49257E-008	-0.0001414	8
	53	144	1.512097	748.0361	-4209.821	1	4275.763	-79.92437	1.85104E-008	-3.097787E-005	7
	54	149	1.201923	873.9651	-5219.788	1	5292.448	-80.49496	3.21699E-009	-0.000136	7
	55	155	0.956633	1034.978	-6451.404	1	6533.896	-80.88588	-5.23361E-009	-0.0006518	7
