EXPLAIN
TAG	EISPOT
TITLE	LABEL	Potentiostatic EIS	Test Identifier
DATE	LABEL	11/21/2021	Date
TIME	LABEL	11:06:11	Time
NOTES	NOTES	1	Notes...
	
PSTAT	PSTAT	REF3000-16137	Potentiostat
VDC	POTEN	0.00000E+000	T	DC Voltage (V)
FREQINIT	QUANT	3.00000E+005	Initial Freq. (Hz)
FREQFINAL	QUANT	1.00000E+000	Final Freq. (Hz)
PTSPERDEC	QUANT	1.00000E+001	Points/decade
VAC	QUANT	5.00000E+001	AC Voltage (mV rms)
AREA	QUANT	1.00000E+000	Sample Area (cm^2)
SPEED	SELECTOR	2	Optimize for:
ZGUESS	QUANT	1.00000E+003	Estimated Z (ohms)
EOC	QUANT	0	Open Circuit (V)
SEQUENCER	TOGGLE	TRUE	Run as Sequence
PSTATMODEL	IQUANT	5	Pstat Model
PSTATSECTION	LABEL	REF3000-16137	Pstat Section
PSTATSERIALNO	LABEL	16137	Pstat Serial Number
CTRLMODE	IQUANT	1	Control Mode
IESTAB	IQUANT	0	I/E Stability
CASPEED	IQUANT	1	Control Amp Speed
CONVENTION	IQUANT	1	Current Convention
ICHRANGE	IQUANT	2	Ich Range
ICHRANGEMODE	TOGGLE	F	Ich Auto Range
ICHOFFSETENABLE	TOGGLE	T	Ich Offset Enable
ICHOFFSET	QUANT	0	Ich Offset (V)
ICHFILTER	IQUANT	3	Ich Filter
VCHRANGE	IQUANT	2	Vch Range
VCHRANGEMODE	TOGGLE	F	Vch Auto Range
VCHOFFSETENABLE	TOGGLE	T	Vch Offset Enable
VCHOFFSET	QUANT	0	Vch Offset (V)
VCHFILTER	IQUANT	3	Vch Filter
ACHRANGE	IQUANT	2	Ach Range
ACHOFFSETENABLE	TOGGLE	F	Ach Offset Enable
ACHOFFSET	QUANT	0	Ach Offset (V)
ACHFILTER	IQUANT	3	Ach Filter
IERANGELOWERLIMIT	IQUANT	2	I/E Range Lower Limit
IERANGEMODE	TOGGLE	F	I/E AutoRange
IERANGE	IQUANT	11	I/E Range
POSFEEDENABLE	TOGGLE	F	Positive Feedback IR Comp
POSFEEDRESISTANCE	QUANT	0	Positive Feedback Resistance (ohm)
ACHSELECT	IQUANT	0	Ach Select
CABLEID	IQUANT	13	Cable ID
DCCALDATE	LABEL	9/10/2021	DC Calibration Date
ACCALDATE	LABEL	9/10/2021	AC Calibration Date
THERMOSELECT	IQUANT	1	Thermo Select
FRAMEWORKVERSION	QUANT	6.33	Framework Version
INSTRUMENTVERSION	LABEL	3.50	Instrument Version
COMPLIANCEVOLTAGE	IQUANT	0	Compliance Voltage
ZCURVE	TABLE
	Pt	Time	Freq	Zreal	Zimag	Zsig	Zmod	Zphz	Idc	Vdc	IERange
	#	s	Hz	ohm	ohm	V	ohm	°	A	V	#
	0	7	300046.9	8.088975	2.269739	1	8.401382	15.67394	6.832269E-005	-0.0010668	10
	1	11	238359.4	8.07676	1.814294	1	8.278027	12.66028	-9.072485E-005	-0.0007963	10
	2	14	189328.1	8.066568	1.429907	1	8.192323	10.05202	-1.836285E-005	-0.0004777	10
	3	16	150421.9	8.06059	1.12138	1	8.138219	7.92009	1.731077E-005	-0.0003649	10
	4	19	119484.4	8.068007	0.8543481	1	8.113115	6.044714	4.357293E-005	-0.0002403	10
	5	21	94921.88	8.083392	0.6545764	1	8.109852	4.629592	-1.484098E-005	-0.0001672	10
	6	24	75421.88	8.088414	0.4670375	1	8.101887	3.304677	2.137672E-005	-0.0002422	10
	7	26	59859.37	8.102048	0.3059671	1	8.107823	2.162699	-1.176747E-005	-0.0001845	10
	8	29	47578.12	8.116759	0.1641279	1	8.118419	1.158413	2.635523E-005	-0.0001614	10
	9	31	37828.12	8.134025	0.0355277	1	8.134102	0.2502542	-8.579023E-006	-0.0001378	10
	10	34	30046.88	8.153185	-0.0886026	1	8.153666	-0.622622	-1.766423E-005	-0.0001493	10
	11	36	23859.38	8.171932	-0.2149013	1	8.174757	-1.506388	1.933824E-005	-0.0001649	10
	12	39	18984.38	8.193748	-0.3483072	1	8.201148	-2.434115	-1.594482E-005	-0.0001428	10
	13	41	15046.87	8.217412	-0.4990718	1	8.232553	-3.475502	2.378709E-005	-0.0001615	10
	14	43	11953.13	8.246503	-0.6714038	1	8.273789	-4.654572	2.388941E-005	-0.0001161	10
	15	46	9515.62	8.278406	-0.8717023	1	8.324174	-6.010999	2.633924E-005	-0.0001327	10
	16	48	7546.875	8.31627	-1.115264	1	8.390718	-7.638152	2.542916E-005	-0.000133	10
	17	50	5928.309	8.361547	-1.423428	1	8.481841	-9.66113	2.024674E-005	-0.0001381	10
	18	53	4733.456	8.415189	-1.774527	1	8.600253	-11.90762	-1.182877E-005	-0.0001073	10
	19	55	3796.875	8.476338	-2.193579	1	8.755575	-14.50918	-2.348328E-005	-0.0001365	10
	20	57	2987.132	8.557831	-2.752565	1	8.98961	-17.83002	8.405539E-006	-0.0001365	10
	21	59	2390.625	8.651852	-3.392332	1	9.29314	-21.40981	-2.784623E-005	-0.0001298	10
	22	62	1884.191	8.777481	-4.231339	1	9.74415	-25.73721	-1.638621E-005	-0.0001559	10
	23	64	1516.544	8.915142	-5.165821	1	10.30366	-30.08987	-2.69982E-006	-0.0001419	10
	24	66	1193.986	9.101478	-6.434278	1	11.14616	-35.25835	2.226167E-005	-0.000146	10
	25	69	946.5144	9.315217	-7.959472	1	12.25261	-40.51254	-1.805093E-005	-0.0001354	10
	26	71	751.7689	9.57452	-9.80811	1	13.70659	-45.69047	2.279157E-005	-0.0001539	10
	27	73	597.4265	9.874	-12.0927	1	15.61183	-50.76749	1.778833E-005	-0.000163	10
	28	76	477.4305	10.22161	-14.85106	1	18.02874	-55.46134	-1.027763E-006	-0.0001169	10
	29	78	376.6741	10.6459	-18.45166	1	21.30256	-60.0167	-9.340256E-007	-0.0001188	10
	30	80	298.2954	11.14405	-22.87665	1	25.44663	-64.0276	-2.031842E-007	-0.0001146	10
	31	83	237.7717	11.72643	-28.22457	1	30.56363	-67.43864	-1.381309E-006	-0.0001153	10
	32	85	189.0121	12.44306	-34.93319	1	37.08312	-70.39431	-1.035522E-006	-0.0001161	10
	33	87	150.2404	13.30927	-43.21634	1	45.21935	-72.88282	5.42164E-007	-0.0001383	9
	34	90	119.1737	14.41708	-53.65494	1	55.55812	-74.95987	5.64749E-007	-0.000137	9
	35	92	95.0169	15.77024	-66.31686	1	68.16617	-76.62344	6.506445E-007	-0.0001405	9
	36	95	75.60484	17.48425	-82.1338	1	83.97416	-77.98253	4.737701E-007	-0.0001346	9
	37	97	54.50582	20.73643	-111.5523	1	113.4633	-79.4695	4.508618E-007	-0.0001366	9
	38	100	45.95588	22.93283	-130.8425	1	132.8371	-80.05872	6.492838E-007	-0.0001287	9
	39	102	37.20238	26.22362	-159.3837	1	161.5266	-80.65675	6.209658E-007	-0.0001292	9
	40	104	30.04808	30.39152	-194.5485	1	196.908	-81.12126	5.931677E-007	-0.0001317	9
	41	107	23.91582	36.03927	-240.6718	1	243.3552	-81.48355	4.447695E-007	-0.0001278	9
	42	109	18.60119	44.06538	-304.2331	1	307.4077	-81.75854	5.849112E-007	-0.0001333	9
	43	112	15.02404	52.77233	-371.0436	1	374.7776	-81.9053	6.332003E-007	-0.000125	9
	44	114	12.01923	64.05655	-454.6081	1	459.0988	-81.97954	7.157723E-007	-0.0001207	8
	45	116	9.450605	79.86848	-568.1335	1	573.72	-81.99777	7.071294E-007	-0.0001229	8
	46	119	7.512019	99.8002	-702.4991	1	709.5528	-81.91441	7.128972E-007	-0.0001021	8
	47	121	5.978954	125.2558	-867.5879	1	876.583	-81.78483	6.910444E-007	-0.0001489	8
	48	125	4.734848	159.2296	-1076.205	1	1087.921	-81.58388	7.615824E-007	-0.0001308	8
	49	128	3.75601	204.5561	-1331.466	1	1347.088	-81.26582	6.488667E-007	-0.0001244	8
	50	131	3.004808	262.6794	-1631.806	1	1652.813	-80.85529	7.078807E-007	-0.0001576	8
	51	135	2.372217	343.1185	-2024.51	1	2053.38	-80.38079	6.826588E-007	-0.0001811	8
	52	139	1.878005	453.8452	-2499.792	1	2540.656	-79.70985	6.840572E-007	-0.0001079	8
	53	144	1.512097	591.791	-3031.139	1	3088.368	-78.9527	6.595519E-007	-0.0002012	8
	54	149	1.201923	781.5131	-3724.169	1	3805.286	-78.14851	6.801445E-007	-8.806771E-005	8
	55	155	0.956633	1039.712	-4560.385	1	4677.404	-77.15678	1.000615E-007	-0.0006757	7
