EXPLAIN
TAG	EISPOT
TITLE	LABEL	Potentiostatic EIS	Test Identifier
DATE	LABEL	11/21/2021	Date
TIME	LABEL	12:12:39	Time
NOTES	NOTES	1	Notes...
	
PSTAT	PSTAT	REF3000-16137	Potentiostat
VDC	POTEN	0.00000E+000	T	DC Voltage (V)
FREQINIT	QUANT	3.00000E+005	Initial Freq. (Hz)
FREQFINAL	QUANT	1.00000E+000	Final Freq. (Hz)
PTSPERDEC	QUANT	1.00000E+001	Points/decade
VAC	QUANT	5.00000E+001	AC Voltage (mV rms)
AREA	QUANT	1.00000E+000	Sample Area (cm^2)
SPEED	SELECTOR	2	Optimize for:
ZGUESS	QUANT	1.00000E+003	Estimated Z (ohms)
EOC	QUANT	0	Open Circuit (V)
SEQUENCER	TOGGLE	TRUE	Run as Sequence
PSTATMODEL	IQUANT	5	Pstat Model
PSTATSECTION	LABEL	REF3000-16137	Pstat Section
PSTATSERIALNO	LABEL	16137	Pstat Serial Number
CTRLMODE	IQUANT	1	Control Mode
IESTAB	IQUANT	0	I/E Stability
CASPEED	IQUANT	1	Control Amp Speed
CONVENTION	IQUANT	1	Current Convention
ICHRANGE	IQUANT	2	Ich Range
ICHRANGEMODE	TOGGLE	F	Ich Auto Range
ICHOFFSETENABLE	TOGGLE	T	Ich Offset Enable
ICHOFFSET	QUANT	0	Ich Offset (V)
ICHFILTER	IQUANT	3	Ich Filter
VCHRANGE	IQUANT	2	Vch Range
VCHRANGEMODE	TOGGLE	F	Vch Auto Range
VCHOFFSETENABLE	TOGGLE	T	Vch Offset Enable
VCHOFFSET	QUANT	0	Vch Offset (V)
VCHFILTER	IQUANT	3	Vch Filter
ACHRANGE	IQUANT	2	Ach Range
ACHOFFSETENABLE	TOGGLE	F	Ach Offset Enable
ACHOFFSET	QUANT	0	Ach Offset (V)
ACHFILTER	IQUANT	3	Ach Filter
IERANGELOWERLIMIT	IQUANT	2	I/E Range Lower Limit
IERANGEMODE	TOGGLE	F	I/E AutoRange
IERANGE	IQUANT	11	I/E Range
POSFEEDENABLE	TOGGLE	F	Positive Feedback IR Comp
POSFEEDRESISTANCE	QUANT	0	Positive Feedback Resistance (ohm)
ACHSELECT	IQUANT	0	Ach Select
CABLEID	IQUANT	13	Cable ID
DCCALDATE	LABEL	9/10/2021	DC Calibration Date
ACCALDATE	LABEL	9/10/2021	AC Calibration Date
THERMOSELECT	IQUANT	1	Thermo Select
FRAMEWORKVERSION	QUANT	6.33	Framework Version
INSTRUMENTVERSION	LABEL	3.50	Instrument Version
COMPLIANCEVOLTAGE	IQUANT	0	Compliance Voltage
ZCURVE	TABLE
	Pt	Time	Freq	Zreal	Zimag	Zsig	Zmod	Zphz	Idc	Vdc	IERange
	#	s	Hz	ohm	ohm	V	ohm	°	A	V	#
	0	14	300046.9	1419.991	-616.9435	1	1548.223	-23.4835	-2.088019E-006	-0.0019942	9
	1	30	238359.4	1549.269	-562.8575	1	1648.346	-19.96634	1.367828E-005	-0.0022787	9
	2	43	189328.1	1622.21	-503.1384	1	1698.444	-17.2316	2.73678E-005	0.0006613	9
	3	50	150421.9	1753.784	-447.3944	1	1809.951	-14.31106	-2.06264E-005	0.0009906	9
	4	57	119484.4	1818.675	-313.0887	1	1845.428	-9.76784	-6.167124E-005	0.0290935	8
	5	63	94921.88	1872.799	-261.7641	1	1891.004	-7.956776	-2.972775E-006	-0.0043534	8
	6	68	75421.88	1914.23	-224.7172	1	1927.375	-6.695478	2.276225E-005	-0.0073665	8
	7	74	59859.37	1964.877	-188.7513	1	1973.922	-5.487147	-2.117051E-005	0.0045029	8
	8	80	47578.12	1995.484	-166.2977	1	2002.402	-4.763849	2.072225E-005	-0.0037993	8
	9	84	37828.12	2030.812	-132.8582	1	2035.153	-3.743025	1.749561E-005	-0.0088373	8
	10	90	30046.88	2066.081	-112.4912	1	2069.141	-3.116486	-2.241522E-005	0.0063791	8
	11	94	23859.38	2093.57	-91.66828	1	2095.576	-2.50713	-2.208811E-005	0.0078604	8
	12	98	18984.38	2114.902	-77.75253	1	2116.331	-2.105481	-1.968388E-005	0.0087168	8
	13	101	15046.87	2138.962	-61.36094	1	2139.842	-1.643208	1.212924E-005	-0.0083311	8
	14	104	11953.13	2161.473	-58.28505	1	2162.258	-1.544631	-3.337588E-006	-0.0042444	8
	15	109	9515.62	2188.385	-45.78584	1	2188.864	-1.198579	-1.561659E-005	0.0007715	8
	16	112	7546.875	2213.733	-30.86496	1	2213.948	-0.7987942	-1.034228E-005	-0.0016951	8
	17	116	5928.309	2242.444	-26.08198	1	2242.596	-0.66638	-1.036569E-005	-0.0016511	8
	18	120	4733.456	2267.057	-26.4957	1	2267.211	-0.6696007	2.288962E-005	-0.0057194	8
	19	125	3796.875	2289.472	-29.21063	1	2289.658	-0.7309784	9.40675E-006	0.0020486	8
	20	129	2987.132	2315.693	-18.14335	1	2315.764	-0.4489008	-1.5576E-005	0.000741	8
	21	133	2390.625	2346.728	-21.67724	1	2346.828	-0.5292388	-2.290433E-005	0.0064778	8
	22	137	1884.191	2387.271	-10.25813	1	2387.293	-0.246199	1.811205E-005	-0.0090497	8
	23	141	1516.544	2407.575	-27.03259	1	2407.727	-0.643298	1.629362E-005	-0.0010988	9
	24	146	1193.986	2440.57	-15.563	1	2440.619	-0.3653583	1.812877E-005	-0.0090583	8
	25	152	946.5144	2492.843	-48.35842	1	2493.312	-1.111336	7.659684E-006	-0.0009496	9
	26	156	751.7689	2513.651	4.528811	1	2513.655	0.1032289	-2.111166E-007	0.0004661	9
	27	159	597.4265	2534.01	-16.68964	1	2534.065	-0.3773592	1.800682E-005	-0.0090264	8
	28	163	477.4305	2563.971	-40.45047	1	2564.29	-0.9038516	-3.346688E-007	-0.0001247	8
	29	166	376.6741	2582.447	-48.36553	1	2582.9	-1.072942	-3.595482E-007	-0.00013	8
	30	169	298.2954	2601.199	-58.52242	1	2601.858	-1.288837	-3.724334E-007	-0.000106	8
	31	171	237.7717	2620.989	-71.25173	1	2621.958	-1.557205	-3.366959E-007	-0.0001703	8
	32	174	189.0121	2641.312	-87.16699	1	2642.75	-1.890155	-3.253139E-007	-0.0001483	8
	33	176	150.2404	2662.709	-106.7862	1	2664.849	-2.296579	-3.6631E-007	-0.0001251	8
	34	178	119.1737	2684.529	-131.452	1	2687.746	-2.803334	-3.484019E-007	-0.0001393	8
	35	181	95.0169	2707.937	-161.496	1	2712.748	-3.412964	-3.407374E-007	-0.0001221	8
	36	183	75.60484	2733.329	-198.5348	1	2740.53	-4.154371	-3.393986E-007	-0.000119	8
	37	186	54.50582	2764.295	-266.9993	1	2777.16	-5.517003	-3.209197E-007	-0.0001327	8
	38	188	45.95588	2790.725	-311.8421	1	2808.094	-6.375915	-3.269841E-007	-0.000147	8
	39	191	37.20238	2819.64	-378.119	1	2844.881	-7.637902	-2.650258E-007	-0.0001371	8
	40	193	30.04808	2853.879	-457.9159	1	2890.382	-9.11563	-3.916179E-007	-0.0001218	8
	41	196	23.91582	2889.886	-562.6897	1	2944.157	-11.0182	-4.364582E-007	-0.0001173	8
	42	198	18.60119	2935.806	-708.9306	1	3020.189	-13.57574	-2.442658E-007	-0.0001387	8
	43	200	15.02404	2983.853	-857.2241	1	3104.547	-16.0287	-4.130401E-007	-0.0000974	8
	44	203	12.01923	3041.363	-1044.252	1	3215.641	-18.94991	-4.004967E-007	-0.000144	8
	45	205	9.450605	3113.787	-1290.556	1	3370.639	-22.5123	-4.217418E-007	-0.0001384	8
	46	207	7.512019	3198.758	-1582.463	1	3568.787	-26.32214	-3.970882E-007	-0.00014	8
	47	210	5.978954	3317.244	-1944.116	1	3844.957	-30.37301	-1.029653E-007	-0.0001209	7
	48	213	4.734848	3447.613	-2377.962	1	4188.167	-34.59564	-9.39689E-008	-0.0001421	7
	49	216	3.75601	3606.851	-2903.98	1	4630.602	-38.83855	-6.053217E-008	-0.0001488	7
	50	220	3.004808	3788.266	-3516.025	1	5168.5	-42.8655	-4.944634E-008	-0.0001489	7
	51	224	2.372217	4025.659	-4301.62	1	5891.508	-46.89805	-7.943966E-008	-0.0001835	7
	52	228	1.878005	4296.933	-5247.233	1	6782.115	-50.68612	-6.828188E-008	-0.0001372	7
	53	233	1.512097	4608.346	-6298.39	1	7804.266	-53.80817	-7.653544E-008	-0.0002117	7
	54	238	1.201923	4984.219	-7673.249	1	9149.929	-56.99395	-7.13089E-008	-9.404523E-005	7
	55	244	0.956633	5425.813	-9326.448	1	10789.91	-59.8106	-7.669992E-008	-0.0006667	7
