EXPLAIN
TAG	EISPOT
TITLE	LABEL	Potentiostatic EIS	Test Identifier
DATE	LABEL	11/21/2021	Date
TIME	LABEL	12:37:30	Time
NOTES	NOTES	1	Notes...
	
PSTAT	PSTAT	REF3000-16137	Potentiostat
VDC	POTEN	0.00000E+000	T	DC Voltage (V)
FREQINIT	QUANT	3.00000E+005	Initial Freq. (Hz)
FREQFINAL	QUANT	1.00000E+000	Final Freq. (Hz)
PTSPERDEC	QUANT	1.00000E+001	Points/decade
VAC	QUANT	5.00000E+001	AC Voltage (mV rms)
AREA	QUANT	1.00000E+000	Sample Area (cm^2)
SPEED	SELECTOR	2	Optimize for:
ZGUESS	QUANT	1.00000E+003	Estimated Z (ohms)
EOC	QUANT	0	Open Circuit (V)
SEQUENCER	TOGGLE	TRUE	Run as Sequence
PSTATMODEL	IQUANT	5	Pstat Model
PSTATSECTION	LABEL	REF3000-16137	Pstat Section
PSTATSERIALNO	LABEL	16137	Pstat Serial Number
CTRLMODE	IQUANT	1	Control Mode
IESTAB	IQUANT	0	I/E Stability
CASPEED	IQUANT	1	Control Amp Speed
CONVENTION	IQUANT	1	Current Convention
ICHRANGE	IQUANT	2	Ich Range
ICHRANGEMODE	TOGGLE	F	Ich Auto Range
ICHOFFSETENABLE	TOGGLE	T	Ich Offset Enable
ICHOFFSET	QUANT	0	Ich Offset (V)
ICHFILTER	IQUANT	3	Ich Filter
VCHRANGE	IQUANT	2	Vch Range
VCHRANGEMODE	TOGGLE	F	Vch Auto Range
VCHOFFSETENABLE	TOGGLE	T	Vch Offset Enable
VCHOFFSET	QUANT	0	Vch Offset (V)
VCHFILTER	IQUANT	3	Vch Filter
ACHRANGE	IQUANT	2	Ach Range
ACHOFFSETENABLE	TOGGLE	F	Ach Offset Enable
ACHOFFSET	QUANT	0	Ach Offset (V)
ACHFILTER	IQUANT	3	Ach Filter
IERANGELOWERLIMIT	IQUANT	2	I/E Range Lower Limit
IERANGEMODE	TOGGLE	F	I/E AutoRange
IERANGE	IQUANT	11	I/E Range
POSFEEDENABLE	TOGGLE	F	Positive Feedback IR Comp
POSFEEDRESISTANCE	QUANT	0	Positive Feedback Resistance (ohm)
ACHSELECT	IQUANT	0	Ach Select
CABLEID	IQUANT	13	Cable ID
DCCALDATE	LABEL	9/10/2021	DC Calibration Date
ACCALDATE	LABEL	9/10/2021	AC Calibration Date
THERMOSELECT	IQUANT	1	Thermo Select
FRAMEWORKVERSION	QUANT	6.33	Framework Version
INSTRUMENTVERSION	LABEL	3.50	Instrument Version
COMPLIANCEVOLTAGE	IQUANT	0	Compliance Voltage
ZCURVE	TABLE
	Pt	Time	Freq	Zreal	Zimag	Zsig	Zmod	Zphz	Idc	Vdc	IERange
	#	s	Hz	ohm	ohm	V	ohm	°	A	V	#
	0	17	300046.9	76.61944	-4540.245	1	4540.891	-89.03319	2.50442E-005	-0.0019202	9
	1	34	238359.4	190.213	-5624.684	1	5627.899	-88.06313	-1.368684E-005	0.0015338	9
	2	52	189328.1	21.07171	-7190.691	1	7190.722	-89.8321	-2.104947E-005	0.0012899	9
	3	59	150421.9	-573.8792	-8743.12	1	8761.934	-93.75538	5.153001E-005	-0.0002174	9
	4	70	119484.4	413.3804	-10907.49	1	10915.32	-87.8296	2.623238E-005	0.000744	9
	5	80	94921.88	1037.535	-13399.55	1	13439.66	-85.57239	-2.603707E-005	0.0090095	8
	6	89	75421.88	1790.317	-16473.75	1	16570.74	-83.79761	-2.418861E-005	0.0048039	8
	7	98	59859.37	1681.327	-21324.98	1	21391.15	-85.49195	2.584952E-005	-0.0061142	8
	8	106	47578.12	5410.669	-27528.04	1	28054.74	-78.8802	4.97227E-006	-0.02691	7
	9	113	37828.12	5877.094	-34222.66	1	34723.64	-80.25558	5.162781E-006	-0.0030863	7
	10	121	30046.88	7469.882	-42113.98	1	42771.33	-79.94189	7.359541E-007	-0.0194142	7
	11	128	23859.38	8007.032	-52447.01	1	53054.7	-81.31973	5.045608E-006	-0.0272118	7
	12	133	18984.38	10460.54	-65303.13	1	66135.63	-80.89942	-3.682931E-006	-0.0046089	7
	13	139	15046.87	15992.84	-82791.8	1	84322.31	-79.06687	-5.082811E-006	0.025774	7
	14	144	11953.13	17477.71	-99475.8	1	100999.6	-80.03495	-7.388039E-006	0.019042	7
	15	149	9515.62	23755.77	-125215.1	1	127448.7	-79.25754	-2.4347E-005	0.0048411	8
	16	157	7546.875	17583.82	-165405.5	1	166337.6	-83.93183	-6.596808E-007	0.0063591	8
	17	165	5928.309	35818.72	-225545.4	1	228371.9	-80.97625	3.172349E-006	0.0060203	7
	18	170	4733.456	82346.77	-238606.5	1	252416.5	-70.95966	-5.036211E-006	0.0256353	7
	19	175	3796.875	67179.67	-311891	1	319044	-77.84451	5.186992E-006	-0.0030868	7
	20	182	2987.132	-359807.8	-575033.4	1	678325.2	-122.0349	2.677066E-005	-0.0083281	8
	21	190	2390.625	126906.3	-450536.3	1	468068.5	-74.26862	4.844369E-006	-0.0267761	7
	22	198	1884.191	317757.8	-394588	1	506625.8	-51.15585	7.480752E-006	-0.0254972	7
	23	204	1516.544	498452	-764168	1	912363.5	-56.88437	-3.364045E-006	0.0240308	7
	24	212	1193.986	311404.9	-700886.3	1	766951.6	-66.04434	7.537904E-006	-0.0200774	7
	25	220	946.5144	-41098.24	-333962.9	1	336482.2	-97.0157	-1.675527E-005	0.000227	8
	26	228	751.7689	182037	-305805.9	1	355885.8	-59.23594	8.525079E-007	-0.0195051	7
	27	234	597.4265	892749.7	-701027.9	1	1135096	-38.14063	-6.605322E-007	0.0102993	6
	28	238	477.4305	1159980	-821082.3	1	1421172	-35.29245	-1.021165E-008	-0.000113	6
	29	243	376.6741	1463802	-665545.4	1	1608001	-24.44982	-1.027256E-009	-0.0001144	5
	30	245	298.2954	1585535	-599879.8	1	1695222	-20.72391	-1.131705E-009	-7.1808E-005	5
	31	248	237.7717	1693602	-534753.1	1	1776020	-17.52346	-1.13144E-009	-3.613168E-005	5
	32	250	189.0121	1782586	-463652.6	1	1841897	-14.57964	-1.038573E-009	-0.0001117	5
	33	253	150.2404	1857379	-393408.7	1	1898585	-11.95899	-1.090457E-009	-4.481652E-005	5
	34	256	119.1737	1957342	-364836.9	1	1991054	-10.55843	-1.133101E-009	-3.296786E-005	5
	35	259	95.0169	1988826	-291765.3	1	2010113	-8.34589	-1.103783E-009	-8.838531E-005	5
	36	262	75.60484	2040970	-247424.1	1	2055913	-6.912162	-1.138768E-009	-2.302802E-005	5
	37	264	54.50582	2097584	-190745.1	1	2106239	-5.195937	-1.126492E-009	-2.86288E-005	5
	38	268	45.95588	2139629	-166374.9	1	2146088	-4.446303	-1.016876E-009	-0.0001061	5
	39	270	37.20238	2180193	-143432.9	1	2184906	-3.764013	-1.038309E-009	-7.106075E-005	5
	40	273	30.04808	2221529	-121039.9	1	2224824	-3.118674	-1.081656E-009	-7.20688E-005	5
	41	276	23.91582	2265254	-102280.9	1	2267562	-2.585265	-1.090501E-009	-5.405858E-005	5
	42	278	18.60119	2306802	-89230.32	1	2308527	-2.215176	-1.071576E-009	-4.244669E-005	5
	43	281	15.02404	2342612	-71098.52	1	2343691	-1.738399	-1.042288E-009	-8.73158E-005	5
	44	283	12.01923	2378352	-60885.36	1	2379132	-1.466441	-9.879043E-010	-0.0001161	5
	45	286	9.450605	2438678	-60552.1	1	2439430	-1.422356	-9.409631E-009	-0.0001858	6
	46	290	7.512019	2506625	-45343.04	1	2507035	-1.036326	-1.112875E-009	-1.66229E-005	5
	47	294	5.978954	2585632	-46478.98	1	2586050	-1.02983	-1.033475E-008	-0.000095	6
	48	300	4.734848	2675186	-37967.69	1	2675455	-0.8131183	-1.027677E-009	-7.309014E-005	5
	49	305	3.75601	2778253	-35640.3	1	2778481	-0.7349679	-9.550338E-010	-4.524407E-005	5
	50	311	3.004808	2912058	-34629.92	1	2912264	-0.6813238	-8.895758E-010	-0.0001304	5
	51	319	2.372217	3012697	-33509.18	1	3012884	-0.6372548	-1.036827E-009	-9.009775E-005	5
	52	323	1.878005	3100960	-34383.03	1	3101150	-0.6352619	-1.016574E-009	-6.55634E-005	5
	53	328	1.512097	3203918	-34797.83	1	3204107	-0.6222664	-9.977885E-010	-0.0001732	5
	54	334	1.201923	3330363	-40773.82	1	3330613	-0.7014404	-1.021877E-009	-6.600994E-005	5
	55	340	0.956633	3470218	-44549.73	1	3470504	-0.7355075	-1.203014E-009	-0.0006138	5
