EXPLAIN
TAG	EISPOT
TITLE	LABEL	Potentiostatic EIS	Test Identifier
DATE	LABEL	11/21/2021	Date
TIME	LABEL	12:08:47	Time
NOTES	NOTES	1	Notes...
	
PSTAT	PSTAT	REF3000-16137	Potentiostat
VDC	POTEN	0.00000E+000	T	DC Voltage (V)
FREQINIT	QUANT	3.00000E+005	Initial Freq. (Hz)
FREQFINAL	QUANT	1.00000E+000	Final Freq. (Hz)
PTSPERDEC	QUANT	1.00000E+001	Points/decade
VAC	QUANT	5.00000E+001	AC Voltage (mV rms)
AREA	QUANT	1.00000E+000	Sample Area (cm^2)
SPEED	SELECTOR	2	Optimize for:
ZGUESS	QUANT	1.00000E+003	Estimated Z (ohms)
EOC	QUANT	0	Open Circuit (V)
SEQUENCER	TOGGLE	TRUE	Run as Sequence
PSTATMODEL	IQUANT	5	Pstat Model
PSTATSECTION	LABEL	REF3000-16137	Pstat Section
PSTATSERIALNO	LABEL	16137	Pstat Serial Number
CTRLMODE	IQUANT	1	Control Mode
IESTAB	IQUANT	0	I/E Stability
CASPEED	IQUANT	1	Control Amp Speed
CONVENTION	IQUANT	1	Current Convention
ICHRANGE	IQUANT	2	Ich Range
ICHRANGEMODE	TOGGLE	F	Ich Auto Range
ICHOFFSETENABLE	TOGGLE	T	Ich Offset Enable
ICHOFFSET	QUANT	0	Ich Offset (V)
ICHFILTER	IQUANT	3	Ich Filter
VCHRANGE	IQUANT	2	Vch Range
VCHRANGEMODE	TOGGLE	F	Vch Auto Range
VCHOFFSETENABLE	TOGGLE	T	Vch Offset Enable
VCHOFFSET	QUANT	0	Vch Offset (V)
VCHFILTER	IQUANT	3	Vch Filter
ACHRANGE	IQUANT	2	Ach Range
ACHOFFSETENABLE	TOGGLE	F	Ach Offset Enable
ACHOFFSET	QUANT	0	Ach Offset (V)
ACHFILTER	IQUANT	3	Ach Filter
IERANGELOWERLIMIT	IQUANT	2	I/E Range Lower Limit
IERANGEMODE	TOGGLE	F	I/E AutoRange
IERANGE	IQUANT	11	I/E Range
POSFEEDENABLE	TOGGLE	F	Positive Feedback IR Comp
POSFEEDRESISTANCE	QUANT	0	Positive Feedback Resistance (ohm)
ACHSELECT	IQUANT	0	Ach Select
CABLEID	IQUANT	13	Cable ID
DCCALDATE	LABEL	9/10/2021	DC Calibration Date
ACCALDATE	LABEL	9/10/2021	AC Calibration Date
THERMOSELECT	IQUANT	1	Thermo Select
FRAMEWORKVERSION	QUANT	6.33	Framework Version
INSTRUMENTVERSION	LABEL	3.50	Instrument Version
COMPLIANCEVOLTAGE	IQUANT	0	Compliance Voltage
ZCURVE	TABLE
	Pt	Time	Freq	Zreal	Zimag	Zsig	Zmod	Zphz	Idc	Vdc	IERange
	#	s	Hz	ohm	ohm	V	ohm	°	A	V	#
	0	14	300046.9	891.036	-213.1766	1	916.182	-13.45487	-0.0001031	0.0033291	9
	1	30	238359.4	944.0191	-194.0382	1	963.755	-11.61508	3.793301E-006	0.0011049	9
	2	47	189328.1	977.391	-174.8322	1	992.905	-10.1416	-2.017545E-005	0.0010547	9
	3	57	150421.9	1018.505	-144.6467	1	1028.725	-8.083019	-3.533791E-005	-0.0008296	9
	4	66	119484.4	1054.856	-89.15238	1	1058.617	-4.830937	1.069839E-005	-0.0076195	8
	5	71	94921.88	1064.455	-75.65467	1	1067.14	-4.065383	8.589644E-006	0.001446	8
	6	74	75421.88	1077.08	-59.59338	1	1078.727	-3.16687	-1.984683E-005	0.0057005	8
	7	77	59859.37	1084.072	-51.62029	1	1085.3	-2.726196	-1.920746E-005	0.0069186	8
	8	79	47578.12	1090.583	-43.18883	1	1091.438	-2.267819	-6.406358E-006	0.0063568	8
	9	82	37828.12	1105.429	-37.42431	1	1106.062	-1.939009	8.551452E-006	0.0015639	8
	10	87	30046.88	1116.427	-30.5781	1	1116.846	-1.568896	-1.439249E-005	0.0009353	8
	11	89	23859.38	1124.256	-24.45187	1	1124.522	-1.245952	-6.046335E-006	0.0061913	8
	12	92	18984.38	1133.091	-20.45172	1	1133.275	-1.034048	-1.436026E-005	0.0009561	8
	13	95	15046.87	1142.595	-17.37253	1	1142.727	-0.871084	1.009312E-005	-0.0073092	8
	14	97	11953.13	1147.936	-11.4192	1	1147.993	-0.5699362	1.946546E-005	-0.0038268	8
	15	100	9515.62	1158.887	-13.07224	1	1158.961	-0.6462685	-3.494594E-006	-0.0037237	8
	16	103	7546.875	1165.197	-8.378235	1	1165.227	-0.4119725	-3.292517E-006	-0.0037661	8
	17	105	5928.309	1175.402	-9.94561	1	1175.444	-0.4847941	-2.013387E-005	0.0058202	8
	18	109	4733.456	1184.408	-11.1145	1	1184.46	-0.5376485	-2.014523E-005	0.0058158	8
	19	113	3796.875	1200.489	-11.63693	1	1200.546	-0.5553786	-1.747504E-005	0.0025682	8
	20	116	2987.132	1212.767	-9.112765	1	1212.801	-0.4305141	-1.738269E-005	0.0025377	8
	21	120	2390.625	1218.667	-11.54065	1	1218.721	-0.542569	1.605459E-005	-0.0080576	8
	22	123	1884.191	1226.044	-9.93453	1	1226.084	-0.4642525	1.048818E-005	-0.0074555	8
	23	127	1516.544	1244.978	-11.49728	1	1245.031	-0.5291073	1.942206E-005	-0.0078347	8
	24	130	1193.986	1254.182	-17.79978	1	1254.309	-0.8131065	1.552808E-005	-0.0014076	8
	25	135	946.5144	1266.836	-17.22757	1	1266.953	-0.7791116	-3.294708E-006	-0.0038382	8
	26	137	751.7689	1279.48	-26.55755	1	1279.756	-1.18909	1.050074E-006	0.004489	8
	27	140	597.4265	1291.894	-38.51384	1	1292.468	-1.707592	1.053887E-005	-0.0074727	8
	28	143	477.4305	1295.637	-33.95955	1	1296.082	-1.501419	-2.595099E-007	-0.0001308	8
	29	145	376.6741	1304.448	-41.57076	1	1305.11	-1.825311	-2.683201E-007	-0.0001245	8
	30	147	298.2954	1313.485	-51.11676	1	1314.48	-2.228648	-2.696566E-007	-0.0001233	8
	31	150	237.7717	1323.345	-62.63357	1	1324.826	-2.709773	-2.50084E-007	-0.0001388	8
	32	152	189.0121	1333.582	-77.12809	1	1335.811	-3.310029	-2.680488E-007	-0.0001469	8
	33	154	150.2404	1344.546	-95.0657	1	1347.903	-4.044348	-2.967772E-007	-0.0001227	8
	34	157	119.1737	1356.15	-117.3355	1	1361.216	-4.944977	-2.775108E-007	-0.0001242	8
	35	159	95.0169	1368.746	-144.3377	1	1376.336	-6.019735	-2.502573E-007	-0.0001488	8
	36	162	75.60484	1382.981	-177.7451	1	1394.356	-7.323686	-2.600376E-007	-0.0001501	8
	37	164	54.50582	1402.018	-239.2548	1	1422.286	-9.68425	-2.856843E-007	-0.0001437	8
	38	167	45.95588	1417.701	-279.2136	1	1444.935	-11.1417	-2.112604E-007	-0.0001339	8
	39	169	37.20238	1436.328	-338.3772	1	1475.648	-13.2563	-1.921954E-007	-0.0001492	8
	40	171	30.04808	1458.549	-410.2957	1	1515.16	-15.7115	-2.780025E-007	-0.000116	8
	41	174	23.91582	1485.599	-503.2685	1	1568.529	-18.71456	-2.91629E-007	-0.0001539	8
	42	176	18.60119	1520.821	-631.1221	1	1646.576	-22.53785	-3.649747E-007	-0.0001421	8
	43	179	15.02404	1556.018	-761.9681	1	1732.566	-26.09058	-3.165669E-007	-0.0001409	8
	44	181	12.01923	1602.276	-924.5955	1	1849.91	-29.98715	-3.479707E-007	-0.0001449	8
	45	183	9.450605	1659.636	-1141.794	1	2014.469	-34.52714	-2.368891E-007	-0.0001098	8
	46	186	7.512019	1727.685	-1392.921	1	2219.262	-38.87698	-2.310595E-007	-0.0001039	8
	47	189	5.978954	1812.02	-1695.237	1	2481.38	-43.09289	-3.005127E-007	-0.0001247	8
	48	192	4.734848	1913.448	-2072.432	1	2820.683	-47.28414	-2.389349E-007	-0.0001078	8
	49	195	3.75601	2033.198	-2521.828	1	3239.368	-51.12286	-2.886551E-007	-0.0001555	8
	50	198	3.004808	2170.348	-3047.441	1	3741.298	-54.54202	-3.185563E-007	-8.339788E-005	8
	51	202	2.372217	2347.906	-3737.344	1	4413.661	-57.8618	-4.855462E-008	-4.033942E-005	7
	52	206	1.878005	2537.241	-4560.952	1	5219.184	-60.91297	-6.094159E-008	-0.0001368	7
	53	211	1.512097	2748.533	-5483.219	1	6133.525	-63.3771	-4.660795E-008	-4.229763E-005	7
	54	216	1.201923	2995.977	-6708.585	1	7347.175	-65.93501	-5.638487E-008	-0.0001422	7
	55	223	0.956633	3282.896	-8196.488	1	8829.486	-68.17268	-6.311053E-008	-0.0006622	7
