EXPLAIN
TAG	EISPOT
TITLE	LABEL	Potentiostatic EIS	Test Identifier
DATE	LABEL	11/21/2021	Date
TIME	LABEL	11:11:42	Time
NOTES	NOTES	1	Notes...
	
PSTAT	PSTAT	REF3000-16137	Potentiostat
VDC	POTEN	0.00000E+000	T	DC Voltage (V)
FREQINIT	QUANT	3.00000E+005	Initial Freq. (Hz)
FREQFINAL	QUANT	1.00000E+000	Final Freq. (Hz)
PTSPERDEC	QUANT	1.00000E+001	Points/decade
VAC	QUANT	5.00000E+001	AC Voltage (mV rms)
AREA	QUANT	1.00000E+000	Sample Area (cm^2)
SPEED	SELECTOR	2	Optimize for:
ZGUESS	QUANT	1.00000E+003	Estimated Z (ohms)
EOC	QUANT	0	Open Circuit (V)
SEQUENCER	TOGGLE	TRUE	Run as Sequence
PSTATMODEL	IQUANT	5	Pstat Model
PSTATSECTION	LABEL	REF3000-16137	Pstat Section
PSTATSERIALNO	LABEL	16137	Pstat Serial Number
CTRLMODE	IQUANT	1	Control Mode
IESTAB	IQUANT	0	I/E Stability
CASPEED	IQUANT	1	Control Amp Speed
CONVENTION	IQUANT	1	Current Convention
ICHRANGE	IQUANT	2	Ich Range
ICHRANGEMODE	TOGGLE	F	Ich Auto Range
ICHOFFSETENABLE	TOGGLE	T	Ich Offset Enable
ICHOFFSET	QUANT	0	Ich Offset (V)
ICHFILTER	IQUANT	3	Ich Filter
VCHRANGE	IQUANT	2	Vch Range
VCHRANGEMODE	TOGGLE	F	Vch Auto Range
VCHOFFSETENABLE	TOGGLE	T	Vch Offset Enable
VCHOFFSET	QUANT	0	Vch Offset (V)
VCHFILTER	IQUANT	3	Vch Filter
ACHRANGE	IQUANT	2	Ach Range
ACHOFFSETENABLE	TOGGLE	F	Ach Offset Enable
ACHOFFSET	QUANT	0	Ach Offset (V)
ACHFILTER	IQUANT	3	Ach Filter
IERANGELOWERLIMIT	IQUANT	2	I/E Range Lower Limit
IERANGEMODE	TOGGLE	F	I/E AutoRange
IERANGE	IQUANT	11	I/E Range
POSFEEDENABLE	TOGGLE	F	Positive Feedback IR Comp
POSFEEDRESISTANCE	QUANT	0	Positive Feedback Resistance (ohm)
ACHSELECT	IQUANT	0	Ach Select
CABLEID	IQUANT	13	Cable ID
DCCALDATE	LABEL	9/10/2021	DC Calibration Date
ACCALDATE	LABEL	9/10/2021	AC Calibration Date
THERMOSELECT	IQUANT	1	Thermo Select
FRAMEWORKVERSION	QUANT	6.33	Framework Version
INSTRUMENTVERSION	LABEL	3.50	Instrument Version
COMPLIANCEVOLTAGE	IQUANT	0	Compliance Voltage
ZCURVE	TABLE
	Pt	Time	Freq	Zreal	Zimag	Zsig	Zmod	Zphz	Idc	Vdc	IERange
	#	s	Hz	ohm	ohm	V	ohm	°	A	V	#
	0	8	300046.9	9.89719	2.271921	1	10.15461	12.92839	-1.30805E-005	-0.0007967	10
	1	11	238359.4	9.87366	1.792565	1	10.03506	10.28998	-3.145352E-005	-0.0007153	10
	2	14	189328.1	9.8714	1.408575	1	9.97139	8.120855	-0.0000974	-0.0004616	10
	3	17	150421.9	9.86142	1.099183	1	9.92249	6.360107	-0.0001018	-0.0003815	10
	4	19	119484.4	9.88395	0.8406631	1	9.91964	4.861496	1.698432E-005	-0.0002429	10
	5	22	94921.88	9.89867	0.6375707	1	9.91918	3.685315	-1.117517E-006	-0.0002107	10
	6	24	75421.88	9.91239	0.4534594	1	9.92276	2.619267	-2.036517E-005	-0.0001343	10
	7	27	59859.37	9.92867	0.2907619	1	9.93293	1.677432	-2.800207E-005	-0.0001721	10
	8	30	47578.12	9.94982	0.1497013	1	9.95095	0.8619855	-1.329895E-005	-0.0001354	10
	9	32	37828.12	9.9731	0.0211168	1	9.97312	0.1213166	-2.102022E-005	-0.000104	10
	10	35	30046.88	9.99623	-0.1044171	1	9.99677	-0.59847	-4.207121E-006	-0.0001633	10
	11	37	23859.38	10.01956	-0.2328892	1	10.02227	-1.331512	6.810336E-006	-0.0001642	10
	12	39	18984.38	10.04651	-0.370288	1	10.05334	-2.110816	-1.191314E-005	-0.0001396	10
	13	42	15046.87	10.0756	-0.5243287	1	10.08923	-2.978955	2.406206E-005	-0.0001431	10
	14	44	11953.13	10.10917	-0.7009085	1	10.13344	-3.966193	-1.827278E-005	-0.0001711	10
	15	46	9515.62	10.14621	-0.9079096	1	10.18675	-5.113359	-1.202096E-005	-0.0001334	10
	16	49	7546.875	10.18867	-1.157953	1	10.25426	-6.483905	9.526518E-006	-0.0001697	10
	17	51	5928.309	10.24216	-1.477294	1	10.34815	-8.207542	-3.623981E-006	-0.0001188	10
	18	53	4733.456	10.29904	-1.841168	1	10.46232	-10.13574	8.556297E-006	-0.0001356	10
	19	56	3796.875	10.36754	-2.272583	1	10.6137	-12.36378	1.85875E-005	-0.0001633	10
	20	58	2987.132	10.45785	-2.852685	1	10.83995	-15.25789	-3.070104E-006	-0.0001211	10
	21	60	2390.625	10.55876	-3.514815	1	11.1284	-18.41164	3.500426E-006	-0.0001575	10
	22	62	1884.191	10.69156	-4.38745	1	11.55678	-22.31157	2.320743E-005	-0.0001402	10
	23	65	1516.544	10.84254	-5.356182	1	12.09336	-26.28923	-1.586203E-005	-0.0001191	10
	24	67	1193.986	11.04431	-6.674323	1	12.9044	-31.14549	-1.258923E-005	-0.0001053	10
	25	70	946.5144	11.28096	-8.246737	1	13.97386	-36.16799	4.815164E-006	-0.0001527	10
	26	72	751.7689	11.56661	-10.16617	1	15.39927	-41.31302	2.361181E-005	-0.0001397	10
	27	74	597.4265	11.90538	-12.5213	1	17.27776	-46.44441	-3.686507E-006	-0.0001425	10
	28	76	477.4305	12.29555	-15.35896	1	19.67431	-51.32114	-7.526069E-007	-0.0001139	10
	29	79	376.6741	12.76798	-19.05213	1	22.9348	-56.17159	-3.168887E-007	-0.0001181	10
	30	81	298.2954	13.31352	-23.57996	1	27.07885	-60.55042	-1.380799E-007	-0.0001163	10
	31	83	237.7717	13.94497	-29.04837	1	32.2222	-64.35619	-1.080428E-006	-0.0001183	10
	32	86	189.0121	14.70748	-35.90763	1	38.80294	-67.72638	-1.420557E-006	-0.0001175	10
	33	88	150.2404	15.61461	-44.37608	1	47.04309	-70.61456	5.431431E-007	-0.0001305	9
	34	91	119.1737	16.76309	-55.05358	1	57.54909	-73.06519	6.32123E-007	-0.000133	9
	35	93	95.0169	18.15453	-68.00784	1	70.38929	-75.05356	5.196816E-007	-0.0001302	9
	36	96	75.60484	19.90575	-84.19764	1	86.51868	-76.69854	5.225122E-007	-0.0001278	9
	37	98	54.50582	23.2051	-114.3243	1	116.6556	-78.5262	5.115962E-007	-0.0001331	9
	38	101	45.95588	25.4199	-134.0952	1	136.4833	-79.26603	5.775715E-007	-0.0001295	9
	39	103	37.20238	28.75142	-163.3614	1	165.8722	-80.01823	5.327886E-007	-0.000124	9
	40	105	30.04808	32.93154	-199.4796	1	202.1796	-80.62575	8.895644E-007	-0.0001682	9
	41	108	23.91582	38.53219	-246.7167	1	249.7076	-81.12326	3.853988E-007	-0.0001323	9
	42	110	18.60119	46.50876	-311.8705	1	315.3193	-81.51807	5.627645E-007	-0.0001298	9
	43	112	15.02404	55.13242	-380.5881	1	384.5607	-81.75741	4.797751E-007	-0.0001357	9
	44	115	12.01923	66.2428	-466.281	1	470.9629	-81.91431	6.080591E-007	-0.0001235	8
	45	117	9.450605	81.93967	-583.0224	1	588.7523	-81.99989	6.638616E-007	-0.0001221	8
	46	120	7.512019	101.0207	-721.1072	1	728.1489	-82.02527	6.523419E-007	-0.000112	8
	47	122	5.978954	125.9818	-890.6442	1	899.5101	-81.94891	6.163296E-007	-0.0001225	8
	48	125	4.734848	158.9445	-1105.677	1	1117.042	-81.81959	6.665808E-007	-0.0001272	8
	49	130	3.75601	200.8801	-1368.048	1	1382.718	-81.64656	6.717538E-007	-0.0001022	8
	50	133	3.004808	254.4737	-1679.157	1	1698.33	-81.38248	6.193789E-007	-0.0000964	8
	51	137	2.372217	329.4667	-2082.604	1	2108.503	-81.01034	6.2817E-007	-0.0000999	8
	52	141	1.878005	433.42	-2580.882	1	2617.022	-80.467	6.62289E-007	-0.0001428	8
	53	146	1.512097	556.9935	-3141.775	1	3190.767	-79.9467	6.427925E-007	-2.185932E-005	8
	54	151	1.201923	734.082	-3864.359	1	3933.465	-79.24413	6.649009E-007	-0.0001422	8
	55	157	0.956633	968.388	-4746.238	1	4844.022	-78.46806	7.702803E-008	-0.000656	7
