EXPLAIN
TAG	EISPOT
TITLE	LABEL	Potentiostatic EIS	Test Identifier
DATE	LABEL	11/21/2021	Date
TIME	LABEL	11:44:57	Time
NOTES	NOTES	1	Notes...
	
PSTAT	PSTAT	REF3000-16137	Potentiostat
VDC	POTEN	0.00000E+000	T	DC Voltage (V)
FREQINIT	QUANT	3.00000E+005	Initial Freq. (Hz)
FREQFINAL	QUANT	1.00000E+000	Final Freq. (Hz)
PTSPERDEC	QUANT	1.00000E+001	Points/decade
VAC	QUANT	5.00000E+001	AC Voltage (mV rms)
AREA	QUANT	1.00000E+000	Sample Area (cm^2)
SPEED	SELECTOR	2	Optimize for:
ZGUESS	QUANT	1.00000E+003	Estimated Z (ohms)
EOC	QUANT	0	Open Circuit (V)
SEQUENCER	TOGGLE	TRUE	Run as Sequence
PSTATMODEL	IQUANT	5	Pstat Model
PSTATSECTION	LABEL	REF3000-16137	Pstat Section
PSTATSERIALNO	LABEL	16137	Pstat Serial Number
CTRLMODE	IQUANT	1	Control Mode
IESTAB	IQUANT	0	I/E Stability
CASPEED	IQUANT	1	Control Amp Speed
CONVENTION	IQUANT	1	Current Convention
ICHRANGE	IQUANT	2	Ich Range
ICHRANGEMODE	TOGGLE	F	Ich Auto Range
ICHOFFSETENABLE	TOGGLE	T	Ich Offset Enable
ICHOFFSET	QUANT	0	Ich Offset (V)
ICHFILTER	IQUANT	3	Ich Filter
VCHRANGE	IQUANT	2	Vch Range
VCHRANGEMODE	TOGGLE	F	Vch Auto Range
VCHOFFSETENABLE	TOGGLE	T	Vch Offset Enable
VCHOFFSET	QUANT	0	Vch Offset (V)
VCHFILTER	IQUANT	3	Vch Filter
ACHRANGE	IQUANT	2	Ach Range
ACHOFFSETENABLE	TOGGLE	F	Ach Offset Enable
ACHOFFSET	QUANT	0	Ach Offset (V)
ACHFILTER	IQUANT	3	Ach Filter
IERANGELOWERLIMIT	IQUANT	2	I/E Range Lower Limit
IERANGEMODE	TOGGLE	F	I/E AutoRange
IERANGE	IQUANT	11	I/E Range
POSFEEDENABLE	TOGGLE	F	Positive Feedback IR Comp
POSFEEDRESISTANCE	QUANT	0	Positive Feedback Resistance (ohm)
ACHSELECT	IQUANT	0	Ach Select
CABLEID	IQUANT	13	Cable ID
DCCALDATE	LABEL	9/10/2021	DC Calibration Date
ACCALDATE	LABEL	9/10/2021	AC Calibration Date
THERMOSELECT	IQUANT	1	Thermo Select
FRAMEWORKVERSION	QUANT	6.33	Framework Version
INSTRUMENTVERSION	LABEL	3.50	Instrument Version
COMPLIANCEVOLTAGE	IQUANT	0	Compliance Voltage
ZCURVE	TABLE
	Pt	Time	Freq	Zreal	Zimag	Zsig	Zmod	Zphz	Idc	Vdc	IERange
	#	s	Hz	ohm	ohm	V	ohm	°	A	V	#
	0	7	300046.9	67.00955	1.947232	1	67.03784	1.66449	-6.278016E-005	0.0012686	9
	1	10	238359.4	67.22227	1.433024	1	67.23754	1.221229	1.510682E-005	-0.0011193	9
	2	13	189328.1	67.56819	1.045111	1	67.57627	0.886152	-1.385993E-005	-0.0010819	9
	3	17	150421.9	68.00099	0.7409184	1	68.00503	0.6242529	1.23927E-005	-0.0012561	9
	4	20	119484.4	68.27898	0.5656366	1	68.28132	0.4746387	1.097357E-005	-0.0007144	9
	5	23	94921.88	68.61	0.5281119	1	68.61203	0.4410142	-1.792464E-005	0.0004009	9
	6	25	75421.88	68.81048	0.3096662	1	68.81117	0.2578451	-3.772188E-006	-0.0004105	9
	7	28	59859.37	69.04547	0.1296494	1	69.04559	0.1075864	-1.531997E-005	0.0004723	9
	8	30	47578.12	69.27612	-0.057859	1	69.27614	-0.0478531	-2.415039E-006	-0.000441	9
	9	33	37828.12	69.57079	-0.1942308	1	69.57106	-0.1599605	-4.913549E-006	0.0003132	9
	10	35	30046.88	69.83357	-0.3493078	1	69.83445	-0.2865913	1.973578E-005	-0.0004734	9
	11	38	23859.38	70.08486	-0.471945	1	70.08645	-0.3858186	-1.839147E-005	0.0004629	9
	12	40	18984.38	70.30193	-0.6210614	1	70.30468	-0.5061492	1.84396E-005	-0.0005211	9
	13	42	15046.87	70.54476	-0.8760421	1	70.5502	-0.7114764	-1.605197E-005	9.197358E-005	9
	14	45	11953.13	70.81374	-1.082217	1	70.82201	-0.8755591	-1.848647E-005	0.0004693	9
	15	47	9515.62	71.09114	-1.313434	1	71.10327	-1.058439	-1.588496E-005	0.0001313	9
	16	49	7546.875	71.36264	-1.603866	1	71.38066	-1.287498	2.052138E-005	-0.0006629	9
	17	51	5928.309	71.6528	-2.064685	1	71.68254	-1.650529	-1.832085E-005	0.0002866	9
	18	54	4733.456	71.92484	-2.550097	1	71.97002	-2.030573	1.910751E-005	-0.0004732	9
	19	56	3796.875	72.33807	-3.157382	1	72.40694	-2.499236	-2.023008E-005	0.0004499	9
	20	58	2987.132	72.57235	-3.913013	1	72.67776	-3.08633	2.991396E-006	0.0001546	9
	21	61	2390.625	72.9292	-4.830833	1	73.08902	-3.789738	1.938538E-005	-0.0007951	9
	22	63	1884.191	73.36363	-6.083598	1	73.61544	-4.740344	-1.860169E-005	0.0004009	9
	23	65	1516.544	73.70918	-7.342782	1	74.07401	-5.688938	1.87316E-005	-0.0008029	9
	24	68	1193.986	74.22237	-9.147277	1	74.78391	-7.025791	-1.88742E-005	0.000405	9
	25	70	946.5144	74.7933	-11.32382	1	75.64566	-8.609281	1.02269E-005	-0.0001377	9
	26	72	751.7689	75.40405	-13.98097	1	76.68923	-10.50415	9.362478E-006	-0.0007353	9
	27	75	597.4265	76.14022	-17.27779	1	78.07596	-12.78509	9.27237E-006	-0.0007349	9
	28	77	477.4305	77.04571	-21.2276	1	79.91653	-15.40393	5.510479E-007	-0.0001334	9
	29	79	376.6741	78.10551	-26.33755	1	82.42655	-18.63435	5.381985E-007	-0.0001328	9
	30	82	298.2954	79.38489	-32.5481	1	85.79825	-22.29381	5.141566E-007	-0.0001302	9
	31	84	237.7717	80.92361	-39.94222	1	90.24418	-26.27	4.666112E-007	-0.0001268	9
	32	86	189.0121	82.81826	-49.07964	1	96.2688	-30.65177	4.652296E-007	-0.0001206	9
	33	89	150.2404	85.12149	-60.22466	1	104.2721	-35.27995	4.238534E-007	-0.0001247	9
	34	91	119.1737	87.92107	-73.94587	1	114.883	-40.06546	4.810356E-007	-0.0001243	9
	35	94	95.0169	91.18914	-90.28609	1	128.324	-44.71489	4.904253E-007	-0.0001262	9
	36	96	75.60484	95.0621	-110.372	1	145.6667	-49.26206	4.508606E-007	-0.0001313	9
	37	99	54.50582	101.5406	-147.1316	1	178.7686	-55.3891	4.593571E-007	-0.0001305	9
	38	101	45.95588	105.5839	-171.0742	1	201.0332	-58.31787	4.805473E-007	-0.0001269	9
	39	103	37.20238	111.0958	-206.3731	1	234.3761	-61.70531	5.243901E-007	-0.0001259	9
	40	106	30.04808	117.4465	-249.8225	1	276.0525	-64.82085	4.619939E-007	-0.0001286	9
	41	108	23.91582	125.2836	-306.9333	1	331.5178	-67.79577	5.369772E-007	-0.0001317	9
	42	111	18.60119	135.4388	-385.5799	1	408.6754	-70.64566	4.686689E-007	-0.000131	9
	43	113	15.02404	145.3165	-466.8873	1	488.9792	-72.71149	2.188594E-007	-0.0001276	8
	44	115	12.01923	158.3393	-573.1804	1	594.6487	-74.55735	2.160877E-007	-0.0001283	8
	45	118	9.450605	175.6799	-715.5822	1	736.832	-76.20634	2.646741E-007	-0.0001105	8
	46	120	7.512019	196.0585	-884.5864	1	906.053	-77.50306	2.983722E-007	-0.0001313	8
	47	123	5.978954	221.3792	-1092.956	1	1115.151	-78.54961	2.455846E-007	-0.000119	8
	48	126	4.734848	253.7178	-1358.068	1	1381.565	-79.41784	2.843851E-007	-0.0001105	8
	49	129	3.75601	293.9576	-1683.241	1	1708.716	-80.09389	2.481565E-007	-0.0001174	8
	50	132	3.004808	343.1145	-2068.863	1	2097.122	-80.58338	2.623695E-007	-0.0001482	8
	51	136	2.372217	407.1414	-2577.667	1	2609.623	-81.02431	2.624675E-007	-0.0001929	8
	52	140	1.878005	488.1536	-3200.513	1	3237.527	-81.32788	2.741337E-007	-0.0001086	8
	53	145	1.512097	585.592	-3903.029	1	3946.714	-81.46725	2.430694E-007	-0.0001659	8
	54	150	1.201923	709.3185	-4851.831	1	4903.406	-81.6825	3.7868E-008	-7.787473E-005	7
	55	157	0.956633	868.4003	-5994.489	1	6057.063	-81.75711	2.44299E-008	-0.0006551	7
