EXPLAIN
TAG	EISPOT
TITLE	LABEL	Potentiostatic EIS	Test Identifier
DATE	LABEL	11/21/2021	Date
TIME	LABEL	12:21:50	Time
NOTES	NOTES	1	Notes...
	
PSTAT	PSTAT	REF3000-16137	Potentiostat
VDC	POTEN	0.00000E+000	T	DC Voltage (V)
FREQINIT	QUANT	3.00000E+005	Initial Freq. (Hz)
FREQFINAL	QUANT	1.00000E+000	Final Freq. (Hz)
PTSPERDEC	QUANT	1.00000E+001	Points/decade
VAC	QUANT	5.00000E+001	AC Voltage (mV rms)
AREA	QUANT	1.00000E+000	Sample Area (cm^2)
SPEED	SELECTOR	2	Optimize for:
ZGUESS	QUANT	1.00000E+003	Estimated Z (ohms)
EOC	QUANT	0	Open Circuit (V)
SEQUENCER	TOGGLE	TRUE	Run as Sequence
PSTATMODEL	IQUANT	5	Pstat Model
PSTATSECTION	LABEL	REF3000-16137	Pstat Section
PSTATSERIALNO	LABEL	16137	Pstat Serial Number
CTRLMODE	IQUANT	1	Control Mode
IESTAB	IQUANT	0	I/E Stability
CASPEED	IQUANT	1	Control Amp Speed
CONVENTION	IQUANT	1	Current Convention
ICHRANGE	IQUANT	2	Ich Range
ICHRANGEMODE	TOGGLE	F	Ich Auto Range
ICHOFFSETENABLE	TOGGLE	T	Ich Offset Enable
ICHOFFSET	QUANT	0	Ich Offset (V)
ICHFILTER	IQUANT	3	Ich Filter
VCHRANGE	IQUANT	2	Vch Range
VCHRANGEMODE	TOGGLE	F	Vch Auto Range
VCHOFFSETENABLE	TOGGLE	T	Vch Offset Enable
VCHOFFSET	QUANT	0	Vch Offset (V)
VCHFILTER	IQUANT	3	Vch Filter
ACHRANGE	IQUANT	2	Ach Range
ACHOFFSETENABLE	TOGGLE	F	Ach Offset Enable
ACHOFFSET	QUANT	0	Ach Offset (V)
ACHFILTER	IQUANT	3	Ach Filter
IERANGELOWERLIMIT	IQUANT	2	I/E Range Lower Limit
IERANGEMODE	TOGGLE	F	I/E AutoRange
IERANGE	IQUANT	11	I/E Range
POSFEEDENABLE	TOGGLE	F	Positive Feedback IR Comp
POSFEEDRESISTANCE	QUANT	0	Positive Feedback Resistance (ohm)
ACHSELECT	IQUANT	0	Ach Select
CABLEID	IQUANT	13	Cable ID
DCCALDATE	LABEL	9/10/2021	DC Calibration Date
ACCALDATE	LABEL	9/10/2021	AC Calibration Date
THERMOSELECT	IQUANT	1	Thermo Select
FRAMEWORKVERSION	QUANT	6.33	Framework Version
INSTRUMENTVERSION	LABEL	3.50	Instrument Version
COMPLIANCEVOLTAGE	IQUANT	0	Compliance Voltage
ZCURVE	TABLE
	Pt	Time	Freq	Zreal	Zimag	Zsig	Zmod	Zphz	Idc	Vdc	IERange
	#	s	Hz	ohm	ohm	V	ohm	°	A	V	#
	0	14	300046.9	1618.739	-3285.307	1	3662.452	-63.76958	-6.727884E-005	0.0004422	9
	1	29	238359.4	2211.525	-3735.915	1	4341.417	-59.37602	2.550938E-006	0.0012806	9
	2	45	189328.1	2832.625	-4212.199	1	5076.06	-56.07991	7.801405E-005	-0.001922	9
	3	52	150421.9	3377.581	-4973.397	1	6011.882	-55.81842	-1.335475E-005	0.0015864	9
	4	61	119484.4	5025.786	-4962.25	1	7062.75	-44.63553	-3.534326E-005	-0.0040155	8
	5	73	94921.88	6156.441	-5064.828	1	7972.092	-39.44371	-1.724765E-005	0.0097805	8
	6	80	75421.88	7142.698	-5194.385	1	8831.747	-36.02578	1.040157E-005	0.0001578	9
	7	89	59859.37	8287.209	-4978.892	1	9667.84	-30.99713	2.81095E-005	-0.0008858	9
	8	97	47578.12	9355.729	-4528.679	1	10394.16	-25.82949	-9.616432E-006	0.0086056	8
	9	106	37828.12	11006.57	-3280.265	1	11484.97	-16.59553	2.609604E-006	0.0066596	7
	10	111	30046.88	11578.72	-2899.634	1	11936.28	-14.05931	4.587352E-006	-0.0017579	7
	11	117	23859.38	12123.21	-2566.596	1	12391.92	-11.95354	5.975893E-006	-0.0252039	7
	12	122	18984.38	12495.09	-2190.818	1	12685.7	-9.94483	6.065115E-006	-0.0104037	7
	13	127	15046.87	12830.55	-1846.161	1	12962.69	-8.187972	6.297201E-006	-0.0256755	7
	14	131	11953.13	13247.67	-1519.172	1	13334.49	-6.541798	-1.484348E-006	0.0194526	7
	15	135	9515.62	13458.56	-1301.943	1	13521.39	-5.525439	-4.941365E-006	0.0239931	7
	16	139	7546.875	13718.53	-1064.574	1	13759.77	-4.437328	-5.039236E-006	0.0030158	7
	17	144	5928.309	14100.05	-839.2351	1	14125	-3.406227	5.30201E-007	0.0139365	7
	18	148	4733.456	14257.12	-731.5496	1	14275.87	-2.937338	7.047618E-006	-0.0233784	7
	19	152	3796.875	14419.76	-630.6589	1	14433.55	-2.504277	-3.411413E-006	0.0228263	7
	20	156	2987.132	14791.79	-443.3421	1	14798.43	-1.716766	7.021663E-006	-0.0181149	7
	21	161	2390.625	14960.47	-442.7249	1	14967.02	-1.695058	-6.331659E-006	0.0109075	7
	22	165	1884.191	15254.71	-302.1344	1	15257.71	-1.13465	3.136847E-006	-0.0233306	7
	23	169	1516.544	15515.59	-205.594	1	15516.95	-0.7591706	4.886959E-006	-0.0255352	7
	24	174	1193.986	15679.36	-179.5155	1	15680.38	-0.6559599	-1.502874E-006	0.0194157	7
	25	178	946.5144	15921.38	-371.1463	1	15925.7	-1.335391	7.036601E-006	-0.0181043	7
	26	181	751.7689	15887.51	-459.6823	1	15894.16	-1.657308	-3.39977E-006	0.0228658	7
	27	183	597.4265	16282.31	-284.2551	1	16284.8	-1.000163	-1.103904E-006	-0.0128909	7
	28	186	477.4305	16423.62	-162.0049	1	16424.42	-0.5651552	-8.928507E-008	-0.0001209	7
	29	188	376.6741	16563.06	-151.8828	1	16563.76	-0.5253859	-9.499882E-008	-8.347903E-005	7
	30	190	298.2954	16708.17	-148.5404	1	16708.83	-0.5093624	-9.263326E-008	-0.0001219	7
	31	193	237.7717	16863.23	-154.602	1	16863.94	-0.5252725	-8.915782E-008	-0.0001574	7
	32	195	189.0121	17016.58	-165.7979	1	17017.39	-0.5582331	-9.78596E-008	-6.807791E-005	7
	33	198	150.2404	17171.12	-190.5505	1	17172.18	-0.6357938	-8.646399E-008	-0.0001606	7
	34	200	119.1737	17330.49	-208.3371	1	17331.74	-0.6887434	-1.012279E-007	-6.576392E-005	7
	35	202	95.0169	17495.29	-247.9947	1	17497.05	-0.8121098	-9.377184E-008	-0.0001638	7
	36	205	75.60484	17672.38	-293.6098	1	17674.82	-0.951827	-9.438057E-008	-0.0001583	7
	37	208	54.50582	17855.25	-380.4348	1	17859.31	-1.220594	-7.656877E-008	-0.0001734	7
	38	210	45.95588	18032.69	-438.9882	1	18038.03	-1.394535	-8.008081E-008	-8.044113E-005	7
	39	212	37.20238	18196.93	-525.5879	1	18204.52	-1.654433	-9.268267E-008	-0.0001345	7
	40	215	30.04808	18389.94	-631.1664	1	18400.77	-1.965693	-1.15844E-007	-6.908707E-005	7
	41	217	23.91582	18568.39	-768.8807	1	18584.31	-2.371151	-5.999961E-008	-0.0001501	7
	42	220	18.60119	18779.01	-984.071	1	18804.77	-2.999711	-3.057195E-008	-0.0001584	7
	43	222	15.02404	18965.59	-1160.306	1	19001.05	-3.500965	-1.122938E-007	-0.0001742	7
	44	224	12.01923	19182.07	-1385.661	1	19232.05	-4.131715	-2.525927E-008	-0.0001578	7
	45	227	9.450605	19416.56	-1759.88	1	19496.16	-5.179029	-6.787218E-008	-9.188606E-005	7
	46	229	7.512019	19645.42	-2155.279	1	19763.3	-6.260821	-5.291915E-008	-0.00013	7
	47	232	5.978954	19935.29	-2708.02	1	20118.38	-7.735736	-5.068125E-008	-7.559174E-005	7
	48	235	4.734848	20328.19	-3311.771	1	20596.19	-9.253065	-9.343393E-008	-9.219851E-005	7
	49	238	3.75601	20743.55	-4077.676	1	21140.54	-11.12115	-8.210549E-008	-0.0001301	7
	50	242	3.004808	21177.75	-5020.352	1	21764.68	-13.33623	-1.094187E-007	-9.460092E-005	7
	51	245	2.372217	21773.54	-6121.798	1	22617.77	-15.70373	-7.959083E-008	-4.37716E-005	7
	52	249	1.878005	22433.71	-7556.932	1	23672.31	-18.61641	-8.57164E-008	-0.0001413	7
	53	254	1.512097	23203.27	-9166.971	1	24948.45	-21.55761	-9.403865E-008	-2.161337E-005	7
	54	260	1.201923	24211.92	-11234.68	1	26691.48	-24.89197	-8.501583E-008	-0.0001419	7
	55	266	0.956633	25397.12	-13776.98	1	28893.23	-28.47816	-1.051025E-007	-0.000665	7
