EXPLAIN
TAG	EISPOT
TITLE	LABEL	Potentiostatic EIS	Test Identifier
DATE	LABEL	11/21/2021	Date
TIME	LABEL	12:02:01	Time
NOTES	NOTES	1	Notes...
	
PSTAT	PSTAT	REF3000-16137	Potentiostat
VDC	POTEN	0.00000E+000	T	DC Voltage (V)
FREQINIT	QUANT	3.00000E+005	Initial Freq. (Hz)
FREQFINAL	QUANT	1.00000E+000	Final Freq. (Hz)
PTSPERDEC	QUANT	1.00000E+001	Points/decade
VAC	QUANT	5.00000E+001	AC Voltage (mV rms)
AREA	QUANT	1.00000E+000	Sample Area (cm^2)
SPEED	SELECTOR	2	Optimize for:
ZGUESS	QUANT	1.00000E+003	Estimated Z (ohms)
EOC	QUANT	0	Open Circuit (V)
SEQUENCER	TOGGLE	TRUE	Run as Sequence
PSTATMODEL	IQUANT	5	Pstat Model
PSTATSECTION	LABEL	REF3000-16137	Pstat Section
PSTATSERIALNO	LABEL	16137	Pstat Serial Number
CTRLMODE	IQUANT	1	Control Mode
IESTAB	IQUANT	0	I/E Stability
CASPEED	IQUANT	1	Control Amp Speed
CONVENTION	IQUANT	1	Current Convention
ICHRANGE	IQUANT	2	Ich Range
ICHRANGEMODE	TOGGLE	F	Ich Auto Range
ICHOFFSETENABLE	TOGGLE	T	Ich Offset Enable
ICHOFFSET	QUANT	0	Ich Offset (V)
ICHFILTER	IQUANT	3	Ich Filter
VCHRANGE	IQUANT	2	Vch Range
VCHRANGEMODE	TOGGLE	F	Vch Auto Range
VCHOFFSETENABLE	TOGGLE	T	Vch Offset Enable
VCHOFFSET	QUANT	0	Vch Offset (V)
VCHFILTER	IQUANT	3	Vch Filter
ACHRANGE	IQUANT	2	Ach Range
ACHOFFSETENABLE	TOGGLE	F	Ach Offset Enable
ACHOFFSET	QUANT	0	Ach Offset (V)
ACHFILTER	IQUANT	3	Ach Filter
IERANGELOWERLIMIT	IQUANT	2	I/E Range Lower Limit
IERANGEMODE	TOGGLE	F	I/E AutoRange
IERANGE	IQUANT	11	I/E Range
POSFEEDENABLE	TOGGLE	F	Positive Feedback IR Comp
POSFEEDRESISTANCE	QUANT	0	Positive Feedback Resistance (ohm)
ACHSELECT	IQUANT	0	Ach Select
CABLEID	IQUANT	13	Cable ID
DCCALDATE	LABEL	9/10/2021	DC Calibration Date
ACCALDATE	LABEL	9/10/2021	AC Calibration Date
THERMOSELECT	IQUANT	1	Thermo Select
FRAMEWORKVERSION	QUANT	6.33	Framework Version
INSTRUMENTVERSION	LABEL	3.50	Instrument Version
COMPLIANCEVOLTAGE	IQUANT	0	Compliance Voltage
ZCURVE	TABLE
	Pt	Time	Freq	Zreal	Zimag	Zsig	Zmod	Zphz	Idc	Vdc	IERange
	#	s	Hz	ohm	ohm	V	ohm	°	A	V	#
	0	18	300046.9	378.1339	-33.42081	1	379.6079	-5.050879	1.364299E-005	-0.002159	9
	1	24	238359.4	387.1891	-28.40976	1	388.2299	-4.196522	1.644668E-005	-0.0009107	9
	2	36	189328.1	397.7518	-24.89301	1	398.53	-3.581145	7.362632E-005	-0.0018973	9
	3	44	150421.9	401.5516	-21.5582	1	402.1299	-3.073102	1.706608E-005	-0.0007952	9
	4	49	119484.4	409.1365	-4.812227	1	409.1648	-0.6738768	-9.57898E-006	-0.0052186	8
	5	54	94921.88	412.0021	-3.716389	1	412.0189	-0.516812	-1.412327E-005	0.0041808	8
	6	56	75421.88	413.6536	-2.723075	1	413.6625	-0.3771718	1.424203E-005	-0.0031707	8
	7	59	59859.37	415.6624	-2.109013	1	415.6678	-0.2907083	6.793216E-006	0.0005277	8
	8	61	47578.12	418.3691	-2.408653	1	418.376	-0.3298621	-7.563503E-006	-0.0006622	8
	9	64	37828.12	420.535	-2.679049	1	420.5436	-0.3650021	1.026923E-005	-0.0055806	8
	10	67	30046.88	422.4232	-2.666898	1	422.4316	-0.3617225	1.333888E-005	-0.0056321	8
	11	70	23859.38	425.5791	-2.233724	1	425.585	-0.3007238	1.388617E-005	-0.0029857	8
	12	72	18984.38	427.6557	-2.268556	1	427.6617	-0.3039302	1.49687E-005	-0.0040421	8
	13	75	15046.87	429.8629	-2.353529	1	429.8693	-0.3136953	1.205886E-005	-0.0012625	8
	14	77	11953.13	430.2123	-2.833469	1	430.2216	-0.3773566	1.126662E-005	-0.0061046	8
	15	79	9515.62	433.9965	-3.174663	1	434.0081	-0.4191083	-1.317144E-005	0.0022373	8
	16	82	7546.875	436.6283	-2.315192	1	436.6345	-0.3038041	-1.376767E-005	0.0050675	8
	17	84	5928.309	438.0583	-2.202085	1	438.0638	-0.288019	1.369776E-005	-0.0057247	8
	18	86	4733.456	440.0379	-4.279659	1	440.0587	-0.5572217	-1.356994E-005	0.0050913	8
	19	89	3796.875	443.2169	-3.86737	1	443.2338	-0.4999321	-8.647329E-006	0.005317	8
	20	91	2987.132	445.4751	-4.106146	1	445.494	-0.5281062	-1.446327E-005	0.0043803	8
	21	93	2390.625	448.4147	-7.077412	1	448.4705	-0.9042349	1.006071E-005	-0.0011123	8
	22	96	1884.191	451.3189	-6.121862	1	451.3604	-0.7771342	-1.430862E-005	0.0033224	8
	23	98	1516.544	452.6016	-11.032	1	452.736	-1.396287	1.531682E-005	-0.0040798	8
	24	100	1193.986	454.8231	-12.31679	1	454.9898	-1.551213	2.076753E-006	-0.0041732	8
	25	103	946.5144	457.6339	-14.77147	1	457.8722	-1.848746	1.526274E-005	-0.0041794	8
	26	105	751.7689	459.6351	-16.96878	1	459.9482	-2.114282	-8.665283E-006	0.0054197	8
	27	110	597.4265	465.4252	-22.1053	1	465.9499	-2.71921	-8.576264E-006	0.0053855	8
	28	112	477.4305	469.3795	-28.15997	1	470.2234	-3.433289	-1.427396E-007	-0.0001166	8
	29	114	376.6741	472.6189	-34.89231	1	473.9052	-4.222349	-1.450568E-007	-0.0001262	8
	30	116	298.2954	476.0879	-43.16952	1	478.0411	-5.181156	-1.399272E-007	-0.0001265	8
	31	119	237.7717	479.9774	-53.14196	1	482.9104	-6.31792	-1.056365E-007	-0.0001343	8
	32	121	189.0121	484.3198	-65.56796	1	488.7379	-7.709916	-1.458901E-007	-0.0001173	8
	33	124	150.2404	489.2221	-80.90085	1	495.8661	-9.389815	-1.174485E-007	-0.0001394	8
	34	126	119.1737	494.7815	-99.9449	1	504.7749	-11.41996	-1.122499E-007	-0.0001424	8
	35	128	95.0169	501.197	-122.8278	1	516.0283	-13.77003	-1.221077E-007	-0.0001448	8
	36	131	75.60484	508.8909	-151.1071	1	530.8514	-16.53795	-1.528181E-007	-0.0001312	8
	37	133	54.50582	521.3779	-202.8023	1	559.4316	-21.25473	-1.190252E-007	-0.0001698	8
	38	136	45.95588	530.5201	-236.2851	1	580.76	-24.00742	-1.457709E-007	-0.0001327	8
	39	138	37.20238	542.9246	-285.0999	1	613.2284	-27.70481	-1.588462E-007	-0.000122	8
	40	141	30.04808	558.082	-344.3377	1	655.7621	-31.67467	-1.03685E-007	-0.000134	8
	41	143	23.91582	577.1413	-420.5067	1	714.0854	-36.07718	-1.524194E-007	-0.000126	8
	42	146	18.60119	602.2421	-523.3256	1	797.8504	-40.98941	-3.503814E-008	-0.0001396	8
	43	148	15.02404	628.2522	-629.2143	1	889.1633	-45.04384	-1.853262E-007	-0.0001139	8
	44	150	12.01923	660.5778	-762.0701	1	1008.521	-49.08059	-7.264039E-008	-0.0001371	8
	45	153	9.450605	700.4156	-936.7086	1	1169.618	-53.21302	-1.047611E-007	-0.0001411	8
	46	155	7.512019	745.0834	-1140.718	1	1362.493	-56.84862	-1.57895E-007	-0.0001212	8
	47	158	5.978954	795.7538	-1387.556	1	1599.543	-60.16603	-9.007195E-008	-0.0001639	8
	48	161	4.734848	855.887	-1699.534	1	1902.882	-63.27013	-1.657155E-007	-0.0001189	8
	49	164	3.75601	923.0867	-2081.108	1	2276.642	-66.08006	-1.127863E-007	-0.0001455	8
	50	167	3.004808	997.229	-2533.997	1	2723.161	-68.51839	-1.525502E-007	-0.0000995	8
	51	171	2.372217	1086.319	-3129.666	1	3312.838	-70.85792	-1.54915E-007	-8.11842E-005	8
	52	175	1.878005	1198.694	-3863.96	1	4045.622	-72.76485	-1.45032E-007	-0.0001485	8
	53	180	1.512097	1326.772	-4713.574	1	4896.745	-74.27921	-2.069301E-008	-1.423242E-005	7
	54	186	1.201923	1478.369	-5818.684	1	6003.554	-75.74435	-2.413137E-008	-0.0001339	7
	55	192	0.956633	1662.779	-7176.355	1	7366.472	-76.95463	-3.586162E-008	-0.0006633	7
