EXPLAIN
TAG	EISPOT
TITLE	LABEL	Potentiostatic EIS	Test Identifier
DATE	LABEL	2/26/2021	Date
TIME	LABEL	1:23:39	Time
NOTES	NOTES	1	Notes...
	
PSTAT	PSTAT	REF3000-16137	Potentiostat
VDC	POTEN	0.00000E+000	T	DC Voltage (V)
FREQINIT	QUANT	3.00000E+005	Initial Freq. (Hz)
FREQFINAL	QUANT	1.00000E+000	Final Freq. (Hz)
PTSPERDEC	QUANT	1.00000E+001	Points/decade
VAC	QUANT	5.00000E+001	AC Voltage (mV rms)
AREA	QUANT	1.00000E+000	Sample Area (cm^2)
SPEED	SELECTOR	2	Optimize for:
ZGUESS	QUANT	1.00000E+003	Estimated Z (ohms)
EOC	QUANT	0	Open Circuit (V)
SEQUENCER	TOGGLE	TRUE	Run as Sequence
PSTATMODEL	IQUANT	5	Pstat Model
PSTATSECTION	LABEL	REF3000-16137	Pstat Section
PSTATSERIALNO	LABEL	16137	Pstat Serial Number
CTRLMODE	IQUANT	1	Control Mode
IESTAB	IQUANT	0	I/E Stability
CASPEED	IQUANT	1	Control Amp Speed
CONVENTION	IQUANT	1	Current Convention
ICHRANGE	IQUANT	2	Ich Range
ICHRANGEMODE	TOGGLE	F	Ich Auto Range
ICHOFFSETENABLE	TOGGLE	T	Ich Offset Enable
ICHOFFSET	QUANT	0	Ich Offset (V)
ICHFILTER	IQUANT	3	Ich Filter
VCHRANGE	IQUANT	2	Vch Range
VCHRANGEMODE	TOGGLE	F	Vch Auto Range
VCHOFFSETENABLE	TOGGLE	T	Vch Offset Enable
VCHOFFSET	QUANT	0	Vch Offset (V)
VCHFILTER	IQUANT	3	Vch Filter
ACHRANGE	IQUANT	2	Ach Range
ACHOFFSETENABLE	TOGGLE	F	Ach Offset Enable
ACHOFFSET	QUANT	0	Ach Offset (V)
ACHFILTER	IQUANT	3	Ach Filter
IERANGELOWERLIMIT	IQUANT	2	I/E Range Lower Limit
IERANGEMODE	TOGGLE	F	I/E AutoRange
IERANGE	IQUANT	11	I/E Range
POSFEEDENABLE	TOGGLE	F	Positive Feedback IR Comp
POSFEEDRESISTANCE	QUANT	0	Positive Feedback Resistance (ohm)
ACHSELECT	IQUANT	0	Ach Select
CABLEID	IQUANT	13	Cable ID
DCCALDATE	LABEL	7/31/2020	DC Calibration Date
ACCALDATE	LABEL	7/31/2020	AC Calibration Date
THERMOSELECT	IQUANT	1	Thermo Select
FRAMEWORKVERSION	QUANT	6.33	Framework Version
INSTRUMENTVERSION	LABEL	3.50	Instrument Version
COMPLIANCEVOLTAGE	IQUANT	0	Compliance Voltage
ZCURVE	TABLE
	Pt	Time	Freq	Zreal	Zimag	Zsig	Zmod	Zphz	Idc	Vdc	IERange
	#	s	Hz	ohm	ohm	V	ohm	°	A	V	#
	0	11	300046.9	3.051718	2.240428	1	3.785829	36.28437	-1.282037E-005	-8.608925E-005	10
	1	14	238359.4	3.030346	1.777278	1	3.513078	30.39135	3.046737E-005	-0.0003942	10
	2	17	189328.1	3.013882	1.40554	1	3.325512	25.00224	-1.317474E-005	-0.0001441	10
	3	19	150421.9	3.050571	0.9063076	1	3.182354	16.54639	-9.202149E-005	0.000136	12
	4	23	119484.4	2.996438	0.8367172	1	3.111066	15.60172	-0.0000996	0.0005172	11
	5	26	94921.88	2.990382	0.6362078	1	3.05731	12.01068	-8.234986E-006	0.0005752	11
	6	28	75421.88	2.988789	0.4684302	1	3.025275	8.907453	-3.857363E-006	0.0006057	11
	7	31	59859.37	2.99014	0.3255143	1	3.007806	6.212901	-4.559052E-005	0.0006378	11
	8	33	47578.12	2.991346	0.2006272	1	2.998067	3.837035	-3.720307E-005	0.0006231	11
	9	36	37828.12	2.996414	0.0880504	1	2.997707	1.683166	1.683836E-005	0.0007131	11
	10	38	30046.88	3.001194	-0.0194329	1	3.001257	-0.3709886	-3.538439E-005	0.00065	11
	11	41	23859.38	3.008343	-0.1265446	1	3.011003	-2.4087	-5.925929E-005	0.0006558	11
	12	43	18984.38	3.016577	-0.2375247	1	3.025914	-4.50217	1.326829E-005	0.000719	11
	13	45	15046.87	3.026888	-0.3610861	1	3.048349	-6.802829	1.018491E-005	0.0007276	11
	14	48	11953.13	3.039642	-0.5004495	1	3.080564	-9.349357	1.761489E-006	0.0007306	11
	15	50	9515.62	3.054985	-0.6611097	1	3.1257	-12.21072	-2.251467E-005	0.0007194	11
	16	52	7546.875	3.074229	-0.8552231	1	3.19097	-15.54609	-3.34623E-005	0.0007076	11
	17	55	5928.309	3.098294	-1.100951	1	3.288088	-19.56222	-2.868676E-007	0.0007191	11
	18	57	4733.456	3.127267	-1.380036	1	3.418231	-23.81145	-5.441046E-006	0.0007099	11
	19	59	3796.875	3.162485	-1.711908	1	3.596101	-28.42745	4.41275E-006	0.0007233	11
	20	62	2987.132	3.212252	-2.16122	1	3.871619	-33.93287	5.015058E-006	0.0006894	10
	21	64	2390.625	3.267636	-2.674228	1	4.222433	-39.29684	-1.050809E-006	0.0007032	10
	22	66	1884.191	3.340866	-3.351429	1	4.732173	-45.09044	4.893292E-006	0.0006863	10
	23	69	1516.544	3.427959	-4.112251	1	5.353645	-50.18552	1.56088E-005	0.0006565	10
	24	71	1193.986	3.547945	-5.150307	1	6.254085	-55.43781	-2.621552E-005	0.0006981	10
	25	73	946.5144	3.695505	-6.400972	1	7.391157	-60.00066	-2.357757E-006	0.0007082	10
	26	76	751.7689	3.887997	-7.934754	1	8.83611	-63.89533	1.865751E-005	0.0006778	10
	27	78	597.4265	4.126113	-9.81721	1	10.64906	-67.20329	1.788342E-005	0.0006764	10
	28	80	477.4305	4.422692	-12.08244	1	12.86645	-69.8952	-2.282099E-006	0.0006869	10
	29	83	376.6741	4.809488	-15.03346	1	15.78405	-72.25954	-2.473089E-006	0.0006831	10
	30	85	298.2954	5.281996	-18.63215	1	19.36638	-74.17259	-2.144138E-006	0.0006901	10
	31	87	237.7717	5.845088	-22.94609	1	23.67885	-75.70891	-2.0768E-006	0.000685	10
	32	90	189.0121	6.539747	-28.33125	1	29.07624	-77.00199	-1.891758E-006	0.0006883	10
	33	92	150.2404	7.385562	-34.98021	1	35.75138	-78.07793	-1.638503E-006	0.000685	10
	34	95	119.1737	8.418615	-43.23719	1	44.04916	-78.98193	1.216167E-006	8.159719E-005	9
	35	97	95.0169	9.67131	-53.27211	1	54.14289	-79.71028	1.069207E-006	8.70336E-005	9
	36	99	75.60484	11.2409	-65.77725	1	66.73083	-80.30221	1.008904E-006	8.189218E-005	9
	37	102	54.50582	14.19793	-88.99301	1	90.11846	-80.93543	1.051734E-006	7.870612E-005	9
	38	105	45.95588	16.1861	-104.1865	1	105.4364	-81.1693	1.223807E-006	8.831366E-005	9
	39	107	37.20238	19.16849	-126.6076	1	128.0505	-81.39076	1.060227E-006	9.011258E-005	9
	40	109	30.04808	22.97049	-154.2331	1	155.9342	-81.529	1.073245E-006	8.555203E-005	9
	41	112	23.91582	27.9635	-190.0096	1	192.0563	-81.62794	1.009762E-006	8.346234E-005	9
	42	114	18.60119	34.99509	-239.3509	1	241.8957	-81.68182	1.18014E-006	8.314977E-005	9
	43	116	15.02404	42.42	-291.0614	1	294.1364	-81.70795	1.212778E-006	7.880108E-005	9
	44	119	12.01923	51.99862	-356.6692	1	360.4397	-81.70531	1.132015E-006	8.865762E-005	9
	45	121	9.450605	64.41994	-442.2535	1	446.9207	-81.71242	5.606967E-007	0.0006715	8
	46	124	7.512019	79.27121	-545.122	1	550.8557	-81.72609	5.790445E-007	0.0006521	8
	47	126	5.978954	97.5741	-671.1757	1	678.2312	-81.72841	5.927685E-007	0.0006697	8
	48	129	4.734848	120.1773	-831.1035	1	839.7474	-81.77208	5.853448E-007	0.0006479	8
	49	133	3.75601	148.8788	-1027.446	1	1038.177	-81.75513	6.357066E-007	0.0006785	8
	50	136	3.004808	183.4882	-1260.174	1	1273.462	-81.71564	6.048481E-007	0.0006833	8
	51	140	2.372217	232.5946	-1564.348	1	1581.545	-81.54295	5.519241E-007	0.0006451	8
	52	144	1.878005	295.1834	-1945.395	1	1967.663	-81.37207	6.172804E-007	0.0006446	8
	53	149	1.512097	369.3753	-2377.209	1	2405.735	-81.1679	5.884498E-007	0.0007578	8
	54	154	1.201923	482.0227	-2942.86	1	2982.075	-80.6979	6.160636E-007	0.0006537	8
	55	160	0.956633	631.4987	-3631.651	1	3686.147	-80.13561	5.624413E-007	2.340496E-005	8
