EXPLAIN
TAG	EISPOT
TITLE	LABEL	Potentiostatic EIS	Test Identifier
DATE	LABEL	2/26/2021	Date
TIME	LABEL	1:32:10	Time
NOTES	NOTES	1	Notes...
	
PSTAT	PSTAT	REF3000-16137	Potentiostat
VDC	POTEN	0.00000E+000	T	DC Voltage (V)
FREQINIT	QUANT	3.00000E+005	Initial Freq. (Hz)
FREQFINAL	QUANT	1.00000E+000	Final Freq. (Hz)
PTSPERDEC	QUANT	1.00000E+001	Points/decade
VAC	QUANT	5.00000E+001	AC Voltage (mV rms)
AREA	QUANT	1.00000E+000	Sample Area (cm^2)
SPEED	SELECTOR	2	Optimize for:
ZGUESS	QUANT	1.00000E+003	Estimated Z (ohms)
EOC	QUANT	0	Open Circuit (V)
SEQUENCER	TOGGLE	TRUE	Run as Sequence
PSTATMODEL	IQUANT	5	Pstat Model
PSTATSECTION	LABEL	REF3000-16137	Pstat Section
PSTATSERIALNO	LABEL	16137	Pstat Serial Number
CTRLMODE	IQUANT	1	Control Mode
IESTAB	IQUANT	0	I/E Stability
CASPEED	IQUANT	1	Control Amp Speed
CONVENTION	IQUANT	1	Current Convention
ICHRANGE	IQUANT	2	Ich Range
ICHRANGEMODE	TOGGLE	F	Ich Auto Range
ICHOFFSETENABLE	TOGGLE	T	Ich Offset Enable
ICHOFFSET	QUANT	0	Ich Offset (V)
ICHFILTER	IQUANT	3	Ich Filter
VCHRANGE	IQUANT	2	Vch Range
VCHRANGEMODE	TOGGLE	F	Vch Auto Range
VCHOFFSETENABLE	TOGGLE	T	Vch Offset Enable
VCHOFFSET	QUANT	0	Vch Offset (V)
VCHFILTER	IQUANT	3	Vch Filter
ACHRANGE	IQUANT	2	Ach Range
ACHOFFSETENABLE	TOGGLE	F	Ach Offset Enable
ACHOFFSET	QUANT	0	Ach Offset (V)
ACHFILTER	IQUANT	3	Ach Filter
IERANGELOWERLIMIT	IQUANT	2	I/E Range Lower Limit
IERANGEMODE	TOGGLE	F	I/E AutoRange
IERANGE	IQUANT	11	I/E Range
POSFEEDENABLE	TOGGLE	F	Positive Feedback IR Comp
POSFEEDRESISTANCE	QUANT	0	Positive Feedback Resistance (ohm)
ACHSELECT	IQUANT	0	Ach Select
CABLEID	IQUANT	13	Cable ID
DCCALDATE	LABEL	7/31/2020	DC Calibration Date
ACCALDATE	LABEL	7/31/2020	AC Calibration Date
THERMOSELECT	IQUANT	1	Thermo Select
FRAMEWORKVERSION	QUANT	6.33	Framework Version
INSTRUMENTVERSION	LABEL	3.50	Instrument Version
COMPLIANCEVOLTAGE	IQUANT	0	Compliance Voltage
ZCURVE	TABLE
	Pt	Time	Freq	Zreal	Zimag	Zsig	Zmod	Zphz	Idc	Vdc	IERange
	#	s	Hz	ohm	ohm	V	ohm	°	A	V	#
	0	10	300046.9	3.561074	2.221869	1	4.197373	31.96137	3.918638E-005	1.714872E-005	10
	1	13	238359.4	3.535949	1.771288	1	3.954793	26.60799	4.152963E-005	-0.000317	10
	2	16	189328.1	3.521709	1.397975	1	3.789032	21.65107	5.854317E-005	-0.0002224	10
	3	19	150421.9	3.515025	1.091227	1	3.680513	17.24677	1.03487E-005	0.0001573	10
	4	21	119484.4	3.500642	0.8496028	1	3.602265	13.64187	-0.0001041	0.000255	10
	5	24	94921.88	3.500256	0.6560215	1	3.561201	10.61528	4.372882E-005	0.0004031	10
	6	26	75421.88	3.500771	0.4830797	1	3.533944	7.856763	2.328747E-005	0.00045	10
	7	29	59859.37	3.502504	0.3351165	1	3.518499	5.465373	3.205665E-005	0.0005382	10
	8	32	47578.12	3.506465	0.2058966	1	3.512505	3.3605	1.306955E-005	0.0005578	10
	9	34	37828.12	3.511174	0.0887905	1	3.512296	1.448585	2.428905E-005	0.0005947	10
	10	37	30046.88	3.518362	-0.0225449	1	3.518434	-0.3671339	1.923779E-005	0.0006241	10
	11	39	23859.38	3.52687	-0.1340898	1	3.529418	-2.177308	1.536896E-005	0.0006229	10
	12	41	18984.38	3.536315	-0.249467	1	3.545104	-4.035208	-3.145767E-005	0.0006639	10
	13	44	15046.87	3.54808	-0.3775896	1	3.568115	-6.0746	-3.045616E-005	0.0006717	10
	14	46	11953.13	3.562526	-0.521285	1	3.600462	-8.324702	-1.987813E-005	0.0007024	10
	15	48	9515.62	3.578848	-0.687677	1	3.644318	-10.87683	-8.208763E-006	0.0006837	10
	16	51	7546.875	3.598976	-0.8887174	1	3.707081	-13.87091	1.780632E-005	0.0006512	10
	17	53	5928.309	3.625778	-1.143967	1	3.801963	-17.51097	2.99736E-006	0.0006549	10
	18	55	4733.456	3.656369	-1.434327	1	3.927637	-21.41917	-2.687445E-005	0.000695	10
	19	58	3796.875	3.693818	-1.779626	1	4.100165	-25.72407	-1.273497E-005	0.0006878	10
	20	60	2987.132	3.74269	-2.24424	1	4.363983	-30.94829	-2.063196E-005	0.000702	10
	21	62	2390.625	3.799728	-2.776468	1	4.706029	-36.15567	-1.765332E-005	0.0006604	10
	22	65	1884.191	3.877198	-3.478144	1	5.208662	-41.89454	-1.719555E-005	0.0006773	10
	23	67	1516.544	3.964458	-4.268877	1	5.825825	-47.11749	1.727034E-005	0.0006747	10
	24	69	1193.986	4.088431	-5.345556	1	6.729802	-52.59023	1.481323E-005	0.0006563	10
	25	72	946.5144	4.237512	-6.649879	1	7.885265	-57.49343	-1.606138E-005	0.0006665	10
	26	74	751.7689	4.432471	-8.24336	1	9.359475	-61.73299	-1.462627E-005	0.0006958	10
	27	76	597.4265	4.679844	-10.20588	1	11.22768	-65.36646	-1.173062E-005	0.0006764	10
	28	79	477.4305	4.980017	-12.57054	1	13.52106	-68.38823	-2.755146E-006	0.0006865	10
	29	81	376.6741	5.380673	-15.65025	1	16.54938	-71.02665	-2.519072E-006	0.0006819	10
	30	83	298.2954	5.872105	-19.40644	1	20.27539	-73.16496	2.740475E-007	0.000661	10
	31	86	237.7717	6.461892	-23.9046	1	24.76259	-74.87334	-3.476244E-006	0.0006828	10
	32	88	189.0121	7.193563	-29.51894	1	30.38281	-76.30436	-2.60977E-006	0.0006562	10
	33	90	150.2404	8.083207	-36.4384	1	37.32419	-77.49249	-2.578142E-006	0.0006803	10
	34	93	119.1737	9.164354	-45.02777	1	45.9509	-78.4959	1.20035E-006	8.589384E-005	9
	35	95	95.0169	10.46607	-55.45736	1	56.43631	-79.31267	1.101851E-006	8.732966E-005	9
	36	98	75.60484	12.0735	-68.45896	1	69.51546	-79.9981	9.820278E-007	8.541511E-005	9
	37	100	54.50582	15.06573	-92.60017	1	93.81773	-80.75914	9.15608E-007	8.607945E-005	9
	38	103	45.95588	17.05385	-108.4322	1	109.7651	-81.06194	1.257868E-006	8.921988E-005	9
	39	105	37.20238	20.04827	-131.8361	1	133.3518	-81.3533	1.214121E-006	8.60501E-005	9
	40	107	30.04808	23.79012	-160.6304	1	162.3825	-81.57546	1.023446E-006	8.425653E-005	9
	41	110	23.91582	28.86224	-198.3463	1	200.4353	-81.72075	1.063978E-006	7.436881E-005	9
	42	112	18.60119	35.84508	-249.7586	1	252.3177	-81.83274	1.017262E-006	9.271983E-005	9
	43	115	15.02404	43.34276	-303.8309	1	306.9069	-81.88129	1.207895E-006	8.199072E-005	9
	44	117	12.01923	53.07971	-372.7935	1	376.5534	-81.89648	1.13445E-006	8.390482E-005	9
	45	119	9.450605	65.56375	-462.4137	1	467.0386	-81.93005	6.347237E-007	0.0006552	8
	46	122	7.512019	80.83223	-570.369	1	576.0682	-81.9338	6.353616E-007	0.0006678	8
	47	125	5.978954	98.8691	-702.092	1	709.0192	-81.98428	6.372354E-007	0.0006651	8
	48	128	4.734848	121.6383	-869.4981	1	877.9651	-82.03629	6.204896E-007	0.0006663	8
	49	131	3.75601	149.2711	-1074.444	1	1084.763	-82.0906	6.467738E-007	0.0006601	8
	50	134	3.004808	181.869	-1318.079	1	1330.567	-82.14391	6.253527E-007	0.0007006	8
	51	138	2.372217	225.955	-1638.782	1	1654.286	-82.14957	5.992076E-007	0.0007415	8
	52	142	1.878005	278.8488	-2033.586	1	2052.615	-82.1922	5.959783E-007	0.0006402	8
	53	147	1.512097	341.8939	-2479.586	1	2503.045	-82.14936	6.396838E-007	0.0006727	8
	54	152	1.201923	429.5735	-3080.209	1	3110.02	-82.0606	6.051057E-007	0.0006319	8
	55	159	0.956633	546.8163	-3809.752	1	3848.795	-81.83208	5.836E-007	2.580304E-005	8
