EXPLAIN
TAG	EISPOT
TITLE	LABEL	Potentiostatic EIS	Test Identifier
DATE	LABEL	2/26/2021	Date
TIME	LABEL	2:43:58	Time
NOTES	NOTES	1	Notes...
	
PSTAT	PSTAT	REF3000-16137	Potentiostat
VDC	POTEN	0.00000E+000	T	DC Voltage (V)
FREQINIT	QUANT	3.00000E+005	Initial Freq. (Hz)
FREQFINAL	QUANT	1.00000E+000	Final Freq. (Hz)
PTSPERDEC	QUANT	1.00000E+001	Points/decade
VAC	QUANT	5.00000E+001	AC Voltage (mV rms)
AREA	QUANT	1.00000E+000	Sample Area (cm^2)
SPEED	SELECTOR	2	Optimize for:
ZGUESS	QUANT	1.00000E+003	Estimated Z (ohms)
EOC	QUANT	0	Open Circuit (V)
SEQUENCER	TOGGLE	TRUE	Run as Sequence
PSTATMODEL	IQUANT	5	Pstat Model
PSTATSECTION	LABEL	REF3000-16137	Pstat Section
PSTATSERIALNO	LABEL	16137	Pstat Serial Number
CTRLMODE	IQUANT	1	Control Mode
IESTAB	IQUANT	0	I/E Stability
CASPEED	IQUANT	1	Control Amp Speed
CONVENTION	IQUANT	1	Current Convention
ICHRANGE	IQUANT	2	Ich Range
ICHRANGEMODE	TOGGLE	F	Ich Auto Range
ICHOFFSETENABLE	TOGGLE	T	Ich Offset Enable
ICHOFFSET	QUANT	0	Ich Offset (V)
ICHFILTER	IQUANT	3	Ich Filter
VCHRANGE	IQUANT	2	Vch Range
VCHRANGEMODE	TOGGLE	F	Vch Auto Range
VCHOFFSETENABLE	TOGGLE	T	Vch Offset Enable
VCHOFFSET	QUANT	0	Vch Offset (V)
VCHFILTER	IQUANT	3	Vch Filter
ACHRANGE	IQUANT	2	Ach Range
ACHOFFSETENABLE	TOGGLE	F	Ach Offset Enable
ACHOFFSET	QUANT	0	Ach Offset (V)
ACHFILTER	IQUANT	3	Ach Filter
IERANGELOWERLIMIT	IQUANT	2	I/E Range Lower Limit
IERANGEMODE	TOGGLE	F	I/E AutoRange
IERANGE	IQUANT	11	I/E Range
POSFEEDENABLE	TOGGLE	F	Positive Feedback IR Comp
POSFEEDRESISTANCE	QUANT	0	Positive Feedback Resistance (ohm)
ACHSELECT	IQUANT	0	Ach Select
CABLEID	IQUANT	13	Cable ID
DCCALDATE	LABEL	7/31/2020	DC Calibration Date
ACCALDATE	LABEL	7/31/2020	AC Calibration Date
THERMOSELECT	IQUANT	1	Thermo Select
FRAMEWORKVERSION	QUANT	6.33	Framework Version
INSTRUMENTVERSION	LABEL	3.50	Instrument Version
COMPLIANCEVOLTAGE	IQUANT	0	Compliance Voltage
ZCURVE	TABLE
	Pt	Time	Freq	Zreal	Zimag	Zsig	Zmod	Zphz	Idc	Vdc	IERange
	#	s	Hz	ohm	ohm	V	ohm	°	A	V	#
	0	14	300046.9	127.666	-4333.537	1	4335.417	-88.31255	8.688964E-005	-0.0027384	9
	1	30	238359.4	224.9605	-5356.788	1	5361.51	-87.59525	2.181374E-005	0.0010027	9
	2	43	189328.1	275.0085	-6678.926	1	6684.585	-87.64214	2.174595E-005	-0.0003552	9
	3	52	150421.9	181.1209	-7595.011	1	7597.17	-88.6339	4.91248E-005	0.0001965	9
	4	60	119484.4	1035.244	-10313.84	1	10365.66	-84.26817	6.709713E-005	-0.0258539	8
	5	67	94921.88	1303.138	-12824.58	1	12890.62	-84.19794	-1.180328E-005	0.010228	8
	6	76	75421.88	1963.357	-15502.76	1	15626.59	-82.78217	-2.620269E-005	0.0075997	8
	7	84	59859.37	2448.287	-20047.79	1	20196.73	-83.03737	-2.361634E-005	0.0051697	8
	8	93	47578.12	5933.329	-25491.8	1	26173.2	-76.89744	-6.352336E-006	0.0254277	7
	9	100	37828.12	7028.109	-31456.54	1	32232.1	-77.40565	-5.24702E-006	0.0037364	7
	10	108	30046.88	8621.354	-38931.05	1	39874.23	-77.51326	-3.502308E-006	0.0246517	7
	11	115	23859.38	10517.87	-47944.9	1	49085.02	-77.62679	7.526937E-006	-0.0239986	7
	12	121	18984.38	10039.62	-57946.99	1	58810.27	-80.17078	-2.616427E-005	0.0075976	8
	13	127	15046.87	14723.97	-71618.88	1	73116.76	-78.38255	-2.653355E-005	0.0097458	8
	14	134	11953.13	15399.87	-93790.55	1	95046.4	-80.67556	2.624832E-005	-0.0089573	8
	15	141	9515.62	33298.37	-111546.8	1	116410.7	-73.37885	-2.333792E-006	0.0077401	8
	16	150	7546.875	46982.65	-130269.5	1	138482.9	-70.16779	-1.707937E-006	0.0213433	7
	17	156	5928.309	57666.75	-157931.1	1	168130	-69.94091	4.898572E-006	-0.0009529	7
	18	162	4733.456	70930.92	-189791.3	1	202612.7	-69.50771	2.791119E-006	0.0080944	7
	19	168	3796.875	115809.8	-233857	1	260961.7	-63.65463	-7.27821E-006	0.0188783	7
	20	175	2987.132	172941.8	-249665.8	1	303713.5	-55.28992	-6.629175E-006	0.0120818	7
	21	182	2390.625	222115.4	-290392.5	1	365599.5	-52.58835	3.475178E-006	-0.0240666	7
	22	189	1884.191	301677.9	-322131.3	1	441336.8	-46.87794	7.59762E-007	-0.022575	6
	23	195	1516.544	355837.8	-323875.6	1	481161.1	-42.30776	-2.051961E-007	0.0219156	6
	24	200	1193.986	410113.2	-343919.8	1	535232.4	-39.98311	-2.069432E-007	0.0219707	6
	25	206	946.5144	535517.3	-336116.3	1	632260.1	-32.11435	-4.652039E-008	-0.0147284	6
	26	210	751.7689	592508.3	-325239.8	1	675904.6	-28.76327	3.933829E-007	-0.0250346	6
	27	214	597.4265	634808.4	-323832.5	1	712635.4	-27.02732	-5.5733E-008	-0.0144801	6
	28	217	477.4305	751101.2	-229298.7	1	785322.2	-16.97656	-9.653705E-010	0.0007084	5
	29	220	376.6741	781452.3	-213613.6	1	810122.5	-15.28857	-8.848087E-010	0.0006795	5
	30	222	298.2954	813864.5	-209005.9	1	840273.1	-14.40271	-9.79714E-010	0.0006703	5
	31	225	237.7717	844166.6	-201122.8	1	867794.7	-13.40089	-9.865745E-010	0.0007036	5
	32	227	189.0121	877881.4	-198064.3	1	899947.4	-12.71399	-9.62406E-010	0.0006456	5
	33	230	150.2404	916493.3	-194158	1	936833.6	-11.9612	-9.12039E-010	0.0006107	5
	34	233	119.1737	952463	-176577.8	1	968693	-10.50286	-8.601032E-010	0.0006499	5
	35	235	95.0169	1001843	-190777	1	1019846	-10.78153	-9.918305E-010	0.0006143	5
	36	238	75.60484	1046664	-189394.1	1	1063661	-10.2567	-9.31106E-010	0.0006679	5
	37	241	54.50582	1091846	-155729.2	1	1102895	-8.11731	-8.981708E-010	0.0006125	5
	38	244	45.95588	1136159	-149369.1	1	1145936	-7.489637	-9.344988E-010	0.0006209	5
	39	246	37.20238	1158154	-140056.8	1	1166592	-6.895357	-8.310082E-010	0.0006123	5
	40	249	30.04808	1194326	-122589.6	1	1200601	-5.860507	-9.394254E-010	0.0007	5
	41	251	23.91582	1227443	-112846.6	1	1232620	-5.252797	-8.243486E-010	0.0006103	5
	42	254	18.60119	1256616	-78680.77	1	1259077	-3.582797	-6.569876E-010	0.000699	5
	43	257	15.02404	1276872	-81010.92	1	1279439	-3.630256	-9.092845E-010	0.0006021	5
	44	259	12.01923	1298674	-72958.91	1	1300722	-3.215472	-9.429149E-010	0.0006086	5
	45	262	9.450605	1323942	-63464.06	1	1325462	-2.744411	-9.701261E-010	0.0006085	5
	46	264	7.512019	1348026	-55274.27	1	1349159	-2.348033	-9.290897E-010	0.0006529	5
	47	267	5.978954	1379662	-46534.54	1	1380446	-1.931794	-8.963661E-010	0.0006172	5
	48	272	4.734848	1409492	-43299.5	1	1410156	-1.75957	-9.738641E-010	0.0006611	5
	49	275	3.75601	1446004	-40315.87	1	1446566	-1.597044	-9.477688E-010	0.000711	5
	50	281	3.004808	1493421	-36405.64	1	1493865	-1.396443	-9.74239E-010	0.0007165	5
	51	287	2.372217	1537793	-33607.53	1	1538160	-1.251965	-9.384947E-010	0.0006818	5
	52	292	1.878005	1576220	-31883.28	1	1576543	-1.158803	-9.300056E-010	0.0006389	5
	53	296	1.512097	1620047	-30673.55	1	1620338	-1.084694	-9.281938E-010	0.0007532	5
	54	302	1.201923	1671617	-31579.12	1	1671915	-1.082267	-9.105292E-010	0.0006488	5
	55	308	0.956633	1729718	-32061.38	1	1730015	-1.061891	-1.548233E-009	1.310416E-005	5
