EXPLAIN
TAG	EISPOT
TITLE	LABEL	Potentiostatic EIS	Test Identifier
DATE	LABEL	2/26/2021	Date
TIME	LABEL	1:34:58	Time
NOTES	NOTES	1	Notes...
	
PSTAT	PSTAT	REF3000-16137	Potentiostat
VDC	POTEN	0.00000E+000	T	DC Voltage (V)
FREQINIT	QUANT	3.00000E+005	Initial Freq. (Hz)
FREQFINAL	QUANT	1.00000E+000	Final Freq. (Hz)
PTSPERDEC	QUANT	1.00000E+001	Points/decade
VAC	QUANT	5.00000E+001	AC Voltage (mV rms)
AREA	QUANT	1.00000E+000	Sample Area (cm^2)
SPEED	SELECTOR	2	Optimize for:
ZGUESS	QUANT	1.00000E+003	Estimated Z (ohms)
EOC	QUANT	0	Open Circuit (V)
SEQUENCER	TOGGLE	TRUE	Run as Sequence
PSTATMODEL	IQUANT	5	Pstat Model
PSTATSECTION	LABEL	REF3000-16137	Pstat Section
PSTATSERIALNO	LABEL	16137	Pstat Serial Number
CTRLMODE	IQUANT	1	Control Mode
IESTAB	IQUANT	0	I/E Stability
CASPEED	IQUANT	1	Control Amp Speed
CONVENTION	IQUANT	1	Current Convention
ICHRANGE	IQUANT	2	Ich Range
ICHRANGEMODE	TOGGLE	F	Ich Auto Range
ICHOFFSETENABLE	TOGGLE	T	Ich Offset Enable
ICHOFFSET	QUANT	0	Ich Offset (V)
ICHFILTER	IQUANT	3	Ich Filter
VCHRANGE	IQUANT	2	Vch Range
VCHRANGEMODE	TOGGLE	F	Vch Auto Range
VCHOFFSETENABLE	TOGGLE	T	Vch Offset Enable
VCHOFFSET	QUANT	0	Vch Offset (V)
VCHFILTER	IQUANT	3	Vch Filter
ACHRANGE	IQUANT	2	Ach Range
ACHOFFSETENABLE	TOGGLE	F	Ach Offset Enable
ACHOFFSET	QUANT	0	Ach Offset (V)
ACHFILTER	IQUANT	3	Ach Filter
IERANGELOWERLIMIT	IQUANT	2	I/E Range Lower Limit
IERANGEMODE	TOGGLE	F	I/E AutoRange
IERANGE	IQUANT	11	I/E Range
POSFEEDENABLE	TOGGLE	F	Positive Feedback IR Comp
POSFEEDRESISTANCE	QUANT	0	Positive Feedback Resistance (ohm)
ACHSELECT	IQUANT	0	Ach Select
CABLEID	IQUANT	13	Cable ID
DCCALDATE	LABEL	7/31/2020	DC Calibration Date
ACCALDATE	LABEL	7/31/2020	AC Calibration Date
THERMOSELECT	IQUANT	1	Thermo Select
FRAMEWORKVERSION	QUANT	6.33	Framework Version
INSTRUMENTVERSION	LABEL	3.50	Instrument Version
COMPLIANCEVOLTAGE	IQUANT	0	Compliance Voltage
ZCURVE	TABLE
	Pt	Time	Freq	Zreal	Zimag	Zsig	Zmod	Zphz	Idc	Vdc	IERange
	#	s	Hz	ohm	ohm	V	ohm	°	A	V	#
	0	10	300046.9	3.793683	2.226159	1	4.398615	30.4047	1.67938E-005	-1.765724E-005	10
	1	13	238359.4	3.752934	1.772771	1	4.15057	25.28461	-4.93794E-006	-0.000306	10
	2	16	189328.1	3.737185	1.397121	1	3.9898	20.49791	1.150243E-005	3.449574E-005	10
	3	19	150421.9	3.731809	1.086716	1	3.886817	16.23575	3.406932E-005	0.0001383	10
	4	21	119484.4	3.720725	0.8469915	1	3.815912	12.82436	4.126638E-005	0.000422	10
	5	24	94921.88	3.719111	0.6549281	1	3.776336	9.98728	4.459047E-005	0.0004188	10
	6	26	75421.88	3.719676	0.4824815	1	3.750837	7.390608	-6.319484E-006	0.0004673	10
	7	29	59859.37	3.722197	0.3326139	1	3.737029	5.106362	2.864531E-005	0.0005252	10
	8	32	47578.12	3.727116	0.2041412	1	3.732702	3.135066	-6.786646E-006	0.0006202	10
	9	34	37828.12	3.732662	0.0862678	1	3.733659	1.323961	2.260754E-005	0.0006113	10
	10	37	30046.88	3.740726	-0.0258743	1	3.740816	-0.396304	-2.088121E-005	0.000666	10
	11	39	23859.38	3.749246	-0.1383994	1	3.7518	-2.114053	4.89643E-006	0.0006322	10
	12	41	18984.38	3.760049	-0.2545495	1	3.768656	-3.872926	-1.414736E-005	0.0007018	10
	13	44	15046.87	3.771437	-0.3838055	1	3.790916	-5.81078	-3.043983E-005	0.0006732	10
	14	46	11953.13	3.786669	-0.5293006	1	3.823483	-7.957246	-2.299819E-005	0.0007047	10
	15	48	9515.62	3.803291	-0.6979042	1	3.866793	-10.3981	-1.572381E-005	0.0006636	10
	16	51	7546.875	3.824582	-0.9017556	1	3.929452	-13.26683	2.311834E-005	0.0006772	10
	17	53	5928.309	3.85112	-1.159276	1	4.021821	-16.75301	2.082473E-005	0.0006703	10
	18	55	4733.456	3.882809	-1.453061	1	4.145792	-20.51732	-3.63495E-006	0.0006649	10
	19	58	3796.875	3.921468	-1.803004	1	4.316101	-24.69192	-1.707835E-005	0.0007217	10
	20	60	2987.132	3.970778	-2.273245	1	4.575447	-29.79086	4.847145E-006	0.0006949	10
	21	62	2390.625	4.028766	-2.812642	1	4.913442	-34.92043	-1.2867E-005	0.000668	10
	22	65	1884.191	4.107334	-3.523253	1	5.411424	-40.62285	-1.805253E-005	0.0006796	10
	23	67	1516.544	4.196464	-4.323946	1	6.025514	-45.8572	1.62103E-005	0.0006594	10
	24	69	1193.986	4.320182	-5.415902	1	6.927913	-51.42117	-1.894007E-005	0.000688	10
	25	72	946.5144	4.471073	-6.737974	1	8.086457	-56.4332	1.487441E-005	0.0006631	10
	26	74	751.7689	4.668814	-8.351859	1	9.56825	-60.79416	1.623578E-005	0.0006595	10
	27	76	597.4265	4.912499	-10.34833	1	11.45516	-64.60565	-6.516977E-006	0.0006907	10
	28	79	477.4305	5.218406	-12.74234	1	13.76949	-67.72929	-2.76384E-006	0.0006833	10
	29	81	376.6741	5.622919	-15.86816	1	16.83496	-70.48811	-2.587657E-006	0.0006863	10
	30	83	298.2954	6.12153	-19.67873	1	20.60887	-72.72047	-2.907117E-006	0.0006869	10
	31	86	237.7717	6.721015	-24.24522	1	25.15954	-74.5061	-2.771503E-006	0.0006847	10
	32	88	189.0121	7.465035	-29.94041	1	30.85701	-75.99991	-2.310969E-006	0.0006805	10
	33	90	150.2404	8.371584	-36.96242	1	37.8986	-77.23843	-2.635684E-006	0.0006817	10
	34	93	119.1737	9.472547	-45.66945	1	46.64148	-78.28213	1.168124E-006	9.048337E-005	9
	35	95	95.0169	10.79411	-56.24225	1	57.2687	-79.1358	1.133662E-006	8.759716E-005	9
	36	98	75.60484	12.42141	-69.41272	1	70.51537	-79.85431	1.070301E-006	8.407981E-005	9
	37	100	54.50582	15.43596	-93.8884	1	95.1488	-80.66367	9.629673E-007	8.725136E-005	9
	38	103	45.95588	17.43096	-109.9198	1	111.2933	-80.98913	1.096162E-006	9.304801E-005	9
	39	105	37.20238	20.43373	-133.6565	1	135.2094	-81.30779	1.024E-006	8.984899E-005	9
	40	107	30.04808	24.17435	-162.8102	1	164.5951	-81.55432	1.108854E-006	8.160033E-005	9
	41	110	23.91582	29.11411	-200.86	1	202.959	-81.75257	1.189435E-006	8.321245E-005	9
	42	112	18.60119	36.19445	-253.3446	1	255.917	-81.86938	1.216464E-006	8.354025E-005	9
	43	115	15.02404	43.71018	-308.4372	1	311.519	-81.93404	1.344329E-006	0.0001015	9
	44	117	12.01923	53.53033	-378.387	1	382.1547	-81.94781	1.187779E-006	8.450389E-005	9
	45	119	9.450605	66.21687	-469.7458	1	474.3899	-81.97627	5.798161E-007	0.0006699	8
	46	122	7.512019	81.40599	-579.2346	1	584.9271	-82.00002	6.11945E-007	0.0006701	8
	47	125	5.978954	99.6401	-713.1433	1	720.0705	-82.04615	6.228414E-007	0.0006649	8
	48	128	4.734848	123.0153	-882.4265	1	890.9598	-82.06379	6.529303E-007	0.000689	8
	49	131	3.75601	150.4936	-1090.816	1	1101.148	-82.14481	6.355004E-007	0.0006577	8
	50	134	3.004808	183.0344	-1337.756	1	1350.219	-82.20905	6.277562E-007	0.0007004	8
	51	138	2.372217	225.6837	-1663.899	1	1679.135	-82.27579	6.011163E-007	0.0007384	8
	52	142	1.878005	277.7566	-2063.925	1	2082.531	-82.33537	5.961534E-007	0.0006363	8
	53	147	1.512097	341.5881	-2517.904	1	2540.969	-82.27421	6.398559E-007	0.0007165	8
	54	152	1.201923	422.3206	-3125.166	1	3153.572	-82.30393	6.172417E-007	0.0006284	8
	55	159	0.956633	529.587	-3867.664	1	3903.753	-82.20316	5.920107E-007	2.045594E-005	8
