EXPLAIN
TAG	EISPOT
TITLE	LABEL	Potentiostatic EIS	Test Identifier
DATE	LABEL	2/26/2021	Date
TIME	LABEL	1:06:34	Time
NOTES	NOTES	1	Notes...
	
PSTAT	PSTAT	REF3000-16137	Potentiostat
VDC	POTEN	0.00000E+000	T	DC Voltage (V)
FREQINIT	QUANT	3.00000E+005	Initial Freq. (Hz)
FREQFINAL	QUANT	1.00000E+000	Final Freq. (Hz)
PTSPERDEC	QUANT	1.00000E+001	Points/decade
VAC	QUANT	5.00000E+001	AC Voltage (mV rms)
AREA	QUANT	1.00000E+000	Sample Area (cm^2)
SPEED	SELECTOR	2	Optimize for:
ZGUESS	QUANT	1.00000E+003	Estimated Z (ohms)
EOC	QUANT	0	Open Circuit (V)
SEQUENCER	TOGGLE	TRUE	Run as Sequence
PSTATMODEL	IQUANT	5	Pstat Model
PSTATSECTION	LABEL	REF3000-16137	Pstat Section
PSTATSERIALNO	LABEL	16137	Pstat Serial Number
CTRLMODE	IQUANT	1	Control Mode
IESTAB	IQUANT	0	I/E Stability
CASPEED	IQUANT	1	Control Amp Speed
CONVENTION	IQUANT	1	Current Convention
ICHRANGE	IQUANT	2	Ich Range
ICHRANGEMODE	TOGGLE	F	Ich Auto Range
ICHOFFSETENABLE	TOGGLE	T	Ich Offset Enable
ICHOFFSET	QUANT	0	Ich Offset (V)
ICHFILTER	IQUANT	3	Ich Filter
VCHRANGE	IQUANT	2	Vch Range
VCHRANGEMODE	TOGGLE	F	Vch Auto Range
VCHOFFSETENABLE	TOGGLE	T	Vch Offset Enable
VCHOFFSET	QUANT	0	Vch Offset (V)
VCHFILTER	IQUANT	3	Vch Filter
ACHRANGE	IQUANT	2	Ach Range
ACHOFFSETENABLE	TOGGLE	F	Ach Offset Enable
ACHOFFSET	QUANT	0	Ach Offset (V)
ACHFILTER	IQUANT	3	Ach Filter
IERANGELOWERLIMIT	IQUANT	2	I/E Range Lower Limit
IERANGEMODE	TOGGLE	F	I/E AutoRange
IERANGE	IQUANT	11	I/E Range
POSFEEDENABLE	TOGGLE	F	Positive Feedback IR Comp
POSFEEDRESISTANCE	QUANT	0	Positive Feedback Resistance (ohm)
ACHSELECT	IQUANT	0	Ach Select
CABLEID	IQUANT	13	Cable ID
DCCALDATE	LABEL	7/31/2020	DC Calibration Date
ACCALDATE	LABEL	7/31/2020	AC Calibration Date
THERMOSELECT	IQUANT	1	Thermo Select
FRAMEWORKVERSION	QUANT	6.33	Framework Version
INSTRUMENTVERSION	LABEL	3.50	Instrument Version
COMPLIANCEVOLTAGE	IQUANT	0	Compliance Voltage
ZCURVE	TABLE
	Pt	Time	Freq	Zreal	Zimag	Zsig	Zmod	Zphz	Idc	Vdc	IERange
	#	s	Hz	ohm	ohm	V	ohm	°	A	V	#
	0	10	300046.9	2.506687	2.218241	1	3.347249	41.50656	-2.577698E-005	-0.0001448	11
	1	13	238359.4	2.453031	1.756587	1	3.017111	35.60601	1.522563E-005	-6.977974E-005	11
	2	17	189328.1	2.425425	1.384651	1	2.792838	29.72162	7.888726E-005	4.570797E-005	11
	3	19	150421.9	2.454563	0.956936	1	2.634503	21.29882	-0.0001254	0.0003526	12
	4	23	119484.4	2.428909	0.7413265	1	2.53952	16.9727	-0.0001272	0.0004543	12
	5	26	94921.88	2.391319	0.6469219	1	2.477279	15.13784	-3.390204E-005	0.000532	11
	6	29	75421.88	2.399013	0.4126613	1	2.434245	9.7601	-7.62161E-005	0.0005504	12
	7	32	59859.37	2.39338	0.2826934	1	2.410017	6.736266	-0.0001157	0.0006122	12
	8	36	47578.12	2.3936	0.1706048	1	2.399672	4.076886	-6.283033E-005	0.0006176	12
	9	40	37828.12	2.395187	0.0679172	1	2.39615	1.624226	-0.0001387	0.0006702	12
	10	43	30046.88	2.39724	-0.0015083	1	2.39724	-0.0360492	-3.612494E-005	0.0006553	11
	11	46	23859.38	2.403181	-0.1051436	1	2.40548	-2.505197	-3.550589E-005	0.0006793	11
	12	48	18984.38	2.409778	-0.2118419	1	2.419072	-5.023916	-5.346845E-005	0.0006653	11
	13	50	15046.87	2.418774	-0.3295588	1	2.441122	-7.758794	-2.705392E-006	0.0007154	11
	14	53	11953.13	2.429162	-0.4612724	1	2.472569	-10.75186	7.359424E-006	0.0007237	11
	15	55	9515.62	2.442557	-0.6127592	1	2.518245	-14.08304	-8.497063E-006	0.0007037	11
	16	57	7546.875	2.460641	-0.7958095	1	2.586129	-17.92201	1.749919E-005	0.000746	11
	17	60	5928.309	2.483531	-1.025619	1	2.686972	-22.43907	-3.955946E-005	0.000695	11
	18	62	4733.456	2.510056	-1.287186	1	2.820856	-27.14927	-4.23639E-005	0.0006971	11
	19	64	3796.875	2.541831	-1.59815	1	3.002497	-32.1592	-3.312164E-005	0.0006752	11
	20	67	2987.132	2.586926	-2.015684	1	3.279507	-37.92505	-4.078903E-005	0.0006902	11
	21	69	2390.625	2.640806	-2.491867	1	3.630876	-43.33786	-3.94119E-006	0.0007149	11
	22	71	1884.191	2.713458	-3.127033	1	4.140192	-49.05045	-2.461289E-005	0.0006982	10
	23	74	1516.544	2.796668	-3.835008	1	4.746434	-53.89872	2.302624E-005	0.0006799	10
	24	76	1193.986	2.913489	-4.798567	1	5.613792	-58.73563	-2.001291E-005	0.0007036	10
	25	78	946.5144	3.064394	-5.955083	1	6.697277	-62.77035	7.324261E-006	0.0006631	10
	26	81	751.7689	3.241301	-7.378293	1	8.058861	-66.284	-5.738923E-006	0.0006869	10
	27	83	597.4265	3.468076	-9.120236	1	9.75737	-69.18011	1.860529E-005	0.0006773	10
	28	85	477.4305	3.743781	-11.21453	1	11.82292	-71.53928	-2.278628E-006	0.0006846	10
	29	88	376.6741	4.101788	-13.94448	1	14.53524	-73.60868	-1.980037E-006	0.0006817	10
	30	90	298.2954	4.533879	-17.27581	1	17.86084	-75.29486	-2.433172E-006	0.0006937	10
	31	92	237.7717	5.047914	-21.27542	1	21.86607	-76.65253	-2.648745E-006	0.0006881	10
	32	95	189.0121	5.684161	-26.27478	1	26.8826	-77.79302	-1.986544E-006	0.0006786	10
	33	97	150.2404	6.467289	-32.46556	1	33.10345	-78.73389	-1.820583E-006	0.0006876	10
	34	100	119.1737	7.453358	-40.20125	1	40.88634	-79.49656	-2.126425E-006	0.0006912	10
	35	102	95.0169	8.652401	-49.49315	1	50.24376	-80.08376	9.848449E-007	8.539847E-005	9
	36	105	75.60484	10.1918	-61.12043	1	61.96434	-80.53307	8.98443E-007	8.194667E-005	9
	37	107	54.50582	13.14494	-82.66228	1	83.7009	-80.96449	9.911878E-007	7.153874E-005	9
	38	110	45.95588	15.1305	-96.6948	1	97.8714	-81.10665	1.093506E-006	8.890773E-005	9
	39	112	37.20238	18.14833	-117.4045	1	118.7989	-81.2128	1.022924E-006	8.338418E-005	9
	40	114	30.04808	21.9717	-142.7708	1	144.4516	-81.25111	8.985213E-007	8.66133E-005	9
	41	117	23.91582	27.09061	-176.0145	1	178.087	-81.25019	8.439941E-007	8.204082E-005	9
	42	119	18.60119	34.13905	-221.1312	1	223.751	-81.22375	9.75077E-007	9.014162E-005	9
	43	121	15.02404	41.62823	-268.5121	1	271.7198	-81.18742	1.179359E-006	0.0000978	9
	44	124	12.01923	51.57563	-328.9851	1	333.0034	-81.09015	1.032974E-006	7.985549E-005	9
	45	126	9.450605	64.98315	-409.3661	1	414.4917	-80.98007	1.005903E-006	0.0000985	9
	46	129	7.512019	81.19733	-502.0571	1	508.5807	-80.81314	5.063742E-007	0.0006577	8
	47	131	5.978954	101.802	-617.5783	1	625.9126	-80.6395	5.620591E-007	0.0006632	8
	48	134	4.734848	129.3665	-763.5554	1	774.4369	-80.3839	5.271024E-007	0.0006398	8
	49	138	3.75601	166.3279	-942.4976	1	957.062	-79.99174	5.956309E-007	0.0006835	8
	50	141	3.004808	212.9767	-1153.303	1	1172.803	-79.53725	5.725732E-007	0.0006594	8
	51	145	2.372217	282.2778	-1426.97	1	1454.622	-78.81042	5.510894E-007	0.0006124	8
	52	149	1.878005	375.9238	-1764.73	1	1804.326	-77.97456	5.8695E-007	0.0006465	8
	53	154	1.512097	492.402	-2139.181	1	2195.121	-77.03731	5.315699E-007	0.0007463	8
	54	159	1.201923	673.3008	-2619.581	1	2704.725	-75.58549	5.79199E-007	0.00066	8
	55	165	0.956633	917.4183	-3183.506	1	3313.06	-73.92415	4.554554E-007	2.305681E-005	8
