EXPLAIN
TAG	EISPOT
TITLE	LABEL	Potentiostatic EIS	Test Identifier
DATE	LABEL	2/26/2021	Date
TIME	LABEL	1:40:34	Time
NOTES	NOTES	1	Notes...
	
PSTAT	PSTAT	REF3000-16137	Potentiostat
VDC	POTEN	0.00000E+000	T	DC Voltage (V)
FREQINIT	QUANT	3.00000E+005	Initial Freq. (Hz)
FREQFINAL	QUANT	1.00000E+000	Final Freq. (Hz)
PTSPERDEC	QUANT	1.00000E+001	Points/decade
VAC	QUANT	5.00000E+001	AC Voltage (mV rms)
AREA	QUANT	1.00000E+000	Sample Area (cm^2)
SPEED	SELECTOR	2	Optimize for:
ZGUESS	QUANT	1.00000E+003	Estimated Z (ohms)
EOC	QUANT	0	Open Circuit (V)
SEQUENCER	TOGGLE	TRUE	Run as Sequence
PSTATMODEL	IQUANT	5	Pstat Model
PSTATSECTION	LABEL	REF3000-16137	Pstat Section
PSTATSERIALNO	LABEL	16137	Pstat Serial Number
CTRLMODE	IQUANT	1	Control Mode
IESTAB	IQUANT	0	I/E Stability
CASPEED	IQUANT	1	Control Amp Speed
CONVENTION	IQUANT	1	Current Convention
ICHRANGE	IQUANT	2	Ich Range
ICHRANGEMODE	TOGGLE	F	Ich Auto Range
ICHOFFSETENABLE	TOGGLE	T	Ich Offset Enable
ICHOFFSET	QUANT	0	Ich Offset (V)
ICHFILTER	IQUANT	3	Ich Filter
VCHRANGE	IQUANT	2	Vch Range
VCHRANGEMODE	TOGGLE	F	Vch Auto Range
VCHOFFSETENABLE	TOGGLE	T	Vch Offset Enable
VCHOFFSET	QUANT	0	Vch Offset (V)
VCHFILTER	IQUANT	3	Vch Filter
ACHRANGE	IQUANT	2	Ach Range
ACHOFFSETENABLE	TOGGLE	F	Ach Offset Enable
ACHOFFSET	QUANT	0	Ach Offset (V)
ACHFILTER	IQUANT	3	Ach Filter
IERANGELOWERLIMIT	IQUANT	2	I/E Range Lower Limit
IERANGEMODE	TOGGLE	F	I/E AutoRange
IERANGE	IQUANT	11	I/E Range
POSFEEDENABLE	TOGGLE	F	Positive Feedback IR Comp
POSFEEDRESISTANCE	QUANT	0	Positive Feedback Resistance (ohm)
ACHSELECT	IQUANT	0	Ach Select
CABLEID	IQUANT	13	Cable ID
DCCALDATE	LABEL	7/31/2020	DC Calibration Date
ACCALDATE	LABEL	7/31/2020	AC Calibration Date
THERMOSELECT	IQUANT	1	Thermo Select
FRAMEWORKVERSION	QUANT	6.33	Framework Version
INSTRUMENTVERSION	LABEL	3.50	Instrument Version
COMPLIANCEVOLTAGE	IQUANT	0	Compliance Voltage
ZCURVE	TABLE
	Pt	Time	Freq	Zreal	Zimag	Zsig	Zmod	Zphz	Idc	Vdc	IERange
	#	s	Hz	ohm	ohm	V	ohm	°	A	V	#
	0	10	300046.9	4.313275	2.216806	1	4.849595	27.20089	1.253645E-005	0.0001279	10
	1	13	238359.4	4.300219	1.765234	1	4.648433	22.31808	-3.693367E-006	-0.0003103	10
	2	16	189328.1	4.277803	1.388423	1	4.497479	17.98159	3.439842E-005	-7.379545E-006	10
	3	19	150421.9	4.26494	1.088546	1	4.401664	14.31799	-8.721785E-005	0.0003268	10
	4	22	119484.4	4.267356	0.8409291	1	4.349424	11.14792	2.342735E-006	0.0003846	10
	5	24	94921.88	4.268282	0.6547294	1	4.318206	8.72086	-1.76873E-005	0.0004687	10
	6	27	75421.88	4.269284	0.4787186	1	4.29604	6.397901	-1.160321E-007	0.0005044	10
	7	29	59859.37	4.273035	0.3288284	1	4.285669	4.400484	1.707436E-005	0.0005518	10
	8	32	47578.12	4.280182	0.1993149	1	4.284821	2.666162	-2.03723E-005	0.0006375	10
	9	34	37828.12	4.286488	0.0793833	1	4.287223	1.060963	1.971704E-005	0.000612	10
	10	37	30046.88	4.297028	-0.0341361	1	4.297163	-0.4551547	-1.408603E-005	0.0006859	10
	11	39	23859.38	4.306966	-0.148138	1	4.309513	-1.969911	-6.117551E-006	0.000634	10
	12	42	18984.38	4.318558	-0.2659867	1	4.326742	-3.524483	-3.348877E-005	0.0006631	10
	13	44	15046.87	4.331508	-0.3976051	1	4.349718	-5.244694	1.634567E-008	0.0006595	10
	14	46	11953.13	4.34867	-0.5459483	1	4.382806	-7.155689	-1.636674E-005	0.0007121	10
	15	49	9515.62	4.366565	-0.718566	1	4.425294	-9.344893	-2.846573E-005	0.0006664	10
	16	51	7546.875	4.389738	-0.9270113	1	4.486552	-11.92435	-2.149368E-005	0.000705	10
	17	53	5928.309	4.417691	-1.19146	1	4.575541	-15.09366	2.013974E-005	0.0006586	10
	18	55	4733.456	4.450647	-1.4935	1	4.69455	-18.55017	-6.775306E-006	0.0006879	10
	19	58	3796.875	4.490098	-1.853535	1	4.857631	-22.43108	-3.026714E-005	0.0006684	10
	20	60	2987.132	4.543047	-2.335623	1	5.108269	-27.20812	3.391792E-006	0.0006413	10
	21	62	2390.625	4.603769	-2.890324	1	5.435868	-32.1213	1.737232E-006	0.0006438	10
	22	65	1884.191	4.684273	-3.620642	1	5.920427	-37.70171	2.859026E-006	0.0006899	10
	23	67	1516.544	4.776838	-4.442802	1	6.523548	-42.92503	1.950691E-005	0.0006648	10
	24	69	1193.986	4.902382	-5.564471	1	7.415975	-48.61946	-2.715817E-005	0.0006971	10
	25	72	946.5144	5.057914	-6.918169	1	8.569921	-53.82924	-1.019858E-005	0.0006754	10
	26	74	751.7689	5.258024	-8.583954	1	10.06633	-58.51082	9.88818E-006	0.0006438	10
	27	77	597.4265	5.503544	-10.63456	1	11.97426	-62.63776	2.028008E-005	0.0006718	10
	28	79	477.4305	5.813584	-13.10622	1	14.33774	-66.07915	-3.043333E-006	0.0006783	10
	29	81	376.6741	6.225755	-16.32853	1	17.47515	-69.12911	-3.176148E-006	0.0006783	10
	30	83	298.2954	6.736253	-20.25967	1	21.3502	-71.60825	-2.728331E-006	0.0006841	10
	31	86	237.7717	7.352869	-24.96988	1	26.02998	-73.59191	-3.211202E-006	0.000687	10
	32	88	189.0121	8.125165	-30.84411	1	31.89635	-75.24203	-2.849399E-006	0.0006855	10
	33	91	150.2404	9.067934	-38.08112	1	39.14587	-76.60608	-2.539602E-006	0.0006848	10
	34	93	119.1737	10.21453	-47.04974	1	48.14577	-77.75113	1.194397E-006	8.828645E-005	9
	35	95	95.0169	11.59008	-57.92683	1	59.07493	-78.68559	1.149057E-006	8.33896E-005	9
	36	98	75.60484	13.27486	-71.46995	1	72.69233	-79.47777	1.104989E-006	8.617325E-005	9
	37	100	54.50582	16.35358	-96.6239	1	97.998	-80.39373	1.014139E-006	8.268112E-005	9
	38	103	45.95588	18.37871	-113.1283	1	114.6115	-80.7724	1.251385E-006	8.279823E-005	9
	39	105	37.20238	21.38223	-137.5059	1	139.1584	-81.16127	1.17096E-006	7.841333E-005	9
	40	108	30.04808	25.15018	-167.5756	1	169.4524	-81.46461	1.169528E-006	8.055198E-005	9
	41	110	23.91582	30.10073	-206.7876	1	208.9669	-81.71799	1.07632E-006	7.721243E-005	9
	42	112	18.60119	37.17352	-261.0267	1	263.6604	-81.89486	1.261382E-006	8.018097E-005	9
	43	115	15.02404	44.7284	-317.9586	1	321.0893	-81.99254	1.260286E-006	7.037636E-005	9
	44	117	12.01923	54.66042	-390.26	1	394.0693	-82.02693	1.36779E-006	7.903519E-005	9
	45	119	9.450605	67.56589	-484.7889	1	489.4746	-82.0657	6.017964E-007	0.0006538	8
	46	122	7.512019	83.01237	-597.8279	1	603.5638	-82.09465	6.077594E-007	0.0006484	8
	47	125	5.978954	101.9849	-736.5821	1	743.6088	-82.11712	6.147533E-007	0.0006678	8
	48	128	4.734848	125.9231	-912.0314	1	920.6834	-82.13894	6.838463E-007	0.000649	8
	49	131	3.75601	154.0793	-1126.56	1	1137.048	-82.21199	6.296531E-007	0.0006701	8
	50	134	3.004808	187.0058	-1380.547	1	1393.155	-82.28579	6.315555E-007	0.0006467	8
	51	138	2.372217	231.1757	-1715.362	1	1730.869	-82.32462	6.028977E-007	0.0005953	8
	52	142	1.878005	280.2527	-2129.343	1	2147.707	-82.50213	6.397077E-007	0.0006626	8
	53	147	1.512097	335.9495	-2595.112	1	2616.767	-82.62381	5.884254E-007	0.0006832	8
	54	152	1.201923	414.6776	-3222.646	1	3249.216	-82.66769	6.480335E-007	0.0006775	8
	55	159	0.956633	512.4775	-3984.751	1	4017.571	-82.67144	6.200113E-007	1.397684E-005	8
