EXPLAIN
TAG	EISPOT
TITLE	LABEL	Potentiostatic EIS	Test Identifier
DATE	LABEL	2/26/2021	Date
TIME	LABEL	2:02:48	Time
NOTES	NOTES	1	Notes...
	
PSTAT	PSTAT	REF3000-16137	Potentiostat
VDC	POTEN	0.00000E+000	T	DC Voltage (V)
FREQINIT	QUANT	3.00000E+005	Initial Freq. (Hz)
FREQFINAL	QUANT	1.00000E+000	Final Freq. (Hz)
PTSPERDEC	QUANT	1.00000E+001	Points/decade
VAC	QUANT	5.00000E+001	AC Voltage (mV rms)
AREA	QUANT	1.00000E+000	Sample Area (cm^2)
SPEED	SELECTOR	2	Optimize for:
ZGUESS	QUANT	1.00000E+003	Estimated Z (ohms)
EOC	QUANT	0	Open Circuit (V)
SEQUENCER	TOGGLE	TRUE	Run as Sequence
PSTATMODEL	IQUANT	5	Pstat Model
PSTATSECTION	LABEL	REF3000-16137	Pstat Section
PSTATSERIALNO	LABEL	16137	Pstat Serial Number
CTRLMODE	IQUANT	1	Control Mode
IESTAB	IQUANT	0	I/E Stability
CASPEED	IQUANT	1	Control Amp Speed
CONVENTION	IQUANT	1	Current Convention
ICHRANGE	IQUANT	2	Ich Range
ICHRANGEMODE	TOGGLE	F	Ich Auto Range
ICHOFFSETENABLE	TOGGLE	T	Ich Offset Enable
ICHOFFSET	QUANT	0	Ich Offset (V)
ICHFILTER	IQUANT	3	Ich Filter
VCHRANGE	IQUANT	2	Vch Range
VCHRANGEMODE	TOGGLE	F	Vch Auto Range
VCHOFFSETENABLE	TOGGLE	T	Vch Offset Enable
VCHOFFSET	QUANT	0	Vch Offset (V)
VCHFILTER	IQUANT	3	Vch Filter
ACHRANGE	IQUANT	2	Ach Range
ACHOFFSETENABLE	TOGGLE	F	Ach Offset Enable
ACHOFFSET	QUANT	0	Ach Offset (V)
ACHFILTER	IQUANT	3	Ach Filter
IERANGELOWERLIMIT	IQUANT	2	I/E Range Lower Limit
IERANGEMODE	TOGGLE	F	I/E AutoRange
IERANGE	IQUANT	11	I/E Range
POSFEEDENABLE	TOGGLE	F	Positive Feedback IR Comp
POSFEEDRESISTANCE	QUANT	0	Positive Feedback Resistance (ohm)
ACHSELECT	IQUANT	0	Ach Select
CABLEID	IQUANT	13	Cable ID
DCCALDATE	LABEL	7/31/2020	DC Calibration Date
ACCALDATE	LABEL	7/31/2020	AC Calibration Date
THERMOSELECT	IQUANT	1	Thermo Select
FRAMEWORKVERSION	QUANT	6.33	Framework Version
INSTRUMENTVERSION	LABEL	3.50	Instrument Version
COMPLIANCEVOLTAGE	IQUANT	0	Compliance Voltage
ZCURVE	TABLE
	Pt	Time	Freq	Zreal	Zimag	Zsig	Zmod	Zphz	Idc	Vdc	IERange
	#	s	Hz	ohm	ohm	V	ohm	°	A	V	#
	0	7	300046.9	83.29353	-1.970564	1	83.31683	-1.355255	6.976831E-005	-0.00262	9
	1	10	238359.4	84.27122	-2.028443	1	84.29563	-1.378867	5.781931E-005	-0.0017942	9
	2	13	189328.1	85.1759	-1.920015	1	85.19753	-1.291329	-6.561772E-005	0.0025261	9
	3	16	150421.9	85.71345	-1.792131	1	85.73218	-1.197789	-4.777286E-005	0.0008454	9
	4	18	119484.4	86.40462	-1.576795	1	86.41901	-1.045473	6.286935E-005	-0.0021084	9
	5	21	94921.88	87.11997	-1.344997	1	87.13036	-0.8844876	-1.375228E-005	0.0006828	9
	6	23	75421.88	87.68583	-1.385119	1	87.69677	-0.9049907	2.225706E-005	-0.000612	9
	7	26	59859.37	88.30241	-1.487573	1	88.31494	-0.965133	-1.405815E-005	0.0001644	9
	8	28	47578.12	88.98453	-1.593019	1	88.99879	-1.025611	-1.382997E-005	0.000148	9
	9	31	37828.12	89.66762	-1.711456	1	89.68395	-1.093453	2.304926E-005	-0.0004475	9
	10	33	30046.88	90.34503	-1.843071	1	90.36383	-1.168692	-2.375706E-006	-0.000225	9
	11	36	23859.38	90.98309	-1.997135	1	91.00501	-1.257476	1.877582E-005	-7.376628E-005	9
	12	38	18984.38	91.67319	-2.227104	1	91.70023	-1.391667	2.476228E-005	-0.0003867	9
	13	41	15046.87	92.4216	-2.472602	1	92.45467	-1.532498	-1.680239E-005	0.0007096	9
	14	43	11953.13	93.0338	-2.902572	1	93.07906	-1.786998	-1.940639E-005	0.0005928	9
	15	45	9515.62	93.74829	-3.217059	1	93.80347	-1.965386	1.159578E-005	0.0002036	9
	16	48	7546.875	94.57912	-3.686901	1	94.65095	-2.232385	1.822829E-005	-0.00014	9
	17	50	5928.309	95.4142	-4.413222	1	95.5162	-2.648232	-1.964184E-005	0.0006368	9
	18	52	4733.456	96.2126	-5.092337	1	96.3472	-3.029723	-1.861458E-005	0.0004912	9
	19	54	3796.875	97.0535	-5.903184	1	97.2328	-3.480673	-1.841514E-005	0.0008284	9
	20	57	2987.132	98.0641	-6.981013	1	98.3123	-4.071917	2.362652E-005	-0.000543	9
	21	59	2390.625	99.1919	-8.128314	1	99.5244	-4.684653	-1.066406E-005	0.0007012	9
	22	61	1884.191	100.3967	-9.7558	1	100.8696	-5.550148	1.127057E-005	0.00018	9
	23	64	1516.544	101.5715	-11.42799	1	102.2124	-6.419455	-5.501116E-006	0.0006898	9
	24	66	1193.986	103.0896	-13.59012	1	103.9815	-7.509895	2.349429E-005	-0.0004191	9
	25	69	946.5144	104.7048	-16.14959	1	105.9429	-8.768167	-1.975183E-005	0.0006076	9
	26	71	751.7689	106.4423	-19.24217	1	108.1676	-10.24701	-1.912628E-005	0.0005015	9
	27	73	597.4265	108.5516	-22.81038	1	110.9223	-11.86714	-5.612435E-006	0.0007039	9
	28	76	477.4305	110.7577	-26.94105	1	113.9872	-13.6713	1.338416E-006	8.312354E-005	9
	29	78	376.6741	113.4919	-32.15087	1	117.958	-15.81678	1.21412E-006	8.611E-005	9
	30	80	298.2954	116.5842	-38.25304	1	122.6995	-18.16544	1.267068E-006	8.765491E-005	9
	31	82	237.7717	120.0587	-45.28714	1	128.3161	-20.66689	1.228125E-006	8.603482E-005	9
	32	85	189.0121	124.0668	-53.72383	1	135.1992	-23.41375	1.241658E-006	9.208508E-005	9
	33	87	150.2404	128.626	-63.74884	1	143.5568	-26.36366	1.281562E-006	8.550644E-005	9
	34	90	119.1737	133.8361	-75.81841	1	153.8198	-29.53164	1.35083E-006	8.553251E-005	9
	35	92	95.0169	139.6181	-89.90917	1	166.0629	-32.78012	1.368182E-006	8.05659E-005	9
	36	95	75.60484	146.2311	-106.9279	1	181.1549	-36.17522	1.256774E-006	7.700924E-005	9
	37	97	54.50582	156.8515	-137.3986	1	208.5204	-41.21767	1.263042E-006	8.080618E-005	9
	38	100	45.95588	163.4545	-156.9718	1	226.622	-43.84097	1.474098E-006	7.450141E-005	9
	39	102	37.20238	172.2221	-185.2952	1	252.9719	-47.09417	1.329053E-006	8.113828E-005	9
	40	104	30.04808	182.1039	-219.6854	1	285.3481	-50.34364	1.375088E-006	8.298059E-005	9
	41	107	23.91582	193.809	-264.1506	1	327.624	-53.73227	1.294854E-006	8.857164E-005	9
	42	109	18.60119	208.0676	-324.6472	1	385.6007	-57.34404	1.206541E-006	8.686037E-005	9
	43	111	15.02404	221.0149	-386.2149	1	444.9826	-60.21927	2.159156E-007	0.0006587	8
	44	114	12.01923	237.0419	-466.5971	1	523.3563	-63.0684	2.117748E-007	0.0006566	8
	45	116	9.450605	256.6193	-573.6021	1	628.389	-65.89711	3.515726E-007	0.000637	8
	46	119	7.512019	278.0087	-700.967	1	754.0847	-68.36636	3.089367E-007	0.0006819	8
	47	121	5.978954	303.386	-857.1714	1	909.2777	-70.50917	2.553049E-007	0.0006672	8
	48	124	4.734848	333.4953	-1055.894	1	1107.308	-72.47171	3.360128E-007	0.0006935	8
	49	128	3.75601	370.6346	-1299.808	1	1351.618	-74.08472	2.839692E-007	0.0006466	8
	50	131	3.004808	413.3701	-1589.196	1	1642.077	-75.41973	2.915554E-007	0.0006767	8
	51	135	2.372217	470.5396	-1967.14	1	2022.634	-76.54762	3.094057E-007	0.0006991	8
	52	139	1.878005	536.9357	-2438.312	1	2496.731	-77.58121	2.645688E-007	0.0006454	8
	53	144	1.512097	608.8745	-2965.661	1	3027.519	-78.39793	3.05335E-007	0.0006124	8
	54	149	1.201923	710.5319	-3664.607	1	3732.854	-79.02705	2.688619E-007	0.0006447	8
	55	155	0.956633	831.4368	-4520.961	1	4596.779	-79.57934	2.01341E-008	-6.66847E-005	7
