EXPLAIN
TAG	EISPOT
TITLE	LABEL	Potentiostatic EIS	Test Identifier
DATE	LABEL	2/26/2021	Date
TIME	LABEL	1:29:20	Time
NOTES	NOTES	1	Notes...
	
PSTAT	PSTAT	REF3000-16137	Potentiostat
VDC	POTEN	0.00000E+000	T	DC Voltage (V)
FREQINIT	QUANT	3.00000E+005	Initial Freq. (Hz)
FREQFINAL	QUANT	1.00000E+000	Final Freq. (Hz)
PTSPERDEC	QUANT	1.00000E+001	Points/decade
VAC	QUANT	5.00000E+001	AC Voltage (mV rms)
AREA	QUANT	1.00000E+000	Sample Area (cm^2)
SPEED	SELECTOR	2	Optimize for:
ZGUESS	QUANT	1.00000E+003	Estimated Z (ohms)
EOC	QUANT	0	Open Circuit (V)
SEQUENCER	TOGGLE	TRUE	Run as Sequence
PSTATMODEL	IQUANT	5	Pstat Model
PSTATSECTION	LABEL	REF3000-16137	Pstat Section
PSTATSERIALNO	LABEL	16137	Pstat Serial Number
CTRLMODE	IQUANT	1	Control Mode
IESTAB	IQUANT	0	I/E Stability
CASPEED	IQUANT	1	Control Amp Speed
CONVENTION	IQUANT	1	Current Convention
ICHRANGE	IQUANT	2	Ich Range
ICHRANGEMODE	TOGGLE	F	Ich Auto Range
ICHOFFSETENABLE	TOGGLE	T	Ich Offset Enable
ICHOFFSET	QUANT	0	Ich Offset (V)
ICHFILTER	IQUANT	3	Ich Filter
VCHRANGE	IQUANT	2	Vch Range
VCHRANGEMODE	TOGGLE	F	Vch Auto Range
VCHOFFSETENABLE	TOGGLE	T	Vch Offset Enable
VCHOFFSET	QUANT	0	Vch Offset (V)
VCHFILTER	IQUANT	3	Vch Filter
ACHRANGE	IQUANT	2	Ach Range
ACHOFFSETENABLE	TOGGLE	F	Ach Offset Enable
ACHOFFSET	QUANT	0	Ach Offset (V)
ACHFILTER	IQUANT	3	Ach Filter
IERANGELOWERLIMIT	IQUANT	2	I/E Range Lower Limit
IERANGEMODE	TOGGLE	F	I/E AutoRange
IERANGE	IQUANT	11	I/E Range
POSFEEDENABLE	TOGGLE	F	Positive Feedback IR Comp
POSFEEDRESISTANCE	QUANT	0	Positive Feedback Resistance (ohm)
ACHSELECT	IQUANT	0	Ach Select
CABLEID	IQUANT	13	Cable ID
DCCALDATE	LABEL	7/31/2020	DC Calibration Date
ACCALDATE	LABEL	7/31/2020	AC Calibration Date
THERMOSELECT	IQUANT	1	Thermo Select
FRAMEWORKVERSION	QUANT	6.33	Framework Version
INSTRUMENTVERSION	LABEL	3.50	Instrument Version
COMPLIANCEVOLTAGE	IQUANT	0	Compliance Voltage
ZCURVE	TABLE
	Pt	Time	Freq	Zreal	Zimag	Zsig	Zmod	Zphz	Idc	Vdc	IERange
	#	s	Hz	ohm	ohm	V	ohm	°	A	V	#
	0	11	300046.9	3.368438	2.246902	1	4.049067	33.7051	-0.0001083	-0.0001227	10
	1	14	238359.4	3.342988	1.779457	1	3.787088	28.02616	-1.215794E-005	-0.0004409	10
	2	17	189328.1	3.330582	1.399947	1	3.612843	22.79853	6.516616E-005	-0.0002695	10
	3	20	150421.9	3.312653	1.104492	1	3.49193	18.43922	5.948285E-005	0.0001227	10
	4	22	119484.4	3.310688	0.8523213	1	3.418642	14.43703	-2.910643E-005	0.0002311	10
	5	25	94921.88	3.321475	0.5154865	1	3.361238	8.821816	-0.0001746	0.0004159	12
	6	28	75421.88	3.307267	0.4639848	1	3.339656	7.986046	-4.069607E-005	0.0006032	11
	7	31	59859.37	3.308992	0.3202912	1	3.324457	5.528676	1.72879E-005	0.0006937	11
	8	33	47578.12	3.312315	0.195472	1	3.318078	3.377318	9.153369E-006	0.0007044	11
	9	36	37828.12	3.316806	0.0817381	1	3.317813	1.411689	6.312958E-006	0.0006907	11
	10	38	30046.88	3.322669	-0.026501	1	3.322775	-0.456971	4.601813E-006	0.0006994	11
	11	41	23859.38	3.330696	-0.1348407	1	3.333425	-2.318311	-6.184744E-005	0.0006533	11
	12	43	18984.38	3.339661	-0.247596	1	3.348827	-4.24004	-5.721035E-005	0.0006544	11
	13	46	15046.87	3.350334	-0.3734708	1	3.371086	-6.360656	-5.018187E-005	0.0006568	11
	14	48	11953.13	3.363543	-0.5146741	1	3.402692	-8.699661	9.192878E-006	0.0007208	11
	15	50	9515.62	3.379383	-0.6792622	1	3.446973	-11.36512	-3.249909E-005	0.0006709	11
	16	52	7546.875	3.400777	-0.8777214	1	3.512219	-14.4719	-4.192333E-005	0.0007136	11
	17	55	5928.309	3.428986	-1.129226	1	3.610138	-18.22763	1.027097E-005	0.0006527	10
	18	57	4733.456	3.458939	-1.416158	1	3.737615	-22.26516	-2.094444E-005	0.0006998	10
	19	59	3796.875	3.494612	-1.758028	1	3.911902	-26.70551	-2.863291E-005	0.0006828	10
	20	62	2987.132	3.543622	-2.215731	1	4.179321	-32.01663	1.506353E-005	0.0006817	10
	21	64	2390.625	3.599768	-2.741756	1	4.524992	-37.29464	-6.185531E-006	0.0006585	10
	22	66	1884.191	3.67567	-3.435062	1	5.030924	-43.062	-1.448562E-005	0.0006933	10
	23	69	1516.544	3.763653	-4.215847	1	5.651412	-48.24345	-2.309587E-005	0.0006918	10
	24	71	1193.986	3.884932	-5.278456	1	6.55399	-53.64701	2.155446E-005	0.0006729	10
	25	73	946.5144	4.033395	-6.564843	1	7.704897	-58.43372	-1.53911E-005	0.0006649	10
	26	76	751.7689	4.226412	-8.138406	1	9.170399	-62.55639	-6.594816E-006	0.0006904	10
	27	78	597.4265	4.469972	-10.07617	1	11.02315	-66.07705	1.865597E-005	0.0006778	10
	28	80	477.4305	4.771371	-12.40447	1	13.29048	-68.96079	3.600526E-007	0.0006713	10
	29	83	376.6741	5.168303	-15.44	1	16.28204	-71.49282	-1.925383E-006	0.0006799	10
	30	85	298.2954	5.65393	-19.141	1	19.95857	-73.54374	-2.086853E-006	0.0006844	10
	31	87	237.7717	6.235021	-23.57697	1	24.38748	-75.18702	-2.833999E-006	0.000682	10
	32	90	189.0121	6.953505	-29.11076	1	29.92971	-76.56584	-2.493089E-006	0.0006885	10
	33	92	150.2404	7.826749	-35.93846	1	36.78085	-77.71385	-2.305579E-006	0.0006831	10
	34	95	119.1737	8.890779	-44.41321	1	45.29436	-78.67998	1.188339E-006	8.865756E-005	9
	35	97	95.0169	10.17348	-54.70653	1	55.64444	-79.46535	1.175788E-006	8.413738E-005	9
	36	100	75.60484	11.76559	-67.54053	1	68.55766	-80.11822	1.063744E-006	8.650921E-005	9
	37	102	54.50582	14.74625	-91.38004	1	92.56222	-80.83305	9.406067E-007	8.088401E-005	9
	38	105	45.95588	16.72923	-106.9765	1	108.2767	-81.11195	1.194044E-006	9.393083E-005	9
	39	107	37.20238	19.73241	-130.0794	1	131.5676	-81.37428	1.132E-006	9.152833E-005	9
	40	109	30.04808	23.45165	-158.3891	1	160.1159	-81.57777	1.06205E-006	8.648953E-005	9
	41	112	23.91582	28.53393	-195.639	1	197.7088	-81.70193	9.538297E-007	8.999353E-005	9
	42	114	18.60119	35.50261	-246.2064	1	248.753	-81.79459	1.023901E-006	8.826686E-005	9
	43	116	15.02404	43.01997	-299.5555	1	302.6288	-81.82748	1.21184E-006	8.041569E-005	9
	44	119	12.01923	52.61109	-367.2772	1	371.0262	-81.84805	1.217399E-006	8.390458E-005	9
	45	121	9.450605	65.20329	-455.6234	1	460.2654	-81.85582	6.053413E-007	0.000653	8
	46	124	7.512019	80.20531	-561.5761	1	567.2747	-81.87188	5.831392E-007	0.0006514	8
	47	126	5.978954	98.0886	-691.5707	1	698.4922	-81.92733	5.964039E-007	0.0006661	8
	48	129	4.734848	121.1534	-855.847	1	864.3797	-81.94276	6.276873E-007	0.0006478	8
	49	133	3.75601	148.9597	-1058.269	1	1068.701	-81.98781	6.134052E-007	0.0006792	8
	50	136	3.004808	181.9322	-1298.486	1	1311.17	-82.02415	6.295893E-007	0.0006285	8
	51	140	2.372217	225.0471	-1614.498	1	1630.108	-82.0646	6.15003E-007	0.0005931	8
	52	144	1.878005	282.8167	-2003.716	1	2023.577	-81.966	5.95325E-007	0.0006691	8
	53	149	1.512097	352.2797	-2447.898	1	2473.116	-81.81073	5.805818E-007	0.0005688	8
	54	154	1.201923	444.1339	-3034.501	1	3066.831	-81.67323	6.037752E-007	0.0006833	8
	55	160	0.956633	568.7285	-3752.436	1	3795.29	-81.3817	5.931497E-007	2.118523E-005	8
