EXPLAIN
TAG	EISPOT
TITLE	LABEL	Potentiostatic EIS	Test Identifier
DATE	LABEL	2/26/2021	Date
TIME	LABEL	2:29:13	Time
NOTES	NOTES	1	Notes...
	
PSTAT	PSTAT	REF3000-16137	Potentiostat
VDC	POTEN	0.00000E+000	T	DC Voltage (V)
FREQINIT	QUANT	3.00000E+005	Initial Freq. (Hz)
FREQFINAL	QUANT	1.00000E+000	Final Freq. (Hz)
PTSPERDEC	QUANT	1.00000E+001	Points/decade
VAC	QUANT	5.00000E+001	AC Voltage (mV rms)
AREA	QUANT	1.00000E+000	Sample Area (cm^2)
SPEED	SELECTOR	2	Optimize for:
ZGUESS	QUANT	1.00000E+003	Estimated Z (ohms)
EOC	QUANT	0	Open Circuit (V)
SEQUENCER	TOGGLE	TRUE	Run as Sequence
PSTATMODEL	IQUANT	5	Pstat Model
PSTATSECTION	LABEL	REF3000-16137	Pstat Section
PSTATSERIALNO	LABEL	16137	Pstat Serial Number
CTRLMODE	IQUANT	1	Control Mode
IESTAB	IQUANT	0	I/E Stability
CASPEED	IQUANT	1	Control Amp Speed
CONVENTION	IQUANT	1	Current Convention
ICHRANGE	IQUANT	2	Ich Range
ICHRANGEMODE	TOGGLE	F	Ich Auto Range
ICHOFFSETENABLE	TOGGLE	T	Ich Offset Enable
ICHOFFSET	QUANT	0	Ich Offset (V)
ICHFILTER	IQUANT	3	Ich Filter
VCHRANGE	IQUANT	2	Vch Range
VCHRANGEMODE	TOGGLE	F	Vch Auto Range
VCHOFFSETENABLE	TOGGLE	T	Vch Offset Enable
VCHOFFSET	QUANT	0	Vch Offset (V)
VCHFILTER	IQUANT	3	Vch Filter
ACHRANGE	IQUANT	2	Ach Range
ACHOFFSETENABLE	TOGGLE	F	Ach Offset Enable
ACHOFFSET	QUANT	0	Ach Offset (V)
ACHFILTER	IQUANT	3	Ach Filter
IERANGELOWERLIMIT	IQUANT	2	I/E Range Lower Limit
IERANGEMODE	TOGGLE	F	I/E AutoRange
IERANGE	IQUANT	11	I/E Range
POSFEEDENABLE	TOGGLE	F	Positive Feedback IR Comp
POSFEEDRESISTANCE	QUANT	0	Positive Feedback Resistance (ohm)
ACHSELECT	IQUANT	0	Ach Select
CABLEID	IQUANT	13	Cable ID
DCCALDATE	LABEL	7/31/2020	DC Calibration Date
ACCALDATE	LABEL	7/31/2020	AC Calibration Date
THERMOSELECT	IQUANT	1	Thermo Select
FRAMEWORKVERSION	QUANT	6.33	Framework Version
INSTRUMENTVERSION	LABEL	3.50	Instrument Version
COMPLIANCEVOLTAGE	IQUANT	0	Compliance Voltage
ZCURVE	TABLE
	Pt	Time	Freq	Zreal	Zimag	Zsig	Zmod	Zphz	Idc	Vdc	IERange
	#	s	Hz	ohm	ohm	V	ohm	°	A	V	#
	0	14	300046.9	1611.715	-2683.392	1	3130.21	-59.00987	8.305931E-005	-0.0017906	9
	1	33	238359.4	2070.323	-3020.119	1	3661.605	-55.56897	9.182841E-005	-0.0025534	9
	2	49	189328.1	2690.94	-3353.693	1	4299.816	-51.2571	-5.757377E-005	0.0004926	9
	3	59	150421.9	3309.749	-3838.609	1	5068.467	-49.23123	1.849414E-005	-0.001987	9
	4	70	119484.4	4171.005	-3821.032	1	5656.64	-42.49261	1.819464E-005	-0.0166736	8
	5	77	94921.88	5039.579	-3906.96	1	6376.652	-37.78482	-1.988919E-005	0.0030029	8
	6	85	75421.88	5863.513	-3992.115	1	7093.501	-34.2486	2.286362E-005	-0.0029055	8
	7	92	59859.37	6751.693	-3995.406	1	7845.293	-30.6155	7.32904E-006	-0.0071929	8
	8	101	47578.12	8407.589	-3189.487	1	8992.24	-20.77465	-6.404268E-006	0.0160752	7
	9	107	37828.12	9121.363	-2997.355	1	9601.22	-18.19095	-5.778214E-006	0.0099429	7
	10	114	30046.88	9651.62	-2684.21	1	10017.92	-15.54177	-6.495768E-006	0.0163578	7
	11	120	23859.38	10152.87	-2380.811	1	10428.28	-13.1972	-2.673569E-006	-0.0054157	7
	12	124	18984.38	10589.17	-2098.089	1	10795.03	-11.20717	2.149341E-006	0.0085899	7
	13	129	15046.87	11024.8	-1790.044	1	11169.18	-9.222359	-1.786752E-006	0.0200464	7
	14	133	11953.13	11311	-1569.21	1	11419.33	-7.898406	6.304013E-006	-0.0237211	7
	15	137	9515.62	11584.22	-1333.885	1	11660.77	-6.568493	5.037009E-006	-0.0237449	7
	16	141	7546.875	11895	-1136.447	1	11949.17	-5.457465	4.990881E-006	-0.0240185	7
	17	145	5928.309	12134.06	-1044.813	1	12178.96	-4.921361	1.459391E-007	0.0153096	7
	18	150	4733.456	12401.56	-819.9971	1	12428.64	-3.782917	6.288031E-006	-0.023976	7
	19	154	3796.875	12580.5	-776.5923	1	12604.44	-3.532379	-1.860343E-006	0.0201794	7
	20	158	2987.132	12816.8	-675.6693	1	12834.59	-3.017696	3.393157E-006	-0.0222721	7
	21	163	2390.625	13063.68	-549.9733	1	13075.25	-2.410695	-6.476613E-006	0.0162688	7
	22	167	1884.191	13311.65	-500.6719	1	13321.06	-2.153968	4.244828E-006	0.0002763	7
	23	171	1516.544	13605.08	-604.7931	1	13618.52	-2.545321	6.786755E-006	-0.0159605	7
	24	175	1193.986	13849.08	-601.8495	1	13862.15	-2.488379	-1.800718E-006	0.0202252	7
	25	180	946.5144	14074.68	-631.0239	1	14088.82	-2.567079	-3.61776E-006	0.0234048	7
	26	183	751.7689	14351.86	-639.9583	1	14366.12	-2.553162	5.016717E-006	-0.0242224	7
	27	185	597.4265	14647.75	-827.6412	1	14671.11	-3.233943	4.246438E-006	0.0003973	7
	28	188	477.4305	14863.59	-618.0778	1	14876.44	-2.381178	-6.457122E-008	0.0005766	7
	29	190	376.6741	15101.88	-606.6064	1	15114.06	-2.300198	-6.259631E-008	0.000583	7
	30	192	298.2954	15337.61	-587.3287	1	15348.85	-2.192977	-7.54909E-008	0.0006643	7
	31	195	237.7717	15569.27	-554.1742	1	15579.13	-2.038531	-7.456558E-008	0.0006412	7
	32	197	189.0121	15791.23	-521.8885	1	15799.85	-1.892894	-6.667047E-008	0.0005993	7
	33	200	150.2404	16002.6	-492.2925	1	16010.17	-1.76205	-6.376021E-008	0.0006098	7
	34	202	119.1737	16201.51	-468.9013	1	16208.3	-1.657781	-7.947368E-008	0.0006628	7
	35	204	95.0169	16405.64	-459.8138	1	16412.08	-1.605454	-6.281235E-008	0.0006199	7
	36	207	75.60484	16607.01	-459.8775	1	16613.38	-1.586216	-6.466531E-008	0.0005871	7
	37	209	54.50582	16827.85	-471.9952	1	16834.47	-1.606637	-7.332012E-008	0.000609	7
	38	212	45.95588	17006.61	-505.5274	1	17014.12	-1.702636	-8.152922E-008	0.0005822	7
	39	214	37.20238	17190.72	-551.2735	1	17199.56	-1.836736	-8.483913E-008	0.000635	7
	40	217	30.04808	17397.1	-609.6346	1	17407.77	-2.006956	-8.40077E-008	0.0006452	7
	41	219	23.91582	17600.81	-694.3934	1	17614.51	-2.259281	-4.709748E-008	0.0005789	7
	42	221	18.60119	17812.35	-834.3357	1	17831.88	-2.681792	-1.15682E-007	0.0006051	7
	43	224	15.02404	18011.55	-938.8882	1	18036.01	-2.983956	-5.333471E-008	0.0005887	7
	44	226	12.01923	18232.14	-1088.753	1	18264.62	-3.417425	-1.275809E-007	0.0006748	7
	45	230	9.450605	18552.04	-1345.873	1	18600.8	-4.1493	-2.53711E-008	0.0005965	7
	46	232	7.512019	18799.49	-1582.589	1	18865.99	-4.811958	-2.583456E-009	0.0006613	7
	47	235	5.978954	19129.8	-1929.856	1	19226.9	-5.760633	-6.759759E-009	0.0006328	7
	48	238	4.734848	19498.96	-2291.912	1	19633.19	-6.703801	-5.497386E-008	0.0006605	7
	49	241	3.75601	19924.65	-2807.201	1	20121.43	-8.019668	-9.95531E-009	0.0006015	7
	50	245	3.004808	20355.03	-3312.143	1	20622.74	-9.24209	-5.679915E-008	0.0006643	7
	51	248	2.372217	20898.27	-4045.583	1	21286.25	-10.95606	-3.001345E-008	0.0005835	7
	52	252	1.878005	21537.85	-4880.643	1	22083.92	-12.76803	-2.399199E-008	0.0006154	7
	53	257	1.512097	22214.61	-5810.352	1	22961.91	-14.65766	-3.499002E-008	0.0006708	7
	54	263	1.201923	23009	-7087.489	1	24075.85	-17.12047	-4.200499E-008	0.0006348	7
	55	269	0.956633	24009.23	-8556.027	1	25488.21	-19.61424	-9.225984E-008	-1.620255E-005	7
