EXPLAIN
TAG	EISPOT
TITLE	LABEL	Potentiostatic EIS	Test Identifier
DATE	LABEL	2/26/2021	Date
TIME	LABEL	1:57:19	Time
NOTES	NOTES	1	Notes...
	
PSTAT	PSTAT	REF3000-16137	Potentiostat
VDC	POTEN	0.00000E+000	T	DC Voltage (V)
FREQINIT	QUANT	3.00000E+005	Initial Freq. (Hz)
FREQFINAL	QUANT	1.00000E+000	Final Freq. (Hz)
PTSPERDEC	QUANT	1.00000E+001	Points/decade
VAC	QUANT	5.00000E+001	AC Voltage (mV rms)
AREA	QUANT	1.00000E+000	Sample Area (cm^2)
SPEED	SELECTOR	2	Optimize for:
ZGUESS	QUANT	1.00000E+003	Estimated Z (ohms)
EOC	QUANT	0	Open Circuit (V)
SEQUENCER	TOGGLE	TRUE	Run as Sequence
PSTATMODEL	IQUANT	5	Pstat Model
PSTATSECTION	LABEL	REF3000-16137	Pstat Section
PSTATSERIALNO	LABEL	16137	Pstat Serial Number
CTRLMODE	IQUANT	1	Control Mode
IESTAB	IQUANT	0	I/E Stability
CASPEED	IQUANT	1	Control Amp Speed
CONVENTION	IQUANT	1	Current Convention
ICHRANGE	IQUANT	2	Ich Range
ICHRANGEMODE	TOGGLE	F	Ich Auto Range
ICHOFFSETENABLE	TOGGLE	T	Ich Offset Enable
ICHOFFSET	QUANT	0	Ich Offset (V)
ICHFILTER	IQUANT	3	Ich Filter
VCHRANGE	IQUANT	2	Vch Range
VCHRANGEMODE	TOGGLE	F	Vch Auto Range
VCHOFFSETENABLE	TOGGLE	T	Vch Offset Enable
VCHOFFSET	QUANT	0	Vch Offset (V)
VCHFILTER	IQUANT	3	Vch Filter
ACHRANGE	IQUANT	2	Ach Range
ACHOFFSETENABLE	TOGGLE	F	Ach Offset Enable
ACHOFFSET	QUANT	0	Ach Offset (V)
ACHFILTER	IQUANT	3	Ach Filter
IERANGELOWERLIMIT	IQUANT	2	I/E Range Lower Limit
IERANGEMODE	TOGGLE	F	I/E AutoRange
IERANGE	IQUANT	11	I/E Range
POSFEEDENABLE	TOGGLE	F	Positive Feedback IR Comp
POSFEEDRESISTANCE	QUANT	0	Positive Feedback Resistance (ohm)
ACHSELECT	IQUANT	0	Ach Select
CABLEID	IQUANT	13	Cable ID
DCCALDATE	LABEL	7/31/2020	DC Calibration Date
ACCALDATE	LABEL	7/31/2020	AC Calibration Date
THERMOSELECT	IQUANT	1	Thermo Select
FRAMEWORKVERSION	QUANT	6.33	Framework Version
INSTRUMENTVERSION	LABEL	3.50	Instrument Version
COMPLIANCEVOLTAGE	IQUANT	0	Compliance Voltage
ZCURVE	TABLE
	Pt	Time	Freq	Zreal	Zimag	Zsig	Zmod	Zphz	Idc	Vdc	IERange
	#	s	Hz	ohm	ohm	V	ohm	°	A	V	#
	0	6	300046.9	38.55075	1.303719	1	38.57279	1.936904	5.356384E-005	-0.0023474	9
	1	10	238359.4	38.97051	0.8790529	1	38.98042	1.292195	-3.77931E-005	0.0001884	9
	2	13	189328.1	39.29438	0.5530641	1	39.29827	0.8063786	1.755562E-005	-0.0006831	9
	3	15	150421.9	39.63581	0.3132797	1	39.63705	0.4528539	1.546258E-006	0.0004906	9
	4	18	119484.4	39.94681	0.0432464	1	39.94683	0.0620283	-3.340013E-006	0.0006146	9
	5	20	94921.88	40.30255	-0.0053228	1	40.30255	-0.0075671	-6.862605E-006	-3.129055E-005	9
	6	23	75421.88	40.60654	-0.2288321	1	40.60719	-0.3228784	-1.433158E-005	0.0003965	9
	7	25	59859.37	40.92529	-0.436512	1	40.92762	-0.6110976	-7.897677E-006	1.931474E-005	9
	8	28	47578.12	41.25641	-0.6383435	1	41.26134	-0.8864433	-1.500366E-005	0.0003688	9
	9	30	37828.12	41.59551	-0.8363819	1	41.60392	-1.15192	-1.478919E-005	0.0006179	9
	10	33	30046.88	41.96136	-1.047553	1	41.97443	-1.430075	2.686703E-006	-0.0002541	9
	11	35	23859.38	42.31268	-1.274821	1	42.33187	-1.725718	1.671564E-005	-0.0002132	9
	12	38	18984.38	42.69297	-1.510793	1	42.71969	-2.026703	-1.478407E-005	0.0003289	9
	13	40	15046.87	43.08081	-1.806099	1	43.11865	-2.400635	1.811232E-005	-0.0003399	9
	14	42	11953.13	43.48781	-2.129065	1	43.53989	-2.802834	1.373307E-005	-0.0004651	9
	15	45	9515.62	43.89655	-2.491654	1	43.96721	-3.248734	-2.5335E-006	-7.889925E-005	9
	16	47	7546.875	44.35088	-2.938875	1	44.44814	-3.791116	1.630403E-005	-0.0004625	9
	17	49	5928.309	44.83959	-3.529826	1	44.97831	-4.50111	-2.881898E-006	-9.06878E-005	9
	18	52	4733.456	45.35614	-4.156919	1	45.54623	-5.236565	-1.508138E-005	0.0005209	9
	19	54	3796.875	45.90245	-4.906085	1	46.16389	-6.100652	1.103899E-005	-0.0004562	9
	20	56	2987.132	46.5447	-5.853671	1	46.91135	-7.16814	1.338186E-005	-0.0004531	9
	21	59	2390.625	47.23122	-6.946399	1	47.7393	-8.366636	1.341795E-005	-0.000458	9
	22	61	1884.191	48.05656	-8.342687	1	48.77533	-9.84848	8.861053E-006	-0.0003898	9
	23	63	1516.544	48.90719	-9.84458	1	49.88816	-11.38104	-1.556946E-005	0.0005351	9
	24	65	1193.986	49.98605	-11.79469	1	51.35874	-13.27665	1.821028E-005	-0.0002236	9
	25	68	946.5144	51.2271	-14.08407	1	53.12793	-15.37274	1.90861E-005	-0.0004126	9
	26	70	751.7689	52.63122	-16.72678	1	55.22527	-17.63083	3.246636E-006	-0.0002778	9
	27	73	597.4265	54.26954	-19.86645	1	57.79151	-20.10616	-1.303394E-005	0.0003285	9
	28	75	477.4305	56.09964	-23.45122	1	60.80402	-22.68629	1.583274E-006	7.216899E-005	9
	29	77	376.6741	58.32642	-27.91525	1	64.66245	-25.57595	1.331299E-006	7.729923E-005	9
	30	80	298.2954	60.83408	-33.12419	1	69.26758	-28.56832	1.373394E-006	8.429541E-005	9
	31	82	237.7717	63.6226	-39.11736	1	74.68603	-31.58463	1.346644E-006	8.930463E-005	9
	32	84	189.0121	66.79336	-46.31269	1	81.27864	-34.73638	1.386958E-006	8.613808E-005	9
	33	87	150.2404	70.35046	-54.90019	1	89.23687	-37.96782	1.29302E-006	8.113821E-005	9
	34	89	119.1737	74.36008	-65.29718	1	98.9603	-41.28706	1.32544E-006	8.189013E-005	9
	35	92	95.0169	78.72036	-77.5355	1	110.4928	-44.56554	1.336933E-006	8.037625E-005	9
	36	94	75.60484	83.60764	-92.45783	1	124.6543	-47.87764	1.267634E-006	7.697017E-005	9
	37	97	54.50582	91.33624	-119.5286	1	150.4307	-52.6152	1.330421E-006	7.800336E-005	9
	38	99	45.95588	96.0052	-137.0865	1	167.361	-54.99545	1.362703E-006	8.814961E-005	9
	39	101	37.20238	102.1593	-162.8211	1	192.2166	-57.89448	1.404241E-006	8.563028E-005	9
	40	104	30.04808	109.0008	-194.3895	1	222.8642	-60.71915	1.300442E-006	9.229653E-005	9
	41	106	23.91582	117.0887	-235.6397	1	263.1271	-63.57734	1.338173E-006	7.535319E-005	9
	42	109	18.60119	127.1871	-292.5112	1	318.9661	-66.50006	1.372465E-006	7.975127E-005	9
	43	111	15.02404	136.9768	-352.3926	1	378.0783	-68.75864	1.361307E-006	9.063639E-005	9
	44	113	12.01923	148.2938	-427.4915	1	452.4821	-70.8687	4.336715E-007	0.0006588	8
	45	116	9.450605	163.5353	-530.0161	1	554.6718	-72.85251	4.563584E-007	0.0006642	8
	46	118	7.512019	181.0789	-651.784	1	676.4702	-74.47363	4.612092E-007	0.0006767	8
	47	121	5.978954	202.0549	-801.4738	1	826.5509	-75.85034	4.447954E-007	0.0006694	8
	48	124	4.734848	229.0099	-991.576	1	1017.678	-76.99525	4.259116E-007	0.0006734	8
	49	127	3.75601	260.9236	-1224.68	1	1252.167	-77.97271	4.490961E-007	0.0006715	8
	50	131	3.004808	299.4174	-1500.485	1	1530.067	-78.71502	4.280391E-007	0.0006964	8
	51	134	2.372217	347.5838	-1861.076	1	1893.256	-79.42104	4.129272E-007	0.0007185	8
	52	139	1.878005	409.8261	-2304.41	1	2340.569	-79.91571	4.37064E-007	0.0006433	8
	53	143	1.512097	477.1619	-2809.343	1	2849.578	-80.3604	4.362003E-007	0.000763	8
	54	149	1.201923	561.5217	-3469.191	1	3514.341	-80.80587	4.454511E-007	0.0006344	8
	55	155	0.956633	659.4843	-4276.968	1	4327.514	-81.23435	4.19916E-007	1.526585E-005	8
