EXPLAIN
TAG	EISPOT
TITLE	LABEL	Potentiostatic EIS	Test Identifier
DATE	LABEL	2/26/2021	Date
TIME	LABEL	1:09:29	Time
NOTES	NOTES	1	Notes...
	
PSTAT	PSTAT	REF3000-16137	Potentiostat
VDC	POTEN	0.00000E+000	T	DC Voltage (V)
FREQINIT	QUANT	3.00000E+005	Initial Freq. (Hz)
FREQFINAL	QUANT	1.00000E+000	Final Freq. (Hz)
PTSPERDEC	QUANT	1.00000E+001	Points/decade
VAC	QUANT	5.00000E+001	AC Voltage (mV rms)
AREA	QUANT	1.00000E+000	Sample Area (cm^2)
SPEED	SELECTOR	2	Optimize for:
ZGUESS	QUANT	1.00000E+003	Estimated Z (ohms)
EOC	QUANT	0	Open Circuit (V)
SEQUENCER	TOGGLE	TRUE	Run as Sequence
PSTATMODEL	IQUANT	5	Pstat Model
PSTATSECTION	LABEL	REF3000-16137	Pstat Section
PSTATSERIALNO	LABEL	16137	Pstat Serial Number
CTRLMODE	IQUANT	1	Control Mode
IESTAB	IQUANT	0	I/E Stability
CASPEED	IQUANT	1	Control Amp Speed
CONVENTION	IQUANT	1	Current Convention
ICHRANGE	IQUANT	2	Ich Range
ICHRANGEMODE	TOGGLE	F	Ich Auto Range
ICHOFFSETENABLE	TOGGLE	T	Ich Offset Enable
ICHOFFSET	QUANT	0	Ich Offset (V)
ICHFILTER	IQUANT	3	Ich Filter
VCHRANGE	IQUANT	2	Vch Range
VCHRANGEMODE	TOGGLE	F	Vch Auto Range
VCHOFFSETENABLE	TOGGLE	T	Vch Offset Enable
VCHOFFSET	QUANT	0	Vch Offset (V)
VCHFILTER	IQUANT	3	Vch Filter
ACHRANGE	IQUANT	2	Ach Range
ACHOFFSETENABLE	TOGGLE	F	Ach Offset Enable
ACHOFFSET	QUANT	0	Ach Offset (V)
ACHFILTER	IQUANT	3	Ach Filter
IERANGELOWERLIMIT	IQUANT	2	I/E Range Lower Limit
IERANGEMODE	TOGGLE	F	I/E AutoRange
IERANGE	IQUANT	11	I/E Range
POSFEEDENABLE	TOGGLE	F	Positive Feedback IR Comp
POSFEEDRESISTANCE	QUANT	0	Positive Feedback Resistance (ohm)
ACHSELECT	IQUANT	0	Ach Select
CABLEID	IQUANT	13	Cable ID
DCCALDATE	LABEL	7/31/2020	DC Calibration Date
ACCALDATE	LABEL	7/31/2020	AC Calibration Date
THERMOSELECT	IQUANT	1	Thermo Select
FRAMEWORKVERSION	QUANT	6.33	Framework Version
INSTRUMENTVERSION	LABEL	3.50	Instrument Version
COMPLIANCEVOLTAGE	IQUANT	0	Compliance Voltage
ZCURVE	TABLE
	Pt	Time	Freq	Zreal	Zimag	Zsig	Zmod	Zphz	Idc	Vdc	IERange
	#	s	Hz	ohm	ohm	V	ohm	°	A	V	#
	0	10	300046.9	2.566227	2.201137	1	3.380906	40.62078	1.649848E-005	-0.0001176	11
	1	13	238359.4	2.522914	1.756731	1	3.07428	34.84989	-6.35316E-006	-0.0001169	11
	2	16	189328.1	2.503022	1.391074	1	2.8636	29.06347	-7.387907E-005	7.759345E-005	11
	3	19	150421.9	2.530813	0.955245	1	2.70509	20.67881	-0.0001374	0.0003356	12
	4	22	119484.4	2.471471	0.8420307	1	2.610974	18.81399	7.059849E-005	0.0003995	11
	5	25	94921.88	2.482296	0.5590069	1	2.544461	12.69116	-0.0001703	0.0004443	12
	6	28	75421.88	2.473516	0.4085664	1	2.507031	9.379222	-0.0001145	0.0005836	12
	7	32	59859.37	2.468433	0.2799264	1	2.484255	6.469843	-0.0001872	0.0005388	12
	8	36	47578.12	2.466083	0.212132	1	2.47519	4.91647	-2.173307E-005	0.0006555	11
	9	38	37828.12	2.468388	0.1006512	1	2.470439	2.335005	1.103961E-005	0.000677	11
	10	41	30046.88	2.472139	-0.0043242	1	2.472143	-0.1002202	-1.364007E-005	0.0006654	11
	11	43	23859.38	2.47855	-0.1084438	1	2.480921	-2.50526	9.337332E-006	0.0007246	11
	12	46	18984.38	2.485102	-0.2158668	1	2.49446	-4.9645	1.422529E-005	0.0007189	11
	13	48	15046.87	2.493861	-0.3345315	1	2.516198	-7.640163	1.512359E-005	0.0007167	11
	14	50	11953.13	2.505535	-0.4678424	1	2.548839	-10.57667	-5.416133E-006	0.0007016	11
	15	53	9515.62	2.518874	-0.6202856	1	2.594124	-13.83412	1.862171E-005	0.0007213	11
	16	55	7546.875	2.536867	-0.8052754	1	2.661609	-17.61095	-3.495675E-005	0.000688	11
	17	57	5928.309	2.559801	-1.037506	1	2.762065	-22.06308	1.290267E-005	0.0007294	11
	18	59	4733.456	2.586944	-1.301763	1	2.896008	-26.71176	-1.571145E-006	0.0007102	11
	19	62	3796.875	2.619337	-1.617306	1	3.078409	-31.69319	-5.228965E-005	0.0006802	11
	20	64	2987.132	2.664798	-2.038265	1	3.354948	-37.41185	-1.050164E-005	0.0007096	11
	21	66	2390.625	2.716757	-2.521338	1	3.706469	-42.86345	-3.100235E-005	0.0006788	11
	22	69	1884.191	2.791565	-3.162181	1	4.218083	-48.56202	2.154738E-005	0.0006818	10
	23	71	1516.544	2.875381	-3.87974	1	4.829099	-53.45685	2.091697E-005	0.0006786	10
	24	73	1193.986	2.993358	-4.854716	1	5.703373	-58.34253	-1.938234E-005	0.0007082	10
	25	76	946.5144	3.136997	-6.032488	1	6.799387	-62.5248	-1.508873E-005	0.0006686	10
	26	78	751.7689	3.322528	-7.466811	1	8.172666	-66.01224	-1.04174E-005	0.0006751	10
	27	81	597.4265	3.556716	-9.236861	1	9.89797	-68.94046	-1.639655E-005	0.000677	10
	28	83	477.4305	3.83195	-11.35503	1	11.98418	-71.35215	-1.612005E-006	0.0006875	10
	29	85	376.6741	4.195644	-14.11988	1	14.73005	-73.45098	-1.842897E-006	0.0006841	10
	30	87	298.2954	4.6359	-17.49392	1	18.09776	-75.15774	-1.758743E-006	0.0006869	10
	31	90	237.7717	5.157925	-21.5429	1	22.15177	-76.53539	-2.625869E-006	0.0006837	10
	32	92	189.0121	5.803385	-26.60067	1	27.22637	-77.6928	-2.888819E-006	0.0006841	10
	33	95	150.2404	6.598788	-32.86375	1	33.51969	-78.64642	-2.606198E-006	0.0006871	10
	34	97	119.1737	7.593435	-40.68973	1	41.3922	-79.42918	-2.039716E-006	0.0006869	10
	35	99	95.0169	8.799689	-50.09079	1	50.85785	-80.03625	1.002251E-006	8.049393E-005	9
	36	102	75.60484	10.3461	-61.85889	1	62.71813	-80.50498	8.211827E-007	7.658774E-005	9
	37	105	54.50582	13.2983	-83.63731	1	84.68793	-80.96562	8.088803E-007	7.85406E-005	9
	38	107	45.95588	15.29767	-97.8912	1	99.0792	-81.1181	1.10702E-006	8.358721E-005	9
	39	109	37.20238	18.31277	-118.8194	1	120.2223	-81.23836	1.030442E-006	7.993673E-005	9
	40	112	30.04808	22.0924	-144.5833	1	146.2614	-81.31237	8.650624E-007	8.352063E-005	9
	41	114	23.91582	27.11931	-177.8923	1	179.9476	-81.33212	7.204112E-007	8.346247E-005	9
	42	117	18.60119	34.22818	-223.8886	1	226.4899	-81.3079	1.04265E-006	7.549387E-005	9
	43	119	15.02404	41.80594	-271.8612	1	275.0568	-81.25772	1.135351E-006	8.896999E-005	9
	44	121	12.01923	51.55281	-333.0597	1	337.0259	-81.20127	1.081356E-006	8.766795E-005	9
	45	124	9.450605	64.86076	-414.7122	1	419.7536	-81.11098	1.081677E-006	7.630393E-005	9
	46	126	7.512019	80.55479	-508.6259	1	514.9654	-81.0004	5.776065E-007	0.0006692	8
	47	129	5.978954	100.6044	-625.7979	1	633.8329	-80.86716	6.047091E-007	0.0006626	8
	48	132	4.734848	127.5377	-774.2358	1	784.6699	-80.64584	5.883842E-007	0.0006857	8
	49	135	3.75601	162.1456	-956.057	1	969.709	-80.37433	5.522542E-007	0.000652	8
	50	138	3.004808	206.8238	-1170.754	1	1188.882	-79.98157	5.519486E-007	0.0006957	8
	51	142	2.372217	272.2343	-1452.353	1	1477.647	-79.38347	5.517351E-007	0.0007364	8
	52	146	1.878005	358.3189	-1795.828	1	1831.227	-78.71605	4.988905E-007	0.0006352	8
	53	151	1.512097	468.3846	-2177.023	1	2226.84	-77.85796	5.496808E-007	0.0006542	8
	54	156	1.201923	635.4995	-2678.99	1	2753.334	-76.65518	5.220497E-007	0.0006382	8
	55	163	0.956633	866.306	-3269.12	1	3381.957	-75.15795	4.843178E-007	1.632174E-005	8
