EXPLAIN
TAG	EISPOT
TITLE	LABEL	Potentiostatic EIS	Test Identifier
DATE	LABEL	2/26/2021	Date
TIME	LABEL	2:49:15	Time
NOTES	NOTES	1	Notes...
	
PSTAT	PSTAT	REF3000-16137	Potentiostat
VDC	POTEN	0.00000E+000	T	DC Voltage (V)
FREQINIT	QUANT	3.00000E+005	Initial Freq. (Hz)
FREQFINAL	QUANT	1.00000E+000	Final Freq. (Hz)
PTSPERDEC	QUANT	1.00000E+001	Points/decade
VAC	QUANT	5.00000E+001	AC Voltage (mV rms)
AREA	QUANT	1.00000E+000	Sample Area (cm^2)
SPEED	SELECTOR	2	Optimize for:
ZGUESS	QUANT	1.00000E+003	Estimated Z (ohms)
EOC	QUANT	0	Open Circuit (V)
SEQUENCER	TOGGLE	TRUE	Run as Sequence
PSTATMODEL	IQUANT	5	Pstat Model
PSTATSECTION	LABEL	REF3000-16137	Pstat Section
PSTATSERIALNO	LABEL	16137	Pstat Serial Number
CTRLMODE	IQUANT	1	Control Mode
IESTAB	IQUANT	0	I/E Stability
CASPEED	IQUANT	1	Control Amp Speed
CONVENTION	IQUANT	1	Current Convention
ICHRANGE	IQUANT	2	Ich Range
ICHRANGEMODE	TOGGLE	F	Ich Auto Range
ICHOFFSETENABLE	TOGGLE	T	Ich Offset Enable
ICHOFFSET	QUANT	0	Ich Offset (V)
ICHFILTER	IQUANT	3	Ich Filter
VCHRANGE	IQUANT	2	Vch Range
VCHRANGEMODE	TOGGLE	F	Vch Auto Range
VCHOFFSETENABLE	TOGGLE	T	Vch Offset Enable
VCHOFFSET	QUANT	0	Vch Offset (V)
VCHFILTER	IQUANT	3	Vch Filter
ACHRANGE	IQUANT	2	Ach Range
ACHOFFSETENABLE	TOGGLE	F	Ach Offset Enable
ACHOFFSET	QUANT	0	Ach Offset (V)
ACHFILTER	IQUANT	3	Ach Filter
IERANGELOWERLIMIT	IQUANT	2	I/E Range Lower Limit
IERANGEMODE	TOGGLE	F	I/E AutoRange
IERANGE	IQUANT	11	I/E Range
POSFEEDENABLE	TOGGLE	F	Positive Feedback IR Comp
POSFEEDRESISTANCE	QUANT	0	Positive Feedback Resistance (ohm)
ACHSELECT	IQUANT	0	Ach Select
CABLEID	IQUANT	13	Cable ID
DCCALDATE	LABEL	7/31/2020	DC Calibration Date
ACCALDATE	LABEL	7/31/2020	AC Calibration Date
THERMOSELECT	IQUANT	1	Thermo Select
FRAMEWORKVERSION	QUANT	6.33	Framework Version
INSTRUMENTVERSION	LABEL	3.50	Instrument Version
COMPLIANCEVOLTAGE	IQUANT	0	Compliance Voltage
ZCURVE	TABLE
	Pt	Time	Freq	Zreal	Zimag	Zsig	Zmod	Zphz	Idc	Vdc	IERange
	#	s	Hz	ohm	ohm	V	ohm	°	A	V	#
	0	30	300046.9	-4.929087	-4457.877	1	4457.88	-90.06335	3.154065E-005	-0.0016361	9
	1	52	238359.4	153.1208	-5441.577	1	5443.731	-88.38818	-1.537982E-005	0.0018105	9
	2	74	189328.1	90.49351	-6963.786	1	6964.374	-89.25549	-0.0001078	0.0037799	9
	3	84	150421.9	895.8825	-8561.348	1	8608.094	-84.02615	2.427823E-005	-0.0003074	9
	4	93	119484.4	423.3244	-10564.13	1	10572.6	-87.70528	-2.087761E-005	0.0016842	9
	5	101	94921.88	821.9525	-13345.18	1	13370.46	-86.47551	-2.051395E-005	0.0028851	8
	6	110	75421.88	1149.842	-16571.45	1	16611.29	-86.03078	-9.560649E-006	-0.0020888	8
	7	118	59859.37	1121.91	-20745.54	1	20775.85	-86.90449	-2.012148E-006	0.0077759	8
	8	127	47578.12	4319.753	-27208.96	1	27549.74	-80.97889	-6.451091E-006	0.0256103	7
	9	133	37828.12	3768.567	-31380.26	1	31605.74	-83.15194	-1.195359E-005	0.0102019	8
	10	142	30046.88	5841.215	-41448.22	1	41857.79	-81.97825	4.757326E-007	0.0159784	7
	11	149	23859.38	6822.064	-51312.43	1	51763.95	-82.42686	6.827001E-006	-0.0268785	7
	12	155	18984.38	7328.035	-64169.95	1	64587.01	-83.4852	5.208415E-006	-0.0261795	7
	13	160	15046.87	9520.85	-81488.72	1	82043.02	-83.33598	-7.224481E-006	0.0235208	7
	14	166	11953.13	13319.94	-100861	1	101736.8	-82.47692	-7.182117E-006	0.0234733	7
	15	171	9515.62	16428.49	-124048.6	1	125131.7	-82.45588	-1.040199E-006	-0.0130331	7
	16	176	7546.875	17998.28	-152271.6	1	153331.6	-83.259	-7.225853E-006	0.0235493	7
	17	183	5928.309	31179.7	-181216.1	1	183878.9	-80.23739	2.819455E-006	0.0081757	7
	18	189	4733.456	2853.322	-247691.4	1	247707.8	-89.34	-3.364683E-006	-0.0049742	7
	19	196	3796.875	-61907.41	-260363.3	1	267622	-103.375	1.705423E-005	0.000318	8
	20	203	2987.132	71152.54	-381476.9	1	388055.8	-79.43468	-7.183793E-006	0.0234838	7
	21	211	2390.625	106456	-447475.9	1	459964.8	-76.61791	-3.337061E-006	-0.0048951	7
	22	218	1884.191	72112.37	-461379.2	1	466980.7	-81.11669	4.927463E-006	-0.0008305	7
	23	225	1516.544	75646.27	-653131.7	1	657497.8	-83.39339	-7.292815E-006	0.0189588	7
	24	231	1193.986	182028.6	-817705.4	1	837721.1	-77.45007	7.529149E-006	-0.0183948	7
	25	238	946.5144	618942.6	-459458.8	1	770838.7	-36.58755	-1.72536E-006	0.0217795	7
	26	244	751.7689	517702.5	-1099286	1	1215091	-64.78217	-7.375399E-007	0.0231699	6
	27	249	597.4265	2113005	-1101688	1	2382961	-27.53683	-1.104593E-006	-0.0128554	7
	28	255	477.4305	975655	-1533504	1	1817564	-57.53443	-6.484093E-009	0.000624	6
	29	261	376.6741	1479607	-1642582	1	2210727	-47.98808	-6.708862E-010	0.0006069	5
	30	264	298.2954	1765457	-1777397	1	2505191	-45.1931	-7.596699E-010	0.0006195	5
	31	266	237.7717	1914431	-1986788	1	2759053	-46.06257	-7.180223E-009	0.0007085	6
	32	270	189.0121	2291284	-2116021	1	3118899	-42.72275	-7.140607E-009	0.0007124	6
	33	274	150.2404	2780368	-2150109	1	3514742	-37.71543	-7.599606E-010	0.0006253	5
	34	278	119.1737	3240917	-2000919	1	3808835	-31.69089	-7.407924E-010	0.0006692	5
	35	282	95.0169	3585023	-2240924	1	4227781	-32.00866	-8.632243E-010	0.0006379	5
	36	286	75.60484	4120295	-2330415	1	4733674	-29.49224	-8.818779E-010	0.0006954	5
	37	290	54.50582	4584965	-2393264	1	5172004	-27.5637	-8.142741E-010	0.000653	5
	38	295	45.95588	5630060	-1883126	1	5936644	-18.49391	-4.252802E-011	0.0006233	4
	39	297	37.20238	5994520	-1997509	1	6318569	-18.42923	-2.002258E-010	0.0006826	4
	40	300	30.04808	6131226	-1850191	1	6404306	-16.79199	-6.059846E-011	0.0007073	4
	41	303	23.91582	6455173	-1879626	1	6723262	-16.23457	-1.862304E-010	0.0007062	4
	42	305	18.60119	6962950	-2136823	1	7283453	-17.06045	1.751875E-010	0.0006416	4
	43	308	15.02404	7254000	-1497000	1	7406857	-11.66037	-1.212504E-010	0.0006563	4
	44	310	12.01923	7570906	-1395317	1	7698411	-10.44243	-1.186644E-010	0.0006223	4
	45	313	9.450605	7808260	-1278265	1	7912198	-9.297235	-7.769385E-011	0.0006329	4
	46	316	7.512019	8039737	-1089987	1	8113288	-7.720796	-1.117278E-010	0.0006351	4
	47	319	5.978954	8326238	-1020067	1	8388491	-6.984635	-8.769496E-011	0.0006749	4
	48	323	4.734848	8618887	-931747.9	1	8669104	-6.17002	-9.540951E-011	0.0006804	4
	49	328	3.75601	8927653	-842356.6	1	8967305	-5.390108	-8.290085E-011	0.0006231	4
	50	333	3.004808	9304063	-775060.9	1	9336290	-4.761943	-6.763907E-011	0.0006446	4
	51	340	2.372217	9.586608E+006	-704656.2	1	9.612471E+006	-4.203922	-9.157133E-011	0.0006093	4
	52	344	1.878005	9.86462E+006	-638982.6	1	9.885293E+006	-3.706167	-8.397E-011	0.0006666	4
	53	349	1.512097	1.016291E+007	-586178.4	1	1.01798E+007	-3.30106	-9.198926E-011	0.0005614	4
	54	354	1.201923	1.051213E+007	-547342	1	1.052637E+007	-2.980565	-7.994606E-011	0.0006738	4
	55	360	0.956633	1.088836E+007	-512367	1	1.090041E+007	-2.694147	-1.387366E-010	2.117587E-005	4
