EXPLAIN
TAG	EISPOT
TITLE	LABEL	Potentiostatic EIS	Test Identifier
DATE	LABEL	2/26/2021	Date
TIME	LABEL	2:05:33	Time
NOTES	NOTES	1	Notes...
	
PSTAT	PSTAT	REF3000-16137	Potentiostat
VDC	POTEN	0.00000E+000	T	DC Voltage (V)
FREQINIT	QUANT	3.00000E+005	Initial Freq. (Hz)
FREQFINAL	QUANT	1.00000E+000	Final Freq. (Hz)
PTSPERDEC	QUANT	1.00000E+001	Points/decade
VAC	QUANT	5.00000E+001	AC Voltage (mV rms)
AREA	QUANT	1.00000E+000	Sample Area (cm^2)
SPEED	SELECTOR	2	Optimize for:
ZGUESS	QUANT	1.00000E+003	Estimated Z (ohms)
EOC	QUANT	0	Open Circuit (V)
SEQUENCER	TOGGLE	TRUE	Run as Sequence
PSTATMODEL	IQUANT	5	Pstat Model
PSTATSECTION	LABEL	REF3000-16137	Pstat Section
PSTATSERIALNO	LABEL	16137	Pstat Serial Number
CTRLMODE	IQUANT	1	Control Mode
IESTAB	IQUANT	0	I/E Stability
CASPEED	IQUANT	1	Control Amp Speed
CONVENTION	IQUANT	1	Current Convention
ICHRANGE	IQUANT	2	Ich Range
ICHRANGEMODE	TOGGLE	F	Ich Auto Range
ICHOFFSETENABLE	TOGGLE	T	Ich Offset Enable
ICHOFFSET	QUANT	0	Ich Offset (V)
ICHFILTER	IQUANT	3	Ich Filter
VCHRANGE	IQUANT	2	Vch Range
VCHRANGEMODE	TOGGLE	F	Vch Auto Range
VCHOFFSETENABLE	TOGGLE	T	Vch Offset Enable
VCHOFFSET	QUANT	0	Vch Offset (V)
VCHFILTER	IQUANT	3	Vch Filter
ACHRANGE	IQUANT	2	Ach Range
ACHOFFSETENABLE	TOGGLE	F	Ach Offset Enable
ACHOFFSET	QUANT	0	Ach Offset (V)
ACHFILTER	IQUANT	3	Ach Filter
IERANGELOWERLIMIT	IQUANT	2	I/E Range Lower Limit
IERANGEMODE	TOGGLE	F	I/E AutoRange
IERANGE	IQUANT	11	I/E Range
POSFEEDENABLE	TOGGLE	F	Positive Feedback IR Comp
POSFEEDRESISTANCE	QUANT	0	Positive Feedback Resistance (ohm)
ACHSELECT	IQUANT	0	Ach Select
CABLEID	IQUANT	13	Cable ID
DCCALDATE	LABEL	7/31/2020	DC Calibration Date
ACCALDATE	LABEL	7/31/2020	AC Calibration Date
THERMOSELECT	IQUANT	1	Thermo Select
FRAMEWORKVERSION	QUANT	6.33	Framework Version
INSTRUMENTVERSION	LABEL	3.50	Instrument Version
COMPLIANCEVOLTAGE	IQUANT	0	Compliance Voltage
ZCURVE	TABLE
	Pt	Time	Freq	Zreal	Zimag	Zsig	Zmod	Zphz	Idc	Vdc	IERange
	#	s	Hz	ohm	ohm	V	ohm	°	A	V	#
	0	7	300046.9	121.1854	-6.472606	1	121.3581	-3.057308	-8.492562E-005	0.0027456	9
	1	10	238359.4	122.5464	-5.883334	1	122.6876	-2.748604	-6.651069E-005	0.0027231	9
	2	13	189328.1	124.0846	-4.925112	1	124.1823	-2.272965	4.935382E-005	-0.0004616	9
	3	16	150421.9	125.058	-4.502017	1	125.139	-2.061725	-9.738454E-006	-0.0010988	9
	4	18	119484.4	126.1966	-3.771347	1	126.2529	-1.711758	-7.963135E-005	0.0029336	9
	5	21	94921.88	127.1594	-3.083676	1	127.1968	-1.389177	2.527838E-005	-0.0006116	9
	6	23	75421.88	128.1802	-2.846606	1	128.2118	-1.272207	8.852002E-007	-0.0004207	9
	7	26	59859.37	129.0769	-2.750683	1	129.1062	-1.220812	-2.14995E-005	0.000685	9
	8	28	47578.12	130.0199	-2.525088	1	130.0444	-1.112589	1.465426E-006	0.0004768	9
	9	31	37828.12	130.9716	-2.52334	1	130.9959	-1.103742	-2.30043E-005	0.0007972	9
	10	33	30046.88	131.9541	-2.575004	1	131.9792	-1.117951	-1.725321E-005	0.0003244	9
	11	36	23859.38	132.8765	-2.6695	1	132.9033	-1.150922	1.991698E-005	-0.0001266	9
	12	38	18984.38	133.8373	-2.822007	1	133.8671	-1.207923	-2.228873E-005	0.0009516	9
	13	40	15046.87	134.8174	-3.014725	1	134.8511	-1.281009	-1.75467E-005	0.0003359	9
	14	43	11953.13	135.7815	-3.426015	1	135.8247	-1.445371	1.903197E-005	-0.0007268	9
	15	45	9515.62	136.6929	-3.735428	1	136.7439	-1.565341	-2.139225E-005	0.0006712	9
	16	47	7546.875	137.7347	-4.170658	1	137.7978	-1.734407	-1.436282E-005	0.0008707	9
	17	50	5928.309	138.915	-4.816224	1	138.9985	-1.985666	-2.352856E-006	-0.0002699	9
	18	52	4733.456	140.0457	-5.63946	1	140.1592	-2.305981	2.444956E-006	0.0005245	9
	19	54	3796.875	141.2085	-6.497035	1	141.3579	-2.634334	1.931023E-005	-0.0006997	9
	20	57	2987.132	142.5016	-7.548257	1	142.7014	-3.032102	-1.674465E-005	0.0003153	9
	21	59	2390.625	143.9227	-8.643987	1	144.182	-3.437052	1.576433E-006	-0.0003724	9
	22	61	1884.191	145.2367	-10.84539	1	145.6411	-4.270574	2.463284E-005	-0.0004326	9
	23	64	1516.544	146.9386	-12.14617	1	147.4397	-4.725415	1.984589E-005	-0.0007396	9
	24	66	1193.986	148.6796	-14.29629	1	149.3653	-5.492393	-1.903076E-005	0.0009033	9
	25	68	946.5144	150.5565	-17.09988	1	151.5245	-6.479763	6.327142E-006	-0.0005061	9
	26	71	751.7689	152.6423	-20.14979	1	153.9665	-7.519944	-1.386699E-005	0.000904	9
	27	73	597.4265	154.924	-23.98428	1	156.7695	-8.800281	2.60132E-005	-0.000605	9
	28	75	477.4305	157.5504	-28.51644	1	160.1103	-10.2594	1.169767E-006	8.567565E-005	9
	29	78	376.6741	160.6125	-34.09773	1	164.192	-11.98584	1.150323E-006	8.117064E-005	9
	30	80	298.2954	164.0657	-40.66734	1	169.0308	-13.92144	1.264551E-006	8.310635E-005	9
	31	82	237.7717	167.9725	-48.25151	1	174.7655	-16.02716	1.299547E-006	7.692225E-005	9
	32	85	189.0121	172.4701	-57.3606	1	181.7586	-18.39624	1.165492E-006	8.185083E-005	9
	33	87	150.2404	177.578	-68.19485	1	190.2222	-21.00817	1.195306E-006	8.292183E-005	9
	34	90	119.1737	183.4664	-81.21503	1	200.6385	-23.87753	1.187267E-006	8.120639E-005	9
	35	92	95.0169	190.029	-96.3965	1	213.0805	-26.89742	1.180419E-006	8.332841E-005	9
	36	95	75.60484	197.5545	-114.6784	1	228.427	-30.13474	1.081163E-006	8.157155E-005	9
	37	97	54.50582	209.6759	-147.2997	1	256.2444	-35.08846	1.165395E-006	7.566906E-005	9
	38	100	45.95588	217.3658	-168.1463	1	274.8109	-37.72424	1.211268E-006	8.322763E-005	9
	39	102	37.20238	227.5285	-198.2657	1	301.7921	-41.06851	1.292208E-006	6.402882E-005	9
	40	104	30.04808	238.9988	-234.6565	1	334.9389	-44.47475	1.240262E-006	7.622915E-005	9
	41	107	23.91582	252.681	-281.4866	1	378.2623	-48.08675	1.260982E-006	8.114953E-005	9
	42	109	18.60119	268.3024	-343.4782	1	435.848	-52.00541	1.025011E-007	0.0006553	8
	43	111	15.02404	284.4977	-409.1647	1	498.352	-55.18859	2.133382E-007	0.0006441	8
	44	114	12.01923	303.4856	-492.5973	1	578.5807	-58.36308	2.620453E-007	0.0006529	8
	45	116	9.450605	326.4072	-603.4432	1	686.0652	-61.59069	1.387771E-007	0.0006614	8
	46	119	7.512019	351.3695	-734.5185	1	814.2346	-64.43508	1.65986E-007	0.0006401	8
	47	121	5.978954	379.7635	-895.6638	1	972.848	-67.02294	1.903548E-007	0.0006484	8
	48	124	4.734848	414.3213	-1099.79	1	1175.245	-69.35722	2.099294E-007	0.0006453	8
	49	128	3.75601	454.0345	-1351.821	1	1426.032	-71.43441	1.989289E-007	0.000652	8
	50	131	3.004808	499.9174	-1650.265	1	1724.324	-73.14679	2.175754E-007	0.0006227	8
	51	135	2.372217	557.2582	-2040.757	1	2115.473	-74.7269	2.120924E-007	0.00062	8
	52	139	1.878005	632.0916	-2524.865	1	2602.783	-75.94506	1.842E-007	0.000662	8
	53	144	1.512097	713.9603	-3075.734	1	3157.511	-76.93156	1.990473E-007	0.0005507	8
	54	149	1.201923	819.7802	-3793.565	1	3881.131	-77.80603	1.814967E-007	0.0006678	8
	55	156	0.956633	947.6023	-4679.734	1	4774.711	-78.55292	4.890965E-009	-7.2783E-006	7
