EXPLAIN
TAG	EISPOT
TITLE	LABEL	Potentiostatic EIS	Test Identifier
DATE	LABEL	2/26/2021	Date
TIME	LABEL	2:00:03	Time
NOTES	NOTES	1	Notes...
	
PSTAT	PSTAT	REF3000-16137	Potentiostat
VDC	POTEN	0.00000E+000	T	DC Voltage (V)
FREQINIT	QUANT	3.00000E+005	Initial Freq. (Hz)
FREQFINAL	QUANT	1.00000E+000	Final Freq. (Hz)
PTSPERDEC	QUANT	1.00000E+001	Points/decade
VAC	QUANT	5.00000E+001	AC Voltage (mV rms)
AREA	QUANT	1.00000E+000	Sample Area (cm^2)
SPEED	SELECTOR	2	Optimize for:
ZGUESS	QUANT	1.00000E+003	Estimated Z (ohms)
EOC	QUANT	0	Open Circuit (V)
SEQUENCER	TOGGLE	TRUE	Run as Sequence
PSTATMODEL	IQUANT	5	Pstat Model
PSTATSECTION	LABEL	REF3000-16137	Pstat Section
PSTATSERIALNO	LABEL	16137	Pstat Serial Number
CTRLMODE	IQUANT	1	Control Mode
IESTAB	IQUANT	0	I/E Stability
CASPEED	IQUANT	1	Control Amp Speed
CONVENTION	IQUANT	1	Current Convention
ICHRANGE	IQUANT	2	Ich Range
ICHRANGEMODE	TOGGLE	F	Ich Auto Range
ICHOFFSETENABLE	TOGGLE	T	Ich Offset Enable
ICHOFFSET	QUANT	0	Ich Offset (V)
ICHFILTER	IQUANT	3	Ich Filter
VCHRANGE	IQUANT	2	Vch Range
VCHRANGEMODE	TOGGLE	F	Vch Auto Range
VCHOFFSETENABLE	TOGGLE	T	Vch Offset Enable
VCHOFFSET	QUANT	0	Vch Offset (V)
VCHFILTER	IQUANT	3	Vch Filter
ACHRANGE	IQUANT	2	Ach Range
ACHOFFSETENABLE	TOGGLE	F	Ach Offset Enable
ACHOFFSET	QUANT	0	Ach Offset (V)
ACHFILTER	IQUANT	3	Ach Filter
IERANGELOWERLIMIT	IQUANT	2	I/E Range Lower Limit
IERANGEMODE	TOGGLE	F	I/E AutoRange
IERANGE	IQUANT	11	I/E Range
POSFEEDENABLE	TOGGLE	F	Positive Feedback IR Comp
POSFEEDRESISTANCE	QUANT	0	Positive Feedback Resistance (ohm)
ACHSELECT	IQUANT	0	Ach Select
CABLEID	IQUANT	13	Cable ID
DCCALDATE	LABEL	7/31/2020	DC Calibration Date
ACCALDATE	LABEL	7/31/2020	AC Calibration Date
THERMOSELECT	IQUANT	1	Thermo Select
FRAMEWORKVERSION	QUANT	6.33	Framework Version
INSTRUMENTVERSION	LABEL	3.50	Instrument Version
COMPLIANCEVOLTAGE	IQUANT	0	Compliance Voltage
ZCURVE	TABLE
	Pt	Time	Freq	Zreal	Zimag	Zsig	Zmod	Zphz	Idc	Vdc	IERange
	#	s	Hz	ohm	ohm	V	ohm	°	A	V	#
	0	7	300046.9	57.20607	0.1830454	1	57.20637	0.1833318	-5.768169E-005	0.0012649	9
	1	10	238359.4	57.72636	-0.1162983	1	57.72648	-0.1154307	2.920963E-005	-0.0002092	9
	2	14	189328.1	58.31507	-0.2808791	1	58.31575	-0.2759675	1.654618E-006	0.0005064	9
	3	16	150421.9	58.64291	-0.417104	1	58.6444	-0.4075155	-4.33384E-005	0.0007326	9
	4	19	119484.4	59.19817	-0.5674279	1	59.20089	-0.5491762	-7.00636E-006	0.0007971	9
	5	21	94921.88	59.68071	-0.4541737	1	59.68244	-0.4360159	-2.524325E-006	-0.0002036	9
	6	24	75421.88	60.08233	-0.6155987	1	60.08549	-0.5870274	1.722895E-005	-0.0002154	9
	7	26	59859.37	60.51992	-0.8186005	1	60.52545	-0.7749432	2.286417E-006	0.0003078	9
	8	29	47578.12	60.9798	-1.020158	1	60.98833	-0.958437	-1.274853E-005	0.0001636	9
	9	31	37828.12	61.45834	-1.199775	1	61.47005	-1.118372	-1.641394E-005	0.0004641	9
	10	34	30046.88	61.94721	-1.394421	1	61.96291	-1.2895	1.951115E-005	-0.0002825	9
	11	36	23859.38	62.44796	-1.613953	1	62.46881	-1.480467	-1.356179E-005	0.0001944	9
	12	39	18984.38	62.94408	-1.843483	1	62.97107	-1.677578	-1.031229E-005	0.0006523	9
	13	41	15046.87	63.42159	-2.11774	1	63.45694	-1.912479	-1.753319E-005	0.0006141	9
	14	43	11953.13	63.98368	-2.449904	1	64.03056	-2.192756	-1.312026E-005	0.0002014	9
	15	46	9515.62	64.5331	-2.857323	1	64.59632	-2.535221	-1.717829E-005	0.0003957	9
	16	48	7546.875	65.09304	-3.349304	1	65.17915	-2.945505	1.065601E-005	0.0001704	9
	17	50	5928.309	65.77519	-3.959906	1	65.89429	-3.445256	1.930859E-005	-0.0005568	9
	18	53	4733.456	66.39764	-4.649375	1	66.56023	-4.005496	1.584301E-005	-0.0005603	9
	19	55	3796.875	67.06552	-5.428458	1	67.28486	-4.627581	2.585724E-006	0.0003506	9
	20	57	2987.132	67.90194	-6.461836	1	68.20872	-5.436138	-1.716564E-005	0.0006948	9
	21	59	2390.625	68.73204	-7.626981	1	69.15392	-6.332029	2.819932E-006	0.000353	9
	22	62	1884.191	69.74671	-9.083619	1	70.33574	-7.420279	-1.478333E-005	0.000337	9
	23	64	1516.544	70.73065	-10.68689	1	71.53345	-8.591988	3.861559E-006	-0.0003439	9
	24	66	1193.986	71.98283	-12.76973	1	73.10674	-10.0596	1.0738E-005	-0.0005013	9
	25	69	946.5144	73.39999	-15.22722	1	74.96283	-11.72007	-2.61096E-006	-0.0001544	9
	26	71	751.7689	74.96777	-18.09761	1	77.12126	-13.57183	-1.7752E-005	0.0006024	9
	27	74	597.4265	76.84502	-21.47791	1	79.79008	-15.61549	4.60447E-006	-0.0003717	9
	28	76	477.4305	78.87442	-25.34314	1	82.84593	-17.81273	1.309598E-006	8.719476E-005	9
	29	78	376.6741	81.35797	-30.18769	1	86.77797	-20.35726	1.313938E-006	7.782861E-005	9
	30	80	298.2954	84.16422	-35.84329	1	91.47872	-23.06786	1.273839E-006	8.689961E-005	9
	31	83	237.7717	87.30225	-42.34933	1	97.0317	-25.8775	1.28772E-006	8.304376E-005	9
	32	85	189.0121	90.89994	-50.15343	1	103.8179	-28.88742	1.347216E-006	8.211467E-005	9
	33	88	150.2404	94.97065	-59.43563	1	112.0358	-32.03963	1.319321E-006	7.72708E-005	9
	34	90	119.1737	99.5981	-70.62931	1	122.0995	-35.34209	1.331004E-006	8.101112E-005	9
	35	92	95.0169	104.6919	-83.73976	1	134.0624	-38.65523	1.336377E-006	7.168221E-005	9
	36	95	75.60484	110.4545	-99.6365	1	148.7536	-42.05233	1.278489E-006	8.239983E-005	9
	37	97	54.50582	119.6813	-128.2423	1	175.4129	-46.97769	1.348681E-006	7.819875E-005	9
	38	100	45.95588	125.3051	-146.6741	1	192.911	-49.49241	1.342783E-006	8.300904E-005	9
	39	102	37.20238	132.7572	-173.5347	1	218.492	-52.58335	1.286576E-006	8.390155E-005	9
	40	105	30.04808	141.1042	-206.2623	1	249.909	-55.62394	1.257412E-006	8.540873E-005	9
	41	107	23.91582	150.9387	-248.859	1	291.0555	-58.76223	1.209736E-006	8.16184E-005	9
	42	109	18.60119	162.9917	-307.121	1	347.6919	-62.04473	1.317235E-006	8.357962E-005	9
	43	112	15.02404	174.6269	-368.4164	1	407.7073	-64.63937	1.396525E-006	8.956894E-005	9
	44	114	12.01923	187.5215	-444.898	1	482.8028	-67.14491	3.92777E-007	0.0006561	8
	45	116	9.450605	204.5281	-549.1815	1	586.0308	-69.57349	3.440539E-007	0.0006547	8
	46	119	7.512019	223.6558	-673.5858	1	709.7462	-71.63189	3.548054E-007	0.000652	8
	47	122	5.978954	246.4673	-825.9659	1	861.9547	-73.38496	3.717712E-007	0.0006599	8
	48	125	4.734848	275.1643	-1020.025	1	1056.488	-74.90312	3.876314E-007	0.0006349	8
	49	128	3.75601	309.3865	-1257.901	1	1295.39	-76.18211	3.651233E-007	0.0006533	8
	50	131	3.004808	349.7611	-1540.103	1	1579.319	-77.20501	3.512896E-007	0.0006979	8
	51	135	2.372217	401.0535	-1910.344	1	1951.988	-78.14363	3.537216E-007	0.0007237	8
	52	139	1.878005	465.9107	-2363.222	1	2408.711	-78.84713	3.579523E-007	0.0006387	8
	53	144	1.512097	540.4553	-2877.485	1	2927.8	-79.36252	3.852036E-007	0.0007484	8
	54	149	1.201923	628.9319	-3554.133	1	3609.351	-79.96494	3.723062E-007	0.0006353	8
	55	156	0.956633	737.5358	-4388.603	1	4450.145	-80.46018	2.362701E-008	-3.513736E-006	7
