EXPLAIN
TAG	EISPOT
TITLE	LABEL	Potentiostatic EIS	Test Identifier
DATE	LABEL	2/26/2021	Date
TIME	LABEL	2:08:18	Time
NOTES	NOTES	1	Notes...
	
PSTAT	PSTAT	REF3000-16137	Potentiostat
VDC	POTEN	0.00000E+000	T	DC Voltage (V)
FREQINIT	QUANT	3.00000E+005	Initial Freq. (Hz)
FREQFINAL	QUANT	1.00000E+000	Final Freq. (Hz)
PTSPERDEC	QUANT	1.00000E+001	Points/decade
VAC	QUANT	5.00000E+001	AC Voltage (mV rms)
AREA	QUANT	1.00000E+000	Sample Area (cm^2)
SPEED	SELECTOR	2	Optimize for:
ZGUESS	QUANT	1.00000E+003	Estimated Z (ohms)
EOC	QUANT	0	Open Circuit (V)
SEQUENCER	TOGGLE	TRUE	Run as Sequence
PSTATMODEL	IQUANT	5	Pstat Model
PSTATSECTION	LABEL	REF3000-16137	Pstat Section
PSTATSERIALNO	LABEL	16137	Pstat Serial Number
CTRLMODE	IQUANT	1	Control Mode
IESTAB	IQUANT	0	I/E Stability
CASPEED	IQUANT	1	Control Amp Speed
CONVENTION	IQUANT	1	Current Convention
ICHRANGE	IQUANT	2	Ich Range
ICHRANGEMODE	TOGGLE	F	Ich Auto Range
ICHOFFSETENABLE	TOGGLE	T	Ich Offset Enable
ICHOFFSET	QUANT	0	Ich Offset (V)
ICHFILTER	IQUANT	3	Ich Filter
VCHRANGE	IQUANT	2	Vch Range
VCHRANGEMODE	TOGGLE	F	Vch Auto Range
VCHOFFSETENABLE	TOGGLE	T	Vch Offset Enable
VCHOFFSET	QUANT	0	Vch Offset (V)
VCHFILTER	IQUANT	3	Vch Filter
ACHRANGE	IQUANT	2	Ach Range
ACHOFFSETENABLE	TOGGLE	F	Ach Offset Enable
ACHOFFSET	QUANT	0	Ach Offset (V)
ACHFILTER	IQUANT	3	Ach Filter
IERANGELOWERLIMIT	IQUANT	2	I/E Range Lower Limit
IERANGEMODE	TOGGLE	F	I/E AutoRange
IERANGE	IQUANT	11	I/E Range
POSFEEDENABLE	TOGGLE	F	Positive Feedback IR Comp
POSFEEDRESISTANCE	QUANT	0	Positive Feedback Resistance (ohm)
ACHSELECT	IQUANT	0	Ach Select
CABLEID	IQUANT	13	Cable ID
DCCALDATE	LABEL	7/31/2020	DC Calibration Date
ACCALDATE	LABEL	7/31/2020	AC Calibration Date
THERMOSELECT	IQUANT	1	Thermo Select
FRAMEWORKVERSION	QUANT	6.33	Framework Version
INSTRUMENTVERSION	LABEL	3.50	Instrument Version
COMPLIANCEVOLTAGE	IQUANT	0	Compliance Voltage
ZCURVE	TABLE
	Pt	Time	Freq	Zreal	Zimag	Zsig	Zmod	Zphz	Idc	Vdc	IERange
	#	s	Hz	ohm	ohm	V	ohm	°	A	V	#
	0	9	300046.9	177.7475	-15.99755	1	178.4659	-5.142854	1.604631E-005	-0.0014976	9
	1	12	238359.4	180.6689	-13.70167	1	181.1877	-4.336928	2.769938E-005	0.0004734	9
	2	15	189328.1	183.0313	-11.36079	1	183.3836	-3.551802	2.78974E-005	0.0005088	9
	3	18	150421.9	185.4926	-9.98207	1	185.761	-3.080336	-1.400526E-005	0.0010421	9
	4	21	119484.4	187.3895	-8.04247	1	187.562	-2.457539	7.227765E-005	-0.0026633	9
	5	24	94921.88	189.1579	-6.99353	1	189.2872	-2.11737	1.535481E-005	-0.0007587	9
	6	27	75421.88	190.7592	-6.051287	1	190.8551	-1.816935	1.1301E-005	0.0002878	9
	7	29	59859.37	192.2856	-5.33068	1	192.3595	-1.587988	-1.742718E-005	0.0001766	9
	8	32	47578.12	193.7401	-4.697858	1	193.797	-1.38905	2.135115E-005	-0.0007726	9
	9	35	37828.12	195.1049	-4.217347	1	195.1505	-1.238301	1.057562E-005	0.0002525	9
	10	37	30046.88	196.5079	-4.075943	1	196.5501	-1.188252	-2.258273E-005	0.0006474	9
	11	40	23859.38	197.8698	-4.012267	1	197.9105	-1.161645	1.527524E-005	-0.0007436	9
	12	42	18984.38	199.1994	-3.898023	1	199.2375	-1.121047	-1.491863E-005	0.0001304	9
	13	44	15046.87	200.8431	-3.979532	1	200.8826	-1.135118	1.731578E-006	0.0006313	9
	14	47	11953.13	202.1751	-4.012614	1	202.2149	-1.137013	-9.797797E-006	-4.386071E-005	9
	15	49	9515.62	203.5192	-4.652336	1	203.5724	-1.309521	2.572994E-005	-0.0008011	9
	16	51	7546.875	205.0911	-5.053084	1	205.1534	-1.411382	-2.26134E-005	0.0008852	9
	17	53	5928.309	206.6118	-5.55957	1	206.6866	-1.54136	-8.287999E-006	0.0008595	9
	18	56	4733.456	208.3845	-6.581209	1	208.4884	-1.808917	-1.281225E-006	-0.0003375	9
	19	58	3796.875	210.1112	-7.11871	1	210.2318	-1.940478	2.69407E-005	-0.0006404	9
	20	60	2987.132	211.5974	-8.181188	1	211.7555	-2.214177	1.524298E-005	-0.0007497	9
	21	63	2390.625	213.4207	-9.69456	1	213.6407	-2.600852	-7.84483E-006	0.0007846	9
	22	65	1884.191	214.9024	-10.81873	1	215.1746	-2.88198	-9.368068E-006	-6.482122E-005	9
	23	67	1516.544	217.6011	-13.04747	1	217.9919	-3.431374	2.123577E-005	-0.0007834	9
	24	70	1193.986	219.6229	-15.44442	1	220.1653	-4.022558	-2.287715E-005	0.000704	9
	25	72	946.5144	222.2342	-18.10159	1	222.9702	-4.656619	-2.101071E-005	0.0005169	9
	26	75	751.7689	225.0248	-21.84098	1	226.0823	-5.54378	2.132798E-005	-0.000782	9
	27	77	597.4265	227.3048	-25.29411	1	228.7079	-6.349656	2.4975E-005	-0.0007354	9
	28	79	477.4305	230.8828	-30.31997	1	232.8651	-7.481382	1.206309E-006	7.963417E-005	9
	29	82	376.6741	234.4733	-36.26872	1	237.2618	-8.792919	1.089304E-006	8.868778E-005	9
	30	84	298.2954	238.5231	-43.3135	1	242.4238	-10.29221	1.229582E-006	8.427829E-005	9
	31	86	237.7717	243.0318	-51.48581	1	248.4256	-11.96115	1.206375E-006	8.434388E-005	9
	32	89	189.0121	248.1864	-61.3344	1	255.6528	-13.8814	1.224938E-006	8.525908E-005	9
	33	91	150.2404	254.0539	-73.05943	1	264.3502	-16.04389	1.261875E-006	8.308477E-005	9
	34	94	119.1737	260.7677	-87.17237	1	274.9524	-18.48433	1.205799E-006	8.222192E-005	9
	35	96	95.0169	268.2859	-103.6152	1	287.5994	-21.11715	1.212702E-006	8.218443E-005	9
	36	98	75.60484	276.9689	-123.3867	1	303.2096	-24.01246	1.263286E-006	7.810289E-005	9
	37	101	54.50582	290.8159	-158.5538	1	331.2299	-28.59937	1.195029E-006	7.645023E-005	9
	38	103	45.95588	299.7682	-180.9207	1	350.1332	-31.11246	1.139351E-006	8.897013E-005	9
	39	106	37.20238	310.2544	-212.297	1	375.9359	-34.38258	1.422043E-007	0.000657	8
	40	108	30.04808	323.6743	-250.9863	1	409.5842	-37.79102	1.271526E-007	0.0006527	8
	41	111	23.91582	339.6065	-300.6326	1	453.5555	-41.51648	1.54129E-007	0.0006128	8
	42	113	18.60119	359.2521	-367.5705	1	513.9749	-45.65572	2.192494E-007	0.0006661	8
	43	115	15.02404	378.3738	-436.6876	1	577.8086	-49.09227	1.494505E-007	0.0006652	8
	44	118	12.01923	400.6967	-524.4484	1	660.003	-52.61892	1.170442E-007	0.0006671	8
	45	120	9.450605	427.7565	-640.3409	1	770.0728	-56.25653	9.11937E-008	0.0006828	8
	46	123	7.512019	457.3546	-776.9352	1	901.5551	-59.51617	1.076315E-007	0.0006582	8
	47	125	5.978954	490.4669	-943.637	1	1063.489	-62.53629	1.085431E-007	0.0006568	8
	48	128	4.734848	529.7699	-1155.691	1	1271.329	-65.37323	1.405554E-007	0.000666	8
	49	132	3.75601	574.8848	-1415.293	1	1527.595	-67.89326	1.077788E-007	0.0006557	8
	50	135	3.004808	625.1762	-1723.58	1	1833.46	-70.0633	1.44865E-007	0.0006218	8
	51	139	2.372217	688.0505	-2126.715	1	2235.248	-72.07219	1.280746E-007	0.0006346	8
	52	143	1.878005	768.1807	-2628.777	1	2738.717	-73.71059	1.034107E-007	0.0006567	8
	53	148	1.512097	850.6209	-3198.474	1	3309.652	-75.10715	1.303303E-007	0.0005734	8
	54	153	1.201923	967.853	-3945.751	1	4062.72	-76.21803	1.062419E-007	0.0006541	8
	55	159	0.956633	1105.713	-4865.646	1	4989.7	-77.19702	-6.281639E-009	-1.197155E-005	7
