EXPLAIN
TAG	EISPOT
TITLE	LABEL	Potentiostatic EIS	Test Identifier
DATE	LABEL	2/26/2021	Date
TIME	LABEL	2:55:25	Time
NOTES	NOTES	1	Notes...
	
PSTAT	PSTAT	REF3000-16137	Potentiostat
VDC	POTEN	0.00000E+000	T	DC Voltage (V)
FREQINIT	QUANT	3.00000E+005	Initial Freq. (Hz)
FREQFINAL	QUANT	1.00000E+000	Final Freq. (Hz)
PTSPERDEC	QUANT	1.00000E+001	Points/decade
VAC	QUANT	5.00000E+001	AC Voltage (mV rms)
AREA	QUANT	1.00000E+000	Sample Area (cm^2)
SPEED	SELECTOR	2	Optimize for:
ZGUESS	QUANT	1.00000E+003	Estimated Z (ohms)
EOC	QUANT	0	Open Circuit (V)
SEQUENCER	TOGGLE	TRUE	Run as Sequence
PSTATMODEL	IQUANT	5	Pstat Model
PSTATSECTION	LABEL	REF3000-16137	Pstat Section
PSTATSERIALNO	LABEL	16137	Pstat Serial Number
CTRLMODE	IQUANT	1	Control Mode
IESTAB	IQUANT	0	I/E Stability
CASPEED	IQUANT	1	Control Amp Speed
CONVENTION	IQUANT	1	Current Convention
ICHRANGE	IQUANT	2	Ich Range
ICHRANGEMODE	TOGGLE	F	Ich Auto Range
ICHOFFSETENABLE	TOGGLE	T	Ich Offset Enable
ICHOFFSET	QUANT	0	Ich Offset (V)
ICHFILTER	IQUANT	3	Ich Filter
VCHRANGE	IQUANT	2	Vch Range
VCHRANGEMODE	TOGGLE	F	Vch Auto Range
VCHOFFSETENABLE	TOGGLE	T	Vch Offset Enable
VCHOFFSET	QUANT	0	Vch Offset (V)
VCHFILTER	IQUANT	3	Vch Filter
ACHRANGE	IQUANT	2	Ach Range
ACHOFFSETENABLE	TOGGLE	F	Ach Offset Enable
ACHOFFSET	QUANT	0	Ach Offset (V)
ACHFILTER	IQUANT	3	Ach Filter
IERANGELOWERLIMIT	IQUANT	2	I/E Range Lower Limit
IERANGEMODE	TOGGLE	F	I/E AutoRange
IERANGE	IQUANT	11	I/E Range
POSFEEDENABLE	TOGGLE	F	Positive Feedback IR Comp
POSFEEDRESISTANCE	QUANT	0	Positive Feedback Resistance (ohm)
ACHSELECT	IQUANT	0	Ach Select
CABLEID	IQUANT	13	Cable ID
DCCALDATE	LABEL	7/31/2020	DC Calibration Date
ACCALDATE	LABEL	7/31/2020	AC Calibration Date
THERMOSELECT	IQUANT	1	Thermo Select
FRAMEWORKVERSION	QUANT	6.33	Framework Version
INSTRUMENTVERSION	LABEL	3.50	Instrument Version
COMPLIANCEVOLTAGE	IQUANT	0	Compliance Voltage
ZCURVE	TABLE
	Pt	Time	Freq	Zreal	Zimag	Zsig	Zmod	Zphz	Idc	Vdc	IERange
	#	s	Hz	ohm	ohm	V	ohm	°	A	V	#
	0	14	300046.9	-39.85498	-4444.75	1	4444.929	-90.51374	-2.712988E-005	-0.0012239	9
	1	35	238359.4	59.35561	-5510.946	1	5511.266	-89.38292	-1.980186E-005	0.0010243	9
	2	49	189328.1	285.6015	-6807.535	1	6813.523	-87.59763	2.459983E-005	0.0011407	9
	3	57	150421.9	72.12806	-8420.185	1	8420.493	-89.50921	2.412005E-005	0.0011566	9
	4	65	119484.4	100.4206	-10780.04	1	10780.51	-89.46628	-2.565867E-005	-0.0009687	9
	5	77	94921.88	613.5402	-13402.92	1	13416.96	-87.37902	-1.038127E-006	-0.0051102	8
	6	86	75421.88	610.0642	-16943.34	1	16954.32	-87.93789	8.532963E-006	0.0041967	8
	7	94	59859.37	822.0068	-21193.57	1	21209.51	-87.77886	-2.034802E-005	0.0028795	8
	8	102	47578.12	167.9599	-24994.62	1	24995.18	-89.61499	8.265398E-006	0.0041928	8
	9	110	37828.12	4727.666	-34268.94	1	34593.51	-82.14519	5.255126E-006	-0.026219	7
	10	118	30046.88	4619.645	-42394.07	1	42645.02	-83.78107	7.493795E-006	-0.0183699	7
	11	125	23859.38	4648.001	-52949.41	1	53153.02	-84.98332	1.134693E-006	-0.0192083	7
	12	130	18984.38	5917.631	-66450.3	1	66713.27	-84.91103	7.610678E-006	-0.0242862	7
	13	136	15046.87	6441.384	-82651.59	1	82902.22	-85.54371	1.278813E-006	-0.0196305	7
	14	141	11953.13	4006.407	-101515.3	1	101594.3	-87.73994	-3.295974E-006	-0.0052121	7
	15	148	9515.62	8423.253	-129399.3	1	129673.1	-86.27558	-6.340255E-006	0.025389	7
	16	154	7546.875	14404.29	-160761.2	1	161405.3	-84.87994	-6.730746E-006	0.0121525	7
	17	159	5928.309	-5453.104	-226786.1	1	226851.6	-91.37742	-7.209877E-006	0.0234966	7
	18	165	4733.456	19567.04	-266943	1	267659.2	-85.80769	6.811882E-006	-0.0268087	7
	19	171	3796.875	45307.28	-318481.5	1	321688.1	-81.90341	7.343262E-006	-0.0233714	7
	20	178	2987.132	66619.86	-425111.2	1	430299.6	-81.09352	7.607029E-006	-0.0242575	7
	21	184	2390.625	73722.43	-492020.1	1	497512.6	-81.47841	-6.478027E-006	0.0257596	7
	22	191	1884.191	126023.9	-501091.4	1	516695.9	-75.88297	5.322137E-006	-0.0265474	7
	23	198	1516.544	34581.28	-606104.9	1	607090.6	-86.73454	5.342019E-006	-0.0265984	7
	24	206	1193.986	164734.2	-859221.8	1	874871.1	-79.14668	7.512551E-006	-0.0183423	7
	25	214	946.5144	-6191309	-2601769	1	6715766	-157.2064	6.655664E-006	-0.0102562	7
	26	220	751.7689	-2953311	-1693020	1	3404169	-150.176	6.733927E-007	0.0154633	7
	27	226	597.4265	753451.1	-2053904	1	2187740	-69.85502	-7.615252E-009	0.0173846	6
	28	230	477.4305	882847.2	-2231520	1	2399812	-68.41496	-7.829232E-010	0.0006083	5
	29	233	376.6741	803969.6	-2676772	1	2794901	-73.28233	-6.778597E-009	0.0006186	6
	30	237	298.2954	1391929	-3194657	1	3484724	-66.45699	-7.721342E-010	0.000658	5
	31	241	237.7717	1472661	-3856091	1	4127731	-69.09789	-7.493115E-009	0.0006822	6
	32	245	189.0121	2213521	-4466656	1	4985047	-63.63856	-7.5335E-010	0.0006578	5
	33	248	150.2404	2774706	-5294416	1	5977444	-62.34179	-7.733549E-010	0.0006254	5
	34	253	119.1737	3371622	-5600588	1	6537157	-58.95155	-7.274797E-010	0.0007083	5
	35	257	95.0169	4290665	-6778975	1	8022737	-57.66876	-7.151369E-010	0.0007068	5
	36	259	75.60484	4926543	-7525121	1	8994347	-56.78805	-6.483626E-010	0.0006288	5
	37	262	54.50582	7179155	-8880762	1	1.141964E+007	-51.04813	-8.0933E-010	0.0006948	5
	38	266	45.95588	9469673	-9.826679E+006	1	1.364692E+007	-46.05992	-7.626499E-011	0.0006342	4
	39	268	37.20238	1.083947E+007	-1.07943E+007	1	1.529742E+007	-44.88036	-3.427802E-011	0.0006138	4
	40	271	30.04808	1.251297E+007	-1.102886E+007	1	1.667963E+007	-41.39275	-6.394035E-011	0.0006884	4
	41	274	23.91582	1.378368E+007	-1.097432E+007	1	1.76189E+007	-38.52617	3.794454E-011	0.0006136	4
	42	277	18.60119	1.607804E+007	-1.103286E+007	1	1.949942E+007	-34.45818	6.442173E-012	0.0006305	4
	43	279	15.02404	1.954205E+007	-1.36995E+007	1	2.386562E+007	-35.03149	-1.03862E-010	0.0007102	4
	44	281	12.01923	2.083407E+007	-1.417543E+007	1	2.519923E+007	-34.23123	-6.779827E-010	0.0006483	5
	45	285	9.450605	2.356257E+007	-1.4328E+007	1	2.757691E+007	-31.30307	-7.626959E-010	0.0006919	5
	46	289	7.512019	2.676753E+007	-1.411132E+007	1	3.025938E+007	-27.79732	-8.189107E-010	0.0007274	5
	47	294	5.978954	2.951484E+007	-1.346127E+007	1	3.243966E+007	-24.517	-7.426537E-010	0.0006415	5
	48	299	4.734848	3.319293E+007	-1.384984E+007	1	3.596649E+007	-22.64846	-7.579269E-010	0.0006519	5
	49	305	3.75601	3.640924E+007	-1.239079E+007	1	3.845991E+007	-18.79446	-7.751266E-010	0.0006923	5
	50	312	3.004808	3.922735E+007	-1.256968E+007	1	4.119201E+007	-17.7671	-6.877376E-011	0.0006233	4
	51	320	2.372217	4.485293E+007	-9226975	1	4.579216E+007	-11.6245	-1.418293E-011	0.0007828	3
	52	324	1.878005	4.688076E+007	-8784785	1	4.769673E+007	-10.61333	-1.549353E-011	0.0007269	3
	53	329	1.512097	4.88062E+007	-8369180	1	4.951857E+007	-9.73032	-1.562488E-011	0.0006822	3
	54	334	1.201923	5.093535E+007	-7985960	1	5.15576E+007	-8.910646	-1.383808E-011	0.0007107	3
	55	341	0.956633	5.31939E+007	-7623790	1	5.373744E+007	-8.156133	-2.318382E-011	9.325481E-005	3
