EXPLAIN
TAG	EISPOT
TITLE	LABEL	Potentiostatic EIS	Test Identifier
DATE	LABEL	2/26/2021	Date
TIME	LABEL	1:15:11	Time
NOTES	NOTES	1	Notes...
	
PSTAT	PSTAT	REF3000-16137	Potentiostat
VDC	POTEN	0.00000E+000	T	DC Voltage (V)
FREQINIT	QUANT	3.00000E+005	Initial Freq. (Hz)
FREQFINAL	QUANT	1.00000E+000	Final Freq. (Hz)
PTSPERDEC	QUANT	1.00000E+001	Points/decade
VAC	QUANT	5.00000E+001	AC Voltage (mV rms)
AREA	QUANT	1.00000E+000	Sample Area (cm^2)
SPEED	SELECTOR	2	Optimize for:
ZGUESS	QUANT	1.00000E+003	Estimated Z (ohms)
EOC	QUANT	0	Open Circuit (V)
SEQUENCER	TOGGLE	TRUE	Run as Sequence
PSTATMODEL	IQUANT	5	Pstat Model
PSTATSECTION	LABEL	REF3000-16137	Pstat Section
PSTATSERIALNO	LABEL	16137	Pstat Serial Number
CTRLMODE	IQUANT	1	Control Mode
IESTAB	IQUANT	0	I/E Stability
CASPEED	IQUANT	1	Control Amp Speed
CONVENTION	IQUANT	1	Current Convention
ICHRANGE	IQUANT	2	Ich Range
ICHRANGEMODE	TOGGLE	F	Ich Auto Range
ICHOFFSETENABLE	TOGGLE	T	Ich Offset Enable
ICHOFFSET	QUANT	0	Ich Offset (V)
ICHFILTER	IQUANT	3	Ich Filter
VCHRANGE	IQUANT	2	Vch Range
VCHRANGEMODE	TOGGLE	F	Vch Auto Range
VCHOFFSETENABLE	TOGGLE	T	Vch Offset Enable
VCHOFFSET	QUANT	0	Vch Offset (V)
VCHFILTER	IQUANT	3	Vch Filter
ACHRANGE	IQUANT	2	Ach Range
ACHOFFSETENABLE	TOGGLE	F	Ach Offset Enable
ACHOFFSET	QUANT	0	Ach Offset (V)
ACHFILTER	IQUANT	3	Ach Filter
IERANGELOWERLIMIT	IQUANT	2	I/E Range Lower Limit
IERANGEMODE	TOGGLE	F	I/E AutoRange
IERANGE	IQUANT	11	I/E Range
POSFEEDENABLE	TOGGLE	F	Positive Feedback IR Comp
POSFEEDRESISTANCE	QUANT	0	Positive Feedback Resistance (ohm)
ACHSELECT	IQUANT	0	Ach Select
CABLEID	IQUANT	13	Cable ID
DCCALDATE	LABEL	7/31/2020	DC Calibration Date
ACCALDATE	LABEL	7/31/2020	AC Calibration Date
THERMOSELECT	IQUANT	1	Thermo Select
FRAMEWORKVERSION	QUANT	6.33	Framework Version
INSTRUMENTVERSION	LABEL	3.50	Instrument Version
COMPLIANCEVOLTAGE	IQUANT	0	Compliance Voltage
ZCURVE	TABLE
	Pt	Time	Freq	Zreal	Zimag	Zsig	Zmod	Zphz	Idc	Vdc	IERange
	#	s	Hz	ohm	ohm	V	ohm	°	A	V	#
	0	10	300046.9	2.723891	2.234955	1	3.523437	39.3689	8.181656E-005	-0.0003653	10
	1	14	238359.4	2.690414	1.782686	1	3.227428	33.52872	1.094176E-005	-0.0005949	10
	2	17	189328.1	2.748297	1.192653	1	2.995924	23.45894	-5.701173E-005	-0.0003452	12
	3	20	150421.9	2.664649	1.08267	1	2.876201	22.11233	7.747625E-006	0.0004145	11
	4	23	119484.4	2.646968	0.8417844	1	2.777596	17.64162	-0.000135	0.0002055	11
	5	25	94921.88	2.641154	0.6421996	1	2.718108	13.66633	-4.507613E-005	0.0005145	11
	6	28	75421.88	2.638911	0.4743021	1	2.681196	10.18921	-4.735645E-005	0.0005546	11
	7	30	59859.37	2.639251	0.3316297	1	2.660005	7.161848	-3.147143E-005	0.0006045	11
	8	33	47578.12	2.640729	0.2079892	1	2.648908	4.503435	-5.693933E-005	0.0006067	11
	9	36	37828.12	2.643749	0.0959812	1	2.645491	2.079208	-4.499542E-005	0.000632	11
	10	38	30046.88	2.649495	-0.0098884	1	2.649513	-0.2138381	-2.703274E-005	0.0006867	11
	11	41	23859.38	2.654795	-0.1153452	1	2.6573	-2.487816	-5.085695E-005	0.0006579	11
	12	43	18984.38	2.662706	-0.2242125	1	2.672129	-4.813223	4.11273E-006	0.0007293	11
	13	45	15046.87	2.672474	-0.344821	1	2.694628	-7.352077	-3.923211E-005	0.0007027	11
	14	48	11953.13	2.683141	-0.4803259	1	2.725796	-10.14937	-4.86618E-005	0.000676	11
	15	50	9515.62	2.697388	-0.6357617	1	2.771299	-13.2623	9.96236E-006	0.000719	11
	16	52	7546.875	2.716178	-0.8245471	1	2.838574	-16.88666	-3.689644E-005	0.0007039	11
	17	54	5928.309	2.739124	-1.061852	1	2.937742	-21.18937	-1.453569E-005	0.0007001	11
	18	57	4733.456	2.766761	-1.331889	1	3.07065	-25.70567	-2.465439E-005	0.0006949	11
	19	59	3796.875	2.800081	-1.654682	1	3.252449	-30.58058	-4.206472E-005	0.0006884	11
	20	61	2987.132	2.845693	-2.085127	1	3.52785	-36.23139	-2.614487E-005	0.000699	11
	21	64	2390.625	2.90211	-2.581151	1	3.883888	-41.65005	-1.065311E-005	0.000683	10
	22	66	1884.191	2.974916	-3.235897	1	4.395583	-47.40617	-2.396459E-005	0.0006924	10
	23	68	1516.544	3.059783	-3.969818	1	5.012158	-52.37634	2.258948E-005	0.0006734	10
	24	71	1193.986	3.17753	-4.968977	1	5.898088	-57.40216	-6.138224E-006	0.0006904	10
	25	73	946.5144	3.328627	-6.171194	1	7.011661	-61.65841	-1.761978E-005	0.0007014	10
	26	75	751.7689	3.511687	-7.64706	1	8.414836	-65.33444	-2.686483E-005	0.0006942	10
	27	78	597.4265	3.74509	-9.462825	1	10.17697	-68.40789	-1.944319E-005	0.0007005	10
	28	80	477.4305	4.031969	-11.63556	1	12.31434	-70.8877	-2.299463E-006	0.0006867	10
	29	82	376.6741	4.405664	-14.47221	1	15.12795	-73.06858	-2.436625E-006	0.0006848	10
	30	85	298.2954	4.859175	-17.9311	1	18.57783	-74.83749	-2.580726E-006	0.0006881	10
	31	87	237.7717	5.397438	-22.08064	1	22.73075	-76.26385	-2.355793E-006	0.0006845	10
	32	89	189.0121	6.059981	-27.2611	1	27.92653	-77.46727	-2.391785E-006	0.0006898	10
	33	92	150.2404	6.873677	-33.67196	1	34.36638	-78.46236	-2.218926E-006	0.0006834	10
	34	94	119.1737	7.885645	-41.68209	1	42.42146	-79.28708	-2.200254E-006	0.0006871	10
	35	97	95.0169	9.104056	-51.30669	1	52.10815	-79.93795	1.078306E-006	8.028717E-005	9
	36	99	75.60484	10.65523	-63.3558	1	64.24555	-80.45329	9.599992E-007	8.493105E-005	9
	37	102	54.50582	13.61422	-85.69328	1	86.76799	-80.97278	7.170902E-007	8.208521E-005	9
	38	104	45.95588	15.60952	-100.3104	1	101.5177	-81.15502	1.109053E-006	8.826714E-005	9
	39	107	37.20238	18.60395	-121.8014	1	123.214	-81.31576	9.0233E-007	0.0000983	9
	40	109	30.04808	22.41679	-148.2153	1	149.9009	-81.39949	1.024813E-006	8.472557E-005	9
	41	111	23.91582	27.39128	-182.5166	1	184.5605	-81.465	9.27112E-007	8.500915E-005	9
	42	114	18.60119	34.41727	-229.8256	1	232.3884	-81.48302	9.457843E-007	8.205594E-005	9
	43	116	15.02404	41.89039	-279.178	1	282.3033	-81.46649	1.147069E-006	0.0000965	9
	44	118	12.01923	51.55017	-342.1874	1	346.0486	-81.43288	1.118045E-006	9.130079E-005	9
	45	121	9.450605	64.38201	-425.6996	1	430.5406	-81.39987	1.104477E-006	5.228108E-005	9
	46	123	7.512019	79.49311	-522.4369	1	528.4501	-81.34834	5.463841E-007	0.0006464	8
	47	126	5.978954	98.5353	-643.1588	1	650.663	-81.28971	5.725472E-007	0.0006639	8
	48	129	4.734848	123.1263	-795.8897	1	805.3574	-81.2059	5.62792E-007	0.0006413	8
	49	132	3.75601	155.1339	-983.691	1	995.848	-81.03793	6.091086E-007	0.0006828	8
	50	136	3.004808	194.8871	-1205.852	1	1221.5	-80.81937	5.79889E-007	0.0006593	8
	51	139	2.372217	253.1286	-1496.559	1	1517.815	-80.39983	5.435797E-007	0.000617	8
	52	144	1.878005	327.9889	-1857.413	1	1886.149	-79.98573	6.068279E-007	0.0006598	8
	53	148	1.512097	420.7756	-2259.994	1	2298.831	-79.45318	5.578329E-007	0.0006989	8
	54	154	1.201923	565.7332	-2791.844	1	2848.586	-78.54482	6.036967E-007	0.0006703	8
	55	160	0.956633	763.7776	-3427.524	1	3511.592	-77.43765	5.282362E-007	1.436765E-005	8
