EXPLAIN
TAG	EISPOT
TITLE	LABEL	Potentiostatic EIS	Test Identifier
DATE	LABEL	8/18/2020	Date
TIME	LABEL	0:17:43	Time
NOTES	NOTES	1	Notes...
	
PSTAT	PSTAT	REF3000-16137	Potentiostat
VDC	POTEN	0.00000E+000	T	DC Voltage (V)
FREQINIT	QUANT	3.00000E+005	Initial Freq. (Hz)
FREQFINAL	QUANT	1.00000E+000	Final Freq. (Hz)
PTSPERDEC	QUANT	1.00000E+001	Points/decade
VAC	QUANT	5.00000E+001	AC Voltage (mV rms)
AREA	QUANT	1.00000E+000	Sample Area (cm^2)
SPEED	SELECTOR	2	Optimize for:
ZGUESS	QUANT	1.00000E+003	Estimated Z (ohms)
EOC	QUANT	0	Open Circuit (V)
SEQUENCER	TOGGLE	TRUE	Run as Sequence
PSTATMODEL	IQUANT	5	Pstat Model
PSTATSECTION	LABEL	REF3000-16137	Pstat Section
PSTATSERIALNO	LABEL	16137	Pstat Serial Number
CTRLMODE	IQUANT	1	Control Mode
IESTAB	IQUANT	0	I/E Stability
CASPEED	IQUANT	1	Control Amp Speed
CONVENTION	IQUANT	1	Current Convention
ICHRANGE	IQUANT	2	Ich Range
ICHRANGEMODE	TOGGLE	F	Ich Auto Range
ICHOFFSETENABLE	TOGGLE	T	Ich Offset Enable
ICHOFFSET	QUANT	0	Ich Offset (V)
ICHFILTER	IQUANT	3	Ich Filter
VCHRANGE	IQUANT	2	Vch Range
VCHRANGEMODE	TOGGLE	F	Vch Auto Range
VCHOFFSETENABLE	TOGGLE	T	Vch Offset Enable
VCHOFFSET	QUANT	0	Vch Offset (V)
VCHFILTER	IQUANT	3	Vch Filter
ACHRANGE	IQUANT	2	Ach Range
ACHOFFSETENABLE	TOGGLE	F	Ach Offset Enable
ACHOFFSET	QUANT	0	Ach Offset (V)
ACHFILTER	IQUANT	3	Ach Filter
IERANGELOWERLIMIT	IQUANT	2	I/E Range Lower Limit
IERANGEMODE	TOGGLE	F	I/E AutoRange
IERANGE	IQUANT	11	I/E Range
POSFEEDENABLE	TOGGLE	F	Positive Feedback IR Comp
POSFEEDRESISTANCE	QUANT	0	Positive Feedback Resistance (ohm)
ACHSELECT	IQUANT	0	Ach Select
CABLEID	IQUANT	13	Cable ID
DCCALDATE	LABEL	7/31/2020	DC Calibration Date
ACCALDATE	LABEL	7/31/2020	AC Calibration Date
THERMOSELECT	IQUANT	1	Thermo Select
FRAMEWORKVERSION	QUANT	6.33	Framework Version
INSTRUMENTVERSION	LABEL	3.50	Instrument Version
COMPLIANCEVOLTAGE	IQUANT	0	Compliance Voltage
ZCURVE	TABLE
	Pt	Time	Freq	Zreal	Zimag	Zsig	Zmod	Zphz	Idc	Vdc	IERange
	#	s	Hz	ohm	ohm	V	ohm	°	A	V	#
	0	10	300046.9	349.5662	-55.59146	1	353.959	-9.036071	2.175842E-005	0.0004005	10
	1	15	238359.4	352.051	-46.40885	1	355.0967	-7.509672	2.377754E-005	-0.0006114	9
	2	19	189328.1	355.7968	-49.08252	1	359.1664	-7.854434	-8.330971E-005	0.0038234	9
	3	26	150421.9	358.8877	-51.92753	1	362.6249	-8.233002	-6.243782E-005	0.0008415	9
	4	35	119484.4	362.5625	-57.71991	1	367.1283	-9.045571	5.824566E-006	0.0015202	9
	5	40	94921.88	368.9432	-53.79898	1	372.845	-8.29635	-8.338678E-006	0.0056645	8
	6	42	75421.88	373.4966	-64.65539	1	379.0515	-9.82105	-1.384432E-005	0.0046818	8
	7	45	59859.37	379.5681	-76.74166	1	387.2482	-11.43007	1.271561E-005	-0.0046841	8
	8	48	47578.12	385.787	-90.69491	1	396.3044	-13.22947	-1.393028E-005	0.004782	8
	9	50	37828.12	393.4843	-107.5544	1	407.9189	-15.2877	-1.302748E-005	0.0027592	8
	10	53	30046.88	403.6976	-126.381	1	423.0176	-17.38317	-1.413684E-005	0.0047949	8
	11	55	23859.38	416.1501	-149.0478	1	442.0364	-19.70542	-3.350212E-006	-0.0015888	8
	12	57	18984.38	430.0813	-175.2454	1	464.4146	-22.16944	9.990373E-006	-0.0046837	8
	13	60	15046.87	446.9018	-205.6844	1	491.9626	-24.71402	-4.056309E-006	0.0054771	8
	14	62	11953.13	469.9454	-241.7081	1	528.4614	-27.21822	-1.022813E-005	0.0018096	8
	15	65	9515.62	493.9259	-280.3513	1	567.9434	-29.57915	-1.120162E-005	0.0018345	8
	16	67	7546.875	525.5576	-324.8372	1	617.843	-31.71943	6.392285E-006	0.0015858	8
	17	69	5928.309	562.2995	-383.2702	1	680.4974	-34.27882	6.220884E-006	-0.0041919	8
	18	72	4733.456	606.8682	-440.2058	1	749.7133	-35.95612	1.259357E-005	-0.0046507	8
	19	74	3796.875	655.8104	-501.7709	1	825.7489	-37.42018	1.831619E-006	-0.0031845	8
	20	76	2987.132	721.0408	-578.7187	1	924.5622	-38.75108	-1.37001E-005	0.0039499	8
	21	79	2390.625	786.6464	-658.1701	1	1025.671	-39.9185	-1.377754E-005	0.0039127	8
	22	82	1884.191	874.2463	-754.5527	1	1154.84	-40.79713	9.990728E-006	-0.0046931	8
	23	85	1516.544	962.136	-849.8611	1	1283.732	-41.45438	6.327321E-006	0.0015883	8
	24	88	1193.986	1072.698	-966.743	1	1444.047	-42.02599	-7.70851E-006	0.0001345	8
	25	91	946.5144	1211.085	-1093.228	1	1631.525	-42.07209	-8.749798E-006	0.0057966	8
	26	93	751.7689	1353.343	-1224.203	1	1824.886	-42.13175	1.350352E-005	-0.0021565	8
	27	96	597.4265	1508.495	-1366.555	1	2035.443	-42.17363	-1.261113E-005	0.0027547	8
	28	99	477.4305	1682.845	-1507.984	1	2259.642	-41.86327	-5.016553E-007	0.000651	8
	29	101	376.6741	1890.149	-1677.524	1	2527.202	-41.58934	-4.848164E-007	0.0006345	8
	30	103	298.2954	2115.482	-1857.234	1	2815.063	-41.28069	-4.675303E-007	0.0006264	8
	31	105	237.7717	2353.99	-2046.146	1	3118.972	-40.99797	-4.833605E-007	0.0006283	8
	32	108	189.0121	2614.231	-2255.231	1	3452.574	-40.78351	-4.705784E-007	0.0006335	8
	33	110	150.2404	2894.207	-2487.641	1	3816.384	-40.67986	-4.995568E-007	0.0006526	8
	34	113	119.1737	3206.759	-2758.274	1	4229.82	-40.70027	-5.121733E-007	0.000616	7
	35	115	95.0169	3529.789	-3053.138	1	4667.019	-40.8586	-5.083039E-007	0.0005987	7
	36	118	75.60484	3885.453	-3396.135	1	5160.473	-41.15555	-5.039311E-007	0.0006106	7
	37	120	54.50582	4457.185	-3980.647	1	5975.956	-41.76758	-5.075377E-007	0.0006183	7
	38	123	45.95588	4793.775	-4340.664	1	6466.965	-42.16019	-5.190902E-007	0.0006229	7
	39	125	37.20238	5253.66	-4843.746	1	7145.825	-42.6753	-5.170488E-007	0.0006268	7
	40	127	30.04808	5782.572	-5422.935	1	7927.57	-43.16174	-5.161066E-007	0.0006285	7
	41	130	23.91582	6431.318	-6126.409	1	8882.271	-43.6091	-5.006989E-007	0.0006424	7
	42	132	18.60119	7268.082	-7010.481	1	10098.11	-43.96643	-5.038841E-007	0.0006293	7
	43	135	15.02404	8104.581	-7854.007	1	11285.82	-44.10044	-4.895997E-007	0.0006138	7
	44	137	12.01923	9113.114	-8814.711	1	12678.64	-44.04642	-5.12176E-007	0.0006238	7
	45	139	9.450605	10385.88	-9930.81	1	14369.68	-43.71685	-4.879039E-007	0.000604	7
	46	142	7.512019	11789.11	-11093.59	1	16187.99	-43.25903	-5.004646E-007	0.0006468	7
	47	145	5.978954	13396.07	-12287.51	1	18177.95	-42.52853	-4.94815E-007	0.0006273	7
	48	148	4.734848	15259.31	-13533.58	1	20396.18	-41.57002	-4.939968E-007	0.0006701	7
	49	151	3.75601	17341.51	-14770.37	1	22779.2	-40.42219	-5.170493E-007	0.0006151	7
	50	154	3.004808	19557.71	-15962.82	1	25245.11	-39.221	-5.171943E-007	0.0006489	7
	51	158	2.372217	22133.47	-17118.16	1	27980.74	-37.71858	-5.011873E-007	0.0006942	7
	52	162	1.878005	24789.92	-18203.88	1	30755.84	-36.2908	-5.063345E-007	0.0005972	7
	53	167	1.512097	27386.85	-19174.17	1	33431.84	-34.99675	-5.068662E-007	0.0006748	7
	54	172	1.201923	30270.63	-20057.02	1	36312.47	-33.52806	-4.999663E-007	0.0006045	7
	55	185	0.956633	33312.73	-20964.77	1	39360.64	-32.18353	-5.132574E-007	-2.436019E-005	7
