EXPLAIN
TAG	EISPOT
TITLE	LABEL	Potentiostatic EIS	Test Identifier
DATE	LABEL	8/18/2020	Date
TIME	LABEL	1:07:58	Time
NOTES	NOTES	1	Notes...
	
PSTAT	PSTAT	REF3000-16137	Potentiostat
VDC	POTEN	0.00000E+000	T	DC Voltage (V)
FREQINIT	QUANT	3.00000E+005	Initial Freq. (Hz)
FREQFINAL	QUANT	1.00000E+000	Final Freq. (Hz)
PTSPERDEC	QUANT	1.00000E+001	Points/decade
VAC	QUANT	5.00000E+001	AC Voltage (mV rms)
AREA	QUANT	1.00000E+000	Sample Area (cm^2)
SPEED	SELECTOR	2	Optimize for:
ZGUESS	QUANT	1.00000E+003	Estimated Z (ohms)
EOC	QUANT	0	Open Circuit (V)
SEQUENCER	TOGGLE	TRUE	Run as Sequence
PSTATMODEL	IQUANT	5	Pstat Model
PSTATSECTION	LABEL	REF3000-16137	Pstat Section
PSTATSERIALNO	LABEL	16137	Pstat Serial Number
CTRLMODE	IQUANT	1	Control Mode
IESTAB	IQUANT	0	I/E Stability
CASPEED	IQUANT	1	Control Amp Speed
CONVENTION	IQUANT	1	Current Convention
ICHRANGE	IQUANT	2	Ich Range
ICHRANGEMODE	TOGGLE	F	Ich Auto Range
ICHOFFSETENABLE	TOGGLE	T	Ich Offset Enable
ICHOFFSET	QUANT	0	Ich Offset (V)
ICHFILTER	IQUANT	3	Ich Filter
VCHRANGE	IQUANT	2	Vch Range
VCHRANGEMODE	TOGGLE	F	Vch Auto Range
VCHOFFSETENABLE	TOGGLE	T	Vch Offset Enable
VCHOFFSET	QUANT	0	Vch Offset (V)
VCHFILTER	IQUANT	3	Vch Filter
ACHRANGE	IQUANT	2	Ach Range
ACHOFFSETENABLE	TOGGLE	F	Ach Offset Enable
ACHOFFSET	QUANT	0	Ach Offset (V)
ACHFILTER	IQUANT	3	Ach Filter
IERANGELOWERLIMIT	IQUANT	2	I/E Range Lower Limit
IERANGEMODE	TOGGLE	F	I/E AutoRange
IERANGE	IQUANT	11	I/E Range
POSFEEDENABLE	TOGGLE	F	Positive Feedback IR Comp
POSFEEDRESISTANCE	QUANT	0	Positive Feedback Resistance (ohm)
ACHSELECT	IQUANT	0	Ach Select
CABLEID	IQUANT	13	Cable ID
DCCALDATE	LABEL	7/31/2020	DC Calibration Date
ACCALDATE	LABEL	7/31/2020	AC Calibration Date
THERMOSELECT	IQUANT	1	Thermo Select
FRAMEWORKVERSION	QUANT	6.33	Framework Version
INSTRUMENTVERSION	LABEL	3.50	Instrument Version
COMPLIANCEVOLTAGE	IQUANT	0	Compliance Voltage
ZCURVE	TABLE
	Pt	Time	Freq	Zreal	Zimag	Zsig	Zmod	Zphz	Idc	Vdc	IERange
	#	s	Hz	ohm	ohm	V	ohm	°	A	V	#
	0	25	300046.9	1969.567	-1276.021	1	2346.79	-32.93795	-0.000096	0.002185	9
	1	45	238359.4	2211.451	-1197.37	1	2514.799	-28.43292	-2.864081E-005	-0.0011431	9
	2	61	189328.1	2430.144	-1119.662	1	2675.676	-24.73737	-2.02372E-005	0.0011242	9
	3	69	150421.9	2575.346	-1006.263	1	2764.954	-21.34204	-1.962418E-005	0.0015037	9
	4	76	119484.4	2795.763	-779.7692	1	2902.47	-15.58437	-1.346498E-005	0.0151671	8
	5	84	94921.88	2913.846	-697.4816	1	2996.161	-13.46149	-2.440452E-005	0.0072708	8
	6	90	75421.88	2987.778	-628.6686	1	3053.202	-11.88247	2.034316E-005	-0.0089728	8
	7	95	59859.37	3069.24	-621.7966	1	3131.592	-11.45254	-2.386744E-005	0.0004702	9
	8	103	47578.12	3144.499	-519.5262	1	3187.127	-9.381517	-9.865043E-006	-0.0016117	8
	9	108	37828.12	3206.363	-495.4224	1	3244.412	-8.783441	-2.270054E-005	0.0052736	8
	10	114	30046.88	3268.905	-486.2544	1	3304.873	-8.460792	1.455326E-005	-0.00862	8
	11	120	23859.38	3311.117	-518.4351	1	3351.458	-8.898786	1.120499E-005	-0.000804	9
	12	126	18984.38	3400.53	-516.1479	1	3439.479	-8.630736	8.604776E-006	0.003574	8
	13	131	15046.87	3458.625	-557.0308	1	3503.195	-9.149237	-1.975231E-005	0.0030394	8
	14	137	11953.13	3550.001	-607.2645	1	3601.566	-9.70708	-1.904123E-005	0.001064	9
	15	142	9515.62	3633.447	-675.2598	1	3695.661	-10.52805	1.038895E-005	-0.0008242	9
	16	147	7546.875	3709.874	-747.2134	1	3784.375	-11.3877	-2.272159E-005	0.0052154	8
	17	153	5928.309	3808.188	-868.2142	1	3905.905	-12.84313	-9.94392E-006	-0.0015952	8
	18	158	4733.456	3912.872	-982.294	1	4034.287	-14.0924	-9.924289E-006	-0.0016209	8
	19	163	3796.875	4049.199	-1136.49	1	4205.666	-15.67785	2.368961E-005	-0.0031495	8
	20	169	2987.132	4164.803	-1313.128	1	4366.909	-17.49963	-1.837008E-006	-0.0045765	8
	21	174	2390.625	4347.983	-1510.654	1	4602.938	-19.15916	-5.792811E-006	0.0206572	7
	22	177	1884.191	4548.506	-1808.445	1	4894.832	-21.68232	2.567014E-005	-0.0070951	8
	23	182	1516.544	4674.208	-2102.543	1	5125.32	-24.21908	2.443991E-005	-0.0085214	8
	24	188	1193.986	4909.712	-2447.455	1	5485.919	-26.49591	2.437368E-005	-0.0085045	8
	25	193	946.5144	5231.488	-3000.584	1	6030.918	-29.83695	-2.535725E-005	0.0092503	8
	26	197	751.7689	5587.716	-3497.202	1	6591.888	-32.04135	2.398863E-005	-0.0084697	8
	27	201	597.4265	5840.153	-4027.932	1	7094.479	-34.59388	-2.565072E-005	0.0095245	8
	28	204	477.4305	6367.03	-4643.707	1	7880.551	-36.10463	-3.340064E-007	0.0006339	8
	29	208	376.6741	6933.666	-5426.326	1	8804.586	-38.04693	-8.167443E-008	0.0005627	7
	30	210	298.2954	7564.94	-6301.26	1	9845.52	-39.7928	-8.326646E-008	0.0005976	7
	31	212	237.7717	8284.169	-7266.844	1	11019.73	-41.25713	-8.632048E-008	0.000626	7
	32	215	189.0121	9126.942	-8373.736	1	12386.3	-42.53559	-9.205131E-008	0.0006186	7
	33	217	150.2404	10102.41	-9625.33	1	13953.7	-43.61466	-8.508844E-008	0.0005568	7
	34	220	119.1737	11247.68	-11066.85	1	15779.27	-44.5357	-9.276519E-008	0.0006452	7
	35	222	95.0169	12521.76	-12659.16	1	17805.87	-45.31263	-9.246077E-008	0.0006467	7
	36	225	75.60484	14018.35	-14475.76	1	20150.98	-45.91968	-8.607627E-008	0.0006063	7
	37	227	54.50582	16543.01	-17458.76	1	24051.61	-46.54274	-8.916057E-008	0.0006382	7
	38	230	45.95588	18075.11	-19247.36	1	26403.98	-46.79899	-8.905588E-008	0.0006231	7
	39	232	37.20238	20173.54	-21666.17	1	29603.96	-47.04316	-9.186618E-008	0.0006359	7
	40	235	30.04808	22540.25	-24397.79	1	33216.19	-47.26627	-8.641974E-008	0.000609	7
	41	237	23.91582	25331.64	-27654.98	1	37503.2	-47.51068	-9.390803E-008	0.0006411	7
	42	239	18.60119	28841.14	-31776.13	1	42913.09	-47.772	-2.513884E-008	0.00062	6
	43	242	15.02404	32171.6	-35874.82	1	48187.29	-48.11508	-2.615931E-008	0.0006839	6
	44	244	12.01923	36025.38	-40663.96	1	54326.66	-48.46134	-2.588353E-008	0.0006859	6
	45	246	9.450605	40644.72	-46699.15	1	61909.64	-48.96524	-1.752005E-008	0.0006246	6
	46	249	7.512019	45646.3	-53395.71	1	70247.33	-49.47391	-2.441376E-008	0.0005998	6
	47	252	5.978954	51316.05	-61199.11	1	79866.56	-50.01984	-2.340235E-008	0.0006888	6
	48	255	4.734848	58002.32	-70570.77	1	91348.25	-50.58312	-2.084239E-008	0.0006778	6
	49	258	3.75601	65500.39	-81370.38	1	104457.8	-51.16712	-2.244362E-008	0.0005805	6
	50	262	3.004808	73973.41	-93476.15	1	119205.1	-51.64327	-2.114578E-008	0.0006582	6
	51	266	2.372217	84572.91	-108560.5	1	137615.2	-52.07999	-2.021949E-008	0.000738	6
	52	270	1.878005	96676.9	-125842.8	1	158691	-52.46725	-2.05257E-008	0.0006252	6
	53	275	1.512097	110029.1	-144424	1	181561.8	-52.6981	-2.027428E-008	0.000745	6
	54	280	1.201923	126645.9	-167566.4	1	210042.1	-52.91819	-1.916407E-008	0.00063	6
	55	286	0.956633	146124.9	-193911.9	1	242805.1	-52.99966	-2.160412E-008	3.924491E-006	6
