EXPLAIN
TAG	EISPOT
TITLE	LABEL	Potentiostatic EIS	Test Identifier
DATE	LABEL	8/18/2020	Date
TIME	LABEL	0:58:30	Time
NOTES	NOTES	1	Notes...
	
PSTAT	PSTAT	REF3000-16137	Potentiostat
VDC	POTEN	0.00000E+000	T	DC Voltage (V)
FREQINIT	QUANT	3.00000E+005	Initial Freq. (Hz)
FREQFINAL	QUANT	1.00000E+000	Final Freq. (Hz)
PTSPERDEC	QUANT	1.00000E+001	Points/decade
VAC	QUANT	5.00000E+001	AC Voltage (mV rms)
AREA	QUANT	1.00000E+000	Sample Area (cm^2)
SPEED	SELECTOR	2	Optimize for:
ZGUESS	QUANT	1.00000E+003	Estimated Z (ohms)
EOC	QUANT	0	Open Circuit (V)
SEQUENCER	TOGGLE	TRUE	Run as Sequence
PSTATMODEL	IQUANT	5	Pstat Model
PSTATSECTION	LABEL	REF3000-16137	Pstat Section
PSTATSERIALNO	LABEL	16137	Pstat Serial Number
CTRLMODE	IQUANT	1	Control Mode
IESTAB	IQUANT	0	I/E Stability
CASPEED	IQUANT	1	Control Amp Speed
CONVENTION	IQUANT	1	Current Convention
ICHRANGE	IQUANT	2	Ich Range
ICHRANGEMODE	TOGGLE	F	Ich Auto Range
ICHOFFSETENABLE	TOGGLE	T	Ich Offset Enable
ICHOFFSET	QUANT	0	Ich Offset (V)
ICHFILTER	IQUANT	3	Ich Filter
VCHRANGE	IQUANT	2	Vch Range
VCHRANGEMODE	TOGGLE	F	Vch Auto Range
VCHOFFSETENABLE	TOGGLE	T	Vch Offset Enable
VCHOFFSET	QUANT	0	Vch Offset (V)
VCHFILTER	IQUANT	3	Vch Filter
ACHRANGE	IQUANT	2	Ach Range
ACHOFFSETENABLE	TOGGLE	F	Ach Offset Enable
ACHOFFSET	QUANT	0	Ach Offset (V)
ACHFILTER	IQUANT	3	Ach Filter
IERANGELOWERLIMIT	IQUANT	2	I/E Range Lower Limit
IERANGEMODE	TOGGLE	F	I/E AutoRange
IERANGE	IQUANT	11	I/E Range
POSFEEDENABLE	TOGGLE	F	Positive Feedback IR Comp
POSFEEDRESISTANCE	QUANT	0	Positive Feedback Resistance (ohm)
ACHSELECT	IQUANT	0	Ach Select
CABLEID	IQUANT	13	Cable ID
DCCALDATE	LABEL	7/31/2020	DC Calibration Date
ACCALDATE	LABEL	7/31/2020	AC Calibration Date
THERMOSELECT	IQUANT	1	Thermo Select
FRAMEWORKVERSION	QUANT	6.33	Framework Version
INSTRUMENTVERSION	LABEL	3.50	Instrument Version
COMPLIANCEVOLTAGE	IQUANT	0	Compliance Voltage
ZCURVE	TABLE
	Pt	Time	Freq	Zreal	Zimag	Zsig	Zmod	Zphz	Idc	Vdc	IERange
	#	s	Hz	ohm	ohm	V	ohm	°	A	V	#
	0	28	300046.9	1199.409	-384.805	1	1259.625	-17.78774	4.972668E-005	-6.736276E-005	9
	1	45	238359.4	1262.908	-341.8319	1	1308.352	-15.14537	-6.229084E-005	0.0005916	9
	2	61	189328.1	1306.955	-309.1912	1	1343.03	-13.30997	-2.029728E-005	0.0015561	9
	3	75	150421.9	1349.346	-281.2356	1	1378.343	-11.77324	-9.329228E-005	0.0023019	9
	4	85	119484.4	1386.018	-211.1553	1	1402.01	-8.662217	-7.575184E-005	0.0279049	8
	5	92	94921.88	1406.297	-192.2412	1	1419.375	-7.784105	1.584729E-005	-0.0002627	8
	6	95	75421.88	1422.324	-190.7759	1	1435.061	-7.639471	1.786471E-005	-0.0079906	8
	7	98	59859.37	1443.703	-192.1488	1	1456.434	-7.581195	1.674967E-005	-0.0078538	8
	8	102	47578.12	1459.666	-196.284	1	1472.804	-7.658731	-9.590837E-006	-0.0010889	8
	9	106	37828.12	1479.035	-214.6029	1	1494.523	-8.255808	5.393993E-006	-0.005962	8
	10	109	30046.88	1503.308	-236.0695	1	1521.731	-8.924466	-1.961696E-005	0.009232	8
	11	113	23859.38	1526.9	-261.8076	1	1549.182	-9.72952	1.600024E-005	-0.0002519	8
	12	116	18984.38	1556.932	-294.6467	1	1584.568	-10.71639	-1.546551E-005	0.0093846	8
	13	120	15046.87	1587.191	-335.2662	1	1622.214	-11.92739	-2.036663E-005	0.0049644	8
	14	123	11953.13	1624.031	-388.248	1	1669.794	-13.44504	-2.219121E-005	0.0068183	8
	15	127	9515.62	1665.394	-444.6025	1	1723.719	-14.94739	-2.215286E-005	0.0068658	8
	16	130	7546.875	1710.446	-519.6738	1	1787.648	-16.90002	2.29109E-005	-0.0045597	8
	17	134	5928.309	1766.786	-608.0276	1	1868.484	-18.99055	2.054111E-005	-0.0028942	8
	18	139	4733.456	1826.989	-715.7487	1	1962.189	-21.39346	-9.478335E-006	-0.0011154	8
	19	143	3796.875	1899.955	-827.6679	1	2072.405	-23.53915	1.598425E-005	-0.0003066	8
	20	147	2987.132	1982.044	-980.151	1	2211.153	-26.3131	1.593294E-005	-0.0002628	8
	21	151	2390.625	2096.433	-1163.715	1	2397.762	-29.03434	1.220017E-005	-0.007235	8
	22	155	1884.191	2205.749	-1359.702	1	2591.161	-31.65116	-4.07759E-007	0.0061953	8
	23	161	1516.544	2353.584	-1581.097	1	2835.353	-33.89252	2.302715E-005	-0.0064523	8
	24	166	1193.986	2561.495	-1841.908	1	3154.978	-35.71898	-2.208484E-005	0.008409	8
	25	172	946.5144	2743.418	-2160.169	1	3491.801	-38.21692	2.331277E-005	-0.0064952	8
	26	175	751.7689	3020.909	-2490.109	1	3914.912	-39.49846	-2.180342E-005	0.0067926	8
	27	179	597.4265	3322.646	-2892.741	1	4405.443	-41.04327	-2.468776E-006	-0.003846	8
	28	183	477.4305	3633.594	-3348.951	1	4941.505	-42.66564	-1.021734E-007	0.0006477	7
	29	185	376.6741	4036.439	-3871.011	1	5592.635	-43.80151	-9.786959E-008	0.0005708	7
	30	187	298.2954	4498.108	-4453.137	1	6329.565	-44.71215	-9.704404E-008	0.000569	7
	31	190	237.7717	5017.903	-5091.604	1	7148.691	-45.41769	-9.822908E-008	0.000615	7
	32	192	189.0121	5626.053	-5818.563	1	8093.71	-45.96368	-9.775091E-008	0.0006017	7
	33	194	150.2404	6325.184	-6634.408	1	9166.423	-46.36686	-1.027117E-007	0.0006419	7
	34	197	119.1737	7130.402	-7552.136	1	10386.4	-46.64528	-9.811703E-008	0.0005741	7
	35	199	95.0169	8035.129	-8549.34	1	11732.63	-46.77592	-1.029372E-007	0.0006104	7
	36	202	75.60484	9053.038	-9670.77	1	13246.94	-46.88961	-9.859785E-008	0.0005755	7
	37	204	54.50582	10709.67	-11517.5	1	15727.36	-47.08145	-1.038554E-007	0.0006174	7
	38	207	45.95588	11678.33	-12619.16	1	17193.79	-47.21747	-1.031722E-007	0.0006439	7
	39	209	37.20238	12979.26	-14152.15	1	19202.72	-47.47536	-1.035566E-007	0.0005954	7
	40	211	30.04808	14432.65	-15923.36	1	21490.81	-47.8114	-1.00994E-007	0.0006361	7
	41	214	23.91582	16158.42	-18093.3	1	24258.23	-48.2332	-9.987287E-008	0.0005964	7
	42	216	18.60119	18309.1	-20875.15	1	27766.8	-48.74675	-1.102226E-007	0.0006229	7
	43	219	15.02404	20426.32	-23675.3	1	31269.06	-49.21339	-9.917639E-008	0.0006542	7
	44	221	12.01923	22920.6	-27022.84	1	35434.27	-49.69561	-1.069276E-007	0.0005875	7
	45	223	9.450605	26011.77	-31198.42	1	40619.62	-50.18025	-9.801591E-008	0.0005941	7
	46	226	7.512019	29498.15	-35829.06	1	46409.72	-50.53529	-5.249905E-008	0.000701	6
	47	229	5.978954	33489.09	-41136.86	1	53044.89	-50.85132	-4.994461E-008	0.000686	6
	48	232	4.734848	38303.84	-47420.04	1	60957.73	-51.07023	-4.633542E-008	0.0006635	6
	49	235	3.75601	43899.73	-54464.46	1	69954.02	-51.13031	-5.175272E-008	0.0006464	6
	50	238	3.004808	50301.58	-62129.95	1	79939.85	-51.00571	-4.769641E-008	0.0006725	6
	51	242	2.372217	58200.7	-71276.43	1	92019.84	-50.76668	-4.918376E-008	0.0006425	6
	52	246	1.878005	67541.32	-81361.53	1	105742.8	-50.30264	-4.862042E-008	0.0006592	6
	53	251	1.512097	77424.25	-91709.64	1	120021.6	-49.82786	-4.646077E-008	0.0005759	6
	54	256	1.201923	89494.61	-104066.1	1	137255.4	-49.30519	-4.696347E-008	0.0006795	6
	55	262	0.956633	103187.4	-117576.1	1	156434.6	-48.72911	-4.788032E-008	1.718619E-005	6
