EXPLAIN
TAG	EISPOT
TITLE	LABEL	Potentiostatic EIS	Test Identifier
DATE	LABEL	8/18/2020	Date
TIME	LABEL	1:49:39	Time
NOTES	NOTES	1	Notes...
	
PSTAT	PSTAT	REF3000-16137	Potentiostat
VDC	POTEN	0.00000E+000	T	DC Voltage (V)
FREQINIT	QUANT	3.00000E+005	Initial Freq. (Hz)
FREQFINAL	QUANT	1.00000E+000	Final Freq. (Hz)
PTSPERDEC	QUANT	1.00000E+001	Points/decade
VAC	QUANT	5.00000E+001	AC Voltage (mV rms)
AREA	QUANT	1.00000E+000	Sample Area (cm^2)
SPEED	SELECTOR	2	Optimize for:
ZGUESS	QUANT	1.00000E+003	Estimated Z (ohms)
EOC	QUANT	0	Open Circuit (V)
SEQUENCER	TOGGLE	TRUE	Run as Sequence
PSTATMODEL	IQUANT	5	Pstat Model
PSTATSECTION	LABEL	REF3000-16137	Pstat Section
PSTATSERIALNO	LABEL	16137	Pstat Serial Number
CTRLMODE	IQUANT	1	Control Mode
IESTAB	IQUANT	0	I/E Stability
CASPEED	IQUANT	1	Control Amp Speed
CONVENTION	IQUANT	1	Current Convention
ICHRANGE	IQUANT	2	Ich Range
ICHRANGEMODE	TOGGLE	F	Ich Auto Range
ICHOFFSETENABLE	TOGGLE	T	Ich Offset Enable
ICHOFFSET	QUANT	0	Ich Offset (V)
ICHFILTER	IQUANT	3	Ich Filter
VCHRANGE	IQUANT	2	Vch Range
VCHRANGEMODE	TOGGLE	F	Vch Auto Range
VCHOFFSETENABLE	TOGGLE	T	Vch Offset Enable
VCHOFFSET	QUANT	0	Vch Offset (V)
VCHFILTER	IQUANT	3	Vch Filter
ACHRANGE	IQUANT	2	Ach Range
ACHOFFSETENABLE	TOGGLE	F	Ach Offset Enable
ACHOFFSET	QUANT	0	Ach Offset (V)
ACHFILTER	IQUANT	3	Ach Filter
IERANGELOWERLIMIT	IQUANT	2	I/E Range Lower Limit
IERANGEMODE	TOGGLE	F	I/E AutoRange
IERANGE	IQUANT	11	I/E Range
POSFEEDENABLE	TOGGLE	F	Positive Feedback IR Comp
POSFEEDRESISTANCE	QUANT	0	Positive Feedback Resistance (ohm)
ACHSELECT	IQUANT	0	Ach Select
CABLEID	IQUANT	13	Cable ID
DCCALDATE	LABEL	7/31/2020	DC Calibration Date
ACCALDATE	LABEL	7/31/2020	AC Calibration Date
THERMOSELECT	IQUANT	1	Thermo Select
FRAMEWORKVERSION	QUANT	6.33	Framework Version
INSTRUMENTVERSION	LABEL	3.50	Instrument Version
COMPLIANCEVOLTAGE	IQUANT	0	Compliance Voltage
ZCURVE	TABLE
	Pt	Time	Freq	Zreal	Zimag	Zsig	Zmod	Zphz	Idc	Vdc	IERange
	#	s	Hz	ohm	ohm	V	ohm	°	A	V	#
	0	15	300046.9	-67.84238	-4812.53	1	4813.008	-90.80765	-1.558804E-005	0.0018023	9
	1	31	238359.4	-14.96366	-6017.637	1	6017.656	-90.14247	-2.119835E-005	0.0010631	9
	2	45	189328.1	-28.40207	-7327.095	1	7327.15	-90.22209	-2.094285E-005	0.0011333	9
	3	52	150421.9	249.046	-9054.466	1	9057.891	-88.42446	8.555783E-005	-0.0033993	9
	4	61	119484.4	474.4894	-11233.18	1	11243.2	-87.58127	-0.0001086	0.0038536	9
	5	71	94921.88	669.0083	-14429.11	1	14444.61	-87.34537	-1.20334E-006	-0.0052965	8
	6	79	75421.88	732.2643	-17704.04	1	17719.18	-87.63152	-1.238211E-005	0.0105384	8
	7	87	59859.37	1071.138	-22778.87	1	22804.04	-87.30775	8.277189E-006	-0.0079481	8
	8	94	47578.12	4282.792	-29741.95	1	30048.72	-81.80582	6.827826E-006	-0.0103481	7
	9	101	37828.12	4293.766	-36828.73	1	37078.19	-83.35006	-7.649021E-006	0.0190208	7
	10	108	30046.88	4958.635	-45567.31	1	45836.32	-83.78951	4.529626E-007	0.0166481	7
	11	116	23859.38	5855.758	-57502.05	1	57799.44	-84.1853	-7.770439E-006	0.0253791	7
	12	121	18984.38	5847.596	-70670.59	1	70912.1	-85.26987	-6.911731E-006	0.0125033	7
	13	126	15046.87	6811.563	-89957.45	1	90214.96	-85.66984	7.623097E-006	-0.0195541	7
	14	133	11953.13	6586.319	-112066.2	1	112259.6	-86.6365	7.889634E-006	-0.025161	7
	15	139	9515.62	6615.557	-140867.7	1	141023	-87.3112	6.813237E-006	-0.0104407	7
	16	146	7546.875	15277	-172044.5	1	172721.4	-84.92563	-7.25886E-006	0.0235502	7
	17	152	5928.309	10292.41	-228050.5	1	228282.7	-87.41587	1.281034E-006	-0.0204552	7
	18	159	4733.456	47541.87	-290583.9	1	294447.3	-80.70827	-3.389185E-009	0.0178655	6
	19	163	3796.875	-49384.08	-412585.2	1	415530.2	-96.8255	-1.160366E-006	-0.0052781	8
	20	171	2987.132	85424.05	-467646.2	1	475384.2	-79.64802	7.029027E-006	-0.0278643	7
	21	177	2390.625	45548.19	-603176.5	1	604893.8	-85.68157	6.734344E-006	-0.0103393	7
	22	184	1884.191	21440.13	-598961.8	1	599345.4	-87.94994	5.502165E-006	-0.0275512	7
	23	191	1516.544	-48936.46	-812117.3	1	813590.3	-93.44835	5.448645E-006	-0.0274641	7
	24	198	1193.986	-10077.6	-451459.1	1	451571.6	-91.27876	1.660842E-005	-0.0095019	8
	25	208	946.5144	-333255.2	-860148.9	1	922450.6	-111.1783	-6.879867E-006	0.0119248	7
	26	214	751.7689	-1126263	-2200524	1	2471998	-117.1041	5.448188E-006	-0.027337	7
	27	220	597.4265	202854	-124163.9	1	237837	-31.47017	-2.559571E-005	0.0112772	8
	28	227	477.4305	546398.8	-2529562	1	2587902	-77.81108	-4.273053E-007	0.0006353	8
	29	233	376.6741	799296	-3193812	1	3292311	-75.94952	-9.913311E-009	0.0007063	6
	30	238	298.2954	1535304	-3928987	1	4218305	-68.65627	-1.010165E-009	0.0005995	5
	31	241	237.7717	2041330	-4788829	1	5205758	-66.91295	-9.928657E-010	0.0005932	5
	32	244	189.0121	2690208	-5569388	1	6185087	-64.21784	-9.584457E-010	0.0005881	5
	33	247	150.2404	3495709	-6344269	1	7243599	-61.14511	-9.463461E-010	0.0006204	5
	34	250	119.1737	5247911	-1.10259E+007	1	1.221111E+007	-64.54733	-8.892622E-010	0.0006081	5
	35	253	95.0169	6121535	-8312758	1	1.032352E+007	-53.63198	-1.032353E-009	0.0006839	5
	36	255	75.60484	7618603	-9157390	1	1.191222E+007	-50.24082	-1.02444E-009	0.0006829	5
	37	258	54.50582	1.054719E+007	-9307100	1	1.406646E+007	-41.42596	-1.06752E-009	0.0006614	5
	38	262	45.95588	1.493885E+007	-8458743	1	1.71674E+007	-29.5196	-8.017355E-011	0.0006713	4
	39	264	37.20238	1.577339E+007	-8209599	1	1.778194E+007	-27.49569	-1.235244E-010	0.000616	4
	40	267	30.04808	1.721318E+007	-7380315	1	1.872866E+007	-23.20769	-1.15935E-010	0.000684	4
	41	270	23.91582	1.85873E+007	-7371271	1	1.999559E+007	-21.63207	-5.838369E-011	0.0007128	4
	42	272	18.60119	1.869216E+007	-3400025	1	1.899886E+007	-10.30915	1.004492E-010	0.0006783	4
	43	275	15.02404	2.037961E+007	-5393096	1	2.108113E+007	-14.82252	-1.350291E-010	0.0006845	4
	44	277	12.01923	2.109544E+007	-4944457	1	2.166714E+007	-13.19116	-1.067499E-010	0.0006237	4
	45	280	9.450605	2.190674E+007	-4737294	1	2.241311E+007	-12.20222	-1.450886E-010	0.0006381	4
	46	283	7.512019	2.275175E+007	-4155560	1	2.312814E+007	-10.35086	-1.313472E-010	0.0006982	4
	47	286	5.978954	2.341509E+007	-4086323	1	2.376899E+007	-9.89937	-8.771631E-011	0.0006879	4
	48	290	4.734848	2.440728E+007	-4447944	1	2.480927E+007	-10.32815	-1.062205E-009	0.0006991	5
	49	296	3.75601	2.546901E+007	-4399399	1	2.584618E+007	-9.8003	-9.906446E-010	0.0006008	5
	50	303	3.004808	2.701689E+007	-4698465	1	2.742239E+007	-9.86555	-1.059541E-009	0.0006432	5
	51	311	2.372217	2.833574E+007	-4577072	1	2.870302E+007	-9.175732	-7.66221E-011	0.0006881	4
	52	317	1.878005	2.954404E+007	-4990760	1	2.996261E+007	-9.58823	-1.007358E-010	0.0006219	4
	53	323	1.512097	3.092691E+007	-5509408	1	3.14138E+007	-10.10087	-1.119113E-010	0.0007455	4
	54	329	1.201923	3.249479E+007	-6200093	1	3.3081E+007	-10.80235	-9.636788E-011	0.0006232	4
	55	336	0.956633	3.432584E+007	-7092177	1	3.505085E+007	-11.67381	-1.516165E-010	3.721775E-006	4
