EXPLAIN
TAG	EISPOT
TITLE	LABEL	Potentiostatic EIS	Test Identifier
DATE	LABEL	8/18/2020	Date
TIME	LABEL	1:32:46	Time
NOTES	NOTES	1	Notes...
	
PSTAT	PSTAT	REF3000-16137	Potentiostat
VDC	POTEN	0.00000E+000	T	DC Voltage (V)
FREQINIT	QUANT	3.00000E+005	Initial Freq. (Hz)
FREQFINAL	QUANT	1.00000E+000	Final Freq. (Hz)
PTSPERDEC	QUANT	1.00000E+001	Points/decade
VAC	QUANT	5.00000E+001	AC Voltage (mV rms)
AREA	QUANT	1.00000E+000	Sample Area (cm^2)
SPEED	SELECTOR	2	Optimize for:
ZGUESS	QUANT	1.00000E+003	Estimated Z (ohms)
EOC	QUANT	0	Open Circuit (V)
SEQUENCER	TOGGLE	TRUE	Run as Sequence
PSTATMODEL	IQUANT	5	Pstat Model
PSTATSECTION	LABEL	REF3000-16137	Pstat Section
PSTATSERIALNO	LABEL	16137	Pstat Serial Number
CTRLMODE	IQUANT	1	Control Mode
IESTAB	IQUANT	0	I/E Stability
CASPEED	IQUANT	1	Control Amp Speed
CONVENTION	IQUANT	1	Current Convention
ICHRANGE	IQUANT	2	Ich Range
ICHRANGEMODE	TOGGLE	F	Ich Auto Range
ICHOFFSETENABLE	TOGGLE	T	Ich Offset Enable
ICHOFFSET	QUANT	0	Ich Offset (V)
ICHFILTER	IQUANT	3	Ich Filter
VCHRANGE	IQUANT	2	Vch Range
VCHRANGEMODE	TOGGLE	F	Vch Auto Range
VCHOFFSETENABLE	TOGGLE	T	Vch Offset Enable
VCHOFFSET	QUANT	0	Vch Offset (V)
VCHFILTER	IQUANT	3	Vch Filter
ACHRANGE	IQUANT	2	Ach Range
ACHOFFSETENABLE	TOGGLE	F	Ach Offset Enable
ACHOFFSET	QUANT	0	Ach Offset (V)
ACHFILTER	IQUANT	3	Ach Filter
IERANGELOWERLIMIT	IQUANT	2	I/E Range Lower Limit
IERANGEMODE	TOGGLE	F	I/E AutoRange
IERANGE	IQUANT	11	I/E Range
POSFEEDENABLE	TOGGLE	F	Positive Feedback IR Comp
POSFEEDRESISTANCE	QUANT	0	Positive Feedback Resistance (ohm)
ACHSELECT	IQUANT	0	Ach Select
CABLEID	IQUANT	13	Cable ID
DCCALDATE	LABEL	7/31/2020	DC Calibration Date
ACCALDATE	LABEL	7/31/2020	AC Calibration Date
THERMOSELECT	IQUANT	1	Thermo Select
FRAMEWORKVERSION	QUANT	6.33	Framework Version
INSTRUMENTVERSION	LABEL	3.50	Instrument Version
COMPLIANCEVOLTAGE	IQUANT	0	Compliance Voltage
ZCURVE	TABLE
	Pt	Time	Freq	Zreal	Zimag	Zsig	Zmod	Zphz	Idc	Vdc	IERange
	#	s	Hz	ohm	ohm	V	ohm	°	A	V	#
	0	14	300046.9	214.0795	-4669.479	1	4674.383	-87.37502	8.183516E-005	-0.0018393	9
	1	36	238359.4	468.8261	-5784.339	1	5803.307	-85.36625	8.577551E-005	-0.0036662	9
	2	50	189328.1	839.3241	-7335.478	1	7383.339	-83.47261	9.323928E-005	-0.0026488	9
	3	60	150421.9	987.75	-8785.538	1	8840.89	-83.58523	-2.253563E-005	0.0012904	9
	4	70	119484.4	1356.398	-10879.94	1	10964.16	-82.89362	8.732713E-005	-0.0033954	9
	5	82	94921.88	2400.366	-13473.9	1	13686.04	-79.89877	-2.032726E-005	0.0115966	8
	6	90	75421.88	3347.663	-16558.31	1	16893.33	-78.57034	-2.024708E-005	0.0115824	8
	7	99	59859.37	5315.483	-20474.36	1	21153.1	-75.44636	-9.262286E-007	-0.005436	8
	8	108	47578.12	9756.25	-26097.28	1	27861.31	-69.50217	5.209926E-006	-0.0269392	7
	9	114	37828.12	9017.923	-31451.29	1	32718.59	-74.00099	-1.227488E-005	0.0105766	8
	10	123	30046.88	16410.9	-37625.62	1	41048.81	-66.43496	-5.498258E-006	0.0272224	7
	11	130	23859.38	22469.42	-44737.96	1	50063.56	-63.33213	4.67273E-007	0.0165054	7
	12	135	18984.38	29974.99	-52386.41	1	60355.91	-60.22223	-1.880839E-006	0.022516	7
	13	141	15046.87	39527.23	-60204.68	1	72020.87	-56.7132	-3.985318E-006	0.0258995	7
	14	146	11953.13	44346.08	-64785.47	1	78509.45	-55.6081	-2.634888E-005	0.0114993	8
	15	154	9515.62	61383.75	-69636.56	1	92828.96	-48.60423	-1.786358E-006	0.0078788	8
	16	161	7546.875	82527	-76398.39	1	112460.8	-42.79161	6.765029E-006	-0.0104412	7
	17	167	5928.309	90635.86	-74066.88	1	117050.3	-39.25541	-2.114351E-005	0.0029416	8
	18	174	4733.456	112356	-55376.05	1	125261.3	-26.23695	2.30887E-005	-0.009988	8
	19	182	3796.875	130476.3	-80578.03	1	153352.1	-31.69817	1.653555E-005	-0.0095173	8
	20	191	2987.132	140413.8	-62895.81	1	153856.8	-24.12913	-3.804981E-006	0.0259431	7
	21	197	2390.625	181896.1	-56676.09	1	190521.3	-17.30625	2.671159E-005	-0.0052489	8
	22	205	1884.191	173255	-35859.6	1	176927.2	-11.69372	7.791146E-006	-0.0247175	7
	23	211	1516.544	176343	-53951.05	1	184411.4	-17.01117	-1.147883E-006	-0.0135076	7
	24	218	1193.986	190232.3	-35164.33	1	193455	-10.47288	-6.593214E-007	0.0100526	6
	25	225	946.5144	192298.9	-36518.42	1	195735.7	-10.75268	-5.08262E-007	0.0013594	6
	26	227	751.7689	193276.6	-24588.12	1	194834.3	-7.250067	4.444045E-007	0.0020317	6
	27	230	597.4265	194196.8	-32282.94	1	196861.8	-9.438439	7.599368E-007	-0.0165295	6
	28	233	477.4305	202703.1	-28897.13	1	204752.5	-8.113357	-9.714789E-009	0.0006043	6
	29	235	376.6741	206035.8	-29331.02	1	208113	-8.102122	-9.459099E-009	0.0006149	6
	30	237	298.2954	209502.8	-30741.65	1	211746.3	-8.347792	-9.351862E-009	0.0006011	6
	31	239	237.7717	213455.4	-33020.86	1	215994.4	-8.793767	-9.28614E-009	0.0005943	6
	32	242	189.0121	217548	-36435	1	220578	-9.50767	-1.002113E-008	0.0006957	6
	33	244	150.2404	221919.2	-40866.36	1	225650.6	-10.4341	-9.472344E-009	0.0006524	6
	34	247	119.1737	224888.1	-45271.07	1	229399.5	-11.3818	-9.597315E-009	0.0006836	6
	35	250	95.0169	232645.1	-53683.44	1	238758.6	-12.9937	-1.035593E-008	0.0007155	6
	36	252	75.60484	238587	-62906.84	1	246740.8	-14.77069	-9.35635E-009	0.0005926	6
	37	255	54.50582	248400.1	-79311.12	1	260754.4	-17.70765	-9.789305E-009	0.0006225	6
	38	257	45.95588	255017.6	-88154.14	1	269824.3	-19.06917	-1.048869E-008	0.0006676	6
	39	260	37.20238	264000.9	-102801	1	283310	-21.27575	-9.493063E-009	0.0006142	6
	40	262	30.04808	275108.5	-119892.5	1	300098.1	-23.54762	-1.003614E-008	0.0006961	6
	41	265	23.91582	288923.7	-141218.2	1	321589	-26.04815	-9.98662E-009	0.000691	6
	42	268	18.60119	306890.3	-168392	1	350053.7	-28.75377	-1.029701E-008	0.0006805	6
	43	270	15.02404	324409.4	-195756.4	1	378895.8	-31.10779	-9.576373E-009	0.0006154	6
	44	272	12.01923	348313.8	-226976.5	1	415741.3	-33.09002	-7.018324E-010	0.0006356	5
	45	275	9.450605	375759.1	-266803.5	1	460846	-35.37623	-7.783765E-010	0.0005997	5
	46	278	7.512019	407733.8	-310697	1	512620.2	-37.30774	-1.145063E-009	0.0006171	5
	47	281	5.978954	445027.6	-360388.9	1	572651.5	-39.00098	-1.182384E-009	0.0006125	5
	48	285	4.734848	489289.7	-418571.9	1	643899.7	-40.54594	-1.048057E-009	0.0005969	5
	49	288	3.75601	541101.3	-486085.4	1	727371.8	-41.93418	-1.28652E-009	0.0006739	5
	50	294	3.004808	599787	-561337.4	1	821488.9	-43.10339	-1.012024E-009	0.0006032	5
	51	300	2.372217	670818.6	-652548.8	1	935851.2	-44.20905	-1.435311E-009	0.0006267	5
	52	305	1.878005	752810.9	-755603.5	1	1066612	-45.10608	-1.435973E-009	0.0006357	5
	53	309	1.512097	840485.5	-865988.2	1	1206794	-45.8562	-1.287229E-009	0.0005423	5
	54	315	1.201923	948904.8	-1000912	1	1379219	-46.52789	-1.374263E-009	0.0006286	5
	55	321	0.956633	1078541	-1154732	1	1580081	-46.95396	-1.435127E-009	-3.228256E-006	5
