EXPLAIN
TAG	EISPOT
TITLE	LABEL	Potentiostatic EIS	Test Identifier
DATE	LABEL	8/18/2020	Date
TIME	LABEL	0:43:04	Time
NOTES	NOTES	1	Notes...
	
PSTAT	PSTAT	REF3000-16137	Potentiostat
VDC	POTEN	0.00000E+000	T	DC Voltage (V)
FREQINIT	QUANT	3.00000E+005	Initial Freq. (Hz)
FREQFINAL	QUANT	1.00000E+000	Final Freq. (Hz)
PTSPERDEC	QUANT	1.00000E+001	Points/decade
VAC	QUANT	5.00000E+001	AC Voltage (mV rms)
AREA	QUANT	1.00000E+000	Sample Area (cm^2)
SPEED	SELECTOR	2	Optimize for:
ZGUESS	QUANT	1.00000E+003	Estimated Z (ohms)
EOC	QUANT	0	Open Circuit (V)
SEQUENCER	TOGGLE	TRUE	Run as Sequence
PSTATMODEL	IQUANT	5	Pstat Model
PSTATSECTION	LABEL	REF3000-16137	Pstat Section
PSTATSERIALNO	LABEL	16137	Pstat Serial Number
CTRLMODE	IQUANT	1	Control Mode
IESTAB	IQUANT	0	I/E Stability
CASPEED	IQUANT	1	Control Amp Speed
CONVENTION	IQUANT	1	Current Convention
ICHRANGE	IQUANT	2	Ich Range
ICHRANGEMODE	TOGGLE	F	Ich Auto Range
ICHOFFSETENABLE	TOGGLE	T	Ich Offset Enable
ICHOFFSET	QUANT	0	Ich Offset (V)
ICHFILTER	IQUANT	3	Ich Filter
VCHRANGE	IQUANT	2	Vch Range
VCHRANGEMODE	TOGGLE	F	Vch Auto Range
VCHOFFSETENABLE	TOGGLE	T	Vch Offset Enable
VCHOFFSET	QUANT	0	Vch Offset (V)
VCHFILTER	IQUANT	3	Vch Filter
ACHRANGE	IQUANT	2	Ach Range
ACHOFFSETENABLE	TOGGLE	F	Ach Offset Enable
ACHOFFSET	QUANT	0	Ach Offset (V)
ACHFILTER	IQUANT	3	Ach Filter
IERANGELOWERLIMIT	IQUANT	2	I/E Range Lower Limit
IERANGEMODE	TOGGLE	F	I/E AutoRange
IERANGE	IQUANT	11	I/E Range
POSFEEDENABLE	TOGGLE	F	Positive Feedback IR Comp
POSFEEDRESISTANCE	QUANT	0	Positive Feedback Resistance (ohm)
ACHSELECT	IQUANT	0	Ach Select
CABLEID	IQUANT	13	Cable ID
DCCALDATE	LABEL	7/31/2020	DC Calibration Date
ACCALDATE	LABEL	7/31/2020	AC Calibration Date
THERMOSELECT	IQUANT	1	Thermo Select
FRAMEWORKVERSION	QUANT	6.33	Framework Version
INSTRUMENTVERSION	LABEL	3.50	Instrument Version
COMPLIANCEVOLTAGE	IQUANT	0	Compliance Voltage
ZCURVE	TABLE
	Pt	Time	Freq	Zreal	Zimag	Zsig	Zmod	Zphz	Idc	Vdc	IERange
	#	s	Hz	ohm	ohm	V	ohm	°	A	V	#
	0	24	300046.9	547.7967	-87.06857	1	554.673	-9.031229	-1.390429E-005	0.0015252	9
	1	31	238359.4	555.1771	-80.24691	1	560.9467	-8.224735	-1.717205E-005	0.0010729	9
	2	38	189328.1	562.5051	-76.61036	1	567.6981	-7.755677	8.44036E-005	-0.0033092	9
	3	48	150421.9	570.6624	-78.04372	1	575.9743	-7.787454	-2.028318E-005	0.0011701	9
	4	54	119484.4	581.009	-60.771	1	584.1785	-5.971176	1.510454E-006	-0.0094243	8
	5	61	94921.88	587.097	-66.12529	1	590.8092	-6.426195	-2.166118E-006	-0.0027835	8
	6	63	75421.88	593.0892	-76.06229	1	597.9467	-7.308156	-1.409489E-005	0.0070557	8
	7	66	59859.37	599.5281	-88.36459	1	606.0051	-8.384473	-1.170131E-005	0.0014391	8
	8	68	47578.12	606.5516	-101.9259	1	615.0559	-9.53895	-2.159914E-006	-0.0020596	8
	9	71	37828.12	615.9171	-120.3089	1	627.5572	-11.05258	1.575967E-005	-0.0057014	8
	10	73	30046.88	628.6635	-141.125	1	644.309	-12.65225	-5.900595E-006	0.0059096	8
	11	76	23859.38	640.7635	-164.4862	1	661.5388	-14.39715	-1.427383E-005	0.0027915	8
	12	78	18984.38	656.6791	-193.3735	1	684.5588	-16.40822	-2.732217E-006	-0.0023763	8
	13	81	15046.87	673.3817	-229.8784	1	711.5385	-18.84883	-1.257899E-005	0.0016639	8
	14	83	11953.13	694.993	-269.2597	1	745.3295	-21.17776	-1.212139E-005	0.0013795	8
	15	85	9515.62	719.2497	-317.4761	1	786.2005	-23.81661	1.548696E-005	-0.0056341	8
	16	88	7546.875	747.3218	-371.3779	1	834.5126	-26.42485	-1.414517E-005	0.006938	8
	17	90	5928.309	787.7603	-444.9761	1	904.7486	-29.46047	1.346407E-005	-0.0061362	8
	18	93	4733.456	834.4973	-522.9331	1	984.807	-32.07309	-5.960583E-006	0.0064003	8
	19	96	3796.875	887.4554	-610.8002	1	1077.337	-34.53809	1.310419E-005	-0.005979	8
	20	99	2987.132	956.933	-716.3028	1	1195.329	-36.81633	1.635243E-005	-0.0023914	8
	21	102	2390.625	1030.198	-831.8683	1	1324.127	-38.92031	-1.712264E-005	0.0046011	8
	22	105	1884.191	1129.464	-968.643	1	1487.938	-40.61681	1.687814E-005	-0.0026118	8
	23	109	1516.544	1237.789	-1116.559	1	1666.981	-42.05233	-1.477888E-005	0.007303	8
	24	113	1193.986	1371.869	-1293.429	1	1885.467	-43.31426	-8.528898E-006	-0.0003224	8
	25	117	946.5144	1527.717	-1491.773	1	2135.253	-44.31799	1.289499E-005	-0.0003165	8
	26	120	751.7689	1715.718	-1722.032	1	2430.86	-45.10524	-1.67346E-005	0.0066721	8
	27	123	597.4265	1919.238	-1974.737	1	2753.736	-45.81656	1.731479E-005	-0.0009106	9
	28	126	477.4305	2149.248	-2225.327	1	3093.759	-45.99635	-2.607458E-007	0.0006181	8
	29	130	376.6741	2435.76	-2538.226	1	3517.885	-46.18015	-2.718403E-007	0.0006345	8
	30	132	298.2954	2758.628	-2878.454	1	3986.919	-46.21774	-2.861379E-007	0.0006299	8
	31	134	237.7717	3122.949	-3246.807	1	4504.949	-46.11396	-1.912691E-007	0.0005822	7
	32	137	189.0121	3526.831	-3653.069	1	5077.74	-46.00727	-1.900569E-007	0.000589	7
	33	139	150.2404	3974.821	-4102.606	1	5712.318	-45.90635	-1.9204E-007	0.0005847	7
	34	141	119.1737	4471.456	-4608.858	1	6421.486	-45.86693	-1.895415E-007	0.0005967	7
	35	144	95.0169	5009.619	-5169.716	1	7198.767	-45.90105	-1.95428E-007	0.0006312	7
	36	146	75.60484	5606.157	-5814.229	1	8076.772	-46.04378	-1.952016E-007	0.0006139	7
	37	149	54.50582	6574.854	-6902.214	1	9532.54	-46.39145	-1.890599E-007	0.0005951	7
	38	151	45.95588	7147.936	-7569.027	1	10410.72	-46.63894	-2.006665E-007	0.0006248	7
	39	154	37.20238	7932.462	-8495.271	1	11622.98	-46.96217	-1.872892E-007	0.0005812	7
	40	156	30.04808	8821.505	-9562.25	1	13009.83	-47.3074	-2.002529E-007	0.000612	7
	41	159	23.91582	9906.16	-10872.37	1	14708.51	-47.66235	-1.920622E-007	0.0006366	7
	42	161	18.60119	11272.32	-12522.64	1	16848.79	-48.00789	-2.004313E-007	0.0005925	7
	43	163	15.02404	12639.17	-14155.11	1	18976.72	-48.23817	-2.042804E-007	0.0005833	7
	44	165	12.01923	14274.94	-16057.91	1	21485.58	-48.36398	-1.812444E-007	0.0006036	7
	45	168	9.450605	16325.38	-18363.8	1	24571.27	-48.36296	-2.016404E-007	0.0005964	7
	46	170	7.512019	18607.8	-20869.68	1	27960.58	-48.2792	-2.054096E-007	0.0006219	7
	47	173	5.978954	21245.68	-23649.67	1	31791.29	-48.06506	-1.931457E-007	0.0005825	7
	48	176	4.734848	24397.97	-26812.62	1	36251.58	-47.69957	-1.89303E-007	0.0006441	7
	49	179	3.75601	27956.8	-30248.39	1	41189.18	-47.25462	-1.918004E-007	0.0005955	7
	50	183	3.004808	31965.33	-33821.27	1	46536.66	-46.61598	-1.604747E-007	0.0006775	6
	51	187	2.372217	36767.24	-37914.82	1	52814.43	-45.88035	-1.63762E-007	0.0006596	6
	52	191	1.878005	42276.2	-42223.06	1	59750.01	-44.96397	-1.625023E-007	0.0006689	6
	53	196	1.512097	47911.72	-46490.62	1	66760.1	-44.13756	-1.580724E-007	0.0005523	6
	54	201	1.201923	54618.39	-51430.4	1	75021.69	-43.27812	-1.589784E-007	0.0006785	6
	55	207	0.956633	61961.42	-56616.41	1	83932.33	-42.41909	-1.605127E-007	2.724966E-005	6
