EXPLAIN
TAG	EISPOT
TITLE	LABEL	Potentiostatic EIS	Test Identifier
DATE	LABEL	8/18/2020	Date
TIME	LABEL	0:30:22	Time
NOTES	NOTES	1	Notes...
	
PSTAT	PSTAT	REF3000-16137	Potentiostat
VDC	POTEN	0.00000E+000	T	DC Voltage (V)
FREQINIT	QUANT	3.00000E+005	Initial Freq. (Hz)
FREQFINAL	QUANT	1.00000E+000	Final Freq. (Hz)
PTSPERDEC	QUANT	1.00000E+001	Points/decade
VAC	QUANT	5.00000E+001	AC Voltage (mV rms)
AREA	QUANT	1.00000E+000	Sample Area (cm^2)
SPEED	SELECTOR	2	Optimize for:
ZGUESS	QUANT	1.00000E+003	Estimated Z (ohms)
EOC	QUANT	0	Open Circuit (V)
SEQUENCER	TOGGLE	TRUE	Run as Sequence
PSTATMODEL	IQUANT	5	Pstat Model
PSTATSECTION	LABEL	REF3000-16137	Pstat Section
PSTATSERIALNO	LABEL	16137	Pstat Serial Number
CTRLMODE	IQUANT	1	Control Mode
IESTAB	IQUANT	0	I/E Stability
CASPEED	IQUANT	1	Control Amp Speed
CONVENTION	IQUANT	1	Current Convention
ICHRANGE	IQUANT	2	Ich Range
ICHRANGEMODE	TOGGLE	F	Ich Auto Range
ICHOFFSETENABLE	TOGGLE	T	Ich Offset Enable
ICHOFFSET	QUANT	0	Ich Offset (V)
ICHFILTER	IQUANT	3	Ich Filter
VCHRANGE	IQUANT	2	Vch Range
VCHRANGEMODE	TOGGLE	F	Vch Auto Range
VCHOFFSETENABLE	TOGGLE	T	Vch Offset Enable
VCHOFFSET	QUANT	0	Vch Offset (V)
VCHFILTER	IQUANT	3	Vch Filter
ACHRANGE	IQUANT	2	Ach Range
ACHOFFSETENABLE	TOGGLE	F	Ach Offset Enable
ACHOFFSET	QUANT	0	Ach Offset (V)
ACHFILTER	IQUANT	3	Ach Filter
IERANGELOWERLIMIT	IQUANT	2	I/E Range Lower Limit
IERANGEMODE	TOGGLE	F	I/E AutoRange
IERANGE	IQUANT	11	I/E Range
POSFEEDENABLE	TOGGLE	F	Positive Feedback IR Comp
POSFEEDRESISTANCE	QUANT	0	Positive Feedback Resistance (ohm)
ACHSELECT	IQUANT	0	Ach Select
CABLEID	IQUANT	13	Cable ID
DCCALDATE	LABEL	7/31/2020	DC Calibration Date
ACCALDATE	LABEL	7/31/2020	AC Calibration Date
THERMOSELECT	IQUANT	1	Thermo Select
FRAMEWORKVERSION	QUANT	6.33	Framework Version
INSTRUMENTVERSION	LABEL	3.50	Instrument Version
COMPLIANCEVOLTAGE	IQUANT	0	Compliance Voltage
ZCURVE	TABLE
	Pt	Time	Freq	Zreal	Zimag	Zsig	Zmod	Zphz	Idc	Vdc	IERange
	#	s	Hz	ohm	ohm	V	ohm	°	A	V	#
	0	10	300046.9	359.1921	-44.87148	1	361.984	-7.12069	-9.245155E-005	0.0022029	9
	1	15	238359.4	362.8515	-45.22651	1	365.6592	-7.104814	5.161899E-005	-0.0001994	9
	2	24	189328.1	365.4369	-46.36749	1	368.3667	-7.231183	-3.25835E-005	-0.0007722	9
	3	30	150421.9	369.8156	-50.17015	1	373.2032	-7.725731	1.792183E-005	-0.0009285	9
	4	35	119484.4	373.6204	-53.3916	1	377.416	-8.132696	1.353514E-005	-0.0018136	9
	5	40	94921.88	379.8146	-48.59261	1	382.9104	-7.290685	-1.18675E-005	0.0042344	8
	6	42	75421.88	384.6899	-58.54754	1	389.1197	-8.653673	2.161585E-006	-0.00281	8
	7	45	59859.37	388.668	-69.82958	1	394.8911	-10.18532	-3.627696E-006	-0.0014637	8
	8	47	47578.12	394.6927	-83.88564	1	403.5085	-11.99877	1.292808E-005	-0.0044522	8
	9	50	37828.12	402.1201	-99.2535	1	414.1881	-13.86493	6.248296E-006	0.0018229	8
	10	53	30046.88	410.815	-117.9607	1	427.4151	-16.0208	-2.268192E-006	-0.0016385	8
	11	55	23859.38	421.3817	-140.384	1	444.1511	-18.42558	-1.10332E-005	0.00168	8
	12	57	18984.38	432.543	-166.4127	1	463.4508	-21.04328	2.331746E-006	-0.0032928	8
	13	60	15046.87	449.3734	-198.1214	1	491.1094	-23.7919	1.491252E-005	-0.0038919	8
	14	62	11953.13	467.0948	-233.3655	1	522.1465	-26.5472	-1.387832E-005	0.0039655	8
	15	65	9515.62	489.5325	-276.4697	1	562.2077	-29.45614	-1.362418E-006	0.0040121	8
	16	67	7546.875	517.3502	-324.6662	1	610.7858	-32.11058	-1.35932E-005	0.0056041	8
	17	69	5928.309	552.6113	-385.3094	1	673.6783	-34.88622	-4.628241E-006	0.0052753	8
	18	72	4733.456	593.4462	-448.7305	1	744.001	-37.09451	-1.39133E-005	0.0056972	8
	19	75	3796.875	642.509	-520.615	1	826.957	-39.01731	-1.502378E-005	0.0046931	8
	20	77	2987.132	704.3613	-608.3465	1	930.7042	-40.81669	-1.381664E-005	0.0056586	8
	21	80	2390.625	772.4984	-700.2664	1	1042.654	-42.19217	1.302459E-005	-0.004743	8
	22	83	1884.191	860.4827	-812.8759	1	1183.722	-43.37038	-8.75557E-006	0.0058688	8
	23	86	1516.544	944.6524	-924.5424	1	1321.797	-44.3836	1.436458E-005	-0.0041406	8
	24	88	1193.986	1069.373	-1065.077	1	1509.287	-44.8847	1.030673E-005	-0.0047466	8
	25	91	946.5144	1198.193	-1219.877	1	1709.903	-45.5138	1.648706E-006	-0.0031822	8
	26	94	751.7689	1343.149	-1367.015	1	1916.449	-45.50455	-8.303391E-006	0.0058532	8
	27	97	597.4265	1522.792	-1560.908	1	2180.672	-45.70818	1.45438E-005	-0.0042477	8
	28	99	477.4305	1725.058	-1749.003	1	2456.59	-45.3949	-3.276593E-007	0.0006228	8
	29	101	376.6741	1960.323	-1969.574	1	2778.864	-45.13488	-3.308261E-007	0.0006257	8
	30	104	298.2954	2219.616	-2205.807	1	3129.262	-44.82121	-3.422975E-007	0.0006378	8
	31	106	237.7717	2498.45	-2455.946	1	3503.416	-44.50846	-3.206409E-007	0.0006141	8
	32	109	189.0121	2807.99	-2733.163	1	3918.544	-44.22633	-3.189792E-007	0.000619	8
	33	111	150.2404	3153.06	-3045.526	1	4383.722	-44.00612	-3.504948E-007	0.0006222	7
	34	113	119.1737	3524.495	-3394.749	1	4893.504	-43.92574	-3.490912E-007	0.0006197	7
	35	116	95.0169	3920.286	-3785.916	1	5449.936	-44.00106	-3.504421E-007	0.0006266	7
	36	118	75.60484	4358.399	-4236.38	1	6078.039	-44.18663	-3.46544E-007	0.0006002	7
	37	121	54.50582	5068.765	-5001.667	1	7121.028	-44.61825	-3.423255E-007	0.0005931	7
	38	123	45.95588	5487.069	-5467.689	1	7746.196	-44.89864	-3.546513E-007	0.0006346	7
	39	126	37.20238	6059.281	-6120.262	1	8612.346	-45.28687	-3.508394E-007	0.0005967	7
	40	128	30.04808	6713.403	-6873.438	1	9608.01	-45.67484	-3.512313E-007	0.0006046	7
	41	131	23.91582	7506.267	-7790.792	1	10818.53	-46.06558	-3.614655E-007	0.0006282	7
	42	133	18.60119	8532.091	-8959.53	1	12372.14	-46.39985	-3.471907E-007	0.0006429	7
	43	135	15.02404	9553.46	-10084.61	1	13891.3	-46.54929	-3.316511E-007	0.00063	7
	44	137	12.01923	10776.65	-11386.5	1	15677.64	-46.57618	-3.482415E-007	0.0006539	7
	45	140	9.450605	12314	-12936.78	1	17860.43	-46.41285	-3.584401E-007	0.0006051	7
	46	142	7.512019	14046.37	-14594.1	1	20255.57	-46.09561	-3.39094E-007	0.00062	7
	47	145	5.978954	16010.7	-16372.14	1	22899.55	-45.63947	-3.315816E-007	0.0006237	7
	48	148	4.734848	18335.76	-18325.31	1	25923.3	-44.98367	-3.275216E-007	0.0006226	7
	49	151	3.75601	20973.42	-20384.94	1	29247.73	-44.18481	-3.503608E-007	0.0005959	7
	50	155	3.004808	23873.91	-22466.97	1	32783.05	-43.26101	-3.415222E-007	0.0005996	7
	51	158	2.372217	27288.39	-24708.31	1	36812.46	-42.15931	-3.415911E-007	0.0006509	7
	52	163	1.878005	31090.33	-27033.9	1	41200	-41.00786	-3.433254E-007	0.0005931	7
	53	167	1.512097	34878.87	-29220	1	45501.04	-39.9548	-3.393947E-007	0.000583	7
	54	173	1.201923	39316.69	-31565.14	1	50419.84	-38.759	-3.255085E-007	0.0006701	6
	55	179	0.956633	44050.95	-33926.02	1	55600.91	-37.60181	-3.290618E-007	4.858647E-005	6
