EXPLAIN
TAG	EISPOT
TITLE	LABEL	Potentiostatic EIS	Test Identifier
DATE	LABEL	8/18/2020	Date
TIME	LABEL	0:20:59	Time
NOTES	NOTES	1	Notes...
	
PSTAT	PSTAT	REF3000-16137	Potentiostat
VDC	POTEN	0.00000E+000	T	DC Voltage (V)
FREQINIT	QUANT	3.00000E+005	Initial Freq. (Hz)
FREQFINAL	QUANT	1.00000E+000	Final Freq. (Hz)
PTSPERDEC	QUANT	1.00000E+001	Points/decade
VAC	QUANT	5.00000E+001	AC Voltage (mV rms)
AREA	QUANT	1.00000E+000	Sample Area (cm^2)
SPEED	SELECTOR	2	Optimize for:
ZGUESS	QUANT	1.00000E+003	Estimated Z (ohms)
EOC	QUANT	0	Open Circuit (V)
SEQUENCER	TOGGLE	TRUE	Run as Sequence
PSTATMODEL	IQUANT	5	Pstat Model
PSTATSECTION	LABEL	REF3000-16137	Pstat Section
PSTATSERIALNO	LABEL	16137	Pstat Serial Number
CTRLMODE	IQUANT	1	Control Mode
IESTAB	IQUANT	0	I/E Stability
CASPEED	IQUANT	1	Control Amp Speed
CONVENTION	IQUANT	1	Current Convention
ICHRANGE	IQUANT	2	Ich Range
ICHRANGEMODE	TOGGLE	F	Ich Auto Range
ICHOFFSETENABLE	TOGGLE	T	Ich Offset Enable
ICHOFFSET	QUANT	0	Ich Offset (V)
ICHFILTER	IQUANT	3	Ich Filter
VCHRANGE	IQUANT	2	Vch Range
VCHRANGEMODE	TOGGLE	F	Vch Auto Range
VCHOFFSETENABLE	TOGGLE	T	Vch Offset Enable
VCHOFFSET	QUANT	0	Vch Offset (V)
VCHFILTER	IQUANT	3	Vch Filter
ACHRANGE	IQUANT	2	Ach Range
ACHOFFSETENABLE	TOGGLE	F	Ach Offset Enable
ACHOFFSET	QUANT	0	Ach Offset (V)
ACHFILTER	IQUANT	3	Ach Filter
IERANGELOWERLIMIT	IQUANT	2	I/E Range Lower Limit
IERANGEMODE	TOGGLE	F	I/E AutoRange
IERANGE	IQUANT	11	I/E Range
POSFEEDENABLE	TOGGLE	F	Positive Feedback IR Comp
POSFEEDRESISTANCE	QUANT	0	Positive Feedback Resistance (ohm)
ACHSELECT	IQUANT	0	Ach Select
CABLEID	IQUANT	13	Cable ID
DCCALDATE	LABEL	7/31/2020	DC Calibration Date
ACCALDATE	LABEL	7/31/2020	AC Calibration Date
THERMOSELECT	IQUANT	1	Thermo Select
FRAMEWORKVERSION	QUANT	6.33	Framework Version
INSTRUMENTVERSION	LABEL	3.50	Instrument Version
COMPLIANCEVOLTAGE	IQUANT	0	Compliance Voltage
ZCURVE	TABLE
	Pt	Time	Freq	Zreal	Zimag	Zsig	Zmod	Zphz	Idc	Vdc	IERange
	#	s	Hz	ohm	ohm	V	ohm	°	A	V	#
	0	17	300046.9	339.4369	-43.99192	1	342.2758	-7.384522	2.541394E-005	-0.0020751	9
	1	22	238359.4	340.9567	-50.15449	1	344.6258	-8.368156	-2.387347E-005	0.0005725	10
	2	28	189328.1	344.9974	-46.98709	1	348.1825	-7.755708	-8.582877E-006	0.0016246	9
	3	33	150421.9	348.4702	-51.00116	1	352.1827	-8.326537	5.245349E-005	-0.0001032	9
	4	39	119484.4	352.6867	-55.24935	1	356.9879	-8.903186	-1.937724E-005	0.0015831	9
	5	44	94921.88	356.3887	-61.9721	1	361.7367	-9.86447	2.973714E-005	-0.0009539	9
	6	47	75421.88	361.0127	-69.78954	1	367.6965	-10.94123	-2.591142E-005	0.0008532	9
	7	49	59859.37	366.8625	-80.13132	1	375.5118	-12.32122	-2.504875E-005	0.0010745	9
	8	52	47578.12	374.1295	-92.73686	1	385.4517	-13.92153	1.733186E-005	-0.00091	9
	9	54	37828.12	382.1808	-103.247	1	395.8814	-15.11771	-1.309784E-005	0.0055566	8
	10	57	30046.88	391.1574	-122.0509	1	409.7567	-17.32922	-1.370721E-005	0.00469	8
	11	59	23859.38	402.5121	-144.8657	1	427.7874	-19.794	1.073638E-005	-0.0005856	8
	12	62	18984.38	416.3156	-170.2527	1	449.7829	-22.24215	1.390454E-005	-0.0040617	8
	13	64	15046.87	432.6733	-202.2209	1	477.5976	-25.05023	-1.365843E-005	0.0038455	8
	14	66	11953.13	454.5087	-237.146	1	512.6562	-27.5539	-1.266346E-005	0.002829	8
	15	69	9515.62	478.7309	-276.4254	1	552.8058	-30.00269	6.838991E-007	0.0035663	8
	16	71	7546.875	509.7731	-325.6994	1	604.937	-32.57494	1.408603E-005	-0.0030992	8
	17	73	5928.309	543.9067	-378.0216	1	662.3707	-34.79976	-1.414867E-005	0.0048404	8
	18	76	4733.456	587.5776	-438.4876	1	733.1567	-36.73263	-8.751625E-006	0.0057719	8
	19	78	3796.875	636.5428	-507.4633	1	814.0674	-38.56248	-8.416104E-006	0.0058089	8
	20	81	2987.132	698.8743	-583.6128	1	910.5104	-39.86443	-1.384823E-005	0.0039213	8
	21	83	2390.625	768.4476	-666.9319	1	1017.502	-40.95455	-1.14024E-005	0.0058372	8
	22	86	1884.191	853.8414	-762.1122	1	1144.491	-41.75111	-8.504559E-006	0.0057434	8
	23	88	1516.544	943.7866	-859.3032	1	1276.376	-42.31738	6.258944E-006	-0.0041022	8
	24	92	1193.986	1059.001	-980.323	1	1443.092	-42.79058	-1.309838E-005	0.0054688	8
	25	95	946.5144	1191.092	-1111.505	1	1629.154	-43.02044	-8.193873E-006	0.0056123	8
	26	97	751.7689	1326.769	-1239.616	1	1815.755	-43.05502	1.354499E-005	-0.0022964	8
	27	100	597.4265	1485.348	-1393.131	1	2036.436	-43.16507	1.169514E-006	0.0034137	8
	28	103	477.4305	1672.522	-1549.047	1	2279.666	-42.80505	-4.690104E-007	0.000638	8
	29	105	376.6741	1884.381	-1727.433	1	2556.349	-42.51183	-4.784888E-007	0.0006486	8
	30	107	298.2954	2115.054	-1917.575	1	2854.917	-42.19645	-4.551729E-007	0.0006422	8
	31	109	237.7717	2359.018	-2117.984	1	3170.303	-41.91827	-4.402227E-007	0.0006269	8
	32	112	189.0121	2626.805	-2340.626	1	3518.329	-41.70277	-4.73585E-007	0.0006457	8
	33	114	150.2404	2916.932	-2588.042	1	3899.546	-41.58098	-4.4597E-007	0.0006395	8
	34	117	119.1737	3240.248	-2873.734	1	4331	-41.5694	-4.776359E-007	0.0006266	7
	35	119	95.0169	3574.369	-3190.982	1	4791.501	-41.75657	-4.691779E-007	0.0006017	7
	36	122	75.60484	3943.174	-3557.29	1	5310.644	-42.05485	-4.72315E-007	0.0006118	7
	37	124	54.50582	4538.236	-4182.672	1	6171.736	-42.66526	-4.779077E-007	0.0006085	7
	38	127	45.95588	4889.936	-4566.334	1	6690.506	-43.04005	-4.675954E-007	0.0006035	7
	39	129	37.20238	5369.528	-5102.367	1	7407.158	-43.53857	-4.834519E-007	0.0006248	7
	40	131	30.04808	5921.984	-5720.804	1	8233.924	-44.01006	-4.794588E-007	0.0006321	7
	41	134	23.91582	6597.075	-6474.388	1	9243.327	-44.46224	-4.617381E-007	0.0006209	7
	42	136	18.60119	7474.631	-7422.943	1	10534.24	-44.80121	-4.76508E-007	0.0006272	7
	43	139	15.02404	8349.657	-8328.536	1	11793.27	-44.92744	-4.847765E-007	0.0006292	7
	44	141	12.01923	9400.49	-9373.992	1	13275.58	-44.91913	-4.717422E-007	0.0006283	7
	45	143	9.450605	10738.16	-10599.52	1	15088.33	-44.62771	-4.520726E-007	0.0005935	7
	46	146	7.512019	12216.99	-11871.73	1	17035.04	-44.17884	-4.572091E-007	0.0006057	7
	47	149	5.978954	13903.58	-13204.06	1	19174.38	-43.52178	-4.584055E-007	0.0006289	7
	48	152	4.734848	15895.95	-14648.89	1	21616.46	-42.66209	-4.727247E-007	0.00061	7
	49	155	3.75601	18101.58	-16080.04	1	24212.29	-41.61541	-4.558673E-007	0.0006543	7
	50	158	3.004808	20491.34	-17462.93	1	26923.02	-40.43799	-4.60756E-007	0.0006228	7
	51	162	2.372217	23261.83	-18911.87	1	29979.52	-39.11111	-4.571967E-007	0.0006245	7
	52	166	1.878005	26251.67	-20255.43	1	33157.7	-37.65329	-4.564109E-007	0.0006055	7
	53	171	1.512097	29163.46	-21509.13	1	36237.42	-36.41014	-4.581006E-007	0.0007035	7
	54	176	1.201923	32435.08	-22779.73	1	39635.21	-35.08105	-4.555819E-007	0.0006155	7
	55	183	0.956633	35851.55	-24003.6	1	43145.18	-33.8034	-4.726202E-007	-2.662317E-005	7
