EXPLAIN
TAG	EISPOT
TITLE	LABEL	Potentiostatic EIS	Test Identifier
DATE	LABEL	8/18/2020	Date
TIME	LABEL	1:12:54	Time
NOTES	NOTES	1	Notes...
	
PSTAT	PSTAT	REF3000-16137	Potentiostat
VDC	POTEN	0.00000E+000	T	DC Voltage (V)
FREQINIT	QUANT	3.00000E+005	Initial Freq. (Hz)
FREQFINAL	QUANT	1.00000E+000	Final Freq. (Hz)
PTSPERDEC	QUANT	1.00000E+001	Points/decade
VAC	QUANT	5.00000E+001	AC Voltage (mV rms)
AREA	QUANT	1.00000E+000	Sample Area (cm^2)
SPEED	SELECTOR	2	Optimize for:
ZGUESS	QUANT	1.00000E+003	Estimated Z (ohms)
EOC	QUANT	0	Open Circuit (V)
SEQUENCER	TOGGLE	TRUE	Run as Sequence
PSTATMODEL	IQUANT	5	Pstat Model
PSTATSECTION	LABEL	REF3000-16137	Pstat Section
PSTATSERIALNO	LABEL	16137	Pstat Serial Number
CTRLMODE	IQUANT	1	Control Mode
IESTAB	IQUANT	0	I/E Stability
CASPEED	IQUANT	1	Control Amp Speed
CONVENTION	IQUANT	1	Current Convention
ICHRANGE	IQUANT	2	Ich Range
ICHRANGEMODE	TOGGLE	F	Ich Auto Range
ICHOFFSETENABLE	TOGGLE	T	Ich Offset Enable
ICHOFFSET	QUANT	0	Ich Offset (V)
ICHFILTER	IQUANT	3	Ich Filter
VCHRANGE	IQUANT	2	Vch Range
VCHRANGEMODE	TOGGLE	F	Vch Auto Range
VCHOFFSETENABLE	TOGGLE	T	Vch Offset Enable
VCHOFFSET	QUANT	0	Vch Offset (V)
VCHFILTER	IQUANT	3	Vch Filter
ACHRANGE	IQUANT	2	Ach Range
ACHOFFSETENABLE	TOGGLE	F	Ach Offset Enable
ACHOFFSET	QUANT	0	Ach Offset (V)
ACHFILTER	IQUANT	3	Ach Filter
IERANGELOWERLIMIT	IQUANT	2	I/E Range Lower Limit
IERANGEMODE	TOGGLE	F	I/E AutoRange
IERANGE	IQUANT	11	I/E Range
POSFEEDENABLE	TOGGLE	F	Positive Feedback IR Comp
POSFEEDRESISTANCE	QUANT	0	Positive Feedback Resistance (ohm)
ACHSELECT	IQUANT	0	Ach Select
CABLEID	IQUANT	13	Cable ID
DCCALDATE	LABEL	7/31/2020	DC Calibration Date
ACCALDATE	LABEL	7/31/2020	AC Calibration Date
THERMOSELECT	IQUANT	1	Thermo Select
FRAMEWORKVERSION	QUANT	6.33	Framework Version
INSTRUMENTVERSION	LABEL	3.50	Instrument Version
COMPLIANCEVOLTAGE	IQUANT	0	Compliance Voltage
ZCURVE	TABLE
	Pt	Time	Freq	Zreal	Zimag	Zsig	Zmod	Zphz	Idc	Vdc	IERange
	#	s	Hz	ohm	ohm	V	ohm	°	A	V	#
	0	20	300046.9	2213.852	-2331.19	1	3214.901	-46.47887	-2.017772E-005	0.001158	9
	1	34	238359.4	2624.613	-2653.976	1	3732.584	-45.31872	4.921397E-005	0.0000983	9
	2	52	189328.1	3201.544	-2377.374	1	3987.706	-36.59651	5.18006E-005	5.48102E-005	9
	3	60	150421.9	3653.32	-2261.204	1	4296.486	-31.75522	8.016745E-005	-0.0016238	9
	4	67	119484.4	4174.861	-2018.104	1	4637.047	-25.79885	2.569704E-005	0.0073658	8
	5	75	94921.88	4542.104	-1804.618	1	4887.469	-21.66836	-1.378317E-006	0.0073399	8
	6	82	75421.88	4837.945	-1624.436	1	5103.382	-18.5605	8.651037E-006	0.0038768	8
	7	90	59859.37	5101.724	-1451.251	1	5304.123	-15.87909	1.74326E-005	0.0001105	8
	8	97	47578.12	5323.045	-1294.382	1	5478.16	-13.66712	-1.61148E-005	0.0008879	8
	9	105	37828.12	5520.268	-1148.852	1	5638.547	-11.75632	2.487578E-005	-0.0049041	8
	10	112	30046.88	5687.046	-1066.297	1	5786.146	-10.61942	-2.036616E-005	0.0030104	8
	11	119	23859.38	5854.75	-986.998	1	5937.361	-9.56899	2.646508E-005	-0.0072622	8
	12	125	18984.38	5977.654	-955.434	1	6053.528	-9.081022	1.764963E-005	5.698774E-005	8
	13	130	15046.87	6103.101	-931.6664	1	6173.803	-8.679459	2.304741E-005	-0.0030438	8
	14	136	11953.13	6264.6	-956.851	1	6337.253	-8.684206	2.099757E-005	-0.009402	8
	15	141	9515.62	6381.096	-988.641	1	6457.228	-8.80697	2.138608E-005	-0.0094199	8
	16	147	7546.875	6530.597	-1053.934	1	6615.095	-9.167581	8.65909E-006	0.0038482	8
	17	152	5928.309	6743.433	-1029.242	1	6821.527	-8.678011	3.708305E-006	-0.0230493	7
	18	156	4733.456	6888.345	-1193.718	1	6991.013	-9.83145	-3.890651E-007	-0.0139581	7
	19	161	3796.875	7018.394	-1371.497	1	7151.144	-11.0571	1.979803E-006	0.0097915	7
	20	165	2987.132	7200.402	-1589.879	1	7373.839	-12.45136	-6.17035E-006	0.0228656	7
	21	169	2390.625	7421.039	-1876.104	1	7654.514	-14.18761	-3.288743E-007	0.0168933	7
	22	173	1884.191	7619.475	-2167.882	1	7921.875	-15.88204	-6.660352E-006	0.0203375	7
	23	177	1516.544	7879.455	-2537.061	1	8277.831	-17.84775	-3.946759E-006	0.0240559	7
	24	182	1193.986	8228.396	-3039.713	1	8771.907	-20.27511	-3.912404E-006	0.0239262	7
	25	186	946.5144	8562.034	-3600.862	1	9288.414	-22.80975	-4.434685E-006	0.0008906	7
	26	189	751.7689	8859.033	-4087.502	1	9756.54	-24.7683	-4.094952E-006	0.0242494	7
	27	192	597.4265	9322.916	-4754.787	1	10465.41	-27.02207	7.179454E-006	-0.0213122	7
	28	194	477.4305	9851.8	-5726.935	1	11395.42	-30.16981	-9.233007E-008	0.0006283	7
	29	196	376.6741	10504.67	-6745.221	1	12483.83	-32.70518	-9.310958E-008	0.000645	7
	30	199	298.2954	11275.9	-7895.303	1	13765.24	-34.99942	-8.419953E-008	0.0005645	7
	31	201	237.7717	12161.32	-9172.328	1	15232.51	-37.02438	-8.660788E-008	0.0005596	7
	32	204	189.0121	13217.41	-10636.38	1	16965.63	-38.8245	-9.329842E-008	0.0006402	7
	33	206	150.2404	14452.92	-12295.72	1	18975.56	-40.38924	-8.431046E-008	0.0005547	7
	34	208	119.1737	15865.7	-14218.17	1	21304.38	-41.86536	-8.210856E-008	0.0005756	7
	35	211	95.0169	17514.81	-16322.75	1	23941.61	-42.98236	-8.200336E-008	0.0005896	7
	36	213	75.60484	19414.04	-18760.61	1	26997.51	-44.01937	-9.111282E-008	0.0006629	7
	37	216	54.50582	22617.5	-22825.44	1	32133.35	-45.26218	-8.566546E-008	0.0006126	7
	38	218	45.95588	24581.15	-25259.76	1	35246.11	-45.78007	-8.418978E-008	0.0005595	7
	39	221	37.20238	27315.43	-28589.95	1	39541.34	-46.30598	-8.616489E-008	0.0006483	7
	40	223	30.04808	30536.27	-32391.63	1	44516.08	-46.68882	-1.390715E-008	0.0006214	6
	41	226	23.91582	34342.33	-36913.81	1	50418.5	-47.06678	-1.265314E-008	0.0006431	6
	42	228	18.60119	39162.39	-42651.05	1	57903.42	-47.44171	-2.011321E-008	0.0006142	6
	43	230	15.02404	43751.5	-48042.4	1	64978.97	-47.67634	-1.600183E-008	0.000648	6
	44	233	12.01923	49082.03	-54440.91	1	73299.78	-47.96328	-1.666673E-008	0.0006939	6
	45	235	9.450605	55554.61	-62431.98	1	83570.73	-48.33596	-1.515159E-008	0.000703	6
	46	238	7.512019	62533.25	-71121.94	1	94703.41	-48.67677	-1.334038E-008	0.0006258	6
	47	240	5.978954	70415.34	-81063.32	1	107375.9	-49.02091	-1.524761E-008	0.0005953	6
	48	243	4.734848	79382.25	-92900.63	1	122196.8	-49.48659	-1.351688E-008	0.0007163	6
	49	247	3.75601	89619.13	-106611.1	1	139274.9	-49.949	-1.453708E-008	0.0005909	6
	50	252	3.004808	100970	-122198.3	1	158516.1	-50.43378	-1.443088E-008	0.0006853	6
	51	259	2.372217	114486.1	-141299	1	181858.4	-50.98423	-1.510625E-008	0.0006672	6
	52	263	1.878005	130037.9	-163715	1	209075.3	-51.54007	-1.559792E-008	0.0006425	6
	53	268	1.512097	146066	-187880.8	1	237980	-52.13709	-1.488125E-008	0.0005915	6
	54	273	1.201923	166480.3	-218092.5	1	274372	-52.6438	-1.496387E-008	0.0006325	6
	55	279	0.956633	189921.6	-253118.6	1	316447.8	-53.11812	-1.510456E-008	9.289513E-006	6
