EXPLAIN
TAG	EISPOT
TITLE	LABEL	Potentiostatic EIS	Test Identifier
DATE	LABEL	8/18/2020	Date
TIME	LABEL	1:43:39	Time
NOTES	NOTES	1	Notes...
	
PSTAT	PSTAT	REF3000-16137	Potentiostat
VDC	POTEN	0.00000E+000	T	DC Voltage (V)
FREQINIT	QUANT	3.00000E+005	Initial Freq. (Hz)
FREQFINAL	QUANT	1.00000E+000	Final Freq. (Hz)
PTSPERDEC	QUANT	1.00000E+001	Points/decade
VAC	QUANT	5.00000E+001	AC Voltage (mV rms)
AREA	QUANT	1.00000E+000	Sample Area (cm^2)
SPEED	SELECTOR	2	Optimize for:
ZGUESS	QUANT	1.00000E+003	Estimated Z (ohms)
EOC	QUANT	0	Open Circuit (V)
SEQUENCER	TOGGLE	TRUE	Run as Sequence
PSTATMODEL	IQUANT	5	Pstat Model
PSTATSECTION	LABEL	REF3000-16137	Pstat Section
PSTATSERIALNO	LABEL	16137	Pstat Serial Number
CTRLMODE	IQUANT	1	Control Mode
IESTAB	IQUANT	0	I/E Stability
CASPEED	IQUANT	1	Control Amp Speed
CONVENTION	IQUANT	1	Current Convention
ICHRANGE	IQUANT	2	Ich Range
ICHRANGEMODE	TOGGLE	F	Ich Auto Range
ICHOFFSETENABLE	TOGGLE	T	Ich Offset Enable
ICHOFFSET	QUANT	0	Ich Offset (V)
ICHFILTER	IQUANT	3	Ich Filter
VCHRANGE	IQUANT	2	Vch Range
VCHRANGEMODE	TOGGLE	F	Vch Auto Range
VCHOFFSETENABLE	TOGGLE	T	Vch Offset Enable
VCHOFFSET	QUANT	0	Vch Offset (V)
VCHFILTER	IQUANT	3	Vch Filter
ACHRANGE	IQUANT	2	Ach Range
ACHOFFSETENABLE	TOGGLE	F	Ach Offset Enable
ACHOFFSET	QUANT	0	Ach Offset (V)
ACHFILTER	IQUANT	3	Ach Filter
IERANGELOWERLIMIT	IQUANT	2	I/E Range Lower Limit
IERANGEMODE	TOGGLE	F	I/E AutoRange
IERANGE	IQUANT	11	I/E Range
POSFEEDENABLE	TOGGLE	F	Positive Feedback IR Comp
POSFEEDRESISTANCE	QUANT	0	Positive Feedback Resistance (ohm)
ACHSELECT	IQUANT	0	Ach Select
CABLEID	IQUANT	13	Cable ID
DCCALDATE	LABEL	7/31/2020	DC Calibration Date
ACCALDATE	LABEL	7/31/2020	AC Calibration Date
THERMOSELECT	IQUANT	1	Thermo Select
FRAMEWORKVERSION	QUANT	6.33	Framework Version
INSTRUMENTVERSION	LABEL	3.50	Instrument Version
COMPLIANCEVOLTAGE	IQUANT	0	Compliance Voltage
ZCURVE	TABLE
	Pt	Time	Freq	Zreal	Zimag	Zsig	Zmod	Zphz	Idc	Vdc	IERange
	#	s	Hz	ohm	ohm	V	ohm	°	A	V	#
	0	18	300046.9	-46.60002	-4760.639	1	4760.867	-90.56083	2.180278E-005	-0.0024088	9
	1	32	238359.4	64.42204	-5864.099	1	5864.453	-89.37058	2.53083E-005	0.0010675	9
	2	54	189328.1	47.70285	-7341.159	1	7341.314	-89.6277	1.945567E-005	-0.0021865	9
	3	62	150421.9	339.5752	-9299.984	1	9306.182	-87.90886	-0.00011	0.0039184	9
	4	78	119484.4	558.6078	-11441.31	1	11454.94	-87.20483	2.656882E-005	0.0085035	8
	5	86	94921.88	847.1132	-14243.66	1	14268.83	-86.59646	-2.741021E-005	0.0078491	8
	6	95	75421.88	954.017	-17667.63	1	17693.37	-86.90914	1.655391E-005	-0.0095532	8
	7	102	59859.37	1122.732	-22163.14	1	22191.56	-87.10001	-2.554312E-005	0.0114127	8
	8	111	47578.12	4734.382	-29230.66	1	29611.58	-80.7999	-1.853085E-006	0.022384	7
	9	119	37828.12	5370.289	-36063.66	1	36461.32	-81.53024	-5.501335E-006	0.0273955	7
	10	126	30046.88	3248.181	-44477.25	1	44595.7	-85.8231	-9.795651E-006	-0.0022343	8
	11	135	23859.38	1414.707	-54843.22	1	54861.46	-88.52235	-2.28317E-006	0.0079817	8
	12	141	18984.38	8386.858	-68829.72	1	69338.8	-83.0528	1.319636E-006	-0.0204596	7
	13	146	15046.87	10887.02	-86062.24	1	86748.13	-82.79028	-7.455819E-006	0.024103	7
	14	152	11953.13	14568.74	-107823	1	108802.8	-82.30495	-3.911769E-006	0.0261095	7
	15	157	9515.62	16511.3	-133606.4	1	134622.7	-82.95501	7.042678E-006	-0.0277839	7
	16	162	7546.875	19495.49	-163002.8	1	164164.5	-83.1797	-6.686206E-006	0.0266468	7
	17	169	5928.309	28261.05	-220461.2	1	222265.2	-82.69506	3.555002E-006	-0.0251077	7
	18	175	4733.456	45461.98	-287340.3	1	290914.5	-81.00938	-5.443499E-006	0.0035458	7
	19	181	3796.875	95945.8	-304162.9	1	318936.8	-72.49253	-2.461879E-005	0.0053502	8
	20	189	2987.132	98754.2	-324856.1	1	339534.8	-73.09106	-2.562949E-005	0.0010961	9
	21	199	2390.625	91063.11	79672.69	1	120996.8	41.18324	2.486257E-005	-0.0088356	8
	22	207	1884.191	335771.3	-648918.5	1	730641.9	-62.6415	-3.483703E-006	-0.0054481	7
	23	214	1516.544	228661.5	-705414.2	1	741549.3	-72.03979	6.76203E-006	-0.0104674	7
	24	220	1193.986	945282.7	-1128650	1	1472213	-50.05268	5.468189E-006	-0.0274496	7
	25	228	946.5144	446038.6	848585.1	1	958669	62.27241	2.992975E-006	0.0087963	7
	26	233	751.7689	-456160.4	-39883.97	1	457900.7	-175.0031	-1.768268E-006	0.0078129	8
	27	240	597.4265	1090078	-1241705	1	1652301	-48.72049	2.255084E-007	0.0110143	6
	28	243	477.4305	1294502	-1369442	1	1884438	-46.61139	-9.942087E-009	0.0006315	6
	29	246	376.6741	1811151	-1273692	1	2214173	-35.11679	-9.635478E-010	0.000591	5
	30	249	298.2954	2071746	-1236799	1	2412841	-30.83653	-1.018124E-009	0.0006704	5
	31	252	237.7717	2162009	-1302461	1	2524023	-31.06606	-1.013183E-008	0.000684	6
	32	255	189.0121	2546149	-1082470	1	2766697	-23.03228	-1.0566E-009	0.0006786	5
	33	259	150.2404	2650338	-1118151	1	2876552	-22.8744	-9.851229E-009	0.0006942	6
	34	263	119.1737	3033590	-1194212	1	3260185	-21.48771	-1.002998E-009	0.000589	5
	35	267	95.0169	3022633	-919121.8	1	3159287	-16.91346	-9.316588E-009	0.0005999	6
	36	271	75.60484	3200214	-704461.4	1	3276833	-12.4145	-1.021648E-009	0.0005814	5
	37	275	54.50582	3353372	-700202.2	1	3425695	-11.79421	-9.788395E-009	0.0006092	6
	38	280	45.95588	3423244	-594605.6	1	3474501	-9.85377	-9.218626E-010	0.0006074	5
	39	283	37.20238	3517503	-583023	1	3565494	-9.411162	-1.064819E-009	0.000683	5
	40	287	30.04808	3631912	-586252	1	3678923	-9.169416	-1.116436E-009	0.0007114	5
	41	291	23.91582	3717725	-576778.8	1	3762201	-8.81873	-1.140495E-009	0.0006079	5
	42	295	18.60119	3906467	-325812	1	3920030	-4.76762	-4.076854E-010	0.0006898	4
	43	298	15.02404	3995268	-456476	1	4021260	-6.518018	8.186983E-012	0.0006205	4
	44	300	12.01923	4069263	-528881.6	1	4103489	-7.405215	-2.864032E-010	0.0006868	4
	45	303	9.450605	4166979	-628765.8	1	4214150	-8.58077	-2.307657E-010	0.0006049	4
	46	305	7.512019	4264167	-752491.8	1	4330054	-10.00787	-2.181903E-010	0.0006112	4
	47	308	5.978954	4405260	-903504.9	1	4496958	-11.59045	-2.041068E-010	0.0006732	4
	48	313	4.734848	4567632	-1068739	1	4690998	-13.16921	-9.293652E-011	0.0006985	4
	49	318	3.75601	4772231	-1275360	1	4939710	-14.96241	-4.904099E-011	0.0006097	4
	50	323	3.004808	5005955	-1503016	1	5226724	-16.71216	-7.001272E-011	0.0006599	4
	51	330	2.372217	5259655	-1789094	1	5555613	-18.78596	-1.117202E-010	0.0005721	4
	52	334	1.878005	5526105	-2136592	1	5924768	-21.1383	-7.700601E-011	0.0006494	4
	53	339	1.512097	5830759	-2512122	1	6348898	-23.30829	-6.711431E-011	0.0005642	4
	54	344	1.201923	6217892	-2981679	1	6895839	-25.61922	-1.064255E-010	0.0006664	4
	55	350	0.956633	6685575	-3543521	1	7566601	-27.9247	-1.844674E-010	-4.146071E-006	4
