EXPLAIN
TAG	EISPOT
TITLE	LABEL	Potentiostatic EIS	Test Identifier
DATE	LABEL	8/29/2020	Date
TIME	LABEL	14:58:13	Time
NOTES	NOTES	1	Notes...
	
PSTAT	PSTAT	REF3000-16137	Potentiostat
VDC	POTEN	0.00000E+000	T	DC Voltage (V)
FREQINIT	QUANT	3.00000E+005	Initial Freq. (Hz)
FREQFINAL	QUANT	1.00000E+000	Final Freq. (Hz)
PTSPERDEC	QUANT	1.00000E+001	Points/decade
VAC	QUANT	5.00000E+001	AC Voltage (mV rms)
AREA	QUANT	1.00000E+000	Sample Area (cm^2)
SPEED	SELECTOR	2	Optimize for:
ZGUESS	QUANT	1.00000E+003	Estimated Z (ohms)
EOC	QUANT	0	Open Circuit (V)
SEQUENCER	TOGGLE	TRUE	Run as Sequence
PSTATMODEL	IQUANT	5	Pstat Model
PSTATSECTION	LABEL	REF3000-16137	Pstat Section
PSTATSERIALNO	LABEL	16137	Pstat Serial Number
CTRLMODE	IQUANT	1	Control Mode
IESTAB	IQUANT	0	I/E Stability
CASPEED	IQUANT	1	Control Amp Speed
CONVENTION	IQUANT	1	Current Convention
ICHRANGE	IQUANT	2	Ich Range
ICHRANGEMODE	TOGGLE	F	Ich Auto Range
ICHOFFSETENABLE	TOGGLE	T	Ich Offset Enable
ICHOFFSET	QUANT	0	Ich Offset (V)
ICHFILTER	IQUANT	3	Ich Filter
VCHRANGE	IQUANT	2	Vch Range
VCHRANGEMODE	TOGGLE	F	Vch Auto Range
VCHOFFSETENABLE	TOGGLE	T	Vch Offset Enable
VCHOFFSET	QUANT	0	Vch Offset (V)
VCHFILTER	IQUANT	3	Vch Filter
ACHRANGE	IQUANT	2	Ach Range
ACHOFFSETENABLE	TOGGLE	F	Ach Offset Enable
ACHOFFSET	QUANT	0	Ach Offset (V)
ACHFILTER	IQUANT	1	Ach Filter
IERANGELOWERLIMIT	IQUANT	2	I/E Range Lower Limit
IERANGEMODE	TOGGLE	F	I/E AutoRange
IERANGE	IQUANT	11	I/E Range
POSFEEDENABLE	TOGGLE	F	Positive Feedback IR Comp
POSFEEDRESISTANCE	QUANT	0	Positive Feedback Resistance (ohm)
ACHSELECT	IQUANT	0	Ach Select
CABLEID	IQUANT	13	Cable ID
DCCALDATE	LABEL	7/31/2020	DC Calibration Date
ACCALDATE	LABEL	7/31/2020	AC Calibration Date
THERMOSELECT	IQUANT	1	Thermo Select
FRAMEWORKVERSION	QUANT	6.33	Framework Version
INSTRUMENTVERSION	LABEL	3.50	Instrument Version
COMPLIANCEVOLTAGE	IQUANT	0	Compliance Voltage
ZCURVE	TABLE
	Pt	Time	Freq	Zreal	Zimag	Zsig	Zmod	Zphz	Idc	Vdc	IERange
	#	s	Hz	ohm	ohm	V	ohm	°	A	V	#
	0	7	300046.9	42.95265	-0.926923	1	42.96265	-1.236257	-5.62177E-005	0.0011557	9
	1	10	238359.4	43.15014	-1.966091	1	43.19491	-2.608818	-5.749884E-005	0.0016057	9
	2	13	189328.1	43.4469	-2.89354	1	43.54315	-3.810241	7.735702E-006	-0.0008581	9
	3	16	150421.9	43.84704	-3.823111	1	44.0134	-4.983131	3.912185E-005	-0.0006116	9
	4	18	119484.4	44.26571	-4.943625	1	44.54091	-6.372427	3.973245E-005	-0.000557	9
	5	21	94921.88	44.88023	-5.941639	1	45.27182	-7.541464	-1.335606E-005	0.0002979	9
	6	23	75421.88	45.52328	-7.218371	1	46.09201	-9.010058	-1.757404E-005	0.0005005	9
	7	26	59859.37	46.29032	-8.588204	1	47.08026	-10.51053	-1.157491E-005	0.0002036	9
	8	28	47578.12	47.18985	-10.12033	1	48.26285	-12.1043	-1.282121E-005	0.0005867	9
	9	31	37828.12	48.22638	-11.85288	1	49.66159	-13.80823	1.902823E-005	-0.0003155	9
	10	34	30046.88	49.37686	-13.76852	1	51.26058	-15.5809	-3.45552E-006	-0.0000994	9
	11	36	23859.38	50.64092	-15.91426	1	53.08263	-17.44568	-3.781889E-006	0.0004893	9
	12	38	18984.38	51.89626	-18.36646	1	55.05042	-19.48923	1.920883E-005	-0.0004413	9
	13	41	15046.87	53.16714	-21.28705	1	57.27027	-21.82016	1.740905E-005	-0.0001764	9
	14	43	11953.13	54.43187	-24.87318	1	59.84566	-24.5585	1.851014E-005	-0.0002803	9
	15	45	9515.62	55.52092	-29.27697	1	62.76714	-27.80332	-3.064748E-006	0.0004458	9
	16	48	7546.875	56.51121	-34.9183	1	66.42895	-31.71194	-1.512002E-005	0.0004867	9
	17	50	5928.309	57.51457	-42.46474	1	71.49252	-36.43957	9.085745E-006	-0.0004051	9
	18	52	4733.456	58.43376	-51.44576	1	77.85352	-41.36107	-1.185193E-005	0.0006293	9
	19	55	3796.875	59.32956	-62.46465	1	86.15003	-46.47452	1.945522E-005	-0.0004577	9
	20	57	2987.132	60.39301	-77.77888	1	98.4727	-52.17171	-1.515572E-005	0.0004482	9
	21	59	2390.625	61.77389	-95.5108	1	113.7467	-57.10626	9.617657E-006	-0.0003876	9
	22	62	1884.191	63.10672	-120.0103	1	135.591	-62.26262	3.98952E-006	0.0002933	9
	23	64	1516.544	64.91557	-147.123	1	160.808	-66.19133	9.126603E-006	-0.0004092	9
	24	66	1193.986	67.29646	-184.7675	1	196.6414	-69.98724	1.889862E-005	-0.0004412	9
	25	69	946.5144	70.08971	-231.0796	1	241.4754	-73.12671	1.910696E-005	-0.0002195	9
	26	71	751.7689	74.43887	-287.602	1	297.0792	-75.48881	8.717552E-006	-0.000395	9
	27	73	597.4265	79.39639	-359.3224	1	367.9896	-77.54005	-1.343541E-005	0.0003923	9
	28	76	477.4305	86.04063	-445.4883	1	453.7211	-79.06861	1.343808E-006	7.920866E-005	9
	29	78	376.6741	94.82236	-556.9538	1	564.968	-80.33794	4.208215E-007	0.0006484	8
	30	80	298.2954	106.7044	-696.5654	1	704.6909	-81.29076	4.199538E-007	0.0006575	8
	31	82	237.7717	121.9614	-865.3699	1	873.9221	-81.97782	4.030188E-007	0.0006565	8
	32	85	189.0121	142.4318	-1077.506	1	1086.879	-82.46992	4.213057E-007	0.0006506	8
	33	87	150.2404	169.6894	-1340.825	1	1351.52	-82.78722	4.168397E-007	0.0006525	8
	34	90	119.1737	206.2981	-1671.191	1	1683.876	-82.96279	4.258653E-007	0.0006521	8
	35	92	95.0169	254.166	-2070.903	1	2086.442	-83.00297	4.161043E-007	0.0006474	8
	36	95	75.60484	318.8717	-2569.982	1	2589.689	-82.92715	4.191718E-007	0.0006482	8
	37	97	54.50582	452.6426	-3496.029	1	3525.21	-82.62276	4.224418E-007	0.0006542	8
	38	100	45.95588	548.7305	-4102.05	1	4138.589	-82.38078	4.363724E-007	0.000652	8
	39	102	37.20238	706.5121	-5007.277	1	5056.875	-81.96875	4.501037E-008	0.0006359	7
	40	104	30.04808	914.1838	-6098.543	1	6166.681	-81.47472	4.005988E-008	0.0006189	7
	41	107	23.91582	1220.181	-7534.829	1	7632.987	-80.80145	3.186306E-008	0.0006274	7
	42	109	18.60119	1693.274	-9472.899	1	9623.04	-79.86546	4.136665E-008	0.0006222	7
	43	111	15.02404	2253.502	-11489.04	1	11707.96	-78.90269	5.199866E-008	0.0006394	7
	44	114	12.01923	3048.036	-14007.99	1	14335.77	-77.72421	3.768823E-008	0.0006175	7
	45	116	9.450605	4242.944	-17262.66	1	17776.45	-76.19115	4.115287E-008	0.0006386	7
	46	119	7.512019	5799.362	-20966.76	1	21754.03	-74.53867	4.679925E-008	0.0006366	7
	47	122	5.978954	7935.009	-25259.31	1	26476.35	-72.56031	4.408114E-008	0.0006266	7
	48	125	4.734848	10876.6	-30317.36	1	32209.36	-70.26413	5.149716E-008	0.0006421	7
	49	128	3.75601	14757.47	-35933.75	1	38846.07	-67.67275	4.345407E-008	0.0006172	7
	50	131	3.004808	19622.64	-41752.78	1	46133.96	-64.82779	1.568846E-009	0.0006514	6
	51	135	2.372217	26120.21	-48203.8	1	54825.83	-61.54805	-1.238453E-009	0.0006713	6
	52	139	1.878005	34269.41	-54516.72	1	64393.05	-57.84639	-3.123108E-009	0.0006673	6
	53	144	1.512097	43045.28	-59900.39	1	73762.81	-54.29844	-1.455775E-009	0.0005669	6
	54	149	1.201923	53803.3	-64744.82	1	84182.46	-50.27324	-4.148166E-009	0.0006744	6
	55	156	0.956633	65467.29	-68041.47	1	94422.49	-46.10458	-8.234456E-009	3.037103E-005	6
