EXPLAIN
TAG	EISPOT
TITLE	LABEL	Potentiostatic EIS	Test Identifier
DATE	LABEL	8/29/2020	Date
TIME	LABEL	17:53:47	Time
NOTES	NOTES	1	Notes...
	
PSTAT	PSTAT	REF3000-16137	Potentiostat
VDC	POTEN	0.00000E+000	T	DC Voltage (V)
FREQINIT	QUANT	3.00000E+005	Initial Freq. (Hz)
FREQFINAL	QUANT	1.00000E+000	Final Freq. (Hz)
PTSPERDEC	QUANT	1.00000E+001	Points/decade
VAC	QUANT	5.00000E+001	AC Voltage (mV rms)
AREA	QUANT	1.00000E+000	Sample Area (cm^2)
SPEED	SELECTOR	2	Optimize for:
ZGUESS	QUANT	1.00000E+003	Estimated Z (ohms)
EOC	QUANT	0	Open Circuit (V)
SEQUENCER	TOGGLE	TRUE	Run as Sequence
PSTATMODEL	IQUANT	5	Pstat Model
PSTATSECTION	LABEL	REF3000-16137	Pstat Section
PSTATSERIALNO	LABEL	16137	Pstat Serial Number
CTRLMODE	IQUANT	1	Control Mode
IESTAB	IQUANT	0	I/E Stability
CASPEED	IQUANT	1	Control Amp Speed
CONVENTION	IQUANT	1	Current Convention
ICHRANGE	IQUANT	2	Ich Range
ICHRANGEMODE	TOGGLE	F	Ich Auto Range
ICHOFFSETENABLE	TOGGLE	T	Ich Offset Enable
ICHOFFSET	QUANT	0	Ich Offset (V)
ICHFILTER	IQUANT	3	Ich Filter
VCHRANGE	IQUANT	2	Vch Range
VCHRANGEMODE	TOGGLE	F	Vch Auto Range
VCHOFFSETENABLE	TOGGLE	T	Vch Offset Enable
VCHOFFSET	QUANT	0	Vch Offset (V)
VCHFILTER	IQUANT	3	Vch Filter
ACHRANGE	IQUANT	2	Ach Range
ACHOFFSETENABLE	TOGGLE	F	Ach Offset Enable
ACHOFFSET	QUANT	0	Ach Offset (V)
ACHFILTER	IQUANT	3	Ach Filter
IERANGELOWERLIMIT	IQUANT	2	I/E Range Lower Limit
IERANGEMODE	TOGGLE	F	I/E AutoRange
IERANGE	IQUANT	11	I/E Range
POSFEEDENABLE	TOGGLE	F	Positive Feedback IR Comp
POSFEEDRESISTANCE	QUANT	0	Positive Feedback Resistance (ohm)
ACHSELECT	IQUANT	0	Ach Select
CABLEID	IQUANT	13	Cable ID
DCCALDATE	LABEL	7/31/2020	DC Calibration Date
ACCALDATE	LABEL	7/31/2020	AC Calibration Date
THERMOSELECT	IQUANT	1	Thermo Select
FRAMEWORKVERSION	QUANT	6.33	Framework Version
INSTRUMENTVERSION	LABEL	3.50	Instrument Version
COMPLIANCEVOLTAGE	IQUANT	0	Compliance Voltage
ZCURVE	TABLE
	Pt	Time	Freq	Zreal	Zimag	Zsig	Zmod	Zphz	Idc	Vdc	IERange
	#	s	Hz	ohm	ohm	V	ohm	°	A	V	#
	0	7	300046.9	215.2891	-8.934355	1	215.4744	-2.376374	-6.413699E-006	-0.0017113	9
	1	10	238359.4	210.1514	-8.606523	1	210.3276	-2.345176	1.986076E-005	-0.0018174	9
	2	14	189328.1	205.6507	-8.742476	1	205.8365	-2.434252	2.186095E-005	-0.0005523	9
	3	16	150421.9	201.6493	-8.68791	1	201.8364	-2.46702	7.759855E-005	-0.0023233	9
	4	19	119484.4	198.668	-10.48605	1	198.9446	-3.021368	1.80435E-005	-0.0003519	9
	5	21	94921.88	195.6358	-11.59031	1	195.9789	-3.390486	2.098005E-005	-0.0001466	9
	6	24	75421.88	192.8023	-13.40856	1	193.268	-3.978267	-9.189566E-006	-5.153226E-005	9
	7	26	59859.37	190.2484	-15.85869	1	190.9082	-4.765036	1.512049E-005	-0.0007967	9
	8	29	47578.12	188.2956	-18.53677	1	189.2058	-5.622372	-7.546458E-006	0.0008537	9
	9	31	37828.12	186.6579	-21.76047	1	187.9221	-6.649492	-2.089299E-005	0.0009307	9
	10	34	30046.88	185.5903	-25.29945	1	187.3068	-7.762643	1.965176E-005	-3.970032E-005	9
	11	37	23859.38	185.12	-29.38802	1	187.4381	-9.020499	-2.244341E-005	0.0007997	9
	12	39	18984.38	185.2222	-33.89094	1	188.2973	-10.36897	-7.208086E-006	0.0008496	9
	13	41	15046.87	185.8453	-39.09694	1	189.9132	-11.88028	-2.244083E-005	0.000801	9
	14	43	11953.13	186.9686	-44.73029	1	192.2448	-13.45453	1.165897E-005	0.0002021	9
	15	46	9515.62	188.7844	-50.90351	1	195.5267	-15.09026	-1.993666E-005	0.0005277	9
	16	48	7546.875	190.5621	-58.36347	1	199.2993	-17.02826	-1.824289E-005	0.0003927	9
	17	50	5928.309	192.7923	-67.52404	1	204.2752	-19.30242	1.138314E-005	0.000239	9
	18	53	4733.456	194.44	-76.79694	1	209.0566	-21.55227	-1.501347E-005	0.0001515	9
	19	55	3796.875	196.0264	-88.59468	1	215.1171	-24.32073	2.113727E-005	-0.0008018	9
	20	57	2987.132	197.1488	-104.6014	1	223.1796	-27.94911	2.064738E-005	-0.0007751	9
	21	60	2390.625	197.5094	-123.7831	1	233.0927	-32.07619	2.118547E-005	-0.0007765	9
	22	62	1884.191	198.376	-149.5664	1	248.4415	-37.01463	-1.803908E-005	0.0003705	9
	23	64	1516.544	196.0491	-179.7774	1	265.9984	-42.52089	-6.735781E-006	0.0007828	9
	24	68	1193.986	196.5927	-221.9579	1	296.503	-48.46803	-2.04871E-005	0.0004986	9
	25	71	946.5144	197.7617	-274.489	1	338.3104	-54.22829	1.394646E-005	-0.0007067	9
	26	73	751.7689	199.5383	-340.3773	1	394.5532	-59.62003	-1.386697E-005	0.000891	9
	27	75	597.4265	200.9127	-420.6466	1	466.1647	-64.46955	6.305404E-006	-5.601125E-005	8
	28	78	477.4305	204.8552	-519.3099	1	558.2548	-68.47196	1.841305E-007	0.0006597	8
	29	80	376.6741	211.4071	-650.559	1	684.0467	-71.9978	1.820909E-007	0.0006563	8
	30	82	298.2954	220.6836	-812.3838	1	841.8246	-74.80238	1.994252E-007	0.0006607	8
	31	85	237.7717	233.1578	-1008.164	1	1034.774	-76.97816	2.100552E-007	0.0006528	8
	32	87	189.0121	250.6444	-1254.17	1	1278.97	-78.69839	1.966357E-007	0.0006577	8
	33	89	150.2404	274.5085	-1559.727	1	1583.699	-80.0183	2.121684E-007	0.000654	8
	34	92	119.1737	307.165	-1942.906	1	1967.037	-81.01614	2.282636E-007	0.000652	8
	35	94	95.0169	350.2733	-2407.174	1	2432.525	-81.72087	2.302316E-007	0.0006458	8
	36	97	75.60484	408.5475	-2987.092	1	3014.901	-82.21192	2.368711E-007	0.0006466	8
	37	99	54.50582	529.2276	-4067.959	1	4102.24	-82.58765	2.353893E-007	0.0006524	8
	38	102	45.95588	617.9951	-4783.364	1	4823.12	-82.63835	1.540641E-008	0.0006324	7
	39	104	37.20238	758.4313	-5830.53	1	5879.651	-82.58862	1.248171E-008	0.0006329	7
	40	107	30.04808	947.7216	-7115.595	1	7178.431	-82.41346	5.975862E-009	0.0006309	7
	41	109	23.91582	1226.786	-8799.593	1	8884.696	-82.06332	6.373138E-009	0.0006257	7
	42	111	18.60119	1664.478	-11098.03	1	11222.16	-81.47038	1.670959E-008	0.0006238	7
	43	114	15.02404	2182.106	-13495.87	1	13671.14	-80.81551	1.167945E-008	0.0006268	7
	44	116	12.01923	2940.853	-16519.04	1	16778.77	-79.90549	1.503505E-008	0.0006344	7
	45	118	9.450605	4083.244	-20471.92	1	20875.16	-78.72005	1.292624E-008	0.0006215	7
	46	121	7.512019	5641.253	-25004.95	1	25633.4	-77.2866	1.153489E-008	0.0006164	7
	47	124	5.978954	7846.036	-30335.64	1	31333.87	-75.49875	1.273279E-008	0.0006258	7
	48	127	4.734848	10981.82	-36638.44	1	38248.87	-73.3147	1.033984E-008	0.0006022	7
	49	130	3.75601	15364.37	-43682.31	1	46305.6	-70.6217	-1.776436E-008	0.0006899	6
	50	133	3.004808	21042.23	-51024.17	1	55192.77	-67.58888	-2.033489E-008	0.000652	6
	51	137	2.372217	28999.73	-59025.75	1	65764.91	-63.83482	-2.649434E-008	0.0006003	6
	52	141	1.878005	39303.27	-65921.07	1	76748.52	-59.19588	-3.071068E-008	0.0006853	6
	53	146	1.512097	50907.05	-68923.69	1	85685.48	-53.55042	-3.984052E-008	0.000609	6
	54	157	1.201923	63586.21	-67877.17	1	93008.15	-46.86947	-4.863758E-008	0.0006999	6
	55	170	0.956633	75099.85	-63925.34	1	98622.7	-40.40458	-6.389564E-008	4.346785E-005	6
