EXPLAIN
TAG	EISPOT
TITLE	LABEL	Potentiostatic EIS	Test Identifier
DATE	LABEL	8/29/2020	Date
TIME	LABEL	16:39:43	Time
NOTES	NOTES	1	Notes...
	
PSTAT	PSTAT	REF3000-16137	Potentiostat
VDC	POTEN	0.00000E+000	T	DC Voltage (V)
FREQINIT	QUANT	3.00000E+005	Initial Freq. (Hz)
FREQFINAL	QUANT	1.00000E+000	Final Freq. (Hz)
PTSPERDEC	QUANT	1.00000E+001	Points/decade
VAC	QUANT	5.00000E+001	AC Voltage (mV rms)
AREA	QUANT	1.00000E+000	Sample Area (cm^2)
SPEED	SELECTOR	2	Optimize for:
ZGUESS	QUANT	1.00000E+003	Estimated Z (ohms)
EOC	QUANT	0	Open Circuit (V)
SEQUENCER	TOGGLE	TRUE	Run as Sequence
PSTATMODEL	IQUANT	5	Pstat Model
PSTATSECTION	LABEL	REF3000-16137	Pstat Section
PSTATSERIALNO	LABEL	16137	Pstat Serial Number
CTRLMODE	IQUANT	1	Control Mode
IESTAB	IQUANT	0	I/E Stability
CASPEED	IQUANT	1	Control Amp Speed
CONVENTION	IQUANT	1	Current Convention
ICHRANGE	IQUANT	2	Ich Range
ICHRANGEMODE	TOGGLE	F	Ich Auto Range
ICHOFFSETENABLE	TOGGLE	T	Ich Offset Enable
ICHOFFSET	QUANT	0	Ich Offset (V)
ICHFILTER	IQUANT	3	Ich Filter
VCHRANGE	IQUANT	2	Vch Range
VCHRANGEMODE	TOGGLE	F	Vch Auto Range
VCHOFFSETENABLE	TOGGLE	T	Vch Offset Enable
VCHOFFSET	QUANT	0	Vch Offset (V)
VCHFILTER	IQUANT	3	Vch Filter
ACHRANGE	IQUANT	2	Ach Range
ACHOFFSETENABLE	TOGGLE	F	Ach Offset Enable
ACHOFFSET	QUANT	0	Ach Offset (V)
ACHFILTER	IQUANT	3	Ach Filter
IERANGELOWERLIMIT	IQUANT	2	I/E Range Lower Limit
IERANGEMODE	TOGGLE	F	I/E AutoRange
IERANGE	IQUANT	11	I/E Range
POSFEEDENABLE	TOGGLE	F	Positive Feedback IR Comp
POSFEEDRESISTANCE	QUANT	0	Positive Feedback Resistance (ohm)
ACHSELECT	IQUANT	0	Ach Select
CABLEID	IQUANT	13	Cable ID
DCCALDATE	LABEL	7/31/2020	DC Calibration Date
ACCALDATE	LABEL	7/31/2020	AC Calibration Date
THERMOSELECT	IQUANT	1	Thermo Select
FRAMEWORKVERSION	QUANT	6.33	Framework Version
INSTRUMENTVERSION	LABEL	3.50	Instrument Version
COMPLIANCEVOLTAGE	IQUANT	0	Compliance Voltage
ZCURVE	TABLE
	Pt	Time	Freq	Zreal	Zimag	Zsig	Zmod	Zphz	Idc	Vdc	IERange
	#	s	Hz	ohm	ohm	V	ohm	°	A	V	#
	0	15	300046.9	742.1913	-4667.882	1	4726.518	-80.96562	-2.380255E-005	-0.001236	9
	1	33	238359.4	1219.082	-5776.331	1	5903.572	-78.08273	-2.040007E-005	0.0010954	9
	2	50	189328.1	1779.815	-6899.624	1	7125.486	-75.53541	2.882386E-005	-0.0019686	9
	3	58	150421.9	2652.202	-8087.303	1	8511.09	-71.84328	8.640795E-005	-0.0023926	9
	4	65	119484.4	4167.042	-9983.47	1	10818.22	-67.34463	2.054288E-005	-0.0181164	8
	5	73	94921.88	5788.426	-11771.46	1	13117.66	-63.81509	-9.61194E-006	-0.0020709	8
	6	82	75421.88	7846.037	-13463.69	1	15583.05	-59.76829	2.611946E-005	-0.0089712	8
	7	90	59859.37	10591.86	-15300.34	1	18608.81	-55.30658	7.752914E-006	-0.007566	8
	8	99	47578.12	16734.8	-15775.67	1	22998.38	-43.31013	2.590823E-006	0.008915	7
	9	105	37828.12	20207.12	-15835.84	1	25672.97	-38.08496	4.785396E-006	0.0001028	7
	10	112	30046.88	23693.08	-15961.23	1	28567.86	-33.96683	3.192335E-007	0.0165101	7
	11	119	23859.38	27047.33	-15140.04	1	30996.43	-29.2384	-3.836616E-006	0.025326	7
	12	124	18984.38	30365.5	-13810.11	1	33358.4	-24.45585	3.513377E-007	0.0163555	7
	13	130	15046.87	32688.37	-12481.16	1	34990.13	-20.89798	4.804322E-006	-0.000196	7
	14	135	11953.13	34703.3	-11037.65	1	36416.32	-17.64366	-7.339731E-006	0.0184294	7
	15	141	9515.62	36738.07	-9480.326	1	37941.57	-14.46961	-2.027288E-006	0.0224407	7
	16	147	7546.875	38239.13	-8143.223	1	39096.59	-12.02185	-5.192023E-006	0.0031423	7
	17	152	5928.309	39750.57	-6871.995	1	40340.2	-9.80823	-3.246945E-006	-0.0055323	7
	18	158	4733.456	40515.18	-6250.224	1	40994.46	-8.76981	4.807551E-006	-0.0002511	7
	19	163	3796.875	42831.63	-5037.696	1	43126.86	-6.708097	2.748187E-005	-0.0074405	8
	20	169	2987.132	41102.76	-3414.868	1	41244.37	-4.749297	-2.628394E-005	0.0075948	8
	21	177	2390.625	42384.82	-5988.479	1	42805.79	-8.041992	-1.982769E-005	0.0027673	8
	22	184	1884.191	40923.08	-5067.356	1	41235.62	-7.058797	-2.470749E-005	0.0110716	8
	23	191	1516.544	46492.69	-6172.799	1	46900.68	-7.562885	-2.464023E-005	0.0110582	8
	24	198	1193.986	50371.74	-4277.923	1	50553.07	-4.854313	-9.452845E-006	-0.0021133	8
	25	204	946.5144	46895.93	-6639.23	1	47363.57	-8.058024	-1.610014E-005	0.0006325	8
	26	209	751.7689	50831.66	-2801.444	1	50908.79	-3.154505	1.414125E-006	-0.0199848	7
	27	213	597.4265	52207.74	-2599.28	1	52272.4	-2.850246	6.626884E-006	-0.010019	7
	28	217	477.4305	51028.88	-3987.837	1	51184.46	-4.468505	-7.990344E-008	0.0006931	7
	29	220	376.6741	51839.1	-3863.75	1	51982.89	-4.262574	-7.15354E-009	0.0006432	6
	30	223	298.2954	52605.96	-4598.965	1	52806.61	-4.99626	-8.528118E-009	0.0006778	6
	31	225	237.7717	53429.45	-5381.42	1	53699.77	-5.751442	-8.696349E-009	0.0007466	6
	32	227	189.0121	54400.68	-6322.214	1	54766.81	-6.628934	-7.487103E-009	0.000624	6
	33	230	150.2404	55435.12	-7386.271	1	55925.04	-7.589486	-7.833851E-009	0.0006396	6
	34	232	119.1737	56688.18	-8761.187	1	57361.2	-8.785582	-7.20883E-009	0.0006178	6
	35	235	95.0169	57959.62	-10008.54	1	58817.42	-9.79728	-7.93428E-009	0.000643	6
	36	237	75.60484	59395.34	-11588.47	1	60515.28	-11.04014	-7.830986E-009	0.0006996	6
	37	240	54.50582	61536.86	-14307.21	1	63178.17	-13.08864	-7.714926E-009	0.0006985	6
	38	242	45.95588	62994.03	-15895.97	1	64968.68	-14.16241	-8.776921E-009	0.0006684	6
	39	245	37.20238	64750.94	-18176.41	1	67253.75	-15.68011	-6.342751E-009	0.0006247	6
	40	247	30.04808	66648.71	-20864.29	1	69838.16	-17.38266	-7.392467E-009	0.0006309	6
	41	250	23.91582	68767.46	-24220.72	1	72908.21	-19.40287	-9.555916E-009	0.0007048	6
	42	252	18.60119	71179.06	-28664.63	1	76734.09	-21.93521	-7.223863E-009	0.0007022	6
	43	254	15.02404	73426.73	-33300.43	1	80625.08	-24.3952	-9.410807E-009	0.0006368	6
	44	256	12.01923	75734.01	-39014.7	1	85192.64	-27.25545	-8.318374E-009	0.0007009	6
	45	259	9.450605	78318.32	-46673.13	1	91170.95	-30.79247	-8.282228E-009	0.0006212	6
	46	261	7.512019	80829.28	-55944.3	1	98301.3	-34.68824	-7.31503E-009	0.0007204	6
	47	264	5.978954	83496.31	-67321.3	1	107255.7	-38.87849	-7.718767E-009	0.000713	6
	48	267	4.734848	86354.82	-81958.76	1	119056.3	-43.50387	-8.048155E-009	0.0007105	6
	49	271	3.75601	89447.27	-100320.5	1	134406.2	-48.27932	-7.001435E-009	0.0006287	6
	50	274	3.004808	92635.57	-122400.9	1	153503.5	-52.8808	-7.417249E-009	0.0006495	6
	51	278	2.372217	96323.4	-151609.3	1	179620.7	-57.57058	-8.199113E-009	0.0006667	6
	52	282	1.878005	100943.5	-188542.8	1	213864.4	-61.83596	-7.726389E-009	0.0006463	6
	53	287	1.512097	105557.4	-230909.8	1	253893.1	-65.43311	-8.069764E-009	0.0007285	6
	54	292	1.201923	112209.8	-287311.6	1	308446.1	-68.66683	-7.70399E-009	0.0006616	6
	55	298	0.956633	119567.6	-356637.3	1	376147	-71.46556	-7.980176E-009	2.244081E-005	6
