EXPLAIN
TAG	EISPOT
TITLE	LABEL	Potentiostatic EIS	Test Identifier
DATE	LABEL	8/29/2020	Date
TIME	LABEL	16:49:58	Time
NOTES	NOTES	1	Notes...
	
PSTAT	PSTAT	REF3000-16137	Potentiostat
VDC	POTEN	0.00000E+000	T	DC Voltage (V)
FREQINIT	QUANT	3.00000E+005	Initial Freq. (Hz)
FREQFINAL	QUANT	1.00000E+000	Final Freq. (Hz)
PTSPERDEC	QUANT	1.00000E+001	Points/decade
VAC	QUANT	5.00000E+001	AC Voltage (mV rms)
AREA	QUANT	1.00000E+000	Sample Area (cm^2)
SPEED	SELECTOR	2	Optimize for:
ZGUESS	QUANT	1.00000E+003	Estimated Z (ohms)
EOC	QUANT	0	Open Circuit (V)
SEQUENCER	TOGGLE	TRUE	Run as Sequence
PSTATMODEL	IQUANT	5	Pstat Model
PSTATSECTION	LABEL	REF3000-16137	Pstat Section
PSTATSERIALNO	LABEL	16137	Pstat Serial Number
CTRLMODE	IQUANT	1	Control Mode
IESTAB	IQUANT	0	I/E Stability
CASPEED	IQUANT	1	Control Amp Speed
CONVENTION	IQUANT	1	Current Convention
ICHRANGE	IQUANT	2	Ich Range
ICHRANGEMODE	TOGGLE	F	Ich Auto Range
ICHOFFSETENABLE	TOGGLE	T	Ich Offset Enable
ICHOFFSET	QUANT	0	Ich Offset (V)
ICHFILTER	IQUANT	3	Ich Filter
VCHRANGE	IQUANT	2	Vch Range
VCHRANGEMODE	TOGGLE	F	Vch Auto Range
VCHOFFSETENABLE	TOGGLE	T	Vch Offset Enable
VCHOFFSET	QUANT	0	Vch Offset (V)
VCHFILTER	IQUANT	3	Vch Filter
ACHRANGE	IQUANT	2	Ach Range
ACHOFFSETENABLE	TOGGLE	F	Ach Offset Enable
ACHOFFSET	QUANT	0	Ach Offset (V)
ACHFILTER	IQUANT	3	Ach Filter
IERANGELOWERLIMIT	IQUANT	2	I/E Range Lower Limit
IERANGEMODE	TOGGLE	F	I/E AutoRange
IERANGE	IQUANT	11	I/E Range
POSFEEDENABLE	TOGGLE	F	Positive Feedback IR Comp
POSFEEDRESISTANCE	QUANT	0	Positive Feedback Resistance (ohm)
ACHSELECT	IQUANT	0	Ach Select
CABLEID	IQUANT	13	Cable ID
DCCALDATE	LABEL	7/31/2020	DC Calibration Date
ACCALDATE	LABEL	7/31/2020	AC Calibration Date
THERMOSELECT	IQUANT	1	Thermo Select
FRAMEWORKVERSION	QUANT	6.33	Framework Version
INSTRUMENTVERSION	LABEL	3.50	Instrument Version
COMPLIANCEVOLTAGE	IQUANT	0	Compliance Voltage
ZCURVE	TABLE
	Pt	Time	Freq	Zreal	Zimag	Zsig	Zmod	Zphz	Idc	Vdc	IERange
	#	s	Hz	ohm	ohm	V	ohm	°	A	V	#
	0	20	300046.9	63.48715	-4776.514	1	4776.936	-89.23849	-1.552531E-005	0.0011385	9
	1	43	238359.4	140.7814	-5880.082	1	5881.767	-88.62848	7.917488E-005	-0.0016059	9
	2	73	189328.1	361.3587	-7364.88	1	7373.74	-87.19103	-6.201694E-005	0.0005911	9
	3	83	150421.9	541.5203	-9189.776	1	9205.718	-86.62766	-1.617043E-005	0.0017987	9
	4	92	119484.4	1171.929	-11283.13	1	11343.83	-84.07021	-7.913722E-005	0.0362242	8
	5	99	94921.88	1299.285	-14168.73	1	14228.18	-84.76058	-1.163799E-005	0.0101936	8
	6	108	75421.88	1432.518	-18002.73	1	18059.63	-85.45043	2.278591E-005	-0.0097812	8
	7	116	59859.37	2376.649	-22602.48	1	22727.09	-83.99741	-1.021318E-006	-0.0051767	8
	8	125	47578.12	6295.042	-29036.16	1	29710.71	-77.76757	-1.804382E-006	0.0220947	7
	9	131	37828.12	3483.573	-36104.6	1	36272.27	-84.48885	2.358572E-005	-0.002877	8
	10	140	30046.88	5776.15	-43313.54	1	43696.99	-82.40405	2.275448E-005	-0.0097027	8
	11	150	23859.38	9103.504	-56744.77	1	57470.37	-80.88577	8.232179E-006	-0.0076909	8
	12	157	18984.38	17180.5	-67618.04	1	69766.53	-75.74387	-5.354364E-006	0.0037917	7
	13	162	15046.87	22544.98	-83922.45	1	86897.95	-74.96304	-7.195145E-006	0.0236545	7
	14	167	11953.13	24034.89	-102205.5	1	104993.5	-76.76663	-1.069171E-006	-0.005196	8
	15	175	9515.62	44545.07	-125552	1	133220	-70.46562	-6.62589E-006	0.0260926	7
	16	181	7546.875	61905.43	-148294.3	1	160696.8	-67.3419	-1.08453E-006	-0.0133156	7
	17	188	5928.309	100644.7	-184953.6	1	210564	-61.44666	6.950612E-006	-0.0273499	7
	18	194	4733.456	130924.9	-222808	1	258427.4	-59.56095	-1.041196E-006	-0.0134476	7
	19	200	3796.875	197752.2	-219948.6	1	295775.8	-48.0418	4.345746E-007	0.0019314	6
	20	205	2987.132	272751.4	-215719.8	1	347747.5	-38.34056	-3.398063E-006	-0.0052226	7
	21	211	2390.625	308943.7	-245321.2	1	394498.1	-38.45184	-3.366991E-006	-0.0052555	7
	22	218	1884.191	33793.02	-302366.1	1	304248.6	-83.62298	-2.011394E-006	0.0078013	8
	23	225	1516.544	392911.1	-201097.4	1	441383.3	-27.104	-3.390247E-006	-0.0052451	7
	24	232	1193.986	495958.2	-250548.3	1	555651.9	-26.80201	1.364444E-006	-0.0201165	7
	25	239	946.5144	501765.6	-214874.4	1	545838.6	-23.18238	-2.08062E-007	0.0224305	6
	26	242	751.7689	526661.2	-137370.2	1	544281.7	-14.61887	2.185392E-007	0.0107416	6
	27	246	597.4265	555908.3	-173629.5	1	582392.7	-17.3454	-3.974459E-007	0.0252318	6
	28	250	477.4305	573852.7	-119889.5	1	586242.6	-11.80052	-7.209865E-009	0.0006152	6
	29	253	376.6741	621334.5	-41168.81	1	622696.9	-3.790802	-1.034502E-009	0.0006955	5
	30	255	298.2954	623723.1	-32875.29	1	624588.9	-3.017162	-8.630923E-010	0.0006478	5
	31	258	237.7717	627664.1	-31802.18	1	628469.2	-2.900555	-9.117325E-010	0.000683	5
	32	260	189.0121	632482.6	-29398.57	1	633165.4	-2.661263	-1.12147E-009	0.0006463	5
	33	263	150.2404	638403.3	-30537.03	1	639133.2	-2.738568	-1.038427E-009	0.0007342	5
	34	265	119.1737	637890.2	-45476.68	1	639509.2	-4.07785	-1.010326E-009	0.0006479	5
	35	268	95.0169	655614.1	-30129.21	1	656306.1	-2.631216	-1.229809E-009	0.0007328	5
	36	270	75.60484	665354.1	-32708.45	1	666157.6	-2.814364	-7.749196E-010	0.0006332	5
	37	273	54.50582	679521.1	-36670.71	1	680509.8	-3.089001	-1.030745E-009	0.000679	5
	38	275	45.95588	683235.1	-43810.18	1	684638.3	-3.668879	-5.793417E-010	0.0006688	5
	39	278	37.20238	693363.9	-50020.3	1	695165.8	-4.126255	-6.687723E-010	0.0006324	5
	40	280	30.04808	706527.1	-57072.71	1	708828.4	-4.618281	-7.847E-010	0.0006441	5
	41	283	23.91582	720143.1	-66411.18	1	723198.8	-5.268881	-7.832702E-010	0.0006686	5
	42	286	18.60119	737685.8	-81745.33	1	742201.3	-6.32333	-2.009067E-009	0.0006538	5
	43	288	15.02404	750687.6	-90375.07	1	756108.2	-6.864785	-1.446424E-009	0.0006469	5
	44	291	12.01923	768837.8	-105050.9	1	775981.5	-7.780488	-4.93552E-010	0.000626	5
	45	293	9.450605	787608.9	-121964	1	796996.3	-8.802537	5.828484E-011	0.0006843	5
	46	296	7.512019	809987.6	-142420.9	1	822413.3	-9.97243	-2.108184E-010	0.0006498	5
	47	299	5.978954	837575.6	-164353.5	1	853548.5	-11.10182	-1.088445E-009	0.0006207	5
	48	303	4.734848	868284.6	-190735	1	888987	-12.38931	-4.758079E-010	0.0006194	5
	49	308	3.75601	908900.1	-222534.7	1	935746.3	-13.75763	-5.381802E-010	0.0006624	5
	50	313	3.004808	951367	-257378.6	1	985568	-15.13817	-9.42446E-010	0.0006624	5
	51	319	2.372217	998527	-301705.3	1	1043112	-16.81222	-2.264713E-010	0.0006409	5
	52	324	1.878005	1042542	-351105	1	1100077	-18.61238	-4.131874E-010	0.0006228	5
	53	328	1.512097	1088359	-407188.2	1	1162036	-20.51236	-6.782843E-010	0.0007434	5
	54	334	1.201923	1144360	-482806	1	1242039	-22.8749	-5.748726E-010	0.0006413	5
	55	340	0.956633	1206010	-573356.8	1	1335365	-25.42717	-1.319116E-009	1.285329E-005	5
