EXPLAIN
TAG	EISPOT
TITLE	LABEL	Potentiostatic EIS	Test Identifier
DATE	LABEL	8/29/2020	Date
TIME	LABEL	16:17:06	Time
NOTES	NOTES	1	Notes...
	
PSTAT	PSTAT	REF3000-16137	Potentiostat
VDC	POTEN	0.00000E+000	T	DC Voltage (V)
FREQINIT	QUANT	3.00000E+005	Initial Freq. (Hz)
FREQFINAL	QUANT	1.00000E+000	Final Freq. (Hz)
PTSPERDEC	QUANT	1.00000E+001	Points/decade
VAC	QUANT	5.00000E+001	AC Voltage (mV rms)
AREA	QUANT	1.00000E+000	Sample Area (cm^2)
SPEED	SELECTOR	2	Optimize for:
ZGUESS	QUANT	1.00000E+003	Estimated Z (ohms)
EOC	QUANT	0	Open Circuit (V)
SEQUENCER	TOGGLE	TRUE	Run as Sequence
PSTATMODEL	IQUANT	5	Pstat Model
PSTATSECTION	LABEL	REF3000-16137	Pstat Section
PSTATSERIALNO	LABEL	16137	Pstat Serial Number
CTRLMODE	IQUANT	1	Control Mode
IESTAB	IQUANT	0	I/E Stability
CASPEED	IQUANT	1	Control Amp Speed
CONVENTION	IQUANT	1	Current Convention
ICHRANGE	IQUANT	2	Ich Range
ICHRANGEMODE	TOGGLE	F	Ich Auto Range
ICHOFFSETENABLE	TOGGLE	T	Ich Offset Enable
ICHOFFSET	QUANT	0	Ich Offset (V)
ICHFILTER	IQUANT	3	Ich Filter
VCHRANGE	IQUANT	2	Vch Range
VCHRANGEMODE	TOGGLE	F	Vch Auto Range
VCHOFFSETENABLE	TOGGLE	T	Vch Offset Enable
VCHOFFSET	QUANT	0	Vch Offset (V)
VCHFILTER	IQUANT	3	Vch Filter
ACHRANGE	IQUANT	2	Ach Range
ACHOFFSETENABLE	TOGGLE	F	Ach Offset Enable
ACHOFFSET	QUANT	0	Ach Offset (V)
ACHFILTER	IQUANT	3	Ach Filter
IERANGELOWERLIMIT	IQUANT	2	I/E Range Lower Limit
IERANGEMODE	TOGGLE	F	I/E AutoRange
IERANGE	IQUANT	11	I/E Range
POSFEEDENABLE	TOGGLE	F	Positive Feedback IR Comp
POSFEEDRESISTANCE	QUANT	0	Positive Feedback Resistance (ohm)
ACHSELECT	IQUANT	0	Ach Select
CABLEID	IQUANT	13	Cable ID
DCCALDATE	LABEL	7/31/2020	DC Calibration Date
ACCALDATE	LABEL	7/31/2020	AC Calibration Date
THERMOSELECT	IQUANT	1	Thermo Select
FRAMEWORKVERSION	QUANT	6.33	Framework Version
INSTRUMENTVERSION	LABEL	3.50	Instrument Version
COMPLIANCEVOLTAGE	IQUANT	0	Compliance Voltage
ZCURVE	TABLE
	Pt	Time	Freq	Zreal	Zimag	Zsig	Zmod	Zphz	Idc	Vdc	IERange
	#	s	Hz	ohm	ohm	V	ohm	°	A	V	#
	0	14	300046.9	1298.536	-367.3501	1	1349.497	-15.79597	-2.439002E-005	-0.0011824	9
	1	40	238359.4	1349.468	-309.539	1	1384.514	-12.91895	3.049797E-006	0.0014225	9
	2	53	189328.1	1385.932	-272.4663	1	1412.46	-11.12218	2.700355E-005	-0.0019731	9
	3	59	150421.9	1428.925	-228.0208	1	1447.004	-9.066535	5.044628E-005	0.0001721	9
	4	66	119484.4	1462.634	-145.0828	1	1469.812	-5.6648	1.437865E-005	-0.0108661	8
	5	72	94921.88	1477.378	-125.019	1	1482.658	-4.836973	1.761274E-005	-0.0078498	8
	6	75	75421.88	1488.764	-103.4779	1	1492.356	-3.976	-2.143564E-005	0.0081205	8
	7	79	59859.37	1499.084	-92.67827	1	1501.946	-3.537709	-2.014911E-005	0.0048778	8
	8	82	47578.12	1510.354	-87.78758	1	1512.903	-3.326508	-1.482222E-005	0.0013865	8
	9	86	37828.12	1519.889	-86.66592	1	1522.358	-3.263541	5.763109E-006	-0.0059993	8
	10	89	30046.88	1534.916	-82.69257	1	1537.142	-3.08379	-1.766554E-005	0.0029575	8
	11	92	23859.38	1546.014	-85.61855	1	1548.383	-3.169813	2.019397E-005	-0.0026839	8
	12	95	18984.38	1556.98	-92.57327	1	1559.73	-3.402626	-1.553298E-005	0.0093232	8
	13	98	15046.87	1570.968	-101.3148	1	1574.231	-3.690008	-2.012039E-005	0.0048508	8
	14	101	11953.13	1586.333	-112.9801	1	1590.351	-4.073778	1.802538E-005	-0.0078375	8
	15	104	9515.62	1602.888	-132.2239	1	1608.333	-4.715711	-1.446843E-005	0.001198	8
	16	107	7546.875	1622.594	-148.9811	1	1629.419	-5.245998	-9.069363E-006	-0.0011712	8
	17	110	5928.309	1646.641	-179.4206	1	1656.388	-6.218504	-1.934242E-006	-0.003782	8
	18	115	4733.456	1673.954	-207.5078	1	1686.767	-7.066487	1.553298E-005	-8.230586E-005	8
	19	119	3796.875	1700.787	-239.2423	1	1717.531	-8.007014	2.155612E-005	-0.0074836	8
	20	122	2987.132	1734.352	-282.4429	1	1757.2	-9.24954	5.87018E-006	-0.0060619	8
	21	127	2390.625	1779.491	-324.2884	1	1808.798	-10.32805	-1.909851E-005	0.0091163	8
	22	131	1884.191	1817.9	-371.6198	1	1855.495	-11.55338	1.818744E-005	-0.0079145	8
	23	135	1516.544	1866.827	-437.5672	1	1917.422	-13.19147	2.162054E-005	-0.0074685	8
	24	139	1193.986	1923.158	-501.6234	1	1987.502	-14.61892	2.176756E-005	-0.0075172	8
	25	144	946.5144	1977.87	-595.4366	1	2065.554	-16.75439	5.889658E-006	-0.0061167	8
	26	146	751.7689	2050.252	-688.0338	1	2162.619	-18.55098	8.051404E-006	0.0032201	8
	27	149	597.4265	2099.759	-795.013	1	2245.224	-20.73773	-2.044924E-005	0.0048702	8
	28	152	477.4305	2163.092	-906.4517	1	2345.34	-22.7363	-1.93694E-007	0.0006373	8
	29	154	376.6741	2225.498	-1065.527	1	2467.425	-25.58422	-1.952997E-007	0.0006557	8
	30	156	298.2954	2285.515	-1260.64	1	2610.132	-28.88016	-2.145619E-007	0.0006734	8
	31	159	237.7717	2341.417	-1498.766	1	2780.024	-32.62374	-1.950566E-007	0.0006974	8
	32	161	189.0121	2395.392	-1803.034	1	2998.138	-36.96912	-1.645327E-007	0.0006346	8
	33	164	150.2404	2448.965	-2188.906	1	3284.622	-41.79062	-1.91053E-007	0.0007025	8
	34	166	119.1737	2503.231	-2683.462	1	3669.759	-46.99015	-1.933799E-007	0.0006942	8
	35	168	95.0169	2569.019	-3298.671	1	4181.039	-52.08839	-5.079391E-008	0.0006511	7
	36	171	75.60484	2635.053	-4072.669	1	4850.787	-57.09677	-4.446454E-008	0.0006165	7
	37	173	54.50582	2745.822	-5535.013	1	6178.666	-63.6148	-5.0259E-008	0.0006265	7
	38	176	45.95588	2821.817	-6507.964	1	7093.395	-66.55872	-4.547732E-008	0.0005866	7
	39	178	37.20238	2929.872	-7958.414	1	8480.596	-69.78893	-4.688769E-008	0.0006346	7
	40	181	30.04808	3066.506	-9759.93	1	10230.33	-72.55762	-4.688076E-008	0.0006401	7
	41	183	23.91582	3247.17	-12142.18	1	12568.88	-75.02782	-5.157264E-008	0.0006522	7
	42	186	18.60119	3501.23	-15451.04	1	15842.77	-77.23231	-4.463644E-008	0.0005924	7
	43	188	15.02404	3775.055	-18954.55	1	19326.82	-78.73616	-5.024864E-008	0.0006262	7
	44	190	12.01923	4142.748	-23466.14	1	23829.02	-79.98808	-4.513648E-008	0.0005906	7
	45	193	9.450605	4652.658	-29541.77	1	29905.91	-81.04977	-4.508444E-008	0.000596	7
	46	195	7.512019	5281.902	-36779.61	1	37156.95	-81.82766	-4.91115E-008	0.0006529	7
	47	198	5.978954	6073.853	-45733.93	1	46135.5	-82.43491	-5.643136E-009	0.0007059	6
	48	201	4.734848	7104.395	-57103.02	1	57543.27	-82.90807	-5.933311E-009	0.0006625	6
	49	204	3.75601	8435.529	-71181.29	1	71679.38	-83.24153	-4.886358E-009	0.0006522	6
	50	207	3.004808	10060.97	-87924.72	1	88498.47	-83.4722	-5.838709E-009	0.0006894	6
	51	211	2.372217	12439.94	-110060.4	1	110761.3	-83.55132	-5.805714E-009	0.0006072	6
	52	215	1.878005	15173.77	-137568.2	1	138402.5	-83.70572	-5.135912E-009	0.0006659	6
	53	220	1.512097	18504.33	-168457.6	1	169470.8	-83.73144	-5.910675E-009	0.0006725	6
	54	226	1.201923	23299.05	-210076.8	1	211364.8	-83.67134	-5.378212E-009	0.0006893	6
	55	232	0.956633	29579.27	-260657.6	1	262330.6	-83.5258	-5.871732E-009	2.439283E-005	6
