EXPLAIN
TAG	EISPOT
TITLE	LABEL	Potentiostatic EIS	Test Identifier
DATE	LABEL	8/29/2020	Date
TIME	LABEL	15:22:56	Time
NOTES	NOTES	1	Notes...
	
PSTAT	PSTAT	REF3000-16137	Potentiostat
VDC	POTEN	0.00000E+000	T	DC Voltage (V)
FREQINIT	QUANT	3.00000E+005	Initial Freq. (Hz)
FREQFINAL	QUANT	1.00000E+000	Final Freq. (Hz)
PTSPERDEC	QUANT	1.00000E+001	Points/decade
VAC	QUANT	5.00000E+001	AC Voltage (mV rms)
AREA	QUANT	1.00000E+000	Sample Area (cm^2)
SPEED	SELECTOR	2	Optimize for:
ZGUESS	QUANT	1.00000E+003	Estimated Z (ohms)
EOC	QUANT	0	Open Circuit (V)
SEQUENCER	TOGGLE	TRUE	Run as Sequence
PSTATMODEL	IQUANT	5	Pstat Model
PSTATSECTION	LABEL	REF3000-16137	Pstat Section
PSTATSERIALNO	LABEL	16137	Pstat Serial Number
CTRLMODE	IQUANT	1	Control Mode
IESTAB	IQUANT	0	I/E Stability
CASPEED	IQUANT	1	Control Amp Speed
CONVENTION	IQUANT	1	Current Convention
ICHRANGE	IQUANT	2	Ich Range
ICHRANGEMODE	TOGGLE	F	Ich Auto Range
ICHOFFSETENABLE	TOGGLE	T	Ich Offset Enable
ICHOFFSET	QUANT	0	Ich Offset (V)
ICHFILTER	IQUANT	3	Ich Filter
VCHRANGE	IQUANT	2	Vch Range
VCHRANGEMODE	TOGGLE	F	Vch Auto Range
VCHOFFSETENABLE	TOGGLE	T	Vch Offset Enable
VCHOFFSET	QUANT	0	Vch Offset (V)
VCHFILTER	IQUANT	3	Vch Filter
ACHRANGE	IQUANT	2	Ach Range
ACHOFFSETENABLE	TOGGLE	F	Ach Offset Enable
ACHOFFSET	QUANT	0	Ach Offset (V)
ACHFILTER	IQUANT	3	Ach Filter
IERANGELOWERLIMIT	IQUANT	2	I/E Range Lower Limit
IERANGEMODE	TOGGLE	F	I/E AutoRange
IERANGE	IQUANT	11	I/E Range
POSFEEDENABLE	TOGGLE	F	Positive Feedback IR Comp
POSFEEDRESISTANCE	QUANT	0	Positive Feedback Resistance (ohm)
ACHSELECT	IQUANT	0	Ach Select
CABLEID	IQUANT	13	Cable ID
DCCALDATE	LABEL	7/31/2020	DC Calibration Date
ACCALDATE	LABEL	7/31/2020	AC Calibration Date
THERMOSELECT	IQUANT	1	Thermo Select
FRAMEWORKVERSION	QUANT	6.33	Framework Version
INSTRUMENTVERSION	LABEL	3.50	Instrument Version
COMPLIANCEVOLTAGE	IQUANT	0	Compliance Voltage
ZCURVE	TABLE
	Pt	Time	Freq	Zreal	Zimag	Zsig	Zmod	Zphz	Idc	Vdc	IERange
	#	s	Hz	ohm	ohm	V	ohm	°	A	V	#
	0	7	300046.9	70.34464	-1.660967	1	70.36424	-1.352608	3.292161E-005	-0.0002072	9
	1	10	238359.4	70.8178	-2.685883	1	70.86872	-2.171997	1.121764E-005	0.0003997	9
	2	13	189328.1	71.23682	-3.761159	1	71.33604	-3.022294	-8.676914E-006	0.0006608	9
	3	16	150421.9	71.79393	-4.67383	1	71.94591	-3.724735	6.25331E-005	-0.0022604	9
	4	18	119484.4	72.35152	-6.160347	1	72.6133	-4.866693	8.770045E-006	0.0006834	9
	5	21	94921.88	73.11423	-7.305814	1	73.47834	-5.706241	1.870246E-005	-0.0001697	9
	6	23	75421.88	73.933	-8.977392	1	74.47605	-6.923306	1.691484E-005	-0.0006544	9
	7	26	59859.37	74.99636	-10.79362	1	75.7691	-8.18988	2.2236E-005	-0.0004141	9
	8	28	47578.12	76.22122	-12.86567	1	77.29942	-9.58086	1.85249E-005	-0.0001208	9
	9	31	37828.12	77.66994	-15.09235	1	79.12268	-10.99634	-1.0502E-005	0.000761	9
	10	33	30046.88	79.36175	-17.61945	1	81.29411	-12.51746	-1.55212E-005	0.0007262	9
	11	36	23859.38	81.22767	-20.41337	1	83.75345	-14.1069	-1.464826E-005	0.0007979	9
	12	38	18984.38	83.26897	-23.60553	1	86.55023	-15.82726	-5.112709E-006	0.0005956	9
	13	41	15046.87	85.49375	-27.31156	1	89.75022	-17.71643	-1.857068E-005	0.0007023	9
	14	43	11953.13	87.769	-31.51503	1	93.25554	-19.75159	-1.469217E-005	0.0005902	9
	15	45	9515.62	90.11043	-36.47601	1	97.2131	-22.03772	-1.897611E-005	0.0005949	9
	16	47	7546.875	92.26801	-42.63378	1	101.6416	-24.79998	1.052164E-005	0.0001178	9
	17	50	5928.309	94.3818	-50.55245	1	107.0676	-28.17424	1.186161E-005	-0.0005686	9
	18	52	4733.456	96.242	-60.00906	1	113.4179	-31.94447	4.584E-006	-0.0004099	9
	19	54	3796.875	98.0798	-71.70678	1	121.497	-36.17077	1.843694E-005	-0.0001108	9
	20	57	2987.132	99.6759	-87.85429	1	132.8671	-41.39295	-1.877832E-005	0.0006233	9
	21	59	2390.625	101.3736	-106.9091	1	147.3301	-46.52237	-1.60744E-005	0.000822	9
	22	61	1884.191	103.0001	-133.0309	1	168.2446	-52.25091	3.418942E-006	0.0004056	9
	23	64	1516.544	105.3152	-162.6535	1	193.7716	-57.07767	-1.612533E-005	0.0004015	9
	24	66	1193.986	108.085	-203.736	1	230.6311	-62.05339	-1.598526E-005	0.0004029	9
	25	68	946.5144	110.4639	-254.014	1	276.9935	-66.49706	1.879277E-005	-0.0000975	9
	26	71	751.7689	114.3485	-317.494	1	337.4583	-70.19302	1.829847E-005	-0.0001241	9
	27	73	597.4265	119.8073	-395.3557	1	413.1101	-73.14126	-1.376159E-005	0.0002137	9
	28	76	477.4305	125.6366	-487.9895	1	503.9031	-75.56232	3.279816E-007	0.000652	8
	29	78	376.6741	134.0944	-613.059	1	627.5529	-77.66201	3.365403E-007	0.0006493	8
	30	80	298.2954	144.9744	-767.462	1	781.0349	-79.30282	3.350996E-007	0.0006595	8
	31	83	237.7717	158.7271	-954.537	1	967.644	-80.55884	3.461375E-007	0.0006526	8
	32	85	189.0121	176.9207	-1190.108	1	1203.187	-81.54437	3.365759E-007	0.0006579	8
	33	87	150.2404	200.72	-1483.306	1	1496.825	-82.29359	3.326732E-007	0.000651	8
	34	90	119.1737	232.2719	-1851.707	1	1866.218	-82.85036	3.485569E-007	0.0006525	8
	35	92	95.0169	272.3912	-2299.451	1	2315.528	-83.24427	3.445694E-007	0.0006519	8
	36	95	75.60484	325.571	-2859.316	1	2877.791	-83.50409	3.51396E-007	0.0006512	8
	37	97	54.50582	431.8584	-3905.65	1	3929.453	-83.69028	3.480169E-007	0.0006491	8
	38	100	45.95588	507.8493	-4601.346	1	4629.287	-83.70177	3.758774E-008	0.0006455	7
	39	102	37.20238	625.8985	-5621.95	1	5656.684	-83.64735	3.689464E-008	0.0006234	7
	40	104	30.04808	780.1686	-6881.426	1	6925.51	-83.53181	2.970525E-008	0.0006323	7
	41	107	23.91582	999.994	-8532.274	1	8590.675	-83.31535	2.632853E-008	0.0006241	7
	42	109	18.60119	1336.594	-10813.86	1	10896.15	-82.95397	3.549933E-008	0.0006207	7
	43	112	15.02404	1728.648	-13203.33	1	13316.01	-82.54097	3.897866E-008	0.0006291	7
	44	114	12.01923	2284.071	-16257.52	1	16417.18	-82.00268	3.315943E-008	0.0006255	7
	45	116	9.450605	3100.859	-20287.88	1	20523.48	-81.31	3.72289E-008	0.0006309	7
	46	119	7.512019	4181.953	-25040.45	1	25387.26	-80.51865	3.62995E-008	0.0006454	7
	47	122	5.978954	5681.465	-30782.15	1	31302.08	-79.5426	3.821541E-008	0.0006259	7
	48	125	4.734848	7764.912	-37885.91	1	38673.46	-78.41734	4.140152E-008	0.0006549	7
	49	128	3.75601	10617.49	-46374.97	1	47574.88	-77.10445	2.528658E-009	0.0006623	6
	50	131	3.004808	14300.67	-56069.12	1	57864.11	-75.69154	1.693684E-009	0.00071	6
	51	135	2.372217	19606.25	-68222.3	1	70983.72	-73.966	2.85116E-009	0.0007492	6
	52	139	1.878005	26495.56	-82184.94	1	86350.33	-72.13122	1.001876E-009	0.0006471	6
	53	144	1.512097	34749.75	-96805.7	1	102853.7	-70.25369	1.50176E-009	0.0007008	6
	54	149	1.201923	46097.33	-114828.2	1	123735.5	-68.1272	1.216164E-009	0.0006395	6
	55	156	0.956633	60257.95	-134581.2	1	147455.5	-65.87984	-1.086572E-009	3.436444E-005	6
