EXPLAIN
TAG	EISPOT
TITLE	LABEL	Potentiostatic EIS	Test Identifier
DATE	LABEL	8/29/2020	Date
TIME	LABEL	17:50:11	Time
NOTES	NOTES	1	Notes...
	
PSTAT	PSTAT	REF3000-16137	Potentiostat
VDC	POTEN	0.00000E+000	T	DC Voltage (V)
FREQINIT	QUANT	3.00000E+005	Initial Freq. (Hz)
FREQFINAL	QUANT	1.00000E+000	Final Freq. (Hz)
PTSPERDEC	QUANT	1.00000E+001	Points/decade
VAC	QUANT	5.00000E+001	AC Voltage (mV rms)
AREA	QUANT	1.00000E+000	Sample Area (cm^2)
SPEED	SELECTOR	2	Optimize for:
ZGUESS	QUANT	1.00000E+003	Estimated Z (ohms)
EOC	QUANT	0	Open Circuit (V)
SEQUENCER	TOGGLE	TRUE	Run as Sequence
PSTATMODEL	IQUANT	5	Pstat Model
PSTATSECTION	LABEL	REF3000-16137	Pstat Section
PSTATSERIALNO	LABEL	16137	Pstat Serial Number
CTRLMODE	IQUANT	1	Control Mode
IESTAB	IQUANT	0	I/E Stability
CASPEED	IQUANT	1	Control Amp Speed
CONVENTION	IQUANT	1	Current Convention
ICHRANGE	IQUANT	2	Ich Range
ICHRANGEMODE	TOGGLE	F	Ich Auto Range
ICHOFFSETENABLE	TOGGLE	T	Ich Offset Enable
ICHOFFSET	QUANT	0	Ich Offset (V)
ICHFILTER	IQUANT	3	Ich Filter
VCHRANGE	IQUANT	2	Vch Range
VCHRANGEMODE	TOGGLE	F	Vch Auto Range
VCHOFFSETENABLE	TOGGLE	T	Vch Offset Enable
VCHOFFSET	QUANT	0	Vch Offset (V)
VCHFILTER	IQUANT	3	Vch Filter
ACHRANGE	IQUANT	2	Ach Range
ACHOFFSETENABLE	TOGGLE	F	Ach Offset Enable
ACHOFFSET	QUANT	0	Ach Offset (V)
ACHFILTER	IQUANT	3	Ach Filter
IERANGELOWERLIMIT	IQUANT	2	I/E Range Lower Limit
IERANGEMODE	TOGGLE	F	I/E AutoRange
IERANGE	IQUANT	11	I/E Range
POSFEEDENABLE	TOGGLE	F	Positive Feedback IR Comp
POSFEEDRESISTANCE	QUANT	0	Positive Feedback Resistance (ohm)
ACHSELECT	IQUANT	0	Ach Select
CABLEID	IQUANT	13	Cable ID
DCCALDATE	LABEL	7/31/2020	DC Calibration Date
ACCALDATE	LABEL	7/31/2020	AC Calibration Date
THERMOSELECT	IQUANT	1	Thermo Select
FRAMEWORKVERSION	QUANT	6.33	Framework Version
INSTRUMENTVERSION	LABEL	3.50	Instrument Version
COMPLIANCEVOLTAGE	IQUANT	0	Compliance Voltage
ZCURVE	TABLE
	Pt	Time	Freq	Zreal	Zimag	Zsig	Zmod	Zphz	Idc	Vdc	IERange
	#	s	Hz	ohm	ohm	V	ohm	°	A	V	#
	0	14	300046.9	2003.557	-1044.108	1	2259.293	-27.52524	-1.946966E-005	0.0011291	9
	1	28	238359.4	1799.087	-597.0803	1	1895.579	-18.35995	-6.242494E-005	0.0005773	9
	2	42	189328.1	1609.039	-373.2306	1	1651.759	-13.05931	-8.735141E-005	0.0040598	9
	3	48	150421.9	1491.805	-255.831	1	1513.582	-9.73105	-8.673059E-005	0.0040791	9
	4	54	119484.4	1354.899	-123.9669	1	1360.558	-5.227739	-4.865414E-005	0.0061679	8
	5	62	94921.88	1269.843	-88.97745	1	1272.956	-4.008145	-1.708855E-005	0.0029129	8
	6	65	75421.88	1215.343	-70.81504	1	1217.405	-3.334713	-1.777776E-006	-0.0035528	8
	7	68	59859.37	1169.19	-63.16621	1	1170.895	-3.092434	1.522448E-005	-0.0004099	8
	8	71	47578.12	1128.108	-56.36699	1	1129.515	-2.86046	2.012946E-005	-0.0069217	8
	9	73	37828.12	1089.156	-53.56183	1	1090.472	-2.815387	-1.761469E-005	0.0083594	8
	10	76	30046.88	1048.012	-55.84127	1	1049.498	-3.05001	-2.012851E-005	0.0063648	8
	11	79	23859.38	1015.628	-60.68362	1	1017.439	-3.419349	-7.649559E-006	0.0076844	8
	12	82	18984.38	984.202	-67.24744	1	986.496	-3.908767	-1.37837E-005	0.0015161	8
	13	84	15046.87	953.515	-75.88596	1	956.53	-4.550322	-6.189004E-006	0.0068574	8
	14	87	11953.13	925.6564	-84.37182	1	929.4937	-5.20801	-1.261988E-005	0.007777	8
	15	90	9515.62	902.6271	-99.6195	1	908.1078	-6.298024	-2.548817E-006	-0.0028564	8
	16	92	7546.875	885.6792	-113.7399	1	892.9526	-7.317933	1.854104E-005	-0.0025758	8
	17	95	5928.309	870.8621	-131.5025	1	880.7347	-8.586939	-8.270886E-009	0.0052297	8
	18	98	4733.456	854.3112	-149.0358	1	867.2136	-9.89575	1.799627E-005	-0.0062336	8
	19	101	3796.875	843.7662	-172.5198	1	861.2227	-11.55565	-1.547536E-005	0.0029437	8
	20	103	2987.132	832.6377	-194.5587	1	855.0664	-13.15207	1.736754E-005	-0.0060192	8
	21	106	2390.625	825.2639	-220.6114	1	854.2423	-14.96648	-1.694115E-005	0.0078383	8
	22	109	1884.191	819.8884	-246.1792	1	856.0497	-16.71288	-1.660555E-005	0.0043449	8
	23	111	1516.544	809.155	-281.7322	1	856.7991	-19.19713	1.696053E-005	-0.002423	8
	24	114	1193.986	804.8671	-322.1324	1	866.9373	-21.81279	1.790155E-005	-0.0037472	8
	25	117	946.5144	799.3305	-373.6239	1	882.3401	-25.05238	1.345614E-005	-0.0058792	8
	26	120	751.7689	788.3076	-438.4438	1	902.032	-29.0821	1.280279E-005	-0.0002676	8
	27	122	597.4265	779.1052	-519.1014	1	936.2004	-33.67469	-1.079553E-005	0.0071007	8
	28	125	477.4305	770.0267	-626.9441	1	992.975	-39.15196	-7.917178E-008	0.0006504	8
	29	127	376.6741	763.6369	-769.6849	1	1084.231	-45.22599	-7.267837E-008	0.0006575	8
	30	130	298.2954	759.0264	-948.685	1	1214.958	-51.33731	-4.87565E-008	0.0006514	8
	31	132	237.7717	756.3066	-1167.637	1	1391.177	-57.06789	-3.306112E-008	0.0006352	8
	32	136	189.0121	743.862	-1441.95	1	1622.513	-62.71204	-7.434841E-008	0.0006722	8
	33	139	150.2404	752.7592	-1787.804	1	1939.817	-67.16636	-2.978509E-008	0.0006394	8
	34	141	119.1737	770.4761	-2223.701	1	2353.397	-70.88963	-5.271996E-008	0.0006552	8
	35	144	95.0169	797.3345	-2751.965	1	2865.145	-73.84196	-2.229268E-008	0.0006412	8
	36	146	75.60484	837.4477	-3414.005	1	3515.217	-76.21761	-2.071436E-008	0.0006441	8
	37	149	54.50582	934.5956	-4660.701	1	4753.483	-78.66105	-1.742844E-008	0.0006293	7
	38	151	45.95588	996.804	-5469.368	1	5559.461	-79.67109	-1.509419E-008	0.0006379	7
	39	154	37.20238	1103.214	-6671.495	1	6762.095	-80.61041	-1.148505E-008	0.0006033	7
	40	156	30.04808	1246.688	-8155.191	1	8249.932	-81.30846	-1.728078E-008	0.0006456	7
	41	158	23.91582	1452.567	-10096.61	1	10200.56	-81.81321	-1.333692E-008	0.0006068	7
	42	161	18.60119	1773.927	-12783.81	1	12906.3	-82.09988	-1.552988E-008	0.0006322	7
	43	163	15.02404	2143.557	-15601.5	1	15748.07	-82.17687	-1.413273E-008	0.0006322	7
	44	165	12.01923	2666.227	-19193.33	1	19377.63	-82.09141	-1.353243E-008	0.0006319	7
	45	168	9.450605	3456.62	-23969.08	1	24217.04	-81.79386	-6.965125E-009	0.0006087	7
	46	170	7.512019	4491.283	-29582.35	1	29921.35	-81.3671	-8.938574E-009	0.0006818	7
	47	173	5.978954	5914.522	-36368.99	1	36846.78	-80.76311	-5.11184E-009	0.0006067	7
	48	176	4.734848	7951.847	-44841.71	1	45541.3	-79.94419	-2.064599E-009	0.0006806	6
	49	179	3.75601	10732.89	-54957.09	1	55995.32	-78.94946	-1.487745E-009	0.0006704	6
	50	183	3.004808	14400.97	-66538.47	1	68079.04	-77.78779	-3.61676E-009	0.0007121	6
	51	187	2.372217	19685.1	-81041.92	1	83398.42	-76.34725	-2.635286E-009	0.0006991	6
	52	191	1.878005	27075.76	-97912.8	1	101587.5	-74.54232	-2.371999E-009	0.0006442	6
	53	196	1.512097	35847.75	-115514.5	1	120949	-72.75926	-3.605227E-009	0.0007491	6
	54	201	1.201923	48507.11	-136370.1	1	144740.3	-70.41943	-3.509379E-009	0.0006613	6
	55	207	0.956633	64495.75	-158621	1	171231.8	-67.8732	-7.193545E-009	3.106815E-005	6
