EXPLAIN
TAG	EISPOT
TITLE	LABEL	Potentiostatic EIS	Test Identifier
DATE	LABEL	8/29/2020	Date
TIME	LABEL	16:55:47	Time
NOTES	NOTES	1	Notes...
	
PSTAT	PSTAT	REF3000-16137	Potentiostat
VDC	POTEN	0.00000E+000	T	DC Voltage (V)
FREQINIT	QUANT	3.00000E+005	Initial Freq. (Hz)
FREQFINAL	QUANT	1.00000E+000	Final Freq. (Hz)
PTSPERDEC	QUANT	1.00000E+001	Points/decade
VAC	QUANT	5.00000E+001	AC Voltage (mV rms)
AREA	QUANT	1.00000E+000	Sample Area (cm^2)
SPEED	SELECTOR	2	Optimize for:
ZGUESS	QUANT	1.00000E+003	Estimated Z (ohms)
EOC	QUANT	0	Open Circuit (V)
SEQUENCER	TOGGLE	TRUE	Run as Sequence
PSTATMODEL	IQUANT	5	Pstat Model
PSTATSECTION	LABEL	REF3000-16137	Pstat Section
PSTATSERIALNO	LABEL	16137	Pstat Serial Number
CTRLMODE	IQUANT	1	Control Mode
IESTAB	IQUANT	0	I/E Stability
CASPEED	IQUANT	1	Control Amp Speed
CONVENTION	IQUANT	1	Current Convention
ICHRANGE	IQUANT	2	Ich Range
ICHRANGEMODE	TOGGLE	F	Ich Auto Range
ICHOFFSETENABLE	TOGGLE	T	Ich Offset Enable
ICHOFFSET	QUANT	0	Ich Offset (V)
ICHFILTER	IQUANT	3	Ich Filter
VCHRANGE	IQUANT	2	Vch Range
VCHRANGEMODE	TOGGLE	F	Vch Auto Range
VCHOFFSETENABLE	TOGGLE	T	Vch Offset Enable
VCHOFFSET	QUANT	0	Vch Offset (V)
VCHFILTER	IQUANT	3	Vch Filter
ACHRANGE	IQUANT	2	Ach Range
ACHOFFSETENABLE	TOGGLE	F	Ach Offset Enable
ACHOFFSET	QUANT	0	Ach Offset (V)
ACHFILTER	IQUANT	3	Ach Filter
IERANGELOWERLIMIT	IQUANT	2	I/E Range Lower Limit
IERANGEMODE	TOGGLE	F	I/E AutoRange
IERANGE	IQUANT	11	I/E Range
POSFEEDENABLE	TOGGLE	F	Positive Feedback IR Comp
POSFEEDRESISTANCE	QUANT	0	Positive Feedback Resistance (ohm)
ACHSELECT	IQUANT	0	Ach Select
CABLEID	IQUANT	13	Cable ID
DCCALDATE	LABEL	7/31/2020	DC Calibration Date
ACCALDATE	LABEL	7/31/2020	AC Calibration Date
THERMOSELECT	IQUANT	1	Thermo Select
FRAMEWORKVERSION	QUANT	6.33	Framework Version
INSTRUMENTVERSION	LABEL	3.50	Instrument Version
COMPLIANCEVOLTAGE	IQUANT	0	Compliance Voltage
ZCURVE	TABLE
	Pt	Time	Freq	Zreal	Zimag	Zsig	Zmod	Zphz	Idc	Vdc	IERange
	#	s	Hz	ohm	ohm	V	ohm	°	A	V	#
	0	23	300046.9	-25.01242	-4805.983	1	4806.048	-90.29819	-1.737791E-005	0.0016857	9
	1	37	238359.4	-56.01449	-6200.529	1	6200.782	-90.51759	2.014934E-005	-0.0021482	9
	2	52	189328.1	175.4894	-7332.458	1	7334.558	-88.62899	-1.869608E-005	0.0011524	9
	3	62	150421.9	1.837412	-9115.066	1	9115.066	-89.98845	-9.229052E-005	0.0022611	9
	4	75	119484.4	320.772	-11662.54	1	11666.95	-88.42451	1.957808E-005	-0.002006	9
	5	89	94921.88	706.21	-14321.34	1	14338.74	-87.17693	-1.828266E-006	0.0077953	8
	6	96	75421.88	768.227	-18044.75	1	18061.09	-87.56219	-2.683328E-005	0.0097792	8
	7	104	59859.37	816.3866	-23405.13	1	23419.37	-88.0023	2.636839E-005	-0.0052602	8
	8	112	47578.12	4570.88	-29667.32	1	30017.38	-81.24124	3.581602E-006	-0.0248312	7
	9	120	37828.12	4908.264	-36713.62	1	37040.26	-82.38525	-7.495252E-006	0.0192871	7
	10	127	30046.88	849.4094	-43967.08	1	43975.28	-88.89323	8.44221E-006	0.0041868	8
	11	136	23859.38	7399.524	-56641.01	1	57122.3	-82.55709	4.987933E-006	-0.0006778	7
	12	141	18984.38	8339.242	-71227.59	1	71714.1	-83.32228	6.893121E-006	-0.0108782	7
	13	147	15046.87	2988.215	-90120.31	1	90169.84	-88.10088	-2.640767E-005	0.0095227	8
	14	154	11953.13	4543.564	-105948.7	1	106046.1	-87.5444	1.919715E-005	-0.0009574	9
	15	162	9515.62	14310.5	-139523.8	1	140255.8	-84.14384	-7.351609E-006	0.0236817	7
	16	168	7546.875	17482.69	-169739.9	1	170637.9	-84.11945	3.563125E-006	-0.0247848	7
	17	174	5928.309	24190.09	-233368.8	1	234619.2	-84.08208	4.997533E-007	0.0163988	7
	18	180	4733.456	73139.23	-285049.3	1	294283	-75.60924	-4.919718E-007	0.0014373	6
	19	184	3796.875	42968.42	-351028.6	1	353648.6	-83.0213	2.63752E-005	-0.0051923	8
	20	192	2987.132	233912.9	-339320.3	1	412132.9	-55.41928	1.65333E-005	-0.0093379	8
	21	201	2390.625	590517.3	-658576.6	1	884552.8	-48.11879	-1.381921E-006	0.0215977	7
	22	208	1884.191	239846	-653890.2	1	696490.1	-69.85703	-5.664627E-007	0.026948	6
	23	215	1516.544	292939.7	-784277.6	1	837200.7	-69.51857	4.056613E-007	-0.0255667	6
	24	220	1193.986	199293.1	-225261.7	1	300766.6	-48.50023	-9.475626E-006	-0.0021698	8
	25	229	946.5144	10112.16	-229224.6	1	229447.6	-87.47405	8.063183E-006	-0.0076603	8
	26	236	751.7689	254150.4	-1408053	1	1430806	-79.76841	3.536838E-006	-0.0250093	7
	27	240	597.4265	169761.3	-627360.3	1	649922.9	-74.85859	6.686721E-006	-0.010329	7
	28	246	477.4305	1360606	-1611778	1	2109284	-49.83013	-7.202423E-008	0.0005864	7
	29	252	376.6741	2010744	-1513078	1	2516445	-36.96135	-8.087429E-010	0.0006304	5
	30	254	298.2954	2147857	-1637825	1	2701067	-37.32693	-7.985042E-009	0.0007167	6
	31	258	237.7717	2624483	-1422566	1	2985231	-28.45931	-9.235914E-010	0.0007033	5
	32	262	189.0121	2929464	-1287610	1	3199953	-23.7273	-8.768718E-010	0.0006975	5
	33	266	150.2404	3156382	-1223691	1	3385287	-21.1907	-9.095903E-010	0.0007032	5
	34	270	119.1737	3055862	-925188.5	1	3192846	-16.84414	-8.700007E-010	0.000632	5
	35	274	95.0169	3515913	-1011724	1	3658583	-16.05347	-8.033095E-009	0.0007114	6
	36	278	75.60484	3750667	-745262	1	3823993	-11.23836	-9.486929E-010	0.0007279	5
	37	282	54.50582	3892616	-614076	1	3940754	-8.964764	-8.457216E-010	0.0006261	5
	38	285	45.95588	4248753	-78659.02	1	4249482	-1.060621	-1.405682E-010	0.0006587	4
	39	288	37.20238	4288877	-73457.84	1	4289506	-0.981239	-1.815144E-010	0.0006236	4
	40	290	30.04808	4303834	-87948.13	1	4304732	-1.170667	-1.309875E-010	0.0006487	4
	41	293	23.91582	4337007	-108206.1	1	4338357	-1.429204	-1.857565E-010	0.0006393	4
	42	296	18.60119	4283732	-84127.78	1	4284558	-1.125081	-7.27546E-011	0.0006179	4
	43	298	15.02404	4438647	-142014.3	1	4440919	-1.83255	-2.855392E-010	0.0006954	4
	44	301	12.01923	4502582	-173701.2	1	4505931	-2.209269	-2.514213E-010	0.0006035	4
	45	303	9.450605	4574606	-211652.1	1	4579500	-2.648999	-9.264105E-011	0.0006927	4
	46	306	7.512019	4655199	-255349.8	1	4662197	-3.139676	-6.493659E-011	0.0006231	4
	47	309	5.978954	4771301	-317928.2	1	4781882	-3.81218	-1.34245E-010	0.0006083	4
	48	314	4.734848	4906724	-375379.2	1	4921062	-4.374778	-2.680716E-011	0.0006784	4
	49	317	3.75601	5069929	-452151.8	1	5090051	-5.09633	-3.550532E-011	0.0006134	4
	50	323	3.004808	5285402	-528830.6	1	5311792	-5.71371	4.99307E-012	0.0005891	4
	51	329	2.372217	5491856	-617867	1	5526504	-6.419129	-1.68081E-010	0.0005825	4
	52	333	1.878005	5691386	-734649.1	1	5738604	-7.35512	-4.682735E-011	0.0006619	4
	53	338	1.512097	5925800	-859287.6	1	5987778	-8.250829	4.401278E-011	0.0005761	4
	54	343	1.201923	6205005	-996108	1	6284451	-9.12005	-1.297262E-010	0.0007438	4
	55	350	0.956633	6541492	-1169306	1	6645178	-10.13471	-3.062205E-010	2.024283E-005	4
