EXPLAIN
TAG	EISPOT
TITLE	LABEL	Potentiostatic EIS	Test Identifier
DATE	LABEL	8/29/2020	Date
TIME	LABEL	15:59:35	Time
NOTES	NOTES	1	Notes...
	
PSTAT	PSTAT	REF3000-16137	Potentiostat
VDC	POTEN	0.00000E+000	T	DC Voltage (V)
FREQINIT	QUANT	3.00000E+005	Initial Freq. (Hz)
FREQFINAL	QUANT	1.00000E+000	Final Freq. (Hz)
PTSPERDEC	QUANT	1.00000E+001	Points/decade
VAC	QUANT	5.00000E+001	AC Voltage (mV rms)
AREA	QUANT	1.00000E+000	Sample Area (cm^2)
SPEED	SELECTOR	2	Optimize for:
ZGUESS	QUANT	1.00000E+003	Estimated Z (ohms)
EOC	QUANT	0	Open Circuit (V)
SEQUENCER	TOGGLE	TRUE	Run as Sequence
PSTATMODEL	IQUANT	5	Pstat Model
PSTATSECTION	LABEL	REF3000-16137	Pstat Section
PSTATSERIALNO	LABEL	16137	Pstat Serial Number
CTRLMODE	IQUANT	1	Control Mode
IESTAB	IQUANT	0	I/E Stability
CASPEED	IQUANT	1	Control Amp Speed
CONVENTION	IQUANT	1	Current Convention
ICHRANGE	IQUANT	2	Ich Range
ICHRANGEMODE	TOGGLE	F	Ich Auto Range
ICHOFFSETENABLE	TOGGLE	T	Ich Offset Enable
ICHOFFSET	QUANT	0	Ich Offset (V)
ICHFILTER	IQUANT	3	Ich Filter
VCHRANGE	IQUANT	2	Vch Range
VCHRANGEMODE	TOGGLE	F	Vch Auto Range
VCHOFFSETENABLE	TOGGLE	T	Vch Offset Enable
VCHOFFSET	QUANT	0	Vch Offset (V)
VCHFILTER	IQUANT	3	Vch Filter
ACHRANGE	IQUANT	2	Ach Range
ACHOFFSETENABLE	TOGGLE	F	Ach Offset Enable
ACHOFFSET	QUANT	0	Ach Offset (V)
ACHFILTER	IQUANT	3	Ach Filter
IERANGELOWERLIMIT	IQUANT	2	I/E Range Lower Limit
IERANGEMODE	TOGGLE	F	I/E AutoRange
IERANGE	IQUANT	11	I/E Range
POSFEEDENABLE	TOGGLE	F	Positive Feedback IR Comp
POSFEEDRESISTANCE	QUANT	0	Positive Feedback Resistance (ohm)
ACHSELECT	IQUANT	0	Ach Select
CABLEID	IQUANT	13	Cable ID
DCCALDATE	LABEL	7/31/2020	DC Calibration Date
ACCALDATE	LABEL	7/31/2020	AC Calibration Date
THERMOSELECT	IQUANT	1	Thermo Select
FRAMEWORKVERSION	QUANT	6.33	Framework Version
INSTRUMENTVERSION	LABEL	3.50	Instrument Version
COMPLIANCEVOLTAGE	IQUANT	0	Compliance Voltage
ZCURVE	TABLE
	Pt	Time	Freq	Zreal	Zimag	Zsig	Zmod	Zphz	Idc	Vdc	IERange
	#	s	Hz	ohm	ohm	V	ohm	°	A	V	#
	0	17	300046.9	345.0151	-23.16016	1	345.7916	-3.840387	1.961572E-005	-0.0005888	9
	1	22	238359.4	348.0937	-26.8395	1	349.1269	-4.409023	2.663104E-005	0.0004668	10
	2	26	189328.1	350.0514	-20.10667	1	350.6283	-3.287412	-2.922251E-005	-0.0007758	9
	3	31	150421.9	352.8133	-18.31634	1	353.2884	-2.971848	-8.130504E-005	0.0036511	9
	4	36	119484.4	355.6658	-18.52205	1	356.1478	-2.981106	1.754373E-005	-0.0008269	9
	5	41	94921.88	357.8053	-18.96838	1	358.3077	-3.034588	-1.516589E-005	8.024666E-005	9
	6	43	75421.88	360.1224	-19.79823	1	360.6662	-3.146748	2.036642E-005	-0.0009784	9
	7	46	59859.37	362.1077	-22.52105	1	362.8074	-3.55889	-1.707353E-005	0.0010556	9
	8	48	47578.12	364.0044	-25.19452	1	364.8753	-3.959405	-1.861353E-005	0.0003284	9
	9	51	37828.12	366.9021	-28.75399	1	368.0271	-4.481091	-1.726842E-005	0.001062	9
	10	54	30046.88	370.5419	-34.11081	1	372.1086	-5.259629	2.809842E-005	-0.0006754	9
	11	56	23859.38	374.3023	-39.33712	1	376.3637	-5.999448	2.373599E-005	-0.0008939	9
	12	58	18984.38	378.5078	-45.72679	1	381.2599	-6.88841	-1.723911E-005	0.0010706	9
	13	61	15046.87	382.4411	-52.74362	1	386.0609	-7.852303	-2.184468E-006	-0.0015998	8
	14	63	11953.13	389.5963	-62.20266	1	394.5307	-9.07124	6.891818E-006	-0.0041241	8
	15	65	9515.62	396.7569	-72.28361	1	403.2877	-10.32525	-1.53873E-005	0.0045439	8
	16	68	7546.875	404.0666	-84.51186	1	412.81	-11.81331	6.423847E-006	0.001823	8
	17	70	5928.309	415.9024	-98.2776	1	427.3561	-13.29509	-8.407579E-006	0.0058354	8
	18	72	4733.456	424.2986	-113.5779	1	439.2371	-14.98582	-8.569972E-006	0.0058268	8
	19	75	3796.875	434.3609	-131.2159	1	453.7477	-16.80901	1.075762E-005	-0.0002116	8
	20	77	2987.132	448.9654	-151.2279	1	473.7508	-18.61539	-1.31388E-005	0.0055022	8
	21	79	2390.625	460.9235	-174.2525	1	492.762	-20.70914	-8.592629E-006	0.0059289	8
	22	82	1884.191	474.5295	-202.6332	1	515.983	-23.12341	5.918768E-007	0.0038107	8
	23	84	1516.544	484.8008	-235.0309	1	538.7683	-25.86406	-1.308068E-005	0.0037999	8
	24	86	1193.986	497.4633	-281.7441	1	571.7075	-29.52555	-4.371914E-006	0.0051509	8
	25	89	946.5144	508.0179	-337.4522	1	609.8821	-33.5942	6.364998E-006	0.0018174	8
	26	91	751.7689	518.8209	-406.8595	1	659.3253	-38.10355	-1.301376E-005	0.005445	8
	27	94	597.4265	529.0535	-495.3815	1	724.7761	-43.11743	-8.646933E-006	0.0059274	8
	28	96	477.4305	539.3943	-605.0958	1	810.6091	-48.28556	-2.998373E-008	0.0006575	8
	29	99	376.6741	551.3674	-751.3036	1	931.9138	-53.72577	-2.441072E-008	0.0006499	8
	30	101	298.2954	564.872	-933.4716	1	1091.077	-58.82059	5.787502E-009	0.0006343	8
	31	103	237.7717	580.5779	-1155.844	1	1293.463	-63.32972	-6.149139E-009	0.0006418	8
	32	106	189.0121	599.9546	-1437.459	1	1557.637	-67.34573	3.340717E-009	0.0006497	8
	33	108	150.2404	623.9247	-1789.783	1	1895.417	-70.78126	-5.546666E-008	0.0007027	8
	34	111	119.1737	654.8171	-2235.068	1	2329.015	-73.67078	1.212824E-008	0.00064	8
	35	113	95.0169	692.7635	-2777.463	1	2862.555	-75.99487	1.477744E-009	0.0006476	8
	36	115	75.60484	742.3347	-3460.157	1	3538.891	-77.89143	-1.708805E-008	0.0006568	8
	37	118	54.50582	840.7106	-4746.738	1	4820.614	-79.95631	-1.901833E-008	0.0006766	7
	38	121	45.95588	907.0396	-5591.36	1	5664.453	-80.78565	-1.001741E-008	0.0006037	7
	39	123	37.20238	1008.422	-6845.916	1	6919.789	-81.62043	-1.319311E-008	0.000618	7
	40	125	30.04808	1138.855	-8399.142	1	8476	-82.27825	-1.481386E-008	0.0006422	7
	41	128	23.91582	1314.536	-10441.35	1	10523.77	-82.82438	-9.666442E-009	0.0006148	7
	42	130	18.60119	1571.04	-13267.59	1	13360.28	-83.24695	-1.525643E-008	0.0006339	7
	43	132	15.02404	1847.88	-16266	1	16370.62	-83.51877	-1.081617E-008	0.0006147	7
	44	135	12.01923	2229.379	-20113.74	1	20236.91	-83.67523	-1.145422E-008	0.0006127	7
	45	137	9.450605	2758.214	-25283.32	1	25433.32	-83.77409	-1.294779E-008	0.0006205	7
	46	140	7.512019	3429.765	-31449.14	1	31635.61	-83.77606	-1.249587E-008	0.0006249	7
	47	142	5.978954	4313.847	-39017.32	1	39255.07	-83.69086	-9.283311E-009	0.0006153	7
	48	145	4.734848	5556.614	-48665.42	1	48981.62	-83.48618	-1.049257E-009	0.000656	6
	49	149	3.75601	7164.313	-60505.54	1	60928.22	-83.24718	-7.107172E-010	0.0006487	6
	50	152	3.004808	9253.699	-74541.28	1	75113.47	-82.92339	-2.061876E-009	0.0007237	6
	51	156	2.372217	12203.3	-92933.08	1	93730.88	-82.51913	-1.755892E-009	0.0007313	6
	52	160	1.878005	16314.19	-115390	1	116537.5	-81.95268	-1.487395E-009	0.0006412	6
	53	165	1.512097	21333	-140811.3	1	142418.1	-81.38516	-1.62688E-009	0.0007689	6
	54	170	1.201923	28343.82	-173654.9	1	175952.8	-80.72997	-1.29498E-009	0.0006402	6
	55	176	0.956633	37491.7	-213330	1	216599.4	-80.03233	-2.569334E-009	5.511738E-005	6
