EXPLAIN
TAG	EISPOT
TITLE	LABEL	Potentiostatic EIS	Test Identifier
DATE	LABEL	8/29/2020	Date
TIME	LABEL	15:42:10	Time
NOTES	NOTES	1	Notes...
	
PSTAT	PSTAT	REF3000-16137	Potentiostat
VDC	POTEN	0.00000E+000	T	DC Voltage (V)
FREQINIT	QUANT	3.00000E+005	Initial Freq. (Hz)
FREQFINAL	QUANT	1.00000E+000	Final Freq. (Hz)
PTSPERDEC	QUANT	1.00000E+001	Points/decade
VAC	QUANT	5.00000E+001	AC Voltage (mV rms)
AREA	QUANT	1.00000E+000	Sample Area (cm^2)
SPEED	SELECTOR	2	Optimize for:
ZGUESS	QUANT	1.00000E+003	Estimated Z (ohms)
EOC	QUANT	0	Open Circuit (V)
SEQUENCER	TOGGLE	TRUE	Run as Sequence
PSTATMODEL	IQUANT	5	Pstat Model
PSTATSECTION	LABEL	REF3000-16137	Pstat Section
PSTATSERIALNO	LABEL	16137	Pstat Serial Number
CTRLMODE	IQUANT	1	Control Mode
IESTAB	IQUANT	0	I/E Stability
CASPEED	IQUANT	1	Control Amp Speed
CONVENTION	IQUANT	1	Current Convention
ICHRANGE	IQUANT	2	Ich Range
ICHRANGEMODE	TOGGLE	F	Ich Auto Range
ICHOFFSETENABLE	TOGGLE	T	Ich Offset Enable
ICHOFFSET	QUANT	0	Ich Offset (V)
ICHFILTER	IQUANT	3	Ich Filter
VCHRANGE	IQUANT	2	Vch Range
VCHRANGEMODE	TOGGLE	F	Vch Auto Range
VCHOFFSETENABLE	TOGGLE	T	Vch Offset Enable
VCHOFFSET	QUANT	0	Vch Offset (V)
VCHFILTER	IQUANT	3	Vch Filter
ACHRANGE	IQUANT	2	Ach Range
ACHOFFSETENABLE	TOGGLE	F	Ach Offset Enable
ACHOFFSET	QUANT	0	Ach Offset (V)
ACHFILTER	IQUANT	3	Ach Filter
IERANGELOWERLIMIT	IQUANT	2	I/E Range Lower Limit
IERANGEMODE	TOGGLE	F	I/E AutoRange
IERANGE	IQUANT	11	I/E Range
POSFEEDENABLE	TOGGLE	F	Positive Feedback IR Comp
POSFEEDRESISTANCE	QUANT	0	Positive Feedback Resistance (ohm)
ACHSELECT	IQUANT	0	Ach Select
CABLEID	IQUANT	13	Cable ID
DCCALDATE	LABEL	7/31/2020	DC Calibration Date
ACCALDATE	LABEL	7/31/2020	AC Calibration Date
THERMOSELECT	IQUANT	1	Thermo Select
FRAMEWORKVERSION	QUANT	6.33	Framework Version
INSTRUMENTVERSION	LABEL	3.50	Instrument Version
COMPLIANCEVOLTAGE	IQUANT	0	Compliance Voltage
ZCURVE	TABLE
	Pt	Time	Freq	Zreal	Zimag	Zsig	Zmod	Zphz	Idc	Vdc	IERange
	#	s	Hz	ohm	ohm	V	ohm	°	A	V	#
	0	7	300046.9	139.2425	-4.026429	1	139.3007	-1.656341	-3.508236E-005	-0.0007044	9
	1	10	238359.4	140.0151	-5.088518	1	140.1075	-2.081364	-3.509223E-006	0.0009762	9
	2	14	189328.1	140.4324	-6.211424	1	140.5697	-2.532582	9.178315E-006	-0.0016383	9
	3	16	150421.9	141.2245	-6.969643	1	141.3964	-2.825341	-9.184136E-005	0.0032314	9
	4	19	119484.4	141.7975	-8.395033	1	142.0458	-3.388206	2.887617E-005	0.0004185	9
	5	22	94921.88	142.7518	-9.80708	1	143.0883	-3.930057	1.154078E-005	0.0001671	9
	6	24	75421.88	143.7972	-11.83376	1	144.2834	-4.704543	-2.133838E-005	0.0006633	9
	7	27	59859.37	145.1503	-14.20339	1	145.8435	-5.588773	-2.165394E-005	0.0007683	9
	8	29	47578.12	146.8155	-16.8398	1	147.7782	-6.543252	4.267616E-007	0.0005269	9
	9	32	37828.12	148.6845	-19.84517	1	150.003	-7.602432	2.387974E-005	-0.0007281	9
	10	34	30046.88	150.9156	-23.40423	1	152.7196	-8.815299	1.265288E-005	-0.000692	9
	11	37	23859.38	153.6558	-27.38793	1	156.0775	-10.10638	1.138493E-005	0.0001897	9
	12	39	18984.38	156.7116	-31.83592	1	159.9126	-11.48335	2.013821E-005	-0.0007697	9
	13	41	15046.87	160.1902	-37.01907	1	164.412	-13.01231	-1.763919E-005	0.0009711	9
	14	44	11953.13	163.9969	-42.7119	1	169.4676	-14.59801	-2.05431E-005	0.0005108	9
	15	46	9515.62	168.315	-49.20042	1	175.3586	-16.29425	-1.447437E-005	0.0001636	9
	16	48	7546.875	172.9995	-56.9501	1	182.1322	-18.22114	-1.858771E-005	0.0003874	9
	17	51	5928.309	178.0653	-66.17585	1	189.9644	-20.38699	2.553808E-005	-0.0004593	9
	18	53	4733.456	182.6909	-76.31895	1	197.9912	-22.67269	-1.791183E-006	-0.0003144	9
	19	55	3796.875	186.9817	-89.18102	1	207.1604	-25.49883	2.286072E-005	-0.000206	9
	20	58	2987.132	191.2307	-105.3914	1	218.3496	-28.86012	-2.182799E-005	0.0006668	9
	21	60	2390.625	195.2376	-125.0695	1	231.8623	-32.64368	1.354781E-005	-0.0007034	9
	22	62	1884.191	199.3171	-151.1562	1	250.151	-37.17561	2.60307E-005	-0.0006195	9
	23	64	1516.544	202.8255	-183.1943	1	273.3099	-42.08871	2.323928E-005	-0.0002476	9
	24	68	1193.986	206.4344	-226.554	1	306.4995	-47.66044	6.76176E-006	-0.000561	9
	25	71	946.5144	210.3454	-280.0225	1	350.2254	-53.0871	2.34377E-005	-0.0002129	9
	26	73	751.7689	215.1172	-346.2255	1	407.6119	-58.14644	2.60399E-005	-0.0006074	9
	27	75	597.4265	219.3023	-428.5476	1	481.4006	-62.89964	8.534264E-006	-0.0020421	8
	28	77	477.4305	226.1584	-530.1281	1	576.3536	-66.89638	1.761624E-007	0.0006409	8
	29	80	376.6741	234.8076	-665.1007	1	705.3322	-70.55489	1.888436E-007	0.0006509	8
	30	82	298.2954	245.6893	-832.0977	1	867.6115	-73.54997	1.909797E-007	0.0006459	8
	31	84	237.7717	259.2887	-1034.848	1	1066.837	-75.93371	1.640097E-007	0.0006468	8
	32	87	189.0121	277.0008	-1290.652	1	1320.042	-77.88689	1.724386E-007	0.0006548	8
	33	89	150.2404	299.9917	-1609.562	1	1637.28	-79.4423	1.333596E-007	0.0007081	8
	34	92	119.1737	330.4128	-2011.048	1	2038.01	-80.66973	1.72311E-007	0.0006531	8
	35	94	95.0169	368.7696	-2499.053	1	2526.115	-81.6058	1.668048E-007	0.0006468	8
	36	97	75.60484	419.2306	-3111.089	1	3139.208	-82.32542	1.899415E-007	0.0006465	8
	37	99	54.50582	517.8347	-4253.292	1	4284.699	-83.05845	1.769897E-007	0.0006472	8
	38	102	45.95588	587.0206	-5016.324	1	5050.555	-83.32549	1.42454E-008	0.0006342	7
	39	104	37.20238	692.386	-6136.492	1	6175.43	-83.56249	1.41995E-008	0.0006272	7
	40	106	30.04808	827.475	-7521.196	1	7566.578	-83.72162	1.123068E-008	0.0006306	7
	41	109	23.91582	1016.407	-9344.308	1	9399.424	-83.79218	1.336091E-008	0.0006189	7
	42	111	18.60119	1289.709	-11859.18	1	11929.11	-83.79337	1.594394E-008	0.0006309	7
	43	113	15.02404	1604.53	-14519.35	1	14607.74	-83.69385	1.79323E-008	0.0006304	7
	44	116	12.01923	2037.328	-17930.06	1	18045.43	-83.51749	1.445041E-008	0.0006297	7
	45	118	9.450605	2670.636	-22487.48	1	22645.51	-83.22722	1.501713E-008	0.0006392	7
	46	121	7.512019	3491.096	-27893.01	1	28110.64	-82.86594	1.754944E-008	0.000647	7
	47	123	5.978954	4612.643	-34520.63	1	34827.44	-82.38922	1.36319E-008	0.0006438	7
	48	126	4.734848	6153.375	-42867.81	1	43307.2	-81.83139	1.710477E-008	0.0006671	7
	49	130	3.75601	8303.778	-52992.42	1	53639.07	-81.09431	7.197684E-010	0.0006592	6
	50	133	3.004808	11040.67	-64867.39	1	65800.27	-80.34061	1.826688E-009	0.0006689	6
	51	137	2.372217	15035.24	-80077.54	1	81476.81	-79.36604	1.343178E-009	0.0006775	6
	52	141	1.878005	20408.87	-98627	1	100716.4	-78.3088	3.110073E-010	0.0006603	6
	53	146	1.512097	26705.15	-118805.6	1	121770	-77.3316	1.385387E-009	0.0006118	6
	54	151	1.201923	35949.45	-144584.6	1	148986.8	-76.03715	6.402873E-010	0.0006537	6
	55	157	0.956633	47626.23	-174567.7	1	180947.9	-74.73974	3.261152E-010	2.855677E-005	6
