EXPLAIN
TAG	EISPOT
TITLE	LABEL	Potentiostatic EIS	Test Identifier
DATE	LABEL	8/29/2020	Date
TIME	LABEL	15:39:25	Time
NOTES	NOTES	1	Notes...
	
PSTAT	PSTAT	REF3000-16137	Potentiostat
VDC	POTEN	0.00000E+000	T	DC Voltage (V)
FREQINIT	QUANT	3.00000E+005	Initial Freq. (Hz)
FREQFINAL	QUANT	1.00000E+000	Final Freq. (Hz)
PTSPERDEC	QUANT	1.00000E+001	Points/decade
VAC	QUANT	5.00000E+001	AC Voltage (mV rms)
AREA	QUANT	1.00000E+000	Sample Area (cm^2)
SPEED	SELECTOR	2	Optimize for:
ZGUESS	QUANT	1.00000E+003	Estimated Z (ohms)
EOC	QUANT	0	Open Circuit (V)
SEQUENCER	TOGGLE	TRUE	Run as Sequence
PSTATMODEL	IQUANT	5	Pstat Model
PSTATSECTION	LABEL	REF3000-16137	Pstat Section
PSTATSERIALNO	LABEL	16137	Pstat Serial Number
CTRLMODE	IQUANT	1	Control Mode
IESTAB	IQUANT	0	I/E Stability
CASPEED	IQUANT	1	Control Amp Speed
CONVENTION	IQUANT	1	Current Convention
ICHRANGE	IQUANT	2	Ich Range
ICHRANGEMODE	TOGGLE	F	Ich Auto Range
ICHOFFSETENABLE	TOGGLE	T	Ich Offset Enable
ICHOFFSET	QUANT	0	Ich Offset (V)
ICHFILTER	IQUANT	3	Ich Filter
VCHRANGE	IQUANT	2	Vch Range
VCHRANGEMODE	TOGGLE	F	Vch Auto Range
VCHOFFSETENABLE	TOGGLE	T	Vch Offset Enable
VCHOFFSET	QUANT	0	Vch Offset (V)
VCHFILTER	IQUANT	3	Vch Filter
ACHRANGE	IQUANT	2	Ach Range
ACHOFFSETENABLE	TOGGLE	F	Ach Offset Enable
ACHOFFSET	QUANT	0	Ach Offset (V)
ACHFILTER	IQUANT	3	Ach Filter
IERANGELOWERLIMIT	IQUANT	2	I/E Range Lower Limit
IERANGEMODE	TOGGLE	F	I/E AutoRange
IERANGE	IQUANT	11	I/E Range
POSFEEDENABLE	TOGGLE	F	Positive Feedback IR Comp
POSFEEDRESISTANCE	QUANT	0	Positive Feedback Resistance (ohm)
ACHSELECT	IQUANT	0	Ach Select
CABLEID	IQUANT	13	Cable ID
DCCALDATE	LABEL	7/31/2020	DC Calibration Date
ACCALDATE	LABEL	7/31/2020	AC Calibration Date
THERMOSELECT	IQUANT	1	Thermo Select
FRAMEWORKVERSION	QUANT	6.33	Framework Version
INSTRUMENTVERSION	LABEL	3.50	Instrument Version
COMPLIANCEVOLTAGE	IQUANT	0	Compliance Voltage
ZCURVE	TABLE
	Pt	Time	Freq	Zreal	Zimag	Zsig	Zmod	Zphz	Idc	Vdc	IERange
	#	s	Hz	ohm	ohm	V	ohm	°	A	V	#
	0	7	300046.9	123.9895	-3.568353	1	124.0408	-1.648488	2.046014E-005	-0.0007157	9
	1	10	238359.4	124.5402	-4.077383	1	124.6069	-1.875165	1.845884E-005	-0.0015133	9
	2	13	189328.1	125.2207	-5.32393	1	125.3338	-2.434543	1.197443E-005	-0.0009149	9
	3	16	150421.9	125.7124	-6.602113	1	125.8856	-3.006276	-3.02239E-005	-0.0005538	9
	4	18	119484.4	126.5807	-7.94859	1	126.83	-3.59315	6.67413E-005	-0.0015205	9
	5	21	94921.88	127.2961	-9.321368	1	127.637	-4.188058	1.460244E-005	-0.0007068	9
	6	24	75421.88	128.4614	-11.31641	1	128.9589	-5.034297	-2.143841E-005	0.0007518	9
	7	26	59859.37	129.7097	-13.5814	1	130.4188	-5.977437	-1.918582E-005	0.0004627	9
	8	29	47578.12	131.2886	-16.2081	1	132.2853	-7.037781	3.674233E-006	0.0004907	9
	9	31	37828.12	133.1174	-19.00445	1	134.4672	-8.124903	2.336404E-005	-0.0002465	9
	10	34	30046.88	135.3342	-22.33268	1	137.1645	-9.370426	-1.42438E-005	0.0001464	9
	11	36	23859.38	137.8537	-26.10189	1	140.3031	-10.72173	1.595066E-005	-0.0007393	9
	12	38	18984.38	140.7082	-30.32336	1	143.9385	-12.16155	2.396813E-005	-0.0007389	9
	13	41	15046.87	144.05	-35.10192	1	148.2651	-13.69486	-9.084886E-006	-2.915773E-005	9
	14	43	11953.13	147.6587	-40.53781	1	153.1222	-15.3516	2.356222E-005	-0.0002562	9
	15	45	9515.62	151.56	-46.881	1	158.6451	-17.18804	5.514005E-006	-0.0005006	9
	16	48	7546.875	155.8425	-54.23658	1	165.0106	-19.18901	-1.481739E-005	0.0001523	9
	17	50	5928.309	160.1775	-63.02531	1	172.1309	-21.47823	-1.892237E-005	0.0008965	9
	18	52	4733.456	164.0454	-73.03207	1	179.5678	-23.99835	1.356148E-005	-0.0006826	9
	19	55	3796.875	168.0248	-85.07411	1	188.3346	-26.85395	2.497539E-005	-0.0006136	9
	20	57	2987.132	171.6095	-101.7166	1	199.4896	-30.65611	1.928234E-005	-8.777399E-005	9
	21	59	2390.625	175.3139	-121.3523	1	213.2167	-34.69098	2.462331E-005	-0.0002817	9
	22	62	1884.191	177.9594	-148.4181	1	231.7272	-39.82809	-1.779519E-005	0.0003846	9
	23	64	1516.544	181.2605	-178.4693	1	254.375	-44.55545	-2.03546E-006	-0.0002904	9
	24	66	1193.986	184.6098	-221.8146	1	288.5871	-50.23038	-1.719235E-005	0.0003748	9
	25	69	946.5144	188.8193	-274.7622	1	333.3871	-55.50277	2.559875E-005	-0.0004437	9
	26	71	751.7689	192.6277	-341.9507	1	392.4738	-60.60657	2.293158E-005	-0.0002464	9
	27	73	597.4265	197.5472	-421.9441	1	465.8988	-64.91179	8.243358E-007	0.0021066	8
	28	76	477.4305	203.7315	-523.0007	1	561.2809	-68.71692	1.713621E-007	0.0007019	8
	29	78	376.6741	212.3085	-656.4554	1	689.9337	-72.07793	2.12705E-007	0.0006541	8
	30	80	298.2954	223.1042	-821.5039	1	851.2603	-74.80608	2.155087E-007	0.000652	8
	31	83	237.7717	236.7323	-1021.814	1	1048.878	-76.95593	2.110819E-007	0.0006538	8
	32	85	189.0121	254.4708	-1274.387	1	1299.545	-78.70765	2.140369E-007	0.000654	8
	33	87	150.2404	277.6187	-1589.16	1	1613.227	-80.0907	2.158074E-007	0.0006499	8
	34	90	119.1737	308.0948	-1985.302	1	2009.066	-81.17876	2.029335E-007	0.0006545	8
	35	92	95.0169	346.7544	-2466.914	1	2491.165	-81.99881	2.039893E-007	0.0006588	8
	36	95	75.60484	397.2917	-3070.59	1	3096.185	-82.62768	2.057158E-007	0.0006558	8
	37	97	54.50582	496.2798	-4197.002	1	4226.242	-83.2563	1.97071E-007	0.0006499	8
	38	100	45.95588	566.2722	-4949.353	1	4981.642	-83.47298	2.020264E-008	0.0006263	7
	39	102	37.20238	671.9053	-6052.66	1	6089.84	-83.66553	1.692126E-008	0.000633	7
	40	105	30.04808	807.6191	-7413.738	1	7457.598	-83.78297	1.444045E-008	0.000631	7
	41	107	23.91582	997.72	-9206.362	1	9260.268	-83.81483	1.638133E-008	0.0006301	7
	42	109	18.60119	1280.252	-11692.21	1	11762.1	-83.75123	1.496736E-008	0.0006386	7
	43	112	15.02404	1602.05	-14314.05	1	14403.43	-83.61395	1.838284E-008	0.0006769	7
	44	114	12.01923	2053.015	-17668.81	1	17787.69	-83.37228	1.636844E-008	0.0006347	7
	45	116	9.450605	2713.372	-22158.38	1	22323.89	-83.01868	1.726234E-008	0.0006383	7
	46	119	7.512019	3567.548	-27465.69	1	27696.42	-82.59923	1.698953E-008	0.0006398	7
	47	122	5.978954	4715.928	-33944.79	1	34270.81	-82.09056	1.766602E-008	0.0006425	7
	48	125	4.734848	6332.768	-42101.55	1	42575.16	-81.4459	2.293669E-008	0.000647	7
	49	128	3.75601	8559.055	-52004.43	1	52704.06	-80.65386	5.556061E-010	0.0006519	6
	50	131	3.004808	11435.61	-63554.25	1	64574.89	-79.79965	2.629804E-009	0.0006495	6
	51	135	2.372217	15622.17	-78278.88	1	79822.52	-78.71372	1.343481E-009	0.0006908	6
	52	139	1.878005	21225.58	-96183.7	1	98497.8	-77.55556	3.19323E-010	0.0006676	6
	53	144	1.512097	27844.05	-115675.8	1	118979.8	-76.46593	1.376145E-009	0.0005843	6
	54	149	1.201923	37375.99	-140217.9	1	145113.8	-75.07448	5.270598E-010	0.000663	6
	55	156	0.956633	49395.82	-168657.3	1	175741.9	-73.67591	1.096222E-010	6.266835E-005	6
