EXPLAIN
TAG	EISPOT
TITLE	LABEL	Potentiostatic EIS	Test Identifier
DATE	LABEL	8/29/2020	Date
TIME	LABEL	16:02:41	Time
NOTES	NOTES	1	Notes...
	
PSTAT	PSTAT	REF3000-16137	Potentiostat
VDC	POTEN	0.00000E+000	T	DC Voltage (V)
FREQINIT	QUANT	3.00000E+005	Initial Freq. (Hz)
FREQFINAL	QUANT	1.00000E+000	Final Freq. (Hz)
PTSPERDEC	QUANT	1.00000E+001	Points/decade
VAC	QUANT	5.00000E+001	AC Voltage (mV rms)
AREA	QUANT	1.00000E+000	Sample Area (cm^2)
SPEED	SELECTOR	2	Optimize for:
ZGUESS	QUANT	1.00000E+003	Estimated Z (ohms)
EOC	QUANT	0	Open Circuit (V)
SEQUENCER	TOGGLE	TRUE	Run as Sequence
PSTATMODEL	IQUANT	5	Pstat Model
PSTATSECTION	LABEL	REF3000-16137	Pstat Section
PSTATSERIALNO	LABEL	16137	Pstat Serial Number
CTRLMODE	IQUANT	1	Control Mode
IESTAB	IQUANT	0	I/E Stability
CASPEED	IQUANT	1	Control Amp Speed
CONVENTION	IQUANT	1	Current Convention
ICHRANGE	IQUANT	2	Ich Range
ICHRANGEMODE	TOGGLE	F	Ich Auto Range
ICHOFFSETENABLE	TOGGLE	T	Ich Offset Enable
ICHOFFSET	QUANT	0	Ich Offset (V)
ICHFILTER	IQUANT	3	Ich Filter
VCHRANGE	IQUANT	2	Vch Range
VCHRANGEMODE	TOGGLE	F	Vch Auto Range
VCHOFFSETENABLE	TOGGLE	T	Vch Offset Enable
VCHOFFSET	QUANT	0	Vch Offset (V)
VCHFILTER	IQUANT	3	Vch Filter
ACHRANGE	IQUANT	2	Ach Range
ACHOFFSETENABLE	TOGGLE	F	Ach Offset Enable
ACHOFFSET	QUANT	0	Ach Offset (V)
ACHFILTER	IQUANT	3	Ach Filter
IERANGELOWERLIMIT	IQUANT	2	I/E Range Lower Limit
IERANGEMODE	TOGGLE	F	I/E AutoRange
IERANGE	IQUANT	11	I/E Range
POSFEEDENABLE	TOGGLE	F	Positive Feedback IR Comp
POSFEEDRESISTANCE	QUANT	0	Positive Feedback Resistance (ohm)
ACHSELECT	IQUANT	0	Ach Select
CABLEID	IQUANT	13	Cable ID
DCCALDATE	LABEL	7/31/2020	DC Calibration Date
ACCALDATE	LABEL	7/31/2020	AC Calibration Date
THERMOSELECT	IQUANT	1	Thermo Select
FRAMEWORKVERSION	QUANT	6.33	Framework Version
INSTRUMENTVERSION	LABEL	3.50	Instrument Version
COMPLIANCEVOLTAGE	IQUANT	0	Compliance Voltage
ZCURVE	TABLE
	Pt	Time	Freq	Zreal	Zimag	Zsig	Zmod	Zphz	Idc	Vdc	IERange
	#	s	Hz	ohm	ohm	V	ohm	°	A	V	#
	0	18	300046.9	423.8441	-34.59653	1	425.2537	-4.666457	2.268978E-005	-0.0010734	9
	1	23	238359.4	426.4724	-30.58497	1	427.5677	-4.102011	-1.48756E-005	0.0015348	9
	2	30	189328.1	432.0857	-26.84097	1	432.9186	-3.554621	-4.422288E-006	-0.00166	9
	3	38	150421.9	437.3193	-24.60931	1	438.0112	-3.220813	7.505205E-005	-0.0015149	9
	4	46	119484.4	440.1894	-24.32252	1	440.8608	-3.162643	8.405565E-005	-0.0024021	9
	5	51	94921.88	442.9061	-23.84828	1	443.5477	-3.082114	2.053779E-005	-0.000099	9
	6	54	75421.88	445.3625	-14.42705	1	445.5961	-1.855388	3.238602E-006	-0.0036953	8
	7	56	59859.37	446.7768	-18.32979	1	447.1526	-2.349341	1.46439E-005	-0.0051293	8
	8	59	47578.12	449.6586	-22.52915	1	450.2227	-2.868279	1.428432E-005	-0.0049532	8
	9	61	37828.12	452.2355	-27.89861	1	453.0952	-3.530129	1.573412E-005	-0.0033498	8
	10	64	30046.88	456.1443	-33.02596	1	457.3383	-4.141129	-1.32905E-005	0.0029651	8
	11	66	23859.38	460.6729	-40.9764	1	462.4917	-5.083026	-1.325662E-005	0.0032222	8
	12	69	18984.38	465.4244	-48.06803	1	467.9	-5.896479	-1.079222E-005	0.001494	8
	13	71	15046.87	470.6755	-57.1425	1	474.1315	-6.922134	-9.972914E-006	0.0064901	8
	14	73	11953.13	478.7675	-66.81171	1	483.4068	-7.944286	7.891651E-006	-0.0046959	8
	15	76	9515.62	486.1467	-78.40686	1	492.429	-9.161899	-1.420643E-005	0.0030436	8
	16	78	7546.875	496.0884	-91.23777	1	504.4086	-10.42106	-1.24753E-005	0.0043724	8
	17	80	5928.309	506.7355	-106.8205	1	517.8721	-11.90374	-7.532737E-006	-0.000098	8
	18	83	4733.456	517.5408	-124.0865	1	532.2085	-13.48282	-2.086745E-006	-0.0021343	8
	19	85	3796.875	531.4753	-144.1615	1	550.6801	-15.17618	1.196157E-005	-0.0004292	8
	20	87	2987.132	545.9692	-165.1058	1	570.3879	-16.82577	1.592257E-005	-0.0032884	8
	21	90	2390.625	560.4836	-191.3077	1	592.2335	-18.84612	3.387956E-006	-0.0038755	8
	22	92	1884.191	578.5488	-221.7371	1	619.5854	-20.97005	-1.441318E-005	0.0058953	8
	23	94	1516.544	592.8328	-258.1105	1	646.5847	-23.52759	-1.283773E-005	0.0064965	8
	24	97	1193.986	609.0912	-302.328	1	679.9958	-26.39793	1.455868E-005	-0.0050279	8
	25	100	946.5144	623.8008	-359.0059	1	719.731	-29.92101	1.218133E-005	-0.0052509	8
	26	102	751.7689	637.0706	-428.0358	1	767.5113	-33.89641	-2.471637E-006	-0.0020431	8
	27	105	597.4265	650.6902	-516.7681	1	830.9314	-38.45606	-5.251307E-006	0.0057733	8
	28	107	477.4305	663.067	-629.0157	1	913.9576	-43.49039	-4.698718E-008	0.0006606	8
	29	109	376.6741	677.0677	-777.0493	1	1030.644	-48.93333	-4.078056E-008	0.0006547	8
	30	112	298.2954	692.2585	-961.924	1	1185.124	-54.25893	-3.305495E-008	0.0006536	8
	31	114	237.7717	709.4023	-1188.076	1	1383.755	-59.1585	-2.901553E-008	0.0006517	8
	32	117	189.0121	729.9792	-1475.004	1	1645.754	-63.66921	-2.431346E-008	0.0006443	8
	33	119	150.2404	755.2003	-1834.366	1	1983.74	-67.62325	-3.876242E-008	0.0006431	8
	34	121	119.1737	786.8964	-2289.225	1	2420.693	-71.03014	-7.433947E-008	0.0006937	8
	35	124	95.0169	825.9353	-2843.398	1	2960.926	-73.80276	-2.624311E-008	0.0006476	8
	36	126	75.60484	875.8433	-3540.674	1	3647.393	-76.10587	-2.889806E-008	0.000651	8
	37	129	54.50582	974.331	-4856.595	1	4953.366	-78.65591	-1.890995E-008	0.0006261	7
	38	131	45.95588	1041.085	-5720.765	1	5814.724	-79.68598	-1.341911E-008	0.0006092	7
	39	134	37.20238	1142.437	-7005.985	1	7098.52	-80.73853	-1.480934E-008	0.000615	7
	40	136	30.04808	1271.534	-8596.278	1	8689.811	-81.58601	-2.041692E-008	0.0006208	7
	41	138	23.91582	1447.655	-10692.23	1	10789.79	-82.28943	-2.011991E-008	0.0006153	7
	42	141	18.60119	1702.012	-13591.51	1	13697.67	-82.86223	-2.052618E-008	0.0006392	7
	43	143	15.02404	1975.723	-16659.42	1	16776.17	-83.2366	-1.571088E-008	0.0006039	7
	44	145	12.01923	2349.744	-20608.16	1	20741.69	-83.49522	-1.964463E-008	0.0006331	7
	45	148	9.450605	2866.919	-25909.75	1	26067.88	-83.6859	-1.638346E-008	0.0005868	7
	46	150	7.512019	3512.901	-32230.16	1	32421.04	-83.77965	-1.823665E-008	0.0006218	7
	47	153	5.978954	4377.336	-40012.3	1	40251.02	-83.75668	-1.854715E-008	0.0006206	7
	48	156	4.734848	5518.058	-49923.24	1	50227.27	-83.69265	-2.285904E-009	0.0006229	6
	49	159	3.75601	7054.975	-62129.97	1	62529.24	-83.52171	-1.370499E-009	0.000691	6
	50	163	3.004808	9000.393	-76606.42	1	77133.34	-83.29911	-2.31226E-009	0.0006728	6
	51	167	2.372217	11851.31	-95450.1	1	96183.1	-82.92224	-2.451924E-009	0.0006643	6
	52	171	1.878005	15701.76	-118963.9	1	119995.6	-82.48113	-1.706857E-009	0.0006478	6
	53	175	1.512097	20225.63	-145392	1	146792.1	-82.08035	-2.374887E-009	0.0007643	6
	54	181	1.201923	26971.18	-179747.4	1	181759.6	-81.46641	-1.840786E-009	0.0006532	6
	55	187	0.956633	35637.86	-221253.9	1	224105.6	-80.84983	-2.969635E-009	2.197402E-005	6
