EXPLAIN
TAG	EISPOT
TITLE	LABEL	Potentiostatic EIS	Test Identifier
DATE	LABEL	8/29/2020	Date
TIME	LABEL	16:44:51	Time
NOTES	NOTES	1	Notes...
	
PSTAT	PSTAT	REF3000-16137	Potentiostat
VDC	POTEN	0.00000E+000	T	DC Voltage (V)
FREQINIT	QUANT	3.00000E+005	Initial Freq. (Hz)
FREQFINAL	QUANT	1.00000E+000	Final Freq. (Hz)
PTSPERDEC	QUANT	1.00000E+001	Points/decade
VAC	QUANT	5.00000E+001	AC Voltage (mV rms)
AREA	QUANT	1.00000E+000	Sample Area (cm^2)
SPEED	SELECTOR	2	Optimize for:
ZGUESS	QUANT	1.00000E+003	Estimated Z (ohms)
EOC	QUANT	0	Open Circuit (V)
SEQUENCER	TOGGLE	TRUE	Run as Sequence
PSTATMODEL	IQUANT	5	Pstat Model
PSTATSECTION	LABEL	REF3000-16137	Pstat Section
PSTATSERIALNO	LABEL	16137	Pstat Serial Number
CTRLMODE	IQUANT	1	Control Mode
IESTAB	IQUANT	0	I/E Stability
CASPEED	IQUANT	1	Control Amp Speed
CONVENTION	IQUANT	1	Current Convention
ICHRANGE	IQUANT	2	Ich Range
ICHRANGEMODE	TOGGLE	F	Ich Auto Range
ICHOFFSETENABLE	TOGGLE	T	Ich Offset Enable
ICHOFFSET	QUANT	0	Ich Offset (V)
ICHFILTER	IQUANT	3	Ich Filter
VCHRANGE	IQUANT	2	Vch Range
VCHRANGEMODE	TOGGLE	F	Vch Auto Range
VCHOFFSETENABLE	TOGGLE	T	Vch Offset Enable
VCHOFFSET	QUANT	0	Vch Offset (V)
VCHFILTER	IQUANT	3	Vch Filter
ACHRANGE	IQUANT	2	Ach Range
ACHOFFSETENABLE	TOGGLE	F	Ach Offset Enable
ACHOFFSET	QUANT	0	Ach Offset (V)
ACHFILTER	IQUANT	3	Ach Filter
IERANGELOWERLIMIT	IQUANT	2	I/E Range Lower Limit
IERANGEMODE	TOGGLE	F	I/E AutoRange
IERANGE	IQUANT	11	I/E Range
POSFEEDENABLE	TOGGLE	F	Positive Feedback IR Comp
POSFEEDRESISTANCE	QUANT	0	Positive Feedback Resistance (ohm)
ACHSELECT	IQUANT	0	Ach Select
CABLEID	IQUANT	13	Cable ID
DCCALDATE	LABEL	7/31/2020	DC Calibration Date
ACCALDATE	LABEL	7/31/2020	AC Calibration Date
THERMOSELECT	IQUANT	1	Thermo Select
FRAMEWORKVERSION	QUANT	6.33	Framework Version
INSTRUMENTVERSION	LABEL	3.50	Instrument Version
COMPLIANCEVOLTAGE	IQUANT	0	Compliance Voltage
ZCURVE	TABLE
	Pt	Time	Freq	Zreal	Zimag	Zsig	Zmod	Zphz	Idc	Vdc	IERange
	#	s	Hz	ohm	ohm	V	ohm	°	A	V	#
	0	14	300046.9	253.8731	-4728.441	1	4735.252	-86.9267	1.28786E-007	0.0015051	9
	1	28	238359.4	485.9093	-5960.289	1	5980.063	-85.3393	3.541802E-006	-0.0020032	9
	2	45	189328.1	696.3098	-7175.369	1	7209.076	-84.45728	2.000578E-005	-0.0008872	9
	3	52	150421.9	1256.578	-9085.066	1	9171.555	-82.12524	-1.431075E-005	0.0019074	9
	4	61	119484.4	2062.815	-11052.15	1	11243.01	-79.42775	-7.917655E-005	0.0362835	8
	5	69	94921.88	2910.847	-13716.27	1	14021.74	-78.01853	8.5553E-006	0.0042181	8
	6	77	75421.88	4199.665	-17380.06	1	17880.26	-76.41562	-9.566941E-006	-0.002043	8
	7	86	59859.37	5652.837	-21628.68	1	22355.19	-75.35291	-2.064923E-005	0.0028201	8
	8	94	47578.12	8583.695	-25701.42	1	27096.92	-71.53185	-2.060641E-005	0.002876	8
	9	104	37828.12	12155.63	-31058.89	1	33352.87	-68.62595	2.271983E-005	-0.009735	8
	10	113	30046.88	17018.4	-36990.52	1	40717.62	-65.29404	2.273077E-005	-0.0097136	8
	11	121	23859.38	25627.49	-42935.71	1	50002.44	-59.16784	-2.406187E-005	0.0053131	8
	12	128	18984.38	32878.38	-50738.28	1	60459.58	-57.05679	-2.485452E-005	0.0110966	8
	13	135	15046.87	42165.68	-52972.71	1	67705.63	-51.48061	1.662826E-005	-0.0093316	8
	14	142	11953.13	58556.59	-52568.45	1	78691.27	-41.91551	-1.02027E-006	-0.0132393	7
	15	147	9515.62	69500.73	-53099.09	1	87463.5	-37.3801	-5.377442E-006	0.0030632	7
	16	153	7546.875	80710.48	-51325.08	1	95647.5	-32.45293	-5.312674E-006	0.0034583	7
	17	159	5928.309	94090.24	-49397.21	1	106268.8	-27.6994	-5.302346E-006	0.0035223	7
	18	164	4733.456	103977.8	-45952.99	1	113679.6	-23.84304	6.658865E-006	-0.0100905	7
	19	170	3796.875	110711.9	-41843.2	1	118355.3	-20.70393	7.023243E-006	-0.0271571	7
	20	176	2987.132	120009.3	-34332.87	1	124823.8	-15.96504	-3.346021E-006	-0.0053771	7
	21	183	2390.625	127367.5	-20942.62	1	129077.8	-9.337406	-4.090417E-007	0.0256934	6
	22	188	1884.191	130042.4	-18203.2	1	131310.2	-7.968432	-4.504829E-008	-0.0151113	6
	23	193	1516.544	133738.1	-15650.06	1	134650.7	-6.674407	-7.516129E-007	0.0232513	6
	24	197	1193.986	136660.5	-13632.66	1	137338.8	-5.696731	-6.88622E-007	0.0264038	6
	25	201	946.5144	137926.3	-11748.47	1	138425.8	-4.868663	3.998217E-007	-0.0254484	6
	26	204	751.7689	141375	-10569.62	1	141769.5	-4.275653	1.878011E-007	-0.0211835	6
	27	207	597.4265	139523.6	-9983.23	1	139880.3	-4.092667	6.128343E-007	-0.0068086	6
	28	209	477.4305	143490	-9130.017	1	143780.2	-3.640722	-7.312542E-009	0.0006512	6
	29	212	376.6741	145159	-9052.946	1	145441	-3.56867	-8.112882E-009	0.0006472	6
	30	214	298.2954	146891.4	-9248.081	1	147182.2	-3.602509	-7.43891E-009	0.0006221	6
	31	216	237.7717	148673	-9967.64	1	149006.7	-3.8356	-7.979968E-009	0.0007196	6
	32	219	189.0121	150728	-10855.61	1	151118.4	-4.1194	-8.694138E-009	0.000709	6
	33	221	150.2404	152853	-12082.55	1	153329.8	-4.519655	-8.033527E-009	0.0007177	6
	34	224	119.1737	154804.5	-14667.9	1	155497.8	-5.412678	-7.874036E-009	0.0006153	6
	35	226	95.0169	158172	-15876.92	1	158966.8	-5.732011	-7.137024E-009	0.0006477	6
	36	229	75.60484	161189.1	-18197.14	1	162213	-6.441028	-8.350733E-009	0.0007187	6
	37	232	54.50582	165359.7	-22017.22	1	166819.1	-7.584175	-7.693166E-009	0.0006417	6
	38	234	45.95588	168415.9	-24926.24	1	170250.5	-8.418891	-6.935886E-009	0.0006212	6
	39	236	37.20238	172310.2	-28427.4	1	174639.4	-9.368163	-9.086428E-009	0.0006738	6
	40	239	30.04808	176536.6	-32506.91	1	179504.5	-10.4334	-7.659105E-009	0.0007039	6
	41	242	23.91582	181257.3	-37347.39	1	185065	-11.64264	-8.604831E-009	0.0007036	6
	42	244	18.60119	186627.6	-44008.01	1	191746.1	-13.26834	-1.051541E-008	0.0006428	6
	43	246	15.02404	192504.6	-50126	1	198923.7	-14.59507	-9.740015E-009	0.0006366	6
	44	249	12.01923	198448.4	-57786	1	206690.5	-16.23498	-8.393152E-009	0.0006158	6
	45	251	9.450605	205045.7	-66778.16	1	215645.7	-18.03911	-1.181321E-008	0.0007609	6
	46	254	7.512019	212184.5	-78357.2	1	226190.4	-20.26859	-7.759637E-009	0.0006873	6
	47	257	5.978954	220215.9	-91813.84	1	238589.3	-22.63254	-7.68892E-009	0.0006162	6
	48	261	4.734848	228839.7	-108391.6	1	253212.1	-25.34491	-7.486518E-009	0.0007257	6
	49	265	3.75601	238731	-129046.7	1	271377.1	-28.39356	-7.62897E-009	0.000648	6
	50	270	3.004808	249827.5	-153550.1	1	293242.9	-31.57591	-7.853197E-009	0.0007336	6
	51	277	2.372217	261391.9	-185522.9	1	320537.8	-35.36523	-7.806771E-009	0.0006657	6
	52	281	1.878005	272899.8	-224937.4	1	353654	-39.49702	-7.803615E-009	0.0006485	6
	53	286	1.512097	284425.4	-270325.7	1	392395	-43.54407	-7.969588E-009	0.0007089	6
	54	291	1.201923	299303	-330861.2	1	446151.8	-47.86694	-7.48863E-010	0.0006644	5
	55	297	0.956633	314481.6	-405260.1	1	512966.3	-52.18856	-9.976043E-010	1.405228E-005	5
