EXPLAIN
TAG	EISPOT
TITLE	LABEL	Potentiostatic EIS	Test Identifier
DATE	LABEL	8/29/2020	Date
TIME	LABEL	17:19:43	Time
NOTES	NOTES	1	Notes...
	
PSTAT	PSTAT	REF3000-16137	Potentiostat
VDC	POTEN	0.00000E+000	T	DC Voltage (V)
FREQINIT	QUANT	3.00000E+005	Initial Freq. (Hz)
FREQFINAL	QUANT	1.00000E+000	Final Freq. (Hz)
PTSPERDEC	QUANT	1.00000E+001	Points/decade
VAC	QUANT	5.00000E+001	AC Voltage (mV rms)
AREA	QUANT	1.00000E+000	Sample Area (cm^2)
SPEED	SELECTOR	2	Optimize for:
ZGUESS	QUANT	1.00000E+003	Estimated Z (ohms)
EOC	QUANT	0	Open Circuit (V)
SEQUENCER	TOGGLE	TRUE	Run as Sequence
PSTATMODEL	IQUANT	5	Pstat Model
PSTATSECTION	LABEL	REF3000-16137	Pstat Section
PSTATSERIALNO	LABEL	16137	Pstat Serial Number
CTRLMODE	IQUANT	1	Control Mode
IESTAB	IQUANT	0	I/E Stability
CASPEED	IQUANT	1	Control Amp Speed
CONVENTION	IQUANT	1	Current Convention
ICHRANGE	IQUANT	2	Ich Range
ICHRANGEMODE	TOGGLE	F	Ich Auto Range
ICHOFFSETENABLE	TOGGLE	T	Ich Offset Enable
ICHOFFSET	QUANT	0	Ich Offset (V)
ICHFILTER	IQUANT	3	Ich Filter
VCHRANGE	IQUANT	2	Vch Range
VCHRANGEMODE	TOGGLE	F	Vch Auto Range
VCHOFFSETENABLE	TOGGLE	T	Vch Offset Enable
VCHOFFSET	QUANT	0	Vch Offset (V)
VCHFILTER	IQUANT	3	Vch Filter
ACHRANGE	IQUANT	2	Ach Range
ACHOFFSETENABLE	TOGGLE	F	Ach Offset Enable
ACHOFFSET	QUANT	0	Ach Offset (V)
ACHFILTER	IQUANT	3	Ach Filter
IERANGELOWERLIMIT	IQUANT	2	I/E Range Lower Limit
IERANGEMODE	TOGGLE	F	I/E AutoRange
IERANGE	IQUANT	11	I/E Range
POSFEEDENABLE	TOGGLE	F	Positive Feedback IR Comp
POSFEEDRESISTANCE	QUANT	0	Positive Feedback Resistance (ohm)
ACHSELECT	IQUANT	0	Ach Select
CABLEID	IQUANT	13	Cable ID
DCCALDATE	LABEL	7/31/2020	DC Calibration Date
ACCALDATE	LABEL	7/31/2020	AC Calibration Date
THERMOSELECT	IQUANT	1	Thermo Select
FRAMEWORKVERSION	QUANT	6.33	Framework Version
INSTRUMENTVERSION	LABEL	3.50	Instrument Version
COMPLIANCEVOLTAGE	IQUANT	0	Compliance Voltage
ZCURVE	TABLE
	Pt	Time	Freq	Zreal	Zimag	Zsig	Zmod	Zphz	Idc	Vdc	IERange
	#	s	Hz	ohm	ohm	V	ohm	°	A	V	#
	0	15	300046.9	-89.25254	-4822.317	1	4823.143	-91.06033	-0.0001088	0.003731	9
	1	29	238359.4	-34.88186	-5895.188	1	5895.291	-90.33901	9.019526E-005	-0.0026311	9
	2	46	189328.1	177.4498	-7385.212	1	7387.343	-88.62358	2.292071E-005	0.0010898	9
	3	53	150421.9	75.02202	-9546.11	1	9546.41	-89.54973	8.800547E-005	-0.0024261	9
	4	61	119484.4	-5.597869	-11682.47	1	11682.47	-90.02745	5.01119E-005	0.0002509	9
	5	69	94921.88	499.6456	-14432.25	1	14440.9	-88.0172	2.641042E-005	-0.0052076	8
	6	78	75421.88	600.1703	-18142.79	1	18152.71	-88.10532	-1.954406E-005	0.0112997	8
	7	86	59859.37	-277.2311	-23230.12	1	23231.78	-90.68374	8.385544E-006	0.0041785	8
	8	95	47578.12	3947.536	-29869.62	1	30129.35	-82.47148	6.994335E-006	-0.0273989	7
	9	101	37828.12	4406.953	-37024.26	1	37285.61	-83.21209	-7.329749E-006	0.0237442	7
	10	109	30046.88	4435.929	-45924.55	1	46138.29	-84.48282	-1.811463E-006	0.0222805	7
	11	116	23859.38	4522.542	-57454.98	1	57632.7	-85.49927	-3.778281E-006	0.0255557	7
	12	122	18984.38	5187.343	-72088.44	1	72274.84	-85.8842	-6.771168E-006	0.0117477	7
	13	127	15046.87	-1801.991	-93498.13	1	93515.49	-91.10413	-2.06016E-006	0.0077439	8
	14	135	11953.13	-3201.223	-112179.9	1	112225.6	-91.63457	-1.192848E-005	0.0103096	8
	15	142	9515.62	3874.637	-141881.9	1	141934.8	-88.43571	4.976992E-006	-0.000644	7
	16	149	7546.875	5457.934	-173647.8	1	173733.5	-88.19972	-3.713951E-006	0.0251321	7
	17	155	5928.309	6255.537	-233975.5	1	234059.1	-88.46851	6.694662E-006	-0.0102659	7
	18	160	4733.456	1106.614	-282675.1	1	282677.3	-89.7757	-5.367306E-006	0.0036507	7
	19	168	3796.875	67617.39	-354375.2	1	360768.5	-79.1974	-2.558476E-005	0.001128	9
	20	177	2987.132	-253026.4	-253361	1	358070	-134.9621	-1.9837E-005	0.0113936	8
	21	187	2390.625	71090.4	-555472.6	1	560003.3	-82.70683	6.95333E-006	-0.0272236	7
	22	194	1884.191	198704.4	-798571.1	1	822921.2	-76.02714	1.356662E-006	-0.0201724	7
	23	202	1516.544	53869.18	-902086.4	1	903693.4	-86.58257	-5.024236E-010	0.01748	6
	24	208	1193.986	43848.87	-1130703	1	1131552	-87.77917	-6.520999E-007	0.0100724	6
	25	214	946.5144	-37237.47	-1263681	1	1264230	-91.68787	-2.821572E-007	-0.0075016	6
	26	219	751.7689	-1205190	807272.1	1	1450576	146.1846	-5.418523E-006	0.0037135	7
	27	225	597.4265	-1763997	-484788.5	1	1829400	-164.6331	7.778403E-006	-0.0248158	7
	28	231	477.4305	43154.03	-2784465	1	2784799	-89.11209	-7.046847E-008	0.0005817	7
	29	238	376.6741	475911.4	-3648995	1	3679899	-82.56928	-8.902613E-010	0.0007041	5
	30	242	298.2954	510028.4	-4543860	1	4572395	-83.5956	-8.033411E-010	0.0006866	5
	31	244	237.7717	421660.2	-5677608	1	5693244	-85.7526	-7.66731E-010	0.0006117	5
	32	247	189.0121	560528.9	-7065108	1	7087309	-85.46379	-7.587231E-010	0.00061	5
	33	250	150.2404	256139.8	-9101694	1	9105297	-88.38801	-7.755185E-010	0.0006079	5
	34	253	119.1737	-866134	-8522437	1	8566336	-95.803	-8.185974E-010	0.0006346	5
	35	256	95.0169	867639.5	-1.39639E+007	1	1.399083E+007	-86.44453	-9.017973E-010	0.0006824	5
	36	258	75.60484	-17622.98	-1.748418E+007	1	1.748419E+007	-90.05775	-7.705869E-010	0.0006326	5
	37	261	54.50582	615266.1	-2.397475E+007	1	2.398265E+007	-88.52994	-8.275679E-010	0.0006787	5
	38	264	45.95588	699628.9	-2.686348E+007	1	2.687259E+007	-88.50813	-8.453498E-010	0.0006985	5
	39	268	37.20238	2874186	-3.385528E+007	1	3.397706E+007	-85.14744	-7.557821E-010	0.0006122	5
	40	272	30.04808	1315377	-4.333434E+007	1	4.33543E+007	-88.26137	-8.387406E-010	0.0006812	5
	41	276	23.91582	7562276	-5.504175E+007	1	5.555882E+007	-82.17702	-9.441711E-011	0.0006132	4
	42	280	18.60119	-1.170684E+007	-6.28916E+007	1	6.39719E+007	-100.5445	-2.415415E-010	0.0006446	4
	43	283	15.02404	7220910	-8.673103E+007	1	8.70311E+007	-85.24074	-1.023078E-010	0.0006173	4
	44	287	12.01923	6836503	-1.072405E+008	1	1.074582E+008	-86.35237	-1.023383E-010	0.0006263	4
	45	291	9.450605	7287262	-1.37307E+008	1	1.375003E+008	-86.96201	-1.123984E-010	0.000631	4
	46	295	7.512019	1.780867E+007	-1.713739E+008	1	1.722968E+008	-84.06728	-1.005009E-010	0.0006953	4
	47	299	5.978954	671673.8	-2.028425E+008	1	2.028436E+008	-89.81028	-9.813095E-011	0.0006996	4
	48	305	4.734848	4.957076E+007	-2.850052E+008	1	2.89284E+008	-80.13329	-4.124948E-011	0.000751	3
	49	309	3.75601	6707543	-3.458887E+008	1	3.459537E+008	-88.88905	-8.92489E-010	0.0006585	5
	50	318	3.004808	7090587	-4.162117E+008	1	4.162721E+008	-89.024	-8.347441E-010	0.0007056	5
	51	327	2.372217	7.288514E+007	-5.426868E+008	1	5.475594E+008	-82.35071	-4.082991E-011	0.0007515	3
	52	333	1.878005	8.738902E+007	-6.814339E+008	1	6.870146E+008	-82.69212	-4.087072E-011	0.0007192	3
	53	342	1.512097	1.057459E+008	-8.410184E+008	1	8.476403E+008	-82.83349	-4.061781E-011	0.0006869	3
	54	348	1.201923	1.386894E+008	-1.056166E+009	1	1.065233E+009	-82.51907	-4.088612E-011	0.0007153	3
	55	360	0.956633	1.927447E+008	-1.319694E+009	1	1.333695E+009	-81.69055	-4.094384E-011	0.0001374	3
