EXPLAIN
TAG	EISPOT
TITLE	LABEL	Potentiostatic EIS	Test Identifier
DATE	LABEL	8/29/2020	Date
TIME	LABEL	16:30:49	Time
NOTES	NOTES	1	Notes...
	
PSTAT	PSTAT	REF3000-16137	Potentiostat
VDC	POTEN	0.00000E+000	T	DC Voltage (V)
FREQINIT	QUANT	3.00000E+005	Initial Freq. (Hz)
FREQFINAL	QUANT	1.00000E+000	Final Freq. (Hz)
PTSPERDEC	QUANT	1.00000E+001	Points/decade
VAC	QUANT	5.00000E+001	AC Voltage (mV rms)
AREA	QUANT	1.00000E+000	Sample Area (cm^2)
SPEED	SELECTOR	2	Optimize for:
ZGUESS	QUANT	1.00000E+003	Estimated Z (ohms)
EOC	QUANT	0	Open Circuit (V)
SEQUENCER	TOGGLE	TRUE	Run as Sequence
PSTATMODEL	IQUANT	5	Pstat Model
PSTATSECTION	LABEL	REF3000-16137	Pstat Section
PSTATSERIALNO	LABEL	16137	Pstat Serial Number
CTRLMODE	IQUANT	1	Control Mode
IESTAB	IQUANT	0	I/E Stability
CASPEED	IQUANT	1	Control Amp Speed
CONVENTION	IQUANT	1	Current Convention
ICHRANGE	IQUANT	2	Ich Range
ICHRANGEMODE	TOGGLE	F	Ich Auto Range
ICHOFFSETENABLE	TOGGLE	T	Ich Offset Enable
ICHOFFSET	QUANT	0	Ich Offset (V)
ICHFILTER	IQUANT	3	Ich Filter
VCHRANGE	IQUANT	2	Vch Range
VCHRANGEMODE	TOGGLE	F	Vch Auto Range
VCHOFFSETENABLE	TOGGLE	T	Vch Offset Enable
VCHOFFSET	QUANT	0	Vch Offset (V)
VCHFILTER	IQUANT	3	Vch Filter
ACHRANGE	IQUANT	2	Ach Range
ACHOFFSETENABLE	TOGGLE	F	Ach Offset Enable
ACHOFFSET	QUANT	0	Ach Offset (V)
ACHFILTER	IQUANT	3	Ach Filter
IERANGELOWERLIMIT	IQUANT	2	I/E Range Lower Limit
IERANGEMODE	TOGGLE	F	I/E AutoRange
IERANGE	IQUANT	11	I/E Range
POSFEEDENABLE	TOGGLE	F	Positive Feedback IR Comp
POSFEEDRESISTANCE	QUANT	0	Positive Feedback Resistance (ohm)
ACHSELECT	IQUANT	0	Ach Select
CABLEID	IQUANT	13	Cable ID
DCCALDATE	LABEL	7/31/2020	DC Calibration Date
ACCALDATE	LABEL	7/31/2020	AC Calibration Date
THERMOSELECT	IQUANT	1	Thermo Select
FRAMEWORKVERSION	QUANT	6.33	Framework Version
INSTRUMENTVERSION	LABEL	3.50	Instrument Version
COMPLIANCEVOLTAGE	IQUANT	0	Compliance Voltage
ZCURVE	TABLE
	Pt	Time	Freq	Zreal	Zimag	Zsig	Zmod	Zphz	Idc	Vdc	IERange
	#	s	Hz	ohm	ohm	V	ohm	°	A	V	#
	0	14	300046.9	2274.255	-3188.679	1	3916.619	-54.50248	4.97623E-005	-4.194605E-005	9
	1	28	238359.4	2953.324	-3549.878	1	4617.765	-50.2412	2.58433E-005	-0.0020363	9
	2	43	189328.1	3657.748	-3503.329	1	5064.823	-43.76469	-6.312427E-005	0.000564	9
	3	51	150421.9	4465.833	-3409.745	1	5618.721	-37.3624	2.173924E-006	0.001619	9
	4	58	119484.4	5263.49	-3129.36	1	6123.498	-30.73321	1.821229E-005	-0.0086726	8
	5	66	94921.88	5959.719	-2876.658	1	6617.659	-25.76584	-2.325992E-005	0.0052477	8
	6	73	75421.88	6488.797	-2563.705	1	6976.896	-21.55883	-1.690037E-006	0.0073271	8
	7	81	59859.37	6899.67	-2224.594	1	7249.432	-17.87037	-1.940657E-006	0.0074614	8
	8	88	47578.12	7860.98	-1199.084	1	7951.906	-8.672827	2.121369E-006	0.0095976	7
	9	94	37828.12	7952.694	-992.93	1	8014.44	-7.116813	-6.728721E-006	0.0159084	7
	10	98	30046.88	8010.689	-818.4722	1	8052.393	-5.83381	7.203766E-006	-0.0215341	7
	11	101	23859.38	8094.82	-667.7247	1	8122.313	-4.715532	-2.160187E-006	0.0215648	7
	12	105	18984.38	8198.313	-588.1614	1	8219.383	-4.10347	-6.022648E-006	0.0097034	7
	13	109	15046.87	8268.349	-512.6821	1	8284.228	-3.548104	-6.739223E-006	0.0162589	7
	14	113	11953.13	8351.705	-469.9388	1	8364.916	-3.220557	2.033649E-006	0.0099572	7
	15	117	9515.62	8433.264	-438.7318	1	8444.668	-2.978069	-6.817084E-006	0.0210887	7
	16	120	7546.875	8522.357	-425.2824	1	8532.962	-2.856803	2.069452E-006	0.0096372	7
	17	125	5928.309	8636.496	-436.0604	1	8647.497	-2.890434	-5.998983E-006	0.0096205	7
	18	129	4733.456	8713.521	-476.6162	1	8726.547	-3.130871	5.368272E-006	-0.0250666	7
	19	133	3796.875	8853.854	-499.0315	1	8867.906	-3.22596	-6.777723E-006	0.0163285	7
	20	137	2987.132	8952.158	-559.0777	1	8969.599	-3.573579	-4.583871E-007	-0.0139079	7
	21	141	2390.625	9072.791	-635.087	1	9094.991	-4.00412	-4.607257E-006	0.0016868	7
	22	145	1884.191	9214.799	-715.211	1	9242.513	-4.438141	-7.062248E-008	0.0167231	7
	23	149	1516.544	9349.445	-861.7788	1	9389.078	-5.266319	-6.043456E-006	0.0097489	7
	24	153	1193.986	9616.14	-988.71	1	9666.84	-5.870397	4.253833E-006	0.0011769	7
	25	158	946.5144	9673.13	-1282.122	1	9757.73	-7.550246	5.321699E-006	-0.0250219	7
	26	161	751.7689	9969.12	-1261.04	1	10048.56	-7.209318	-4.62483E-006	0.0017546	7
	27	163	597.4265	10140.59	-1535.737	1	10256.22	-8.611694	-2.674828E-006	-0.0064792	7
	28	166	477.4305	10332.9	-1822.498	1	10492.4	-10.00284	-7.001505E-008	0.000662	7
	29	168	376.6741	10577.79	-2119.319	1	10788.01	-11.32952	-7.102546E-008	0.0006664	7
	30	170	298.2954	10847.6	-2455.642	1	11122.08	-12.75543	-6.882483E-008	0.000601	7
	31	173	237.7717	11141.15	-2833.505	1	11495.83	-14.26938	-6.852517E-008	0.0006671	7
	32	175	189.0121	11463.58	-3274.612	1	11922.11	-15.94218	-7.620695E-008	0.0006927	7
	33	178	150.2404	11806.22	-3791.473	1	12400.08	-17.80401	-7.208018E-008	0.0006611	7
	34	180	119.1737	12173.83	-4398.883	1	12944.2	-19.86679	-7.17556E-008	0.0006385	7
	35	182	95.0169	12549.93	-5117.341	1	13553.15	-22.1836	-6.620978E-008	0.0005824	7
	36	185	75.60484	12941.42	-5988.141	1	14259.67	-24.83051	-7.106635E-008	0.0006623	7
	37	188	54.50582	13461.4	-7581.934	1	15449.76	-29.38974	-7.063839E-008	0.0006422	7
	38	190	45.95588	13766.5	-8633.972	1	16249.98	-32.09481	-6.232773E-008	0.0006066	7
	39	192	37.20238	14115.04	-10212.22	1	17421.94	-35.8857	-6.194959E-008	0.0006102	7
	40	195	30.04808	14471.57	-12189.09	1	18920.9	-40.10672	-7.105083E-008	0.0006385	7
	41	197	23.91582	14850.95	-14826.47	1	20985.11	-44.95274	-7.004834E-008	0.0006223	7
	42	200	18.60119	15279.21	-18531.03	1	24017.77	-50.49373	-6.894987E-008	0.0006274	7
	43	202	15.02404	15702.26	-22503.2	1	27440.03	-55.09347	-6.162978E-008	0.0005889	7
	44	204	12.01923	16173.55	-27667.84	1	32048.29	-59.69109	-6.595327E-008	0.0006271	7
	45	207	9.450605	16805.46	-34655.67	1	38515.44	-64.13001	-6.823912E-008	0.0006111	7
	46	209	7.512019	17537.1	-43127.25	1	46556.52	-67.87157	-7.691724E-009	0.0007236	6
	47	212	5.978954	18408.27	-53521.5	1	56598.72	-71.01978	-8.039675E-009	0.0006812	6
	48	215	4.734848	19487.15	-66860.43	1	69642.41	-73.7507	-7.304681E-009	0.0007203	6
	49	218	3.75601	20876.77	-83398.55	1	85971.84	-75.94621	-7.746912E-009	0.000691	6
	50	222	3.004808	22530.16	-103165.1	1	105596.6	-77.68063	-6.556796E-009	0.000633	6
	51	225	2.372217	24921.63	-129120.6	1	131503.6	-79.07565	-7.017871E-009	0.0006828	6
	52	230	1.878005	27754.44	-161853.4	1	164215.8	-80.26962	-7.77378E-009	0.0006567	6
	53	234	1.512097	30816.47	-198671.9	1	201047.7	-81.18298	-7.121957E-009	0.0006016	6
	54	240	1.201923	35538.84	-248029.4	1	250562.6	-81.84589	-7.751791E-009	0.0006466	6
	55	246	0.956633	41258.2	-308310.9	1	311059.2	-82.37795	-7.543042E-009	2.154134E-005	6
