EXPLAIN
TAG	EISPOT
TITLE	LABEL	Potentiostatic EIS	Test Identifier
DATE	LABEL	8/29/2020	Date
TIME	LABEL	17:56:48	Time
NOTES	NOTES	1	Notes...
	
PSTAT	PSTAT	REF3000-16137	Potentiostat
VDC	POTEN	0.00000E+000	T	DC Voltage (V)
FREQINIT	QUANT	3.00000E+005	Initial Freq. (Hz)
FREQFINAL	QUANT	1.00000E+000	Final Freq. (Hz)
PTSPERDEC	QUANT	1.00000E+001	Points/decade
VAC	QUANT	5.00000E+001	AC Voltage (mV rms)
AREA	QUANT	1.00000E+000	Sample Area (cm^2)
SPEED	SELECTOR	2	Optimize for:
ZGUESS	QUANT	1.00000E+003	Estimated Z (ohms)
EOC	QUANT	0	Open Circuit (V)
SEQUENCER	TOGGLE	TRUE	Run as Sequence
PSTATMODEL	IQUANT	5	Pstat Model
PSTATSECTION	LABEL	REF3000-16137	Pstat Section
PSTATSERIALNO	LABEL	16137	Pstat Serial Number
CTRLMODE	IQUANT	1	Control Mode
IESTAB	IQUANT	0	I/E Stability
CASPEED	IQUANT	1	Control Amp Speed
CONVENTION	IQUANT	1	Current Convention
ICHRANGE	IQUANT	2	Ich Range
ICHRANGEMODE	TOGGLE	F	Ich Auto Range
ICHOFFSETENABLE	TOGGLE	T	Ich Offset Enable
ICHOFFSET	QUANT	0	Ich Offset (V)
ICHFILTER	IQUANT	3	Ich Filter
VCHRANGE	IQUANT	2	Vch Range
VCHRANGEMODE	TOGGLE	F	Vch Auto Range
VCHOFFSETENABLE	TOGGLE	T	Vch Offset Enable
VCHOFFSET	QUANT	0	Vch Offset (V)
VCHFILTER	IQUANT	3	Vch Filter
ACHRANGE	IQUANT	2	Ach Range
ACHOFFSETENABLE	TOGGLE	F	Ach Offset Enable
ACHOFFSET	QUANT	0	Ach Offset (V)
ACHFILTER	IQUANT	3	Ach Filter
IERANGELOWERLIMIT	IQUANT	2	I/E Range Lower Limit
IERANGEMODE	TOGGLE	F	I/E AutoRange
IERANGE	IQUANT	11	I/E Range
POSFEEDENABLE	TOGGLE	F	Positive Feedback IR Comp
POSFEEDRESISTANCE	QUANT	0	Positive Feedback Resistance (ohm)
ACHSELECT	IQUANT	0	Ach Select
CABLEID	IQUANT	13	Cable ID
DCCALDATE	LABEL	7/31/2020	DC Calibration Date
ACCALDATE	LABEL	7/31/2020	AC Calibration Date
THERMOSELECT	IQUANT	1	Thermo Select
FRAMEWORKVERSION	QUANT	6.33	Framework Version
INSTRUMENTVERSION	LABEL	3.50	Instrument Version
COMPLIANCEVOLTAGE	IQUANT	0	Compliance Voltage
ZCURVE	TABLE
	Pt	Time	Freq	Zreal	Zimag	Zsig	Zmod	Zphz	Idc	Vdc	IERange
	#	s	Hz	ohm	ohm	V	ohm	°	A	V	#
	0	7	300046.9	73.52483	-1.846894	1	73.54802	-1.438928	2.060044E-005	-0.0008494	9
	1	10	238359.4	72.77201	-2.746506	1	72.82382	-2.161388	4.538823E-005	-0.0008444	9
	2	13	189328.1	72.25357	-3.765139	1	72.35161	-2.982989	4.565356E-005	-0.0006473	9
	3	16	150421.9	71.72401	-5.0325	1	71.90035	-4.013568	-7.529189E-006	0.0008758	9
	4	18	119484.4	71.56584	-6.120703	1	71.8271	-4.888353	-6.552517E-005	0.0018233	9
	5	21	94921.88	71.56217	-7.228889	1	71.92636	-5.768196	4.439994E-006	0.0002612	9
	6	23	75421.88	71.55767	-8.815803	1	72.09867	-7.023367	7.843232E-006	0.0001438	9
	7	26	59859.37	71.81437	-10.54626	1	72.58463	-8.354427	1.604616E-005	-0.000635	9
	8	29	47578.12	72.23119	-12.45372	1	73.29693	-9.78246	1.862134E-005	-0.0001378	9
	9	31	37828.12	72.88135	-14.51558	1	74.31281	-11.26405	-1.743882E-005	0.0004951	9
	10	34	30046.88	73.75793	-16.83688	1	75.65522	-12.85871	2.24945E-005	-0.0004084	9
	11	36	23859.38	74.83862	-19.41694	1	77.31647	-14.54474	-4.511899E-006	0.0005649	9
	12	38	18984.38	76.06878	-22.26957	1	79.26154	-16.31769	-3.580179E-006	0.000621	9
	13	41	15046.87	77.48885	-25.57118	1	81.59907	-18.2628	-4.612358E-006	0.0005684	9
	14	43	11953.13	78.79766	-29.54333	1	84.15391	-20.55235	-7.939432E-006	0.0006623	9
	15	45	9515.62	80.01848	-34.02627	1	86.95254	-23.03666	-1.354085E-005	0.0002427	9
	16	48	7546.875	81.0941	-39.81478	1	90.34085	-26.14966	-1.634149E-005	0.0004343	9
	17	50	5928.309	82.1075	-47.56558	1	94.89008	-30.08408	3.778443E-006	0.000378	9
	18	52	4733.456	82.8393	-56.81254	1	100.4491	-34.44296	1.764982E-005	-0.0001257	9
	19	55	3796.875	83.52213	-68.1926	1	107.8248	-39.23032	1.586754E-005	-0.0005839	9
	20	57	2987.132	84.24878	-84.12304	1	119.0569	-44.95721	1.598777E-005	-0.0005727	9
	21	59	2390.625	85.25746	-102.6584	1	133.4451	-50.29049	3.732503E-007	-0.0002594	9
	22	62	1884.191	86.13589	-128.1329	1	154.3937	-56.08947	-8.991535E-006	5.778621E-005	9
	23	64	1516.544	87.56343	-156.9795	1	179.7496	-60.84715	2.033061E-005	-0.0002595	9
	24	66	1193.986	89.64429	-196.5845	1	216.0592	-65.48659	-1.339975E-005	0.0002153	9
	25	69	946.5144	93.18939	-244.6724	1	261.8184	-69.14946	3.78602E-006	-0.0003437	9
	26	71	751.7689	95.1734	-305.2229	1	319.717	-72.68169	1.78392E-005	-0.0001457	9
	27	74	597.4265	101.6048	-381.0162	1	394.3309	-75.06851	-8.961817E-006	6.016912E-005	9
	28	76	477.4305	106.3088	-469.6179	1	481.5003	-77.24476	3.302814E-007	0.0006632	8
	29	78	376.6741	115.1279	-589.1855	1	600.3282	-78.94361	3.438221E-007	0.0006502	8
	30	80	298.2954	126.7782	-736.4124	1	747.2455	-80.2319	3.473989E-007	0.0006546	8
	31	83	237.7717	141.9003	-914.4273	1	925.3718	-81.17922	3.363338E-007	0.0006595	8
	32	85	189.0121	162.4149	-1138.178	1	1149.707	-81.87887	3.39847E-007	0.0006672	8
	33	88	150.2404	189.9352	-1416.07	1	1428.751	-82.3606	3.380504E-007	0.0006574	8
	34	90	119.1737	227.4875	-1764.66	1	1779.262	-82.65434	3.521604E-007	0.0006599	8
	35	92	95.0169	277.8327	-2187.031	1	2204.607	-82.76012	3.136903E-007	0.000708	8
	36	95	75.60484	346.7696	-2713.934	1	2735.999	-82.71856	3.6552E-007	0.000651	8
	37	98	54.50582	493.3303	-3693.899	1	3726.696	-82.39301	3.606127E-007	0.0006481	8
	38	100	45.95588	602.5738	-4341.073	1	4382.694	-82.0974	1.359936E-008	0.0006303	7
	39	102	37.20238	779.1741	-5283.29	1	5340.437	-81.61055	1.352276E-008	0.0006238	7
	40	105	30.04808	1023.051	-6434.002	1	6514.831	-80.96521	4.374906E-009	0.0006247	7
	41	107	23.91582	1388.326	-7945.202	1	8065.586	-80.08834	-1.67249E-009	0.0006256	7
	42	110	18.60119	1950.194	-9956.26	1	10145.46	-78.91744	1.460005E-008	0.0006283	7
	43	112	15.02404	2625.59	-12032.23	1	12315.37	-77.69027	6.331593E-009	0.000638	7
	44	114	12.01923	3606.929	-14599.92	1	15038.87	-76.12287	2.723393E-009	0.0006292	7
	45	117	9.450605	5095.269	-17879	1	18590.87	-74.09318	5.782412E-009	0.0006402	7
	46	119	7.512019	7048.211	-21490.52	1	22616.8	-71.84215	7.571224E-009	0.0006521	7
	47	122	5.978954	9775.54	-25514.39	1	27322.98	-69.03624	3.752057E-009	0.0006291	7
	48	125	4.734848	13496.6	-29942.01	1	32843.29	-65.73615	5.219202E-009	0.0006652	7
	49	128	3.75601	18282.24	-34498.67	1	39043.54	-62.07908	-3.828663E-009	0.0006226	7
	50	132	3.004808	23987.36	-38732.54	1	45558.79	-58.22976	-5.008811E-008	0.000704	6
	51	135	2.372217	31371.68	-42452.08	1	52785.99	-53.53595	-4.975846E-008	0.0008073	6
	52	140	1.878005	39608.78	-44434.47	1	59525.44	-48.28626	-5.55991E-008	0.0006527	6
	53	149	1.512097	47336.21	-45430	1	65609.46	-43.82282	-5.438502E-008	0.0008078	6
	54	159	1.201923	55583.68	-45247.83	1	71672.25	-39.14727	-5.356241E-008	0.0006452	6
	55	172	0.956633	63674.71	-44572.48	1	77725	-34.99213	-6.265486E-008	3.914499E-005	6
