EXPLAIN
TAG	EISPOT
TITLE	LABEL	Potentiostatic EIS	Test Identifier
DATE	LABEL	8/29/2020	Date
TIME	LABEL	15:50:33	Time
NOTES	NOTES	1	Notes...
	
PSTAT	PSTAT	REF3000-16137	Potentiostat
VDC	POTEN	0.00000E+000	T	DC Voltage (V)
FREQINIT	QUANT	3.00000E+005	Initial Freq. (Hz)
FREQFINAL	QUANT	1.00000E+000	Final Freq. (Hz)
PTSPERDEC	QUANT	1.00000E+001	Points/decade
VAC	QUANT	5.00000E+001	AC Voltage (mV rms)
AREA	QUANT	1.00000E+000	Sample Area (cm^2)
SPEED	SELECTOR	2	Optimize for:
ZGUESS	QUANT	1.00000E+003	Estimated Z (ohms)
EOC	QUANT	0	Open Circuit (V)
SEQUENCER	TOGGLE	TRUE	Run as Sequence
PSTATMODEL	IQUANT	5	Pstat Model
PSTATSECTION	LABEL	REF3000-16137	Pstat Section
PSTATSERIALNO	LABEL	16137	Pstat Serial Number
CTRLMODE	IQUANT	1	Control Mode
IESTAB	IQUANT	0	I/E Stability
CASPEED	IQUANT	1	Control Amp Speed
CONVENTION	IQUANT	1	Current Convention
ICHRANGE	IQUANT	2	Ich Range
ICHRANGEMODE	TOGGLE	F	Ich Auto Range
ICHOFFSETENABLE	TOGGLE	T	Ich Offset Enable
ICHOFFSET	QUANT	0	Ich Offset (V)
ICHFILTER	IQUANT	3	Ich Filter
VCHRANGE	IQUANT	2	Vch Range
VCHRANGEMODE	TOGGLE	F	Vch Auto Range
VCHOFFSETENABLE	TOGGLE	T	Vch Offset Enable
VCHOFFSET	QUANT	0	Vch Offset (V)
VCHFILTER	IQUANT	3	Vch Filter
ACHRANGE	IQUANT	2	Ach Range
ACHOFFSETENABLE	TOGGLE	F	Ach Offset Enable
ACHOFFSET	QUANT	0	Ach Offset (V)
ACHFILTER	IQUANT	3	Ach Filter
IERANGELOWERLIMIT	IQUANT	2	I/E Range Lower Limit
IERANGEMODE	TOGGLE	F	I/E AutoRange
IERANGE	IQUANT	11	I/E Range
POSFEEDENABLE	TOGGLE	F	Positive Feedback IR Comp
POSFEEDRESISTANCE	QUANT	0	Positive Feedback Resistance (ohm)
ACHSELECT	IQUANT	0	Ach Select
CABLEID	IQUANT	13	Cable ID
DCCALDATE	LABEL	7/31/2020	DC Calibration Date
ACCALDATE	LABEL	7/31/2020	AC Calibration Date
THERMOSELECT	IQUANT	1	Thermo Select
FRAMEWORKVERSION	QUANT	6.33	Framework Version
INSTRUMENTVERSION	LABEL	3.50	Instrument Version
COMPLIANCEVOLTAGE	IQUANT	0	Compliance Voltage
ZCURVE	TABLE
	Pt	Time	Freq	Zreal	Zimag	Zsig	Zmod	Zphz	Idc	Vdc	IERange
	#	s	Hz	ohm	ohm	V	ohm	°	A	V	#
	0	7	300046.9	205.4291	-8.272134	1	205.5956	-2.305917	5.034057E-005	-0.0004095	9
	1	10	238359.4	206.721	-8.55438	1	206.8979	-2.369621	4.827299E-005	-0.0003933	9
	2	13	189328.1	207.3693	-8.989192	1	207.564	-2.482145	-3.111352E-005	-0.0007039	9
	3	16	150421.9	208.136	-9.91111	1	208.3719	-2.726276	-9.08785E-005	0.0031992	9
	4	19	119484.4	209.3275	-11.01151	1	209.6169	-3.011225	1.317677E-005	-0.0016178	9
	5	22	94921.88	210.7139	-12.17926	1	211.0655	-3.308014	1.802506E-005	-6.216521E-005	9
	6	24	75421.88	211.9697	-14.30566	1	212.4519	-3.860989	-1.515354E-005	0.0001346	9
	7	27	59859.37	213.4882	-16.70784	1	214.141	-4.474916	2.611409E-005	-0.0007899	9
	8	29	47578.12	215.3324	-19.68095	1	216.2299	-5.22221	2.565538E-005	-0.0007429	9
	9	32	37828.12	217.1458	-22.94211	1	218.3544	-6.031097	1.979784E-005	-0.0007151	9
	10	34	30046.88	220.2195	-27.31037	1	221.9064	-7.069404	-1.192793E-006	-0.0003853	9
	11	37	23859.38	223.5161	-32.11074	1	225.8109	-8.175283	-2.641194E-007	0.0006565	9
	12	39	18984.38	227.0082	-37.49235	1	230.0834	-9.37823	-1.842936E-005	0.0003883	9
	13	42	15046.87	231.6388	-43.74997	1	235.7341	-10.69555	-1.794885E-005	0.000338	9
	14	44	11953.13	236.2861	-50.97904	1	241.7229	-12.17502	-1.548343E-005	0.0010211	9
	15	47	9515.62	242.127	-58.568	1	249.1098	-13.59806	-6.889479E-006	0.0007841	9
	16	51	7546.875	248.6638	-67.82045	1	257.7466	-15.25577	-1.45066E-005	0.0002832	9
	17	55	5928.309	256.4244	-78.88675	1	268.2845	-17.10006	2.209719E-005	-0.00082	9
	18	58	4733.456	262.9272	-90.9013	1	278.1974	-19.0717	-2.134366E-005	0.0009727	9
	19	62	3796.875	270.8717	-104.5303	1	290.3413	-21.10178	-2.263799E-005	0.0008521	9
	20	64	2987.132	277.6407	-122.0822	1	303.2959	-23.73572	-1.567462E-005	0.0009698	9
	21	67	2390.625	284.5007	-142.4743	1	318.1817	-26.60112	2.558285E-005	-0.0007909	9
	22	69	1884.191	291.5018	-169.0994	1	336.9984	-30.1179	2.656612E-005	-0.0004579	9
	23	71	1516.544	296.7084	-202.149	1	359.0266	-34.26681	-1.818601E-005	0.0003552	9
	24	73	1193.986	302.3215	-245.9662	1	389.7405	-39.13151	-2.141248E-005	0.0004893	9
	25	76	946.5144	307.9892	-299.3538	1	429.4998	-44.1854	-1.885524E-006	-0.0009865	8
	26	78	751.7689	312.735	-368.1707	1	483.0661	-49.65445	1.799884E-006	-0.0021041	8
	27	81	597.4265	319.6005	-453.671	1	554.9431	-54.83621	5.14822E-006	0.0013144	8
	28	83	477.4305	326.6874	-559.6918	1	648.0583	-59.72825	8.623893E-008	0.0006482	8
	29	85	376.6741	336.0492	-700.3231	1	776.7763	-64.36604	8.117048E-008	0.0006489	8
	30	88	298.2954	347.4443	-874.7205	1	941.1979	-68.33672	8.610125E-008	0.000654	8
	31	90	237.7717	361.3159	-1086.826	1	1145.312	-71.61058	7.005585E-008	0.0006558	8
	32	92	189.0121	379.1924	-1354.868	1	1406.931	-74.36445	9.651687E-008	0.0006497	8
	33	95	150.2404	402.1161	-1689.446	1	1736.642	-76.61177	7.417797E-008	0.0006444	8
	34	97	119.1737	432.1959	-2111.015	1	2154.803	-78.42951	7.358817E-008	0.0006504	8
	35	100	95.0169	470.0028	-2624.683	1	2666.433	-79.84763	6.722018E-008	0.0006467	8
	36	102	75.60484	519.6725	-3269.423	1	3310.466	-80.96843	1.070683E-007	0.0006382	8
	37	105	54.50582	617.3055	-4473.646	1	4516.035	-82.14353	8.23498E-008	0.0006948	8
	38	107	45.95588	685.6619	-5277.729	1	5322.082	-82.59782	3.656594E-009	0.0006338	7
	39	109	37.20238	788.3748	-6456.891	1	6504.843	-83.03874	1.190223E-009	0.0006219	7
	40	112	30.04808	919.778	-7919.89	1	7973.12	-83.37562	2.589509E-010	0.0006263	7
	41	114	23.91582	1100.309	-9837.12	1	9898.46	-83.61784	4.338787E-010	0.0006262	7
	42	117	18.60119	1364.157	-12501.94	1	12576.15	-83.77277	-1.091844E-009	0.0006262	7
	43	119	15.02404	1657.281	-15315.47	1	15404.87	-83.82407	2.529387E-009	0.0006291	7
	44	121	12.01923	2065.572	-18923.59	1	19035.98	-83.77064	4.818515E-009	0.0006174	7
	45	124	9.450605	2638.549	-23764.05	1	23910.08	-83.66434	5.117363E-009	0.0006163	7
	46	126	7.512019	3399.104	-29527.01	1	29722.01	-83.43311	6.136333E-009	0.0006427	7
	47	129	5.978954	4395.625	-36581.08	1	36844.23	-83.14812	2.714227E-009	0.0006248	7
	48	132	4.734848	5808.003	-45526.84	1	45895.82	-82.72987	8.358565E-010	0.0006716	6
	49	135	3.75601	7673.912	-56461.75	1	56980.86	-82.26015	2.236888E-010	0.0006656	6
	50	139	3.004808	10114.45	-69331.35	1	70065.24	-81.69992	-2.160862E-011	0.0006836	6
	51	142	2.372217	13727.54	-86054.52	1	87142.55	-80.93645	1.39386E-010	0.000729	6
	52	146	1.878005	18332.53	-106434.4	1	108001.7	-80.22712	-9.494139E-010	0.0006449	6
	53	151	1.512097	23939.1	-128875.8	1	131080.4	-79.47706	3.866205E-011	0.0006334	6
	54	157	1.201923	32240.03	-158156	1	161408.6	-78.47815	-5.586286E-010	0.0006465	6
	55	163	0.956633	42883.71	-192608.4	1	197324.6	-77.44799	-7.818332E-010	2.918002E-005	6
