EXPLAIN
TAG	EISPOT
TITLE	LABEL	Potentiostatic EIS	Test Identifier
DATE	LABEL	8/29/2020	Date
TIME	LABEL	15:36:40	Time
NOTES	NOTES	1	Notes...
	
PSTAT	PSTAT	REF3000-16137	Potentiostat
VDC	POTEN	0.00000E+000	T	DC Voltage (V)
FREQINIT	QUANT	3.00000E+005	Initial Freq. (Hz)
FREQFINAL	QUANT	1.00000E+000	Final Freq. (Hz)
PTSPERDEC	QUANT	1.00000E+001	Points/decade
VAC	QUANT	5.00000E+001	AC Voltage (mV rms)
AREA	QUANT	1.00000E+000	Sample Area (cm^2)
SPEED	SELECTOR	2	Optimize for:
ZGUESS	QUANT	1.00000E+003	Estimated Z (ohms)
EOC	QUANT	0	Open Circuit (V)
SEQUENCER	TOGGLE	TRUE	Run as Sequence
PSTATMODEL	IQUANT	5	Pstat Model
PSTATSECTION	LABEL	REF3000-16137	Pstat Section
PSTATSERIALNO	LABEL	16137	Pstat Serial Number
CTRLMODE	IQUANT	1	Control Mode
IESTAB	IQUANT	0	I/E Stability
CASPEED	IQUANT	1	Control Amp Speed
CONVENTION	IQUANT	1	Current Convention
ICHRANGE	IQUANT	2	Ich Range
ICHRANGEMODE	TOGGLE	F	Ich Auto Range
ICHOFFSETENABLE	TOGGLE	T	Ich Offset Enable
ICHOFFSET	QUANT	0	Ich Offset (V)
ICHFILTER	IQUANT	3	Ich Filter
VCHRANGE	IQUANT	2	Vch Range
VCHRANGEMODE	TOGGLE	F	Vch Auto Range
VCHOFFSETENABLE	TOGGLE	T	Vch Offset Enable
VCHOFFSET	QUANT	0	Vch Offset (V)
VCHFILTER	IQUANT	3	Vch Filter
ACHRANGE	IQUANT	2	Ach Range
ACHOFFSETENABLE	TOGGLE	F	Ach Offset Enable
ACHOFFSET	QUANT	0	Ach Offset (V)
ACHFILTER	IQUANT	3	Ach Filter
IERANGELOWERLIMIT	IQUANT	2	I/E Range Lower Limit
IERANGEMODE	TOGGLE	F	I/E AutoRange
IERANGE	IQUANT	11	I/E Range
POSFEEDENABLE	TOGGLE	F	Positive Feedback IR Comp
POSFEEDRESISTANCE	QUANT	0	Positive Feedback Resistance (ohm)
ACHSELECT	IQUANT	0	Ach Select
CABLEID	IQUANT	13	Cable ID
DCCALDATE	LABEL	7/31/2020	DC Calibration Date
ACCALDATE	LABEL	7/31/2020	AC Calibration Date
THERMOSELECT	IQUANT	1	Thermo Select
FRAMEWORKVERSION	QUANT	6.33	Framework Version
INSTRUMENTVERSION	LABEL	3.50	Instrument Version
COMPLIANCEVOLTAGE	IQUANT	0	Compliance Voltage
ZCURVE	TABLE
	Pt	Time	Freq	Zreal	Zimag	Zsig	Zmod	Zphz	Idc	Vdc	IERange
	#	s	Hz	ohm	ohm	V	ohm	°	A	V	#
	0	7	300046.9	111.3797	-2.908136	1	111.4176	-1.495659	7.692764E-005	-0.002554	9
	1	10	238359.4	111.8671	-3.821351	1	111.9323	-1.956449	-7.002422E-006	0.0008977	9
	2	13	189328.1	112.4004	-4.674404	1	112.4976	-2.381392	6.910718E-005	-0.0026414	9
	3	16	150421.9	112.9107	-6.179549	1	113.0797	-3.132646	6.981219E-005	-0.002229	9
	4	18	119484.4	113.6634	-7.576082	1	113.9156	-3.813332	-3.893798E-006	-0.0012343	9
	5	21	94921.88	114.561	-8.839254	1	114.9015	-4.412064	-1.874629E-005	0.0008201	9
	6	23	75421.88	115.5924	-10.77297	1	116.0933	-5.324469	2.089373E-005	-0.0005158	9
	7	26	59859.37	116.757	-13.02075	1	117.4808	-6.363337	2.482224E-005	-0.000444	9
	8	28	47578.12	118.2868	-15.48479	1	119.2961	-7.458111	2.579486E-005	-0.0004548	9
	9	31	37828.12	120.0453	-18.23957	1	121.423	-8.639394	1.340508E-005	-0.0006779	9
	10	33	30046.88	122.099	-21.41962	1	123.9636	-9.95006	2.503984E-005	-0.0005886	9
	11	36	23859.38	124.5031	-24.95367	1	126.9791	-11.33341	6.296834E-006	-0.0005207	9
	12	38	18984.38	127.2514	-28.9677	1	130.5068	-12.82436	1.141696E-005	0.0001649	9
	13	40	15046.87	130.213	-33.59472	1	134.4768	-14.46673	2.344966E-005	-0.0007052	9
	14	43	11953.13	133.6977	-38.81516	1	139.2182	-16.18909	-1.925468E-005	0.0004837	9
	15	45	9515.62	137.2801	-44.65839	1	144.3613	-18.02015	2.203696E-005	-0.0006086	9
	16	47	7546.875	140.9045	-51.6942	1	150.0879	-20.14678	1.172819E-005	0.0002475	9
	17	50	5928.309	144.9785	-60.25414	1	157.0011	-22.56813	-1.332353E-005	0.0008677	9
	18	52	4733.456	148.6346	-70.28356	1	164.4142	-25.30766	-6.268709E-006	0.0007532	9
	19	54	3796.875	151.531	-81.89568	1	172.2456	-28.38923	-1.983839E-005	0.0008148	9
	20	57	2987.132	155.0241	-98.5101	1	183.6756	-32.43393	-9.792016E-006	-7.861436E-006	9
	21	59	2390.625	157.797	-117.9572	1	197.0122	-36.77903	1.355445E-005	-0.0006751	9
	22	61	1884.191	160.8877	-144.5719	1	216.3004	-41.94252	-9.594689E-006	-8.158026E-006	9
	23	64	1516.544	163.2734	-175.5505	1	239.7419	-47.07518	2.275471E-005	-0.0002551	9
	24	66	1193.986	166.5735	-217.7917	1	274.1896	-52.59017	2.507299E-005	-0.0005934	9
	25	68	946.5144	169.717	-271.0287	1	319.7818	-57.94538	-1.851388E-005	0.0008638	9
	26	71	751.7689	174.5875	-336.2849	1	378.9041	-62.56322	-1.951319E-005	0.0004931	9
	27	73	597.4265	179.3777	-418.9266	1	455.7146	-66.82016	-1.324345E-005	0.000867	9
	28	76	477.4305	185.1058	-516.4177	1	548.5903	-70.28018	2.361228E-007	0.0006449	8
	29	78	376.6741	193.6327	-648.4355	1	676.7291	-73.37358	2.186679E-007	0.0006477	8
	30	80	298.2954	204.4309	-811.6248	1	836.9748	-75.8625	2.389623E-007	0.0006492	8
	31	83	237.7717	218.0348	-1009.575	1	1032.851	-77.81318	2.223032E-007	0.0006525	8
	32	85	189.0121	235.8621	-1259.087	1	1280.988	-79.38987	2.334787E-007	0.0006464	8
	33	88	150.2404	259.1056	-1569.873	1	1591.112	-80.6279	2.342042E-007	0.0006551	8
	34	90	119.1737	289.6212	-1960.718	1	1981.993	-81.5975	2.452057E-007	0.0006578	8
	35	92	95.0169	328.5733	-2436.402	1	2458.458	-82.31943	2.319724E-007	0.0006516	8
	36	95	75.60484	379.2346	-3032.166	1	3055.789	-82.871	2.228559E-007	0.0006512	8
	37	97	54.50582	479.1145	-4143.631	1	4171.238	-83.40437	2.275502E-007	0.0006935	8
	38	100	45.95588	549.598	-4885.148	1	4915.967	-83.58099	2.399185E-008	0.000624	7
	39	102	37.20238	656.6282	-5975.364	1	6011.334	-83.72897	1.821137E-008	0.0006691	7
	40	105	30.04808	793.7119	-7318.142	1	7361.059	-83.81001	1.89432E-008	0.000626	7
	41	107	23.91582	988.669	-9085.296	1	9138.932	-83.78947	1.886893E-008	0.0006178	7
	42	109	18.60119	1277.314	-11538.68	1	11609.16	-83.68316	2.334656E-008	0.0006193	7
	43	112	15.02404	1608.288	-14117.04	1	14208.35	-83.50058	2.559534E-008	0.0006334	7
	44	114	12.01923	2071.877	-17422.46	1	17545.22	-83.21824	2.344942E-008	0.0006184	7
	45	116	9.450605	2752.567	-21828.88	1	22001.74	-82.81307	2.057398E-008	0.0006263	7
	46	119	7.512019	3643.2	-27046.87	1	27291.13	-82.32846	1.861197E-008	0.0006769	7
	47	122	5.978954	4855.392	-33401.08	1	33752.14	-81.72906	2.229717E-008	0.0006295	7
	48	125	4.734848	6570.263	-41382.68	1	41901.01	-80.97854	2.250623E-008	0.0006557	7
	49	128	3.75601	8898.801	-51063.1	1	51832.7	-80.1143	2.683832E-009	0.0006793	6
	50	131	3.004808	11901.99	-62303.91	1	63430.55	-79.18502	3.325828E-009	0.0006389	6
	51	135	2.372217	16259.04	-76772.39	1	78475.2	-78.04244	1.740857E-009	0.0005899	6
	52	139	1.878005	22026.9	-93854.51	1	96404.6	-76.79218	2.556195E-009	0.0006801	6
	53	144	1.512097	29032.14	-112369.7	1	116059.5	-75.51369	1.994642E-009	0.00063	6
	54	149	1.201923	38787.12	-136001.1	1	141424	-74.082	1.801289E-009	0.0006966	6
	55	156	0.956633	51163.18	-163189.1	1	171021.5	-72.5927	3.147357E-010	2.566776E-005	6
