EXPLAIN
TAG	EISPOT
TITLE	LABEL	Potentiostatic EIS	Test Identifier
DATE	LABEL	8/29/2020	Date
TIME	LABEL	15:20:11	Time
NOTES	NOTES	1	Notes...
	
PSTAT	PSTAT	REF3000-16137	Potentiostat
VDC	POTEN	0.00000E+000	T	DC Voltage (V)
FREQINIT	QUANT	3.00000E+005	Initial Freq. (Hz)
FREQFINAL	QUANT	1.00000E+000	Final Freq. (Hz)
PTSPERDEC	QUANT	1.00000E+001	Points/decade
VAC	QUANT	5.00000E+001	AC Voltage (mV rms)
AREA	QUANT	1.00000E+000	Sample Area (cm^2)
SPEED	SELECTOR	2	Optimize for:
ZGUESS	QUANT	1.00000E+003	Estimated Z (ohms)
EOC	QUANT	0	Open Circuit (V)
SEQUENCER	TOGGLE	TRUE	Run as Sequence
PSTATMODEL	IQUANT	5	Pstat Model
PSTATSECTION	LABEL	REF3000-16137	Pstat Section
PSTATSERIALNO	LABEL	16137	Pstat Serial Number
CTRLMODE	IQUANT	1	Control Mode
IESTAB	IQUANT	0	I/E Stability
CASPEED	IQUANT	1	Control Amp Speed
CONVENTION	IQUANT	1	Current Convention
ICHRANGE	IQUANT	2	Ich Range
ICHRANGEMODE	TOGGLE	F	Ich Auto Range
ICHOFFSETENABLE	TOGGLE	T	Ich Offset Enable
ICHOFFSET	QUANT	0	Ich Offset (V)
ICHFILTER	IQUANT	3	Ich Filter
VCHRANGE	IQUANT	2	Vch Range
VCHRANGEMODE	TOGGLE	F	Vch Auto Range
VCHOFFSETENABLE	TOGGLE	T	Vch Offset Enable
VCHOFFSET	QUANT	0	Vch Offset (V)
VCHFILTER	IQUANT	3	Vch Filter
ACHRANGE	IQUANT	2	Ach Range
ACHOFFSETENABLE	TOGGLE	F	Ach Offset Enable
ACHOFFSET	QUANT	0	Ach Offset (V)
ACHFILTER	IQUANT	3	Ach Filter
IERANGELOWERLIMIT	IQUANT	2	I/E Range Lower Limit
IERANGEMODE	TOGGLE	F	I/E AutoRange
IERANGE	IQUANT	11	I/E Range
POSFEEDENABLE	TOGGLE	F	Positive Feedback IR Comp
POSFEEDRESISTANCE	QUANT	0	Positive Feedback Resistance (ohm)
ACHSELECT	IQUANT	0	Ach Select
CABLEID	IQUANT	13	Cable ID
DCCALDATE	LABEL	7/31/2020	DC Calibration Date
ACCALDATE	LABEL	7/31/2020	AC Calibration Date
THERMOSELECT	IQUANT	1	Thermo Select
FRAMEWORKVERSION	QUANT	6.33	Framework Version
INSTRUMENTVERSION	LABEL	3.50	Instrument Version
COMPLIANCEVOLTAGE	IQUANT	0	Compliance Voltage
ZCURVE	TABLE
	Pt	Time	Freq	Zreal	Zimag	Zsig	Zmod	Zphz	Idc	Vdc	IERange
	#	s	Hz	ohm	ohm	V	ohm	°	A	V	#
	0	7	300046.9	65.07877	-1.472507	1	65.09543	-1.296184	2.353671E-006	0.0004851	9
	1	10	238359.4	65.55322	-2.522627	1	65.60174	-2.203776	9.470248E-006	-0.0010954	9
	2	13	189328.1	65.94564	-3.562049	1	66.04177	-3.091823	-6.829276E-006	0.0004978	9
	3	16	150421.9	66.37891	-4.681966	1	66.54382	-4.034615	1.190731E-005	-0.0010373	9
	4	18	119484.4	66.98015	-5.899178	1	67.23943	-5.033254	-6.293684E-005	0.0025968	9
	5	21	94921.88	67.78518	-7.07406	1	68.15331	-5.95782	-8.55392E-006	-1.958993E-006	9
	6	24	75421.88	68.61124	-8.688522	1	69.15919	-7.217184	-4.267196E-006	0.0005132	9
	7	26	59859.37	69.58931	-10.47545	1	70.37334	-8.560596	2.045857E-005	-0.0006547	9
	8	29	47578.12	70.80674	-12.43856	1	71.89098	-9.96344	-1.063315E-005	0.000662	9
	9	31	37828.12	72.17015	-14.58336	1	73.62883	-11.42388	3.491667E-006	0.0004217	9
	10	34	30046.88	73.76611	-17.02041	1	75.70425	-12.99275	1.774372E-005	-0.0001759	9
	11	36	23859.38	75.56571	-19.71489	1	78.09516	-14.62236	-3.637751E-006	0.0006334	9
	12	38	18984.38	77.48796	-22.76222	1	80.76202	-16.37024	2.098087E-005	-0.0002441	9
	13	41	15046.87	79.5564	-26.31928	1	83.79693	-18.30553	2.008337E-005	-0.0006014	9
	14	43	11953.13	81.76224	-30.49794	1	87.26505	-20.4559	-1.087943E-005	0.0006407	9
	15	45	9515.62	83.81691	-35.28116	1	90.93973	-22.82775	2.230069E-005	-0.000391	9
	16	48	7546.875	85.79312	-41.29247	1	95.2131	-25.70164	5.6454E-006	-0.0004382	9
	17	50	5928.309	87.66882	-49.18745	1	100.5248	-29.29503	1.132111E-005	-0.0005431	9
	18	52	4733.456	89.31272	-58.56779	1	106.8033	-33.25529	-1.758396E-005	0.0004771	9
	19	55	3796.875	90.84464	-70.3993	1	114.9296	-37.7736	3.838205E-006	-0.0003794	9
	20	57	2987.132	92.39466	-86.40461	1	126.5011	-43.08122	-1.021847E-005	0.0007186	9
	21	59	2390.625	93.85602	-105.6476	1	141.3166	-48.38252	-3.971396E-006	0.0005426	9
	22	62	1884.191	95.6793	-130.8725	1	162.1176	-53.82993	-3.093577E-006	-0.0001769	9
	23	64	1516.544	97.6995	-160.5991	1	187.9821	-58.68602	-1.735211E-005	0.000476	9
	24	66	1193.986	100.2558	-201.4132	1	224.9856	-63.53764	-1.756022E-005	0.0004834	9
	25	69	946.5144	103.2951	-251.7859	1	272.1508	-67.69411	-1.522189E-005	0.000721	9
	26	71	751.7689	107.264	-313.4099	1	331.2573	-71.10658	3.749241E-006	0.0003932	9
	27	73	597.4265	111.4253	-391.1741	1	406.7343	-74.10048	-1.730316E-005	0.000478	9
	28	76	477.4305	118.0676	-482.8326	1	497.0587	-76.25904	3.510786E-007	0.0006559	8
	29	78	376.6741	126.5101	-606.6078	1	619.6595	-78.21963	3.548894E-007	0.0006439	8
	30	80	298.2954	137.3917	-759.3552	1	771.6843	-79.74431	3.459148E-007	0.0006501	8
	31	83	237.7717	151.1936	-944.4368	1	956.462	-80.90477	3.593954E-007	0.000648	8
	32	85	189.0121	169.479	-1177.479	1	1189.613	-81.80946	3.631168E-007	0.0006447	8
	33	87	150.2404	193.4405	-1467.418	1	1480.113	-82.49036	3.495075E-007	0.0006488	8
	34	90	119.1737	225.2622	-1831.986	1	1845.783	-82.99006	3.500998E-007	0.0006514	8
	35	92	95.0169	265.9719	-2274.282	1	2289.782	-83.3297	3.598249E-007	0.0006445	8
	36	95	75.60484	319.8882	-2828.225	1	2846.259	-83.54695	3.473417E-007	0.0006563	8
	37	97	54.50582	428.4462	-3860.793	1	3884.494	-83.66759	3.606116E-007	0.0006491	8
	38	100	45.95588	506.0884	-4549.412	1	4577.474	-83.65237	4.064251E-008	0.0006396	7
	39	102	37.20238	626.5333	-5559.203	1	5594.397	-83.56979	3.283692E-008	0.0006763	7
	40	104	30.04808	787.7372	-6806.116	1	6851.55	-83.39799	3.303682E-008	0.0006226	7
	41	107	23.91582	1012.091	-8422.88	1	8483.469	-83.1482	3.007867E-008	0.0006343	7
	42	109	18.60119	1359.978	-10674.32	1	10760.6	-82.73926	4.154644E-008	0.0006303	7
	43	112	15.02404	1768.398	-13029.54	1	13149	-82.27092	3.954248E-008	0.0006246	7
	44	114	12.01923	2342.307	-16027.52	1	16197.77	-81.68549	3.212814E-008	0.0006294	7
	45	116	9.450605	3190.018	-19993.72	1	20246.61	-80.93481	4.099857E-008	0.0006288	7
	46	119	7.512019	4333.659	-24641.42	1	25019.6	-80.02546	4.369692E-008	0.0006298	7
	47	122	5.978954	5880.168	-30250.01	1	30816.22	-78.9997	4.181378E-008	0.0006191	7
	48	125	4.734848	8045.405	-37206.11	1	38066.04	-77.79829	4.139455E-008	0.0006143	7
	49	128	3.75601	11002.81	-45425.35	1	46738.89	-76.3842	5.60246E-009	0.0006742	6
	50	131	3.004808	14836.84	-54782.57	1	56756.17	-74.84603	1.962927E-009	0.0007049	6
	51	135	2.372217	20314.34	-66430.9	1	69467.52	-72.99655	3.091347E-009	0.0007342	6
	52	139	1.878005	27503.26	-79671.24	1	84284.85	-70.95485	1.77553E-009	0.0006432	6
	53	144	1.512097	36058.97	-93451.16	1	100166.7	-68.90044	1.388344E-009	0.0007223	6
	54	149	1.201923	47660.64	-110144.1	1	120013.5	-66.6013	1.140098E-009	0.000634	6
	55	156	0.956633	62106.57	-128225.8	1	142474.8	-64.15662	-1.767353E-009	2.996147E-005	6
