EXPLAIN
TAG	EISPOT
TITLE	LABEL	Potentiostatic EIS	Test Identifier
DATE	LABEL	8/29/2020	Date
TIME	LABEL	15:56:32	Time
NOTES	NOTES	1	Notes...
	
PSTAT	PSTAT	REF3000-16137	Potentiostat
VDC	POTEN	0.00000E+000	T	DC Voltage (V)
FREQINIT	QUANT	3.00000E+005	Initial Freq. (Hz)
FREQFINAL	QUANT	1.00000E+000	Final Freq. (Hz)
PTSPERDEC	QUANT	1.00000E+001	Points/decade
VAC	QUANT	5.00000E+001	AC Voltage (mV rms)
AREA	QUANT	1.00000E+000	Sample Area (cm^2)
SPEED	SELECTOR	2	Optimize for:
ZGUESS	QUANT	1.00000E+003	Estimated Z (ohms)
EOC	QUANT	0	Open Circuit (V)
SEQUENCER	TOGGLE	TRUE	Run as Sequence
PSTATMODEL	IQUANT	5	Pstat Model
PSTATSECTION	LABEL	REF3000-16137	Pstat Section
PSTATSERIALNO	LABEL	16137	Pstat Serial Number
CTRLMODE	IQUANT	1	Control Mode
IESTAB	IQUANT	0	I/E Stability
CASPEED	IQUANT	1	Control Amp Speed
CONVENTION	IQUANT	1	Current Convention
ICHRANGE	IQUANT	2	Ich Range
ICHRANGEMODE	TOGGLE	F	Ich Auto Range
ICHOFFSETENABLE	TOGGLE	T	Ich Offset Enable
ICHOFFSET	QUANT	0	Ich Offset (V)
ICHFILTER	IQUANT	3	Ich Filter
VCHRANGE	IQUANT	2	Vch Range
VCHRANGEMODE	TOGGLE	F	Vch Auto Range
VCHOFFSETENABLE	TOGGLE	T	Vch Offset Enable
VCHOFFSET	QUANT	0	Vch Offset (V)
VCHFILTER	IQUANT	3	Vch Filter
ACHRANGE	IQUANT	2	Ach Range
ACHOFFSETENABLE	TOGGLE	F	Ach Offset Enable
ACHOFFSET	QUANT	0	Ach Offset (V)
ACHFILTER	IQUANT	3	Ach Filter
IERANGELOWERLIMIT	IQUANT	2	I/E Range Lower Limit
IERANGEMODE	TOGGLE	F	I/E AutoRange
IERANGE	IQUANT	11	I/E Range
POSFEEDENABLE	TOGGLE	F	Positive Feedback IR Comp
POSFEEDRESISTANCE	QUANT	0	Positive Feedback Resistance (ohm)
ACHSELECT	IQUANT	0	Ach Select
CABLEID	IQUANT	13	Cable ID
DCCALDATE	LABEL	7/31/2020	DC Calibration Date
ACCALDATE	LABEL	7/31/2020	AC Calibration Date
THERMOSELECT	IQUANT	1	Thermo Select
FRAMEWORKVERSION	QUANT	6.33	Framework Version
INSTRUMENTVERSION	LABEL	3.50	Instrument Version
COMPLIANCEVOLTAGE	IQUANT	0	Compliance Voltage
ZCURVE	TABLE
	Pt	Time	Freq	Zreal	Zimag	Zsig	Zmod	Zphz	Idc	Vdc	IERange
	#	s	Hz	ohm	ohm	V	ohm	°	A	V	#
	0	10	300046.9	285.7635	-16.14697	1	286.2194	-3.234039	2.321282E-005	-0.0006901	9
	1	14	238359.4	287.3788	-19.54454	1	288.0426	-3.890677	-2.924788E-005	0.0002185	10
	2	21	189328.1	289.3405	-14.27946	1	289.6926	-2.825355	1.297251E-005	-0.0017582	9
	3	25	150421.9	291.394	-17.42864	1	291.9148	-3.422853	-2.182302E-005	0.0005768	10
	4	31	119484.4	293.4274	-15.23117	1	293.8224	-2.971431	-0.000097	0.0034868	9
	5	35	94921.88	295.8886	-16.17753	1	296.3305	-3.129497	2.47692E-005	-0.0002165	9
	6	38	75421.88	297.7255	-17.42581	1	298.235	-3.349688	2.022758E-005	-2.761065E-005	9
	7	42	59859.37	299.9658	-19.53685	1	300.6013	-3.726426	1.738299E-005	-0.000908	9
	8	45	47578.12	301.8947	-23.0346	1	302.7722	-4.363219	2.402942E-005	-0.0004749	9
	9	47	37828.12	304.5916	-26.95162	1	305.7817	-5.056616	2.809936E-005	-0.000686	9
	10	50	30046.88	307.2191	-31.44415	1	308.8241	-5.843925	1.596507E-005	-0.0007838	9
	11	52	23859.38	311.2972	-36.67566	1	313.4503	-6.719359	2.070618E-005	-9.455511E-005	9
	12	55	18984.38	315.3484	-43.1073	1	318.2811	-7.783937	2.756119E-005	-0.0007968	9
	13	57	15046.87	320.449	-50.22153	1	324.3605	-8.907079	-2.397463E-005	0.0007678	9
	14	60	11953.13	326.0623	-58.98058	1	331.3538	-10.25322	1.942096E-005	-5.049363E-005	9
	15	62	9515.62	333.1173	-67.73157	1	339.9333	-11.49308	-1.581013E-005	0.000133	9
	16	64	7546.875	341.0048	-78.9751	1	350.0305	-13.03954	1.692128E-005	-0.0008459	9
	17	67	5928.309	349.5692	-91.56967	1	361.3636	-14.67882	-1.501771E-005	0.0001074	9
	18	69	4733.456	358.4956	-105.8608	1	373.7989	-16.45144	-2.199825E-005	0.0005041	9
	19	71	3796.875	368.6029	-120.6849	1	387.8569	-18.12905	-1.826296E-005	0.0010661	9
	20	74	2987.132	377.1266	-139.5534	1	402.1189	-20.30669	-1.097365E-005	0.0024925	8
	21	76	2390.625	387.5545	-161.5946	1	419.8944	-22.63417	1.041138E-005	-0.0004179	8
	22	79	1884.191	397.9518	-188.2941	1	440.2503	-25.32154	-2.140691E-006	-0.0014614	8
	23	81	1516.544	406.893	-222.5417	1	463.7745	-28.67554	5.754549E-006	0.0016287	8
	24	83	1193.986	416.3417	-266.117	1	494.1241	-32.58587	1.188284E-005	-0.0040082	8
	25	86	946.5144	425.1579	-321.3543	1	532.9426	-37.0837	-2.068356E-006	-0.001504	8
	26	88	751.7689	433.1663	-392.7872	1	584.7349	-42.20116	9.787478E-006	-0.0041369	8
	27	90	597.4265	439.69	-478.167	1	649.593	-47.40046	-1.195616E-005	0.0035214	8
	28	93	477.4305	449.9837	-587.11	1	739.7186	-52.53206	-5.350556E-009	0.0006959	8
	29	95	376.6741	460.6374	-731.5452	1	864.4913	-57.80231	-9.985063E-009	0.0006882	8
	30	97	298.2954	473.1703	-911.0499	1	1026.597	-62.55407	3.134028E-008	0.0006415	8
	31	100	237.7717	488.004	-1129.893	1	1230.775	-66.64035	4.519576E-009	0.0006552	8
	32	102	189.0121	506.6299	-1406.81	1	1495.255	-70.19469	1.688461E-008	0.0006565	8
	33	105	150.2404	530.0912	-1752.968	1	1831.364	-73.17487	1.287415E-008	0.0006499	8
	34	107	119.1737	559.9249	-2189.576	1	2260.035	-75.65556	1.317308E-008	0.0006547	8
	35	109	95.0169	598.0836	-2722.129	1	2787.058	-77.60834	1.307276E-008	0.0006567	8
	36	112	75.60484	647.6063	-3391.24	1	3452.521	-79.18871	3.728562E-008	0.000653	8
	37	114	54.50582	743.5892	-4641.507	1	4700.692	-80.89832	1.078331E-008	0.0006573	8
	38	117	45.95588	812.576	-5478.167	1	5538.104	-81.56284	-3.975016E-009	0.0006198	7
	39	119	37.20238	914.837	-6706.864	1	6768.97	-82.23261	-1.246457E-008	0.0006751	7
	40	122	30.04808	1044.537	-8224.694	1	8290.757	-82.76218	-5.738044E-009	0.0006101	7
	41	124	23.91582	1222.514	-10231.93	1	10304.7	-83.18658	-7.003847E-009	0.0006139	7
	42	127	18.60119	1479.999	-12992.08	1	13076.11	-83.50114	-4.947454E-009	0.0006123	7
	43	129	15.02404	1762.874	-15927.41	1	16024.67	-83.68411	-9.394245E-009	0.000626	7
	44	131	12.01923	2145.488	-19688.17	1	19804.72	-83.78082	-8.796577E-009	0.0006242	7
	45	134	9.450605	2702.156	-24735.55	1	24882.71	-83.76563	-5.904549E-009	0.0006355	7
	46	136	7.512019	3391.364	-30760.29	1	30946.68	-83.70847	-8.949976E-009	0.0006479	7
	47	139	5.978954	4319.133	-38147.42	1	38391.15	-83.54036	-6.594066E-009	0.0006116	7
	48	142	4.734848	5604.594	-47559.83	1	47888.93	-83.27909	-2.53754E-010	0.0006543	6
	49	145	3.75601	7296.211	-59082.16	1	59530.97	-82.96004	-1.107266E-009	0.0006736	6
	50	148	3.004808	9485.805	-72722	1	73338.05	-82.56834	2.300256E-010	0.0006214	6
	51	152	2.372217	12618.09	-90523.47	1	91398.66	-82.06465	-8.325903E-010	0.0006074	6
	52	156	1.878005	16991.9	-112240.8	1	113519.7	-81.39148	-1.174599E-009	0.000676	6
	53	161	1.512097	22310.98	-136706.1	1	138514.7	-80.73082	-1.019814E-009	0.0005629	6
	54	167	1.201923	29693.9	-168259.7	1	170859.8	-79.99168	-5.615239E-010	0.0006462	6
	55	174	0.956633	39298.38	-206155.1	1	209867.3	-79.20746	-1.925364E-009	3.969825E-005	6
