EXPLAIN
TAG	EISPOT
TITLE	LABEL	Potentiostatic EIS	Test Identifier
DATE	LABEL	8/29/2020	Date
TIME	LABEL	16:26:02	Time
NOTES	NOTES	1	Notes...
	
PSTAT	PSTAT	REF3000-16137	Potentiostat
VDC	POTEN	0.00000E+000	T	DC Voltage (V)
FREQINIT	QUANT	3.00000E+005	Initial Freq. (Hz)
FREQFINAL	QUANT	1.00000E+000	Final Freq. (Hz)
PTSPERDEC	QUANT	1.00000E+001	Points/decade
VAC	QUANT	5.00000E+001	AC Voltage (mV rms)
AREA	QUANT	1.00000E+000	Sample Area (cm^2)
SPEED	SELECTOR	2	Optimize for:
ZGUESS	QUANT	1.00000E+003	Estimated Z (ohms)
EOC	QUANT	0	Open Circuit (V)
SEQUENCER	TOGGLE	TRUE	Run as Sequence
PSTATMODEL	IQUANT	5	Pstat Model
PSTATSECTION	LABEL	REF3000-16137	Pstat Section
PSTATSERIALNO	LABEL	16137	Pstat Serial Number
CTRLMODE	IQUANT	1	Control Mode
IESTAB	IQUANT	0	I/E Stability
CASPEED	IQUANT	1	Control Amp Speed
CONVENTION	IQUANT	1	Current Convention
ICHRANGE	IQUANT	2	Ich Range
ICHRANGEMODE	TOGGLE	F	Ich Auto Range
ICHOFFSETENABLE	TOGGLE	T	Ich Offset Enable
ICHOFFSET	QUANT	0	Ich Offset (V)
ICHFILTER	IQUANT	3	Ich Filter
VCHRANGE	IQUANT	2	Vch Range
VCHRANGEMODE	TOGGLE	F	Vch Auto Range
VCHOFFSETENABLE	TOGGLE	T	Vch Offset Enable
VCHOFFSET	QUANT	0	Vch Offset (V)
VCHFILTER	IQUANT	3	Vch Filter
ACHRANGE	IQUANT	2	Ach Range
ACHOFFSETENABLE	TOGGLE	F	Ach Offset Enable
ACHOFFSET	QUANT	0	Ach Offset (V)
ACHFILTER	IQUANT	3	Ach Filter
IERANGELOWERLIMIT	IQUANT	2	I/E Range Lower Limit
IERANGEMODE	TOGGLE	F	I/E AutoRange
IERANGE	IQUANT	11	I/E Range
POSFEEDENABLE	TOGGLE	F	Positive Feedback IR Comp
POSFEEDRESISTANCE	QUANT	0	Positive Feedback Resistance (ohm)
ACHSELECT	IQUANT	0	Ach Select
CABLEID	IQUANT	13	Cable ID
DCCALDATE	LABEL	7/31/2020	DC Calibration Date
ACCALDATE	LABEL	7/31/2020	AC Calibration Date
THERMOSELECT	IQUANT	1	Thermo Select
FRAMEWORKVERSION	QUANT	6.33	Framework Version
INSTRUMENTVERSION	LABEL	3.50	Instrument Version
COMPLIANCEVOLTAGE	IQUANT	0	Compliance Voltage
ZCURVE	TABLE
	Pt	Time	Freq	Zreal	Zimag	Zsig	Zmod	Zphz	Idc	Vdc	IERange
	#	s	Hz	ohm	ohm	V	ohm	°	A	V	#
	0	14	300046.9	2317.261	-1742.606	1	2899.375	-36.94358	2.50011E-005	0.0009629	9
	1	28	238359.4	2712.235	-1749.546	1	3227.558	-32.82432	5.098643E-005	0.0000994	9
	2	43	189328.1	3043.006	-1537.752	1	3409.482	-26.80929	8.70123E-005	-0.0033426	9
	3	57	150421.9	3243.527	-1370.019	1	3520.997	-22.89849	-1.529653E-005	0.0017681	9
	4	65	119484.4	3522.927	-1208.448	1	3724.427	-18.9332	2.01872E-005	-0.0008356	9
	5	72	94921.88	3717.089	-1052.404	1	3863.198	-15.80818	1.045032E-005	0.0003631	9
	6	80	75421.88	3874.547	-799.4247	1	3956.159	-11.65809	-9.403948E-006	-0.0017117	8
	7	86	59859.37	3974.705	-674.0289	1	4031.451	-9.62463	-1.546248E-005	0.0009049	8
	8	93	47578.12	4081.495	-586.3489	1	4123.397	-8.175197	2.218285E-005	-0.0027819	8
	9	99	37828.12	4173.44	-486.2267	1	4201.668	-6.645288	-1.543263E-005	0.00086	8
	10	107	30046.88	4253.944	-434.4831	1	4276.075	-5.831769	-2.253037E-005	0.0051597	8
	11	112	23859.38	4347.634	-377.6443	1	4364.005	-4.964367	2.398939E-005	-0.00817	8
	12	118	18984.38	4396.213	-332.6294	1	4408.779	-4.32691	-1.756071E-005	0.0104087	8
	13	123	15046.87	4437.953	-306.7752	1	4448.543	-3.954302	2.576048E-005	-0.0070126	8
	14	128	11953.13	4511.121	-304.4993	1	4521.386	-3.86159	-1.810965E-005	0.010577	8
	15	134	9515.62	4561.202	-273.2017	1	4569.376	-3.427742	6.783909E-006	-0.0068968	8
	16	139	7546.875	4625.456	-288.1693	1	4634.424	-3.564961	-1.066504E-005	0.0096036	8
	17	144	5928.309	4687.792	-312.2553	1	4698.18	-3.810861	2.228818E-005	-0.0028055	8
	18	150	4733.456	4755.365	-335.7972	1	4767.207	-4.039202	-1.817604E-005	0.0106374	8
	19	155	3796.875	4830.654	-388.0024	1	4846.211	-4.592189	-1.563689E-005	0.0009524	8
	20	161	2987.132	4923.351	-457.559	1	4944.567	-5.309618	2.490361E-005	-0.0049619	8
	21	166	2390.625	5021.69	-526.2868	1	5049.193	-5.982913	2.263793E-005	-0.0028796	8
	22	171	1884.191	5083.174	-578.5743	1	5115.996	-6.493543	-1.079817E-005	0.0096128	8
	23	177	1516.544	5233.868	-689.4765	1	5279.086	-7.50457	-9.389237E-006	-0.001779	8
	24	182	1193.986	5353.543	-813.303	1	5414.969	-8.638247	-2.49659E-005	0.0091955	8
	25	188	946.5144	5503.978	-862.6685	1	5571.173	-8.90781	-1.85839E-005	0.0108021	8
	26	191	751.7689	5616.066	-1115.076	1	5725.696	-11.23009	7.351769E-006	-0.0071113	8
	27	195	597.4265	5829.618	-1246.313	1	5961.354	-12.06759	5.436066E-006	-0.0060666	7
	28	198	477.4305	5939.833	-1422.277	1	6107.739	-13.46579	-6.371379E-008	0.0006066	7
	29	200	376.6741	6106.772	-1652.557	1	6326.421	-15.14217	-6.110344E-008	0.0006227	7
	30	202	298.2954	6284.355	-1916.081	1	6569.969	-16.95631	-6.716092E-008	0.0006555	7
	31	205	237.7717	6471.512	-2215.943	1	6840.385	-18.90197	-6.10078E-008	0.0005719	7
	32	207	189.0121	6668.147	-2573.959	1	7147.688	-21.10699	-5.821429E-008	0.0005763	7
	33	209	150.2404	6871.233	-3003.698	1	7499.069	-23.61211	-6.390491E-008	0.0005999	7
	34	212	119.1737	7074.877	-3535.26	1	7908.979	-26.55093	-6.936408E-008	0.0006781	7
	35	214	95.0169	7271.397	-4172.886	1	8383.687	-29.85051	-6.468197E-008	0.0006006	7
	36	217	75.60484	7465.619	-4979.236	1	8973.754	-33.70152	-5.94653E-008	0.0005686	7
	37	219	54.50582	7723.689	-6509.956	1	10101.23	-40.12606	-5.974844E-008	0.0005712	7
	38	222	45.95588	7872.802	-7538.865	1	10900.25	-43.75872	-5.897369E-008	0.0006128	7
	39	224	37.20238	8056.732	-9085.058	1	12142.87	-48.43303	-6.621146E-008	0.0006215	7
	40	227	30.04808	8259.054	-11021.72	1	13772.81	-53.1542	-6.822196E-008	0.000657	7
	41	229	23.91582	8495.407	-13600.43	1	16035.7	-58.00935	-6.658725E-008	0.0006632	7
	42	231	18.60119	8795.327	-17193.51	1	19312.55	-62.90802	-6.581693E-008	0.0006633	7
	43	234	15.02404	9115.312	-21047.64	1	22936.7	-66.58353	-5.913309E-008	0.0006332	7
	44	236	12.01923	9507.78	-26004.88	1	27688.47	-69.91682	-6.637425E-008	0.0006591	7
	45	239	9.450605	10039.49	-32731.27	1	34236.34	-72.94793	-6.014595E-008	0.0005814	7
	46	241	7.512019	10673.2	-40738.25	1	42113.2	-75.31879	-6.647306E-008	0.000678	7
	47	244	5.978954	11503.92	-50729.4	1	52017.42	-77.22311	-7.293804E-009	0.0007097	6
	48	247	4.734848	12524.18	-63430.21	1	64654.83	-78.83073	-5.986817E-009	0.0006524	6
	49	250	3.75601	13863.73	-79115.19	1	80320.71	-80.0607	-7.554122E-009	0.0006975	6
	50	253	3.004808	15487.81	-97828.5	1	99046.9	-81.00383	-6.24428E-009	0.0006157	6
	51	257	2.372217	17885.5	-122497.3	1	123796.2	-81.69309	-6.709295E-009	0.0007192	6
	52	261	1.878005	20559.63	-153372.3	1	154744.1	-82.36498	-7.34492E-009	0.0006507	6
	53	266	1.512097	23559.82	-188153.6	1	189622.9	-82.8628	-7.099421E-009	0.0006629	6
	54	271	1.201923	28192.85	-234733.7	1	236420.7	-83.15126	-7.224763E-009	0.0006423	6
	55	278	0.956633	33781.6	-291582.1	1	293532.5	-83.39139	-7.142106E-009	2.728476E-005	6
