EXPLAIN
TAG	EISPOT
TITLE	LABEL	Potentiostatic EIS	Test Identifier
DATE	LABEL	8/29/2020	Date
TIME	LABEL	17:07:32	Time
NOTES	NOTES	1	Notes...
	
PSTAT	PSTAT	REF3000-16137	Potentiostat
VDC	POTEN	0.00000E+000	T	DC Voltage (V)
FREQINIT	QUANT	3.00000E+005	Initial Freq. (Hz)
FREQFINAL	QUANT	1.00000E+000	Final Freq. (Hz)
PTSPERDEC	QUANT	1.00000E+001	Points/decade
VAC	QUANT	5.00000E+001	AC Voltage (mV rms)
AREA	QUANT	1.00000E+000	Sample Area (cm^2)
SPEED	SELECTOR	2	Optimize for:
ZGUESS	QUANT	1.00000E+003	Estimated Z (ohms)
EOC	QUANT	0	Open Circuit (V)
SEQUENCER	TOGGLE	TRUE	Run as Sequence
PSTATMODEL	IQUANT	5	Pstat Model
PSTATSECTION	LABEL	REF3000-16137	Pstat Section
PSTATSERIALNO	LABEL	16137	Pstat Serial Number
CTRLMODE	IQUANT	1	Control Mode
IESTAB	IQUANT	0	I/E Stability
CASPEED	IQUANT	1	Control Amp Speed
CONVENTION	IQUANT	1	Current Convention
ICHRANGE	IQUANT	2	Ich Range
ICHRANGEMODE	TOGGLE	F	Ich Auto Range
ICHOFFSETENABLE	TOGGLE	T	Ich Offset Enable
ICHOFFSET	QUANT	0	Ich Offset (V)
ICHFILTER	IQUANT	3	Ich Filter
VCHRANGE	IQUANT	2	Vch Range
VCHRANGEMODE	TOGGLE	F	Vch Auto Range
VCHOFFSETENABLE	TOGGLE	T	Vch Offset Enable
VCHOFFSET	QUANT	0	Vch Offset (V)
VCHFILTER	IQUANT	3	Vch Filter
ACHRANGE	IQUANT	2	Ach Range
ACHOFFSETENABLE	TOGGLE	F	Ach Offset Enable
ACHOFFSET	QUANT	0	Ach Offset (V)
ACHFILTER	IQUANT	3	Ach Filter
IERANGELOWERLIMIT	IQUANT	2	I/E Range Lower Limit
IERANGEMODE	TOGGLE	F	I/E AutoRange
IERANGE	IQUANT	11	I/E Range
POSFEEDENABLE	TOGGLE	F	Positive Feedback IR Comp
POSFEEDRESISTANCE	QUANT	0	Positive Feedback Resistance (ohm)
ACHSELECT	IQUANT	0	Ach Select
CABLEID	IQUANT	13	Cable ID
DCCALDATE	LABEL	7/31/2020	DC Calibration Date
ACCALDATE	LABEL	7/31/2020	AC Calibration Date
THERMOSELECT	IQUANT	1	Thermo Select
FRAMEWORKVERSION	QUANT	6.33	Framework Version
INSTRUMENTVERSION	LABEL	3.50	Instrument Version
COMPLIANCEVOLTAGE	IQUANT	0	Compliance Voltage
ZCURVE	TABLE
	Pt	Time	Freq	Zreal	Zimag	Zsig	Zmod	Zphz	Idc	Vdc	IERange
	#	s	Hz	ohm	ohm	V	ohm	°	A	V	#
	0	14	300046.9	-50.58434	-4789.357	1	4789.625	-90.60513	-2.966809E-005	-0.0012481	9
	1	28	238359.4	100.6051	-5918.101	1	5918.956	-89.02609	2.087549E-005	-0.0022352	9
	2	42	189328.1	198.3267	-7392.01	1	7394.67	-88.46313	2.688508E-005	-0.0015196	9
	3	50	150421.9	143.0916	-9298.799	1	9299.899	-89.11839	-2.156502E-005	0.0015672	9
	4	58	119484.4	917.0729	-11621.36	1	11657.49	-85.48798	-9.416563E-005	0.0334669	8
	5	66	94921.88	571.3936	-14613.96	1	14625.13	-87.76093	-1.616888E-005	0.0006537	8
	6	74	75421.88	584.3882	-18147.11	1	18156.51	-88.15555	1.657293E-005	-0.009332	8
	7	83	59859.37	1001.521	-23122.48	1	23144.16	-87.51986	-1.587938E-005	0.0005997	8
	8	91	47578.12	3867.512	-29922.26	1	30171.17	-82.63524	-3.828022E-006	0.0257165	7
	9	98	37828.12	4487.146	-36847.51	1	37119.72	-83.05693	-3.365597E-006	-0.0053334	7
	10	105	30046.88	1107.126	-44138.8	1	44152.68	-88.56316	-2.645546E-005	0.0076392	8
	11	114	23859.38	1797.47	-54773.61	1	54803.1	-88.12044	-1.974582E-006	0.0077662	8
	12	120	18984.38	4128.903	-71978.95	1	72097.27	-86.71696	-3.58747E-006	0.0257887	7
	13	125	15046.87	7086.736	-90302.8	1	90580.45	-85.51277	2.620303E-005	-0.0051006	8
	14	133	11953.13	6013.705	-122576.5	1	122723.9	-87.19128	-2.072623E-005	0.0029056	8
	15	141	9515.62	4887.706	-141465	1	141549.4	-88.02118	2.810141E-006	0.0084518	7
	16	147	7546.875	9247.353	-176803.2	1	177044.9	-87.00598	5.442305E-006	-0.0269824	7
	17	153	5928.309	-12245.38	-226008	1	226339.5	-93.10132	4.972071E-006	-0.0006321	7
	18	159	4733.456	41374.83	-311165	1	313903.7	-82.42596	-2.053882E-005	0.0028388	8
	19	168	3796.875	11919.94	-378438.4	1	378626.1	-88.19592	-1.992103E-005	0.0114638	8
	20	175	2987.132	-746.9005	-431460.7	1	431461.4	-90.09918	-5.37428E-006	0.0036462	7
	21	183	2390.625	-521686.3	-418120.6	1	668566.8	-141.2886	1.757977E-005	0.0002656	8
	22	190	1884.191	-275464.3	-57626.21	1	281427.4	-168.1843	-9.555362E-006	-0.0021126	8
	23	200	1516.544	25668.39	-739621.1	1	740066.3	-88.01236	6.682119E-006	-0.01019	7
	24	208	1193.986	2545916	2300625	1	3431409	42.10264	1.657302E-005	-0.0093694	8
	25	217	946.5144	-551207.3	-1317514	1	1428171	-112.7029	-1.054435E-006	-0.0135386	7
	26	225	751.7689	183441.8	-1803190	1	1812497	-84.19118	-2.215808E-007	0.0227704	6
	27	230	597.4265	349470.7	-2076752	1	2105951	-80.4479	7.396765E-007	-0.0162539	6
	28	233	477.4305	107691.2	-2783557	1	2785639	-87.78442	-8.638094E-009	0.0007463	6
	29	238	376.6741	522402	-3630834	1	3668223	-81.81251	-7.91719E-010	0.0005986	5
	30	242	298.2954	545437.2	-4530003	1	4562721	-83.13432	-8.312078E-010	0.0006874	5
	31	245	237.7717	672669.1	-5701580	1	5741124	-83.27139	-8.396948E-010	0.000666	5
	32	248	189.0121	689365.6	-6997410	1	7031285	-84.37354	-8.546397E-010	0.0006829	5
	33	250	150.2404	1003811	-8593231	1	8651662	-83.33724	-8.641528E-010	0.0006665	5
	34	253	119.1737	603090.3	-8179171	1	8201375	-85.78294	-7.58323E-010	0.0006165	5
	35	256	95.0169	1341454	-1.377307E+007	1	1.383824E+007	-84.43712	-8.750283E-010	0.0006873	5
	36	259	75.60484	1542785	-1.777727E+007	1	1.784409E+007	-85.04006	-8.305837E-010	0.0006818	5
	37	262	54.50582	1959164	-2.383792E+007	1	2.391829E+007	-85.3016	-7.675257E-010	0.0006168	5
	38	265	45.95588	1810785	-2.797386E+007	1	2.803241E+007	-86.29633	-8.668737E-010	0.0006963	5
	39	269	37.20238	2614125	-3.707176E+007	1	3.716381E+007	-85.96645	-8.261749E-010	0.0007245	5
	40	272	30.04808	8931743	-4.319036E+007	1	4.410424E+007	-78.31596	-1.023647E-010	0.0006244	4
	41	276	23.91582	1.367906E+007	-5.184481E+007	1	5.361904E+007	-75.21955	-1.273245E-010	0.0006529	4
	42	280	18.60119	8729068	-7.419921E+007	1	7.47109E+007	-83.29035	-1.590582E-010	0.0007081	4
	43	284	15.02404	2.073373E+007	-8.226146E+007	1	8.483416E+007	-75.85344	-1.105605E-010	0.0007094	4
	44	287	12.01923	3.127756E+007	-9.997915E+007	1	1.047574E+008	-72.62819	-9.965276E-011	0.000696	4
	45	291	9.450605	4.27867E+007	-1.277512E+008	1	1.347259E+008	-71.48315	-1.002774E-010	0.0006878	4
	46	295	7.512019	5.248759E+007	-1.585616E+008	1	1.670231E+008	-71.68425	-9.226894E-011	0.0006207	4
	47	300	5.978954	9.343164E+007	-1.799753E+008	1	2.027821E+008	-62.56455	-9.667488E-011	0.0006332	4
	48	305	4.734848	1.453286E+008	-2.129307E+008	1	2.577981E+008	-55.68584	-4.1381E-011	0.0008045	3
	49	310	3.75601	1.530891E+008	-2.349812E+008	1	2.804504E+008	-56.91595	-8.002753E-010	0.0006175	5
	50	318	3.004808	2.040504E+008	-2.947484E+008	1	3.584873E+008	-55.30566	-8.701047E-010	0.0006472	5
	51	327	2.372217	2.923363E+008	-3.109152E+008	1	4.267654E+008	-46.76403	-4.091028E-011	0.0006516	3
	52	333	1.878005	3.646565E+008	-3.362524E+008	1	4.960243E+008	-42.67938	-4.06481E-011	0.0007348	3
	53	342	1.512097	4.392824E+008	-3.557085E+008	1	5.652412E+008	-38.99879	-4.071727E-011	0.0006635	3
	54	348	1.201923	5.297555E+008	-3.735032E+008	1	6.481864E+008	-35.18568	-4.067805E-011	0.0006957	3
	55	359	0.956633	6.238426E+008	-3.821571E+008	1	7.315898E+008	-31.49104	-4.125935E-011	8.857161E-005	3
