EXPLAIN
TAG	EISPOT
TITLE	LABEL	Potentiostatic EIS	Test Identifier
DATE	LABEL	8/29/2020	Date
TIME	LABEL	15:03:43	Time
NOTES	NOTES	1	Notes...
	
PSTAT	PSTAT	REF3000-16137	Potentiostat
VDC	POTEN	0.00000E+000	T	DC Voltage (V)
FREQINIT	QUANT	3.00000E+005	Initial Freq. (Hz)
FREQFINAL	QUANT	1.00000E+000	Final Freq. (Hz)
PTSPERDEC	QUANT	1.00000E+001	Points/decade
VAC	QUANT	5.00000E+001	AC Voltage (mV rms)
AREA	QUANT	1.00000E+000	Sample Area (cm^2)
SPEED	SELECTOR	2	Optimize for:
ZGUESS	QUANT	1.00000E+003	Estimated Z (ohms)
EOC	QUANT	0	Open Circuit (V)
SEQUENCER	TOGGLE	TRUE	Run as Sequence
PSTATMODEL	IQUANT	5	Pstat Model
PSTATSECTION	LABEL	REF3000-16137	Pstat Section
PSTATSERIALNO	LABEL	16137	Pstat Serial Number
CTRLMODE	IQUANT	1	Control Mode
IESTAB	IQUANT	0	I/E Stability
CASPEED	IQUANT	1	Control Amp Speed
CONVENTION	IQUANT	1	Current Convention
ICHRANGE	IQUANT	2	Ich Range
ICHRANGEMODE	TOGGLE	F	Ich Auto Range
ICHOFFSETENABLE	TOGGLE	T	Ich Offset Enable
ICHOFFSET	QUANT	0	Ich Offset (V)
ICHFILTER	IQUANT	3	Ich Filter
VCHRANGE	IQUANT	2	Vch Range
VCHRANGEMODE	TOGGLE	F	Vch Auto Range
VCHOFFSETENABLE	TOGGLE	T	Vch Offset Enable
VCHOFFSET	QUANT	0	Vch Offset (V)
VCHFILTER	IQUANT	3	Vch Filter
ACHRANGE	IQUANT	2	Ach Range
ACHOFFSETENABLE	TOGGLE	F	Ach Offset Enable
ACHOFFSET	QUANT	0	Ach Offset (V)
ACHFILTER	IQUANT	3	Ach Filter
IERANGELOWERLIMIT	IQUANT	2	I/E Range Lower Limit
IERANGEMODE	TOGGLE	F	I/E AutoRange
IERANGE	IQUANT	11	I/E Range
POSFEEDENABLE	TOGGLE	F	Positive Feedback IR Comp
POSFEEDRESISTANCE	QUANT	0	Positive Feedback Resistance (ohm)
ACHSELECT	IQUANT	0	Ach Select
CABLEID	IQUANT	13	Cable ID
DCCALDATE	LABEL	7/31/2020	DC Calibration Date
ACCALDATE	LABEL	7/31/2020	AC Calibration Date
THERMOSELECT	IQUANT	1	Thermo Select
FRAMEWORKVERSION	QUANT	6.33	Framework Version
INSTRUMENTVERSION	LABEL	3.50	Instrument Version
COMPLIANCEVOLTAGE	IQUANT	0	Compliance Voltage
ZCURVE	TABLE
	Pt	Time	Freq	Zreal	Zimag	Zsig	Zmod	Zphz	Idc	Vdc	IERange
	#	s	Hz	ohm	ohm	V	ohm	°	A	V	#
	0	7	300046.9	44.58814	-1.085539	1	44.60135	-1.394642	1.00969E-005	-0.0015492	9
	1	10	238359.4	44.7948	-2.028448	1	44.8407	-2.59276	2.732703E-005	-0.0004255	9
	2	13	189328.1	45.10544	-3.021584	1	45.20653	-3.832481	8.999765E-007	0.0004779	9
	3	15	150421.9	45.4899	-4.029473	1	45.66801	-5.06202	1.071507E-007	0.000557	9
	4	18	119484.4	46.00433	-5.090033	1	46.28506	-6.313666	-5.982351E-005	0.0019979	9
	5	21	94921.88	46.73414	-6.07346	1	47.12713	-7.404527	1.734856E-005	-0.0003213	9
	6	23	75421.88	47.41795	-7.386643	1	47.98984	-8.854223	2.015427E-005	-0.0003102	9
	7	26	59859.37	48.26778	-8.819444	1	49.0669	-10.3548	-2.045996E-006	-0.0001541	9
	8	28	47578.12	49.24376	-10.42439	1	50.33503	-11.95247	-1.356462E-005	0.0004312	9
	9	31	37828.12	50.35154	-12.1804	1	51.80386	-13.59901	9.783911E-006	-0.0004825	9
	10	33	30046.88	51.5998	-14.17472	1	53.51133	-15.36053	1.43164E-005	-0.0004961	9
	11	36	23859.38	52.94433	-16.3903	1	55.42332	-17.20128	-1.953046E-006	0.0005143	9
	12	38	18984.38	54.33482	-18.94357	1	57.54243	-19.22086	-4.943112E-006	-8.462815E-006	9
	13	40	15046.87	55.75785	-21.98197	1	59.93451	-21.51633	1.034619E-005	4.228638E-005	9
	14	43	11953.13	57.10089	-25.58576	1	62.5711	-24.13619	3.351445E-006	-0.0002779	9
	15	45	9515.62	58.32442	-30.04858	1	65.60988	-27.2574	-1.245594E-005	0.0006924	9
	16	47	7546.875	59.506	-35.8185	1	69.45451	-31.04504	1.755725E-005	-0.0005486	9
	17	50	5928.309	60.57823	-43.45866	1	74.55453	-35.65556	9.415719E-006	-0.0004185	9
	18	52	4733.456	61.54542	-52.63087	1	80.98054	-40.53557	-1.199653E-005	0.0006438	9
	19	54	3796.875	62.54197	-63.89089	1	89.40662	-45.61127	4.990613E-006	0.0002687	9
	20	57	2987.132	63.71558	-79.38808	1	101.7946	-51.25004	-8.591643E-006	0.0000991	9
	21	59	2390.625	65.0416	-97.4055	1	117.1249	-56.26736	-9.363143E-006	0.0001423	9
	22	61	1884.191	66.58571	-121.9187	1	138.9166	-61.35891	-1.381685E-005	0.0004028	9
	23	63	1516.544	68.26423	-149.9712	1	164.7767	-65.52581	1.429727E-005	-0.0004927	9
	24	66	1193.986	70.82719	-188.4663	1	201.3356	-69.40337	-1.396941E-005	0.0004004	9
	25	68	946.5144	74.78048	-235.3179	1	246.9142	-72.37052	-1.368428E-005	0.0004106	9
	26	71	751.7689	77.94008	-294.3186	1	304.4636	-75.16766	1.946713E-005	-0.0004538	9
	27	73	597.4265	82.043	-366.6882	1	375.7543	-77.38832	-8.174655E-006	0.0006141	9
	28	75	477.4305	88.64047	-452.9653	1	461.5568	-78.92775	4.23972E-007	0.0006505	8
	29	78	376.6741	97.4256	-568.9716	1	577.2524	-80.28342	4.135913E-007	0.00065	8
	30	80	298.2954	108.8672	-711.973	1	720.2483	-81.30629	4.218287E-007	0.0006506	8
	31	82	237.7717	123.5597	-885.0374	1	893.6208	-82.05233	4.09542E-007	0.0006514	8
	32	85	189.0121	143.2414	-1102.628	1	1111.893	-82.59821	4.151246E-007	0.0006493	8
	33	87	150.2404	169.4258	-1373.051	1	1383.465	-82.96562	4.235903E-007	0.0006481	8
	34	90	119.1737	204.5257	-1712.263	1	1724.434	-83.18843	4.201724E-007	0.0006538	8
	35	92	95.0169	250.2379	-2123.418	1	2138.112	-83.27888	4.17315E-007	0.0006574	8
	36	94	75.60484	311.9894	-2637.263	1	2655.653	-83.25324	4.174688E-007	0.0006469	8
	37	97	54.50582	438.1951	-3592.031	1	3618.661	-83.0448	4.333471E-007	0.0006356	8
	38	99	45.95588	530.8779	-4227.46	1	4260.664	-82.84235	5.056868E-008	0.000624	7
	39	102	37.20238	675.4397	-5153.124	1	5197.202	-82.53259	4.825462E-008	0.0006279	7
	40	104	30.04808	872.4022	-6285.531	1	6345.785	-82.0981	4.140686E-008	0.0006253	7
	41	107	23.91582	1162.766	-7784.416	1	7870.779	-81.50449	3.450538E-008	0.0006225	7
	42	109	18.60119	1591.303	-9796.72	1	9925.12	-80.7739	4.371048E-008	0.0006246	7
	43	111	15.02404	2108.117	-11903.69	1	12088.92	-79.95718	5.332554E-008	0.0006459	7
	44	114	12.01923	2849.408	-14553.17	1	14829.5	-78.92204	4.12209E-008	0.0006245	7
	45	116	9.450605	3940.601	-18003.06	1	18429.29	-77.65353	4.905845E-008	0.0006346	7
	46	119	7.512019	5415.905	-21980.16	1	22637.57	-76.15807	5.275454E-008	0.0006415	7
	47	121	5.978954	7408.548	-26636.88	1	27647.96	-74.45709	5.090869E-008	0.000623	7
	48	124	4.734848	10201.07	-32232.66	1	33808.38	-72.43833	5.177432E-008	0.0006383	7
	49	128	3.75601	13899.15	-38588.42	1	41015.27	-70.1915	5.09461E-008	0.000631	7
	50	131	3.004808	18593.14	-45401.54	1	49061.23	-67.72959	2.124913E-009	0.0006986	6
	51	135	2.372217	25059.32	-53278.62	1	58877.68	-64.8103	3.412765E-009	0.0007613	6
	52	139	1.878005	33353.71	-61364.85	1	69843.5	-61.47454	3.27016E-009	0.0006515	6
	53	144	1.512097	42558.12	-68972.91	1	81046.01	-58.32431	1.309795E-009	0.000766	6
	54	149	1.201923	54278.78	-76584.99	1	93869.31	-54.67331	2.415307E-009	0.0006478	6
	55	155	0.956633	67572.7	-83479.38	1	107400.5	-51.01143	-5.863822E-009	2.850053E-005	6
