EXPLAIN
TAG	EISPOT
TITLE	LABEL	Potentiostatic EIS	Test Identifier
DATE	LABEL	8/29/2020	Date
TIME	LABEL	17:25:54	Time
NOTES	NOTES	1	Notes...
	
PSTAT	PSTAT	REF3000-16137	Potentiostat
VDC	POTEN	0.00000E+000	T	DC Voltage (V)
FREQINIT	QUANT	3.00000E+005	Initial Freq. (Hz)
FREQFINAL	QUANT	1.00000E+000	Final Freq. (Hz)
PTSPERDEC	QUANT	1.00000E+001	Points/decade
VAC	QUANT	5.00000E+001	AC Voltage (mV rms)
AREA	QUANT	1.00000E+000	Sample Area (cm^2)
SPEED	SELECTOR	2	Optimize for:
ZGUESS	QUANT	1.00000E+003	Estimated Z (ohms)
EOC	QUANT	0	Open Circuit (V)
SEQUENCER	TOGGLE	TRUE	Run as Sequence
PSTATMODEL	IQUANT	5	Pstat Model
PSTATSECTION	LABEL	REF3000-16137	Pstat Section
PSTATSERIALNO	LABEL	16137	Pstat Serial Number
CTRLMODE	IQUANT	1	Control Mode
IESTAB	IQUANT	0	I/E Stability
CASPEED	IQUANT	1	Control Amp Speed
CONVENTION	IQUANT	1	Current Convention
ICHRANGE	IQUANT	2	Ich Range
ICHRANGEMODE	TOGGLE	F	Ich Auto Range
ICHOFFSETENABLE	TOGGLE	T	Ich Offset Enable
ICHOFFSET	QUANT	0	Ich Offset (V)
ICHFILTER	IQUANT	3	Ich Filter
VCHRANGE	IQUANT	2	Vch Range
VCHRANGEMODE	TOGGLE	F	Vch Auto Range
VCHOFFSETENABLE	TOGGLE	T	Vch Offset Enable
VCHOFFSET	QUANT	0	Vch Offset (V)
VCHFILTER	IQUANT	3	Vch Filter
ACHRANGE	IQUANT	2	Ach Range
ACHOFFSETENABLE	TOGGLE	F	Ach Offset Enable
ACHOFFSET	QUANT	0	Ach Offset (V)
ACHFILTER	IQUANT	3	Ach Filter
IERANGELOWERLIMIT	IQUANT	2	I/E Range Lower Limit
IERANGEMODE	TOGGLE	F	I/E AutoRange
IERANGE	IQUANT	11	I/E Range
POSFEEDENABLE	TOGGLE	F	Positive Feedback IR Comp
POSFEEDRESISTANCE	QUANT	0	Positive Feedback Resistance (ohm)
ACHSELECT	IQUANT	0	Ach Select
CABLEID	IQUANT	13	Cable ID
DCCALDATE	LABEL	7/31/2020	DC Calibration Date
ACCALDATE	LABEL	7/31/2020	AC Calibration Date
THERMOSELECT	IQUANT	1	Thermo Select
FRAMEWORKVERSION	QUANT	6.33	Framework Version
INSTRUMENTVERSION	LABEL	3.50	Instrument Version
COMPLIANCEVOLTAGE	IQUANT	0	Compliance Voltage
ZCURVE	TABLE
	Pt	Time	Freq	Zreal	Zimag	Zsig	Zmod	Zphz	Idc	Vdc	IERange
	#	s	Hz	ohm	ohm	V	ohm	°	A	V	#
	0	14	300046.9	-55.04672	-4820.151	1	4820.465	-90.6543	8.330813E-005	-0.0036377	9
	1	28	238359.4	67.41635	-6147.743	1	6148.112	-89.37172	2.360984E-005	-0.0004587	9
	2	46	189328.1	81.11597	-7424.281	1	7424.724	-89.37402	2.779989E-005	-0.0019105	9
	3	57	150421.9	173.3992	-9211.548	1	9213.18	-88.92159	-2.161143E-005	0.001562	9
	4	67	119484.4	595.387	-11352.17	1	11367.77	-86.99776	-7.910238E-005	0.0362213	8
	5	74	94921.88	586.9413	-14589.35	1	14601.15	-87.69619	1.664504E-005	-0.0093286	8
	6	83	75421.88	364.03	-18259.3	1	18262.93	-88.85786	-1.201724E-006	-0.0051291	8
	7	91	59859.37	575.1935	-21825.83	1	21833.41	-88.49039	2.627818E-005	-0.0089538	8
	8	99	47578.12	3805.15	-30064.69	1	30304.53	-82.78669	7.842559E-006	-0.0245833	7
	9	107	37828.12	732.2479	-35801.84	1	35809.33	-88.8283	-2.395638E-005	0.0052232	8
	10	115	30046.88	1127.972	-44999.53	1	45013.66	-88.56411	8.317562E-006	-0.0077656	8
	11	125	23859.38	4935.465	-57229.46	1	57441.88	-85.07101	3.558761E-006	-0.0246248	7
	12	130	18984.38	4802.29	-72263.13	1	72422.52	-86.19797	6.648699E-006	-0.0101786	7
	13	136	15046.87	6060.344	-89701.98	1	89906.47	-86.13492	-9.811514E-007	-0.0134759	7
	14	141	11953.13	4024.372	-113561	1	113632.2	-87.97041	-5.414057E-006	0.0268432	7
	15	146	9515.62	6700.262	-142966.8	1	143123.8	-87.31675	-7.451359E-006	0.0191507	7
	16	153	7546.875	3350.34	-175420.2	1	175452.2	-88.90585	1.382041E-006	-0.0202914	7
	17	158	5928.309	11390.49	-218050.4	1	218347.7	-87.0097	6.907739E-006	-0.0271365	7
	18	165	4733.456	-11390.99	-208777.4	1	209087.9	-93.12299	-2.046801E-005	0.0027909	8
	19	173	3796.875	-92879.94	-253372.2	1	269859.5	-110.1317	2.708437E-005	-0.00519	8
	20	181	2987.132	6522.585	-275231.8	1	275309.1	-88.64243	2.489668E-005	-0.0001889	9
	21	190	2390.625	-536026.3	71342.55	1	540753.1	172.4188	1.653643E-005	0.00068	8
	22	199	1884.191	-150817.3	-817767.5	1	831558.5	-100.4494	2.804196E-006	0.0087031	7
	23	206	1516.544	90347.84	-611488.4	1	618126.9	-81.59531	-9.629231E-006	-0.0020858	8
	24	215	1193.986	-72935.92	-1267007	1	1269105	-93.29462	-5.375273E-006	0.0035814	7
	25	222	946.5144	-423356.9	-510004.7	1	662824.1	-129.6962	2.25451E-005	-0.0097378	8
	26	229	751.7689	281847.8	2670.488	1	281860.4	0.5428573	2.350026E-005	-0.0029026	8
	27	235	597.4265	60173	367874.1	1	372762.9	80.71042	-1.218301E-005	0.0010385	9
	28	241	477.4305	36567.71	-2801981	1	2802219	-89.2523	-6.718275E-008	0.0006065	7
	29	247	376.6741	471111.5	-3661679	1	3691861	-82.6686	-7.987121E-010	0.0006843	5
	30	251	298.2954	511487.6	-4558425	1	4587032	-83.59779	-8.231296E-010	0.0006538	5
	31	254	237.7717	574793.5	-5772325	1	5800872	-84.31338	-7.476276E-010	0.000625	5
	32	256	189.0121	545798.6	-7085242	1	7106233	-85.59502	-8.688492E-010	0.0006855	5
	33	259	150.2404	673736.8	-8538770	1	8565309	-85.48853	-8.126705E-010	0.0006866	5
	34	262	119.1737	3280806	-8961238	1	9.542928E+006	-69.89178	-7.883605E-010	0.0006523	5
	35	265	95.0169	700247.6	-1.375803E+007	1	1.377584E+007	-87.08631	-7.626519E-010	0.0006044	5
	36	267	75.60484	109518.9	-1.811364E+007	1	1.811398E+007	-89.65358	-7.861631E-010	0.0006064	5
	37	270	54.50582	617355.2	-2.400138E+007	1	2.400932E+007	-88.52658	-8.04549E-010	0.0006043	5
	38	274	45.95588	559554.3	-2.744096E+007	1	2.744666E+007	-88.83183	-7.696476E-010	0.0006053	5
	39	277	37.20238	-647932.6	-3.367865E+007	1	3.368488E+007	-91.10216	-8.579675E-010	0.0006224	5
	40	281	30.04808	2130802	-4.336644E+007	1	4.341876E+007	-87.18704	-8.760875E-010	0.0006914	5
	41	285	23.91582	2060019	-5.781052E+007	1	5.784721E+007	-87.95919	-7.210523E-011	0.0007045	4
	42	289	18.60119	-659613.3	-8.283376E+007	1	8.283638E+007	-90.45625	-1.73199E-010	0.0006333	4
	43	293	15.02404	6624946	-8.583074E+007	1	8.608603E+007	-85.58631	-1.0947E-010	0.0007076	4
	44	296	12.01923	6686733	-1.074767E+008	1	1.076845E+008	-86.4399	-1.053221E-010	0.0006113	4
	45	300	9.450605	7874820	-1.411958E+008	1	1.414152E+008	-86.80779	-9.411847E-011	0.0006143	4
	46	304	7.512019	7000208	-1.724023E+008	1	1.725443E+008	-87.67484	-1.051837E-010	0.0007035	4
	47	308	5.978954	2.191244E+007	-2.235307E+008	1	2.246021E+008	-84.40125	-9.185645E-011	0.0006155	4
	48	314	4.734848	5.041295E+007	-2.848556E+008	1	2.892821E+008	-79.96387	-4.126002E-011	0.000758	3
	49	319	3.75601	3.295438E+007	-3.313939E+008	1	3.330284E+008	-84.32108	-8.723171E-010	0.0007182	5
	50	327	3.004808	2.296629E+007	-4.67553E+008	1	4.681167E+008	-87.18788	-8.914067E-010	0.0006692	5
	51	336	2.372217	7.260859E+007	-5.43744E+008	1	5.485704E+008	-82.39403	-4.100318E-011	0.0006534	3
	52	342	1.878005	8.716759E+007	-6.83396E+008	1	6.889327E+008	-82.73114	-4.086052E-011	0.000743	3
	53	351	1.512097	1.065157E+008	-8.429951E+008	1	8.496978E+008	-82.79861	-4.093373E-011	0.0007066	3
	54	357	1.201923	1.361432E+008	-1.059613E+009	1	1.068323E+009	-82.67853	-4.084241E-011	0.0007528	3
	55	368	0.956633	1.886196E+008	-1.329929E+009	1	1.343238E+009	-81.92776	-4.100635E-011	9.026425E-005	3
