EXPLAIN
TAG	EISPOT
TITLE	LABEL	Potentiostatic EIS	Test Identifier
DATE	LABEL	8/29/2020	Date
TIME	LABEL	15:06:28	Time
NOTES	NOTES	1	Notes...
	
PSTAT	PSTAT	REF3000-16137	Potentiostat
VDC	POTEN	0.00000E+000	T	DC Voltage (V)
FREQINIT	QUANT	3.00000E+005	Initial Freq. (Hz)
FREQFINAL	QUANT	1.00000E+000	Final Freq. (Hz)
PTSPERDEC	QUANT	1.00000E+001	Points/decade
VAC	QUANT	5.00000E+001	AC Voltage (mV rms)
AREA	QUANT	1.00000E+000	Sample Area (cm^2)
SPEED	SELECTOR	2	Optimize for:
ZGUESS	QUANT	1.00000E+003	Estimated Z (ohms)
EOC	QUANT	0	Open Circuit (V)
SEQUENCER	TOGGLE	TRUE	Run as Sequence
PSTATMODEL	IQUANT	5	Pstat Model
PSTATSECTION	LABEL	REF3000-16137	Pstat Section
PSTATSERIALNO	LABEL	16137	Pstat Serial Number
CTRLMODE	IQUANT	1	Control Mode
IESTAB	IQUANT	0	I/E Stability
CASPEED	IQUANT	1	Control Amp Speed
CONVENTION	IQUANT	1	Current Convention
ICHRANGE	IQUANT	2	Ich Range
ICHRANGEMODE	TOGGLE	F	Ich Auto Range
ICHOFFSETENABLE	TOGGLE	T	Ich Offset Enable
ICHOFFSET	QUANT	0	Ich Offset (V)
ICHFILTER	IQUANT	3	Ich Filter
VCHRANGE	IQUANT	2	Vch Range
VCHRANGEMODE	TOGGLE	F	Vch Auto Range
VCHOFFSETENABLE	TOGGLE	T	Vch Offset Enable
VCHOFFSET	QUANT	0	Vch Offset (V)
VCHFILTER	IQUANT	3	Vch Filter
ACHRANGE	IQUANT	2	Ach Range
ACHOFFSETENABLE	TOGGLE	F	Ach Offset Enable
ACHOFFSET	QUANT	0	Ach Offset (V)
ACHFILTER	IQUANT	3	Ach Filter
IERANGELOWERLIMIT	IQUANT	2	I/E Range Lower Limit
IERANGEMODE	TOGGLE	F	I/E AutoRange
IERANGE	IQUANT	11	I/E Range
POSFEEDENABLE	TOGGLE	F	Positive Feedback IR Comp
POSFEEDRESISTANCE	QUANT	0	Positive Feedback Resistance (ohm)
ACHSELECT	IQUANT	0	Ach Select
CABLEID	IQUANT	13	Cable ID
DCCALDATE	LABEL	7/31/2020	DC Calibration Date
ACCALDATE	LABEL	7/31/2020	AC Calibration Date
THERMOSELECT	IQUANT	1	Thermo Select
FRAMEWORKVERSION	QUANT	6.33	Framework Version
INSTRUMENTVERSION	LABEL	3.50	Instrument Version
COMPLIANCEVOLTAGE	IQUANT	0	Compliance Voltage
ZCURVE	TABLE
	Pt	Time	Freq	Zreal	Zimag	Zsig	Zmod	Zphz	Idc	Vdc	IERange
	#	s	Hz	ohm	ohm	V	ohm	°	A	V	#
	0	6	300046.9	46.74108	-1.113809	1	46.75435	-1.365062	-2.039099E-007	0.0002488	9
	1	10	238359.4	47.11533	-2.077351	1	47.1611	-2.52458	-4.080857E-005	0.0004233	9
	2	13	189328.1	47.50658	-3.044491	1	47.60403	-3.666824	-2.907226E-005	-0.0001587	9
	3	15	150421.9	47.86132	-4.062974	1	48.03346	-4.852238	-1.046787E-005	-0.0007268	9
	4	18	119484.4	48.44359	-5.122245	1	48.71364	-6.035816	5.563339E-005	-0.0018691	9
	5	20	94921.88	49.13882	-6.194508	1	49.52773	-7.184886	-1.503982E-005	0.0004911	9
	6	23	75421.88	49.86271	-7.556013	1	50.43196	-8.616836	1.912326E-005	-0.0003363	9
	7	25	59859.37	50.72702	-9.062173	1	51.53013	-10.1288	-1.420324E-005	0.0003434	9
	8	28	47578.12	51.72606	-10.68055	1	52.81722	-11.66665	2.964939E-006	-0.0002986	9
	9	31	37828.12	52.89899	-12.52397	1	54.36132	-13.31967	-1.331913E-005	0.0006204	9
	10	33	30046.88	54.17645	-14.54554	1	56.0951	-15.02862	1.162472E-005	9.418406E-005	9
	11	36	23859.38	55.58175	-16.82279	1	58.07182	-16.83936	-1.491886E-005	0.0004693	9
	12	38	18984.38	57.04875	-19.45195	1	60.27386	-18.82787	2.071183E-005	-0.0003575	9
	13	40	15046.87	58.55859	-22.54035	1	62.74692	-21.05269	1.968129E-005	-0.0004724	9
	14	43	11953.13	60.00963	-26.18268	1	65.47281	-23.57203	-1.257593E-005	0.000258	9
	15	45	9515.62	61.35519	-30.74389	1	68.62687	-26.61456	1.606346E-005	-0.0001594	9
	16	47	7546.875	62.5589	-36.54809	1	72.4526	-30.29428	-9.023955E-006	0.0005367	9
	17	49	5928.309	63.77555	-44.24548	1	77.62077	-34.7517	1.676622E-005	-0.0001383	9
	18	52	4733.456	64.83977	-53.40241	1	84.00008	-39.47507	-1.257304E-005	0.000662	9
	19	54	3796.875	65.85513	-64.75853	1	92.36105	-44.51897	-1.457014E-005	0.0003838	9
	20	56	2987.132	67.03814	-80.39711	1	104.6795	-50.17738	-1.258913E-005	0.0006587	9
	21	59	2390.625	68.29519	-98.8065	1	120.1123	-55.34772	2.049662E-005	-0.0004707	9
	22	61	1884.191	69.78873	-123.4856	1	141.8421	-60.52674	1.997611E-005	-0.0004639	9
	23	63	1516.544	71.61969	-151.6924	1	167.7497	-64.72624	-1.440047E-005	0.0003996	9
	24	66	1193.986	74.05431	-190.7682	1	204.6376	-68.78429	1.94178E-005	-0.0002594	9
	25	68	946.5144	77.52345	-238.119	1	250.4207	-71.96651	1.969527E-005	-0.0004823	9
	26	71	751.7689	81.30187	-296.8743	1	307.8057	-74.68451	3.478394E-006	-0.0003049	9
	27	73	597.4265	86.52049	-370.9347	1	380.8915	-76.87051	9.551999E-006	-0.0004424	9
	28	75	477.4305	91.89038	-457.9413	1	467.0696	-78.65372	4.051451E-007	0.0006556	8
	29	77	376.6741	100.5672	-575.2988	1	584.0227	-80.08439	4.094338E-007	0.0006535	8
	30	80	298.2954	111.8254	-719.9977	1	728.63	-81.17172	4.212729E-007	0.0006521	8
	31	82	237.7717	126.3245	-895.1584	1	904.0279	-81.96748	4.062389E-007	0.000649	8
	32	85	189.0121	145.6851	-1115.443	1	1124.916	-82.55886	4.069217E-007	0.0006508	8
	33	87	150.2404	171.3126	-1389.267	1	1399.789	-82.97026	4.076543E-007	0.0006518	8
	34	89	119.1737	205.5491	-1733.089	1	1745.235	-83.23616	4.113645E-007	0.0006501	8
	35	92	95.0169	250.3891	-2149.74	1	2164.273	-83.35646	4.08984E-007	0.0006474	8
	36	94	75.60484	310.2075	-2670.768	1	2688.723	-83.37483	4.036652E-007	0.0006607	8
	37	97	54.50582	433.2578	-3639.436	1	3665.134	-83.21116	4.277792E-007	0.0006539	8
	38	99	45.95588	522.4661	-4282.792	1	4314.543	-83.04475	5.101951E-008	0.0006329	7
	39	102	37.20238	663.5214	-5224.286	1	5266.253	-82.76178	4.532579E-008	0.000677	7
	40	104	30.04808	853.7377	-6379.334	1	6436.208	-82.37747	4.107029E-008	0.0006256	7
	41	106	23.91582	1127.978	-7893.16	1	7973.35	-81.86716	3.544449E-008	0.0006284	7
	42	109	18.60119	1544.496	-9955.9	1	10074.99	-81.18178	5.365619E-008	0.0006292	7
	43	111	15.02404	2040.98	-12106.53	1	12277.37	-80.43077	4.93957E-008	0.0006235	7
	44	113	12.01923	2749.816	-14821.7	1	15074.63	-79.48962	4.993607E-008	0.0006324	7
	45	116	9.450605	3797.926	-18366.13	1	18754.71	-78.31651	4.281506E-008	0.0006739	7
	46	118	7.512019	5205.055	-22469.87	1	23064.86	-76.9577	5.177338E-008	0.0006366	7
	47	121	5.978954	7119.99	-27310.87	1	28223.71	-75.38813	5.088411E-008	0.0006219	7
	48	124	4.734848	9779.57	-33192.52	1	34603.23	-73.58336	4.659049E-008	0.0006174	7
	49	127	3.75601	13386.87	-39896.79	1	42082.8	-71.45146	4.846643E-008	0.0006223	7
	50	131	3.004808	17965.3	-47176.83	1	50481.73	-69.15278	1.266208E-009	0.0006962	6
	51	134	2.372217	24394.97	-55781.99	1	60883.04	-66.37894	2.661398E-009	0.0007483	6
	52	139	1.878005	32462.83	-64905.18	1	72570.77	-63.42772	-1.16297E-010	0.0006415	6
	53	143	1.512097	41660.32	-73575.59	1	84551.45	-60.48039	-2.398541E-010	0.0006891	6
	54	149	1.201923	53736.66	-82878.63	1	98775	-57.04152	1.347942E-010	0.000638	6
	55	155	0.956633	67765.98	-91604.1	1	113945.3	-53.50707	-4.534822E-009	3.29232E-005	6
