EXPLAIN
TAG	EISPOT
TITLE	LABEL	Potentiostatic EIS	Test Identifier
DATE	LABEL	8/29/2020	Date
TIME	LABEL	15:11:57	Time
NOTES	NOTES	1	Notes...
	
PSTAT	PSTAT	REF3000-16137	Potentiostat
VDC	POTEN	0.00000E+000	T	DC Voltage (V)
FREQINIT	QUANT	3.00000E+005	Initial Freq. (Hz)
FREQFINAL	QUANT	1.00000E+000	Final Freq. (Hz)
PTSPERDEC	QUANT	1.00000E+001	Points/decade
VAC	QUANT	5.00000E+001	AC Voltage (mV rms)
AREA	QUANT	1.00000E+000	Sample Area (cm^2)
SPEED	SELECTOR	2	Optimize for:
ZGUESS	QUANT	1.00000E+003	Estimated Z (ohms)
EOC	QUANT	0	Open Circuit (V)
SEQUENCER	TOGGLE	TRUE	Run as Sequence
PSTATMODEL	IQUANT	5	Pstat Model
PSTATSECTION	LABEL	REF3000-16137	Pstat Section
PSTATSERIALNO	LABEL	16137	Pstat Serial Number
CTRLMODE	IQUANT	1	Control Mode
IESTAB	IQUANT	0	I/E Stability
CASPEED	IQUANT	1	Control Amp Speed
CONVENTION	IQUANT	1	Current Convention
ICHRANGE	IQUANT	2	Ich Range
ICHRANGEMODE	TOGGLE	F	Ich Auto Range
ICHOFFSETENABLE	TOGGLE	T	Ich Offset Enable
ICHOFFSET	QUANT	0	Ich Offset (V)
ICHFILTER	IQUANT	3	Ich Filter
VCHRANGE	IQUANT	2	Vch Range
VCHRANGEMODE	TOGGLE	F	Vch Auto Range
VCHOFFSETENABLE	TOGGLE	T	Vch Offset Enable
VCHOFFSET	QUANT	0	Vch Offset (V)
VCHFILTER	IQUANT	3	Vch Filter
ACHRANGE	IQUANT	2	Ach Range
ACHOFFSETENABLE	TOGGLE	F	Ach Offset Enable
ACHOFFSET	QUANT	0	Ach Offset (V)
ACHFILTER	IQUANT	3	Ach Filter
IERANGELOWERLIMIT	IQUANT	2	I/E Range Lower Limit
IERANGEMODE	TOGGLE	F	I/E AutoRange
IERANGE	IQUANT	11	I/E Range
POSFEEDENABLE	TOGGLE	F	Positive Feedback IR Comp
POSFEEDRESISTANCE	QUANT	0	Positive Feedback Resistance (ohm)
ACHSELECT	IQUANT	0	Ach Select
CABLEID	IQUANT	13	Cable ID
DCCALDATE	LABEL	7/31/2020	DC Calibration Date
ACCALDATE	LABEL	7/31/2020	AC Calibration Date
THERMOSELECT	IQUANT	1	Thermo Select
FRAMEWORKVERSION	QUANT	6.33	Framework Version
INSTRUMENTVERSION	LABEL	3.50	Instrument Version
COMPLIANCEVOLTAGE	IQUANT	0	Compliance Voltage
ZCURVE	TABLE
	Pt	Time	Freq	Zreal	Zimag	Zsig	Zmod	Zphz	Idc	Vdc	IERange
	#	s	Hz	ohm	ohm	V	ohm	°	A	V	#
	0	7	300046.9	52.86919	-1.256894	1	52.88412	-1.361874	6.363574E-005	-0.0023773	9
	1	10	238359.4	53.1291	-2.206497	1	53.1749	-2.378177	5.752035E-005	-0.002336	9
	2	13	189328.1	53.49482	-3.337301	1	53.59882	-3.5698	-6.664071E-005	0.0022447	9
	3	16	150421.9	54.00884	-4.316177	1	54.18103	-4.569146	-9.835739E-006	-0.0007851	9
	4	18	119484.4	54.50737	-5.431921	1	54.77736	-5.69101	1.795413E-005	0.0005015	9
	5	21	94921.88	55.25399	-6.523296	1	55.63773	-6.733183	1.243405E-005	-0.0006047	9
	6	23	75421.88	56.00545	-7.96187	1	56.56856	-8.09109	1.360364E-005	-0.0005822	9
	7	26	59859.37	56.92145	-9.58074	1	57.72211	-9.55419	-8.816356E-006	3.124381E-005	9
	8	28	47578.12	57.99612	-11.30786	1	59.08821	-11.03289	-1.434067E-005	0.0004002	9
	9	31	37828.12	59.28222	-13.25965	1	60.74701	-12.60783	-1.054621E-005	0.0006536	9
	10	33	30046.88	60.64704	-15.40702	1	62.57347	-14.25411	-2.659747E-006	-0.0001496	9
	11	36	23859.38	62.199	-17.85333	1	64.71056	-16.01537	9.792875E-006	-0.0004783	9
	12	38	18984.38	63.83805	-20.62765	1	67.08798	-17.90692	3.224035E-006	0.0003149	9
	13	40	15046.87	65.50562	-23.90039	1	69.72958	-20.04501	-1.621345E-005	0.000618	9
	14	43	11953.13	67.25661	-27.75117	1	72.75698	-22.42184	1.790323E-005	-0.0001148	9
	15	45	9515.62	68.81853	-32.33188	1	76.03513	-25.16478	2.130686E-006	0.0003691	9
	16	47	7546.875	70.30193	-38.19026	1	80.00536	-28.51223	1.069085E-005	6.949685E-005	9
	17	50	5928.309	71.72834	-45.94637	1	85.1823	-32.64204	-2.840786E-006	-0.0001442	9
	18	52	4733.456	72.92303	-55.24644	1	91.48737	-37.14754	-2.641505E-006	-0.0001454	9
	19	54	3796.875	74.11925	-66.72832	1	99.7313	-41.99618	2.050708E-005	-0.0003035	9
	20	57	2987.132	75.44682	-82.67384	1	111.9249	-47.61692	-1.336477E-005	0.0006863	9
	21	59	2390.625	76.92372	-101.1149	1	127.0492	-52.73775	-1.30712E-005	0.0002498	9
	22	61	1884.191	78.60077	-126.4897	1	148.9218	-58.14315	1.159663E-005	8.033295E-005	9
	23	64	1516.544	80.20114	-155.1137	1	174.621	-62.65889	1.746655E-005	-0.0001499	9
	24	66	1193.986	82.77384	-194.664	1	211.5315	-66.96413	1.00088E-005	-0.0004801	9
	25	68	946.5144	86.11243	-243.1451	1	257.9436	-70.49786	-1.563842E-005	0.0006833	9
	26	71	751.7689	89.06995	-303.9435	1	316.7256	-73.6669	3.934494E-006	0.0003392	9
	27	73	597.4265	94.2787	-378.1938	1	389.7679	-76.00223	-1.634712E-005	0.0004593	9
	28	75	477.4305	100.2703	-467.7285	1	478.3556	-77.90023	3.936712E-007	0.0006452	8
	29	78	376.6741	108.7646	-587.6925	1	597.6724	-79.51487	3.934544E-007	0.0006412	8
	30	80	298.2954	119.7843	-735.6643	1	745.3524	-80.75199	3.886717E-007	0.000648	8
	31	82	237.7717	133.8717	-914.8597	1	924.6025	-81.67497	3.945149E-007	0.0006439	8
	32	85	189.0121	152.6211	-1140.4	1	1150.567	-82.37733	3.803518E-007	0.0006502	8
	33	87	150.2404	177.3948	-1420.77	1	1431.802	-82.88298	3.802801E-007	0.0006564	8
	34	90	119.1737	210.5978	-1773.002	1	1785.465	-83.22613	3.981527E-007	0.0006507	8
	35	92	95.0169	253.3785	-2200.355	1	2214.896	-83.43113	3.867481E-007	0.0006496	8
	36	95	75.60484	310.51	-2734.746	1	2752.317	-83.52223	3.999781E-007	0.0006452	8
	37	97	54.50582	427.1579	-3730.992	1	3755.365	-83.4687	3.996505E-007	0.0006416	8
	38	100	45.95588	510.6575	-4392.936	1	4422.517	-83.3694	4.714901E-008	0.000617	7
	39	102	37.20238	641.6044	-5359.419	1	5397.687	-83.17331	4.438129E-008	0.0006281	7
	40	104	30.04808	816.6763	-6548.615	1	6599.342	-82.89136	3.352383E-008	0.0006751	7
	41	107	23.91582	1068.768	-8102.875	1	8173.056	-82.48608	3.429914E-008	0.0006187	7
	42	109	18.60119	1459.017	-10253.76	1	10357.05	-81.9017	4.767553E-008	0.0006274	7
	43	111	15.02404	1912.845	-12495.12	1	12640.69	-81.29632	5.148432E-008	0.0006354	7
	44	114	12.01923	2560.532	-15330.15	1	15542.52	-80.51765	3.819087E-008	0.0006205	7
	45	116	9.450605	3535.208	-19066.83	1	19391.8	-79.49599	4.552707E-008	0.0006318	7
	46	119	7.512019	4814.296	-23404.84	1	23894.86	-78.37658	4.822962E-008	0.0006497	7
	47	121	5.978954	6557.477	-28585.95	1	29328.43	-77.08015	4.566369E-008	0.0006244	7
	48	124	4.734848	9023.052	-34887.11	1	36035.06	-75.49903	5.028108E-008	0.0006527	7
	49	128	3.75601	12384.6	-42280.73	1	44057.22	-73.67398	2.502846E-009	0.000704	6
	50	131	3.004808	16644.43	-50489.03	1	53161.82	-71.75446	2.055846E-009	0.0006849	6
	51	135	2.372217	22757.71	-60364.96	1	64512.34	-69.34346	2.254557E-009	0.0007241	6
	52	139	1.878005	30559.68	-71416.09	1	77679.8	-66.83342	-3.30151E-010	0.0006469	6
	53	144	1.512097	39610.32	-82294.78	1	91331.31	-64.29745	5.626705E-010	0.0006714	6
	54	149	1.201923	51898.62	-94724.9	1	108010.5	-61.2822	-6.785623E-011	0.0006397	6
	55	155	0.956633	66634.33	-107247.2	1	126262	-58.14668	-3.131088E-009	3.074573E-005	6
