EXPLAIN
TAG	EISPOT
TITLE	LABEL	Potentiostatic EIS	Test Identifier
DATE	LABEL	8/29/2020	Date
TIME	LABEL	15:28:26	Time
NOTES	NOTES	1	Notes...
	
PSTAT	PSTAT	REF3000-16137	Potentiostat
VDC	POTEN	0.00000E+000	T	DC Voltage (V)
FREQINIT	QUANT	3.00000E+005	Initial Freq. (Hz)
FREQFINAL	QUANT	1.00000E+000	Final Freq. (Hz)
PTSPERDEC	QUANT	1.00000E+001	Points/decade
VAC	QUANT	5.00000E+001	AC Voltage (mV rms)
AREA	QUANT	1.00000E+000	Sample Area (cm^2)
SPEED	SELECTOR	2	Optimize for:
ZGUESS	QUANT	1.00000E+003	Estimated Z (ohms)
EOC	QUANT	0	Open Circuit (V)
SEQUENCER	TOGGLE	TRUE	Run as Sequence
PSTATMODEL	IQUANT	5	Pstat Model
PSTATSECTION	LABEL	REF3000-16137	Pstat Section
PSTATSERIALNO	LABEL	16137	Pstat Serial Number
CTRLMODE	IQUANT	1	Control Mode
IESTAB	IQUANT	0	I/E Stability
CASPEED	IQUANT	1	Control Amp Speed
CONVENTION	IQUANT	1	Current Convention
ICHRANGE	IQUANT	2	Ich Range
ICHRANGEMODE	TOGGLE	F	Ich Auto Range
ICHOFFSETENABLE	TOGGLE	T	Ich Offset Enable
ICHOFFSET	QUANT	0	Ich Offset (V)
ICHFILTER	IQUANT	3	Ich Filter
VCHRANGE	IQUANT	2	Vch Range
VCHRANGEMODE	TOGGLE	F	Vch Auto Range
VCHOFFSETENABLE	TOGGLE	T	Vch Offset Enable
VCHOFFSET	QUANT	0	Vch Offset (V)
VCHFILTER	IQUANT	3	Vch Filter
ACHRANGE	IQUANT	2	Ach Range
ACHOFFSETENABLE	TOGGLE	F	Ach Offset Enable
ACHOFFSET	QUANT	0	Ach Offset (V)
ACHFILTER	IQUANT	3	Ach Filter
IERANGELOWERLIMIT	IQUANT	2	I/E Range Lower Limit
IERANGEMODE	TOGGLE	F	I/E AutoRange
IERANGE	IQUANT	11	I/E Range
POSFEEDENABLE	TOGGLE	F	Positive Feedback IR Comp
POSFEEDRESISTANCE	QUANT	0	Positive Feedback Resistance (ohm)
ACHSELECT	IQUANT	0	Ach Select
CABLEID	IQUANT	13	Cable ID
DCCALDATE	LABEL	7/31/2020	DC Calibration Date
ACCALDATE	LABEL	7/31/2020	AC Calibration Date
THERMOSELECT	IQUANT	1	Thermo Select
FRAMEWORKVERSION	QUANT	6.33	Framework Version
INSTRUMENTVERSION	LABEL	3.50	Instrument Version
COMPLIANCEVOLTAGE	IQUANT	0	Compliance Voltage
ZCURVE	TABLE
	Pt	Time	Freq	Zreal	Zimag	Zsig	Zmod	Zphz	Idc	Vdc	IERange
	#	s	Hz	ohm	ohm	V	ohm	°	A	V	#
	0	7	300046.9	83.53361	-1.933265	1	83.55598	-1.325792	-3.540729E-005	-0.0005429	9
	1	10	238359.4	83.77616	-3.04829	1	83.8316	-2.083852	-9.392877E-006	0.000611	9
	2	13	189328.1	84.21368	-4.086538	1	84.31277	-2.778146	1.120045E-005	-0.0008867	9
	3	15	150421.9	84.6977	-5.366367	1	84.86753	-3.625361	-3.187909E-006	0.0009973	9
	4	18	119484.4	85.45428	-6.524915	1	85.70303	-4.366382	1.65427E-005	-0.0004702	9
	5	20	94921.88	86.22891	-7.823081	1	86.58306	-5.183943	-1.549241E-005	0.0003364	9
	6	23	75421.88	87.10806	-9.61884	1	87.63752	-6.301313	-1.97364E-005	0.0005693	9
	7	26	59859.37	88.18608	-11.58746	1	88.94411	-7.485657	3.56768E-006	0.0004491	9
	8	28	47578.12	89.53945	-13.77469	1	90.5928	-8.745782	-1.876679E-005	0.0007704	9
	9	31	37828.12	91.11158	-16.2537	1	92.55	-10.11479	1.85267E-005	-0.0001803	9
	10	33	30046.88	92.90606	-18.93402	1	94.81579	-11.51899	1.667657E-005	-0.0006698	9
	11	36	23859.38	94.99057	-22.01738	1	97.5088	-13.04986	-1.835742E-005	0.0007675	9
	12	38	18984.38	97.2713	-25.46677	1	100.5498	-14.67141	-1.125518E-005	0.0008112	9
	13	40	15046.87	99.8678	-29.48825	1	104.1304	-16.45044	-1.160585E-005	0.0008351	9
	14	43	11953.13	102.5298	-33.88166	1	107.983	-18.28648	-2.450818E-006	-0.0002257	9
	15	45	9515.62	105.2361	-39.25424	1	112.3188	-20.45609	1.925961E-005	-0.0001039	9
	16	47	7546.875	107.9102	-45.55082	1	117.1302	-22.88547	2.251348E-005	-0.0002474	9
	17	50	5928.309	110.7518	-53.68306	1	123.0765	-25.86017	1.142767E-005	0.00016	9
	18	52	4733.456	113.1082	-63.24054	1	129.5872	-29.21022	-1.962403E-005	0.0006372	9
	19	54	3796.875	115.2171	-75.06387	1	137.512	-33.08422	-1.986471E-005	0.0005917	9
	20	57	2987.132	117.4035	-91.31573	1	148.7352	-37.87556	-9.312213E-006	2.065396E-005	9
	21	59	2390.625	119.322	-110.5319	1	162.65	-42.80996	-9.413609E-006	2.984921E-005	9
	22	61	1884.191	121.2746	-137.0126	1	182.9754	-48.48687	1.246188E-005	-0.0006053	9
	23	63	1516.544	123.5272	-167.0765	1	207.7824	-53.5228	1.790206E-005	-0.0006642	9
	24	66	1193.986	126.3537	-208.6755	1	243.9482	-58.80495	-1.844427E-005	0.000484	9
	25	68	946.5144	129.0164	-260.5085	1	290.7059	-63.65316	-9.596726E-006	1.420897E-005	9
	26	71	751.7689	133.5974	-324.1041	1	350.5591	-67.59829	-1.159628E-005	0.0007875	9
	27	73	597.4265	138.5202	-403.7415	1	426.8431	-71.06335	2.177782E-005	-0.0002543	9
	28	75	477.4305	144.2699	-498.6843	1	519.1337	-73.86478	2.895211E-007	0.0006536	8
	29	77	376.6741	152.749	-626.4537	1	644.8074	-76.29689	2.919778E-007	0.000655	8
	30	80	298.2954	163.5874	-784.2024	1	801.0831	-78.21687	2.925774E-007	0.0006615	8
	31	82	237.7717	177.3066	-975.468	1	991.451	-79.69807	3.144717E-007	0.0006514	8
	32	85	189.0121	195.3591	-1216.304	1	1231.893	-80.87526	2.964718E-007	0.0006551	8
	33	87	150.2404	218.9377	-1516.175	1	1531.901	-81.78321	3.075511E-007	0.0006523	8
	34	89	119.1737	250.0637	-1893.057	1	1909.502	-82.47507	2.951921E-007	0.000671	8
	35	92	95.0169	289.3973	-2351.225	1	2368.968	-82.98312	3.012917E-007	0.0006508	8
	36	94	75.60484	341.2754	-2925.179	1	2945.02	-83.34549	3.171007E-007	0.0006506	8
	37	97	54.50582	444.135	-3995.659	1	4020.267	-83.65736	2.993783E-007	0.0006508	8
	38	99	45.95588	517.5749	-4710.432	1	4738.782	-83.72958	3.368834E-008	0.0006237	7
	39	102	37.20238	630.0955	-5758.096	1	5792.468	-83.7551	3.102436E-008	0.0006271	7
	40	104	30.04808	777.6938	-7046.764	1	7089.548	-83.70222	2.683348E-008	0.0006206	7
	41	106	23.91582	989.357	-8750.506	1	8806.258	-83.54937	2.388159E-008	0.0006268	7
	42	109	18.60119	1301.758	-11087.76	1	11163.92	-83.30385	3.441338E-008	0.0006232	7
	43	111	15.02404	1666.565	-13556.72	1	13658.77	-82.99163	3.380007E-008	0.0006216	7
	44	113	12.01923	2180.999	-16712.06	1	16853.78	-82.56467	3.191068E-008	0.0006247	7
	45	116	9.450605	2933.833	-20909.1	1	21113.92	-82.01276	3.371901E-008	0.0006069	7
	46	118	7.512019	3947.786	-25830.76	1	26130.7	-81.31057	3.43834E-008	0.0006394	7
	47	121	5.978954	5315.725	-31818.33	1	32259.31	-80.51548	3.314767E-008	0.000625	7
	48	124	4.734848	7250.802	-39298.96	1	39962.26	-79.54628	3.485611E-008	0.0006382	7
	49	127	3.75601	9844.46	-48290.53	1	49283.75	-78.47763	4.146185E-009	0.0007127	6
	50	131	3.004808	13254.02	-58611.71	1	60091.61	-77.25787	1.870732E-009	0.0007028	6
	51	135	2.372217	18080.38	-71635.49	1	73881.96	-75.83472	2.942695E-009	0.000708	6
	52	139	1.878005	24675.37	-86950.05	1	90383.55	-74.1567	2.813543E-009	0.0006459	6
	53	143	1.512097	32532.9	-103365.1	1	108363.9	-72.52924	2.100389E-009	0.0007665	6
	54	149	1.201923	43180.79	-123527.6	1	130857.4	-70.73222	2.451695E-009	0.000638	6
	55	155	0.956633	56520.57	-146353.8	1	156888.5	-68.88387	-4.388943E-010	2.753911E-005	6
