EXPLAIN
TAG	EISPOT
TITLE	LABEL	Potentiostatic EIS	Test Identifier
DATE	LABEL	8/29/2020	Date
TIME	LABEL	17:32:13	Time
NOTES	NOTES	1	Notes...
	
PSTAT	PSTAT	REF3000-16137	Potentiostat
VDC	POTEN	0.00000E+000	T	DC Voltage (V)
FREQINIT	QUANT	3.00000E+005	Initial Freq. (Hz)
FREQFINAL	QUANT	1.00000E+000	Final Freq. (Hz)
PTSPERDEC	QUANT	1.00000E+001	Points/decade
VAC	QUANT	5.00000E+001	AC Voltage (mV rms)
AREA	QUANT	1.00000E+000	Sample Area (cm^2)
SPEED	SELECTOR	2	Optimize for:
ZGUESS	QUANT	1.00000E+003	Estimated Z (ohms)
EOC	QUANT	0	Open Circuit (V)
SEQUENCER	TOGGLE	TRUE	Run as Sequence
PSTATMODEL	IQUANT	5	Pstat Model
PSTATSECTION	LABEL	REF3000-16137	Pstat Section
PSTATSERIALNO	LABEL	16137	Pstat Serial Number
CTRLMODE	IQUANT	1	Control Mode
IESTAB	IQUANT	0	I/E Stability
CASPEED	IQUANT	1	Control Amp Speed
CONVENTION	IQUANT	1	Current Convention
ICHRANGE	IQUANT	2	Ich Range
ICHRANGEMODE	TOGGLE	F	Ich Auto Range
ICHOFFSETENABLE	TOGGLE	T	Ich Offset Enable
ICHOFFSET	QUANT	0	Ich Offset (V)
ICHFILTER	IQUANT	3	Ich Filter
VCHRANGE	IQUANT	2	Vch Range
VCHRANGEMODE	TOGGLE	F	Vch Auto Range
VCHOFFSETENABLE	TOGGLE	T	Vch Offset Enable
VCHOFFSET	QUANT	0	Vch Offset (V)
VCHFILTER	IQUANT	3	Vch Filter
ACHRANGE	IQUANT	2	Ach Range
ACHOFFSETENABLE	TOGGLE	F	Ach Offset Enable
ACHOFFSET	QUANT	0	Ach Offset (V)
ACHFILTER	IQUANT	3	Ach Filter
IERANGELOWERLIMIT	IQUANT	2	I/E Range Lower Limit
IERANGEMODE	TOGGLE	F	I/E AutoRange
IERANGE	IQUANT	11	I/E Range
POSFEEDENABLE	TOGGLE	F	Positive Feedback IR Comp
POSFEEDRESISTANCE	QUANT	0	Positive Feedback Resistance (ohm)
ACHSELECT	IQUANT	0	Ach Select
CABLEID	IQUANT	13	Cable ID
DCCALDATE	LABEL	7/31/2020	DC Calibration Date
ACCALDATE	LABEL	7/31/2020	AC Calibration Date
THERMOSELECT	IQUANT	1	Thermo Select
FRAMEWORKVERSION	QUANT	6.33	Framework Version
INSTRUMENTVERSION	LABEL	3.50	Instrument Version
COMPLIANCEVOLTAGE	IQUANT	0	Compliance Voltage
ZCURVE	TABLE
	Pt	Time	Freq	Zreal	Zimag	Zsig	Zmod	Zphz	Idc	Vdc	IERange
	#	s	Hz	ohm	ohm	V	ohm	°	A	V	#
	0	14	300046.9	-58.64173	-4858.665	1	4859.019	-90.6915	2.183106E-005	-0.000562	9
	1	29	238359.4	-30.89868	-6018.905	1	6018.984	-90.29413	2.789969E-005	-0.0020742	9
	2	43	189328.1	208.595	-7462.955	1	7465.869	-88.39896	-1.575117E-005	0.0018831	9
	3	52	150421.9	91.53718	-9220.736	1	9221.19	-89.43123	2.187987E-005	-0.000357	9
	4	67	119484.4	457.5873	-11595.5	1	11604.52	-87.74014	-4.137647E-005	0.0224484	8
	5	74	94921.88	693.8375	-14601.01	1	14617.49	-87.27937	-2.691144E-005	0.0097364	8
	6	83	75421.88	572.1354	-18098.27	1	18107.31	-88.18933	2.345809E-005	-0.0028638	8
	7	92	59859.37	751.4628	-22785.88	1	22798.26	-88.11111	-2.498509E-005	0.0111792	8
	8	100	47578.12	760.6185	-28491.11	1	28501.26	-88.47076	-1.991904E-005	0.0113426	8
	9	110	37828.12	450.2297	-35594.82	1	35597.67	-89.27532	-2.483858E-005	0.0110575	8
	10	119	30046.88	593.5043	-44265.94	1	44269.92	-89.23184	-1.604393E-005	0.0005752	8
	11	127	23859.38	1898.168	-56423.13	1	56455.05	-88.0732	-1.604245E-005	0.0006475	8
	12	135	18984.38	3164.242	-71866.96	1	71936.59	-87.47894	-3.175312E-006	-0.0061038	7
	13	140	15046.87	4747.624	-89962.61	1	90087.8	-86.97912	-7.441455E-006	0.0192671	7
	14	146	11953.13	6178.526	-112954.3	1	113123.1	-86.86908	-6.802279E-006	0.0121907	7
	15	151	9515.62	4226.784	-142075.3	1	142138.2	-88.29594	6.696437E-006	-0.0105979	7
	16	157	7546.875	7686.362	-178059.5	1	178225.3	-87.52823	-3.595206E-006	0.025581	7
	17	164	5928.309	10146.29	-238680.3	1	238895.8	-87.56583	2.815391E-006	0.0085636	7
	18	170	4733.456	1885.762	-280530.4	1	280536.8	-89.61485	3.557321E-006	-0.0247325	7
	19	177	3796.875	1612.721	-362931.4	1	362935	-89.7454	-6.611708E-006	0.0261152	7
	20	183	2987.132	91404.92	-261680.2	1	277184.7	-70.74568	1.747105E-005	0.0003272	8
	21	191	2390.625	5671.479	-548895.3	1	548924.6	-89.40801	4.752654E-007	0.016409	7
	22	199	1884.191	19445	-740118.4	1	740373.8	-88.49503	-2.123774E-007	0.0225699	6
	23	204	1516.544	60215.24	-895356.7	1	897379.3	-86.15249	7.378952E-007	-0.0160489	6
	24	209	1193.986	-86111.41	-869641.8	1	873894.8	-95.655	6.663808E-006	-0.0100979	7
	25	217	946.5144	645821.8	-491404.8	1	811519.8	-37.26744	7.791653E-006	-0.0248083	7
	26	224	751.7689	1005565	-393650.2	1	1079871	-21.37893	-2.39166E-005	0.0052481	8
	27	231	597.4265	-7824.914	-551964.9	1	552020.4	-90.81219	2.282906E-005	-0.0097676	8
	28	238	477.4305	39498.59	-2787007	1	2787287	-89.18803	-6.770187E-008	0.0006213	7
	29	244	376.6741	478729.9	-3666477	1	3697599	-82.561	-7.861552E-010	0.0005986	5
	30	248	298.2954	502858.3	-4585531	1	4613020	-83.74184	-8.473688E-010	0.0006683	5
	31	251	237.7717	473159.3	-5772784	1	5792143	-85.31429	-8.480341E-010	0.0006915	5
	32	254	189.0121	556385.1	-7076019	1	7097860	-85.5041	-7.347666E-010	0.000625	5
	33	257	150.2404	200756.5	-8903652	1	8905915	-88.70834	-8.09799E-010	0.0006162	5
	34	259	119.1737	-1499368	-8995090	1	9119197	-99.4635	-8.72896E-010	0.0006868	5
	35	262	95.0169	856090.7	-1.363768E+007	1	1.366453E+007	-86.40804	-8.002055E-010	0.0006178	5
	36	265	75.60484	556616.4	-1.677791E+007	1	1.678714E+007	-88.09988	-7.636841E-010	0.0006072	5
	37	268	54.50582	1037960	-2.35696E+007	1	2.359245E+007	-87.47843	-7.980851E-010	0.0006771	5
	38	271	45.95588	2358745	-2.736917E+007	1	2.747063E+007	-85.07428	-8.92574E-010	0.0007083	5
	39	275	37.20238	-475714.8	-3.419205E+007	1	3.419536E+007	-90.7971	-8.779835E-010	0.0006561	5
	40	279	30.04808	1713110	-4.425637E+007	1	4.428952E+007	-87.78326	-8.222703E-010	0.0006877	5
	41	283	23.91582	3018695	-5.933536E+007	1	5.94121E+007	-87.08758	-6.571606E-011	0.0006325	4
	42	287	18.60119	2.36783E+007	-5.980919E+007	1	6.432574E+007	-68.40152	-2.507239E-010	0.0006961	4
	43	290	15.02404	5630863	-8.564795E+007	1	8.583285E+007	-86.23854	-1.119779E-010	0.0006948	4
	44	294	12.01923	4100367	-1.066392E+008	1	1.06718E+008	-87.79801	-9.905902E-011	0.0006885	4
	45	297	9.450605	1.201472E+007	-1.38383E+008	1	1.389036E+008	-85.0379	-9.445373E-011	0.0006206	4
	46	302	7.512019	1.00146E+007	-1.75322E+008	1	1.756078E+008	-86.73075	-1.093137E-010	0.0006128	4
	47	306	5.978954	4974288	-1.974189E+008	1	1.974815E+008	-88.55665	-1.198805E-010	0.0006125	4
	48	311	4.734848	4.907213E+007	-2.852089E+008	1	2.893997E+008	-80.23746	-4.065764E-011	0.0007791	3
	49	316	3.75601	3.195281E+007	-3.584815E+008	1	3.599027E+008	-84.90647	-8.867528E-010	0.000704	5
	50	325	3.004808	2.963274E+007	-3.86008E+008	1	3.871438E+008	-85.61018	-8.250748E-010	0.0006992	5
	51	334	2.372217	7.12175E+007	-5.464539E+008	1	5.510751E+008	-82.57468	-4.037194E-011	0.0006677	3
	52	340	1.878005	8.619005E+007	-6.853464E+008	1	6.907448E+008	-82.83204	-4.045031E-011	0.0007334	3
	53	349	1.512097	1.066762E+008	-8.447994E+008	1	8.51508E+008	-82.80312	-4.05367E-011	0.0006213	3
	54	355	1.201923	1.379152E+008	-1.061705E+009	1	1.070626E+009	-82.59874	-4.0544E-011	0.0007448	3
	55	367	0.956633	1.913023E+008	-1.328132E+009	1	1.341838E+009	-81.80357	-4.030248E-011	8.482942E-005	3
