EXPLAIN
TAG	EISPOT
TITLE	LABEL	Potentiostatic EIS	Test Identifier
DATE	LABEL	8/29/2020	Date
TIME	LABEL	15:33:55	Time
NOTES	NOTES	1	Notes...
	
PSTAT	PSTAT	REF3000-16137	Potentiostat
VDC	POTEN	0.00000E+000	T	DC Voltage (V)
FREQINIT	QUANT	3.00000E+005	Initial Freq. (Hz)
FREQFINAL	QUANT	1.00000E+000	Final Freq. (Hz)
PTSPERDEC	QUANT	1.00000E+001	Points/decade
VAC	QUANT	5.00000E+001	AC Voltage (mV rms)
AREA	QUANT	1.00000E+000	Sample Area (cm^2)
SPEED	SELECTOR	2	Optimize for:
ZGUESS	QUANT	1.00000E+003	Estimated Z (ohms)
EOC	QUANT	0	Open Circuit (V)
SEQUENCER	TOGGLE	TRUE	Run as Sequence
PSTATMODEL	IQUANT	5	Pstat Model
PSTATSECTION	LABEL	REF3000-16137	Pstat Section
PSTATSERIALNO	LABEL	16137	Pstat Serial Number
CTRLMODE	IQUANT	1	Control Mode
IESTAB	IQUANT	0	I/E Stability
CASPEED	IQUANT	1	Control Amp Speed
CONVENTION	IQUANT	1	Current Convention
ICHRANGE	IQUANT	2	Ich Range
ICHRANGEMODE	TOGGLE	F	Ich Auto Range
ICHOFFSETENABLE	TOGGLE	T	Ich Offset Enable
ICHOFFSET	QUANT	0	Ich Offset (V)
ICHFILTER	IQUANT	3	Ich Filter
VCHRANGE	IQUANT	2	Vch Range
VCHRANGEMODE	TOGGLE	F	Vch Auto Range
VCHOFFSETENABLE	TOGGLE	T	Vch Offset Enable
VCHOFFSET	QUANT	0	Vch Offset (V)
VCHFILTER	IQUANT	3	Vch Filter
ACHRANGE	IQUANT	2	Ach Range
ACHOFFSETENABLE	TOGGLE	F	Ach Offset Enable
ACHOFFSET	QUANT	0	Ach Offset (V)
ACHFILTER	IQUANT	3	Ach Filter
IERANGELOWERLIMIT	IQUANT	2	I/E Range Lower Limit
IERANGEMODE	TOGGLE	F	I/E AutoRange
IERANGE	IQUANT	11	I/E Range
POSFEEDENABLE	TOGGLE	F	Positive Feedback IR Comp
POSFEEDRESISTANCE	QUANT	0	Positive Feedback Resistance (ohm)
ACHSELECT	IQUANT	0	Ach Select
CABLEID	IQUANT	13	Cable ID
DCCALDATE	LABEL	7/31/2020	DC Calibration Date
ACCALDATE	LABEL	7/31/2020	AC Calibration Date
THERMOSELECT	IQUANT	1	Thermo Select
FRAMEWORKVERSION	QUANT	6.33	Framework Version
INSTRUMENTVERSION	LABEL	3.50	Instrument Version
COMPLIANCEVOLTAGE	IQUANT	0	Compliance Voltage
ZCURVE	TABLE
	Pt	Time	Freq	Zreal	Zimag	Zsig	Zmod	Zphz	Idc	Vdc	IERange
	#	s	Hz	ohm	ohm	V	ohm	°	A	V	#
	0	7	300046.9	100.731	-2.536885	1	100.763	-1.442674	1.43734E-005	-0.0017204	9
	1	10	238359.4	100.9489	-3.219942	1	101.0002	-1.82693	2.185315E-005	-0.0008221	9
	2	13	189328.1	101.6188	-4.574412	1	101.7217	-2.577454	1.536646E-005	-0.0012772	9
	3	16	150421.9	102.236	-5.819002	1	102.4015	-3.257609	-7.176971E-006	-0.0011488	9
	4	18	119484.4	102.7988	-7.151137	1	103.0472	-3.979338	-7.965453E-005	0.0028923	9
	5	21	94921.88	103.6772	-8.417938	1	104.0183	-4.641877	1.248266E-005	2.018521E-005	9
	6	24	75421.88	104.576	-10.32693	1	105.0847	-5.639702	-1.032561E-005	1.945496E-005	9
	7	26	59859.37	105.7923	-12.51244	1	106.5297	-6.745244	-1.895791E-005	0.0004361	9
	8	29	47578.12	107.2326	-14.8098	1	108.2505	-7.863327	-1.245625E-005	0.000828	9
	9	31	37828.12	108.918	-17.53303	1	110.3201	-9.144713	-2.021051E-005	0.000745	9
	10	34	30046.88	110.8811	-20.53021	1	112.7658	-10.48981	4.584352E-006	-0.0004408	9
	11	36	23859.38	113.1935	-23.88321	1	115.6857	-11.91434	-2.624708E-006	-0.0002507	9
	12	38	18984.38	115.7441	-27.67206	1	119.006	-13.44587	-1.280154E-005	0.0008652	9
	13	41	15046.87	118.8242	-32.04467	1	123.0693	-15.09256	-8.682028E-006	-3.260279E-005	9
	14	43	11953.13	121.7174	-36.98006	1	127.211	-16.89978	-1.983268E-005	0.0006612	9
	15	45	9515.62	125.014	-42.56096	1	132.0603	-18.80112	-1.705697E-005	0.0008637	9
	16	48	7546.875	128.4362	-49.35825	1	137.5939	-21.02186	-1.652413E-005	0.0003828	9
	17	50	5928.309	131.9097	-57.75924	1	144.0011	-23.64714	-1.748397E-005	0.0008506	9
	18	52	4733.456	134.9751	-67.62387	1	150.9678	-26.61132	2.164042E-006	0.0005046	9
	19	55	3796.875	137.9127	-79.35015	1	159.1111	-29.91463	2.779072E-006	0.0005252	9
	20	57	2987.132	140.527	-95.9156	1	170.1401	-34.3152	-2.161933E-006	-0.00028	9
	21	59	2390.625	143.0289	-115.1332	1	183.6108	-38.83282	-1.211901E-005	0.0008613	9
	22	62	1884.191	145.6003	-142.0149	1	203.3904	-44.28578	2.274557E-005	-0.0006917	9
	23	64	1516.544	148.02	-172.2604	1	227.1201	-49.32817	-1.976746E-005	0.0004993	9
	24	66	1193.986	151.0636	-214.6839	1	262.5059	-54.86764	1.327087E-005	-0.0006538	9
	25	69	946.5144	154.5905	-267.5233	1	308.9772	-59.97817	1.276197E-005	-0.0006272	9
	26	71	751.7689	158.49	-332.2808	1	368.1434	-64.49997	1.913948E-005	-0.000719	9
	27	73	597.4265	163.31	-414.2961	1	445.3217	-68.48631	1.146776E-005	0.0001983	9
	28	76	477.4305	169.2999	-510.2031	1	537.559	-71.64269	2.598277E-007	0.0006491	8
	29	78	376.6741	177.7698	-640.7665	1	664.9691	-74.49423	2.431711E-007	0.000652	8
	30	80	298.2954	188.5793	-802.0901	1	823.9603	-76.76949	2.640035E-007	0.0006583	8
	31	83	237.7717	202.2271	-997.753	1	1018.041	-78.54236	2.548952E-007	0.0006546	8
	32	85	189.0121	220.1438	-1244.267	1	1263.592	-79.96669	2.500887E-007	0.0006554	8
	33	87	150.2404	243.4613	-1551.268	1	1570.257	-81.08057	2.632515E-007	0.0006472	8
	34	90	119.1737	274.2147	-1937.319	1	1956.629	-81.94368	2.482817E-007	0.0006682	8
	35	92	95.0169	313.2958	-2406.747	1	2427.053	-82.58329	2.66674E-007	0.0006492	8
	36	95	75.60484	364.2429	-2995.211	1	3017.278	-83.0664	2.612467E-007	0.0006409	8
	37	97	54.50582	464.6656	-4092.532	1	4118.827	-83.52238	2.481744E-007	0.0006446	8
	38	100	45.95588	535.9407	-4824.086	1	4853.765	-83.66061	2.837792E-008	0.0006176	7
	39	102	37.20238	644.475	-5898.986	1	5934.087	-83.76506	2.265392E-008	0.0006458	7
	40	104	30.04808	785.3766	-7223.095	1	7265.667	-83.79453	1.97082E-008	0.0006288	7
	41	107	23.91582	983.047	-8976.956	1	9030.621	-83.75056	1.677508E-008	0.0006281	7
	42	109	18.60119	1279.784	-11385.05	1	11456.76	-83.58636	2.345594E-008	0.000614	7
	43	111	15.02404	1620.196	-13928.21	1	14022.12	-83.3649	2.132043E-008	0.0006586	7
	44	114	12.01923	2104.927	-17180.23	1	17308.7	-83.01492	2.752771E-008	0.0006176	7
	45	116	9.450605	2804.417	-21504.33	1	21686.42	-82.56989	2.627731E-008	0.0006089	7
	46	119	7.512019	3728.787	-26645.73	1	26905.36	-82.0338	2.785062E-008	0.0006163	7
	47	121	5.978954	5001.977	-32871.26	1	33249.65	-81.34775	2.510071E-008	0.0006246	7
	48	125	4.734848	6766.317	-40674.7	1	41233.65	-80.55522	2.422855E-008	0.0006133	7
	49	128	3.75601	9165.641	-50118.04	1	50949.26	-79.63622	4.207171E-009	0.0006944	6
	50	131	3.004808	12311.78	-61052.76	1	62281.77	-78.59875	3.189264E-009	0.0006593	6
	51	135	2.372217	16915	-74980.47	1	76864.73	-77.28733	2.268205E-009	0.00061	6
	52	139	1.878005	22833.06	-91614.25	1	94416.73	-76.00526	3.268717E-009	0.0006732	6
	53	144	1.512097	30001.54	-109400.7	1	113439.9	-74.66449	2.175586E-009	0.0006668	6
	54	149	1.201923	40154.66	-131922.5	1	137898.3	-73.07076	2.301114E-009	0.000697	6
	55	156	0.956633	52912.45	-157668.5	1	166310.2	-71.44861	2.174413E-010	3.155057E-005	6
