Z60W Data File: Version 1.1
CorrTest for Windows: SN CS310H1805157  V5.2.1111.9  2.5H6.220118
Sweep Frequency: Control Voltage
  Date:4-27-2026   Time:13:39:44
  Begin Information:            Cell Information
      Surface Area:           1
      Density:                7.8
      Weight:                 28
  End Information:              Cell Information
  Freq (Hz)     Ampl(mV)       Bias(V)      Time(Sec)       Z'(Ohm.cm^2)    Z''(Ohm.cm^2)        GD       Err      Range
End Comments
  3.07200E+05,	1.00000E+01,	-1.70044E-02,	2.87326E-02,	2.06159E+01,	1.38644E+01,	0.00000E+00,	0,	0
  2.76480E+05,	1.00000E+01,	-1.70044E-02,	1.64063E+00,	2.06122E+01,	1.19959E+01,	0.00000E+00,	0,	0
  2.30400E+05,	1.00000E+01,	-1.70044E-02,	2.54186E+00,	2.06493E+01,	1.00008E+01,	0.00000E+00,	0,	0
  1.72800E+05,	1.00000E+01,	-1.70044E-02,	3.42684E+00,	2.06194E+01,	7.50620E+00,	0.00000E+00,	0,	0
  1.53600E+05,	1.00000E+01,	-1.70044E-02,	4.32568E+00,	2.06094E+01,	6.62346E+00,	0.00000E+00,	0,	0
  1.15200E+05,	1.00000E+01,	-1.70044E-02,	5.21959E+00,	2.05995E+01,	4.83037E+00,	0.00000E+00,	0,	0
  9.87429E+04,	1.00000E+01,	-1.70044E-02,	6.11258E+00,	2.06106E+01,	4.06365E+00,	0.00000E+00,	0,	0
  8.13176E+04,	1.00000E+01,	-1.70044E-02,	7.01679E+00,	2.06447E+01,	3.25930E+00,	0.00000E+00,	0,	0
  6.58286E+04,	1.00000E+01,	-1.70044E-02,	7.90618E+00,	2.06766E+01,	2.50391E+00,	0.00000E+00,	0,	0
  5.31692E+04,	1.00000E+01,	-1.70044E-02,	1.00208E+01,	2.06848E+01,	1.85124E+00,	0.00000E+00,	0,	0
  4.60800E+04,	1.00000E+01,	-1.70044E-02,	1.16003E+01,	2.07260E+01,	1.48525E+00,	0.00000E+00,	0,	0
  3.63789E+04,	1.00000E+01,	-1.70044E-02,	1.25330E+01,	2.07471E+01,	9.46345E-01,	0.00000E+00,	0,	0
  3.00522E+04,	1.00000E+01,	-1.70044E-02,	1.34111E+01,	2.07330E+01,	5.26187E-01,	0.00000E+00,	0,	0
  2.46857E+04,	1.00000E+01,	-1.70044E-02,	1.42797E+01,	2.07998E+01,	2.48723E-01,	0.00000E+00,	0,	0
  2.03294E+04,	1.00000E+01,	-1.70044E-02,	1.52591E+01,	2.08370E+01,	-1.04003E-01,	0.00000E+00,	0,	0
  1.64571E+04,	1.00000E+01,	-1.70044E-02,	1.61903E+01,	2.09051E+01,	-4.55475E-01,	0.00000E+00,	0,	0
  1.35529E+04,	1.00000E+01,	-1.70044E-02,	1.70281E+01,	2.09491E+01,	-7.78289E-01,	0.00000E+00,	0,	0
  1.11484E+04,	1.00000E+01,	-1.70044E-02,	1.79252E+01,	2.10555E+01,	-1.15432E+00,	0.00000E+00,	0,	0
  9.60000E+03,	1.00000E+01,	-1.70044E-02,	2.07123E+01,	2.11227E+01,	-1.41533E+00,	0.00000E+00,	0,	0
  7.85455E+03,	1.00000E+01,	-1.70044E-02,	2.16709E+01,	2.12302E+01,	-1.81250E+00,	0.00000E+00,	0,	0
  6.40000E+03,	1.00000E+01,	-1.70044E-02,	2.26506E+01,	2.13387E+01,	-2.26371E+00,	0.00000E+00,	0,	0
  5.23636E+03,	1.00000E+01,	-1.70044E-02,	2.36152E+01,	2.15258E+01,	-2.75719E+00,	0.00000E+00,	0,	0
  4.32000E+03,	1.00000E+01,	-1.70044E-02,	2.45337E+01,	2.16672E+01,	-3.28487E+00,	0.00000E+00,	0,	0
  3.52653E+03,	1.00000E+01,	-1.70044E-02,	2.55416E+01,	2.19126E+01,	-3.94229E+00,	0.00000E+00,	0,	0
  2.88000E+03,	1.00000E+01,	-1.70044E-02,	2.64761E+01,	2.22089E+01,	-4.68441E+00,	0.00000E+00,	0,	0
  2.36712E+03,	1.00000E+01,	-1.70044E-02,	2.75081E+01,	2.25054E+01,	-5.50126E+00,	0.00000E+00,	0,	0
  1.96364E+03,	1.00000E+01,	-1.70044E-02,	2.82582E+01,	2.28198E+01,	-6.36023E+00,	0.00000E+00,	0,	0
  1.61495E+03,	1.00000E+01,	-1.70044E-02,	2.91612E+01,	2.33051E+01,	-7.45554E+00,	0.00000E+00,	0,	0
  1.32923E+03,	1.00000E+01,	-1.70044E-02,	3.01202E+01,	2.38100E+01,	-8.62213E+00,	0.00000E+00,	0,	0
  1.09367E+03,	1.00000E+01,	-1.70044E-02,	3.11548E+01,	2.43132E+01,	-1.00229E+01,	0.00000E+00,	0,	0
  9.00000E+02,	1.00000E+01,	-1.70044E-02,	3.61337E+01,	2.50553E+01,	-1.16057E+01,	0.00000E+00,	0,	0
  7.44828E+02,	1.00000E+01,	-1.70044E-02,	3.75034E+01,	2.57499E+01,	-1.33710E+01,	0.00000E+00,	0,	0
  6.17143E+02,	1.00000E+01,	-1.70044E-02,	3.88590E+01,	2.65311E+01,	-1.54041E+01,	0.00000E+00,	0,	0
  5.14286E+02,	1.00000E+01,	-1.70044E-02,	4.02209E+01,	2.73810E+01,	-1.76626E+01,	0.00000E+00,	0,	0
  4.15385E+02,	1.00000E+01,	-1.70044E-02,	4.16020E+01,	2.84874E+01,	-2.07642E+01,	0.00000E+00,	0,	0
  3.42857E+02,	1.00000E+01,	-1.70044E-02,	4.40010E+01,	2.96175E+01,	-2.40473E+01,	0.00000E+00,	0,	0
  2.84211E+02,	1.00000E+01,	-1.70044E-02,	4.66955E+01,	3.08366E+01,	-2.77851E+01,	0.00000E+00,	0,	0
  2.32258E+02,	1.00000E+01,	-1.70044E-02,	4.95591E+01,	3.23094E+01,	-3.25210E+01,	0.00000E+00,	0,	0
  1.91150E+02,	1.00000E+01,	-1.70044E-02,	5.26714E+01,	3.38996E+01,	-3.79097E+01,	0.00000E+00,	0,	0
  1.57664E+02,	1.00000E+01,	-1.70044E-02,	5.61160E+01,	3.56775E+01,	-4.42129E+01,	0.00000E+00,	0,	0
  1.30120E+02,	1.00000E+01,	-1.70044E-02,	5.98781E+01,	3.77047E+01,	-5.16450E+01,	0.00000E+00,	0,	0
  1.06931E+02,	1.00000E+01,	-1.70044E-02,	6.39721E+01,	4.00321E+01,	-6.06441E+01,	0.00000E+00,	0,	0
  8.85246E+01,	1.00000E+01,	-1.70044E-02,	6.95633E+01,	4.26106E+01,	-7.09609E+01,	0.00000E+00,	0,	0
  7.29730E+01,	1.00000E+01,	-1.70044E-02,	7.44724E+01,	4.57050E+01,	-8.36581E+01,	0.00000E+00,	0,	0
  6.00000E+01,	1.00000E+01,	-1.70044E-02,	7.97406E+01,	4.94170E+01,	-9.72532E+01,	0.00000E+00,	0,	0
  4.95413E+01,	1.00000E+01,	-1.70044E-02,	8.83886E+01,	5.37236E+01,	-1.14422E+02,	0.00000E+00,	0,	0
  4.06015E+01,	1.00000E+01,	-1.70044E-02,	9.20073E+01,	5.88637E+01,	-1.35338E+02,	0.00000E+00,	0,	0
  3.35404E+01,	1.00000E+01,	-1.70044E-02,	9.57631E+01,	6.37515E+01,	-1.58916E+02,	0.00000E+00,	0,	0
  2.75510E+01,	1.00000E+01,	-1.70044E-02,	9.95956E+01,	7.13094E+01,	-1.88339E+02,	0.00000E+00,	0,	0
  2.26891E+01,	1.00000E+01,	-1.70044E-02,	1.02565E+02,	8.00327E+01,	-2.22288E+02,	0.00000E+00,	0,	0
  1.87500E+01,	1.00000E+01,	-1.70044E-02,	1.06247E+02,	9.03713E+01,	-2.61603E+02,	0.00000E+00,	0,	0
  1.55172E+01,	1.00000E+01,	-1.70044E-02,	1.11814E+02,	1.02549E+02,	-3.07370E+02,	0.00000E+00,	0,	0
  1.28571E+01,	1.00000E+01,	-1.70044E-02,	1.16463E+02,	1.17332E+02,	-3.60571E+02,	0.00000E+00,	0,	0
  1.04651E+01,	1.00000E+01,	-1.70044E-02,	1.19174E+02,	1.36756E+02,	-4.29053E+02,	0.00000E+00,	0,	0
  8.65385E+00,	1.00000E+01,	-1.70044E-02,	1.23455E+02,	1.59043E+02,	-5.03620E+02,	0.00000E+00,	0,	0
  7.14286E+00,	1.00000E+01,	-1.70044E-02,	1.25868E+02,	1.86440E+02,	-5.91130E+02,	0.00000E+00,	0,	0
  5.84416E+00,	1.00000E+01,	-1.70044E-02,	1.28610E+02,	2.21234E+02,	-6.98037E+02,	0.00000E+00,	0,	0
  4.83871E+00,	1.00000E+01,	-1.70044E-02,	1.31760E+02,	2.61392E+02,	-8.15106E+02,	0.00000E+00,	0,	0
  3.98230E+00,	1.00000E+01,	-1.70044E-02,	1.35362E+02,	3.11495E+02,	-9.54749E+02,	0.00000E+00,	0,	0
  3.28467E+00,	1.00000E+01,	-1.70044E-02,	1.39524E+02,	3.71403E+02,	-1.11395E+03,	0.00000E+00,	0,	0
  2.69461E+00,	1.00000E+01,	-1.70044E-02,	1.43497E+02,	4.45432E+02,	-1.30188E+03,	0.00000E+00,	0,	0
  2.22772E+00,	1.00000E+01,	-1.70044E-02,	1.47987E+02,	5.29669E+02,	-1.50876E+03,	0.00000E+00,	0,	0
  1.82927E+00,	1.00000E+01,	-1.70044E-02,	1.53292E+02,	6.31605E+02,	-1.75297E+03,	0.00000E+00,	0,	0
  1.51007E+00,	1.00000E+01,	-1.70044E-02,	1.60233E+02,	7.45626E+02,	-2.02312E+03,	0.00000E+00,	0,	0
  1.24309E+00,	1.00000E+01,	-1.70044E-02,	1.64556E+02,	8.77696E+02,	-2.33630E+03,	0.00000E+00,	0,	0
  1.02273E+00,	1.00000E+01,	-1.70044E-02,	1.69001E+02,	1.02876E+03,	-2.70066E+03,	0.00000E+00,	0,	0
  8.45865E-01,	1.00000E+01,	-1.70044E-02,	1.75835E+02,	1.18457E+03,	-3.09983E+03,	0.00000E+00,	0,	0
  6.94444E-01,	1.00000E+01,	-1.70044E-02,	1.80189E+02,	1.36682E+03,	-3.58556E+03,	0.00000E+00,	0,	0
  5.73980E-01,	1.00000E+01,	-1.70044E-02,	1.84756E+02,	1.50445E+03,	-4.15947E+03,	0.00000E+00,	0,	0
  4.72689E-01,	1.00000E+01,	-1.70044E-02,	1.90102E+02,	1.71707E+03,	-4.82482E+03,	0.00000E+00,	0,	0
  3.90625E-01,	1.00000E+01,	-1.70044E-02,	1.96179E+02,	1.95050E+03,	-5.67916E+03,	0.00000E+00,	0,	0
  3.21429E-01,	1.00000E+01,	-1.70044E-02,	2.03308E+02,	2.21628E+03,	-6.61223E+03,	0.00000E+00,	0,	0
  2.64085E-01,	1.00000E+01,	-1.70044E-02,	2.12008E+02,	2.50970E+03,	-7.73365E+03,	0.00000E+00,	0,	0
  2.18023E-01,	1.00000E+01,	-1.70044E-02,	2.22164E+02,	2.82555E+03,	-9.04965E+03,	0.00000E+00,	0,	0
  1.79426E-01,	1.00000E+01,	-1.70044E-02,	2.34266E+02,	3.20270E+03,	-1.06006E+04,	0.00000E+00,	0,	0
  1.47638E-01,	1.00000E+01,	-1.70044E-02,	2.48760E+02,	3.63037E+03,	-1.24529E+04,	0.00000E+00,	0,	0
  1.21753E-01,	1.00000E+01,	-1.70044E-02,	2.66120E+02,	4.11679E+03,	-1.46233E+04,	0.00000E+00,	0,	0
  1.00446E-01,	1.00000E+01,	-1.70044E-02,	2.86996E+02,	4.68070E+03,	-1.71887E+04,	0.00000E+00,	0,	0