Z60W Data File: Version 1.1
CorrTest for Windows: SN CS310H1805157  V5.2.1111.9  2.5H6.220118
Sweep Frequency: Control Voltage
  Date:4-27-2026   Time:19:43:21
  Begin Information:            Cell Information
      Surface Area:           1
      Density:                7.8
      Weight:                 28
  End Information:              Cell Information
  Freq (Hz)     Ampl(mV)       Bias(V)      Time(Sec)       Z'(Ohm.cm^2)    Z''(Ohm.cm^2)        GD       Err      Range
End Comments
  3.07200E+05,	1.00000E+01,	-2.31290E-02,	2.05079E-02,	1.55665E+01,	1.15641E+01,	0.00000E+00,	0,	0
  2.76480E+05,	1.00000E+01,	-2.31290E-02,	1.61162E+00,	1.57652E+01,	1.00578E+01,	0.00000E+00,	0,	0
  2.30400E+05,	1.00000E+01,	-2.31290E-02,	2.50097E+00,	1.59110E+01,	8.35770E+00,	0.00000E+00,	0,	0
  1.72800E+05,	1.00000E+01,	-2.31290E-02,	3.39085E+00,	1.60381E+01,	6.20346E+00,	0.00000E+00,	0,	0
  1.53600E+05,	1.00000E+01,	-2.31290E-02,	4.28341E+00,	1.60633E+01,	5.49124E+00,	0.00000E+00,	0,	0
  1.15200E+05,	1.00000E+01,	-2.31290E-02,	5.22978E+00,	1.61177E+01,	4.02913E+00,	0.00000E+00,	0,	0
  9.87429E+04,	1.00000E+01,	-2.31290E-02,	6.12442E+00,	1.61604E+01,	3.37025E+00,	0.00000E+00,	0,	0
  8.13176E+04,	1.00000E+01,	-2.31290E-02,	7.03399E+00,	1.61771E+01,	2.67817E+00,	0.00000E+00,	0,	0
  6.58286E+04,	1.00000E+01,	-2.31290E-02,	7.92554E+00,	1.62310E+01,	2.05679E+00,	0.00000E+00,	0,	0
  5.31692E+04,	1.00000E+01,	-2.31290E-02,	1.00362E+01,	1.62247E+01,	1.49332E+00,	0.00000E+00,	0,	0
  4.60800E+04,	1.00000E+01,	-2.31290E-02,	1.15904E+01,	1.62599E+01,	1.17569E+00,	0.00000E+00,	0,	0
  3.63789E+04,	1.00000E+01,	-2.31290E-02,	1.25280E+01,	1.62984E+01,	7.32851E-01,	0.00000E+00,	0,	0
  3.00522E+04,	1.00000E+01,	-2.31290E-02,	1.33838E+01,	1.63059E+01,	3.77154E-01,	0.00000E+00,	0,	0
  2.46857E+04,	1.00000E+01,	-2.31290E-02,	1.42657E+01,	1.63494E+01,	8.86505E-02,	0.00000E+00,	0,	0
  2.03294E+04,	1.00000E+01,	-2.31290E-02,	1.52100E+01,	1.63990E+01,	-1.81718E-01,	0.00000E+00,	0,	0
  1.64571E+04,	1.00000E+01,	-2.31290E-02,	1.61051E+01,	1.64380E+01,	-5.07713E-01,	0.00000E+00,	0,	0
  1.35529E+04,	1.00000E+01,	-2.31290E-02,	1.69118E+01,	1.64989E+01,	-8.14208E-01,	0.00000E+00,	0,	0
  1.11484E+04,	1.00000E+01,	-2.31290E-02,	1.78030E+01,	1.65852E+01,	-1.13192E+00,	0.00000E+00,	0,	0
  9.60000E+03,	1.00000E+01,	-2.31290E-02,	2.05518E+01,	1.66627E+01,	-1.37986E+00,	0.00000E+00,	0,	0
  7.85455E+03,	1.00000E+01,	-2.31290E-02,	2.14882E+01,	1.67865E+01,	-1.73339E+00,	0.00000E+00,	0,	0
  6.40000E+03,	1.00000E+01,	-2.31290E-02,	2.24392E+01,	1.69084E+01,	-2.15323E+00,	0.00000E+00,	0,	0
  5.23636E+03,	1.00000E+01,	-2.31290E-02,	2.33779E+01,	1.70554E+01,	-2.61603E+00,	0.00000E+00,	0,	0
  4.32000E+03,	1.00000E+01,	-2.31290E-02,	2.42784E+01,	1.72364E+01,	-3.10587E+00,	0.00000E+00,	0,	0
  3.52653E+03,	1.00000E+01,	-2.31290E-02,	2.52778E+01,	1.74664E+01,	-3.72772E+00,	0.00000E+00,	0,	0
  2.88000E+03,	1.00000E+01,	-2.31290E-02,	2.61687E+01,	1.77268E+01,	-4.36761E+00,	0.00000E+00,	0,	0
  2.36712E+03,	1.00000E+01,	-2.31290E-02,	2.71489E+01,	1.80338E+01,	-5.13297E+00,	0.00000E+00,	0,	0
  1.96364E+03,	1.00000E+01,	-2.31290E-02,	2.79039E+01,	1.83283E+01,	-5.97229E+00,	0.00000E+00,	0,	0
  1.61495E+03,	1.00000E+01,	-2.31290E-02,	2.88312E+01,	1.87504E+01,	-6.91655E+00,	0.00000E+00,	0,	0
  1.32923E+03,	1.00000E+01,	-2.31290E-02,	2.97533E+01,	1.91887E+01,	-7.99907E+00,	0.00000E+00,	0,	0
  1.09367E+03,	1.00000E+01,	-2.31290E-02,	3.07829E+01,	1.97363E+01,	-9.26066E+00,	0.00000E+00,	0,	0
  9.00000E+02,	1.00000E+01,	-2.31290E-02,	3.57589E+01,	2.03731E+01,	-1.07670E+01,	0.00000E+00,	0,	0
  7.44828E+02,	1.00000E+01,	-2.31290E-02,	3.71369E+01,	2.09974E+01,	-1.24183E+01,	0.00000E+00,	0,	0
  6.17143E+02,	1.00000E+01,	-2.31290E-02,	3.85049E+01,	2.16963E+01,	-1.43120E+01,	0.00000E+00,	0,	0
  5.14286E+02,	1.00000E+01,	-2.31290E-02,	3.98577E+01,	2.24554E+01,	-1.64328E+01,	0.00000E+00,	0,	0
  4.15385E+02,	1.00000E+01,	-2.31290E-02,	4.12181E+01,	2.31226E+01,	-1.97465E+01,	0.00000E+00,	0,	0
  3.42857E+02,	1.00000E+01,	-2.31290E-02,	4.36331E+01,	2.44431E+01,	-2.24446E+01,	0.00000E+00,	0,	0
  2.84211E+02,	1.00000E+01,	-2.31290E-02,	4.63478E+01,	2.55536E+01,	-2.60059E+01,	0.00000E+00,	0,	0
  2.32258E+02,	1.00000E+01,	-2.31290E-02,	4.92181E+01,	2.68722E+01,	-3.05032E+01,	0.00000E+00,	0,	0
  1.91150E+02,	1.00000E+01,	-2.31290E-02,	5.23463E+01,	2.83256E+01,	-3.56504E+01,	0.00000E+00,	0,	0
  1.57664E+02,	1.00000E+01,	-2.31290E-02,	5.57856E+01,	2.99437E+01,	-4.16661E+01,	0.00000E+00,	0,	0
  1.30120E+02,	1.00000E+01,	-2.31290E-02,	5.95321E+01,	3.18049E+01,	-4.87801E+01,	0.00000E+00,	0,	0
  1.06931E+02,	1.00000E+01,	-2.31290E-02,	6.36687E+01,	3.39604E+01,	-5.73933E+01,	0.00000E+00,	0,	0
  8.85246E+01,	1.00000E+01,	-2.31290E-02,	6.92693E+01,	3.63728E+01,	-6.72908E+01,	0.00000E+00,	0,	0
  7.29730E+01,	1.00000E+01,	-2.31290E-02,	7.41510E+01,	3.92750E+01,	-7.94522E+01,	0.00000E+00,	0,	0
  6.00000E+01,	1.00000E+01,	-2.31290E-02,	7.94417E+01,	4.28454E+01,	-9.25168E+01,	0.00000E+00,	0,	0
  4.95413E+01,	1.00000E+01,	-2.31290E-02,	8.80459E+01,	4.69839E+01,	-1.08986E+02,	0.00000E+00,	0,	0
  4.06015E+01,	1.00000E+01,	-2.31290E-02,	9.16590E+01,	5.19498E+01,	-1.29067E+02,	0.00000E+00,	0,	0
  3.35404E+01,	1.00000E+01,	-2.31290E-02,	9.54206E+01,	5.67194E+01,	-1.51627E+02,	0.00000E+00,	0,	0
  2.75510E+01,	1.00000E+01,	-2.31290E-02,	9.92303E+01,	6.40630E+01,	-1.79797E+02,	0.00000E+00,	0,	0
  2.26891E+01,	1.00000E+01,	-2.31290E-02,	1.02169E+02,	7.26487E+01,	-2.12265E+02,	0.00000E+00,	0,	0
  1.87500E+01,	1.00000E+01,	-2.31290E-02,	1.05905E+02,	8.28630E+01,	-2.49782E+02,	0.00000E+00,	0,	0
  1.55172E+01,	1.00000E+01,	-2.31290E-02,	1.11436E+02,	9.49720E+01,	-2.93415E+02,	0.00000E+00,	0,	0
  1.28571E+01,	1.00000E+01,	-2.31290E-02,	1.16095E+02,	1.09709E+02,	-3.44034E+02,	0.00000E+00,	0,	0
  1.04651E+01,	1.00000E+01,	-2.31290E-02,	1.18816E+02,	1.29128E+02,	-4.08955E+02,	0.00000E+00,	0,	0
  8.65385E+00,	1.00000E+01,	-2.31290E-02,	1.23067E+02,	1.51452E+02,	-4.79306E+02,	0.00000E+00,	0,	0
  7.14286E+00,	1.00000E+01,	-2.31290E-02,	1.25510E+02,	1.78655E+02,	-5.61810E+02,	0.00000E+00,	0,	0
  5.84416E+00,	1.00000E+01,	-2.31290E-02,	1.28253E+02,	2.13475E+02,	-6.62387E+02,	0.00000E+00,	0,	0
  4.83871E+00,	1.00000E+01,	-2.31290E-02,	1.31373E+02,	2.53259E+02,	-7.71857E+02,	0.00000E+00,	0,	0
  3.98230E+00,	1.00000E+01,	-2.31290E-02,	1.34960E+02,	3.02591E+02,	-9.01808E+02,	0.00000E+00,	0,	0
  3.28467E+00,	1.00000E+01,	-2.31290E-02,	1.39121E+02,	3.61136E+02,	-1.04926E+03,	0.00000E+00,	0,	0
  2.69461E+00,	1.00000E+01,	-2.31290E-02,	1.43008E+02,	4.32335E+02,	-1.22258E+03,	0.00000E+00,	0,	0
  2.22772E+00,	1.00000E+01,	-2.31290E-02,	1.47509E+02,	5.12163E+02,	-1.41299E+03,	0.00000E+00,	0,	0
  1.82927E+00,	1.00000E+01,	-2.31290E-02,	1.52821E+02,	6.06872E+02,	-1.63788E+03,	0.00000E+00,	0,	0
  1.51007E+00,	1.00000E+01,	-2.31290E-02,	1.59753E+02,	7.11187E+02,	-1.88704E+03,	0.00000E+00,	0,	0
  1.24309E+00,	1.00000E+01,	-2.31290E-02,	1.64085E+02,	8.29764E+02,	-2.17740E+03,	0.00000E+00,	0,	0
  1.02273E+00,	1.00000E+01,	-2.31290E-02,	1.68529E+02,	9.63346E+02,	-2.51727E+03,	0.00000E+00,	0,	0
  8.45865E-01,	1.00000E+01,	-2.31290E-02,	1.75344E+02,	1.10059E+03,	-2.89364E+03,	0.00000E+00,	0,	0
  6.94444E-01,	1.00000E+01,	-2.31290E-02,	1.79714E+02,	1.26052E+03,	-3.35475E+03,	0.00000E+00,	0,	0
  5.73980E-01,	1.00000E+01,	-2.31290E-02,	1.84286E+02,	1.38124E+03,	-3.90074E+03,	0.00000E+00,	0,	0
  4.72689E-01,	1.00000E+01,	-2.31290E-02,	1.89630E+02,	1.56973E+03,	-4.53901E+03,	0.00000E+00,	0,	0
  3.90625E-01,	1.00000E+01,	-2.31290E-02,	1.95658E+02,	1.77811E+03,	-5.35614E+03,	0.00000E+00,	0,	0
  3.21429E-01,	1.00000E+01,	-2.31290E-02,	2.02820E+02,	2.02067E+03,	-6.25643E+03,	0.00000E+00,	0,	0
  2.64085E-01,	1.00000E+01,	-2.31290E-02,	2.11482E+02,	2.28800E+03,	-7.34142E+03,	0.00000E+00,	0,	0
  2.18023E-01,	1.00000E+01,	-2.31290E-02,	2.21610E+02,	2.58296E+03,	-8.61061E+03,	0.00000E+00,	0,	0
  1.79426E-01,	1.00000E+01,	-2.31290E-02,	2.33704E+02,	2.93797E+03,	-1.01110E+04,	0.00000E+00,	0,	0
  1.47638E-01,	1.00000E+01,	-2.31290E-02,	2.48175E+02,	3.34019E+03,	-1.19069E+04,	0.00000E+00,	0,	0
  1.21753E-01,	1.00000E+01,	-2.31290E-02,	2.65547E+02,	3.81324E+03,	-1.40082E+04,	0.00000E+00,	0,	0
  1.00446E-01,	1.00000E+01,	-2.31290E-02,	2.86448E+02,	4.35743E+03,	-1.64951E+04,	0.00000E+00,	0,	0