Z60W Data File: Version 1.1
CorrTest for Windows: SN CS310H1805157  V5.2.1111.9  2.5H6.220118
Sweep Frequency: Control Voltage
  Date:4-27-2026   Time:16:43:34
  Begin Information:            Cell Information
      Surface Area:           1
      Density:                7.8
      Weight:                 28
  End Information:              Cell Information
  Freq (Hz)     Ampl(mV)       Bias(V)      Time(Sec)       Z'(Ohm.cm^2)    Z''(Ohm.cm^2)        GD       Err      Range
End Comments
  3.07200E+05,	1.00000E+01,	-1.99892E-02,	7.54651E-02,	3.05454E+02,	3.18792E+00,	0.00000E+00,	0,	0
  2.76480E+05,	1.00000E+01,	-1.99892E-02,	1.67555E+00,	3.03704E+02,	1.12616E+00,	0.00000E+00,	0,	0
  2.30400E+05,	1.00000E+01,	-1.99892E-02,	2.58141E+00,	3.02585E+02,	-1.74271E+00,	0.00000E+00,	0,	0
  1.72800E+05,	1.00000E+01,	-1.99892E-02,	3.47719E+00,	3.03519E+02,	-4.94858E+00,	0.00000E+00,	0,	0
  1.53600E+05,	1.00000E+01,	-1.99892E-02,	4.38050E+00,	3.05344E+02,	-6.44982E+00,	0.00000E+00,	0,	0
  1.15200E+05,	1.00000E+01,	-1.99892E-02,	5.27029E+00,	3.06036E+02,	-7.44402E+00,	0.00000E+00,	0,	0
  9.87429E+04,	1.00000E+01,	-1.99892E-02,	6.17507E+00,	3.07685E+02,	-9.04135E+00,	0.00000E+00,	0,	0
  8.13176E+04,	1.00000E+01,	-1.99892E-02,	7.10862E+00,	3.08429E+02,	-9.12791E+00,	0.00000E+00,	0,	0
  6.58286E+04,	1.00000E+01,	-1.99892E-02,	8.00948E+00,	3.10259E+02,	-8.87202E+00,	0.00000E+00,	0,	0
  5.31692E+04,	1.00000E+01,	-1.99892E-02,	9.06655E+00,	3.13148E+02,	-9.27512E+00,	0.00000E+00,	0,	0
  4.60800E+04,	1.00000E+01,	-1.99892E-02,	1.06128E+01,	3.16539E+02,	-7.55032E+00,	0.00000E+00,	0,	0
  3.63789E+04,	1.00000E+01,	-1.99892E-02,	1.15475E+01,	3.16979E+02,	-7.95166E+00,	0.00000E+00,	0,	0
  3.00522E+04,	1.00000E+01,	-1.99892E-02,	1.24451E+01,	3.23902E+02,	-7.44185E+00,	0.00000E+00,	0,	0
  2.46857E+04,	1.00000E+01,	-1.99892E-02,	1.33333E+01,	3.18662E+02,	-7.32133E+00,	0.00000E+00,	0,	0
  2.03294E+04,	1.00000E+01,	-1.99892E-02,	1.42790E+01,	3.19675E+02,	-7.09401E+00,	0.00000E+00,	0,	0
  1.64571E+04,	1.00000E+01,	-1.99892E-02,	1.52189E+01,	3.21266E+02,	-6.93435E+00,	0.00000E+00,	0,	0
  1.35529E+04,	1.00000E+01,	-1.99892E-02,	1.60346E+01,	3.20723E+02,	-5.71862E+00,	0.00000E+00,	0,	0
  1.11484E+04,	1.00000E+01,	-1.99892E-02,	1.69739E+01,	3.23283E+02,	-7.40227E+00,	0.00000E+00,	0,	0
  9.60000E+03,	1.00000E+01,	-1.99892E-02,	1.97796E+01,	3.22052E+02,	-5.96272E+00,	0.00000E+00,	0,	0
  7.85455E+03,	1.00000E+01,	-1.99892E-02,	2.07299E+01,	3.24407E+02,	-5.79893E+00,	0.00000E+00,	0,	0
  6.40000E+03,	1.00000E+01,	-1.99892E-02,	2.16961E+01,	3.22631E+02,	-5.82446E+00,	0.00000E+00,	0,	0
  5.23636E+03,	1.00000E+01,	-1.99892E-02,	2.26317E+01,	3.23363E+02,	-8.66071E+00,	0.00000E+00,	0,	0
  4.32000E+03,	1.00000E+01,	-1.99892E-02,	2.35821E+01,	3.23939E+02,	-7.53483E+00,	0.00000E+00,	0,	0
  3.52653E+03,	1.00000E+01,	-1.99892E-02,	2.45769E+01,	3.24265E+02,	-8.39812E+00,	0.00000E+00,	0,	0
  2.88000E+03,	1.00000E+01,	-1.99892E-02,	2.54719E+01,	3.23901E+02,	-9.09675E+00,	0.00000E+00,	0,	0
  2.36712E+03,	1.00000E+01,	-1.99892E-02,	2.64584E+01,	3.26619E+02,	-9.79390E+00,	0.00000E+00,	0,	0
  1.96364E+03,	1.00000E+01,	-1.99892E-02,	2.72370E+01,	3.27245E+02,	-1.23505E+01,	0.00000E+00,	0,	0
  1.61495E+03,	1.00000E+01,	-1.99892E-02,	2.81443E+01,	3.30018E+02,	-1.98610E+01,	0.00000E+00,	0,	0
  1.32923E+03,	1.00000E+01,	-1.99892E-02,	2.91171E+01,	3.28760E+02,	-1.74345E+01,	0.00000E+00,	0,	0
  1.09367E+03,	1.00000E+01,	-1.99892E-02,	3.01650E+01,	3.28301E+02,	-1.75934E+01,	0.00000E+00,	0,	0
  9.00000E+02,	1.00000E+01,	-1.99892E-02,	3.51940E+01,	3.32573E+02,	-2.24979E+01,	0.00000E+00,	0,	0
  7.44828E+02,	1.00000E+01,	-1.99892E-02,	3.65593E+01,	3.34109E+02,	-2.63071E+01,	0.00000E+00,	0,	0
  6.17143E+02,	1.00000E+01,	-1.99892E-02,	3.79348E+01,	3.35807E+02,	-3.06071E+01,	0.00000E+00,	0,	0
  5.14286E+02,	1.00000E+01,	-1.99892E-02,	3.93112E+01,	3.37766E+02,	-3.54306E+01,	0.00000E+00,	0,	0
  4.15385E+02,	1.00000E+01,	-1.99892E-02,	4.06809E+01,	3.40360E+02,	-4.23617E+01,	0.00000E+00,	0,	0
  3.42857E+02,	1.00000E+01,	-1.99892E-02,	4.30672E+01,	3.43459E+02,	-4.93423E+01,	0.00000E+00,	0,	0
  2.84211E+02,	1.00000E+01,	-1.99892E-02,	4.57725E+01,	3.46888E+02,	-5.75000E+01,	0.00000E+00,	0,	0
  2.32258E+02,	1.00000E+01,	-1.99892E-02,	4.86062E+01,	3.51377E+02,	-6.76030E+01,	0.00000E+00,	0,	0
  1.91150E+02,	1.00000E+01,	-1.99892E-02,	5.17241E+01,	3.56289E+02,	-7.88188E+01,	0.00000E+00,	0,	0
  1.57664E+02,	1.00000E+01,	-1.99892E-02,	5.51282E+01,	3.62007E+02,	-9.16540E+01,	0.00000E+00,	0,	0
  1.30120E+02,	1.00000E+01,	-1.99892E-02,	5.88683E+01,	3.68937E+02,	-1.06406E+02,	0.00000E+00,	0,	0
  1.06931E+02,	1.00000E+01,	-1.99892E-02,	6.30046E+01,	3.76876E+02,	-1.23877E+02,	0.00000E+00,	0,	0
  8.85246E+01,	1.00000E+01,	-1.99892E-02,	6.86025E+01,	3.86323E+02,	-1.43689E+02,	0.00000E+00,	0,	0
  7.29730E+01,	1.00000E+01,	-1.99892E-02,	7.34578E+01,	3.97623E+02,	-1.67445E+02,	0.00000E+00,	0,	0
  6.00000E+01,	1.00000E+01,	-1.99892E-02,	7.87115E+01,	4.06553E+02,	-1.89464E+02,	0.00000E+00,	0,	0
  4.95413E+01,	1.00000E+01,	-1.99892E-02,	8.44916E+01,	4.19370E+02,	-2.19235E+02,	0.00000E+00,	0,	0
  4.06015E+01,	1.00000E+01,	-1.99892E-02,	8.81513E+01,	4.33726E+02,	-2.54999E+02,	0.00000E+00,	0,	0
  3.35404E+01,	1.00000E+01,	-1.99892E-02,	9.19123E+01,	4.46407E+02,	-2.95911E+02,	0.00000E+00,	0,	0
  2.75510E+01,	1.00000E+01,	-1.99892E-02,	9.57255E+01,	4.66051E+02,	-3.43943E+02,	0.00000E+00,	0,	0
  2.26891E+01,	1.00000E+01,	-1.99892E-02,	9.86685E+01,	4.86286E+02,	-3.99369E+02,	0.00000E+00,	0,	0
  1.87500E+01,	1.00000E+01,	-1.99892E-02,	1.02368E+02,	5.08692E+02,	-4.62903E+02,	0.00000E+00,	0,	0
  1.55172E+01,	1.00000E+01,	-1.99892E-02,	1.07893E+02,	5.33703E+02,	-5.37116E+02,	0.00000E+00,	0,	0
  1.28571E+01,	1.00000E+01,	-1.99892E-02,	1.12540E+02,	5.61216E+02,	-6.23211E+02,	0.00000E+00,	0,	0
  1.04651E+01,	1.00000E+01,	-1.99892E-02,	1.15265E+02,	5.94343E+02,	-7.34488E+02,	0.00000E+00,	0,	0
  8.65385E+00,	1.00000E+01,	-1.99892E-02,	1.19537E+02,	6.30042E+02,	-8.55535E+02,	0.00000E+00,	0,	0
  7.14286E+00,	1.00000E+01,	-1.99892E-02,	1.21938E+02,	6.69541E+02,	-1.00123E+03,	0.00000E+00,	0,	0
  5.84416E+00,	1.00000E+01,	-1.99892E-02,	1.24690E+02,	7.17904E+02,	-1.18053E+03,	0.00000E+00,	0,	0
  4.83871E+00,	1.00000E+01,	-1.99892E-02,	1.27814E+02,	7.70882E+02,	-1.38021E+03,	0.00000E+00,	0,	0
  3.98230E+00,	1.00000E+01,	-1.99892E-02,	1.31419E+02,	8.34154E+02,	-1.62303E+03,	0.00000E+00,	0,	0
  3.28467E+00,	1.00000E+01,	-1.99892E-02,	1.35612E+02,	9.07179E+02,	-1.90792E+03,	0.00000E+00,	0,	0
  2.69461E+00,	1.00000E+01,	-1.99892E-02,	1.39508E+02,	9.95760E+02,	-2.25367E+03,	0.00000E+00,	0,	0
  2.22772E+00,	1.00000E+01,	-1.99892E-02,	1.44006E+02,	1.09569E+03,	-2.64708E+03,	0.00000E+00,	0,	0
  1.82927E+00,	1.00000E+01,	-1.99892E-02,	1.49318E+02,	1.21891E+03,	-3.12809E+03,	0.00000E+00,	0,	0
  1.51007E+00,	1.00000E+01,	-1.99892E-02,	1.56281E+02,	1.36203E+03,	-3.68123E+03,	0.00000E+00,	0,	0
  1.24309E+00,	1.00000E+01,	-1.99892E-02,	1.60600E+02,	1.53687E+03,	-4.34165E+03,	0.00000E+00,	0,	0
  1.02273E+00,	1.00000E+01,	-1.99892E-02,	1.65035E+02,	1.74925E+03,	-5.12885E+03,	0.00000E+00,	0,	0
  8.45865E-01,	1.00000E+01,	-1.99892E-02,	1.71861E+02,	1.99684E+03,	-6.01999E+03,	0.00000E+00,	0,	0
  6.94444E-01,	1.00000E+01,	-1.99892E-02,	1.76232E+02,	2.30874E+03,	-7.11620E+03,	0.00000E+00,	0,	0
  5.73980E-01,	1.00000E+01,	-1.99892E-02,	1.80818E+02,	2.60723E+03,	-8.37697E+03,	0.00000E+00,	0,	0
  4.72689E-01,	1.00000E+01,	-1.99892E-02,	1.86159E+02,	3.05656E+03,	-9.86545E+03,	0.00000E+00,	0,	0
  3.90625E-01,	1.00000E+01,	-1.99892E-02,	1.92222E+02,	3.59186E+03,	-1.16879E+04,	0.00000E+00,	0,	0
  3.21429E-01,	1.00000E+01,	-1.99892E-02,	1.99358E+02,	4.27303E+03,	-1.37382E+04,	0.00000E+00,	0,	0
  2.64085E-01,	1.00000E+01,	-1.99892E-02,	2.16807E+02,	5.14197E+03,	-1.59612E+04,	0.00000E+00,	0,	0
  2.18023E-01,	1.00000E+01,	-1.99892E-02,	2.26909E+02,	5.95252E+03,	-1.90536E+04,	0.00000E+00,	0,	0
  1.79426E-01,	1.00000E+01,	-1.99892E-02,	2.39002E+02,	7.24689E+03,	-2.21115E+04,	0.00000E+00,	0,	0
  1.47638E-01,	1.00000E+01,	-1.99892E-02,	2.53472E+02,	8.68125E+03,	-2.58349E+04,	0.00000E+00,	0,	0
  1.21753E-01,	1.00000E+01,	-1.99892E-02,	2.70876E+02,	1.03654E+04,	-3.00851E+04,	0.00000E+00,	0,	0
  1.00446E-01,	1.00000E+01,	-1.99892E-02,	2.91779E+02,	1.23366E+04,	-3.49870E+04,	0.00000E+00,	0,	0