Z60W Data File: Version 1.1
CorrTest for Windows: SN CS310H1805157  V5.2.1111.9  2.5H6.220118
Sweep Frequency: Control Voltage
  Date:4-27-2026   Time:10:30:41
  Begin Information:            Cell Information
      Surface Area:           1
      Density:                7.8
      Weight:                 28
  End Information:              Cell Information
  Freq (Hz)     Ampl(mV)       Bias(V)      Time(Sec)       Z'(Ohm.cm^2)    Z''(Ohm.cm^2)        GD       Err      Range
End Comments
  3.07200E+05,	1.00000E+01,	-1.79325E-02,	3.98819E-02,	7.26647E+00,	7.39430E+00,	0.00000E+00,	0,	0
  2.76480E+05,	1.00000E+01,	-1.79325E-02,	1.64148E+00,	7.60416E+00,	6.31550E+00,	0.00000E+00,	0,	0
  2.30400E+05,	1.00000E+01,	-1.79325E-02,	2.55737E+00,	7.90443E+00,	5.25859E+00,	0.00000E+00,	0,	0
  1.72800E+05,	1.00000E+01,	-1.79325E-02,	3.46748E+00,	8.16429E+00,	3.91479E+00,	0.00000E+00,	0,	0
  1.53600E+05,	1.00000E+01,	-1.79325E-02,	4.35762E+00,	8.26161E+00,	3.43535E+00,	0.00000E+00,	0,	0
  1.15200E+05,	1.00000E+01,	-1.79325E-02,	5.25381E+00,	8.38198E+00,	2.49061E+00,	0.00000E+00,	0,	0
  9.87429E+04,	1.00000E+01,	-1.79325E-02,	6.17295E+00,	8.45135E+00,	2.07589E+00,	0.00000E+00,	0,	0
  8.13176E+04,	1.00000E+01,	-1.79325E-02,	7.09330E+00,	8.49818E+00,	1.63736E+00,	0.00000E+00,	0,	0
  6.58286E+04,	1.00000E+01,	-1.79325E-02,	7.99802E+00,	8.54614E+00,	1.22881E+00,	0.00000E+00,	0,	0
  5.31692E+04,	1.00000E+01,	-1.79325E-02,	1.01228E+01,	8.56039E+00,	8.44853E-01,	0.00000E+00,	0,	0
  4.60800E+04,	1.00000E+01,	-1.79325E-02,	1.16847E+01,	8.57876E+00,	6.40598E-01,	0.00000E+00,	0,	0
  3.63789E+04,	1.00000E+01,	-1.79325E-02,	1.26141E+01,	8.61104E+00,	3.27107E-01,	0.00000E+00,	0,	0
  3.00522E+04,	1.00000E+01,	-1.79325E-02,	1.34869E+01,	8.62930E+00,	1.07928E-01,	0.00000E+00,	0,	0
  2.46857E+04,	1.00000E+01,	-1.79325E-02,	1.43707E+01,	8.65893E+00,	-1.12372E-01,	0.00000E+00,	0,	0
  2.03294E+04,	1.00000E+01,	-1.79325E-02,	1.53524E+01,	8.70011E+00,	-3.30472E-01,	0.00000E+00,	0,	0
  1.64571E+04,	1.00000E+01,	-1.79325E-02,	1.62572E+01,	8.75028E+00,	-5.84104E-01,	0.00000E+00,	0,	0
  1.35529E+04,	1.00000E+01,	-1.79325E-02,	1.70911E+01,	8.80380E+00,	-8.06613E-01,	0.00000E+00,	0,	0
  1.11484E+04,	1.00000E+01,	-1.79325E-02,	1.80289E+01,	8.87918E+00,	-1.04909E+00,	0.00000E+00,	0,	0
  9.60000E+03,	1.00000E+01,	-1.79325E-02,	1.96946E+01,	8.93590E+00,	-1.24682E+00,	0.00000E+00,	0,	0
  7.85455E+03,	1.00000E+01,	-1.79325E-02,	2.06301E+01,	9.02243E+00,	-1.53817E+00,	0.00000E+00,	0,	0
  6.40000E+03,	1.00000E+01,	-1.79325E-02,	2.15857E+01,	9.14833E+00,	-1.86213E+00,	0.00000E+00,	0,	0
  5.23636E+03,	1.00000E+01,	-1.79325E-02,	2.25655E+01,	9.28101E+00,	-2.22952E+00,	0.00000E+00,	0,	0
  4.32000E+03,	1.00000E+01,	-1.79325E-02,	2.34556E+01,	9.43847E+00,	-2.62451E+00,	0.00000E+00,	0,	0
  3.52653E+03,	1.00000E+01,	-1.79325E-02,	2.44626E+01,	9.62081E+00,	-3.08638E+00,	0.00000E+00,	0,	0
  2.88000E+03,	1.00000E+01,	-1.79325E-02,	2.54396E+01,	9.82492E+00,	-3.62990E+00,	0.00000E+00,	0,	0
  2.36712E+03,	1.00000E+01,	-1.79325E-02,	2.64526E+01,	1.00868E+01,	-4.22161E+00,	0.00000E+00,	0,	0
  1.96364E+03,	1.00000E+01,	-1.79325E-02,	2.72098E+01,	1.03532E+01,	-4.88237E+00,	0.00000E+00,	0,	0
  1.61495E+03,	1.00000E+01,	-1.79325E-02,	2.92076E+01,	1.06705E+01,	-5.65544E+00,	0.00000E+00,	0,	0
  1.32923E+03,	1.00000E+01,	-1.79325E-02,	3.01417E+01,	1.10121E+01,	-6.54227E+00,	0.00000E+00,	0,	0
  1.09367E+03,	1.00000E+01,	-1.79325E-02,	3.12031E+01,	1.13776E+01,	-7.59446E+00,	0.00000E+00,	0,	0
  9.00000E+02,	1.00000E+01,	-1.79325E-02,	3.61973E+01,	1.18444E+01,	-8.83435E+00,	0.00000E+00,	0,	0
  7.44828E+02,	1.00000E+01,	-1.79325E-02,	3.75873E+01,	1.23045E+01,	-1.02123E+01,	0.00000E+00,	0,	0
  6.17143E+02,	1.00000E+01,	-1.79325E-02,	3.89550E+01,	1.28183E+01,	-1.18116E+01,	0.00000E+00,	0,	0
  5.14286E+02,	1.00000E+01,	-1.79325E-02,	4.03293E+01,	1.33707E+01,	-1.36210E+01,	0.00000E+00,	0,	0
  4.15385E+02,	1.00000E+01,	-1.79325E-02,	4.17031E+01,	1.41035E+01,	-1.61349E+01,	0.00000E+00,	0,	0
  3.42857E+02,	1.00000E+01,	-1.79325E-02,	4.41293E+01,	1.48443E+01,	-1.88096E+01,	0.00000E+00,	0,	0
  2.84211E+02,	1.00000E+01,	-1.79325E-02,	4.68114E+01,	1.56666E+01,	-2.18921E+01,	0.00000E+00,	0,	0
  2.32258E+02,	1.00000E+01,	-1.79325E-02,	4.96444E+01,	1.66863E+01,	-2.58332E+01,	0.00000E+00,	0,	0
  1.91150E+02,	1.00000E+01,	-1.79325E-02,	5.28008E+01,	1.78157E+01,	-3.03325E+01,	0.00000E+00,	0,	0
  1.57664E+02,	1.00000E+01,	-1.79325E-02,	5.62086E+01,	1.91070E+01,	-3.56155E+01,	0.00000E+00,	0,	0
  1.30120E+02,	1.00000E+01,	-1.79325E-02,	5.99421E+01,	2.06142E+01,	-4.18543E+01,	0.00000E+00,	0,	0
  1.06931E+02,	1.00000E+01,	-1.79325E-02,	6.40440E+01,	2.24058E+01,	-4.94232E+01,	0.00000E+00,	0,	0
  8.85246E+01,	1.00000E+01,	-1.79325E-02,	6.96396E+01,	2.44388E+01,	-5.81042E+01,	0.00000E+00,	0,	0
  7.29730E+01,	1.00000E+01,	-1.79325E-02,	7.44841E+01,	2.69267E+01,	-6.87498E+01,	0.00000E+00,	0,	0
  6.00000E+01,	1.00000E+01,	-1.79325E-02,	7.97318E+01,	3.01550E+01,	-8.02704E+01,	0.00000E+00,	0,	0
  4.95413E+01,	1.00000E+01,	-1.79325E-02,	8.55139E+01,	3.37817E+01,	-9.44870E+01,	0.00000E+00,	0,	0
  4.06015E+01,	1.00000E+01,	-1.79325E-02,	8.91422E+01,	3.83638E+01,	-1.11919E+02,	0.00000E+00,	0,	0
  3.35404E+01,	1.00000E+01,	-1.79325E-02,	9.29324E+01,	4.29000E+01,	-1.31479E+02,	0.00000E+00,	0,	0
  2.75510E+01,	1.00000E+01,	-1.79325E-02,	9.67436E+01,	4.98499E+01,	-1.55806E+02,	0.00000E+00,	0,	0
  2.26891E+01,	1.00000E+01,	-1.79325E-02,	9.97242E+01,	5.80820E+01,	-1.83648E+02,	0.00000E+00,	0,	0
  1.87500E+01,	1.00000E+01,	-1.79325E-02,	1.03455E+02,	6.79512E+01,	-2.15623E+02,	0.00000E+00,	0,	0
  1.55172E+01,	1.00000E+01,	-1.79325E-02,	1.09025E+02,	7.97649E+01,	-2.52482E+02,	0.00000E+00,	0,	0
  1.28571E+01,	1.00000E+01,	-1.79325E-02,	1.13684E+02,	9.41074E+01,	-2.94857E+02,	0.00000E+00,	0,	0
  1.04651E+01,	1.00000E+01,	-1.79325E-02,	1.16410E+02,	1.13114E+02,	-3.48578E+02,	0.00000E+00,	0,	0
  8.65385E+00,	1.00000E+01,	-1.79325E-02,	1.22273E+02,	1.34699E+02,	-4.06859E+02,	0.00000E+00,	0,	0
  7.14286E+00,	1.00000E+01,	-1.79325E-02,	1.24663E+02,	1.60690E+02,	-4.73579E+02,	0.00000E+00,	0,	0
  5.84416E+00,	1.00000E+01,	-1.79325E-02,	1.27416E+02,	1.93185E+02,	-5.53899E+02,	0.00000E+00,	0,	0
  4.83871E+00,	1.00000E+01,	-1.79325E-02,	1.30549E+02,	2.29068E+02,	-6.40134E+02,	0.00000E+00,	0,	0
  3.98230E+00,	1.00000E+01,	-1.79325E-02,	1.34166E+02,	2.71675E+02,	-7.41348E+02,	0.00000E+00,	0,	0
  3.28467E+00,	1.00000E+01,	-1.79325E-02,	1.38353E+02,	3.19885E+02,	-8.55601E+02,	0.00000E+00,	0,	0
  2.69461E+00,	1.00000E+01,	-1.79325E-02,	1.42273E+02,	3.75482E+02,	-9.89881E+02,	0.00000E+00,	0,	0
  2.22772E+00,	1.00000E+01,	-1.79325E-02,	1.46795E+02,	4.34397E+02,	-1.13860E+03,	0.00000E+00,	0,	0
  1.82927E+00,	1.00000E+01,	-1.79325E-02,	1.52087E+02,	5.01581E+02,	-1.31686E+03,	0.00000E+00,	0,	0
  1.51007E+00,	1.00000E+01,	-1.79325E-02,	1.59033E+02,	5.72507E+02,	-1.51867E+03,	0.00000E+00,	0,	0
  1.24309E+00,	1.00000E+01,	-1.79325E-02,	1.63345E+02,	6.51600E+02,	-1.75874E+03,	0.00000E+00,	0,	0
  1.02273E+00,	1.00000E+01,	-1.79325E-02,	1.67795E+02,	7.40385E+02,	-2.04527E+03,	0.00000E+00,	0,	0
  8.45865E-01,	1.00000E+01,	-1.79325E-02,	1.74614E+02,	8.32740E+02,	-2.36945E+03,	0.00000E+00,	0,	0
  6.94444E-01,	1.00000E+01,	-1.79325E-02,	1.78975E+02,	9.42103E+02,	-2.77186E+03,	0.00000E+00,	0,	0
  5.73980E-01,	1.00000E+01,	-1.79325E-02,	1.83545E+02,	1.02896E+03,	-3.24493E+03,	0.00000E+00,	0,	0
  4.72689E-01,	1.00000E+01,	-1.79325E-02,	1.88905E+02,	1.16647E+03,	-3.80726E+03,	0.00000E+00,	0,	0
  3.90625E-01,	1.00000E+01,	-1.79325E-02,	1.94934E+02,	1.31982E+03,	-4.51693E+03,	0.00000E+00,	0,	0
  3.21429E-01,	1.00000E+01,	-1.79325E-02,	2.02058E+02,	1.50665E+03,	-5.31204E+03,	0.00000E+00,	0,	0
  2.64085E-01,	1.00000E+01,	-1.79325E-02,	2.10725E+02,	1.72135E+03,	-6.26719E+03,	0.00000E+00,	0,	0
  2.18023E-01,	1.00000E+01,	-1.79325E-02,	2.20804E+02,	1.96226E+03,	-7.38291E+03,	0.00000E+00,	0,	0
  1.79426E-01,	1.00000E+01,	-1.79325E-02,	2.32866E+02,	2.25981E+03,	-8.70433E+03,	0.00000E+00,	0,	0
  1.47638E-01,	1.00000E+01,	-1.79325E-02,	2.47398E+02,	2.60648E+03,	-1.02800E+04,	0.00000E+00,	0,	0
  1.21753E-01,	1.00000E+01,	-1.79325E-02,	2.64766E+02,	3.01295E+03,	-1.21340E+04,	0.00000E+00,	0,	0
  1.00446E-01,	1.00000E+01,	-1.79325E-02,	2.85662E+02,	3.50198E+03,	-1.43153E+04,	0.00000E+00,	0,	0