Z60W Data File: Version 1.1
CorrTest for Windows: SN CS310H1805157  V5.2.1111.9  2.5H6.220118
Sweep Frequency: Control Voltage
  Date:4-27-2026   Time:16:33:06
  Begin Information:            Cell Information
      Surface Area:           1
      Density:                7.8
      Weight:                 28
  End Information:              Cell Information
  Freq (Hz)     Ampl(mV)       Bias(V)      Time(Sec)       Z'(Ohm.cm^2)    Z''(Ohm.cm^2)        GD       Err      Range
End Comments
  3.07200E+05,	1.00000E+01,	-1.92969E-02,	2.19668E-02,	2.10535E+02,	3.35120E+01,	0.00000E+00,	0,	0
  2.76480E+05,	1.00000E+01,	-1.92969E-02,	1.64357E+00,	2.08034E+02,	3.12100E+01,	0.00000E+00,	0,	0
  2.30400E+05,	1.00000E+01,	-1.92969E-02,	2.55532E+00,	2.04511E+02,	2.58334E+01,	0.00000E+00,	0,	0
  1.72800E+05,	1.00000E+01,	-1.92969E-02,	3.46135E+00,	2.00688E+02,	1.89649E+01,	0.00000E+00,	0,	0
  1.53600E+05,	1.00000E+01,	-1.92969E-02,	4.38926E+00,	2.00523E+02,	1.60237E+01,	0.00000E+00,	0,	0
  1.15200E+05,	1.00000E+01,	-1.92969E-02,	5.29144E+00,	1.99527E+02,	1.17254E+01,	0.00000E+00,	0,	0
  9.87429E+04,	1.00000E+01,	-1.92969E-02,	6.18863E+00,	1.98541E+02,	8.62422E+00,	0.00000E+00,	0,	0
  8.13176E+04,	1.00000E+01,	-1.92969E-02,	7.11248E+00,	1.99695E+02,	6.57340E+00,	0.00000E+00,	0,	0
  6.58286E+04,	1.00000E+01,	-1.92969E-02,	8.00331E+00,	1.99473E+02,	4.42507E+00,	0.00000E+00,	0,	0
  5.31692E+04,	1.00000E+01,	-1.92969E-02,	9.00963E+00,	2.00885E+02,	3.18884E+00,	0.00000E+00,	0,	0
  4.60800E+04,	1.00000E+01,	-1.92969E-02,	1.06087E+01,	2.01068E+02,	2.35565E+00,	0.00000E+00,	0,	0
  3.63789E+04,	1.00000E+01,	-1.92969E-02,	1.15293E+01,	2.01113E+02,	1.51546E+00,	0.00000E+00,	0,	0
  3.00522E+04,	1.00000E+01,	-1.92969E-02,	1.23711E+01,	2.04174E+02,	-2.44182E+00,	0.00000E+00,	0,	0
  2.46857E+04,	1.00000E+01,	-1.92969E-02,	1.32388E+01,	2.01649E+02,	2.08353E-01,	0.00000E+00,	0,	0
  2.03294E+04,	1.00000E+01,	-1.92969E-02,	1.42216E+01,	2.02542E+02,	-5.53941E-01,	0.00000E+00,	0,	0
  1.64571E+04,	1.00000E+01,	-1.92969E-02,	1.51301E+01,	2.02496E+02,	-5.46576E-01,	0.00000E+00,	0,	0
  1.35529E+04,	1.00000E+01,	-1.92969E-02,	1.59374E+01,	2.03890E+02,	-1.93599E+00,	0.00000E+00,	0,	0
  1.11484E+04,	1.00000E+01,	-1.92969E-02,	1.68409E+01,	2.03504E+02,	-2.73839E+00,	0.00000E+00,	0,	0
  9.60000E+03,	1.00000E+01,	-1.92969E-02,	1.96297E+01,	2.04351E+02,	-2.19204E+00,	0.00000E+00,	0,	0
  7.85455E+03,	1.00000E+01,	-1.92969E-02,	2.05801E+01,	2.04033E+02,	-2.99995E+00,	0.00000E+00,	0,	0
  6.40000E+03,	1.00000E+01,	-1.92969E-02,	2.15326E+01,	2.04565E+02,	-4.31069E+00,	0.00000E+00,	0,	0
  5.23636E+03,	1.00000E+01,	-1.92969E-02,	2.24714E+01,	2.06187E+02,	-4.66482E+00,	0.00000E+00,	0,	0
  4.32000E+03,	1.00000E+01,	-1.92969E-02,	2.33722E+01,	2.05558E+02,	-5.52945E+00,	0.00000E+00,	0,	0
  3.52653E+03,	1.00000E+01,	-1.92969E-02,	2.43941E+01,	2.05961E+02,	-6.84934E+00,	0.00000E+00,	0,	0
  2.88000E+03,	1.00000E+01,	-1.92969E-02,	2.53260E+01,	2.07310E+02,	-7.46839E+00,	0.00000E+00,	0,	0
  2.36712E+03,	1.00000E+01,	-1.92969E-02,	2.63677E+01,	2.07390E+02,	-8.56547E+00,	0.00000E+00,	0,	0
  1.96364E+03,	1.00000E+01,	-1.92969E-02,	2.71150E+01,	2.06617E+02,	-1.05885E+01,	0.00000E+00,	0,	0
  1.61495E+03,	1.00000E+01,	-1.92969E-02,	2.80242E+01,	2.07795E+02,	-1.25200E+01,	0.00000E+00,	0,	0
  1.32923E+03,	1.00000E+01,	-1.92969E-02,	2.89583E+01,	2.07453E+02,	-1.47757E+01,	0.00000E+00,	0,	0
  1.09367E+03,	1.00000E+01,	-1.92969E-02,	3.00230E+01,	2.08451E+02,	-1.74417E+01,	0.00000E+00,	0,	0
  9.00000E+02,	1.00000E+01,	-1.92969E-02,	3.50557E+01,	2.12402E+02,	-2.04401E+01,	0.00000E+00,	0,	0
  7.44828E+02,	1.00000E+01,	-1.92969E-02,	3.64179E+01,	2.13760E+02,	-2.37880E+01,	0.00000E+00,	0,	0
  6.17143E+02,	1.00000E+01,	-1.92969E-02,	3.77992E+01,	2.15330E+02,	-2.77730E+01,	0.00000E+00,	0,	0
  5.14286E+02,	1.00000E+01,	-1.92969E-02,	3.91664E+01,	2.17081E+02,	-3.22911E+01,	0.00000E+00,	0,	0
  4.15385E+02,	1.00000E+01,	-1.92969E-02,	4.05338E+01,	2.19469E+02,	-3.83391E+01,	0.00000E+00,	0,	0
  3.42857E+02,	1.00000E+01,	-1.92969E-02,	4.29489E+01,	2.22259E+02,	-4.46301E+01,	0.00000E+00,	0,	0
  2.84211E+02,	1.00000E+01,	-1.92969E-02,	4.56239E+01,	2.25464E+02,	-5.17526E+01,	0.00000E+00,	0,	0
  2.32258E+02,	1.00000E+01,	-1.92969E-02,	4.84827E+01,	2.29357E+02,	-6.06091E+01,	0.00000E+00,	0,	0
  1.91150E+02,	1.00000E+01,	-1.92969E-02,	5.16223E+01,	2.33798E+02,	-7.04419E+01,	0.00000E+00,	0,	0
  1.57664E+02,	1.00000E+01,	-1.92969E-02,	5.50568E+01,	2.38853E+02,	-8.16939E+01,	0.00000E+00,	0,	0
  1.30120E+02,	1.00000E+01,	-1.92969E-02,	5.88225E+01,	2.44642E+02,	-9.45941E+01,	0.00000E+00,	0,	0
  1.06931E+02,	1.00000E+01,	-1.92969E-02,	6.29137E+01,	2.51442E+02,	-1.09923E+02,	0.00000E+00,	0,	0
  8.85246E+01,	1.00000E+01,	-1.92969E-02,	6.85254E+01,	2.59220E+02,	-1.27257E+02,	0.00000E+00,	0,	0
  7.29730E+01,	1.00000E+01,	-1.92969E-02,	7.33897E+01,	2.68384E+02,	-1.48147E+02,	0.00000E+00,	0,	0
  6.00000E+01,	1.00000E+01,	-1.92969E-02,	7.86392E+01,	2.76361E+02,	-1.68423E+02,	0.00000E+00,	0,	0
  4.95413E+01,	1.00000E+01,	-1.92969E-02,	8.43634E+01,	2.87001E+02,	-1.94898E+02,	0.00000E+00,	0,	0
  4.06015E+01,	1.00000E+01,	-1.92969E-02,	8.79758E+01,	2.98858E+02,	-2.26851E+02,	0.00000E+00,	0,	0
  3.35404E+01,	1.00000E+01,	-1.92969E-02,	9.17397E+01,	3.09218E+02,	-2.63616E+02,	0.00000E+00,	0,	0
  2.75510E+01,	1.00000E+01,	-1.92969E-02,	9.55511E+01,	3.25295E+02,	-3.07747E+02,	0.00000E+00,	0,	0
  2.26891E+01,	1.00000E+01,	-1.92969E-02,	9.85064E+01,	3.41963E+02,	-3.58426E+02,	0.00000E+00,	0,	0
  1.87500E+01,	1.00000E+01,	-1.92969E-02,	1.02212E+02,	3.60434E+02,	-4.17018E+02,	0.00000E+00,	0,	0
  1.55172E+01,	1.00000E+01,	-1.92969E-02,	1.07778E+02,	3.81358E+02,	-4.85592E+02,	0.00000E+00,	0,	0
  1.28571E+01,	1.00000E+01,	-1.92969E-02,	1.12425E+02,	4.04683E+02,	-5.65493E+02,	0.00000E+00,	0,	0
  1.04651E+01,	1.00000E+01,	-1.92969E-02,	1.15137E+02,	4.33024E+02,	-6.68932E+02,	0.00000E+00,	0,	0
  8.65385E+00,	1.00000E+01,	-1.92969E-02,	1.19413E+02,	4.63790E+02,	-7.82362E+02,	0.00000E+00,	0,	0
  7.14286E+00,	1.00000E+01,	-1.92969E-02,	1.21823E+02,	4.99257E+02,	-9.17488E+02,	0.00000E+00,	0,	0
  5.84416E+00,	1.00000E+01,	-1.92969E-02,	1.24564E+02,	5.41390E+02,	-1.08463E+03,	0.00000E+00,	0,	0
  4.83871E+00,	1.00000E+01,	-1.92969E-02,	1.27698E+02,	5.89110E+02,	-1.27047E+03,	0.00000E+00,	0,	0
  3.98230E+00,	1.00000E+01,	-1.92969E-02,	1.31300E+02,	6.46877E+02,	-1.49744E+03,	0.00000E+00,	0,	0
  3.28467E+00,	1.00000E+01,	-1.92969E-02,	1.35458E+02,	7.14636E+02,	-1.76356E+03,	0.00000E+00,	0,	0
  2.69461E+00,	1.00000E+01,	-1.92969E-02,	1.39350E+02,	7.97435E+02,	-2.08517E+03,	0.00000E+00,	0,	0
  2.22772E+00,	1.00000E+01,	-1.92969E-02,	1.43918E+02,	8.91922E+02,	-2.45176E+03,	0.00000E+00,	0,	0
  1.82927E+00,	1.00000E+01,	-1.92969E-02,	1.49209E+02,	1.01046E+03,	-2.90040E+03,	0.00000E+00,	0,	0
  1.51007E+00,	1.00000E+01,	-1.92969E-02,	1.56169E+02,	1.14854E+03,	-3.41258E+03,	0.00000E+00,	0,	0
  1.24309E+00,	1.00000E+01,	-1.92969E-02,	1.60489E+02,	1.31929E+03,	-4.02464E+03,	0.00000E+00,	0,	0
  1.02273E+00,	1.00000E+01,	-1.92969E-02,	1.65021E+02,	1.52889E+03,	-4.75153E+03,	0.00000E+00,	0,	0
  8.45865E-01,	1.00000E+01,	-1.92969E-02,	1.71898E+02,	1.77381E+03,	-5.57045E+03,	0.00000E+00,	0,	0
  6.94444E-01,	1.00000E+01,	-1.92969E-02,	1.76289E+02,	2.08562E+03,	-6.57348E+03,	0.00000E+00,	0,	0
  5.73980E-01,	1.00000E+01,	-1.92969E-02,	1.80865E+02,	2.38594E+03,	-7.71922E+03,	0.00000E+00,	0,	0
  4.72689E-01,	1.00000E+01,	-1.92969E-02,	1.86202E+02,	2.83412E+03,	-9.07011E+03,	0.00000E+00,	0,	0
  3.90625E-01,	1.00000E+01,	-1.92969E-02,	1.92283E+02,	3.36819E+03,	-1.07112E+04,	0.00000E+00,	0,	0
  3.21429E-01,	1.00000E+01,	-1.92969E-02,	1.99445E+02,	4.04212E+03,	-1.25429E+04,	0.00000E+00,	0,	0
  2.64085E-01,	1.00000E+01,	-1.92969E-02,	2.16862E+02,	4.89236E+03,	-1.45112E+04,	0.00000E+00,	0,	0
  2.18023E-01,	1.00000E+01,	-1.92969E-02,	2.26949E+02,	5.66635E+03,	-1.72793E+04,	0.00000E+00,	0,	0
  1.79426E-01,	1.00000E+01,	-1.92969E-02,	2.39014E+02,	6.90627E+03,	-1.99165E+04,	0.00000E+00,	0,	0
  1.47638E-01,	1.00000E+01,	-1.92969E-02,	2.53478E+02,	8.23292E+03,	-2.31566E+04,	0.00000E+00,	0,	0
  1.21753E-01,	1.00000E+01,	-1.92969E-02,	2.70839E+02,	9.74823E+03,	-2.68387E+04,	0.00000E+00,	0,	0
  1.00446E-01,	1.00000E+01,	-1.92969E-02,	2.91693E+02,	1.14686E+04,	-3.10851E+04,	0.00000E+00,	0,	0