Z60W Data File: Version 1.1
CorrTest for Windows: SN CS310H1805157  V5.2.1111.9  2.5H6.220118
Sweep Frequency: Control Voltage
  Date:4-26-2026   Time:20:11:17
  Begin Information:            Cell Information
      Surface Area:           1
      Density:                7.8
      Weight:                 28
  End Information:              Cell Information
  Freq (Hz)     Ampl(mV)       Bias(V)      Time(Sec)       Z'(Ohm.cm^2)    Z''(Ohm.cm^2)        GD       Err      Range
End Comments
  3.07200E+05,	1.00000E+01,	-1.00744E-02,	6.67293E-02,	7.34321E-01,	4.03016E+00,	0.00000E+00,	0,	0
  2.76480E+05,	1.00000E+01,	-1.00744E-02,	1.67234E+00,	1.26302E+00,	3.29374E+00,	0.00000E+00,	0,	0
  2.30400E+05,	1.00000E+01,	-1.00744E-02,	2.55714E+00,	1.70646E+00,	2.74014E+00,	0.00000E+00,	0,	0
  1.72800E+05,	1.00000E+01,	-1.00744E-02,	3.45951E+00,	2.08922E+00,	2.02404E+00,	0.00000E+00,	0,	0
  1.53600E+05,	1.00000E+01,	-1.00744E-02,	4.40109E+00,	2.20804E+00,	1.79091E+00,	0.00000E+00,	0,	0
  1.15200E+05,	1.00000E+01,	-1.00744E-02,	5.32197E+00,	2.41418E+00,	1.26394E+00,	0.00000E+00,	0,	0
  9.87429E+04,	1.00000E+01,	-1.00744E-02,	6.22859E+00,	2.48575E+00,	1.05985E+00,	0.00000E+00,	0,	0
  8.13176E+04,	1.00000E+01,	-1.00744E-02,	7.14258E+00,	2.54767E+00,	8.29261E-01,	0.00000E+00,	0,	0
  6.58286E+04,	1.00000E+01,	-1.00744E-02,	8.05195E+00,	2.59571E+00,	6.06023E-01,	0.00000E+00,	0,	0
  5.31692E+04,	1.00000E+01,	-1.00744E-02,	1.12856E+01,	2.64622E+00,	3.70978E-01,	0.00000E+00,	0,	0
  4.60800E+04,	1.00000E+01,	-1.00744E-02,	1.28476E+01,	2.66866E+00,	2.61271E-01,	0.00000E+00,	0,	0
  3.63789E+04,	1.00000E+01,	-1.00744E-02,	1.37771E+01,	2.69184E+00,	9.52780E-02,	0.00000E+00,	0,	0
  3.00522E+04,	1.00000E+01,	-1.00744E-02,	1.46282E+01,	2.71541E+00,	-2.67645E-02,	0.00000E+00,	0,	0
  2.46857E+04,	1.00000E+01,	-1.00744E-02,	1.54865E+01,	2.73969E+00,	-1.52782E-01,	0.00000E+00,	0,	0
  2.03294E+04,	1.00000E+01,	-1.00744E-02,	1.64412E+01,	2.76884E+00,	-2.73810E-01,	0.00000E+00,	0,	0
  1.64571E+04,	1.00000E+01,	-1.00744E-02,	1.73665E+01,	2.80591E+00,	-4.08093E-01,	0.00000E+00,	0,	0
  1.35529E+04,	1.00000E+01,	-1.00744E-02,	1.82101E+01,	2.84547E+00,	-5.40412E-01,	0.00000E+00,	0,	0
  1.11484E+04,	1.00000E+01,	-1.00744E-02,	1.91180E+01,	2.89013E+00,	-6.76069E-01,	0.00000E+00,	0,	0
  9.60000E+03,	1.00000E+01,	-1.00744E-02,	2.19081E+01,	2.74246E+00,	-7.84400E-01,	0.00000E+00,	0,	0
  7.85455E+03,	1.00000E+01,	-1.00744E-02,	2.28552E+01,	2.80488E+00,	-9.48638E-01,	0.00000E+00,	0,	0
  6.40000E+03,	1.00000E+01,	-1.00744E-02,	2.38110E+01,	2.87361E+00,	-1.13488E+00,	0.00000E+00,	0,	0
  5.23636E+03,	1.00000E+01,	-1.00744E-02,	2.47651E+01,	2.94969E+00,	-1.34153E+00,	0.00000E+00,	0,	0
  4.32000E+03,	1.00000E+01,	-1.00744E-02,	2.56835E+01,	3.03251E+00,	-1.57150E+00,	0.00000E+00,	0,	0
  3.52653E+03,	1.00000E+01,	-1.00744E-02,	2.67119E+01,	3.12718E+00,	-1.84799E+00,	0.00000E+00,	0,	0
  2.88000E+03,	1.00000E+01,	-1.00744E-02,	2.76152E+01,	3.23243E+00,	-2.17082E+00,	0.00000E+00,	0,	0
  2.36712E+03,	1.00000E+01,	-1.00744E-02,	2.86597E+01,	3.34683E+00,	-2.54138E+00,	0.00000E+00,	0,	0
  1.96364E+03,	1.00000E+01,	-1.00744E-02,	2.94220E+01,	3.47182E+00,	-2.94577E+00,	0.00000E+00,	0,	0
  1.61495E+03,	1.00000E+01,	-1.00744E-02,	3.03093E+01,	3.62190E+00,	-3.44347E+00,	0.00000E+00,	0,	0
  1.32923E+03,	1.00000E+01,	-1.00744E-02,	3.12282E+01,	3.78293E+00,	-4.03492E+00,	0.00000E+00,	0,	0
  1.09367E+03,	1.00000E+01,	-1.00744E-02,	3.22724E+01,	3.96815E+00,	-4.73399E+00,	0.00000E+00,	0,	0
  9.00000E+02,	1.00000E+01,	-1.00744E-02,	3.72950E+01,	4.19037E+00,	-5.56110E+00,	0.00000E+00,	0,	0
  7.44828E+02,	1.00000E+01,	-1.00744E-02,	3.86819E+01,	4.43055E+00,	-6.50657E+00,	0.00000E+00,	0,	0
  6.17143E+02,	1.00000E+01,	-1.00744E-02,	4.00482E+01,	4.70508E+00,	-7.61056E+00,	0.00000E+00,	0,	0
  5.14286E+02,	1.00000E+01,	-1.00744E-02,	4.14494E+01,	5.01389E+00,	-8.87040E+00,	0.00000E+00,	0,	0
  4.15385E+02,	1.00000E+01,	-1.00744E-02,	4.28384E+01,	5.43903E+00,	-1.06221E+01,	0.00000E+00,	0,	0
  3.42857E+02,	1.00000E+01,	-1.00744E-02,	4.52282E+01,	5.89491E+00,	-1.24984E+01,	0.00000E+00,	0,	0
  2.84211E+02,	1.00000E+01,	-1.00744E-02,	4.96424E+01,	6.44121E+00,	-1.46961E+01,	0.00000E+00,	0,	0
  2.32258E+02,	1.00000E+01,	-1.00744E-02,	5.24951E+01,	7.13011E+00,	-1.74637E+01,	0.00000E+00,	0,	0
  1.91150E+02,	1.00000E+01,	-1.00744E-02,	5.56764E+01,	7.93066E+00,	-2.06190E+01,	0.00000E+00,	0,	0
  1.57664E+02,	1.00000E+01,	-1.00744E-02,	5.91081E+01,	8.88212E+00,	-2.42971E+01,	0.00000E+00,	0,	0
  1.30120E+02,	1.00000E+01,	-1.00744E-02,	6.28409E+01,	1.00396E+01,	-2.86257E+01,	0.00000E+00,	0,	0
  1.06931E+02,	1.00000E+01,	-1.00744E-02,	6.69315E+01,	1.14687E+01,	-3.38355E+01,	0.00000E+00,	0,	0
  8.85246E+01,	1.00000E+01,	-1.00744E-02,	7.25602E+01,	1.31446E+01,	-3.97542E+01,	0.00000E+00,	0,	0
  7.29730E+01,	1.00000E+01,	-1.00744E-02,	7.74438E+01,	1.52432E+01,	-4.69496E+01,	0.00000E+00,	0,	0
  6.00000E+01,	1.00000E+01,	-1.00744E-02,	8.26872E+01,	1.80274E+01,	-5.46206E+01,	0.00000E+00,	0,	0
  4.95413E+01,	1.00000E+01,	-1.00744E-02,	8.84322E+01,	2.12065E+01,	-6.39365E+01,	0.00000E+00,	0,	0
  4.06015E+01,	1.00000E+01,	-1.00744E-02,	9.20460E+01,	2.52197E+01,	-7.51654E+01,	0.00000E+00,	0,	0
  3.35404E+01,	1.00000E+01,	-1.00744E-02,	9.58098E+01,	2.93431E+01,	-8.74830E+01,	0.00000E+00,	0,	0
  2.75510E+01,	1.00000E+01,	-1.00744E-02,	9.96285E+01,	3.52619E+01,	-1.02483E+02,	0.00000E+00,	0,	0
  2.26891E+01,	1.00000E+01,	-1.00744E-02,	1.02627E+02,	4.20996E+01,	-1.19227E+02,	0.00000E+00,	0,	0
  1.87500E+01,	1.00000E+01,	-1.00744E-02,	1.06358E+02,	4.99458E+01,	-1.37991E+02,	0.00000E+00,	0,	0
  1.55172E+01,	1.00000E+01,	-1.00744E-02,	1.11895E+02,	5.87972E+01,	-1.59161E+02,	0.00000E+00,	0,	0
  1.28571E+01,	1.00000E+01,	-1.00744E-02,	1.16521E+02,	6.88020E+01,	-1.83072E+02,	0.00000E+00,	0,	0
  1.04651E+01,	1.00000E+01,	-1.00744E-02,	1.19248E+02,	8.09073E+01,	-2.13184E+02,	0.00000E+00,	0,	0
  8.65385E+00,	1.00000E+01,	-1.00744E-02,	1.25128E+02,	9.36355E+01,	-2.45886E+02,	0.00000E+00,	0,	0
  7.14286E+00,	1.00000E+01,	-1.00744E-02,	1.27559E+02,	1.07454E+02,	-2.83616E+02,	0.00000E+00,	0,	0
  5.84416E+00,	1.00000E+01,	-1.00744E-02,	1.30294E+02,	1.23270E+02,	-3.29709E+02,	0.00000E+00,	0,	0
  4.83871E+00,	1.00000E+01,	-1.00744E-02,	1.33426E+02,	1.39641E+02,	-3.80988E+02,	0.00000E+00,	0,	0
  3.98230E+00,	1.00000E+01,	-1.00744E-02,	1.37032E+02,	1.58252E+02,	-4.43176E+02,	0.00000E+00,	0,	0
  3.28467E+00,	1.00000E+01,	-1.00744E-02,	1.41187E+02,	1.78775E+02,	-5.16017E+02,	0.00000E+00,	0,	0
  2.69461E+00,	1.00000E+01,	-1.00744E-02,	1.45121E+02,	2.02504E+02,	-6.04812E+02,	0.00000E+00,	0,	0
  2.22772E+00,	1.00000E+01,	-1.00744E-02,	1.49630E+02,	2.28368E+02,	-7.06143E+02,	0.00000E+00,	0,	0
  1.82927E+00,	1.00000E+01,	-1.00744E-02,	1.54995E+02,	2.59072E+02,	-8.30723E+02,	0.00000E+00,	0,	0
  1.51007E+00,	1.00000E+01,	-1.00744E-02,	1.58822E+02,	2.94221E+02,	-9.74716E+02,	0.00000E+00,	0,	0
  1.24309E+00,	1.00000E+01,	-1.00744E-02,	1.63144E+02,	3.35549E+02,	-1.14774E+03,	0.00000E+00,	0,	0
  1.02273E+00,	1.00000E+01,	-1.00744E-02,	1.67588E+02,	3.84917E+02,	-1.35450E+03,	0.00000E+00,	0,	0
  8.45865E-01,	1.00000E+01,	-1.00744E-02,	1.74400E+02,	4.41151E+02,	-1.59088E+03,	0.00000E+00,	0,	0
  6.94444E-01,	1.00000E+01,	-1.00744E-02,	1.78819E+02,	5.11368E+02,	-1.88238E+03,	0.00000E+00,	0,	0
  5.73980E-01,	1.00000E+01,	-1.00744E-02,	1.83445E+02,	5.78128E+02,	-2.22038E+03,	0.00000E+00,	0,	0
  4.72689E-01,	1.00000E+01,	-1.00744E-02,	1.88788E+02,	6.77260E+02,	-2.62523E+03,	0.00000E+00,	0,	0
  3.90625E-01,	1.00000E+01,	-1.00744E-02,	1.94824E+02,	7.94967E+02,	-3.12175E+03,	0.00000E+00,	0,	0
  3.21429E-01,	1.00000E+01,	-1.00744E-02,	2.01948E+02,	9.49240E+02,	-3.69302E+03,	0.00000E+00,	0,	0
  2.64085E-01,	1.00000E+01,	-1.00744E-02,	2.19378E+02,	1.15316E+03,	-4.32916E+03,	0.00000E+00,	0,	0
  2.18023E-01,	1.00000E+01,	-1.00744E-02,	2.29471E+02,	1.35696E+03,	-5.18173E+03,	0.00000E+00,	0,	0
  1.79426E-01,	1.00000E+01,	-1.00744E-02,	2.41552E+02,	1.68105E+03,	-6.08635E+03,	0.00000E+00,	0,	0
  1.47638E-01,	1.00000E+01,	-1.00744E-02,	2.56030E+02,	2.07113E+03,	-7.17519E+03,	0.00000E+00,	0,	0
  1.21753E-01,	1.00000E+01,	-1.00744E-02,	2.73439E+02,	2.56735E+03,	-8.42523E+03,	0.00000E+00,	0,	0
  1.00446E-01,	1.00000E+01,	-1.00744E-02,	2.94306E+02,	3.19862E+03,	-9.86263E+03,	0.00000E+00,	0,	0