Z60W Data File: Version 1.1
CorrTest for Windows: SN CS310H1805157  V5.2.1111.9  2.5H6.220118
Sweep Frequency: Control Voltage
  Date:4-27-2026   Time:07:56:11
  Begin Information:            Cell Information
      Surface Area:           1
      Density:                7.8
      Weight:                 28
  End Information:              Cell Information
  Freq (Hz)     Ampl(mV)       Bias(V)      Time(Sec)       Z'(Ohm.cm^2)    Z''(Ohm.cm^2)        GD       Err      Range
End Comments
  3.07200E+05,	1.00000E+01,	-1.68001E-02,	4.27192E-02,	2.83178E+00,	5.19745E+00,	0.00000E+00,	0,	0
  2.76480E+05,	1.00000E+01,	-1.68001E-02,	1.64680E+00,	3.30250E+00,	4.28980E+00,	0.00000E+00,	0,	0
  2.30400E+05,	1.00000E+01,	-1.68001E-02,	2.54384E+00,	3.70499E+00,	3.54625E+00,	0.00000E+00,	0,	0
  1.72800E+05,	1.00000E+01,	-1.68001E-02,	3.46200E+00,	4.05797E+00,	2.63947E+00,	0.00000E+00,	0,	0
  1.53600E+05,	1.00000E+01,	-1.68001E-02,	4.39779E+00,	4.15709E+00,	2.31450E+00,	0.00000E+00,	0,	0
  1.15200E+05,	1.00000E+01,	-1.68001E-02,	5.29529E+00,	4.34253E+00,	1.65674E+00,	0.00000E+00,	0,	0
  9.87429E+04,	1.00000E+01,	-1.68001E-02,	6.18318E+00,	4.42064E+00,	1.38109E+00,	0.00000E+00,	0,	0
  8.13176E+04,	1.00000E+01,	-1.68001E-02,	7.09738E+00,	4.47063E+00,	1.07508E+00,	0.00000E+00,	0,	0
  6.58286E+04,	1.00000E+01,	-1.68001E-02,	8.00308E+00,	4.52209E+00,	8.02118E-01,	0.00000E+00,	0,	0
  5.31692E+04,	1.00000E+01,	-1.68001E-02,	1.01353E+01,	4.54690E+00,	5.16583E-01,	0.00000E+00,	0,	0
  4.60800E+04,	1.00000E+01,	-1.68001E-02,	1.16854E+01,	4.56530E+00,	3.66512E-01,	0.00000E+00,	0,	0
  3.63789E+04,	1.00000E+01,	-1.68001E-02,	1.26208E+01,	4.59749E+00,	1.46471E-01,	0.00000E+00,	0,	0
  3.00522E+04,	1.00000E+01,	-1.68001E-02,	1.35215E+01,	4.62346E+00,	-1.63218E-02,	0.00000E+00,	0,	0
  2.46857E+04,	1.00000E+01,	-1.68001E-02,	1.43718E+01,	4.64808E+00,	-1.86243E-01,	0.00000E+00,	0,	0
  2.03294E+04,	1.00000E+01,	-1.68001E-02,	1.53543E+01,	4.68574E+00,	-3.50013E-01,	0.00000E+00,	0,	0
  1.64571E+04,	1.00000E+01,	-1.68001E-02,	1.62556E+01,	4.73114E+00,	-5.26797E-01,	0.00000E+00,	0,	0
  1.35529E+04,	1.00000E+01,	-1.68001E-02,	1.70619E+01,	4.78055E+00,	-7.06656E-01,	0.00000E+00,	0,	0
  1.11484E+04,	1.00000E+01,	-1.68001E-02,	1.79648E+01,	4.83799E+00,	-8.93481E-01,	0.00000E+00,	0,	0
  9.60000E+03,	1.00000E+01,	-1.68001E-02,	1.96486E+01,	4.89677E+00,	-1.04871E+00,	0.00000E+00,	0,	0
  7.85455E+03,	1.00000E+01,	-1.68001E-02,	2.05999E+01,	4.97635E+00,	-1.27066E+00,	0.00000E+00,	0,	0
  6.40000E+03,	1.00000E+01,	-1.68001E-02,	2.15720E+01,	5.07785E+00,	-1.52421E+00,	0.00000E+00,	0,	0
  5.23636E+03,	1.00000E+01,	-1.68001E-02,	2.25736E+01,	5.18522E+00,	-1.80538E+00,	0.00000E+00,	0,	0
  4.32000E+03,	1.00000E+01,	-1.68001E-02,	2.34996E+01,	5.30094E+00,	-2.10927E+00,	0.00000E+00,	0,	0
  3.52653E+03,	1.00000E+01,	-1.68001E-02,	2.45032E+01,	5.44778E+00,	-2.47219E+00,	0.00000E+00,	0,	0
  2.88000E+03,	1.00000E+01,	-1.68001E-02,	2.53960E+01,	5.60640E+00,	-2.89373E+00,	0.00000E+00,	0,	0
  2.36712E+03,	1.00000E+01,	-1.68001E-02,	2.64162E+01,	5.78216E+00,	-3.36802E+00,	0.00000E+00,	0,	0
  1.96364E+03,	1.00000E+01,	-1.68001E-02,	2.71958E+01,	5.96991E+00,	-3.88883E+00,	0.00000E+00,	0,	0
  1.61495E+03,	1.00000E+01,	-1.68001E-02,	2.81168E+01,	6.18141E+00,	-4.52596E+00,	0.00000E+00,	0,	0
  1.32923E+03,	1.00000E+01,	-1.68001E-02,	2.90530E+01,	6.43329E+00,	-5.25666E+00,	0.00000E+00,	0,	0
  1.09367E+03,	1.00000E+01,	-1.68001E-02,	3.01045E+01,	6.69857E+00,	-6.11256E+00,	0.00000E+00,	0,	0
  9.00000E+02,	1.00000E+01,	-1.68001E-02,	3.50898E+01,	7.02504E+00,	-7.15554E+00,	0.00000E+00,	0,	0
  7.44828E+02,	1.00000E+01,	-1.68001E-02,	3.64466E+01,	7.35203E+00,	-8.31725E+00,	0.00000E+00,	0,	0
  6.17143E+02,	1.00000E+01,	-1.68001E-02,	3.78330E+01,	7.72383E+00,	-9.68288E+00,	0.00000E+00,	0,	0
  5.14286E+02,	1.00000E+01,	-1.68001E-02,	3.91946E+01,	8.13448E+00,	-1.12300E+01,	0.00000E+00,	0,	0
  4.15385E+02,	1.00000E+01,	-1.68001E-02,	4.05624E+01,	8.68693E+00,	-1.33865E+01,	0.00000E+00,	0,	0
  3.42857E+02,	1.00000E+01,	-1.68001E-02,	4.29430E+01,	9.26398E+00,	-1.56962E+01,	0.00000E+00,	0,	0
  2.84211E+02,	1.00000E+01,	-1.68001E-02,	4.73421E+01,	9.94105E+00,	-1.83989E+01,	0.00000E+00,	0,	0
  2.32258E+02,	1.00000E+01,	-1.68001E-02,	5.01734E+01,	1.07667E+01,	-2.18157E+01,	0.00000E+00,	0,	0
  1.91150E+02,	1.00000E+01,	-1.68001E-02,	5.32949E+01,	1.17093E+01,	-2.57228E+01,	0.00000E+00,	0,	0
  1.57664E+02,	1.00000E+01,	-1.68001E-02,	5.67190E+01,	1.28066E+01,	-3.02946E+01,	0.00000E+00,	0,	0
  1.30120E+02,	1.00000E+01,	-1.68001E-02,	6.04872E+01,	1.41201E+01,	-3.56981E+01,	0.00000E+00,	0,	0
  1.06931E+02,	1.00000E+01,	-1.68001E-02,	6.45797E+01,	1.57122E+01,	-4.22312E+01,	0.00000E+00,	0,	0
  8.85246E+01,	1.00000E+01,	-1.68001E-02,	7.01867E+01,	1.75595E+01,	-4.97149E+01,	0.00000E+00,	0,	0
  7.29730E+01,	1.00000E+01,	-1.68001E-02,	7.50384E+01,	1.98471E+01,	-5.88557E+01,	0.00000E+00,	0,	0
  6.00000E+01,	1.00000E+01,	-1.68001E-02,	8.02944E+01,	2.28908E+01,	-6.87264E+01,	0.00000E+00,	0,	0
  4.95413E+01,	1.00000E+01,	-1.68001E-02,	8.60279E+01,	2.63530E+01,	-8.08106E+01,	0.00000E+00,	0,	0
  4.06015E+01,	1.00000E+01,	-1.68001E-02,	8.96389E+01,	3.07473E+01,	-9.55667E+01,	0.00000E+00,	0,	0
  3.35404E+01,	1.00000E+01,	-1.68001E-02,	9.33932E+01,	3.52504E+01,	-1.11963E+02,	0.00000E+00,	0,	0
  2.75510E+01,	1.00000E+01,	-1.68001E-02,	9.71837E+01,	4.19618E+01,	-1.32216E+02,	0.00000E+00,	0,	0
  2.26891E+01,	1.00000E+01,	-1.68001E-02,	1.00122E+02,	4.99386E+01,	-1.55162E+02,	0.00000E+00,	0,	0
  1.87500E+01,	1.00000E+01,	-1.68001E-02,	1.03797E+02,	5.94763E+01,	-1.81196E+02,	0.00000E+00,	0,	0
  1.55172E+01,	1.00000E+01,	-1.68001E-02,	1.09334E+02,	7.07191E+01,	-2.10842E+02,	0.00000E+00,	0,	0
  1.28571E+01,	1.00000E+01,	-1.68001E-02,	1.13954E+02,	8.41197E+01,	-2.44450E+02,	0.00000E+00,	0,	0
  1.04651E+01,	1.00000E+01,	-1.68001E-02,	1.16658E+02,	1.01320E+02,	-2.86605E+02,	0.00000E+00,	0,	0
  8.65385E+00,	1.00000E+01,	-1.68001E-02,	1.22469E+02,	1.20297E+02,	-3.31774E+02,	0.00000E+00,	0,	0
  7.14286E+00,	1.00000E+01,	-1.68001E-02,	1.24872E+02,	1.41974E+02,	-3.82958E+02,	0.00000E+00,	0,	0
  5.84416E+00,	1.00000E+01,	-1.68001E-02,	1.27599E+02,	1.67573E+02,	-4.44307E+02,	0.00000E+00,	0,	0
  4.83871E+00,	1.00000E+01,	-1.68001E-02,	1.30704E+02,	1.94540E+02,	-5.10680E+02,	0.00000E+00,	0,	0
  3.98230E+00,	1.00000E+01,	-1.68001E-02,	1.34311E+02,	2.25185E+02,	-5.89659E+02,	0.00000E+00,	0,	0
  3.28467E+00,	1.00000E+01,	-1.68001E-02,	1.38492E+02,	2.58292E+02,	-6.80526E+02,	0.00000E+00,	0,	0
  2.69461E+00,	1.00000E+01,	-1.68001E-02,	1.42385E+02,	2.95753E+02,	-7.89584E+02,	0.00000E+00,	0,	0
  2.22772E+00,	1.00000E+01,	-1.68001E-02,	1.46882E+02,	3.34814E+02,	-9.13041E+02,	0.00000E+00,	0,	0
  1.82927E+00,	1.00000E+01,	-1.68001E-02,	1.52189E+02,	3.79581E+02,	-1.06392E+03,	0.00000E+00,	0,	0
  1.51007E+00,	1.00000E+01,	-1.68001E-02,	1.59127E+02,	4.27579E+02,	-1.23735E+03,	0.00000E+00,	0,	0
  1.24309E+00,	1.00000E+01,	-1.68001E-02,	1.63461E+02,	4.82976E+02,	-1.44598E+03,	0.00000E+00,	0,	0
  1.02273E+00,	1.00000E+01,	-1.68001E-02,	1.67883E+02,	5.46933E+02,	-1.69634E+03,	0.00000E+00,	0,	0
  8.45865E-01,	1.00000E+01,	-1.68001E-02,	1.74679E+02,	6.16181E+02,	-1.98178E+03,	0.00000E+00,	0,	0
  6.94444E-01,	1.00000E+01,	-1.68001E-02,	1.79036E+02,	7.01990E+02,	-2.33585E+03,	0.00000E+00,	0,	0
  5.73980E-01,	1.00000E+01,	-1.68001E-02,	1.83588E+02,	7.75816E+02,	-2.74765E+03,	0.00000E+00,	0,	0
  4.72689E-01,	1.00000E+01,	-1.68001E-02,	1.88945E+02,	8.89474E+02,	-3.24067E+03,	0.00000E+00,	0,	0
  3.90625E-01,	1.00000E+01,	-1.68001E-02,	1.94966E+02,	1.01858E+03,	-3.85288E+03,	0.00000E+00,	0,	0
  3.21429E-01,	1.00000E+01,	-1.68001E-02,	2.02070E+02,	1.18157E+03,	-4.54956E+03,	0.00000E+00,	0,	0
  2.64085E-01,	1.00000E+01,	-1.68001E-02,	2.10722E+02,	1.37457E+03,	-5.38530E+03,	0.00000E+00,	0,	0
  2.18023E-01,	1.00000E+01,	-1.68001E-02,	2.20793E+02,	1.59855E+03,	-6.35789E+03,	0.00000E+00,	0,	0
  1.79426E-01,	1.00000E+01,	-1.68001E-02,	2.32859E+02,	1.88335E+03,	-7.51533E+03,	0.00000E+00,	0,	0
  1.47638E-01,	1.00000E+01,	-1.68001E-02,	2.47326E+02,	2.22957E+03,	-8.89196E+03,	0.00000E+00,	0,	0
  1.21753E-01,	1.00000E+01,	-1.68001E-02,	2.64676E+02,	2.65467E+03,	-1.05016E+04,	0.00000E+00,	0,	0
  1.00446E-01,	1.00000E+01,	-1.68001E-02,	2.85529E+02,	3.18603E+03,	-1.23939E+04,	0.00000E+00,	0,	0