Z60W Data File: Version 1.1
CorrTest for Windows: SN CS310H1805157  V5.2.1111.9  2.5H6.220118
Sweep Frequency: Control Voltage
  Date:4-27-2026   Time:11:06:09
  Begin Information:            Cell Information
      Surface Area:           1
      Density:                7.8
      Weight:                 28
  End Information:              Cell Information
  Freq (Hz)     Ampl(mV)       Bias(V)      Time(Sec)       Z'(Ohm.cm^2)    Z''(Ohm.cm^2)        GD       Err      Range
End Comments
  3.07200E+05,	1.00000E+01,	-1.78308E-02,	6.79773E-02,	8.79167E+00,	8.27483E+00,	0.00000E+00,	0,	0
  2.76480E+05,	1.00000E+01,	-1.78308E-02,	1.67589E+00,	9.10722E+00,	7.04264E+00,	0.00000E+00,	0,	0
  2.30400E+05,	1.00000E+01,	-1.78308E-02,	2.58366E+00,	9.42558E+00,	5.85890E+00,	0.00000E+00,	0,	0
  1.72800E+05,	1.00000E+01,	-1.78308E-02,	3.48522E+00,	9.67708E+00,	4.35776E+00,	0.00000E+00,	0,	0
  1.53600E+05,	1.00000E+01,	-1.78308E-02,	4.40448E+00,	9.71341E+00,	3.84107E+00,	0.00000E+00,	0,	0
  1.15200E+05,	1.00000E+01,	-1.78308E-02,	5.30357E+00,	9.85536E+00,	2.77249E+00,	0.00000E+00,	0,	0
  9.87429E+04,	1.00000E+01,	-1.78308E-02,	6.23988E+00,	9.90631E+00,	2.32355E+00,	0.00000E+00,	0,	0
  8.13176E+04,	1.00000E+01,	-1.78308E-02,	7.14588E+00,	9.97373E+00,	1.84103E+00,	0.00000E+00,	0,	0
  6.58286E+04,	1.00000E+01,	-1.78308E-02,	8.06056E+00,	1.00019E+01,	1.37838E+00,	0.00000E+00,	0,	0
  5.31692E+04,	1.00000E+01,	-1.78308E-02,	1.02210E+01,	1.00218E+01,	9.76504E-01,	0.00000E+00,	0,	0
  4.60800E+04,	1.00000E+01,	-1.78308E-02,	1.17909E+01,	1.00435E+01,	7.48914E-01,	0.00000E+00,	0,	0
  3.63789E+04,	1.00000E+01,	-1.78308E-02,	1.27218E+01,	1.00718E+01,	4.09775E-01,	0.00000E+00,	0,	0
  3.00522E+04,	1.00000E+01,	-1.78308E-02,	1.36358E+01,	1.00872E+01,	1.58989E-01,	0.00000E+00,	0,	0
  2.46857E+04,	1.00000E+01,	-1.78308E-02,	1.45194E+01,	1.01258E+01,	-7.71867E-02,	0.00000E+00,	0,	0
  2.03294E+04,	1.00000E+01,	-1.78308E-02,	1.54623E+01,	1.01697E+01,	-3.08258E-01,	0.00000E+00,	0,	0
  1.64571E+04,	1.00000E+01,	-1.78308E-02,	1.64145E+01,	1.02060E+01,	-5.67419E-01,	0.00000E+00,	0,	0
  1.35529E+04,	1.00000E+01,	-1.78308E-02,	1.72170E+01,	1.02681E+01,	-8.29445E-01,	0.00000E+00,	0,	0
  1.11484E+04,	1.00000E+01,	-1.78308E-02,	1.81800E+01,	1.03484E+01,	-1.08218E+00,	0.00000E+00,	0,	0
  9.60000E+03,	1.00000E+01,	-1.78308E-02,	1.98458E+01,	1.04075E+01,	-1.28926E+00,	0.00000E+00,	0,	0
  7.85455E+03,	1.00000E+01,	-1.78308E-02,	2.07915E+01,	1.04972E+01,	-1.59609E+00,	0.00000E+00,	0,	0
  6.40000E+03,	1.00000E+01,	-1.78308E-02,	2.17564E+01,	1.06187E+01,	-1.94527E+00,	0.00000E+00,	0,	0
  5.23636E+03,	1.00000E+01,	-1.78308E-02,	2.27016E+01,	1.07485E+01,	-2.32657E+00,	0.00000E+00,	0,	0
  4.32000E+03,	1.00000E+01,	-1.78308E-02,	2.36289E+01,	1.09215E+01,	-2.75128E+00,	0.00000E+00,	0,	0
  3.52653E+03,	1.00000E+01,	-1.78308E-02,	2.46548E+01,	1.11222E+01,	-3.25329E+00,	0.00000E+00,	0,	0
  2.88000E+03,	1.00000E+01,	-1.78308E-02,	2.55499E+01,	1.13493E+01,	-3.82294E+00,	0.00000E+00,	0,	0
  2.36712E+03,	1.00000E+01,	-1.78308E-02,	2.65510E+01,	1.16013E+01,	-4.45173E+00,	0.00000E+00,	0,	0
  1.96364E+03,	1.00000E+01,	-1.78308E-02,	2.73265E+01,	1.18846E+01,	-5.11168E+00,	0.00000E+00,	0,	0
  1.61495E+03,	1.00000E+01,	-1.78308E-02,	2.94008E+01,	1.22244E+01,	-5.96724E+00,	0.00000E+00,	0,	0
  1.32923E+03,	1.00000E+01,	-1.78308E-02,	3.03366E+01,	1.26117E+01,	-6.88548E+00,	0.00000E+00,	0,	0
  1.09367E+03,	1.00000E+01,	-1.78308E-02,	3.14052E+01,	1.29896E+01,	-7.97024E+00,	0.00000E+00,	0,	0
  9.00000E+02,	1.00000E+01,	-1.78308E-02,	3.64184E+01,	1.35109E+01,	-9.28856E+00,	0.00000E+00,	0,	0
  7.44828E+02,	1.00000E+01,	-1.78308E-02,	3.78060E+01,	1.40036E+01,	-1.07268E+01,	0.00000E+00,	0,	0
  6.17143E+02,	1.00000E+01,	-1.78308E-02,	3.92102E+01,	1.42484E+01,	-1.27496E+01,	0.00000E+00,	0,	0
  5.14286E+02,	1.00000E+01,	-1.78308E-02,	4.05798E+01,	1.51593E+01,	-1.42741E+01,	0.00000E+00,	0,	0
  4.15385E+02,	1.00000E+01,	-1.78308E-02,	4.19365E+01,	1.59468E+01,	-1.68776E+01,	0.00000E+00,	0,	0
  3.42857E+02,	1.00000E+01,	-1.78308E-02,	4.43209E+01,	1.67462E+01,	-1.96545E+01,	0.00000E+00,	0,	0
  2.84211E+02,	1.00000E+01,	-1.78308E-02,	4.70431E+01,	1.76205E+01,	-2.28407E+01,	0.00000E+00,	0,	0
  2.32258E+02,	1.00000E+01,	-1.78308E-02,	4.99534E+01,	1.87029E+01,	-2.69109E+01,	0.00000E+00,	0,	0
  1.91150E+02,	1.00000E+01,	-1.78308E-02,	5.30834E+01,	1.98999E+01,	-3.15702E+01,	0.00000E+00,	0,	0
  1.57664E+02,	1.00000E+01,	-1.78308E-02,	5.64996E+01,	2.12573E+01,	-3.70264E+01,	0.00000E+00,	0,	0
  1.30120E+02,	1.00000E+01,	-1.78308E-02,	6.02718E+01,	2.28344E+01,	-4.34742E+01,	0.00000E+00,	0,	0
  1.06931E+02,	1.00000E+01,	-1.78308E-02,	6.43794E+01,	2.47033E+01,	-5.13004E+01,	0.00000E+00,	0,	0
  8.85246E+01,	1.00000E+01,	-1.78308E-02,	6.99869E+01,	2.68058E+01,	-6.02763E+01,	0.00000E+00,	0,	0
  7.29730E+01,	1.00000E+01,	-1.78308E-02,	7.48465E+01,	2.93770E+01,	-7.13007E+01,	0.00000E+00,	0,	0
  6.00000E+01,	1.00000E+01,	-1.78308E-02,	8.01220E+01,	3.26690E+01,	-8.32103E+01,	0.00000E+00,	0,	0
  4.95413E+01,	1.00000E+01,	-1.78308E-02,	8.58726E+01,	3.63695E+01,	-9.79217E+01,	0.00000E+00,	0,	0
  4.06015E+01,	1.00000E+01,	-1.78308E-02,	8.95261E+01,	4.10115E+01,	-1.16012E+02,	0.00000E+00,	0,	0
  3.35404E+01,	1.00000E+01,	-1.78308E-02,	9.33065E+01,	4.55791E+01,	-1.36330E+02,	0.00000E+00,	0,	0
  2.75510E+01,	1.00000E+01,	-1.78308E-02,	9.71233E+01,	5.25864E+01,	-1.61603E+02,	0.00000E+00,	0,	0
  2.26891E+01,	1.00000E+01,	-1.78308E-02,	1.00118E+02,	6.08828E+01,	-1.90602E+02,	0.00000E+00,	0,	0
  1.87500E+01,	1.00000E+01,	-1.78308E-02,	1.03807E+02,	7.08389E+01,	-2.24010E+02,	0.00000E+00,	0,	0
  1.55172E+01,	1.00000E+01,	-1.78308E-02,	1.09375E+02,	8.26605E+01,	-2.62578E+02,	0.00000E+00,	0,	0
  1.28571E+01,	1.00000E+01,	-1.78308E-02,	1.14049E+02,	9.71669E+01,	-3.07054E+02,	0.00000E+00,	0,	0
  1.04651E+01,	1.00000E+01,	-1.78308E-02,	1.16763E+02,	1.16277E+02,	-3.63686E+02,	0.00000E+00,	0,	0
  8.65385E+00,	1.00000E+01,	-1.78308E-02,	1.22572E+02,	1.38223E+02,	-4.25494E+02,	0.00000E+00,	0,	0
  7.14286E+00,	1.00000E+01,	-1.78308E-02,	1.24979E+02,	1.64898E+02,	-4.96311E+02,	0.00000E+00,	0,	0
  5.84416E+00,	1.00000E+01,	-1.78308E-02,	1.27716E+02,	1.98038E+02,	-5.81440E+02,	0.00000E+00,	0,	0
  4.83871E+00,	1.00000E+01,	-1.78308E-02,	1.30855E+02,	2.35369E+02,	-6.73334E+02,	0.00000E+00,	0,	0
  3.98230E+00,	1.00000E+01,	-1.78308E-02,	1.34488E+02,	2.80369E+02,	-7.81519E+02,	0.00000E+00,	0,	0
  3.28467E+00,	1.00000E+01,	-1.78308E-02,	1.38638E+02,	3.31899E+02,	-9.03538E+02,	0.00000E+00,	0,	0
  2.69461E+00,	1.00000E+01,	-1.78308E-02,	1.42595E+02,	3.92293E+02,	-1.04652E+03,	0.00000E+00,	0,	0
  2.22772E+00,	1.00000E+01,	-1.78308E-02,	1.47084E+02,	4.57054E+02,	-1.20407E+03,	0.00000E+00,	0,	0
  1.82927E+00,	1.00000E+01,	-1.78308E-02,	1.52404E+02,	5.31254E+02,	-1.39218E+03,	0.00000E+00,	0,	0
  1.51007E+00,	1.00000E+01,	-1.78308E-02,	1.59330E+02,	6.10145E+02,	-1.60343E+03,	0.00000E+00,	0,	0
  1.24309E+00,	1.00000E+01,	-1.78308E-02,	1.63668E+02,	6.98131E+02,	-1.85359E+03,	0.00000E+00,	0,	0
  1.02273E+00,	1.00000E+01,	-1.78308E-02,	1.68107E+02,	7.95829E+02,	-2.15138E+03,	0.00000E+00,	0,	0
  8.45865E-01,	1.00000E+01,	-1.78308E-02,	1.74927E+02,	8.97478E+02,	-2.48671E+03,	0.00000E+00,	0,	0
  6.94444E-01,	1.00000E+01,	-1.78308E-02,	1.79333E+02,	1.01718E+03,	-2.90266E+03,	0.00000E+00,	0,	0
  5.73980E-01,	1.00000E+01,	-1.78308E-02,	1.83933E+02,	1.11003E+03,	-3.39220E+03,	0.00000E+00,	0,	0
  4.72689E-01,	1.00000E+01,	-1.78308E-02,	1.89275E+02,	1.25655E+03,	-3.97253E+03,	0.00000E+00,	0,	0
  3.90625E-01,	1.00000E+01,	-1.78308E-02,	1.95303E+02,	1.41949E+03,	-4.70781E+03,	0.00000E+00,	0,	0
  3.21429E-01,	1.00000E+01,	-1.78308E-02,	2.02440E+02,	1.61722E+03,	-5.53049E+03,	0.00000E+00,	0,	0
  2.64085E-01,	1.00000E+01,	-1.78308E-02,	2.11116E+02,	1.84128E+03,	-6.51823E+03,	0.00000E+00,	0,	0
  2.18023E-01,	1.00000E+01,	-1.78308E-02,	2.21213E+02,	2.09235E+03,	-7.67402E+03,	0.00000E+00,	0,	0
  1.79426E-01,	1.00000E+01,	-1.78308E-02,	2.33283E+02,	2.40027E+03,	-9.03933E+03,	0.00000E+00,	0,	0
  1.47638E-01,	1.00000E+01,	-1.78308E-02,	2.47762E+02,	2.75588E+03,	-1.06728E+04,	0.00000E+00,	0,	0
  1.21753E-01,	1.00000E+01,	-1.78308E-02,	2.65177E+02,	3.17154E+03,	-1.25873E+04,	0.00000E+00,	0,	0
  1.00446E-01,	1.00000E+01,	-1.78308E-02,	2.86056E+02,	3.66236E+03,	-1.48546E+04,	0.00000E+00,	0,	0