Z60W Data File: Version 1.1
CorrTest for Windows: SN CS310H1805157  V5.2.1111.9  2.5H6.220118
Sweep Frequency: Control Voltage
  Date:4-27-2026   Time:16:55:24
  Begin Information:            Cell Information
      Surface Area:           1
      Density:                7.8
      Weight:                 28
  End Information:              Cell Information
  Freq (Hz)     Ampl(mV)       Bias(V)      Time(Sec)       Z'(Ohm.cm^2)    Z''(Ohm.cm^2)        GD       Err      Range
End Comments
  3.07200E+05,	1.00000E+01,	-2.05818E-02,	2.42952E-02,	4.12508E+02,	-7.48071E+01,	0.00000E+00,	0,	0
  2.76480E+05,	1.00000E+01,	-2.05818E-02,	1.63074E+00,	4.16252E+02,	-7.80576E+01,	0.00000E+00,	0,	0
  2.30400E+05,	1.00000E+01,	-2.05818E-02,	2.56717E+00,	4.27861E+02,	-7.86544E+01,	0.00000E+00,	0,	0
  1.72800E+05,	1.00000E+01,	-2.05818E-02,	3.49205E+00,	4.45739E+02,	-7.94440E+01,	0.00000E+00,	0,	0
  1.53600E+05,	1.00000E+01,	-2.05818E-02,	4.38174E+00,	4.53559E+02,	-7.88164E+01,	0.00000E+00,	0,	0
  1.15200E+05,	1.00000E+01,	-2.05818E-02,	5.27561E+00,	4.68517E+02,	-7.24186E+01,	0.00000E+00,	0,	0
  9.87429E+04,	1.00000E+01,	-2.05818E-02,	6.19837E+00,	4.78395E+02,	-6.94433E+01,	0.00000E+00,	0,	0
  8.13176E+04,	1.00000E+01,	-2.05818E-02,	7.14759E+00,	4.90477E+02,	-6.25408E+01,	0.00000E+00,	0,	0
  6.58286E+04,	1.00000E+01,	-2.05818E-02,	8.04565E+00,	4.96992E+02,	-5.31847E+01,	0.00000E+00,	0,	0
  5.31692E+04,	1.00000E+01,	-2.05818E-02,	9.10019E+00,	5.04281E+02,	-5.94666E+01,	0.00000E+00,	0,	0
  4.60800E+04,	1.00000E+01,	-2.05818E-02,	1.06699E+01,	5.06682E+02,	-4.62263E+01,	0.00000E+00,	0,	0
  3.63789E+04,	1.00000E+01,	-2.05818E-02,	1.16129E+01,	5.15367E+02,	-3.95702E+01,	0.00000E+00,	0,	0
  3.00522E+04,	1.00000E+01,	-2.05818E-02,	1.24934E+01,	5.31937E+02,	-1.56757E+01,	0.00000E+00,	0,	0
  2.46857E+04,	1.00000E+01,	-2.05818E-02,	1.33398E+01,	5.25752E+02,	-2.89290E+01,	0.00000E+00,	0,	0
  2.03294E+04,	1.00000E+01,	-2.05818E-02,	1.42868E+01,	5.25753E+02,	-2.74676E+01,	0.00000E+00,	0,	0
  1.64571E+04,	1.00000E+01,	-2.05818E-02,	1.52291E+01,	5.26419E+02,	-2.69386E+01,	0.00000E+00,	0,	0
  1.35529E+04,	1.00000E+01,	-2.05818E-02,	1.60706E+01,	5.29554E+02,	-2.10235E+01,	0.00000E+00,	0,	0
  1.11484E+04,	1.00000E+01,	-2.05818E-02,	1.69732E+01,	5.32233E+02,	-1.85379E+01,	0.00000E+00,	0,	0
  9.60000E+03,	1.00000E+01,	-2.05818E-02,	1.98393E+01,	5.31951E+02,	-1.44585E+01,	0.00000E+00,	0,	0
  7.85455E+03,	1.00000E+01,	-2.05818E-02,	2.07837E+01,	5.32930E+02,	-1.40643E+01,	0.00000E+00,	0,	0
  6.40000E+03,	1.00000E+01,	-2.05818E-02,	2.17643E+01,	5.35717E+02,	-1.33665E+01,	0.00000E+00,	0,	0
  5.23636E+03,	1.00000E+01,	-2.05818E-02,	2.27075E+01,	5.34569E+02,	-1.43327E+01,	0.00000E+00,	0,	0
  4.32000E+03,	1.00000E+01,	-2.05818E-02,	2.36367E+01,	5.33201E+02,	-1.18559E+01,	0.00000E+00,	0,	0
  3.52653E+03,	1.00000E+01,	-2.05818E-02,	2.46338E+01,	5.33383E+02,	-1.24813E+01,	0.00000E+00,	0,	0
  2.88000E+03,	1.00000E+01,	-2.05818E-02,	2.55378E+01,	5.41628E+02,	-1.25432E+01,	0.00000E+00,	0,	0
  2.36712E+03,	1.00000E+01,	-2.05818E-02,	2.65298E+01,	5.39457E+02,	-1.53732E+01,	0.00000E+00,	0,	0
  1.96364E+03,	1.00000E+01,	-2.05818E-02,	2.73345E+01,	5.40294E+02,	-1.49824E+01,	0.00000E+00,	0,	0
  1.61495E+03,	1.00000E+01,	-2.05818E-02,	2.82942E+01,	5.45027E+02,	-1.28319E+01,	0.00000E+00,	0,	0
  1.32923E+03,	1.00000E+01,	-2.05818E-02,	2.92577E+01,	5.42128E+02,	-1.71946E+01,	0.00000E+00,	0,	0
  1.09367E+03,	1.00000E+01,	-2.05818E-02,	3.03247E+01,	5.43367E+02,	-1.82493E+01,	0.00000E+00,	0,	0
  9.00000E+02,	1.00000E+01,	-2.05818E-02,	3.53107E+01,	5.47770E+02,	-2.55468E+01,	0.00000E+00,	0,	0
  7.44828E+02,	1.00000E+01,	-2.05818E-02,	3.66707E+01,	5.49529E+02,	-2.96906E+01,	0.00000E+00,	0,	0
  6.17143E+02,	1.00000E+01,	-2.05818E-02,	3.80336E+01,	5.51634E+02,	-3.45237E+01,	0.00000E+00,	0,	0
  5.14286E+02,	1.00000E+01,	-2.05818E-02,	3.94029E+01,	5.53999E+02,	-3.98424E+01,	0.00000E+00,	0,	0
  4.15385E+02,	1.00000E+01,	-2.05818E-02,	4.07608E+01,	5.56725E+02,	-4.71446E+01,	0.00000E+00,	0,	0
  3.42857E+02,	1.00000E+01,	-2.05818E-02,	4.31601E+01,	5.60575E+02,	-5.51929E+01,	0.00000E+00,	0,	0
  2.84211E+02,	1.00000E+01,	-2.05818E-02,	4.58321E+01,	5.64557E+02,	-6.38326E+01,	0.00000E+00,	0,	0
  2.32258E+02,	1.00000E+01,	-2.05818E-02,	4.86999E+01,	5.69478E+02,	-7.54747E+01,	0.00000E+00,	0,	0
  1.91150E+02,	1.00000E+01,	-2.05818E-02,	5.18183E+01,	5.75719E+02,	-8.82458E+01,	0.00000E+00,	0,	0
  1.57664E+02,	1.00000E+01,	-2.05818E-02,	5.52231E+01,	5.82377E+02,	-1.02927E+02,	0.00000E+00,	0,	0
  1.30120E+02,	1.00000E+01,	-2.05818E-02,	5.90071E+01,	5.90164E+02,	-1.20246E+02,	0.00000E+00,	0,	0
  1.06931E+02,	1.00000E+01,	-2.05818E-02,	6.31212E+01,	5.99904E+02,	-1.40721E+02,	0.00000E+00,	0,	0
  8.85246E+01,	1.00000E+01,	-2.05818E-02,	6.87139E+01,	6.11618E+02,	-1.63713E+02,	0.00000E+00,	0,	0
  7.29730E+01,	1.00000E+01,	-2.05818E-02,	7.35882E+01,	6.25832E+02,	-1.91351E+02,	0.00000E+00,	0,	0
  6.00000E+01,	1.00000E+01,	-2.05818E-02,	7.88400E+01,	6.35876E+02,	-2.15937E+02,	0.00000E+00,	0,	0
  4.95413E+01,	1.00000E+01,	-2.05818E-02,	8.45735E+01,	6.51788E+02,	-2.49827E+02,	0.00000E+00,	0,	0
  4.06015E+01,	1.00000E+01,	-2.05818E-02,	8.81795E+01,	6.69318E+02,	-2.90651E+02,	0.00000E+00,	0,	0
  3.35404E+01,	1.00000E+01,	-2.05818E-02,	9.19415E+01,	6.85262E+02,	-3.37805E+02,	0.00000E+00,	0,	0
  2.75510E+01,	1.00000E+01,	-2.05818E-02,	9.57419E+01,	7.10062E+02,	-3.91951E+02,	0.00000E+00,	0,	0
  2.26891E+01,	1.00000E+01,	-2.05818E-02,	9.87102E+01,	7.35460E+02,	-4.53712E+02,	0.00000E+00,	0,	0
  1.87500E+01,	1.00000E+01,	-2.05818E-02,	1.02454E+02,	7.63443E+02,	-5.24154E+02,	0.00000E+00,	0,	0
  1.55172E+01,	1.00000E+01,	-2.05818E-02,	1.08007E+02,	7.94900E+02,	-6.06235E+02,	0.00000E+00,	0,	0
  1.28571E+01,	1.00000E+01,	-2.05818E-02,	1.12648E+02,	8.29376E+02,	-7.00791E+02,	0.00000E+00,	0,	0
  1.04651E+01,	1.00000E+01,	-2.05818E-02,	1.15359E+02,	8.70200E+02,	-8.23195E+02,	0.00000E+00,	0,	0
  8.65385E+00,	1.00000E+01,	-2.05818E-02,	1.21173E+02,	9.13037E+02,	-9.55212E+02,	0.00000E+00,	0,	0
  7.14286E+00,	1.00000E+01,	-2.05818E-02,	1.23615E+02,	9.60563E+02,	-1.11190E+03,	0.00000E+00,	0,	0
  5.84416E+00,	1.00000E+01,	-2.05818E-02,	1.26408E+02,	1.01796E+03,	-1.30584E+03,	0.00000E+00,	0,	0
  4.83871E+00,	1.00000E+01,	-2.05818E-02,	1.29527E+02,	1.07984E+03,	-1.52217E+03,	0.00000E+00,	0,	0
  3.98230E+00,	1.00000E+01,	-2.05818E-02,	1.33126E+02,	1.15222E+03,	-1.78499E+03,	0.00000E+00,	0,	0
  3.28467E+00,	1.00000E+01,	-2.05818E-02,	1.37345E+02,	1.23545E+03,	-2.09235E+03,	0.00000E+00,	0,	0
  2.69461E+00,	1.00000E+01,	-2.05818E-02,	1.41224E+02,	1.33416E+03,	-2.46604E+03,	0.00000E+00,	0,	0
  2.22772E+00,	1.00000E+01,	-2.05818E-02,	1.45736E+02,	1.44467E+03,	-2.89047E+03,	0.00000E+00,	0,	0
  1.82927E+00,	1.00000E+01,	-2.05818E-02,	1.51030E+02,	1.57892E+03,	-3.41076E+03,	0.00000E+00,	0,	0
  1.51007E+00,	1.00000E+01,	-2.05818E-02,	1.54908E+02,	1.73275E+03,	-4.00861E+03,	0.00000E+00,	0,	0
  1.24309E+00,	1.00000E+01,	-2.05818E-02,	1.59206E+02,	1.91652E+03,	-4.72606E+03,	0.00000E+00,	0,	0
  1.02273E+00,	1.00000E+01,	-2.05818E-02,	1.63687E+02,	2.13953E+03,	-5.58026E+03,	0.00000E+00,	0,	0
  8.45865E-01,	1.00000E+01,	-2.05818E-02,	1.70537E+02,	2.39457E+03,	-6.55095E+03,	0.00000E+00,	0,	0
  6.94444E-01,	1.00000E+01,	-2.05818E-02,	1.74915E+02,	2.71411E+03,	-7.74696E+03,	0.00000E+00,	0,	0
  5.73980E-01,	1.00000E+01,	-2.05818E-02,	1.79535E+02,	3.01033E+03,	-9.13466E+03,	0.00000E+00,	0,	0
  4.72689E-01,	1.00000E+01,	-2.05818E-02,	1.84860E+02,	3.46382E+03,	-1.07765E+04,	0.00000E+00,	0,	0
  3.90625E-01,	1.00000E+01,	-2.05818E-02,	1.90890E+02,	4.00253E+03,	-1.28000E+04,	0.00000E+00,	0,	0
  3.21429E-01,	1.00000E+01,	-2.05818E-02,	1.98054E+02,	4.68780E+03,	-1.50807E+04,	0.00000E+00,	0,	0
  2.64085E-01,	1.00000E+01,	-2.05818E-02,	2.15483E+02,	5.56411E+03,	-1.75694E+04,	0.00000E+00,	0,	0
  2.18023E-01,	1.00000E+01,	-2.05818E-02,	2.25619E+02,	6.38072E+03,	-2.10514E+04,	0.00000E+00,	0,	0
  1.79426E-01,	1.00000E+01,	-2.05818E-02,	2.37715E+02,	7.69178E+03,	-2.45564E+04,	0.00000E+00,	0,	0
  1.47638E-01,	1.00000E+01,	-2.05818E-02,	2.52225E+02,	9.17047E+03,	-2.88319E+04,	0.00000E+00,	0,	0
  1.21753E-01,	1.00000E+01,	-2.05818E-02,	2.69578E+02,	1.09331E+04,	-3.37629E+04,	0.00000E+00,	0,	0
  1.00446E-01,	1.00000E+01,	-2.05818E-02,	2.90444E+02,	1.30507E+04,	-3.94702E+04,	0.00000E+00,	0,	0