Z60W Data File: Version 1.1
CorrTest for Windows: SN CS310H1805157  V5.2.1111.9  2.5H6.220118
Sweep Frequency: Control Voltage
  Date:4-27-2026   Time:17:49:32
  Begin Information:            Cell Information
      Surface Area:           1
      Density:                7.8
      Weight:                 28
  End Information:              Cell Information
  Freq (Hz)     Ampl(mV)       Bias(V)      Time(Sec)       Z'(Ohm.cm^2)    Z''(Ohm.cm^2)        GD       Err      Range
End Comments
  1.02857E+03,	1.00000E+01,	-2.51559E-02,	4.22316E-02,	6.55061E+03,	-3.65239E+02,	0.00000E+00,	0,	0
  8.30769E+02,	1.00000E+01,	-2.51559E-02,	4.30610E+00,	6.57314E+03,	-3.29654E+02,	0.00000E+00,	0,	0
  6.96774E+02,	1.00000E+01,	-2.51559E-02,	5.66858E+00,	6.59778E+03,	-2.93326E+02,	0.00000E+00,	0,	0
  5.68421E+02,	1.00000E+01,	-2.51559E-02,	7.08482E+00,	6.62057E+03,	-2.59541E+02,	0.00000E+00,	0,	0
  4.59574E+02,	1.00000E+01,	-2.51559E-02,	8.49170E+00,	6.63454E+03,	-2.47394E+02,	0.00000E+00,	0,	0
  3.78947E+02,	1.00000E+01,	-2.51559E-02,	9.91793E+00,	6.66258E+03,	-2.21462E+02,	0.00000E+00,	0,	0
  3.13043E+02,	1.00000E+01,	-2.51559E-02,	1.23891E+01,	6.68925E+03,	-2.14581E+02,	0.00000E+00,	0,	0
  2.54118E+02,	1.00000E+01,	-2.51559E-02,	1.51494E+01,	6.72587E+03,	-2.11559E+02,	0.00000E+00,	0,	0
  2.09709E+02,	1.00000E+01,	-2.51559E-02,	1.81579E+01,	6.75796E+03,	-2.24209E+02,	0.00000E+00,	0,	0
  1.71429E+02,	1.00000E+01,	-2.51559E-02,	2.15380E+01,	6.79504E+03,	-2.29142E+02,	0.00000E+00,	0,	0
  1.41176E+02,	1.00000E+01,	-2.51559E-02,	2.51700E+01,	6.83886E+03,	-2.44682E+02,	0.00000E+00,	0,	0
  1.16129E+02,	1.00000E+01,	-2.51559E-02,	2.91056E+01,	6.88765E+03,	-2.76225E+02,	0.00000E+00,	0,	0
  9.64286E+01,	1.00000E+01,	-2.51559E-02,	3.45354E+01,	6.95260E+03,	-3.10135E+02,	0.00000E+00,	0,	0
  7.94118E+01,	1.00000E+01,	-2.51559E-02,	3.92178E+01,	7.02580E+03,	-3.58433E+02,	0.00000E+00,	0,	0
  6.50602E+01,	1.00000E+01,	-2.51559E-02,	4.43202E+01,	7.14178E+03,	-4.20366E+02,	0.00000E+00,	0,	0
  5.29412E+01,	1.00000E+01,	-2.51559E-02,	4.98596E+01,	7.11036E+03,	-4.24026E+02,	0.00000E+00,	0,	0
  4.35484E+01,	1.00000E+01,	-2.51559E-02,	5.34034E+01,	7.16450E+03,	-4.87911E+02,	0.00000E+00,	0,	0
  3.57616E+01,	1.00000E+01,	-2.51559E-02,	5.70923E+01,	7.18663E+03,	-6.08147E+02,	0.00000E+00,	0,	0
  2.95082E+01,	1.00000E+01,	-2.51559E-02,	6.10335E+01,	7.28586E+03,	-6.90625E+02,	0.00000E+00,	0,	0
  2.42152E+01,	1.00000E+01,	-2.51559E-02,	6.49020E+01,	7.37641E+03,	-7.95372E+02,	0.00000E+00,	0,	0
  2.04545E+01,	1.00000E+01,	-2.51559E-02,	6.87137E+01,	7.45870E+03,	-9.04735E+02,	0.00000E+00,	0,	0
  1.66667E+01,	1.00000E+01,	-2.51559E-02,	7.22722E+01,	7.55470E+03,	-1.05806E+03,	0.00000E+00,	0,	0
  1.36364E+01,	1.00000E+01,	-2.51559E-02,	7.73436E+01,	7.67127E+03,	-1.23574E+03,	0.00000E+00,	0,	0
  1.12500E+01,	1.00000E+01,	-2.51559E-02,	8.08727E+01,	7.78772E+03,	-1.43470E+03,	0.00000E+00,	0,	0
  9.18367E+00,	1.00000E+01,	-2.51559E-02,	8.50001E+01,	7.92584E+03,	-1.68386E+03,	0.00000E+00,	0,	0
  7.50000E+00,	1.00000E+01,	-2.51559E-02,	8.73883E+01,	8.06606E+03,	-1.96370E+03,	0.00000E+00,	0,	0
  6.16438E+00,	1.00000E+01,	-2.51559E-02,	9.00935E+01,	8.20963E+03,	-2.28701E+03,	0.00000E+00,	0,	0
  5.05618E+00,	1.00000E+01,	-2.51559E-02,	9.32238E+01,	8.39334E+03,	-2.66365E+03,	0.00000E+00,	0,	0
  4.16667E+00,	1.00000E+01,	-2.51559E-02,	9.67178E+01,	8.59720E+03,	-3.08586E+03,	0.00000E+00,	0,	0
  3.40909E+00,	1.00000E+01,	-2.51559E-02,	1.00773E+02,	8.83724E+03,	-3.59540E+03,	0.00000E+00,	0,	0
  2.81250E+00,	1.00000E+01,	-2.51559E-02,	1.04525E+02,	9.09960E+03,	-4.16641E+03,	0.00000E+00,	0,	0
  2.30769E+00,	1.00000E+01,	-2.51559E-02,	1.08909E+02,	9.40142E+03,	-4.84328E+03,	0.00000E+00,	0,	0
  1.89076E+00,	1.00000E+01,	-2.51559E-02,	1.14039E+02,	9.75118E+03,	-5.63984E+03,	0.00000E+00,	0,	0
  1.56250E+00,	1.00000E+01,	-2.51559E-02,	1.17675E+02,	1.00997E+04,	-6.52246E+03,	0.00000E+00,	0,	0
  1.27841E+00,	1.00000E+01,	-2.51559E-02,	1.21891E+02,	1.05203E+04,	-7.61212E+03,	0.00000E+00,	0,	0
  1.05140E+00,	1.00000E+01,	-2.51559E-02,	1.26231E+02,	1.10339E+04,	-8.84224E+03,	0.00000E+00,	0,	0
  8.65385E-01,	1.00000E+01,	-2.51559E-02,	1.36688E+02,	1.15799E+04,	-1.03244E+04,	0.00000E+00,	0,	0
  7.12025E-01,	1.00000E+01,	-2.51559E-02,	1.40957E+02,	1.21281E+04,	-1.19732E+04,	0.00000E+00,	0,	0
  5.85938E-01,	1.00000E+01,	-2.51559E-02,	1.45442E+02,	1.26168E+04,	-1.44466E+04,	0.00000E+00,	0,	0
  4.80769E-01,	1.00000E+01,	-2.51559E-02,	1.50706E+02,	1.34171E+04,	-1.68568E+04,	0.00000E+00,	0,	0
  3.96127E-01,	1.00000E+01,	-2.51559E-02,	1.56670E+02,	1.47155E+04,	-2.01927E+04,	0.00000E+00,	0,	0
  3.25144E-01,	1.00000E+01,	-2.51559E-02,	1.63713E+02,	1.57525E+04,	-2.35597E+04,	0.00000E+00,	0,	0
  2.66588E-01,	1.00000E+01,	-2.51559E-02,	1.72136E+02,	1.69644E+04,	-2.76701E+04,	0.00000E+00,	0,	0
  2.19298E-01,	1.00000E+01,	-2.51559E-02,	1.82217E+02,	1.83488E+04,	-3.24715E+04,	0.00000E+00,	0,	0
  1.80288E-01,	1.00000E+01,	-2.51559E-02,	1.94230E+02,	1.99773E+04,	-3.81759E+04,	0.00000E+00,	0,	0
  1.48221E-01,	1.00000E+01,	-2.51559E-02,	2.08822E+02,	2.18978E+04,	-4.48997E+04,	0.00000E+00,	0,	0
  1.21753E-01,	1.00000E+01,	-2.51559E-02,	2.26239E+02,	2.41860E+04,	-5.31028E+04,	0.00000E+00,	0,	0
  1.00446E-01,	1.00000E+01,	-2.51559E-02,	2.47162E+02,	2.68360E+04,	-6.23418E+04,	0.00000E+00,	0,	0