Z60W Data File: Version 1.1
CorrTest for Windows: SN CS310H1805157  V5.2.1111.9  2.5H6.220118
Sweep Frequency: Control Voltage
  Date:4-26-2026   Time:21:55:37
  Begin Information:            Cell Information
      Surface Area:           1
      Density:                7.8
      Weight:                 28
  End Information:              Cell Information
  Freq (Hz)     Ampl(mV)       Bias(V)      Time(Sec)       Z'(Ohm.cm^2)    Z''(Ohm.cm^2)        GD       Err      Range
End Comments
  3.07200E+05,	1.00000E+01,	-8.27038E-03,	3.39677E-02,	1.49299E+00,	4.45276E+00,	0.00000E+00,	0,	0
  2.76480E+05,	1.00000E+01,	-8.27038E-03,	1.64926E+00,	2.02764E+00,	3.63398E+00,	0.00000E+00,	0,	0
  2.30400E+05,	1.00000E+01,	-8.27038E-03,	2.54609E+00,	2.43968E+00,	3.03740E+00,	0.00000E+00,	0,	0
  1.72800E+05,	1.00000E+01,	-8.27038E-03,	3.46241E+00,	2.82378E+00,	2.25181E+00,	0.00000E+00,	0,	0
  1.53600E+05,	1.00000E+01,	-8.27038E-03,	4.35864E+00,	2.92653E+00,	1.97997E+00,	0.00000E+00,	0,	0
  1.15200E+05,	1.00000E+01,	-8.27038E-03,	5.24961E+00,	3.11110E+00,	1.41442E+00,	0.00000E+00,	0,	0
  9.87429E+04,	1.00000E+01,	-8.27038E-03,	6.16975E+00,	3.18360E+00,	1.17787E+00,	0.00000E+00,	0,	0
  8.13176E+04,	1.00000E+01,	-8.27038E-03,	7.06621E+00,	3.25077E+00,	9.10084E-01,	0.00000E+00,	0,	0
  6.58286E+04,	1.00000E+01,	-8.27038E-03,	7.96981E+00,	3.29586E+00,	6.77406E-01,	0.00000E+00,	0,	0
  5.31692E+04,	1.00000E+01,	-8.27038E-03,	1.12635E+01,	3.35460E+00,	4.09372E-01,	0.00000E+00,	0,	0
  4.60800E+04,	1.00000E+01,	-8.27038E-03,	1.28503E+01,	3.37626E+00,	2.85203E-01,	0.00000E+00,	0,	0
  3.63789E+04,	1.00000E+01,	-8.27038E-03,	1.38139E+01,	3.39742E+00,	9.90060E-02,	0.00000E+00,	0,	0
  3.00522E+04,	1.00000E+01,	-8.27038E-03,	1.46578E+01,	3.42426E+00,	-4.03322E-02,	0.00000E+00,	0,	0
  2.46857E+04,	1.00000E+01,	-8.27038E-03,	1.55252E+01,	3.45429E+00,	-1.84446E-01,	0.00000E+00,	0,	0
  2.03294E+04,	1.00000E+01,	-8.27038E-03,	1.64742E+01,	3.48431E+00,	-3.18136E-01,	0.00000E+00,	0,	0
  1.64571E+04,	1.00000E+01,	-8.27038E-03,	1.73894E+01,	3.52476E+00,	-4.72300E-01,	0.00000E+00,	0,	0
  1.35529E+04,	1.00000E+01,	-8.27038E-03,	1.81956E+01,	3.57643E+00,	-6.22432E-01,	0.00000E+00,	0,	0
  1.11484E+04,	1.00000E+01,	-8.27038E-03,	1.91267E+01,	3.62570E+00,	-7.85467E-01,	0.00000E+00,	0,	0
  9.60000E+03,	1.00000E+01,	-8.27038E-03,	2.19300E+01,	3.53095E+00,	-8.98640E-01,	0.00000E+00,	0,	0
  7.85455E+03,	1.00000E+01,	-8.27038E-03,	2.28884E+01,	3.60030E+00,	-1.09064E+00,	0.00000E+00,	0,	0
  6.40000E+03,	1.00000E+01,	-8.27038E-03,	2.38764E+01,	3.68190E+00,	-1.30133E+00,	0.00000E+00,	0,	0
  5.23636E+03,	1.00000E+01,	-8.27038E-03,	2.48294E+01,	3.77260E+00,	-1.54009E+00,	0.00000E+00,	0,	0
  4.32000E+03,	1.00000E+01,	-8.27038E-03,	2.57414E+01,	3.87253E+00,	-1.80024E+00,	0.00000E+00,	0,	0
  3.52653E+03,	1.00000E+01,	-8.27038E-03,	2.67572E+01,	3.98679E+00,	-2.11345E+00,	0.00000E+00,	0,	0
  2.88000E+03,	1.00000E+01,	-8.27038E-03,	2.76533E+01,	4.11781E+00,	-2.47883E+00,	0.00000E+00,	0,	0
  2.36712E+03,	1.00000E+01,	-8.27038E-03,	2.86538E+01,	4.25907E+00,	-2.88577E+00,	0.00000E+00,	0,	0
  1.96364E+03,	1.00000E+01,	-8.27038E-03,	2.94080E+01,	4.40858E+00,	-3.33742E+00,	0.00000E+00,	0,	0
  1.61495E+03,	1.00000E+01,	-8.27038E-03,	3.03091E+01,	4.57917E+00,	-3.88874E+00,	0.00000E+00,	0,	0
  1.32923E+03,	1.00000E+01,	-8.27038E-03,	3.12356E+01,	4.77944E+00,	-4.54282E+00,	0.00000E+00,	0,	0
  1.09367E+03,	1.00000E+01,	-8.27038E-03,	3.22820E+01,	4.99600E+00,	-5.31167E+00,	0.00000E+00,	0,	0
  9.00000E+02,	1.00000E+01,	-8.27038E-03,	3.72732E+01,	5.25871E+00,	-6.22672E+00,	0.00000E+00,	0,	0
  7.44828E+02,	1.00000E+01,	-8.27038E-03,	3.86387E+01,	5.53696E+00,	-7.26083E+00,	0.00000E+00,	0,	0
  6.17143E+02,	1.00000E+01,	-8.27038E-03,	4.00121E+01,	5.84857E+00,	-8.47506E+00,	0.00000E+00,	0,	0
  5.14286E+02,	1.00000E+01,	-8.27038E-03,	4.13732E+01,	6.19753E+00,	-9.85765E+00,	0.00000E+00,	0,	0
  4.15385E+02,	1.00000E+01,	-8.27038E-03,	4.27679E+01,	6.67215E+00,	-1.17829E+01,	0.00000E+00,	0,	0
  3.42857E+02,	1.00000E+01,	-8.27038E-03,	4.51535E+01,	7.17094E+00,	-1.38366E+01,	0.00000E+00,	0,	0
  2.84211E+02,	1.00000E+01,	-8.27038E-03,	4.95531E+01,	7.77314E+00,	-1.62613E+01,	0.00000E+00,	0,	0
  2.32258E+02,	1.00000E+01,	-8.27038E-03,	5.24386E+01,	8.51089E+00,	-1.93035E+01,	0.00000E+00,	0,	0
  1.91150E+02,	1.00000E+01,	-8.27038E-03,	5.55652E+01,	9.36788E+00,	-2.27860E+01,	0.00000E+00,	0,	0
  1.57664E+02,	1.00000E+01,	-8.27038E-03,	5.90363E+01,	1.03761E+01,	-2.68517E+01,	0.00000E+00,	0,	0
  1.30120E+02,	1.00000E+01,	-8.27038E-03,	6.27852E+01,	1.15902E+01,	-3.16478E+01,	0.00000E+00,	0,	0
  1.06931E+02,	1.00000E+01,	-8.27038E-03,	6.68664E+01,	1.30832E+01,	-3.74361E+01,	0.00000E+00,	0,	0
  8.85246E+01,	1.00000E+01,	-8.27038E-03,	7.24683E+01,	1.48161E+01,	-4.40391E+01,	0.00000E+00,	0,	0
  7.29730E+01,	1.00000E+01,	-8.27038E-03,	7.72959E+01,	1.69894E+01,	-5.20926E+01,	0.00000E+00,	0,	0
  6.00000E+01,	1.00000E+01,	-8.27038E-03,	8.25733E+01,	1.98779E+01,	-6.07403E+01,	0.00000E+00,	0,	0
  4.95413E+01,	1.00000E+01,	-8.27038E-03,	8.83128E+01,	2.31783E+01,	-7.12904E+01,	0.00000E+00,	0,	0
  4.06015E+01,	1.00000E+01,	-8.27038E-03,	9.19560E+01,	2.73486E+01,	-8.40810E+01,	0.00000E+00,	0,	0
  3.35404E+01,	1.00000E+01,	-8.27038E-03,	9.57023E+01,	3.16663E+01,	-9.82190E+01,	0.00000E+00,	0,	0
  2.75510E+01,	1.00000E+01,	-8.27038E-03,	9.95200E+01,	3.79849E+01,	-1.15564E+02,	0.00000E+00,	0,	0
  2.26891E+01,	1.00000E+01,	-8.27038E-03,	1.02501E+02,	4.54091E+01,	-1.35054E+02,	0.00000E+00,	0,	0
  1.87500E+01,	1.00000E+01,	-8.27038E-03,	1.06217E+02,	5.41425E+01,	-1.57018E+02,	0.00000E+00,	0,	0
  1.55172E+01,	1.00000E+01,	-8.27038E-03,	1.11780E+02,	6.42431E+01,	-1.81838E+02,	0.00000E+00,	0,	0
  1.28571E+01,	1.00000E+01,	-8.27038E-03,	1.16412E+02,	7.59521E+01,	-2.09849E+02,	0.00000E+00,	0,	0
  1.04651E+01,	1.00000E+01,	-8.27038E-03,	1.19147E+02,	9.05904E+01,	-2.44889E+02,	0.00000E+00,	0,	0
  8.65385E+00,	1.00000E+01,	-8.27038E-03,	1.24961E+02,	1.06303E+02,	-2.82822E+02,	0.00000E+00,	0,	0
  7.14286E+00,	1.00000E+01,	-8.27038E-03,	1.27375E+02,	1.23550E+02,	-3.25545E+02,	0.00000E+00,	0,	0
  5.84416E+00,	1.00000E+01,	-8.27038E-03,	1.30118E+02,	1.43572E+02,	-3.77698E+02,	0.00000E+00,	0,	0
  4.83871E+00,	1.00000E+01,	-8.27038E-03,	1.33246E+02,	1.64242E+02,	-4.34786E+02,	0.00000E+00,	0,	0
  3.98230E+00,	1.00000E+01,	-8.27038E-03,	1.36848E+02,	1.87489E+02,	-5.03648E+02,	0.00000E+00,	0,	0
  3.28467E+00,	1.00000E+01,	-8.27038E-03,	1.41074E+02,	2.12702E+02,	-5.83642E+02,	0.00000E+00,	0,	0
  2.69461E+00,	1.00000E+01,	-8.27038E-03,	1.44980E+02,	2.41437E+02,	-6.80740E+02,	0.00000E+00,	0,	0
  2.22772E+00,	1.00000E+01,	-8.27038E-03,	1.49467E+02,	2.72049E+02,	-7.91608E+02,	0.00000E+00,	0,	0
  1.82927E+00,	1.00000E+01,	-8.27038E-03,	1.54790E+02,	3.07723E+02,	-9.27521E+02,	0.00000E+00,	0,	0
  1.51007E+00,	1.00000E+01,	-8.27038E-03,	1.58646E+02,	3.47341E+02,	-1.08462E+03,	0.00000E+00,	0,	0
  1.24309E+00,	1.00000E+01,	-8.27038E-03,	1.63008E+02,	3.93362E+02,	-1.27378E+03,	0.00000E+00,	0,	0
  1.02273E+00,	1.00000E+01,	-8.27038E-03,	1.67467E+02,	4.47551E+02,	-1.50002E+03,	0.00000E+00,	0,	0
  8.45865E-01,	1.00000E+01,	-8.27038E-03,	1.74342E+02,	5.07804E+02,	-1.75854E+03,	0.00000E+00,	0,	0
  6.94444E-01,	1.00000E+01,	-8.27038E-03,	1.78703E+02,	5.82374E+02,	-2.07833E+03,	0.00000E+00,	0,	0
  5.73980E-01,	1.00000E+01,	-8.27038E-03,	1.83285E+02,	6.49297E+02,	-2.44891E+03,	0.00000E+00,	0,	0
  4.72689E-01,	1.00000E+01,	-8.27038E-03,	1.88659E+02,	7.51309E+02,	-2.89355E+03,	0.00000E+00,	0,	0
  3.90625E-01,	1.00000E+01,	-8.27038E-03,	1.94687E+02,	8.67582E+02,	-3.44270E+03,	0.00000E+00,	0,	0
  3.21429E-01,	1.00000E+01,	-8.27038E-03,	2.01807E+02,	1.01743E+03,	-4.07268E+03,	0.00000E+00,	0,	0
  2.64085E-01,	1.00000E+01,	-8.27038E-03,	2.19241E+02,	1.21498E+03,	-4.77399E+03,	0.00000E+00,	0,	0
  2.18023E-01,	1.00000E+01,	-8.27038E-03,	2.29382E+02,	1.39415E+03,	-5.72838E+03,	0.00000E+00,	0,	0
  1.79426E-01,	1.00000E+01,	-8.27038E-03,	2.41474E+02,	1.69239E+03,	-6.74262E+03,	0.00000E+00,	0,	0
  1.47638E-01,	1.00000E+01,	-8.27038E-03,	2.55976E+02,	2.04144E+03,	-7.97732E+03,	0.00000E+00,	0,	0
  1.21753E-01,	1.00000E+01,	-8.27038E-03,	2.73351E+02,	2.47805E+03,	-9.41551E+03,	0.00000E+00,	0,	0
  1.00446E-01,	1.00000E+01,	-8.27038E-03,	2.94276E+02,	3.03384E+03,	-1.10933E+04,	0.00000E+00,	0,	0