Z60W Data File: Version 1.1
CorrTest for Windows: SN CS310H1805157  V5.2.1111.9  2.5H6.220118
Sweep Frequency: Control Voltage
  Date:4-26-2026   Time:23:44:02
  Begin Information:            Cell Information
      Surface Area:           1
      Density:                7.8
      Weight:                 28
  End Information:              Cell Information
  Freq (Hz)     Ampl(mV)       Bias(V)      Time(Sec)       Z'(Ohm.cm^2)    Z''(Ohm.cm^2)        GD       Err      Range
End Comments
  3.07200E+05,	1.00000E+01,	-8.05923E-03,	5.55838E-02,	2.18922E+00,	4.83734E+00,	0.00000E+00,	0,	0
  2.76480E+05,	1.00000E+01,	-8.05923E-03,	1.66241E+00,	2.65204E+00,	3.96475E+00,	0.00000E+00,	0,	0
  2.30400E+05,	1.00000E+01,	-8.05923E-03,	2.58861E+00,	3.05325E+00,	3.28954E+00,	0.00000E+00,	0,	0
  1.72800E+05,	1.00000E+01,	-8.05923E-03,	3.48502E+00,	3.45542E+00,	2.43839E+00,	0.00000E+00,	0,	0
  1.53600E+05,	1.00000E+01,	-8.05923E-03,	4.40960E+00,	3.56481E+00,	2.15421E+00,	0.00000E+00,	0,	0
  1.15200E+05,	1.00000E+01,	-8.05923E-03,	5.31635E+00,	3.74338E+00,	1.53199E+00,	0.00000E+00,	0,	0
  9.87429E+04,	1.00000E+01,	-8.05923E-03,	6.25237E+00,	3.80626E+00,	1.27455E+00,	0.00000E+00,	0,	0
  8.13176E+04,	1.00000E+01,	-8.05923E-03,	7.16955E+00,	3.85991E+00,	9.93737E-01,	0.00000E+00,	0,	0
  6.58286E+04,	1.00000E+01,	-8.05923E-03,	8.07952E+00,	3.91908E+00,	7.32021E-01,	0.00000E+00,	0,	0
  5.31692E+04,	1.00000E+01,	-8.05923E-03,	1.13114E+01,	3.98528E+00,	4.51697E-01,	0.00000E+00,	0,	0
  4.60800E+04,	1.00000E+01,	-8.05923E-03,	1.28755E+01,	4.00269E+00,	3.15079E-01,	0.00000E+00,	0,	0
  3.63789E+04,	1.00000E+01,	-8.05923E-03,	1.38157E+01,	4.02600E+00,	1.10064E-01,	0.00000E+00,	0,	0
  3.00522E+04,	1.00000E+01,	-8.05923E-03,	1.46693E+01,	4.05526E+00,	-3.85704E-02,	0.00000E+00,	0,	0
  2.46857E+04,	1.00000E+01,	-8.05923E-03,	1.55584E+01,	4.07694E+00,	-1.96813E-01,	0.00000E+00,	0,	0
  2.03294E+04,	1.00000E+01,	-8.05923E-03,	1.65450E+01,	4.11326E+00,	-3.48742E-01,	0.00000E+00,	0,	0
  1.64571E+04,	1.00000E+01,	-8.05923E-03,	1.74541E+01,	4.15280E+00,	-5.17625E-01,	0.00000E+00,	0,	0
  1.35529E+04,	1.00000E+01,	-8.05923E-03,	1.82679E+01,	4.20646E+00,	-6.78475E-01,	0.00000E+00,	0,	0
  1.11484E+04,	1.00000E+01,	-8.05923E-03,	1.91993E+01,	4.26689E+00,	-8.55855E-01,	0.00000E+00,	0,	0
  9.60000E+03,	1.00000E+01,	-8.05923E-03,	2.19822E+01,	4.28272E+00,	-9.86224E-01,	0.00000E+00,	0,	0
  7.85455E+03,	1.00000E+01,	-8.05923E-03,	2.29215E+01,	4.36119E+00,	-1.19394E+00,	0.00000E+00,	0,	0
  6.40000E+03,	1.00000E+01,	-8.05923E-03,	2.38891E+01,	4.45228E+00,	-1.42761E+00,	0.00000E+00,	0,	0
  5.23636E+03,	1.00000E+01,	-8.05923E-03,	2.48256E+01,	4.55373E+00,	-1.68996E+00,	0.00000E+00,	0,	0
  4.32000E+03,	1.00000E+01,	-8.05923E-03,	2.57209E+01,	4.66671E+00,	-1.97726E+00,	0.00000E+00,	0,	0
  3.52653E+03,	1.00000E+01,	-8.05923E-03,	2.67314E+01,	4.79627E+00,	-2.31838E+00,	0.00000E+00,	0,	0
  2.88000E+03,	1.00000E+01,	-8.05923E-03,	2.76595E+01,	4.94556E+00,	-2.71580E+00,	0.00000E+00,	0,	0
  2.36712E+03,	1.00000E+01,	-8.05923E-03,	2.86849E+01,	5.10880E+00,	-3.15371E+00,	0.00000E+00,	0,	0
  1.96364E+03,	1.00000E+01,	-8.05923E-03,	2.94322E+01,	5.28461E+00,	-3.64486E+00,	0.00000E+00,	0,	0
  1.61495E+03,	1.00000E+01,	-8.05923E-03,	3.03437E+01,	5.46133E+00,	-4.23853E+00,	0.00000E+00,	0,	0
  1.32923E+03,	1.00000E+01,	-8.05923E-03,	3.12718E+01,	5.69617E+00,	-4.93346E+00,	0.00000E+00,	0,	0
  1.09367E+03,	1.00000E+01,	-8.05923E-03,	3.23350E+01,	5.94933E+00,	-5.76777E+00,	0.00000E+00,	0,	0
  9.00000E+02,	1.00000E+01,	-8.05923E-03,	3.73330E+01,	6.24015E+00,	-6.73718E+00,	0.00000E+00,	0,	0
  7.44828E+02,	1.00000E+01,	-8.05923E-03,	3.86945E+01,	6.54345E+00,	-7.84370E+00,	0.00000E+00,	0,	0
  6.17143E+02,	1.00000E+01,	-8.05923E-03,	4.00826E+01,	6.89139E+00,	-9.13730E+00,	0.00000E+00,	0,	0
  5.14286E+02,	1.00000E+01,	-8.05923E-03,	4.14613E+01,	7.27398E+00,	-1.06095E+01,	0.00000E+00,	0,	0
  4.15385E+02,	1.00000E+01,	-8.05923E-03,	4.28157E+01,	7.79335E+00,	-1.26578E+01,	0.00000E+00,	0,	0
  3.42857E+02,	1.00000E+01,	-8.05923E-03,	4.52258E+01,	8.33299E+00,	-1.48547E+01,	0.00000E+00,	0,	0
  2.84211E+02,	1.00000E+01,	-8.05923E-03,	4.96302E+01,	8.97565E+00,	-1.74295E+01,	0.00000E+00,	0,	0
  2.32258E+02,	1.00000E+01,	-8.05923E-03,	5.24780E+01,	9.75717E+00,	-2.06718E+01,	0.00000E+00,	0,	0
  1.91150E+02,	1.00000E+01,	-8.05923E-03,	5.55875E+01,	1.06583E+01,	-2.43783E+01,	0.00000E+00,	0,	0
  1.57664E+02,	1.00000E+01,	-8.05923E-03,	5.89857E+01,	1.17122E+01,	-2.87209E+01,	0.00000E+00,	0,	0
  1.30120E+02,	1.00000E+01,	-8.05923E-03,	6.26897E+01,	1.29749E+01,	-3.38444E+01,	0.00000E+00,	0,	0
  1.06931E+02,	1.00000E+01,	-8.05923E-03,	6.67604E+01,	1.45142E+01,	-4.00333E+01,	0.00000E+00,	0,	0
  8.85246E+01,	1.00000E+01,	-8.05923E-03,	7.23690E+01,	1.62985E+01,	-4.71100E+01,	0.00000E+00,	0,	0
  7.29730E+01,	1.00000E+01,	-8.05923E-03,	7.72159E+01,	1.85249E+01,	-5.57596E+01,	0.00000E+00,	0,	0
  6.00000E+01,	1.00000E+01,	-8.05923E-03,	8.24436E+01,	2.14824E+01,	-6.50708E+01,	0.00000E+00,	0,	0
  4.95413E+01,	1.00000E+01,	-8.05923E-03,	8.81783E+01,	2.48501E+01,	-7.64564E+01,	0.00000E+00,	0,	0
  4.06015E+01,	1.00000E+01,	-8.05923E-03,	9.17921E+01,	2.91263E+01,	-9.03320E+01,	0.00000E+00,	0,	0
  3.35404E+01,	1.00000E+01,	-8.05923E-03,	9.55450E+01,	3.35082E+01,	-1.05725E+02,	0.00000E+00,	0,	0
  2.75510E+01,	1.00000E+01,	-8.05923E-03,	9.93507E+01,	4.00252E+01,	-1.24667E+02,	0.00000E+00,	0,	0
  2.26891E+01,	1.00000E+01,	-8.05923E-03,	1.02296E+02,	4.77302E+01,	-1.46074E+02,	0.00000E+00,	0,	0
  1.87500E+01,	1.00000E+01,	-8.05923E-03,	1.05988E+02,	5.68846E+01,	-1.70318E+02,	0.00000E+00,	0,	0
  1.55172E+01,	1.00000E+01,	-8.05923E-03,	1.11500E+02,	6.76132E+01,	-1.97803E+02,	0.00000E+00,	0,	0
  1.28571E+01,	1.00000E+01,	-8.05923E-03,	1.16123E+02,	8.02822E+01,	-2.28918E+02,	0.00000E+00,	0,	0
  1.04651E+01,	1.00000E+01,	-8.05923E-03,	1.18814E+02,	9.64123E+01,	-2.67961E+02,	0.00000E+00,	0,	0
  8.65385E+00,	1.00000E+01,	-8.05923E-03,	1.24621E+02,	1.13984E+02,	-3.09746E+02,	0.00000E+00,	0,	0
  7.14286E+00,	1.00000E+01,	-8.05923E-03,	1.26999E+02,	1.33743E+02,	-3.57102E+02,	0.00000E+00,	0,	0
  5.84416E+00,	1.00000E+01,	-8.05923E-03,	1.29751E+02,	1.56992E+02,	-4.14422E+02,	0.00000E+00,	0,	0
  4.83871E+00,	1.00000E+01,	-8.05923E-03,	1.32859E+02,	1.81070E+02,	-4.76304E+02,	0.00000E+00,	0,	0
  3.98230E+00,	1.00000E+01,	-8.05923E-03,	1.36475E+02,	2.08321E+02,	-5.50496E+02,	0.00000E+00,	0,	0
  3.28467E+00,	1.00000E+01,	-8.05923E-03,	1.40624E+02,	2.37920E+02,	-6.36259E+02,	0.00000E+00,	0,	0
  2.69461E+00,	1.00000E+01,	-8.05923E-03,	1.44508E+02,	2.71272E+02,	-7.39736E+02,	0.00000E+00,	0,	0
  2.22772E+00,	1.00000E+01,	-8.05923E-03,	1.49013E+02,	3.06327E+02,	-8.57198E+02,	0.00000E+00,	0,	0
  1.82927E+00,	1.00000E+01,	-8.05923E-03,	1.54319E+02,	3.46727E+02,	-1.00109E+03,	0.00000E+00,	0,	0
  1.51007E+00,	1.00000E+01,	-8.05923E-03,	1.61264E+02,	3.90475E+02,	-1.16655E+03,	0.00000E+00,	0,	0
  1.24309E+00,	1.00000E+01,	-8.05923E-03,	1.65555E+02,	4.41461E+02,	-1.36604E+03,	0.00000E+00,	0,	0
  1.02273E+00,	1.00000E+01,	-8.05923E-03,	1.69985E+02,	5.00451E+02,	-1.60548E+03,	0.00000E+00,	0,	0
  8.45865E-01,	1.00000E+01,	-8.05923E-03,	1.76795E+02,	5.65380E+02,	-1.87821E+03,	0.00000E+00,	0,	0
  6.94444E-01,	1.00000E+01,	-8.05923E-03,	1.81171E+02,	6.45411E+02,	-2.21655E+03,	0.00000E+00,	0,	0
  5.73980E-01,	1.00000E+01,	-8.05923E-03,	1.85706E+02,	7.15513E+02,	-2.60929E+03,	0.00000E+00,	0,	0
  4.72689E-01,	1.00000E+01,	-8.05923E-03,	1.91044E+02,	8.22372E+02,	-3.08058E+03,	0.00000E+00,	0,	0
  3.90625E-01,	1.00000E+01,	-8.05923E-03,	1.97057E+02,	9.44107E+02,	-3.66307E+03,	0.00000E+00,	0,	0
  3.21429E-01,	1.00000E+01,	-8.05923E-03,	2.04180E+02,	1.09978E+03,	-4.32901E+03,	0.00000E+00,	0,	0
  2.64085E-01,	1.00000E+01,	-8.05923E-03,	2.12821E+02,	1.28514E+03,	-5.12854E+03,	0.00000E+00,	0,	0
  2.18023E-01,	1.00000E+01,	-8.05923E-03,	2.22912E+02,	1.50215E+03,	-6.05928E+03,	0.00000E+00,	0,	0
  1.79426E-01,	1.00000E+01,	-8.05923E-03,	2.34982E+02,	1.77966E+03,	-7.16541E+03,	0.00000E+00,	0,	0
  1.47638E-01,	1.00000E+01,	-8.05923E-03,	2.49444E+02,	2.12149E+03,	-8.48235E+03,	0.00000E+00,	0,	0
  1.21753E-01,	1.00000E+01,	-8.05923E-03,	2.66793E+02,	2.54511E+03,	-1.00184E+04,	0.00000E+00,	0,	0
  1.00446E-01,	1.00000E+01,	-8.05923E-03,	2.87648E+02,	3.07905E+03,	-1.18207E+04,	0.00000E+00,	0,	0