Z60W Data File: Version 1.1
CorrTest for Windows: SN CS310H1805157  V5.2.1111.9  2.5H6.220118
Sweep Frequency: Control Voltage
  Date:4-27-2026   Time:09:16:34
  Begin Information:            Cell Information
      Surface Area:           1
      Density:                7.8
      Weight:                 28
  End Information:              Cell Information
  Freq (Hz)     Ampl(mV)       Bias(V)      Time(Sec)       Z'(Ohm.cm^2)    Z''(Ohm.cm^2)        GD       Err      Range
End Comments
  3.07200E+05,	1.00000E+01,	-1.68502E-02,	4.32979E-02,	4.34292E+00,	5.92589E+00,	0.00000E+00,	0,	0
  2.76480E+05,	1.00000E+01,	-1.68502E-02,	1.63975E+00,	4.76079E+00,	5.00334E+00,	0.00000E+00,	0,	0
  2.30400E+05,	1.00000E+01,	-1.68502E-02,	2.56131E+00,	5.16878E+00,	4.17653E+00,	0.00000E+00,	0,	0
  1.72800E+05,	1.00000E+01,	-1.68502E-02,	3.50528E+00,	5.49955E+00,	3.11206E+00,	0.00000E+00,	0,	0
  1.53600E+05,	1.00000E+01,	-1.68502E-02,	4.42360E+00,	5.58261E+00,	2.71151E+00,	0.00000E+00,	0,	0
  1.15200E+05,	1.00000E+01,	-1.68502E-02,	5.34431E+00,	5.75663E+00,	1.94476E+00,	0.00000E+00,	0,	0
  9.87429E+04,	1.00000E+01,	-1.68502E-02,	6.24787E+00,	5.82643E+00,	1.62391E+00,	0.00000E+00,	0,	0
  8.13176E+04,	1.00000E+01,	-1.68502E-02,	7.16266E+00,	5.88167E+00,	1.27222E+00,	0.00000E+00,	0,	0
  6.58286E+04,	1.00000E+01,	-1.68502E-02,	8.06941E+00,	5.92912E+00,	9.49023E-01,	0.00000E+00,	0,	0
  5.31692E+04,	1.00000E+01,	-1.68502E-02,	1.01925E+01,	5.95306E+00,	6.29251E-01,	0.00000E+00,	0,	0
  4.60800E+04,	1.00000E+01,	-1.68502E-02,	1.17413E+01,	5.97488E+00,	4.60704E-01,	0.00000E+00,	0,	0
  3.63789E+04,	1.00000E+01,	-1.68502E-02,	1.26656E+01,	6.00636E+00,	2.08280E-01,	0.00000E+00,	0,	0
  3.00522E+04,	1.00000E+01,	-1.68502E-02,	1.35324E+01,	6.02902E+00,	2.17549E-02,	0.00000E+00,	0,	0
  2.46857E+04,	1.00000E+01,	-1.68502E-02,	1.43932E+01,	6.06043E+00,	-1.67217E-01,	0.00000E+00,	0,	0
  2.03294E+04,	1.00000E+01,	-1.68502E-02,	1.53503E+01,	6.10042E+00,	-3.49328E-01,	0.00000E+00,	0,	0
  1.64571E+04,	1.00000E+01,	-1.68502E-02,	1.63025E+01,	6.14295E+00,	-5.58182E-01,	0.00000E+00,	0,	0
  1.35529E+04,	1.00000E+01,	-1.68502E-02,	1.71218E+01,	6.19874E+00,	-7.54717E-01,	0.00000E+00,	0,	0
  1.11484E+04,	1.00000E+01,	-1.68502E-02,	1.80149E+01,	6.26678E+00,	-9.66259E-01,	0.00000E+00,	0,	0
  9.60000E+03,	1.00000E+01,	-1.68502E-02,	1.96847E+01,	6.32022E+00,	-1.13833E+00,	0.00000E+00,	0,	0
  7.85455E+03,	1.00000E+01,	-1.68502E-02,	2.06427E+01,	6.41277E+00,	-1.38809E+00,	0.00000E+00,	0,	0
  6.40000E+03,	1.00000E+01,	-1.68502E-02,	2.16374E+01,	6.52372E+00,	-1.67807E+00,	0.00000E+00,	0,	0
  5.23636E+03,	1.00000E+01,	-1.68502E-02,	2.26042E+01,	6.64456E+00,	-1.99011E+00,	0.00000E+00,	0,	0
  4.32000E+03,	1.00000E+01,	-1.68502E-02,	2.35138E+01,	6.77684E+00,	-2.33226E+00,	0.00000E+00,	0,	0
  3.52653E+03,	1.00000E+01,	-1.68502E-02,	2.45338E+01,	6.94555E+00,	-2.73890E+00,	0.00000E+00,	0,	0
  2.88000E+03,	1.00000E+01,	-1.68502E-02,	2.54378E+01,	7.13005E+00,	-3.19946E+00,	0.00000E+00,	0,	0
  2.36712E+03,	1.00000E+01,	-1.68502E-02,	2.64436E+01,	7.34395E+00,	-3.72936E+00,	0.00000E+00,	0,	0
  1.96364E+03,	1.00000E+01,	-1.68502E-02,	2.72280E+01,	7.54470E+00,	-4.29636E+00,	0.00000E+00,	0,	0
  1.61495E+03,	1.00000E+01,	-1.68502E-02,	2.81934E+01,	7.80644E+00,	-4.99099E+00,	0.00000E+00,	0,	0
  1.32923E+03,	1.00000E+01,	-1.68502E-02,	2.91597E+01,	8.08543E+00,	-5.79508E+00,	0.00000E+00,	0,	0
  1.09367E+03,	1.00000E+01,	-1.68502E-02,	3.02203E+01,	8.40310E+00,	-6.71929E+00,	0.00000E+00,	0,	0
  9.00000E+02,	1.00000E+01,	-1.68502E-02,	3.52423E+01,	8.78337E+00,	-7.83097E+00,	0.00000E+00,	0,	0
  7.44828E+02,	1.00000E+01,	-1.68502E-02,	3.66224E+01,	9.16046E+00,	-9.08661E+00,	0.00000E+00,	0,	0
  6.17143E+02,	1.00000E+01,	-1.68502E-02,	3.80135E+01,	9.59094E+00,	-1.05443E+01,	0.00000E+00,	0,	0
  5.14286E+02,	1.00000E+01,	-1.68502E-02,	3.93833E+01,	1.00555E+01,	-1.22008E+01,	0.00000E+00,	0,	0
  4.15385E+02,	1.00000E+01,	-1.68502E-02,	4.07491E+01,	1.06778E+01,	-1.45074E+01,	0.00000E+00,	0,	0
  3.42857E+02,	1.00000E+01,	-1.68502E-02,	4.31493E+01,	1.13166E+01,	-1.69702E+01,	0.00000E+00,	0,	0
  2.84211E+02,	1.00000E+01,	-1.68502E-02,	4.75568E+01,	1.20683E+01,	-1.98609E+01,	0.00000E+00,	0,	0
  2.32258E+02,	1.00000E+01,	-1.68502E-02,	5.04217E+01,	1.29613E+01,	-2.34952E+01,	0.00000E+00,	0,	0
  1.91150E+02,	1.00000E+01,	-1.68502E-02,	5.35386E+01,	1.39792E+01,	-2.76619E+01,	0.00000E+00,	0,	0
  1.57664E+02,	1.00000E+01,	-1.68502E-02,	5.69779E+01,	1.51559E+01,	-3.25530E+01,	0.00000E+00,	0,	0
  1.30120E+02,	1.00000E+01,	-1.68502E-02,	6.07217E+01,	1.65412E+01,	-3.83254E+01,	0.00000E+00,	0,	0
  1.06931E+02,	1.00000E+01,	-1.68502E-02,	6.48136E+01,	1.82130E+01,	-4.53177E+01,	0.00000E+00,	0,	0
  8.85246E+01,	1.00000E+01,	-1.68502E-02,	7.04224E+01,	2.01280E+01,	-5.33284E+01,	0.00000E+00,	0,	0
  7.29730E+01,	1.00000E+01,	-1.68502E-02,	7.52651E+01,	2.24927E+01,	-6.31523E+01,	0.00000E+00,	0,	0
  6.00000E+01,	1.00000E+01,	-1.68502E-02,	8.05104E+01,	2.56080E+01,	-7.37727E+01,	0.00000E+00,	0,	0
  4.95413E+01,	1.00000E+01,	-1.68502E-02,	8.62467E+01,	2.91403E+01,	-8.68285E+01,	0.00000E+00,	0,	0
  4.06015E+01,	1.00000E+01,	-1.68502E-02,	8.98640E+01,	3.36099E+01,	-1.02784E+02,	0.00000E+00,	0,	0
  3.35404E+01,	1.00000E+01,	-1.68502E-02,	9.36414E+01,	3.81135E+01,	-1.20623E+02,	0.00000E+00,	0,	0
  2.75510E+01,	1.00000E+01,	-1.68502E-02,	9.75175E+01,	4.49372E+01,	-1.42723E+02,	0.00000E+00,	0,	0
  2.26891E+01,	1.00000E+01,	-1.68502E-02,	1.00504E+02,	5.30560E+01,	-1.67911E+02,	0.00000E+00,	0,	0
  1.87500E+01,	1.00000E+01,	-1.68502E-02,	1.04193E+02,	6.28038E+01,	-1.96685E+02,	0.00000E+00,	0,	0
  1.55172E+01,	1.00000E+01,	-1.68502E-02,	1.09783E+02,	7.43903E+01,	-2.29622E+02,	0.00000E+00,	0,	0
  1.28571E+01,	1.00000E+01,	-1.68502E-02,	1.14419E+02,	8.83879E+01,	-2.67210E+02,	0.00000E+00,	0,	0
  1.04651E+01,	1.00000E+01,	-1.68502E-02,	1.17128E+02,	1.06625E+02,	-3.14621E+02,	0.00000E+00,	0,	0
  8.65385E+00,	1.00000E+01,	-1.68502E-02,	1.22989E+02,	1.27273E+02,	-3.65697E+02,	0.00000E+00,	0,	0
  7.14286E+00,	1.00000E+01,	-1.68502E-02,	1.25425E+02,	1.51363E+02,	-4.23670E+02,	0.00000E+00,	0,	0
  5.84416E+00,	1.00000E+01,	-1.68502E-02,	1.28200E+02,	1.80615E+02,	-4.92934E+02,	0.00000E+00,	0,	0
  4.83871E+00,	1.00000E+01,	-1.68502E-02,	1.31332E+02,	2.11942E+02,	-5.67309E+02,	0.00000E+00,	0,	0
  3.98230E+00,	1.00000E+01,	-1.68502E-02,	1.34939E+02,	2.48245E+02,	-6.55054E+02,	0.00000E+00,	0,	0
  3.28467E+00,	1.00000E+01,	-1.68502E-02,	1.39090E+02,	2.88120E+02,	-7.55146E+02,	0.00000E+00,	0,	0
  2.69461E+00,	1.00000E+01,	-1.68502E-02,	1.43017E+02,	3.33333E+02,	-8.74071E+02,	0.00000E+00,	0,	0
  2.22772E+00,	1.00000E+01,	-1.68502E-02,	1.47513E+02,	3.80565E+02,	-1.00738E+03,	0.00000E+00,	0,	0
  1.82927E+00,	1.00000E+01,	-1.68502E-02,	1.52823E+02,	4.34084E+02,	-1.16920E+03,	0.00000E+00,	0,	0
  1.51007E+00,	1.00000E+01,	-1.68502E-02,	1.59776E+02,	4.90811E+02,	-1.35403E+03,	0.00000E+00,	0,	0
  1.24309E+00,	1.00000E+01,	-1.68502E-02,	1.64082E+02,	5.55143E+02,	-1.57615E+03,	0.00000E+00,	0,	0
  1.02273E+00,	1.00000E+01,	-1.68502E-02,	1.68528E+02,	6.28019E+02,	-1.84219E+03,	0.00000E+00,	0,	0
  8.45865E-01,	1.00000E+01,	-1.68502E-02,	1.75364E+02,	7.05872E+02,	-2.14517E+03,	0.00000E+00,	0,	0
  6.94444E-01,	1.00000E+01,	-1.68502E-02,	1.79737E+02,	7.99752E+02,	-2.52098E+03,	0.00000E+00,	0,	0
  5.73980E-01,	1.00000E+01,	-1.68502E-02,	1.84291E+02,	8.77837E+02,	-2.96078E+03,	0.00000E+00,	0,	0
  4.72689E-01,	1.00000E+01,	-1.68502E-02,	1.89638E+02,	9.99675E+02,	-3.48546E+03,	0.00000E+00,	0,	0
  3.90625E-01,	1.00000E+01,	-1.68502E-02,	1.95669E+02,	1.13618E+03,	-4.14113E+03,	0.00000E+00,	0,	0
  3.21429E-01,	1.00000E+01,	-1.68502E-02,	2.02822E+02,	1.30737E+03,	-4.88296E+03,	0.00000E+00,	0,	0
  2.64085E-01,	1.00000E+01,	-1.68502E-02,	2.11477E+02,	1.50504E+03,	-5.77476E+03,	0.00000E+00,	0,	0
  2.18023E-01,	1.00000E+01,	-1.68502E-02,	2.21569E+02,	1.73237E+03,	-6.81357E+03,	0.00000E+00,	0,	0
  1.79426E-01,	1.00000E+01,	-1.68502E-02,	2.33654E+02,	2.01498E+03,	-8.04844E+03,	0.00000E+00,	0,	0
  1.47638E-01,	1.00000E+01,	-1.68502E-02,	2.48142E+02,	2.35271E+03,	-9.52072E+03,	0.00000E+00,	0,	0
  1.21753E-01,	1.00000E+01,	-1.68502E-02,	2.65513E+02,	2.75640E+03,	-1.12465E+04,	0.00000E+00,	0,	0
  1.00446E-01,	1.00000E+01,	-1.68502E-02,	2.86427E+02,	3.25152E+03,	-1.32831E+04,	0.00000E+00,	0,	0