Z60W Data File: Version 1.1
CorrTest for Windows: SN CS310H1805157  V5.2.1111.9  2.5H6.220118
Sweep Frequency: Control Voltage
  Date:4-27-2026   Time:10:00:22
  Begin Information:            Cell Information
      Surface Area:           1
      Density:                7.8
      Weight:                 28
  End Information:              Cell Information
  Freq (Hz)     Ampl(mV)       Bias(V)      Time(Sec)       Z'(Ohm.cm^2)    Z''(Ohm.cm^2)        GD       Err      Range
End Comments
  3.07200E+05,	1.00000E+01,	-1.81079E-02,	2.44103E-02,	5.63514E+00,	6.59942E+00,	0.00000E+00,	0,	0
  2.76480E+05,	1.00000E+01,	-1.81079E-02,	1.66333E+00,	6.10354E+00,	5.61028E+00,	0.00000E+00,	0,	0
  2.30400E+05,	1.00000E+01,	-1.81079E-02,	2.55562E+00,	6.39946E+00,	4.66108E+00,	0.00000E+00,	0,	0
  1.72800E+05,	1.00000E+01,	-1.81079E-02,	3.46279E+00,	6.70082E+00,	3.46463E+00,	0.00000E+00,	0,	0
  1.53600E+05,	1.00000E+01,	-1.81079E-02,	4.36265E+00,	6.77812E+00,	3.03923E+00,	0.00000E+00,	0,	0
  1.15200E+05,	1.00000E+01,	-1.81079E-02,	5.26134E+00,	6.94086E+00,	2.18937E+00,	0.00000E+00,	0,	0
  9.87429E+04,	1.00000E+01,	-1.81079E-02,	6.16406E+00,	7.00909E+00,	1.83254E+00,	0.00000E+00,	0,	0
  8.13176E+04,	1.00000E+01,	-1.81079E-02,	7.06686E+00,	7.05890E+00,	1.44031E+00,	0.00000E+00,	0,	0
  6.58286E+04,	1.00000E+01,	-1.81079E-02,	7.97276E+00,	7.10973E+00,	1.07280E+00,	0.00000E+00,	0,	0
  5.31692E+04,	1.00000E+01,	-1.81079E-02,	1.00894E+01,	7.13098E+00,	7.30118E-01,	0.00000E+00,	0,	0
  4.60800E+04,	1.00000E+01,	-1.81079E-02,	1.16264E+01,	7.14761E+00,	5.41057E-01,	0.00000E+00,	0,	0
  3.63789E+04,	1.00000E+01,	-1.81079E-02,	1.25547E+01,	7.18130E+00,	2.61243E-01,	0.00000E+00,	0,	0
  3.00522E+04,	1.00000E+01,	-1.81079E-02,	1.34032E+01,	7.20067E+00,	5.79705E-02,	0.00000E+00,	0,	0
  2.46857E+04,	1.00000E+01,	-1.81079E-02,	1.42868E+01,	7.23581E+00,	-1.42042E-01,	0.00000E+00,	0,	0
  2.03294E+04,	1.00000E+01,	-1.81079E-02,	1.52661E+01,	7.27408E+00,	-3.45689E-01,	0.00000E+00,	0,	0
  1.64571E+04,	1.00000E+01,	-1.81079E-02,	1.61530E+01,	7.32317E+00,	-5.63040E-01,	0.00000E+00,	0,	0
  1.35529E+04,	1.00000E+01,	-1.81079E-02,	1.69475E+01,	7.38067E+00,	-7.79631E-01,	0.00000E+00,	0,	0
  1.11484E+04,	1.00000E+01,	-1.81079E-02,	1.78250E+01,	7.44548E+00,	-1.00973E+00,	0.00000E+00,	0,	0
  9.60000E+03,	1.00000E+01,	-1.81079E-02,	1.94828E+01,	7.51148E+00,	-1.19528E+00,	0.00000E+00,	0,	0
  7.85455E+03,	1.00000E+01,	-1.81079E-02,	2.04208E+01,	7.59525E+00,	-1.46370E+00,	0.00000E+00,	0,	0
  6.40000E+03,	1.00000E+01,	-1.81079E-02,	2.13729E+01,	7.71784E+00,	-1.77523E+00,	0.00000E+00,	0,	0
  5.23636E+03,	1.00000E+01,	-1.81079E-02,	2.23175E+01,	7.84585E+00,	-2.11086E+00,	0.00000E+00,	0,	0
  4.32000E+03,	1.00000E+01,	-1.81079E-02,	2.32590E+01,	7.99368E+00,	-2.47720E+00,	0.00000E+00,	0,	0
  3.52653E+03,	1.00000E+01,	-1.81079E-02,	2.42859E+01,	8.16551E+00,	-2.91359E+00,	0.00000E+00,	0,	0
  2.88000E+03,	1.00000E+01,	-1.81079E-02,	2.51879E+01,	8.36274E+00,	-3.41911E+00,	0.00000E+00,	0,	0
  2.36712E+03,	1.00000E+01,	-1.81079E-02,	2.61874E+01,	8.58482E+00,	-3.97210E+00,	0.00000E+00,	0,	0
  1.96364E+03,	1.00000E+01,	-1.81079E-02,	2.69241E+01,	8.82416E+00,	-4.57423E+00,	0.00000E+00,	0,	0
  1.61495E+03,	1.00000E+01,	-1.81079E-02,	2.78149E+01,	9.09690E+00,	-5.31163E+00,	0.00000E+00,	0,	0
  1.32923E+03,	1.00000E+01,	-1.81079E-02,	2.87446E+01,	9.41397E+00,	-6.15894E+00,	0.00000E+00,	0,	0
  1.09367E+03,	1.00000E+01,	-1.81079E-02,	2.97912E+01,	9.76219E+00,	-7.15595E+00,	0.00000E+00,	0,	0
  9.00000E+02,	1.00000E+01,	-1.81079E-02,	3.47701E+01,	1.01856E+01,	-8.31354E+00,	0.00000E+00,	0,	0
  7.44828E+02,	1.00000E+01,	-1.81079E-02,	3.61289E+01,	1.06067E+01,	-9.62214E+00,	0.00000E+00,	0,	0
  6.17143E+02,	1.00000E+01,	-1.81079E-02,	3.74946E+01,	1.10730E+01,	-1.11550E+01,	0.00000E+00,	0,	0
  5.14286E+02,	1.00000E+01,	-1.81079E-02,	3.88561E+01,	1.15807E+01,	-1.28863E+01,	0.00000E+00,	0,	0
  4.15385E+02,	1.00000E+01,	-1.81079E-02,	4.02250E+01,	1.22491E+01,	-1.52899E+01,	0.00000E+00,	0,	0
  3.42857E+02,	1.00000E+01,	-1.81079E-02,	4.26123E+01,	1.29420E+01,	-1.78562E+01,	0.00000E+00,	0,	0
  2.84211E+02,	1.00000E+01,	-1.81079E-02,	4.70105E+01,	1.37401E+01,	-2.08656E+01,	0.00000E+00,	0,	0
  2.32258E+02,	1.00000E+01,	-1.81079E-02,	4.98816E+01,	1.46954E+01,	-2.46509E+01,	0.00000E+00,	0,	0
  1.91150E+02,	1.00000E+01,	-1.81079E-02,	5.30268E+01,	1.57638E+01,	-2.89860E+01,	0.00000E+00,	0,	0
  1.57664E+02,	1.00000E+01,	-1.81079E-02,	5.64504E+01,	1.69945E+01,	-3.40725E+01,	0.00000E+00,	0,	0
  1.30120E+02,	1.00000E+01,	-1.81079E-02,	6.02011E+01,	1.84443E+01,	-4.00923E+01,	0.00000E+00,	0,	0
  1.06931E+02,	1.00000E+01,	-1.81079E-02,	6.43313E+01,	2.01702E+01,	-4.73789E+01,	0.00000E+00,	0,	0
  8.85246E+01,	1.00000E+01,	-1.81079E-02,	6.99157E+01,	2.21470E+01,	-5.57356E+01,	0.00000E+00,	0,	0
  7.29730E+01,	1.00000E+01,	-1.81079E-02,	7.47769E+01,	2.45723E+01,	-6.59935E+01,	0.00000E+00,	0,	0
  6.00000E+01,	1.00000E+01,	-1.81079E-02,	8.00328E+01,	2.77467E+01,	-7.70763E+01,	0.00000E+00,	0,	0
  4.95413E+01,	1.00000E+01,	-1.81079E-02,	8.57665E+01,	3.13237E+01,	-9.07457E+01,	0.00000E+00,	0,	0
  4.06015E+01,	1.00000E+01,	-1.81079E-02,	8.93912E+01,	3.58495E+01,	-1.07471E+02,	0.00000E+00,	0,	0
  3.35404E+01,	1.00000E+01,	-1.81079E-02,	9.31482E+01,	4.03719E+01,	-1.26210E+02,	0.00000E+00,	0,	0
  2.75510E+01,	1.00000E+01,	-1.81079E-02,	9.69976E+01,	4.72623E+01,	-1.49474E+02,	0.00000E+00,	0,	0
  2.26891E+01,	1.00000E+01,	-1.81079E-02,	9.99524E+01,	5.54443E+01,	-1.76061E+02,	0.00000E+00,	0,	0
  1.87500E+01,	1.00000E+01,	-1.81079E-02,	1.03687E+02,	6.52714E+01,	-2.06488E+02,	0.00000E+00,	0,	0
  1.55172E+01,	1.00000E+01,	-1.81079E-02,	1.09255E+02,	7.70228E+01,	-2.41509E+02,	0.00000E+00,	0,	0
  1.28571E+01,	1.00000E+01,	-1.81079E-02,	1.13889E+02,	9.12222E+01,	-2.81591E+02,	0.00000E+00,	0,	0
  1.04651E+01,	1.00000E+01,	-1.81079E-02,	1.16631E+02,	1.09924E+02,	-3.32386E+02,	0.00000E+00,	0,	0
  8.65385E+00,	1.00000E+01,	-1.81079E-02,	1.22430E+02,	1.31229E+02,	-3.87112E+02,	0.00000E+00,	0,	0
  7.14286E+00,	1.00000E+01,	-1.81079E-02,	1.24869E+02,	1.56464E+02,	-4.49604E+02,	0.00000E+00,	0,	0
  5.84416E+00,	1.00000E+01,	-1.81079E-02,	1.27615E+02,	1.87501E+02,	-5.24565E+02,	0.00000E+00,	0,	0
  4.83871E+00,	1.00000E+01,	-1.81079E-02,	1.30731E+02,	2.21392E+02,	-6.04883E+02,	0.00000E+00,	0,	0
  3.98230E+00,	1.00000E+01,	-1.81079E-02,	1.34333E+02,	2.61233E+02,	-6.99434E+02,	0.00000E+00,	0,	0
  3.28467E+00,	1.00000E+01,	-1.81079E-02,	1.38501E+02,	3.05483E+02,	-8.06443E+02,	0.00000E+00,	0,	0
  2.69461E+00,	1.00000E+01,	-1.81079E-02,	1.42484E+02,	3.55982E+02,	-9.32843E+02,	0.00000E+00,	0,	0
  2.22772E+00,	1.00000E+01,	-1.81079E-02,	1.47010E+02,	4.09351E+02,	-1.07382E+03,	0.00000E+00,	0,	0
  1.82927E+00,	1.00000E+01,	-1.81079E-02,	1.52344E+02,	4.69556E+02,	-1.24368E+03,	0.00000E+00,	0,	0
  1.51007E+00,	1.00000E+01,	-1.81079E-02,	1.59279E+02,	5.33353E+02,	-1.43729E+03,	0.00000E+00,	0,	0
  1.24309E+00,	1.00000E+01,	-1.81079E-02,	1.63596E+02,	6.05066E+02,	-1.66843E+03,	0.00000E+00,	0,	0
  1.02273E+00,	1.00000E+01,	-1.81079E-02,	1.68018E+02,	6.85355E+02,	-1.94480E+03,	0.00000E+00,	0,	0
  8.45865E-01,	1.00000E+01,	-1.81079E-02,	1.74856E+02,	7.70213E+02,	-2.25919E+03,	0.00000E+00,	0,	0
  6.94444E-01,	1.00000E+01,	-1.81079E-02,	1.79292E+02,	8.71708E+02,	-2.64919E+03,	0.00000E+00,	0,	0
  5.73980E-01,	1.00000E+01,	-1.81079E-02,	1.83832E+02,	9.54030E+02,	-3.10672E+03,	0.00000E+00,	0,	0
  4.72689E-01,	1.00000E+01,	-1.81079E-02,	1.89190E+02,	1.08338E+03,	-3.65136E+03,	0.00000E+00,	0,	0
  3.90625E-01,	1.00000E+01,	-1.81079E-02,	1.95250E+02,	1.22784E+03,	-4.33499E+03,	0.00000E+00,	0,	0
  3.21429E-01,	1.00000E+01,	-1.81079E-02,	2.02371E+02,	1.40603E+03,	-5.10704E+03,	0.00000E+00,	0,	0
  2.64085E-01,	1.00000E+01,	-1.81079E-02,	2.11066E+02,	1.61253E+03,	-6.03201E+03,	0.00000E+00,	0,	0
  2.18023E-01,	1.00000E+01,	-1.81079E-02,	2.21187E+02,	1.84519E+03,	-7.11322E+03,	0.00000E+00,	0,	0
  1.79426E-01,	1.00000E+01,	-1.81079E-02,	2.33275E+02,	2.13445E+03,	-8.39577E+03,	0.00000E+00,	0,	0
  1.47638E-01,	1.00000E+01,	-1.81079E-02,	2.47737E+02,	2.47362E+03,	-9.92595E+03,	0.00000E+00,	0,	0
  1.21753E-01,	1.00000E+01,	-1.81079E-02,	2.65095E+02,	2.87833E+03,	-1.17196E+04,	0.00000E+00,	0,	0
  1.00446E-01,	1.00000E+01,	-1.81079E-02,	2.85980E+02,	3.36445E+03,	-1.38423E+04,	0.00000E+00,	0,	0