Z60W Data File: Version 1.1
CorrTest for Windows: SN CS310H1805157  V5.2.1111.9  2.5H6.220118
Sweep Frequency: Control Voltage
  Date:4-27-2026   Time:08:50:32
  Begin Information:            Cell Information
      Surface Area:           1
      Density:                7.8
      Weight:                 28
  End Information:              Cell Information
  Freq (Hz)     Ampl(mV)       Bias(V)      Time(Sec)       Z'(Ohm.cm^2)    Z''(Ohm.cm^2)        GD       Err      Range
End Comments
  3.07200E+05,	1.00000E+01,	-1.89060E-02,	5.72880E-02,	3.42129E+00,	5.44018E+00,	0.00000E+00,	0,	0
  2.76480E+05,	1.00000E+01,	-1.89060E-02,	1.67746E+00,	3.90968E+00,	4.58402E+00,	0.00000E+00,	0,	0
  2.30400E+05,	1.00000E+01,	-1.89060E-02,	2.59028E+00,	4.30009E+00,	3.79817E+00,	0.00000E+00,	0,	0
  1.72800E+05,	1.00000E+01,	-1.89060E-02,	3.49424E+00,	4.64563E+00,	2.83298E+00,	0.00000E+00,	0,	0
  1.53600E+05,	1.00000E+01,	-1.89060E-02,	4.38900E+00,	4.73493E+00,	2.48016E+00,	0.00000E+00,	0,	0
  1.15200E+05,	1.00000E+01,	-1.89060E-02,	5.31046E+00,	4.92545E+00,	1.76775E+00,	0.00000E+00,	0,	0
  9.87429E+04,	1.00000E+01,	-1.89060E-02,	6.20216E+00,	4.99059E+00,	1.48361E+00,	0.00000E+00,	0,	0
  8.13176E+04,	1.00000E+01,	-1.89060E-02,	7.10704E+00,	5.04802E+00,	1.16095E+00,	0.00000E+00,	0,	0
  6.58286E+04,	1.00000E+01,	-1.89060E-02,	8.03965E+00,	5.09444E+00,	8.59554E-01,	0.00000E+00,	0,	0
  5.31692E+04,	1.00000E+01,	-1.89060E-02,	1.01542E+01,	5.12354E+00,	5.62843E-01,	0.00000E+00,	0,	0
  4.60800E+04,	1.00000E+01,	-1.89060E-02,	1.17411E+01,	5.14556E+00,	4.07727E-01,	0.00000E+00,	0,	0
  3.63789E+04,	1.00000E+01,	-1.89060E-02,	1.26628E+01,	5.17207E+00,	1.71794E-01,	0.00000E+00,	0,	0
  3.00522E+04,	1.00000E+01,	-1.89060E-02,	1.35478E+01,	5.19807E+00,	-3.35609E-03,	0.00000E+00,	0,	0
  2.46857E+04,	1.00000E+01,	-1.89060E-02,	1.43904E+01,	5.22943E+00,	-1.81130E-01,	0.00000E+00,	0,	0
  2.03294E+04,	1.00000E+01,	-1.89060E-02,	1.53413E+01,	5.26655E+00,	-3.50047E-01,	0.00000E+00,	0,	0
  1.64571E+04,	1.00000E+01,	-1.89060E-02,	1.62673E+01,	5.31320E+00,	-5.41764E-01,	0.00000E+00,	0,	0
  1.35529E+04,	1.00000E+01,	-1.89060E-02,	1.70968E+01,	5.35925E+00,	-7.30504E-01,	0.00000E+00,	0,	0
  1.11484E+04,	1.00000E+01,	-1.89060E-02,	1.80029E+01,	5.42704E+00,	-9.28507E-01,	0.00000E+00,	0,	0
  9.60000E+03,	1.00000E+01,	-1.89060E-02,	1.96810E+01,	5.47943E+00,	-1.08982E+00,	0.00000E+00,	0,	0
  7.85455E+03,	1.00000E+01,	-1.89060E-02,	2.06530E+01,	5.56036E+00,	-1.32069E+00,	0.00000E+00,	0,	0
  6.40000E+03,	1.00000E+01,	-1.89060E-02,	2.16237E+01,	5.66704E+00,	-1.59327E+00,	0.00000E+00,	0,	0
  5.23636E+03,	1.00000E+01,	-1.89060E-02,	2.25646E+01,	5.78092E+00,	-1.88986E+00,	0.00000E+00,	0,	0
  4.32000E+03,	1.00000E+01,	-1.89060E-02,	2.34640E+01,	5.90842E+00,	-2.20680E+00,	0.00000E+00,	0,	0
  3.52653E+03,	1.00000E+01,	-1.89060E-02,	2.44653E+01,	6.06208E+00,	-2.59005E+00,	0.00000E+00,	0,	0
  2.88000E+03,	1.00000E+01,	-1.89060E-02,	2.53851E+01,	6.23505E+00,	-3.03727E+00,	0.00000E+00,	0,	0
  2.36712E+03,	1.00000E+01,	-1.89060E-02,	2.64089E+01,	6.41124E+00,	-3.53543E+00,	0.00000E+00,	0,	0
  1.96364E+03,	1.00000E+01,	-1.89060E-02,	2.71668E+01,	6.62730E+00,	-4.06456E+00,	0.00000E+00,	0,	0
  1.61495E+03,	1.00000E+01,	-1.89060E-02,	2.81007E+01,	6.85793E+00,	-4.72084E+00,	0.00000E+00,	0,	0
  1.32923E+03,	1.00000E+01,	-1.89060E-02,	2.90532E+01,	7.11424E+00,	-5.49077E+00,	0.00000E+00,	0,	0
  1.09367E+03,	1.00000E+01,	-1.89060E-02,	3.01037E+01,	7.40785E+00,	-6.37901E+00,	0.00000E+00,	0,	0
  9.00000E+02,	1.00000E+01,	-1.89060E-02,	3.50948E+01,	7.75611E+00,	-7.45805E+00,	0.00000E+00,	0,	0
  7.44828E+02,	1.00000E+01,	-1.89060E-02,	3.64686E+01,	8.10630E+00,	-8.65766E+00,	0.00000E+00,	0,	0
  6.17143E+02,	1.00000E+01,	-1.89060E-02,	3.78338E+01,	8.50185E+00,	-1.00645E+01,	0.00000E+00,	0,	0
  5.14286E+02,	1.00000E+01,	-1.89060E-02,	3.92333E+01,	8.93502E+00,	-1.16605E+01,	0.00000E+00,	0,	0
  4.15385E+02,	1.00000E+01,	-1.89060E-02,	4.06142E+01,	9.51845E+00,	-1.38847E+01,	0.00000E+00,	0,	0
  3.42857E+02,	1.00000E+01,	-1.89060E-02,	4.30045E+01,	1.01186E+01,	-1.62584E+01,	0.00000E+00,	0,	0
  2.84211E+02,	1.00000E+01,	-1.89060E-02,	4.74336E+01,	1.08294E+01,	-1.90535E+01,	0.00000E+00,	0,	0
  2.32258E+02,	1.00000E+01,	-1.89060E-02,	5.03290E+01,	1.16853E+01,	-2.25695E+01,	0.00000E+00,	0,	0
  1.91150E+02,	1.00000E+01,	-1.89060E-02,	5.34478E+01,	1.26553E+01,	-2.65901E+01,	0.00000E+00,	0,	0
  1.57664E+02,	1.00000E+01,	-1.89060E-02,	5.68575E+01,	1.37878E+01,	-3.13097E+01,	0.00000E+00,	0,	0
  1.30120E+02,	1.00000E+01,	-1.89060E-02,	6.05877E+01,	1.51316E+01,	-3.68811E+01,	0.00000E+00,	0,	0
  1.06931E+02,	1.00000E+01,	-1.89060E-02,	6.47174E+01,	1.67579E+01,	-4.36244E+01,	0.00000E+00,	0,	0
  8.85246E+01,	1.00000E+01,	-1.89060E-02,	7.03453E+01,	1.86340E+01,	-5.13504E+01,	0.00000E+00,	0,	0
  7.29730E+01,	1.00000E+01,	-1.89060E-02,	7.51873E+01,	2.09562E+01,	-6.08104E+01,	0.00000E+00,	0,	0
  6.00000E+01,	1.00000E+01,	-1.89060E-02,	8.04613E+01,	2.40347E+01,	-7.10272E+01,	0.00000E+00,	0,	0
  4.95413E+01,	1.00000E+01,	-1.89060E-02,	8.62379E+01,	2.75320E+01,	-8.35526E+01,	0.00000E+00,	0,	0
  4.06015E+01,	1.00000E+01,	-1.89060E-02,	8.98658E+01,	3.19580E+01,	-9.88845E+01,	0.00000E+00,	0,	0
  3.35404E+01,	1.00000E+01,	-1.89060E-02,	9.36111E+01,	3.64654E+01,	-1.15935E+02,	0.00000E+00,	0,	0
  2.75510E+01,	1.00000E+01,	-1.89060E-02,	9.74247E+01,	4.32355E+01,	-1.37044E+02,	0.00000E+00,	0,	0
  2.26891E+01,	1.00000E+01,	-1.89060E-02,	1.00404E+02,	5.13002E+01,	-1.61010E+02,	0.00000E+00,	0,	0
  1.87500E+01,	1.00000E+01,	-1.89060E-02,	1.04100E+02,	6.09346E+01,	-1.88310E+02,	0.00000E+00,	0,	0
  1.55172E+01,	1.00000E+01,	-1.89060E-02,	1.09639E+02,	7.23953E+01,	-2.19498E+02,	0.00000E+00,	0,	0
  1.28571E+01,	1.00000E+01,	-1.89060E-02,	1.14286E+02,	8.61064E+01,	-2.54942E+02,	0.00000E+00,	0,	0
  1.04651E+01,	1.00000E+01,	-1.89060E-02,	1.17011E+02,	1.03933E+02,	-2.99521E+02,	0.00000E+00,	0,	0
  8.65385E+00,	1.00000E+01,	-1.89060E-02,	1.22855E+02,	1.23692E+02,	-3.47327E+02,	0.00000E+00,	0,	0
  7.14286E+00,	1.00000E+01,	-1.89060E-02,	1.25274E+02,	1.46581E+02,	-4.01551E+02,	0.00000E+00,	0,	0
  5.84416E+00,	1.00000E+01,	-1.89060E-02,	1.28020E+02,	1.73990E+02,	-4.66323E+02,	0.00000E+00,	0,	0
  4.83871E+00,	1.00000E+01,	-1.89060E-02,	1.31187E+02,	2.03033E+02,	-5.36265E+02,	0.00000E+00,	0,	0
  3.98230E+00,	1.00000E+01,	-1.89060E-02,	1.34800E+02,	2.36188E+02,	-6.18997E+02,	0.00000E+00,	0,	0
  3.28467E+00,	1.00000E+01,	-1.89060E-02,	1.39016E+02,	2.72362E+02,	-7.13815E+02,	0.00000E+00,	0,	0
  2.69461E+00,	1.00000E+01,	-1.89060E-02,	1.42919E+02,	3.13183E+02,	-8.27005E+02,	0.00000E+00,	0,	0
  2.22772E+00,	1.00000E+01,	-1.89060E-02,	1.47462E+02,	3.55804E+02,	-9.54842E+02,	0.00000E+00,	0,	0
  1.82927E+00,	1.00000E+01,	-1.89060E-02,	1.52761E+02,	4.04245E+02,	-1.11060E+03,	0.00000E+00,	0,	0
  1.51007E+00,	1.00000E+01,	-1.89060E-02,	1.59702E+02,	4.56061E+02,	-1.28925E+03,	0.00000E+00,	0,	0
  1.24309E+00,	1.00000E+01,	-1.89060E-02,	1.64012E+02,	5.15218E+02,	-1.50391E+03,	0.00000E+00,	0,	0
  1.02273E+00,	1.00000E+01,	-1.89060E-02,	1.68486E+02,	5.82692E+02,	-1.76170E+03,	0.00000E+00,	0,	0
  8.45865E-01,	1.00000E+01,	-1.89060E-02,	1.75316E+02,	6.55887E+02,	-2.05531E+03,	0.00000E+00,	0,	0
  6.94444E-01,	1.00000E+01,	-1.89060E-02,	1.79696E+02,	7.44660E+02,	-2.41935E+03,	0.00000E+00,	0,	0
  5.73980E-01,	1.00000E+01,	-1.89060E-02,	1.84278E+02,	8.20465E+02,	-2.84447E+03,	0.00000E+00,	0,	0
  4.72689E-01,	1.00000E+01,	-1.89060E-02,	1.89620E+02,	9.37394E+02,	-3.35231E+03,	0.00000E+00,	0,	0
  3.90625E-01,	1.00000E+01,	-1.89060E-02,	1.95656E+02,	1.06966E+03,	-3.98407E+03,	0.00000E+00,	0,	0
  3.21429E-01,	1.00000E+01,	-1.89060E-02,	2.02786E+02,	1.23524E+03,	-4.70244E+03,	0.00000E+00,	0,	0
  2.64085E-01,	1.00000E+01,	-1.89060E-02,	2.11474E+02,	1.43022E+03,	-5.56452E+03,	0.00000E+00,	0,	0
  2.18023E-01,	1.00000E+01,	-1.89060E-02,	2.21574E+02,	1.65394E+03,	-6.56856E+03,	0.00000E+00,	0,	0
  1.79426E-01,	1.00000E+01,	-1.89060E-02,	2.33662E+02,	1.93647E+03,	-7.76262E+03,	0.00000E+00,	0,	0
  1.47638E-01,	1.00000E+01,	-1.89060E-02,	2.48147E+02,	2.27404E+03,	-9.18689E+03,	0.00000E+00,	0,	0
  1.21753E-01,	1.00000E+01,	-1.89060E-02,	2.65527E+02,	2.68681E+03,	-1.08558E+04,	0.00000E+00,	0,	0
  1.00446E-01,	1.00000E+01,	-1.89060E-02,	2.86411E+02,	3.19720E+03,	-1.28226E+04,	0.00000E+00,	0,	0