Z60W Data File: Version 1.1
CorrTest for Windows: SN CS310H1805157  V5.2.1111.9  2.5H6.220118
Sweep Frequency: Control Voltage
  Date:4-27-2026   Time:10:54:22
  Begin Information:            Cell Information
      Surface Area:           1
      Density:                7.8
      Weight:                 28
  End Information:              Cell Information
  Freq (Hz)     Ampl(mV)       Bias(V)      Time(Sec)       Z'(Ohm.cm^2)    Z''(Ohm.cm^2)        GD       Err      Range
End Comments
  3.07200E+05,	1.00000E+01,	-1.66715E-02,	6.26435E-02,	9.10913E+00,	8.41206E+00,	0.00000E+00,	0,	0
  2.76480E+05,	1.00000E+01,	-1.66715E-02,	1.65883E+00,	9.41935E+00,	7.20490E+00,	0.00000E+00,	0,	0
  2.30400E+05,	1.00000E+01,	-1.66715E-02,	2.57533E+00,	9.69837E+00,	5.97704E+00,	0.00000E+00,	0,	0
  1.72800E+05,	1.00000E+01,	-1.66715E-02,	3.47407E+00,	9.94930E+00,	4.44934E+00,	0.00000E+00,	0,	0
  1.53600E+05,	1.00000E+01,	-1.66715E-02,	4.37623E+00,	1.00124E+01,	3.90997E+00,	0.00000E+00,	0,	0
  1.15200E+05,	1.00000E+01,	-1.66715E-02,	5.29972E+00,	1.01519E+01,	2.84236E+00,	0.00000E+00,	0,	0
  9.87429E+04,	1.00000E+01,	-1.66715E-02,	6.18544E+00,	1.02004E+01,	2.37054E+00,	0.00000E+00,	0,	0
  8.13176E+04,	1.00000E+01,	-1.66715E-02,	7.13218E+00,	1.02460E+01,	1.87870E+00,	0.00000E+00,	0,	0
  6.58286E+04,	1.00000E+01,	-1.66715E-02,	8.04282E+00,	1.02842E+01,	1.41918E+00,	0.00000E+00,	0,	0
  5.31692E+04,	1.00000E+01,	-1.66715E-02,	1.01964E+01,	1.03141E+01,	9.91258E-01,	0.00000E+00,	0,	0
  4.60800E+04,	1.00000E+01,	-1.66715E-02,	1.17524E+01,	1.03343E+01,	7.61100E-01,	0.00000E+00,	0,	0
  3.63789E+04,	1.00000E+01,	-1.66715E-02,	1.26989E+01,	1.03630E+01,	4.24239E-01,	0.00000E+00,	0,	0
  3.00522E+04,	1.00000E+01,	-1.66715E-02,	1.35597E+01,	1.03905E+01,	1.69870E-01,	0.00000E+00,	0,	0
  2.46857E+04,	1.00000E+01,	-1.66715E-02,	1.44047E+01,	1.04298E+01,	-7.37979E-02,	0.00000E+00,	0,	0
  2.03294E+04,	1.00000E+01,	-1.66715E-02,	1.53654E+01,	1.04562E+01,	-3.07179E-01,	0.00000E+00,	0,	0
  1.64571E+04,	1.00000E+01,	-1.66715E-02,	1.63084E+01,	1.05073E+01,	-5.59979E-01,	0.00000E+00,	0,	0
  1.35529E+04,	1.00000E+01,	-1.66715E-02,	1.71264E+01,	1.05686E+01,	-8.20059E-01,	0.00000E+00,	0,	0
  1.11484E+04,	1.00000E+01,	-1.66715E-02,	1.80179E+01,	1.06361E+01,	-1.08106E+00,	0.00000E+00,	0,	0
  9.60000E+03,	1.00000E+01,	-1.66715E-02,	1.96921E+01,	1.06968E+01,	-1.29554E+00,	0.00000E+00,	0,	0
  7.85455E+03,	1.00000E+01,	-1.66715E-02,	2.06420E+01,	1.08041E+01,	-1.60163E+00,	0.00000E+00,	0,	0
  6.40000E+03,	1.00000E+01,	-1.66715E-02,	2.16018E+01,	1.09381E+01,	-1.96549E+00,	0.00000E+00,	0,	0
  5.23636E+03,	1.00000E+01,	-1.66715E-02,	2.25439E+01,	1.10687E+01,	-2.34549E+00,	0.00000E+00,	0,	0
  4.32000E+03,	1.00000E+01,	-1.66715E-02,	2.34412E+01,	1.12412E+01,	-2.77083E+00,	0.00000E+00,	0,	0
  3.52653E+03,	1.00000E+01,	-1.66715E-02,	2.44419E+01,	1.14308E+01,	-3.26945E+00,	0.00000E+00,	0,	0
  2.88000E+03,	1.00000E+01,	-1.66715E-02,	2.53692E+01,	1.16717E+01,	-3.85410E+00,	0.00000E+00,	0,	0
  2.36712E+03,	1.00000E+01,	-1.66715E-02,	2.63612E+01,	1.19262E+01,	-4.49575E+00,	0.00000E+00,	0,	0
  1.96364E+03,	1.00000E+01,	-1.66715E-02,	2.71089E+01,	1.22216E+01,	-5.17778E+00,	0.00000E+00,	0,	0
  1.61495E+03,	1.00000E+01,	-1.66715E-02,	2.90998E+01,	1.25635E+01,	-6.01114E+00,	0.00000E+00,	0,	0
  1.32923E+03,	1.00000E+01,	-1.66715E-02,	3.00611E+01,	1.29456E+01,	-6.96823E+00,	0.00000E+00,	0,	0
  1.09367E+03,	1.00000E+01,	-1.66715E-02,	3.11357E+01,	1.33772E+01,	-8.06959E+00,	0.00000E+00,	0,	0
  9.00000E+02,	1.00000E+01,	-1.66715E-02,	3.61302E+01,	1.38705E+01,	-9.37242E+00,	0.00000E+00,	0,	0
  7.44828E+02,	1.00000E+01,	-1.66715E-02,	3.74852E+01,	1.43788E+01,	-1.08215E+01,	0.00000E+00,	0,	0
  6.17143E+02,	1.00000E+01,	-1.66715E-02,	3.88497E+01,	1.49447E+01,	-1.25033E+01,	0.00000E+00,	0,	0
  5.14286E+02,	1.00000E+01,	-1.66715E-02,	4.02551E+01,	1.55553E+01,	-1.43977E+01,	0.00000E+00,	0,	0
  4.15385E+02,	1.00000E+01,	-1.66715E-02,	4.16070E+01,	1.63551E+01,	-1.70192E+01,	0.00000E+00,	0,	0
  3.42857E+02,	1.00000E+01,	-1.66715E-02,	4.40072E+01,	1.71730E+01,	-1.98218E+01,	0.00000E+00,	0,	0
  2.84211E+02,	1.00000E+01,	-1.66715E-02,	4.67165E+01,	1.80717E+01,	-2.30350E+01,	0.00000E+00,	0,	0
  2.32258E+02,	1.00000E+01,	-1.66715E-02,	4.95709E+01,	1.91700E+01,	-2.71313E+01,	0.00000E+00,	0,	0
  1.91150E+02,	1.00000E+01,	-1.66715E-02,	5.27004E+01,	2.03844E+01,	-3.18181E+01,	0.00000E+00,	0,	0
  1.57664E+02,	1.00000E+01,	-1.66715E-02,	5.61326E+01,	2.17675E+01,	-3.73183E+01,	0.00000E+00,	0,	0
  1.30120E+02,	1.00000E+01,	-1.66715E-02,	5.99240E+01,	2.33598E+01,	-4.38041E+01,	0.00000E+00,	0,	0
  1.06931E+02,	1.00000E+01,	-1.66715E-02,	6.40323E+01,	2.52469E+01,	-5.16798E+01,	0.00000E+00,	0,	0
  8.85246E+01,	1.00000E+01,	-1.66715E-02,	6.96316E+01,	2.73775E+01,	-6.07191E+01,	0.00000E+00,	0,	0
  7.29730E+01,	1.00000E+01,	-1.66715E-02,	7.44820E+01,	2.99695E+01,	-7.18157E+01,	0.00000E+00,	0,	0
  6.00000E+01,	1.00000E+01,	-1.66715E-02,	7.97559E+01,	3.32799E+01,	-8.38138E+01,	0.00000E+00,	0,	0
  4.95413E+01,	1.00000E+01,	-1.66715E-02,	8.55152E+01,	3.70004E+01,	-9.86511E+01,	0.00000E+00,	0,	0
  4.06015E+01,	1.00000E+01,	-1.66715E-02,	8.91657E+01,	4.16690E+01,	-1.16868E+02,	0.00000E+00,	0,	0
  3.35404E+01,	1.00000E+01,	-1.66715E-02,	9.29292E+01,	4.62459E+01,	-1.37336E+02,	0.00000E+00,	0,	0
  2.75510E+01,	1.00000E+01,	-1.66715E-02,	9.67352E+01,	5.32763E+01,	-1.62839E+02,	0.00000E+00,	0,	0
  2.26891E+01,	1.00000E+01,	-1.66715E-02,	9.96889E+01,	6.15919E+01,	-1.92097E+02,	0.00000E+00,	0,	0
  1.87500E+01,	1.00000E+01,	-1.66715E-02,	1.03430E+02,	7.15141E+01,	-2.25781E+02,	0.00000E+00,	0,	0
  1.55172E+01,	1.00000E+01,	-1.66715E-02,	1.08961E+02,	8.33894E+01,	-2.64725E+02,	0.00000E+00,	0,	0
  1.28571E+01,	1.00000E+01,	-1.66715E-02,	1.13593E+02,	9.78294E+01,	-3.09667E+02,	0.00000E+00,	0,	0
  1.04651E+01,	1.00000E+01,	-1.66715E-02,	1.16306E+02,	1.16991E+02,	-3.66977E+02,	0.00000E+00,	0,	0
  8.65385E+00,	1.00000E+01,	-1.66715E-02,	1.22146E+02,	1.39024E+02,	-4.29413E+02,	0.00000E+00,	0,	0
  7.14286E+00,	1.00000E+01,	-1.66715E-02,	1.24540E+02,	1.65589E+02,	-5.01010E+02,	0.00000E+00,	0,	0
  5.84416E+00,	1.00000E+01,	-1.66715E-02,	1.27286E+02,	1.99062E+02,	-5.87506E+02,	0.00000E+00,	0,	0
  4.83871E+00,	1.00000E+01,	-1.66715E-02,	1.30420E+02,	2.36525E+02,	-6.80820E+02,	0.00000E+00,	0,	0
  3.98230E+00,	1.00000E+01,	-1.66715E-02,	1.34026E+02,	2.82030E+02,	-7.90569E+02,	0.00000E+00,	0,	0
  3.28467E+00,	1.00000E+01,	-1.66715E-02,	1.38217E+02,	3.34327E+02,	-9.14612E+02,	0.00000E+00,	0,	0
  2.69461E+00,	1.00000E+01,	-1.66715E-02,	1.42167E+02,	3.95696E+02,	-1.05966E+03,	0.00000E+00,	0,	0
  2.22772E+00,	1.00000E+01,	-1.66715E-02,	1.46662E+02,	4.61614E+02,	-1.21958E+03,	0.00000E+00,	0,	0
  1.82927E+00,	1.00000E+01,	-1.66715E-02,	1.52018E+02,	5.37694E+02,	-1.40996E+03,	0.00000E+00,	0,	0
  1.51007E+00,	1.00000E+01,	-1.66715E-02,	1.59016E+02,	6.18500E+02,	-1.62357E+03,	0.00000E+00,	0,	0
  1.24309E+00,	1.00000E+01,	-1.66715E-02,	1.63332E+02,	7.08598E+02,	-1.87636E+03,	0.00000E+00,	0,	0
  1.02273E+00,	1.00000E+01,	-1.66715E-02,	1.67762E+02,	8.09048E+02,	-2.17626E+03,	0.00000E+00,	0,	0
  8.45865E-01,	1.00000E+01,	-1.66715E-02,	1.74618E+02,	9.12184E+02,	-2.51432E+03,	0.00000E+00,	0,	0
  6.94444E-01,	1.00000E+01,	-1.66715E-02,	1.79020E+02,	1.03380E+03,	-2.93232E+03,	0.00000E+00,	0,	0
  5.73980E-01,	1.00000E+01,	-1.66715E-02,	1.83569E+02,	1.12898E+03,	-3.42597E+03,	0.00000E+00,	0,	0
  4.72689E-01,	1.00000E+01,	-1.66715E-02,	1.88951E+02,	1.27751E+03,	-4.01071E+03,	0.00000E+00,	0,	0
  3.90625E-01,	1.00000E+01,	-1.66715E-02,	1.94978E+02,	1.44335E+03,	-4.75215E+03,	0.00000E+00,	0,	0
  3.21429E-01,	1.00000E+01,	-1.66715E-02,	2.02161E+02,	1.64286E+03,	-5.57998E+03,	0.00000E+00,	0,	0
  2.64085E-01,	1.00000E+01,	-1.66715E-02,	2.10828E+02,	1.86849E+03,	-6.57542E+03,	0.00000E+00,	0,	0
  2.18023E-01,	1.00000E+01,	-1.66715E-02,	2.20939E+02,	2.12136E+03,	-7.73537E+03,	0.00000E+00,	0,	0
  1.79426E-01,	1.00000E+01,	-1.66715E-02,	2.33044E+02,	2.43064E+03,	-9.11281E+03,	0.00000E+00,	0,	0
  1.47638E-01,	1.00000E+01,	-1.66715E-02,	2.47514E+02,	2.78807E+03,	-1.07541E+04,	0.00000E+00,	0,	0
  1.21753E-01,	1.00000E+01,	-1.66715E-02,	2.64885E+02,	3.20497E+03,	-1.26776E+04,	0.00000E+00,	0,	0
  1.00446E-01,	1.00000E+01,	-1.66715E-02,	2.85778E+02,	3.69678E+03,	-1.49544E+04,	0.00000E+00,	0,	0