Z60W Data File: Version 1.1
CorrTest for Windows: SN CS310H1805157  V5.2.1111.9  2.5H6.220118
Sweep Frequency: Control Voltage
  Date:4-26-2026   Time:20:16:55
  Begin Information:            Cell Information
      Surface Area:           1
      Density:                7.8
      Weight:                 28
  End Information:              Cell Information
  Freq (Hz)     Ampl(mV)       Bias(V)      Time(Sec)       Z'(Ohm.cm^2)    Z''(Ohm.cm^2)        GD       Err      Range
End Comments
  3.07200E+05,	1.00000E+01,	-1.05552E-02,	2.05567E-02,	6.40762E-01,	4.01159E+00,	0.00000E+00,	0,	0
  2.76480E+05,	1.00000E+01,	-1.05552E-02,	1.61907E+00,	1.15203E+00,	3.21510E+00,	0.00000E+00,	0,	0
  2.30400E+05,	1.00000E+01,	-1.05552E-02,	2.50925E+00,	1.59455E+00,	2.71419E+00,	0.00000E+00,	0,	0
  1.72800E+05,	1.00000E+01,	-1.05552E-02,	3.43005E+00,	2.02472E+00,	2.00663E+00,	0.00000E+00,	0,	0
  1.53600E+05,	1.00000E+01,	-1.05552E-02,	4.33574E+00,	2.13010E+00,	1.74210E+00,	0.00000E+00,	0,	0
  1.15200E+05,	1.00000E+01,	-1.05552E-02,	5.23341E+00,	2.32050E+00,	1.25924E+00,	0.00000E+00,	0,	0
  9.87429E+04,	1.00000E+01,	-1.05552E-02,	6.18206E+00,	2.39723E+00,	1.03108E+00,	0.00000E+00,	0,	0
  8.13176E+04,	1.00000E+01,	-1.05552E-02,	7.08215E+00,	2.47054E+00,	8.09467E-01,	0.00000E+00,	0,	0
  6.58286E+04,	1.00000E+01,	-1.05552E-02,	7.98032E+00,	2.51524E+00,	6.05220E-01,	0.00000E+00,	0,	0
  5.31692E+04,	1.00000E+01,	-1.05552E-02,	1.12025E+01,	2.56521E+00,	3.63249E-01,	0.00000E+00,	0,	0
  4.60800E+04,	1.00000E+01,	-1.05552E-02,	1.27861E+01,	2.58379E+00,	2.54928E-01,	0.00000E+00,	0,	0
  3.63789E+04,	1.00000E+01,	-1.05552E-02,	1.37159E+01,	2.60856E+00,	9.15969E-02,	0.00000E+00,	0,	0
  3.00522E+04,	1.00000E+01,	-1.05552E-02,	1.46079E+01,	2.62938E+00,	-3.41862E-02,	0.00000E+00,	0,	0
  2.46857E+04,	1.00000E+01,	-1.05552E-02,	1.54571E+01,	2.65499E+00,	-1.57516E-01,	0.00000E+00,	0,	0
  2.03294E+04,	1.00000E+01,	-1.05552E-02,	1.63906E+01,	2.68553E+00,	-2.75434E-01,	0.00000E+00,	0,	0
  1.64571E+04,	1.00000E+01,	-1.05552E-02,	1.73088E+01,	2.72063E+00,	-4.08005E-01,	0.00000E+00,	0,	0
  1.35529E+04,	1.00000E+01,	-1.05552E-02,	1.81048E+01,	2.76121E+00,	-5.41254E-01,	0.00000E+00,	0,	0
  1.11484E+04,	1.00000E+01,	-1.05552E-02,	1.90191E+01,	2.80722E+00,	-6.74550E-01,	0.00000E+00,	0,	0
  9.60000E+03,	1.00000E+01,	-1.05552E-02,	2.18032E+01,	2.78364E+00,	-7.81995E-01,	0.00000E+00,	0,	0
  7.85455E+03,	1.00000E+01,	-1.05552E-02,	2.27550E+01,	2.84340E+00,	-9.44763E-01,	0.00000E+00,	0,	0
  6.40000E+03,	1.00000E+01,	-1.05552E-02,	2.36946E+01,	2.91452E+00,	-1.13273E+00,	0.00000E+00,	0,	0
  5.23636E+03,	1.00000E+01,	-1.05552E-02,	2.46355E+01,	3.02255E+00,	-1.34087E+00,	0.00000E+00,	0,	0
  4.32000E+03,	1.00000E+01,	-1.05552E-02,	2.55670E+01,	3.10204E+00,	-1.56989E+00,	0.00000E+00,	0,	0
  3.52653E+03,	1.00000E+01,	-1.05552E-02,	2.65916E+01,	3.19875E+00,	-1.84592E+00,	0.00000E+00,	0,	0
  2.88000E+03,	1.00000E+01,	-1.05552E-02,	2.74944E+01,	3.30955E+00,	-2.16612E+00,	0.00000E+00,	0,	0
  2.36712E+03,	1.00000E+01,	-1.05552E-02,	2.84939E+01,	3.41979E+00,	-2.53846E+00,	0.00000E+00,	0,	0
  1.96364E+03,	1.00000E+01,	-1.05552E-02,	2.92520E+01,	3.55520E+00,	-2.94081E+00,	0.00000E+00,	0,	0
  1.61495E+03,	1.00000E+01,	-1.05552E-02,	3.01666E+01,	3.69183E+00,	-3.44108E+00,	0.00000E+00,	0,	0
  1.32923E+03,	1.00000E+01,	-1.05552E-02,	3.11132E+01,	3.85686E+00,	-4.03019E+00,	0.00000E+00,	0,	0
  1.09367E+03,	1.00000E+01,	-1.05552E-02,	3.21798E+01,	4.04435E+00,	-4.72506E+00,	0.00000E+00,	0,	0
  9.00000E+02,	1.00000E+01,	-1.05552E-02,	3.71784E+01,	4.26456E+00,	-5.55964E+00,	0.00000E+00,	0,	0
  7.44828E+02,	1.00000E+01,	-1.05552E-02,	3.85773E+01,	4.50244E+00,	-6.50055E+00,	0.00000E+00,	0,	0
  6.17143E+02,	1.00000E+01,	-1.05552E-02,	4.00064E+01,	4.77864E+00,	-7.60669E+00,	0.00000E+00,	0,	0
  5.14286E+02,	1.00000E+01,	-1.05552E-02,	4.13724E+01,	5.08583E+00,	-8.86499E+00,	0.00000E+00,	0,	0
  4.15385E+02,	1.00000E+01,	-1.05552E-02,	4.27545E+01,	5.50993E+00,	-1.06170E+01,	0.00000E+00,	0,	0
  3.42857E+02,	1.00000E+01,	-1.05552E-02,	4.52083E+01,	5.96787E+00,	-1.24903E+01,	0.00000E+00,	0,	0
  2.84211E+02,	1.00000E+01,	-1.05552E-02,	4.96032E+01,	6.51359E+00,	-1.46903E+01,	0.00000E+00,	0,	0
  2.32258E+02,	1.00000E+01,	-1.05552E-02,	5.25198E+01,	7.20027E+00,	-1.74512E+01,	0.00000E+00,	0,	0
  1.91150E+02,	1.00000E+01,	-1.05552E-02,	5.56485E+01,	8.00106E+00,	-2.06068E+01,	0.00000E+00,	0,	0
  1.57664E+02,	1.00000E+01,	-1.05552E-02,	5.90669E+01,	8.95508E+00,	-2.42814E+01,	0.00000E+00,	0,	0
  1.30120E+02,	1.00000E+01,	-1.05552E-02,	6.28387E+01,	1.01108E+01,	-2.86052E+01,	0.00000E+00,	0,	0
  1.06931E+02,	1.00000E+01,	-1.05552E-02,	6.69486E+01,	1.15418E+01,	-3.38125E+01,	0.00000E+00,	0,	0
  8.85246E+01,	1.00000E+01,	-1.05552E-02,	7.25514E+01,	1.32180E+01,	-3.97348E+01,	0.00000E+00,	0,	0
  7.29730E+01,	1.00000E+01,	-1.05552E-02,	7.74110E+01,	1.53179E+01,	-4.69219E+01,	0.00000E+00,	0,	0
  6.00000E+01,	1.00000E+01,	-1.05552E-02,	8.26719E+01,	1.81050E+01,	-5.45766E+01,	0.00000E+00,	0,	0
  4.95413E+01,	1.00000E+01,	-1.05552E-02,	8.84125E+01,	2.12781E+01,	-6.38894E+01,	0.00000E+00,	0,	0
  4.06015E+01,	1.00000E+01,	-1.05552E-02,	9.20241E+01,	2.52968E+01,	-7.51010E+01,	0.00000E+00,	0,	0
  3.35404E+01,	1.00000E+01,	-1.05552E-02,	9.58305E+01,	2.94135E+01,	-8.73949E+01,	0.00000E+00,	0,	0
  2.75510E+01,	1.00000E+01,	-1.05552E-02,	9.96553E+01,	3.53454E+01,	-1.02371E+02,	0.00000E+00,	0,	0
  2.26891E+01,	1.00000E+01,	-1.05552E-02,	1.02628E+02,	4.21787E+01,	-1.19083E+02,	0.00000E+00,	0,	0
  1.87500E+01,	1.00000E+01,	-1.05552E-02,	1.06328E+02,	5.00189E+01,	-1.37818E+02,	0.00000E+00,	0,	0
  1.55172E+01,	1.00000E+01,	-1.05552E-02,	1.11912E+02,	5.88538E+01,	-1.58921E+02,	0.00000E+00,	0,	0
  1.28571E+01,	1.00000E+01,	-1.05552E-02,	1.16567E+02,	6.88372E+01,	-1.82802E+02,	0.00000E+00,	0,	0
  1.04651E+01,	1.00000E+01,	-1.05552E-02,	1.19272E+02,	8.09259E+01,	-2.12864E+02,	0.00000E+00,	0,	0
  8.65385E+00,	1.00000E+01,	-1.05552E-02,	1.25080E+02,	9.36153E+01,	-2.45557E+02,	0.00000E+00,	0,	0
  7.14286E+00,	1.00000E+01,	-1.05552E-02,	1.27489E+02,	1.07414E+02,	-2.83220E+02,	0.00000E+00,	0,	0
  5.84416E+00,	1.00000E+01,	-1.05552E-02,	1.30247E+02,	1.23127E+02,	-3.29258E+02,	0.00000E+00,	0,	0
  4.83871E+00,	1.00000E+01,	-1.05552E-02,	1.33405E+02,	1.39489E+02,	-3.80350E+02,	0.00000E+00,	0,	0
  3.98230E+00,	1.00000E+01,	-1.05552E-02,	1.37000E+02,	1.58026E+02,	-4.42578E+02,	0.00000E+00,	0,	0
  3.28467E+00,	1.00000E+01,	-1.05552E-02,	1.41149E+02,	1.78466E+02,	-5.15357E+02,	0.00000E+00,	0,	0
  2.69461E+00,	1.00000E+01,	-1.05552E-02,	1.45083E+02,	2.02150E+02,	-6.04023E+02,	0.00000E+00,	0,	0
  2.22772E+00,	1.00000E+01,	-1.05552E-02,	1.49580E+02,	2.27893E+02,	-7.05305E+02,	0.00000E+00,	0,	0
  1.82927E+00,	1.00000E+01,	-1.05552E-02,	1.54924E+02,	2.58658E+02,	-8.29802E+02,	0.00000E+00,	0,	0
  1.51007E+00,	1.00000E+01,	-1.05552E-02,	1.58835E+02,	2.93588E+02,	-9.73568E+02,	0.00000E+00,	0,	0
  1.24309E+00,	1.00000E+01,	-1.05552E-02,	1.63156E+02,	3.34964E+02,	-1.14648E+03,	0.00000E+00,	0,	0
  1.02273E+00,	1.00000E+01,	-1.05552E-02,	1.67617E+02,	3.84332E+02,	-1.35325E+03,	0.00000E+00,	0,	0
  8.45865E-01,	1.00000E+01,	-1.05552E-02,	1.74463E+02,	4.40654E+02,	-1.58919E+03,	0.00000E+00,	0,	0
  6.94444E-01,	1.00000E+01,	-1.05552E-02,	1.78829E+02,	5.10994E+02,	-1.88057E+03,	0.00000E+00,	0,	0
  5.73980E-01,	1.00000E+01,	-1.05552E-02,	1.83398E+02,	5.77630E+02,	-2.21776E+03,	0.00000E+00,	0,	0
  4.72689E-01,	1.00000E+01,	-1.05552E-02,	1.88804E+02,	6.76998E+02,	-2.62216E+03,	0.00000E+00,	0,	0
  3.90625E-01,	1.00000E+01,	-1.05552E-02,	1.94839E+02,	7.94489E+02,	-3.11836E+03,	0.00000E+00,	0,	0
  3.21429E-01,	1.00000E+01,	-1.05552E-02,	2.01995E+02,	9.49301E+02,	-3.68890E+03,	0.00000E+00,	0,	0
  2.64085E-01,	1.00000E+01,	-1.05552E-02,	2.19422E+02,	1.15374E+03,	-4.32360E+03,	0.00000E+00,	0,	0
  2.18023E-01,	1.00000E+01,	-1.05552E-02,	2.29551E+02,	1.35802E+03,	-5.17573E+03,	0.00000E+00,	0,	0
  1.79426E-01,	1.00000E+01,	-1.05552E-02,	2.41636E+02,	1.68270E+03,	-6.07805E+03,	0.00000E+00,	0,	0
  1.47638E-01,	1.00000E+01,	-1.05552E-02,	2.56109E+02,	2.07545E+03,	-7.16426E+03,	0.00000E+00,	0,	0
  1.21753E-01,	1.00000E+01,	-1.05552E-02,	2.73548E+02,	2.57271E+03,	-8.41053E+03,	0.00000E+00,	0,	0
  1.00446E-01,	1.00000E+01,	-1.05552E-02,	2.94438E+02,	3.20650E+03,	-9.84285E+03,	0.00000E+00,	0,	0