Z60W Data File: Version 1.1
CorrTest for Windows: SN CS310H1805157  V5.2.1111.9  2.5H6.220118
Sweep Frequency: Control Voltage
  Date:4-27-2026   Time:14:03:13
  Begin Information:            Cell Information
      Surface Area:           1
      Density:                7.8
      Weight:                 28
  End Information:              Cell Information
  Freq (Hz)     Ampl(mV)       Bias(V)      Time(Sec)       Z'(Ohm.cm^2)    Z''(Ohm.cm^2)        GD       Err      Range
End Comments
  3.07200E+05,	1.00000E+01,	-1.58851E-02,	2.55847E-02,	2.76278E+01,	1.68201E+01,	0.00000E+00,	0,	0
  2.76480E+05,	1.00000E+01,	-1.58851E-02,	1.64683E+00,	2.74130E+01,	1.47425E+01,	0.00000E+00,	0,	0
  2.30400E+05,	1.00000E+01,	-1.58851E-02,	2.55588E+00,	2.72656E+01,	1.22473E+01,	0.00000E+00,	0,	0
  1.72800E+05,	1.00000E+01,	-1.58851E-02,	3.49590E+00,	2.70538E+01,	9.12068E+00,	0.00000E+00,	0,	0
  1.53600E+05,	1.00000E+01,	-1.58851E-02,	4.39278E+00,	2.70191E+01,	8.10482E+00,	0.00000E+00,	0,	0
  1.15200E+05,	1.00000E+01,	-1.58851E-02,	5.28352E+00,	2.69497E+01,	5.96139E+00,	0.00000E+00,	0,	0
  9.87429E+04,	1.00000E+01,	-1.58851E-02,	6.17097E+00,	2.69346E+01,	5.01315E+00,	0.00000E+00,	0,	0
  8.13176E+04,	1.00000E+01,	-1.58851E-02,	7.07505E+00,	2.69515E+01,	3.96633E+00,	0.00000E+00,	0,	0
  6.58286E+04,	1.00000E+01,	-1.58851E-02,	8.02072E+00,	2.69382E+01,	3.06474E+00,	0.00000E+00,	0,	0
  5.31692E+04,	1.00000E+01,	-1.58851E-02,	1.01439E+01,	2.69817E+01,	2.33285E+00,	0.00000E+00,	0,	0
  4.60800E+04,	1.00000E+01,	-1.58851E-02,	1.16891E+01,	2.70198E+01,	1.93095E+00,	0.00000E+00,	0,	0
  3.63789E+04,	1.00000E+01,	-1.58851E-02,	1.26168E+01,	2.70269E+01,	1.27890E+00,	0.00000E+00,	0,	0
  3.00522E+04,	1.00000E+01,	-1.58851E-02,	1.34869E+01,	2.71408E+01,	8.86344E-01,	0.00000E+00,	0,	0
  2.46857E+04,	1.00000E+01,	-1.58851E-02,	1.43284E+01,	2.71481E+01,	4.66663E-01,	0.00000E+00,	0,	0
  2.03294E+04,	1.00000E+01,	-1.58851E-02,	1.52806E+01,	2.71606E+01,	4.31093E-02,	0.00000E+00,	0,	0
  1.64571E+04,	1.00000E+01,	-1.58851E-02,	1.61711E+01,	2.72005E+01,	-3.28181E-01,	0.00000E+00,	0,	0
  1.35529E+04,	1.00000E+01,	-1.58851E-02,	1.70142E+01,	2.72659E+01,	-7.13068E-01,	0.00000E+00,	0,	0
  1.11484E+04,	1.00000E+01,	-1.58851E-02,	1.79073E+01,	2.73506E+01,	-1.13799E+00,	0.00000E+00,	0,	0
  9.60000E+03,	1.00000E+01,	-1.58851E-02,	2.07113E+01,	2.74538E+01,	-1.40064E+00,	0.00000E+00,	0,	0
  7.85455E+03,	1.00000E+01,	-1.58851E-02,	2.16506E+01,	2.75486E+01,	-1.83790E+00,	0.00000E+00,	0,	0
  6.40000E+03,	1.00000E+01,	-1.58851E-02,	2.26734E+01,	2.76676E+01,	-2.34938E+00,	0.00000E+00,	0,	0
  5.23636E+03,	1.00000E+01,	-1.58851E-02,	2.36207E+01,	2.78594E+01,	-2.92167E+00,	0.00000E+00,	0,	0
  4.32000E+03,	1.00000E+01,	-1.58851E-02,	2.45136E+01,	2.80610E+01,	-3.47341E+00,	0.00000E+00,	0,	0
  3.52653E+03,	1.00000E+01,	-1.58851E-02,	2.55113E+01,	2.82916E+01,	-4.17270E+00,	0.00000E+00,	0,	0
  2.88000E+03,	1.00000E+01,	-1.58851E-02,	2.64592E+01,	2.85661E+01,	-4.99966E+00,	0.00000E+00,	0,	0
  2.36712E+03,	1.00000E+01,	-1.58851E-02,	2.74690E+01,	2.88869E+01,	-5.87163E+00,	0.00000E+00,	0,	0
  1.96364E+03,	1.00000E+01,	-1.58851E-02,	2.82021E+01,	2.92481E+01,	-6.87024E+00,	0.00000E+00,	0,	0
  1.61495E+03,	1.00000E+01,	-1.58851E-02,	2.90932E+01,	2.96659E+01,	-7.99698E+00,	0.00000E+00,	0,	0
  1.32923E+03,	1.00000E+01,	-1.58851E-02,	3.00188E+01,	3.02552E+01,	-9.24659E+00,	0.00000E+00,	0,	0
  1.09367E+03,	1.00000E+01,	-1.58851E-02,	3.10763E+01,	3.08423E+01,	-1.09357E+01,	0.00000E+00,	0,	0
  9.00000E+02,	1.00000E+01,	-1.58851E-02,	3.60638E+01,	3.16888E+01,	-1.25395E+01,	0.00000E+00,	0,	0
  7.44828E+02,	1.00000E+01,	-1.58851E-02,	3.74235E+01,	3.24805E+01,	-1.44667E+01,	0.00000E+00,	0,	0
  6.17143E+02,	1.00000E+01,	-1.58851E-02,	3.88125E+01,	3.33458E+01,	-1.66588E+01,	0.00000E+00,	0,	0
  5.14286E+02,	1.00000E+01,	-1.58851E-02,	4.01825E+01,	3.43052E+01,	-1.91081E+01,	0.00000E+00,	0,	0
  4.15385E+02,	1.00000E+01,	-1.58851E-02,	4.15512E+01,	3.55630E+01,	-2.24323E+01,	0.00000E+00,	0,	0
  3.42857E+02,	1.00000E+01,	-1.58851E-02,	4.39384E+01,	3.68368E+01,	-2.59312E+01,	0.00000E+00,	0,	0
  2.84211E+02,	1.00000E+01,	-1.58851E-02,	4.66140E+01,	3.82120E+01,	-2.98999E+01,	0.00000E+00,	0,	0
  2.32258E+02,	1.00000E+01,	-1.58851E-02,	4.94869E+01,	3.98893E+01,	-3.49395E+01,	0.00000E+00,	0,	0
  1.91150E+02,	1.00000E+01,	-1.58851E-02,	5.26016E+01,	4.17028E+01,	-4.06493E+01,	0.00000E+00,	0,	0
  1.57664E+02,	1.00000E+01,	-1.58851E-02,	5.60421E+01,	4.36857E+01,	-4.72878E+01,	0.00000E+00,	0,	0
  1.30120E+02,	1.00000E+01,	-1.58851E-02,	5.97927E+01,	4.59447E+01,	-5.51132E+01,	0.00000E+00,	0,	0
  1.06931E+02,	1.00000E+01,	-1.58851E-02,	6.38814E+01,	4.85334E+01,	-6.45794E+01,	0.00000E+00,	0,	0
  8.85246E+01,	1.00000E+01,	-1.58851E-02,	6.94674E+01,	5.13839E+01,	-7.54370E+01,	0.00000E+00,	0,	0
  7.29730E+01,	1.00000E+01,	-1.58851E-02,	7.43081E+01,	5.47728E+01,	-8.87694E+01,	0.00000E+00,	0,	0
  6.00000E+01,	1.00000E+01,	-1.58851E-02,	7.95615E+01,	5.87179E+01,	-1.02997E+02,	0.00000E+00,	0,	0
  4.95413E+01,	1.00000E+01,	-1.58851E-02,	8.81714E+01,	6.33550E+01,	-1.20998E+02,	0.00000E+00,	0,	0
  4.06015E+01,	1.00000E+01,	-1.58851E-02,	9.18019E+01,	6.88088E+01,	-1.42975E+02,	0.00000E+00,	0,	0
  3.35404E+01,	1.00000E+01,	-1.58851E-02,	9.55629E+01,	7.38983E+01,	-1.67731E+02,	0.00000E+00,	0,	0
  2.75510E+01,	1.00000E+01,	-1.58851E-02,	9.94143E+01,	8.17774E+01,	-1.98636E+02,	0.00000E+00,	0,	0
  2.26891E+01,	1.00000E+01,	-1.58851E-02,	1.02356E+02,	9.07796E+01,	-2.34308E+02,	0.00000E+00,	0,	0
  1.87500E+01,	1.00000E+01,	-1.58851E-02,	1.06046E+02,	1.01388E+02,	-2.75684E+02,	0.00000E+00,	0,	0
  1.55172E+01,	1.00000E+01,	-1.58851E-02,	1.11630E+02,	1.13827E+02,	-3.23931E+02,	0.00000E+00,	0,	0
  1.28571E+01,	1.00000E+01,	-1.58851E-02,	1.16268E+02,	1.28802E+02,	-3.80152E+02,	0.00000E+00,	0,	0
  1.04651E+01,	1.00000E+01,	-1.58851E-02,	1.19001E+02,	1.48377E+02,	-4.52695E+02,	0.00000E+00,	0,	0
  8.65385E+00,	1.00000E+01,	-1.58851E-02,	1.23298E+02,	1.70900E+02,	-5.31745E+02,	0.00000E+00,	0,	0
  7.14286E+00,	1.00000E+01,	-1.58851E-02,	1.25698E+02,	1.98156E+02,	-6.25054E+02,	0.00000E+00,	0,	0
  5.84416E+00,	1.00000E+01,	-1.58851E-02,	1.28458E+02,	2.33215E+02,	-7.39519E+02,	0.00000E+00,	0,	0
  4.83871E+00,	1.00000E+01,	-1.58851E-02,	1.31599E+02,	2.73530E+02,	-8.65473E+02,	0.00000E+00,	0,	0
  3.98230E+00,	1.00000E+01,	-1.58851E-02,	1.35218E+02,	3.23923E+02,	-1.01620E+03,	0.00000E+00,	0,	0
  3.28467E+00,	1.00000E+01,	-1.58851E-02,	1.39428E+02,	3.84899E+02,	-1.18915E+03,	0.00000E+00,	0,	0
  2.69461E+00,	1.00000E+01,	-1.58851E-02,	1.43321E+02,	4.60815E+02,	-1.39426E+03,	0.00000E+00,	0,	0
  2.22772E+00,	1.00000E+01,	-1.58851E-02,	1.47823E+02,	5.48588E+02,	-1.62142E+03,	0.00000E+00,	0,	0
  1.82927E+00,	1.00000E+01,	-1.58851E-02,	1.53120E+02,	6.56578E+02,	-1.89091E+03,	0.00000E+00,	0,	0
  1.51007E+00,	1.00000E+01,	-1.58851E-02,	1.60069E+02,	7.80175E+02,	-2.18951E+03,	0.00000E+00,	0,	0
  1.24309E+00,	1.00000E+01,	-1.58851E-02,	1.64388E+02,	9.26033E+02,	-2.53474E+03,	0.00000E+00,	0,	0
  1.02273E+00,	1.00000E+01,	-1.58851E-02,	1.68824E+02,	1.09722E+03,	-2.93497E+03,	0.00000E+00,	0,	0
  8.45865E-01,	1.00000E+01,	-1.58851E-02,	1.75688E+02,	1.27674E+03,	-3.36867E+03,	0.00000E+00,	0,	0
  6.94444E-01,	1.00000E+01,	-1.58851E-02,	1.80088E+02,	1.48982E+03,	-3.89357E+03,	0.00000E+00,	0,	0
  5.73980E-01,	1.00000E+01,	-1.58851E-02,	1.84693E+02,	1.65279E+03,	-4.50702E+03,	0.00000E+00,	0,	0
  4.72689E-01,	1.00000E+01,	-1.58851E-02,	1.90065E+02,	1.90242E+03,	-5.21470E+03,	0.00000E+00,	0,	0
  3.90625E-01,	1.00000E+01,	-1.58851E-02,	1.96109E+02,	2.17463E+03,	-6.11798E+03,	0.00000E+00,	0,	0
  3.21429E-01,	1.00000E+01,	-1.58851E-02,	2.03231E+02,	2.48383E+03,	-7.09753E+03,	0.00000E+00,	0,	0
  2.64085E-01,	1.00000E+01,	-1.58851E-02,	2.11897E+02,	2.81619E+03,	-8.27330E+03,	0.00000E+00,	0,	0
  2.18023E-01,	1.00000E+01,	-1.58851E-02,	2.22015E+02,	3.17163E+03,	-9.65155E+03,	0.00000E+00,	0,	0
  1.79426E-01,	1.00000E+01,	-1.58851E-02,	2.34112E+02,	3.59015E+03,	-1.12688E+04,	0.00000E+00,	0,	0
  1.47638E-01,	1.00000E+01,	-1.58851E-02,	2.48595E+02,	4.05770E+03,	-1.32030E+04,	0.00000E+00,	0,	0
  1.21753E-01,	1.00000E+01,	-1.58851E-02,	2.65963E+02,	4.58430E+03,	-1.54722E+04,	0.00000E+00,	0,	0
  1.00446E-01,	1.00000E+01,	-1.58851E-02,	2.86867E+02,	5.18861E+03,	-1.81512E+04,	0.00000E+00,	0,	0