Z60W Data File: Version 1.1
CorrTest for Windows: SN CS310H1805157  V5.2.1111.9  2.5H6.220118
Sweep Frequency: Control Voltage
  Date:4-26-2026   Time:22:45:44
  Begin Information:            Cell Information
      Surface Area:           1
      Density:                7.8
      Weight:                 28
  End Information:              Cell Information
  Freq (Hz)     Ampl(mV)       Bias(V)      Time(Sec)       Z'(Ohm.cm^2)    Z''(Ohm.cm^2)        GD       Err      Range
End Comments
  3.07200E+05,	1.00000E+01,	-6.77679E-03,	7.12869E-02,	1.76368E+00,	4.58287E+00,	0.00000E+00,	0,	0
  2.76480E+05,	1.00000E+01,	-6.77679E-03,	1.68444E+00,	2.27740E+00,	3.80036E+00,	0.00000E+00,	0,	0
  2.30400E+05,	1.00000E+01,	-6.77679E-03,	2.57964E+00,	2.64405E+00,	3.12126E+00,	0.00000E+00,	0,	0
  1.72800E+05,	1.00000E+01,	-6.77679E-03,	3.49735E+00,	3.04630E+00,	2.32708E+00,	0.00000E+00,	0,	0
  1.53600E+05,	1.00000E+01,	-6.77679E-03,	4.40013E+00,	3.15824E+00,	2.03810E+00,	0.00000E+00,	0,	0
  1.15200E+05,	1.00000E+01,	-6.77679E-03,	5.29920E+00,	3.33181E+00,	1.45888E+00,	0.00000E+00,	0,	0
  9.87429E+04,	1.00000E+01,	-6.77679E-03,	6.18916E+00,	3.40949E+00,	1.21312E+00,	0.00000E+00,	0,	0
  8.13176E+04,	1.00000E+01,	-6.77679E-03,	7.09233E+00,	3.47999E+00,	9.45776E-01,	0.00000E+00,	0,	0
  6.58286E+04,	1.00000E+01,	-6.77679E-03,	8.01503E+00,	3.52219E+00,	6.91490E-01,	0.00000E+00,	0,	0
  5.31692E+04,	1.00000E+01,	-6.77679E-03,	1.12681E+01,	3.58508E+00,	4.23314E-01,	0.00000E+00,	0,	0
  4.60800E+04,	1.00000E+01,	-6.77679E-03,	1.28187E+01,	3.60232E+00,	3.00126E-01,	0.00000E+00,	0,	0
  3.63789E+04,	1.00000E+01,	-6.77679E-03,	1.37476E+01,	3.63172E+00,	1.02091E-01,	0.00000E+00,	0,	0
  3.00522E+04,	1.00000E+01,	-6.77679E-03,	1.46519E+01,	3.65391E+00,	-4.35919E-02,	0.00000E+00,	0,	0
  2.46857E+04,	1.00000E+01,	-6.77679E-03,	1.55579E+01,	3.67979E+00,	-1.89412E-01,	0.00000E+00,	0,	0
  2.03294E+04,	1.00000E+01,	-6.77679E-03,	1.65233E+01,	3.71684E+00,	-3.30369E-01,	0.00000E+00,	0,	0
  1.64571E+04,	1.00000E+01,	-6.77679E-03,	1.74305E+01,	3.75806E+00,	-4.91006E-01,	0.00000E+00,	0,	0
  1.35529E+04,	1.00000E+01,	-6.77679E-03,	1.82404E+01,	3.80730E+00,	-6.44753E-01,	0.00000E+00,	0,	0
  1.11484E+04,	1.00000E+01,	-6.77679E-03,	1.91402E+01,	3.86277E+00,	-8.06237E-01,	0.00000E+00,	0,	0
  9.60000E+03,	1.00000E+01,	-6.77679E-03,	2.19748E+01,	3.87862E+00,	-9.32781E-01,	0.00000E+00,	0,	0
  7.85455E+03,	1.00000E+01,	-6.77679E-03,	2.29189E+01,	3.95306E+00,	-1.12845E+00,	0.00000E+00,	0,	0
  6.40000E+03,	1.00000E+01,	-6.77679E-03,	2.39034E+01,	4.04018E+00,	-1.35388E+00,	0.00000E+00,	0,	0
  5.23636E+03,	1.00000E+01,	-6.77679E-03,	2.48657E+01,	4.13495E+00,	-1.60054E+00,	0.00000E+00,	0,	0
  4.32000E+03,	1.00000E+01,	-6.77679E-03,	2.57626E+01,	4.24078E+00,	-1.87176E+00,	0.00000E+00,	0,	0
  3.52653E+03,	1.00000E+01,	-6.77679E-03,	2.67633E+01,	4.36284E+00,	-2.19298E+00,	0.00000E+00,	0,	0
  2.88000E+03,	1.00000E+01,	-6.77679E-03,	2.76584E+01,	4.49606E+00,	-2.57327E+00,	0.00000E+00,	0,	0
  2.36712E+03,	1.00000E+01,	-6.77679E-03,	2.87090E+01,	4.64895E+00,	-2.99327E+00,	0.00000E+00,	0,	0
  1.96364E+03,	1.00000E+01,	-6.77679E-03,	2.94620E+01,	4.80606E+00,	-3.45847E+00,	0.00000E+00,	0,	0
  1.61495E+03,	1.00000E+01,	-6.77679E-03,	3.03685E+01,	4.98672E+00,	-4.03472E+00,	0.00000E+00,	0,	0
  1.32923E+03,	1.00000E+01,	-6.77679E-03,	3.12966E+01,	5.18788E+00,	-4.69991E+00,	0.00000E+00,	0,	0
  1.09367E+03,	1.00000E+01,	-6.77679E-03,	3.23302E+01,	5.42582E+00,	-5.48647E+00,	0.00000E+00,	0,	0
  9.00000E+02,	1.00000E+01,	-6.77679E-03,	3.73112E+01,	5.69971E+00,	-6.43294E+00,	0.00000E+00,	0,	0
  7.44828E+02,	1.00000E+01,	-6.77679E-03,	3.86677E+01,	5.99098E+00,	-7.49873E+00,	0.00000E+00,	0,	0
  6.17143E+02,	1.00000E+01,	-6.77679E-03,	4.00775E+01,	6.31414E+00,	-8.74232E+00,	0.00000E+00,	0,	0
  5.14286E+02,	1.00000E+01,	-6.77679E-03,	4.14667E+01,	6.67899E+00,	-1.01616E+01,	0.00000E+00,	0,	0
  4.15385E+02,	1.00000E+01,	-6.77679E-03,	4.28404E+01,	7.16900E+00,	-1.21405E+01,	0.00000E+00,	0,	0
  3.42857E+02,	1.00000E+01,	-6.77679E-03,	4.52284E+01,	7.69212E+00,	-1.42624E+01,	0.00000E+00,	0,	0
  2.84211E+02,	1.00000E+01,	-6.77679E-03,	4.96548E+01,	8.30461E+00,	-1.67442E+01,	0.00000E+00,	0,	0
  2.32258E+02,	1.00000E+01,	-6.77679E-03,	5.25133E+01,	9.06090E+00,	-1.98688E+01,	0.00000E+00,	0,	0
  1.91150E+02,	1.00000E+01,	-6.77679E-03,	5.56345E+01,	9.93630E+00,	-2.34452E+01,	0.00000E+00,	0,	0
  1.57664E+02,	1.00000E+01,	-6.77679E-03,	5.90759E+01,	1.09633E+01,	-2.76303E+01,	0.00000E+00,	0,	0
  1.30120E+02,	1.00000E+01,	-6.77679E-03,	6.27987E+01,	1.21974E+01,	-3.25613E+01,	0.00000E+00,	0,	0
  1.06931E+02,	1.00000E+01,	-6.77679E-03,	6.69240E+01,	1.37097E+01,	-3.85199E+01,	0.00000E+00,	0,	0
  8.85246E+01,	1.00000E+01,	-6.77679E-03,	7.25305E+01,	1.54652E+01,	-4.53221E+01,	0.00000E+00,	0,	0
  7.29730E+01,	1.00000E+01,	-6.77679E-03,	7.73755E+01,	1.76635E+01,	-5.36299E+01,	0.00000E+00,	0,	0
  6.00000E+01,	1.00000E+01,	-6.77679E-03,	8.26348E+01,	2.05831E+01,	-6.25622E+01,	0.00000E+00,	0,	0
  4.95413E+01,	1.00000E+01,	-6.77679E-03,	8.83717E+01,	2.39097E+01,	-7.34731E+01,	0.00000E+00,	0,	0
  4.06015E+01,	1.00000E+01,	-6.77679E-03,	9.20138E+01,	2.81363E+01,	-8.67169E+01,	0.00000E+00,	0,	0
  3.35404E+01,	1.00000E+01,	-6.77679E-03,	9.58253E+01,	3.24854E+01,	-1.01390E+02,	0.00000E+00,	0,	0
  2.75510E+01,	1.00000E+01,	-6.77679E-03,	9.96836E+01,	3.88909E+01,	-1.19415E+02,	0.00000E+00,	0,	0
  2.26891E+01,	1.00000E+01,	-6.77679E-03,	1.02636E+02,	4.64521E+01,	-1.39717E+02,	0.00000E+00,	0,	0
  1.87500E+01,	1.00000E+01,	-6.77679E-03,	1.06335E+02,	5.53767E+01,	-1.62644E+02,	0.00000E+00,	0,	0
  1.55172E+01,	1.00000E+01,	-6.77679E-03,	1.11908E+02,	6.57875E+01,	-1.88601E+02,	0.00000E+00,	0,	0
  1.28571E+01,	1.00000E+01,	-6.77679E-03,	1.16555E+02,	7.79578E+01,	-2.17924E+02,	0.00000E+00,	0,	0
  1.04651E+01,	1.00000E+01,	-6.77679E-03,	1.19290E+02,	9.31860E+01,	-2.54589E+02,	0.00000E+00,	0,	0
  8.65385E+00,	1.00000E+01,	-6.77679E-03,	1.25109E+02,	1.09667E+02,	-2.93895E+02,	0.00000E+00,	0,	0
  7.14286E+00,	1.00000E+01,	-6.77679E-03,	1.27509E+02,	1.28106E+02,	-3.38839E+02,	0.00000E+00,	0,	0
  5.84416E+00,	1.00000E+01,	-6.77679E-03,	1.30246E+02,	1.49413E+02,	-3.93000E+02,	0.00000E+00,	0,	0
  4.83871E+00,	1.00000E+01,	-6.77679E-03,	1.33370E+02,	1.71505E+02,	-4.52128E+02,	0.00000E+00,	0,	0
  3.98230E+00,	1.00000E+01,	-6.77679E-03,	1.37005E+02,	1.96448E+02,	-5.23153E+02,	0.00000E+00,	0,	0
  3.28467E+00,	1.00000E+01,	-6.77679E-03,	1.41178E+02,	2.23497E+02,	-6.05734E+02,	0.00000E+00,	0,	0
  2.69461E+00,	1.00000E+01,	-6.77679E-03,	1.45081E+02,	2.54104E+02,	-7.05529E+02,	0.00000E+00,	0,	0
  2.22772E+00,	1.00000E+01,	-6.77679E-03,	1.49577E+02,	2.86481E+02,	-8.19136E+02,	0.00000E+00,	0,	0
  1.82927E+00,	1.00000E+01,	-6.77679E-03,	1.54928E+02,	3.24068E+02,	-9.58564E+02,	0.00000E+00,	0,	0
  1.51007E+00,	1.00000E+01,	-6.77679E-03,	1.61917E+02,	3.65097E+02,	-1.11897E+03,	0.00000E+00,	0,	0
  1.24309E+00,	1.00000E+01,	-6.77679E-03,	1.66242E+02,	4.13170E+02,	-1.31251E+03,	0.00000E+00,	0,	0
  1.02273E+00,	1.00000E+01,	-6.77679E-03,	1.70672E+02,	4.69254E+02,	-1.54470E+03,	0.00000E+00,	0,	0
  8.45865E-01,	1.00000E+01,	-6.77679E-03,	1.77500E+02,	5.31416E+02,	-1.80916E+03,	0.00000E+00,	0,	0
  6.94444E-01,	1.00000E+01,	-6.77679E-03,	1.81902E+02,	6.08491E+02,	-2.13727E+03,	0.00000E+00,	0,	0
  5.73980E-01,	1.00000E+01,	-6.77679E-03,	1.86490E+02,	6.76586E+02,	-2.51772E+03,	0.00000E+00,	0,	0
  4.72689E-01,	1.00000E+01,	-6.77679E-03,	1.91830E+02,	7.80396E+02,	-2.97374E+03,	0.00000E+00,	0,	0
  3.90625E-01,	1.00000E+01,	-6.77679E-03,	1.97889E+02,	8.98990E+02,	-3.53793E+03,	0.00000E+00,	0,	0
  3.21429E-01,	1.00000E+01,	-6.77679E-03,	2.05065E+02,	1.05044E+03,	-4.18464E+03,	0.00000E+00,	0,	0
  2.64085E-01,	1.00000E+01,	-6.77679E-03,	2.13731E+02,	1.23291E+03,	-4.95910E+03,	0.00000E+00,	0,	0
  2.18023E-01,	1.00000E+01,	-6.77679E-03,	2.23831E+02,	1.44887E+03,	-5.86150E+03,	0.00000E+00,	0,	0
  1.79426E-01,	1.00000E+01,	-6.77679E-03,	2.35943E+02,	1.72655E+03,	-6.93394E+03,	0.00000E+00,	0,	0
  1.47638E-01,	1.00000E+01,	-6.77679E-03,	2.50446E+02,	2.06982E+03,	-8.20887E+03,	0.00000E+00,	0,	0
  1.21753E-01,	1.00000E+01,	-6.77679E-03,	2.67844E+02,	2.49839E+03,	-9.69756E+03,	0.00000E+00,	0,	0
  1.00446E-01,	1.00000E+01,	-6.77679E-03,	2.88733E+02,	3.04044E+03,	-1.14401E+04,	0.00000E+00,	0,	0