Z60W Data File: Version 1.1
CorrTest for Windows: SN CS310H1805157  V5.2.1111.9  2.5H6.220118
Sweep Frequency: Control Voltage
  Date:4-26-2026   Time:20:48:22
  Begin Information:            Cell Information
      Surface Area:           1
      Density:                7.8
      Weight:                 28
  End Information:              Cell Information
  Freq (Hz)     Ampl(mV)       Bias(V)      Time(Sec)       Z'(Ohm.cm^2)    Z''(Ohm.cm^2)        GD       Err      Range
End Comments
  3.07200E+05,	1.00000E+01,	-9.68434E-03,	2.82084E-02,	9.07144E-01,	4.09636E+00,	0.00000E+00,	0,	0
  2.76480E+05,	1.00000E+01,	-9.68434E-03,	1.63920E+00,	1.38109E+00,	3.32355E+00,	0.00000E+00,	0,	0
  2.30400E+05,	1.00000E+01,	-9.68434E-03,	2.54243E+00,	1.82553E+00,	2.75976E+00,	0.00000E+00,	0,	0
  1.72800E+05,	1.00000E+01,	-9.68434E-03,	3.44954E+00,	2.20586E+00,	2.07104E+00,	0.00000E+00,	0,	0
  1.53600E+05,	1.00000E+01,	-9.68434E-03,	4.34864E+00,	2.33127E+00,	1.80573E+00,	0.00000E+00,	0,	0
  1.15200E+05,	1.00000E+01,	-9.68434E-03,	5.24293E+00,	2.53126E+00,	1.28812E+00,	0.00000E+00,	0,	0
  9.87429E+04,	1.00000E+01,	-9.68434E-03,	6.14736E+00,	2.60102E+00,	1.07537E+00,	0.00000E+00,	0,	0
  8.13176E+04,	1.00000E+01,	-9.68434E-03,	7.04407E+00,	2.66798E+00,	8.52259E-01,	0.00000E+00,	0,	0
  6.58286E+04,	1.00000E+01,	-9.68434E-03,	7.96606E+00,	2.71425E+00,	6.18265E-01,	0.00000E+00,	0,	0
  5.31692E+04,	1.00000E+01,	-9.68434E-03,	1.12283E+01,	2.76988E+00,	3.69709E-01,	0.00000E+00,	0,	0
  4.60800E+04,	1.00000E+01,	-9.68434E-03,	1.27795E+01,	2.78644E+00,	2.62121E-01,	0.00000E+00,	0,	0
  3.63789E+04,	1.00000E+01,	-9.68434E-03,	1.37133E+01,	2.81313E+00,	9.02075E-02,	0.00000E+00,	0,	0
  3.00522E+04,	1.00000E+01,	-9.68434E-03,	1.45725E+01,	2.83711E+00,	-4.05713E-02,	0.00000E+00,	0,	0
  2.46857E+04,	1.00000E+01,	-9.68434E-03,	1.53996E+01,	2.86254E+00,	-1.64072E-01,	0.00000E+00,	0,	0
  2.03294E+04,	1.00000E+01,	-9.68434E-03,	1.63433E+01,	2.89510E+00,	-2.92439E-01,	0.00000E+00,	0,	0
  1.64571E+04,	1.00000E+01,	-9.68434E-03,	1.72429E+01,	2.93531E+00,	-4.33021E-01,	0.00000E+00,	0,	0
  1.35529E+04,	1.00000E+01,	-9.68434E-03,	1.80457E+01,	2.97273E+00,	-5.67862E-01,	0.00000E+00,	0,	0
  1.11484E+04,	1.00000E+01,	-9.68434E-03,	1.89863E+01,	3.02200E+00,	-7.12086E-01,	0.00000E+00,	0,	0
  9.60000E+03,	1.00000E+01,	-9.68434E-03,	2.17861E+01,	3.04410E+00,	-8.18707E-01,	0.00000E+00,	0,	0
  7.85455E+03,	1.00000E+01,	-9.68434E-03,	2.27285E+01,	3.10833E+00,	-9.91501E-01,	0.00000E+00,	0,	0
  6.40000E+03,	1.00000E+01,	-9.68434E-03,	2.36814E+01,	3.17722E+00,	-1.18448E+00,	0.00000E+00,	0,	0
  5.23636E+03,	1.00000E+01,	-9.68434E-03,	2.46678E+01,	3.25971E+00,	-1.40441E+00,	0.00000E+00,	0,	0
  4.32000E+03,	1.00000E+01,	-9.68434E-03,	2.55594E+01,	3.34362E+00,	-1.64107E+00,	0.00000E+00,	0,	0
  3.52653E+03,	1.00000E+01,	-9.68434E-03,	2.66035E+01,	3.44751E+00,	-1.92879E+00,	0.00000E+00,	0,	0
  2.88000E+03,	1.00000E+01,	-9.68434E-03,	2.75130E+01,	3.56368E+00,	-2.26783E+00,	0.00000E+00,	0,	0
  2.36712E+03,	1.00000E+01,	-9.68434E-03,	2.85177E+01,	3.68013E+00,	-2.64954E+00,	0.00000E+00,	0,	0
  1.96364E+03,	1.00000E+01,	-9.68434E-03,	2.92815E+01,	3.81518E+00,	-3.06940E+00,	0.00000E+00,	0,	0
  1.61495E+03,	1.00000E+01,	-9.68434E-03,	3.01994E+01,	3.96588E+00,	-3.58466E+00,	0.00000E+00,	0,	0
  1.32923E+03,	1.00000E+01,	-9.68434E-03,	3.11648E+01,	4.14432E+00,	-4.19146E+00,	0.00000E+00,	0,	0
  1.09367E+03,	1.00000E+01,	-9.68434E-03,	3.22144E+01,	4.34086E+00,	-4.90474E+00,	0.00000E+00,	0,	0
  9.00000E+02,	1.00000E+01,	-9.68434E-03,	3.72144E+01,	4.57810E+00,	-5.77068E+00,	0.00000E+00,	0,	0
  7.44828E+02,	1.00000E+01,	-9.68434E-03,	3.86119E+01,	4.82494E+00,	-6.74650E+00,	0.00000E+00,	0,	0
  6.17143E+02,	1.00000E+01,	-9.68434E-03,	4.00208E+01,	5.11098E+00,	-7.88639E+00,	0.00000E+00,	0,	0
  5.14286E+02,	1.00000E+01,	-9.68434E-03,	4.14267E+01,	5.43258E+00,	-9.18668E+00,	0.00000E+00,	0,	0
  4.15385E+02,	1.00000E+01,	-9.68434E-03,	4.28083E+01,	5.87402E+00,	-1.09944E+01,	0.00000E+00,	0,	0
  3.42857E+02,	1.00000E+01,	-9.68434E-03,	4.51965E+01,	6.34126E+00,	-1.29271E+01,	0.00000E+00,	0,	0
  2.84211E+02,	1.00000E+01,	-9.68434E-03,	4.95938E+01,	6.90235E+00,	-1.51920E+01,	0.00000E+00,	0,	0
  2.32258E+02,	1.00000E+01,	-9.68434E-03,	5.24369E+01,	7.60457E+00,	-1.80476E+01,	0.00000E+00,	0,	0
  1.91150E+02,	1.00000E+01,	-9.68434E-03,	5.55628E+01,	8.42437E+00,	-2.13137E+01,	0.00000E+00,	0,	0
  1.57664E+02,	1.00000E+01,	-9.68434E-03,	5.89947E+01,	9.39209E+00,	-2.51163E+01,	0.00000E+00,	0,	0
  1.30120E+02,	1.00000E+01,	-9.68434E-03,	6.27285E+01,	1.05683E+01,	-2.95986E+01,	0.00000E+00,	0,	0
  1.06931E+02,	1.00000E+01,	-9.68434E-03,	6.68384E+01,	1.20182E+01,	-3.49946E+01,	0.00000E+00,	0,	0
  8.85246E+01,	1.00000E+01,	-9.68434E-03,	7.24366E+01,	1.37101E+01,	-4.11423E+01,	0.00000E+00,	0,	0
  7.29730E+01,	1.00000E+01,	-9.68434E-03,	7.72839E+01,	1.58369E+01,	-4.86207E+01,	0.00000E+00,	0,	0
  6.00000E+01,	1.00000E+01,	-9.68434E-03,	8.25217E+01,	1.86594E+01,	-5.66017E+01,	0.00000E+00,	0,	0
  4.95413E+01,	1.00000E+01,	-9.68434E-03,	8.83084E+01,	2.18827E+01,	-6.63217E+01,	0.00000E+00,	0,	0
  4.06015E+01,	1.00000E+01,	-9.68434E-03,	9.19252E+01,	2.59567E+01,	-7.80596E+01,	0.00000E+00,	0,	0
  3.35404E+01,	1.00000E+01,	-9.68434E-03,	9.56919E+01,	3.01598E+01,	-9.09609E+01,	0.00000E+00,	0,	0
  2.75510E+01,	1.00000E+01,	-9.68434E-03,	9.95110E+01,	3.62349E+01,	-1.06722E+02,	0.00000E+00,	0,	0
  2.26891E+01,	1.00000E+01,	-9.68434E-03,	1.02471E+02,	4.32981E+01,	-1.24337E+02,	0.00000E+00,	0,	0
  1.87500E+01,	1.00000E+01,	-9.68434E-03,	1.06164E+02,	5.14740E+01,	-1.44097E+02,	0.00000E+00,	0,	0
  1.55172E+01,	1.00000E+01,	-9.68434E-03,	1.11706E+02,	6.07596E+01,	-1.66388E+02,	0.00000E+00,	0,	0
  1.28571E+01,	1.00000E+01,	-9.68434E-03,	1.16348E+02,	7.13452E+01,	-1.91569E+02,	0.00000E+00,	0,	0
  1.04651E+01,	1.00000E+01,	-9.68434E-03,	1.19060E+02,	8.43061E+01,	-2.23123E+02,	0.00000E+00,	0,	0
  8.65385E+00,	1.00000E+01,	-9.68434E-03,	1.24930E+02,	9.78874E+01,	-2.57235E+02,	0.00000E+00,	0,	0
  7.14286E+00,	1.00000E+01,	-9.68434E-03,	1.27336E+02,	1.12881E+02,	-2.96657E+02,	0.00000E+00,	0,	0
  5.84416E+00,	1.00000E+01,	-9.68434E-03,	1.30077E+02,	1.29954E+02,	-3.44622E+02,	0.00000E+00,	0,	0
  4.83871E+00,	1.00000E+01,	-9.68434E-03,	1.33231E+02,	1.47548E+02,	-3.97516E+02,	0.00000E+00,	0,	0
  3.98230E+00,	1.00000E+01,	-9.68434E-03,	1.36872E+02,	1.67427E+02,	-4.61848E+02,	0.00000E+00,	0,	0
  3.28467E+00,	1.00000E+01,	-9.68434E-03,	1.41032E+02,	1.89279E+02,	-5.36907E+02,	0.00000E+00,	0,	0
  2.69461E+00,	1.00000E+01,	-9.68434E-03,	1.44935E+02,	2.14432E+02,	-6.28283E+02,	0.00000E+00,	0,	0
  2.22772E+00,	1.00000E+01,	-9.68434E-03,	1.49416E+02,	2.41659E+02,	-7.32528E+02,	0.00000E+00,	0,	0
  1.82927E+00,	1.00000E+01,	-9.68434E-03,	1.54708E+02,	2.73527E+02,	-8.60974E+02,	0.00000E+00,	0,	0
  1.51007E+00,	1.00000E+01,	-9.68434E-03,	1.58531E+02,	3.09890E+02,	-1.00923E+03,	0.00000E+00,	0,	0
  1.24309E+00,	1.00000E+01,	-9.68434E-03,	1.62843E+02,	3.52518E+02,	-1.18754E+03,	0.00000E+00,	0,	0
  1.02273E+00,	1.00000E+01,	-9.68434E-03,	1.67289E+02,	4.03227E+02,	-1.40084E+03,	0.00000E+00,	0,	0
  8.45865E-01,	1.00000E+01,	-9.68434E-03,	1.74098E+02,	4.60607E+02,	-1.64416E+03,	0.00000E+00,	0,	0
  6.94444E-01,	1.00000E+01,	-9.68434E-03,	1.78544E+02,	5.31866E+02,	-1.94539E+03,	0.00000E+00,	0,	0
  5.73980E-01,	1.00000E+01,	-9.68434E-03,	1.83099E+02,	5.98285E+02,	-2.29362E+03,	0.00000E+00,	0,	0
  4.72689E-01,	1.00000E+01,	-9.68434E-03,	1.88427E+02,	6.97543E+02,	-2.71244E+03,	0.00000E+00,	0,	0
  3.90625E-01,	1.00000E+01,	-9.68434E-03,	1.94461E+02,	8.13966E+02,	-3.22536E+03,	0.00000E+00,	0,	0
  3.21429E-01,	1.00000E+01,	-9.68434E-03,	2.01610E+02,	9.65309E+02,	-3.81641E+03,	0.00000E+00,	0,	0
  2.64085E-01,	1.00000E+01,	-9.68434E-03,	2.19046E+02,	1.16586E+03,	-4.47510E+03,	0.00000E+00,	0,	0
  2.18023E-01,	1.00000E+01,	-9.68434E-03,	2.29151E+02,	1.35986E+03,	-5.36208E+03,	0.00000E+00,	0,	0
  1.79426E-01,	1.00000E+01,	-9.68434E-03,	2.41225E+02,	1.67334E+03,	-6.30587E+03,	0.00000E+00,	0,	0
  1.47638E-01,	1.00000E+01,	-9.68434E-03,	2.55750E+02,	2.04841E+03,	-7.44624E+03,	0.00000E+00,	0,	0
  1.21753E-01,	1.00000E+01,	-9.68434E-03,	2.73150E+02,	2.52164E+03,	-8.76359E+03,	0.00000E+00,	0,	0
  1.00446E-01,	1.00000E+01,	-9.68434E-03,	2.94022E+02,	3.12708E+03,	-1.02862E+04,	0.00000E+00,	0,	0