Z60W Data File: Version 1.1
CorrTest for Windows: SN CS310H1805157  V5.2.1111.9  2.5H6.220118
Sweep Frequency: Control Voltage
  Date:4-27-2026   Time:17:02:53
  Begin Information:            Cell Information
      Surface Area:           1
      Density:                7.8
      Weight:                 28
  End Information:              Cell Information
  Freq (Hz)     Ampl(mV)       Bias(V)      Time(Sec)       Z'(Ohm.cm^2)    Z''(Ohm.cm^2)        GD       Err      Range
End Comments
  3.07200E+05,	1.00000E+01,	-2.13751E-02,	3.14729E-02,	4.76688E+02,	-1.62666E+02,	0.00000E+00,	0,	0
  2.76480E+05,	1.00000E+01,	-2.13751E-02,	1.63336E+00,	4.86461E+02,	-1.66500E+02,	0.00000E+00,	0,	0
  2.30400E+05,	1.00000E+01,	-2.13751E-02,	2.58739E+00,	5.15136E+02,	-1.76227E+02,	0.00000E+00,	0,	0
  1.72800E+05,	1.00000E+01,	-2.13751E-02,	3.47600E+00,	5.50443E+02,	-1.78665E+02,	0.00000E+00,	0,	0
  1.53600E+05,	1.00000E+01,	-2.13751E-02,	4.39656E+00,	5.71279E+02,	-1.78937E+02,	0.00000E+00,	0,	0
  1.15200E+05,	1.00000E+01,	-2.13751E-02,	5.33431E+00,	6.13288E+02,	-1.88249E+02,	0.00000E+00,	0,	0
  9.87429E+04,	1.00000E+01,	-2.13751E-02,	6.30357E+00,	6.35476E+02,	-1.62686E+02,	0.00000E+00,	0,	0
  8.13176E+04,	1.00000E+01,	-2.13751E-02,	7.26188E+00,	6.63844E+02,	-1.54464E+02,	0.00000E+00,	0,	0
  6.58286E+04,	1.00000E+01,	-2.13751E-02,	8.15348E+00,	6.86472E+02,	-1.51549E+02,	0.00000E+00,	0,	0
  5.31692E+04,	1.00000E+01,	-2.13751E-02,	9.17295E+00,	7.13541E+02,	-1.30304E+02,	0.00000E+00,	0,	0
  4.60800E+04,	1.00000E+01,	-2.13751E-02,	1.07158E+01,	7.21844E+02,	-1.17744E+02,	0.00000E+00,	0,	0
  3.63789E+04,	1.00000E+01,	-2.13751E-02,	1.16357E+01,	7.32186E+02,	-1.01148E+02,	0.00000E+00,	0,	0
  3.00522E+04,	1.00000E+01,	-2.13751E-02,	1.25017E+01,	7.71635E+02,	-5.46208E+01,	0.00000E+00,	0,	0
  2.46857E+04,	1.00000E+01,	-2.13751E-02,	1.33845E+01,	7.53321E+02,	-7.82200E+01,	0.00000E+00,	0,	0
  2.03294E+04,	1.00000E+01,	-2.13751E-02,	1.43474E+01,	7.55877E+02,	-7.28515E+01,	0.00000E+00,	0,	0
  1.64571E+04,	1.00000E+01,	-2.13751E-02,	1.52531E+01,	7.67734E+02,	-5.74697E+01,	0.00000E+00,	0,	0
  1.35529E+04,	1.00000E+01,	-2.13751E-02,	1.60731E+01,	7.69800E+02,	-5.19512E+01,	0.00000E+00,	0,	0
  1.11484E+04,	1.00000E+01,	-2.13751E-02,	1.69569E+01,	7.75101E+02,	-4.37696E+01,	0.00000E+00,	0,	0
  9.60000E+03,	1.00000E+01,	-2.13751E-02,	1.97424E+01,	7.77820E+02,	-3.78600E+01,	0.00000E+00,	0,	0
  7.85455E+03,	1.00000E+01,	-2.13751E-02,	2.06995E+01,	7.80082E+02,	-2.91760E+01,	0.00000E+00,	0,	0
  6.40000E+03,	1.00000E+01,	-2.13751E-02,	2.16508E+01,	7.86575E+02,	-2.80858E+01,	0.00000E+00,	0,	0
  5.23636E+03,	1.00000E+01,	-2.13751E-02,	2.26066E+01,	7.86957E+02,	-2.38251E+01,	0.00000E+00,	0,	0
  4.32000E+03,	1.00000E+01,	-2.13751E-02,	2.35088E+01,	7.87789E+02,	-2.28642E+01,	0.00000E+00,	0,	0
  3.52653E+03,	1.00000E+01,	-2.13751E-02,	2.45634E+01,	7.91266E+02,	-2.35615E+01,	0.00000E+00,	0,	0
  2.88000E+03,	1.00000E+01,	-2.13751E-02,	2.54634E+01,	7.94091E+02,	-1.92160E+01,	0.00000E+00,	0,	0
  2.36712E+03,	1.00000E+01,	-2.13751E-02,	2.64629E+01,	7.93660E+02,	-2.03512E+01,	0.00000E+00,	0,	0
  1.96364E+03,	1.00000E+01,	-2.13751E-02,	2.72595E+01,	7.97555E+02,	-1.46828E+01,	0.00000E+00,	0,	0
  1.61495E+03,	1.00000E+01,	-2.13751E-02,	2.81590E+01,	8.02079E+02,	-2.04616E+01,	0.00000E+00,	0,	0
  1.32923E+03,	1.00000E+01,	-2.13751E-02,	2.91191E+01,	8.02514E+02,	-2.41637E+01,	0.00000E+00,	0,	0
  1.09367E+03,	1.00000E+01,	-2.13751E-02,	3.01885E+01,	8.00806E+02,	-1.97436E+01,	0.00000E+00,	0,	0
  9.00000E+02,	1.00000E+01,	-2.13751E-02,	3.51868E+01,	8.06174E+02,	-2.98571E+01,	0.00000E+00,	0,	0
  7.44828E+02,	1.00000E+01,	-2.13751E-02,	3.65455E+01,	8.08521E+02,	-3.36778E+01,	0.00000E+00,	0,	0
  6.17143E+02,	1.00000E+01,	-2.13751E-02,	3.79329E+01,	8.11221E+02,	-3.85291E+01,	0.00000E+00,	0,	0
  5.14286E+02,	1.00000E+01,	-2.13751E-02,	3.93415E+01,	8.13799E+02,	-4.37824E+01,	0.00000E+00,	0,	0
  4.15385E+02,	1.00000E+01,	-2.13751E-02,	4.07136E+01,	8.17604E+02,	-5.18169E+01,	0.00000E+00,	0,	0
  3.42857E+02,	1.00000E+01,	-2.13751E-02,	4.31451E+01,	8.22096E+02,	-6.02970E+01,	0.00000E+00,	0,	0
  2.84211E+02,	1.00000E+01,	-2.13751E-02,	4.58196E+01,	8.27336E+02,	-7.03094E+01,	0.00000E+00,	0,	0
  2.32258E+02,	1.00000E+01,	-2.13751E-02,	4.87110E+01,	8.33882E+02,	-8.23310E+01,	0.00000E+00,	0,	0
  1.91150E+02,	1.00000E+01,	-2.13751E-02,	5.18286E+01,	8.41427E+02,	-9.61352E+01,	0.00000E+00,	0,	0
  1.57664E+02,	1.00000E+01,	-2.13751E-02,	5.52656E+01,	8.48898E+02,	-1.12951E+02,	0.00000E+00,	0,	0
  1.30120E+02,	1.00000E+01,	-2.13751E-02,	5.90081E+01,	8.59545E+02,	-1.31704E+02,	0.00000E+00,	0,	0
  1.06931E+02,	1.00000E+01,	-2.13751E-02,	6.31056E+01,	8.71206E+02,	-1.54565E+02,	0.00000E+00,	0,	0
  8.85246E+01,	1.00000E+01,	-2.13751E-02,	6.87066E+01,	8.86323E+02,	-1.80487E+02,	0.00000E+00,	0,	0
  7.29730E+01,	1.00000E+01,	-2.13751E-02,	7.35399E+01,	9.04604E+02,	-2.11746E+02,	0.00000E+00,	0,	0
  6.00000E+01,	1.00000E+01,	-2.13751E-02,	7.88499E+01,	9.15328E+02,	-2.37885E+02,	0.00000E+00,	0,	0
  4.95413E+01,	1.00000E+01,	-2.13751E-02,	8.45946E+01,	9.35170E+02,	-2.75932E+02,	0.00000E+00,	0,	0
  4.06015E+01,	1.00000E+01,	-2.13751E-02,	8.82013E+01,	9.56553E+02,	-3.21779E+02,	0.00000E+00,	0,	0
  3.35404E+01,	1.00000E+01,	-2.13751E-02,	9.19710E+01,	9.74825E+02,	-3.75784E+02,	0.00000E+00,	0,	0
  2.75510E+01,	1.00000E+01,	-2.13751E-02,	9.57822E+01,	1.00565E+03,	-4.35231E+02,	0.00000E+00,	0,	0
  2.26891E+01,	1.00000E+01,	-2.13751E-02,	9.87416E+01,	1.03679E+03,	-5.03510E+02,	0.00000E+00,	0,	0
  1.87500E+01,	1.00000E+01,	-2.13751E-02,	1.02469E+02,	1.07092E+03,	-5.80857E+02,	0.00000E+00,	0,	0
  1.55172E+01,	1.00000E+01,	-2.13751E-02,	1.08019E+02,	1.10998E+03,	-6.70807E+02,	0.00000E+00,	0,	0
  1.28571E+01,	1.00000E+01,	-2.13751E-02,	1.12675E+02,	1.15252E+03,	-7.74036E+02,	0.00000E+00,	0,	0
  1.04651E+01,	1.00000E+01,	-2.13751E-02,	1.15378E+02,	1.20133E+03,	-9.06071E+02,	0.00000E+00,	0,	0
  8.65385E+00,	1.00000E+01,	-2.13751E-02,	1.21184E+02,	1.25355E+03,	-1.04912E+03,	0.00000E+00,	0,	0
  7.14286E+00,	1.00000E+01,	-2.13751E-02,	1.23633E+02,	1.31023E+03,	-1.21861E+03,	0.00000E+00,	0,	0
  5.84416E+00,	1.00000E+01,	-2.13751E-02,	1.26379E+02,	1.37857E+03,	-1.42678E+03,	0.00000E+00,	0,	0
  4.83871E+00,	1.00000E+01,	-2.13751E-02,	1.29522E+02,	1.45014E+03,	-1.65790E+03,	0.00000E+00,	0,	0
  3.98230E+00,	1.00000E+01,	-2.13751E-02,	1.33154E+02,	1.53476E+03,	-1.93875E+03,	0.00000E+00,	0,	0
  3.28467E+00,	1.00000E+01,	-2.13751E-02,	1.37315E+02,	1.63025E+03,	-2.26683E+03,	0.00000E+00,	0,	0
  2.69461E+00,	1.00000E+01,	-2.13751E-02,	1.41216E+02,	1.74311E+03,	-2.66485E+03,	0.00000E+00,	0,	0
  2.22772E+00,	1.00000E+01,	-2.13751E-02,	1.45726E+02,	1.86716E+03,	-3.11773E+03,	0.00000E+00,	0,	0
  1.82927E+00,	1.00000E+01,	-2.13751E-02,	1.51067E+02,	2.01688E+03,	-3.67261E+03,	0.00000E+00,	0,	0
  1.51007E+00,	1.00000E+01,	-2.13751E-02,	1.54916E+02,	2.18469E+03,	-4.30905E+03,	0.00000E+00,	0,	0
  1.24309E+00,	1.00000E+01,	-2.13751E-02,	1.59230E+02,	2.38384E+03,	-5.07275E+03,	0.00000E+00,	0,	0
  1.02273E+00,	1.00000E+01,	-2.13751E-02,	1.63699E+02,	2.62215E+03,	-5.98486E+03,	0.00000E+00,	0,	0
  8.45865E-01,	1.00000E+01,	-2.13751E-02,	1.70553E+02,	2.89280E+03,	-7.02164E+03,	0.00000E+00,	0,	0
  6.94444E-01,	1.00000E+01,	-2.13751E-02,	1.74928E+02,	3.22556E+03,	-8.29838E+03,	0.00000E+00,	0,	0
  5.73980E-01,	1.00000E+01,	-2.13751E-02,	1.79495E+02,	3.52585E+03,	-9.79278E+03,	0.00000E+00,	0,	0
  4.72689E-01,	1.00000E+01,	-2.13751E-02,	1.84899E+02,	3.99092E+03,	-1.15594E+04,	0.00000E+00,	0,	0
  3.90625E-01,	1.00000E+01,	-2.13751E-02,	1.90926E+02,	4.54823E+03,	-1.37559E+04,	0.00000E+00,	0,	0
  3.21429E-01,	1.00000E+01,	-2.13751E-02,	1.98065E+02,	5.24404E+03,	-1.62229E+04,	0.00000E+00,	0,	0
  2.64085E-01,	1.00000E+01,	-2.13751E-02,	2.15505E+02,	6.12964E+03,	-1.89139E+04,	0.00000E+00,	0,	0
  2.18023E-01,	1.00000E+01,	-2.13751E-02,	2.25585E+02,	6.95679E+03,	-2.27329E+04,	0.00000E+00,	0,	0
  1.79426E-01,	1.00000E+01,	-2.13751E-02,	2.37640E+02,	8.27905E+03,	-2.65798E+04,	0.00000E+00,	0,	0
  1.47638E-01,	1.00000E+01,	-2.13751E-02,	2.52125E+02,	9.76549E+03,	-3.13197E+04,	0.00000E+00,	0,	0
  1.21753E-01,	1.00000E+01,	-2.13751E-02,	2.69502E+02,	1.15484E+04,	-3.68143E+04,	0.00000E+00,	0,	0
  1.00446E-01,	1.00000E+01,	-2.13751E-02,	2.90360E+02,	1.37110E+04,	-4.32365E+04,	0.00000E+00,	0,	0