Z60W Data File: Version 1.1
CorrTest for Windows: SN CS310H1805157  V5.2.1111.9  2.5H6.220118
Sweep Frequency: Control Voltage
  Date:4-27-2026   Time:12:15:16
  Begin Information:            Cell Information
      Surface Area:           1
      Density:                7.8
      Weight:                 28
  End Information:              Cell Information
  Freq (Hz)     Ampl(mV)       Bias(V)      Time(Sec)       Z'(Ohm.cm^2)    Z''(Ohm.cm^2)        GD       Err      Range
End Comments
  3.07200E+05,	1.00000E+01,	-1.71926E-02,	2.32136E-02,	1.14300E+01,	9.56179E+00,	0.00000E+00,	0,	0
  2.76480E+05,	1.00000E+01,	-1.71926E-02,	1.65252E+00,	1.17131E+01,	8.22307E+00,	0.00000E+00,	0,	0
  2.30400E+05,	1.00000E+01,	-1.71926E-02,	2.58668E+00,	1.19341E+01,	6.82476E+00,	0.00000E+00,	0,	0
  1.72800E+05,	1.00000E+01,	-1.71926E-02,	3.49047E+00,	1.21281E+01,	5.10218E+00,	0.00000E+00,	0,	0
  1.53600E+05,	1.00000E+01,	-1.71926E-02,	4.42215E+00,	1.21670E+01,	4.48779E+00,	0.00000E+00,	0,	0
  1.15200E+05,	1.00000E+01,	-1.71926E-02,	5.32622E+00,	1.22845E+01,	3.25826E+00,	0.00000E+00,	0,	0
  9.87429E+04,	1.00000E+01,	-1.71926E-02,	6.21881E+00,	1.23338E+01,	2.73883E+00,	0.00000E+00,	0,	0
  8.13176E+04,	1.00000E+01,	-1.71926E-02,	7.14681E+00,	1.23717E+01,	2.16310E+00,	0.00000E+00,	0,	0
  6.58286E+04,	1.00000E+01,	-1.71926E-02,	8.05048E+00,	1.24187E+01,	1.65624E+00,	0.00000E+00,	0,	0
  5.31692E+04,	1.00000E+01,	-1.71926E-02,	1.02223E+01,	1.24279E+01,	1.16925E+00,	0.00000E+00,	0,	0
  4.60800E+04,	1.00000E+01,	-1.71926E-02,	1.17711E+01,	1.24441E+01,	9.18210E-01,	0.00000E+00,	0,	0
  3.63789E+04,	1.00000E+01,	-1.71926E-02,	1.27023E+01,	1.24760E+01,	5.31286E-01,	0.00000E+00,	0,	0
  3.00522E+04,	1.00000E+01,	-1.71926E-02,	1.35974E+01,	1.25082E+01,	2.73957E-01,	0.00000E+00,	0,	0
  2.46857E+04,	1.00000E+01,	-1.71926E-02,	1.44450E+01,	1.25324E+01,	-1.75046E-02,	0.00000E+00,	0,	0
  2.03294E+04,	1.00000E+01,	-1.71926E-02,	1.53781E+01,	1.25858E+01,	-2.82261E-01,	0.00000E+00,	0,	0
  1.64571E+04,	1.00000E+01,	-1.71926E-02,	1.62700E+01,	1.26332E+01,	-5.51789E-01,	0.00000E+00,	0,	0
  1.35529E+04,	1.00000E+01,	-1.71926E-02,	1.70961E+01,	1.26863E+01,	-8.28405E-01,	0.00000E+00,	0,	0
  1.11484E+04,	1.00000E+01,	-1.71926E-02,	1.79870E+01,	1.27604E+01,	-1.09916E+00,	0.00000E+00,	0,	0
  9.60000E+03,	1.00000E+01,	-1.71926E-02,	2.07983E+01,	1.28405E+01,	-1.33597E+00,	0.00000E+00,	0,	0
  7.85455E+03,	1.00000E+01,	-1.71926E-02,	2.17683E+01,	1.29426E+01,	-1.67376E+00,	0.00000E+00,	0,	0
  6.40000E+03,	1.00000E+01,	-1.71926E-02,	2.27319E+01,	1.30707E+01,	-2.05021E+00,	0.00000E+00,	0,	0
  5.23636E+03,	1.00000E+01,	-1.71926E-02,	2.36918E+01,	1.32265E+01,	-2.45571E+00,	0.00000E+00,	0,	0
  4.32000E+03,	1.00000E+01,	-1.71926E-02,	2.45876E+01,	1.33862E+01,	-2.93126E+00,	0.00000E+00,	0,	0
  3.52653E+03,	1.00000E+01,	-1.71926E-02,	2.56359E+01,	1.36096E+01,	-3.46796E+00,	0.00000E+00,	0,	0
  2.88000E+03,	1.00000E+01,	-1.71926E-02,	2.65598E+01,	1.38364E+01,	-4.08167E+00,	0.00000E+00,	0,	0
  2.36712E+03,	1.00000E+01,	-1.71926E-02,	2.75614E+01,	1.40942E+01,	-4.74661E+00,	0.00000E+00,	0,	0
  1.96364E+03,	1.00000E+01,	-1.71926E-02,	2.83271E+01,	1.43853E+01,	-5.47179E+00,	0.00000E+00,	0,	0
  1.61495E+03,	1.00000E+01,	-1.71926E-02,	2.92321E+01,	1.47881E+01,	-6.36448E+00,	0.00000E+00,	0,	0
  1.32923E+03,	1.00000E+01,	-1.71926E-02,	3.01613E+01,	1.51609E+01,	-7.39947E+00,	0.00000E+00,	0,	0
  1.09367E+03,	1.00000E+01,	-1.71926E-02,	3.12440E+01,	1.56442E+01,	-8.57420E+00,	0.00000E+00,	0,	0
  9.00000E+02,	1.00000E+01,	-1.71926E-02,	3.62361E+01,	1.62195E+01,	-9.95172E+00,	0.00000E+00,	0,	0
  7.44828E+02,	1.00000E+01,	-1.71926E-02,	3.76771E+01,	1.67781E+01,	-1.14819E+01,	0.00000E+00,	0,	0
  6.17143E+02,	1.00000E+01,	-1.71926E-02,	3.90489E+01,	1.73954E+01,	-1.32423E+01,	0.00000E+00,	0,	0
  5.14286E+02,	1.00000E+01,	-1.71926E-02,	4.04264E+01,	1.80618E+01,	-1.52278E+01,	0.00000E+00,	0,	0
  4.15385E+02,	1.00000E+01,	-1.71926E-02,	4.18126E+01,	1.89398E+01,	-1.79705E+01,	0.00000E+00,	0,	0
  3.42857E+02,	1.00000E+01,	-1.71926E-02,	4.41955E+01,	1.98205E+01,	-2.08828E+01,	0.00000E+00,	0,	0
  2.84211E+02,	1.00000E+01,	-1.71926E-02,	4.69139E+01,	2.07847E+01,	-2.42235E+01,	0.00000E+00,	0,	0
  2.32258E+02,	1.00000E+01,	-1.71926E-02,	4.97776E+01,	2.19729E+01,	-2.84923E+01,	0.00000E+00,	0,	0
  1.91150E+02,	1.00000E+01,	-1.71926E-02,	5.29391E+01,	2.32820E+01,	-3.33626E+01,	0.00000E+00,	0,	0
  1.57664E+02,	1.00000E+01,	-1.71926E-02,	5.63713E+01,	2.47457E+01,	-3.90735E+01,	0.00000E+00,	0,	0
  1.30120E+02,	1.00000E+01,	-1.71926E-02,	6.01227E+01,	2.64406E+01,	-4.58208E+01,	0.00000E+00,	0,	0
  1.06931E+02,	1.00000E+01,	-1.71926E-02,	6.42309E+01,	2.84291E+01,	-5.40001E+01,	0.00000E+00,	0,	0
  8.85246E+01,	1.00000E+01,	-1.71926E-02,	6.98248E+01,	3.06534E+01,	-6.33908E+01,	0.00000E+00,	0,	0
  7.29730E+01,	1.00000E+01,	-1.71926E-02,	7.46611E+01,	3.33591E+01,	-7.49289E+01,	0.00000E+00,	0,	0
  6.00000E+01,	1.00000E+01,	-1.71926E-02,	7.99375E+01,	3.67608E+01,	-8.73742E+01,	0.00000E+00,	0,	0
  4.95413E+01,	1.00000E+01,	-1.71926E-02,	8.56780E+01,	4.05774E+01,	-1.02805E+02,	0.00000E+00,	0,	0
  4.06015E+01,	1.00000E+01,	-1.71926E-02,	8.92824E+01,	4.53652E+01,	-1.21780E+02,	0.00000E+00,	0,	0
  3.35404E+01,	1.00000E+01,	-1.71926E-02,	9.30600E+01,	4.99699E+01,	-1.43119E+02,	0.00000E+00,	0,	0
  2.75510E+01,	1.00000E+01,	-1.71926E-02,	9.68823E+01,	5.71245E+01,	-1.69704E+02,	0.00000E+00,	0,	0
  2.26891E+01,	1.00000E+01,	-1.71926E-02,	9.98610E+01,	6.55078E+01,	-2.00278E+02,	0.00000E+00,	0,	0
  1.87500E+01,	1.00000E+01,	-1.71926E-02,	1.03594E+02,	7.55362E+01,	-2.35563E+02,	0.00000E+00,	0,	0
  1.55172E+01,	1.00000E+01,	-1.71926E-02,	1.09133E+02,	8.74617E+01,	-2.76480E+02,	0.00000E+00,	0,	0
  1.28571E+01,	1.00000E+01,	-1.71926E-02,	1.13762E+02,	1.02077E+02,	-3.23735E+02,	0.00000E+00,	0,	0
  1.04651E+01,	1.00000E+01,	-1.71926E-02,	1.16530E+02,	1.21430E+02,	-3.84329E+02,	0.00000E+00,	0,	0
  8.65385E+00,	1.00000E+01,	-1.71926E-02,	1.22345E+02,	1.43589E+02,	-4.50297E+02,	0.00000E+00,	0,	0
  7.14286E+00,	1.00000E+01,	-1.71926E-02,	1.24755E+02,	1.70620E+02,	-5.26619E+02,	0.00000E+00,	0,	0
  5.84416E+00,	1.00000E+01,	-1.71926E-02,	1.27534E+02,	2.04637E+02,	-6.18803E+02,	0.00000E+00,	0,	0
  4.83871E+00,	1.00000E+01,	-1.71926E-02,	1.30737E+02,	2.43432E+02,	-7.18966E+02,	0.00000E+00,	0,	0
  3.98230E+00,	1.00000E+01,	-1.71926E-02,	1.34375E+02,	2.90868E+02,	-8.37037E+02,	0.00000E+00,	0,	0
  3.28467E+00,	1.00000E+01,	-1.71926E-02,	1.38540E+02,	3.46178E+02,	-9.70467E+02,	0.00000E+00,	0,	0
  2.69461E+00,	1.00000E+01,	-1.71926E-02,	1.42458E+02,	4.12168E+02,	-1.12686E+03,	0.00000E+00,	0,	0
  2.22772E+00,	1.00000E+01,	-1.71926E-02,	1.46996E+02,	4.84473E+02,	-1.29856E+03,	0.00000E+00,	0,	0
  1.82927E+00,	1.00000E+01,	-1.71926E-02,	1.52300E+02,	5.68600E+02,	-1.50192E+03,	0.00000E+00,	0,	0
  1.51007E+00,	1.00000E+01,	-1.71926E-02,	1.59236E+02,	6.59012E+02,	-1.72923E+03,	0.00000E+00,	0,	0
  1.24309E+00,	1.00000E+01,	-1.71926E-02,	1.63547E+02,	7.60626E+02,	-1.99540E+03,	0.00000E+00,	0,	0
  1.02273E+00,	1.00000E+01,	-1.71926E-02,	1.67981E+02,	8.73730E+02,	-2.31031E+03,	0.00000E+00,	0,	0
  8.45865E-01,	1.00000E+01,	-1.71926E-02,	1.74820E+02,	9.89820E+02,	-2.66272E+03,	0.00000E+00,	0,	0
  6.94444E-01,	1.00000E+01,	-1.71926E-02,	1.79185E+02,	1.12532E+03,	-3.09757E+03,	0.00000E+00,	0,	0
  5.73980E-01,	1.00000E+01,	-1.71926E-02,	1.83764E+02,	1.22894E+03,	-3.61156E+03,	0.00000E+00,	0,	0
  4.72689E-01,	1.00000E+01,	-1.71926E-02,	1.89161E+02,	1.39205E+03,	-4.21751E+03,	0.00000E+00,	0,	0
  3.90625E-01,	1.00000E+01,	-1.71926E-02,	1.95186E+02,	1.57310E+03,	-4.99044E+03,	0.00000E+00,	0,	0
  3.21429E-01,	1.00000E+01,	-1.71926E-02,	2.02303E+02,	1.78737E+03,	-5.84787E+03,	0.00000E+00,	0,	0
  2.64085E-01,	1.00000E+01,	-1.71926E-02,	2.10953E+02,	2.02832E+03,	-6.87980E+03,	0.00000E+00,	0,	0
  2.18023E-01,	1.00000E+01,	-1.71926E-02,	2.21061E+02,	2.29506E+03,	-8.08562E+03,	0.00000E+00,	0,	0
  1.79426E-01,	1.00000E+01,	-1.71926E-02,	2.33122E+02,	2.62183E+03,	-9.51490E+03,	0.00000E+00,	0,	0
  1.47638E-01,	1.00000E+01,	-1.71926E-02,	2.47604E+02,	2.99456E+03,	-1.12188E+04,	0.00000E+00,	0,	0
  1.21753E-01,	1.00000E+01,	-1.71926E-02,	2.64990E+02,	3.42910E+03,	-1.32210E+04,	0.00000E+00,	0,	0
  1.00446E-01,	1.00000E+01,	-1.71926E-02,	2.85853E+02,	3.93504E+03,	-1.55846E+04,	0.00000E+00,	0,	0