Z60W Data File: Version 1.1
CorrTest for Windows: SN CS310H1805157  V5.2.1111.9  2.5H6.220118
Sweep Frequency: Control Voltage
  Date:4-26-2026   Time:19:29:26
  Begin Information:            Cell Information
      Surface Area:           1
      Density:                7.8
      Weight:                 28
  End Information:              Cell Information
  Freq (Hz)     Ampl(mV)       Bias(V)      Time(Sec)       Z'(Ohm.cm^2)    Z''(Ohm.cm^2)        GD       Err      Range
End Comments
  3.07200E+05,	1.00000E+01,	-9.20805E-03,	2.37667E-02,	5.19490E-01,	3.90100E+00,	0.00000E+00,	0,	0
  2.76480E+05,	1.00000E+01,	-9.20805E-03,	1.65773E+00,	1.06569E+00,	3.17650E+00,	0.00000E+00,	0,	0
  2.30400E+05,	1.00000E+01,	-9.20805E-03,	2.54829E+00,	1.47811E+00,	2.64321E+00,	0.00000E+00,	0,	0
  1.72800E+05,	1.00000E+01,	-9.20805E-03,	3.45906E+00,	1.90566E+00,	1.96519E+00,	0.00000E+00,	0,	0
  1.53600E+05,	1.00000E+01,	-9.20805E-03,	4.40437E+00,	1.99865E+00,	1.72750E+00,	0.00000E+00,	0,	0
  1.15200E+05,	1.00000E+01,	-9.20805E-03,	5.31657E+00,	2.20453E+00,	1.23025E+00,	0.00000E+00,	0,	0
  9.87429E+04,	1.00000E+01,	-9.20805E-03,	6.21321E+00,	2.28399E+00,	1.02210E+00,	0.00000E+00,	0,	0
  8.13176E+04,	1.00000E+01,	-9.20805E-03,	7.14264E+00,	2.34889E+00,	8.00797E-01,	0.00000E+00,	0,	0
  6.58286E+04,	1.00000E+01,	-9.20805E-03,	8.06580E+00,	2.38125E+00,	5.94417E-01,	0.00000E+00,	0,	0
  5.31692E+04,	1.00000E+01,	-9.20805E-03,	1.13416E+01,	2.44160E+00,	3.65658E-01,	0.00000E+00,	0,	0
  4.60800E+04,	1.00000E+01,	-9.20805E-03,	1.29339E+01,	2.45948E+00,	2.56933E-01,	0.00000E+00,	0,	0
  3.63789E+04,	1.00000E+01,	-9.20805E-03,	1.38757E+01,	2.48644E+00,	9.75518E-02,	0.00000E+00,	0,	0
  3.00522E+04,	1.00000E+01,	-9.20805E-03,	1.47401E+01,	2.50568E+00,	-2.39202E-02,	0.00000E+00,	0,	0
  2.46857E+04,	1.00000E+01,	-9.20805E-03,	1.56325E+01,	2.53152E+00,	-1.38391E-01,	0.00000E+00,	0,	0
  2.03294E+04,	1.00000E+01,	-9.20805E-03,	1.65790E+01,	2.55889E+00,	-2.57130E-01,	0.00000E+00,	0,	0
  1.64571E+04,	1.00000E+01,	-9.20805E-03,	1.74987E+01,	2.59242E+00,	-3.86351E-01,	0.00000E+00,	0,	0
  1.35529E+04,	1.00000E+01,	-9.20805E-03,	1.83123E+01,	2.63248E+00,	-5.10876E-01,	0.00000E+00,	0,	0
  1.11484E+04,	1.00000E+01,	-9.20805E-03,	1.92011E+01,	2.67636E+00,	-6.39072E-01,	0.00000E+00,	0,	0
  9.60000E+03,	1.00000E+01,	-9.20805E-03,	2.20294E+01,	2.64720E+00,	-7.37214E-01,	0.00000E+00,	0,	0
  7.85455E+03,	1.00000E+01,	-9.20805E-03,	2.29878E+01,	2.70578E+00,	-8.94423E-01,	0.00000E+00,	0,	0
  6.40000E+03,	1.00000E+01,	-9.20805E-03,	2.39300E+01,	2.77020E+00,	-1.07624E+00,	0.00000E+00,	0,	0
  5.23636E+03,	1.00000E+01,	-9.20805E-03,	2.48704E+01,	2.84108E+00,	-1.27383E+00,	0.00000E+00,	0,	0
  4.32000E+03,	1.00000E+01,	-9.20805E-03,	2.57629E+01,	2.91774E+00,	-1.49183E+00,	0.00000E+00,	0,	0
  3.52653E+03,	1.00000E+01,	-9.20805E-03,	2.67600E+01,	3.00458E+00,	-1.75726E+00,	0.00000E+00,	0,	0
  2.88000E+03,	1.00000E+01,	-9.20805E-03,	2.76848E+01,	3.10491E+00,	-2.06662E+00,	0.00000E+00,	0,	0
  2.36712E+03,	1.00000E+01,	-9.20805E-03,	2.87005E+01,	3.21428E+00,	-2.42227E+00,	0.00000E+00,	0,	0
  1.96364E+03,	1.00000E+01,	-9.20805E-03,	2.94495E+01,	3.33182E+00,	-2.81518E+00,	0.00000E+00,	0,	0
  1.61495E+03,	1.00000E+01,	-9.20805E-03,	3.03496E+01,	3.46477E+00,	-3.29238E+00,	0.00000E+00,	0,	0
  1.32923E+03,	1.00000E+01,	-9.20805E-03,	3.12746E+01,	3.61806E+00,	-3.86337E+00,	0.00000E+00,	0,	0
  1.09367E+03,	1.00000E+01,	-9.20805E-03,	3.23195E+01,	3.79991E+00,	-4.52876E+00,	0.00000E+00,	0,	0
  9.00000E+02,	1.00000E+01,	-9.20805E-03,	3.73147E+01,	4.00989E+00,	-5.33899E+00,	0.00000E+00,	0,	0
  7.44828E+02,	1.00000E+01,	-9.20805E-03,	3.86782E+01,	4.23473E+00,	-6.24896E+00,	0.00000E+00,	0,	0
  6.17143E+02,	1.00000E+01,	-9.20805E-03,	4.00480E+01,	4.49750E+00,	-7.31647E+00,	0.00000E+00,	0,	0
  5.14286E+02,	1.00000E+01,	-9.20805E-03,	4.14151E+01,	4.79472E+00,	-8.52990E+00,	0.00000E+00,	0,	0
  4.15385E+02,	1.00000E+01,	-9.20805E-03,	4.27748E+01,	5.20771E+00,	-1.02215E+01,	0.00000E+00,	0,	0
  3.42857E+02,	1.00000E+01,	-9.20805E-03,	4.51664E+01,	5.64353E+00,	-1.20198E+01,	0.00000E+00,	0,	0
  2.84211E+02,	1.00000E+01,	-9.20805E-03,	4.95748E+01,	6.17722E+00,	-1.41492E+01,	0.00000E+00,	0,	0
  2.32258E+02,	1.00000E+01,	-9.20805E-03,	5.24624E+01,	6.84801E+00,	-1.68050E+01,	0.00000E+00,	0,	0
  1.91150E+02,	1.00000E+01,	-9.20805E-03,	5.56197E+01,	7.62834E+00,	-1.98408E+01,	0.00000E+00,	0,	0
  1.57664E+02,	1.00000E+01,	-9.20805E-03,	5.90301E+01,	8.56573E+00,	-2.33820E+01,	0.00000E+00,	0,	0
  1.30120E+02,	1.00000E+01,	-9.20805E-03,	6.28035E+01,	9.70188E+00,	-2.75401E+01,	0.00000E+00,	0,	0
  1.06931E+02,	1.00000E+01,	-9.20805E-03,	6.68906E+01,	1.11065E+01,	-3.25334E+01,	0.00000E+00,	0,	0
  8.85246E+01,	1.00000E+01,	-9.20805E-03,	7.24967E+01,	1.27541E+01,	-3.82108E+01,	0.00000E+00,	0,	0
  7.29730E+01,	1.00000E+01,	-9.20805E-03,	7.73548E+01,	1.48256E+01,	-4.50891E+01,	0.00000E+00,	0,	0
  6.00000E+01,	1.00000E+01,	-9.20805E-03,	8.26507E+01,	1.75581E+01,	-5.24019E+01,	0.00000E+00,	0,	0
  4.95413E+01,	1.00000E+01,	-9.20805E-03,	8.84250E+01,	2.06739E+01,	-6.12726E+01,	0.00000E+00,	0,	0
  4.06015E+01,	1.00000E+01,	-9.20805E-03,	9.20332E+01,	2.45975E+01,	-7.19376E+01,	0.00000E+00,	0,	0
  3.35404E+01,	1.00000E+01,	-9.20805E-03,	9.57993E+01,	2.86152E+01,	-8.36048E+01,	0.00000E+00,	0,	0
  2.75510E+01,	1.00000E+01,	-9.20805E-03,	9.96146E+01,	3.43390E+01,	-9.77890E+01,	0.00000E+00,	0,	0
  2.26891E+01,	1.00000E+01,	-9.20805E-03,	1.02604E+02,	4.08895E+01,	-1.13587E+02,	0.00000E+00,	0,	0
  1.87500E+01,	1.00000E+01,	-9.20805E-03,	1.06301E+02,	4.83369E+01,	-1.31289E+02,	0.00000E+00,	0,	0
  1.55172E+01,	1.00000E+01,	-9.20805E-03,	1.11845E+02,	5.66660E+01,	-1.51273E+02,	0.00000E+00,	0,	0
  1.28571E+01,	1.00000E+01,	-9.20805E-03,	1.16475E+02,	6.59876E+01,	-1.73919E+02,	0.00000E+00,	0,	0
  1.04651E+01,	1.00000E+01,	-9.20805E-03,	1.19172E+02,	7.71929E+01,	-2.02477E+02,	0.00000E+00,	0,	0
  8.65385E+00,	1.00000E+01,	-9.20805E-03,	1.25023E+02,	8.89144E+01,	-2.33673E+02,	0.00000E+00,	0,	0
  7.14286E+00,	1.00000E+01,	-9.20805E-03,	1.27433E+02,	1.01645E+02,	-2.69685E+02,	0.00000E+00,	0,	0
  5.84416E+00,	1.00000E+01,	-9.20805E-03,	1.30180E+02,	1.16253E+02,	-3.14208E+02,	0.00000E+00,	0,	0
  4.83871E+00,	1.00000E+01,	-9.20805E-03,	1.33312E+02,	1.31363E+02,	-3.63529E+02,	0.00000E+00,	0,	0
  3.98230E+00,	1.00000E+01,	-9.20805E-03,	1.36965E+02,	1.48693E+02,	-4.23577E+02,	0.00000E+00,	0,	0
  3.28467E+00,	1.00000E+01,	-9.20805E-03,	1.41109E+02,	1.67884E+02,	-4.93970E+02,	0.00000E+00,	0,	0
  2.69461E+00,	1.00000E+01,	-9.20805E-03,	1.44981E+02,	1.90357E+02,	-5.79762E+02,	0.00000E+00,	0,	0
  2.22772E+00,	1.00000E+01,	-9.20805E-03,	1.49480E+02,	2.14979E+02,	-6.77691E+02,	0.00000E+00,	0,	0
  1.82927E+00,	1.00000E+01,	-9.20805E-03,	1.54787E+02,	2.44581E+02,	-7.98082E+02,	0.00000E+00,	0,	0
  1.51007E+00,	1.00000E+01,	-9.20805E-03,	1.58638E+02,	2.78448E+02,	-9.37291E+02,	0.00000E+00,	0,	0
  1.24309E+00,	1.00000E+01,	-9.20805E-03,	1.62989E+02,	3.18537E+02,	-1.10435E+03,	0.00000E+00,	0,	0
  1.02273E+00,	1.00000E+01,	-9.20805E-03,	1.67462E+02,	3.66941E+02,	-1.30400E+03,	0.00000E+00,	0,	0
  8.45865E-01,	1.00000E+01,	-9.20805E-03,	1.74310E+02,	4.22176E+02,	-1.53173E+03,	0.00000E+00,	0,	0
  6.94444E-01,	1.00000E+01,	-9.20805E-03,	1.78716E+02,	4.91955E+02,	-1.81309E+03,	0.00000E+00,	0,	0
  5.73980E-01,	1.00000E+01,	-9.20805E-03,	1.83313E+02,	5.59475E+02,	-2.13853E+03,	0.00000E+00,	0,	0
  4.72689E-01,	1.00000E+01,	-9.20805E-03,	1.88696E+02,	6.59669E+02,	-2.52873E+03,	0.00000E+00,	0,	0
  3.90625E-01,	1.00000E+01,	-9.20805E-03,	1.94755E+02,	7.79745E+02,	-3.00572E+03,	0.00000E+00,	0,	0
  3.21429E-01,	1.00000E+01,	-9.20805E-03,	2.01883E+02,	9.37390E+02,	-3.55357E+03,	0.00000E+00,	0,	0
  2.64085E-01,	1.00000E+01,	-9.20805E-03,	2.19328E+02,	1.14666E+03,	-4.16329E+03,	0.00000E+00,	0,	0
  2.18023E-01,	1.00000E+01,	-9.20805E-03,	2.29403E+02,	1.36272E+03,	-4.97702E+03,	0.00000E+00,	0,	0
  1.79426E-01,	1.00000E+01,	-9.20805E-03,	2.41469E+02,	1.69978E+03,	-5.83506E+03,	0.00000E+00,	0,	0
  1.47638E-01,	1.00000E+01,	-9.20805E-03,	2.55934E+02,	2.11054E+03,	-6.86247E+03,	0.00000E+00,	0,	0
  1.21753E-01,	1.00000E+01,	-9.20805E-03,	2.73305E+02,	2.63002E+03,	-8.03200E+03,	0.00000E+00,	0,	0
  1.00446E-01,	1.00000E+01,	-9.20805E-03,	2.94166E+02,	3.29051E+03,	-9.36210E+03,	0.00000E+00,	0,	0