Z60W Data File: Version 1.1
CorrTest for Windows: SN CS310H1805157  V5.2.1111.9  2.5H6.220118
Sweep Frequency: Control Voltage
  Date:4-27-2026   Time:09:53:41
  Begin Information:            Cell Information
      Surface Area:           1
      Density:                7.8
      Weight:                 28
  End Information:              Cell Information
  Freq (Hz)     Ampl(mV)       Bias(V)      Time(Sec)       Z'(Ohm.cm^2)    Z''(Ohm.cm^2)        GD       Err      Range
End Comments
  3.07200E+05,	1.00000E+01,	-1.76304E-02,	7.01710E-02,	5.37289E+00,	6.50765E+00,	0.00000E+00,	0,	0
  2.76480E+05,	1.00000E+01,	-1.76304E-02,	1.66726E+00,	5.82660E+00,	5.49511E+00,	0.00000E+00,	0,	0
  2.30400E+05,	1.00000E+01,	-1.76304E-02,	2.55630E+00,	6.18438E+00,	4.56752E+00,	0.00000E+00,	0,	0
  1.72800E+05,	1.00000E+01,	-1.76304E-02,	3.44822E+00,	6.48495E+00,	3.38488E+00,	0.00000E+00,	0,	0
  1.53600E+05,	1.00000E+01,	-1.76304E-02,	4.37891E+00,	6.57377E+00,	2.98693E+00,	0.00000E+00,	0,	0
  1.15200E+05,	1.00000E+01,	-1.76304E-02,	5.27531E+00,	6.73755E+00,	2.14291E+00,	0.00000E+00,	0,	0
  9.87429E+04,	1.00000E+01,	-1.76304E-02,	6.17243E+00,	6.80664E+00,	1.79695E+00,	0.00000E+00,	0,	0
  8.13176E+04,	1.00000E+01,	-1.76304E-02,	7.10089E+00,	6.86349E+00,	1.41427E+00,	0.00000E+00,	0,	0
  6.58286E+04,	1.00000E+01,	-1.76304E-02,	8.05171E+00,	6.90393E+00,	1.04541E+00,	0.00000E+00,	0,	0
  5.31692E+04,	1.00000E+01,	-1.76304E-02,	1.01970E+01,	6.92386E+00,	7.07083E-01,	0.00000E+00,	0,	0
  4.60800E+04,	1.00000E+01,	-1.76304E-02,	1.17498E+01,	6.95241E+00,	5.30688E-01,	0.00000E+00,	0,	0
  3.63789E+04,	1.00000E+01,	-1.76304E-02,	1.26798E+01,	6.97907E+00,	2.58525E-01,	0.00000E+00,	0,	0
  3.00522E+04,	1.00000E+01,	-1.76304E-02,	1.35230E+01,	6.99963E+00,	4.88968E-02,	0.00000E+00,	0,	0
  2.46857E+04,	1.00000E+01,	-1.76304E-02,	1.43915E+01,	7.03696E+00,	-1.46689E-01,	0.00000E+00,	0,	0
  2.03294E+04,	1.00000E+01,	-1.76304E-02,	1.53393E+01,	7.07497E+00,	-3.46798E-01,	0.00000E+00,	0,	0
  1.64571E+04,	1.00000E+01,	-1.76304E-02,	1.62422E+01,	7.11268E+00,	-5.63869E-01,	0.00000E+00,	0,	0
  1.35529E+04,	1.00000E+01,	-1.76304E-02,	1.70409E+01,	7.17728E+00,	-7.75949E-01,	0.00000E+00,	0,	0
  1.11484E+04,	1.00000E+01,	-1.76304E-02,	1.79362E+01,	7.24617E+00,	-1.00077E+00,	0.00000E+00,	0,	0
  9.60000E+03,	1.00000E+01,	-1.76304E-02,	1.95952E+01,	7.30222E+00,	-1.18522E+00,	0.00000E+00,	0,	0
  7.85455E+03,	1.00000E+01,	-1.76304E-02,	2.05854E+01,	7.39847E+00,	-1.45211E+00,	0.00000E+00,	0,	0
  6.40000E+03,	1.00000E+01,	-1.76304E-02,	2.15482E+01,	7.51258E+00,	-1.75977E+00,	0.00000E+00,	0,	0
  5.23636E+03,	1.00000E+01,	-1.76304E-02,	2.25304E+01,	7.63819E+00,	-2.09812E+00,	0.00000E+00,	0,	0
  4.32000E+03,	1.00000E+01,	-1.76304E-02,	2.34313E+01,	7.78617E+00,	-2.45401E+00,	0.00000E+00,	0,	0
  3.52653E+03,	1.00000E+01,	-1.76304E-02,	2.44728E+01,	7.95267E+00,	-2.88596E+00,	0.00000E+00,	0,	0
  2.88000E+03,	1.00000E+01,	-1.76304E-02,	2.53672E+01,	8.15860E+00,	-3.38066E+00,	0.00000E+00,	0,	0
  2.36712E+03,	1.00000E+01,	-1.76304E-02,	2.63665E+01,	8.36160E+00,	-3.92334E+00,	0.00000E+00,	0,	0
  1.96364E+03,	1.00000E+01,	-1.76304E-02,	2.71118E+01,	8.62387E+00,	-4.53285E+00,	0.00000E+00,	0,	0
  1.61495E+03,	1.00000E+01,	-1.76304E-02,	2.80108E+01,	8.89433E+00,	-5.26154E+00,	0.00000E+00,	0,	0
  1.32923E+03,	1.00000E+01,	-1.76304E-02,	2.89639E+01,	9.19361E+00,	-6.09879E+00,	0.00000E+00,	0,	0
  1.09367E+03,	1.00000E+01,	-1.76304E-02,	3.00221E+01,	9.55008E+00,	-7.07150E+00,	0.00000E+00,	0,	0
  9.00000E+02,	1.00000E+01,	-1.76304E-02,	3.50278E+01,	9.95019E+00,	-8.23658E+00,	0.00000E+00,	0,	0
  7.44828E+02,	1.00000E+01,	-1.76304E-02,	3.64198E+01,	1.03659E+01,	-9.53638E+00,	0.00000E+00,	0,	0
  6.17143E+02,	1.00000E+01,	-1.76304E-02,	3.77889E+01,	1.08228E+01,	-1.10564E+01,	0.00000E+00,	0,	0
  5.14286E+02,	1.00000E+01,	-1.76304E-02,	3.91619E+01,	1.13252E+01,	-1.27734E+01,	0.00000E+00,	0,	0
  4.15385E+02,	1.00000E+01,	-1.76304E-02,	4.05227E+01,	1.19864E+01,	-1.51649E+01,	0.00000E+00,	0,	0
  3.42857E+02,	1.00000E+01,	-1.76304E-02,	4.29291E+01,	1.26673E+01,	-1.77089E+01,	0.00000E+00,	0,	0
  2.84211E+02,	1.00000E+01,	-1.76304E-02,	4.73440E+01,	1.34684E+01,	-2.07132E+01,	0.00000E+00,	0,	0
  2.32258E+02,	1.00000E+01,	-1.76304E-02,	5.02106E+01,	1.44135E+01,	-2.44725E+01,	0.00000E+00,	0,	0
  1.91150E+02,	1.00000E+01,	-1.76304E-02,	5.33145E+01,	1.54778E+01,	-2.87912E+01,	0.00000E+00,	0,	0
  1.57664E+02,	1.00000E+01,	-1.76304E-02,	5.67517E+01,	1.67054E+01,	-3.38471E+01,	0.00000E+00,	0,	0
  1.30120E+02,	1.00000E+01,	-1.76304E-02,	6.04843E+01,	1.81412E+01,	-3.98265E+01,	0.00000E+00,	0,	0
  1.06931E+02,	1.00000E+01,	-1.76304E-02,	6.45833E+01,	1.98624E+01,	-4.70721E+01,	0.00000E+00,	0,	0
  8.85246E+01,	1.00000E+01,	-1.76304E-02,	7.01821E+01,	2.18271E+01,	-5.53811E+01,	0.00000E+00,	0,	0
  7.29730E+01,	1.00000E+01,	-1.76304E-02,	7.50275E+01,	2.42486E+01,	-6.55741E+01,	0.00000E+00,	0,	0
  6.00000E+01,	1.00000E+01,	-1.76304E-02,	8.02801E+01,	2.74135E+01,	-7.65975E+01,	0.00000E+00,	0,	0
  4.95413E+01,	1.00000E+01,	-1.76304E-02,	8.60281E+01,	3.09912E+01,	-9.01660E+01,	0.00000E+00,	0,	0
  4.06015E+01,	1.00000E+01,	-1.76304E-02,	8.96352E+01,	3.55042E+01,	-1.06804E+02,	0.00000E+00,	0,	0
  3.35404E+01,	1.00000E+01,	-1.76304E-02,	9.34020E+01,	4.00392E+01,	-1.25418E+02,	0.00000E+00,	0,	0
  2.75510E+01,	1.00000E+01,	-1.76304E-02,	9.72126E+01,	4.69083E+01,	-1.48528E+02,	0.00000E+00,	0,	0
  2.26891E+01,	1.00000E+01,	-1.76304E-02,	1.00171E+02,	5.50874E+01,	-1.74918E+02,	0.00000E+00,	0,	0
  1.87500E+01,	1.00000E+01,	-1.76304E-02,	1.03856E+02,	6.49095E+01,	-2.05166E+02,	0.00000E+00,	0,	0
  1.55172E+01,	1.00000E+01,	-1.76304E-02,	1.09400E+02,	7.66129E+01,	-2.39900E+02,	0.00000E+00,	0,	0
  1.28571E+01,	1.00000E+01,	-1.76304E-02,	1.14059E+02,	9.08267E+01,	-2.79664E+02,	0.00000E+00,	0,	0
  1.04651E+01,	1.00000E+01,	-1.76304E-02,	1.16828E+02,	1.09502E+02,	-3.30016E+02,	0.00000E+00,	0,	0
  8.65385E+00,	1.00000E+01,	-1.76304E-02,	1.22635E+02,	1.30687E+02,	-3.84252E+02,	0.00000E+00,	0,	0
  7.14286E+00,	1.00000E+01,	-1.76304E-02,	1.25029E+02,	1.55750E+02,	-4.46254E+02,	0.00000E+00,	0,	0
  5.84416E+00,	1.00000E+01,	-1.76304E-02,	1.27756E+02,	1.86618E+02,	-5.20412E+02,	0.00000E+00,	0,	0
  4.83871E+00,	1.00000E+01,	-1.76304E-02,	1.30893E+02,	2.20214E+02,	-6.00001E+02,	0.00000E+00,	0,	0
  3.98230E+00,	1.00000E+01,	-1.76304E-02,	1.34521E+02,	2.59634E+02,	-6.93621E+02,	0.00000E+00,	0,	0
  3.28467E+00,	1.00000E+01,	-1.76304E-02,	1.38685E+02,	3.03430E+02,	-7.99812E+02,	0.00000E+00,	0,	0
  2.69461E+00,	1.00000E+01,	-1.76304E-02,	1.42613E+02,	3.53258E+02,	-9.25249E+02,	0.00000E+00,	0,	0
  2.22772E+00,	1.00000E+01,	-1.76304E-02,	1.47183E+02,	4.05671E+02,	-1.06518E+03,	0.00000E+00,	0,	0
  1.82927E+00,	1.00000E+01,	-1.76304E-02,	1.52488E+02,	4.65040E+02,	-1.23438E+03,	0.00000E+00,	0,	0
  1.51007E+00,	1.00000E+01,	-1.76304E-02,	1.59433E+02,	5.28082E+02,	-1.42688E+03,	0.00000E+00,	0,	0
  1.24309E+00,	1.00000E+01,	-1.76304E-02,	1.63746E+02,	5.98766E+02,	-1.65683E+03,	0.00000E+00,	0,	0
  1.02273E+00,	1.00000E+01,	-1.76304E-02,	1.68176E+02,	6.78126E+02,	-1.93180E+03,	0.00000E+00,	0,	0
  8.45865E-01,	1.00000E+01,	-1.76304E-02,	1.74985E+02,	7.62211E+02,	-2.24513E+03,	0.00000E+00,	0,	0
  6.94444E-01,	1.00000E+01,	-1.76304E-02,	1.79389E+02,	8.62240E+02,	-2.63373E+03,	0.00000E+00,	0,	0
  5.73980E-01,	1.00000E+01,	-1.76304E-02,	1.83998E+02,	9.44232E+02,	-3.08888E+03,	0.00000E+00,	0,	0
  4.72689E-01,	1.00000E+01,	-1.76304E-02,	1.89340E+02,	1.07251E+03,	-3.63096E+03,	0.00000E+00,	0,	0
  3.90625E-01,	1.00000E+01,	-1.76304E-02,	1.95365E+02,	1.21656E+03,	-4.31354E+03,	0.00000E+00,	0,	0
  3.21429E-01,	1.00000E+01,	-1.76304E-02,	2.02505E+02,	1.39351E+03,	-5.08118E+03,	0.00000E+00,	0,	0
  2.64085E-01,	1.00000E+01,	-1.76304E-02,	2.11182E+02,	1.59896E+03,	-6.00478E+03,	0.00000E+00,	0,	0
  2.18023E-01,	1.00000E+01,	-1.76304E-02,	2.21280E+02,	1.82940E+03,	-7.08129E+03,	0.00000E+00,	0,	0
  1.79426E-01,	1.00000E+01,	-1.76304E-02,	2.33362E+02,	2.11781E+03,	-8.35927E+03,	0.00000E+00,	0,	0
  1.47638E-01,	1.00000E+01,	-1.76304E-02,	2.47888E+02,	2.45568E+03,	-9.88734E+03,	0.00000E+00,	0,	0
  1.21753E-01,	1.00000E+01,	-1.76304E-02,	2.65264E+02,	2.85705E+03,	-1.16791E+04,	0.00000E+00,	0,	0
  1.00446E-01,	1.00000E+01,	-1.76304E-02,	2.86196E+02,	3.34060E+03,	-1.37967E+04,	0.00000E+00,	0,	0