Z60W Data File: Version 1.1
CorrTest for Windows: SN CS310H1805157  V5.2.1111.9  2.5H6.220118
Sweep Frequency: Control Voltage
  Date:4-27-2026   Time:12:54:06
  Begin Information:            Cell Information
      Surface Area:           1
      Density:                7.8
      Weight:                 28
  End Information:              Cell Information
  Freq (Hz)     Ampl(mV)       Bias(V)      Time(Sec)       Z'(Ohm.cm^2)    Z''(Ohm.cm^2)        GD       Err      Range
End Comments
  3.07200E+05,	1.00000E+01,	-1.71869E-02,	4.51468E-02,	1.52308E+01,	1.13860E+01,	0.00000E+00,	0,	0
  2.76480E+05,	1.00000E+01,	-1.71869E-02,	1.64436E+00,	1.53381E+01,	9.82201E+00,	0.00000E+00,	0,	0
  2.30400E+05,	1.00000E+01,	-1.71869E-02,	2.53182E+00,	1.55194E+01,	8.17995E+00,	0.00000E+00,	0,	0
  1.72800E+05,	1.00000E+01,	-1.71869E-02,	3.47659E+00,	1.56233E+01,	6.07376E+00,	0.00000E+00,	0,	0
  1.53600E+05,	1.00000E+01,	-1.71869E-02,	4.36552E+00,	1.56146E+01,	5.37653E+00,	0.00000E+00,	0,	0
  1.15200E+05,	1.00000E+01,	-1.71869E-02,	5.26470E+00,	1.56934E+01,	3.91556E+00,	0.00000E+00,	0,	0
  9.87429E+04,	1.00000E+01,	-1.71869E-02,	6.15114E+00,	1.57317E+01,	3.28638E+00,	0.00000E+00,	0,	0
  8.13176E+04,	1.00000E+01,	-1.71869E-02,	7.06509E+00,	1.57641E+01,	2.60391E+00,	0.00000E+00,	0,	0
  6.58286E+04,	1.00000E+01,	-1.71869E-02,	7.97250E+00,	1.57882E+01,	1.99389E+00,	0.00000E+00,	0,	0
  5.31692E+04,	1.00000E+01,	-1.71869E-02,	1.00975E+01,	1.57953E+01,	1.44116E+00,	0.00000E+00,	0,	0
  4.60800E+04,	1.00000E+01,	-1.71869E-02,	1.16568E+01,	1.58193E+01,	1.14027E+00,	0.00000E+00,	0,	0
  3.63789E+04,	1.00000E+01,	-1.71869E-02,	1.25930E+01,	1.58508E+01,	7.24407E-01,	0.00000E+00,	0,	0
  3.00522E+04,	1.00000E+01,	-1.71869E-02,	1.34631E+01,	1.58730E+01,	3.84960E-01,	0.00000E+00,	0,	0
  2.46857E+04,	1.00000E+01,	-1.71869E-02,	1.43727E+01,	1.59042E+01,	9.59581E-02,	0.00000E+00,	0,	0
  2.03294E+04,	1.00000E+01,	-1.71869E-02,	1.53286E+01,	1.59242E+01,	-2.12485E-01,	0.00000E+00,	0,	0
  1.64571E+04,	1.00000E+01,	-1.71869E-02,	1.62353E+01,	1.59812E+01,	-5.05162E-01,	0.00000E+00,	0,	0
  1.35529E+04,	1.00000E+01,	-1.71869E-02,	1.70544E+01,	1.60415E+01,	-8.11844E-01,	0.00000E+00,	0,	0
  1.11484E+04,	1.00000E+01,	-1.71869E-02,	1.79642E+01,	1.61143E+01,	-1.12560E+00,	0.00000E+00,	0,	0
  9.60000E+03,	1.00000E+01,	-1.71869E-02,	2.07725E+01,	1.61952E+01,	-1.37505E+00,	0.00000E+00,	0,	0
  7.85455E+03,	1.00000E+01,	-1.71869E-02,	2.17302E+01,	1.62913E+01,	-1.74335E+00,	0.00000E+00,	0,	0
  6.40000E+03,	1.00000E+01,	-1.71869E-02,	2.26882E+01,	1.64157E+01,	-2.15326E+00,	0.00000E+00,	0,	0
  5.23636E+03,	1.00000E+01,	-1.71869E-02,	2.36251E+01,	1.65786E+01,	-2.58987E+00,	0.00000E+00,	0,	0
  4.32000E+03,	1.00000E+01,	-1.71869E-02,	2.45258E+01,	1.67309E+01,	-3.10510E+00,	0.00000E+00,	0,	0
  3.52653E+03,	1.00000E+01,	-1.71869E-02,	2.55364E+01,	1.69743E+01,	-3.68871E+00,	0.00000E+00,	0,	0
  2.88000E+03,	1.00000E+01,	-1.71869E-02,	2.64584E+01,	1.72310E+01,	-4.35509E+00,	0.00000E+00,	0,	0
  2.36712E+03,	1.00000E+01,	-1.71869E-02,	2.74565E+01,	1.75050E+01,	-5.10740E+00,	0.00000E+00,	0,	0
  1.96364E+03,	1.00000E+01,	-1.71869E-02,	2.82212E+01,	1.78374E+01,	-5.89218E+00,	0.00000E+00,	0,	0
  1.61495E+03,	1.00000E+01,	-1.71869E-02,	2.91501E+01,	1.82541E+01,	-6.85824E+00,	0.00000E+00,	0,	0
  1.32923E+03,	1.00000E+01,	-1.71869E-02,	3.01372E+01,	1.86743E+01,	-7.97854E+00,	0.00000E+00,	0,	0
  1.09367E+03,	1.00000E+01,	-1.71869E-02,	3.11746E+01,	1.91807E+01,	-9.20047E+00,	0.00000E+00,	0,	0
  9.00000E+02,	1.00000E+01,	-1.71869E-02,	3.61817E+01,	1.98114E+01,	-1.06902E+01,	0.00000E+00,	0,	0
  7.44828E+02,	1.00000E+01,	-1.71869E-02,	3.75570E+01,	2.04280E+01,	-1.23286E+01,	0.00000E+00,	0,	0
  6.17143E+02,	1.00000E+01,	-1.71869E-02,	3.89150E+01,	2.11164E+01,	-1.42090E+01,	0.00000E+00,	0,	0
  5.14286E+02,	1.00000E+01,	-1.71869E-02,	4.03068E+01,	2.18568E+01,	-1.63068E+01,	0.00000E+00,	0,	0
  4.15385E+02,	1.00000E+01,	-1.71869E-02,	4.16749E+01,	2.28322E+01,	-1.92086E+01,	0.00000E+00,	0,	0
  3.42857E+02,	1.00000E+01,	-1.71869E-02,	4.40588E+01,	2.38093E+01,	-2.22734E+01,	0.00000E+00,	0,	0
  2.84211E+02,	1.00000E+01,	-1.71869E-02,	4.67336E+01,	2.48792E+01,	-2.57911E+01,	0.00000E+00,	0,	0
  2.32258E+02,	1.00000E+01,	-1.71869E-02,	4.95958E+01,	2.61835E+01,	-3.02669E+01,	0.00000E+00,	0,	0
  1.91150E+02,	1.00000E+01,	-1.71869E-02,	5.27192E+01,	2.76030E+01,	-3.53636E+01,	0.00000E+00,	0,	0
  1.57664E+02,	1.00000E+01,	-1.71869E-02,	5.61741E+01,	2.91894E+01,	-4.13344E+01,	0.00000E+00,	0,	0
  1.30120E+02,	1.00000E+01,	-1.71869E-02,	5.99115E+01,	3.10083E+01,	-4.83825E+01,	0.00000E+00,	0,	0
  1.06931E+02,	1.00000E+01,	-1.71869E-02,	6.39766E+01,	3.31277E+01,	-5.69291E+01,	0.00000E+00,	0,	0
  8.85246E+01,	1.00000E+01,	-1.71869E-02,	6.95584E+01,	3.54779E+01,	-6.67159E+01,	0.00000E+00,	0,	0
  7.29730E+01,	1.00000E+01,	-1.71869E-02,	7.44326E+01,	3.83276E+01,	-7.87594E+01,	0.00000E+00,	0,	0
  6.00000E+01,	1.00000E+01,	-1.71869E-02,	7.97260E+01,	4.18409E+01,	-9.17259E+01,	0.00000E+00,	0,	0
  4.95413E+01,	1.00000E+01,	-1.71869E-02,	8.83462E+01,	4.58839E+01,	-1.08041E+02,	0.00000E+00,	0,	0
  4.06015E+01,	1.00000E+01,	-1.71869E-02,	9.19574E+01,	5.08027E+01,	-1.27916E+02,	0.00000E+00,	0,	0
  3.35404E+01,	1.00000E+01,	-1.71869E-02,	9.57666E+01,	5.55143E+01,	-1.50250E+02,	0.00000E+00,	0,	0
  2.75510E+01,	1.00000E+01,	-1.71869E-02,	9.96510E+01,	6.28131E+01,	-1.78143E+02,	0.00000E+00,	0,	0
  2.26891E+01,	1.00000E+01,	-1.71869E-02,	1.02604E+02,	7.13301E+01,	-2.10264E+02,	0.00000E+00,	0,	0
  1.87500E+01,	1.00000E+01,	-1.71869E-02,	1.06318E+02,	8.14589E+01,	-2.47369E+02,	0.00000E+00,	0,	0
  1.55172E+01,	1.00000E+01,	-1.71869E-02,	1.11844E+02,	9.34971E+01,	-2.90486E+02,	0.00000E+00,	0,	0
  1.28571E+01,	1.00000E+01,	-1.71869E-02,	1.16475E+02,	1.08115E+02,	-3.40472E+02,	0.00000E+00,	0,	0
  1.04651E+01,	1.00000E+01,	-1.71869E-02,	1.19204E+02,	1.27411E+02,	-4.04614E+02,	0.00000E+00,	0,	0
  8.65385E+00,	1.00000E+01,	-1.71869E-02,	1.23460E+02,	1.49590E+02,	-4.74158E+02,	0.00000E+00,	0,	0
  7.14286E+00,	1.00000E+01,	-1.71869E-02,	1.25876E+02,	1.76727E+02,	-5.55480E+02,	0.00000E+00,	0,	0
  5.84416E+00,	1.00000E+01,	-1.71869E-02,	1.28610E+02,	2.11424E+02,	-6.54465E+02,	0.00000E+00,	0,	0
  4.83871E+00,	1.00000E+01,	-1.71869E-02,	1.31760E+02,	2.51060E+02,	-7.61871E+02,	0.00000E+00,	0,	0
  3.98230E+00,	1.00000E+01,	-1.71869E-02,	1.35351E+02,	3.00118E+02,	-8.89665E+02,	0.00000E+00,	0,	0
  3.28467E+00,	1.00000E+01,	-1.71869E-02,	1.39504E+02,	3.57847E+02,	-1.03409E+03,	0.00000E+00,	0,	0
  2.69461E+00,	1.00000E+01,	-1.71869E-02,	1.43396E+02,	4.28186E+02,	-1.20376E+03,	0.00000E+00,	0,	0
  2.22772E+00,	1.00000E+01,	-1.71869E-02,	1.47892E+02,	5.06454E+02,	-1.39017E+03,	0.00000E+00,	0,	0
  1.82927E+00,	1.00000E+01,	-1.71869E-02,	1.53198E+02,	5.98931E+02,	-1.61022E+03,	0.00000E+00,	0,	0
  1.51007E+00,	1.00000E+01,	-1.71869E-02,	1.60181E+02,	7.00398E+02,	-1.85379E+03,	0.00000E+00,	0,	0
  1.24309E+00,	1.00000E+01,	-1.71869E-02,	1.64504E+02,	8.15139E+02,	-2.13776E+03,	0.00000E+00,	0,	0
  1.02273E+00,	1.00000E+01,	-1.71869E-02,	1.68945E+02,	9.43978E+02,	-2.47100E+03,	0.00000E+00,	0,	0
  8.45865E-01,	1.00000E+01,	-1.71869E-02,	1.75770E+02,	1.07550E+03,	-2.84051E+03,	0.00000E+00,	0,	0
  6.94444E-01,	1.00000E+01,	-1.71869E-02,	1.80148E+02,	1.22962E+03,	-3.29494E+03,	0.00000E+00,	0,	0
  5.73980E-01,	1.00000E+01,	-1.71869E-02,	1.84715E+02,	1.34549E+03,	-3.83271E+03,	0.00000E+00,	0,	0
  4.72689E-01,	1.00000E+01,	-1.71869E-02,	1.90067E+02,	1.52692E+03,	-4.46154E+03,	0.00000E+00,	0,	0
  3.90625E-01,	1.00000E+01,	-1.71869E-02,	1.96087E+02,	1.72719E+03,	-5.26708E+03,	0.00000E+00,	0,	0
  3.21429E-01,	1.00000E+01,	-1.71869E-02,	2.03224E+02,	1.95965E+03,	-6.15446E+03,	0.00000E+00,	0,	0
  2.64085E-01,	1.00000E+01,	-1.71869E-02,	2.11931E+02,	2.21881E+03,	-7.22388E+03,	0.00000E+00,	0,	0
  2.18023E-01,	1.00000E+01,	-1.71869E-02,	2.22027E+02,	2.50357E+03,	-8.47526E+03,	0.00000E+00,	0,	0
  1.79426E-01,	1.00000E+01,	-1.71869E-02,	2.34104E+02,	2.84707E+03,	-9.94994E+03,	0.00000E+00,	0,	0
  1.47638E-01,	1.00000E+01,	-1.71869E-02,	2.48612E+02,	3.23966E+03,	-1.17146E+04,	0.00000E+00,	0,	0
  1.21753E-01,	1.00000E+01,	-1.71869E-02,	2.65993E+02,	3.69067E+03,	-1.37836E+04,	0.00000E+00,	0,	0
  1.00446E-01,	1.00000E+01,	-1.71869E-02,	2.86848E+02,	4.21868E+03,	-1.62269E+04,	0.00000E+00,	0,	0