Z60W Data File: Version 1.1
CorrTest for Windows: SN CS310H1805157  V5.2.1111.9  2.5H6.220118
Sweep Frequency: Control Voltage
  Date:4-27-2026   Time:09:22:01
  Begin Information:            Cell Information
      Surface Area:           1
      Density:                7.8
      Weight:                 28
  End Information:              Cell Information
  Freq (Hz)     Ampl(mV)       Bias(V)      Time(Sec)       Z'(Ohm.cm^2)    Z''(Ohm.cm^2)        GD       Err      Range
End Comments
  3.07200E+05,	1.00000E+01,	-1.77082E-02,	4.99564E-02,	4.41103E+00,	6.00227E+00,	0.00000E+00,	0,	0
  2.76480E+05,	1.00000E+01,	-1.77082E-02,	1.64339E+00,	4.83925E+00,	4.96936E+00,	0.00000E+00,	0,	0
  2.30400E+05,	1.00000E+01,	-1.77082E-02,	2.54325E+00,	5.19765E+00,	4.18476E+00,	0.00000E+00,	0,	0
  1.72800E+05,	1.00000E+01,	-1.77082E-02,	3.43948E+00,	5.55235E+00,	3.11241E+00,	0.00000E+00,	0,	0
  1.53600E+05,	1.00000E+01,	-1.77082E-02,	4.32732E+00,	5.63192E+00,	2.72805E+00,	0.00000E+00,	0,	0
  1.15200E+05,	1.00000E+01,	-1.77082E-02,	5.22152E+00,	5.79332E+00,	1.95610E+00,	0.00000E+00,	0,	0
  9.87429E+04,	1.00000E+01,	-1.77082E-02,	6.10365E+00,	5.86703E+00,	1.62341E+00,	0.00000E+00,	0,	0
  8.13176E+04,	1.00000E+01,	-1.77082E-02,	7.01475E+00,	5.92388E+00,	1.27899E+00,	0.00000E+00,	0,	0
  6.58286E+04,	1.00000E+01,	-1.77082E-02,	7.90871E+00,	5.97253E+00,	9.52777E-01,	0.00000E+00,	0,	0
  5.31692E+04,	1.00000E+01,	-1.77082E-02,	1.00725E+01,	5.99193E+00,	6.31096E-01,	0.00000E+00,	0,	0
  4.60800E+04,	1.00000E+01,	-1.77082E-02,	1.16253E+01,	6.00529E+00,	4.60727E-01,	0.00000E+00,	0,	0
  3.63789E+04,	1.00000E+01,	-1.77082E-02,	1.25675E+01,	6.04333E+00,	2.07573E-01,	0.00000E+00,	0,	0
  3.00522E+04,	1.00000E+01,	-1.77082E-02,	1.34137E+01,	6.07212E+00,	2.23864E-02,	0.00000E+00,	0,	0
  2.46857E+04,	1.00000E+01,	-1.77082E-02,	1.42902E+01,	6.10094E+00,	-1.68693E-01,	0.00000E+00,	0,	0
  2.03294E+04,	1.00000E+01,	-1.77082E-02,	1.52238E+01,	6.13247E+00,	-3.49593E-01,	0.00000E+00,	0,	0
  1.64571E+04,	1.00000E+01,	-1.77082E-02,	1.61189E+01,	6.18358E+00,	-5.54367E-01,	0.00000E+00,	0,	0
  1.35529E+04,	1.00000E+01,	-1.77082E-02,	1.69231E+01,	6.23733E+00,	-7.56234E-01,	0.00000E+00,	0,	0
  1.11484E+04,	1.00000E+01,	-1.77082E-02,	1.78232E+01,	6.30067E+00,	-9.68508E-01,	0.00000E+00,	0,	0
  9.60000E+03,	1.00000E+01,	-1.77082E-02,	1.94844E+01,	6.35684E+00,	-1.14425E+00,	0.00000E+00,	0,	0
  7.85455E+03,	1.00000E+01,	-1.77082E-02,	2.04285E+01,	6.44042E+00,	-1.38916E+00,	0.00000E+00,	0,	0
  6.40000E+03,	1.00000E+01,	-1.77082E-02,	2.13817E+01,	6.55443E+00,	-1.68023E+00,	0.00000E+00,	0,	0
  5.23636E+03,	1.00000E+01,	-1.77082E-02,	2.23242E+01,	6.67411E+00,	-1.99407E+00,	0.00000E+00,	0,	0
  4.32000E+03,	1.00000E+01,	-1.77082E-02,	2.32388E+01,	6.81069E+00,	-2.33169E+00,	0.00000E+00,	0,	0
  3.52653E+03,	1.00000E+01,	-1.77082E-02,	2.42400E+01,	6.97736E+00,	-2.74376E+00,	0.00000E+00,	0,	0
  2.88000E+03,	1.00000E+01,	-1.77082E-02,	2.51664E+01,	7.16593E+00,	-3.21086E+00,	0.00000E+00,	0,	0
  2.36712E+03,	1.00000E+01,	-1.77082E-02,	2.61629E+01,	7.36502E+00,	-3.73465E+00,	0.00000E+00,	0,	0
  1.96364E+03,	1.00000E+01,	-1.77082E-02,	2.69090E+01,	7.59321E+00,	-4.30545E+00,	0.00000E+00,	0,	0
  1.61495E+03,	1.00000E+01,	-1.77082E-02,	2.78393E+01,	7.84030E+00,	-4.99483E+00,	0.00000E+00,	0,	0
  1.32923E+03,	1.00000E+01,	-1.77082E-02,	2.87837E+01,	8.13167E+00,	-5.80175E+00,	0.00000E+00,	0,	0
  1.09367E+03,	1.00000E+01,	-1.77082E-02,	2.98487E+01,	8.44636E+00,	-6.70993E+00,	0.00000E+00,	0,	0
  9.00000E+02,	1.00000E+01,	-1.77082E-02,	3.48320E+01,	8.80546E+00,	-7.84219E+00,	0.00000E+00,	0,	0
  7.44828E+02,	1.00000E+01,	-1.77082E-02,	3.62073E+01,	9.18686E+00,	-9.09237E+00,	0.00000E+00,	0,	0
  6.17143E+02,	1.00000E+01,	-1.77082E-02,	3.76007E+01,	9.61572E+00,	-1.05582E+01,	0.00000E+00,	0,	0
  5.14286E+02,	1.00000E+01,	-1.77082E-02,	3.89760E+01,	1.00835E+01,	-1.22129E+01,	0.00000E+00,	0,	0
  4.15385E+02,	1.00000E+01,	-1.77082E-02,	4.03400E+01,	1.07015E+01,	-1.45194E+01,	0.00000E+00,	0,	0
  3.42857E+02,	1.00000E+01,	-1.77082E-02,	4.27358E+01,	1.13455E+01,	-1.69934E+01,	0.00000E+00,	0,	0
  2.84211E+02,	1.00000E+01,	-1.77082E-02,	4.71301E+01,	1.20936E+01,	-1.98832E+01,	0.00000E+00,	0,	0
  2.32258E+02,	1.00000E+01,	-1.77082E-02,	4.99849E+01,	1.29884E+01,	-2.35214E+01,	0.00000E+00,	0,	0
  1.91150E+02,	1.00000E+01,	-1.77082E-02,	5.31022E+01,	1.40038E+01,	-2.76943E+01,	0.00000E+00,	0,	0
  1.57664E+02,	1.00000E+01,	-1.77082E-02,	5.65370E+01,	1.51733E+01,	-3.25747E+01,	0.00000E+00,	0,	0
  1.30120E+02,	1.00000E+01,	-1.77082E-02,	6.03071E+01,	1.65597E+01,	-3.83549E+01,	0.00000E+00,	0,	0
  1.06931E+02,	1.00000E+01,	-1.77082E-02,	6.44094E+01,	1.82256E+01,	-4.53477E+01,	0.00000E+00,	0,	0
  8.85246E+01,	1.00000E+01,	-1.77082E-02,	7.00672E+01,	2.01372E+01,	-5.33615E+01,	0.00000E+00,	0,	0
  7.29730E+01,	1.00000E+01,	-1.77082E-02,	7.49552E+01,	2.25048E+01,	-6.31816E+01,	0.00000E+00,	0,	0
  6.00000E+01,	1.00000E+01,	-1.77082E-02,	8.02331E+01,	2.56167E+01,	-7.38038E+01,	0.00000E+00,	0,	0
  4.95413E+01,	1.00000E+01,	-1.77082E-02,	8.60053E+01,	2.91360E+01,	-8.68552E+01,	0.00000E+00,	0,	0
  4.06015E+01,	1.00000E+01,	-1.77082E-02,	8.96624E+01,	3.36007E+01,	-1.02816E+02,	0.00000E+00,	0,	0
  3.35404E+01,	1.00000E+01,	-1.77082E-02,	9.34293E+01,	3.81091E+01,	-1.20650E+02,	0.00000E+00,	0,	0
  2.75510E+01,	1.00000E+01,	-1.77082E-02,	9.72564E+01,	4.49340E+01,	-1.42749E+02,	0.00000E+00,	0,	0
  2.26891E+01,	1.00000E+01,	-1.77082E-02,	1.00207E+02,	5.30579E+01,	-1.67923E+02,	0.00000E+00,	0,	0
  1.87500E+01,	1.00000E+01,	-1.77082E-02,	1.03937E+02,	6.28055E+01,	-1.96657E+02,	0.00000E+00,	0,	0
  1.55172E+01,	1.00000E+01,	-1.77082E-02,	1.09461E+02,	7.43803E+01,	-2.29560E+02,	0.00000E+00,	0,	0
  1.28571E+01,	1.00000E+01,	-1.77082E-02,	1.14131E+02,	8.83904E+01,	-2.67117E+02,	0.00000E+00,	0,	0
  1.04651E+01,	1.00000E+01,	-1.77082E-02,	1.16821E+02,	1.06698E+02,	-3.14558E+02,	0.00000E+00,	0,	0
  8.65385E+00,	1.00000E+01,	-1.77082E-02,	1.22651E+02,	1.27205E+02,	-3.65357E+02,	0.00000E+00,	0,	0
  7.14286E+00,	1.00000E+01,	-1.77082E-02,	1.25080E+02,	1.51340E+02,	-4.23292E+02,	0.00000E+00,	0,	0
  5.84416E+00,	1.00000E+01,	-1.77082E-02,	1.27825E+02,	1.80442E+02,	-4.92442E+02,	0.00000E+00,	0,	0
  4.83871E+00,	1.00000E+01,	-1.77082E-02,	1.30946E+02,	2.11821E+02,	-5.66765E+02,	0.00000E+00,	0,	0
  3.98230E+00,	1.00000E+01,	-1.77082E-02,	1.34553E+02,	2.48015E+02,	-6.54428E+02,	0.00000E+00,	0,	0
  3.28467E+00,	1.00000E+01,	-1.77082E-02,	1.38754E+02,	2.87866E+02,	-7.54236E+02,	0.00000E+00,	0,	0
  2.69461E+00,	1.00000E+01,	-1.77082E-02,	1.42657E+02,	3.32915E+02,	-8.72938E+02,	0.00000E+00,	0,	0
  2.22772E+00,	1.00000E+01,	-1.77082E-02,	1.47172E+02,	3.79786E+02,	-1.00594E+03,	0.00000E+00,	0,	0
  1.82927E+00,	1.00000E+01,	-1.77082E-02,	1.52466E+02,	4.33220E+02,	-1.16754E+03,	0.00000E+00,	0,	0
  1.51007E+00,	1.00000E+01,	-1.77082E-02,	1.59408E+02,	4.89746E+02,	-1.35226E+03,	0.00000E+00,	0,	0
  1.24309E+00,	1.00000E+01,	-1.77082E-02,	1.63721E+02,	5.53782E+02,	-1.57390E+03,	0.00000E+00,	0,	0
  1.02273E+00,	1.00000E+01,	-1.77082E-02,	1.68170E+02,	6.26504E+02,	-1.83947E+03,	0.00000E+00,	0,	0
  8.45865E-01,	1.00000E+01,	-1.77082E-02,	1.74987E+02,	7.03747E+02,	-2.14177E+03,	0.00000E+00,	0,	0
  6.94444E-01,	1.00000E+01,	-1.77082E-02,	1.79362E+02,	7.97957E+02,	-2.51749E+03,	0.00000E+00,	0,	0
  5.73980E-01,	1.00000E+01,	-1.77082E-02,	1.83916E+02,	8.76030E+02,	-2.95655E+03,	0.00000E+00,	0,	0
  4.72689E-01,	1.00000E+01,	-1.77082E-02,	1.89270E+02,	9.97691E+02,	-3.47958E+03,	0.00000E+00,	0,	0
  3.90625E-01,	1.00000E+01,	-1.77082E-02,	1.95296E+02,	1.13500E+03,	-4.13407E+03,	0.00000E+00,	0,	0
  3.21429E-01,	1.00000E+01,	-1.77082E-02,	2.02417E+02,	1.30625E+03,	-4.87409E+03,	0.00000E+00,	0,	0
  2.64085E-01,	1.00000E+01,	-1.77082E-02,	2.11106E+02,	1.50608E+03,	-5.76413E+03,	0.00000E+00,	0,	0
  2.18023E-01,	1.00000E+01,	-1.77082E-02,	2.21230E+02,	1.73312E+03,	-6.80013E+03,	0.00000E+00,	0,	0
  1.79426E-01,	1.00000E+01,	-1.77082E-02,	2.33294E+02,	2.01653E+03,	-8.03041E+03,	0.00000E+00,	0,	0
  1.47638E-01,	1.00000E+01,	-1.77082E-02,	2.47777E+02,	2.35700E+03,	-9.49690E+03,	0.00000E+00,	0,	0
  1.21753E-01,	1.00000E+01,	-1.77082E-02,	2.65140E+02,	2.76498E+03,	-1.12167E+04,	0.00000E+00,	0,	0
  1.00446E-01,	1.00000E+01,	-1.77082E-02,	2.86002E+02,	3.26480E+03,	-1.32433E+04,	0.00000E+00,	0,	0