Z60W Data File: Version 1.1
CorrTest for Windows: SN CS310H1805157  V5.2.1111.9  2.5H6.220118
Sweep Frequency: Control Voltage
  Date:4-26-2026   Time:23:38:23
  Begin Information:            Cell Information
      Surface Area:           1
      Density:                7.8
      Weight:                 28
  End Information:              Cell Information
  Freq (Hz)     Ampl(mV)       Bias(V)      Time(Sec)       Z'(Ohm.cm^2)    Z''(Ohm.cm^2)        GD       Err      Range
End Comments
  3.07200E+05,	1.00000E+01,	-7.44992E-03,	3.65625E-02,	2.30081E+00,	4.83227E+00,	0.00000E+00,	0,	0
  2.76480E+05,	1.00000E+01,	-7.44992E-03,	1.67226E+00,	2.78814E+00,	3.99509E+00,	0.00000E+00,	0,	0
  2.30400E+05,	1.00000E+01,	-7.44992E-03,	2.56890E+00,	3.19139E+00,	3.35285E+00,	0.00000E+00,	0,	0
  1.72800E+05,	1.00000E+01,	-7.44992E-03,	3.48746E+00,	3.56561E+00,	2.47571E+00,	0.00000E+00,	0,	0
  1.53600E+05,	1.00000E+01,	-7.44992E-03,	4.38278E+00,	3.65686E+00,	2.17662E+00,	0.00000E+00,	0,	0
  1.15200E+05,	1.00000E+01,	-7.44992E-03,	5.27626E+00,	3.85444E+00,	1.55310E+00,	0.00000E+00,	0,	0
  9.87429E+04,	1.00000E+01,	-7.44992E-03,	6.17554E+00,	3.92449E+00,	1.30303E+00,	0.00000E+00,	0,	0
  8.13176E+04,	1.00000E+01,	-7.44992E-03,	7.07892E+00,	3.98304E+00,	1.01667E+00,	0.00000E+00,	0,	0
  6.58286E+04,	1.00000E+01,	-7.44992E-03,	8.00813E+00,	4.03463E+00,	7.50418E-01,	0.00000E+00,	0,	0
  5.31692E+04,	1.00000E+01,	-7.44992E-03,	1.12624E+01,	4.09840E+00,	4.67513E-01,	0.00000E+00,	0,	0
  4.60800E+04,	1.00000E+01,	-7.44992E-03,	1.28152E+01,	4.11382E+00,	3.20169E-01,	0.00000E+00,	0,	0
  3.63789E+04,	1.00000E+01,	-7.44992E-03,	1.37418E+01,	4.14384E+00,	1.13935E-01,	0.00000E+00,	0,	0
  3.00522E+04,	1.00000E+01,	-7.44992E-03,	1.46178E+01,	4.16945E+00,	-3.94964E-02,	0.00000E+00,	0,	0
  2.46857E+04,	1.00000E+01,	-7.44992E-03,	1.54660E+01,	4.20286E+00,	-1.93326E-01,	0.00000E+00,	0,	0
  2.03294E+04,	1.00000E+01,	-7.44992E-03,	1.64023E+01,	4.23330E+00,	-3.43351E-01,	0.00000E+00,	0,	0
  1.64571E+04,	1.00000E+01,	-7.44992E-03,	1.73003E+01,	4.27249E+00,	-5.13830E-01,	0.00000E+00,	0,	0
  1.35529E+04,	1.00000E+01,	-7.44992E-03,	1.81037E+01,	4.33145E+00,	-6.82463E-01,	0.00000E+00,	0,	0
  1.11484E+04,	1.00000E+01,	-7.44992E-03,	1.90395E+01,	4.39175E+00,	-8.58573E-01,	0.00000E+00,	0,	0
  9.60000E+03,	1.00000E+01,	-7.44992E-03,	2.18454E+01,	4.33310E+00,	-9.89677E-01,	0.00000E+00,	0,	0
  7.85455E+03,	1.00000E+01,	-7.44992E-03,	2.28401E+01,	4.41252E+00,	-1.20113E+00,	0.00000E+00,	0,	0
  6.40000E+03,	1.00000E+01,	-7.44992E-03,	2.38284E+01,	4.50531E+00,	-1.43750E+00,	0.00000E+00,	0,	0
  5.23636E+03,	1.00000E+01,	-7.44992E-03,	2.48006E+01,	4.60685E+00,	-1.70498E+00,	0.00000E+00,	0,	0
  4.32000E+03,	1.00000E+01,	-7.44992E-03,	2.57264E+01,	4.71922E+00,	-1.98820E+00,	0.00000E+00,	0,	0
  3.52653E+03,	1.00000E+01,	-7.44992E-03,	2.67278E+01,	4.85405E+00,	-2.33016E+00,	0.00000E+00,	0,	0
  2.88000E+03,	1.00000E+01,	-7.44992E-03,	2.76016E+01,	4.99758E+00,	-2.72652E+00,	0.00000E+00,	0,	0
  2.36712E+03,	1.00000E+01,	-7.44992E-03,	2.85900E+01,	5.16222E+00,	-3.16908E+00,	0.00000E+00,	0,	0
  1.96364E+03,	1.00000E+01,	-7.44992E-03,	2.93269E+01,	5.33966E+00,	-3.65611E+00,	0.00000E+00,	0,	0
  1.61495E+03,	1.00000E+01,	-7.44992E-03,	3.02291E+01,	5.54495E+00,	-4.26553E+00,	0.00000E+00,	0,	0
  1.32923E+03,	1.00000E+01,	-7.44992E-03,	3.12003E+01,	5.76013E+00,	-4.95965E+00,	0.00000E+00,	0,	0
  1.09367E+03,	1.00000E+01,	-7.44992E-03,	3.22857E+01,	6.00975E+00,	-5.77423E+00,	0.00000E+00,	0,	0
  9.00000E+02,	1.00000E+01,	-7.44992E-03,	3.72733E+01,	6.30749E+00,	-6.76961E+00,	0.00000E+00,	0,	0
  7.44828E+02,	1.00000E+01,	-7.44992E-03,	3.86744E+01,	6.61263E+00,	-7.87610E+00,	0.00000E+00,	0,	0
  6.17143E+02,	1.00000E+01,	-7.44992E-03,	4.00446E+01,	6.96348E+00,	-9.17158E+00,	0.00000E+00,	0,	0
  5.14286E+02,	1.00000E+01,	-7.44992E-03,	4.14190E+01,	7.35047E+00,	-1.06494E+01,	0.00000E+00,	0,	0
  4.15385E+02,	1.00000E+01,	-7.44992E-03,	4.27958E+01,	7.86835E+00,	-1.27060E+01,	0.00000E+00,	0,	0
  3.42857E+02,	1.00000E+01,	-7.44992E-03,	4.51790E+01,	8.41598E+00,	-1.49139E+01,	0.00000E+00,	0,	0
  2.84211E+02,	1.00000E+01,	-7.44992E-03,	4.96027E+01,	9.05743E+00,	-1.74916E+01,	0.00000E+00,	0,	0
  2.32258E+02,	1.00000E+01,	-7.44992E-03,	5.24946E+01,	9.84593E+00,	-2.07458E+01,	0.00000E+00,	0,	0
  1.91150E+02,	1.00000E+01,	-7.44992E-03,	5.56055E+01,	1.07464E+01,	-2.44603E+01,	0.00000E+00,	0,	0
  1.57664E+02,	1.00000E+01,	-7.44992E-03,	5.90132E+01,	1.18019E+01,	-2.88200E+01,	0.00000E+00,	0,	0
  1.30120E+02,	1.00000E+01,	-7.44992E-03,	6.28075E+01,	1.30695E+01,	-3.39638E+01,	0.00000E+00,	0,	0
  1.06931E+02,	1.00000E+01,	-7.44992E-03,	6.69449E+01,	1.46122E+01,	-4.01728E+01,	0.00000E+00,	0,	0
  8.85246E+01,	1.00000E+01,	-7.44992E-03,	7.25438E+01,	1.63985E+01,	-4.72754E+01,	0.00000E+00,	0,	0
  7.29730E+01,	1.00000E+01,	-7.44992E-03,	7.73845E+01,	1.86281E+01,	-5.59503E+01,	0.00000E+00,	0,	0
  6.00000E+01,	1.00000E+01,	-7.44992E-03,	8.26182E+01,	2.15807E+01,	-6.52963E+01,	0.00000E+00,	0,	0
  4.95413E+01,	1.00000E+01,	-7.44992E-03,	8.83462E+01,	2.49425E+01,	-7.67399E+01,	0.00000E+00,	0,	0
  4.06015E+01,	1.00000E+01,	-7.44992E-03,	9.19720E+01,	2.92264E+01,	-9.06683E+01,	0.00000E+00,	0,	0
  3.35404E+01,	1.00000E+01,	-7.44992E-03,	9.57360E+01,	3.36131E+01,	-1.06133E+02,	0.00000E+00,	0,	0
  2.75510E+01,	1.00000E+01,	-7.44992E-03,	9.95655E+01,	4.01248E+01,	-1.25169E+02,	0.00000E+00,	0,	0
  2.26891E+01,	1.00000E+01,	-7.44992E-03,	1.02519E+02,	4.78404E+01,	-1.46691E+02,	0.00000E+00,	0,	0
  1.87500E+01,	1.00000E+01,	-7.44992E-03,	1.06250E+02,	5.70186E+01,	-1.71054E+02,	0.00000E+00,	0,	0
  1.55172E+01,	1.00000E+01,	-7.44992E-03,	1.11794E+02,	6.77619E+01,	-1.98735E+02,	0.00000E+00,	0,	0
  1.28571E+01,	1.00000E+01,	-7.44992E-03,	1.16429E+02,	8.04903E+01,	-2.30060E+02,	0.00000E+00,	0,	0
  1.04651E+01,	1.00000E+01,	-7.44992E-03,	1.19140E+02,	9.66832E+01,	-2.69284E+02,	0.00000E+00,	0,	0
  8.65385E+00,	1.00000E+01,	-7.44992E-03,	1.24948E+02,	1.14278E+02,	-3.11298E+02,	0.00000E+00,	0,	0
  7.14286E+00,	1.00000E+01,	-7.44992E-03,	1.27357E+02,	1.34274E+02,	-3.59074E+02,	0.00000E+00,	0,	0
  5.84416E+00,	1.00000E+01,	-7.44992E-03,	1.30089E+02,	1.57648E+02,	-4.16529E+02,	0.00000E+00,	0,	0
  4.83871E+00,	1.00000E+01,	-7.44992E-03,	1.33219E+02,	1.81920E+02,	-4.78740E+02,	0.00000E+00,	0,	0
  3.98230E+00,	1.00000E+01,	-7.44992E-03,	1.36813E+02,	2.09517E+02,	-5.53278E+02,	0.00000E+00,	0,	0
  3.28467E+00,	1.00000E+01,	-7.44992E-03,	1.40955E+02,	2.39312E+02,	-6.39419E+02,	0.00000E+00,	0,	0
  2.69461E+00,	1.00000E+01,	-7.44992E-03,	1.44844E+02,	2.72925E+02,	-7.43318E+02,	0.00000E+00,	0,	0
  2.22772E+00,	1.00000E+01,	-7.44992E-03,	1.49344E+02,	3.08395E+02,	-8.61143E+02,	0.00000E+00,	0,	0
  1.82927E+00,	1.00000E+01,	-7.44992E-03,	1.54686E+02,	3.49081E+02,	-1.00544E+03,	0.00000E+00,	0,	0
  1.51007E+00,	1.00000E+01,	-7.44992E-03,	1.61641E+02,	3.93036E+02,	-1.17140E+03,	0.00000E+00,	0,	0
  1.24309E+00,	1.00000E+01,	-7.44992E-03,	1.65960E+02,	4.44050E+02,	-1.37140E+03,	0.00000E+00,	0,	0
  1.02273E+00,	1.00000E+01,	-7.44992E-03,	1.70446E+02,	5.03504E+02,	-1.61139E+03,	0.00000E+00,	0,	0
  8.45865E-01,	1.00000E+01,	-7.44992E-03,	1.77294E+02,	5.68616E+02,	-1.88507E+03,	0.00000E+00,	0,	0
  6.94444E-01,	1.00000E+01,	-7.44992E-03,	1.81669E+02,	6.48733E+02,	-2.22436E+03,	0.00000E+00,	0,	0
  5.73980E-01,	1.00000E+01,	-7.44992E-03,	1.86283E+02,	7.19007E+02,	-2.61833E+03,	0.00000E+00,	0,	0
  4.72689E-01,	1.00000E+01,	-7.44992E-03,	1.91670E+02,	8.25940E+02,	-3.09072E+03,	0.00000E+00,	0,	0
  3.90625E-01,	1.00000E+01,	-7.44992E-03,	1.97703E+02,	9.48319E+02,	-3.67514E+03,	0.00000E+00,	0,	0
  3.21429E-01,	1.00000E+01,	-7.44992E-03,	2.04889E+02,	1.10320E+03,	-4.34340E+03,	0.00000E+00,	0,	0
  2.64085E-01,	1.00000E+01,	-7.44992E-03,	2.13557E+02,	1.28734E+03,	-5.14542E+03,	0.00000E+00,	0,	0
  2.18023E-01,	1.00000E+01,	-7.44992E-03,	2.23701E+02,	1.50339E+03,	-6.07874E+03,	0.00000E+00,	0,	0
  1.79426E-01,	1.00000E+01,	-7.44992E-03,	2.35778E+02,	1.78088E+03,	-7.18866E+03,	0.00000E+00,	0,	0
  1.47638E-01,	1.00000E+01,	-7.44992E-03,	2.50244E+02,	2.12213E+03,	-8.50666E+03,	0.00000E+00,	0,	0
  1.21753E-01,	1.00000E+01,	-7.44992E-03,	2.67631E+02,	2.54474E+03,	-1.00469E+04,	0.00000E+00,	0,	0
  1.00446E-01,	1.00000E+01,	-7.44992E-03,	2.88489E+02,	3.07690E+03,	-1.18584E+04,	0.00000E+00,	0,	0