Z60W Data File: Version 1.1
CorrTest for Windows: SN CS310H1805157  V5.2.1111.9  2.5H6.220118
Sweep Frequency: Control Voltage
  Date:4-26-2026   Time:17:15:19
  Begin Information:            Cell Information
      Surface Area:           1
      Density:                7.8
      Weight:                 28
  End Information:              Cell Information
  Freq (Hz)     Ampl(mV)       Bias(V)      Time(Sec)       Z'(Ohm.cm^2)    Z''(Ohm.cm^2)        GD       Err      Range
End Comments
  3.07200E+05,	1.00000E+01,	8.74129E-03,	7.50129E-02,	7.30694E-01,	4.06945E+00,	0.00000E+00,	0,	0
  2.76480E+05,	1.00000E+01,	8.74129E-03,	1.67083E+00,	1.30746E+00,	3.30940E+00,	0.00000E+00,	0,	0
  1.97486E+05,	1.00000E+01,	8.74129E-03,	2.56855E+00,	1.95452E+00,	2.34475E+00,	0.00000E+00,	0,	0
  1.53600E+05,	1.00000E+01,	8.74129E-03,	3.45666E+00,	2.23379E+00,	1.78902E+00,	0.00000E+00,	0,	0
  1.25673E+05,	1.00000E+01,	8.74129E-03,	4.39199E+00,	2.38496E+00,	1.44219E+00,	0.00000E+00,	0,	0
  9.87429E+04,	1.00000E+01,	8.74129E-03,	5.28752E+00,	2.50207E+00,	1.09016E+00,	0.00000E+00,	0,	0
  7.68000E+04,	1.00000E+01,	8.74129E-03,	6.17928E+00,	2.57609E+00,	7.88416E-01,	0.00000E+00,	0,	0
  6.01043E+04,	1.00000E+01,	8.74129E-03,	9.37633E+00,	2.65103E+00,	4.97600E-01,	0.00000E+00,	0,	0
  4.93714E+04,	1.00000E+01,	8.74129E-03,	1.09841E+01,	2.67218E+00,	3.42951E-01,	0.00000E+00,	0,	0
  3.84000E+04,	1.00000E+01,	8.74129E-03,	1.18958E+01,	2.69544E+00,	1.70960E-01,	0.00000E+00,	0,	0
  3.00522E+04,	1.00000E+01,	8.74129E-03,	1.27617E+01,	2.72011E+00,	1.45072E-02,	0.00000E+00,	0,	0
  2.38345E+04,	1.00000E+01,	8.74129E-03,	1.36617E+01,	2.74874E+00,	-1.30254E-01,	0.00000E+00,	0,	0
  1.86811E+04,	1.00000E+01,	8.74129E-03,	1.45078E+01,	2.77966E+00,	-2.72801E-01,	0.00000E+00,	0,	0
  1.47064E+04,	1.00000E+01,	8.74129E-03,	1.54979E+01,	2.81863E+00,	-4.22999E-01,	0.00000E+00,	0,	0
  1.15200E+04,	1.00000E+01,	8.74129E-03,	1.64580E+01,	2.86669E+00,	-5.83007E-01,	0.00000E+00,	0,	0
  9.60000E+03,	1.00000E+01,	8.74129E-03,	1.80364E+01,	2.91157E+00,	-7.07224E-01,	0.00000E+00,	0,	0
  7.51304E+03,	1.00000E+01,	8.74129E-03,	1.89630E+01,	2.97555E+00,	-9.01652E-01,	0.00000E+00,	0,	0
  5.76000E+03,	1.00000E+01,	8.74129E-03,	1.98643E+01,	3.05873E+00,	-1.14116E+00,	0.00000E+00,	0,	0
  4.54737E+03,	1.00000E+01,	8.74129E-03,	2.07314E+01,	3.14586E+00,	-1.39651E+00,	0.00000E+00,	0,	0
  3.60000E+03,	1.00000E+01,	8.74129E-03,	2.17708E+01,	3.24436E+00,	-1.69133E+00,	0.00000E+00,	0,	0
  2.88000E+03,	1.00000E+01,	8.74129E-03,	2.27172E+01,	3.34934E+00,	-2.02477E+00,	0.00000E+00,	0,	0
  2.27368E+03,	1.00000E+01,	8.74129E-03,	2.50093E+01,	3.33869E+00,	-2.42660E+00,	0.00000E+00,	0,	0
  1.78144E+03,	1.00000E+01,	8.74129E-03,	2.58035E+01,	3.48630E+00,	-2.95967E+00,	0.00000E+00,	0,	0
  1.41639E+03,	1.00000E+01,	8.74129E-03,	2.66975E+01,	3.66249E+00,	-3.56729E+00,	0.00000E+00,	0,	0
  1.12208E+03,	1.00000E+01,	8.74129E-03,	2.77240E+01,	3.85590E+00,	-4.31071E+00,	0.00000E+00,	0,	0
  9.00000E+02,	1.00000E+01,	8.74129E-03,	3.27198E+01,	4.09775E+00,	-5.18829E+00,	0.00000E+00,	0,	0
  7.20000E+02,	1.00000E+01,	8.74129E-03,	3.40955E+01,	4.36499E+00,	-6.24523E+00,	0.00000E+00,	0,	0
  5.68421E+02,	1.00000E+01,	8.74129E-03,	3.54729E+01,	4.70594E+00,	-7.61276E+00,	0.00000E+00,	0,	0
  4.40816E+02,	1.00000E+01,	8.74129E-03,	3.69465E+01,	5.15472E+00,	-9.43080E+00,	0.00000E+00,	0,	0
  3.54098E+02,	1.00000E+01,	8.74129E-03,	3.93286E+01,	5.62530E+00,	-1.13530E+01,	0.00000E+00,	0,	0
  2.76923E+02,	1.00000E+01,	8.74129E-03,	4.20336E+01,	6.28311E+00,	-1.39862E+01,	0.00000E+00,	0,	0
  2.20408E+02,	1.00000E+01,	8.74129E-03,	4.49652E+01,	7.04332E+00,	-1.69916E+01,	0.00000E+00,	0,	0
  1.74194E+02,	1.00000E+01,	8.74129E-03,	4.82451E+01,	8.02083E+00,	-2.07600E+01,	0.00000E+00,	0,	0
  1.37580E+02,	1.00000E+01,	8.74129E-03,	5.18901E+01,	9.26338E+00,	-2.53717E+01,	0.00000E+00,	0,	0
  1.09091E+02,	1.00000E+01,	8.74129E-03,	5.59588E+01,	1.08048E+01,	-3.09030E+01,	0.00000E+00,	0,	0
  8.70968E+01,	1.00000E+01,	8.74129E-03,	6.40955E+01,	1.27148E+01,	-3.75457E+01,	0.00000E+00,	0,	0
  6.83544E+01,	1.00000E+01,	8.74129E-03,	6.91108E+01,	1.53284E+01,	-4.62683E+01,	0.00000E+00,	0,	0
  5.45455E+01,	1.00000E+01,	8.74129E-03,	7.45760E+01,	1.85682E+01,	-5.49421E+01,	0.00000E+00,	0,	0
  4.28571E+01,	1.00000E+01,	8.74129E-03,	7.81121E+01,	2.27938E+01,	-6.68430E+01,	0.00000E+00,	0,	0
  3.39623E+01,	1.00000E+01,	8.74129E-03,	8.18386E+01,	2.73972E+01,	-8.04191E+01,	0.00000E+00,	0,	0
  2.68657E+01,	1.00000E+01,	8.74129E-03,	8.56815E+01,	3.39690E+01,	-9.70148E+01,	0.00000E+00,	0,	0
  2.13439E+01,	1.00000E+01,	8.74129E-03,	8.94997E+01,	4.17515E+01,	-1.15971E+02,	0.00000E+00,	0,	0
  1.73077E+01,	1.00000E+01,	8.74129E-03,	9.61587E+01,	5.01980E+01,	-1.36263E+02,	0.00000E+00,	0,	0
  1.36364E+01,	1.00000E+01,	8.74129E-03,	1.01181E+02,	6.11447E+01,	-1.62898E+02,	0.00000E+00,	0,	0
  1.07143E+01,	1.00000E+01,	8.74129E-03,	1.04139E+02,	7.38792E+01,	-1.94863E+02,	0.00000E+00,	0,	0
  8.49057E+00,	1.00000E+01,	8.74129E-03,	1.08348E+02,	8.77874E+01,	-2.31748E+02,	0.00000E+00,	0,	0
  6.71642E+00,	1.00000E+01,	8.74129E-03,	1.10852E+02,	1.03451E+02,	-2.76483E+02,	0.00000E+00,	0,	0
  5.29412E+00,	1.00000E+01,	8.74129E-03,	1.13763E+02,	1.21418E+02,	-3.31581E+02,	0.00000E+00,	0,	0
  4.16667E+00,	1.00000E+01,	8.74129E-03,	1.17239E+02,	1.41835E+02,	-3.99559E+02,	0.00000E+00,	0,	0
  3.30882E+00,	1.00000E+01,	8.74129E-03,	1.21494E+02,	1.64262E+02,	-4.79777E+02,	0.00000E+00,	0,	0
  2.61628E+00,	1.00000E+01,	8.74129E-03,	1.25473E+02,	1.90880E+02,	-5.79854E+02,	0.00000E+00,	0,	0
  2.07373E+00,	1.00000E+01,	8.74129E-03,	1.30245E+02,	2.21812E+02,	-7.01828E+02,	0.00000E+00,	0,	0
  1.64234E+00,	1.00000E+01,	8.74129E-03,	1.36030E+02,	2.58748E+02,	-8.51888E+02,	0.00000E+00,	0,	0
  1.30058E+00,	1.00000E+01,	8.74129E-03,	1.40185E+02,	3.03797E+02,	-1.03625E+03,	0.00000E+00,	0,	0
  1.03211E+00,	1.00000E+01,	8.74129E-03,	1.44591E+02,	3.58454E+02,	-1.26059E+03,	0.00000E+00,	0,	0
  8.15217E-01,	1.00000E+01,	8.74129E-03,	1.51525E+02,	4.25944E+02,	-1.54003E+03,	0.00000E+00,	0,	0
  6.46552E-01,	1.00000E+01,	8.74129E-03,	1.60642E+02,	5.08535E+02,	-1.87734E+03,	0.00000E+00,	0,	0
  5.11364E-01,	1.00000E+01,	8.74129E-03,	1.65649E+02,	6.00877E+02,	-2.29949E+03,	0.00000E+00,	0,	0
  4.07609E-01,	1.00000E+01,	8.74129E-03,	1.71705E+02,	7.30725E+02,	-2.79705E+03,	0.00000E+00,	0,	0
  3.21429E-01,	1.00000E+01,	8.74129E-03,	1.78833E+02,	9.07864E+02,	-3.46333E+03,	0.00000E+00,	0,	0
  2.54525E-01,	1.00000E+01,	8.74129E-03,	1.87604E+02,	1.14272E+03,	-4.22745E+03,	0.00000E+00,	0,	0
  2.01613E-01,	1.00000E+01,	8.74129E-03,	1.98462E+02,	1.44743E+03,	-5.15899E+03,	0.00000E+00,	0,	0
  1.59574E-01,	1.00000E+01,	8.74129E-03,	2.11912E+02,	1.86378E+03,	-6.28235E+03,	0.00000E+00,	0,	0
  1.26689E-01,	1.00000E+01,	8.74129E-03,	2.28837E+02,	2.41056E+03,	-7.60320E+03,	0.00000E+00,	0,	0
  1.00446E-01,	1.00000E+01,	8.74129E-03,	2.49699E+02,	3.14483E+03,	-9.17860E+03,	0.00000E+00,	0,	0