Z60W Data File: Version 1.1
CorrTest for Windows: SN CS310H1805157  V5.2.1111.9  2.5H6.220118
Sweep Frequency: Control Voltage
  Date:4-26-2026   Time:19:34:51
  Begin Information:            Cell Information
      Surface Area:           1
      Density:                7.8
      Weight:                 28
  End Information:              Cell Information
  Freq (Hz)     Ampl(mV)       Bias(V)      Time(Sec)       Z'(Ohm.cm^2)    Z''(Ohm.cm^2)        GD       Err      Range
End Comments
  3.07200E+05,	1.00000E+01,	-9.73057E-03,	2.64218E-02,	4.95940E-01,	3.88980E+00,	0.00000E+00,	0,	0
  2.76480E+05,	1.00000E+01,	-9.73057E-03,	1.65823E+00,	1.01240E+00,	3.18436E+00,	0.00000E+00,	0,	0
  2.30400E+05,	1.00000E+01,	-9.73057E-03,	2.56164E+00,	1.42713E+00,	2.62424E+00,	0.00000E+00,	0,	0
  1.72800E+05,	1.00000E+01,	-9.73057E-03,	3.47789E+00,	1.85302E+00,	1.93708E+00,	0.00000E+00,	0,	0
  1.53600E+05,	1.00000E+01,	-9.73057E-03,	4.38968E+00,	1.96069E+00,	1.70323E+00,	0.00000E+00,	0,	0
  1.15200E+05,	1.00000E+01,	-9.73057E-03,	5.29936E+00,	2.16099E+00,	1.22979E+00,	0.00000E+00,	0,	0
  9.87429E+04,	1.00000E+01,	-9.73057E-03,	6.21510E+00,	2.24170E+00,	1.02735E+00,	0.00000E+00,	0,	0
  8.13176E+04,	1.00000E+01,	-9.73057E-03,	7.14188E+00,	2.30302E+00,	7.93017E-01,	0.00000E+00,	0,	0
  6.58286E+04,	1.00000E+01,	-9.73057E-03,	8.04427E+00,	2.34706E+00,	5.88951E-01,	0.00000E+00,	0,	0
  5.31692E+04,	1.00000E+01,	-9.73057E-03,	1.12789E+01,	2.39814E+00,	3.60792E-01,	0.00000E+00,	0,	0
  4.60800E+04,	1.00000E+01,	-9.73057E-03,	1.28344E+01,	2.41600E+00,	2.55000E-01,	0.00000E+00,	0,	0
  3.63789E+04,	1.00000E+01,	-9.73057E-03,	1.37660E+01,	2.44014E+00,	9.48364E-02,	0.00000E+00,	0,	0
  3.00522E+04,	1.00000E+01,	-9.73057E-03,	1.46229E+01,	2.46233E+00,	-2.64593E-02,	0.00000E+00,	0,	0
  2.46857E+04,	1.00000E+01,	-9.73057E-03,	1.54962E+01,	2.48641E+00,	-1.44921E-01,	0.00000E+00,	0,	0
  2.03294E+04,	1.00000E+01,	-9.73057E-03,	1.64554E+01,	2.51411E+00,	-2.57110E-01,	0.00000E+00,	0,	0
  1.64571E+04,	1.00000E+01,	-9.73057E-03,	1.73880E+01,	2.54867E+00,	-3.86080E-01,	0.00000E+00,	0,	0
  1.35529E+04,	1.00000E+01,	-9.73057E-03,	1.82022E+01,	2.58816E+00,	-5.12446E-01,	0.00000E+00,	0,	0
  1.11484E+04,	1.00000E+01,	-9.73057E-03,	1.91151E+01,	2.63394E+00,	-6.41320E-01,	0.00000E+00,	0,	0
  9.60000E+03,	1.00000E+01,	-9.73057E-03,	2.19166E+01,	2.58116E+00,	-7.41810E-01,	0.00000E+00,	0,	0
  7.85455E+03,	1.00000E+01,	-9.73057E-03,	2.28867E+01,	2.63777E+00,	-8.98281E-01,	0.00000E+00,	0,	0
  6.40000E+03,	1.00000E+01,	-9.73057E-03,	2.38682E+01,	2.70433E+00,	-1.07461E+00,	0.00000E+00,	0,	0
  5.23636E+03,	1.00000E+01,	-9.73057E-03,	2.48151E+01,	2.77393E+00,	-1.27219E+00,	0.00000E+00,	0,	0
  4.32000E+03,	1.00000E+01,	-9.73057E-03,	2.57144E+01,	2.85132E+00,	-1.49201E+00,	0.00000E+00,	0,	0
  3.52653E+03,	1.00000E+01,	-9.73057E-03,	2.67291E+01,	2.93867E+00,	-1.75807E+00,	0.00000E+00,	0,	0
  2.88000E+03,	1.00000E+01,	-9.73057E-03,	2.76299E+01,	3.03857E+00,	-2.06662E+00,	0.00000E+00,	0,	0
  2.36712E+03,	1.00000E+01,	-9.73057E-03,	2.86416E+01,	3.14539E+00,	-2.42908E+00,	0.00000E+00,	0,	0
  1.96364E+03,	1.00000E+01,	-9.73057E-03,	2.94006E+01,	3.27116E+00,	-2.81641E+00,	0.00000E+00,	0,	0
  1.61495E+03,	1.00000E+01,	-9.73057E-03,	3.03039E+01,	3.39971E+00,	-3.29897E+00,	0.00000E+00,	0,	0
  1.32923E+03,	1.00000E+01,	-9.73057E-03,	3.12290E+01,	3.55496E+00,	-3.85910E+00,	0.00000E+00,	0,	0
  1.09367E+03,	1.00000E+01,	-9.73057E-03,	3.22691E+01,	3.73218E+00,	-4.53328E+00,	0.00000E+00,	0,	0
  9.00000E+02,	1.00000E+01,	-9.73057E-03,	3.72518E+01,	3.94788E+00,	-5.34035E+00,	0.00000E+00,	0,	0
  7.44828E+02,	1.00000E+01,	-9.73057E-03,	3.86193E+01,	4.17681E+00,	-6.24756E+00,	0.00000E+00,	0,	0
  6.17143E+02,	1.00000E+01,	-9.73057E-03,	3.99899E+01,	4.44191E+00,	-7.31568E+00,	0.00000E+00,	0,	0
  5.14286E+02,	1.00000E+01,	-9.73057E-03,	4.13976E+01,	4.74005E+00,	-8.53000E+00,	0.00000E+00,	0,	0
  4.15385E+02,	1.00000E+01,	-9.73057E-03,	4.27676E+01,	5.24875E+00,	-1.02221E+01,	0.00000E+00,	0,	0
  3.42857E+02,	1.00000E+01,	-9.73057E-03,	4.51581E+01,	5.68920E+00,	-1.20243E+01,	0.00000E+00,	0,	0
  2.84211E+02,	1.00000E+01,	-9.73057E-03,	4.95738E+01,	6.21955E+00,	-1.41444E+01,	0.00000E+00,	0,	0
  2.32258E+02,	1.00000E+01,	-9.73057E-03,	5.24588E+01,	6.89084E+00,	-1.68052E+01,	0.00000E+00,	0,	0
  1.91150E+02,	1.00000E+01,	-9.73057E-03,	5.55947E+01,	7.67594E+00,	-1.98436E+01,	0.00000E+00,	0,	0
  1.57664E+02,	1.00000E+01,	-9.73057E-03,	5.90428E+01,	8.61174E+00,	-2.33854E+01,	0.00000E+00,	0,	0
  1.30120E+02,	1.00000E+01,	-9.73057E-03,	6.27955E+01,	9.74738E+00,	-2.75391E+01,	0.00000E+00,	0,	0
  1.06931E+02,	1.00000E+01,	-9.73057E-03,	6.68839E+01,	1.11565E+01,	-3.25365E+01,	0.00000E+00,	0,	0
  8.85246E+01,	1.00000E+01,	-9.73057E-03,	7.24875E+01,	1.28050E+01,	-3.82110E+01,	0.00000E+00,	0,	0
  7.29730E+01,	1.00000E+01,	-9.73057E-03,	7.73505E+01,	1.48733E+01,	-4.50898E+01,	0.00000E+00,	0,	0
  6.00000E+01,	1.00000E+01,	-9.73057E-03,	8.25961E+01,	1.76091E+01,	-5.24016E+01,	0.00000E+00,	0,	0
  4.95413E+01,	1.00000E+01,	-9.73057E-03,	8.83230E+01,	2.07232E+01,	-6.12691E+01,	0.00000E+00,	0,	0
  4.06015E+01,	1.00000E+01,	-9.73057E-03,	9.19775E+01,	2.46516E+01,	-7.19357E+01,	0.00000E+00,	0,	0
  3.35404E+01,	1.00000E+01,	-9.73057E-03,	9.57423E+01,	2.86683E+01,	-8.36001E+01,	0.00000E+00,	0,	0
  2.75510E+01,	1.00000E+01,	-9.73057E-03,	9.95975E+01,	3.43984E+01,	-9.77798E+01,	0.00000E+00,	0,	0
  2.26891E+01,	1.00000E+01,	-9.73057E-03,	1.02603E+02,	4.09516E+01,	-1.13576E+02,	0.00000E+00,	0,	0
  1.87500E+01,	1.00000E+01,	-9.73057E-03,	1.06304E+02,	4.84013E+01,	-1.31269E+02,	0.00000E+00,	0,	0
  1.55172E+01,	1.00000E+01,	-9.73057E-03,	1.11822E+02,	5.67193E+01,	-1.51229E+02,	0.00000E+00,	0,	0
  1.28571E+01,	1.00000E+01,	-9.73057E-03,	1.16454E+02,	6.60477E+01,	-1.73865E+02,	0.00000E+00,	0,	0
  1.04651E+01,	1.00000E+01,	-9.73057E-03,	1.19212E+02,	7.72402E+01,	-2.02436E+02,	0.00000E+00,	0,	0
  8.65385E+00,	1.00000E+01,	-9.73057E-03,	1.25017E+02,	8.89427E+01,	-2.33599E+02,	0.00000E+00,	0,	0
  7.14286E+00,	1.00000E+01,	-9.73057E-03,	1.27433E+02,	1.01664E+02,	-2.69633E+02,	0.00000E+00,	0,	0
  5.84416E+00,	1.00000E+01,	-9.73057E-03,	1.30215E+02,	1.16280E+02,	-3.14116E+02,	0.00000E+00,	0,	0
  4.83871E+00,	1.00000E+01,	-9.73057E-03,	1.33339E+02,	1.31404E+02,	-3.63452E+02,	0.00000E+00,	0,	0
  3.98230E+00,	1.00000E+01,	-9.73057E-03,	1.36961E+02,	1.48669E+02,	-4.23440E+02,	0.00000E+00,	0,	0
  3.28467E+00,	1.00000E+01,	-9.73057E-03,	1.41125E+02,	1.67916E+02,	-4.93883E+02,	0.00000E+00,	0,	0
  2.69461E+00,	1.00000E+01,	-9.73057E-03,	1.45018E+02,	1.90344E+02,	-5.79690E+02,	0.00000E+00,	0,	0
  2.22772E+00,	1.00000E+01,	-9.73057E-03,	1.49522E+02,	2.14945E+02,	-6.77644E+02,	0.00000E+00,	0,	0
  1.82927E+00,	1.00000E+01,	-9.73057E-03,	1.54838E+02,	2.44466E+02,	-7.97976E+02,	0.00000E+00,	0,	0
  1.51007E+00,	1.00000E+01,	-9.73057E-03,	1.58709E+02,	2.78348E+02,	-9.37087E+02,	0.00000E+00,	0,	0
  1.24309E+00,	1.00000E+01,	-9.73057E-03,	1.63020E+02,	3.18530E+02,	-1.10427E+03,	0.00000E+00,	0,	0
  1.02273E+00,	1.00000E+01,	-9.73057E-03,	1.67451E+02,	3.67011E+02,	-1.30373E+03,	0.00000E+00,	0,	0
  8.45865E-01,	1.00000E+01,	-9.73057E-03,	1.74270E+02,	4.22373E+02,	-1.53186E+03,	0.00000E+00,	0,	0
  6.94444E-01,	1.00000E+01,	-9.73057E-03,	1.78652E+02,	4.92214E+02,	-1.81330E+03,	0.00000E+00,	0,	0
  5.73980E-01,	1.00000E+01,	-9.73057E-03,	1.83206E+02,	5.59433E+02,	-2.13823E+03,	0.00000E+00,	0,	0
  4.72689E-01,	1.00000E+01,	-9.73057E-03,	1.88552E+02,	6.60074E+02,	-2.52860E+03,	0.00000E+00,	0,	0
  3.90625E-01,	1.00000E+01,	-9.73057E-03,	1.94566E+02,	7.79795E+02,	-3.00540E+03,	0.00000E+00,	0,	0
  3.21429E-01,	1.00000E+01,	-9.73057E-03,	2.01718E+02,	9.38372E+02,	-3.55316E+03,	0.00000E+00,	0,	0
  2.64085E-01,	1.00000E+01,	-9.73057E-03,	2.19196E+02,	1.14766E+03,	-4.16267E+03,	0.00000E+00,	0,	0
  2.18023E-01,	1.00000E+01,	-9.73057E-03,	2.29285E+02,	1.36446E+03,	-4.97471E+03,	0.00000E+00,	0,	0
  1.79426E-01,	1.00000E+01,	-9.73057E-03,	2.41368E+02,	1.70241E+03,	-5.83321E+03,	0.00000E+00,	0,	0
  1.47638E-01,	1.00000E+01,	-9.73057E-03,	2.55847E+02,	2.11259E+03,	-6.85998E+03,	0.00000E+00,	0,	0
  1.21753E-01,	1.00000E+01,	-9.73057E-03,	2.73271E+02,	2.63367E+03,	-8.02885E+03,	0.00000E+00,	0,	0
  1.00446E-01,	1.00000E+01,	-9.73057E-03,	2.94160E+02,	3.29458E+03,	-9.36261E+03,	0.00000E+00,	0,	0