Z60W Data File: Version 1.1
CorrTest for Windows: SN CS310H1805157  V5.2.1111.9  2.5H6.220118
Sweep Frequency: Control Voltage
  Date:4-27-2026   Time:17:43:53
  Begin Information:            Cell Information
      Surface Area:           1
      Density:                7.8
      Weight:                 28
  End Information:              Cell Information
  Freq (Hz)     Ampl(mV)       Bias(V)      Time(Sec)       Z'(Ohm.cm^2)    Z''(Ohm.cm^2)        GD       Err      Range
End Comments
  1.02857E+03,	1.00000E+01,	-2.44353E-02,	6.50080E-02,	4.50814E+03,	-1.69054E+02,	0.00000E+00,	0,	0
  8.30769E+02,	1.00000E+01,	-2.44353E-02,	4.30295E+00,	4.56051E+03,	-1.76453E+02,	0.00000E+00,	0,	0
  6.96774E+02,	1.00000E+01,	-2.44353E-02,	5.67090E+00,	4.57156E+03,	-1.61475E+02,	0.00000E+00,	0,	0
  5.68421E+02,	1.00000E+01,	-2.44353E-02,	7.04525E+00,	4.57970E+03,	-1.49338E+02,	0.00000E+00,	0,	0
  4.59574E+02,	1.00000E+01,	-2.44353E-02,	8.45984E+00,	4.59305E+03,	-1.39626E+02,	0.00000E+00,	0,	0
  3.78947E+02,	1.00000E+01,	-2.44353E-02,	9.92092E+00,	4.60119E+03,	-1.41758E+02,	0.00000E+00,	0,	0
  3.13043E+02,	1.00000E+01,	-2.44353E-02,	1.24079E+01,	4.61331E+03,	-1.42417E+02,	0.00000E+00,	0,	0
  2.54118E+02,	1.00000E+01,	-2.44353E-02,	1.51290E+01,	4.63104E+03,	-1.50072E+02,	0.00000E+00,	0,	0
  2.09709E+02,	1.00000E+01,	-2.44353E-02,	1.81469E+01,	4.64824E+03,	-1.65621E+02,	0.00000E+00,	0,	0
  1.71429E+02,	1.00000E+01,	-2.44353E-02,	2.15051E+01,	4.66401E+03,	-1.79039E+02,	0.00000E+00,	0,	0
  1.41176E+02,	1.00000E+01,	-2.44353E-02,	2.51014E+01,	4.68451E+03,	-2.00680E+02,	0.00000E+00,	0,	0
  1.16129E+02,	1.00000E+01,	-2.44353E-02,	2.90481E+01,	4.70970E+03,	-2.30464E+02,	0.00000E+00,	0,	0
  9.64286E+01,	1.00000E+01,	-2.44353E-02,	3.44659E+01,	4.74433E+03,	-2.62571E+02,	0.00000E+00,	0,	0
  7.94118E+01,	1.00000E+01,	-2.44353E-02,	3.91470E+01,	4.78601E+03,	-3.09102E+02,	0.00000E+00,	0,	0
  6.50602E+01,	1.00000E+01,	-2.44353E-02,	4.42624E+01,	4.85341E+03,	-3.68009E+02,	0.00000E+00,	0,	0
  5.29412E+01,	1.00000E+01,	-2.44353E-02,	4.97742E+01,	4.82495E+03,	-3.82609E+02,	0.00000E+00,	0,	0
  4.35484E+01,	1.00000E+01,	-2.44353E-02,	5.32992E+01,	4.86070E+03,	-4.47742E+02,	0.00000E+00,	0,	0
  3.57616E+01,	1.00000E+01,	-2.44353E-02,	5.69934E+01,	4.87241E+03,	-5.47634E+02,	0.00000E+00,	0,	0
  2.95082E+01,	1.00000E+01,	-2.44353E-02,	6.08803E+01,	4.94042E+03,	-6.27519E+02,	0.00000E+00,	0,	0
  2.42152E+01,	1.00000E+01,	-2.44353E-02,	6.47650E+01,	5.00224E+03,	-7.27536E+02,	0.00000E+00,	0,	0
  2.04545E+01,	1.00000E+01,	-2.44353E-02,	6.86126E+01,	5.05993E+03,	-8.26498E+02,	0.00000E+00,	0,	0
  1.66667E+01,	1.00000E+01,	-2.44353E-02,	7.21244E+01,	5.13202E+03,	-9.67042E+02,	0.00000E+00,	0,	0
  1.36364E+01,	1.00000E+01,	-2.44353E-02,	7.71980E+01,	5.21797E+03,	-1.12925E+03,	0.00000E+00,	0,	0
  1.12500E+01,	1.00000E+01,	-2.44353E-02,	8.07436E+01,	5.30559E+03,	-1.30871E+03,	0.00000E+00,	0,	0
  9.18367E+00,	1.00000E+01,	-2.44353E-02,	8.48844E+01,	5.41051E+03,	-1.52662E+03,	0.00000E+00,	0,	0
  7.50000E+00,	1.00000E+01,	-2.44353E-02,	8.72290E+01,	5.52688E+03,	-1.78310E+03,	0.00000E+00,	0,	0
  6.16438E+00,	1.00000E+01,	-2.44353E-02,	8.98824E+01,	5.65426E+03,	-2.07026E+03,	0.00000E+00,	0,	0
  5.05618E+00,	1.00000E+01,	-2.44353E-02,	9.30417E+01,	5.79996E+03,	-2.40887E+03,	0.00000E+00,	0,	0
  4.16667E+00,	1.00000E+01,	-2.44353E-02,	9.65160E+01,	5.96651E+03,	-2.78681E+03,	0.00000E+00,	0,	0
  3.40909E+00,	1.00000E+01,	-2.44353E-02,	1.00554E+02,	6.15936E+03,	-3.24722E+03,	0.00000E+00,	0,	0
  2.81250E+00,	1.00000E+01,	-2.44353E-02,	1.04293E+02,	6.36555E+03,	-3.75997E+03,	0.00000E+00,	0,	0
  2.30769E+00,	1.00000E+01,	-2.44353E-02,	1.08666E+02,	6.61065E+03,	-4.37242E+03,	0.00000E+00,	0,	0
  1.89076E+00,	1.00000E+01,	-2.44353E-02,	1.13792E+02,	6.88807E+03,	-5.10169E+03,	0.00000E+00,	0,	0
  1.56250E+00,	1.00000E+01,	-2.44353E-02,	1.17410E+02,	7.17456E+03,	-5.91008E+03,	0.00000E+00,	0,	0
  1.27841E+00,	1.00000E+01,	-2.44353E-02,	1.21665E+02,	7.51780E+03,	-6.91491E+03,	0.00000E+00,	0,	0
  1.05140E+00,	1.00000E+01,	-2.44353E-02,	1.26018E+02,	7.92681E+03,	-8.06208E+03,	0.00000E+00,	0,	0
  8.65385E-01,	1.00000E+01,	-2.44353E-02,	1.36484E+02,	8.36409E+03,	-9.41713E+03,	0.00000E+00,	0,	0
  7.12025E-01,	1.00000E+01,	-2.44353E-02,	1.40799E+02,	8.83408E+03,	-1.09687E+04,	0.00000E+00,	0,	0
  5.85938E-01,	1.00000E+01,	-2.44353E-02,	1.45289E+02,	9.22566E+03,	-1.31167E+04,	0.00000E+00,	0,	0
  4.80769E-01,	1.00000E+01,	-2.44353E-02,	1.50547E+02,	9.89453E+03,	-1.53803E+04,	0.00000E+00,	0,	0
  3.96127E-01,	1.00000E+01,	-2.44353E-02,	1.56495E+02,	1.08726E+04,	-1.84481E+04,	0.00000E+00,	0,	0
  3.25144E-01,	1.00000E+01,	-2.44353E-02,	1.63550E+02,	1.17713E+04,	-2.16110E+04,	0.00000E+00,	0,	0
  2.66588E-01,	1.00000E+01,	-2.44353E-02,	1.71965E+02,	1.28194E+04,	-2.54540E+04,	0.00000E+00,	0,	0
  2.19298E-01,	1.00000E+01,	-2.44353E-02,	1.82023E+02,	1.40272E+04,	-2.99332E+04,	0.00000E+00,	0,	0
  1.80288E-01,	1.00000E+01,	-2.44353E-02,	1.94055E+02,	1.54605E+04,	-3.52534E+04,	0.00000E+00,	0,	0
  1.48221E-01,	1.00000E+01,	-2.44353E-02,	2.08683E+02,	1.71645E+04,	-4.15660E+04,	0.00000E+00,	0,	0
  1.21753E-01,	1.00000E+01,	-2.44353E-02,	2.26055E+02,	1.92065E+04,	-4.91986E+04,	0.00000E+00,	0,	0
  1.00446E-01,	1.00000E+01,	-2.44353E-02,	2.46969E+02,	2.16069E+04,	-5.78295E+04,	0.00000E+00,	0,	0