Z60W Data File: Version 1.1
CorrTest for Windows: SN CS310H1805157  V5.2.1111.9  2.5H6.220118
Sweep Frequency: Control Voltage
  Date:4-27-2026   Time:15:55:17
  Begin Information:            Cell Information
      Surface Area:           1
      Density:                7.8
      Weight:                 28
  End Information:              Cell Information
  Freq (Hz)     Ampl(mV)       Bias(V)      Time(Sec)       Z'(Ohm.cm^2)    Z''(Ohm.cm^2)        GD       Err      Range
End Comments
  3.07200E+05,	1.00000E+01,	-1.66295E-02,	5.85381E-02,	1.05705E+02,	3.72705E+01,	0.00000E+00,	0,	0
  2.76480E+05,	1.00000E+01,	-1.66295E-02,	1.67270E+00,	1.03184E+02,	3.32634E+01,	0.00000E+00,	0,	0
  2.30400E+05,	1.00000E+01,	-1.66295E-02,	2.61326E+00,	1.00995E+02,	2.83847E+01,	0.00000E+00,	0,	0
  1.72800E+05,	1.00000E+01,	-1.66295E-02,	3.51086E+00,	9.88440E+01,	2.07853E+01,	0.00000E+00,	0,	0
  1.53600E+05,	1.00000E+01,	-1.66295E-02,	4.40913E+00,	9.79132E+01,	1.85646E+01,	0.00000E+00,	0,	0
  1.15200E+05,	1.00000E+01,	-1.66295E-02,	5.32430E+00,	9.67908E+01,	1.36576E+01,	0.00000E+00,	0,	0
  9.87429E+04,	1.00000E+01,	-1.66295E-02,	6.22643E+00,	9.65888E+01,	1.14281E+01,	0.00000E+00,	0,	0
  8.13176E+04,	1.00000E+01,	-1.66295E-02,	7.16120E+00,	9.63970E+01,	9.15668E+00,	0.00000E+00,	0,	0
  6.58286E+04,	1.00000E+01,	-1.66295E-02,	8.09935E+00,	9.66224E+01,	7.00059E+00,	0.00000E+00,	0,	0
  5.31692E+04,	1.00000E+01,	-1.66295E-02,	9.18978E+00,	9.65966E+01,	5.58656E+00,	0.00000E+00,	0,	0
  4.60800E+04,	1.00000E+01,	-1.66295E-02,	1.07544E+01,	9.61902E+01,	4.33969E+00,	0.00000E+00,	0,	0
  3.63789E+04,	1.00000E+01,	-1.66295E-02,	1.17004E+01,	9.63633E+01,	3.39383E+00,	0.00000E+00,	0,	0
  3.00522E+04,	1.00000E+01,	-1.66295E-02,	1.25463E+01,	9.52574E+01,	2.41627E+00,	0.00000E+00,	0,	0
  2.46857E+04,	1.00000E+01,	-1.66295E-02,	1.33947E+01,	9.64670E+01,	1.79269E+00,	0.00000E+00,	0,	0
  2.03294E+04,	1.00000E+01,	-1.66295E-02,	1.43397E+01,	9.64739E+01,	1.03627E+00,	0.00000E+00,	0,	0
  1.64571E+04,	1.00000E+01,	-1.66295E-02,	1.52882E+01,	9.63748E+01,	3.00024E-01,	0.00000E+00,	0,	0
  1.35529E+04,	1.00000E+01,	-1.66295E-02,	1.61267E+01,	9.67204E+01,	-3.08077E-01,	0.00000E+00,	0,	0
  1.11484E+04,	1.00000E+01,	-1.66295E-02,	1.70591E+01,	9.65408E+01,	-9.13640E-01,	0.00000E+00,	0,	0
  9.60000E+03,	1.00000E+01,	-1.66295E-02,	1.87194E+01,	9.68385E+01,	-1.42188E+00,	0.00000E+00,	0,	0
  7.85455E+03,	1.00000E+01,	-1.66295E-02,	1.96539E+01,	9.69189E+01,	-2.12765E+00,	0.00000E+00,	0,	0
  6.40000E+03,	1.00000E+01,	-1.66295E-02,	2.06126E+01,	9.72411E+01,	-2.96951E+00,	0.00000E+00,	0,	0
  5.23636E+03,	1.00000E+01,	-1.66295E-02,	2.15627E+01,	9.73856E+01,	-3.45437E+00,	0.00000E+00,	0,	0
  4.32000E+03,	1.00000E+01,	-1.66295E-02,	2.24651E+01,	9.75800E+01,	-4.18685E+00,	0.00000E+00,	0,	0
  3.52653E+03,	1.00000E+01,	-1.66295E-02,	2.34783E+01,	9.80378E+01,	-5.16125E+00,	0.00000E+00,	0,	0
  2.88000E+03,	1.00000E+01,	-1.66295E-02,	2.43814E+01,	9.82383E+01,	-6.55499E+00,	0.00000E+00,	0,	0
  2.36712E+03,	1.00000E+01,	-1.66295E-02,	2.54069E+01,	9.82306E+01,	-7.63825E+00,	0.00000E+00,	0,	0
  1.96364E+03,	1.00000E+01,	-1.66295E-02,	2.62018E+01,	9.85056E+01,	-9.07184E+00,	0.00000E+00,	0,	0
  1.61495E+03,	1.00000E+01,	-1.66295E-02,	2.71084E+01,	9.94646E+01,	-1.06286E+01,	0.00000E+00,	0,	0
  1.32923E+03,	1.00000E+01,	-1.66295E-02,	2.80693E+01,	9.97032E+01,	-1.29197E+01,	0.00000E+00,	0,	0
  1.09367E+03,	1.00000E+01,	-1.66295E-02,	2.91211E+01,	1.01147E+02,	-1.45706E+01,	0.00000E+00,	0,	0
  9.00000E+02,	1.00000E+01,	-1.66295E-02,	3.41380E+01,	1.01866E+02,	-1.73089E+01,	0.00000E+00,	0,	0
  7.44828E+02,	1.00000E+01,	-1.66295E-02,	3.55010E+01,	1.02862E+02,	-2.01701E+01,	0.00000E+00,	0,	0
  6.17143E+02,	1.00000E+01,	-1.66295E-02,	3.68769E+01,	1.04129E+02,	-2.34138E+01,	0.00000E+00,	0,	0
  5.14286E+02,	1.00000E+01,	-1.66295E-02,	3.82693E+01,	1.05496E+02,	-2.70092E+01,	0.00000E+00,	0,	0
  4.15385E+02,	1.00000E+01,	-1.66295E-02,	3.96432E+01,	1.07451E+02,	-3.18427E+01,	0.00000E+00,	0,	0
  3.42857E+02,	1.00000E+01,	-1.66295E-02,	4.20790E+01,	1.09358E+02,	-3.68291E+01,	0.00000E+00,	0,	0
  2.84211E+02,	1.00000E+01,	-1.66295E-02,	4.65085E+01,	1.11838E+02,	-4.25385E+01,	0.00000E+00,	0,	0
  2.32258E+02,	1.00000E+01,	-1.66295E-02,	4.94075E+01,	1.14601E+02,	-4.95487E+01,	0.00000E+00,	0,	0
  1.91150E+02,	1.00000E+01,	-1.66295E-02,	5.25446E+01,	1.17674E+02,	-5.73090E+01,	0.00000E+00,	0,	0
  1.57664E+02,	1.00000E+01,	-1.66295E-02,	5.59650E+01,	1.21086E+02,	-6.63051E+01,	0.00000E+00,	0,	0
  1.30120E+02,	1.00000E+01,	-1.66295E-02,	5.97216E+01,	1.24897E+02,	-7.66289E+01,	0.00000E+00,	0,	0
  1.06931E+02,	1.00000E+01,	-1.66295E-02,	6.38089E+01,	1.29274E+02,	-8.89924E+01,	0.00000E+00,	0,	0
  8.85246E+01,	1.00000E+01,	-1.66295E-02,	6.94646E+01,	1.34058E+02,	-1.02966E+02,	0.00000E+00,	0,	0
  7.29730E+01,	1.00000E+01,	-1.66295E-02,	7.42963E+01,	1.39753E+02,	-1.20043E+02,	0.00000E+00,	0,	0
  6.00000E+01,	1.00000E+01,	-1.66295E-02,	7.95431E+01,	1.45288E+02,	-1.37403E+02,	0.00000E+00,	0,	0
  4.95413E+01,	1.00000E+01,	-1.66295E-02,	8.52711E+01,	1.52015E+02,	-1.59615E+02,	0.00000E+00,	0,	0
  4.06015E+01,	1.00000E+01,	-1.66295E-02,	8.89042E+01,	1.60015E+02,	-1.86840E+02,	0.00000E+00,	0,	0
  3.35404E+01,	1.00000E+01,	-1.66295E-02,	9.26746E+01,	1.67050E+02,	-2.17761E+02,	0.00000E+00,	0,	0
  2.75510E+01,	1.00000E+01,	-1.66295E-02,	9.65336E+01,	1.78050E+02,	-2.55820E+02,	0.00000E+00,	0,	0
  2.26891E+01,	1.00000E+01,	-1.66295E-02,	9.95155E+01,	1.89935E+02,	-2.99799E+02,	0.00000E+00,	0,	0
  1.87500E+01,	1.00000E+01,	-1.66295E-02,	1.03202E+02,	2.03374E+02,	-3.50729E+02,	0.00000E+00,	0,	0
  1.55172E+01,	1.00000E+01,	-1.66295E-02,	1.08732E+02,	2.18498E+02,	-4.10441E+02,	0.00000E+00,	0,	0
  1.28571E+01,	1.00000E+01,	-1.66295E-02,	1.13378E+02,	2.36157E+02,	-4.79880E+02,	0.00000E+00,	0,	0
  1.04651E+01,	1.00000E+01,	-1.66295E-02,	1.16080E+02,	2.58408E+02,	-5.70241E+02,	0.00000E+00,	0,	0
  8.65385E+00,	1.00000E+01,	-1.66295E-02,	1.20344E+02,	2.83150E+02,	-6.68931E+02,	0.00000E+00,	0,	0
  7.14286E+00,	1.00000E+01,	-1.66295E-02,	1.22743E+02,	3.12887E+02,	-7.87081E+02,	0.00000E+00,	0,	0
  5.84416E+00,	1.00000E+01,	-1.66295E-02,	1.25514E+02,	3.49359E+02,	-9.32886E+02,	0.00000E+00,	0,	0
  4.83871E+00,	1.00000E+01,	-1.66295E-02,	1.28692E+02,	3.91383E+02,	-1.09499E+03,	0.00000E+00,	0,	0
  3.98230E+00,	1.00000E+01,	-1.66295E-02,	1.32300E+02,	4.42891E+02,	-1.29199E+03,	0.00000E+00,	0,	0
  3.28467E+00,	1.00000E+01,	-1.66295E-02,	1.36465E+02,	5.04847E+02,	-1.52147E+03,	0.00000E+00,	0,	0
  2.69461E+00,	1.00000E+01,	-1.66295E-02,	1.40369E+02,	5.82278E+02,	-1.79824E+03,	0.00000E+00,	0,	0
  2.22772E+00,	1.00000E+01,	-1.66295E-02,	1.44873E+02,	6.72903E+02,	-2.11072E+03,	0.00000E+00,	0,	0
  1.82927E+00,	1.00000E+01,	-1.66295E-02,	1.50222E+02,	7.87088E+02,	-2.48913E+03,	0.00000E+00,	0,	0
  1.51007E+00,	1.00000E+01,	-1.66295E-02,	1.57165E+02,	9.21822E+02,	-2.91857E+03,	0.00000E+00,	0,	0
  1.24309E+00,	1.00000E+01,	-1.66295E-02,	1.61481E+02,	1.09069E+03,	-3.42493E+03,	0.00000E+00,	0,	0
  1.02273E+00,	1.00000E+01,	-1.66295E-02,	1.65906E+02,	1.29980E+03,	-4.02214E+03,	0.00000E+00,	0,	0
  8.45865E-01,	1.00000E+01,	-1.66295E-02,	1.72734E+02,	1.53982E+03,	-4.67738E+03,	0.00000E+00,	0,	0
  6.94444E-01,	1.00000E+01,	-1.66295E-02,	1.77121E+02,	1.84554E+03,	-5.47413E+03,	0.00000E+00,	0,	0
  5.73980E-01,	1.00000E+01,	-1.66295E-02,	1.81665E+02,	2.12538E+03,	-6.37339E+03,	0.00000E+00,	0,	0
  4.72689E-01,	1.00000E+01,	-1.66295E-02,	1.87015E+02,	2.54492E+03,	-7.41170E+03,	0.00000E+00,	0,	0
  3.90625E-01,	1.00000E+01,	-1.66295E-02,	1.93049E+02,	3.02616E+03,	-8.67263E+03,	0.00000E+00,	0,	0
  3.21429E-01,	1.00000E+01,	-1.66295E-02,	2.00299E+02,	3.60409E+03,	-1.00316E+04,	0.00000E+00,	0,	0
  2.64085E-01,	1.00000E+01,	-1.66295E-02,	2.17767E+02,	4.28939E+03,	-1.14137E+04,	0.00000E+00,	0,	0
  2.18023E-01,	1.00000E+01,	-1.66295E-02,	2.27852E+02,	4.83988E+03,	-1.35478E+04,	0.00000E+00,	0,	0
  1.79426E-01,	1.00000E+01,	-1.66295E-02,	2.39933E+02,	5.72155E+03,	-1.54197E+04,	0.00000E+00,	0,	0
  1.47638E-01,	1.00000E+01,	-1.66295E-02,	2.54408E+02,	6.57834E+03,	-1.78152E+04,	0.00000E+00,	0,	0
  1.21753E-01,	1.00000E+01,	-1.66295E-02,	2.71766E+02,	7.50345E+03,	-2.05787E+04,	0.00000E+00,	0,	0
  1.00446E-01,	1.00000E+01,	-1.66295E-02,	2.92632E+02,	8.50546E+03,	-2.38129E+04,	0.00000E+00,	0,	0