EXPLAIN
TAG	EISPOT
TITLE	LABEL	Potentiostatic EIS	Test Identifier
DATE	LABEL	8/5/2020	Date
TIME	LABEL	19:22:28	Time
NOTES	NOTES	1	Notes...
	
PSTAT	PSTAT	REF3000-16137	Potentiostat
VDC	POTEN	0.00000E+000	T	DC Voltage (V)
FREQINIT	QUANT	3.00000E+005	Initial Freq. (Hz)
FREQFINAL	QUANT	1.00000E+000	Final Freq. (Hz)
PTSPERDEC	QUANT	1.00000E+001	Points/decade
VAC	QUANT	5.00000E+001	AC Voltage (mV rms)
AREA	QUANT	1.00000E+000	Sample Area (cm^2)
SPEED	SELECTOR	2	Optimize for:
ZGUESS	QUANT	1.00000E+003	Estimated Z (ohms)
EOC	QUANT	0	Open Circuit (V)
SEQUENCER	TOGGLE	TRUE	Run as Sequence
PSTATMODEL	IQUANT	5	Pstat Model
PSTATSECTION	LABEL	REF3000-16137	Pstat Section
PSTATSERIALNO	LABEL	16137	Pstat Serial Number
CTRLMODE	IQUANT	1	Control Mode
IESTAB	IQUANT	0	I/E Stability
CASPEED	IQUANT	1	Control Amp Speed
CONVENTION	IQUANT	1	Current Convention
ICHRANGE	IQUANT	2	Ich Range
ICHRANGEMODE	TOGGLE	F	Ich Auto Range
ICHOFFSETENABLE	TOGGLE	T	Ich Offset Enable
ICHOFFSET	QUANT	0	Ich Offset (V)
ICHFILTER	IQUANT	3	Ich Filter
VCHRANGE	IQUANT	2	Vch Range
VCHRANGEMODE	TOGGLE	F	Vch Auto Range
VCHOFFSETENABLE	TOGGLE	T	Vch Offset Enable
VCHOFFSET	QUANT	0	Vch Offset (V)
VCHFILTER	IQUANT	3	Vch Filter
ACHRANGE	IQUANT	2	Ach Range
ACHOFFSETENABLE	TOGGLE	F	Ach Offset Enable
ACHOFFSET	QUANT	0	Ach Offset (V)
ACHFILTER	IQUANT	3	Ach Filter
IERANGELOWERLIMIT	IQUANT	2	I/E Range Lower Limit
IERANGEMODE	TOGGLE	F	I/E AutoRange
IERANGE	IQUANT	11	I/E Range
POSFEEDENABLE	TOGGLE	F	Positive Feedback IR Comp
POSFEEDRESISTANCE	QUANT	0	Positive Feedback Resistance (ohm)
ACHSELECT	IQUANT	0	Ach Select
CABLEID	IQUANT	13	Cable ID
DCCALDATE	LABEL	7/31/2020	DC Calibration Date
ACCALDATE	LABEL	7/31/2020	AC Calibration Date
THERMOSELECT	IQUANT	1	Thermo Select
FRAMEWORKVERSION	QUANT	6.33	Framework Version
INSTRUMENTVERSION	LABEL	3.50	Instrument Version
COMPLIANCEVOLTAGE	IQUANT	0	Compliance Voltage
ZCURVE	TABLE
	Pt	Time	Freq	Zreal	Zimag	Zsig	Zmod	Zphz	Idc	Vdc	IERange
	#	s	Hz	ohm	ohm	V	ohm	°	A	V	#
	0	7	300046.9	106.39	-0.1999056	1	106.3902	-0.107658	-9.944505E-007	0.0009679	9
	1	10	238359.4	108.5329	-0.453342	1	108.5339	-0.239323	7.419925E-006	-0.0016744	9
	2	13	189328.1	110.3072	-0.6486294	1	110.3091	-0.3369074	-1.403074E-005	0.0008021	9
	3	16	150421.9	112.2545	-0.4752366	1	112.2555	-0.2425639	7.056652E-005	-0.0015979	9
	4	19	119484.4	114.133	-0.6138518	1	114.1347	-0.308156	1.597112E-005	-0.001385	9
	5	21	94921.88	115.7785	-0.3665418	1	115.779	-0.1813915	-6.267146E-006	0.0007358	9
	6	24	75421.88	117.5792	-0.4823843	1	117.5802	-0.2350622	-1.961196E-005	0.0004978	9
	7	27	59859.37	119.347	-0.5632375	1	119.3483	-0.2703956	2.066457E-005	-0.0001754	9
	8	29	47578.12	121.16	-0.6384114	1	121.1617	-0.3018977	-1.379283E-005	0.0008388	9
	9	32	37828.12	122.978	-0.6216114	1	122.9796	-0.2896079	2.097368E-005	-0.0007373	9
	10	34	30046.88	124.8875	-0.7067299	1	124.8895	-0.3242296	-1.811607E-005	0.0002325	9
	11	37	23859.38	126.6903	-0.8307083	1	126.693	-0.3756832	-1.898689E-005	0.0008679	9
	12	39	18984.38	128.5002	-0.9433807	1	128.5037	-0.4206278	-2.051302E-005	0.0004952	9
	13	41	15046.87	130.4417	-1.08472	1	130.4462	-0.4764463	-6.289645E-006	0.0008176	9
	14	44	11953.13	132.188	-1.338651	1	132.1948	-0.5802073	-2.132647E-005	0.0006378	9
	15	46	9515.62	134.1059	-1.554543	1	134.1149	-0.6641379	2.739894E-005	-0.0006128	9
	16	48	7546.875	136.224	-1.963076	1	136.2381	-0.8256122	-1.059054E-006	-0.0003255	9
	17	51	5928.309	138.2202	-2.267173	1	138.2388	-0.9397164	-1.403503E-005	0.0009187	9
	18	53	4733.456	140.1812	-2.781763	1	140.2088	-1.136831	-1.299502E-006	-0.0003022	9
	19	55	3796.875	142.4383	-3.420944	1	142.4794	-1.375809	-2.081073E-005	0.0005479	9
	20	58	2987.132	144.5629	-4.08863	1	144.6207	-1.620048	-1.416291E-005	0.0009234	9
	21	60	2390.625	146.8844	-5.05454	1	146.9714	-1.970866	-2.221991E-005	0.0006523	9
	22	62	1884.191	149.1621	-6.335654	1	149.2966	-2.432173	1.549671E-005	-0.0007114	9
	23	64	1516.544	151.7395	-7.871633	1	151.9436	-2.969611	-1.794721E-005	0.0003758	9
	24	67	1193.986	154.4875	-9.56068	1	154.7831	-3.541315	-6.611678E-006	0.0008134	9
	25	69	946.5144	156.9316	-11.86892	1	157.3798	-4.325111	-2.009985E-005	0.0009176	9
	26	72	751.7689	159.6868	-14.47628	1	160.3416	-5.179946	-6.961648E-006	0.0008135	9
	27	74	597.4265	162.3931	-18.05388	1	163.3936	-6.343747	2.245075E-005	-0.0007835	9
	28	76	477.4305	165.1851	-22.20692	1	166.6711	-7.656744	1.756264E-006	8.315843E-005	9
	29	79	376.6741	168.252	-27.63034	1	170.5056	-9.325875	1.826397E-006	7.74813E-005	9
	30	81	298.2954	171.4933	-34.27777	1	174.8854	-11.30322	1.800964E-006	8.176954E-005	9
	31	83	237.7717	175.0517	-42.28124	1	180.0856	-13.5789	1.803024E-006	8.093421E-005	9
	32	86	189.0121	178.9179	-52.29865	1	186.4048	-16.29392	1.671213E-006	8.434102E-005	9
	33	88	150.2404	183.1795	-64.69347	1	194.2678	-19.45168	1.739534E-006	7.726425E-005	9
	34	91	119.1737	187.8715	-80.18241	1	204.2668	-23.1125	1.767104E-006	7.756383E-005	9
	35	93	95.0169	193.0813	-98.8977	1	216.9357	-27.12187	1.822554E-006	7.314409E-005	9
	36	95	75.60484	199.1372	-122.191	1	233.637	-31.53336	1.856179E-006	7.290777E-005	9
	37	98	54.50582	208.0799	-165.2413	1	265.7103	-38.45395	1.856647E-006	6.995663E-005	9
	38	100	45.95588	214.9882	-193.5672	1	289.2891	-41.99867	1.89168E-006	7.722819E-005	9
	39	103	37.20238	223.7894	-235.2182	1	324.668	-46.4263	1.844614E-006	7.697806E-005	9
	40	105	30.04808	234.2199	-286.3871	1	369.9683	-50.72219	1.916886E-006	7.066942E-005	9
	41	108	23.91582	246.1654	-351.8687	1	429.4287	-55.02357	7.87912E-008	0.0006374	8
	42	110	18.60119	262.8938	-443.2199	1	515.3223	-59.3259	1.708935E-007	0.0006523	8
	43	112	15.02404	280.8718	-539.0372	1	607.824	-62.47769	7.5068E-008	0.0006515	8
	44	115	12.01923	303.4372	-661.4511	1	727.7305	-65.35696	1.49034E-007	0.0006545	8
	45	117	9.450605	333.217	-824.1132	1	888.9298	-67.98484	8.507131E-008	0.0006436	8
	46	120	7.512019	368.4293	-1016.195	1	1080.922	-70.0715	4.916092E-008	0.000637	8
	47	122	5.978954	412.6794	-1251.171	1	1317.473	-71.74567	1.018554E-007	0.0006606	8
	48	125	4.734848	468.2627	-1548.22	1	1617.484	-73.17194	5.109626E-008	0.0006417	8
	49	128	3.75601	537.2045	-1910.093	1	1984.198	-74.29161	1.232836E-007	0.0006572	8
	50	132	3.004808	619.1649	-2336.896	1	2417.53	-75.16035	6.600865E-008	0.0006844	8
	51	136	2.372217	724.883	-2895.975	1	2985.318	-75.9472	7.45985E-008	0.0007216	8
	52	140	1.878005	855.959	-3577.275	1	3678.256	-76.54345	6.469602E-008	0.0006287	8
	53	145	1.512097	1012.687	-4358.823	1	4474.916	-76.92049	6.467896E-009	0.0007114	7
	54	150	1.201923	1200.846	-5382.215	1	5514.551	-77.42253	-2.938643E-009	0.0006046	7
	55	156	0.956633	1433.453	-6630.326	1	6783.51	-77.80061	-1.576284E-008	-1.497931E-005	7
