EXPLAIN
TAG	EISPOT
TITLE	LABEL	Potentiostatic EIS	Test Identifier
DATE	LABEL	8/5/2020	Date
TIME	LABEL	19:05:49	Time
NOTES	NOTES	1	Notes...
	
PSTAT	PSTAT	REF3000-16137	Potentiostat
VDC	POTEN	0.00000E+000	T	DC Voltage (V)
FREQINIT	QUANT	3.00000E+005	Initial Freq. (Hz)
FREQFINAL	QUANT	1.00000E+000	Final Freq. (Hz)
PTSPERDEC	QUANT	1.00000E+001	Points/decade
VAC	QUANT	5.00000E+001	AC Voltage (mV rms)
AREA	QUANT	1.00000E+000	Sample Area (cm^2)
SPEED	SELECTOR	2	Optimize for:
ZGUESS	QUANT	1.00000E+003	Estimated Z (ohms)
EOC	QUANT	0	Open Circuit (V)
SEQUENCER	TOGGLE	TRUE	Run as Sequence
PSTATMODEL	IQUANT	5	Pstat Model
PSTATSECTION	LABEL	REF3000-16137	Pstat Section
PSTATSERIALNO	LABEL	16137	Pstat Serial Number
CTRLMODE	IQUANT	1	Control Mode
IESTAB	IQUANT	0	I/E Stability
CASPEED	IQUANT	1	Control Amp Speed
CONVENTION	IQUANT	1	Current Convention
ICHRANGE	IQUANT	2	Ich Range
ICHRANGEMODE	TOGGLE	F	Ich Auto Range
ICHOFFSETENABLE	TOGGLE	T	Ich Offset Enable
ICHOFFSET	QUANT	0	Ich Offset (V)
ICHFILTER	IQUANT	3	Ich Filter
VCHRANGE	IQUANT	2	Vch Range
VCHRANGEMODE	TOGGLE	F	Vch Auto Range
VCHOFFSETENABLE	TOGGLE	T	Vch Offset Enable
VCHOFFSET	QUANT	0	Vch Offset (V)
VCHFILTER	IQUANT	3	Vch Filter
ACHRANGE	IQUANT	2	Ach Range
ACHOFFSETENABLE	TOGGLE	F	Ach Offset Enable
ACHOFFSET	QUANT	0	Ach Offset (V)
ACHFILTER	IQUANT	3	Ach Filter
IERANGELOWERLIMIT	IQUANT	2	I/E Range Lower Limit
IERANGEMODE	TOGGLE	F	I/E AutoRange
IERANGE	IQUANT	11	I/E Range
POSFEEDENABLE	TOGGLE	F	Positive Feedback IR Comp
POSFEEDRESISTANCE	QUANT	0	Positive Feedback Resistance (ohm)
ACHSELECT	IQUANT	0	Ach Select
CABLEID	IQUANT	13	Cable ID
DCCALDATE	LABEL	7/31/2020	DC Calibration Date
ACCALDATE	LABEL	7/31/2020	AC Calibration Date
THERMOSELECT	IQUANT	1	Thermo Select
FRAMEWORKVERSION	QUANT	6.33	Framework Version
INSTRUMENTVERSION	LABEL	3.50	Instrument Version
COMPLIANCEVOLTAGE	IQUANT	0	Compliance Voltage
ZCURVE	TABLE
	Pt	Time	Freq	Zreal	Zimag	Zsig	Zmod	Zphz	Idc	Vdc	IERange
	#	s	Hz	ohm	ohm	V	ohm	°	A	V	#
	0	10	300046.9	6.275383	0.7469784	1	6.319685	6.788155	4.178525E-005	0.0002283	10
	1	13	238359.4	6.42404	0.4611211	1	6.440569	4.10568	-2.955889E-005	-5.193031E-005	10
	2	16	189328.1	6.581272	0.2090361	1	6.584591	1.819232	2.039747E-005	0.0002112	10
	3	19	150421.9	6.74831	0.0077995	1	6.748314	0.0662208	-1.408046E-005	0.0004668	10
	4	22	119484.4	6.91976	-0.1676957	1	6.921792	-1.388252	6.281916E-005	0.0004564	10
	5	24	94921.88	7.113101	-0.2818891	1	7.118684	-2.269419	2.750432E-005	0.0005672	10
	6	27	75421.88	7.259939	-0.3837625	1	7.270075	-3.025856	2.494899E-005	0.000591	10
	7	29	59859.37	7.414833	-0.4638441	1	7.429327	-3.579545	-3.118981E-005	0.0006181	10
	8	32	47578.12	7.565721	-0.5224634	1	7.583739	-3.950383	2.325301E-005	0.0006103	10
	9	34	37828.12	7.737318	-0.5752945	1	7.758676	-4.252301	-9.359995E-007	0.0006878	10
	10	37	30046.88	7.878722	-0.616559	1	7.90281	-4.474632	1.393035E-005	0.0006263	10
	11	39	23859.38	8.013095	-0.663089	1	8.040483	-4.730486	-2.971884E-005	0.0007113	10
	12	42	18984.38	8.137451	-0.7202464	1	8.169264	-5.058073	2.237532E-005	0.000644	10
	13	44	15046.87	8.262731	-0.7969949	1	8.30108	-5.509512	2.316668E-005	0.0006328	10
	14	46	11953.13	8.423627	-0.9036453	1	8.471957	-6.122994	-2.228744E-005	0.0007456	10
	15	49	9515.62	8.60923	-1.043577	1	8.672249	-6.911447	1.78046E-005	0.0006278	10
	16	51	7546.875	8.782409	-1.223813	1	8.867267	-7.932983	7.086734E-006	0.0006462	10
	17	53	5928.309	9.003468	-1.469391	1	9.122584	-9.269111	-2.759638E-005	0.0006922	10
	18	56	4733.456	9.228039	-1.759035	1	9.394196	-10.79216	-2.739486E-005	0.0006886	10
	19	58	3796.875	9.499713	-2.11645	1	9.73262	-12.55986	2.482509E-005	0.0006427	10
	20	60	2987.132	9.87996	-2.603091	1	10.21713	-14.76039	2.255807E-005	0.0006599	10
	21	62	2390.625	10.27034	-3.169112	1	10.74817	-17.14863	-5.751406E-006	0.0006328	10
	22	65	1884.191	10.67659	-3.915855	1	11.37205	-20.14153	-2.090877E-005	0.0006927	10
	23	67	1516.544	11.12355	-4.759765	1	12.09912	-23.16607	-4.142158E-006	0.0006457	10
	24	69	1193.986	11.57436	-5.90888	1	12.99541	-27.04497	1.838397E-005	0.0006265	10
	25	72	946.5144	12.23149	-7.304614	1	14.24664	-30.84553	1.396339E-005	0.0006376	10
	26	74	751.7689	12.77573	-9.005512	1	15.6307	-35.1797	-2.706633E-005	0.0006912	10
	27	77	597.4265	13.26986	-11.09754	1	17.29869	-39.90561	2.130658E-005	0.0006575	10
	28	79	477.4305	13.81048	-13.59651	1	19.38026	-44.5527	-2.341168E-006	0.0006756	10
	29	81	376.6741	14.3625	-16.84691	1	22.1382	-49.55141	-1.970602E-006	0.0006779	10
	30	83	298.2954	15.05976	-20.78834	1	25.67005	-54.07919	-2.150264E-006	0.0006712	10
	31	86	237.7717	15.89326	-25.49454	1	30.04276	-58.06063	-1.689411E-006	0.0006708	10
	32	88	189.0121	16.97185	-31.32384	1	35.62621	-61.55033	-1.504985E-006	0.000668	10
	33	91	150.2404	18.24484	-38.42058	1	42.53252	-64.59829	2.099792E-006	6.992056E-005	9
	34	93	119.1737	19.79424	-47.25667	1	51.2348	-67.27282	2.081332E-006	7.115764E-005	9
	35	95	95.0169	21.65294	-57.84532	1	61.76513	-69.47787	2.007081E-006	7.23184E-005	9
	36	98	75.60484	23.95286	-70.93816	1	74.87298	-71.34232	1.927109E-006	8.244664E-005	9
	37	100	54.50582	28.25714	-94.97349	1	99.088	-73.43085	1.8669E-006	6.827698E-005	9
	38	103	45.95588	31.05861	-110.6422	1	114.9188	-74.31992	1.997337E-006	8.13061E-005	9
	39	105	37.20238	35.20293	-133.6448	1	138.2034	-75.2431	1.919922E-006	8.424356E-005	9
	40	108	30.04808	40.37515	-161.7651	1	166.7277	-75.9858	1.986715E-006	7.610582E-005	9
	41	110	23.91582	47.27668	-198.3397	1	203.8963	-76.59303	2.018743E-006	8.604045E-005	9
	42	113	18.60119	56.96023	-248.285	1	254.735	-77.07909	2.1742E-006	7.568898E-005	9
	43	115	15.02404	67.44804	-300.5034	1	307.9798	-77.34961	2.193166E-006	9.079267E-005	9
	44	117	12.01923	81.11274	-366.5927	1	375.459	-77.52367	1.923566E-006	7.938705E-005	9
	45	120	9.450605	99.5574	-451.8456	1	462.6836	-77.57427	4.243592E-007	0.0006501	8
	46	122	7.512019	122.4467	-553.5704	1	566.9509	-77.52732	3.740807E-007	0.0006433	8
	47	125	5.978954	151.6001	-676.0883	1	692.8766	-77.36155	3.989143E-007	0.0006549	8
	48	128	4.734848	189.1133	-829.4548	1	850.7404	-77.15627	3.051916E-007	0.0006353	8
	49	131	3.75601	236.6128	-1013.3	1	1040.558	-76.85653	4.371485E-007	0.0006663	8
	50	135	3.004808	293.9304	-1227.26	1	1261.968	-76.53129	3.47806E-007	0.0006805	8
	51	138	2.372217	369.2602	-1500.317	1	1545.09	-76.1731	3.569738E-007	0.0006787	8
	52	143	1.878005	465.3718	-1831.581	1	1889.777	-75.74384	3.993356E-007	0.0006333	8
	53	147	1.512097	570.257	-2200.641	1	2273.326	-75.47237	3.688827E-007	0.0007478	8
	54	153	1.201923	711.8069	-2672.744	1	2765.905	-75.0871	3.977949E-007	0.0006432	8
	55	159	0.956633	880.571	-3239.715	1	3357.255	-74.79408	3.464599E-007	1.359824E-005	8
