EXPLAIN
TAG	EISPOT
TITLE	LABEL	Potentiostatic EIS	Test Identifier
DATE	LABEL	8/5/2020	Date
TIME	LABEL	19:11:23	Time
NOTES	NOTES	1	Notes...
	
PSTAT	PSTAT	REF3000-16137	Potentiostat
VDC	POTEN	0.00000E+000	T	DC Voltage (V)
FREQINIT	QUANT	3.00000E+005	Initial Freq. (Hz)
FREQFINAL	QUANT	1.00000E+000	Final Freq. (Hz)
PTSPERDEC	QUANT	1.00000E+001	Points/decade
VAC	QUANT	5.00000E+001	AC Voltage (mV rms)
AREA	QUANT	1.00000E+000	Sample Area (cm^2)
SPEED	SELECTOR	2	Optimize for:
ZGUESS	QUANT	1.00000E+003	Estimated Z (ohms)
EOC	QUANT	0	Open Circuit (V)
SEQUENCER	TOGGLE	TRUE	Run as Sequence
PSTATMODEL	IQUANT	5	Pstat Model
PSTATSECTION	LABEL	REF3000-16137	Pstat Section
PSTATSERIALNO	LABEL	16137	Pstat Serial Number
CTRLMODE	IQUANT	1	Control Mode
IESTAB	IQUANT	0	I/E Stability
CASPEED	IQUANT	1	Control Amp Speed
CONVENTION	IQUANT	1	Current Convention
ICHRANGE	IQUANT	2	Ich Range
ICHRANGEMODE	TOGGLE	F	Ich Auto Range
ICHOFFSETENABLE	TOGGLE	T	Ich Offset Enable
ICHOFFSET	QUANT	0	Ich Offset (V)
ICHFILTER	IQUANT	3	Ich Filter
VCHRANGE	IQUANT	2	Vch Range
VCHRANGEMODE	TOGGLE	F	Vch Auto Range
VCHOFFSETENABLE	TOGGLE	T	Vch Offset Enable
VCHOFFSET	QUANT	0	Vch Offset (V)
VCHFILTER	IQUANT	3	Vch Filter
ACHRANGE	IQUANT	2	Ach Range
ACHOFFSETENABLE	TOGGLE	F	Ach Offset Enable
ACHOFFSET	QUANT	0	Ach Offset (V)
ACHFILTER	IQUANT	3	Ach Filter
IERANGELOWERLIMIT	IQUANT	2	I/E Range Lower Limit
IERANGEMODE	TOGGLE	F	I/E AutoRange
IERANGE	IQUANT	11	I/E Range
POSFEEDENABLE	TOGGLE	F	Positive Feedback IR Comp
POSFEEDRESISTANCE	QUANT	0	Positive Feedback Resistance (ohm)
ACHSELECT	IQUANT	0	Ach Select
CABLEID	IQUANT	13	Cable ID
DCCALDATE	LABEL	7/31/2020	DC Calibration Date
ACCALDATE	LABEL	7/31/2020	AC Calibration Date
THERMOSELECT	IQUANT	1	Thermo Select
FRAMEWORKVERSION	QUANT	6.33	Framework Version
INSTRUMENTVERSION	LABEL	3.50	Instrument Version
COMPLIANCEVOLTAGE	IQUANT	0	Compliance Voltage
ZCURVE	TABLE
	Pt	Time	Freq	Zreal	Zimag	Zsig	Zmod	Zphz	Idc	Vdc	IERange
	#	s	Hz	ohm	ohm	V	ohm	°	A	V	#
	0	8	300046.9	11.98475	0.6933199	1	12.00478	3.310882	-1.837541E-005	0.0002795	10
	1	11	238359.4	12.10633	0.422732	1	12.11371	1.999857	1.387486E-005	0.0002027	10
	2	15	189328.1	12.21329	0.2051023	1	12.21501	0.962099	-3.248851E-005	0.0003669	10
	3	17	150421.9	12.35812	0.01745	1	12.35813	0.080903	-8.30401E-005	0.000664	10
	4	20	119484.4	12.47443	-0.1359028	1	12.47517	-0.6241843	-5.399549E-005	0.0006823	10
	5	22	94921.88	12.6025	-0.2434833	1	12.60486	-1.10683	4.870729E-006	0.000586	10
	6	25	75421.88	12.73299	-0.3638226	1	12.73819	-1.636679	-2.57865E-005	0.0006809	10
	7	27	59859.37	12.8585	-0.4622773	1	12.86681	-2.05896	-2.814219E-005	0.0006408	10
	8	30	47578.12	12.99739	-0.5418608	1	13.00868	-2.387277	-1.121192E-005	0.00065	10
	9	32	37828.12	13.13644	-0.6123526	1	13.1507	-2.6689	-2.981584E-005	0.0006543	10
	10	35	30046.88	13.25562	-0.6737387	1	13.27273	-2.909648	-2.391592E-005	0.0006629	10
	11	37	23859.38	13.37519	-0.7380539	1	13.39554	-3.158425	2.752088E-005	0.0006565	10
	12	40	18984.38	13.47313	-0.8084676	1	13.49736	-3.433969	1.537501E-005	0.0006293	10
	13	42	15046.87	13.57328	-0.8983327	1	13.60297	-3.786536	2.68819E-005	0.0006529	10
	14	44	11953.13	13.64975	-1.012494	1	13.68725	-4.242245	2.262052E-005	0.0006294	10
	15	47	9515.62	13.75229	-1.165199	1	13.80156	-4.842969	-2.804803E-005	0.0006555	10
	16	49	7546.875	13.84527	-1.36567	1	13.91246	-5.633319	1.008716E-005	0.0006938	10
	17	51	5928.309	13.92892	-1.63121	1	14.02411	-6.679461	-1.196026E-005	0.0006527	10
	18	54	4733.456	14.031	-1.952105	1	14.16615	-7.920599	1.34072E-005	0.0006172	10
	19	56	3796.875	14.12045	-2.34989	1	14.31465	-9.448427	-2.847691E-005	0.0006725	10
	20	58	2987.132	14.23304	-2.889993	1	14.52348	-11.47777	5.526586E-006	0.0006235	10
	21	61	2390.625	14.3447	-3.521632	1	14.77065	-13.79335	2.10519E-005	0.0006774	10
	22	63	1884.191	14.49375	-4.362713	1	15.13612	-16.75213	-2.882374E-005	0.0006984	10
	23	65	1516.544	14.64443	-5.317124	1	15.57983	-19.95503	6.66635E-006	0.0006691	10
	24	67	1193.986	14.84151	-6.621496	1	16.2516	-24.0439	-2.660021E-005	0.0007055	10
	25	70	946.5144	15.08398	-8.193637	1	17.16572	-28.51087	2.247758E-005	0.0006423	10
	26	72	751.7689	15.37364	-10.13725	1	18.41501	-33.40054	2.152352E-005	0.0006675	10
	27	75	597.4265	15.75145	-12.53202	1	20.12858	-38.50612	1.349788E-005	0.0006213	10
	28	77	477.4305	16.21894	-15.40975	1	22.37218	-43.53445	-2.783898E-006	0.000683	10
	29	79	376.6741	16.82405	-19.16823	1	25.50431	-48.72642	-2.250094E-006	0.0006691	10
	30	82	298.2954	17.57607	-23.75585	1	29.55095	-53.50363	-2.372122E-006	0.0006735	10
	31	84	237.7717	18.50559	-29.24453	1	34.6078	-57.67485	-1.656275E-006	0.0006739	10
	32	86	189.0121	19.68824	-36.06655	1	41.09042	-61.37048	-2.247318E-006	0.0006699	10
	33	89	150.2404	21.13429	-44.39587	1	49.16962	-64.54359	2.035668E-006	7.300682E-005	9
	34	91	119.1737	22.96977	-54.77201	1	59.39346	-67.24826	2.043639E-006	6.702693E-005	9
	35	94	95.0169	25.21564	-67.2038	1	71.77868	-69.43333	2.039329E-006	6.545457E-005	9
	36	96	75.60484	28.01698	-82.55663	1	87.18112	-71.25449	1.958197E-006	7.290764E-005	9
	37	99	54.50582	33.11969	-110.6746	1	115.5239	-73.34003	1.824229E-006	6.516145E-005	9
	38	101	45.95588	36.51645	-128.9843	1	134.0537	-74.19277	2.020461E-006	7.650934E-005	9
	39	104	37.20238	41.34336	-155.8301	1	161.2212	-75.14115	2.026359E-006	7.394076E-005	9
	40	106	30.04808	47.18464	-188.6486	1	194.46	-75.95733	2.045303E-006	6.522697E-005	9
	41	108	23.91582	54.77079	-231.4455	1	237.8378	-76.68607	1.954061E-006	6.325954E-005	9
	42	111	18.60119	65.08292	-289.7949	1	297.0132	-77.34238	2.046512E-006	7.377502E-005	9
	43	113	15.02404	75.94066	-351.0255	1	359.1461	-77.79279	1.935622E-006	6.357989E-005	9
	44	115	12.01923	89.38361	-426.9647	1	436.2205	-78.17608	3.362835E-007	0.0006451	8
	45	118	9.450605	107.9342	-529.7146	1	540.5991	-78.48312	3.975358E-007	0.0006608	8
	46	120	7.512019	130.0521	-651.3892	1	664.245	-78.70916	3.990592E-007	0.0006647	8
	47	123	5.978954	158.0197	-799.3079	1	814.7781	-78.81708	3.832548E-007	0.0006592	8
	48	126	4.734848	193.4184	-986.409	1	1005.193	-78.90601	4.990263E-007	0.0006776	8
	49	129	3.75601	238.5701	-1213.813	1	1237.036	-78.88049	3.695923E-007	0.0006477	8
	50	133	3.004808	293.5053	-1481.493	1	1510.287	-78.79398	4.409704E-007	0.0006386	8
	51	136	2.372217	367.4271	-1827.993	1	1864.553	-78.63497	4.307344E-007	0.0006272	8
	52	141	1.878005	464.9745	-2253.194	1	2300.671	-78.33999	3.996132E-007	0.0006515	8
	53	145	1.512097	576.1892	-2730.186	1	2790.324	-78.08295	4.239799E-007	0.0005421	8
	54	151	1.201923	723.7809	-3347.302	1	3424.659	-77.79888	4.135543E-007	0.0006612	8
	55	157	0.956633	905.4714	-4089.915	1	4188.948	-77.51657	4.160417E-007	1.531481E-005	8
