EXPLAIN
TAG	EISPOT
TITLE	LABEL	Potentiostatic EIS	Test Identifier
DATE	LABEL	8/5/2020	Date
TIME	LABEL	19:28:17	Time
NOTES	NOTES	1	Notes...
	
PSTAT	PSTAT	REF3000-16137	Potentiostat
VDC	POTEN	0.00000E+000	T	DC Voltage (V)
FREQINIT	QUANT	3.00000E+005	Initial Freq. (Hz)
FREQFINAL	QUANT	1.00000E+000	Final Freq. (Hz)
PTSPERDEC	QUANT	1.00000E+001	Points/decade
VAC	QUANT	5.00000E+001	AC Voltage (mV rms)
AREA	QUANT	1.00000E+000	Sample Area (cm^2)
SPEED	SELECTOR	2	Optimize for:
ZGUESS	QUANT	1.00000E+003	Estimated Z (ohms)
EOC	QUANT	0	Open Circuit (V)
SEQUENCER	TOGGLE	TRUE	Run as Sequence
PSTATMODEL	IQUANT	5	Pstat Model
PSTATSECTION	LABEL	REF3000-16137	Pstat Section
PSTATSERIALNO	LABEL	16137	Pstat Serial Number
CTRLMODE	IQUANT	1	Control Mode
IESTAB	IQUANT	0	I/E Stability
CASPEED	IQUANT	1	Control Amp Speed
CONVENTION	IQUANT	1	Current Convention
ICHRANGE	IQUANT	2	Ich Range
ICHRANGEMODE	TOGGLE	F	Ich Auto Range
ICHOFFSETENABLE	TOGGLE	T	Ich Offset Enable
ICHOFFSET	QUANT	0	Ich Offset (V)
ICHFILTER	IQUANT	3	Ich Filter
VCHRANGE	IQUANT	2	Vch Range
VCHRANGEMODE	TOGGLE	F	Vch Auto Range
VCHOFFSETENABLE	TOGGLE	T	Vch Offset Enable
VCHOFFSET	QUANT	0	Vch Offset (V)
VCHFILTER	IQUANT	3	Vch Filter
ACHRANGE	IQUANT	2	Ach Range
ACHOFFSETENABLE	TOGGLE	F	Ach Offset Enable
ACHOFFSET	QUANT	0	Ach Offset (V)
ACHFILTER	IQUANT	3	Ach Filter
IERANGELOWERLIMIT	IQUANT	2	I/E Range Lower Limit
IERANGEMODE	TOGGLE	F	I/E AutoRange
IERANGE	IQUANT	11	I/E Range
POSFEEDENABLE	TOGGLE	F	Positive Feedback IR Comp
POSFEEDRESISTANCE	QUANT	0	Positive Feedback Resistance (ohm)
ACHSELECT	IQUANT	0	Ach Select
CABLEID	IQUANT	13	Cable ID
DCCALDATE	LABEL	7/31/2020	DC Calibration Date
ACCALDATE	LABEL	7/31/2020	AC Calibration Date
THERMOSELECT	IQUANT	1	Thermo Select
FRAMEWORKVERSION	QUANT	6.33	Framework Version
INSTRUMENTVERSION	LABEL	3.50	Instrument Version
COMPLIANCEVOLTAGE	IQUANT	0	Compliance Voltage
ZCURVE	TABLE
	Pt	Time	Freq	Zreal	Zimag	Zsig	Zmod	Zphz	Idc	Vdc	IERange
	#	s	Hz	ohm	ohm	V	ohm	°	A	V	#
	0	23	300046.9	1440.017	-664.385	1	1585.893	-24.76732	3.373239E-005	-0.0021612	9
	1	40	238359.4	1757.964	-770.0142	1	1919.208	-23.65413	9.446183E-005	-0.0027611	9
	2	58	189328.1	2089.246	-902.8406	1	2275.977	-23.37096	1.659436E-006	-0.0018996	9
	3	71	150421.9	2431.558	-949.3588	1	2610.318	-21.32728	5.304053E-005	4.854335E-005	9
	4	83	119484.4	2775.586	-961.789	1	2937.502	-19.11209	-9.334822E-005	0.0023374	9
	5	92	94921.88	3083.016	-849.9134	1	3198.021	-15.41225	1.730919E-005	-0.0001434	8
	6	97	75421.88	3361.691	-794.8442	1	3454.38	-13.30281	-2.477456E-005	0.0074948	8
	7	103	59859.37	3664.557	-846.6369	1	3761.087	-13.00901	-2.721808E-005	0.0009726	9
	8	111	47578.12	4012.649	-733.5214	1	4079.142	-10.35942	2.065783E-005	-0.0091474	8
	9	117	37828.12	4373.879	-692.8214	1	4428.411	-9.000855	-2.142624E-006	-0.0044578	8
	10	124	30046.88	4809.793	-282.2875	1	4818.07	-3.358845	1.684007E-006	-0.0178937	7
	11	127	23859.38	4952.589	-243.0179	1	4958.547	-2.809185	-6.487066E-006	0.020079	7
	12	130	18984.38	5141.153	-484.3763	1	5163.921	-5.382263	-1.041377E-005	0.0096222	8
	13	135	15046.87	5500.251	-468.771	1	5520.191	-4.871387	-2.341786E-005	0.0054288	8
	14	141	11953.13	5857.57	-412.1019	1	5872.048	-4.024341	2.674467E-005	-0.0074798	8
	15	146	9515.62	6229.789	-364.9813	1	6240.471	-3.352925	-2.378091E-005	0.0054665	8
	16	151	7546.875	6637.419	-375.1046	1	6648.01	-3.234551	-2.105652E-006	-0.0045561	8
	17	157	5928.309	7036.526	-179.8107	1	7038.823	-1.463812	6.30416E-006	-0.0237396	7
	18	161	4733.456	7412.226	-191.8204	1	7414.707	-1.482422	6.323762E-006	-0.0239224	7
	19	165	3796.875	7771.959	-179.8866	1	7774.041	-1.325908	-5.863714E-006	0.0097133	7
	20	169	2987.132	8151.906	-132.462	1	8152.982	-0.9309291	4.149753E-006	0.0008572	7
	21	173	2390.625	8717.447	-119.4752	1	8718.266	-0.7852062	1.470966E-006	-0.018252	7
	22	177	1884.191	9016.452	-112.1665	1	9017.149	-0.7127341	5.879713E-006	-0.008096	7
	23	182	1516.544	9557.97	-119.2245	1	9558.72	-0.7146606	-6.697427E-006	0.0166511	7
	24	186	1193.986	10025.42	-104.7265	1	10025.96	-0.5984955	-6.03837E-006	0.0102317	7
	25	190	946.5144	10547.33	-228.8271	1	10549.81	-1.242852	5.192871E-006	-0.0249239	7
	26	193	751.7689	11057.81	-1.859595	1	11057.81	-0.0096354	-6.090916E-006	0.0104358	7
	27	196	597.4265	11326.42	-195.7519	1	11328.11	-0.990131	-6.832463E-006	0.0171316	7
	28	198	477.4305	11604.26	-100.3107	1	11604.69	-0.4952694	-9.382229E-008	0.0006389	7
	29	201	376.6741	11955.92	-101.3916	1	11956.35	-0.4858826	-9.71002E-008	0.0006687	7
	30	203	298.2954	12317.33	-107.0834	1	12317.8	-0.4981007	-8.671962E-008	0.0006436	7
	31	205	237.7717	12706.1	-112.7656	1	12706.6	-0.5084822	-9.786331E-008	0.0006676	7
	32	208	189.0121	13109.21	-124.5933	1	13109.8	-0.5445372	-1.039736E-007	0.0006544	7
	33	210	150.2404	13532.27	-138.9426	1	13532.98	-0.5882638	-1.007655E-007	0.0006718	7
	34	213	119.1737	13958.81	-171.2834	1	13959.86	-0.7030203	-9.731028E-008	0.0006722	7
	35	215	95.0169	14398.83	-193.2358	1	14400.13	-0.7688772	-8.408825E-008	0.0006746	7
	36	217	75.60484	14887.92	-230.3117	1	14889.7	-0.8862778	-7.880335E-008	0.0006415	7
	37	220	54.50582	15398.7	-298.2677	1	15401.59	-1.109661	-7.217164E-008	0.0005935	7
	38	223	45.95588	15907.74	-341.5329	1	15911.4	-1.229929	-1.154336E-007	0.0006418	7
	39	225	37.20238	16408.42	-414.2046	1	16413.64	-1.446035	-6.92819E-008	0.0005795	7
	40	227	30.04808	16943.36	-493.4485	1	16950.54	-1.668177	-6.630783E-008	0.0005815	7
	41	230	23.91582	17517.63	-615.1375	1	17528.42	-2.011135	-4.818502E-008	0.0005794	7
	42	232	18.60119	18075.32	-769.8701	1	18091.71	-2.438887	-1.26495E-007	0.000596	7
	43	234	15.02404	18649.82	-920.3426	1	18672.52	-2.825175	-8.48059E-008	0.0005714	7
	44	237	12.01923	19252.86	-1096.458	1	19284.05	-3.259497	-1.546848E-007	0.0005874	7
	45	239	9.450605	19973.51	-1405.83	1	20022.92	-4.02611	-8.980903E-008	0.0006841	7
	46	242	7.512019	20693.35	-1710.151	1	20763.9	-4.724331	-1.261336E-007	0.0006644	7
	47	244	5.978954	21586.82	-2176.211	1	21696.24	-5.756655	-1.395557E-007	0.000702	7
	48	247	4.734848	22571.01	-2702.798	1	22732.26	-6.828451	-1.375496E-007	0.0006492	7
	49	251	3.75601	23735.15	-3313.184	1	23965.28	-7.946556	-6.392445E-008	0.0006515	7
	50	254	3.004808	25078.11	-4098.301	1	25410.78	-9.281315	-5.84709E-008	0.000624	7
	51	258	2.372217	26617.33	-4976.25	1	27078.51	-10.5895	-1.028446E-007	0.000558	7
	52	262	1.878005	28467.66	-6226.321	1	29140.6	-12.33721	-9.428728E-008	0.0006391	7
	53	267	1.512097	30688.93	-7698.254	1	31639.74	-14.08196	-8.334293E-008	0.0005412	7
	54	272	1.201923	33553.92	-9520.48	1	34878.43	-15.84059	-9.555567E-008	0.0006606	7
	55	278	0.956633	37018.7	-11911.4	1	38887.86	-17.83647	-1.08153E-007	4.491905E-005	7
