EXPLAIN
TAG	EISPOT
TITLE	LABEL	Potentiostatic EIS	Test Identifier
DATE	LABEL	8/5/2020	Date
TIME	LABEL	18:57:13	Time
NOTES	NOTES	1	Notes...
	
PSTAT	PSTAT	REF3000-16137	Potentiostat
VDC	POTEN	0.00000E+000	T	DC Voltage (V)
FREQINIT	QUANT	3.00000E+005	Initial Freq. (Hz)
FREQFINAL	QUANT	1.00000E+000	Final Freq. (Hz)
PTSPERDEC	QUANT	1.00000E+001	Points/decade
VAC	QUANT	5.00000E+001	AC Voltage (mV rms)
AREA	QUANT	1.00000E+000	Sample Area (cm^2)
SPEED	SELECTOR	2	Optimize for:
ZGUESS	QUANT	1.00000E+003	Estimated Z (ohms)
EOC	QUANT	0	Open Circuit (V)
SEQUENCER	TOGGLE	TRUE	Run as Sequence
PSTATMODEL	IQUANT	5	Pstat Model
PSTATSECTION	LABEL	REF3000-16137	Pstat Section
PSTATSERIALNO	LABEL	16137	Pstat Serial Number
CTRLMODE	IQUANT	1	Control Mode
IESTAB	IQUANT	0	I/E Stability
CASPEED	IQUANT	1	Control Amp Speed
CONVENTION	IQUANT	1	Current Convention
ICHRANGE	IQUANT	2	Ich Range
ICHRANGEMODE	TOGGLE	F	Ich Auto Range
ICHOFFSETENABLE	TOGGLE	T	Ich Offset Enable
ICHOFFSET	QUANT	0	Ich Offset (V)
ICHFILTER	IQUANT	3	Ich Filter
VCHRANGE	IQUANT	2	Vch Range
VCHRANGEMODE	TOGGLE	F	Vch Auto Range
VCHOFFSETENABLE	TOGGLE	T	Vch Offset Enable
VCHOFFSET	QUANT	0	Vch Offset (V)
VCHFILTER	IQUANT	3	Vch Filter
ACHRANGE	IQUANT	2	Ach Range
ACHOFFSETENABLE	TOGGLE	F	Ach Offset Enable
ACHOFFSET	QUANT	0	Ach Offset (V)
ACHFILTER	IQUANT	3	Ach Filter
IERANGELOWERLIMIT	IQUANT	2	I/E Range Lower Limit
IERANGEMODE	TOGGLE	F	I/E AutoRange
IERANGE	IQUANT	11	I/E Range
POSFEEDENABLE	TOGGLE	F	Positive Feedback IR Comp
POSFEEDRESISTANCE	QUANT	0	Positive Feedback Resistance (ohm)
ACHSELECT	IQUANT	0	Ach Select
CABLEID	IQUANT	13	Cable ID
DCCALDATE	LABEL	7/31/2020	DC Calibration Date
ACCALDATE	LABEL	7/31/2020	AC Calibration Date
THERMOSELECT	IQUANT	1	Thermo Select
FRAMEWORKVERSION	QUANT	6.33	Framework Version
INSTRUMENTVERSION	LABEL	3.50	Instrument Version
COMPLIANCEVOLTAGE	IQUANT	0	Compliance Voltage
ZCURVE	TABLE
	Pt	Time	Freq	Zreal	Zimag	Zsig	Zmod	Zphz	Idc	Vdc	IERange
	#	s	Hz	ohm	ohm	V	ohm	°	A	V	#
	0	9	300046.9	2.532163	0.9186765	1	2.693662	19.94093	-0.0001359	0.0007394	12
	1	13	238359.4	2.484306	0.7266765	1	2.588404	16.30456	-1.1957E-005	-0.0001016	12
	2	17	189328.1	2.455755	0.5635254	1	2.519582	12.92399	-9.064446E-006	2.956169E-005	12
	3	21	150421.9	2.437459	0.4257774	1	2.474367	9.9085	-7.142006E-005	0.0002463	12
	4	25	119484.4	2.432713	0.315387	1	2.453072	7.38686	1.92161E-005	0.0005467	12
	5	28	94921.88	2.428756	0.2193954	1	2.438645	5.161658	-6.786508E-005	0.0004745	12
	6	32	75421.88	2.430752	0.1336809	1	2.434425	3.147851	-1.583036E-005	0.0004945	12
	7	35	59859.37	2.435269	0.056504	1	2.435925	1.32916	-6.932976E-005	0.0005588	12
	8	39	47578.12	2.44301	0.0278316	1	2.443168	0.652705	2.9733E-005	0.0006751	11
	9	42	37828.12	2.450475	-0.0517066	1	2.45102	-1.208798	2.650283E-005	0.000683	11
	10	44	30046.88	2.459218	-0.1325952	1	2.46279	-3.086265	-2.548561E-005	0.0006452	11
	11	47	23859.38	2.469515	-0.2186894	1	2.479179	-5.060662	-2.743706E-005	0.000681	11
	12	49	18984.38	2.480478	-0.3134971	1	2.500211	-7.203179	2.938656E-005	0.0007153	11
	13	51	15046.87	2.494004	-0.4239556	1	2.529781	-9.64749	2.874752E-005	0.0007164	11
	14	54	11953.13	2.509907	-0.5520284	1	2.569897	-12.40413	1.720005E-005	0.0007004	11
	15	56	9515.62	2.528915	-0.7046868	1	2.625261	-15.57059	1.624151E-005	0.0007103	11
	16	58	7546.875	2.552349	-0.8920465	1	2.703744	-19.26453	-4.600651E-005	0.000652	11
	17	61	5928.309	2.582698	-1.130538	1	2.819299	-23.6407	1.927872E-005	0.000704	11
	18	63	4733.456	2.618959	-1.404617	1	2.971851	-28.20584	-2.943293E-005	0.0006745	11
	19	65	3796.875	2.662648	-1.733186	1	3.177047	-33.06113	2.775774E-005	0.000708	11
	20	68	2987.132	2.723262	-2.171526	1	3.483057	-38.56882	2.305661E-005	0.0007011	11
	21	70	2390.625	2.795172	-2.674625	1	3.86867	-43.73748	-1.760887E-005	0.0006935	11
	22	72	1884.191	2.895055	-3.33835	1	4.418814	-49.0678	-1.974847E-005	0.0006732	10
	23	74	1516.544	3.009846	-4.078843	1	5.069135	-53.57576	-9.169633E-006	0.0006541	10
	24	77	1193.986	3.170106	-5.080596	1	5.988492	-58.03735	-1.539737E-005	0.0006669	10
	25	79	946.5144	3.374394	-6.279933	1	7.129102	-61.74954	-9.904786E-006	0.0006809	10
	26	82	751.7689	3.622554	-7.744408	1	8.549781	-64.93151	-8.350688E-006	0.0006621	10
	27	84	597.4265	3.934833	-9.53317	1	10.3133	-67.57153	1.898804E-005	0.0006501	10
	28	86	477.4305	4.318818	-11.65868	1	12.4329	-69.67345	-6.502985E-007	0.0006618	10
	29	89	376.6741	4.822111	-14.41395	1	15.19916	-71.5026	-1.727451E-006	0.0006635	10
	30	91	298.2954	5.436578	-17.74982	1	18.56374	-72.97074	-1.336914E-006	0.0006692	10
	31	93	237.7717	6.172035	-21.72043	1	22.58033	-74.13708	-1.210233E-006	0.0006703	10
	32	96	189.0121	7.081918	-26.63278	1	27.55827	-75.10907	-1.499284E-006	0.0006714	10
	33	98	150.2404	8.205523	-32.66212	1	33.67707	-75.89775	-1.100527E-006	0.0006699	10
	34	101	119.1737	9.60155	-40.12752	1	41.26024	-76.5435	-1.279427E-006	0.0006723	10
	35	103	95.0169	11.27887	-49.0188	1	50.29966	-77.04219	1.627314E-006	6.837309E-005	9
	36	105	75.60484	13.38934	-60.06092	1	61.53526	-77.43259	1.586671E-006	7.229858E-005	9
	37	108	54.50582	17.36981	-80.33298	1	82.1894	-77.79918	1.573371E-006	6.633389E-005	9
	38	111	45.95588	20.02643	-93.49046	1	95.6113	-77.90948	1.810322E-006	7.556406E-005	9
	39	113	37.20238	24.04041	-112.7663	1	115.3004	-77.9654	1.62024E-006	7.355036E-005	9
	40	115	30.04808	29.15844	-136.3185	1	139.4021	-77.92641	1.527052E-006	6.898333E-005	9
	41	118	23.91582	36.05452	-166.77	1	170.6228	-77.8008	1.685021E-006	5.624417E-005	9
	42	120	18.60119	45.68969	-207.6227	1	212.5906	-77.58924	1.923439E-006	7.139213E-005	9
	43	122	15.02404	56.32888	-250.1367	1	256.4007	-77.30913	1.895837E-006	7.591014E-005	9
	44	125	12.01923	70.21602	-303.5301	1	311.5459	-76.97481	1.538311E-006	6.523315E-005	9
	45	127	9.450605	89.49714	-372.7622	1	383.3554	-76.49929	1.802781E-006	0.0001126	9
	46	130	7.512019	112.0213	-451.549	1	465.2368	-76.06722	1.250901E-007	0.000654	8
	47	132	5.978954	140.6353	-547.0214	1	564.8103	-75.58191	1.209872E-007	0.000644	8
	48	135	4.734848	177.1899	-665.5015	1	688.6861	-75.09086	2.927808E-007	0.0006604	8
	49	139	3.75601	222.9599	-806.652	1	836.8982	-74.54912	1.602575E-007	0.0006465	8
	50	142	3.004808	277.8048	-969.404	1	1008.424	-74.00913	2.602852E-007	0.0006389	8
	51	146	2.372217	351.2336	-1177.673	1	1228.934	-73.39313	1.809269E-007	0.0006102	8
	52	150	1.878005	443.9759	-1424.264	1	1491.859	-72.68654	2.411681E-007	0.0006573	8
	53	155	1.512097	556.4949	-1695.237	1	1784.241	-71.82657	3.020735E-007	0.0005592	8
	54	160	1.201923	704.7591	-2043.068	1	2161.206	-70.96805	3.36105E-007	0.0006746	8
	55	166	0.956633	908.3387	-2444.726	1	2608.019	-69.61743	4.034636E-007	1.069091E-005	8
