EXPLAIN
TAG	EISPOT
TITLE	LABEL	Potentiostatic EIS	Test Identifier
DATE	LABEL	8/5/2020	Date
TIME	LABEL	18:51:29	Time
NOTES	NOTES	1	Notes...
	
PSTAT	PSTAT	REF3000-16137	Potentiostat
VDC	POTEN	0.00000E+000	T	DC Voltage (V)
FREQINIT	QUANT	3.00000E+005	Initial Freq. (Hz)
FREQFINAL	QUANT	1.00000E+000	Final Freq. (Hz)
PTSPERDEC	QUANT	1.00000E+001	Points/decade
VAC	QUANT	5.00000E+001	AC Voltage (mV rms)
AREA	QUANT	1.00000E+000	Sample Area (cm^2)
SPEED	SELECTOR	2	Optimize for:
ZGUESS	QUANT	1.00000E+003	Estimated Z (ohms)
EOC	QUANT	0	Open Circuit (V)
SEQUENCER	TOGGLE	TRUE	Run as Sequence
PSTATMODEL	IQUANT	5	Pstat Model
PSTATSECTION	LABEL	REF3000-16137	Pstat Section
PSTATSERIALNO	LABEL	16137	Pstat Serial Number
CTRLMODE	IQUANT	1	Control Mode
IESTAB	IQUANT	0	I/E Stability
CASPEED	IQUANT	1	Control Amp Speed
CONVENTION	IQUANT	1	Current Convention
ICHRANGE	IQUANT	2	Ich Range
ICHRANGEMODE	TOGGLE	F	Ich Auto Range
ICHOFFSETENABLE	TOGGLE	T	Ich Offset Enable
ICHOFFSET	QUANT	0	Ich Offset (V)
ICHFILTER	IQUANT	3	Ich Filter
VCHRANGE	IQUANT	2	Vch Range
VCHRANGEMODE	TOGGLE	F	Vch Auto Range
VCHOFFSETENABLE	TOGGLE	T	Vch Offset Enable
VCHOFFSET	QUANT	0	Vch Offset (V)
VCHFILTER	IQUANT	3	Vch Filter
ACHRANGE	IQUANT	2	Ach Range
ACHOFFSETENABLE	TOGGLE	F	Ach Offset Enable
ACHOFFSET	QUANT	0	Ach Offset (V)
ACHFILTER	IQUANT	1	Ach Filter
IERANGELOWERLIMIT	IQUANT	2	I/E Range Lower Limit
IERANGEMODE	TOGGLE	F	I/E AutoRange
IERANGE	IQUANT	11	I/E Range
POSFEEDENABLE	TOGGLE	F	Positive Feedback IR Comp
POSFEEDRESISTANCE	QUANT	0	Positive Feedback Resistance (ohm)
ACHSELECT	IQUANT	0	Ach Select
CABLEID	IQUANT	13	Cable ID
DCCALDATE	LABEL	7/31/2020	DC Calibration Date
ACCALDATE	LABEL	7/31/2020	AC Calibration Date
THERMOSELECT	IQUANT	1	Thermo Select
FRAMEWORKVERSION	QUANT	6.33	Framework Version
INSTRUMENTVERSION	LABEL	3.50	Instrument Version
COMPLIANCEVOLTAGE	IQUANT	0	Compliance Voltage
ZCURVE	TABLE
	Pt	Time	Freq	Zreal	Zimag	Zsig	Zmod	Zphz	Idc	Vdc	IERange
	#	s	Hz	ohm	ohm	V	ohm	°	A	V	#
	0	9	300046.9	2.353546	0.9472057	1	2.537002	21.92276	4.438506E-005	0.0010834	12
	1	13	238359.4	2.299006	0.7515056	1	2.418716	18.10168	6.377243E-005	-0.0001776	12
	2	17	189328.1	2.267484	0.5833674	1	2.341324	14.42789	-9.55887E-006	2.038556E-005	12
	3	21	150421.9	2.230856	0.5661442	1	2.301573	14.23984	8.092575E-005	0.0002144	11
	4	23	119484.4	2.226065	0.4298066	1	2.267179	10.92814	-3.308151E-005	0.000384	11
	5	26	94921.88	2.225104	0.3126245	1	2.246958	7.997641	-1.406681E-005	0.0005093	11
	6	28	75421.88	2.226449	0.2109821	1	2.236423	5.413282	-3.528336E-006	0.0005445	11
	7	31	59859.37	2.229371	0.1214731	1	2.232677	3.118826	-1.459785E-005	0.000597	11
	8	33	47578.12	2.23277	0.03992	1	2.233127	1.024291	-3.601423E-005	0.0006005	11
	9	36	37828.12	2.237934	-0.03814	1	2.238259	-0.97637	-3.824089E-005	0.0006183	11
	10	38	30046.88	2.244021	-0.1170374	1	2.247071	-2.98557	-2.346497E-005	0.0006466	11
	11	41	23859.38	2.251662	-0.2005239	1	2.260573	-5.089104	-1.858243E-005	0.0006742	11
	12	43	18984.38	2.260317	-0.2912964	1	2.27901	-7.34347	6.353038E-006	0.0007078	11
	13	46	15046.87	2.271167	-0.396905	1	2.305587	-9.9128	1.98597E-005	0.0007032	11
	14	48	11953.13	2.284247	-0.5195469	1	2.342587	-12.8138	-2.012148E-005	0.0006792	11
	15	50	9515.62	2.301111	-0.6646494	1	2.395177	-16.11075	1.692238E-005	0.0007175	11
	16	53	7546.875	2.323749	-0.8432832	1	2.47203	-19.94572	-9.623592E-006	0.0006821	11
	17	55	5928.309	2.351335	-1.07024	1	2.583446	-24.47326	-3.40653E-005	0.0006809	11
	18	57	4733.456	2.384521	-1.330164	1	2.730435	-29.15421	-1.688391E-005	0.0006843	11
	19	59	3796.875	2.425226	-1.641187	1	2.928347	-34.08681	2.162546E-005	0.0007168	11
	20	62	2987.132	2.482147	-2.055318	1	3.222636	-39.62613	-2.648394E-005	0.0006793	11
	21	64	2390.625	2.549719	-2.53065	1	3.592388	-44.78495	-1.961416E-005	0.000707	11
	22	66	1884.191	2.644972	-3.155931	1	4.117739	-50.03377	-2.235295E-005	0.0006766	10
	23	69	1516.544	2.752559	-3.853802	1	4.73586	-54.46386	-1.948286E-005	0.0006736	10
	24	71	1193.986	2.905387	-4.796799	1	5.608079	-58.79701	-1.306852E-005	0.0006755	10
	25	73	946.5144	3.091715	-5.926503	1	6.68447	-62.45002	3.310636E-007	0.0006308	10
	26	76	751.7689	3.331191	-7.298476	1	8.022754	-65.46696	-1.338763E-005	0.0006779	10
	27	78	597.4265	3.629991	-8.96772	1	9.67455	-67.96268	4.226774E-006	0.0006364	10
	28	80	477.4305	3.988623	-10.96563	1	11.66852	-70.01173	-1.677103E-006	0.0006647	10
	29	83	376.6741	4.459585	-13.54943	1	14.26446	-71.78184	-2.196171E-006	0.0006615	10
	30	85	298.2954	5.030469	-16.6722	1	17.41459	-73.20997	-2.721319E-006	0.000672	10
	31	87	237.7717	5.713542	-20.39072	1	21.17607	-74.34696	-2.415489E-006	0.0006656	10
	32	90	189.0121	6.560717	-25.00377	1	25.85017	-75.29764	-1.995348E-006	0.0006632	10
	33	92	150.2404	7.604054	-30.66442	1	31.59316	-76.07293	-2.46018E-006	0.0006671	10
	34	95	119.1737	8.904439	-37.67627	1	38.71421	-76.70267	-1.934939E-006	0.0006683	10
	35	97	95.0169	10.46663	-46.029	1	47.20402	-77.18923	1.377001E-006	6.544333E-005	9
	36	100	75.60484	12.44783	-56.40677	1	57.76394	-77.55544	1.289106E-006	7.770416E-005	9
	37	102	54.50582	16.19384	-75.43492	1	77.15353	-77.88403	1.216951E-006	6.553313E-005	9
	38	105	45.95588	18.70587	-87.76508	1	89.73638	-77.96825	1.514332E-006	7.174356E-005	9
	39	107	37.20238	22.51538	-105.8423	1	108.2106	-77.99072	1.451406E-006	6.895077E-005	9
	40	109	30.04808	27.29855	-127.7242	1	130.6089	-77.93567	1.356427E-006	7.449753E-005	9
	41	112	23.91582	33.69093	-155.9463	1	159.5441	-77.80907	1.439571E-006	6.458752E-005	9
	42	114	18.60119	42.82927	-194.2173	1	198.8836	-77.56403	1.348094E-006	7.100145E-005	9
	43	116	15.02404	52.72907	-233.7993	1	239.6716	-77.29064	1.77215E-006	8.468612E-005	9
	44	119	12.01923	65.86649	-283.3423	1	290.8974	-76.9133	1.32799E-006	7.061084E-005	9
	45	121	9.450605	84.10358	-347.9998	1	358.0185	-76.41344	1.673026E-006	7.113825E-005	9
	46	124	7.512019	105.6341	-420.7926	1	433.849	-75.90791	2.519411E-007	0.000665	8
	47	126	5.978954	132.9411	-509.6154	1	526.6699	-75.37935	1.710057E-007	0.0006524	8
	48	129	4.734848	168.5795	-618.7234	1	641.2782	-74.75896	1.880776E-007	0.0006772	8
	49	133	3.75601	213.6537	-749.4003	1	779.2617	-74.08717	9.256703E-008	0.0006424	8
	50	136	3.004808	268.4588	-899.3816	1	938.5933	-73.38002	7.708593E-008	0.0006782	8
	51	140	2.372217	344.4171	-1089.135	1	1142.295	-72.45148	1.017588E-007	0.0007161	8
	52	144	1.878005	440.3864	-1315.849	1	1387.587	-71.49571	2.694593E-008	0.0006366	8
	53	149	1.512097	553.2365	-1560.193	1	1655.377	-70.47575	1.097501E-007	0.0006153	8
	54	154	1.201923	715.4617	-1868.996	1	2001.257	-69.05288	6.198118E-008	0.0006364	8
	55	160	0.956633	923.6733	-2220.277	1	2404.746	-67.41186	3.212513E-009	1.570977E-005	8
