EXPLAIN
TAG	EISPOT
TITLE	LABEL	Potentiostatic EIS	Test Identifier
DATE	LABEL	8/5/2020	Date
TIME	LABEL	19:08:37	Time
NOTES	NOTES	1	Notes...
	
PSTAT	PSTAT	REF3000-16137	Potentiostat
VDC	POTEN	0.00000E+000	T	DC Voltage (V)
FREQINIT	QUANT	3.00000E+005	Initial Freq. (Hz)
FREQFINAL	QUANT	1.00000E+000	Final Freq. (Hz)
PTSPERDEC	QUANT	1.00000E+001	Points/decade
VAC	QUANT	5.00000E+001	AC Voltage (mV rms)
AREA	QUANT	1.00000E+000	Sample Area (cm^2)
SPEED	SELECTOR	2	Optimize for:
ZGUESS	QUANT	1.00000E+003	Estimated Z (ohms)
EOC	QUANT	0	Open Circuit (V)
SEQUENCER	TOGGLE	TRUE	Run as Sequence
PSTATMODEL	IQUANT	5	Pstat Model
PSTATSECTION	LABEL	REF3000-16137	Pstat Section
PSTATSERIALNO	LABEL	16137	Pstat Serial Number
CTRLMODE	IQUANT	1	Control Mode
IESTAB	IQUANT	0	I/E Stability
CASPEED	IQUANT	1	Control Amp Speed
CONVENTION	IQUANT	1	Current Convention
ICHRANGE	IQUANT	2	Ich Range
ICHRANGEMODE	TOGGLE	F	Ich Auto Range
ICHOFFSETENABLE	TOGGLE	T	Ich Offset Enable
ICHOFFSET	QUANT	0	Ich Offset (V)
ICHFILTER	IQUANT	3	Ich Filter
VCHRANGE	IQUANT	2	Vch Range
VCHRANGEMODE	TOGGLE	F	Vch Auto Range
VCHOFFSETENABLE	TOGGLE	T	Vch Offset Enable
VCHOFFSET	QUANT	0	Vch Offset (V)
VCHFILTER	IQUANT	3	Vch Filter
ACHRANGE	IQUANT	2	Ach Range
ACHOFFSETENABLE	TOGGLE	F	Ach Offset Enable
ACHOFFSET	QUANT	0	Ach Offset (V)
ACHFILTER	IQUANT	3	Ach Filter
IERANGELOWERLIMIT	IQUANT	2	I/E Range Lower Limit
IERANGEMODE	TOGGLE	F	I/E AutoRange
IERANGE	IQUANT	11	I/E Range
POSFEEDENABLE	TOGGLE	F	Positive Feedback IR Comp
POSFEEDRESISTANCE	QUANT	0	Positive Feedback Resistance (ohm)
ACHSELECT	IQUANT	0	Ach Select
CABLEID	IQUANT	13	Cable ID
DCCALDATE	LABEL	7/31/2020	DC Calibration Date
ACCALDATE	LABEL	7/31/2020	AC Calibration Date
THERMOSELECT	IQUANT	1	Thermo Select
FRAMEWORKVERSION	QUANT	6.33	Framework Version
INSTRUMENTVERSION	LABEL	3.50	Instrument Version
COMPLIANCEVOLTAGE	IQUANT	0	Compliance Voltage
ZCURVE	TABLE
	Pt	Time	Freq	Zreal	Zimag	Zsig	Zmod	Zphz	Idc	Vdc	IERange
	#	s	Hz	ohm	ohm	V	ohm	°	A	V	#
	0	8	300046.9	9.65299	0.3132075	1	9.65807	1.858407	-6.233029E-006	0.0001637	10
	1	11	238359.4	9.84957	-0.006712	1	9.84958	-0.0390443	-2.019492E-005	0.0002416	10
	2	15	189328.1	10.03669	-0.2769193	1	10.04051	-1.580431	7.000222E-006	0.0004392	10
	3	17	150421.9	10.25159	-0.5203046	1	10.26478	-2.905471	2.19401E-005	0.0004909	10
	4	20	119484.4	10.46885	-0.7008832	1	10.49228	-3.830203	7.202088E-005	0.0004028	10
	5	22	94921.88	10.69876	-0.835117	1	10.73131	-4.463306	-2.289486E-005	0.0006103	10
	6	25	75421.88	10.92098	-0.960721	1	10.96316	-5.02738	1.94025E-005	0.0005947	10
	7	27	59859.37	11.17959	-1.062341	1	11.22996	-5.428231	2.394971E-005	0.0005952	10
	8	30	47578.12	11.45228	-1.129407	1	11.50784	-5.632214	1.299E-005	0.000608	10
	9	32	37828.12	11.68658	-1.159011	1	11.74391	-5.663759	-9.49174E-006	0.0007088	10
	10	35	30046.88	11.88681	-1.163384	1	11.9436	-5.589841	-8.239113E-006	0.0006524	10
	11	37	23859.38	12.06248	-1.163958	1	12.11851	-5.511637	-2.728092E-005	0.0006526	10
	12	40	18984.38	12.22517	-1.173135	1	12.28133	-5.481353	-3.151603E-007	0.0006296	10
	13	42	15046.87	12.34541	-1.194353	1	12.40305	-5.525865	6.107794E-006	0.0006256	10
	14	44	11953.13	12.42054	-1.241405	1	12.48243	-5.707626	-2.248677E-005	0.0007057	10
	15	47	9515.62	12.50091	-1.334708	1	12.57196	-6.094319	2.520076E-005	0.0006596	10
	16	49	7546.875	12.59595	-1.480127	1	12.68261	-6.701986	-1.072756E-005	0.0007225	10
	17	51	5928.309	12.6413	-1.691517	1	12.75397	-7.621408	1.939028E-005	0.0006259	10
	18	54	4733.456	12.70533	-1.96371	1	12.85619	-8.786002	-2.609116E-005	0.0007034	10
	19	56	3796.875	12.7771	-2.310172	1	12.98427	-10.24868	-2.436005E-005	0.0007626	10
	20	58	2987.132	12.86915	-2.799002	1	13.17002	-12.27056	-2.596225E-005	0.0006992	10
	21	61	2390.625	12.99099	-3.379062	1	13.42325	-14.58002	2.059176E-005	0.0006279	10
	22	63	1884.191	13.09634	-4.155211	1	13.73972	-17.60321	-2.644503E-005	0.0007407	10
	23	65	1516.544	13.23153	-5.033841	1	14.15673	-20.82896	-1.920188E-005	0.0006679	10
	24	68	1193.986	13.39892	-6.250067	1	14.78494	-25.00719	-5.551147E-006	0.0006915	10
	25	70	946.5144	13.63173	-7.715547	1	15.66377	-29.50981	-1.156498E-005	0.0007287	10
	26	72	751.7689	13.92035	-9.52018	1	16.86446	-34.36837	5.103806E-006	0.0006344	10
	27	75	597.4265	14.28564	-11.74965	1	18.49686	-39.43661	-3.663258E-006	0.0006488	10
	28	77	477.4305	14.69568	-14.43101	1	20.59653	-44.47939	-1.974907E-006	0.0006857	10
	29	79	376.6741	15.24885	-17.91855	1	23.52875	-49.60191	-2.011394E-006	0.0006707	10
	30	82	298.2954	15.97806	-22.16276	1	27.3219	-54.21058	-1.756218E-006	0.000675	10
	31	84	237.7717	16.82657	-27.23183	1	32.01103	-58.28805	-2.300876E-006	0.0007263	10
	32	86	189.0121	17.90173	-33.51165	1	37.99345	-61.88912	-1.706238E-006	0.000669	10
	33	89	150.2404	19.23479	-41.16378	1	45.43604	-64.95451	2.018941E-006	7.442585E-005	9
	34	91	119.1737	20.92681	-50.68715	1	54.8372	-67.56612	1.976269E-006	7.823756E-005	9
	35	94	95.0169	22.98611	-62.09153	1	66.20966	-69.68559	2.05674E-006	7.642546E-005	9
	36	96	75.60484	25.52113	-76.18271	1	80.34384	-71.4792	2.029131E-006	7.064211E-005	9
	37	99	54.50582	30.14119	-102.0182	1	106.3776	-73.54026	1.926267E-006	6.772021E-005	9
	38	101	45.95588	33.15334	-118.8557	1	123.3929	-74.4142	2.030695E-006	8.251695E-005	9
	39	104	37.20238	37.60131	-143.5632	1	148.4057	-75.32308	2.117759E-006	6.975156E-005	9
	40	106	30.04808	43.05464	-173.7921	1	179.0458	-76.08588	2.114243E-006	6.870984E-005	9
	41	108	23.91582	50.22749	-213.2423	1	219.0778	-76.74603	1.608464E-006	0.0001258	9
	42	111	18.60119	60.03369	-266.955	1	273.622	-77.32599	1.922658E-006	7.717348E-005	9
	43	113	15.02404	70.56538	-323.2986	1	330.9101	-77.68733	2.25363E-006	8.937347E-005	9
	44	115	12.01923	84.18819	-394.7972	1	403.6737	-77.96231	2.018309E-006	7.180867E-005	9
	45	118	9.450605	102.3535	-487.433	1	498.0635	-78.14105	4.516128E-007	0.0006417	8
	46	120	7.512019	124.7898	-598.5522	1	611.4224	-78.22333	3.97516E-007	0.0006391	8
	47	123	5.978954	153.4409	-733.1966	1	749.0803	-78.17992	4.422477E-007	0.0006513	8
	48	126	4.734848	190.8652	-902.3819	1	922.3463	-78.05724	4.197313E-007	0.0006609	8
	49	129	3.75601	237.9015	-1106.85	1	1132.128	-77.86964	4.160994E-007	0.0006438	8
	50	133	3.004808	295.0634	-1346.334	1	1378.288	-77.63846	3.886009E-007	0.0006845	8
	51	136	2.372217	370.8898	-1655.155	1	1696.201	-77.36971	3.739679E-007	0.0007611	8
	52	141	1.878005	468.0154	-2027.209	1	2080.533	-77.00008	4.077432E-007	0.0006226	8
	53	145	1.512097	580.9319	-2443.02	1	2511.141	-76.62392	4.160947E-007	0.000735	8
	54	151	1.201923	723.795	-2982.195	1	3068.772	-76.35779	4.252745E-007	0.0006221	8
	55	157	0.956633	900.3702	-3630.167	1	3740.158	-76.07034	3.891012E-007	1.006845E-005	8
