EXPLAIN
TAG	EISPOT
TITLE	LABEL	Potentiostatic EIS	Test Identifier
DATE	LABEL	8/5/2020	Date
TIME	LABEL	19:25:13	Time
NOTES	NOTES	1	Notes...
	
PSTAT	PSTAT	REF3000-16137	Potentiostat
VDC	POTEN	0.00000E+000	T	DC Voltage (V)
FREQINIT	QUANT	3.00000E+005	Initial Freq. (Hz)
FREQFINAL	QUANT	1.00000E+000	Final Freq. (Hz)
PTSPERDEC	QUANT	1.00000E+001	Points/decade
VAC	QUANT	5.00000E+001	AC Voltage (mV rms)
AREA	QUANT	1.00000E+000	Sample Area (cm^2)
SPEED	SELECTOR	2	Optimize for:
ZGUESS	QUANT	1.00000E+003	Estimated Z (ohms)
EOC	QUANT	0	Open Circuit (V)
SEQUENCER	TOGGLE	TRUE	Run as Sequence
PSTATMODEL	IQUANT	5	Pstat Model
PSTATSECTION	LABEL	REF3000-16137	Pstat Section
PSTATSERIALNO	LABEL	16137	Pstat Serial Number
CTRLMODE	IQUANT	1	Control Mode
IESTAB	IQUANT	0	I/E Stability
CASPEED	IQUANT	1	Control Amp Speed
CONVENTION	IQUANT	1	Current Convention
ICHRANGE	IQUANT	2	Ich Range
ICHRANGEMODE	TOGGLE	F	Ich Auto Range
ICHOFFSETENABLE	TOGGLE	T	Ich Offset Enable
ICHOFFSET	QUANT	0	Ich Offset (V)
ICHFILTER	IQUANT	3	Ich Filter
VCHRANGE	IQUANT	2	Vch Range
VCHRANGEMODE	TOGGLE	F	Vch Auto Range
VCHOFFSETENABLE	TOGGLE	T	Vch Offset Enable
VCHOFFSET	QUANT	0	Vch Offset (V)
VCHFILTER	IQUANT	3	Vch Filter
ACHRANGE	IQUANT	2	Ach Range
ACHOFFSETENABLE	TOGGLE	F	Ach Offset Enable
ACHOFFSET	QUANT	0	Ach Offset (V)
ACHFILTER	IQUANT	3	Ach Filter
IERANGELOWERLIMIT	IQUANT	2	I/E Range Lower Limit
IERANGEMODE	TOGGLE	F	I/E AutoRange
IERANGE	IQUANT	11	I/E Range
POSFEEDENABLE	TOGGLE	F	Positive Feedback IR Comp
POSFEEDRESISTANCE	QUANT	0	Positive Feedback Resistance (ohm)
ACHSELECT	IQUANT	0	Ach Select
CABLEID	IQUANT	13	Cable ID
DCCALDATE	LABEL	7/31/2020	DC Calibration Date
ACCALDATE	LABEL	7/31/2020	AC Calibration Date
THERMOSELECT	IQUANT	1	Thermo Select
FRAMEWORKVERSION	QUANT	6.33	Framework Version
INSTRUMENTVERSION	LABEL	3.50	Instrument Version
COMPLIANCEVOLTAGE	IQUANT	0	Compliance Voltage
ZCURVE	TABLE
	Pt	Time	Freq	Zreal	Zimag	Zsig	Zmod	Zphz	Idc	Vdc	IERange
	#	s	Hz	ohm	ohm	V	ohm	°	A	V	#
	0	16	300046.9	327.8819	-24.77557	1	328.8167	-4.321199	-1.764308E-005	0.0013454	9
	1	21	238359.4	340.2754	-27.76381	1	341.4062	-4.664554	-4.229609E-007	0.0005999	10
	2	26	189328.1	352.9756	-19.63607	1	353.5213	-3.184089	-8.901661E-005	0.0022478	9
	3	30	150421.9	368.7483	-17.51098	1	369.1639	-2.718798	5.104642E-006	0.0014024	9
	4	36	119484.4	379.3358	-2.595771	1	379.3447	-0.3920653	1.837818E-005	0.002488	8
	5	39	94921.88	387.8161	-12.58569	1	388.0202	-1.858752	2.272789E-005	-0.0002243	9
	6	42	75421.88	395.1638	-10.64131	1	395.307	-1.542537	-2.278738E-005	0.0004825	9
	7	44	59859.37	402.9109	-1.815061	1	402.915	-0.2581083	-1.303491E-005	0.0025948	8
	8	47	47578.12	410.0075	-1.809172	1	410.0115	-0.2528179	2.316119E-006	-0.0034384	8
	9	49	37828.12	418.3209	-1.902277	1	418.3253	-0.2605456	1.465437E-005	-0.0023588	8
	10	52	30046.88	426.3822	-2.341853	1	426.3886	-0.314687	9.014117E-007	0.0039603	8
	11	54	23859.38	435.0298	-2.359679	1	435.0362	-0.3107794	-1.496822E-005	0.0042203	8
	12	57	18984.38	442.7797	-2.112646	1	442.7847	-0.2733747	-9.357448E-006	0.0063763	8
	13	59	15046.87	452.581	-2.360358	1	452.5872	-0.2988135	1.673865E-005	-0.0046964	8
	14	61	11953.13	459.0754	-2.215972	1	459.0808	-0.2765664	1.518938E-005	-0.0023476	8
	15	63	9515.62	468.2249	-3.184458	1	468.2358	-0.38967	-2.558081E-006	-0.0020354	8
	16	66	7546.875	476.1787	-3.555901	1	476.192	-0.4278526	-1.248018E-005	0.0056491	8
	17	68	5928.309	484.31	-1.824741	1	484.3134	-0.215873	3.026424E-006	-0.0038082	8
	18	70	4733.456	495.3558	-3.165973	1	495.3659	-0.3661902	1.576185E-005	-0.00237	8
	19	73	3796.875	503.2508	-2.621401	1	503.2576	-0.2984473	1.278576E-005	-0.0005013	8
	20	75	2987.132	513.1874	-4.076165	1	513.2036	-0.4550816	8.408202E-006	-0.0050427	8
	21	77	2390.625	521.3882	-7.06789	1	521.4362	-0.7766486	-1.159354E-005	0.00165	8
	22	80	1884.191	532.2731	-7.718386	1	532.3291	-0.8307763	1.631603E-005	-0.0025385	8
	23	82	1516.544	543.5056	-9.98233	1	543.5972	-1.052208	-5.237324E-006	0.0060301	8
	24	85	1193.986	555.2556	-9.51947	1	555.3372	-0.9822	-1.202968E-005	0.0016297	8
	25	87	946.5144	566.3929	-15.35716	1	566.601	-1.553135	1.309244E-005	-0.0004654	8
	26	90	751.7689	579.5587	-17.22757	1	579.8146	-1.702634	1.320892E-005	-0.0004755	8
	27	92	597.4265	592.279	-22.63063	1	592.7112	-2.188174	1.620167E-005	-0.0056819	8
	28	95	477.4305	604.2999	-26.26692	1	604.8705	-2.488892	-6.279373E-008	0.0006559	8
	29	97	376.6741	616.7612	-32.54593	1	617.6193	-3.020645	-1.02574E-007	0.0006694	8
	30	99	298.2954	629.7946	-40.23556	1	631.0786	-3.655476	-5.542489E-008	0.0006456	8
	31	102	237.7717	643.7806	-49.53539	1	645.6836	-4.399927	-8.779634E-008	0.0006623	8
	32	104	189.0121	658.3162	-61.16582	1	661.1516	-5.308256	-1.153137E-007	0.0006756	8
	33	106	150.2404	673.4008	-75.58537	1	677.6295	-6.404317	-1.439505E-007	0.000706	8
	34	109	119.1737	689.3115	-93.55047	1	695.6307	-7.728723	-9.075504E-008	0.0006509	8
	35	111	95.0169	706.2274	-115.3246	1	715.5815	-9.274358	-7.568767E-008	0.0006362	8
	36	114	75.60484	724.8368	-142.488	1	738.7092	-11.12136	-9.180366E-008	0.0006552	8
	37	116	54.50582	747.1103	-192.6871	1	771.5582	-14.46199	-1.015645E-007	0.0006449	8
	38	119	45.95588	766.6815	-225.7672	1	799.2317	-16.40829	-7.805453E-008	0.0006636	8
	39	121	37.20238	787.9716	-274.6561	1	834.467	-19.21656	-1.171881E-007	0.0006385	8
	40	123	30.04808	811.9594	-334.6848	1	878.2322	-22.40116	-1.581353E-007	0.0006775	8
	41	126	23.91582	838.8445	-413.3899	1	935.1745	-26.23448	-8.585003E-008	0.0006456	8
	42	128	18.60119	869.7292	-521.5262	1	1014.11	-30.94868	-7.631145E-008	0.0006666	8
	43	131	15.02404	902.0255	-634.9744	1	1103.106	-35.14335	-1.500417E-007	0.0006266	8
	44	133	12.01923	940.1771	-780.1743	1	1221.722	-39.68644	-7.463117E-008	0.0006699	8
	45	135	9.450605	986.18	-973.616	1	1385.813	-44.63268	-1.731291E-007	0.0006576	8
	46	138	7.512019	1039.828	-1203.572	1	1590.543	-49.17457	-1.772013E-007	0.0006448	8
	47	141	5.978954	1105.176	-1484.522	1	1850.734	-53.33358	-1.245439E-007	0.0006488	8
	48	144	4.734848	1185.171	-1839.899	1	2188.574	-57.21239	-1.561624E-007	0.0006285	8
	49	147	3.75601	1282.646	-2278.041	1	2614.317	-60.6184	-1.132117E-007	0.0006655	8
	50	150	3.004808	1396.219	-2797.626	1	3126.682	-63.47746	-1.298875E-007	0.0006212	8
	51	154	2.372217	1543.907	-3480.579	1	3807.635	-66.07899	-1.583611E-007	0.0005774	8
	52	158	1.878005	1724.631	-4327.235	1	4658.253	-68.27011	-3.051224E-008	0.0006259	7
	53	163	1.512097	1932.781	-5275.411	1	5618.327	-69.87841	-5.067426E-008	0.0005961	7
	54	168	1.201923	2206.454	-6548.016	1	6909.772	-71.37798	-3.732639E-008	0.0006448	7
	55	175	0.956633	2544.406	-8093.204	1	8483.746	-72.54749	-5.596178E-008	-1.613967E-005	7
