June 12, 2026   09:47:50
A.C. Impedance
File: e:\chi_data\Data Source:  Experiment
Instrument Model:  CHI660E
Header: 
Note: 

Init E (V) = 0
High Frequency (Hz) = 1e+6
Low Frequency (Hz) = 0.1
Imp SF
Amplitude (V) = 0.005
Quiet Time (sec) = 2
Cycles (.1-1Hz) = 1

Freq/Hz, Z'/ohm, Z"/ohm, Z/ohm, Phase/deg

8.252e+5, 3.306e+0, 1.421e+1, 1.459e+1, 76.9
6.816e+5, 2.717e+0, 1.164e+1, 1.195e+1, 76.9
5.625e+5, 2.179e+0, 9.670e+0, 9.912e+0, 77.3
4.639e+5, 1.896e+0, 7.928e+0, 8.151e+0, 76.6
3.828e+5, 1.704e+0, 6.601e+0, 6.817e+0, 75.5
3.164e+5, 1.585e+0, 5.468e+0, 5.693e+0, 73.8
2.607e+5, 1.472e+0, 4.550e+0, 4.782e+0, 72.1
2.158e+5, 1.390e+0, 3.759e+0, 4.008e+0, 69.7
1.777e+5, 1.335e+0, 3.090e+0, 3.366e+0, 66.6
1.465e+5, 1.297e+0, 2.527e+0, 2.840e+0, 62.8
1.211e+5, 1.259e+0, 1.929e+0, 2.304e+0, 56.9
9.961e+4, 1.229e+0, 1.349e+0, 1.825e+0, 47.7
8.252e+4, 1.208e+0, 9.485e-1, 1.536e+0, 38.1
6.812e+4, 1.197e+0, 6.877e-1, 1.380e+0, 29.9
5.625e+4, 1.193e+0, 5.227e-1, 1.302e+0, 23.7
4.644e+4, 1.196e+0, 3.895e-1, 1.258e+0, 18.0
3.833e+4, 1.204e+0, 2.708e-1, 1.234e+0, 12.7
3.164e+4, 1.212e+0, 1.529e-1, 1.222e+0, 7.2
2.612e+4, 1.221e+0, 3.788e-2, 1.222e+0, 1.8
2.153e+4, 1.231e+0, -7.484e-2, 1.234e+0, -3.5
1.777e+4, 1.243e+0, -1.849e-1, 1.257e+0, -8.5
1.470e+4, 1.258e+0, -2.979e-1, 1.293e+0, -13.3
1.211e+4, 1.276e+0, -4.187e-1, 1.343e+0, -18.2
1.001e+4, 1.299e+0, -5.504e-1, 1.411e+0, -23.0
8.252e+3, 1.325e+0, -6.963e-1, 1.497e+0, -27.7
6.812e+3, 1.356e+0, -8.589e-1, 1.605e+0, -32.4
5.625e+3, 1.390e+0, -1.044e+0, 1.738e+0, -36.9
4.643e+3, 1.430e+0, -1.256e+0, 1.903e+0, -41.3
3.833e+3, 1.478e+0, -1.503e+0, 2.108e+0, -45.5
3.164e+3, 1.535e+0, -1.793e+0, 2.360e+0, -49.4
2.612e+3, 1.611e+0, -2.138e+0, 2.677e+0, -53.0
2.153e+3, 1.706e+0, -2.549e+0, 3.067e+0, -56.2
1.777e+3, 1.814e+0, -3.029e+0, 3.531e+0, -59.1
1.470e+3, 1.939e+0, -3.594e+0, 4.084e+0, -61.7
1.211e+3, 2.085e+0, -4.257e+0, 4.741e+0, -63.9
1.001e+3, 2.262e+0, -5.035e+0, 5.519e+0, -65.8
8.252e+2, 2.473e+0, -5.943e+0, 6.437e+0, -67.4
6.836e+2, 2.728e+0, -7.018e+0, 7.530e+0, -68.8
5.615e+2, 3.039e+0, -8.292e+0, 8.831e+0, -69.9
4.639e+2, 3.413e+0, -9.797e+0, 1.037e+1, -70.8
3.809e+2, 3.856e+0, -1.154e+1, 1.217e+1, -71.5
3.174e+2, 4.384e+0, -1.359e+1, 1.428e+1, -72.1
2.588e+2, 5.014e+0, -1.599e+1, 1.676e+1, -72.6
2.148e+2, 5.760e+0, -1.881e+1, 1.967e+1, -73.0
1.758e+2, 6.646e+0, -2.210e+1, 2.308e+1, -73.3
1.465e+2, 7.663e+0, -2.586e+1, 2.697e+1, -73.5
1.221e+2, 8.896e+0, -3.045e+1, 3.172e+1, -73.7
9.766e+1, 1.040e+1, -3.573e+1, 3.721e+1, -73.8
8.254e+1, 1.209e+1, -4.168e+1, 4.339e+1, -73.8
6.813e+1, 1.394e+1, -4.874e+1, 5.070e+1, -74.0
5.623e+1, 1.594e+1, -5.707e+1, 5.925e+1, -74.4
4.642e+1, 1.816e+1, -6.697e+1, 6.939e+1, -74.8
3.831e+1, 2.069e+1, -7.877e+1, 8.145e+1, -75.3
3.162e+1, 2.355e+1, -9.277e+1, 9.572e+1, -75.8
2.610e+1, 2.678e+1, -1.094e+2, 1.126e+2, -76.2
2.154e+1, 3.043e+1, -1.291e+2, 1.327e+2, -76.7
1.778e+1, 3.464e+1, -1.527e+2, 1.565e+2, -77.2
1.468e+1, 3.945e+1, -1.806e+2, 1.849e+2, -77.7
1.212e+1, 4.491e+1, -2.138e+2, 2.185e+2, -78.1
1.000e+1, 5.148e+1, -2.533e+2, 2.585e+2, -78.5
8.254e+0, 5.907e+1, -3.004e+2, 3.062e+2, -78.9
6.813e+0, 6.759e+1, -3.568e+2, 3.631e+2, -79.3
5.623e+0, 7.726e+1, -4.240e+2, 4.310e+2, -79.7
4.642e+0, 8.821e+1, -5.045e+2, 5.121e+2, -80.1
3.831e+0, 1.012e+2, -6.002e+2, 6.087e+2, -80.4
3.162e+0, 1.161e+2, -7.149e+2, 7.243e+2, -80.8
2.610e+0, 1.335e+2, -8.524e+2, 8.628e+2, -81.1
2.154e+0, 1.504e+2, -1.019e+3, 1.030e+3, -81.6
1.778e+0, 1.683e+2, -1.220e+3, 1.232e+3, -82.1
1.468e+0, 1.923e+2, -1.459e+3, 1.472e+3, -82.5
1.212e+0, 2.238e+2, -1.749e+3, 1.763e+3, -82.7
1.000e+0, 2.661e+2, -2.082e+3, 2.099e+3, -82.7
8.254e-1, 3.184e+2, -2.464e+3, 2.485e+3, -82.6
6.813e-1, 3.794e+2, -2.922e+3, 2.947e+3, -82.6
5.623e-1, 4.516e+2, -3.473e+3, 3.502e+3, -82.6
4.642e-1, 5.375e+2, -4.137e+3, 4.172e+3, -82.6
3.831e-1, 6.435e+2, -4.931e+3, 4.973e+3, -82.6
3.162e-1, 7.780e+2, -5.876e+3, 5.927e+3, -82.5
2.610e-1, 9.472e+2, -6.999e+3, 7.063e+3, -82.3
2.154e-1, 1.161e+3, -8.329e+3, 8.410e+3, -82.1
1.778e-1, 1.424e+3, -9.897e+3, 9.998e+3, -81.8
1.468e-1, 1.735e+3, -1.172e+4, 1.185e+4, -81.6
1.212e-1, 2.141e+3, -1.390e+4, 1.407e+4, -81.2
1.000e-1, 2.661e+3, -1.650e+4, 1.671e+4, -80.8
