EXPLAIN
TAG	EISPOT
TITLE	LABEL	Potentiostatic EIS	Test Identifier
DATE	LABEL	9/11/2020	Date
TIME	LABEL	21:28:41	Time
NOTES	NOTES	1	Notes...
	
PSTAT	PSTAT	REF3000-16137	Potentiostat
VDC	POTEN	0.00000E+000	T	DC Voltage (V)
FREQINIT	QUANT	3.00000E+005	Initial Freq. (Hz)
FREQFINAL	QUANT	1.00000E+000	Final Freq. (Hz)
PTSPERDEC	QUANT	1.00000E+001	Points/decade
VAC	QUANT	5.00000E+001	AC Voltage (mV rms)
AREA	QUANT	1.00000E+000	Sample Area (cm^2)
SPEED	SELECTOR	2	Optimize for:
ZGUESS	QUANT	1.00000E+003	Estimated Z (ohms)
EOC	QUANT	0	Open Circuit (V)
SEQUENCER	TOGGLE	TRUE	Run as Sequence
PSTATMODEL	IQUANT	5	Pstat Model
PSTATSECTION	LABEL	REF3000-16137	Pstat Section
PSTATSERIALNO	LABEL	16137	Pstat Serial Number
CTRLMODE	IQUANT	1	Control Mode
IESTAB	IQUANT	0	I/E Stability
CASPEED	IQUANT	1	Control Amp Speed
CONVENTION	IQUANT	1	Current Convention
ICHRANGE	IQUANT	2	Ich Range
ICHRANGEMODE	TOGGLE	F	Ich Auto Range
ICHOFFSETENABLE	TOGGLE	T	Ich Offset Enable
ICHOFFSET	QUANT	0	Ich Offset (V)
ICHFILTER	IQUANT	3	Ich Filter
VCHRANGE	IQUANT	2	Vch Range
VCHRANGEMODE	TOGGLE	F	Vch Auto Range
VCHOFFSETENABLE	TOGGLE	T	Vch Offset Enable
VCHOFFSET	QUANT	0	Vch Offset (V)
VCHFILTER	IQUANT	3	Vch Filter
ACHRANGE	IQUANT	2	Ach Range
ACHOFFSETENABLE	TOGGLE	F	Ach Offset Enable
ACHOFFSET	QUANT	0	Ach Offset (V)
ACHFILTER	IQUANT	3	Ach Filter
IERANGELOWERLIMIT	IQUANT	2	I/E Range Lower Limit
IERANGEMODE	TOGGLE	F	I/E AutoRange
IERANGE	IQUANT	11	I/E Range
POSFEEDENABLE	TOGGLE	F	Positive Feedback IR Comp
POSFEEDRESISTANCE	QUANT	0	Positive Feedback Resistance (ohm)
ACHSELECT	IQUANT	0	Ach Select
CABLEID	IQUANT	13	Cable ID
DCCALDATE	LABEL	7/31/2020	DC Calibration Date
ACCALDATE	LABEL	7/31/2020	AC Calibration Date
THERMOSELECT	IQUANT	1	Thermo Select
FRAMEWORKVERSION	QUANT	6.33	Framework Version
INSTRUMENTVERSION	LABEL	3.50	Instrument Version
COMPLIANCEVOLTAGE	IQUANT	0	Compliance Voltage
ZCURVE	TABLE
	Pt	Time	Freq	Zreal	Zimag	Zsig	Zmod	Zphz	Idc	Vdc	IERange
	#	s	Hz	ohm	ohm	V	ohm	°	A	V	#
	0	10	300046.9	4.729481	2.320924	1	5.268271	26.13882	-0.0003714	0.0012647	10
	1	13	238359.4	4.697338	1.823246	1	5.038771	21.21346	0.0004068	-0.0014936	10
	2	17	189328.1	4.68288	1.437223	1	4.898467	17.06178	0.0004279	-0.0009801	10
	3	19	150421.9	4.679458	1.135669	1	4.815296	13.6415	0.0004321	-0.0007542	10
	4	22	119484.4	4.681101	0.8761364	1	4.762386	10.60109	-0.0002388	0.0005079	10
	5	24	94921.88	4.680825	0.6891302	1	4.731281	8.375154	5.974027E-005	0.0005694	10
	6	27	75421.88	4.682487	0.51274	1	4.710477	6.249084	-0.0001548	0.000797	10
	7	29	59859.37	4.684452	0.3637139	1	4.698551	4.439697	-7.407759E-005	0.0008575	10
	8	32	47578.12	4.690016	0.2354594	1	4.695923	2.874087	-0.0001141	0.0009581	10
	9	34	37828.12	4.697284	0.1198559	1	4.698812	1.461642	0.0000983	0.0005197	10
	10	37	30046.88	4.706198	0.0118086	1	4.706213	0.1437636	0.0001769	0.0002488	10
	11	39	23859.38	4.716657	-0.0932773	1	4.717579	-1.132943	0.0001474	0.0004374	10
	12	41	18984.38	4.726222	-0.2002364	1	4.730462	-2.426006	5.451034E-005	0.000319	10
	13	44	15046.87	4.739785	-0.3168285	1	4.750362	-3.824219	-0.0001598	0.0011155	10
	14	46	11953.13	4.753778	-0.4492044	1	4.774955	-5.398089	-0.0001562	0.0010581	10
	15	48	9515.62	4.770061	-0.5993969	1	4.807573	-7.16214	-6.040535E-005	0.000576	10
	16	51	7546.875	4.790737	-0.7810812	1	4.853993	-9.26002	3.2616E-005	0.0007707	10
	17	53	5928.309	4.816292	-1.01089	1	4.921236	-11.85372	-0.0001443	0.0008371	10
	18	55	4733.456	4.846997	-1.270603	1	5.01077	-14.68913	0.0001666	0.0002372	10
	19	58	3796.875	4.883169	-1.581943	1	5.133019	-17.95016	-0.0001136	0.0006944	10
	20	60	2987.132	4.934721	-1.996581	1	5.323327	-22.02819	0.0001417	0.0002251	10
	21	62	2390.625	4.996759	-2.468985	1	5.573463	-26.29478	-8.925224E-005	0.0006688	10
	22	65	1884.191	5.083444	-3.096673	1	5.952376	-31.34846	-0.000148	0.0010715	10
	23	67	1516.544	5.181846	-3.798077	1	6.424711	-36.23986	-0.0001435	0.0008394	10
	24	69	1193.986	5.321855	-4.750378	1	7.133599	-41.75264	-0.0001661	0.0009564	10
	25	72	946.5144	5.503722	-5.887751	1	8.059564	-46.93082	0.0001401	0.0002291	10
	26	74	751.7689	5.729877	-7.283038	1	9.266829	-51.80636	-6.626096E-005	0.0009739	10
	27	76	597.4265	6.025895	-8.982161	1	10.81622	-56.14338	-0.0001467	0.0010731	10
	28	79	477.4305	6.399611	-11.00697	1	12.73218	-59.82566	-1.874148E-006	0.0006542	10
	29	81	376.6741	6.899984	-13.62672	1	15.27408	-63.14432	-1.929715E-006	0.0006518	10
	30	83	298.2954	7.526616	-16.79041	1	18.40021	-65.8548	-1.50182E-006	0.0006555	10
	31	86	237.7717	8.294059	-20.5442	1	22.15526	-68.01519	-2.17557E-006	0.000656	10
	32	88	189.0121	9.270149	-25.17499	1	26.82752	-69.78486	-2.374207E-006	0.000657	10
	33	90	150.2404	10.50029	-30.83132	1	32.57033	-71.19258	-1.36723E-006	0.0006546	10
	34	93	119.1737	12.06886	-37.79911	1	39.67909	-72.29227	-1.184804E-006	0.0006528	10
	35	95	95.0169	13.99514	-46.03734	1	48.11757	-73.09097	1.35217E-006	5.443367E-005	9
	36	98	75.60484	16.48481	-56.19088	1	58.55906	-73.64981	1.268569E-006	5.336112E-005	9
	37	100	54.50582	21.30597	-74.58274	1	77.56629	-74.05701	1.318214E-006	5.108984E-005	9
	38	103	45.95588	24.5761	-86.34768	1	89.77698	-74.1127	1.554327E-006	5.567374E-005	9
	39	105	37.20238	29.56689	-103.3573	1	107.5032	-74.03604	1.271634E-006	5.883371E-005	9
	40	107	30.04808	35.86269	-123.6935	1	128.7875	-73.83144	1.348678E-006	5.989459E-005	9
	41	110	23.91582	44.24389	-149.4319	1	155.8442	-73.507	1.178968E-006	5.494722E-005	9
	42	112	18.60119	55.89405	-183.5541	1	191.8756	-73.06399	1.238729E-006	5.654842E-005	9
	43	114	15.02404	68.15279	-218.0337	1	228.4371	-72.64184	1.625416E-006	6.152224E-005	9
	44	117	12.01923	83.49889	-260.3305	1	273.3935	-72.21678	1.191989E-006	5.548105E-005	9
	45	119	9.450605	103.4926	-314.8344	1	331.4083	-71.80323	1.436894E-006	5.904846E-005	9
	46	122	7.512019	125.9203	-377.3	1	397.7578	-71.54406	1.397729E-006	6.964745E-005	9
	47	124	5.978954	152.1044	-449.7295	1	474.755	-71.31379	1.318862E-006	0.0006296	8
	48	128	4.734848	185.3704	-542.1031	1	572.9205	-71.12205	1.387682E-006	0.0006315	8
	49	131	3.75601	226.1998	-653.5917	1	691.6274	-70.90991	1.33162E-006	0.0006334	8
	50	134	3.004808	276.7748	-783.8419	1	831.2715	-70.55186	1.363752E-006	0.0005987	8
	51	138	2.372217	347.6858	-951.836	1	1013.35	-69.93382	1.338931E-006	0.0005697	8
	52	142	1.878005	445.4451	-1150.79	1	1233.993	-68.83969	1.326475E-006	0.0006386	8
	53	147	1.512097	568.7352	-1367.26	1	1480.83	-67.41429	1.308703E-006	0.0005307	8
	54	152	1.201923	745.5485	-1632.179	1	1794.394	-65.44997	1.363309E-006	0.000621	8
	55	158	0.956633	984.395	-1922.406	1	2159.787	-62.88465	1.210232E-006	-5.91338E-006	8
