EXPLAIN
TAG	EISPOT
TITLE	LABEL	Potentiostatic EIS	Test Identifier
DATE	LABEL	9/11/2020	Date
TIME	LABEL	22:18:28	Time
NOTES	NOTES	1	Notes...
	
PSTAT	PSTAT	REF3000-16137	Potentiostat
VDC	POTEN	0.00000E+000	T	DC Voltage (V)
FREQINIT	QUANT	3.00000E+005	Initial Freq. (Hz)
FREQFINAL	QUANT	1.00000E+000	Final Freq. (Hz)
PTSPERDEC	QUANT	1.00000E+001	Points/decade
VAC	QUANT	5.00000E+001	AC Voltage (mV rms)
AREA	QUANT	1.00000E+000	Sample Area (cm^2)
SPEED	SELECTOR	2	Optimize for:
ZGUESS	QUANT	1.00000E+003	Estimated Z (ohms)
EOC	QUANT	0	Open Circuit (V)
SEQUENCER	TOGGLE	TRUE	Run as Sequence
PSTATMODEL	IQUANT	5	Pstat Model
PSTATSECTION	LABEL	REF3000-16137	Pstat Section
PSTATSERIALNO	LABEL	16137	Pstat Serial Number
CTRLMODE	IQUANT	1	Control Mode
IESTAB	IQUANT	0	I/E Stability
CASPEED	IQUANT	1	Control Amp Speed
CONVENTION	IQUANT	1	Current Convention
ICHRANGE	IQUANT	2	Ich Range
ICHRANGEMODE	TOGGLE	F	Ich Auto Range
ICHOFFSETENABLE	TOGGLE	T	Ich Offset Enable
ICHOFFSET	QUANT	0	Ich Offset (V)
ICHFILTER	IQUANT	3	Ich Filter
VCHRANGE	IQUANT	2	Vch Range
VCHRANGEMODE	TOGGLE	F	Vch Auto Range
VCHOFFSETENABLE	TOGGLE	T	Vch Offset Enable
VCHOFFSET	QUANT	0	Vch Offset (V)
VCHFILTER	IQUANT	3	Vch Filter
ACHRANGE	IQUANT	2	Ach Range
ACHOFFSETENABLE	TOGGLE	F	Ach Offset Enable
ACHOFFSET	QUANT	0	Ach Offset (V)
ACHFILTER	IQUANT	3	Ach Filter
IERANGELOWERLIMIT	IQUANT	2	I/E Range Lower Limit
IERANGEMODE	TOGGLE	F	I/E AutoRange
IERANGE	IQUANT	11	I/E Range
POSFEEDENABLE	TOGGLE	F	Positive Feedback IR Comp
POSFEEDRESISTANCE	QUANT	0	Positive Feedback Resistance (ohm)
ACHSELECT	IQUANT	0	Ach Select
CABLEID	IQUANT	13	Cable ID
DCCALDATE	LABEL	7/31/2020	DC Calibration Date
ACCALDATE	LABEL	7/31/2020	AC Calibration Date
THERMOSELECT	IQUANT	1	Thermo Select
FRAMEWORKVERSION	QUANT	6.33	Framework Version
INSTRUMENTVERSION	LABEL	3.50	Instrument Version
COMPLIANCEVOLTAGE	IQUANT	0	Compliance Voltage
ZCURVE	TABLE
	Pt	Time	Freq	Zreal	Zimag	Zsig	Zmod	Zphz	Idc	Vdc	IERange
	#	s	Hz	ohm	ohm	V	ohm	°	A	V	#
	0	6	300046.9	73.93233	1.717734	1	73.95228	1.330963	-3.052102E-005	-0.0005978	9
	1	10	238359.4	74.21288	1.315506	1	74.22453	1.015525	-2.920024E-005	-0.0005481	9
	2	13	189328.1	74.59636	0.8876605	1	74.60164	0.6817598	2.016392E-009	0.0007784	9
	3	15	150421.9	75.01084	0.6714771	1	75.01385	0.5128829	-9.429534E-006	0.0007728	9
	4	18	119484.4	75.28706	0.5419287	1	75.28902	0.4124174	2.742864E-006	0.0004476	9
	5	20	94921.88	75.7424	0.6009519	1	75.74478	0.454584	-1.895018E-005	0.0004995	9
	6	23	75421.88	75.97463	0.3918278	1	75.97564	0.2954918	2.21112E-005	-0.0006067	9
	7	25	59859.37	76.34167	0.2002	1	76.34193	0.1502533	-1.857392E-005	0.0005266	9
	8	28	47578.12	76.68015	0.0443023	1	76.68017	0.0331029	-2.936679E-006	-0.0002456	9
	9	30	37828.12	77.01971	-0.058264	1	77.01973	-0.0433432	-1.355445E-005	0.0001161	9
	10	33	30046.88	77.3661	-0.1563232	1	77.36626	-0.1157697	-4.680166E-006	0.0006353	9
	11	35	23859.38	77.70466	-0.3060904	1	77.70526	-0.2256956	2.352933E-006	0.000363	9
	12	38	18984.38	78.01503	-0.4200928	1	78.01616	-0.3085214	1.741257E-005	-0.0001514	9
	13	40	15046.87	78.28249	-0.518602	1	78.28421	-0.3795647	1.149961E-005	0.0001484	9
	14	42	11953.13	78.62653	-0.6640786	1	78.62933	-0.4839079	4.909681E-006	-0.0004501	9
	15	45	9515.62	78.97521	-0.8821045	1	78.98014	-0.6399319	1.180224E-005	-0.0006205	9
	16	47	7546.875	79.24851	-1.124797	1	79.25649	-0.8131613	-1.465194E-005	0.0002219	9
	17	49	5928.309	79.60017	-1.416988	1	79.61279	-1.019833	5.07193E-006	-0.000466	9
	18	52	4733.456	79.95927	-1.78184	1	79.97913	-1.276588	2.500187E-006	0.0004145	9
	19	54	3796.875	80.32613	-2.15075	1	80.35491	-1.533741	-1.81354E-005	0.0007298	9
	20	56	2987.132	80.71816	-2.71648	1	80.76386	-1.927498	1.183584E-005	-0.0006097	9
	21	58	2390.625	81.08878	-3.363436	1	81.1585	-2.375178	2.029163E-005	-0.0006279	9
	22	61	1884.191	81.45357	-4.113619	1	81.55737	-2.891131	-1.14611E-005	0.0007423	9
	23	63	1516.544	81.85217	-5.153933	1	82.01427	-3.60295	-5.286679E-006	0.0006371	9
	24	65	1193.986	82.34679	-6.455675	1	82.59945	-4.482603	-1.866934E-005	0.0007122	9
	25	68	946.5144	82.81861	-8.059835	1	83.20988	-5.558472	-1.370428E-005	0.0001414	9
	26	70	751.7689	83.37189	-10.02406	1	83.97234	-6.855939	-1.820205E-005	0.0004561	9
	27	72	597.4265	83.87259	-12.39375	1	84.78335	-8.405699	4.766876E-006	-0.0004523	9
	28	75	477.4305	84.50004	-15.35113	1	85.88314	-10.29663	1.267501E-006	5.548524E-005	9
	29	77	376.6741	85.21797	-19.20099	1	87.35434	-12.69763	1.311161E-006	5.119712E-005	9
	30	79	298.2954	86.04288	-23.92781	1	89.308	-15.54081	1.304911E-006	5.113633E-005	9
	31	82	237.7717	87.01018	-29.63198	1	91.91749	-18.80667	1.290227E-006	4.959052E-005	9
	32	84	189.0121	88.16818	-36.77841	1	95.5316	-22.64293	1.273977E-006	5.393143E-005	9
	33	87	150.2404	89.56986	-45.62035	1	100.5185	-26.99097	1.317499E-006	4.912014E-005	9
	34	89	119.1737	91.31405	-56.6649	1	107.467	-31.82166	1.210409E-006	5.296453E-005	9
	35	91	95.0169	93.44265	-69.9922	1	116.7495	-36.83464	1.312662E-006	4.466244E-005	9
	36	94	75.60484	96.143	-86.54036	1	129.355	-41.99105	1.208341E-006	4.682222E-005	9
	37	96	54.50582	101.1164	-117.0579	1	154.6838	-49.17903	1.262554E-006	4.613894E-005	9
	38	99	45.95588	104.6303	-136.9441	1	172.3403	-52.61886	1.252945E-006	5.655647E-005	9
	39	101	37.20238	109.8259	-166.1282	1	199.1489	-56.53167	1.268317E-006	5.57871E-005	9
	40	104	30.04808	116.3579	-201.8148	1	232.9558	-60.03407	1.360723E-006	4.22845E-005	9
	41	106	23.91582	125.0873	-248.0775	1	277.8296	-63.24154	1.282396E-006	4.82127E-005	9
	42	108	18.60119	137.3139	-311.0637	1	340.0231	-66.18175	1.275988E-006	5.315018E-005	9
	43	111	15.02404	150.4539	-376.4586	1	405.4102	-68.21558	1.312756E-006	6.087152E-005	9
	44	113	12.01923	166.716	-457.4352	1	486.8687	-69.97531	3.35438E-007	0.0006273	8
	45	115	9.450605	189.5093	-565.9382	1	596.8248	-71.48643	2.789804E-007	0.0006199	8
	46	118	7.512019	217.0267	-693.2842	1	726.4597	-72.61772	3.399364E-007	0.0006363	8
	47	121	5.978954	250.531	-847.4128	1	883.671	-73.5301	3.04843E-007	0.0006263	8
	48	124	4.734848	294.0307	-1040.008	1	1080.773	-74.21336	3.124623E-007	0.0006623	8
	49	127	3.75601	348.4785	-1274.332	1	1321.12	-74.70582	2.423027E-007	0.000625	8
	50	130	3.004808	413.9073	-1547.583	1	1601.978	-75.02647	2.496029E-007	0.0006523	8
	51	134	2.372217	504.514	-1902.096	1	1967.868	-75.14487	2.80586E-007	0.0007075	8
	52	138	1.878005	614.162	-2329.561	1	2409.16	-75.23069	2.251912E-007	0.0006094	8
	53	143	1.512097	743.1196	-2800.703	1	2897.613	-75.13993	2.654548E-007	0.0006928	8
	54	148	1.201923	920.1166	-3417.291	1	3538.996	-74.93031	2.428145E-007	0.0006018	8
	55	155	0.956633	1142.565	-4153.269	1	4307.563	-74.61842	-7.068882E-009	-3.320659E-005	7
