EXPLAIN
TAG	EISPOT
TITLE	LABEL	Potentiostatic EIS	Test Identifier
DATE	LABEL	9/11/2020	Date
TIME	LABEL	22:04:41	Time
NOTES	NOTES	1	Notes...
	
PSTAT	PSTAT	REF3000-16137	Potentiostat
VDC	POTEN	0.00000E+000	T	DC Voltage (V)
FREQINIT	QUANT	3.00000E+005	Initial Freq. (Hz)
FREQFINAL	QUANT	1.00000E+000	Final Freq. (Hz)
PTSPERDEC	QUANT	1.00000E+001	Points/decade
VAC	QUANT	5.00000E+001	AC Voltage (mV rms)
AREA	QUANT	1.00000E+000	Sample Area (cm^2)
SPEED	SELECTOR	2	Optimize for:
ZGUESS	QUANT	1.00000E+003	Estimated Z (ohms)
EOC	QUANT	0	Open Circuit (V)
SEQUENCER	TOGGLE	TRUE	Run as Sequence
PSTATMODEL	IQUANT	5	Pstat Model
PSTATSECTION	LABEL	REF3000-16137	Pstat Section
PSTATSERIALNO	LABEL	16137	Pstat Serial Number
CTRLMODE	IQUANT	1	Control Mode
IESTAB	IQUANT	0	I/E Stability
CASPEED	IQUANT	1	Control Amp Speed
CONVENTION	IQUANT	1	Current Convention
ICHRANGE	IQUANT	2	Ich Range
ICHRANGEMODE	TOGGLE	F	Ich Auto Range
ICHOFFSETENABLE	TOGGLE	T	Ich Offset Enable
ICHOFFSET	QUANT	0	Ich Offset (V)
ICHFILTER	IQUANT	3	Ich Filter
VCHRANGE	IQUANT	2	Vch Range
VCHRANGEMODE	TOGGLE	F	Vch Auto Range
VCHOFFSETENABLE	TOGGLE	T	Vch Offset Enable
VCHOFFSET	QUANT	0	Vch Offset (V)
VCHFILTER	IQUANT	3	Vch Filter
ACHRANGE	IQUANT	2	Ach Range
ACHOFFSETENABLE	TOGGLE	F	Ach Offset Enable
ACHOFFSET	QUANT	0	Ach Offset (V)
ACHFILTER	IQUANT	3	Ach Filter
IERANGELOWERLIMIT	IQUANT	2	I/E Range Lower Limit
IERANGEMODE	TOGGLE	F	I/E AutoRange
IERANGE	IQUANT	11	I/E Range
POSFEEDENABLE	TOGGLE	F	Positive Feedback IR Comp
POSFEEDRESISTANCE	QUANT	0	Positive Feedback Resistance (ohm)
ACHSELECT	IQUANT	0	Ach Select
CABLEID	IQUANT	13	Cable ID
DCCALDATE	LABEL	7/31/2020	DC Calibration Date
ACCALDATE	LABEL	7/31/2020	AC Calibration Date
THERMOSELECT	IQUANT	1	Thermo Select
FRAMEWORKVERSION	QUANT	6.33	Framework Version
INSTRUMENTVERSION	LABEL	3.50	Instrument Version
COMPLIANCEVOLTAGE	IQUANT	0	Compliance Voltage
ZCURVE	TABLE
	Pt	Time	Freq	Zreal	Zimag	Zsig	Zmod	Zphz	Idc	Vdc	IERange
	#	s	Hz	ohm	ohm	V	ohm	°	A	V	#
	0	7	300046.9	23.39324	1.922666	1	23.47212	4.69852	5.116443E-005	-0.0002572	10
	1	10	238359.4	23.47938	1.536867	1	23.52962	3.745013	7.032925E-005	-1.262674E-005	10
	2	13	189328.1	23.54359	1.210256	1	23.57467	2.942695	7.471855E-005	0.0001775	10
	3	15	150421.9	23.61167	0.7756499	1	23.62441	1.881506	3.993451E-005	0.0007565	11
	4	19	119484.4	23.73478	0.7297477	1	23.746	1.761057	-2.424976E-005	0.0005894	10
	5	23	94921.88	23.80398	0.5581847	1	23.81052	1.343295	-2.88203E-005	0.0006183	10
	6	25	75421.88	23.88353	0.3062058	1	23.88549	0.7345372	1.317355E-005	0.0006538	11
	7	29	59859.37	23.98157	0.2595134	1	23.98297	0.6199946	-2.610719E-005	0.0006834	10
	8	31	47578.12	24.05566	0.1409816	1	24.05607	0.3357861	-1.035496E-005	0.0006208	10
	9	34	37828.12	24.13366	0.0324136	1	24.13368	0.0769531	2.021098E-005	0.0006091	10
	10	36	30046.88	24.20852	-0.0748127	1	24.20863	-0.1770632	-1.992672E-006	0.0005981	10
	11	39	23859.38	24.2873	-0.1862387	1	24.28801	-0.4393442	-2.702056E-005	0.0006336	10
	12	41	18984.38	24.36116	-0.3015229	1	24.36303	-0.7091249	-2.936834E-005	0.0006441	10
	13	43	15046.87	24.43349	-0.4349322	1	24.43736	-1.019795	2.37289E-005	0.0006129	10
	14	46	11953.13	24.51747	-0.5820996	1	24.52438	-1.360075	-1.887013E-005	0.0006755	10
	15	48	9515.62	24.59915	-0.7545041	1	24.61071	-1.756823	1.875869E-005	0.0006827	10
	16	50	7546.875	24.68568	-0.97274	1	24.70484	-2.256574	-1.111412E-005	0.0006219	10
	17	53	5928.309	24.7757	-1.241363	1	24.80678	-2.868351	1.70103E-005	0.0006542	10
	18	55	4733.456	24.86844	-1.547923	1	24.91657	-3.56175	2.559587E-005	0.0006176	10
	19	57	3796.875	24.9677	-1.919584	1	25.04139	-4.396403	-9.554018E-006	0.0006321	10
	20	60	2987.132	25.08533	-2.42367	1	25.20215	-5.518617	-1.410248E-005	0.0006956	10
	21	62	2390.625	25.20304	-3.001144	1	25.38109	-6.79073	1.626396E-005	0.0006202	10
	22	64	1884.191	25.35323	-3.775362	1	25.63279	-8.469704	6.456948E-006	0.0006669	10
	23	67	1516.544	25.49693	-4.6276	1	25.91348	-10.287	1.97968E-005	0.0005927	10
	24	69	1193.986	25.68157	-5.806335	1	26.32977	-12.73979	-2.738624E-005	0.0006696	10
	25	71	946.5144	25.90634	-7.240526	1	26.89914	-15.61507	-1.77139E-005	0.0006333	10
	26	74	751.7689	26.16315	-8.996513	1	27.66673	-18.97615	1.37004E-005	0.0005752	10
	27	76	597.4265	26.47132	-11.1695	1	28.73132	-22.87718	2.397161E-005	0.000635	10
	28	78	477.4305	26.85241	-13.79068	1	30.18667	-27.18382	-2.397201E-006	0.0006472	10
	29	81	376.6741	27.35103	-17.22055	1	32.32067	-32.19503	-2.023362E-006	0.0006468	10
	30	83	298.2954	27.97369	-21.41058	1	35.22698	-37.42981	-2.581566E-006	0.0007023	10
	31	85	237.7717	28.71637	-26.40271	1	39.0094	-42.59639	9.173192E-007	0.0000983	9
	32	88	189.0121	29.70935	-32.6518	1	44.14505	-47.70145	1.294781E-006	5.082571E-005	9
	33	90	150.2404	30.98003	-40.33742	1	50.86127	-52.47494	1.357075E-006	5.035101E-005	9
	34	92	119.1737	32.61744	-49.87352	1	59.59249	-56.81519	1.233948E-006	5.477131E-005	9
	35	95	95.0169	34.65873	-61.29964	1	70.41927	-60.51624	1.302895E-006	5.289903E-005	9
	36	97	75.60484	37.27746	-75.39544	1	84.10756	-63.69101	1.223259E-006	5.170526E-005	9
	37	100	54.50582	42.23715	-101.1688	1	109.6317	-67.33987	1.313916E-006	4.308226E-005	9
	38	102	45.95588	45.58137	-117.848	1	126.3559	-68.85448	1.279895E-006	5.361897E-005	9
	39	105	37.20238	50.5644	-142.2121	1	150.9339	-70.42684	1.282865E-006	4.815026E-005	9
	40	107	30.04808	56.7528	-171.8727	1	181.0002	-71.72664	1.299594E-006	4.748624E-005	9
	41	110	23.91582	64.93295	-210.1929	1	219.9939	-72.83299	1.412386E-006	4.958782E-005	9
	42	112	18.60119	76.38091	-262.3102	1	273.2044	-73.76521	9.121921E-007	0.0001015	9
	43	114	15.02404	88.56697	-316.3802	1	328.5431	-74.36102	1.239142E-006	4.730421E-005	9
	44	116	12.01923	104.6631	-384.6335	1	398.6192	-74.77774	1.415897E-006	4.399691E-005	9
	45	119	9.450605	126.1573	-472.2509	1	488.8114	-75.04324	5.052414E-007	0.0006175	8
	46	121	7.512019	153.0605	-576.3756	1	596.3525	-75.12797	6.693759E-007	0.0006301	8
	47	124	5.978954	186.6523	-701.1479	1	725.567	-75.09303	6.243034E-007	0.0006291	8
	48	127	4.734848	230.9045	-855.2556	1	885.8775	-74.89133	6.421198E-007	0.0006536	8
	49	130	3.75601	286.3948	-1039.445	1	1078.178	-74.5957	4.939689E-007	0.0006179	8
	50	134	3.004808	352.7691	-1250.836	1	1299.629	-74.25013	5.545382E-007	0.0006363	8
	51	137	2.372217	441.6902	-1516.902	1	1579.9	-73.76555	5.668294E-007	0.0006677	8
	52	142	1.878005	547.4539	-1836.771	1	1916.621	-73.40319	5.155226E-007	0.0006147	8
	53	146	1.512097	660.5189	-2181.739	1	2279.532	-73.15637	5.79738E-007	0.000582	8
	54	152	1.201923	809.0826	-2623.84	1	2745.751	-72.86243	5.421327E-007	0.0006027	8
	55	158	0.956633	976.516	-3144.683	1	3292.813	-72.74891	5.377468E-007	-1.132185E-005	8
