EXPLAIN
TAG	EISPOT
TITLE	LABEL	Potentiostatic EIS	Test Identifier
DATE	LABEL	9/11/2020	Date
TIME	LABEL	21:17:31	Time
NOTES	NOTES	1	Notes...
	
PSTAT	PSTAT	REF3000-16137	Potentiostat
VDC	POTEN	0.00000E+000	T	DC Voltage (V)
FREQINIT	QUANT	3.00000E+005	Initial Freq. (Hz)
FREQFINAL	QUANT	1.00000E+000	Final Freq. (Hz)
PTSPERDEC	QUANT	1.00000E+001	Points/decade
VAC	QUANT	5.00000E+001	AC Voltage (mV rms)
AREA	QUANT	1.00000E+000	Sample Area (cm^2)
SPEED	SELECTOR	2	Optimize for:
ZGUESS	QUANT	1.00000E+003	Estimated Z (ohms)
EOC	QUANT	0	Open Circuit (V)
SEQUENCER	TOGGLE	TRUE	Run as Sequence
PSTATMODEL	IQUANT	5	Pstat Model
PSTATSECTION	LABEL	REF3000-16137	Pstat Section
PSTATSERIALNO	LABEL	16137	Pstat Serial Number
CTRLMODE	IQUANT	1	Control Mode
IESTAB	IQUANT	0	I/E Stability
CASPEED	IQUANT	1	Control Amp Speed
CONVENTION	IQUANT	1	Current Convention
ICHRANGE	IQUANT	2	Ich Range
ICHRANGEMODE	TOGGLE	F	Ich Auto Range
ICHOFFSETENABLE	TOGGLE	T	Ich Offset Enable
ICHOFFSET	QUANT	0	Ich Offset (V)
ICHFILTER	IQUANT	3	Ich Filter
VCHRANGE	IQUANT	2	Vch Range
VCHRANGEMODE	TOGGLE	F	Vch Auto Range
VCHOFFSETENABLE	TOGGLE	T	Vch Offset Enable
VCHOFFSET	QUANT	0	Vch Offset (V)
VCHFILTER	IQUANT	3	Vch Filter
ACHRANGE	IQUANT	2	Ach Range
ACHOFFSETENABLE	TOGGLE	F	Ach Offset Enable
ACHOFFSET	QUANT	0	Ach Offset (V)
ACHFILTER	IQUANT	3	Ach Filter
IERANGELOWERLIMIT	IQUANT	2	I/E Range Lower Limit
IERANGEMODE	TOGGLE	F	I/E AutoRange
IERANGE	IQUANT	11	I/E Range
POSFEEDENABLE	TOGGLE	F	Positive Feedback IR Comp
POSFEEDRESISTANCE	QUANT	0	Positive Feedback Resistance (ohm)
ACHSELECT	IQUANT	0	Ach Select
CABLEID	IQUANT	13	Cable ID
DCCALDATE	LABEL	7/31/2020	DC Calibration Date
ACCALDATE	LABEL	7/31/2020	AC Calibration Date
THERMOSELECT	IQUANT	1	Thermo Select
FRAMEWORKVERSION	QUANT	6.33	Framework Version
INSTRUMENTVERSION	LABEL	3.50	Instrument Version
COMPLIANCEVOLTAGE	IQUANT	0	Compliance Voltage
ZCURVE	TABLE
	Pt	Time	Freq	Zreal	Zimag	Zsig	Zmod	Zphz	Idc	Vdc	IERange
	#	s	Hz	ohm	ohm	V	ohm	°	A	V	#
	0	10	300046.9	3.721843	2.294566	1	4.372316	31.65439	0.0004041	-0.0009064	10
	1	13	238359.4	3.689334	1.824126	1	4.115656	26.30928	0.0004126	-0.0012188	10
	2	16	189328.1	3.674834	1.442556	1	3.947831	21.43248	0.0002558	-0.0002505	10
	3	19	150421.9	3.657307	1.134344	1	3.829182	17.2317	-0.0002245	0.000295	10
	4	21	119484.4	3.658481	0.8823885	1	3.763389	13.56017	0.0001319	0.0003836	10
	5	24	94921.88	3.656341	0.6893892	1	3.720764	10.67755	0.0001218	0.0001037	10
	6	26	75421.88	3.655048	0.5151058	1	3.691166	8.021863	0.000181	0.0001203	10
	7	29	59859.37	3.656558	0.3678278	1	3.675012	5.744289	6.582039E-005	0.0002627	10
	8	31	47578.12	3.659008	0.2413569	1	3.66696	3.7739	-0.0001092	0.0008258	10
	9	34	37828.12	3.663195	0.1290332	1	3.665467	2.017365	-9.490493E-005	0.0006226	10
	10	36	30046.88	3.668432	0.0233152	1	3.668506	0.3641454	0.0001012	0.0003088	10
	11	39	23859.38	3.675431	-0.0800007	1	3.676301	-1.246923	0.000139	0.0002914	10
	12	41	18984.38	3.683734	-0.1844892	1	3.688351	-2.867099	-0.0001559	0.0008456	10
	13	43	15046.87	3.692956	-0.2991332	1	3.705051	-4.630906	2.948919E-006	0.0004692	10
	14	46	11953.13	3.706861	-0.4245898	1	3.731099	-6.534273	-0.000153	0.0009465	10
	15	48	9515.62	3.719744	-0.5700837	1	3.763175	-8.713288	9.407671E-005	0.0006051	10
	16	50	7546.875	3.736844	-0.7443134	1	3.81025	-11.26488	-8.929592E-005	0.0007005	10
	17	53	5928.309	3.760739	-0.964895	1	3.882548	-14.39001	0.000137	0.0003189	10
	18	55	4733.456	3.789963	-1.212906	1	3.979317	-17.74629	5.30259E-006	0.0004775	10
	19	57	3796.875	3.827376	-1.509761	1	4.114388	-21.52743	-0.0001448	0.0008812	10
	20	60	2987.132	3.877646	-1.904223	1	4.319978	-26.1546	-9.340578E-005	0.000696	10
	21	62	2390.625	3.937687	-2.358197	1	4.589823	-30.9165	0.0001666	0.0003163	10
	22	64	1884.191	4.022605	-2.951841	1	4.98946	-36.27172	3.786557E-005	0.0007091	10
	23	67	1516.544	4.124362	-3.612384	1	5.482671	-41.21399	-4.897891E-005	0.0005882	10
	24	69	1193.986	4.268386	-4.508502	1	6.208519	-46.56709	0.0001357	0.0003243	10
	25	71	946.5144	4.452381	-5.582723	1	7.140762	-51.42664	-0.0001039	0.0009686	10
	26	74	751.7689	4.685182	-6.880057	1	8.323828	-55.74591	5.518578E-005	0.0004085	10
	27	76	597.4265	4.991183	-8.470346	1	9.83151	-59.49112	2.874541E-006	0.0004897	10
	28	78	477.4305	5.356853	-10.35949	1	11.66254	-62.65668	7.795637E-008	0.000658	10
	29	81	376.6741	5.853021	-12.79651	1	14.07155	-65.42103	-4.306931E-007	0.0006551	10
	30	83	298.2954	6.471548	-15.73721	1	17.0159	-67.64627	-3.578788E-008	0.0006573	10
	31	85	237.7717	7.228493	-19.22265	1	20.53683	-69.39172	-1.522695E-007	0.0006522	10
	32	88	189.0121	8.19428	-23.52206	1	24.9085	-70.79341	-4.261179E-007	0.0006529	10
	33	90	150.2404	9.420877	-28.7621	1	30.26568	-71.86406	4.040921E-008	0.0005938	10
	34	93	119.1737	10.9985	-35.20145	1	36.87966	-72.64888	-1.01489E-006	0.0006577	10
	35	95	95.0169	12.94913	-42.77889	1	44.69579	-73.15898	2.395775E-006	5.591235E-005	9
	36	97	75.60484	15.47862	-52.07072	1	54.32263	-73.44482	2.328174E-006	5.034533E-005	9
	37	100	54.50582	20.35434	-68.76423	1	71.71345	-73.51115	2.329553E-006	4.978096E-005	9
	38	102	45.95588	23.64648	-79.3757	1	82.82305	-73.4109	2.845081E-006	-7.864078E-007	9
	39	105	37.20238	28.57895	-94.58675	1	98.81	-73.18805	2.311686E-006	5.527901E-005	9
	40	107	30.04808	34.68839	-112.6717	1	117.8906	-72.88791	2.198481E-006	5.561733E-005	9
	41	110	23.91582	42.69404	-135.526	1	142.0918	-72.51428	2.163575E-006	4.713474E-005	9
	42	112	18.60119	53.69357	-165.8156	1	174.2924	-72.05727	2.467535E-006	4.787689E-005	9
	43	114	15.02404	64.91978	-196.5173	1	206.9629	-71.71896	2.225237E-006	5.321548E-005	9
	44	116	12.01923	79.15865	-234.4905	1	247.4912	-71.34649	2.377438E-006	5.563704E-005	9
	45	119	9.450605	97.8844	-283.8823	1	300.2841	-70.97549	2.469455E-006	4.839437E-005	9
	46	121	7.512019	119.912	-340.7928	1	361.2736	-70.61497	2.456302E-006	8.058489E-005	9
	47	124	5.978954	147.1859	-407.5277	1	433.2927	-70.14191	2.340605E-006	0.0006339	8
	48	127	4.734848	184.4888	-491.9413	1	525.3973	-69.44286	2.475661E-006	0.0006282	8
	49	130	3.75601	233.8031	-591.8167	1	636.3261	-68.44301	2.341071E-006	0.0006391	8
	50	134	3.004808	298.0364	-704.7375	1	765.1671	-67.0763	2.469966E-006	0.0005982	8
	51	137	2.372217	391.4058	-843.2106	1	929.625	-65.09998	2.358036E-006	0.0005557	8
	52	142	1.878005	517.6172	-994.002	1	1120.7	-62.49218	2.442624E-006	0.000638	8
	53	146	1.512097	670.3611	-1139.843	1	1322.356	-59.53949	2.405168E-006	0.0005576	8
	54	152	1.201923	878.6938	-1296.18	1	1565.946	-55.86625	2.412598E-006	0.0006565	8
	55	158	0.956633	1131.278	-1432.144	1	1825.055	-51.6941	2.09813E-006	-9.192061E-006	8
