EXPLAIN
TAG	EISPOT
TITLE	LABEL	Potentiostatic EIS	Test Identifier
DATE	LABEL	9/11/2020	Date
TIME	LABEL	21:09:06	Time
NOTES	NOTES	1	Notes...
	
PSTAT	PSTAT	REF3000-16137	Potentiostat
VDC	POTEN	0.00000E+000	T	DC Voltage (V)
FREQINIT	QUANT	3.00000E+005	Initial Freq. (Hz)
FREQFINAL	QUANT	1.00000E+000	Final Freq. (Hz)
PTSPERDEC	QUANT	1.00000E+001	Points/decade
VAC	QUANT	5.00000E+001	AC Voltage (mV rms)
AREA	QUANT	1.00000E+000	Sample Area (cm^2)
SPEED	SELECTOR	2	Optimize for:
ZGUESS	QUANT	1.00000E+003	Estimated Z (ohms)
EOC	QUANT	0	Open Circuit (V)
SEQUENCER	TOGGLE	TRUE	Run as Sequence
PSTATMODEL	IQUANT	5	Pstat Model
PSTATSECTION	LABEL	REF3000-16137	Pstat Section
PSTATSERIALNO	LABEL	16137	Pstat Serial Number
CTRLMODE	IQUANT	1	Control Mode
IESTAB	IQUANT	0	I/E Stability
CASPEED	IQUANT	1	Control Amp Speed
CONVENTION	IQUANT	1	Current Convention
ICHRANGE	IQUANT	2	Ich Range
ICHRANGEMODE	TOGGLE	F	Ich Auto Range
ICHOFFSETENABLE	TOGGLE	T	Ich Offset Enable
ICHOFFSET	QUANT	0	Ich Offset (V)
ICHFILTER	IQUANT	3	Ich Filter
VCHRANGE	IQUANT	2	Vch Range
VCHRANGEMODE	TOGGLE	F	Vch Auto Range
VCHOFFSETENABLE	TOGGLE	T	Vch Offset Enable
VCHOFFSET	QUANT	0	Vch Offset (V)
VCHFILTER	IQUANT	3	Vch Filter
ACHRANGE	IQUANT	2	Ach Range
ACHOFFSETENABLE	TOGGLE	F	Ach Offset Enable
ACHOFFSET	QUANT	0	Ach Offset (V)
ACHFILTER	IQUANT	3	Ach Filter
IERANGELOWERLIMIT	IQUANT	2	I/E Range Lower Limit
IERANGEMODE	TOGGLE	F	I/E AutoRange
IERANGE	IQUANT	11	I/E Range
POSFEEDENABLE	TOGGLE	F	Positive Feedback IR Comp
POSFEEDRESISTANCE	QUANT	0	Positive Feedback Resistance (ohm)
ACHSELECT	IQUANT	0	Ach Select
CABLEID	IQUANT	13	Cable ID
DCCALDATE	LABEL	7/31/2020	DC Calibration Date
ACCALDATE	LABEL	7/31/2020	AC Calibration Date
THERMOSELECT	IQUANT	1	Thermo Select
FRAMEWORKVERSION	QUANT	6.33	Framework Version
INSTRUMENTVERSION	LABEL	3.50	Instrument Version
COMPLIANCEVOLTAGE	IQUANT	0	Compliance Voltage
ZCURVE	TABLE
	Pt	Time	Freq	Zreal	Zimag	Zsig	Zmod	Zphz	Idc	Vdc	IERange
	#	s	Hz	ohm	ohm	V	ohm	°	A	V	#
	0	10	300046.9	3.426399	2.300375	1	4.126976	33.87614	0.000258	-0.0002672	10
	1	13	238359.4	3.394141	1.830487	1	3.856277	28.33834	0.0002467	-0.000658	10
	2	16	189328.1	3.382494	1.448209	1	3.67948	23.17811	-0.0004438	0.0006672	10
	3	19	150421.9	3.370326	1.125846	1	3.553396	18.47172	0.0003006	-0.0008115	10
	4	21	119484.4	3.357499	0.8830746	1	3.471689	14.73594	-0.0003603	0.0010292	10
	5	24	94921.88	3.367946	0.5419275	1	3.411267	9.140964	-0.0002122	0.0003124	12
	6	27	75421.88	3.350031	0.490999	1	3.385822	8.338216	0.0002098	0.0005862	11
	7	30	59859.37	3.348919	0.3503061	1	3.367191	5.971579	-0.0002274	0.0006233	11
	8	32	47578.12	3.348655	0.2296798	1	3.356522	3.923697	0.000211	0.0006449	11
	9	35	37828.12	3.350252	0.1216777	1	3.352461	2.080009	-3.301065E-006	0.000706	11
	10	37	30046.88	3.35171	0.020347	1	3.351772	0.3478168	1.336452E-006	0.0006717	11
	11	40	23859.38	3.357276	-0.0787122	1	3.358199	-1.343068	-0.0002078	0.000709	11
	12	42	18984.38	3.362178	-0.1797844	1	3.366982	-3.06084	7.178935E-005	0.0007258	11
	13	45	15046.87	3.367929	-0.2908587	1	3.380465	-4.93589	0.0002117	0.0006525	11
	14	47	11953.13	3.377424	-0.41408	1	3.402713	-6.989712	0.0001969	0.0006659	11
	15	49	9515.62	3.389217	-0.5551572	1	3.434384	-9.302497	0.0002235	0.0006932	11
	16	51	7546.875	3.404943	-0.724031	1	3.481071	-12.00464	-0.0001114	0.0006436	11
	17	54	5928.309	3.425904	-0.9376744	1	3.551908	-15.30705	0.0002185	0.0006761	11
	18	56	4733.456	3.45584	-1.179376	1	3.651541	-18.84326	0.0001323	0.0003582	10
	19	58	3796.875	3.489475	-1.467287	1	3.785415	-22.80623	-0.0001523	0.0008488	10
	20	61	2987.132	3.538285	-1.851564	1	3.993464	-27.6228	-0.0001507	0.0008628	10
	21	63	2390.625	3.598463	-2.290082	1	4.265374	-32.4729	3.746872E-005	0.0007174	10
	22	65	1884.191	3.683687	-2.862481	1	4.665121	-37.84969	-8.754452E-005	0.0006923	10
	23	68	1516.544	3.782099	-3.505526	1	5.156839	-42.82661	-0.0001048	0.0009159	10
	24	70	1193.986	3.925332	-4.36764	1	5.872351	-48.053	0.0001368	0.0003558	10
	25	72	946.5144	4.110001	-5.395196	1	6.782349	-52.70025	-8.403551E-005	0.0006984	10
	26	75	751.7689	4.330838	-6.652623	1	7.938107	-56.93599	8.908237E-005	0.0005973	10
	27	77	597.4265	4.624606	-8.179823	1	9.396621	-60.51759	-1.304132E-005	0.0007938	10
	28	79	477.4305	4.980902	-9.9882	1	11.16125	-63.49555	2.069129E-006	0.0006541	10
	29	82	376.6741	5.45661	-12.33033	1	13.48376	-66.12891	1.467613E-006	0.0006579	10
	30	84	298.2954	6.049287	-15.1579	1	16.32041	-68.24381	1.036187E-006	0.0006513	10
	31	86	237.7717	6.776829	-18.5125	1	19.71391	-69.89395	6.642404E-006	0.0005888	10
	32	89	189.0121	7.709331	-22.645	1	23.92132	-71.19922	8.061921E-007	0.0006491	10
	33	91	150.2404	8.895475	-27.6771	1	29.07148	-72.18249	1.836348E-006	0.0006456	10
	34	94	119.1737	10.41718	-33.84787	1	35.41463	-72.89348	1.606667E-006	0.0006458	10
	35	96	95.0169	12.29461	-41.09979	1	42.8993	-73.34595	3.561252E-006	5.293257E-005	9
	36	98	75.60484	14.70386	-49.97645	1	52.09462	-73.60529	3.327074E-006	4.915023E-005	9
	37	101	54.50582	19.28593	-65.91799	1	68.68136	-73.69186	3.241398E-006	4.544512E-005	9
	38	103	45.95588	22.33639	-76.06428	1	79.27602	-73.63505	3.563539E-006	5.242356E-005	9
	39	106	37.20238	26.86226	-90.65051	1	94.5468	-73.49398	3.28124E-006	5.461518E-005	9
	40	108	30.04808	32.46032	-108.0691	1	112.8389	-73.2815	3.265255E-006	5.350209E-005	9
	41	111	23.91582	39.77666	-130.2489	1	136.1873	-73.01788	3.177712E-006	4.935365E-005	9
	42	113	18.60119	49.8676	-159.9273	1	167.5217	-72.68179	3.464329E-006	5.318931E-005	9
	43	115	15.02404	60.47252	-190.1399	1	199.5247	-72.35713	3.359389E-006	4.790286E-005	9
	44	117	12.01923	74.13659	-227.8485	1	239.6063	-71.97632	3.525131E-006	5.574112E-005	9
	45	120	9.450605	92.78519	-276.8689	1	292.0025	-71.4728	3.410375E-006	4.556231E-005	9
	46	122	7.512019	115.9453	-333.5855	1	353.1608	-70.83394	3.617647E-006	5.779866E-005	9
	47	125	5.978954	145.7988	-400.825	1	426.5185	-70.01131	3.450207E-006	5.374451E-005	9
	48	128	4.734848	186.3061	-480.5981	1	515.4459	-68.81094	3.459312E-006	0.0006513	8
	49	131	3.75601	241.8811	-575.1675	1	623.9584	-67.19128	3.14407E-006	0.0006068	8
	50	135	3.004808	313.7271	-678.8026	1	747.7952	-65.19469	3.248543E-006	0.0006168	8
	51	139	2.372217	417.1349	-798.3079	1	900.7203	-62.41186	3.192019E-006	0.0006668	8
	52	143	1.878005	552.4168	-923.8896	1	1076.446	-59.12374	3.021884E-006	0.0006202	8
	53	147	1.512097	707.7156	-1035.452	1	1254.202	-55.64799	3.129993E-006	0.0005511	8
	54	153	1.201923	910.52	-1137.021	1	1456.662	-51.31245	3.055025E-006	0.0006163	8
	55	159	0.956633	1137.049	-1209.67	1	1660.175	-46.77251	2.825107E-006	-5.859817E-006	8
