EXPLAIN
TAG	EISPOT
TITLE	LABEL	Potentiostatic EIS	Test Identifier
DATE	LABEL	9/11/2020	Date
TIME	LABEL	22:36:02	Time
NOTES	NOTES	1	Notes...
	
PSTAT	PSTAT	REF3000-16137	Potentiostat
VDC	POTEN	0.00000E+000	T	DC Voltage (V)
FREQINIT	QUANT	3.00000E+005	Initial Freq. (Hz)
FREQFINAL	QUANT	1.00000E+000	Final Freq. (Hz)
PTSPERDEC	QUANT	1.00000E+001	Points/decade
VAC	QUANT	5.00000E+001	AC Voltage (mV rms)
AREA	QUANT	1.00000E+000	Sample Area (cm^2)
SPEED	SELECTOR	2	Optimize for:
ZGUESS	QUANT	1.00000E+003	Estimated Z (ohms)
EOC	QUANT	0	Open Circuit (V)
SEQUENCER	TOGGLE	TRUE	Run as Sequence
PSTATMODEL	IQUANT	5	Pstat Model
PSTATSECTION	LABEL	REF3000-16137	Pstat Section
PSTATSERIALNO	LABEL	16137	Pstat Serial Number
CTRLMODE	IQUANT	1	Control Mode
IESTAB	IQUANT	0	I/E Stability
CASPEED	IQUANT	1	Control Amp Speed
CONVENTION	IQUANT	1	Current Convention
ICHRANGE	IQUANT	2	Ich Range
ICHRANGEMODE	TOGGLE	F	Ich Auto Range
ICHOFFSETENABLE	TOGGLE	T	Ich Offset Enable
ICHOFFSET	QUANT	0	Ich Offset (V)
ICHFILTER	IQUANT	3	Ich Filter
VCHRANGE	IQUANT	2	Vch Range
VCHRANGEMODE	TOGGLE	F	Vch Auto Range
VCHOFFSETENABLE	TOGGLE	T	Vch Offset Enable
VCHOFFSET	QUANT	0	Vch Offset (V)
VCHFILTER	IQUANT	3	Vch Filter
ACHRANGE	IQUANT	2	Ach Range
ACHOFFSETENABLE	TOGGLE	F	Ach Offset Enable
ACHOFFSET	QUANT	0	Ach Offset (V)
ACHFILTER	IQUANT	3	Ach Filter
IERANGELOWERLIMIT	IQUANT	2	I/E Range Lower Limit
IERANGEMODE	TOGGLE	F	I/E AutoRange
IERANGE	IQUANT	11	I/E Range
POSFEEDENABLE	TOGGLE	F	Positive Feedback IR Comp
POSFEEDRESISTANCE	QUANT	0	Positive Feedback Resistance (ohm)
ACHSELECT	IQUANT	0	Ach Select
CABLEID	IQUANT	13	Cable ID
DCCALDATE	LABEL	7/31/2020	DC Calibration Date
ACCALDATE	LABEL	7/31/2020	AC Calibration Date
THERMOSELECT	IQUANT	1	Thermo Select
FRAMEWORKVERSION	QUANT	6.33	Framework Version
INSTRUMENTVERSION	LABEL	3.50	Instrument Version
COMPLIANCEVOLTAGE	IQUANT	0	Compliance Voltage
ZCURVE	TABLE
	Pt	Time	Freq	Zreal	Zimag	Zsig	Zmod	Zphz	Idc	Vdc	IERange
	#	s	Hz	ohm	ohm	V	ohm	°	A	V	#
	0	20	300046.9	679.2523	-123.1315	1	690.3224	-10.27472	-1.534854E-005	0.0015994	9
	1	28	238359.4	712.1774	-109.5045	1	720.5469	-8.74135	3.391686E-006	0.0015069	9
	2	42	189328.1	744.8654	-96.6703	1	751.1122	-7.394639	-1.366867E-005	0.0017291	9
	3	55	150421.9	767.048	-83.62603	1	771.5931	-6.221996	1.81797E-005	-0.0009128	9
	4	64	119484.4	788.9938	-48.57581	1	790.4877	-3.52307	-2.713111E-005	0.016428	8
	5	69	94921.88	797.277	-34.07944	1	798.0051	-2.447607	1.02864E-007	0.0050993	8
	6	72	75421.88	804.4723	-27.82458	1	804.9533	-1.980921	-1.910867E-005	0.006123	8
	7	74	59859.37	807.7792	-23.77005	1	808.1288	-1.685523	1.924401E-005	-0.0054826	8
	8	77	47578.12	815.9919	-20.09185	1	816.2392	-1.410487	-1.279389E-005	0.0013712	8
	9	79	37828.12	821.918	-16.42225	1	822.082	-1.14464	-1.299636E-005	0.0013893	8
	10	82	30046.88	829.4074	-15.05136	1	829.5439	-1.03964	1.981342E-005	-0.0055672	8
	11	84	23859.38	834.1693	-11.2831	1	834.2455	-0.7749445	-1.818934E-005	0.0072351	8
	12	87	18984.38	840.5939	-10.04919	1	840.6539	-0.6849307	3.32555E-007	0.0050792	8
	13	90	15046.87	846.8841	-8.120728	1	846.923	-0.5493894	-1.715565E-005	0.0042044	8
	14	93	11953.13	852.8356	-8.396706	1	852.8769	-0.564095	1.935759E-005	-0.0054515	8
	15	95	9515.62	859.4851	-6.857932	1	859.5125	-0.45716	-1.570894E-005	0.0028649	8
	16	98	7546.875	865.7055	-5.253323	1	865.7214	-0.3476812	1.415383E-005	-0.0005034	8
	17	100	5928.309	873.0281	-4.293953	1	873.0387	-0.2818047	1.951742E-005	-0.0055078	8
	18	103	4733.456	880.1409	-4.926801	1	880.1547	-0.3207236	1.802252E-005	-0.0026507	8
	19	106	3796.875	885.9566	-6.583611	1	885.9811	-0.4257614	4.089606E-006	-0.0049436	8
	20	108	2987.132	893.5042	-6.513715	1	893.528	-0.4176833	-1.257748E-005	0.0080251	8
	21	111	2390.625	898.9323	-1.790248	1	898.9341	-0.1141059	1.572037E-005	-0.0067492	8
	22	115	1884.191	907.6485	-4.790531	1	907.6611	-0.3024019	1.97138E-005	-0.0055143	8
	23	118	1516.544	914.9993	-8.169022	1	915.0357	-0.5115174	-8.702233E-006	-0.0006697	8
	24	121	1193.986	924.8387	-8.564373	1	924.8784	-0.5305665	1.817663E-005	-0.0026253	8
	25	124	946.5144	928.4182	-7.497214	1	928.4485	-0.462668	7.745204E-006	0.002532	8
	26	126	751.7689	941.3709	-15.37024	1	941.4964	-0.9354141	-1.909855E-005	0.0060813	8
	27	129	597.4265	945.1533	-17.59564	1	945.317	-1.066535	-1.329297E-005	0.0013898	8
	28	132	477.4305	953.031	-19.53793	1	953.231	-1.174447	-2.173981E-007	0.0006384	8
	29	134	376.6741	959.789	-24.15216	1	960.093	-1.441488	-2.29316E-007	0.0006152	8
	30	136	298.2954	966.568	-29.80625	1	967.027	-1.766281	-2.235612E-007	0.0006241	8
	31	139	237.7717	973.793	-36.73571	1	974.486	-2.160421	-2.161053E-007	0.0006343	8
	32	141	189.0121	981.232	-45.4596	1	982.285	-2.652565	-2.004522E-007	0.0006037	8
	33	143	150.2404	988.984	-56.31316	1	990.586	-3.258928	-1.986393E-007	0.0006104	8
	34	146	119.1737	996.884	-69.8717	1	999.33	-4.009311	-2.486319E-007	0.0006228	8
	35	148	95.0169	1005.361	-86.39317	1	1009.066	-4.911502	-1.959842E-007	0.000602	8
	36	151	75.60484	1014.528	-107.0658	1	1020.162	-6.024273	-2.317135E-007	0.0006306	8
	37	153	54.50582	1025.676	-145.5483	1	1035.951	-8.076618	-2.023658E-007	0.0006006	8
	38	156	45.95588	1035.284	-170.8267	1	1049.283	-9.369644	-2.926766E-007	0.0006837	8
	39	158	37.20238	1045.879	-208.6241	1	1066.484	-11.28087	-2.846732E-007	0.000633	8
	40	160	30.04808	1057.926	-254.7013	1	1088.154	-13.53665	-3.064485E-007	0.0006814	8
	41	163	23.91582	1071.636	-315.5426	1	1117.126	-16.40703	-1.463284E-007	0.0006116	8
	42	165	18.60119	1088.378	-399.6995	1	1159.451	-20.16542	-2.022383E-007	0.0006086	8
	43	167	15.02404	1106.192	-488.5303	1	1209.265	-23.82781	-1.045377E-007	0.0006136	8
	44	170	12.01923	1127.837	-600.757	1	1277.86	-28.04257	-3.085968E-007	0.0006102	8
	45	172	9.450605	1155.026	-752.1365	1	1378.33	-33.07161	-2.823784E-007	0.0006507	8
	46	175	7.512019	1187.357	-930.5797	1	1508.574	-38.08724	-2.697005E-007	0.0006116	8
	47	177	5.978954	1229.303	-1149.073	1	1682.722	-43.06796	-2.373112E-007	0.0006421	8
	48	180	4.734848	1281.13	-1424.922	1	1916.167	-48.04166	-2.658103E-007	0.0006066	8
	49	184	3.75601	1347.282	-1761.91	1	2217.994	-52.59588	-1.649442E-007	0.0006343	8
	50	187	3.004808	1427.031	-2158.508	1	2587.581	-56.53054	-2.13521E-007	0.0006447	8
	51	191	2.372217	1531.262	-2672.17	1	3079.815	-60.18554	-2.344443E-007	0.0006235	8
	52	195	1.878005	1667.13	-3304.963	1	3701.635	-63.23215	-2.182691E-007	0.0006068	8
	53	200	1.512097	1825.24	-4026.088	1	4420.507	-65.61269	-4.427971E-008	0.0006957	7
	54	205	1.201923	2029.665	-4949.645	1	5349.628	-67.70329	-3.771778E-008	0.0005787	7
	55	211	0.956633	2276.687	-6069.845	1	6482.771	-69.43986	-6.743586E-008	-3.869491E-005	7
