EXPLAIN
TAG	EISPOT
TITLE	LABEL	Potentiostatic EIS	Test Identifier
DATE	LABEL	9/11/2020	Date
TIME	LABEL	22:29:31	Time
NOTES	NOTES	1	Notes...
	
PSTAT	PSTAT	REF3000-16137	Potentiostat
VDC	POTEN	0.00000E+000	T	DC Voltage (V)
FREQINIT	QUANT	3.00000E+005	Initial Freq. (Hz)
FREQFINAL	QUANT	1.00000E+000	Final Freq. (Hz)
PTSPERDEC	QUANT	1.00000E+001	Points/decade
VAC	QUANT	5.00000E+001	AC Voltage (mV rms)
AREA	QUANT	1.00000E+000	Sample Area (cm^2)
SPEED	SELECTOR	2	Optimize for:
ZGUESS	QUANT	1.00000E+003	Estimated Z (ohms)
EOC	QUANT	0	Open Circuit (V)
SEQUENCER	TOGGLE	TRUE	Run as Sequence
PSTATMODEL	IQUANT	5	Pstat Model
PSTATSECTION	LABEL	REF3000-16137	Pstat Section
PSTATSERIALNO	LABEL	16137	Pstat Serial Number
CTRLMODE	IQUANT	1	Control Mode
IESTAB	IQUANT	0	I/E Stability
CASPEED	IQUANT	1	Control Amp Speed
CONVENTION	IQUANT	1	Current Convention
ICHRANGE	IQUANT	2	Ich Range
ICHRANGEMODE	TOGGLE	F	Ich Auto Range
ICHOFFSETENABLE	TOGGLE	T	Ich Offset Enable
ICHOFFSET	QUANT	0	Ich Offset (V)
ICHFILTER	IQUANT	3	Ich Filter
VCHRANGE	IQUANT	2	Vch Range
VCHRANGEMODE	TOGGLE	F	Vch Auto Range
VCHOFFSETENABLE	TOGGLE	T	Vch Offset Enable
VCHOFFSET	QUANT	0	Vch Offset (V)
VCHFILTER	IQUANT	3	Vch Filter
ACHRANGE	IQUANT	2	Ach Range
ACHOFFSETENABLE	TOGGLE	F	Ach Offset Enable
ACHOFFSET	QUANT	0	Ach Offset (V)
ACHFILTER	IQUANT	3	Ach Filter
IERANGELOWERLIMIT	IQUANT	2	I/E Range Lower Limit
IERANGEMODE	TOGGLE	F	I/E AutoRange
IERANGE	IQUANT	11	I/E Range
POSFEEDENABLE	TOGGLE	F	Positive Feedback IR Comp
POSFEEDRESISTANCE	QUANT	0	Positive Feedback Resistance (ohm)
ACHSELECT	IQUANT	0	Ach Select
CABLEID	IQUANT	13	Cable ID
DCCALDATE	LABEL	7/31/2020	DC Calibration Date
ACCALDATE	LABEL	7/31/2020	AC Calibration Date
THERMOSELECT	IQUANT	1	Thermo Select
FRAMEWORKVERSION	QUANT	6.33	Framework Version
INSTRUMENTVERSION	LABEL	3.50	Instrument Version
COMPLIANCEVOLTAGE	IQUANT	0	Compliance Voltage
ZCURVE	TABLE
	Pt	Time	Freq	Zreal	Zimag	Zsig	Zmod	Zphz	Idc	Vdc	IERange
	#	s	Hz	ohm	ohm	V	ohm	°	A	V	#
	0	14	300046.9	266.8324	-14.37239	1	267.2192	-3.083142	4.679551E-006	0.0011402	9
	1	19	238359.4	271.1006	-11.95564	1	271.3641	-2.52513	-1.016528E-005	0.0013965	9
	2	24	189328.1	275.6433	-10.82564	1	275.8558	-2.249085	-7.651231E-005	0.0033684	9
	3	33	150421.9	280.925	-8.980294	1	281.0685	-1.830944	8.023345E-005	-0.0023596	9
	4	38	119484.4	282.978	-7.503651	1	283.0774	-1.518941	2.248869E-005	-0.0013566	9
	5	42	94921.88	285.5061	-6.500246	1	285.5801	-1.304253	2.663787E-005	-0.0005675	9
	6	45	75421.88	288.5528	-5.434835	1	288.604	-1.079027	-1.75274E-005	0.0009143	9
	7	49	59859.37	291.1287	-4.480068	1	291.1631	-0.8816333	-2.459605E-005	0.0008155	9
	8	53	47578.12	293.1479	-3.730837	1	293.1717	-0.7291529	-2.196562E-005	0.0009215	9
	9	55	37828.12	295.5733	-3.219642	1	295.5908	-0.624091	-2.189193E-005	0.0004299	9
	10	59	30046.88	297.6304	-2.518057	1	297.641	-0.4847308	-1.644539E-005	0.0010043	9
	11	61	23859.38	299.1458	-2.395923	1	299.1553	-0.4588844	2.276943E-005	-0.0009076	9
	12	64	18984.38	301.7583	-2.298936	1	301.7671	-0.4364976	-2.406375E-005	0.0008688	9
	13	67	15046.87	303.635	-2.114924	1	303.6424	-0.3990788	-2.573285E-005	0.0006666	9
	14	70	11953.13	304.9363	-2.418121	1	304.9459	-0.4543415	2.665521E-005	-0.0004542	9
	15	72	9515.62	306.8218	-2.176272	1	306.8296	-0.4063892	2.618816E-005	-0.0006238	9
	16	74	7546.875	308.1129	-2.163693	1	308.1205	-0.4023474	2.824964E-005	-0.0006614	9
	17	77	5928.309	310.1266	-1.90556	1	310.1324	-0.3520471	2.650744E-005	-0.0008215	9
	18	79	4733.456	311.8697	-2.337727	1	311.8784	-0.4294723	1.981906E-005	-5.690732E-005	9
	19	81	3796.875	313.3518	-3.045889	1	313.3666	-0.5569174	-1.918732E-005	0.000347	9
	20	84	2987.132	314.9855	-4.077033	1	315.0119	-0.7415698	2.643872E-005	-0.0004681	9
	21	86	2390.625	317.4286	-3.98629	1	317.4536	-0.7194866	1.814557E-005	-0.0009251	9
	22	88	1884.191	319.2643	-4.771612	1	319.3	-0.8562587	-9.359901E-006	0.0008795	9
	23	91	1516.544	320.6017	-5.66847	1	320.6518	-1.012925	8.387985E-006	-0.0007039	9
	24	93	1193.986	322.6845	-7.612147	1	322.7743	-1.35136	2.653228E-005	-0.000818	9
	25	95	946.5144	325.1764	-9.288459	1	325.3091	-1.636173	2.662004E-005	-0.000502	9
	26	98	751.7689	325.7517	-11.34076	1	325.9491	-1.993896	-1.718562E-005	0.0009995	9
	27	100	597.4265	328.448	-13.45564	1	328.7235	-2.345944	-9.039685E-006	-0.0001452	9
	28	103	477.4305	330.8386	-17.3844	1	331.295	-3.007924	1.09383E-006	4.200453E-005	9
	29	105	376.6741	333.0318	-21.6675	1	333.7359	-3.722494	1.158311E-006	4.20568E-005	9
	30	107	298.2954	335.3318	-26.95602	1	336.4135	-4.595902	1.17312E-006	4.424389E-005	9
	31	110	237.7717	337.8329	-33.3605	1	339.476	-5.639591	1.195872E-006	4.015939E-005	9
	32	112	189.0121	340.5031	-41.40651	1	343.0114	-6.93335	1.121314E-006	4.044545E-005	9
	33	114	150.2404	343.379	-51.39081	1	347.2033	-8.511828	1.109088E-006	4.380777E-005	9
	34	117	119.1737	346.5447	-63.92497	1	352.3913	-10.45151	1.110191E-006	4.16661E-005	9
	35	119	95.0169	348.5632	-78.77889	1	357.3548	-12.73547	-7.342957E-008	0.0006269	8
	36	122	75.60484	352.6132	-97.7089	1	365.9004	-15.48801	-9.63205E-008	0.0006304	8
	37	124	54.50582	358.6182	-132.8891	1	382.4481	-20.33263	-9.308926E-008	0.0006267	8
	38	127	45.95588	363.3085	-155.9769	1	395.3756	-23.23498	-6.268964E-008	0.0006302	8
	39	129	37.20238	369.3977	-190.1129	1	415.4487	-27.2329	-6.427376E-008	0.0006343	8
	40	132	30.04808	376.7998	-232.0998	1	442.5476	-31.63209	-4.696721E-008	0.0006151	8
	41	134	23.91582	386.2564	-286.9884	1	481.203	-36.61234	-1.035713E-008	0.000622	8
	42	136	18.60119	398.9937	-362.2684	1	538.9196	-42.23804	-5.358093E-008	0.0006183	8
	43	139	15.02404	412.849	-441.1652	1	604.2111	-46.89904	-1.517497E-007	0.0006254	8
	44	141	12.01923	430.9361	-541.4433	1	692.002	-51.48363	-6.061088E-008	0.0006131	8
	45	143	9.450605	455.4208	-674.3103	1	813.6968	-55.9654	-1.498612E-007	0.0006236	8
	46	146	7.512019	484.8354	-830.9147	1	962.021	-59.73661	-1.107429E-007	0.0006184	8
	47	149	5.978954	522.3882	-1021.147	1	1147.01	-62.90707	-1.72086E-008	0.0006155	8
	48	152	4.734848	571.0356	-1260.538	1	1383.849	-65.62901	-5.95456E-008	0.000617	8
	49	155	3.75601	631.0339	-1550.397	1	1673.898	-67.85297	-2.876606E-008	0.0006166	8
	50	158	3.004808	703.2626	-1889.903	1	2016.51	-69.58897	-1.006441E-007	0.0006721	8
	51	162	2.372217	799.319	-2331.78	1	2464.976	-71.07861	-6.748827E-008	0.0006951	8
	52	166	1.878005	916.611	-2866.034	1	3009.041	-72.26476	-8.275698E-008	0.0005948	8
	53	171	1.512097	1053.648	-3462.363	1	3619.134	-73.07422	-6.488078E-008	0.0006699	8
	54	176	1.201923	1232.437	-4259.003	1	4433.735	-73.86103	-2.518185E-008	0.000566	7
	55	182	0.956633	1453.22	-5208.502	1	5407.435	-74.41041	-4.290698E-008	-4.254331E-005	7
