EXPLAIN
TAG	EISPOT
TITLE	LABEL	Potentiostatic EIS	Test Identifier
DATE	LABEL	9/11/2020	Date
TIME	LABEL	21:56:25	Time
NOTES	NOTES	1	Notes...
	
PSTAT	PSTAT	REF3000-16137	Potentiostat
VDC	POTEN	0.00000E+000	T	DC Voltage (V)
FREQINIT	QUANT	3.00000E+005	Initial Freq. (Hz)
FREQFINAL	QUANT	1.00000E+000	Final Freq. (Hz)
PTSPERDEC	QUANT	1.00000E+001	Points/decade
VAC	QUANT	5.00000E+001	AC Voltage (mV rms)
AREA	QUANT	1.00000E+000	Sample Area (cm^2)
SPEED	SELECTOR	2	Optimize for:
ZGUESS	QUANT	1.00000E+003	Estimated Z (ohms)
EOC	QUANT	0	Open Circuit (V)
SEQUENCER	TOGGLE	TRUE	Run as Sequence
PSTATMODEL	IQUANT	5	Pstat Model
PSTATSECTION	LABEL	REF3000-16137	Pstat Section
PSTATSERIALNO	LABEL	16137	Pstat Serial Number
CTRLMODE	IQUANT	1	Control Mode
IESTAB	IQUANT	0	I/E Stability
CASPEED	IQUANT	1	Control Amp Speed
CONVENTION	IQUANT	1	Current Convention
ICHRANGE	IQUANT	2	Ich Range
ICHRANGEMODE	TOGGLE	F	Ich Auto Range
ICHOFFSETENABLE	TOGGLE	T	Ich Offset Enable
ICHOFFSET	QUANT	0	Ich Offset (V)
ICHFILTER	IQUANT	3	Ich Filter
VCHRANGE	IQUANT	2	Vch Range
VCHRANGEMODE	TOGGLE	F	Vch Auto Range
VCHOFFSETENABLE	TOGGLE	T	Vch Offset Enable
VCHOFFSET	QUANT	0	Vch Offset (V)
VCHFILTER	IQUANT	3	Vch Filter
ACHRANGE	IQUANT	2	Ach Range
ACHOFFSETENABLE	TOGGLE	F	Ach Offset Enable
ACHOFFSET	QUANT	0	Ach Offset (V)
ACHFILTER	IQUANT	3	Ach Filter
IERANGELOWERLIMIT	IQUANT	2	I/E Range Lower Limit
IERANGEMODE	TOGGLE	F	I/E AutoRange
IERANGE	IQUANT	11	I/E Range
POSFEEDENABLE	TOGGLE	F	Positive Feedback IR Comp
POSFEEDRESISTANCE	QUANT	0	Positive Feedback Resistance (ohm)
ACHSELECT	IQUANT	0	Ach Select
CABLEID	IQUANT	13	Cable ID
DCCALDATE	LABEL	7/31/2020	DC Calibration Date
ACCALDATE	LABEL	7/31/2020	AC Calibration Date
THERMOSELECT	IQUANT	1	Thermo Select
FRAMEWORKVERSION	QUANT	6.33	Framework Version
INSTRUMENTVERSION	LABEL	3.50	Instrument Version
COMPLIANCEVOLTAGE	IQUANT	0	Compliance Voltage
ZCURVE	TABLE
	Pt	Time	Freq	Zreal	Zimag	Zsig	Zmod	Zphz	Idc	Vdc	IERange
	#	s	Hz	ohm	ohm	V	ohm	°	A	V	#
	0	8	300046.9	13.98141	2.11745	1	14.14084	8.611862	3.071021E-005	0.000422	10
	1	11	238359.4	14.01647	1.69046	1	14.11804	6.876956	-0.0000978	0.0002826	10
	2	14	189328.1	14.03479	1.33664	1	14.0983	5.440302	-2.491807E-005	0.000391	10
	3	16	150421.9	14.05294	1.055001	1	14.09248	4.293331	1.219196E-005	0.0004397	10
	4	19	119484.4	14.08405	0.8107339	1	14.10736	3.294537	-1.426439E-005	0.0006514	10
	5	21	94921.88	14.10941	0.6302966	1	14.12349	2.55782	-2.490219E-005	0.0006595	10
	6	24	75421.88	14.13936	0.4545399	1	14.14666	1.841262	1.416649E-005	0.0005752	10
	7	27	59859.37	14.17738	0.3079415	1	14.18073	1.244304	-2.863666E-005	0.0006178	10
	8	29	47578.12	14.2146	0.1824676	1	14.21578	0.7354442	-2.579397E-006	0.0005949	10
	9	32	37828.12	14.2501	0.0680252	1	14.25026	0.2735087	1.301115E-005	0.0005636	10
	10	34	30046.88	14.29132	-0.0397689	1	14.29137	-0.1594383	-2.531621E-005	0.0006852	10
	11	37	23859.38	14.32732	-0.1494664	1	14.3281	-0.5977031	5.085996E-006	0.000618	10
	12	39	18984.38	14.36772	-0.2632052	1	14.37013	-1.049496	-2.110284E-006	0.0006975	10
	13	41	15046.87	14.408	-0.3925287	1	14.41335	-1.560568	2.288767E-005	0.0006052	10
	14	43	11953.13	14.45038	-0.5373217	1	14.46037	-2.1295	-2.2261E-005	0.0006421	10
	15	46	9515.62	14.49455	-0.7056023	1	14.51171	-2.786989	2.333608E-005	0.0006554	10
	16	48	7546.875	14.54621	-0.9113691	1	14.57473	-3.585088	-5.914657E-006	0.0006149	10
	17	50	5928.309	14.59791	-1.166273	1	14.64443	-4.567835	2.258615E-005	0.000608	10
	18	53	4733.456	14.65463	-1.465193	1	14.7277	-5.709547	-2.763321E-005	0.0006724	10
	19	55	3796.875	14.72038	-1.82024	1	14.83249	-7.049093	-2.71192E-005	0.0006498	10
	20	57	2987.132	14.79557	-2.295132	1	14.97253	-8.817612	6.485112E-006	0.0006549	10
	21	60	2390.625	14.87858	-2.842638	1	15.1477	-10.81634	2.113079E-005	0.0006151	10
	22	62	1884.191	14.98489	-3.570107	1	15.4043	-13.40073	-1.773323E-005	0.000652	10
	23	64	1516.544	15.09929	-4.389028	1	15.72426	-16.20797	-1.52014E-005	0.0006899	10
	24	67	1193.986	15.2553	-5.506082	1	16.21854	-19.84599	-4.248287E-006	0.0006697	10
	25	69	946.5144	15.43909	-6.85572	1	16.89279	-23.94359	2.211199E-005	0.000672	10
	26	71	751.7689	15.66737	-8.511619	1	17.83015	-28.51392	2.351726E-005	0.0006269	10
	27	74	597.4265	15.95997	-10.55627	1	19.13519	-33.48152	-2.615517E-005	0.0007138	10
	28	76	477.4305	16.32081	-13.0131	1	20.87365	-38.56646	-2.594655E-006	0.000666	10
	29	78	376.6741	16.80827	-16.21965	1	23.35798	-43.97899	-2.275265E-006	0.0006549	10
	30	81	298.2954	17.42463	-20.12383	1	26.61928	-49.11167	-2.282206E-006	0.0006604	10
	31	83	237.7717	18.19984	-24.7946	1	30.75722	-53.72043	-2.207071E-006	0.0006515	10
	32	85	189.0121	19.19864	-30.58626	1	36.11243	-57.88399	-2.30248E-006	0.0006569	10
	33	88	150.2404	20.44975	-37.64112	1	42.83744	-61.48556	1.381294E-006	5.606032E-005	9
	34	90	119.1737	22.08947	-46.40912	1	51.39797	-64.54684	1.333153E-006	5.544524E-005	9
	35	93	95.0169	24.11674	-56.87833	1	61.77995	-67.02277	1.328395E-006	5.68165E-005	9
	36	95	75.60484	26.6902	-69.76203	1	74.69343	-69.06369	1.319192E-006	5.34239E-005	9
	37	98	54.50582	31.5303	-93.271	1	98.4563	-71.32215	1.377093E-006	5.234926E-005	9
	38	100	45.95588	34.76617	-108.467	1	113.9025	-72.22815	1.227244E-006	5.563459E-005	9
	39	102	37.20238	39.57927	-130.6618	1	136.5248	-73.14771	1.490857E-006	5.312088E-005	9
	40	105	30.04808	45.62186	-157.703	1	164.1694	-73.86539	1.353889E-006	5.362551E-005	9
	41	107	23.91582	53.70813	-192.6288	1	199.9761	-74.42065	1.218651E-006	5.197833E-005	9
	42	110	18.60119	65.04286	-239.7961	1	248.4608	-74.8241	1.618386E-006	6.006412E-005	9
	43	112	15.02404	77.49838	-288.7048	1	298.9255	-74.97405	1.403243E-006	4.861919E-005	9
	44	114	12.01923	93.76871	-350.0677	1	362.4086	-75.00484	1.301051E-006	5.639283E-005	9
	45	117	9.450605	115.8113	-428.0729	1	443.4622	-74.86153	6.344594E-007	0.00064	8
	46	119	7.512019	143.2903	-519.6604	1	539.0538	-74.58443	4.960953E-007	0.0006264	8
	47	122	5.978954	177.0552	-628.6942	1	653.15	-74.27152	6.089642E-007	0.0006354	8
	48	125	4.734848	220.2582	-761.6168	1	792.8265	-73.87022	5.892439E-007	0.0006099	8
	49	128	3.75601	273.1474	-919.1616	1	958.889	-73.44962	7.360857E-007	0.0006538	8
	50	131	3.004808	334.0098	-1098.959	1	1148.597	-73.09425	6.42768E-007	0.0006598	8
	51	135	2.372217	411.006	-1324.024	1	1386.349	-72.75451	6.442174E-007	0.0006392	8
	52	139	1.878005	501.6401	-1595.304	1	1672.315	-72.54436	6.618674E-007	0.0006695	8
	53	144	1.512097	595.5297	-1895.042	1	1986.414	-72.55432	6.806437E-007	0.0007331	8
	54	149	1.201923	711.1138	-2279.434	1	2387.782	-72.67368	6.867696E-007	0.0006165	8
	55	156	0.956633	841.9963	-2746.056	1	2872.243	-72.9534	6.386329E-007	-3.384152E-006	8
