EXPLAIN
TAG	EISPOT
TITLE	LABEL	Potentiostatic EIS	Test Identifier
DATE	LABEL	9/11/2020	Date
TIME	LABEL	21:25:54	Time
NOTES	NOTES	1	Notes...
	
PSTAT	PSTAT	REF3000-16137	Potentiostat
VDC	POTEN	0.00000E+000	T	DC Voltage (V)
FREQINIT	QUANT	3.00000E+005	Initial Freq. (Hz)
FREQFINAL	QUANT	1.00000E+000	Final Freq. (Hz)
PTSPERDEC	QUANT	1.00000E+001	Points/decade
VAC	QUANT	5.00000E+001	AC Voltage (mV rms)
AREA	QUANT	1.00000E+000	Sample Area (cm^2)
SPEED	SELECTOR	2	Optimize for:
ZGUESS	QUANT	1.00000E+003	Estimated Z (ohms)
EOC	QUANT	0	Open Circuit (V)
SEQUENCER	TOGGLE	TRUE	Run as Sequence
PSTATMODEL	IQUANT	5	Pstat Model
PSTATSECTION	LABEL	REF3000-16137	Pstat Section
PSTATSERIALNO	LABEL	16137	Pstat Serial Number
CTRLMODE	IQUANT	1	Control Mode
IESTAB	IQUANT	0	I/E Stability
CASPEED	IQUANT	1	Control Amp Speed
CONVENTION	IQUANT	1	Current Convention
ICHRANGE	IQUANT	2	Ich Range
ICHRANGEMODE	TOGGLE	F	Ich Auto Range
ICHOFFSETENABLE	TOGGLE	T	Ich Offset Enable
ICHOFFSET	QUANT	0	Ich Offset (V)
ICHFILTER	IQUANT	3	Ich Filter
VCHRANGE	IQUANT	2	Vch Range
VCHRANGEMODE	TOGGLE	F	Vch Auto Range
VCHOFFSETENABLE	TOGGLE	T	Vch Offset Enable
VCHOFFSET	QUANT	0	Vch Offset (V)
VCHFILTER	IQUANT	3	Vch Filter
ACHRANGE	IQUANT	2	Ach Range
ACHOFFSETENABLE	TOGGLE	F	Ach Offset Enable
ACHOFFSET	QUANT	0	Ach Offset (V)
ACHFILTER	IQUANT	3	Ach Filter
IERANGELOWERLIMIT	IQUANT	2	I/E Range Lower Limit
IERANGEMODE	TOGGLE	F	I/E AutoRange
IERANGE	IQUANT	11	I/E Range
POSFEEDENABLE	TOGGLE	F	Positive Feedback IR Comp
POSFEEDRESISTANCE	QUANT	0	Positive Feedback Resistance (ohm)
ACHSELECT	IQUANT	0	Ach Select
CABLEID	IQUANT	13	Cable ID
DCCALDATE	LABEL	7/31/2020	DC Calibration Date
ACCALDATE	LABEL	7/31/2020	AC Calibration Date
THERMOSELECT	IQUANT	1	Thermo Select
FRAMEWORKVERSION	QUANT	6.33	Framework Version
INSTRUMENTVERSION	LABEL	3.50	Instrument Version
COMPLIANCEVOLTAGE	IQUANT	0	Compliance Voltage
ZCURVE	TABLE
	Pt	Time	Freq	Zreal	Zimag	Zsig	Zmod	Zphz	Idc	Vdc	IERange
	#	s	Hz	ohm	ohm	V	ohm	°	A	V	#
	0	10	300046.9	4.424763	2.293505	1	4.983843	27.39924	0.0003701	-0.001174	10
	1	13	238359.4	4.38214	1.830691	1	4.749166	22.67332	0.0001663	-0.0002981	10
	2	16	189328.1	4.364556	1.43991	1	4.595943	18.25824	0.0003571	-0.0004178	10
	3	19	150421.9	4.366292	1.120963	1	4.50789	14.39865	0.0002973	-0.0009429	10
	4	21	119484.4	4.358911	0.8794263	1	4.44674	11.40651	-0.0004495	0.0015071	10
	5	24	94921.88	4.361024	0.6887938	1	4.415084	8.975332	-0.0001435	0.0007278	10
	6	26	75421.88	4.358808	0.5127751	1	4.388866	6.709501	0.0001798	0.0001434	10
	7	29	59859.37	4.363181	0.3644138	1	4.378372	4.774276	6.616328E-005	0.0005408	10
	8	31	47578.12	4.366927	0.2371148	1	4.373359	3.107986	0.0001031	0.00021	10
	9	34	37828.12	4.3753	0.1230481	1	4.37703	1.610924	-5.810155E-005	0.0009078	10
	10	36	30046.88	4.38161	0.0155406	1	4.381638	0.2032148	-4.866683E-005	0.0005287	10
	11	39	23859.38	4.390384	-0.0894865	1	4.391296	-1.167663	-5.802661E-005	0.000568	10
	12	41	18984.38	4.400351	-0.1960301	1	4.404715	-2.550769	-0.0001066	0.000684	10
	13	43	15046.87	4.41066	-0.3111195	1	4.421619	-4.034851	0.000161	0.0002544	10
	14	46	11953.13	4.424678	-0.4430967	1	4.446809	-5.718657	5.513373E-005	0.0003428	10
	15	48	9515.62	4.44088	-0.5922224	1	4.480194	-7.595975	0.0001639	0.0002875	10
	16	50	7546.875	4.459733	-0.772101	1	4.526076	-9.82209	-7.00452E-005	0.000929	10
	17	52	5928.309	4.485988	-0.99764	1	4.595582	-12.53799	-0.0001641	0.0009154	10
	18	55	4733.456	4.51561	-1.255847	1	4.686991	-15.5419	-0.0001602	0.0009178	10
	19	57	3796.875	4.552946	-1.561845	1	4.813385	-18.93404	-0.0001127	0.0009924	10
	20	59	2987.132	4.603723	-1.97282	1	5.008621	-23.19644	0.0000982	0.0005947	10
	21	62	2390.625	4.665674	-2.440248	1	5.265294	-27.61053	-0.0001561	0.0009452	10
	22	64	1884.191	4.748001	-3.057492	1	5.647279	-32.77965	0.0001625	0.0002764	10
	23	66	1516.544	4.849776	-3.749395	1	6.130114	-37.70785	-1.718727E-006	0.0004563	10
	24	69	1193.986	4.989416	-4.68555	1	6.844607	-43.20108	0.0001393	0.0002538	10
	25	71	946.5144	5.171832	-5.812986	1	7.780659	-48.34041	-0.0001666	0.0009093	10
	26	73	751.7689	5.403105	-7.178894	1	8.984991	-53.03351	0.0000975	0.0006005	10
	27	76	597.4265	5.710397	-8.850715	1	10.53299	-57.17028	-0.0001033	0.0007019	10
	28	78	477.4305	6.074715	-10.83627	1	12.42284	-60.7254	3.273883E-006	0.0005948	10
	29	80	376.6741	6.574403	-13.40639	1	14.93164	-63.87698	-1.488779E-006	0.0006513	10
	30	83	298.2954	7.200374	-16.5095	1	18.01136	-66.43629	-6.312225E-007	0.0006466	10
	31	85	237.7717	7.965928	-20.19043	1	21.70506	-68.4688	-1.129347E-006	0.0006508	10
	32	87	189.0121	8.939758	-24.73164	1	26.29778	-70.12657	-2.088104E-006	0.0006523	10
	33	90	150.2404	10.16743	-30.27554	1	31.9372	-71.4364	-2.088912E-006	0.0006495	10
	34	92	119.1737	11.73797	-37.10081	1	38.91337	-72.44365	-1.675679E-006	0.0006519	10
	35	95	95.0169	13.67175	-45.16348	1	47.18747	-73.15805	1.61682E-006	4.855206E-005	9
	36	97	75.60484	16.17705	-55.08841	1	57.41455	-73.6348	1.545032E-006	4.058025E-005	9
	37	100	54.50582	21.017	-73.0199	1	75.98434	-73.94283	1.336864E-006	5.270145E-005	9
	38	102	45.95588	24.3135	-84.48435	1	87.91332	-73.94487	2.192867E-006	-5.716078E-006	9
	39	105	37.20238	29.31301	-101.0183	1	105.1853	-73.81857	1.7007E-006	4.762302E-005	9
	40	107	30.04808	35.59325	-120.7337	1	125.871	-73.57406	1.491053E-006	5.404849E-005	9
	41	109	23.91582	43.90163	-145.6576	1	152.1299	-73.22704	1.937342E-006	-2.583602E-006	9
	42	112	18.60119	55.45218	-178.667	1	187.0744	-72.75743	1.405121E-006	5.873615E-005	9
	43	114	15.02404	67.41712	-211.9525	1	222.4161	-72.35535	1.41749E-006	5.377487E-005	9
	44	116	12.01923	82.49394	-252.9151	1	266.0288	-71.9351	1.740901E-006	5.063748E-005	9
	45	119	9.450605	101.8682	-305.8008	1	322.3216	-71.57607	1.602417E-006	5.089449E-005	9
	46	121	7.512019	124.0866	-366.5644	1	386.9973	-71.2984	1.740976E-006	5.430914E-005	9
	47	124	5.978954	149.9528	-437.3277	1	462.3217	-71.07397	1.609182E-006	0.0006356	8
	48	127	4.734848	183.4341	-527.2812	1	558.2773	-70.81789	1.626501E-006	0.0006553	8
	49	130	3.75601	225.5376	-636.2159	1	675.0095	-70.48066	1.513547E-006	0.0006143	8
	50	134	3.004808	278.7949	-762.6229	1	811.9854	-69.91891	1.555132E-006	0.0006481	8
	51	137	2.372217	356.3084	-923.4229	1	989.781	-68.90059	1.575992E-006	0.0006769	8
	52	141	1.878005	460.7355	-1114.738	1	1206.2	-67.54407	1.457972E-006	0.000616	8
	53	146	1.512097	590.1115	-1315.847	1	1442.112	-65.84544	1.530384E-006	0.0005871	8
	54	152	1.201923	782.7809	-1557.427	1	1743.079	-63.31536	1.511435E-006	0.000554	8
	55	158	0.956633	1034.104	-1809.418	1	2084.074	-60.25152	1.349786E-006	-1.132633E-005	8
