EXPLAIN
TAG	EISPOT
TITLE	LABEL	Potentiostatic EIS	Test Identifier
DATE	LABEL	9/11/2020	Date
TIME	LABEL	21:53:39	Time
NOTES	NOTES	1	Notes...
	
PSTAT	PSTAT	REF3000-16137	Potentiostat
VDC	POTEN	0.00000E+000	T	DC Voltage (V)
FREQINIT	QUANT	3.00000E+005	Initial Freq. (Hz)
FREQFINAL	QUANT	1.00000E+000	Final Freq. (Hz)
PTSPERDEC	QUANT	1.00000E+001	Points/decade
VAC	QUANT	5.00000E+001	AC Voltage (mV rms)
AREA	QUANT	1.00000E+000	Sample Area (cm^2)
SPEED	SELECTOR	2	Optimize for:
ZGUESS	QUANT	1.00000E+003	Estimated Z (ohms)
EOC	QUANT	0	Open Circuit (V)
SEQUENCER	TOGGLE	TRUE	Run as Sequence
PSTATMODEL	IQUANT	5	Pstat Model
PSTATSECTION	LABEL	REF3000-16137	Pstat Section
PSTATSERIALNO	LABEL	16137	Pstat Serial Number
CTRLMODE	IQUANT	1	Control Mode
IESTAB	IQUANT	0	I/E Stability
CASPEED	IQUANT	1	Control Amp Speed
CONVENTION	IQUANT	1	Current Convention
ICHRANGE	IQUANT	2	Ich Range
ICHRANGEMODE	TOGGLE	F	Ich Auto Range
ICHOFFSETENABLE	TOGGLE	T	Ich Offset Enable
ICHOFFSET	QUANT	0	Ich Offset (V)
ICHFILTER	IQUANT	3	Ich Filter
VCHRANGE	IQUANT	2	Vch Range
VCHRANGEMODE	TOGGLE	F	Vch Auto Range
VCHOFFSETENABLE	TOGGLE	T	Vch Offset Enable
VCHOFFSET	QUANT	0	Vch Offset (V)
VCHFILTER	IQUANT	3	Vch Filter
ACHRANGE	IQUANT	2	Ach Range
ACHOFFSETENABLE	TOGGLE	F	Ach Offset Enable
ACHOFFSET	QUANT	0	Ach Offset (V)
ACHFILTER	IQUANT	3	Ach Filter
IERANGELOWERLIMIT	IQUANT	2	I/E Range Lower Limit
IERANGEMODE	TOGGLE	F	I/E AutoRange
IERANGE	IQUANT	11	I/E Range
POSFEEDENABLE	TOGGLE	F	Positive Feedback IR Comp
POSFEEDRESISTANCE	QUANT	0	Positive Feedback Resistance (ohm)
ACHSELECT	IQUANT	0	Ach Select
CABLEID	IQUANT	13	Cable ID
DCCALDATE	LABEL	7/31/2020	DC Calibration Date
ACCALDATE	LABEL	7/31/2020	AC Calibration Date
THERMOSELECT	IQUANT	1	Thermo Select
FRAMEWORKVERSION	QUANT	6.33	Framework Version
INSTRUMENTVERSION	LABEL	3.50	Instrument Version
COMPLIANCEVOLTAGE	IQUANT	0	Compliance Voltage
ZCURVE	TABLE
	Pt	Time	Freq	Zreal	Zimag	Zsig	Zmod	Zphz	Idc	Vdc	IERange
	#	s	Hz	ohm	ohm	V	ohm	°	A	V	#
	0	8	300046.9	12.08941	2.142989	1	12.27788	10.05193	1.201716E-005	0.0001495	10
	1	11	238359.4	12.07701	1.713131	1	12.19791	8.073575	6.441263E-005	0.0001537	10
	2	15	189328.1	12.0887	1.354276	1	12.16432	6.392096	4.062082E-005	0.0005577	10
	3	17	150421.9	12.11087	1.066804	1	12.15776	5.033992	1.002325E-005	0.0006402	10
	4	20	119484.4	12.12242	0.8223709	1	12.15028	3.880933	6.827438E-005	0.0003099	10
	5	22	94921.88	12.14384	0.6446613	1	12.16094	3.03872	-1.458152E-005	0.0006057	10
	6	25	75421.88	12.16613	0.4665637	1	12.17507	2.196182	1.367355E-005	0.0005366	10
	7	27	59859.37	12.19428	0.3170521	1	12.1984	1.489358	1.846614E-005	0.0005855	10
	8	30	47578.12	12.22665	0.1910751	1	12.22814	0.8953317	2.272714E-005	0.0006353	10
	9	32	37828.12	12.25563	0.0761348	1	12.25586	0.35593	2.203694E-005	0.0006002	10
	10	35	30046.88	12.28682	-0.0315721	1	12.28686	-0.1472264	-2.458191E-005	0.0006493	10
	11	37	23859.38	12.31881	-0.1409926	1	12.31962	-0.6557393	2.448674E-005	0.0005982	10
	12	40	18984.38	12.35086	-0.2542193	1	12.35347	-1.17916	2.243613E-005	0.0005905	10
	13	42	15046.87	12.38486	-0.3826494	1	12.39077	-1.769679	2.15745E-005	0.0005962	10
	14	44	11953.13	12.42059	-0.5250711	1	12.43168	-2.420695	-2.982056E-005	0.0006529	10
	15	46	9515.62	12.4583	-0.6898782	1	12.47739	-3.169516	-2.689142E-006	0.0006198	10
	16	49	7546.875	12.50043	-0.8934016	1	12.53232	-4.087959	-2.092439E-005	0.0006943	10
	17	51	5928.309	12.54776	-1.148158	1	12.60018	-5.228178	-1.497097E-005	0.0006843	10
	18	53	4733.456	12.599	-1.439016	1	12.68092	-6.515895	1.558512E-005	0.0006476	10
	19	56	3796.875	12.65642	-1.790779	1	12.78249	-8.053419	2.555152E-005	0.000653	10
	20	58	2987.132	12.7253	-2.258232	1	12.92412	-10.06295	1.598901E-005	0.0006532	10
	21	60	2390.625	12.80388	-2.798741	1	13.1062	-12.33008	2.490626E-005	0.0006503	10
	22	63	1884.191	12.90364	-3.515987	1	13.37408	-15.24195	-2.121498E-005	0.0006875	10
	23	65	1516.544	13.0112	-4.317882	1	13.70895	-18.35888	-4.43588E-006	0.0006688	10
	24	67	1193.986	13.16151	-5.412836	1	14.2311	-22.35553	-2.493195E-005	0.000715	10
	25	70	946.5144	13.34178	-6.742794	1	14.94886	-26.81155	-2.769103E-005	0.0006564	10
	26	72	751.7689	13.56996	-8.364892	1	15.941	-31.6508	-3.350385E-006	0.0006151	10
	27	74	597.4265	13.85895	-10.37332	1	17.31116	-36.81457	2.116206E-005	0.0006426	10
	28	77	477.4305	14.21574	-12.7773	1	19.11404	-41.94964	-1.574738E-006	0.0006591	10
	29	79	376.6741	14.70321	-15.91531	1	21.66752	-47.26701	-2.24314E-006	0.000652	10
	30	81	298.2954	15.32274	-19.73108	1	24.98203	-52.16784	-6.452008E-006	0.0007145	10
	31	84	237.7717	16.09955	-24.2942	1	29.14453	-56.46791	-1.822008E-006	0.0006499	10
	32	86	189.0121	17.10115	-29.94433	1	34.48351	-60.26939	-2.061678E-006	0.0006519	10
	33	88	150.2404	18.37849	-36.86179	1	41.18932	-63.50015	-1.921559E-006	0.0006476	10
	34	91	119.1737	19.99071	-45.35285	1	49.56318	-66.21299	1.021461E-006	0.0001121	9
	35	93	95.0169	22.00562	-55.54238	1	59.74281	-68.38676	1.367738E-006	5.500841E-005	9
	36	96	75.60484	24.55866	-68.07194	1	72.36654	-70.16182	1.442776E-006	5.296238E-005	9
	37	98	54.50582	29.35777	-90.93159	1	95.5533	-72.10703	1.377384E-006	5.034744E-005	9
	38	101	45.95588	32.56365	-105.7106	1	110.6125	-72.87881	1.428321E-006	5.637688E-005	9
	39	103	37.20238	37.3592	-127.3067	1	132.6752	-73.64524	1.352976E-006	5.795488E-005	9
	40	105	30.04808	43.37879	-153.56	1	159.5694	-74.22567	1.357405E-006	5.236278E-005	9
	41	108	23.91582	51.47503	-187.4626	1	194.4014	-74.64568	1.426759E-006	5.799388E-005	9
	42	110	18.60119	62.91791	-233.2112	1	241.5494	-74.90167	1.346924E-006	5.662669E-005	9
	43	112	15.02404	75.33801	-280.5246	1	290.4649	-74.96729	1.224392E-006	5.580615E-005	9
	44	115	12.01923	91.96157	-339.5451	1	351.7781	-74.84571	1.675396E-006	6.1887E-005	9
	45	117	9.450605	114.0245	-414.6319	1	430.0247	-74.62366	8.509848E-007	0.000627	8
	46	120	7.512019	141.4183	-502.2427	1	521.7728	-74.27419	8.493288E-007	0.0006464	8
	47	122	5.978954	174.8878	-606.3485	1	631.066	-73.91096	7.378013E-007	0.0006356	8
	48	125	4.734848	217.0816	-733.174	1	764.6362	-73.50679	7.983957E-007	0.0006615	8
	49	129	3.75601	268.318	-882.6776	1	922.5586	-73.09168	6.449271E-007	0.0006203	8
	50	132	3.004808	326.4763	-1053.46	1	1102.889	-72.78135	7.148939E-007	0.000636	8
	51	136	2.372217	400.0034	-1268.238	1	1329.823	-72.49467	7.331317E-007	0.000665	8
	52	140	1.878005	483.5964	-1529.269	1	1603.911	-72.45164	6.735846E-007	0.0006322	8
	53	145	1.512097	569.2032	-1818.264	1	1905.276	-72.6174	7.12356E-007	0.0005472	8
	54	150	1.201923	681.0733	-2193.067	1	2296.389	-72.74743	6.860888E-007	0.000632	8
	55	156	0.956633	809.5551	-2648.027	1	2769.012	-73.00056	6.66685E-007	-4.872701E-006	8
