EXPLAIN
TAG	EISPOT
TITLE	LABEL	Potentiostatic EIS	Test Identifier
DATE	LABEL	9/11/2020	Date
TIME	LABEL	22:53:22	Time
NOTES	NOTES	1	Notes...
	
PSTAT	PSTAT	REF3000-16137	Potentiostat
VDC	POTEN	0.00000E+000	T	DC Voltage (V)
FREQINIT	QUANT	3.00000E+005	Initial Freq. (Hz)
FREQFINAL	QUANT	1.00000E+000	Final Freq. (Hz)
PTSPERDEC	QUANT	1.00000E+001	Points/decade
VAC	QUANT	5.00000E+001	AC Voltage (mV rms)
AREA	QUANT	1.00000E+000	Sample Area (cm^2)
SPEED	SELECTOR	2	Optimize for:
ZGUESS	QUANT	1.00000E+003	Estimated Z (ohms)
EOC	QUANT	0	Open Circuit (V)
SEQUENCER	TOGGLE	TRUE	Run as Sequence
PSTATMODEL	IQUANT	5	Pstat Model
PSTATSECTION	LABEL	REF3000-16137	Pstat Section
PSTATSERIALNO	LABEL	16137	Pstat Serial Number
CTRLMODE	IQUANT	1	Control Mode
IESTAB	IQUANT	0	I/E Stability
CASPEED	IQUANT	1	Control Amp Speed
CONVENTION	IQUANT	1	Current Convention
ICHRANGE	IQUANT	2	Ich Range
ICHRANGEMODE	TOGGLE	F	Ich Auto Range
ICHOFFSETENABLE	TOGGLE	T	Ich Offset Enable
ICHOFFSET	QUANT	0	Ich Offset (V)
ICHFILTER	IQUANT	3	Ich Filter
VCHRANGE	IQUANT	2	Vch Range
VCHRANGEMODE	TOGGLE	F	Vch Auto Range
VCHOFFSETENABLE	TOGGLE	T	Vch Offset Enable
VCHOFFSET	QUANT	0	Vch Offset (V)
VCHFILTER	IQUANT	3	Vch Filter
ACHRANGE	IQUANT	2	Ach Range
ACHOFFSETENABLE	TOGGLE	F	Ach Offset Enable
ACHOFFSET	QUANT	0	Ach Offset (V)
ACHFILTER	IQUANT	3	Ach Filter
IERANGELOWERLIMIT	IQUANT	2	I/E Range Lower Limit
IERANGEMODE	TOGGLE	F	I/E AutoRange
IERANGE	IQUANT	11	I/E Range
POSFEEDENABLE	TOGGLE	F	Positive Feedback IR Comp
POSFEEDRESISTANCE	QUANT	0	Positive Feedback Resistance (ohm)
ACHSELECT	IQUANT	0	Ach Select
CABLEID	IQUANT	13	Cable ID
DCCALDATE	LABEL	7/31/2020	DC Calibration Date
ACCALDATE	LABEL	7/31/2020	AC Calibration Date
THERMOSELECT	IQUANT	1	Thermo Select
FRAMEWORKVERSION	QUANT	6.33	Framework Version
INSTRUMENTVERSION	LABEL	3.50	Instrument Version
COMPLIANCEVOLTAGE	IQUANT	0	Compliance Voltage
ZCURVE	TABLE
	Pt	Time	Freq	Zreal	Zimag	Zsig	Zmod	Zphz	Idc	Vdc	IERange
	#	s	Hz	ohm	ohm	V	ohm	°	A	V	#
	0	14	300046.9	855.7872	-4015.247	1	4105.433	-77.96833	8.908104E-005	-0.0027719	9
	1	28	238359.4	1022.623	-4878.807	1	4984.829	-78.16189	-1.584543E-005	0.0017122	9
	2	49	189328.1	1661.354	-5756.212	1	5991.167	-73.90084	-1.468059E-005	0.0017192	9
	3	56	150421.9	2313.844	-7005.12	1	7377.37	-71.72122	5.068922E-005	0.0001171	9
	4	64	119484.4	3603.587	-8352.565	1	9096.769	-66.66295	6.448993E-005	-0.0252128	8
	5	71	94921.88	4923.644	-9990.21	1	11137.62	-63.76375	2.161401E-005	-0.0094012	8
	6	80	75421.88	6714.766	-11514.28	1	13329.17	-59.7506	-1.95911E-005	0.011224	8
	7	87	59859.37	8721.333	-13290.64	1	15896.62	-56.72706	2.567724E-005	-0.0089029	8
	8	96	47578.12	13857.94	-14308.4	1	19919.16	-45.91625	2.567788E-006	0.0082367	7
	9	103	37828.12	16803.1	-15314.75	1	22735.12	-42.3468	5.251422E-006	-0.0256684	7
	10	110	30046.88	20045.21	-15797.61	1	25522.04	-38.24161	7.202217E-006	-0.0174714	7
	11	116	23859.38	23557.87	-16044.06	1	28502.37	-34.25677	-6.387819E-006	0.0112629	7
	12	121	18984.38	25471.53	-16299.94	1	30240.48	-32.61631	-2.0434E-005	0.0028651	8
	13	128	15046.87	29300.31	-16382.59	1	33569.29	-29.21073	-2.036218E-005	0.0028498	8
	14	135	11953.13	33818.76	-14823.08	1	36924.68	-23.66829	2.596827E-005	-0.005254	8
	15	142	9515.62	36784.63	-13367.31	1	39138.14	-19.97083	-2.037381E-005	0.0011563	9
	16	148	7546.875	39509.63	-12564.07	1	41459.22	-17.64068	2.67639E-005	-0.0073748	8
	17	156	5928.309	42873.14	-9976.26	1	44018.54	-13.0992	1.734773E-005	0.0002248	8
	18	162	4733.456	44570.16	-9192.637	1	45508.29	-11.65389	-5.182991E-006	0.0257088	7
	19	168	3796.875	45749.99	-7199.22	1	46312.96	-8.942733	-5.314441E-006	0.0037521	7
	20	173	2987.132	45445	-8695.928	1	46269.51	-10.83263	-1.360939E-006	-0.0050223	8
	21	180	2390.625	49841.78	-5858.114	1	50184.86	-6.703459	3.41043E-006	-0.0238029	7
	22	185	1884.191	51853.81	-4703.389	1	52066.68	-5.182819	7.40934E-006	-0.0235111	7
	23	190	1516.544	57296.65	-1330.894	1	57312.1	-1.330634	2.578291E-005	-0.0089514	8
	24	197	1193.986	52972.61	-8906.688	1	53716.17	-9.5443	-2.628639E-005	0.0076014	8
	25	203	946.5144	51952.95	-17510.57	1	54824.54	-18.62622	2.228835E-005	-0.0096979	8
	26	208	751.7689	57024.55	3813.994	1	57151.95	3.826436	-9.279042E-006	-0.0021223	8
	27	214	597.4265	58607.73	-6222.99	1	58937.18	-6.060977	4.712228E-006	-0.00078	7
	28	218	477.4305	60078.27	-1712.352	1	60102.67	-1.632604	-9.274507E-008	0.0005736	7
	29	221	376.6741	60905.45	-703.4286	1	60909.51	-0.6617092	-1.34703E-008	0.0006881	6
	30	224	298.2954	61615.18	-587.3747	1	61617.98	-0.5461815	-1.38079E-008	0.0006587	6
	31	226	237.7717	62286.97	-515.9107	1	62289.11	-0.4745588	-1.342404E-008	0.0006401	6
	32	228	189.0121	63049.54	-447.0166	1	63051.12	-0.4062161	-1.233394E-008	0.0005991	6
	33	231	150.2404	63781.3	-449.6776	1	63782.88	-0.403946	-1.34648E-008	0.0006795	6
	34	233	119.1737	64398.84	-185.6723	1	64399.11	-0.1651926	-1.308913E-008	0.0007232	6
	35	235	95.0169	65272.36	-382.7637	1	65273.48	-0.3359843	-1.367827E-008	0.0007242	6
	36	238	75.60484	66076.31	-385.5986	1	66077.44	-0.3343546	-1.333023E-008	0.0006597	6
	37	240	54.50582	66899.88	-272.0679	1	66900.44	-0.2330087	-1.069793E-008	0.0005965	6
	38	243	45.95588	67709.84	-416.3188	1	67711.13	-0.3522828	-1.201252E-008	0.0006366	6
	39	245	37.20238	68435.23	-436.4072	1	68436.62	-0.3653667	-1.156206E-008	0.0006725	6
	40	248	30.04808	69284.77	-487.3902	1	69286.48	-0.4030459	-9.993652E-009	0.0006801	6
	41	250	23.91582	70096.89	-598.3038	1	70099.45	-0.4890296	-1.051372E-008	0.0006809	6
	42	252	18.60119	70920.2	-751.5999	1	70924.18	-0.607188	-1.327478E-008	0.0006042	6
	43	255	15.02404	71694.06	-795.7139	1	71698.48	-0.6358849	-1.649351E-008	0.0006652	6
	44	257	12.01923	72564.04	-954.551	1	72570.32	-0.7536597	-8.732362E-009	0.0006872	6
	45	259	9.450605	73424.27	-1146.317	1	73433.22	-0.8944423	-4.315725E-009	0.0006018	6
	46	262	7.512019	74439.16	-1437.5	1	74453.03	-1.106306	-9.341374E-009	0.0006334	6
	47	265	5.978954	75466.95	-1772.229	1	75487.76	-1.345259	-1.84785E-008	0.0006007	6
	48	268	4.734848	76726.07	-2169.735	1	76756.74	-1.619834	-1.347249E-008	0.0006506	6
	49	271	3.75601	78131.99	-2678.058	1	78177.88	-1.963106	-1.328123E-008	0.0005991	6
	50	274	3.004808	79553.22	-3350.08	1	79623.73	-2.411368	2.627643E-009	0.0006319	6
	51	278	2.372217	81290.48	-3968.936	1	81387.31	-2.795196	-1.695432E-008	0.0005863	6
	52	282	1.878005	83161.77	-5024.411	1	83313.41	-3.457455	-7.130607E-009	0.0006552	6
	53	287	1.512097	85461.52	-6263.776	1	85690.77	-4.191914	1.333119E-009	0.0005541	6
	54	292	1.201923	88121.23	-7567.839	1	88445.6	-4.90851	-1.242325E-008	0.0006699	6
	55	299	0.956633	91479.93	-9439.673	1	91965.67	-5.891412	-2.652639E-008	6.677941E-006	6
