EXPLAIN
TAG	EISPOT
TITLE	LABEL	Potentiostatic EIS	Test Identifier
DATE	LABEL	9/11/2020	Date
TIME	LABEL	23:04:05	Time
NOTES	NOTES	1	Notes...
	
PSTAT	PSTAT	REF3000-16137	Potentiostat
VDC	POTEN	0.00000E+000	T	DC Voltage (V)
FREQINIT	QUANT	3.00000E+005	Initial Freq. (Hz)
FREQFINAL	QUANT	1.00000E+000	Final Freq. (Hz)
PTSPERDEC	QUANT	1.00000E+001	Points/decade
VAC	QUANT	5.00000E+001	AC Voltage (mV rms)
AREA	QUANT	1.00000E+000	Sample Area (cm^2)
SPEED	SELECTOR	2	Optimize for:
ZGUESS	QUANT	1.00000E+003	Estimated Z (ohms)
EOC	QUANT	0	Open Circuit (V)
SEQUENCER	TOGGLE	TRUE	Run as Sequence
PSTATMODEL	IQUANT	5	Pstat Model
PSTATSECTION	LABEL	REF3000-16137	Pstat Section
PSTATSERIALNO	LABEL	16137	Pstat Serial Number
CTRLMODE	IQUANT	1	Control Mode
IESTAB	IQUANT	0	I/E Stability
CASPEED	IQUANT	1	Control Amp Speed
CONVENTION	IQUANT	1	Current Convention
ICHRANGE	IQUANT	2	Ich Range
ICHRANGEMODE	TOGGLE	F	Ich Auto Range
ICHOFFSETENABLE	TOGGLE	T	Ich Offset Enable
ICHOFFSET	QUANT	0	Ich Offset (V)
ICHFILTER	IQUANT	3	Ich Filter
VCHRANGE	IQUANT	2	Vch Range
VCHRANGEMODE	TOGGLE	F	Vch Auto Range
VCHOFFSETENABLE	TOGGLE	T	Vch Offset Enable
VCHOFFSET	QUANT	0	Vch Offset (V)
VCHFILTER	IQUANT	3	Vch Filter
ACHRANGE	IQUANT	2	Ach Range
ACHOFFSETENABLE	TOGGLE	F	Ach Offset Enable
ACHOFFSET	QUANT	0	Ach Offset (V)
ACHFILTER	IQUANT	3	Ach Filter
IERANGELOWERLIMIT	IQUANT	2	I/E Range Lower Limit
IERANGEMODE	TOGGLE	F	I/E AutoRange
IERANGE	IQUANT	11	I/E Range
POSFEEDENABLE	TOGGLE	F	Positive Feedback IR Comp
POSFEEDRESISTANCE	QUANT	0	Positive Feedback Resistance (ohm)
ACHSELECT	IQUANT	0	Ach Select
CABLEID	IQUANT	13	Cable ID
DCCALDATE	LABEL	7/31/2020	DC Calibration Date
ACCALDATE	LABEL	7/31/2020	AC Calibration Date
THERMOSELECT	IQUANT	1	Thermo Select
FRAMEWORKVERSION	QUANT	6.33	Framework Version
INSTRUMENTVERSION	LABEL	3.50	Instrument Version
COMPLIANCEVOLTAGE	IQUANT	0	Compliance Voltage
ZCURVE	TABLE
	Pt	Time	Freq	Zreal	Zimag	Zsig	Zmod	Zphz	Idc	Vdc	IERange
	#	s	Hz	ohm	ohm	V	ohm	°	A	V	#
	0	20	300046.9	-1.057676	-4498.965	1	4498.965	-90.01347	5.891349E-006	0.001493	9
	1	35	238359.4	98.8759	-5782.959	1	5783.804	-89.02046	-1.389954E-006	-0.0020403	9
	2	63	189328.1	107.4673	-6906.124	1	6906.959	-89.10848	-2.861046E-005	-0.0011189	9
	3	70	150421.9	483.9621	-8661.045	1	8674.556	-86.80175	2.89043E-005	-0.0019492	9
	4	78	119484.4	778.3804	-10878.11	1	10905.92	-85.90719	-1.839925E-005	0.0171005	8
	5	85	94921.88	1113.922	-13425.76	1	13471.89	-85.25709	-9.244323E-007	-0.0051981	8
	6	93	75421.88	1427.617	-16649.37	1	16710.46	-85.0991	-1.21762E-005	0.0103087	8
	7	101	59859.37	1341.552	-20879.6	1	20922.65	-86.32369	8.40877E-006	0.0040704	8
	8	110	47578.12	5067.083	-27216.1	1	27683.77	-79.45345	6.48431E-006	-0.0100657	7
	9	116	37828.12	5608.612	-33711.96	1	34175.33	-80.5543	4.959196E-006	-0.0010197	7
	10	124	30046.88	6897.596	-41782.77	1	42348.27	-80.62602	-5.297377E-006	0.003611	7
	11	131	23859.38	7816.019	-51266.54	1	51858.93	-81.33152	-7.346374E-006	0.0188449	7
	12	137	18984.38	7128.004	-63115.28	1	63516.51	-83.55653	-2.457243E-005	0.0108552	8
	13	143	15046.87	3505.965	-80903.84	1	80979.77	-87.51864	-1.985936E-005	0.0113773	8
	14	150	11953.13	19459.05	-98445.5	1	100350.2	-78.81886	-1.581043E-005	0.0005872	8
	15	158	9515.62	21311.78	-127080.7	1	128855.3	-80.47993	3.076767E-006	0.0075066	7
	16	164	7546.875	25045.73	-156880	1	158866.6	-80.92934	-9.833202E-007	-0.013926	7
	17	171	5928.309	38811.34	-196589	1	200383.5	-78.83207	-3.404061E-006	-0.0050211	7
	18	176	4733.456	58669.67	-256327.3	1	262955.9	-77.10788	6.552244E-006	-0.010176	7
	19	182	3796.875	92884.5	-316382.6	1	329735.5	-73.63866	-2.712049E-005	0.0097221	8
	20	190	2987.132	24911.26	-508780.3	1	509389.8	-87.19688	2.59603E-005	-0.0051493	8
	21	199	2390.625	-126037	-436418.3	1	454253.5	-106.1087	2.231646E-005	-0.0096389	8
	22	207	1884.191	57739.74	-604840.1	1	607589.9	-84.54691	1.233913E-006	-0.019693	7
	23	215	1516.544	282745.9	-662734.4	1	720529	-66.8952	5.837013E-007	-0.0273949	6
	24	220	1193.986	2667842	-1927733	1	3291434	-35.85117	2.226796E-005	-0.0096578	8
	25	229	946.5144	252900.5	-56746.86	1	259188.9	-12.64679	2.331762E-005	-0.0028632	8
	26	236	751.7689	314263.4	288279.5	1	426458.1	42.53072	7.857822E-006	-0.0076394	8
	27	244	597.4265	1579204	-456501.1	1	1643861	-16.12301	-2.160492E-006	0.0077442	8
	28	250	477.4305	1186108	-1323624	1	1777310	-48.1363	-9.17368E-009	0.0005985	6
	29	255	376.6741	1685003	-1269567	1	2109748	-36.99623	-1.021093E-009	0.0005974	5
	30	258	298.2954	1969878	-1253489	1	2334878	-32.46973	-1.143366E-009	0.0007141	5
	31	261	237.7717	2212766	-1214636	1	2524218	-28.76336	-1.014722E-009	0.0005736	5
	32	263	189.0121	2389311	-1262223	1	2702224	-27.84656	-9.736487E-009	0.0006179	6
	33	267	150.2404	2697843	-1077715	1	2905138	-21.77537	-1.076175E-009	0.0006685	5
	34	271	119.1737	3164555	-1204679	1	3386098	-20.84076	-1.029054E-009	0.0005812	5
	35	275	95.0169	3113054	-845651.8	1	3225869	-15.1975	-1.023654E-009	0.0006266	5
	36	279	75.60484	3226007	-812399.5	1	3326728	-14.13479	-9.436151E-009	0.0006419	6
	37	283	54.50582	3472037	-599945	1	3523489	-9.80352	-1.063097E-009	0.000591	5
	38	287	45.95588	3593366	-499463.3	1	3627912	-7.91318	-1.015801E-009	0.0005758	5
	39	291	37.20238	3786047	-484313.5	1	3816898	-7.289721	-1.137772E-009	0.0006704	5
	40	295	30.04808	3985796	-61646.96	1	3986273	-0.8861038	-1.731181E-010	0.0007154	4
	41	298	23.91582	4027245	-70323.99	1	4027859	-1.000401	-1.395734E-010	0.0005879	4
	42	301	18.60119	4195010	-57940.63	1	4195409	-0.7913074	4.930419E-012	0.0006763	4
	43	303	15.02404	4166567	-38406.09	1	4166744	-0.5281193	-1.729772E-010	0.0006808	4
	44	305	12.01923	4219975	-35549.45	1	4220125	-0.4826534	-1.488297E-010	0.0005826	4
	45	308	9.450605	4306317	-41614.66	1	4306518	-0.5536681	-1.78056E-010	0.0006768	4
	46	311	7.512019	4386987	-33368.97	1	4387114	-0.4358035	-1.309834E-010	0.0005817	4
	47	314	5.978954	4497821	-25655.94	1	4497894	-0.3268163	-1.39353E-010	0.0005802	4
	48	318	4.734848	4644242	-24877.38	1	4644308	-0.3069081	-1.377745E-010	0.0006269	4
	49	323	3.75601	4826394	-20256.45	1	4826437	-0.2404699	-1.079429E-010	0.0006852	4
	50	328	3.004808	5025631	-21723.17	1	5025678	-0.2476581	-1.284768E-010	0.0007377	4
	51	335	2.372217	5224893	-24303.08	1	5224949	-0.2665038	-1.315385E-010	0.0006356	4
	52	339	1.878005	5398450	-24331.5	1	5398505	-0.2582377	-1.341175E-010	0.0006154	4
	53	344	1.512097	5599741	-22963.06	1	5599789	-0.2349535	-1.214471E-010	0.0007294	4
	54	349	1.201923	5844567	-28302	1	5844636	-0.2774496	-1.411591E-010	0.000609	4
	55	355	0.956633	6120197	-32941.87	1	6120286	-0.3083907	-2.498786E-010	-2.743398E-006	4
