EXPLAIN
TAG	EISPOT
TITLE	LABEL	Potentiostatic EIS	Test Identifier
DATE	LABEL	9/11/2020	Date
TIME	LABEL	21:45:22	Time
NOTES	NOTES	1	Notes...
	
PSTAT	PSTAT	REF3000-16137	Potentiostat
VDC	POTEN	0.00000E+000	T	DC Voltage (V)
FREQINIT	QUANT	3.00000E+005	Initial Freq. (Hz)
FREQFINAL	QUANT	1.00000E+000	Final Freq. (Hz)
PTSPERDEC	QUANT	1.00000E+001	Points/decade
VAC	QUANT	5.00000E+001	AC Voltage (mV rms)
AREA	QUANT	1.00000E+000	Sample Area (cm^2)
SPEED	SELECTOR	2	Optimize for:
ZGUESS	QUANT	1.00000E+003	Estimated Z (ohms)
EOC	QUANT	0	Open Circuit (V)
SEQUENCER	TOGGLE	TRUE	Run as Sequence
PSTATMODEL	IQUANT	5	Pstat Model
PSTATSECTION	LABEL	REF3000-16137	Pstat Section
PSTATSERIALNO	LABEL	16137	Pstat Serial Number
CTRLMODE	IQUANT	1	Control Mode
IESTAB	IQUANT	0	I/E Stability
CASPEED	IQUANT	1	Control Amp Speed
CONVENTION	IQUANT	1	Current Convention
ICHRANGE	IQUANT	2	Ich Range
ICHRANGEMODE	TOGGLE	F	Ich Auto Range
ICHOFFSETENABLE	TOGGLE	T	Ich Offset Enable
ICHOFFSET	QUANT	0	Ich Offset (V)
ICHFILTER	IQUANT	3	Ich Filter
VCHRANGE	IQUANT	2	Vch Range
VCHRANGEMODE	TOGGLE	F	Vch Auto Range
VCHOFFSETENABLE	TOGGLE	T	Vch Offset Enable
VCHOFFSET	QUANT	0	Vch Offset (V)
VCHFILTER	IQUANT	3	Vch Filter
ACHRANGE	IQUANT	2	Ach Range
ACHOFFSETENABLE	TOGGLE	F	Ach Offset Enable
ACHOFFSET	QUANT	0	Ach Offset (V)
ACHFILTER	IQUANT	3	Ach Filter
IERANGELOWERLIMIT	IQUANT	2	I/E Range Lower Limit
IERANGEMODE	TOGGLE	F	I/E AutoRange
IERANGE	IQUANT	11	I/E Range
POSFEEDENABLE	TOGGLE	F	Positive Feedback IR Comp
POSFEEDRESISTANCE	QUANT	0	Positive Feedback Resistance (ohm)
ACHSELECT	IQUANT	0	Ach Select
CABLEID	IQUANT	13	Cable ID
DCCALDATE	LABEL	7/31/2020	DC Calibration Date
ACCALDATE	LABEL	7/31/2020	AC Calibration Date
THERMOSELECT	IQUANT	1	Thermo Select
FRAMEWORKVERSION	QUANT	6.33	Framework Version
INSTRUMENTVERSION	LABEL	3.50	Instrument Version
COMPLIANCEVOLTAGE	IQUANT	0	Compliance Voltage
ZCURVE	TABLE
	Pt	Time	Freq	Zreal	Zimag	Zsig	Zmod	Zphz	Idc	Vdc	IERange
	#	s	Hz	ohm	ohm	V	ohm	°	A	V	#
	0	8	300046.9	8.239779	2.286744	1	8.551208	15.51066	0.0003493	-0.0019001	10
	1	11	238359.4	8.207246	1.816491	1	8.405863	12.47996	-0.0003256	0.0001282	10
	2	14	189328.1	8.198128	1.426133	1	8.321247	9.86833	0.0005507	-0.0012564	10
	3	17	150421.9	8.207068	1.125266	1	8.283852	7.80711	0.0004834	-0.0001015	10
	4	20	119484.4	8.21408	0.8671942	1	8.259729	6.026627	-0.0003157	0.000576	10
	5	22	94921.88	8.22237	0.6847966	1	8.250837	4.760868	0.0001288	0.0005633	10
	6	25	75421.88	8.233488	0.5027516	1	8.248823	3.494245	6.904332E-007	0.0009899	10
	7	27	59859.37	8.247112	0.3484893	1	8.254472	2.419646	-6.989482E-005	0.0003972	10
	8	30	47578.12	8.261793	0.215148	1	8.264594	1.491721	0.0002059	4.787787E-005	10
	9	32	37828.12	8.284243	0.0986532	1	8.28483	0.6822767	6.735804E-005	0.0007675	10
	10	35	30046.88	8.300175	-0.0093683	1	8.30018	-0.0646693	-0.0001906	0.0010422	10
	11	37	23859.38	8.317993	-0.1176364	1	8.318825	-0.8102458	5.828964E-005	0.0001192	10
	12	39	18984.38	8.339678	-0.2308934	1	8.342874	-1.585893	0.0001257	-4.314449E-005	10
	13	42	15046.87	8.362286	-0.353722	1	8.369763	-2.422149	-0.0001944	0.0011303	10
	14	44	11953.13	8.384108	-0.4956618	1	8.398746	-3.383343	5.836773E-005	0.0001078	10
	15	46	9515.62	8.408326	-0.6532772	1	8.433666	-4.442618	5.342908E-005	0.0001159	10
	16	49	7546.875	8.440362	-0.8455644	1	8.482611	-5.720864	5.907864E-005	0.0008874	10
	17	51	5928.309	8.476163	-1.090925	1	8.546079	-7.33394	-0.0001296	0.0012812	10
	18	53	4733.456	8.514297	-1.37326	1	8.624331	-9.162256	0.0001606	-7.857543E-007	10
	19	56	3796.875	8.558781	-1.709032	1	8.727744	-11.2924	-8.217945E-005	0.0004257	10
	20	58	2987.132	8.616253	-2.154405	1	8.881514	-14.03838	0.0001173	2.24326E-005	10
	21	60	2390.625	8.686833	-2.673551	1	9.088946	-17.10682	-0.0001298	0.0013249	10
	22	62	1884.191	8.770183	-3.350744	1	9.388482	-20.9099	-8.908076E-006	0.0002491	10
	23	65	1516.544	8.874702	-4.122198	1	9.78534	-24.91433	0.000194	1.540932E-005	10
	24	67	1193.986	9.016279	-5.165052	1	10.39091	-29.8066	-0.0001985	0.0010348	10
	25	70	946.5144	9.196808	-6.417286	1	11.2144	-34.9063	-0.000196	0.0011392	10
	26	72	751.7689	9.422212	-7.958839	1	12.33374	-40.18742	-0.0002	0.0010367	10
	27	74	597.4265	9.70447	-9.85654	1	13.83214	-45.44539	-0.0001975	0.0012651	10
	28	76	477.4305	10.06592	-12.12593	1	15.75947	-50.3034	2.430167E-006	0.0005999	10
	29	79	376.6741	10.5585	-15.07195	1	18.40232	-54.98722	-2.447917E-006	0.0006546	10
	30	81	298.2954	11.18519	-18.64611	1	21.74364	-59.04184	-1.610389E-006	0.0006558	10
	31	83	237.7717	11.96552	-22.9017	1	25.83915	-62.41414	-2.361929E-006	0.0006565	10
	32	86	189.0121	12.96902	-28.16406	1	31.00661	-65.27482	-2.148573E-006	0.000652	10
	33	88	150.2404	14.23573	-34.58826	1	37.40326	-67.62907	-2.352704E-006	0.0006432	10
	34	91	119.1737	15.82813	-42.46055	1	45.31477	-69.55592	6.628001E-007	5.595271E-005	9
	35	93	95.0169	17.79968	-51.89927	1	54.86677	-71.06977	6.574678E-007	5.86134E-005	9
	36	96	75.60484	20.29088	-63.50481	1	66.66769	-72.28043	5.718259E-007	5.479848E-005	9
	37	98	54.50582	25.00999	-84.6677	1	88.28431	-73.54339	6.572326E-007	5.524992E-005	9
	38	101	45.95588	28.18709	-98.3446	1	102.3043	-74.00687	8.21106E-007	6.257182E-005	9
	39	103	37.20238	32.98446	-118.2661	1	122.7796	-74.41619	9.639439E-007	4.885364E-005	9
	40	105	30.04808	39.04336	-142.3761	1	147.6325	-74.66494	7.849238E-007	4.407476E-005	9
	41	108	23.91582	47.34219	-173.4484	1	179.7933	-74.73317	8.636804E-007	4.91031E-005	9
	42	110	18.60119	59.03819	-214.9769	1	222.9362	-74.64368	7.762658E-007	5.537653E-005	9
	43	112	15.02404	71.63383	-257.5205	1	267.298	-74.45516	9.929155E-007	5.106658E-005	9
	44	115	12.01923	88.33788	-310.4075	1	322.7327	-74.11434	5.068836E-007	5.403575E-005	9
	45	117	9.450605	110.6493	-378.4025	1	394.2483	-73.70047	6.685955E-007	6.694881E-005	9
	46	120	7.512019	136.3506	-453.6151	1	473.6646	-73.26993	5.03582E-007	0.000624	8
	47	122	5.978954	167.7866	-544.793	1	570.0453	-72.8821	5.743735E-007	0.0006354	8
	48	125	4.734848	206.0073	-655.6201	1	687.2239	-72.55637	5.52565E-007	0.0006039	8
	49	129	3.75601	251.348	-786.9109	1	826.0778	-72.28594	6.69199E-007	0.0006449	8
	50	132	3.004808	301.3004	-938.2722	1	985.463	-72.197	6.108817E-007	0.0006401	8
	51	136	2.372217	364.6487	-1131.812	1	1189.103	-72.14202	6.219884E-007	0.0006034	8
	52	140	1.878005	438.479	-1371.003	1	1439.415	-72.2645	7.273325E-007	0.0006226	8
	53	145	1.512097	518.9788	-1639.388	1	1719.573	-72.43385	8.446432E-007	0.0007052	8
	54	150	1.201923	633.3721	-1989.211	1	2087.612	-72.33833	8.832624E-007	0.0006264	8
	55	156	0.956633	778.2258	-2412.35	1	2534.772	-72.12026	8.080017E-007	-8.645655E-006	8
