EXPLAIN
TAG	EISPOT
TITLE	LABEL	Potentiostatic EIS	Test Identifier
DATE	LABEL	9/11/2020	Date
TIME	LABEL	21:31:29	Time
NOTES	NOTES	1	Notes...
	
PSTAT	PSTAT	REF3000-16137	Potentiostat
VDC	POTEN	0.00000E+000	T	DC Voltage (V)
FREQINIT	QUANT	3.00000E+005	Initial Freq. (Hz)
FREQFINAL	QUANT	1.00000E+000	Final Freq. (Hz)
PTSPERDEC	QUANT	1.00000E+001	Points/decade
VAC	QUANT	5.00000E+001	AC Voltage (mV rms)
AREA	QUANT	1.00000E+000	Sample Area (cm^2)
SPEED	SELECTOR	2	Optimize for:
ZGUESS	QUANT	1.00000E+003	Estimated Z (ohms)
EOC	QUANT	0	Open Circuit (V)
SEQUENCER	TOGGLE	TRUE	Run as Sequence
PSTATMODEL	IQUANT	5	Pstat Model
PSTATSECTION	LABEL	REF3000-16137	Pstat Section
PSTATSERIALNO	LABEL	16137	Pstat Serial Number
CTRLMODE	IQUANT	1	Control Mode
IESTAB	IQUANT	0	I/E Stability
CASPEED	IQUANT	1	Control Amp Speed
CONVENTION	IQUANT	1	Current Convention
ICHRANGE	IQUANT	2	Ich Range
ICHRANGEMODE	TOGGLE	F	Ich Auto Range
ICHOFFSETENABLE	TOGGLE	T	Ich Offset Enable
ICHOFFSET	QUANT	0	Ich Offset (V)
ICHFILTER	IQUANT	3	Ich Filter
VCHRANGE	IQUANT	2	Vch Range
VCHRANGEMODE	TOGGLE	F	Vch Auto Range
VCHOFFSETENABLE	TOGGLE	T	Vch Offset Enable
VCHOFFSET	QUANT	0	Vch Offset (V)
VCHFILTER	IQUANT	3	Vch Filter
ACHRANGE	IQUANT	2	Ach Range
ACHOFFSETENABLE	TOGGLE	F	Ach Offset Enable
ACHOFFSET	QUANT	0	Ach Offset (V)
ACHFILTER	IQUANT	3	Ach Filter
IERANGELOWERLIMIT	IQUANT	2	I/E Range Lower Limit
IERANGEMODE	TOGGLE	F	I/E AutoRange
IERANGE	IQUANT	11	I/E Range
POSFEEDENABLE	TOGGLE	F	Positive Feedback IR Comp
POSFEEDRESISTANCE	QUANT	0	Positive Feedback Resistance (ohm)
ACHSELECT	IQUANT	0	Ach Select
CABLEID	IQUANT	13	Cable ID
DCCALDATE	LABEL	7/31/2020	DC Calibration Date
ACCALDATE	LABEL	7/31/2020	AC Calibration Date
THERMOSELECT	IQUANT	1	Thermo Select
FRAMEWORKVERSION	QUANT	6.33	Framework Version
INSTRUMENTVERSION	LABEL	3.50	Instrument Version
COMPLIANCEVOLTAGE	IQUANT	0	Compliance Voltage
ZCURVE	TABLE
	Pt	Time	Freq	Zreal	Zimag	Zsig	Zmod	Zphz	Idc	Vdc	IERange
	#	s	Hz	ohm	ohm	V	ohm	°	A	V	#
	0	10	300046.9	5.093974	2.310323	1	5.593403	24.39621	8.849464E-005	0.0004022	10
	1	13	238359.4	5.078005	1.829615	1	5.397558	19.81419	-0.0004789	0.0011585	10
	2	16	189328.1	5.062971	1.437621	1	5.26312	15.8518	-0.0004487	0.0012463	10
	3	19	150421.9	5.049087	1.130666	1	5.174136	12.62227	-0.0003591	0.0007421	10
	4	21	119484.4	5.054375	0.8758284	1	5.129696	9.83067	0.0003819	-0.0008521	10
	5	24	94921.88	5.057932	0.6873637	1	5.104424	7.738982	0.0001093	7.313483E-005	10
	6	26	75421.88	5.058073	0.5120196	1	5.083922	5.780259	0.0001803	0.000155	10
	7	29	59859.37	5.062853	0.362056	1	5.075782	4.090387	4.602156E-005	0.0006297	10
	8	31	47578.12	5.071901	0.2340578	1	5.077299	2.642207	-0.0001036	0.0010142	10
	9	34	37828.12	5.078595	0.1171969	1	5.079947	1.32196	-0.0001074	0.0006394	10
	10	36	30046.88	5.088804	0.0099239	1	5.088813	0.1117343	1.965333E-006	0.0007932	10
	11	39	23859.38	5.099338	-0.0967707	1	5.100256	-1.087178	-6.772975E-006	0.0008318	10
	12	41	18984.38	5.110419	-0.2038368	1	5.114482	-2.284118	0.0001234	0.0004986	10
	13	43	15046.87	5.122046	-0.3247678	1	5.132332	-3.628032	-0.0001539	0.0009264	10
	14	46	11953.13	5.140321	-0.4550868	1	5.160427	-5.059362	0.0001783	0.0001939	10
	15	48	9515.62	5.156261	-0.6080769	1	5.191993	-6.725815	-4.96734E-005	0.0009145	10
	16	50	7546.875	5.178885	-0.790015	1	5.238794	-8.673344	-0.0001114	0.0011001	10
	17	53	5928.309	5.205502	-1.022258	1	5.304928	-11.11038	-0.0001491	0.0010955	10
	18	55	4733.456	5.2351	-1.285515	1	5.390623	-13.7964	-0.0001485	0.0008512	10
	19	57	3796.875	5.273531	-1.601483	1	5.511341	-16.89266	0.0001276	0.0001874	10
	20	60	2987.132	5.324831	-2.019728	1	5.695009	-20.77192	0.0001689	0.0002102	10
	21	62	2390.625	5.3863	-2.503787	1	5.939796	-24.93106	-5.951168E-005	0.0005352	10
	22	64	1884.191	5.467509	-3.141005	1	6.305519	-29.87675	-0.0001711	0.0009573	10
	23	66	1516.544	5.570458	-3.849789	1	6.771328	-34.64866	-0.00017	0.0009539	10
	24	69	1193.986	5.710402	-4.815058	1	7.469503	-40.13786	0.0001031	0.0005968	10
	25	71	946.5144	5.888957	-5.970809	1	8.38632	-45.39543	0.000179	0.0002304	10
	26	74	751.7689	6.117222	-7.389959	1	9.59333	-50.3829	-6.655086E-005	0.0010074	10
	27	76	597.4265	6.413054	-9.122565	1	11.15116	-54.89324	-0.000151	0.0011085	10
	28	78	477.4305	6.783706	-11.18301	1	13.07969	-58.75866	-2.105022E-006	0.0006601	10
	29	80	376.6741	7.28375	-13.85314	1	15.65127	-62.26535	-2.082476E-006	0.0006575	10
	30	83	298.2954	7.911714	-17.08051	1	18.8239	-65.14637	-2.383698E-006	0.0006594	10
	31	85	237.7717	8.682809	-20.91014	1	22.64122	-67.44962	-1.925576E-006	0.0006582	10
	32	88	189.0121	9.66254	-25.63504	1	27.39562	-69.34722	-2.006082E-006	0.0006599	10
	33	90	150.2404	10.8983	-31.40609	1	33.24328	-70.86259	-1.265809E-006	0.0006519	10
	34	92	119.1737	12.46672	-38.51737	1	40.48465	-72.06506	-1.901244E-006	0.000659	10
	35	95	95.0169	14.39001	-46.93133	1	49.0879	-72.9535	1.151454E-006	5.567801E-005	9
	36	97	75.60484	16.87123	-57.31251	1	59.74414	-73.59702	1.124752E-006	5.611134E-005	9
	37	100	54.50582	21.65468	-76.14133	1	79.16077	-74.12418	1.183752E-006	4.939023E-005	9
	38	102	45.95588	24.92017	-88.23064	1	91.68239	-74.22801	1.324892E-006	5.718134E-005	9
	39	105	37.20238	29.87003	-105.7118	1	109.8509	-74.22179	1.654026E-006	-6.165264E-006	9
	40	107	30.04808	36.12633	-126.6399	1	131.692	-74.07824	1.650934E-006	-9.277233E-006	9
	41	109	23.91582	44.56322	-153.3177	1	159.6628	-73.793	1.285833E-006	5.035334E-005	9
	42	112	18.60119	56.30363	-188.5163	1	196.7448	-73.37084	1.353561E-006	5.088468E-005	9
	43	114	15.02404	68.68	-224.2452	1	234.5269	-72.97165	1.570082E-006	-1.066397E-005	9
	44	116	12.01923	84.40433	-268.0008	1	280.9778	-72.51867	1.77996E-006	-7.760404E-006	9
	45	119	9.450605	104.816	-324.432	1	340.9435	-72.09563	1.391037E-006	5.000589E-005	9
	46	121	7.512019	127.9707	-388.5368	1	409.0689	-71.76989	1.343013E-006	7.49727E-005	9
	47	124	5.978954	154.5595	-463.1781	1	488.2854	-71.54648	1.179189E-006	0.0006359	8
	48	127	4.734848	187.6819	-557.8703	1	588.5947	-71.40574	1.295089E-006	0.0006512	8
	49	130	3.75601	227.8043	-671.723	1	709.3	-71.26644	1.155501E-006	0.0006281	8
	50	134	3.004808	276.2233	-805.5086	1	851.5535	-71.07224	1.220694E-006	0.0006154	8
	51	137	2.372217	342.8128	-977.158	1	1035.548	-70.66779	1.198236E-006	0.0006123	8
	52	142	1.878005	434.3797	-1185.847	1	1262.901	-69.88205	1.207594E-006	0.0005841	8
	53	146	1.512097	547.695	-1415.491	1	1517.757	-68.84708	1.182213E-006	0.0005223	8
	54	152	1.201923	712.3729	-1700.199	1	1843.408	-67.26662	1.172276E-006	0.0006499	8
	55	158	0.956633	935.802	-2022.699	1	2228.685	-65.17238	1.089144E-006	-3.300422E-006	8
