EXPLAIN
TAG	EISPOT
TITLE	LABEL	Potentiostatic EIS	Test Identifier
DATE	LABEL	9/11/2020	Date
TIME	LABEL	22:39:43	Time
NOTES	NOTES	1	Notes...
	
PSTAT	PSTAT	REF3000-16137	Potentiostat
VDC	POTEN	0.00000E+000	T	DC Voltage (V)
FREQINIT	QUANT	3.00000E+005	Initial Freq. (Hz)
FREQFINAL	QUANT	1.00000E+000	Final Freq. (Hz)
PTSPERDEC	QUANT	1.00000E+001	Points/decade
VAC	QUANT	5.00000E+001	AC Voltage (mV rms)
AREA	QUANT	1.00000E+000	Sample Area (cm^2)
SPEED	SELECTOR	2	Optimize for:
ZGUESS	QUANT	1.00000E+003	Estimated Z (ohms)
EOC	QUANT	0	Open Circuit (V)
SEQUENCER	TOGGLE	TRUE	Run as Sequence
PSTATMODEL	IQUANT	5	Pstat Model
PSTATSECTION	LABEL	REF3000-16137	Pstat Section
PSTATSERIALNO	LABEL	16137	Pstat Serial Number
CTRLMODE	IQUANT	1	Control Mode
IESTAB	IQUANT	0	I/E Stability
CASPEED	IQUANT	1	Control Amp Speed
CONVENTION	IQUANT	1	Current Convention
ICHRANGE	IQUANT	2	Ich Range
ICHRANGEMODE	TOGGLE	F	Ich Auto Range
ICHOFFSETENABLE	TOGGLE	T	Ich Offset Enable
ICHOFFSET	QUANT	0	Ich Offset (V)
ICHFILTER	IQUANT	3	Ich Filter
VCHRANGE	IQUANT	2	Vch Range
VCHRANGEMODE	TOGGLE	F	Vch Auto Range
VCHOFFSETENABLE	TOGGLE	T	Vch Offset Enable
VCHOFFSET	QUANT	0	Vch Offset (V)
VCHFILTER	IQUANT	3	Vch Filter
ACHRANGE	IQUANT	2	Ach Range
ACHOFFSETENABLE	TOGGLE	F	Ach Offset Enable
ACHOFFSET	QUANT	0	Ach Offset (V)
ACHFILTER	IQUANT	3	Ach Filter
IERANGELOWERLIMIT	IQUANT	2	I/E Range Lower Limit
IERANGEMODE	TOGGLE	F	I/E AutoRange
IERANGE	IQUANT	11	I/E Range
POSFEEDENABLE	TOGGLE	F	Positive Feedback IR Comp
POSFEEDRESISTANCE	QUANT	0	Positive Feedback Resistance (ohm)
ACHSELECT	IQUANT	0	Ach Select
CABLEID	IQUANT	13	Cable ID
DCCALDATE	LABEL	7/31/2020	DC Calibration Date
ACCALDATE	LABEL	7/31/2020	AC Calibration Date
THERMOSELECT	IQUANT	1	Thermo Select
FRAMEWORKVERSION	QUANT	6.33	Framework Version
INSTRUMENTVERSION	LABEL	3.50	Instrument Version
COMPLIANCEVOLTAGE	IQUANT	0	Compliance Voltage
ZCURVE	TABLE
	Pt	Time	Freq	Zreal	Zimag	Zsig	Zmod	Zphz	Idc	Vdc	IERange
	#	s	Hz	ohm	ohm	V	ohm	°	A	V	#
	0	27	300046.9	1183.93	-408.0498	1	1252.276	-19.01687	8.554771E-005	-0.0035484	9
	1	42	238359.4	1316.594	-421.2697	1	1382.349	-17.74308	2.496791E-005	0.0008875	9
	2	69	189328.1	1383.834	-352.5194	1	1428.029	-14.29162	1.734307E-005	-0.0020764	9
	3	75	150421.9	1453.521	-314.54	1	1487.165	-12.21045	-1.36776E-005	0.0016983	9
	4	82	119484.4	1521.632	-216.348	1	1536.936	-8.092163	-6.915203E-005	0.0189012	8
	5	88	94921.88	1556.509	-176.4509	1	1566.479	-6.467624	-1.441204E-005	0.0012715	8
	6	91	75421.88	1579.683	-148.3174	1	1586.631	-5.363811	-2.817636E-007	0.0058712	8
	7	94	59859.37	1599.274	-127.8145	1	1604.374	-4.569386	2.035168E-005	-0.002931	8
	8	97	47578.12	1621.487	-104.8946	1	1624.876	-3.701326	8.383106E-006	0.0029393	8
	9	101	37828.12	1643.812	-80.90122	1	1645.802	-2.817573	-2.023539E-005	0.0049477	8
	10	104	30046.88	1660.883	-67.40298	1	1662.25	-2.323937	-2.064922E-005	0.0050892	8
	11	107	23859.38	1685.056	-62.80941	1	1686.226	-2.134676	8.741459E-006	0.0028352	8
	12	110	18984.38	1700.37	-47.96992	1	1701.047	-1.615968	1.986332E-005	-0.002646	8
	13	114	15046.87	1726.334	-39.54405	1	1726.787	-1.312209	-2.178279E-005	0.0081105	8
	14	118	11953.13	1741.889	-31.30304	1	1742.17	-1.029537	-2.191705E-007	0.0061281	8
	15	121	9515.62	1759.212	-25.75647	1	1759.401	-0.8388026	8.673242E-006	0.0028669	8
	16	124	7546.875	1779.737	-21.20117	1	1779.863	-0.6825055	-2.097031E-005	0.0080207	8
	17	129	5928.309	1804.084	-19.97358	1	1804.194	-0.6343138	-2.05647E-005	0.0049679	8
	18	133	4733.456	1828.348	-18.61919	1	1828.443	-0.5834578	-2.203954E-005	0.0083782	8
	19	137	3796.875	1852.434	-14.46048	1	1852.49	-0.4472536	1.85277E-005	-0.0082678	8
	20	141	2987.132	1876.312	-16.50964	1	1876.384	-0.5041317	5.552669E-006	-0.0061027	8
	21	145	2390.625	1898.762	-1.346426	1	1898.763	-0.0406288	-1.844699E-005	0.0031922	8
	22	149	1884.191	1918.637	-13.34754	1	1918.683	-0.3985878	-2.015165E-005	0.0094498	8
	23	154	1516.544	1959.792	-12.63585	1	1959.833	-0.3694122	1.593303E-005	-0.0001978	8
	24	158	1193.986	1982.306	-14.25912	1	1982.357	-0.4121328	-2.230648E-005	0.0084594	8
	25	163	946.5144	1998.918	-18.6705	1	1999.005	-0.5351444	-5.208385E-007	0.0061897	8
	26	165	751.7689	2031.779	-17.66891	1	2031.856	-0.4982475	-4.699143E-007	0.0063067	8
	27	168	597.4265	2031.864	-34.9506	1	2032.164	-0.985462	-1.804104E-005	0.0028913	8
	28	170	477.4305	2053.571	-23.00052	1	2053.7	-0.6417006	-2.704409E-007	0.0006072	8
	29	173	376.6741	2069.288	-27.47437	1	2069.471	-0.7606832	-2.710399E-007	0.0006197	8
	30	175	298.2954	2085.211	-33.35464	1	2085.478	-0.9164142	-2.766557E-007	0.0006111	8
	31	177	237.7717	2102.167	-40.55728	1	2102.558	-1.105275	-2.869196E-007	0.0006206	8
	32	180	189.0121	2119.283	-49.78646	1	2119.868	-1.345752	-3.064592E-007	0.0006173	8
	33	182	150.2404	2136.811	-61.25798	1	2137.689	-1.642102	-3.122759E-007	0.0006226	8
	34	185	119.1737	2154.91	-75.60764	1	2156.236	-2.009467	-3.084512E-007	0.0006381	8
	35	187	95.0169	2173.12	-93.10538	1	2175.113	-2.453287	-2.643326E-007	0.0006134	8
	36	189	75.60484	2192.959	-115.1414	1	2195.98	-3.005558	-2.692887E-007	0.0006063	8
	37	192	54.50582	2215.064	-156.0209	1	2220.552	-4.029048	-2.920663E-007	0.0006026	8
	38	194	45.95588	2234.492	-182.7534	1	2241.953	-4.675668	-3.701868E-007	0.0006237	8
	39	197	37.20238	2255.36	-224.1152	1	2266.468	-5.674854	-1.765382E-007	0.0006133	8
	40	199	30.04808	2278.814	-272.6415	1	2295.066	-6.822542	-3.610027E-007	0.0006144	8
	41	202	23.91582	2301.66	-337.8837	1	2326.328	-8.351371	-2.610081E-007	0.0006404	8
	42	204	18.60119	2333.72	-432.4201	1	2373.444	-10.49741	-6.473597E-007	0.0006225	8
	43	206	15.02404	2355.519	-521.6447	1	2412.589	-12.48698	-2.754903E-007	0.000613	8
	44	209	12.01923	2390.676	-641.5227	1	2475.254	-15.02108	-1.75575E-007	0.0006137	8
	45	211	9.450605	2423.1	-806.7841	1	2553.882	-18.41545	-3.522314E-007	0.0006132	8
	46	213	7.512019	2465.596	-1002.247	1	2661.515	-22.1214	-3.830513E-007	0.0006144	8
	47	216	5.978954	2519.752	-1236.414	1	2806.754	-26.13667	-3.066497E-007	0.0006348	8
	48	219	4.734848	2586.135	-1539.033	1	3009.438	-30.75727	-3.498446E-007	0.0006304	8
	49	222	3.75601	2664.688	-1907.126	1	3276.841	-35.59143	-2.727706E-007	0.0006136	8
	50	226	3.004808	2756.64	-2342.729	1	3617.657	-40.35952	-3.495925E-007	0.000681	8
	51	230	2.372217	2889.341	-2918.449	1	4106.779	-45.28716	-5.729119E-008	0.0006732	7
	52	234	1.878005	3034.54	-3619.82	1	4723.508	-50.02647	-7.997755E-008	0.0005702	7
	53	238	1.512097	3208.427	-4402.305	1	5447.411	-53.9152	-6.318373E-008	0.0006503	7
	54	244	1.201923	3438.593	-5445.692	1	6440.457	-57.73031	-7.526468E-008	0.0005663	7
	55	250	0.956633	3724.221	-6703.005	1	7668.123	-60.94325	-8.255714E-008	-4.322478E-005	7
