EXPLAIN
TAG	EISPOT
TITLE	LABEL	Potentiostatic EIS	Test Identifier
DATE	LABEL	9/11/2020	Date
TIME	LABEL	21:42:37	Time
NOTES	NOTES	1	Notes...
	
PSTAT	PSTAT	REF3000-16137	Potentiostat
VDC	POTEN	0.00000E+000	T	DC Voltage (V)
FREQINIT	QUANT	3.00000E+005	Initial Freq. (Hz)
FREQFINAL	QUANT	1.00000E+000	Final Freq. (Hz)
PTSPERDEC	QUANT	1.00000E+001	Points/decade
VAC	QUANT	5.00000E+001	AC Voltage (mV rms)
AREA	QUANT	1.00000E+000	Sample Area (cm^2)
SPEED	SELECTOR	2	Optimize for:
ZGUESS	QUANT	1.00000E+003	Estimated Z (ohms)
EOC	QUANT	0	Open Circuit (V)
SEQUENCER	TOGGLE	TRUE	Run as Sequence
PSTATMODEL	IQUANT	5	Pstat Model
PSTATSECTION	LABEL	REF3000-16137	Pstat Section
PSTATSERIALNO	LABEL	16137	Pstat Serial Number
CTRLMODE	IQUANT	1	Control Mode
IESTAB	IQUANT	0	I/E Stability
CASPEED	IQUANT	1	Control Amp Speed
CONVENTION	IQUANT	1	Current Convention
ICHRANGE	IQUANT	2	Ich Range
ICHRANGEMODE	TOGGLE	F	Ich Auto Range
ICHOFFSETENABLE	TOGGLE	T	Ich Offset Enable
ICHOFFSET	QUANT	0	Ich Offset (V)
ICHFILTER	IQUANT	3	Ich Filter
VCHRANGE	IQUANT	2	Vch Range
VCHRANGEMODE	TOGGLE	F	Vch Auto Range
VCHOFFSETENABLE	TOGGLE	T	Vch Offset Enable
VCHOFFSET	QUANT	0	Vch Offset (V)
VCHFILTER	IQUANT	3	Vch Filter
ACHRANGE	IQUANT	2	Ach Range
ACHOFFSETENABLE	TOGGLE	F	Ach Offset Enable
ACHOFFSET	QUANT	0	Ach Offset (V)
ACHFILTER	IQUANT	3	Ach Filter
IERANGELOWERLIMIT	IQUANT	2	I/E Range Lower Limit
IERANGEMODE	TOGGLE	F	I/E AutoRange
IERANGE	IQUANT	11	I/E Range
POSFEEDENABLE	TOGGLE	F	Positive Feedback IR Comp
POSFEEDRESISTANCE	QUANT	0	Positive Feedback Resistance (ohm)
ACHSELECT	IQUANT	0	Ach Select
CABLEID	IQUANT	13	Cable ID
DCCALDATE	LABEL	7/31/2020	DC Calibration Date
ACCALDATE	LABEL	7/31/2020	AC Calibration Date
THERMOSELECT	IQUANT	1	Thermo Select
FRAMEWORKVERSION	QUANT	6.33	Framework Version
INSTRUMENTVERSION	LABEL	3.50	Instrument Version
COMPLIANCEVOLTAGE	IQUANT	0	Compliance Voltage
ZCURVE	TABLE
	Pt	Time	Freq	Zreal	Zimag	Zsig	Zmod	Zphz	Idc	Vdc	IERange
	#	s	Hz	ohm	ohm	V	ohm	°	A	V	#
	0	8	300046.9	7.389964	2.317261	1	7.744757	17.40979	-0.000531	0.0010742	10
	1	11	238359.4	7.345199	1.815224	1	7.566174	13.88141	0.000339	-0.0017065	10
	2	14	189328.1	7.342599	1.430218	1	7.480594	11.02226	-0.0004416	0.0008527	10
	3	16	150421.9	7.33547	1.131321	1	7.422196	8.767425	0.0003456	-0.0013966	10
	4	19	119484.4	7.346221	0.8676887	1	7.397286	6.736202	-0.000177	0.0002638	10
	5	22	94921.88	7.353665	0.6846829	1	7.385471	5.319343	0.0001527	-5.3711E-005	10
	6	24	75421.88	7.359793	0.5057825	1	7.377152	3.931321	0.0001736	-2.668715E-006	10
	7	27	59859.37	7.373691	0.3524619	1	7.38211	2.736652	-0.0001853	0.0010561	10
	8	29	47578.12	7.387397	0.2210032	1	7.390702	1.713564	-0.0001859	0.0010217	10
	9	32	37828.12	7.403381	0.1023122	1	7.404088	0.7917579	0.0001878	5.274076E-005	10
	10	34	30046.88	7.418766	-0.0057965	1	7.418768	-0.0447667	-0.0001312	0.0006756	10
	11	37	23859.38	7.435584	-0.1126525	1	7.436438	-0.8679909	-0.0001736	0.0012106	10
	12	39	18984.38	7.45249	-0.2239764	1	7.455855	-1.721444	9.80921E-006	0.0008711	10
	13	41	15046.87	7.469468	-0.3487425	1	7.477605	-2.673145	0.0001901	0.0002058	10
	14	44	11953.13	7.494982	-0.4827708	1	7.510514	-3.685475	-5.476602E-005	0.0010599	10
	15	46	9515.62	7.516438	-0.6434302	1	7.543927	-4.892767	-7.896565E-005	0.0005008	10
	16	48	7546.875	7.544288	-0.8345858	1	7.59031	-6.31267	6.203468E-005	0.0007592	10
	17	50	5928.309	7.57677	-1.077681	1	7.653028	-8.09516	-0.0001077	0.0011875	10
	18	53	4733.456	7.611818	-1.352926	1	7.731118	-10.07851	-0.0001808	0.0010876	10
	19	55	3796.875	7.655456	-1.684022	1	7.838491	-12.40615	0.0001953	0.0001851	10
	20	57	2987.132	7.711029	-2.128004	1	7.999273	-15.42785	1.170825E-005	0.0009365	10
	21	60	2390.625	7.775936	-2.636878	1	8.210865	-18.73218	0.000123	0.0005375	10
	22	62	1884.191	7.861764	-3.305482	1	8.528397	-22.80434	-0.00014	0.001193	10
	23	64	1516.544	7.960929	-4.062604	1	8.937625	-27.03603	-8.256771E-005	0.0005565	10
	24	67	1193.986	8.10321	-5.089844	1	9.56915	-32.13403	2.592379E-005	0.0002606	10
	25	69	946.5144	8.276716	-6.332744	1	10.4215	-37.4206	0.0001827	0.0002471	10
	26	72	751.7689	8.506889	-7.840286	1	11.56881	-42.66489	-0.0001566	0.0011721	10
	27	74	597.4265	8.799302	-9.69814	1	13.0951	-47.78196	-0.0001317	0.0007736	10
	28	76	477.4305	9.156577	-11.9246	1	15.03459	-52.48031	-2.150178E-006	0.0006569	10
	29	78	376.6741	9.6521	-14.81285	1	17.68004	-56.91162	-1.909757E-006	0.00065	10
	30	81	298.2954	10.2812	-18.31245	1	21.00116	-60.68874	-2.131156E-006	0.000653	10
	31	83	237.7717	11.06129	-22.47438	1	25.04895	-63.79483	-2.257026E-006	0.0006471	10
	32	86	189.0121	12.06236	-27.61944	1	30.13858	-66.40745	-1.973404E-006	0.000651	10
	33	88	150.2404	13.32215	-33.89772	1	36.42163	-68.54466	-1.69E-006	0.0006447	10
	34	90	119.1737	14.90357	-41.59158	1	44.18117	-70.2858	1.63118E-006	5.370682E-005	9
	35	93	95.0169	16.86453	-50.81268	1	53.53822	-71.63919	1.549414E-006	5.275955E-005	9
	36	95	75.60484	19.34456	-62.1492	1	65.09021	-72.71073	1.540501E-006	4.737663E-005	9
	37	98	54.50582	24.06121	-82.82027	1	86.24464	-73.80019	1.462539E-006	4.763272E-005	9
	38	100	45.95588	27.2485	-96.1516	1	99.938	-74.17774	1.533624E-006	5.410326E-005	9
	39	103	37.20238	32.0592	-115.5452	1	119.9103	-74.49278	1.18092E-006	5.612848E-005	9
	40	105	30.04808	38.17072	-139.0054	1	144.151	-74.64512	8.177975E-007	5.886634E-005	9
	41	107	23.91582	46.45561	-169.0727	1	175.3388	-74.63615	6.205751E-007	5.741585E-005	9
	42	110	18.60119	58.21402	-209.3998	1	217.3411	-74.46384	1.262164E-006	-8.332054E-007	9
	43	112	15.02404	70.9214	-250.4436	1	260.2918	-74.18877	7.890247E-007	6.985584E-005	9
	44	114	12.01923	87.43092	-301.3828	1	313.8085	-73.82259	1.06689E-006	6.471269E-005	9
	45	117	9.450605	109.4652	-366.5208	1	382.5182	-73.3712	6.985733E-007	5.601176E-005	9
	46	119	7.512019	134.5983	-439.2113	1	459.3727	-72.96208	7.143262E-007	0.0006269	8
	47	122	5.978954	165.2724	-526.3192	1	551.6582	-72.5669	7.549287E-007	0.0006403	8
	48	125	4.734848	202.628	-632.9938	1	664.6346	-72.24959	7.382789E-007	0.0006443	8
	49	128	3.75601	245.7077	-759.6487	1	798.3975	-72.07625	7.712901E-007	0.0006245	8
	50	132	3.004808	294.38	-906.5958	1	953.192	-72.01091	8.242303E-007	0.0006606	8
	51	135	2.372217	356.2524	-1097.17	1	1153.559	-72.01133	8.010848E-007	0.0007112	8
	52	140	1.878005	428.7707	-1328.789	1	1396.254	-72.11626	7.237464E-007	0.0006093	8
	53	144	1.512097	513.7836	-1587.103	1	1668.193	-72.06198	7.706805E-007	0.0006571	8
	54	150	1.201923	632.386	-1931.286	1	2032.185	-71.86932	6.942042E-007	0.0005982	8
	55	156	0.956633	791.1512	-2341.647	1	2471.686	-71.33189	6.323929E-007	-9.904247E-006	8
