EXPLAIN
TAG	EISPOT
TITLE	LABEL	Potentiostatic EIS	Test Identifier
DATE	LABEL	9/11/2020	Date
TIME	LABEL	21:37:04	Time
NOTES	NOTES	1	Notes...
	
PSTAT	PSTAT	REF3000-16137	Potentiostat
VDC	POTEN	0.00000E+000	T	DC Voltage (V)
FREQINIT	QUANT	3.00000E+005	Initial Freq. (Hz)
FREQFINAL	QUANT	1.00000E+000	Final Freq. (Hz)
PTSPERDEC	QUANT	1.00000E+001	Points/decade
VAC	QUANT	5.00000E+001	AC Voltage (mV rms)
AREA	QUANT	1.00000E+000	Sample Area (cm^2)
SPEED	SELECTOR	2	Optimize for:
ZGUESS	QUANT	1.00000E+003	Estimated Z (ohms)
EOC	QUANT	0	Open Circuit (V)
SEQUENCER	TOGGLE	TRUE	Run as Sequence
PSTATMODEL	IQUANT	5	Pstat Model
PSTATSECTION	LABEL	REF3000-16137	Pstat Section
PSTATSERIALNO	LABEL	16137	Pstat Serial Number
CTRLMODE	IQUANT	1	Control Mode
IESTAB	IQUANT	0	I/E Stability
CASPEED	IQUANT	1	Control Amp Speed
CONVENTION	IQUANT	1	Current Convention
ICHRANGE	IQUANT	2	Ich Range
ICHRANGEMODE	TOGGLE	F	Ich Auto Range
ICHOFFSETENABLE	TOGGLE	T	Ich Offset Enable
ICHOFFSET	QUANT	0	Ich Offset (V)
ICHFILTER	IQUANT	3	Ich Filter
VCHRANGE	IQUANT	2	Vch Range
VCHRANGEMODE	TOGGLE	F	Vch Auto Range
VCHOFFSETENABLE	TOGGLE	T	Vch Offset Enable
VCHOFFSET	QUANT	0	Vch Offset (V)
VCHFILTER	IQUANT	3	Vch Filter
ACHRANGE	IQUANT	2	Ach Range
ACHOFFSETENABLE	TOGGLE	F	Ach Offset Enable
ACHOFFSET	QUANT	0	Ach Offset (V)
ACHFILTER	IQUANT	3	Ach Filter
IERANGELOWERLIMIT	IQUANT	2	I/E Range Lower Limit
IERANGEMODE	TOGGLE	F	I/E AutoRange
IERANGE	IQUANT	11	I/E Range
POSFEEDENABLE	TOGGLE	F	Positive Feedback IR Comp
POSFEEDRESISTANCE	QUANT	0	Positive Feedback Resistance (ohm)
ACHSELECT	IQUANT	0	Ach Select
CABLEID	IQUANT	13	Cable ID
DCCALDATE	LABEL	7/31/2020	DC Calibration Date
ACCALDATE	LABEL	7/31/2020	AC Calibration Date
THERMOSELECT	IQUANT	1	Thermo Select
FRAMEWORKVERSION	QUANT	6.33	Framework Version
INSTRUMENTVERSION	LABEL	3.50	Instrument Version
COMPLIANCEVOLTAGE	IQUANT	0	Compliance Voltage
ZCURVE	TABLE
	Pt	Time	Freq	Zreal	Zimag	Zsig	Zmod	Zphz	Idc	Vdc	IERange
	#	s	Hz	ohm	ohm	V	ohm	°	A	V	#
	0	9	300046.9	6.073143	2.313622	1	6.498917	20.85481	-0.0001268	-5.606882E-005	10
	1	12	238359.4	6.026883	1.820986	1	6.295976	16.81187	-0.0002682	4.129524E-005	10
	2	15	189328.1	6.015096	1.434742	1	6.183839	13.41572	-0.0003822	0.0006909	10
	3	18	150421.9	6.00151	1.130241	1	6.107009	10.66537	-0.0001599	0.0002266	10
	4	20	119484.4	6.009909	0.8720754	1	6.072851	8.256351	-0.0003856	0.0018935	10
	5	23	94921.88	6.018956	0.6899779	1	6.058374	6.539508	-0.0001795	0.0008319	10
	6	25	75421.88	6.022158	0.5113946	1	6.043833	4.853845	5.496456E-005	0.00015	10
	7	28	59859.37	6.027408	0.3584164	1	6.038055	3.403054	0.0001397	0.0003366	10
	8	30	47578.12	6.0387	0.227675	1	6.04299	2.15918	-0.00017	0.0011033	10
	9	33	37828.12	6.050032	0.1119496	1	6.051068	1.060078	-0.000115	0.0011087	10
	10	35	30046.88	6.061903	0.0001829	1	6.061903	0.0017285	0.0001781	0.0003488	10
	11	38	23859.38	6.074286	-0.1046585	1	6.075188	-0.987095	-7.395598E-006	0.0003514	10
	12	40	18984.38	6.088662	-0.2132565	1	6.092396	-2.005975	-0.0001536	0.000867	10
	13	42	15046.87	6.10445	-0.3356449	1	6.113671	-3.147162	-3.25141E-006	0.0009661	10
	14	45	11953.13	6.119503	-0.4691024	1	6.137457	-4.383546	0.0001866	0.0001375	10
	15	47	9515.62	6.141199	-0.6253193	1	6.172953	-5.814027	-0.0001783	0.0009623	10
	16	49	7546.875	6.164707	-0.8128427	1	6.218065	-7.511361	-6.125685E-005	0.0010792	10
	17	52	5928.309	6.192435	-1.049996	1	6.280824	-9.62361	0.0001586	0.0004167	10
	18	54	4733.456	6.22901	-1.320927	1	6.367527	-11.9728	0.0001115	0.0006035	10
	19	56	3796.875	6.269145	-1.640748	1	6.480296	-14.66638	-0.0001844	0.0010122	10
	20	58	2987.132	6.320499	-2.07469	1	6.652297	-18.17231	-6.649159E-005	0.0010609	10
	21	61	2390.625	6.382416	-2.568541	1	6.879872	-21.92183	-5.158301E-006	0.0003588	10
	22	63	1884.191	6.467864	-3.22417	1	7.226932	-26.49583	-4.72088E-006	0.000352	10
	23	65	1516.544	6.565716	-3.953948	1	7.664355	-31.05682	0.0001115	0.0006042	10
	24	68	1193.986	6.70689	-4.952104	1	8.337008	-36.4407	5.398015E-005	0.0007819	10
	25	70	946.5144	6.888634	-6.141843	1	9.229058	-41.71991	-6.421922E-005	0.000523	10
	26	73	751.7689	7.108738	-7.607491	1	10.41192	-46.94109	0.0001785	0.0001404	10
	27	75	597.4265	7.400037	-9.403649	1	11.96617	-51.79964	0.0001891	0.0001818	10
	28	77	477.4305	7.769677	-11.54369	1	13.91491	-56.05682	-1.441895E-006	0.0006577	10
	29	79	376.6741	8.268367	-14.31966	1	16.53538	-59.99729	-1.960108E-006	0.0006534	10
	30	82	298.2954	8.898198	-17.6777	1	19.79088	-63.28127	-1.317824E-006	0.0006589	10
	31	84	237.7717	9.67559	-21.66611	1	23.72841	-65.93555	-1.473053E-006	0.0006536	10
	32	87	189.0121	10.66833	-26.59332	1	28.65341	-68.14102	-2.174942E-006	0.0006553	10
	33	89	150.2404	11.91323	-32.60165	1	34.71012	-69.92679	-1.926111E-006	0.000653	10
	34	91	119.1737	13.49462	-40.01377	1	42.22803	-71.36336	-2.333344E-006	0.000655	10
	35	94	95.0169	15.41988	-48.78726	1	51.16609	-72.46015	9.987401E-007	4.553301E-005	9
	36	96	75.60484	17.8896	-59.62896	1	62.25473	-73.29995	8.863403E-007	5.303319E-005	9
	37	99	54.50582	22.62627	-79.35013	1	82.51298	-74.08478	7.557572E-007	5.038674E-005	9
	38	101	45.95588	25.84503	-92.05756	1	95.6167	-74.31799	9.664046E-007	6.030642E-005	9
	39	104	37.20238	30.73524	-110.4891	1	114.6843	-74.45479	1.117057E-006	5.226153E-005	9
	40	106	30.04808	36.90787	-132.6494	1	137.6883	-74.45151	7.778262E-007	5.910715E-005	9
	41	108	23.91582	45.34349	-161.0661	1	167.327	-74.27697	1.07335E-006	5.025958E-005	9
	42	111	18.60119	57.1061	-198.71	1	206.7529	-73.96619	1.164126E-006	5.545489E-005	9
	43	113	15.02404	69.70724	-236.9409	1	246.982	-73.60629	1.072206E-006	6.416567E-005	9
	44	115	12.01923	85.9188	-284.1166	1	296.8237	-73.17432	8.169238E-007	5.359315E-005	9
	45	118	9.450605	107.2256	-344.6409	1	360.9358	-72.7179	8.739997E-007	6.174385E-005	9
	46	120	7.512019	131.013	-411.7307	1	432.0725	-72.34889	9.081455E-007	0.0006121	8
	47	123	5.978954	159.7983	-492.8398	1	518.0991	-72.03524	9.547626E-007	0.000626	8
	48	126	4.734848	194.344	-592.8407	1	623.8828	-71.84991	8.675543E-007	0.0006216	8
	49	129	3.75601	234.9431	-712.4941	1	750.2307	-71.75016	9.688803E-007	0.0006422	8
	50	133	3.004808	281.6235	-852.3252	1	897.647	-71.71552	8.944525E-007	0.000662	8
	51	136	2.372217	343.1641	-1033.931	1	1089.392	-71.63887	8.966416E-007	0.0006873	8
	52	141	1.878005	423.3168	-1254.416	1	1323.917	-71.35246	9.076899E-007	0.000605	8
	53	145	1.512097	521.157	-1502.136	1	1589.974	-70.8661	9.335349E-007	0.0007243	8
	54	151	1.201923	658.8515	-1820.301	1	1935.867	-70.10246	9.1535E-007	0.0006103	8
	55	157	0.956633	848.2901	-2194.996	1	2353.211	-68.87021	8.245877E-007	-1.29146E-005	8
