EXPLAIN
TAG	EISPOT
TITLE	LABEL	Potentiostatic EIS	Test Identifier
DATE	LABEL	9/11/2020	Date
TIME	LABEL	21:34:16	Time
NOTES	NOTES	1	Notes...
	
PSTAT	PSTAT	REF3000-16137	Potentiostat
VDC	POTEN	0.00000E+000	T	DC Voltage (V)
FREQINIT	QUANT	3.00000E+005	Initial Freq. (Hz)
FREQFINAL	QUANT	1.00000E+000	Final Freq. (Hz)
PTSPERDEC	QUANT	1.00000E+001	Points/decade
VAC	QUANT	5.00000E+001	AC Voltage (mV rms)
AREA	QUANT	1.00000E+000	Sample Area (cm^2)
SPEED	SELECTOR	2	Optimize for:
ZGUESS	QUANT	1.00000E+003	Estimated Z (ohms)
EOC	QUANT	0	Open Circuit (V)
SEQUENCER	TOGGLE	TRUE	Run as Sequence
PSTATMODEL	IQUANT	5	Pstat Model
PSTATSECTION	LABEL	REF3000-16137	Pstat Section
PSTATSERIALNO	LABEL	16137	Pstat Serial Number
CTRLMODE	IQUANT	1	Control Mode
IESTAB	IQUANT	0	I/E Stability
CASPEED	IQUANT	1	Control Amp Speed
CONVENTION	IQUANT	1	Current Convention
ICHRANGE	IQUANT	2	Ich Range
ICHRANGEMODE	TOGGLE	F	Ich Auto Range
ICHOFFSETENABLE	TOGGLE	T	Ich Offset Enable
ICHOFFSET	QUANT	0	Ich Offset (V)
ICHFILTER	IQUANT	3	Ich Filter
VCHRANGE	IQUANT	2	Vch Range
VCHRANGEMODE	TOGGLE	F	Vch Auto Range
VCHOFFSETENABLE	TOGGLE	T	Vch Offset Enable
VCHOFFSET	QUANT	0	Vch Offset (V)
VCHFILTER	IQUANT	3	Vch Filter
ACHRANGE	IQUANT	2	Ach Range
ACHOFFSETENABLE	TOGGLE	F	Ach Offset Enable
ACHOFFSET	QUANT	0	Ach Offset (V)
ACHFILTER	IQUANT	3	Ach Filter
IERANGELOWERLIMIT	IQUANT	2	I/E Range Lower Limit
IERANGEMODE	TOGGLE	F	I/E AutoRange
IERANGE	IQUANT	11	I/E Range
POSFEEDENABLE	TOGGLE	F	Positive Feedback IR Comp
POSFEEDRESISTANCE	QUANT	0	Positive Feedback Resistance (ohm)
ACHSELECT	IQUANT	0	Ach Select
CABLEID	IQUANT	13	Cable ID
DCCALDATE	LABEL	7/31/2020	DC Calibration Date
ACCALDATE	LABEL	7/31/2020	AC Calibration Date
THERMOSELECT	IQUANT	1	Thermo Select
FRAMEWORKVERSION	QUANT	6.33	Framework Version
INSTRUMENTVERSION	LABEL	3.50	Instrument Version
COMPLIANCEVOLTAGE	IQUANT	0	Compliance Voltage
ZCURVE	TABLE
	Pt	Time	Freq	Zreal	Zimag	Zsig	Zmod	Zphz	Idc	Vdc	IERange
	#	s	Hz	ohm	ohm	V	ohm	°	A	V	#
	0	10	300046.9	5.538647	2.321851	1	6.005631	22.74387	-0.0004258	0.0015274	10
	1	14	238359.4	5.515472	1.825984	1	5.809875	18.31794	-0.0003825	0.0012581	10
	2	17	189328.1	5.500596	1.439833	1	5.685919	14.6686	-0.0004527	0.0014724	10
	3	19	150421.9	5.487139	1.125803	1	5.60144	11.59453	-0.0004699	0.0017217	10
	4	22	119484.4	5.495116	0.8740177	1	5.56419	9.037395	0.0004748	-0.000787	10
	5	24	94921.88	5.502153	0.6902511	1	5.54528	7.150463	0.0001891	0.0001378	10
	6	27	75421.88	5.504131	0.5122658	1	5.527917	5.317163	-0.0001466	0.0007463	10
	7	29	59859.37	5.509184	0.3611344	1	5.521008	3.750449	-0.0001687	0.0009017	10
	8	32	47578.12	5.516095	0.2313005	1	5.520942	2.401116	-0.0001094	0.0006514	10
	9	34	37828.12	5.526863	0.1141457	1	5.528041	1.183156	0.0001093	0.0005836	10
	10	37	30046.88	5.53723	0.0057549	1	5.537232	0.0595485	-3.641206E-006	0.0003637	10
	11	39	23859.38	5.549437	-0.1004825	1	5.550346	-1.037329	-0.0001788	0.0010822	10
	12	42	18984.38	5.562687	-0.2083926	1	5.566589	-2.145445	-0.0001469	0.0011407	10
	13	44	15046.87	5.577286	-0.3282555	1	5.586938	-3.368302	-0.0001106	0.0011158	10
	14	46	11953.13	5.590894	-0.4617722	1	5.609931	-4.72155	-0.0001195	0.0010792	10
	15	49	9515.62	5.610729	-0.6160479	1	5.644448	-6.265874	-0.0001712	0.0009792	10
	16	51	7546.875	5.632552	-0.8014475	1	5.689285	-8.098171	-0.0001846	0.0009673	10
	17	53	5928.309	5.660385	-1.037446	1	5.754672	-10.386	0.0001073	0.0006024	10
	18	55	4733.456	5.692171	-1.302004	1	5.83918	-12.88396	-0.0001771	0.0009754	10
	19	58	3796.875	5.729666	-1.62075	1	5.954486	-15.79461	0.0001053	0.0005748	10
	20	60	2987.132	5.784227	-2.045885	1	6.135383	-19.47872	-0.0001119	0.0006934	10
	21	62	2390.625	5.845703	-2.535736	1	6.371985	-23.45013	-6.15264E-005	0.0010596	10
	22	65	1884.191	5.933872	-3.180719	1	6.732593	-28.19253	-0.0001529	0.001141	10
	23	67	1516.544	6.029109	-3.902709	1	7.182012	-32.91542	0.0001534	0.0004385	10
	24	69	1193.986	6.170891	-4.879915	1	7.86724	-38.3368	-0.0001131	0.0006987	10
	25	72	946.5144	6.349302	-6.059357	1	8.776642	-43.66145	-3.705362E-006	0.0009472	10
	26	74	751.7689	6.575085	-7.496781	1	9.97163	-48.74748	-3.148063E-006	0.0003793	10
	27	76	597.4265	6.865891	-9.258207	1	11.52627	-53.43935	0.0001739	0.0001701	10
	28	79	477.4305	7.237251	-11.36184	1	13.47105	-57.50373	-1.858515E-006	0.0006596	10
	29	81	376.6741	7.736992	-14.08439	1	16.06957	-61.21864	-1.836846E-006	0.0006529	10
	30	83	298.2954	8.365932	-17.37563	1	19.28474	-64.29034	-2.770832E-006	0.0006555	10
	31	86	237.7717	9.141233	-21.28335	1	23.1634	-66.7564	-2.647075E-006	0.0006576	10
	32	88	189.0121	10.12596	-26.10377	1	27.99896	-68.79813	-2.506043E-006	0.0006581	10
	33	90	150.2404	11.36659	-31.99477	1	33.95386	-70.44171	-1.594626E-006	0.0006508	10
	34	93	119.1737	12.94018	-39.25236	1	41.33033	-71.75435	-1.808974E-006	0.0006503	10
	35	95	95.0169	14.86329	-47.8443	1	50.09984	-72.74209	1.164237E-006	4.928323E-005	9
	36	98	75.60484	17.33425	-58.45256	1	60.96867	-73.48215	9.467911E-007	5.554841E-005	9
	37	100	54.50582	22.0979	-77.73519	1	80.81508	-74.13106	9.385576E-007	4.818902E-005	9
	38	103	45.95588	25.32754	-90.11108	1	93.60284	-74.30091	1.163968E-006	6.194698E-005	9
	39	105	37.20238	30.2442	-108.0589	1	112.2115	-74.36379	1.211778E-006	4.835517E-005	9
	40	107	30.04808	36.50669	-129.6774	1	134.7181	-74.27707	1.136133E-006	5.150979E-005	9
	41	110	23.91582	44.93358	-157.1898	1	163.486	-74.04712	8.67273E-007	5.461873E-005	9
	42	112	18.60119	56.66727	-193.5375	1	201.6629	-73.68011	8.88365E-007	6.115809E-005	9
	43	114	15.02404	69.24878	-230.5135	1	240.6904	-73.27916	1.279741E-006	5.911351E-005	9
	44	117	12.01923	85.19991	-276.0649	1	288.9132	-72.84859	1.352115E-006	5.639241E-005	9
	45	119	9.450605	105.9384	-334.3332	1	350.7159	-72.41843	1.284513E-006	4.272086E-005	9
	46	122	7.512019	129.3401	-398.949	1	419.3915	-72.03719	1.151948E-006	0.0005875	8
	47	124	5.978954	157.1266	-477.5454	1	502.731	-71.78726	1.091116E-006	0.0005743	8
	48	127	4.734848	190.7663	-574.3131	1	605.1672	-71.62536	1.108707E-006	0.0006672	8
	49	131	3.75601	230.8715	-691.0792	1	728.6234	-71.52687	1.007238E-006	0.0006211	8
	50	134	3.004808	277.8647	-828.0111	1	873.3906	-71.44923	1.068911E-006	0.0006212	8
	51	138	2.372217	341.4271	-1004.232	1	1060.686	-71.22257	1.068474E-006	0.0006192	8
	52	142	1.878005	426.9664	-1220.091	1	1292.642	-70.71269	1.014692E-006	0.0006391	8
	53	147	1.512097	530.4397	-1460.657	1	1553.99	-70.04144	1.042642E-006	0.0005261	8
	54	152	1.201923	682.8599	-1762.944	1	1890.574	-68.82658	1.010511E-006	0.0006432	8
	55	158	0.956633	889.1583	-2113.351	1	2292.783	-67.18186	9.439902E-007	-7.851122E-006	8
