EXPLAIN
TAG	EISPOT
TITLE	LABEL	Potentiostatic EIS	Test Identifier
DATE	LABEL	9/11/2020	Date
TIME	LABEL	21:59:10	Time
NOTES	NOTES	1	Notes...
	
PSTAT	PSTAT	REF3000-16137	Potentiostat
VDC	POTEN	0.00000E+000	T	DC Voltage (V)
FREQINIT	QUANT	3.00000E+005	Initial Freq. (Hz)
FREQFINAL	QUANT	1.00000E+000	Final Freq. (Hz)
PTSPERDEC	QUANT	1.00000E+001	Points/decade
VAC	QUANT	5.00000E+001	AC Voltage (mV rms)
AREA	QUANT	1.00000E+000	Sample Area (cm^2)
SPEED	SELECTOR	2	Optimize for:
ZGUESS	QUANT	1.00000E+003	Estimated Z (ohms)
EOC	QUANT	0	Open Circuit (V)
SEQUENCER	TOGGLE	TRUE	Run as Sequence
PSTATMODEL	IQUANT	5	Pstat Model
PSTATSECTION	LABEL	REF3000-16137	Pstat Section
PSTATSERIALNO	LABEL	16137	Pstat Serial Number
CTRLMODE	IQUANT	1	Control Mode
IESTAB	IQUANT	0	I/E Stability
CASPEED	IQUANT	1	Control Amp Speed
CONVENTION	IQUANT	1	Current Convention
ICHRANGE	IQUANT	2	Ich Range
ICHRANGEMODE	TOGGLE	F	Ich Auto Range
ICHOFFSETENABLE	TOGGLE	T	Ich Offset Enable
ICHOFFSET	QUANT	0	Ich Offset (V)
ICHFILTER	IQUANT	3	Ich Filter
VCHRANGE	IQUANT	2	Vch Range
VCHRANGEMODE	TOGGLE	F	Vch Auto Range
VCHOFFSETENABLE	TOGGLE	T	Vch Offset Enable
VCHOFFSET	QUANT	0	Vch Offset (V)
VCHFILTER	IQUANT	3	Vch Filter
ACHRANGE	IQUANT	2	Ach Range
ACHOFFSETENABLE	TOGGLE	F	Ach Offset Enable
ACHOFFSET	QUANT	0	Ach Offset (V)
ACHFILTER	IQUANT	3	Ach Filter
IERANGELOWERLIMIT	IQUANT	2	I/E Range Lower Limit
IERANGEMODE	TOGGLE	F	I/E AutoRange
IERANGE	IQUANT	11	I/E Range
POSFEEDENABLE	TOGGLE	F	Positive Feedback IR Comp
POSFEEDRESISTANCE	QUANT	0	Positive Feedback Resistance (ohm)
ACHSELECT	IQUANT	0	Ach Select
CABLEID	IQUANT	13	Cable ID
DCCALDATE	LABEL	7/31/2020	DC Calibration Date
ACCALDATE	LABEL	7/31/2020	AC Calibration Date
THERMOSELECT	IQUANT	1	Thermo Select
FRAMEWORKVERSION	QUANT	6.33	Framework Version
INSTRUMENTVERSION	LABEL	3.50	Instrument Version
COMPLIANCEVOLTAGE	IQUANT	0	Compliance Voltage
ZCURVE	TABLE
	Pt	Time	Freq	Zreal	Zimag	Zsig	Zmod	Zphz	Idc	Vdc	IERange
	#	s	Hz	ohm	ohm	V	ohm	°	A	V	#
	0	8	300046.9	16.4166	2.059054	1	16.54522	7.148998	7.773253E-005	-2.897388E-005	10
	1	11	238359.4	16.44202	1.65269	1	16.52487	5.739879	6.825466E-005	0.0002368	10
	2	14	189328.1	16.47965	1.305949	1	16.53132	4.531003	-5.616605E-006	0.000298	10
	3	17	150421.9	16.50578	1.011332	1	16.53674	3.506207	6.831048E-005	0.0002142	10
	4	19	119484.4	16.54373	0.7897167	1	16.56257	2.732946	2.673648E-006	0.0006853	10
	5	22	94921.88	16.58155	0.6114416	1	16.59282	2.111815	-3.342187E-006	0.0005736	10
	6	24	75421.88	16.62379	0.4402486	1	16.62962	1.517012	-1.671415E-005	0.0006224	10
	7	27	59859.37	16.66892	0.2948524	1	16.67153	1.013385	6.986248E-006	0.0005707	10
	8	29	47578.12	16.715	0.1727558	1	16.71589	0.5921522	-1.628998E-005	0.0006423	10
	9	32	37828.12	16.7597	0.0587211	1	16.7598	0.2007471	-7.10324E-006	0.0006262	10
	10	34	30046.88	16.80828	-0.0487452	1	16.80835	-0.1661615	2.380675E-005	0.0006644	10
	11	37	23859.38	16.85693	-0.1577749	1	16.85767	-0.5362524	-4.598344E-006	0.0006306	10
	12	39	18984.38	16.90232	-0.2744335	1	16.90454	-0.9301981	2.013479E-005	0.0006156	10
	13	42	15046.87	16.95606	-0.4030816	1	16.96085	-1.361786	-2.531619E-005	0.0006416	10
	14	44	11953.13	17.00668	-0.5506823	1	17.01559	-1.85461	2.010354E-005	0.0006081	10
	15	46	9515.62	17.05772	-0.7204687	1	17.07293	-2.418571	-3.039936E-005	0.0006532	10
	16	48	7546.875	17.11586	-0.9287248	1	17.14104	-3.105884	-1.196338E-005	0.0006269	10
	17	51	5928.309	17.17838	-1.190344	1	17.21957	-3.963868	2.50133E-005	0.0006243	10
	18	53	4733.456	17.24522	-1.490325	1	17.3095	-4.939206	1.24698E-005	0.0005873	10
	19	55	3796.875	17.32079	-1.851122	1	17.41943	-6.10021	-2.744883E-005	0.0007008	10
	20	58	2987.132	17.40384	-2.334404	1	17.5597	-7.639574	-1.740902E-005	0.0006477	10
	21	60	2390.625	17.49653	-2.89144	1	17.73384	-9.383769	2.617104E-005	0.000641	10
	22	62	1884.191	17.61015	-3.629308	1	17.98025	-11.64515	-2.541385E-005	0.000669	10
	23	65	1516.544	17.73273	-4.464711	1	18.28615	-14.13209	-2.188053E-005	0.0006909	10
	24	67	1193.986	17.89399	-5.598135	1	18.74924	-17.37229	-2.531122E-005	0.0006682	10
	25	69	946.5144	18.08534	-6.974988	1	19.38375	-21.09017	-1.236722E-005	0.0006257	10
	26	72	751.7689	18.32239	-8.662864	1	20.26709	-25.30489	-2.485812E-005	0.0007186	10
	27	74	597.4265	18.61673	-10.75379	1	21.49945	-30.01251	2.392285E-005	0.0006365	10
	28	76	477.4305	18.98099	-13.25896	1	23.15335	-34.93579	-2.440188E-006	0.0006607	10
	29	79	376.6741	19.46782	-16.53661	1	25.54321	-40.34567	-1.841269E-006	0.0006529	10
	30	81	298.2954	20.08795	-20.53411	1	28.72587	-45.62927	-1.889167E-006	0.0006611	10
	31	83	237.7717	20.85905	-25.31557	1	32.8021	-50.51281	-1.839802E-006	0.000658	10
	32	86	189.0121	21.85579	-31.25531	1	38.13883	-55.03619	-1.948023E-006	0.0006614	10
	33	88	150.2404	23.10162	-38.49803	1	44.89747	-59.03318	1.297193E-006	5.922448E-005	9
	34	91	119.1737	24.74216	-47.5088	1	53.56548	-62.4899	1.390278E-006	5.71539E-005	9
	35	93	95.0169	26.7779	-58.27979	1	64.13728	-65.32256	1.309761E-006	5.433909E-005	9
	36	95	75.60484	29.37171	-71.54203	1	77.33666	-67.67931	1.277553E-006	5.5705E-005	9
	37	98	54.50582	34.25263	-95.7453	1	101.6878	-70.31546	1.277007E-006	5.150946E-005	9
	38	100	45.95588	37.52292	-111.3976	1	117.5474	-71.38453	1.251227E-006	6.33067E-005	9
	39	103	37.20238	42.39707	-134.2847	1	140.8187	-72.47778	1.290481E-006	5.531827E-005	9
	40	105	30.04808	48.45699	-162.1026	1	169.1903	-73.35713	1.324529E-006	5.133393E-005	9
	41	108	23.91582	56.51559	-198.0478	1	205.9538	-74.0732	1.376608E-006	5.77907E-005	9
	42	110	18.60119	67.86636	-246.8221	1	255.9824	-74.62585	1.060227E-006	6.467329E-005	9
	43	112	15.02404	80.22746	-297.3863	1	308.0179	-74.90243	1.412032E-006	7.123592E-005	9
	44	115	12.01923	96.4911	-360.9369	1	373.6121	-75.03283	1.622484E-006	6.083213E-005	9
	45	117	9.450605	118.2926	-442.2261	1	457.774	-75.02436	7.576726E-007	0.0006239	8
	46	119	7.512019	145.433	-537.6537	1	556.976	-74.86396	7.352625E-007	0.0006544	8
	47	122	5.978954	179.621	-651.9183	1	676.2109	-74.59569	6.470607E-007	0.000632	8
	48	125	4.734848	223.1617	-791.8135	1	822.6602	-74.26024	7.136542E-007	0.0006634	8
	49	128	3.75601	277.4464	-957.616	1	996.998	-73.84232	5.625886E-007	0.0006196	8
	50	132	3.004808	340.8408	-1146.625	1	1196.211	-73.44512	6.412851E-007	0.0006309	8
	51	136	2.372217	422.8525	-1383.481	1	1446.66	-73.00455	6.458608E-007	0.0006529	8
	52	140	1.878005	518.3722	-1669.054	1	1747.699	-72.74634	5.878606E-007	0.0006275	8
	53	144	1.512097	617.8951	-1981.23	1	2075.347	-72.67863	6.397499E-007	0.0005419	8
	54	150	1.201923	743.7383	-2379.962	1	2493.465	-72.64597	6.110844E-007	0.0006336	8
	55	156	0.956633	882.8068	-2859.145	1	2992.333	-72.84109	6.098181E-007	-4.761293E-006	8
