EXPLAIN
TAG	EISPOT
TITLE	LABEL	Potentiostatic EIS	Test Identifier
DATE	LABEL	9/11/2020	Date
TIME	LABEL	22:07:28	Time
NOTES	NOTES	1	Notes...
	
PSTAT	PSTAT	REF3000-16137	Potentiostat
VDC	POTEN	0.00000E+000	T	DC Voltage (V)
FREQINIT	QUANT	3.00000E+005	Initial Freq. (Hz)
FREQFINAL	QUANT	1.00000E+000	Final Freq. (Hz)
PTSPERDEC	QUANT	1.00000E+001	Points/decade
VAC	QUANT	5.00000E+001	AC Voltage (mV rms)
AREA	QUANT	1.00000E+000	Sample Area (cm^2)
SPEED	SELECTOR	2	Optimize for:
ZGUESS	QUANT	1.00000E+003	Estimated Z (ohms)
EOC	QUANT	0	Open Circuit (V)
SEQUENCER	TOGGLE	TRUE	Run as Sequence
PSTATMODEL	IQUANT	5	Pstat Model
PSTATSECTION	LABEL	REF3000-16137	Pstat Section
PSTATSERIALNO	LABEL	16137	Pstat Serial Number
CTRLMODE	IQUANT	1	Control Mode
IESTAB	IQUANT	0	I/E Stability
CASPEED	IQUANT	1	Control Amp Speed
CONVENTION	IQUANT	1	Current Convention
ICHRANGE	IQUANT	2	Ich Range
ICHRANGEMODE	TOGGLE	F	Ich Auto Range
ICHOFFSETENABLE	TOGGLE	T	Ich Offset Enable
ICHOFFSET	QUANT	0	Ich Offset (V)
ICHFILTER	IQUANT	3	Ich Filter
VCHRANGE	IQUANT	2	Vch Range
VCHRANGEMODE	TOGGLE	F	Vch Auto Range
VCHOFFSETENABLE	TOGGLE	T	Vch Offset Enable
VCHOFFSET	QUANT	0	Vch Offset (V)
VCHFILTER	IQUANT	3	Vch Filter
ACHRANGE	IQUANT	2	Ach Range
ACHOFFSETENABLE	TOGGLE	F	Ach Offset Enable
ACHOFFSET	QUANT	0	Ach Offset (V)
ACHFILTER	IQUANT	3	Ach Filter
IERANGELOWERLIMIT	IQUANT	2	I/E Range Lower Limit
IERANGEMODE	TOGGLE	F	I/E AutoRange
IERANGE	IQUANT	11	I/E Range
POSFEEDENABLE	TOGGLE	F	Positive Feedback IR Comp
POSFEEDRESISTANCE	QUANT	0	Positive Feedback Resistance (ohm)
ACHSELECT	IQUANT	0	Ach Select
CABLEID	IQUANT	13	Cable ID
DCCALDATE	LABEL	7/31/2020	DC Calibration Date
ACCALDATE	LABEL	7/31/2020	AC Calibration Date
THERMOSELECT	IQUANT	1	Thermo Select
FRAMEWORKVERSION	QUANT	6.33	Framework Version
INSTRUMENTVERSION	LABEL	3.50	Instrument Version
COMPLIANCEVOLTAGE	IQUANT	0	Compliance Voltage
ZCURVE	TABLE
	Pt	Time	Freq	Zreal	Zimag	Zsig	Zmod	Zphz	Idc	Vdc	IERange
	#	s	Hz	ohm	ohm	V	ohm	°	A	V	#
	0	7	300046.9	28.60456	1.389741	1	28.63831	2.781505	6.221588E-005	-0.0000968	11
	1	11	238359.4	28.76756	1.440952	1	28.80363	2.867519	-0.0001065	0.000432	10
	2	15	189328.1	28.86584	1.135008	1	28.88815	2.251717	-2.401755E-005	0.0004588	10
	3	17	150421.9	28.95223	0.8978106	1	28.96615	1.776177	-0.0001145	0.0005817	10
	4	20	119484.4	29.04226	0.6613878	1	29.04979	1.304588	-3.301338E-006	0.0004325	10
	5	22	94921.88	29.12675	0.5120844	1	29.13125	1.007227	2.441742E-005	0.000562	10
	6	25	75421.88	29.22276	0.3601399	1	29.22498	0.7060747	-1.051241E-005	0.0006028	10
	7	27	59859.37	29.3247	0.2294704	1	29.3256	0.4483393	2.287117E-005	0.0006479	10
	8	30	47578.12	29.42233	0.1154402	1	29.42256	0.224802	-1.134243E-005	0.0006012	10
	9	32	37828.12	29.52285	0.0054007	1	29.52285	0.0104813	2.400352E-005	0.0005855	10
	10	35	30046.88	29.62275	-0.0975671	1	29.62291	-0.1887117	-2.787296E-005	0.000633	10
	11	37	23859.38	29.71762	-0.2042012	1	29.71832	-0.3936952	8.282737E-006	0.0006809	10
	12	40	18984.38	29.81566	-0.3190643	1	29.81737	-0.613112	-2.820735E-005	0.0006426	10
	13	42	15046.87	29.91216	-0.4509663	1	29.91556	-0.8637459	2.380538E-005	0.0006062	10
	14	44	11953.13	30.00743	-0.598796	1	30.0134	-1.143181	2.628003E-005	0.0006202	10
	15	47	9515.62	30.11712	-0.7778303	1	30.12716	-1.479441	6.56445E-006	0.0006953	10
	16	49	7546.875	30.22403	-0.997348	1	30.24048	-1.889989	-1.773109E-005	0.000632	10
	17	51	5928.309	30.33965	-1.268174	1	30.36614	-2.393526	2.438691E-005	0.0006028	10
	18	53	4733.456	30.45832	-1.583242	1	30.49944	-2.975592	-2.546865E-005	0.0006609	10
	19	56	3796.875	30.57488	-1.961236	1	30.63772	-3.670228	-1.805028E-005	0.0006544	10
	20	58	2987.132	30.70965	-2.475613	1	30.80927	-4.60885	-2.685191E-005	0.0006921	10
	21	60	2390.625	30.85887	-3.058426	1	31.01006	-5.660106	-1.405217E-005	0.0007291	10
	22	63	1884.191	31.02244	-3.827219	1	31.25763	-7.033008	-2.821195E-005	0.0006765	10
	23	65	1516.544	31.18816	-4.721099	1	31.54346	-8.607784	2.412457E-005	0.0006072	10
	24	67	1193.986	31.39873	-5.918139	1	31.9516	-10.67408	1.41175E-005	0.0005764	10
	25	70	946.5144	31.63852	-7.385375	1	32.48907	-13.13927	-2.614759E-005	0.0007196	10
	26	72	751.7689	31.92077	-9.167325	1	33.21108	-16.02353	1.614238E-005	0.0006521	10
	27	74	597.4265	32.25276	-11.39649	1	34.20703	-19.46083	-1.464539E-005	0.0006922	10
	28	77	477.4305	32.64516	-14.07217	1	35.54902	-23.31915	-1.877378E-006	0.0006529	10
	29	79	376.6741	33.11808	-17.56023	1	37.48559	-27.93392	1.332429E-006	4.792475E-005	9
	30	81	298.2954	33.75115	-21.84751	1	40.20514	-32.91545	1.270449E-006	4.569373E-005	9
	31	84	237.7717	34.53388	-26.99471	1	43.83267	-38.01431	1.29173E-006	4.562218E-005	9
	32	86	189.0121	35.53401	-33.41	1	48.77391	-43.23541	1.264405E-006	5.028896E-005	9
	33	88	150.2404	36.80526	-41.30915	1	55.32697	-48.29989	1.294841E-006	4.731684E-005	9
	34	91	119.1737	38.44209	-51.1236	1	63.96418	-53.05888	1.312261E-006	5.297437E-005	9
	35	93	95.0169	40.48618	-62.90038	1	74.80367	-57.23241	1.301057E-006	4.846848E-005	9
	36	96	75.60484	43.10957	-77.44243	1	88.63275	-60.8968	1.322006E-006	4.639235E-005	9
	37	98	54.50582	48.08566	-104.0686	1	114.6407	-65.20036	1.26031E-006	4.11482E-005	9
	38	101	45.95588	51.46772	-121.3206	1	131.7863	-67.01194	1.31341E-006	5.103305E-005	9
	39	103	37.20238	56.49306	-146.5343	1	157.0471	-68.91696	1.250249E-006	5.763272E-005	9
	40	105	30.04808	62.77158	-177.2269	1	188.015	-70.49648	1.266264E-006	5.093683E-005	9
	41	108	23.91582	71.0751	-216.8922	1	228.2409	-71.85615	1.415511E-006	4.477525E-005	9
	42	110	18.60119	82.60889	-270.7311	1	283.054	-73.03134	8.219652E-007	0.0001017	9
	43	112	15.02404	94.96154	-326.8857	1	340.3997	-73.80122	1.248647E-006	3.97911E-005	9
	44	115	12.01923	111.0189	-397.4793	1	412.6924	-74.39456	1.439177E-006	4.114512E-005	9
	45	117	9.450605	132.4365	-488.5174	1	506.1508	-74.83176	6.080848E-007	0.000631	8
	46	120	7.512019	158.8019	-596.6616	1	617.4326	-75.09619	5.551921E-007	0.0006427	8
	47	122	5.978954	192.4549	-727.0618	1	752.1022	-75.17371	4.319027E-007	0.0006262	8
	48	125	4.734848	236.0655	-889.5114	1	920.3029	-75.13701	5.748313E-007	0.0006459	8
	49	129	3.75601	291.2312	-1083.034	1	1121.507	-74.94901	4.417595E-007	0.0006139	8
	50	132	3.004808	358.4382	-1306.632	1	1354.905	-74.65987	5.41797E-007	0.0006102	8
	51	136	2.372217	447.1809	-1589.347	1	1651.059	-74.28545	5.233851E-007	0.000606	8
	52	140	1.878005	559.7432	-1927.505	1	2007.134	-73.80682	4.978011E-007	0.0006316	8
	53	145	1.512097	683.7353	-2298	1	2397.561	-73.43042	5.160011E-007	0.0005132	8
	54	150	1.201923	840.2443	-2764.584	1	2889.453	-73.09432	5.0797E-007	0.0006479	8
	55	156	0.956633	1020.513	-3316.459	1	3469.921	-72.89626	4.976034E-007	-1.223304E-005	8
