EXPLAIN
TAG	EISPOT
TITLE	LABEL	Potentiostatic EIS	Test Identifier
DATE	LABEL	9/11/2020	Date
TIME	LABEL	22:44:02	Time
NOTES	NOTES	1	Notes...
	
PSTAT	PSTAT	REF3000-16137	Potentiostat
VDC	POTEN	0.00000E+000	T	DC Voltage (V)
FREQINIT	QUANT	3.00000E+005	Initial Freq. (Hz)
FREQFINAL	QUANT	1.00000E+000	Final Freq. (Hz)
PTSPERDEC	QUANT	1.00000E+001	Points/decade
VAC	QUANT	5.00000E+001	AC Voltage (mV rms)
AREA	QUANT	1.00000E+000	Sample Area (cm^2)
SPEED	SELECTOR	2	Optimize for:
ZGUESS	QUANT	1.00000E+003	Estimated Z (ohms)
EOC	QUANT	0	Open Circuit (V)
SEQUENCER	TOGGLE	TRUE	Run as Sequence
PSTATMODEL	IQUANT	5	Pstat Model
PSTATSECTION	LABEL	REF3000-16137	Pstat Section
PSTATSERIALNO	LABEL	16137	Pstat Serial Number
CTRLMODE	IQUANT	1	Control Mode
IESTAB	IQUANT	0	I/E Stability
CASPEED	IQUANT	1	Control Amp Speed
CONVENTION	IQUANT	1	Current Convention
ICHRANGE	IQUANT	2	Ich Range
ICHRANGEMODE	TOGGLE	F	Ich Auto Range
ICHOFFSETENABLE	TOGGLE	T	Ich Offset Enable
ICHOFFSET	QUANT	0	Ich Offset (V)
ICHFILTER	IQUANT	3	Ich Filter
VCHRANGE	IQUANT	2	Vch Range
VCHRANGEMODE	TOGGLE	F	Vch Auto Range
VCHOFFSETENABLE	TOGGLE	T	Vch Offset Enable
VCHOFFSET	QUANT	0	Vch Offset (V)
VCHFILTER	IQUANT	3	Vch Filter
ACHRANGE	IQUANT	2	Ach Range
ACHOFFSETENABLE	TOGGLE	F	Ach Offset Enable
ACHOFFSET	QUANT	0	Ach Offset (V)
ACHFILTER	IQUANT	3	Ach Filter
IERANGELOWERLIMIT	IQUANT	2	I/E Range Lower Limit
IERANGEMODE	TOGGLE	F	I/E AutoRange
IERANGE	IQUANT	11	I/E Range
POSFEEDENABLE	TOGGLE	F	Positive Feedback IR Comp
POSFEEDRESISTANCE	QUANT	0	Positive Feedback Resistance (ohm)
ACHSELECT	IQUANT	0	Ach Select
CABLEID	IQUANT	13	Cable ID
DCCALDATE	LABEL	7/31/2020	DC Calibration Date
ACCALDATE	LABEL	7/31/2020	AC Calibration Date
THERMOSELECT	IQUANT	1	Thermo Select
FRAMEWORKVERSION	QUANT	6.33	Framework Version
INSTRUMENTVERSION	LABEL	3.50	Instrument Version
COMPLIANCEVOLTAGE	IQUANT	0	Compliance Voltage
ZCURVE	TABLE
	Pt	Time	Freq	Zreal	Zimag	Zsig	Zmod	Zphz	Idc	Vdc	IERange
	#	s	Hz	ohm	ohm	V	ohm	°	A	V	#
	0	15	300046.9	1832.291	-1354.542	1	2278.613	-36.47408	2.046515E-005	-0.0022987	9
	1	31	238359.4	2122.39	-1311.835	1	2495.085	-31.71994	-1.538945E-005	0.0016134	9
	2	44	189328.1	2403.659	-1302.401	1	2733.83	-28.45065	-1.297201E-005	0.0016492	9
	3	51	150421.9	2682.543	-1162.177	1	2923.472	-23.42405	-1.916154E-005	0.0016265	9
	4	60	119484.4	2907.206	-1068.031	1	3097.182	-20.172	1.973423E-005	-0.0008056	9
	5	68	94921.88	3099.134	-945.8033	1	3240.243	-16.97131	-2.002568E-005	0.0011378	9
	6	75	75421.88	3291.185	-759.895	1	3377.771	-13.00108	1.399901E-005	-0.0081832	8
	7	82	59859.37	3455.952	-662.2581	1	3518.833	-10.84798	-1.00288E-005	0.009146	8
	8	90	47578.12	3590.662	-560.8458	1	3634.198	-8.87762	1.649107E-005	-1.442724E-005	8
	9	97	37828.12	3735.158	-491.2447	1	3767.323	-7.492488	-2.209098E-005	0.0100618	8
	10	105	30046.88	3839.425	-419.5068	1	3862.275	-6.235569	2.429488E-005	-0.0050333	8
	11	111	23859.38	3941.448	-334.3786	1	3955.606	-4.849163	-1.732893E-005	0.0102405	8
	12	117	18984.38	4031.115	-294.5841	1	4041.865	-4.179606	-1.555728E-005	0.0010089	8
	13	122	15046.87	4116.188	-237.072	1	4123.009	-3.296311	1.670281E-005	-3.75825E-005	8
	14	127	11953.13	4201.916	-198.6345	1	4206.608	-2.706492	1.422899E-005	-0.008394	8
	15	132	9515.62	4288.464	-167.6161	1	4291.739	-2.238286	2.445147E-005	-0.0084164	8
	16	138	7546.875	4378.547	-129.9232	1	4380.474	-1.699621	-2.432103E-005	0.0072372	8
	17	143	5928.309	4431.37	-138.4688	1	4433.533	-1.789762	1.682752E-005	3.19736E-007	8
	18	148	4733.456	4574.317	-99.4944	1	4575.399	-1.246024	-2.470758E-005	0.0091515	8
	19	154	3796.875	4629.994	-84.08537	1	4630.757	-1.040435	-2.453322E-005	0.0073242	8
	20	159	2987.132	4723.156	-98.4744	1	4724.182	-1.194403	-1.777429E-005	0.0104956	8
	21	165	2390.625	4844.431	-37.22306	1	4844.574	-0.4402338	2.470506E-005	-0.0050223	8
	22	170	1884.191	4865.743	3.298856	1	4865.744	0.0388452	-1.251362E-006	0.007043	8
	23	175	1516.544	4992.703	-12.4651	1	4992.719	-0.143048	-3.699062E-006	0.0220631	7
	24	179	1193.986	5079.01	-34.66072	1	5079.128	-0.3909979	6.207114E-006	-0.0135933	7
	25	183	946.5144	5137.677	-71.659	1	5138.176	-0.799095	5.264428E-006	-0.0065382	7
	26	185	751.7689	5125.744	-73.78745	1	5126.275	-0.8247421	-1.055214E-005	0.009522	8
	27	189	597.4265	5283.283	-16.76518	1	5283.309	-0.1818132	-1.080315E-005	0.0095715	8
	28	193	477.4305	5301.641	-38.41681	1	5301.78	-0.4151701	-3.588741E-007	0.0006144	8
	29	195	376.6741	5362.104	-34.39608	1	5362.214	-0.3675279	-1.02499E-007	0.0006626	7
	30	198	298.2954	5408.43	-40.20149	1	5408.579	-0.4258784	-1.013133E-007	0.000621	7
	31	200	237.7717	5455.029	-47.66814	1	5455.237	-0.5006598	-9.736074E-008	0.0006142	7
	32	203	189.0121	5504.879	-57.64292	1	5505.181	-0.599936	-9.59677E-008	0.0005969	7
	33	205	150.2404	5553.958	-69.90974	1	5554.398	-0.7211652	-8.53817E-008	0.0005641	7
	34	207	119.1737	5601.651	-85.63592	1	5602.306	-0.8758479	-1.211805E-007	0.0006194	7
	35	210	95.0169	5656.626	-104.1504	1	5657.584	-1.054817	-7.232299E-008	0.0006357	7
	36	212	75.60484	5710.607	-128.188	1	5712.045	-1.285923	-6.373896E-008	0.0005724	7
	37	215	54.50582	5767.667	-172.284	1	5770.239	-1.710954	-8.931023E-008	0.0006267	7
	38	217	45.95588	5824.792	-201.4903	1	5828.276	-1.981177	-1.324603E-007	0.000626	7
	39	220	37.20238	5875.076	-247.3332	1	5880.28	-2.410655	-1.587737E-007	0.0006231	7
	40	222	30.04808	5933.406	-297.801	1	5940.875	-2.873296	-4.885955E-008	0.0006111	7
	41	224	23.91582	5989.54	-367.6053	1	6000.81	-3.512097	1.865788E-008	0.0006387	7
	42	227	18.60119	6052.921	-479.4073	1	6071.877	-4.528522	-2.578556E-007	0.0005709	7
	43	229	15.02404	6126.406	-575.7809	1	6153.403	-5.369085	7.254996E-008	0.0005969	7
	44	231	12.01923	6192.878	-686.1428	1	6230.773	-6.322327	-2.531705E-007	0.0005453	7
	45	234	9.450605	6256.939	-866.3666	1	6316.635	-7.88333	-1.728387E-007	0.0006182	7
	46	236	7.512019	6317.734	-1105.322	1	6413.697	-9.92376	-2.49098E-007	0.0006082	7
	47	239	5.978954	6435.129	-1354.02	1	6576.037	-11.88231	-1.050385E-007	0.0005871	7
	48	242	4.734848	6547.553	-1695.928	1	6763.625	-14.52145	-1.541509E-007	0.0006113	7
	49	245	3.75601	6679.585	-2100.184	1	7001.974	-17.4541	-2.933821E-008	0.0005994	7
	50	249	3.004808	6819.602	-2572.242	1	7288.58	-20.66565	-8.695265E-008	0.0005868	7
	51	252	2.372217	7013.845	-3203.181	1	7710.667	-24.54589	-5.470589E-008	0.0006349	7
	52	257	1.878005	7222.686	-3980.904	1	8247.107	-28.86209	-7.417984E-008	0.0005695	7
	53	261	1.512097	7475.551	-4862.754	1	8917.973	-33.04351	-7.66105E-008	0.0006937	7
	54	267	1.201923	7795.063	-6035.246	1	9858.36	-37.74845	-7.857778E-008	0.0005654	7
	55	273	0.956633	8181.649	-7460.792	1	11072.62	-42.36148	-9.662501E-008	-4.32713E-005	7
