EXPLAIN
TAG	EISPOT
TITLE	LABEL	Potentiostatic EIS	Test Identifier
DATE	LABEL	9/11/2020	Date
TIME	LABEL	21:50:53	Time
NOTES	NOTES	1	Notes...
	
PSTAT	PSTAT	REF3000-16137	Potentiostat
VDC	POTEN	0.00000E+000	T	DC Voltage (V)
FREQINIT	QUANT	3.00000E+005	Initial Freq. (Hz)
FREQFINAL	QUANT	1.00000E+000	Final Freq. (Hz)
PTSPERDEC	QUANT	1.00000E+001	Points/decade
VAC	QUANT	5.00000E+001	AC Voltage (mV rms)
AREA	QUANT	1.00000E+000	Sample Area (cm^2)
SPEED	SELECTOR	2	Optimize for:
ZGUESS	QUANT	1.00000E+003	Estimated Z (ohms)
EOC	QUANT	0	Open Circuit (V)
SEQUENCER	TOGGLE	TRUE	Run as Sequence
PSTATMODEL	IQUANT	5	Pstat Model
PSTATSECTION	LABEL	REF3000-16137	Pstat Section
PSTATSERIALNO	LABEL	16137	Pstat Serial Number
CTRLMODE	IQUANT	1	Control Mode
IESTAB	IQUANT	0	I/E Stability
CASPEED	IQUANT	1	Control Amp Speed
CONVENTION	IQUANT	1	Current Convention
ICHRANGE	IQUANT	2	Ich Range
ICHRANGEMODE	TOGGLE	F	Ich Auto Range
ICHOFFSETENABLE	TOGGLE	T	Ich Offset Enable
ICHOFFSET	QUANT	0	Ich Offset (V)
ICHFILTER	IQUANT	3	Ich Filter
VCHRANGE	IQUANT	2	Vch Range
VCHRANGEMODE	TOGGLE	F	Vch Auto Range
VCHOFFSETENABLE	TOGGLE	T	Vch Offset Enable
VCHOFFSET	QUANT	0	Vch Offset (V)
VCHFILTER	IQUANT	3	Vch Filter
ACHRANGE	IQUANT	2	Ach Range
ACHOFFSETENABLE	TOGGLE	F	Ach Offset Enable
ACHOFFSET	QUANT	0	Ach Offset (V)
ACHFILTER	IQUANT	3	Ach Filter
IERANGELOWERLIMIT	IQUANT	2	I/E Range Lower Limit
IERANGEMODE	TOGGLE	F	I/E AutoRange
IERANGE	IQUANT	11	I/E Range
POSFEEDENABLE	TOGGLE	F	Positive Feedback IR Comp
POSFEEDRESISTANCE	QUANT	0	Positive Feedback Resistance (ohm)
ACHSELECT	IQUANT	0	Ach Select
CABLEID	IQUANT	13	Cable ID
DCCALDATE	LABEL	7/31/2020	DC Calibration Date
ACCALDATE	LABEL	7/31/2020	AC Calibration Date
THERMOSELECT	IQUANT	1	Thermo Select
FRAMEWORKVERSION	QUANT	6.33	Framework Version
INSTRUMENTVERSION	LABEL	3.50	Instrument Version
COMPLIANCEVOLTAGE	IQUANT	0	Compliance Voltage
ZCURVE	TABLE
	Pt	Time	Freq	Zreal	Zimag	Zsig	Zmod	Zphz	Idc	Vdc	IERange
	#	s	Hz	ohm	ohm	V	ohm	°	A	V	#
	0	8	300046.9	10.49623	2.171768	1	10.71856	11.69007	2.732131E-005	0.0002483	10
	1	11	238359.4	10.51283	1.734407	1	10.65494	9.368274	-9.45848E-005	0.0001869	10
	2	14	189328.1	10.51703	1.372931	1	10.60627	7.43754	-8.490691E-005	0.0004471	10
	3	17	150421.9	10.5306	1.080014	1	10.58583	5.85576	-4.838574E-006	0.0005685	10
	4	19	119484.4	10.5382	0.8308727	1	10.5709	4.508097	-2.902202E-005	0.0004913	10
	5	22	94921.88	10.55391	0.6557305	1	10.57426	3.555305	1.943527E-005	0.0006048	10
	6	24	75421.88	10.57058	0.4780044	1	10.58138	2.589166	-1.595751E-005	0.0005888	10
	7	27	59859.37	10.59319	0.3246797	1	10.59816	1.755558	1.932241E-005	0.0005512	10
	8	29	47578.12	10.62007	0.1975635	1	10.62191	1.065742	-2.353388E-005	0.0006638	10
	9	32	37828.12	10.64391	0.0827881	1	10.64423	0.4456364	2.313888E-005	0.0005985	10
	10	34	30046.88	10.67087	-0.0247721	1	10.6709	-0.13301	-2.556226E-005	0.0006729	10
	11	37	23859.38	10.69738	-0.1334593	1	10.69822	-0.7147782	-1.001978E-005	0.0006974	10
	12	39	18984.38	10.72214	-0.2463525	1	10.72497	-1.3162	2.191668E-005	0.0006071	10
	13	41	15046.87	10.75029	-0.3719274	1	10.75672	-1.981471	2.220025E-005	0.0006092	10
	14	44	11953.13	10.78313	-0.5130572	1	10.79533	-2.724056	-2.232349E-005	0.0007092	10
	15	46	9515.62	10.81526	-0.678275	1	10.83651	-3.588583	2.065921E-006	0.0005999	10
	16	48	7546.875	10.85239	-0.8789297	1	10.88792	-4.630252	-1.273524E-005	0.0006245	10
	17	51	5928.309	10.89398	-1.129105	1	10.95234	-5.917284	-2.134312E-005	0.0006834	10
	18	53	4733.456	10.93908	-1.416683	1	11.03043	-7.379112	-1.084085E-005	0.0006333	10
	19	55	3796.875	10.99176	-1.761287	1	11.13198	-9.103516	-7.256771E-006	0.0006342	10
	20	58	2987.132	11.06487	-2.224165	1	11.28619	-11.36564	-4.00156E-006	0.000664	10
	21	61	2390.625	11.13882	-2.756253	1	11.47477	-13.89842	-3.146496E-005	0.0006509	10
	22	63	1884.191	11.23305	-3.456894	1	11.75293	-17.10539	1.530858E-005	0.0006479	10
	23	65	1516.544	11.33873	-4.248306	1	12.10847	-20.53957	-3.757833E-006	0.0006105	10
	24	68	1193.986	11.48297	-5.328411	1	12.65901	-24.89259	1.581903E-005	0.0006453	10
	25	70	946.5144	11.66192	-6.633826	1	13.41671	-29.63317	-2.940419E-005	0.0006469	10
	26	73	751.7689	11.8879	-8.224174	1	14.45542	-34.6759	1.236709E-005	0.0005905	10
	27	75	597.4265	12.17327	-10.19156	1	15.87629	-39.93634	4.792271E-006	0.0006002	10
	28	77	477.4305	12.53415	-12.55144	1	17.73819	-45.0395	-1.855952E-006	0.0006588	10
	29	79	376.6741	13.02255	-15.62331	1	20.33899	-50.18766	-1.987915E-006	0.000653	10
	30	82	298.2954	13.64534	-19.35729	1	23.68333	-54.81922	-2.555618E-006	0.0006556	10
	31	84	237.7717	14.42366	-23.81375	1	27.84127	-58.79728	-1.966802E-006	0.0006521	10
	32	87	189.0121	15.42693	-29.32821	1	33.1381	-62.25518	-1.517669E-006	0.0006522	10
	33	89	150.2404	16.70314	-36.07315	1	39.75258	-65.1542	-2.263847E-006	0.0006501	10
	34	91	119.1737	18.30998	-44.34628	1	47.97758	-67.56493	1.448476E-006	5.686103E-005	9
	35	94	95.0169	20.31237	-54.26902	1	57.94582	-69.47961	1.430285E-006	5.120268E-005	9
	36	96	75.60484	22.84243	-66.46851	1	70.28399	-71.03431	1.448947E-006	4.651731E-005	9
	37	99	54.50582	27.60592	-88.73085	1	92.92605	-72.71805	1.348681E-006	4.832609E-005	9
	38	101	45.95588	30.78892	-103.1183	1	107.6167	-73.3755	1.546828E-006	5.283E-005	9
	39	104	37.20238	35.5689	-124.1386	1	129.1338	-74.01163	1.48939E-006	5.57677E-005	9
	40	106	30.04808	41.61328	-149.6691	1	155.3464	-74.4622	1.488903E-006	5.361914E-005	9
	41	108	23.91582	49.6946	-182.4986	1	189.1436	-74.7676	1.215371E-006	4.636901E-005	9
	42	111	18.60119	61.26347	-226.8571	1	234.9837	-74.88759	1.737127E-006	4.506431E-005	9
	43	113	15.02404	73.87303	-272.5136	1	282.3489	-74.83276	1.630884E-006	6.061121E-005	9
	44	115	12.01923	90.39297	-329.5674	1	341.7391	-74.66224	1.61238E-006	5.634015E-005	9
	45	118	9.450605	112.9922	-403.194	1	418.7274	-74.34485	1.606186E-006	4.212504E-005	9
	46	120	7.512019	139.7503	-485.7159	1	505.4207	-73.9484	8.252741E-007	0.0006343	8
	47	123	5.978954	172.6136	-584.8577	1	609.7983	-73.55669	8.093332E-007	0.0006292	8
	48	126	4.734848	214.2607	-705.634	1	737.4463	-73.10946	7.903583E-007	0.0006528	8
	49	129	3.75601	263.3981	-848.6426	1	888.5791	-72.75692	7.325686E-007	0.0006267	8
	50	133	3.004808	318.8986	-1011.655	1	1060.728	-72.50387	7.447997E-007	0.0006577	8
	51	136	2.372217	388.8748	-1219.342	1	1279.851	-72.31138	7.698407E-007	0.0006969	8
	52	141	1.878005	465.7819	-1469.93	1	1541.962	-72.41797	7.157009E-007	0.0006043	8
	53	145	1.512097	548.7015	-1746.951	1	1831.096	-72.56297	7.81139E-007	0.0006296	8
	54	151	1.201923	655.9422	-2116.74	1	2216.044	-72.78267	7.254241E-007	0.0005974	8
	55	157	0.956633	787.3535	-2562.207	1	2680.453	-72.91807	7.079497E-007	-1.133873E-005	8
