May 12, 2026   13:46:27
A.C. Impedance
File: e:\chi_data\r0.35-n0.95-1_t14.2_f0.1_1000000_v0.txt
Data Source:  Experiment
Instrument Model:  CHI660E
Header: 
Note: 

Init E (V) = 0
High Frequency (Hz) = 1e+6
Low Frequency (Hz) = 0.1
Imp SF
Amplitude (V) = 0.005
Quiet Time (sec) = 2
Cycles (.1-1Hz) = 1

Freq/Hz, Z'/ohm, Z"/ohm, Z/ohm, Phase/deg

8.252e+5, 5.023e+0, 1.175e+1, 1.278e+1, 66.8
6.816e+5, 4.470e+0, 9.525e+0, 1.052e+1, 64.9
5.625e+5, 3.955e+0, 7.949e+0, 8.879e+0, 63.5
4.639e+5, 3.733e+0, 6.506e+0, 7.501e+0, 60.2
3.828e+5, 3.587e+0, 5.427e+0, 6.505e+0, 56.5
3.164e+5, 3.511e+0, 4.481e+0, 5.692e+0, 51.9
2.607e+5, 3.428e+0, 3.716e+0, 5.056e+0, 47.3
2.158e+5, 3.360e+0, 3.052e+0, 4.539e+0, 42.2
1.777e+5, 3.310e+0, 2.491e+0, 4.143e+0, 37.0
1.465e+5, 3.280e+0, 2.015e+0, 3.850e+0, 31.6
1.211e+5, 3.253e+0, 1.633e+0, 3.640e+0, 26.7
9.961e+4, 3.238e+0, 1.312e+0, 3.494e+0, 22.1
8.252e+4, 3.228e+0, 1.044e+0, 3.393e+0, 17.9
6.812e+4, 3.224e+0, 8.083e-1, 3.324e+0, 14.1
5.625e+4, 3.224e+0, 6.001e-1, 3.279e+0, 10.5
4.644e+4, 3.232e+0, 4.122e-1, 3.258e+0, 7.3
3.833e+4, 3.245e+0, 2.444e-1, 3.254e+0, 4.3
3.164e+4, 3.257e+0, 9.088e-2, 3.259e+0, 1.6
2.612e+4, 3.270e+0, -5.634e-2, 3.270e+0, -1.0
2.153e+4, 3.284e+0, -1.998e-1, 3.290e+0, -3.5
1.777e+4, 3.300e+0, -3.409e-1, 3.318e+0, -5.9
1.470e+4, 3.320e+0, -4.915e-1, 3.356e+0, -8.4
1.211e+4, 3.344e+0, -6.593e-1, 3.409e+0, -11.2
1.001e+4, 3.373e+0, -8.460e-1, 3.478e+0, -14.1
8.252e+3, 3.405e+0, -1.055e+0, 3.565e+0, -17.2
6.812e+3, 3.441e+0, -1.294e+0, 3.676e+0, -20.6
5.625e+3, 3.484e+0, -1.568e+0, 3.821e+0, -24.2
4.643e+3, 3.535e+0, -1.887e+0, 4.007e+0, -28.1
3.833e+3, 3.595e+0, -2.262e+0, 4.247e+0, -32.2
3.164e+3, 3.664e+0, -2.703e+0, 4.554e+0, -36.4
2.612e+3, 3.746e+0, -3.225e+0, 4.943e+0, -40.7
2.153e+3, 3.841e+0, -3.843e+0, 5.434e+0, -45.0
1.777e+3, 3.951e+0, -4.575e+0, 6.045e+0, -49.2
1.470e+3, 4.083e+0, -5.443e+0, 6.804e+0, -53.1
1.211e+3, 4.239e+0, -6.475e+0, 7.739e+0, -56.8
1.001e+3, 4.425e+0, -7.703e+0, 8.883e+0, -60.1
8.252e+2, 4.641e+0, -9.153e+0, 1.026e+1, -63.1
6.836e+2, 4.892e+0, -1.089e+1, 1.194e+1, -65.8
5.615e+2, 5.186e+0, -1.297e+1, 1.396e+1, -68.2
4.639e+2, 5.536e+0, -1.546e+1, 1.642e+1, -70.3
3.809e+2, 5.948e+0, -1.839e+1, 1.932e+1, -72.1
3.174e+2, 6.457e+0, -2.192e+1, 2.286e+1, -73.6
2.588e+2, 7.079e+0, -2.619e+1, 2.713e+1, -74.9
2.148e+2, 7.832e+0, -3.130e+1, 3.226e+1, -76.0
1.758e+2, 8.729e+0, -3.733e+1, 3.834e+1, -76.8
1.465e+2, 9.785e+0, -4.429e+1, 4.535e+1, -77.5
1.221e+2, 1.115e+1, -5.296e+1, 5.412e+1, -78.1
9.766e+1, 1.299e+1, -6.313e+1, 6.445e+1, -78.4
8.254e+1, 1.526e+1, -7.477e+1, 7.631e+1, -78.5
6.813e+1, 1.794e+1, -8.879e+1, 9.058e+1, -78.6
5.623e+1, 2.109e+1, -1.054e+2, 1.075e+2, -78.7
4.642e+1, 2.491e+1, -1.253e+2, 1.278e+2, -78.8
3.831e+1, 2.963e+1, -1.489e+2, 1.518e+2, -78.7
3.162e+1, 3.541e+1, -1.768e+2, 1.803e+2, -78.7
2.610e+1, 4.255e+1, -2.097e+2, 2.139e+2, -78.5
2.154e+1, 5.124e+1, -2.484e+2, 2.536e+2, -78.3
1.778e+1, 6.175e+1, -2.939e+2, 3.003e+2, -78.1
1.468e+1, 7.434e+1, -3.474e+2, 3.552e+2, -77.9
1.212e+1, 8.985e+1, -4.101e+2, 4.198e+2, -77.6
1.000e+1, 1.093e+2, -4.840e+2, 4.962e+2, -77.3
8.254e+0, 1.329e+2, -5.708e+2, 5.861e+2, -76.9
6.813e+0, 1.610e+2, -6.724e+2, 6.914e+2, -76.5
5.623e+0, 1.943e+2, -7.911e+2, 8.147e+2, -76.2
4.642e+0, 2.337e+2, -9.301e+2, 9.590e+2, -75.9
3.831e+0, 2.802e+2, -1.092e+3, 1.127e+3, -75.6
3.162e+0, 3.340e+2, -1.282e+3, 1.324e+3, -75.4
2.610e+0, 3.969e+2, -1.505e+3, 1.556e+3, -75.2
2.154e+0, 4.619e+2, -1.774e+3, 1.833e+3, -75.4
1.778e+0, 5.313e+2, -2.091e+3, 2.157e+3, -75.7
1.468e+0, 6.151e+2, -2.452e+3, 2.528e+3, -75.9
1.212e+0, 7.157e+2, -2.870e+3, 2.958e+3, -76.0
1.000e+0, 8.368e+2, -3.353e+3, 3.456e+3, -76.0
8.254e-1, 9.769e+2, -3.912e+3, 4.032e+3, -76.0
6.813e-1, 1.135e+3, -4.561e+3, 4.700e+3, -76.0
5.623e-1, 1.310e+3, -5.328e+3, 5.487e+3, -76.2
4.642e-1, 1.508e+3, -6.233e+3, 6.413e+3, -76.4
3.831e-1, 1.736e+3, -7.301e+3, 7.504e+3, -76.6
3.162e-1, 2.002e+3, -8.558e+3, 8.789e+3, -76.8
2.610e-1, 2.309e+3, -1.004e+4, 1.030e+4, -77.0
2.154e-1, 2.656e+3, -1.177e+4, 1.207e+4, -77.3
1.778e-1, 3.040e+3, -1.380e+4, 1.413e+4, -77.6
1.468e-1, 3.456e+3, -1.614e+4, 1.651e+4, -77.9
1.212e-1, 3.977e+3, -1.903e+4, 1.944e+4, -78.2
1.000e-1, 4.637e+3, -2.255e+4, 2.302e+4, -78.4
