May 12, 2026   17:47:55
A.C. Impedance
File: e:\chi_data\r0.35-n0.95-1_t-23.3_f0.1_1000000_v0.txt
Data Source:  Experiment
Instrument Model:  CHI660E
Header: 
Note: 

Init E (V) = 0
High Frequency (Hz) = 1e+6
Low Frequency (Hz) = 0.1
Imp SF
Amplitude (V) = 0.005
Quiet Time (sec) = 2
Cycles (.1-1Hz) = 1

Freq/Hz, Z'/ohm, Z"/ohm, Z/ohm, Phase/deg

8.252e+5, 1.107e+1, 1.122e+1, 1.576e+1, 45.4
6.816e+5, 1.057e+1, 8.923e+0, 1.383e+1, 40.2
5.625e+5, 1.001e+1, 7.392e+0, 1.244e+1, 36.4
4.639e+5, 9.827e+0, 6.001e+0, 1.151e+1, 31.4
3.828e+5, 9.702e+0, 5.019e+0, 1.092e+1, 27.4
3.164e+5, 9.648e+0, 4.145e+0, 1.050e+1, 23.3
2.607e+5, 9.570e+0, 3.450e+0, 1.017e+1, 19.8
2.158e+5, 9.507e+0, 2.827e+0, 9.919e+0, 16.6
1.777e+5, 9.471e+0, 2.260e+0, 9.737e+0, 13.4
1.465e+5, 9.454e+0, 1.780e+0, 9.620e+0, 10.7
1.211e+5, 9.418e+0, 1.420e+0, 9.525e+0, 8.6
9.961e+4, 9.396e+0, 1.126e+0, 9.463e+0, 6.8
8.252e+4, 9.381e+0, 8.856e-1, 9.423e+0, 5.4
6.812e+4, 9.381e+0, 6.659e-1, 9.405e+0, 4.1
5.625e+4, 9.381e+0, 4.505e-1, 9.392e+0, 2.7
4.644e+4, 9.389e+0, 2.335e-1, 9.392e+0, 1.4
3.833e+4, 9.415e+0, 3.631e-2, 9.415e+0, 0.2
3.164e+4, 9.445e+0, -1.349e-1, 9.446e+0, -0.8
2.612e+4, 9.473e+0, -2.919e-1, 9.477e+0, -1.8
2.153e+4, 9.503e+0, -4.519e-1, 9.514e+0, -2.7
1.777e+4, 9.538e+0, -6.206e-1, 9.558e+0, -3.7
1.470e+4, 9.571e+0, -8.085e-1, 9.605e+0, -4.8
1.211e+4, 9.613e+0, -1.014e+0, 9.666e+0, -6.0
1.001e+4, 9.663e+0, -1.247e+0, 9.743e+0, -7.4
8.252e+3, 9.723e+0, -1.515e+0, 9.840e+0, -8.9
6.812e+3, 9.791e+0, -1.817e+0, 9.958e+0, -10.5
5.625e+3, 9.865e+0, -2.164e+0, 1.010e+1, -12.4
4.643e+3, 9.950e+0, -2.568e+0, 1.028e+1, -14.5
3.833e+3, 1.005e+1, -3.041e+0, 1.050e+1, -16.8
3.164e+3, 1.015e+1, -3.596e+0, 1.077e+1, -19.5
2.612e+3, 1.028e+1, -4.253e+0, 1.112e+1, -22.5
2.153e+3, 1.043e+1, -5.032e+0, 1.158e+1, -25.8
1.777e+3, 1.060e+1, -5.949e+0, 1.216e+1, -29.3
1.470e+3, 1.080e+1, -7.034e+0, 1.289e+1, -33.1
1.211e+3, 1.103e+1, -8.320e+0, 1.381e+1, -37.0
1.001e+3, 1.129e+1, -9.838e+0, 1.498e+1, -41.1
8.252e+2, 1.160e+1, -1.163e+1, 1.642e+1, -45.1
6.836e+2, 1.196e+1, -1.376e+1, 1.823e+1, -49.0
5.615e+2, 1.241e+1, -1.631e+1, 2.050e+1, -52.7
4.639e+2, 1.297e+1, -1.939e+1, 2.332e+1, -56.2
3.809e+2, 1.360e+1, -2.299e+1, 2.671e+1, -59.4
3.174e+2, 1.433e+1, -2.730e+1, 3.083e+1, -62.3
2.588e+2, 1.519e+1, -3.243e+1, 3.581e+1, -64.9
2.148e+2, 1.620e+1, -3.855e+1, 4.182e+1, -67.2
1.758e+2, 1.737e+1, -4.576e+1, 4.895e+1, -69.2
1.465e+2, 1.869e+1, -5.404e+1, 5.718e+1, -70.9
1.221e+2, 2.031e+1, -6.435e+1, 6.748e+1, -72.5
9.766e+1, 2.240e+1, -7.644e+1, 7.966e+1, -73.7
8.254e+1, 2.487e+1, -9.034e+1, 9.370e+1, -74.6
6.813e+1, 2.760e+1, -1.071e+2, 1.106e+2, -75.6
5.623e+1, 3.062e+1, -1.272e+2, 1.309e+2, -76.5
4.642e+1, 3.417e+1, -1.515e+2, 1.553e+2, -77.3
3.831e+1, 3.838e+1, -1.804e+2, 1.845e+2, -78.0
3.162e+1, 4.335e+1, -2.150e+2, 2.193e+2, -78.6
2.610e+1, 4.932e+1, -2.561e+2, 2.608e+2, -79.1
2.154e+1, 5.654e+1, -3.050e+2, 3.102e+2, -79.5
1.778e+1, 6.537e+1, -3.633e+2, 3.691e+2, -79.8
1.468e+1, 7.620e+1, -4.327e+2, 4.393e+2, -80.0
1.212e+1, 8.916e+1, -5.151e+2, 5.228e+2, -80.2
1.000e+1, 1.053e+2, -6.134e+2, 6.224e+2, -80.3
8.254e+0, 1.254e+2, -7.304e+2, 7.411e+2, -80.3
6.813e+0, 1.494e+2, -8.693e+2, 8.821e+2, -80.2
5.623e+0, 1.784e+2, -1.034e+3, 1.050e+3, -80.2
4.642e+0, 2.127e+2, -1.231e+3, 1.249e+3, -80.2
3.831e+0, 2.546e+2, -1.463e+3, 1.485e+3, -80.1
3.162e+0, 3.055e+2, -1.741e+3, 1.768e+3, -80.0
2.610e+0, 3.681e+2, -2.069e+3, 2.102e+3, -79.9
2.154e+0, 4.392e+2, -2.464e+3, 2.503e+3, -79.9
1.778e+0, 5.228e+2, -2.935e+3, 2.981e+3, -79.9
1.468e+0, 6.305e+2, -3.485e+3, 3.541e+3, -79.7
1.212e+0, 7.713e+2, -4.128e+3, 4.199e+3, -79.4
1.000e+0, 9.545e+2, -4.875e+3, 4.968e+3, -78.9
8.254e-1, 1.181e+3, -5.742e+3, 5.862e+3, -78.4
6.813e-1, 1.455e+3, -6.749e+3, 6.904e+3, -77.8
5.623e-1, 1.784e+3, -7.925e+3, 8.123e+3, -77.3
4.642e-1, 2.182e+3, -9.295e+3, 9.547e+3, -76.8
3.831e-1, 2.662e+3, -1.089e+4, 1.121e+4, -76.3
3.162e-1, 3.239e+3, -1.273e+4, 1.313e+4, -75.7
2.610e-1, 3.926e+3, -1.484e+4, 1.535e+4, -75.2
2.154e-1, 4.729e+3, -1.727e+4, 1.790e+4, -74.7
1.778e-1, 5.660e+3, -2.008e+4, 2.086e+4, -74.3
1.468e-1, 6.733e+3, -2.329e+4, 2.425e+4, -73.9
1.212e-1, 7.947e+3, -2.695e+4, 2.810e+4, -73.6
1.000e-1, 9.302e+3, -3.109e+4, 3.245e+4, -73.3
