EXPLAIN
TAG	EISPOT
TITLE	LABEL	Potentiostatic EIS	Test Identifier
DATE	LABEL	8/24/2020	Date
TIME	LABEL	21:51:57	Time
NOTES	NOTES	1	Notes...
	
PSTAT	PSTAT	REF3000-16137	Potentiostat
VDC	POTEN	0.00000E+000	T	DC Voltage (V)
FREQINIT	QUANT	3.00000E+005	Initial Freq. (Hz)
FREQFINAL	QUANT	1.00000E+000	Final Freq. (Hz)
PTSPERDEC	QUANT	1.00000E+001	Points/decade
VAC	QUANT	5.00000E+001	AC Voltage (mV rms)
AREA	QUANT	1.00000E+000	Sample Area (cm^2)
SPEED	SELECTOR	2	Optimize for:
ZGUESS	QUANT	1.00000E+003	Estimated Z (ohms)
EOC	QUANT	0	Open Circuit (V)
SEQUENCER	TOGGLE	TRUE	Run as Sequence
PSTATMODEL	IQUANT	5	Pstat Model
PSTATSECTION	LABEL	REF3000-16137	Pstat Section
PSTATSERIALNO	LABEL	16137	Pstat Serial Number
CTRLMODE	IQUANT	1	Control Mode
IESTAB	IQUANT	0	I/E Stability
CASPEED	IQUANT	1	Control Amp Speed
CONVENTION	IQUANT	1	Current Convention
ICHRANGE	IQUANT	2	Ich Range
ICHRANGEMODE	TOGGLE	F	Ich Auto Range
ICHOFFSETENABLE	TOGGLE	T	Ich Offset Enable
ICHOFFSET	QUANT	0	Ich Offset (V)
ICHFILTER	IQUANT	3	Ich Filter
VCHRANGE	IQUANT	2	Vch Range
VCHRANGEMODE	TOGGLE	F	Vch Auto Range
VCHOFFSETENABLE	TOGGLE	T	Vch Offset Enable
VCHOFFSET	QUANT	0	Vch Offset (V)
VCHFILTER	IQUANT	3	Vch Filter
ACHRANGE	IQUANT	2	Ach Range
ACHOFFSETENABLE	TOGGLE	F	Ach Offset Enable
ACHOFFSET	QUANT	0	Ach Offset (V)
ACHFILTER	IQUANT	3	Ach Filter
IERANGELOWERLIMIT	IQUANT	2	I/E Range Lower Limit
IERANGEMODE	TOGGLE	F	I/E AutoRange
IERANGE	IQUANT	11	I/E Range
POSFEEDENABLE	TOGGLE	F	Positive Feedback IR Comp
POSFEEDRESISTANCE	QUANT	0	Positive Feedback Resistance (ohm)
ACHSELECT	IQUANT	0	Ach Select
CABLEID	IQUANT	13	Cable ID
DCCALDATE	LABEL	7/31/2020	DC Calibration Date
ACCALDATE	LABEL	7/31/2020	AC Calibration Date
THERMOSELECT	IQUANT	1	Thermo Select
FRAMEWORKVERSION	QUANT	6.33	Framework Version
INSTRUMENTVERSION	LABEL	3.50	Instrument Version
COMPLIANCEVOLTAGE	IQUANT	0	Compliance Voltage
ZCURVE	TABLE
	Pt	Time	Freq	Zreal	Zimag	Zsig	Zmod	Zphz	Idc	Vdc	IERange
	#	s	Hz	ohm	ohm	V	ohm	°	A	V	#
	0	18	300046.9	1710.477	-3607.123	1	3992.125	-64.62996	1.86605E-005	-0.0022849	9
	1	32	238359.4	2288.686	-3969.847	1	4582.332	-60.03581	-2.262552E-005	0.0014362	9
	2	46	189328.1	3025.771	-4423.363	1	5359.237	-55.62619	-2.810865E-005	-0.0011139	9
	3	53	150421.9	3859.477	-4691.099	1	6074.699	-50.55507	1.450938E-006	0.0016502	9
	4	61	119484.4	5031.539	-4740.062	1	6912.638	-43.29143	5.415138E-006	0.0144847	8
	5	68	94921.88	5848.097	-4784.108	1	7555.655	-39.28531	2.178211E-005	-0.009446	8
	6	76	75421.88	6763.198	-4759.661	1	8270.141	-35.13631	2.546807E-005	-0.0088682	8
	7	84	59859.37	7738.51	-4631.021	1	9018.364	-30.89792	-1.597533E-006	0.007455	8
	8	93	47578.12	9334.07	-3712.51	1	10045.28	-21.68957	6.998099E-006	-0.0161654	7
	9	99	37828.12	9800.61	-3501.498	1	10407.33	-19.66046	7.200823E-006	-0.0222067	7
	10	106	30046.88	10294.29	-3327.162	1	10818.61	-17.91108	7.170918E-006	-0.0219317	7
	11	112	23859.38	10699.69	-3171.286	1	11159.77	-16.50932	6.613858E-006	-0.0253368	7
	12	116	18984.38	11048.98	-3033.411	1	11457.81	-15.35187	7.002464E-006	-0.016332	7
	13	120	15046.87	11428.92	-2972.495	1	11809.15	-14.5788	-5.285483E-006	0.0251248	7
	14	125	11953.13	11797.51	-2945.461	1	12159.64	-14.01835	3.634331E-006	-0.0239209	7
	15	129	9515.62	12227.25	-2947.353	1	12577.46	-13.55249	-6.122327E-006	0.0232321	7
	16	133	7546.875	12577.58	-2990.542	1	12928.21	-13.37474	-6.877785E-006	0.0172208	7
	17	137	5928.309	11294.19	-3735.14	1	11895.8	-18.29974	3.7587E-005	-0.039319	8
	18	146	4733.456	10455.69	-4769.236	1	11492.05	-24.51952	0.0002118	-0.0109686	9
	19	153	3796.875	12850.8	-3050.625	1	13207.93	-13.35414	-0.000285	0.0070369	9
	20	161	2987.132	15427.17	-3953.146	1	15925.6	-14.37255	-0.0002682	0.0107488	9
	21	171	2390.625	12055.28	-4095.469	1	12731.96	-18.76385	9.384372E-005	0.0158662	8
	22	177	1884.191	22113.99	-6622.894	1	23084.44	-16.67237	4.696519E-005	-0.0082474	9
	23	185	1516.544	18334.95	-8345.832	1	20145.05	-24.47442	-0.0001159	0.056072	8
	24	192	1193.986	20457.34	-6701.625	1	21527.06	-18.13829	-0.0001441	0.0262947	8
	25	197	946.5144	36830.87	-45433.34	1	58486.76	-50.9698	-0.0001492	0.0400495	8
	26	201	751.7689	7691.78	-20145.39	1	21563.87	-69.10248	0.0002674	-0.0107528	9
	27	208	597.4265	21697.97	-341.9203	1	21700.67	-0.9028019	-0.0001255	0.0080152	8
	28	213	477.4305	23470.5	-12771.63	1	26720.38	-28.55312	-2.027221E-006	0.0007504	8
	29	219	376.6741	33675.89	-19050.24	1	38690.79	-29.49656	-7.316855E-007	0.0004917	7
	30	223	298.2954	36036.08	-21794.23	1	42113.98	-31.16509	-7.22031E-007	0.0005992	7
	31	225	237.7717	38838.64	-25060.98	1	46222.21	-32.8325	-7.345809E-007	0.0005958	7
	32	228	189.0121	42275.96	-28841.31	1	51176.93	-34.30241	-7.281576E-007	0.0004858	7
	33	231	150.2404	46981.37	-33397.14	1	57642.16	-35.40747	-7.412675E-007	0.0005888	7
	34	234	119.1737	52223.38	-38205.97	1	64706.86	-36.18873	-7.583591E-008	0.00053	6
	35	236	95.0169	58457.59	-42269.76	1	72138.91	-35.8701	-8.072829E-008	0.000741	6
	36	239	75.60484	64772.28	-47773.27	1	80484.37	-36.4109	-7.940513E-008	0.0005984	6
	37	242	54.50582	75805.56	-56333.03	1	94445.19	-36.61697	-8.17526E-008	0.0007923	6
	38	245	45.95588	81184.89	-59316.16	1	100545.5	-36.153	-7.973372E-008	0.0006838	6
	39	247	37.20238	91111.99	-65891.41	1	112441.4	-35.87413	-8.078744E-008	0.000538	6
	40	250	30.04808	100969.9	-72033.21	1	124031.1	-35.50454	-8.420955E-008	0.0006505	6
	41	253	23.91582	111975.3	-77445.2	1	136147.8	-34.6688	-8.295242E-008	0.0006899	6
	42	256	18.60119	125501.8	-83631.63	1	150814.3	-33.67861	-8.625311E-008	0.0005753	6
	43	258	15.02404	138309	-90172.68	1	165107.5	-33.10297	-8.500653E-008	0.0007959	6
	44	261	12.01923	150037.7	-95286.8	1	177738.2	-32.41904	-8.251895E-008	0.0007486	6
	45	263	9.450605	166028.5	-102307.5	1	195018.6	-31.64156	-8.412655E-008	0.0007881	6
	46	266	7.512019	178580.2	-107358	1	208366.6	-31.01324	-8.309718E-008	0.0005208	6
	47	269	5.978954	193894.2	-114632.2	1	225245.4	-30.592	-8.43575E-008	0.0007688	6
	48	273	4.734848	210427.5	-122815.7	1	243646.1	-30.26991	-8.353134E-008	0.0005071	6
	49	278	3.75601	219046.8	-127246.8	1	253324.4	-30.15279	-7.466476E-007	0.0007224	7
	50	285	3.004808	245026.6	-140780.2	1	282590	-29.87954	-8.261079E-008	0.0005784	6
	51	293	2.372217	266935.6	-153887.9	1	308117	-29.96338	-8.604479E-008	0.0006828	6
	52	297	1.878005	288895.7	-165898.9	1	333141.4	-29.86668	-8.589529E-008	0.0007021	6
	53	302	1.512097	310352.8	-179700.2	1	358623.8	-30.07167	-8.53272E-008	0.0005782	6
	54	307	1.201923	336706.8	-196614.1	1	389908.4	-30.28205	-8.546476E-008	0.0006506	6
	55	313	0.956633	364981.1	-214570.1	1	423381.1	-30.451	-8.626201E-008	2.275753E-005	6
