EXPLAIN
TAG	EISPOT
TITLE	LABEL	Potentiostatic EIS	Test Identifier
DATE	LABEL	8/25/2020	Date
TIME	LABEL	0:45:16	Time
NOTES	NOTES	1	Notes...
	
PSTAT	PSTAT	REF3000-16137	Potentiostat
VDC	POTEN	0.00000E+000	T	DC Voltage (V)
FREQINIT	QUANT	3.00000E+005	Initial Freq. (Hz)
FREQFINAL	QUANT	1.00000E+000	Final Freq. (Hz)
PTSPERDEC	QUANT	1.00000E+001	Points/decade
VAC	QUANT	5.00000E+001	AC Voltage (mV rms)
AREA	QUANT	1.00000E+000	Sample Area (cm^2)
SPEED	SELECTOR	2	Optimize for:
ZGUESS	QUANT	1.00000E+003	Estimated Z (ohms)
EOC	QUANT	0	Open Circuit (V)
SEQUENCER	TOGGLE	TRUE	Run as Sequence
PSTATMODEL	IQUANT	5	Pstat Model
PSTATSECTION	LABEL	REF3000-16137	Pstat Section
PSTATSERIALNO	LABEL	16137	Pstat Serial Number
CTRLMODE	IQUANT	1	Control Mode
IESTAB	IQUANT	0	I/E Stability
CASPEED	IQUANT	1	Control Amp Speed
CONVENTION	IQUANT	1	Current Convention
ICHRANGE	IQUANT	2	Ich Range
ICHRANGEMODE	TOGGLE	F	Ich Auto Range
ICHOFFSETENABLE	TOGGLE	T	Ich Offset Enable
ICHOFFSET	QUANT	0	Ich Offset (V)
ICHFILTER	IQUANT	3	Ich Filter
VCHRANGE	IQUANT	2	Vch Range
VCHRANGEMODE	TOGGLE	F	Vch Auto Range
VCHOFFSETENABLE	TOGGLE	T	Vch Offset Enable
VCHOFFSET	QUANT	0	Vch Offset (V)
VCHFILTER	IQUANT	3	Vch Filter
ACHRANGE	IQUANT	2	Ach Range
ACHOFFSETENABLE	TOGGLE	F	Ach Offset Enable
ACHOFFSET	QUANT	0	Ach Offset (V)
ACHFILTER	IQUANT	3	Ach Filter
IERANGELOWERLIMIT	IQUANT	2	I/E Range Lower Limit
IERANGEMODE	TOGGLE	F	I/E AutoRange
IERANGE	IQUANT	11	I/E Range
POSFEEDENABLE	TOGGLE	F	Positive Feedback IR Comp
POSFEEDRESISTANCE	QUANT	0	Positive Feedback Resistance (ohm)
ACHSELECT	IQUANT	0	Ach Select
CABLEID	IQUANT	13	Cable ID
DCCALDATE	LABEL	7/31/2020	DC Calibration Date
ACCALDATE	LABEL	7/31/2020	AC Calibration Date
THERMOSELECT	IQUANT	1	Thermo Select
FRAMEWORKVERSION	QUANT	6.33	Framework Version
INSTRUMENTVERSION	LABEL	3.50	Instrument Version
COMPLIANCEVOLTAGE	IQUANT	0	Compliance Voltage
ZCURVE	TABLE
	Pt	Time	Freq	Zreal	Zimag	Zsig	Zmod	Zphz	Idc	Vdc	IERange
	#	s	Hz	ohm	ohm	V	ohm	°	A	V	#
	0	15	300046.9	858.3665	-1378.071	1	1623.537	-58.08224	6.283767E-005	-0.0178197	9
	1	29	238359.4	1015.409	-1475.871	1	1791.438	-55.47177	0.0001704	-0.0190525	9
	2	43	189328.1	1320.116	-1615.204	1	2086.047	-50.74066	-0.000713	0.0124305	9
	3	53	150421.9	1524.254	-1728.875	1	2304.856	-48.59915	-0.0007972	0.0224455	9
	4	60	119484.4	1983.376	-1829.654	1	2698.41	-42.69138	-0.0008205	0.0014094	10
	5	70	94921.88	2309.454	-1826.322	1	2944.322	-38.33704	0.0002654	-0.010797	9
	6	80	75421.88	2667.073	-1774.876	1	3203.665	-33.64286	-0.0001443	-0.0019661	9
	7	90	59859.37	2964.507	-1693.304	1	3414.027	-29.73468	-0.0001454	0.010577	9
	8	98	47578.12	3301.102	-1657.109	1	3693.682	-26.65603	-0.000219	0.0015955	9
	9	108	37828.12	3506.848	-1554.611	1	3835.988	-23.90805	0.0002108	-0.010998	9
	10	118	30046.88	3717.342	-1425.666	1	3981.351	-20.98269	0.0003007	-0.0075634	9
	11	127	23859.38	3839.271	-1497.386	1	4120.942	-21.30669	-0.0002187	0.0113071	9
	12	134	18984.38	4075.818	-1312.042	1	4281.792	-17.84383	-0.0002654	0.010752	9
	13	140	15046.87	4395.675	-1104.32	1	4532.271	-14.10249	0.0001472	-0.0266325	8
	14	147	11953.13	4346.05	-1088.486	1	4480.285	-14.06073	0.0002974	-0.009478	9
	15	154	9515.62	4612.583	-1223.332	1	4772.05	-14.85381	-5.194118E-005	-0.0051994	9
	16	161	7546.875	4876.148	-1050.901	1	4988.107	-12.16228	0.0001244	-0.0559658	8
	17	166	5928.309	5050.923	-1042.977	1	5157.482	-11.66716	0.0001411	-0.0517774	8
	18	172	4733.456	5086.674	-1150.002	1	5215.051	-12.73934	-5.44726E-005	-0.025645	8
	19	178	3796.875	5156.583	-1337.293	1	5327.167	-14.53863	-0.0002869	0.0071563	9
	20	186	2987.132	5333.448	-1033.141	1	5432.591	-10.96298	0.0002101	-0.010947	9
	21	195	2390.625	4995.114	-1099.85	1	5114.766	-12.41754	-0.0002171	0.0016344	9
	22	203	1884.191	4698.158	-1510.037	1	4934.866	-17.81795	-5.56548E-005	0.008857	9
	23	209	1516.544	6053.568	-1564.883	1	6252.563	-14.494	0.0001196	-0.0559136	8
	24	214	1193.986	6109.064	-1888.477	1	6394.295	-17.17779	-0.0002866	0.0071168	9
	25	222	946.5144	5389.708	-1002.651	1	5482.176	-10.53831	0.0002932	-0.0095487	9
	26	229	751.7689	6205.85	-1783.16	1	6456.953	-16.03123	-0.0002204	0.0112549	9
	27	234	597.4265	6050.7	-1656.544	1	6273.365	-15.3111	-5.447628E-005	-0.0053937	9
	28	239	477.4305	7153.233	-2202.492	1	7484.632	-17.11368	-1.612784E-006	0.0005526	8
	29	243	376.6741	9307.126	-2843.218	1	9731.73	-16.9873	-6.002597E-007	0.000592	7
	30	245	298.2954	9789.6	-3112.734	1	10272.56	-17.63875	-6.166275E-007	0.0006428	7
	31	247	237.7717	10169.36	-3334.542	1	10702.1	-18.15436	-5.964986E-007	0.0004894	7
	32	250	189.0121	10609.92	-3586.925	1	11199.84	-18.679	-5.895806E-007	0.0005219	7
	33	252	150.2404	11305.6	-3902.804	1	11960.29	-19.04518	-5.986415E-007	0.000551	7
	34	255	119.1737	11577.3	-4042.031	1	12262.62	-19.24585	-5.893638E-007	0.0005531	7
	35	257	95.0169	12151.14	-4453.091	1	12941.42	-20.12663	-5.980712E-007	0.000638	7
	36	260	75.60484	12628.86	-4801.917	1	13510.97	-20.81849	-6.008119E-007	0.0006982	7
	37	262	54.50582	13320.01	-5442.347	1	14388.95	-22.22415	-6.069543E-007	0.0006934	7
	38	265	45.95588	13787.9	-5907.639	1	15000.21	-23.19346	-6.183578E-007	0.0007087	7
	39	267	37.20238	14219.59	-6501.136	1	15635.26	-24.56968	-5.88978E-007	0.0007433	7
	40	270	30.04808	14843.6	-7319.235	1	16550.04	-26.24746	-6.120114E-007	0.0007507	7
	41	273	23.91582	15451.08	-8292.896	1	17535.9	-28.22333	-5.96543E-007	0.0007408	7
	42	275	18.60119	16499.69	-9765.13	1	19172.84	-30.61862	-5.926829E-007	0.0006008	7
	43	277	15.02404	17527.89	-11084.99	1	20738.95	-32.31009	-6.039477E-007	0.000756	7
	44	280	12.01923	18854.76	-12660.85	1	22711.21	-33.8811	-5.827854E-007	0.0007312	7
	45	282	9.450605	20817.43	-14514.05	1	25377.61	-34.88447	-5.96839E-007	0.0005034	7
	46	285	7.512019	22940.23	-16192.9	1	28079.6	-35.21725	-5.938302E-007	0.0006043	7
	47	288	5.978954	25568.73	-17658.4	1	31073.76	-34.62992	-5.963759E-007	0.0006489	7
	48	293	4.734848	28612.46	-18870.16	1	34274.71	-33.40519	-6.027236E-007	0.0006128	7
	49	296	3.75601	31808.82	-19501.01	1	37310.73	-31.51119	-6.019325E-007	0.0007226	7
	50	302	3.004808	34891.75	-19572.33	1	40006.38	-29.29	-6.093825E-007	0.0007842	7
	51	308	2.372217	38255.89	-19403.13	1	42895.16	-26.89382	-6.025968E-007	0.0006749	7
	52	312	1.878005	41113.46	-18554	1	45106.18	-24.28907	-6.073744E-007	0.0005912	7
	53	317	1.512097	43123.5	-17383.12	1	46495.27	-21.95441	-6.121954E-007	0.0007528	7
	54	328	1.201923	44833.18	-16029.59	1	47612.62	-19.67393	-6.076637E-007	0.000602	7
	55	341	0.956633	46741.61	-14879.94	1	49052.93	-17.65859	-6.391003E-007	-2.246597E-005	7
