EXPLAIN
TAG	EISPOT
TITLE	LABEL	Potentiostatic EIS	Test Identifier
DATE	LABEL	8/25/2020	Date
TIME	LABEL	1:25:33	Time
NOTES	NOTES	1	Notes...
	
PSTAT	PSTAT	REF3000-16137	Potentiostat
VDC	POTEN	0.00000E+000	T	DC Voltage (V)
FREQINIT	QUANT	3.00000E+005	Initial Freq. (Hz)
FREQFINAL	QUANT	1.00000E+000	Final Freq. (Hz)
PTSPERDEC	QUANT	1.00000E+001	Points/decade
VAC	QUANT	5.00000E+001	AC Voltage (mV rms)
AREA	QUANT	1.00000E+000	Sample Area (cm^2)
SPEED	SELECTOR	2	Optimize for:
ZGUESS	QUANT	1.00000E+003	Estimated Z (ohms)
EOC	QUANT	0	Open Circuit (V)
SEQUENCER	TOGGLE	TRUE	Run as Sequence
PSTATMODEL	IQUANT	5	Pstat Model
PSTATSECTION	LABEL	REF3000-16137	Pstat Section
PSTATSERIALNO	LABEL	16137	Pstat Serial Number
CTRLMODE	IQUANT	1	Control Mode
IESTAB	IQUANT	0	I/E Stability
CASPEED	IQUANT	1	Control Amp Speed
CONVENTION	IQUANT	1	Current Convention
ICHRANGE	IQUANT	2	Ich Range
ICHRANGEMODE	TOGGLE	F	Ich Auto Range
ICHOFFSETENABLE	TOGGLE	T	Ich Offset Enable
ICHOFFSET	QUANT	0	Ich Offset (V)
ICHFILTER	IQUANT	3	Ich Filter
VCHRANGE	IQUANT	2	Vch Range
VCHRANGEMODE	TOGGLE	F	Vch Auto Range
VCHOFFSETENABLE	TOGGLE	T	Vch Offset Enable
VCHOFFSET	QUANT	0	Vch Offset (V)
VCHFILTER	IQUANT	3	Vch Filter
ACHRANGE	IQUANT	2	Ach Range
ACHOFFSETENABLE	TOGGLE	F	Ach Offset Enable
ACHOFFSET	QUANT	0	Ach Offset (V)
ACHFILTER	IQUANT	3	Ach Filter
IERANGELOWERLIMIT	IQUANT	2	I/E Range Lower Limit
IERANGEMODE	TOGGLE	F	I/E AutoRange
IERANGE	IQUANT	11	I/E Range
POSFEEDENABLE	TOGGLE	F	Positive Feedback IR Comp
POSFEEDRESISTANCE	QUANT	0	Positive Feedback Resistance (ohm)
ACHSELECT	IQUANT	0	Ach Select
CABLEID	IQUANT	13	Cable ID
DCCALDATE	LABEL	7/31/2020	DC Calibration Date
ACCALDATE	LABEL	7/31/2020	AC Calibration Date
THERMOSELECT	IQUANT	1	Thermo Select
FRAMEWORKVERSION	QUANT	6.33	Framework Version
INSTRUMENTVERSION	LABEL	3.50	Instrument Version
COMPLIANCEVOLTAGE	IQUANT	0	Compliance Voltage
ZCURVE	TABLE
	Pt	Time	Freq	Zreal	Zimag	Zsig	Zmod	Zphz	Idc	Vdc	IERange
	#	s	Hz	ohm	ohm	V	ohm	°	A	V	#
	0	16	300046.9	910.4386	-1362.937	1	1639.053	-56.25717	-0.0008429	0.023324	9
	1	30	238359.4	1074.247	-1471.104	1	1821.58	-53.86188	-0.0006851	0.0124842	9
	2	44	189328.1	1340.307	-1585.498	1	2076.108	-49.79036	-0.0008066	0.0229355	9
	3	52	150421.9	1722.121	-1656.881	1	2389.76	-43.89389	0.000585	-0.0057474	9
	4	60	119484.4	1919.615	-1816.694	1	2642.971	-43.42212	0.0001702	-0.0181889	9
	5	70	94921.88	2310.694	-1808.342	1	2934.179	-38.04662	-5.204332E-005	-0.0053857	9
	6	80	75421.88	2616.684	-1777.098	1	3163.086	-34.18204	0.0002103	-0.0109937	9
	7	88	59859.37	2864.493	-1613.01	1	3287.419	-29.38408	-5.457871E-005	0.0088964	9
	8	98	47578.12	3148.432	-1570.315	1	3518.311	-26.50823	0.0002646	-0.0107017	9
	9	109	37828.12	3403.548	-1562.969	1	3745.266	-24.66542	0.0002957	-0.0075387	9
	10	118	30046.88	3676.647	-1432.81	1	3945.97	-21.29115	-0.0002865	0.0071294	9
	11	128	23859.38	3743.585	-1259.148	1	3949.668	-18.59027	-0.0002039	0.0002881	10
	12	134	18984.38	4032.561	-1194.246	1	4205.683	-16.49669	-0.0002874	0.0092529	9
	13	141	15046.87	4240.854	-1189.609	1	4404.544	-15.66943	-0.0001446	-0.0019223	9
	14	147	11953.13	4279.171	-1163.154	1	4434.438	-15.20659	0.0002089	-0.010999	9
	15	155	9515.62	4414.515	-1230.456	1	4582.79	-15.57473	0.0002999	-0.0075026	9
	16	161	7546.875	4600.139	-1044.192	1	4717.162	-12.78894	0.0002213	-0.0013741	9
	17	168	5928.309	4779.159	-960.748	1	4874.771	-11.3666	-0.0002911	0.0093741	9
	18	175	4733.456	5178.985	-1272.569	1	5333.04	-13.80509	8.662389E-005	-0.0555803	8
	19	182	3796.875	5052.768	-1194.199	1	5191.972	-13.29759	0.0002102	-0.0109651	9
	20	188	2987.132	4946.957	-1062.436	1	5059.758	-12.12104	-0.0002633	0.0046066	9
	21	196	2390.625	5220.188	-1532.515	1	5440.494	-16.3609	4.375071E-005	0.0059286	9
	22	203	1884.191	5556.108	-968.983	1	5639.971	-9.89287	-0.0001232	0.010005	8
	23	209	1516.544	5992.91	-1461.56	1	6168.56	-13.70583	-0.0001352	0.0489033	8
	24	215	1193.986	6114.938	-2153.912	1	6483.194	-19.40418	-0.0002185	0.0112522	9
	25	222	946.5144	4951.625	-962.419	1	5044.289	-10.99911	-0.0001483	-0.0018992	9
	26	227	751.7689	6740.988	-845.672	1	6793.827	-7.150527	-5.585101E-005	-0.0259591	8
	27	231	597.4265	6967.006	-3161.794	1	7650.89	-24.40969	-0.0001436	0.0266481	8
	28	234	477.4305	7102.883	-2216.722	1	7440.753	-17.3325	-1.60976E-006	0.0005477	8
	29	239	376.6741	9169.955	-2836.687	1	9598.69	-17.18923	-6.003916E-007	0.0007428	7
	30	242	298.2954	9601.99	-3092.125	1	10087.59	-17.85009	-5.879632E-007	0.0007288	7
	31	244	237.7717	10115.09	-3361.877	1	10659.14	-18.38488	-6.086235E-007	0.0007004	7
	32	246	189.0121	10470.83	-3593.936	1	11070.44	-18.94392	-5.779318E-007	0.0005272	7
	33	249	150.2404	11037.92	-3951.88	1	11724.03	-19.69878	-5.850902E-007	0.0005211	7
	34	251	119.1737	11611.37	-4190.61	1	12344.44	-19.8448	-6.105687E-007	0.000523	7
	35	254	95.0169	11923.5	-4397.982	1	12708.74	-20.24649	-5.816938E-007	0.0007258	7
	36	256	75.60484	12550.42	-4801.487	1	13437.53	-20.93564	-6.003337E-007	0.0007206	7
	37	259	54.50582	13166.23	-5408.06	1	14233.65	-22.33052	-5.753369E-007	0.000595	7
	38	261	45.95588	13583.96	-5867.258	1	14796.92	-23.36074	-6.001548E-007	0.0007198	7
	39	264	37.20238	14142.89	-6510.19	1	15569.32	-24.71735	-5.919957E-007	0.0006371	7
	40	266	30.04808	14644.97	-7246.78	1	16339.86	-26.32761	-5.885672E-007	0.0005903	7
	41	269	23.91582	15352.75	-8321.985	1	17463.18	-28.45998	-5.74085E-007	0.000596	7
	42	272	18.60119	16257.07	-9682.9	1	18922.23	-30.77852	-5.619904E-007	0.0005095	7
	43	274	15.02404	17440.29	-11110.36	1	20678.58	-32.49923	-5.878644E-007	0.0005154	7
	44	276	12.01923	18698.59	-12622.51	1	22560.25	-34.02138	-5.915813E-007	0.0007449	7
	45	279	9.450605	20654.56	-14530.66	1	25253.73	-35.12672	-5.834593E-007	0.0005078	7
	46	282	7.512019	22778.54	-16215.2	1	27960.59	-35.44565	-5.817723E-007	0.0006543	7
	47	285	5.978954	25394.4	-17674	1	30939.39	-34.83715	-5.842589E-007	0.000504	7
	48	289	4.734848	28454.79	-18940.67	1	34182.22	-33.64936	-5.772802E-007	0.0005725	7
	49	293	3.75601	31688.31	-19545.41	1	37231.33	-31.66637	-5.97071E-007	0.0006844	7
	50	299	3.004808	34756.78	-19533.8	1	39869.82	-29.3366	-5.985348E-007	0.0007306	7
	51	305	2.372217	38025.51	-19420.49	1	42697.71	-27.05444	-6.035012E-007	0.0006293	7
	52	309	1.878005	40558.25	-18119.18	1	44421.57	-24.07245	-6.073976E-007	0.0006062	7
	53	318	1.512097	42548.6	-17053.68	1	45838.97	-21.84114	-6.017662E-007	0.0005699	7
	54	329	1.201923	44425.54	-15880.31	1	47178.52	-19.66988	-6.059715E-007	0.0005878	7
	55	342	0.956633	46213.06	-14743.16	1	48507.81	-17.69403	-6.210564E-007	-2.80469E-005	7
