EXPLAIN
TAG	EISPOT
TITLE	LABEL	Potentiostatic EIS	Test Identifier
DATE	LABEL	8/25/2020	Date
TIME	LABEL	3:05:08	Time
NOTES	NOTES	1	Notes...
	
PSTAT	PSTAT	REF3000-16137	Potentiostat
VDC	POTEN	0.00000E+000	T	DC Voltage (V)
FREQINIT	QUANT	3.00000E+005	Initial Freq. (Hz)
FREQFINAL	QUANT	1.00000E+000	Final Freq. (Hz)
PTSPERDEC	QUANT	1.00000E+001	Points/decade
VAC	QUANT	5.00000E+001	AC Voltage (mV rms)
AREA	QUANT	1.00000E+000	Sample Area (cm^2)
SPEED	SELECTOR	2	Optimize for:
ZGUESS	QUANT	1.00000E+003	Estimated Z (ohms)
EOC	QUANT	0	Open Circuit (V)
SEQUENCER	TOGGLE	TRUE	Run as Sequence
PSTATMODEL	IQUANT	5	Pstat Model
PSTATSECTION	LABEL	REF3000-16137	Pstat Section
PSTATSERIALNO	LABEL	16137	Pstat Serial Number
CTRLMODE	IQUANT	1	Control Mode
IESTAB	IQUANT	0	I/E Stability
CASPEED	IQUANT	1	Control Amp Speed
CONVENTION	IQUANT	1	Current Convention
ICHRANGE	IQUANT	2	Ich Range
ICHRANGEMODE	TOGGLE	F	Ich Auto Range
ICHOFFSETENABLE	TOGGLE	T	Ich Offset Enable
ICHOFFSET	QUANT	0	Ich Offset (V)
ICHFILTER	IQUANT	3	Ich Filter
VCHRANGE	IQUANT	2	Vch Range
VCHRANGEMODE	TOGGLE	F	Vch Auto Range
VCHOFFSETENABLE	TOGGLE	T	Vch Offset Enable
VCHOFFSET	QUANT	0	Vch Offset (V)
VCHFILTER	IQUANT	3	Vch Filter
ACHRANGE	IQUANT	2	Ach Range
ACHOFFSETENABLE	TOGGLE	F	Ach Offset Enable
ACHOFFSET	QUANT	0	Ach Offset (V)
ACHFILTER	IQUANT	3	Ach Filter
IERANGELOWERLIMIT	IQUANT	2	I/E Range Lower Limit
IERANGEMODE	TOGGLE	F	I/E AutoRange
IERANGE	IQUANT	11	I/E Range
POSFEEDENABLE	TOGGLE	F	Positive Feedback IR Comp
POSFEEDRESISTANCE	QUANT	0	Positive Feedback Resistance (ohm)
ACHSELECT	IQUANT	0	Ach Select
CABLEID	IQUANT	13	Cable ID
DCCALDATE	LABEL	7/31/2020	DC Calibration Date
ACCALDATE	LABEL	7/31/2020	AC Calibration Date
THERMOSELECT	IQUANT	1	Thermo Select
FRAMEWORKVERSION	QUANT	6.33	Framework Version
INSTRUMENTVERSION	LABEL	3.50	Instrument Version
COMPLIANCEVOLTAGE	IQUANT	0	Compliance Voltage
ZCURVE	TABLE
	Pt	Time	Freq	Zreal	Zimag	Zsig	Zmod	Zphz	Idc	Vdc	IERange
	#	s	Hz	ohm	ohm	V	ohm	°	A	V	#
	0	16	300046.9	856.4876	-1336.733	1	1587.585	-57.35101	-0.000105	0.0178171	9
	1	31	238359.4	1078.671	-1520.688	1	1864.409	-54.65075	-0.0007075	0.0124791	9
	2	46	189328.1	1244.735	-1571.144	1	2004.46	-51.61205	0.0004284	0.002667	9
	3	54	150421.9	1660.775	-1714.418	1	2386.923	-45.91055	-0.000532	0.002563	9
	4	61	119484.4	1929.898	-1905.582	1	2712.149	-44.63676	-0.0008674	0.0037091	10
	5	70	94921.88	2340.565	-1843.453	1	2979.356	-38.22433	-0.0001437	-0.0019737	9
	6	79	75421.88	3050.894	-1150.381	1	3260.572	-20.65964	4.740004E-005	-0.0504259	8
	7	87	59859.37	3461.19	-1225.099	1	3671.608	-19.49158	2.303895E-005	-0.0509157	8
	8	94	47578.12	3264.485	-1629.257	1	3648.471	-26.52311	0.0003007	-0.0075582	9
	9	103	37828.12	3480.879	-1514.887	1	3796.235	-23.51879	-5.269383E-005	-0.0053916	9
	10	113	30046.88	4047.025	-1283.212	1	4245.591	-17.59254	-0.0001394	0.0269272	8
	11	120	23859.38	4003.733	-1255.129	1	4195.858	-17.40567	-0.0002897	0.0072313	9
	12	126	18984.38	4293.124	-972.176	1	4401.822	-12.75941	1.155013E-005	0.0437983	8
	13	133	15046.87	4285.223	-1123.451	1	4430.042	-14.69054	0.000147	-0.0263769	8
	14	138	11953.13	4286.382	-1306.887	1	4481.186	-16.95609	4.433364E-005	0.0060829	9
	15	145	9515.62	4858.509	-1258.96	1	5018.973	-14.52723	-0.0001196	0.0076582	8
	16	150	7546.875	4677.185	-1125.28	1	4810.646	-13.52765	-0.0002176	0.0111461	9
	17	156	5928.309	4975.225	-1014.72	1	5077.649	-11.52763	0.0002265	-0.001461	9
	18	164	4733.456	4848.623	-1169.639	1	4987.705	-13.56241	-0.0002631	0.0046154	9
	19	172	3796.875	5016.329	-1329.619	1	5189.551	-14.84534	-0.0001543	0.0107586	9
	20	178	2987.132	5288.66	-1170.094	1	5416.553	-12.47549	-0.0002667	0.0107471	9
	21	186	2390.625	5450.614	-1157.677	1	5572.199	-11.99108	-8.241215E-005	0.0558038	8
	22	193	1884.191	5780.889	-1411.926	1	5950.816	-13.72523	4.271628E-005	-0.0081253	9
	23	200	1516.544	6019.81	-1525.876	1	6210.186	-14.22352	-0.0001355	0.0493194	8
	24	206	1193.986	5702.469	-1683.065	1	5945.659	-16.44379	-0.0002183	0.0016542	9
	25	213	946.5144	5558.71	-703.6055	1	5603.063	-7.213972	0.0002248	-0.001314	9
	26	218	751.7689	7691.451	-2173.397	1	7992.626	-15.77886	0.0001295	-0.0099135	9
	27	224	597.4265	6004.149	-901.137	1	6071.396	-8.535569	0.000301	-0.0098687	9
	28	229	477.4305	6950	-2179.785	1	7283.815	-17.41341	1.883348E-007	5.802001E-005	9
	29	233	376.6741	9390.015	-2927.566	1	9835.8	-17.31614	-5.874684E-007	0.0004869	7
	30	235	298.2954	9821.94	-3203.005	1	10331.01	-18.06152	-5.765834E-007	0.0005598	7
	31	237	237.7717	10385.8	-3490.396	1	10956.63	-18.57614	-6.185491E-007	0.0007396	7
	32	240	189.0121	10694.28	-3684.96	1	11311.35	-19.01256	-5.71868E-007	0.0004995	7
	33	242	150.2404	11261.02	-3940.73	1	11930.63	-19.2872	-6.014052E-007	0.0007379	7
	34	245	119.1737	11943.37	-4348.651	1	12710.42	-20.00686	-6.167779E-007	0.00072	7
	35	247	95.0169	12198.72	-4569.689	1	13026.54	-20.53615	-5.764799E-007	0.0007199	7
	36	250	75.60484	12902	-5027.3	1	13846.85	-21.28852	-5.947429E-007	0.0004986	7
	37	252	54.50582	13484.51	-5649.842	1	14620.28	-22.73308	-5.946179E-007	0.0006833	7
	38	255	45.95588	13961.63	-6120.978	1	15244.46	-23.67333	-5.732077E-007	0.000515	7
	39	257	37.20238	14524.26	-6845.27	1	16056.52	-25.23446	-6.016343E-007	0.0007209	7
	40	260	30.04808	15018.59	-7621.995	1	16841.99	-26.90798	-5.947269E-007	0.0007116	7
	41	263	23.91582	15756.04	-8797.965	1	18045.97	-29.17842	-6.005416E-007	0.0005105	7
	42	265	18.60119	16562.46	-10182.6	1	19442.24	-31.5832	-5.693721E-007	0.0006863	7
	43	267	15.02404	17887.2	-11842.85	1	21452.39	-33.50795	-6.011097E-007	0.0007012	7
	44	270	12.01923	19135.58	-13520.87	1	23430.42	-35.24435	-6.060617E-007	0.0007063	7
	45	272	9.450605	21203	-15642.34	1	26348.62	-36.41774	-6.014297E-007	0.0007138	7
	46	275	7.512019	23286.46	-17532.54	1	29148.75	-36.97635	-5.833029E-007	0.0005739	7
	47	278	5.978954	26315.24	-19327.81	1	32650.52	-36.29625	-5.981096E-007	0.0006912	7
	48	283	4.734848	29540.19	-20767.04	1	36109.45	-35.10759	-5.833082E-007	0.0004918	7
	49	287	3.75601	33140.26	-21619.98	1	39568.93	-33.11955	-5.928534E-007	0.0005169	7
	50	292	3.004808	36534.33	-21693.18	1	42489.43	-30.70079	-6.009548E-007	0.0006616	7
	51	299	2.372217	40347.39	-21679.72	1	45803.08	-28.25032	-6.043609E-007	0.0005835	7
	52	303	1.878005	43008.57	-20168.56	1	47502.71	-25.12389	-6.020235E-007	0.0006192	7
	53	312	1.512097	45149.84	-18826.97	1	48917.93	-22.63558	-6.001455E-007	0.000503	7
	54	323	1.201923	47287.8	-17479.15	1	50414.85	-20.286	-6.060474E-007	0.0006246	7
	55	335	0.956633	51756.9	-17065.99	1	54497.93	-18.24913	-1.15901E-007	2.546909E-005	6
