EXPLAIN
TAG	EISPOT
TITLE	LABEL	Potentiostatic EIS	Test Identifier
DATE	LABEL	8/25/2020	Date
TIME	LABEL	2:35:46	Time
NOTES	NOTES	1	Notes...
	
PSTAT	PSTAT	REF3000-16137	Potentiostat
VDC	POTEN	0.00000E+000	T	DC Voltage (V)
FREQINIT	QUANT	3.00000E+005	Initial Freq. (Hz)
FREQFINAL	QUANT	1.00000E+000	Final Freq. (Hz)
PTSPERDEC	QUANT	1.00000E+001	Points/decade
VAC	QUANT	5.00000E+001	AC Voltage (mV rms)
AREA	QUANT	1.00000E+000	Sample Area (cm^2)
SPEED	SELECTOR	2	Optimize for:
ZGUESS	QUANT	1.00000E+003	Estimated Z (ohms)
EOC	QUANT	0	Open Circuit (V)
SEQUENCER	TOGGLE	TRUE	Run as Sequence
PSTATMODEL	IQUANT	5	Pstat Model
PSTATSECTION	LABEL	REF3000-16137	Pstat Section
PSTATSERIALNO	LABEL	16137	Pstat Serial Number
CTRLMODE	IQUANT	1	Control Mode
IESTAB	IQUANT	0	I/E Stability
CASPEED	IQUANT	1	Control Amp Speed
CONVENTION	IQUANT	1	Current Convention
ICHRANGE	IQUANT	2	Ich Range
ICHRANGEMODE	TOGGLE	F	Ich Auto Range
ICHOFFSETENABLE	TOGGLE	T	Ich Offset Enable
ICHOFFSET	QUANT	0	Ich Offset (V)
ICHFILTER	IQUANT	3	Ich Filter
VCHRANGE	IQUANT	2	Vch Range
VCHRANGEMODE	TOGGLE	F	Vch Auto Range
VCHOFFSETENABLE	TOGGLE	T	Vch Offset Enable
VCHOFFSET	QUANT	0	Vch Offset (V)
VCHFILTER	IQUANT	3	Vch Filter
ACHRANGE	IQUANT	2	Ach Range
ACHOFFSETENABLE	TOGGLE	F	Ach Offset Enable
ACHOFFSET	QUANT	0	Ach Offset (V)
ACHFILTER	IQUANT	3	Ach Filter
IERANGELOWERLIMIT	IQUANT	2	I/E Range Lower Limit
IERANGEMODE	TOGGLE	F	I/E AutoRange
IERANGE	IQUANT	11	I/E Range
POSFEEDENABLE	TOGGLE	F	Positive Feedback IR Comp
POSFEEDRESISTANCE	QUANT	0	Positive Feedback Resistance (ohm)
ACHSELECT	IQUANT	0	Ach Select
CABLEID	IQUANT	13	Cable ID
DCCALDATE	LABEL	7/31/2020	DC Calibration Date
ACCALDATE	LABEL	7/31/2020	AC Calibration Date
THERMOSELECT	IQUANT	1	Thermo Select
FRAMEWORKVERSION	QUANT	6.33	Framework Version
INSTRUMENTVERSION	LABEL	3.50	Instrument Version
COMPLIANCEVOLTAGE	IQUANT	0	Compliance Voltage
ZCURVE	TABLE
	Pt	Time	Freq	Zreal	Zimag	Zsig	Zmod	Zphz	Idc	Vdc	IERange
	#	s	Hz	ohm	ohm	V	ohm	°	A	V	#
	0	15	300046.9	840.9827	-1332.31	1	1575.532	-57.739	0.0002352	0.0100542	9
	1	30	238359.4	920.0883	-1399.187	1	1674.6	-56.67157	-0.0005509	0.0027148	9
	2	44	189328.1	1307.824	-1664.461	1	2116.799	-51.84206	0.0006095	-0.0309398	9
	3	51	150421.9	1558.284	-1599.926	1	2233.386	-45.75542	0.0007064	-0.0142737	9
	4	60	119484.4	1957.135	-1795.816	1	2656.187	-42.53867	-0.0007368	0.0350193	9
	5	69	94921.88	2299.221	-1792.412	1	2915.332	-37.93904	0.0001456	0.0022611	9
	6	78	75421.88	2647.282	-1780.712	1	3190.46	-33.92701	-5.273736E-005	-0.005387	9
	7	88	59859.37	2886.74	-2032.412	1	3530.434	-35.14751	-0.0002615	0.0046165	9
	8	97	47578.12	3207.558	-1614.855	1	3591.126	-26.72311	0.000147	0.0023197	9
	9	106	37828.12	3495.797	-1531.996	1	3816.754	-23.66493	0.0002653	-0.0108111	9
	10	115	30046.88	3642.973	-1461.436	1	3925.181	-21.85897	0.0001421	0.0023932	9
	11	125	23859.38	4125.727	-1163.877	1	4286.751	-15.75388	0.0001437	-0.0261167	8
	12	130	18984.38	4222.484	-1099.867	1	4363.379	-14.5999	-2.37449E-006	-0.040368	8
	13	137	15046.87	4416.167	-922.8052	1	4511.552	-11.80273	1.125629E-005	0.0437524	8
	14	143	11953.13	4400.12	-1116.991	1	4539.684	-14.24392	-5.155605E-005	-0.0256228	8
	15	148	9515.62	4496.785	-1227.846	1	4661.403	-15.27231	-0.0002645	0.004625	9
	16	155	7546.875	4629.405	-1197.008	1	4781.655	-14.49724	-5.32699E-005	-0.0053502	9
	17	161	5928.309	4709.647	-1243.797	1	4871.12	-14.79379	0.0002836	-0.0052178	9
	18	168	4733.456	4933.724	-1148.599	1	5065.66	-13.10534	-0.0002646	0.0046413	9
	19	176	3796.875	5110.049	-1321.294	1	5278.107	-14.49733	0.0002122	-0.011269	9
	20	182	2987.132	5522.047	-1443.398	1	5707.574	-14.64869	0.0002272	-0.001534	9
	21	189	2390.625	5551.652	-1429.527	1	5732.747	-14.43974	-0.0002175	0.0112421	9
	22	197	1884.191	5473.705	-1381.968	1	5645.465	-14.16958	0.0002956	-0.0096084	9
	23	203	1516.544	5780.531	-1554.413	1	5985.878	-15.05108	-0.0001358	0.04929	8
	24	210	1193.986	6327.145	-1898.975	1	6605.972	-16.70615	-0.0002187	0.001623	9
	25	216	946.5144	6500.446	-1440.87	1	6658.221	-12.49795	-0.0002211	0.0017101	9
	26	221	751.7689	6681.019	-1544.069	1	6857.125	-13.01331	0.000134	-0.0100263	9
	27	226	597.4265	7454.958	-2445.965	1	7845.963	-18.16461	-7.861767E-005	0.0556711	8
	28	231	477.4305	7206.967	-2260.951	1	7553.295	-17.41755	-1.662197E-006	0.0006196	8
	29	236	376.6741	9388.861	-2918.41	1	9831.98	-17.2672	-5.923358E-007	0.0005136	7
	30	238	298.2954	9874.46	-3202.238	1	10380.72	-17.96762	-6.103816E-007	0.0006903	7
	31	240	237.7717	10233.09	-3421.595	1	10789.97	-18.48816	-5.852972E-007	0.0005485	7
	32	243	189.0121	10733.87	-3702.917	1	11354.63	-19.03316	-5.879692E-007	0.0006309	7
	33	245	150.2404	11257.21	-4057.438	1	11966.1	-19.8207	-6.008343E-007	0.0007365	7
	34	248	119.1737	11712.84	-4243.393	1	12457.81	-19.91471	-5.872094E-007	0.0005448	7
	35	251	95.0169	12266.72	-4582.875	1	13094.86	-20.4858	-6.032125E-007	0.0006345	7
	36	253	75.60484	12725.49	-4946.074	1	13652.9	-21.23984	-5.888591E-007	0.0007127	7
	37	256	54.50582	13521.36	-5664.362	1	14659.89	-22.72976	-5.910201E-007	0.0006266	7
	38	258	45.95588	13793.84	-6036.261	1	15056.78	-23.63445	-5.692614E-007	0.000513	7
	39	261	37.20238	14397.9	-6765.934	1	15908.41	-25.17001	-5.878886E-007	0.0007406	7
	40	263	30.04808	14931.42	-7554.47	1	16733.72	-26.83687	-5.896167E-007	0.0005521	7
	41	266	23.91582	15681.9	-8693.643	1	17930.46	-29.00286	-5.975672E-007	0.0005914	7
	42	269	18.60119	16580.44	-10177.79	1	19455.04	-31.54339	-5.917428E-007	0.0007172	7
	43	271	15.02404	17582.67	-11561.12	1	21043.05	-33.3261	-5.625041E-007	0.0005103	7
	44	273	12.01923	19111.84	-13423.61	1	23355	-35.0831	-5.928352E-007	0.0004847	7
	45	276	9.450605	20878.3	-15319.31	1	25895.65	-36.26911	-5.885884E-007	0.0007461	7
	46	279	7.512019	23357.24	-17321.1	1	29078.88	-36.55963	-5.907527E-007	0.0004905	7
	47	282	5.978954	26143.38	-19005.02	1	32321.31	-36.01542	-6.032631E-007	0.0006941	7
	48	286	4.734848	29321.01	-20403.48	1	35721.47	-34.83273	-5.902545E-007	0.0007414	7
	49	290	3.75601	32847.64	-21193.49	1	39091.32	-32.83034	-5.896409E-007	0.0005908	7
	50	295	3.004808	36123.19	-21239.89	1	41904.86	-30.45489	-5.811345E-007	0.0005308	7
	51	302	2.372217	39831.42	-21164.36	1	45105.12	-27.98387	-5.954734E-007	0.0006837	7
	52	306	1.878005	42529.61	-19774.22	1	46901.89	-24.93616	-6.020496E-007	0.0005867	7
	53	315	1.512097	44717.34	-18525.04	1	48402.66	-22.50274	-6.065585E-007	0.0006878	7
	54	325	1.201923	46667.96	-17165.36	1	49724.72	-20.19448	-6.018553E-007	0.000578	7
	55	338	0.956633	51329.78	-16770.98	1	54000.11	-18.09377	-1.235957E-007	2.338932E-005	6
