EXPLAIN
TAG	EISPOT
TITLE	LABEL	Potentiostatic EIS	Test Identifier
DATE	LABEL	8/25/2020	Date
TIME	LABEL	2:06:33	Time
NOTES	NOTES	1	Notes...
	
PSTAT	PSTAT	REF3000-16137	Potentiostat
VDC	POTEN	0.00000E+000	T	DC Voltage (V)
FREQINIT	QUANT	3.00000E+005	Initial Freq. (Hz)
FREQFINAL	QUANT	1.00000E+000	Final Freq. (Hz)
PTSPERDEC	QUANT	1.00000E+001	Points/decade
VAC	QUANT	5.00000E+001	AC Voltage (mV rms)
AREA	QUANT	1.00000E+000	Sample Area (cm^2)
SPEED	SELECTOR	2	Optimize for:
ZGUESS	QUANT	1.00000E+003	Estimated Z (ohms)
EOC	QUANT	0	Open Circuit (V)
SEQUENCER	TOGGLE	TRUE	Run as Sequence
PSTATMODEL	IQUANT	5	Pstat Model
PSTATSECTION	LABEL	REF3000-16137	Pstat Section
PSTATSERIALNO	LABEL	16137	Pstat Serial Number
CTRLMODE	IQUANT	1	Control Mode
IESTAB	IQUANT	0	I/E Stability
CASPEED	IQUANT	1	Control Amp Speed
CONVENTION	IQUANT	1	Current Convention
ICHRANGE	IQUANT	2	Ich Range
ICHRANGEMODE	TOGGLE	F	Ich Auto Range
ICHOFFSETENABLE	TOGGLE	T	Ich Offset Enable
ICHOFFSET	QUANT	0	Ich Offset (V)
ICHFILTER	IQUANT	3	Ich Filter
VCHRANGE	IQUANT	2	Vch Range
VCHRANGEMODE	TOGGLE	F	Vch Auto Range
VCHOFFSETENABLE	TOGGLE	T	Vch Offset Enable
VCHOFFSET	QUANT	0	Vch Offset (V)
VCHFILTER	IQUANT	3	Vch Filter
ACHRANGE	IQUANT	2	Ach Range
ACHOFFSETENABLE	TOGGLE	F	Ach Offset Enable
ACHOFFSET	QUANT	0	Ach Offset (V)
ACHFILTER	IQUANT	3	Ach Filter
IERANGELOWERLIMIT	IQUANT	2	I/E Range Lower Limit
IERANGEMODE	TOGGLE	F	I/E AutoRange
IERANGE	IQUANT	11	I/E Range
POSFEEDENABLE	TOGGLE	F	Positive Feedback IR Comp
POSFEEDRESISTANCE	QUANT	0	Positive Feedback Resistance (ohm)
ACHSELECT	IQUANT	0	Ach Select
CABLEID	IQUANT	13	Cable ID
DCCALDATE	LABEL	7/31/2020	DC Calibration Date
ACCALDATE	LABEL	7/31/2020	AC Calibration Date
THERMOSELECT	IQUANT	1	Thermo Select
FRAMEWORKVERSION	QUANT	6.33	Framework Version
INSTRUMENTVERSION	LABEL	3.50	Instrument Version
COMPLIANCEVOLTAGE	IQUANT	0	Compliance Voltage
ZCURVE	TABLE
	Pt	Time	Freq	Zreal	Zimag	Zsig	Zmod	Zphz	Idc	Vdc	IERange
	#	s	Hz	ohm	ohm	V	ohm	°	A	V	#
	0	16	300046.9	830.2489	-1315.463	1	1555.556	-57.7421	-0.000711	0.0126142	9
	1	30	238359.4	1023.57	-1491.077	1	1808.592	-55.53181	0.0003052	-0.0188161	9
	2	44	189328.1	1274.826	-1551.743	1	2008.255	-50.59537	-0.0008186	0.0227853	9
	3	51	150421.9	1504.415	-1737.345	1	2298.18	-49.10982	-0.0008022	0.0225576	9
	4	60	119484.4	1903.404	-1803.678	1	2622.251	-43.45903	-0.0002706	-0.0012649	10
	5	70	94921.88	2288.377	-1788.842	1	2904.587	-38.01501	4.325406E-005	0.0059961	9
	6	78	75421.88	2626.481	-1772.23	1	3168.47	-34.00968	0.0002264	-0.0015296	9
	7	87	59859.37	3032.994	-1650.79	1	3453.137	-28.55845	4.409673E-005	-0.0082487	9
	8	95	47578.12	3416.19	-1328.727	1	3665.497	-21.25355	0.0001469	-0.0517718	8
	9	103	37828.12	3615.411	-1264.006	1	3830.001	-19.27045	0.0001249	-0.0558565	8
	10	110	30046.88	3625.773	-1501.019	1	3924.192	-22.48887	0.0002622	-0.0107884	9
	11	119	23859.38	3905.235	-1314.398	1	4120.498	-18.60186	0.0002997	-0.0076435	9
	12	125	18984.38	4056.989	-1295.752	1	4258.889	-17.71283	0.0002239	-0.0013182	9
	13	133	15046.87	4250.801	-1354.51	1	4461.391	-17.67439	0.0001431	0.0024694	9
	14	140	11953.13	4310.482	-1122.908	1	4454.343	-14.60138	-0.0002645	0.0047022	9
	15	148	9515.62	4499.774	-1171.14	1	4649.681	-14.58851	-5.217266E-005	-0.005343	9
	16	156	7546.875	5071.839	-1184.935	1	5208.418	-13.15016	0.00014	-0.0427062	8
	17	161	5928.309	4710.082	-1291.336	1	4883.894	-15.33172	-5.475202E-005	0.0088096	9
	18	168	4733.456	5092.887	-1175.917	1	5226.88	-13.0014	-5.329643E-005	-0.0257392	8
	19	173	3796.875	5160.505	-1159.417	1	5289.146	-12.66245	-3.621613E-005	0.0525312	8
	20	179	2987.132	5382.724	-1163.963	1	5507.134	-12.2018	0.0002832	-0.0051872	9
	21	186	2390.625	5186.422	-1724.563	1	5465.628	-18.39274	0.0002271	-0.0015166	9
	22	193	1884.191	4970.423	-1467.001	1	5182.393	-16.44376	-0.0002909	0.00936	9
	23	200	1516.544	5903.406	-1461.033	1	6081.515	-13.9008	-0.0001127	0.0546472	8
	24	207	1193.986	5362.22	-937.0234	1	5443.475	-9.91209	0.000227	-0.0014782	9
	25	214	946.5144	6533.952	-1619.893	1	6731.759	-13.92399	-5.142699E-005	-0.0054417	9
	26	219	751.7689	7588.091	-680.3248	1	7618.528	-5.123264	-3.321717E-005	0.0522926	8
	27	222	597.4265	8907.255	-740.2111	1	8937.958	-4.750481	-0.0002186	0.0016919	9
	28	228	477.4305	6875.884	-2161.052	1	7207.491	-17.44764	-1.878841E-008	9.356629E-005	9
	29	233	376.6741	9324.923	-2908.778	1	9768.07	-17.32457	-5.848867E-007	0.0006307	7
	30	235	298.2954	9717.04	-3158.197	1	10217.39	-18.00501	-5.867548E-007	0.0006889	7
	31	237	237.7717	10206.26	-3406.272	1	10759.67	-18.45609	-5.954589E-007	0.0004828	7
	32	240	189.0121	10665.66	-3669.421	1	11279.22	-18.98531	-6.003935E-007	0.000631	7
	33	242	150.2404	11094.5	-3864.19	1	11748.19	-19.20312	-6.066486E-007	0.000737	7
	34	245	119.1737	11634.8	-4307.829	1	12406.69	-20.31726	-5.80841E-007	0.00048	7
	35	247	95.0169	12154.85	-4532.6	1	12972.46	-20.45072	-5.841208E-007	0.0005464	7
	36	250	75.60484	12672.89	-4900.507	1	13587.39	-21.14109	-6.037448E-007	0.0007154	7
	37	252	54.50582	13413.6	-5552.397	1	14517.36	-22.48652	-5.74497E-007	0.0004937	7
	38	255	45.95588	13794.63	-5980.325	1	15035.16	-23.43797	-5.870551E-007	0.0004832	7
	39	257	37.20238	14268.07	-6634.943	1	15735.32	-24.93939	-5.807374E-007	0.0007387	7
	40	260	30.04808	14863.68	-7486.359	1	16642.55	-26.73293	-5.977498E-007	0.0007329	7
	41	263	23.91582	15529.01	-8526.507	1	17715.85	-28.76985	-5.790876E-007	0.0006912	7
	42	265	18.60119	16544.22	-10011.9	1	19337.77	-31.18065	-5.938444E-007	0.0005007	7
	43	267	15.02404	17606.53	-11475.6	1	21016.17	-33.09554	-5.921211E-007	0.000491	7
	44	270	12.01923	18859.38	-13110.31	1	22968.6	-34.80555	-5.960001E-007	0.0007083	7
	45	272	9.450605	20958.41	-15091.79	1	25826.68	-35.757	-6.068687E-007	0.000713	7
	46	275	7.512019	23151.04	-16916.14	1	28672.75	-36.15507	-5.951571E-007	0.00054	7
	47	278	5.978954	25872.57	-18536.36	1	31827.45	-35.61964	-6.057112E-007	0.0007105	7
	48	283	4.734848	29096.26	-19900.03	1	35250.58	-34.36969	-5.844601E-007	0.0005017	7
	49	286	3.75601	32441.35	-20620.82	1	38440.34	-32.44143	-5.915874E-007	0.0007526	7
	50	292	3.004808	35729.61	-20664.75	1	41275.14	-30.04358	-5.879803E-007	0.0005175	7
	51	298	2.372217	39123.51	-20430.41	1	44136.73	-27.5737	-5.981446E-007	0.0005612	7
	52	302	1.878005	41756.41	-19105.91	1	45919.86	-24.58677	-5.96366E-007	0.0006008	7
	53	311	1.512097	43875.36	-17987.78	1	47419.49	-22.29238	-6.000024E-007	0.000644	7
	54	322	1.201923	45975.13	-16673.94	1	48905.35	-19.93434	-5.993358E-007	0.000624	7
	55	335	0.956633	48002.76	-15533.07	1	50453.36	-17.93091	-6.302166E-007	-2.952914E-005	7
