EXPLAIN
TAG	EISPOT
TITLE	LABEL	Potentiostatic EIS	Test Identifier
DATE	LABEL	8/25/2020	Date
TIME	LABEL	0:33:52	Time
NOTES	NOTES	1	Notes...
	
PSTAT	PSTAT	REF3000-16137	Potentiostat
VDC	POTEN	0.00000E+000	T	DC Voltage (V)
FREQINIT	QUANT	3.00000E+005	Initial Freq. (Hz)
FREQFINAL	QUANT	1.00000E+000	Final Freq. (Hz)
PTSPERDEC	QUANT	1.00000E+001	Points/decade
VAC	QUANT	5.00000E+001	AC Voltage (mV rms)
AREA	QUANT	1.00000E+000	Sample Area (cm^2)
SPEED	SELECTOR	2	Optimize for:
ZGUESS	QUANT	1.00000E+003	Estimated Z (ohms)
EOC	QUANT	0	Open Circuit (V)
SEQUENCER	TOGGLE	TRUE	Run as Sequence
PSTATMODEL	IQUANT	5	Pstat Model
PSTATSECTION	LABEL	REF3000-16137	Pstat Section
PSTATSERIALNO	LABEL	16137	Pstat Serial Number
CTRLMODE	IQUANT	1	Control Mode
IESTAB	IQUANT	0	I/E Stability
CASPEED	IQUANT	1	Control Amp Speed
CONVENTION	IQUANT	1	Current Convention
ICHRANGE	IQUANT	2	Ich Range
ICHRANGEMODE	TOGGLE	F	Ich Auto Range
ICHOFFSETENABLE	TOGGLE	T	Ich Offset Enable
ICHOFFSET	QUANT	0	Ich Offset (V)
ICHFILTER	IQUANT	3	Ich Filter
VCHRANGE	IQUANT	2	Vch Range
VCHRANGEMODE	TOGGLE	F	Vch Auto Range
VCHOFFSETENABLE	TOGGLE	T	Vch Offset Enable
VCHOFFSET	QUANT	0	Vch Offset (V)
VCHFILTER	IQUANT	3	Vch Filter
ACHRANGE	IQUANT	2	Ach Range
ACHOFFSETENABLE	TOGGLE	F	Ach Offset Enable
ACHOFFSET	QUANT	0	Ach Offset (V)
ACHFILTER	IQUANT	3	Ach Filter
IERANGELOWERLIMIT	IQUANT	2	I/E Range Lower Limit
IERANGEMODE	TOGGLE	F	I/E AutoRange
IERANGE	IQUANT	11	I/E Range
POSFEEDENABLE	TOGGLE	F	Positive Feedback IR Comp
POSFEEDRESISTANCE	QUANT	0	Positive Feedback Resistance (ohm)
ACHSELECT	IQUANT	0	Ach Select
CABLEID	IQUANT	13	Cable ID
DCCALDATE	LABEL	7/31/2020	DC Calibration Date
ACCALDATE	LABEL	7/31/2020	AC Calibration Date
THERMOSELECT	IQUANT	1	Thermo Select
FRAMEWORKVERSION	QUANT	6.33	Framework Version
INSTRUMENTVERSION	LABEL	3.50	Instrument Version
COMPLIANCEVOLTAGE	IQUANT	0	Compliance Voltage
ZCURVE	TABLE
	Pt	Time	Freq	Zreal	Zimag	Zsig	Zmod	Zphz	Idc	Vdc	IERange
	#	s	Hz	ohm	ohm	V	ohm	°	A	V	#
	0	16	300046.9	808.8463	-1356.921	1	1579.704	-59.20127	-0.0001105	0.01791	9
	1	31	238359.4	1185.366	-1350.33	1	1796.798	-48.72222	-0.0005291	0.0028384	9
	2	47	189328.1	1284.901	-1549.902	1	2013.248	-50.34057	0.0005995	-0.0059872	9
	3	56	150421.9	1616.689	-1677.138	1	2329.48	-46.05138	0.0007081	-0.0144374	9
	4	63	119484.4	1979.235	-1916.02	1	2754.724	-44.07024	0.0005558	0.0016672	10
	5	73	94921.88	2308.244	-1741.893	1	2891.744	-37.03965	0.0001442	0.0024094	9
	6	82	75421.88	2954.896	-1376.521	1	3259.789	-24.97817	0.0001467	-0.0518542	8
	7	90	59859.37	3238.979	-1269.149	1	3478.753	-21.39705	9.174807E-005	-0.0556086	8
	8	97	47578.12	3207.285	-1604.461	1	3586.22	-26.57675	0.000281	-0.0050807	9
	9	107	37828.12	3505.556	-1515.296	1	3819.037	-23.37668	-5.244942E-005	-0.0053048	9
	10	116	30046.88	3686.145	-1373.913	1	3933.866	-20.44162	0.0002939	-0.0095945	9
	11	124	23859.38	3796.882	-1389.415	1	4043.116	-20.09938	0.0002822	-0.0051888	9
	12	132	18984.38	3999.608	-1274.419	1	4197.739	-17.67374	-0.0001429	-0.0019489	9
	13	138	15046.87	4532.596	-1155.473	1	4677.558	-14.30152	-0.0001202	0.0103035	8
	14	144	11953.13	4858.058	-1130.376	1	4987.833	-13.09855	-0.0001004	0.0537136	8
	15	149	9515.62	4490.854	-1125.084	1	4629.642	-14.06471	-0.0002166	0.0017479	9
	16	156	7546.875	4526.009	-1141.31	1	4667.692	-14.15304	-0.0001432	0.0105215	9
	17	162	5928.309	4693.588	-1024.894	1	4804.183	-12.31778	0.0002829	-0.0051935	9
	18	169	4733.456	4972.66	-1375.477	1	5159.388	-15.46186	0.0002104	-0.0109753	9
	19	176	3796.875	4960.734	-1223.671	1	5109.428	-13.85661	-5.338308E-005	-0.0053556	9
	20	184	2987.132	5422.229	-1291.979	1	5574.027	-13.40222	4.266391E-005	-0.0504725	8
	21	189	2390.625	5399.329	-1599.629	1	5631.302	-16.50268	0.0001242	-0.0066342	8
	22	194	1884.191	5618.448	-1451.731	1	5802.972	-14.48759	-0.0002886	0.0072036	9
	23	201	1516.544	5992.217	-1460.033	1	6167.525	-13.69358	-0.0001127	0.0546276	8
	24	207	1193.986	6257.531	-1863.957	1	6529.245	-16.58743	4.155293E-005	-0.0503981	8
	25	213	946.5144	5309.998	-1383.649	1	5487.31	-14.60503	-0.0002905	0.0092518	9
	26	218	751.7689	5575.151	-1059.656	1	5674.961	-10.76171	-0.0002674	0.0046575	9
	27	223	597.4265	7185.11	-2258.783	1	7531.793	-17.45159	-0.0002903	0.0094135	9
	28	227	477.4305	6792.37	-2074.604	1	7102.131	-16.98432	2.994682E-007	6.282018E-005	9
	29	232	376.6741	9240.293	-2810.059	1	9658.13	-16.91501	-6.091697E-007	0.0005564	7
	30	234	298.2954	9678.4	-3061.836	1	10151.17	-17.55516	-6.199192E-007	0.0004924	7
	31	237	237.7717	10011.52	-3275.573	1	10533.75	-18.11708	-5.970377E-007	0.0007404	7
	32	239	189.0121	10516.61	-3541.565	1	11096.93	-18.61143	-6.158414E-007	0.0006983	7
	33	241	150.2404	10937.53	-3716.028	1	11551.55	-18.76521	-5.998883E-007	0.0004899	7
	34	244	119.1737	11548.82	-4076.308	1	12247.1	-19.44115	-6.112748E-007	0.0005902	7
	35	246	95.0169	11993.27	-4370.522	1	12764.8	-20.02247	-6.139122E-007	0.0007447	7
	36	249	75.60484	12440.9	-4691.82	1	13296.21	-20.6629	-6.054902E-007	0.0007125	7
	37	251	54.50582	13158.62	-5352.317	1	14205.51	-22.13421	-5.949528E-007	0.000518	7
	38	254	45.95588	13614.67	-5762.857	1	14784.1	-22.94211	-6.074214E-007	0.0006977	7
	39	256	37.20238	14060.05	-6359.509	1	15431.41	-24.33774	-6.080437E-007	0.0007175	7
	40	259	30.04808	14667.86	-7090.033	1	16291.56	-25.79782	-5.910074E-007	0.0004908	7
	41	262	23.91582	15348.05	-8108.899	1	17358.48	-27.84903	-6.139256E-007	0.000746	7
	42	264	18.60119	16332.11	-9429.833	1	18858.94	-30.00128	-6.12198E-007	0.0007562	7
	43	267	15.02404	17303.48	-10723.54	1	20356.94	-31.78785	-5.988544E-007	0.0007572	7
	44	269	12.01923	18661.32	-12271.93	1	22334.85	-33.32945	-6.057713E-007	0.0006991	7
	45	272	9.450605	20488.95	-13940.35	1	24781.66	-34.23073	-5.948168E-007	0.0006025	7
	46	275	7.512019	22663.95	-15556.94	1	27489.51	-34.46641	-5.998864E-007	0.0005418	7
	47	278	5.978954	25123.43	-16864.37	1	30258.78	-33.87191	-5.960873E-007	0.0004909	7
	48	282	4.734848	28100.54	-17930.07	1	33333.58	-32.54066	-6.158111E-007	0.0006858	7
	49	286	3.75601	31074.62	-18486.27	1	36157.63	-30.74839	-5.970435E-007	0.0006445	7
	50	292	3.004808	34006.75	-18498.45	1	38712.43	-28.54461	-5.940777E-007	0.0004672	7
	51	298	2.372217	37227.96	-18444.75	1	41546.71	-26.35631	-6.186635E-007	0.0006186	7
	52	302	1.878005	40042.45	-17575.58	1	43729.83	-23.69781	-6.193744E-007	0.0006074	7
	53	307	1.512097	41890.52	-16574.13	1	45050.16	-21.58641	-6.169425E-007	0.0005635	7
	54	318	1.201923	43657.28	-15280.99	1	46254.37	-19.29114	-6.175031E-007	0.0006042	7
	55	331	0.956633	45410.39	-14190.39	1	47575.95	-17.35361	-6.375765E-007	-2.285501E-005	7
