EXPLAIN
TAG	EISPOT
TITLE	LABEL	Potentiostatic EIS	Test Identifier
DATE	LABEL	8/25/2020	Date
TIME	LABEL	1:49:02	Time
NOTES	NOTES	1	Notes...
	
PSTAT	PSTAT	REF3000-16137	Potentiostat
VDC	POTEN	0.00000E+000	T	DC Voltage (V)
FREQINIT	QUANT	3.00000E+005	Initial Freq. (Hz)
FREQFINAL	QUANT	1.00000E+000	Final Freq. (Hz)
PTSPERDEC	QUANT	1.00000E+001	Points/decade
VAC	QUANT	5.00000E+001	AC Voltage (mV rms)
AREA	QUANT	1.00000E+000	Sample Area (cm^2)
SPEED	SELECTOR	2	Optimize for:
ZGUESS	QUANT	1.00000E+003	Estimated Z (ohms)
EOC	QUANT	0	Open Circuit (V)
SEQUENCER	TOGGLE	TRUE	Run as Sequence
PSTATMODEL	IQUANT	5	Pstat Model
PSTATSECTION	LABEL	REF3000-16137	Pstat Section
PSTATSERIALNO	LABEL	16137	Pstat Serial Number
CTRLMODE	IQUANT	1	Control Mode
IESTAB	IQUANT	0	I/E Stability
CASPEED	IQUANT	1	Control Amp Speed
CONVENTION	IQUANT	1	Current Convention
ICHRANGE	IQUANT	2	Ich Range
ICHRANGEMODE	TOGGLE	F	Ich Auto Range
ICHOFFSETENABLE	TOGGLE	T	Ich Offset Enable
ICHOFFSET	QUANT	0	Ich Offset (V)
ICHFILTER	IQUANT	3	Ich Filter
VCHRANGE	IQUANT	2	Vch Range
VCHRANGEMODE	TOGGLE	F	Vch Auto Range
VCHOFFSETENABLE	TOGGLE	T	Vch Offset Enable
VCHOFFSET	QUANT	0	Vch Offset (V)
VCHFILTER	IQUANT	3	Vch Filter
ACHRANGE	IQUANT	2	Ach Range
ACHOFFSETENABLE	TOGGLE	F	Ach Offset Enable
ACHOFFSET	QUANT	0	Ach Offset (V)
ACHFILTER	IQUANT	3	Ach Filter
IERANGELOWERLIMIT	IQUANT	2	I/E Range Lower Limit
IERANGEMODE	TOGGLE	F	I/E AutoRange
IERANGE	IQUANT	11	I/E Range
POSFEEDENABLE	TOGGLE	F	Positive Feedback IR Comp
POSFEEDRESISTANCE	QUANT	0	Positive Feedback Resistance (ohm)
ACHSELECT	IQUANT	0	Ach Select
CABLEID	IQUANT	13	Cable ID
DCCALDATE	LABEL	7/31/2020	DC Calibration Date
ACCALDATE	LABEL	7/31/2020	AC Calibration Date
THERMOSELECT	IQUANT	1	Thermo Select
FRAMEWORKVERSION	QUANT	6.33	Framework Version
INSTRUMENTVERSION	LABEL	3.50	Instrument Version
COMPLIANCEVOLTAGE	IQUANT	0	Compliance Voltage
ZCURVE	TABLE
	Pt	Time	Freq	Zreal	Zimag	Zsig	Zmod	Zphz	Idc	Vdc	IERange
	#	s	Hz	ohm	ohm	V	ohm	°	A	V	#
	0	15	300046.9	814.4332	-1337.472	1	1565.929	-58.66131	-0.0003474	-0.0062248	9
	1	30	238359.4	1138.291	-1481.169	1	1868.038	-52.45741	-0.0003363	-0.0060289	9
	2	44	189328.1	1261.971	-1616.099	1	2050.451	-52.01463	-0.000736	0.0355202	9
	3	52	150421.9	1604.508	-1704.66	1	2341.007	-46.73354	0.0006055	-0.0062601	9
	4	60	119484.4	1957.104	-1760.496	1	2632.414	-41.9727	-0.0005352	0.0026757	9
	5	68	94921.88	2310.69	-1808.568	1	2934.315	-38.05014	-0.0001451	0.0105829	9
	6	77	75421.88	2630.951	-1761.025	1	3165.93	-33.79634	0.0001343	-0.0100891	9
	7	86	59859.37	3019.426	-1680.519	1	3455.586	-29.09895	-0.0002194	0.0113846	9
	8	95	47578.12	3205.403	-1610.486	1	3587.238	-26.67625	4.73548E-005	-0.0082931	9
	9	104	37828.12	3437.875	-1500.567	1	3751.092	-23.58035	-0.0001441	0.0105031	9
	10	116	30046.88	3577.752	-1451.079	1	3860.821	-22.07669	-0.0001447	0.0105114	9
	11	126	23859.38	3760.223	-1256.075	1	3964.467	-18.47152	-5.675286E-005	0.0088944	9
	12	133	18984.38	4204.507	-916.0403	1	4303.139	-12.29102	-8.050759E-005	0.0561148	8
	13	138	15046.87	4322.161	-1111.16	1	4462.707	-14.41763	-5.873134E-005	-0.0243294	8
	14	143	11953.13	4283.777	-1124.229	1	4428.841	-14.70502	0.0002639	-0.0106907	9
	15	150	9515.62	4291.762	-1135.667	1	4439.478	-14.82164	0.0001414	-0.0101916	9
	16	157	7546.875	4514.389	-1264.443	1	4688.126	-15.64712	-0.0002672	0.0107798	9
	17	165	5928.309	4941.812	-1090.912	1	5060.79	-12.44848	-0.0001461	0.0402156	8
	18	171	4733.456	5104.366	-1203.029	1	5244.219	-13.26181	0.00021	-0.0109483	9
	19	178	3796.875	4879.375	-1031.041	1	4987.119	-11.93142	-0.0001426	-0.0020584	9
	20	185	2987.132	5274.967	-1840.037	1	5586.682	-19.23002	0.0002832	-0.0052025	9
	21	192	2390.625	5132.716	-1116.923	1	5252.837	-12.27666	0.0002274	-0.0015075	9
	22	200	1884.191	5010.04	-1722.274	1	5297.804	-18.97116	0.0002101	-0.0109633	9
	23	207	1516.544	5447.808	-1443.271	1	5635.747	-14.83831	0.0003003	-0.0075853	9
	24	214	1193.986	5598.594	-1350.823	1	5759.252	-13.56501	-0.000218	0.0016338	9
	25	221	946.5144	7535.556	-355.5078	1	7543.937	-2.701062	0.0002639	-0.0107554	9
	26	226	751.7689	6276.837	-2202.86	1	6652.163	-19.33855	-0.0002175	0.0016238	9
	27	233	597.4265	5192.328	-1732.781	1	5473.829	-18.45485	-5.149906E-005	-0.0053864	9
	28	238	477.4305	7103.891	-2220.254	1	7442.768	-17.35614	-1.546287E-006	0.0005413	8
	29	242	376.6741	9289.913	-2882.617	1	9726.87	-17.23888	-6.008075E-007	0.000738	7
	30	244	298.2954	9686.29	-3159.473	1	10188.55	-18.06528	-5.996503E-007	0.0007205	7
	31	246	237.7717	10127.77	-3372.382	1	10674.48	-18.41692	-6.016908E-007	0.0007426	7
	32	249	189.0121	10592.61	-3631.448	1	11197.81	-18.92317	-5.842953E-007	0.0005162	7
	33	251	150.2404	11155.68	-3877.291	1	11810.27	-19.16551	-6.056176E-007	0.0007159	7
	34	254	119.1737	11605.42	-4194.112	1	12340.03	-19.86948	-5.893824E-007	0.0005193	7
	35	256	95.0169	12100.02	-4485.099	1	12904.51	-20.33817	-5.983691E-007	0.000688	7
	36	259	75.60484	12564.16	-4860.574	1	13471.57	-21.14948	-5.954789E-007	0.0007189	7
	37	261	54.50582	13328.17	-5471.214	1	14407.44	-22.31815	-5.929029E-007	0.0007114	7
	38	264	45.95588	13706.74	-5960.83	1	14946.78	-23.5034	-5.991962E-007	0.0007166	7
	39	266	37.20238	14197.89	-6557.688	1	15639.16	-24.79115	-5.811711E-007	0.0007446	7
	40	268	30.04808	14794.78	-7387.882	1	16536.82	-26.53558	-5.820399E-007	0.0005166	7
	41	271	23.91582	15478.45	-8443.512	1	17631.66	-28.61251	-5.816768E-007	0.0004823	7
	42	274	18.60119	16447.28	-9871.17	1	19182.1	-30.97093	-6.048657E-007	0.0005979	7
	43	276	15.02404	17525.62	-11320.64	1	20863.95	-32.86037	-5.920976E-007	0.0005134	7
	44	278	12.01923	18743.66	-12942.27	1	22777.78	-34.62461	-5.793061E-007	0.0006379	7
	45	281	9.450605	20837.79	-14865.36	1	25596.73	-35.50348	-5.880167E-007	0.0007084	7
	46	284	7.512019	22938.56	-16593.19	1	28310.97	-35.88105	-5.801492E-007	0.0005132	7
	47	287	5.978954	25720.05	-18182.68	1	31498.11	-35.25824	-6.01699E-007	0.0007404	7
	48	291	4.734848	28813.98	-19451.08	1	34764.79	-34.0216	-5.952517E-007	0.0007464	7
	49	295	3.75601	32117.37	-20101.01	1	37889	-32.04084	-5.978398E-007	0.000712	7
	50	301	3.004808	35276.65	-20187.89	1	40644.71	-29.78136	-6.0451E-007	0.0007237	7
	51	307	2.372217	38729.71	-19964.72	1	43572.7	-27.27058	-5.966297E-007	0.0006783	7
	52	311	1.878005	41202.51	-18715.17	1	45253.78	-24.4287	-6.027057E-007	0.0005907	7
	53	320	1.512097	43276.08	-17599.77	1	46717.99	-22.13089	-6.040035E-007	0.0007047	7
	54	331	1.201923	45297.34	-16316.92	1	48146.56	-19.80993	-6.012698E-007	0.0006224	7
	55	344	0.956633	47192.64	-15099.14	1	49549.27	-17.74191	-6.271001E-007	-3.083864E-005	7
