EXPLAIN
TAG	EISPOT
TITLE	LABEL	Potentiostatic EIS	Test Identifier
DATE	LABEL	8/24/2020	Date
TIME	LABEL	22:56:40	Time
NOTES	NOTES	1	Notes...
	
PSTAT	PSTAT	REF3000-16137	Potentiostat
VDC	POTEN	0.00000E+000	T	DC Voltage (V)
FREQINIT	QUANT	3.00000E+005	Initial Freq. (Hz)
FREQFINAL	QUANT	1.00000E+000	Final Freq. (Hz)
PTSPERDEC	QUANT	1.00000E+001	Points/decade
VAC	QUANT	5.00000E+001	AC Voltage (mV rms)
AREA	QUANT	1.00000E+000	Sample Area (cm^2)
SPEED	SELECTOR	2	Optimize for:
ZGUESS	QUANT	1.00000E+003	Estimated Z (ohms)
EOC	QUANT	0	Open Circuit (V)
SEQUENCER	TOGGLE	TRUE	Run as Sequence
PSTATMODEL	IQUANT	5	Pstat Model
PSTATSECTION	LABEL	REF3000-16137	Pstat Section
PSTATSERIALNO	LABEL	16137	Pstat Serial Number
CTRLMODE	IQUANT	1	Control Mode
IESTAB	IQUANT	0	I/E Stability
CASPEED	IQUANT	1	Control Amp Speed
CONVENTION	IQUANT	1	Current Convention
ICHRANGE	IQUANT	2	Ich Range
ICHRANGEMODE	TOGGLE	F	Ich Auto Range
ICHOFFSETENABLE	TOGGLE	T	Ich Offset Enable
ICHOFFSET	QUANT	0	Ich Offset (V)
ICHFILTER	IQUANT	3	Ich Filter
VCHRANGE	IQUANT	2	Vch Range
VCHRANGEMODE	TOGGLE	F	Vch Auto Range
VCHOFFSETENABLE	TOGGLE	T	Vch Offset Enable
VCHOFFSET	QUANT	0	Vch Offset (V)
VCHFILTER	IQUANT	3	Vch Filter
ACHRANGE	IQUANT	2	Ach Range
ACHOFFSETENABLE	TOGGLE	F	Ach Offset Enable
ACHOFFSET	QUANT	0	Ach Offset (V)
ACHFILTER	IQUANT	3	Ach Filter
IERANGELOWERLIMIT	IQUANT	2	I/E Range Lower Limit
IERANGEMODE	TOGGLE	F	I/E AutoRange
IERANGE	IQUANT	11	I/E Range
POSFEEDENABLE	TOGGLE	F	Positive Feedback IR Comp
POSFEEDRESISTANCE	QUANT	0	Positive Feedback Resistance (ohm)
ACHSELECT	IQUANT	0	Ach Select
CABLEID	IQUANT	13	Cable ID
DCCALDATE	LABEL	7/31/2020	DC Calibration Date
ACCALDATE	LABEL	7/31/2020	AC Calibration Date
THERMOSELECT	IQUANT	1	Thermo Select
FRAMEWORKVERSION	QUANT	6.33	Framework Version
INSTRUMENTVERSION	LABEL	3.50	Instrument Version
COMPLIANCEVOLTAGE	IQUANT	0	Compliance Voltage
ZCURVE	TABLE
	Pt	Time	Freq	Zreal	Zimag	Zsig	Zmod	Zphz	Idc	Vdc	IERange
	#	s	Hz	ohm	ohm	V	ohm	°	A	V	#
	0	16	300046.9	219.627	-2675.662	1	2684.661	-85.3075	-0.0001512	-0.013858	9
	1	31	238359.4	653.9899	-3543.571	1	3603.415	-79.54334	0.0007303	0.0003133	10
	2	46	189328.1	465.1856	-3921.909	1	3949.401	-83.23563	0.0003493	-0.0017233	10
	3	55	150421.9	-256.5016	-4990.398	1	4996.986	-92.94236	0.0001436	0.0028351	10
	4	64	119484.4	91.94416	-5998.083	1	5998.787	-89.12179	0.00021	0.010134	9
	5	73	94921.88	2367.499	-7549.611	1	7912.123	-72.58898	0.0001524	-0.0257532	8
	6	81	75421.88	200.7246	-9895.23	1	9897.26	-88.83791	-0.0001414	-0.0021051	9
	7	91	59859.37	2084.639	-12648.16	1	12818.8	-80.64079	0.0001297	-0.0589832	8
	8	99	47578.12	1036.303	-14653.94	1	14690.54	-85.95487	-0.0002137	0.0015015	9
	9	110	37828.12	2188.963	-18919.85	1	19046.06	-83.40041	-0.0000971	-0.0109234	8
	10	119	30046.88	4316.428	-23658.21	1	24048.76	-79.66015	9.393978E-005	-0.0595667	8
	11	127	23859.38	1838.08	-34962.86	1	35011.14	-86.99059	0.0000988	0.0152712	8
	12	135	18984.38	2569.244	-41635.21	1	41714.41	-86.46884	0.0001528	-0.054386	8
	13	141	15046.87	-12820.01	-57310.83	1	58727.2	-102.6091	-0.0002934	0.0091527	9
	14	150	11953.13	-71.8582	-58176.1	1	58176.14	-90.07077	-0.0001501	0.0107214	9
	15	158	9515.62	8392.512	-78314.55	1	78762.96	-83.88329	0.0001301	-0.0589668	8
	16	166	7546.875	-13282.87	-99801.4	1	100681.5	-97.5811	1.579833E-005	0.0474686	8
	17	174	5928.309	-89931.46	-157553	1	181412.9	-119.7178	0.0000988	0.0152585	8
	18	181	4733.456	-12628.58	-160674.8	1	161170.3	-94.49405	0.0001239	-0.058895	8
	19	189	3796.875	24617.93	-112628.6	1	115287.7	-77.67042	0.0001519	-0.0260639	8
	20	197	2987.132	22283.68	-71613.48	1	75000.35	-72.71564	0.0002842	-0.0051035	9
	21	206	2390.625	38138.31	49726.43	1	62667.77	52.51315	-0.0002239	0.0014746	9
	22	217	1884.191	19374.67	33926.8	1	39069.24	60.27048	0.0001387	-0.010203	9
	23	226	1516.544	-44392.51	53930.77	1	69851.44	129.4591	-0.0001403	-0.0021575	9
	24	233	1193.986	-83219.23	-164016.1	1	183920.4	-116.9025	-4.959065E-005	-0.0055246	9
	25	241	946.5144	59037.57	28584.77	1	65593.62	25.8353	-2.960459E-005	0.0563159	8
	26	247	751.7689	18393.02	41829.09	1	45694.37	66.26402	0.0001495	-0.0261668	8
	27	252	597.4265	-85777.35	12202.95	1	86641.02	171.9033	-2.875809E-005	0.0554428	8
	28	257	477.4305	-156111.9	-1615864	1	1623388	-95.5183	-2.240244E-006	0.0006703	8
	29	261	376.6741	505390.7	-2748673	1	2794749	-79.58155	-8.584942E-008	0.0006329	6
	30	266	298.2954	3669830	-4421888	1	5746368	-50.30991	-8.745704E-009	0.0007753	5
	31	270	237.7717	3434009	-4673676	1	5799627	-53.69321	-8.514451E-009	0.0007892	5
	32	274	189.0121	4238475	-6039271	1	7378174	-54.93809	-8.685313E-009	0.0005615	5
	33	278	150.2404	2012199	-8964685	1	9187738	-77.34916	-8.742147E-009	0.0005456	5
	34	282	119.1737	4486504	3888676	1	5937215	40.91711	-9.221187E-009	0.0005311	5
	35	286	95.0169	4518696	-9176449	1	1.022868E+007	-63.7833	-8.768036E-009	0.0005927	5
	36	290	75.60484	4160591	-1.721078E+007	1	1.770654E+007	-76.40987	-8.848652E-009	0.0007694	5
	37	294	54.50582	7794881	-1.762817E+007	1	1.927466E+007	-66.1458	-8.682619E-009	0.0005375	5
	38	298	45.95588	9.477727E+007	-9.609726E+007	1	1.349719E+008	-45.39622	-2.928987E-010	0.0005194	4
	39	301	37.20238	4.848911E+007	-3.968143E+007	1	6.265628E+007	-39.29544	-5.600401E-010	0.0007699	4
	40	304	30.04808	-4182239	-9.866439E+007	1	9.875299E+007	-92.42723	-2.382968E-010	0.0005179	4
	41	308	23.91582	1.147431E+008	-2.965383E+007	1	1.18513E+008	-14.49029	-5.671548E-010	0.0006348	4
	42	312	18.60119	1.980786E+007	-6.223701E+007	1	6.531307E+007	-72.34555	-6.659793E-010	0.0006922	4
	43	316	15.02404	6.35152E+007	-1.744209E+008	1	1.856255E+008	-69.99096	-3.418631E-010	0.0005577	4
	44	319	12.01923	-8.863318E+008	-1.891356E+009	1	2.088734E+009	-115.1088	-7.742924E-011	0.0006158	4
	45	323	9.450605	1.254539E+008	-6.235266E+007	1	1.400947E+008	-26.42814	-2.219954E-010	0.0006815	4
	46	328	7.512019	1.300604E+008	-2.795238E+008	1	3.083006E+008	-65.04778	-3.553075E-010	0.0005328	4
	47	333	5.978954	3.731938E+007	-9.008017E+007	1	9.750474E+007	-67.49622	-8.740884E-008	0.000804	6
	48	341	4.734848	9.524324E+007	-1.086351E+008	1	1.444744E+008	-48.75811	-8.661249E-008	0.0005613	6
	49	350	3.75601	5.840841E+007	-1.126495E+008	1	1.268915E+008	-62.59341	-8.505386E-008	0.000545	6
	50	362	3.004808	1.836337E+008	-5241940	1	1.837085E+008	-1.6351	-8.792514E-008	0.0007475	6
	51	374	2.372217	1.109975E+008	-1.065386E+008	1	1.538536E+008	-43.82575	-8.354883E-009	0.0006506	5
	52	388	1.878005	1.018228E+009	1.081343E+009	1	1.485292E+009	46.72183	-2.873717E-010	0.0006481	4
	53	400	1.512097	3.627071E+009	-2.647928E+009	1	4.490787E+009	-36.13116	-2.770563E-011	0.0007707	3
	54	412	1.201923	-5.977221E+009	-1.797328E+009	1	6.241599E+009	-163.2642	-2.989407E-011	0.00074	3
	55	427	0.956633	-3.086611E+009	2.21391E+009	1	3.798495E+009	144.3495	-1.343653E-011	7.629854E-005	3
