EXPLAIN
TAG	EISPOT
TITLE	LABEL	Potentiostatic EIS	Test Identifier
DATE	LABEL	8/24/2020	Date
TIME	LABEL	21:42:12	Time
NOTES	NOTES	1	Notes...
	
PSTAT	PSTAT	REF3000-16137	Potentiostat
VDC	POTEN	0.00000E+000	T	DC Voltage (V)
FREQINIT	QUANT	3.00000E+005	Initial Freq. (Hz)
FREQFINAL	QUANT	1.00000E+000	Final Freq. (Hz)
PTSPERDEC	QUANT	1.00000E+001	Points/decade
VAC	QUANT	5.00000E+001	AC Voltage (mV rms)
AREA	QUANT	1.00000E+000	Sample Area (cm^2)
SPEED	SELECTOR	2	Optimize for:
ZGUESS	QUANT	1.00000E+003	Estimated Z (ohms)
EOC	QUANT	0	Open Circuit (V)
SEQUENCER	TOGGLE	TRUE	Run as Sequence
PSTATMODEL	IQUANT	5	Pstat Model
PSTATSECTION	LABEL	REF3000-16137	Pstat Section
PSTATSERIALNO	LABEL	16137	Pstat Serial Number
CTRLMODE	IQUANT	1	Control Mode
IESTAB	IQUANT	0	I/E Stability
CASPEED	IQUANT	1	Control Amp Speed
CONVENTION	IQUANT	1	Current Convention
ICHRANGE	IQUANT	2	Ich Range
ICHRANGEMODE	TOGGLE	F	Ich Auto Range
ICHOFFSETENABLE	TOGGLE	T	Ich Offset Enable
ICHOFFSET	QUANT	0	Ich Offset (V)
ICHFILTER	IQUANT	3	Ich Filter
VCHRANGE	IQUANT	2	Vch Range
VCHRANGEMODE	TOGGLE	F	Vch Auto Range
VCHOFFSETENABLE	TOGGLE	T	Vch Offset Enable
VCHOFFSET	QUANT	0	Vch Offset (V)
VCHFILTER	IQUANT	3	Vch Filter
ACHRANGE	IQUANT	2	Ach Range
ACHOFFSETENABLE	TOGGLE	F	Ach Offset Enable
ACHOFFSET	QUANT	0	Ach Offset (V)
ACHFILTER	IQUANT	3	Ach Filter
IERANGELOWERLIMIT	IQUANT	2	I/E Range Lower Limit
IERANGEMODE	TOGGLE	F	I/E AutoRange
IERANGE	IQUANT	11	I/E Range
POSFEEDENABLE	TOGGLE	F	Positive Feedback IR Comp
POSFEEDRESISTANCE	QUANT	0	Positive Feedback Resistance (ohm)
ACHSELECT	IQUANT	0	Ach Select
CABLEID	IQUANT	13	Cable ID
DCCALDATE	LABEL	7/31/2020	DC Calibration Date
ACCALDATE	LABEL	7/31/2020	AC Calibration Date
THERMOSELECT	IQUANT	1	Thermo Select
FRAMEWORKVERSION	QUANT	6.33	Framework Version
INSTRUMENTVERSION	LABEL	3.50	Instrument Version
COMPLIANCEVOLTAGE	IQUANT	0	Compliance Voltage
ZCURVE	TABLE
	Pt	Time	Freq	Zreal	Zimag	Zsig	Zmod	Zphz	Idc	Vdc	IERange
	#	s	Hz	ohm	ohm	V	ohm	°	A	V	#
	0	14	300046.9	1846.436	-3229.249	1	3719.863	-60.23973	2.563489E-005	0.0010008	9
	1	28	238359.4	2370.877	-3493.687	1	4222.192	-55.83849	2.005615E-005	-0.0010574	9
	2	42	189328.1	3115.177	-3747.781	1	4873.417	-50.26645	2.509924E-005	-0.0003441	9
	3	51	150421.9	3817.325	-3941.966	1	5487.355	-45.92028	2.770139E-005	-0.0018562	9
	4	59	119484.4	4768.625	-3766.714	1	6076.835	-38.30504	3.952862E-005	-0.0181504	8
	5	66	94921.88	5428.407	-3746.153	1	6595.549	-34.60962	-9.668379E-006	-0.001868	8
	6	74	75421.88	6101.47	-3652.702	1	7111.271	-30.90725	2.471875E-005	-0.0085927	8
	7	81	59859.37	6745.222	-3511.537	1	7604.532	-27.50132	2.134301E-005	-0.0092347	8
	8	90	47578.12	7233.325	-3360.163	1	7975.693	-24.91672	-1.528318E-005	2.308795E-005	9
	9	99	37828.12	7711.114	-3060.545	1	8296.276	-21.64815	-1.588751E-005	0.000755	8
	10	107	30046.88	8146.512	-2914.351	1	8652.115	-19.68427	-2.600025E-005	0.0094829	8
	11	116	23859.38	8533.543	-2762.199	1	8969.453	-17.9361	2.147618E-005	-0.0093408	8
	12	122	18984.38	8906.302	-2655.285	1	9293.694	-16.60119	-2.530493E-005	0.0092241	8
	13	129	15046.87	9184.258	-2578.502	1	9539.35	-15.68221	-1.583467E-005	0.0007777	8
	14	135	11953.13	9496.039	-2573.399	1	9838.55	-15.16281	7.406747E-006	-0.0073589	8
	15	141	9515.62	9922.58	-2268.965	1	10178.69	-12.8802	6.942385E-006	-0.0214389	7
	16	146	7546.875	10238.46	-2403.756	1	10516.85	-13.21244	6.491766E-006	-0.0146394	7
	17	150	5928.309	10515.87	-2429.782	1	10792.93	-13.01036	-6.636459E-006	0.016117	7
	18	154	4733.456	10798.46	-2581.062	1	11102.64	-13.4427	6.799558E-006	-0.015469	7
	19	159	3796.875	11140.93	-2725.605	1	11469.5	-13.74726	-5.915707E-006	0.009541	7
	20	163	2987.132	11573.29	-2910.124	1	11933.56	-14.1145	-5.201438E-007	-0.0134986	7
	21	167	2390.625	11914.17	-3116.951	1	12315.14	-14.66097	-4.464331E-007	-0.0136558	7
	22	171	1884.191	12304.04	-3435.6	1	12774.69	-15.60108	-4.922594E-007	-0.0135556	7
	23	176	1516.544	12684.65	-3666.322	1	13203.87	-16.1212	2.059804E-006	0.0094786	7
	24	180	1193.986	13175.84	-4100.917	1	13799.28	-17.28851	-3.826197E-006	0.023771	7
	25	184	946.5144	13424.79	-4517.021	1	14164.33	-18.59648	6.845727E-006	-0.0155878	7
	26	187	751.7689	14186.54	-4885.417	1	15004.18	-19.00216	-6.66831E-006	0.0206725	7
	27	190	597.4265	14923.93	-5094.923	1	15769.65	-18.84954	6.491224E-006	-0.024371	7
	28	192	477.4305	15555.67	-6138.614	1	16723.08	-21.5353	-9.03213E-008	0.0006395	7
	29	194	376.6741	16424.82	-6846.422	1	17794.62	-22.62802	-1.000378E-007	0.0006861	7
	30	197	298.2954	17408.28	-7602.662	1	18996.02	-23.59218	-9.668094E-008	0.0006581	7
	31	199	237.7717	18500.17	-8384.908	1	20311.64	-24.38166	-9.524771E-008	0.0006673	7
	32	202	189.0121	19748.07	-9206.679	1	21788.74	-24.99524	-8.63802E-008	0.0005836	7
	33	204	150.2404	21153.31	-10044.38	1	23416.92	-25.40011	-9.553289E-008	0.0006661	7
	34	206	119.1737	22718.82	-10887.57	1	25192.94	-25.60519	-8.714195E-008	0.0005749	7
	35	209	95.0169	24391.1	-11677.29	1	27042.28	-25.58287	-9.438213E-008	0.0006675	7
	36	211	75.60484	26179.48	-12443.52	1	28986.31	-25.42248	-8.987173E-008	0.0005912	7
	37	214	54.50582	28817.33	-13483.17	1	31815.63	-25.07414	-8.789324E-008	0.0005705	7
	38	216	45.95588	30235.41	-14031.55	1	33332.63	-24.89493	-8.715763E-008	0.000647	7
	39	219	37.20238	31974.18	-14759.96	1	35216.54	-24.77906	-8.422976E-008	0.0006101	7
	40	221	30.04808	33727.31	-15540.06	1	37135.23	-24.73818	-9.368457E-008	0.0006708	7
	41	224	23.91582	35604.09	-16598.66	1	39283.16	-24.99497	-1.859208E-008	0.000664	6
	42	226	18.60119	37653.98	-18011.82	1	41740.25	-25.56417	-2.457272E-008	0.0006273	6
	43	228	15.02404	39326.05	-19431.01	1	43864.59	-26.29399	-8.286746E-009	0.0007198	6
	44	230	12.01923	41059.95	-21376.27	1	46291.08	-27.50199	-1.835834E-008	0.0006176	6
	45	233	9.450605	42947.56	-24064.16	1	49229.83	-29.26256	-1.34331E-008	0.0006323	6
	46	235	7.512019	44912.13	-27368.08	1	52593.83	-31.35686	-1.140025E-008	0.0006549	6
	47	238	5.978954	47121.61	-31448.39	1	56651.98	-33.71867	-1.186753E-008	0.0007119	6
	48	241	4.734848	49795.6	-36621.21	1	61811.93	-36.3319	-1.174238E-008	0.000738	6
	49	244	3.75601	53179.16	-42875.36	1	68310.47	-38.87728	-1.550581E-008	0.0006237	6
	50	248	3.004808	57372.71	-50082.82	1	76157.19	-41.11895	-1.611533E-008	0.0006537	6
	51	252	2.372217	63301.7	-58826.77	1	86415.82	-42.90156	-1.46821E-008	0.0007435	6
	52	256	1.878005	70641.39	-68355	1	98298.6	-44.05761	-1.632803E-008	0.0006396	6
	53	261	1.512097	79243	-77875.16	1	111103.5	-44.50121	-1.620504E-008	0.0007282	6
	54	266	1.201923	90810.41	-88687.39	1	126933	-44.32236	-1.516424E-008	0.0006347	6
	55	272	0.956633	104459	-99257.1	1	144096	-43.53728	-2.001909E-008	3.288459E-005	6
