EXPLAIN
TAG	EISPOT
TITLE	LABEL	Potentiostatic EIS	Test Identifier
DATE	LABEL	8/25/2020	Date
TIME	LABEL	0:16:25	Time
NOTES	NOTES	1	Notes...
	
PSTAT	PSTAT	REF3000-16137	Potentiostat
VDC	POTEN	0.00000E+000	T	DC Voltage (V)
FREQINIT	QUANT	3.00000E+005	Initial Freq. (Hz)
FREQFINAL	QUANT	1.00000E+000	Final Freq. (Hz)
PTSPERDEC	QUANT	1.00000E+001	Points/decade
VAC	QUANT	5.00000E+001	AC Voltage (mV rms)
AREA	QUANT	1.00000E+000	Sample Area (cm^2)
SPEED	SELECTOR	2	Optimize for:
ZGUESS	QUANT	1.00000E+003	Estimated Z (ohms)
EOC	QUANT	0	Open Circuit (V)
SEQUENCER	TOGGLE	TRUE	Run as Sequence
PSTATMODEL	IQUANT	5	Pstat Model
PSTATSECTION	LABEL	REF3000-16137	Pstat Section
PSTATSERIALNO	LABEL	16137	Pstat Serial Number
CTRLMODE	IQUANT	1	Control Mode
IESTAB	IQUANT	0	I/E Stability
CASPEED	IQUANT	1	Control Amp Speed
CONVENTION	IQUANT	1	Current Convention
ICHRANGE	IQUANT	2	Ich Range
ICHRANGEMODE	TOGGLE	F	Ich Auto Range
ICHOFFSETENABLE	TOGGLE	T	Ich Offset Enable
ICHOFFSET	QUANT	0	Ich Offset (V)
ICHFILTER	IQUANT	3	Ich Filter
VCHRANGE	IQUANT	2	Vch Range
VCHRANGEMODE	TOGGLE	F	Vch Auto Range
VCHOFFSETENABLE	TOGGLE	T	Vch Offset Enable
VCHOFFSET	QUANT	0	Vch Offset (V)
VCHFILTER	IQUANT	3	Vch Filter
ACHRANGE	IQUANT	2	Ach Range
ACHOFFSETENABLE	TOGGLE	F	Ach Offset Enable
ACHOFFSET	QUANT	0	Ach Offset (V)
ACHFILTER	IQUANT	3	Ach Filter
IERANGELOWERLIMIT	IQUANT	2	I/E Range Lower Limit
IERANGEMODE	TOGGLE	F	I/E AutoRange
IERANGE	IQUANT	11	I/E Range
POSFEEDENABLE	TOGGLE	F	Positive Feedback IR Comp
POSFEEDRESISTANCE	QUANT	0	Positive Feedback Resistance (ohm)
ACHSELECT	IQUANT	0	Ach Select
CABLEID	IQUANT	13	Cable ID
DCCALDATE	LABEL	7/31/2020	DC Calibration Date
ACCALDATE	LABEL	7/31/2020	AC Calibration Date
THERMOSELECT	IQUANT	1	Thermo Select
FRAMEWORKVERSION	QUANT	6.33	Framework Version
INSTRUMENTVERSION	LABEL	3.50	Instrument Version
COMPLIANCEVOLTAGE	IQUANT	0	Compliance Voltage
ZCURVE	TABLE
	Pt	Time	Freq	Zreal	Zimag	Zsig	Zmod	Zphz	Idc	Vdc	IERange
	#	s	Hz	ohm	ohm	V	ohm	°	A	V	#
	0	16	300046.9	765.8691	-1414.998	1	1608.967	-61.57549	-0.0009896	0.0371511	9
	1	31	238359.4	932.9723	-1629.134	1	1877.369	-60.2011	4.689547E-005	-0.0210582	9
	2	45	189328.1	1254.323	-1884.362	1	2263.658	-56.35033	-0.0006854	0.0055363	9
	3	55	150421.9	1496.031	-1956.654	1	2463.048	-52.59896	-0.0009366	0.0019629	10
	4	65	119484.4	2012.271	-2168.599	1	2958.387	-47.14136	-0.0008408	0.0311325	9
	5	73	94921.88	2406.35	-2181.551	1	3248.028	-42.19485	-0.0002904	0.0093818	9
	6	83	75421.88	2846.53	-2183.302	1	3587.414	-37.48839	-5.239103E-005	-0.0053963	9
	7	92	59859.37	3790.77	-1831.756	1	4210.139	-25.79052	-0.0001203	0.0108364	8
	8	100	47578.12	3680.167	-2041.707	1	4208.586	-29.02092	0.0001451	0.0024127	9
	9	109	37828.12	3944.927	-1936.67	1	4394.672	-26.14766	4.431233E-005	0.0060182	9
	10	117	30046.88	4471.295	-1320.895	1	4662.322	-16.45802	-0.0001181	0.0553651	8
	11	125	23859.38	4396.83	-1618.931	1	4685.409	-20.21391	0.0002678	-0.0109116	9
	12	132	18984.38	4786.582	-1106.355	1	4912.778	-13.01461	-8.126647E-005	0.0561886	8
	13	139	15046.87	4717.095	-1315.962	1	4897.218	-15.58789	-0.0002899	0.0093591	9
	14	147	11953.13	4934.302	-1365.956	1	5119.88	-15.47361	4.589486E-005	0.0059746	9
	15	153	9515.62	5093.002	-1449.714	1	5295.313	-15.88891	-0.0001453	-0.0019664	9
	16	161	7546.875	5193.66	-1293.434	1	5352.296	-13.98451	4.183692E-005	-0.0506322	8
	17	166	5928.309	5577.666	-1063.438	1	5678.139	-10.79446	-0.0001134	0.0551779	8
	18	171	4733.456	5178.019	-1341.077	1	5348.866	-14.52023	-0.0002654	0.0046798	9
	19	178	3796.875	5621.136	-1226.006	1	5753.282	-12.30389	0.0002283	-0.0015672	9
	20	186	2987.132	5687.577	-1459.477	1	5871.849	-14.39202	-0.000268	0.0108039	9
	21	193	2390.625	5486.573	-2076.403	1	5866.339	-20.72924	-0.0002119	0.0014166	9
	22	200	1884.191	5926.686	-1239.939	1	6055.002	-11.81658	0.0002106	-0.010964	9
	23	206	1516.544	5986.724	-1713.204	1	6227.032	-15.96938	-0.0002669	0.0107728	9
	24	213	1193.986	6040.101	-1592.979	1	6246.631	-14.77442	0.0001342	-0.0100607	9
	25	221	946.5144	7684.599	-2442.896	1	8063.547	-17.6352	0.0002277	-0.0014371	9
	26	227	751.7689	7190.396	-377.5226	1	7200.3	-3.005483	0.0003021	-0.0076108	9
	27	234	597.4265	6095.451	-1602.626	1	6302.613	-14.7309	-0.0001452	-0.0019357	9
	28	241	477.4305	7449.141	-2211.077	1	7770.364	-16.53211	-1.632434E-006	0.0006231	8
	29	245	376.6741	9746.43	-2871.253	1	10160.56	-16.41473	-6.389556E-007	0.0006974	7
	30	247	298.2954	10153.51	-3078.148	1	10609.84	-16.86526	-6.312565E-007	0.0005044	7
	31	250	237.7717	10568.13	-3349.07	1	11086.1	-17.58356	-6.185195E-007	0.0005272	7
	32	252	189.0121	11034.89	-3599.467	1	11607.11	-18.06579	-6.168023E-007	0.0006056	7
	33	255	150.2404	11560.1	-3796.437	1	12167.53	-18.18063	-6.352554E-007	0.0007164	7
	34	257	119.1737	11926.46	-4056.811	1	12597.54	-18.78585	-6.303751E-007	0.0007473	7
	35	259	95.0169	12546.61	-4415.357	1	13300.86	-19.3878	-6.25306E-007	0.000597	7
	36	262	75.60484	12995	-4696.323	1	13817.58	-19.86958	-6.070464E-007	0.0005002	7
	37	264	54.50582	13776.34	-5279.496	1	14753.33	-20.96829	-6.200114E-007	0.0004973	7
	38	267	45.95588	14155.84	-5645.672	1	15240.13	-21.74324	-6.07616E-007	0.0006018	7
	39	269	37.20238	14618.32	-6199.789	1	15878.68	-22.98233	-6.263202E-007	0.0006426	7
	40	272	30.04808	15159.64	-6844.539	1	16633.17	-24.29905	-6.164969E-007	0.0006967	7
	41	275	23.91582	15870.21	-7749.248	1	17661.1	-26.02574	-6.21829E-007	0.0005954	7
	42	277	18.60119	16743.36	-8954.759	1	18987.57	-28.13897	-6.292116E-007	0.0007503	7
	43	280	15.02404	17728.58	-10020.44	1	20364.47	-29.47574	-6.233723E-007	0.000687	7
	44	282	12.01923	18982.1	-11343.6	1	22113.29	-30.86231	-6.41201E-007	0.0007419	7
	45	285	9.450605	20655.57	-12833.12	1	24317.52	-31.85231	-6.189563E-007	0.0006926	7
	46	287	7.512019	22615.06	-14231.76	1	26720.48	-32.1824	-6.150918E-007	0.0005027	7
	47	291	5.978954	24806.3	-15233.06	1	29110.11	-31.55327	-6.309028E-007	0.0007514	7
	48	295	4.734848	27372.8	-16026.33	1	31719.29	-30.34828	-6.32987E-007	0.0005745	7
	49	300	3.75601	30040.22	-16449.55	1	34249.12	-28.70442	-6.265083E-007	0.0005093	7
	50	305	3.004808	32610.75	-16427.13	1	36514.54	-26.73592	-6.253526E-007	0.0006872	7
	51	312	2.372217	35400.93	-16225.84	1	38942.31	-24.62411	-6.385441E-007	0.0006312	7
	52	316	1.878005	37356.76	-15075.44	1	40283.95	-21.97669	-6.373247E-007	0.0006034	7
	53	325	1.512097	38867.14	-14109.35	1	41348.86	-19.95165	-6.414915E-007	0.0006058	7
	54	335	1.201923	40289.78	-13055.58	1	42352.27	-17.9545	-6.389652E-007	0.0005905	7
	55	348	0.956633	41618.08	-11992.1	1	43311.38	-16.07414	-6.638654E-007	-2.067891E-005	7
