EXPLAIN
TAG	EISPOT
TITLE	LABEL	Potentiostatic EIS	Test Identifier
DATE	LABEL	8/24/2020	Date
TIME	LABEL	22:42:23	Time
NOTES	NOTES	1	Notes...
	
PSTAT	PSTAT	REF3000-16137	Potentiostat
VDC	POTEN	0.00000E+000	T	DC Voltage (V)
FREQINIT	QUANT	3.00000E+005	Initial Freq. (Hz)
FREQFINAL	QUANT	1.00000E+000	Final Freq. (Hz)
PTSPERDEC	QUANT	1.00000E+001	Points/decade
VAC	QUANT	5.00000E+001	AC Voltage (mV rms)
AREA	QUANT	1.00000E+000	Sample Area (cm^2)
SPEED	SELECTOR	2	Optimize for:
ZGUESS	QUANT	1.00000E+003	Estimated Z (ohms)
EOC	QUANT	0	Open Circuit (V)
SEQUENCER	TOGGLE	TRUE	Run as Sequence
PSTATMODEL	IQUANT	5	Pstat Model
PSTATSECTION	LABEL	REF3000-16137	Pstat Section
PSTATSERIALNO	LABEL	16137	Pstat Serial Number
CTRLMODE	IQUANT	1	Control Mode
IESTAB	IQUANT	0	I/E Stability
CASPEED	IQUANT	1	Control Amp Speed
CONVENTION	IQUANT	1	Current Convention
ICHRANGE	IQUANT	2	Ich Range
ICHRANGEMODE	TOGGLE	F	Ich Auto Range
ICHOFFSETENABLE	TOGGLE	T	Ich Offset Enable
ICHOFFSET	QUANT	0	Ich Offset (V)
ICHFILTER	IQUANT	3	Ich Filter
VCHRANGE	IQUANT	2	Vch Range
VCHRANGEMODE	TOGGLE	F	Vch Auto Range
VCHOFFSETENABLE	TOGGLE	T	Vch Offset Enable
VCHOFFSET	QUANT	0	Vch Offset (V)
VCHFILTER	IQUANT	3	Vch Filter
ACHRANGE	IQUANT	2	Ach Range
ACHOFFSETENABLE	TOGGLE	F	Ach Offset Enable
ACHOFFSET	QUANT	0	Ach Offset (V)
ACHFILTER	IQUANT	3	Ach Filter
IERANGELOWERLIMIT	IQUANT	2	I/E Range Lower Limit
IERANGEMODE	TOGGLE	F	I/E AutoRange
IERANGE	IQUANT	11	I/E Range
POSFEEDENABLE	TOGGLE	F	Positive Feedback IR Comp
POSFEEDRESISTANCE	QUANT	0	Positive Feedback Resistance (ohm)
ACHSELECT	IQUANT	0	Ach Select
CABLEID	IQUANT	13	Cable ID
DCCALDATE	LABEL	7/31/2020	DC Calibration Date
ACCALDATE	LABEL	7/31/2020	AC Calibration Date
THERMOSELECT	IQUANT	1	Thermo Select
FRAMEWORKVERSION	QUANT	6.33	Framework Version
INSTRUMENTVERSION	LABEL	3.50	Instrument Version
COMPLIANCEVOLTAGE	IQUANT	0	Compliance Voltage
ZCURVE	TABLE
	Pt	Time	Freq	Zreal	Zimag	Zsig	Zmod	Zphz	Idc	Vdc	IERange
	#	s	Hz	ohm	ohm	V	ohm	°	A	V	#
	0	16	300046.9	47.98835	-2472.786	1	2473.252	-88.88822	0.0003002	-0.001842	10
	1	35	238359.4	246.3432	-3182.274	1	3191.794	-85.5735	0.0002161	0.0104148	9
	2	51	189328.1	258.1051	-4086.576	1	4094.719	-86.38604	0.0001462	0.0026679	10
	3	61	150421.9	272.2437	-5042.584	1	5049.928	-86.90966	0.0002086	0.0103298	9
	4	70	119484.4	390.5606	-6058.263	1	6070.839	-86.31139	-0.000521	0.0020707	9
	5	78	94921.88	400.166	-7786.899	1	7797.175	-87.05818	-5.30231E-005	-0.005374	9
	6	88	75421.88	4717.559	-9104.6	1	10254.22	-62.60902	-7.139283E-005	0.0588109	8
	7	95	59859.37	995.736	-12042.16	1	12083.25	-85.27311	0.0002259	-0.0013915	9
	8	105	47578.12	726.4601	-14445.24	1	14463.5	-87.12099	0.0001419	0.0024317	9
	9	116	37828.12	415.172	-20375.74	1	20379.97	-88.83272	-5.983364E-005	0.0089636	9
	10	125	30046.88	3397.556	-24939.55	1	25169.91	-82.24226	8.047979E-005	-0.05954	8
	11	135	23859.38	3144.412	-33079.95	1	33229.06	-84.57007	0.0000988	0.0154253	8
	12	142	18984.38	7067.502	-44165.16	1	44727.07	-80.90836	-3.282727E-005	0.0559776	8
	13	148	15046.87	3987.27	-46434.2	1	46605.07	-85.09209	-5.461519E-005	-0.0290798	8
	14	155	11953.13	19071.7	-55836.9	1	59004.14	-71.14184	-0.0001013	0.0559402	8
	15	161	9515.62	-5486.745	-73883.1	1	74086.55	-94.24713	-0.0002241	0.0113885	9
	16	169	7546.875	-2471.386	-72689.03	1	72731.03	-91.94727	0.0002203	-0.001364	9
	17	179	5928.309	1689.256	-51533.07	1	51560.75	-88.12251	5.006598E-005	-0.008374	9
	18	187	4733.456	55869.98	-85455.3	1	102098.3	-56.82367	-7.394946E-005	0.0593024	8
	19	194	3796.875	33375.34	-123762.3	1	128183.5	-74.90789	0.0001373	-0.0101471	9
	20	204	2987.132	15796.35	-85279.74	1	86730.38	-79.50605	-0.0001497	0.0107425	9
	21	214	2390.625	9578.04	-18753.24	1	21057.61	-62.94475	0.0002987	-0.009379	9
	22	225	1884.191	57815.45	-61706.5	1	84559.55	-46.86462	4.071195E-005	0.0061927	9
	23	232	1516.544	-207858.3	-12858.29	1	208255.7	-176.4601	8.629005E-005	-0.0595756	8
	24	240	1193.986	-492810.5	-135458.4	1	511088.2	-164.6307	-0.0001152	0.0570902	8
	25	248	946.5144	34065.95	-7287.26	1	34836.66	-12.07452	-0.0000966	-0.0115337	8
	26	255	751.7689	-30938.72	17716.46	1	35652.17	150.2032	-7.374986E-005	0.0605275	8
	27	259	597.4265	34728.86	-24011.01	1	42221.11	-34.6594	0.0001402	-0.0101177	9
	28	265	477.4305	378978.2	-805888.4	1	890550.8	-64.81421	-2.241133E-006	0.0006396	8
	29	271	376.6741	1080423	-1386842	1	1758022	-52.07952	-7.844838E-007	0.0007512	7
	30	276	298.2954	1674733	-1475445	1	2231965	-41.38014	-8.540722E-008	0.0005391	6
	31	281	237.7717	3490733	-455881.5	1	3520376	-7.440582	-8.36241E-009	0.0007998	5
	32	284	189.0121	2274689	-1550989	1	2753140	-34.28799	-8.560961E-008	0.0006347	6
	33	288	150.2404	4345873	-523315.5	1	4377267	-6.866307	-9.043121E-009	0.0005179	5
	34	292	119.1737	2163670	30755.78	1	2163888	0.8143839	-8.417659E-009	0.0007957	5
	35	296	95.0169	3854080	-1003047	1	3982466	-14.58795	-9.02438E-009	0.0007962	5
	36	298	75.60484	4003798	-699897.3	1	4064511	-9.91559	-9.184149E-009	0.0005532	5
	37	302	54.50582	4193520	-953035	1	4300451	-12.80378	-7.471745E-009	0.0005118	5
	38	307	45.95588	4520498	-963031	1	4621940	-12.0263	-8.913166E-009	0.0007433	5
	39	310	37.20238	4161734	-1169427	1	4322915	-15.69511	-9.442169E-009	0.0005522	5
	40	314	30.04808	4828591	-1220276	1	4980398	-14.18277	-9.196082E-009	0.0005619	5
	41	318	23.91582	4855717	-1439316	1	5064545	-16.51071	-7.748682E-009	0.0006325	5
	42	322	18.60119	4287193	-2199180	1	4818342	-27.15624	-7.952385E-009	0.0005725	5
	43	326	15.02404	5769611	-1566551	1	5978502	-15.19059	-8.395596E-009	0.0005359	5
	44	329	12.01923	2.404401E+007	-7768374	1	2.52678E+007	-17.90512	-7.570649E-010	0.0005319	4
	45	332	9.450605	5010314	-2853600	1	5765959	-29.66347	-8.775143E-008	0.0008058	6
	46	337	7.512019	5795639	-2743687	1	6412273	-25.33313	-8.394728E-009	0.0007525	5
	47	341	5.978954	2.007014E+007	-9406317	1	2.216505E+007	-25.11118	-4.10756E-010	0.0005229	4
	48	346	4.734848	2.033448E+007	-1.063817E+007	1	2.294911E+007	-27.61672	-4.272628E-010	0.0007772	4
	49	351	3.75601	2.272879E+007	-1.293706E+007	1	2.615273E+007	-29.64822	-2.46541E-010	0.0006383	4
	50	356	3.004808	7714713	-4802447	1	9087370	-31.90247	-8.582165E-008	0.0005338	6
	51	365	2.372217	9343364	-5961808	1	1.108339E+007	-32.54111	-8.424728E-009	0.0007213	5
	52	376	1.878005	3.659538E+007	-2.579164E+007	1	4.477087E+007	-35.17536	-4.786137E-010	0.0006264	4
	53	385	1.512097	3.546308E+007	-2.472912E+007	1	4.323378E+007	-34.88884	-3.654936E-010	0.0005482	4
	54	397	1.201923	3.018955E+008	-2.66264E+008	1	4.025387E+008	-41.41147	3.695506E-011	0.0007221	3
	55	410	0.956633	3.910962E+008	-2.678902E+008	1	4.740479E+008	-34.41008	2.946554E-011	7.605784E-005	3
