EXPLAIN
TAG	EISPOT
TITLE	LABEL	Potentiostatic EIS	Test Identifier
DATE	LABEL	8/24/2020	Date
TIME	LABEL	21:14:10	Time
NOTES	NOTES	1	Notes...
	
PSTAT	PSTAT	REF3000-16137	Potentiostat
VDC	POTEN	0.00000E+000	T	DC Voltage (V)
FREQINIT	QUANT	3.00000E+005	Initial Freq. (Hz)
FREQFINAL	QUANT	1.00000E+000	Final Freq. (Hz)
PTSPERDEC	QUANT	1.00000E+001	Points/decade
VAC	QUANT	5.00000E+001	AC Voltage (mV rms)
AREA	QUANT	1.00000E+000	Sample Area (cm^2)
SPEED	SELECTOR	2	Optimize for:
ZGUESS	QUANT	1.00000E+003	Estimated Z (ohms)
EOC	QUANT	0	Open Circuit (V)
SEQUENCER	TOGGLE	TRUE	Run as Sequence
PSTATMODEL	IQUANT	5	Pstat Model
PSTATSECTION	LABEL	REF3000-16137	Pstat Section
PSTATSERIALNO	LABEL	16137	Pstat Serial Number
CTRLMODE	IQUANT	1	Control Mode
IESTAB	IQUANT	0	I/E Stability
CASPEED	IQUANT	1	Control Amp Speed
CONVENTION	IQUANT	1	Current Convention
ICHRANGE	IQUANT	2	Ich Range
ICHRANGEMODE	TOGGLE	F	Ich Auto Range
ICHOFFSETENABLE	TOGGLE	T	Ich Offset Enable
ICHOFFSET	QUANT	0	Ich Offset (V)
ICHFILTER	IQUANT	3	Ich Filter
VCHRANGE	IQUANT	2	Vch Range
VCHRANGEMODE	TOGGLE	F	Vch Auto Range
VCHOFFSETENABLE	TOGGLE	T	Vch Offset Enable
VCHOFFSET	QUANT	0	Vch Offset (V)
VCHFILTER	IQUANT	3	Vch Filter
ACHRANGE	IQUANT	2	Ach Range
ACHOFFSETENABLE	TOGGLE	F	Ach Offset Enable
ACHOFFSET	QUANT	0	Ach Offset (V)
ACHFILTER	IQUANT	3	Ach Filter
IERANGELOWERLIMIT	IQUANT	2	I/E Range Lower Limit
IERANGEMODE	TOGGLE	F	I/E AutoRange
IERANGE	IQUANT	11	I/E Range
POSFEEDENABLE	TOGGLE	F	Positive Feedback IR Comp
POSFEEDRESISTANCE	QUANT	0	Positive Feedback Resistance (ohm)
ACHSELECT	IQUANT	0	Ach Select
CABLEID	IQUANT	13	Cable ID
DCCALDATE	LABEL	7/31/2020	DC Calibration Date
ACCALDATE	LABEL	7/31/2020	AC Calibration Date
THERMOSELECT	IQUANT	1	Thermo Select
FRAMEWORKVERSION	QUANT	6.33	Framework Version
INSTRUMENTVERSION	LABEL	3.50	Instrument Version
COMPLIANCEVOLTAGE	IQUANT	0	Compliance Voltage
ZCURVE	TABLE
	Pt	Time	Freq	Zreal	Zimag	Zsig	Zmod	Zphz	Idc	Vdc	IERange
	#	s	Hz	ohm	ohm	V	ohm	°	A	V	#
	0	14	300046.9	1814.571	-2643.926	1	3206.714	-55.53753	-6.657479E-005	0.0007144	9
	1	29	238359.4	2307.731	-2734.424	1	3578.085	-49.83714	-5.91477E-005	0.0007734	9
	2	48	189328.1	2847.481	-2800.555	1	3993.902	-44.52397	-3.005288E-006	-0.001512	9
	3	57	150421.9	3363.93	-2902.204	1	4442.838	-40.78572	-3.176605E-005	-0.0006768	9
	4	64	119484.4	3898.753	-2642.944	1	4710.141	-34.13314	-7.681601E-005	0.0214028	8
	5	72	94921.88	4406.155	-2597.545	1	5114.825	-30.52047	-2.424514E-005	0.0090469	8
	6	79	75421.88	4813.112	-2461.408	1	5405.976	-27.08504	8.563101E-006	0.0032068	8
	7	87	59859.37	5168.389	-2355.067	1	5679.664	-24.49722	1.629823E-005	-0.0001877	8
	8	94	47578.12	5507.908	-2196.681	1	5929.794	-21.74326	-9.692941E-006	-0.0014779	8
	9	102	37828.12	5784.72	-2085.848	1	6149.289	-19.82824	-2.422195E-005	0.0073283	8
	10	109	30046.88	6052.864	-1971.273	1	6365.774	-18.03919	-9.928218E-006	-0.0014057	8
	11	117	23859.38	6314.381	-1909.046	1	6596.656	-16.8218	-2.425142E-005	0.0073372	8
	12	122	18984.38	6573.793	-1869.075	1	6834.339	-15.87163	7.824256E-006	0.0033838	8
	13	127	15046.87	6876.466	-1604.454	1	7061.166	-13.13359	-1.449016E-007	0.0151285	7
	14	132	11953.13	7051.47	-1626.602	1	7236.647	-12.98952	-1.990099E-006	0.0193382	7
	15	135	9515.62	7276.378	-1701.661	1	7472.706	-13.16269	-5.902759E-006	0.0181653	7
	16	139	7546.875	7517.771	-1748.481	1	7718.423	-13.09306	-1.828612E-006	0.0190733	7
	17	143	5928.309	7721.403	-1841.037	1	7937.851	-13.41081	3.148107E-006	-0.0207445	7
	18	148	4733.456	7939.069	-1924.552	1	8169.009	-13.62652	1.390148E-006	-0.017312	7
	19	152	3796.875	8214.45	-1997.678	1	8453.869	-13.66847	-3.384682E-006	0.0211364	7
	20	156	2987.132	8476.557	-2146.671	1	8744.152	-14.21126	-4.221139E-006	0.0017917	7
	21	160	2390.625	8744.191	-2225.667	1	9022.997	-14.28031	5.797149E-006	-0.0220549	7
	22	164	1884.191	9036.946	-2318.555	1	9329.636	-14.38966	-5.633901E-007	-0.0120561	7
	23	168	1516.544	9302.928	-2514.545	1	9636.77	-15.12539	-8.296986E-008	0.0146996	7
	24	173	1193.986	9694.08	-2747.606	1	10075.94	-15.82439	1.867321E-006	0.0083656	7
	25	177	946.5144	9957.18	-2932.587	1	10380.06	-16.41074	3.777666E-006	0.0005111	7
	26	180	751.7689	10327.63	-3313.801	1	10846.25	-17.78975	-7.951674E-008	0.014724	7
	27	183	597.4265	10783.77	-3298.626	1	11277	-17.00824	4.62206E-006	-0.0223023	7
	28	185	477.4305	11278.76	-3807.169	1	11903.99	-18.65222	-1.30078E-007	0.0005892	7
	29	187	376.6741	11824.76	-4155.886	1	12533.81	-19.36434	-1.401982E-007	0.0006891	7
	30	190	298.2954	12426	-4521.105	1	13222.93	-19.99353	-1.28834E-007	0.0006014	7
	31	192	237.7717	13074.96	-4887.354	1	13958.54	-20.49549	-1.395708E-007	0.0006873	7
	32	194	189.0121	13789.94	-5264.513	1	14760.68	-20.89509	-1.269999E-007	0.0005854	7
	33	197	150.2404	14564.07	-5641.243	1	15618.44	-21.17336	-1.3477E-007	0.0006692	7
	34	199	119.1737	15396.52	-6020.478	1	16531.76	-21.35691	-1.278397E-007	0.0005851	7
	35	202	95.0169	16245.08	-6390.552	1	17456.86	-21.47387	-1.270742E-007	0.0006323	7
	36	204	75.60484	17133.09	-6774.604	1	18423.85	-21.57436	-1.335007E-007	0.0006444	7
	37	207	54.50582	18439.98	-7364.825	1	19856.32	-21.77149	-1.33505E-007	0.0006828	7
	38	209	45.95588	19133.44	-7709.524	1	20628.26	-21.94621	-1.302678E-007	0.0006666	7
	39	211	37.20238	20009.22	-8192.263	1	21621.34	-22.26539	-1.311905E-007	0.0005973	7
	40	214	30.04808	20894.45	-8755.007	1	22654.54	-22.73423	-1.251837E-007	0.0006605	7
	41	216	23.91582	21852.38	-9482.006	1	23820.89	-23.45659	-1.294678E-007	0.0005845	7
	42	219	18.60119	22990.21	-10484.96	1	25268.24	-24.51592	-1.198355E-007	0.0005783	7
	43	221	15.02404	24029.76	-11527.01	1	26651.47	-25.62691	-1.116078E-007	0.0006259	7
	44	223	12.01923	25168.25	-12828.59	1	28249.13	-27.00855	-1.24678E-007	0.000589	7
	45	226	9.450605	26615.36	-14518.13	1	30317.54	-28.61155	-1.201401E-007	0.0006013	7
	46	228	7.512019	28266.45	-16359.8	1	32659.39	-30.06101	-1.257299E-007	0.0006389	7
	47	231	5.978954	30138.05	-18379.83	1	35300.43	-31.37712	-1.327128E-007	0.0006484	7
	48	234	4.734848	32465.45	-20538.08	1	38416.38	-32.31799	-1.361451E-007	0.0006475	7
	49	237	3.75601	35295.36	-22851.08	1	42046.81	-32.92001	-3.186209E-008	0.0006582	6
	50	241	3.004808	38406.04	-24975.96	1	45812.91	-33.03649	-2.673858E-008	0.0006774	6
	51	244	2.372217	42348.68	-27136.42	1	50297.07	-32.65116	-3.257237E-008	0.0006471	6
	52	248	1.878005	46531.67	-28470.96	1	54550.82	-31.46087	-3.034943E-008	0.0006819	6
	53	253	1.512097	50405	-28639.17	1	57972.98	-29.60442	-3.212433E-008	0.0005947	6
	54	264	1.201923	54740.27	-28501.2	1	61715.6	-27.50429	-3.395574E-008	0.0007493	6
	55	277	0.956633	59086.7	-27900.74	1	65342.86	-25.27668	-4.6115E-008	3.537337E-005	6
