EXPLAIN
TAG	EISPOT
TITLE	LABEL	Potentiostatic EIS	Test Identifier
DATE	LABEL	8/25/2020	Date
TIME	LABEL	1:19:48	Time
NOTES	NOTES	1	Notes...
	
PSTAT	PSTAT	REF3000-16137	Potentiostat
VDC	POTEN	0.00000E+000	T	DC Voltage (V)
FREQINIT	QUANT	3.00000E+005	Initial Freq. (Hz)
FREQFINAL	QUANT	1.00000E+000	Final Freq. (Hz)
PTSPERDEC	QUANT	1.00000E+001	Points/decade
VAC	QUANT	5.00000E+001	AC Voltage (mV rms)
AREA	QUANT	1.00000E+000	Sample Area (cm^2)
SPEED	SELECTOR	2	Optimize for:
ZGUESS	QUANT	1.00000E+003	Estimated Z (ohms)
EOC	QUANT	0	Open Circuit (V)
SEQUENCER	TOGGLE	TRUE	Run as Sequence
PSTATMODEL	IQUANT	5	Pstat Model
PSTATSECTION	LABEL	REF3000-16137	Pstat Section
PSTATSERIALNO	LABEL	16137	Pstat Serial Number
CTRLMODE	IQUANT	1	Control Mode
IESTAB	IQUANT	0	I/E Stability
CASPEED	IQUANT	1	Control Amp Speed
CONVENTION	IQUANT	1	Current Convention
ICHRANGE	IQUANT	2	Ich Range
ICHRANGEMODE	TOGGLE	F	Ich Auto Range
ICHOFFSETENABLE	TOGGLE	T	Ich Offset Enable
ICHOFFSET	QUANT	0	Ich Offset (V)
ICHFILTER	IQUANT	3	Ich Filter
VCHRANGE	IQUANT	2	Vch Range
VCHRANGEMODE	TOGGLE	F	Vch Auto Range
VCHOFFSETENABLE	TOGGLE	T	Vch Offset Enable
VCHOFFSET	QUANT	0	Vch Offset (V)
VCHFILTER	IQUANT	3	Vch Filter
ACHRANGE	IQUANT	2	Ach Range
ACHOFFSETENABLE	TOGGLE	F	Ach Offset Enable
ACHOFFSET	QUANT	0	Ach Offset (V)
ACHFILTER	IQUANT	3	Ach Filter
IERANGELOWERLIMIT	IQUANT	2	I/E Range Lower Limit
IERANGEMODE	TOGGLE	F	I/E AutoRange
IERANGE	IQUANT	11	I/E Range
POSFEEDENABLE	TOGGLE	F	Positive Feedback IR Comp
POSFEEDRESISTANCE	QUANT	0	Positive Feedback Resistance (ohm)
ACHSELECT	IQUANT	0	Ach Select
CABLEID	IQUANT	13	Cable ID
DCCALDATE	LABEL	7/31/2020	DC Calibration Date
ACCALDATE	LABEL	7/31/2020	AC Calibration Date
THERMOSELECT	IQUANT	1	Thermo Select
FRAMEWORKVERSION	QUANT	6.33	Framework Version
INSTRUMENTVERSION	LABEL	3.50	Instrument Version
COMPLIANCEVOLTAGE	IQUANT	0	Compliance Voltage
ZCURVE	TABLE
	Pt	Time	Freq	Zreal	Zimag	Zsig	Zmod	Zphz	Idc	Vdc	IERange
	#	s	Hz	ohm	ohm	V	ohm	°	A	V	#
	0	15	300046.9	837.9923	-1356.008	1	1594.048	-58.28457	-0.0001258	0.0177688	9
	1	29	238359.4	1094.925	-1373.517	1	1756.533	-51.43925	-0.0007065	0.0124388	9
	2	43	189328.1	1288.732	-1637.822	1	2084.057	-51.80231	6.032491E-005	0.0149291	9
	3	50	150421.9	1495.011	-1700.872	1	2264.514	-48.68559	0.0005899	-0.0060915	9
	4	58	119484.4	1928.011	-1797.436	1	2635.906	-42.99263	-0.0003298	-0.005825	9
	5	66	94921.88	2277.097	-1779.1	1	2889.7	-38.00058	-5.478561E-005	0.008701	9
	6	76	75421.88	2990.469	-1090.116	1	3182.963	-20.02832	-2.706174E-006	-0.0401841	8
	7	84	59859.37	2792.099	-1471.671	1	3156.206	-27.79301	0.0002962	-0.0096102	9
	8	92	47578.12	3152.973	-1614.672	1	3542.373	-27.11748	-0.0002685	0.00478	9
	9	103	37828.12	3429.515	-1499.533	1	3743.016	-23.61704	-0.0002675	0.010714	9
	10	111	30046.88	3611.547	-1462.304	1	3896.358	-22.04288	-0.0001451	0.0106097	9
	11	121	23859.38	3926.963	-1205.549	1	4107.845	-17.0661	-0.0001459	0.0269931	8
	12	126	18984.38	4160.356	-1110.9	1	4306.119	-14.95033	-9.283461E-005	-0.0076471	8
	13	132	15046.87	4313.563	-1087.75	1	4448.599	-14.15318	-0.0001182	0.0550281	8
	14	137	11953.13	4471.205	-992.961	1	4580.136	-12.52099	-0.0001182	0.0548629	8
	15	143	9515.62	4457.613	-1239.248	1	4626.667	-15.53631	0.0002822	-0.0051247	9
	16	151	7546.875	4559.191	-1081.091	1	4685.614	-13.33979	0.0001417	0.0024745	9
	17	158	5928.309	4693.834	-1150.852	1	4832.86	-13.77624	-0.000144	-0.0019629	9
	18	164	4733.456	4827.993	-1470.716	1	5047.031	-16.94192	-0.0001463	0.0106066	9
	19	171	3796.875	5006.419	-1257.252	1	5161.872	-14.09705	0.0002105	-0.010992	9
	20	177	2987.132	5398.09	-868.9747	1	5467.585	-9.144916	0.0002263	-0.0014648	9
	21	185	2390.625	5122.054	-1477.252	1	5330.827	-16.08809	0.0001396	0.0024625	9
	22	191	1884.191	5442.508	-1473.061	1	5638.333	-15.14473	-0.0001142	0.0544971	8
	23	200	1516.544	5567.571	-1464.512	1	5756.964	-14.73742	4.416318E-005	0.0060374	9
	24	206	1193.986	6132.188	-1590.253	1	6335.032	-14.53819	-0.000145	0.0401014	8
	25	212	946.5144	5520.934	-1055.666	1	5620.956	-10.82494	-0.0002675	0.0047135	9
	26	217	751.7689	7339.777	-2913.091	1	7896.735	-21.64768	-0.0002643	0.0046859	9
	27	222	597.4265	7280.105	-2443.052	1	7679.091	-18.55069	0.0002292	-0.001472	9
	28	227	477.4305	6793.973	-2119.934	1	7117.035	-17.32957	3.261095E-007	6.23688E-005	9
	29	232	376.6741	9251.141	-2862.999	1	9684.03	-17.196	-6.05187E-007	0.0005151	7
	30	234	298.2954	9591.74	-3080.884	1	10074.39	-17.80711	-5.972699E-007	0.0006336	7
	31	237	237.7717	10052.03	-3323.046	1	10587.07	-18.29309	-6.035474E-007	0.0007166	7
	32	239	189.0121	10559.23	-3616.284	1	11161.31	-18.9051	-6.022158E-007	0.0006971	7
	33	241	150.2404	11082.67	-3788.818	1	11712.41	-18.87396	-5.797788E-007	0.0005191	7
	34	244	119.1737	11625.08	-4218.718	1	12366.89	-19.94573	-6.303097E-007	0.0007455	7
	35	247	95.0169	11931.89	-4407.907	1	12720.04	-20.27536	-5.848056E-007	0.000698	7
	36	249	75.60484	12488.15	-4781.256	1	13372.15	-20.95001	-5.874645E-007	0.000523	7
	37	252	54.50582	13211.56	-5391.706	1	14269.4	-22.20062	-6.03921E-007	0.0007157	7
	38	254	45.95588	13541.5	-5813.901	1	14736.81	-23.23577	-5.809455E-007	0.0005964	7
	39	257	37.20238	14167.49	-6505.915	1	15589.89	-24.66527	-5.880932E-007	0.000641	7
	40	259	30.04808	14586.08	-7210.631	1	16271.04	-26.30551	-5.882775E-007	0.0007398	7
	41	262	23.91582	15423.86	-8329.918	1	17529.49	-28.37202	-6.038412E-007	0.0007507	7
	42	265	18.60119	16198.54	-9592.63	1	18825.81	-30.63364	-5.751901E-007	0.0004981	7
	43	267	15.02404	17345.37	-11045.87	1	20563.87	-32.48978	-5.963634E-007	0.0007178	7
	44	270	12.01923	18714.89	-12619.16	1	22571.9	-33.99118	-5.897108E-007	0.0005482	7
	45	272	9.450605	20548.39	-14370.68	1	25074.95	-34.96733	-5.760355E-007	0.0005046	7
	46	275	7.512019	22732.07	-16037.44	1	27819.9	-35.20291	-5.76178E-007	0.0005559	7
	47	278	5.978954	25398.49	-17630.27	1	30917.79	-34.76631	-5.863174E-007	0.0004962	7
	48	282	4.734848	28370.91	-18775.79	1	34021.15	-33.49648	-5.875333E-007	0.0007426	7
	49	286	3.75601	31584.27	-19387.87	1	37060.16	-31.54351	-5.917518E-007	0.0007089	7
	50	291	3.004808	34613.87	-19400.03	1	39679.73	-29.26931	-5.860896E-007	0.000638	7
	51	298	2.372217	37875.79	-19147.31	1	42440.48	-26.81792	-5.937177E-007	0.00059	7
	52	302	1.878005	40342.07	-17934.58	1	44148.97	-23.96815	-5.969205E-007	0.0006095	7
	53	311	1.512097	42339.68	-16872.58	1	45577.76	-21.72754	-6.005304E-007	0.0007277	7
	54	322	1.201923	44208.54	-15684.59	1	46908.43	-19.53399	-6.015558E-007	0.0006155	7
	55	335	0.956633	46087.21	-14594.72	1	48342.91	-17.57175	-6.268583E-007	-3.046548E-005	7
