EXPLAIN
TAG	EISPOT
TITLE	LABEL	Potentiostatic EIS	Test Identifier
DATE	LABEL	8/24/2020	Date
TIME	LABEL	22:35:34	Time
NOTES	NOTES	1	Notes...
	
PSTAT	PSTAT	REF3000-16137	Potentiostat
VDC	POTEN	0.00000E+000	T	DC Voltage (V)
FREQINIT	QUANT	3.00000E+005	Initial Freq. (Hz)
FREQFINAL	QUANT	1.00000E+000	Final Freq. (Hz)
PTSPERDEC	QUANT	1.00000E+001	Points/decade
VAC	QUANT	5.00000E+001	AC Voltage (mV rms)
AREA	QUANT	1.00000E+000	Sample Area (cm^2)
SPEED	SELECTOR	2	Optimize for:
ZGUESS	QUANT	1.00000E+003	Estimated Z (ohms)
EOC	QUANT	0	Open Circuit (V)
SEQUENCER	TOGGLE	TRUE	Run as Sequence
PSTATMODEL	IQUANT	5	Pstat Model
PSTATSECTION	LABEL	REF3000-16137	Pstat Section
PSTATSERIALNO	LABEL	16137	Pstat Serial Number
CTRLMODE	IQUANT	1	Control Mode
IESTAB	IQUANT	0	I/E Stability
CASPEED	IQUANT	1	Control Amp Speed
CONVENTION	IQUANT	1	Current Convention
ICHRANGE	IQUANT	2	Ich Range
ICHRANGEMODE	TOGGLE	F	Ich Auto Range
ICHOFFSETENABLE	TOGGLE	T	Ich Offset Enable
ICHOFFSET	QUANT	0	Ich Offset (V)
ICHFILTER	IQUANT	3	Ich Filter
VCHRANGE	IQUANT	2	Vch Range
VCHRANGEMODE	TOGGLE	F	Vch Auto Range
VCHOFFSETENABLE	TOGGLE	T	Vch Offset Enable
VCHOFFSET	QUANT	0	Vch Offset (V)
VCHFILTER	IQUANT	3	Vch Filter
ACHRANGE	IQUANT	2	Ach Range
ACHOFFSETENABLE	TOGGLE	F	Ach Offset Enable
ACHOFFSET	QUANT	0	Ach Offset (V)
ACHFILTER	IQUANT	3	Ach Filter
IERANGELOWERLIMIT	IQUANT	2	I/E Range Lower Limit
IERANGEMODE	TOGGLE	F	I/E AutoRange
IERANGE	IQUANT	11	I/E Range
POSFEEDENABLE	TOGGLE	F	Positive Feedback IR Comp
POSFEEDRESISTANCE	QUANT	0	Positive Feedback Resistance (ohm)
ACHSELECT	IQUANT	0	Ach Select
CABLEID	IQUANT	13	Cable ID
DCCALDATE	LABEL	7/31/2020	DC Calibration Date
ACCALDATE	LABEL	7/31/2020	AC Calibration Date
THERMOSELECT	IQUANT	1	Thermo Select
FRAMEWORKVERSION	QUANT	6.33	Framework Version
INSTRUMENTVERSION	LABEL	3.50	Instrument Version
COMPLIANCEVOLTAGE	IQUANT	0	Compliance Voltage
ZCURVE	TABLE
	Pt	Time	Freq	Zreal	Zimag	Zsig	Zmod	Zphz	Idc	Vdc	IERange
	#	s	Hz	ohm	ohm	V	ohm	°	A	V	#
	0	16	300046.9	59.01121	-2475.757	1	2476.46	-88.63457	0.0003738	-0.0019598	10
	1	32	238359.4	83.20667	-3256.553	1	3257.616	-88.53638	0.0001386	0.0026415	10
	2	48	189328.1	426.0316	-3764.453	1	3788.484	-83.54318	-0.0008156	0.0224628	9
	3	58	150421.9	261.6115	-4946.511	1	4953.424	-86.97256	-0.0008127	0.0290725	9
	4	66	119484.4	952.616	-6269.728	1	6341.685	-81.36062	-0.0005222	0.0024559	9
	5	75	94921.88	695.0505	-7515.073	1	7547.146	-84.71589	0.0002136	-0.0109974	9
	6	84	75421.88	849.5099	-9582.32	1	9619.9	-84.93375	-4.841807E-005	-0.005577	9
	7	95	59859.37	4919.754	-11915.85	1	12891.53	-67.56551	-0.0001205	0.0573922	8
	8	103	47578.12	1971.644	-14728.08	1	14859.47	-82.37516	-0.000151	0.0107812	9
	9	114	37828.12	1282.894	-18460.93	1	18505.45	-86.02477	-6.093063E-005	0.0090443	9
	10	123	30046.88	3731.066	-23052.19	1	23352.18	-80.80624	0.0002219	-0.0011688	9
	11	133	23859.38	2321.358	-24963.51	1	25071.21	-84.68734	0.0002701	-0.0108122	9
	12	140	18984.38	1389.13	-40332.83	1	40356.74	-88.02742	0.0001402	0.002624	9
	13	148	15046.87	-10199.06	-49527.45	1	50566.68	-101.6361	-0.0001408	-0.002134	9
	14	156	11953.13	-17766.22	-47824.58	1	51017.93	-110.3794	-0.0002972	0.0096679	9
	15	164	9515.62	21697.21	-54535.72	1	58693.38	-68.30471	0.0002863	-0.0051122	9
	16	173	7546.875	-21666.58	-48664.27	1	53269.61	-113.9999	-0.0001411	-0.0021315	9
	17	181	5928.309	54316.42	-71726.78	1	89972.24	-52.86451	-0.00013	0.0088502	8
	18	187	4733.456	99653.6	31325.09	1	104461	17.45	4.052553E-005	0.0062164	9
	19	197	3796.875	2524294	-3461355	1	4284045	-53.89751	4.44968E-005	0.0061907	9
	20	206	2987.132	99792.9	-52739.87	1	112872.2	-27.85614	0.0001235	-0.0589907	8
	21	214	2390.625	38521.08	-48254.85	1	61744.67	-51.40019	0.0002136	-0.0109903	9
	22	224	1884.191	24345.6	-59724.2	1	64495.64	-67.82253	0.0003012	-0.0075172	9
	23	233	1516.544	-72194.16	-593999.9	1	598371.1	-96.9297	-0.0001398	0.0514287	8
	24	240	1193.986	48056.08	-118435.4	1	127813.6	-67.91476	-0.0002246	0.0114078	9
	25	252	946.5144	72635.2	-7577.902	1	73029.42	-5.956021	-5.273079E-005	-0.0054552	9
	26	260	751.7689	-26153.14	22392.5	1	34429.8	139.4296	-0.0001476	-0.0019636	9
	27	267	597.4265	-9774.54	-107947.8	1	108389.5	-95.174	4.76166E-005	-0.0084597	9
	28	274	477.4305	617102.5	-231359.1	1	659046.7	-20.55162	-2.095454E-006	0.0005506	8
	29	280	376.6741	767236.4	-493062.9	1	912010.3	-32.72675	-7.807204E-007	0.0005546	7
	30	284	298.2954	949749.3	-367519.7	1	1018378	-21.15469	-8.693343E-008	0.0008047	6
	31	289	237.7717	1509016	193121	1	1521324	7.292959	-9.378734E-009	0.0007982	5
	32	292	189.0121	1487174	118019.5	1	1491849	4.537383	-8.354077E-009	0.0007864	5
	33	294	150.2404	1301263	-18535.72	1	1301395	-0.816089	-8.592795E-009	0.0005282	5
	34	297	119.1737	1681286	-535079.5	1	1764379	-17.65398	-8.352437E-009	0.0007864	5
	35	300	95.0169	1489397	-130339.1	1	1495089	-5.001288	-8.108213E-009	0.0005116	5
	36	303	75.60484	1504368	-256807.8	1	1526130	-9.68747	-8.330902E-009	0.0005148	5
	37	306	54.50582	1565008	-353386.3	1	1604410	-12.72427	-8.756945E-009	0.0006784	5
	38	309	45.95588	1617446	-371273.9	1	1659510	-12.92791	-9.16092E-009	0.0005259	5
	39	311	37.20238	1611059	-489875.5	1	1683891	-16.91297	-8.195021E-009	0.0005218	5
	40	314	30.04808	1609957	-685459.6	1	1749805	-23.0625	-8.695842E-009	0.0007708	5
	41	317	23.91582	1824480	-665287.4	1	1941993	-20.03413	-7.309874E-009	0.0005874	5
	42	320	18.60119	1843577	-860381.1	1	2034461	-25.01804	-8.705435E-009	0.0007416	5
	43	322	15.02404	1982186	-1083191	1	2258841	-28.65496	-7.562208E-009	0.0007378	5
	44	325	12.01923	2006972	-1125050	1	2300799	-29.27373	-9.221688E-009	0.0006812	5
	45	327	9.450605	2188616	-1318901	1	2555297	-31.07395	-8.604284E-009	0.0005627	5
	46	330	7.512019	2310807	-1171000	1	2590573	-26.87358	-7.755205E-007	0.0005396	7
	47	336	5.978954	2518492	-1834691	1	3115910	-36.07289	-8.562844E-008	0.000589	6
	48	344	4.734848	2858228	-2047222	1	3515762	-35.61235	-8.832103E-009	0.0007887	5
	49	350	3.75601	2979275	-2217532	1	3713964	-36.66102	-8.499723E-008	0.0005739	6
	50	357	3.004808	3511913	-2657534	1	4404091	-37.11552	-8.928065E-009	0.0006531	5
	51	365	2.372217	3926009	-3090688	1	4996589	-38.21102	-8.581891E-009	0.0005793	5
	52	369	1.878005	4346298	-3436385	1	5540672	-38.33154	-8.524191E-009	0.0006548	5
	53	376	1.512097	4998359	-3899061	1	6339265	-37.95666	-8.864498E-009	0.0006367	5
	54	382	1.201923	2.243888E+007	-1.695499E+007	1	2.812428E+007	-37.07497	-2.856266E-010	0.0006694	4
	55	394	0.956633	2.741967E+007	-2.251658E+007	1	3.548006E+007	-39.39227	-5.747156E-010	1.188542E-005	4
