EXPLAIN
TAG	EISPOT
TITLE	LABEL	Potentiostatic EIS	Test Identifier
DATE	LABEL	8/25/2020	Date
TIME	LABEL	0:51:07	Time
NOTES	NOTES	1	Notes...
	
PSTAT	PSTAT	REF3000-16137	Potentiostat
VDC	POTEN	0.00000E+000	T	DC Voltage (V)
FREQINIT	QUANT	3.00000E+005	Initial Freq. (Hz)
FREQFINAL	QUANT	1.00000E+000	Final Freq. (Hz)
PTSPERDEC	QUANT	1.00000E+001	Points/decade
VAC	QUANT	5.00000E+001	AC Voltage (mV rms)
AREA	QUANT	1.00000E+000	Sample Area (cm^2)
SPEED	SELECTOR	2	Optimize for:
ZGUESS	QUANT	1.00000E+003	Estimated Z (ohms)
EOC	QUANT	0	Open Circuit (V)
SEQUENCER	TOGGLE	TRUE	Run as Sequence
PSTATMODEL	IQUANT	5	Pstat Model
PSTATSECTION	LABEL	REF3000-16137	Pstat Section
PSTATSERIALNO	LABEL	16137	Pstat Serial Number
CTRLMODE	IQUANT	1	Control Mode
IESTAB	IQUANT	0	I/E Stability
CASPEED	IQUANT	1	Control Amp Speed
CONVENTION	IQUANT	1	Current Convention
ICHRANGE	IQUANT	2	Ich Range
ICHRANGEMODE	TOGGLE	F	Ich Auto Range
ICHOFFSETENABLE	TOGGLE	T	Ich Offset Enable
ICHOFFSET	QUANT	0	Ich Offset (V)
ICHFILTER	IQUANT	3	Ich Filter
VCHRANGE	IQUANT	2	Vch Range
VCHRANGEMODE	TOGGLE	F	Vch Auto Range
VCHOFFSETENABLE	TOGGLE	T	Vch Offset Enable
VCHOFFSET	QUANT	0	Vch Offset (V)
VCHFILTER	IQUANT	3	Vch Filter
ACHRANGE	IQUANT	2	Ach Range
ACHOFFSETENABLE	TOGGLE	F	Ach Offset Enable
ACHOFFSET	QUANT	0	Ach Offset (V)
ACHFILTER	IQUANT	3	Ach Filter
IERANGELOWERLIMIT	IQUANT	2	I/E Range Lower Limit
IERANGEMODE	TOGGLE	F	I/E AutoRange
IERANGE	IQUANT	11	I/E Range
POSFEEDENABLE	TOGGLE	F	Positive Feedback IR Comp
POSFEEDRESISTANCE	QUANT	0	Positive Feedback Resistance (ohm)
ACHSELECT	IQUANT	0	Ach Select
CABLEID	IQUANT	13	Cable ID
DCCALDATE	LABEL	7/31/2020	DC Calibration Date
ACCALDATE	LABEL	7/31/2020	AC Calibration Date
THERMOSELECT	IQUANT	1	Thermo Select
FRAMEWORKVERSION	QUANT	6.33	Framework Version
INSTRUMENTVERSION	LABEL	3.50	Instrument Version
COMPLIANCEVOLTAGE	IQUANT	0	Compliance Voltage
ZCURVE	TABLE
	Pt	Time	Freq	Zreal	Zimag	Zsig	Zmod	Zphz	Idc	Vdc	IERange
	#	s	Hz	ohm	ohm	V	ohm	°	A	V	#
	0	15	300046.9	863.0072	-1354.993	1	1606.483	-57.50658	0.000234	0.0100528	9
	1	29	238359.4	1016.942	-1233.701	1	1598.808	-50.50118	0.0007909	-0.0236878	9
	2	45	189328.1	1271.377	-1593.228	1	2038.326	-51.41055	0.0007336	-0.0283162	9
	3	53	150421.9	1616.707	-1873.042	1	2474.273	-49.20104	0.0007389	-0.0283907	9
	4	60	119484.4	1948.971	-1810.254	1	2659.982	-42.88671	-0.0003373	-0.0058932	9
	5	69	94921.88	2334.505	-1846.718	1	2976.623	-38.34587	-0.0002184	0.0112448	9
	6	79	75421.88	2649.745	-1800.611	1	3203.646	-34.19772	4.423815E-005	0.0060493	9
	7	88	59859.37	3363.188	-799.8932	1	3457.002	-13.37854	-2.962385E-005	0.0524277	8
	8	96	47578.12	3840.92	-1041.174	1	3979.537	-15.16693	-6.82188E-005	0.0566921	8
	9	103	37828.12	3675.662	-1236.062	1	3877.93	-18.58691	9.146491E-005	-0.055574	8
	10	111	30046.88	3841.361	-1241.426	1	4036.979	-17.90946	0.0001464	-0.0260913	8
	11	118	23859.38	3843.81	-1416.9	1	4096.643	-20.23483	-5.243013E-005	-0.0053937	9
	12	125	18984.38	4139.497	-1333.511	1	4348.986	-17.856	5.006933E-005	0.005685	9
	13	131	15046.87	4161.375	-1262.219	1	4348.591	-16.87347	-5.934306E-005	-0.0052268	9
	14	138	11953.13	4378.707	-1187.158	1	4536.785	-15.1694	0.0003008	-0.0076162	9
	15	144	9515.62	4603.516	-1104.236	1	4734.099	-13.48858	-0.0001236	0.0102825	8
	16	151	7546.875	5205.007	-1106.354	1	5321.289	-11.99995	-0.0001244	0.048143	8
	17	156	5928.309	5067.754	-1071.218	1	5179.734	-11.93544	4.426639E-005	0.0060443	9
	18	162	4733.456	5129.414	-1075.01	1	5240.853	-11.8366	0.0001247	-0.0070188	8
	19	168	3796.875	5154.712	-1113.773	1	5273.666	-12.1924	-3.51122E-005	0.0520757	8
	20	173	2987.132	5418.277	-1212.578	1	5552.303	-12.6146	-0.0001355	0.0493188	8
	21	178	2390.625	5645.987	-1159.547	1	5763.829	-11.60577	0.000284	-0.005149	9
	22	185	1884.191	5681.831	-949.3209	1	5760.591	-9.485369	-0.0001458	0.040301	8
	23	191	1516.544	5667.333	-1651.938	1	5903.183	-16.25057	0.0002835	-0.0051908	9
	24	199	1193.986	5238.82	-1639.339	1	5489.323	-17.37602	0.0002826	-0.0051591	9
	25	207	946.5144	5948.924	-1257.978	1	6080.478	-11.94004	0.0002257	-0.0013865	9
	26	212	751.7689	7153.855	-1220.421	1	7257.208	-9.68124	0.0003013	-0.0076203	9
	27	217	597.4265	7296.093	-1359.269	1	7421.629	-10.55328	0.0002266	-0.0015022	9
	28	223	477.4305	6868.246	-2119.945	1	7187.974	-17.15331	3.111888E-007	7.838431E-005	9
	29	228	376.6741	9342.795	-2860.767	1	9770.97	-17.02461	-6.151465E-007	0.0005533	7
	30	230	298.2954	9746.05	-3145.504	1	10241.08	-17.8873	-6.176579E-007	0.0006379	7
	31	232	237.7717	10171.53	-3349.572	1	10708.86	-18.22716	-5.920788E-007	0.0005997	7
	32	235	189.0121	10645.1	-3612.011	1	11241.21	-18.74269	-5.887779E-007	0.0005053	7
	33	237	150.2404	11086.35	-3771.652	1	11710.36	-18.78866	-6.035173E-007	0.0007243	7
	34	240	119.1737	11607.9	-4129.336	1	12320.5	-19.58225	-5.733602E-007	0.0006471	7
	35	242	95.0169	12119.82	-4461.473	1	12914.9	-20.20936	-5.927785E-007	0.0007016	7
	36	245	75.60484	12609.21	-4820.001	1	13499.06	-20.91987	-6.103083E-007	0.000722	7
	37	247	54.50582	13387.19	-5467.678	1	14460.72	-22.21638	-6.14395E-007	0.0007167	7
	38	250	45.95588	13705.59	-5929.71	1	14933.34	-23.39568	-5.811205E-007	0.0005607	7
	39	252	37.20238	14234.31	-6543.646	1	15666.36	-24.68869	-5.849359E-007	0.0005582	7
	40	255	30.04808	14836.74	-7299.817	1	16535.3	-26.19762	-5.813586E-007	0.0005174	7
	41	258	23.91582	15514.17	-8362.466	1	17624.43	-28.3256	-6.017588E-007	0.000719	7
	42	260	18.60119	16491.37	-9771.96	1	19169.15	-30.64886	-5.922259E-007	0.0005211	7
	43	262	15.02404	17508.83	-11138.54	1	20751.54	-32.46316	-5.770332E-007	0.0006073	7
	44	265	12.01923	18897.49	-12730.89	1	22785.76	-33.96742	-5.90106E-007	0.0004934	7
	45	267	9.450605	20717.54	-14534.06	1	25307.22	-35.05097	-5.847988E-007	0.0004983	7
	46	270	7.512019	22959.82	-16236.81	1	28120.94	-35.26732	-6.018038E-007	0.0007178	7
	47	273	5.978954	25540.9	-17737.12	1	31095.7	-34.77841	-5.972148E-007	0.0007305	7
	48	277	4.734848	28622.7	-18895.05	1	34296.97	-33.43049	-5.921825E-007	0.0006561	7
	49	282	3.75601	31810.99	-19537.47	1	37331.65	-31.55715	-6.011692E-007	0.0007324	7
	50	287	3.004808	34887.91	-19600.01	1	40016.58	-29.32725	-5.897413E-007	0.0005751	7
	51	294	2.372217	38186.91	-19463.79	1	42861.16	-27.00785	-6.010123E-007	0.0005937	7
	52	298	1.878005	40786.92	-18262.57	1	44688.86	-24.12071	-6.051713E-007	0.0006098	7
	53	307	1.512097	42919.9	-17258.24	1	46259.75	-21.90523	-6.054706E-007	0.0006621	7
	54	317	1.201923	44933.93	-16001.4	1	47698.04	-19.6013	-6.087934E-007	0.0006222	7
	55	330	0.956633	46998.62	-14996.94	1	49333.34	-17.69753	-6.36718E-007	1.377964E-005	7
