EXPLAIN
TAG	EISPOT
TITLE	LABEL	Potentiostatic EIS	Test Identifier
DATE	LABEL	8/25/2020	Date
TIME	LABEL	2:18:07	Time
NOTES	NOTES	1	Notes...
	
PSTAT	PSTAT	REF3000-16137	Potentiostat
VDC	POTEN	0.00000E+000	T	DC Voltage (V)
FREQINIT	QUANT	3.00000E+005	Initial Freq. (Hz)
FREQFINAL	QUANT	1.00000E+000	Final Freq. (Hz)
PTSPERDEC	QUANT	1.00000E+001	Points/decade
VAC	QUANT	5.00000E+001	AC Voltage (mV rms)
AREA	QUANT	1.00000E+000	Sample Area (cm^2)
SPEED	SELECTOR	2	Optimize for:
ZGUESS	QUANT	1.00000E+003	Estimated Z (ohms)
EOC	QUANT	0	Open Circuit (V)
SEQUENCER	TOGGLE	TRUE	Run as Sequence
PSTATMODEL	IQUANT	5	Pstat Model
PSTATSECTION	LABEL	REF3000-16137	Pstat Section
PSTATSERIALNO	LABEL	16137	Pstat Serial Number
CTRLMODE	IQUANT	1	Control Mode
IESTAB	IQUANT	0	I/E Stability
CASPEED	IQUANT	1	Control Amp Speed
CONVENTION	IQUANT	1	Current Convention
ICHRANGE	IQUANT	2	Ich Range
ICHRANGEMODE	TOGGLE	F	Ich Auto Range
ICHOFFSETENABLE	TOGGLE	T	Ich Offset Enable
ICHOFFSET	QUANT	0	Ich Offset (V)
ICHFILTER	IQUANT	3	Ich Filter
VCHRANGE	IQUANT	2	Vch Range
VCHRANGEMODE	TOGGLE	F	Vch Auto Range
VCHOFFSETENABLE	TOGGLE	T	Vch Offset Enable
VCHOFFSET	QUANT	0	Vch Offset (V)
VCHFILTER	IQUANT	3	Vch Filter
ACHRANGE	IQUANT	2	Ach Range
ACHOFFSETENABLE	TOGGLE	F	Ach Offset Enable
ACHOFFSET	QUANT	0	Ach Offset (V)
ACHFILTER	IQUANT	3	Ach Filter
IERANGELOWERLIMIT	IQUANT	2	I/E Range Lower Limit
IERANGEMODE	TOGGLE	F	I/E AutoRange
IERANGE	IQUANT	11	I/E Range
POSFEEDENABLE	TOGGLE	F	Positive Feedback IR Comp
POSFEEDRESISTANCE	QUANT	0	Positive Feedback Resistance (ohm)
ACHSELECT	IQUANT	0	Ach Select
CABLEID	IQUANT	13	Cable ID
DCCALDATE	LABEL	7/31/2020	DC Calibration Date
ACCALDATE	LABEL	7/31/2020	AC Calibration Date
THERMOSELECT	IQUANT	1	Thermo Select
FRAMEWORKVERSION	QUANT	6.33	Framework Version
INSTRUMENTVERSION	LABEL	3.50	Instrument Version
COMPLIANCEVOLTAGE	IQUANT	0	Compliance Voltage
ZCURVE	TABLE
	Pt	Time	Freq	Zreal	Zimag	Zsig	Zmod	Zphz	Idc	Vdc	IERange
	#	s	Hz	ohm	ohm	V	ohm	°	A	V	#
	0	15	300046.9	844.0953	-1346.41	1	1589.124	-57.91545	0.0001682	-0.0194975	9
	1	29	238359.4	1063.637	-1355.46	1	1722.961	-51.87851	-0.0008154	0.0228326	9
	2	45	189328.1	1317.49	-1570.315	1	2049.797	-50.00344	0.0007234	-0.014389	9
	3	55	150421.9	1455.795	-1748.812	1	2275.452	-50.22438	2.714131E-005	-0.0170535	9
	4	62	119484.4	1970.243	-1861.026	1	2710.217	-43.36713	4.20507E-005	-0.0170012	9
	5	71	94921.88	2876.634	-413.2953	1	2906.172	-8.17592	-3.610262E-005	0.0525996	8
	6	78	75421.88	2626.971	-1754.034	1	3158.736	-33.73112	4.406031E-005	-0.0081846	9
	7	87	59859.37	3480.71	-1371.76	1	3741.266	-21.50957	-0.0001399	0.0272609	8
	8	94	47578.12	3157.906	-1589.076	1	3535.185	-26.7118	-5.282915E-005	0.0088403	9
	9	103	37828.12	3541.331	-1531.398	1	3858.264	-23.38538	0.0001458	0.0023632	9
	10	112	30046.88	3659.362	-1456.924	1	3938.725	-21.70928	-0.0002158	0.0111632	9
	11	120	23859.38	3887.531	-1360.793	1	4118.817	-19.2921	0.0002656	-0.0107443	9
	12	128	18984.38	4065.057	-1276.426	1	4260.745	-17.43226	-5.414379E-005	-0.0054724	9
	13	135	15046.87	4155.665	-1239.241	1	4336.504	-16.60486	-0.0002186	0.0112339	9
	14	142	11953.13	4337.267	-1243.441	1	4511.987	-15.99694	-5.414479E-005	0.0088576	9
	15	148	9515.62	4588.202	-1109.511	1	4720.446	-13.5942	-0.0001494	0.0402787	8
	16	153	7546.875	4770.018	-1071.728	1	4888.933	-12.66293	0.0002094	-0.0109682	9
	17	160	5928.309	5009.907	-1465.122	1	5219.746	-16.3013	0.0002275	-0.0015153	9
	18	168	4733.456	4877.002	-1196.956	1	5021.738	-13.78947	-0.0002913	0.0093807	9
	19	175	3796.875	4956.503	-1342.454	1	5135.086	-15.1548	0.0002291	-0.0015072	9
	20	183	2987.132	5440.944	-1178.089	1	5567.025	-12.21725	-0.0001235	0.0098966	8
	21	189	2390.625	6449.867	-1203.186	1	6561.131	-10.56675	4.201257E-005	-0.0079602	9
	22	196	1884.191	6018.332	-1383.475	1	6175.299	-12.94606	-0.0001127	0.0548874	8
	23	201	1516.544	6085.573	-1821.093	1	6352.21	-16.65969	-0.0001455	0.0106139	9
	24	208	1193.986	5954.242	-1162.759	1	6066.713	-11.0498	-0.0001227	0.0101334	8
	25	213	946.5144	7456.585	-1647.314	1	7636.38	-12.45773	-0.0001227	0.0097995	8
	26	217	751.7689	7674.607	-1238.202	1	7773.85	-9.164985	0.0002801	0.000601	10
	27	223	597.4265	7111.299	-101.6787	1	7112.026	-0.8191701	0.0002957	-0.0096417	9
	28	229	477.4305	6893.78	-2167.745	1	7226.57	-17.45573	-1.99908E-007	9.478146E-005	9
	29	234	376.6741	9356.217	-2924.414	1	9802.6	-17.35735	-6.000045E-007	0.0006966	7
	30	236	298.2954	9783.29	-3192.789	1	10291.1	-18.07415	-6.072512E-007	0.0006436	7
	31	238	237.7717	10210.79	-3419.566	1	10768.18	-18.51556	-5.85545E-007	0.0005974	7
	32	241	189.0121	10682.2	-3673.986	1	11296.36	-18.97989	-5.88399E-007	0.0005529	7
	33	243	150.2404	11298.67	-3904.082	1	11954.15	-19.06181	-6.0474E-007	0.0006349	7
	34	246	119.1737	11744.4	-4149.568	1	12455.92	-19.45949	-6.098177E-007	0.0006957	7
	35	248	95.0169	12195.32	-4547.453	1	13015.58	-20.44973	-5.88092E-007	0.0004994	7
	36	251	75.60484	12687.37	-4905.666	1	13602.75	-21.13936	-5.945015E-007	0.0007141	7
	37	253	54.50582	13445.28	-5576.568	1	14555.88	-22.52674	-6.016543E-007	0.0006977	7
	38	256	45.95588	13823.62	-6013.029	1	15074.78	-23.50818	-5.974133E-007	0.0007563	7
	39	258	37.20238	14325.63	-6684.332	1	15808.35	-25.01374	-5.871215E-007	0.0005103	7
	40	261	30.04808	14911.99	-7500.416	1	16692.02	-26.70144	-5.85558E-007	0.0005072	7
	41	263	23.91582	15580.07	-8593.909	1	17793.08	-28.88097	-6.045417E-007	0.000694	7
	42	266	18.60119	16632.12	-10091.69	1	19454.3	-31.24767	-6.012757E-007	0.0007181	7
	43	268	15.02404	17585.68	-11535.82	1	21031.67	-33.26401	-5.921471E-007	0.0007449	7
	44	271	12.01923	18962.05	-13237.03	1	23125.27	-34.91813	-5.811447E-007	0.0005588	7
	45	273	9.450605	20909.86	-15224.09	1	25864.95	-36.05769	-5.750641E-007	0.0006054	7
	46	276	7.512019	23271.09	-17109.74	1	28884.02	-36.32465	-5.829207E-007	0.0006527	7
	47	279	5.978954	25975.01	-18794.83	1	32061.61	-35.8885	-5.957596E-007	0.0007293	7
	48	284	4.734848	29243	-20063.14	1	35463.82	-34.45338	-5.967091E-007	0.0005428	7
	49	288	3.75601	32616.21	-20843.78	1	38707.63	-32.5811	-5.87477E-007	0.0005837	7
	50	293	3.004808	35928.43	-20948.12	1	41589.37	-30.24438	-5.95206E-007	0.0007086	7
	51	300	2.372217	39478.74	-20845.09	1	44644.02	-27.83441	-6.07676E-007	0.0006528	7
	52	304	1.878005	42171.65	-19475.08	1	46451.34	-24.78773	-6.053525E-007	0.0006051	7
	53	313	1.512097	44310.23	-18264.86	1	47927.05	-22.40166	-6.054325E-007	0.000583	7
	54	324	1.201923	46363.55	-16928.01	1	49357.23	-20.05787	-6.06506E-007	0.0006352	7
	55	336	0.956633	48154.76	-15622.99	1	50625.67	-17.97478	-6.252615E-007	-2.473677E-005	7
