EXPLAIN
TAG	EISPOT
TITLE	LABEL	Potentiostatic EIS	Test Identifier
DATE	LABEL	8/25/2020	Date
TIME	LABEL	0:56:48	Time
NOTES	NOTES	1	Notes...
	
PSTAT	PSTAT	REF3000-16137	Potentiostat
VDC	POTEN	0.00000E+000	T	DC Voltage (V)
FREQINIT	QUANT	3.00000E+005	Initial Freq. (Hz)
FREQFINAL	QUANT	1.00000E+000	Final Freq. (Hz)
PTSPERDEC	QUANT	1.00000E+001	Points/decade
VAC	QUANT	5.00000E+001	AC Voltage (mV rms)
AREA	QUANT	1.00000E+000	Sample Area (cm^2)
SPEED	SELECTOR	2	Optimize for:
ZGUESS	QUANT	1.00000E+003	Estimated Z (ohms)
EOC	QUANT	0	Open Circuit (V)
SEQUENCER	TOGGLE	TRUE	Run as Sequence
PSTATMODEL	IQUANT	5	Pstat Model
PSTATSECTION	LABEL	REF3000-16137	Pstat Section
PSTATSERIALNO	LABEL	16137	Pstat Serial Number
CTRLMODE	IQUANT	1	Control Mode
IESTAB	IQUANT	0	I/E Stability
CASPEED	IQUANT	1	Control Amp Speed
CONVENTION	IQUANT	1	Current Convention
ICHRANGE	IQUANT	2	Ich Range
ICHRANGEMODE	TOGGLE	F	Ich Auto Range
ICHOFFSETENABLE	TOGGLE	T	Ich Offset Enable
ICHOFFSET	QUANT	0	Ich Offset (V)
ICHFILTER	IQUANT	3	Ich Filter
VCHRANGE	IQUANT	2	Vch Range
VCHRANGEMODE	TOGGLE	F	Vch Auto Range
VCHOFFSETENABLE	TOGGLE	T	Vch Offset Enable
VCHOFFSET	QUANT	0	Vch Offset (V)
VCHFILTER	IQUANT	3	Vch Filter
ACHRANGE	IQUANT	2	Ach Range
ACHOFFSETENABLE	TOGGLE	F	Ach Offset Enable
ACHOFFSET	QUANT	0	Ach Offset (V)
ACHFILTER	IQUANT	3	Ach Filter
IERANGELOWERLIMIT	IQUANT	2	I/E Range Lower Limit
IERANGEMODE	TOGGLE	F	I/E AutoRange
IERANGE	IQUANT	11	I/E Range
POSFEEDENABLE	TOGGLE	F	Positive Feedback IR Comp
POSFEEDRESISTANCE	QUANT	0	Positive Feedback Resistance (ohm)
ACHSELECT	IQUANT	0	Ach Select
CABLEID	IQUANT	13	Cable ID
DCCALDATE	LABEL	7/31/2020	DC Calibration Date
ACCALDATE	LABEL	7/31/2020	AC Calibration Date
THERMOSELECT	IQUANT	1	Thermo Select
FRAMEWORKVERSION	QUANT	6.33	Framework Version
INSTRUMENTVERSION	LABEL	3.50	Instrument Version
COMPLIANCEVOLTAGE	IQUANT	0	Compliance Voltage
ZCURVE	TABLE
	Pt	Time	Freq	Zreal	Zimag	Zsig	Zmod	Zphz	Idc	Vdc	IERange
	#	s	Hz	ohm	ohm	V	ohm	°	A	V	#
	0	15	300046.9	627.5321	-1348.731	1	1487.572	-65.04857	0.0005285	0.0015305	10
	1	38	238359.4	1070.955	-1430.909	1	1787.301	-53.18722	0.0001762	-0.0189579	9
	2	54	189328.1	1214.451	-1637.796	1	2038.937	-53.4425	-0.0007077	0.0122682	9
	3	63	150421.9	1595.24	-1701.775	1	2332.558	-46.85073	-0.0003361	-0.0058552	9
	4	71	119484.4	1780.416	-1922.341	1	2620.167	-47.19504	-0.0008673	0.0036919	10
	5	81	94921.88	2335.702	-1818.083	1	2959.887	-37.89677	0.0001435	0.0024352	9
	6	91	75421.88	2646.044	-1789.03	1	3194.084	-34.06321	0.0001339	-0.0101335	9
	7	100	59859.37	2640.736	-1711.09	1	3146.636	-32.9416	-0.0002683	0.010787	9
	8	111	47578.12	3248.207	-1620.31	1	3629.911	-26.51149	-0.0002885	0.0072	9
	9	121	37828.12	3453.062	-1586.373	1	3800.029	-24.67455	-0.0001413	-0.0020908	9
	10	131	30046.88	3721.214	-1421.429	1	3983.453	-20.90585	0.0002829	-0.0051604	9
	11	139	23859.38	3930.695	-1350.578	1	4156.251	-18.96261	0.0001442	0.0023352	9
	12	146	18984.38	4229.271	-960.451	1	4336.958	-12.79464	1.093556E-005	0.0437657	8
	13	151	15046.87	4362.5	-1005.959	1	4476.981	-12.985	1.030069E-005	0.0438398	8
	14	156	11953.13	4485.891	-1086.615	1	4615.62	-13.61645	-0.0001229	0.0103228	8
	15	162	9515.62	4435.571	-1262.59	1	4611.77	-15.88906	-0.0002192	0.001681	9
	16	168	7546.875	4624.213	-1064.941	1	4745.255	-12.9689	0.0002274	-0.0014851	9
	17	176	5928.309	4830.546	-1126.979	1	4960.268	-13.13235	-0.0002173	0.0016019	9
	18	182	4733.456	5180.077	-1092.223	1	5293.973	-11.90646	0.0002645	-0.0107305	9
	19	190	3796.875	5095.866	-1101.911	1	5213.641	-12.20157	0.0002264	-0.0014907	9
	20	196	2987.132	5454.443	-881.5248	1	5525.218	-9.180529	0.0003004	-0.0076054	9
	21	203	2390.625	5415.42	-1234.979	1	5554.453	-12.84653	-0.0001407	0.0492734	8
	22	209	1884.191	5731.447	-1235.064	1	5863.009	-12.16066	-0.0001141	0.0546377	8
	23	215	1516.544	6099.791	-1304.728	1	6237.77	-12.07347	0.0003011	-0.0075935	9
	24	221	1193.986	5807.894	-1057.098	1	5903.311	-10.31552	4.583181E-005	0.0059595	9
	25	228	946.5144	5400.202	-1750.234	1	5676.75	-17.95778	-0.0001467	0.041173	8
	26	231	751.7689	8743.188	-462.3007	1	8755.402	-3.026726	-0.0001453	0.0407222	8
	27	235	597.4265	5783.333	-1812.401	1	6060.672	-17.40013	-0.0002198	0.0111716	9
	28	241	477.4305	6857.902	-2120.49	1	7178.252	-17.18182	1.008292E-007	1.804665E-005	9
	29	245	376.6741	9326.264	-2866.321	1	9756.79	-17.08422	-6.091402E-007	0.0007416	7
	30	247	298.2954	9780.41	-3143.732	1	10273.24	-17.81904	-6.145814E-007	0.0004967	7
	31	249	237.7717	10122.81	-3346.003	1	10661.47	-18.29084	-5.907578E-007	0.000733	7
	32	252	189.0121	10639.41	-3617.404	1	11237.55	-18.77806	-6.195788E-007	0.0007216	7
	33	254	150.2404	11301.35	-3875.146	1	11947.27	-18.92645	-6.224711E-007	0.0006978	7
	34	257	119.1737	11547.18	-4179.429	1	12280.27	-19.89741	-6.009238E-007	0.0007479	7
	35	259	95.0169	12159.42	-4467.519	1	12954.16	-20.17395	-6.158714E-007	0.0007474	7
	36	261	75.60484	12582.46	-4819.624	1	13473.94	-20.95899	-5.904443E-007	0.0006443	7
	37	264	54.50582	13343.19	-5488.234	1	14427.8	-22.35802	-5.960642E-007	0.0005984	7
	38	266	45.95588	13777.83	-5905.88	1	14990.26	-23.20245	-6.035315E-007	0.0005579	7
	39	269	37.20238	14160.92	-6522.388	1	15590.81	-24.73035	-5.916744E-007	0.00074	7
	40	271	30.04808	14865.64	-7347.585	1	16582.35	-26.30164	-5.981366E-007	0.0004816	7
	41	274	23.91582	15434.44	-8304.179	1	17526.59	-28.28154	-5.808384E-007	0.0004883	7
	42	277	18.60119	16438.99	-9765.37	1	19120.74	-30.71187	-5.991155E-007	0.0007134	7
	43	279	15.02404	17546.27	-11139.49	1	20783.64	-32.40998	-5.942559E-007	0.0005306	7
	44	281	12.01923	18762.87	-12626.86	1	22615.99	-33.9394	-5.669489E-007	0.0005231	7
	45	284	9.450605	20797.19	-14593.53	1	25406.57	-35.0576	-6.033731E-007	0.000486	7
	46	287	7.512019	22961.53	-16271.72	1	28142.5	-35.32335	-5.978887E-007	0.0005118	7
	47	290	5.978954	25516.19	-17703.88	1	31056.45	-34.75404	-6.011344E-007	0.00073	7
	48	294	4.734848	28632.59	-18931.26	1	34325.18	-33.47184	-6.015273E-007	0.0007434	7
	49	298	3.75601	31854.39	-19583.51	1	37392.73	-31.58246	-6.041653E-007	0.0006963	7
	50	304	3.004808	34933	-19673.59	1	40091.95	-29.38737	-5.995849E-007	0.0005311	7
	51	310	2.372217	38289.17	-19523.76	1	42979.5	-27.01716	-6.001739E-007	0.0006536	7
	52	314	1.878005	40783.48	-18289.71	1	44696.82	-24.15427	-6.059774E-007	0.0005914	7
	53	323	1.512097	42863.17	-17189.47	1	46181.48	-21.85233	-6.102383E-007	0.0007048	7
	54	334	1.201923	44917.34	-16035.25	1	47693.78	-19.64629	-6.090245E-007	0.0005923	7
	55	347	0.956633	46811.3	-15046.52	1	49170.06	-17.81892	-6.352017E-007	-2.496078E-005	7
