EXPLAIN
TAG	EISPOT
TITLE	LABEL	Potentiostatic EIS	Test Identifier
DATE	LABEL	8/24/2020	Date
TIME	LABEL	23:19:30	Time
NOTES	NOTES	1	Notes...
	
PSTAT	PSTAT	REF3000-16137	Potentiostat
VDC	POTEN	0.00000E+000	T	DC Voltage (V)
FREQINIT	QUANT	3.00000E+005	Initial Freq. (Hz)
FREQFINAL	QUANT	1.00000E+000	Final Freq. (Hz)
PTSPERDEC	QUANT	1.00000E+001	Points/decade
VAC	QUANT	5.00000E+001	AC Voltage (mV rms)
AREA	QUANT	1.00000E+000	Sample Area (cm^2)
SPEED	SELECTOR	2	Optimize for:
ZGUESS	QUANT	1.00000E+003	Estimated Z (ohms)
EOC	QUANT	0	Open Circuit (V)
SEQUENCER	TOGGLE	TRUE	Run as Sequence
PSTATMODEL	IQUANT	5	Pstat Model
PSTATSECTION	LABEL	REF3000-16137	Pstat Section
PSTATSERIALNO	LABEL	16137	Pstat Serial Number
CTRLMODE	IQUANT	1	Control Mode
IESTAB	IQUANT	0	I/E Stability
CASPEED	IQUANT	1	Control Amp Speed
CONVENTION	IQUANT	1	Current Convention
ICHRANGE	IQUANT	2	Ich Range
ICHRANGEMODE	TOGGLE	F	Ich Auto Range
ICHOFFSETENABLE	TOGGLE	T	Ich Offset Enable
ICHOFFSET	QUANT	0	Ich Offset (V)
ICHFILTER	IQUANT	3	Ich Filter
VCHRANGE	IQUANT	2	Vch Range
VCHRANGEMODE	TOGGLE	F	Vch Auto Range
VCHOFFSETENABLE	TOGGLE	T	Vch Offset Enable
VCHOFFSET	QUANT	0	Vch Offset (V)
VCHFILTER	IQUANT	3	Vch Filter
ACHRANGE	IQUANT	2	Ach Range
ACHOFFSETENABLE	TOGGLE	F	Ach Offset Enable
ACHOFFSET	QUANT	0	Ach Offset (V)
ACHFILTER	IQUANT	3	Ach Filter
IERANGELOWERLIMIT	IQUANT	2	I/E Range Lower Limit
IERANGEMODE	TOGGLE	F	I/E AutoRange
IERANGE	IQUANT	11	I/E Range
POSFEEDENABLE	TOGGLE	F	Positive Feedback IR Comp
POSFEEDRESISTANCE	QUANT	0	Positive Feedback Resistance (ohm)
ACHSELECT	IQUANT	0	Ach Select
CABLEID	IQUANT	13	Cable ID
DCCALDATE	LABEL	7/31/2020	DC Calibration Date
ACCALDATE	LABEL	7/31/2020	AC Calibration Date
THERMOSELECT	IQUANT	1	Thermo Select
FRAMEWORKVERSION	QUANT	6.33	Framework Version
INSTRUMENTVERSION	LABEL	3.50	Instrument Version
COMPLIANCEVOLTAGE	IQUANT	0	Compliance Voltage
ZCURVE	TABLE
	Pt	Time	Freq	Zreal	Zimag	Zsig	Zmod	Zphz	Idc	Vdc	IERange
	#	s	Hz	ohm	ohm	V	ohm	°	A	V	#
	0	17	300046.9	131.5844	-2553.499	1	2556.887	-87.0501	0.0008669	-0.0012888	10
	1	33	238359.4	290.5591	-3416.46	1	3428.793	-85.13887	-0.0007168	0.0122006	9
	2	50	189328.1	319.0883	-4032.924	1	4045.527	-85.47614	0.0008424	-0.001126	10
	3	60	150421.9	78.89706	-4723.461	1	4724.12	-89.04307	-0.0008838	0.0034553	10
	4	69	119484.4	262.3228	-6104.492	1	6110.125	-87.53939	-0.0001248	-0.0129906	9
	5	78	94921.88	116.1141	-7573.348	1	7574.238	-89.12161	0.0003057	-0.0076469	9
	6	86	75421.88	60.86323	-9876.59	1	9876.78	-89.64693	0.0003026	-0.0098107	9
	7	96	59859.37	680.6137	-12086.43	1	12105.58	-86.77695	0.0002706	-0.0108807	9
	8	107	47578.12	124.5201	-14309.29	1	14309.83	-89.50142	0.0001398	0.0026569	9
	9	118	37828.12	3255.591	-19514.3	1	19784	-80.52851	-9.92782E-006	-0.0446728	8
	10	127	30046.88	24897.22	-38751.72	1	46060.47	-57.28005	1.374961E-005	0.0359751	7
	11	135	23859.38	30164.07	-49240.16	1	57744.82	-58.50874	-8.570543E-006	0.0763696	7
	12	141	18984.38	10301.44	-37515.22	1	38903.88	-74.64539	4.65139E-005	-0.0541808	8
	13	148	15046.87	7406.515	-52004.79	1	52529.56	-81.89445	-0.0001429	-0.0021303	9
	14	157	11953.13	9392.646	-59958.42	1	60689.66	-81.09682	-6.096341E-006	-0.0439088	8
	15	164	9515.62	10178.26	-86268.64	1	86867	-83.27116	7.038756E-005	0.0342464	8
	16	171	7546.875	-3835.472	-71493.57	1	71596.38	-93.07085	0.0001533	-0.0255091	8
	17	179	5928.309	-46225.2	-48858.34	1	67259.99	-133.4137	-5.036209E-005	-0.0055444	9
	18	189	4733.456	41680.18	-138055.7	1	144210.3	-73.20049	-1.170944E-005	-0.0439466	8
	19	195	3796.875	46505.16	-127741.6	1	135943.5	-69.99563	-3.117371E-005	0.0561265	8
	20	203	2987.132	223262.8	819873.6	1	849728.8	74.76694	4.052609E-005	-0.0542424	8
	21	211	2390.625	-7841.228	-179895.5	1	180066.3	-92.49581	-0.0001409	0.0507795	8
	22	219	1884.191	83932.88	21242.22	1	86579.21	14.20253	-0.0001494	0.0107321	9
	23	228	1516.544	-270304	-107070.8	1	290737.7	-158.3909	-4.869229E-005	-0.0055583	9
	24	237	1193.986	-71430.96	-276287.3	1	285371.7	-104.4958	-0.0002563	0.0019754	10
	25	246	946.5144	-36657.72	-32564.29	1	49032.87	-138.3842	6.124413E-005	0.0330584	8
	26	255	751.7689	62478.01	-14560.23	1	64152.18	-13.11839	-0.0002178	0.0015124	9
	27	261	597.4265	-19813.43	-31836.53	1	37498.49	-121.896	0.0002473	-0.0006339	10
	28	269	477.4305	409268.9	-1574134	1	1626468	-75.42599	-2.243303E-006	0.0006338	8
	29	276	376.6741	446949.3	-2851209	1	2886028	-81.09094	-8.747784E-008	0.000758	6
	30	280	298.2954	3536591	-4387141	1	5635112	-51.12679	-8.936436E-009	0.0007379	5
	31	284	237.7717	3024205	-5484190	1	6262759	-61.12588	-8.666716E-009	0.0005257	5
	32	288	189.0121	3697469	-6119239	1	7149571	-58.85809	-8.558552E-009	0.0005306	5
	33	292	150.2404	3773067	-1.017419E+007	1	1.085128E+007	-69.65285	-8.742568E-009	0.0007671	5
	34	296	119.1737	-4511607	6738607	1	8109465	123.8029	-8.749259E-009	0.0007995	5
	35	300	95.0169	2654071	-1.044603E+007	1	1.077792E+007	-75.74424	-8.73953E-009	0.0005719	5
	36	304	75.60484	1293236	-1.899499E+007	1	1.903896E+007	-86.10514	-8.912655E-009	0.0005528	5
	37	308	54.50582	2449140	-2.144076E+007	1	2.158019E+007	-83.48345	-8.770249E-009	0.0006302	5
	38	312	45.95588	1.861987E+007	-3.614482E+007	1	4.065892E+007	-62.74492	-9.62203E-010	0.0006832	4
	39	315	37.20238	-1.063315E+008	-5.332998E+007	1	1.189557E+008	-153.3642	-8.424767E-010	0.0006325	4
	40	319	30.04808	8473968	-8.069765E+007	1	8.114135E+007	-84.0054	-5.681298E-010	0.0008038	4
	41	323	23.91582	3.271231E+007	-1.029785E+008	1	1.080494E+008	-72.37695	-2.279807E-010	0.0005333	4
	42	326	18.60119	1.335195E+008	2.395246E+008	1	2.742252E+008	60.86315	-8.864066E-010	0.0005645	4
	43	330	15.02404	1.354173E+007	-9.779535E+007	1	9.872846E+007	-82.11638	-8.689155E-008	0.0007682	6
	44	336	12.01923	-1.689275E+007	-1.182512E+008	1	1.194517E+008	-98.13	-8.501195E-008	0.0005891	6
	45	342	9.450605	-1.79396E+007	-4.86591E+007	1	5.186075E+007	-110.2379	-8.703909E-008	0.0007882	6
	46	349	7.512019	8.632904E+007	-2.422669E+008	1	2.571886E+008	-70.38705	-8.611801E-009	0.0005092	5
	47	355	5.978954	-1.600806E+007	-1.113695E+008	1	1.125141E+008	-98.1796	-8.72261E-008	0.0008087	6
	48	364	4.734848	5.967069E+007	-1.41483E+008	1	1.535514E+008	-67.13234	-8.590875E-008	0.0005709	6
	49	373	3.75601	1.130023E+008	-3.293847E+008	1	3.482295E+008	-71.0644	-8.624898E-009	0.0007643	5
	50	382	3.004808	1.96263E+008	-2.90641E+007	1	1.984033E+008	-8.423571	-8.682704E-008	0.0007785	6
	51	396	2.372217	4.57142E+008	-2.200237E+008	1	5.073354E+008	-25.70164	-8.973735E-009	0.0006414	5
	52	409	1.878005	-5.296002E+008	-5.736241E+008	1	7.807183E+008	-132.7148	-2.827685E-010	0.0006572	4
	53	423	1.512097	-8.511041E+009	-4.517615E+009	1	9.635698E+009	-152.0409	2.669132E-011	0.0008164	3
	54	436	1.201923	5.051148E+009	3.332498E+008	1	5.06213E+009	3.774622	1.836969E-011	0.0007398	3
	55	451	0.956633	2.608645E+009	5.36975E+009	1	5.969861E+009	64.08934	1.738829E-011	7.512599E-005	3
