EXPLAIN
TAG	EISPOT
TITLE	LABEL	Potentiostatic EIS	Test Identifier
DATE	LABEL	8/25/2020	Date
TIME	LABEL	0:28:10	Time
NOTES	NOTES	1	Notes...
	
PSTAT	PSTAT	REF3000-16137	Potentiostat
VDC	POTEN	0.00000E+000	T	DC Voltage (V)
FREQINIT	QUANT	3.00000E+005	Initial Freq. (Hz)
FREQFINAL	QUANT	1.00000E+000	Final Freq. (Hz)
PTSPERDEC	QUANT	1.00000E+001	Points/decade
VAC	QUANT	5.00000E+001	AC Voltage (mV rms)
AREA	QUANT	1.00000E+000	Sample Area (cm^2)
SPEED	SELECTOR	2	Optimize for:
ZGUESS	QUANT	1.00000E+003	Estimated Z (ohms)
EOC	QUANT	0	Open Circuit (V)
SEQUENCER	TOGGLE	TRUE	Run as Sequence
PSTATMODEL	IQUANT	5	Pstat Model
PSTATSECTION	LABEL	REF3000-16137	Pstat Section
PSTATSERIALNO	LABEL	16137	Pstat Serial Number
CTRLMODE	IQUANT	1	Control Mode
IESTAB	IQUANT	0	I/E Stability
CASPEED	IQUANT	1	Control Amp Speed
CONVENTION	IQUANT	1	Current Convention
ICHRANGE	IQUANT	2	Ich Range
ICHRANGEMODE	TOGGLE	F	Ich Auto Range
ICHOFFSETENABLE	TOGGLE	T	Ich Offset Enable
ICHOFFSET	QUANT	0	Ich Offset (V)
ICHFILTER	IQUANT	3	Ich Filter
VCHRANGE	IQUANT	2	Vch Range
VCHRANGEMODE	TOGGLE	F	Vch Auto Range
VCHOFFSETENABLE	TOGGLE	T	Vch Offset Enable
VCHOFFSET	QUANT	0	Vch Offset (V)
VCHFILTER	IQUANT	3	Vch Filter
ACHRANGE	IQUANT	2	Ach Range
ACHOFFSETENABLE	TOGGLE	F	Ach Offset Enable
ACHOFFSET	QUANT	0	Ach Offset (V)
ACHFILTER	IQUANT	3	Ach Filter
IERANGELOWERLIMIT	IQUANT	2	I/E Range Lower Limit
IERANGEMODE	TOGGLE	F	I/E AutoRange
IERANGE	IQUANT	11	I/E Range
POSFEEDENABLE	TOGGLE	F	Positive Feedback IR Comp
POSFEEDRESISTANCE	QUANT	0	Positive Feedback Resistance (ohm)
ACHSELECT	IQUANT	0	Ach Select
CABLEID	IQUANT	13	Cable ID
DCCALDATE	LABEL	7/31/2020	DC Calibration Date
ACCALDATE	LABEL	7/31/2020	AC Calibration Date
THERMOSELECT	IQUANT	1	Thermo Select
FRAMEWORKVERSION	QUANT	6.33	Framework Version
INSTRUMENTVERSION	LABEL	3.50	Instrument Version
COMPLIANCEVOLTAGE	IQUANT	0	Compliance Voltage
ZCURVE	TABLE
	Pt	Time	Freq	Zreal	Zimag	Zsig	Zmod	Zphz	Idc	Vdc	IERange
	#	s	Hz	ohm	ohm	V	ohm	°	A	V	#
	0	15	300046.9	870.1249	-1341.064	1	1598.615	-57.0232	-0.0001228	0.0177643	9
	1	30	238359.4	1038.854	-1390.551	1	1735.756	-53.23729	-0.0005396	0.002811	9
	2	45	189328.1	1308.181	-1584.265	1	2054.564	-50.45237	-0.000731	0.0353221	9
	3	53	150421.9	1563.561	-1770.219	1	2361.864	-48.54718	-0.0003259	-0.0059116	9
	4	61	119484.4	1847.422	-1905.641	1	2654.135	-45.88872	-5.939528E-005	-0.0016556	10
	5	69	94921.88	2291.029	-1764.624	1	2891.835	-37.60463	-0.0002185	0.0016744	9
	6	78	75421.88	2640.458	-1753.589	1	3169.715	-33.58905	-0.0001451	0.0105758	9
	7	87	59859.37	3164.726	-1791.157	1	3636.445	-29.5088	-5.191223E-005	-0.0053427	9
	8	95	47578.12	3255.107	-1595.107	1	3624.926	-26.10635	-0.0001446	-0.0019091	9
	9	104	37828.12	3414.25	-1498.424	1	3728.59	-23.6954	-0.0001433	-0.0020076	9
	10	113	30046.88	3709.227	-1413.87	1	3969.558	-20.86566	-0.0002646	0.0046891	9
	11	123	23859.38	3882.009	-1426.788	1	4135.906	-20.18032	-0.000268	0.0108225	9
	12	131	18984.38	3998.737	-1191.032	1	4172.344	-16.58627	-0.0001458	-0.0019806	9
	13	138	15046.87	4318.812	-1119.545	1	4461.56	-14.53263	-0.0001498	0.0408709	8
	14	144	11953.13	4252.19	-1189.113	1	4415.327	-15.6235	0.0003	-0.0075777	9
	15	152	9515.62	4563.868	-1102.082	1	4695.048	-13.57588	-5.226514E-005	-0.0261364	8
	16	158	7546.875	4726.646	-930.6253	1	4817.39	-11.13845	-8.141176E-005	0.0565222	8
	17	164	5928.309	4822.405	-1064.335	1	4938.461	-12.44602	-0.0001222	0.0100992	8
	18	169	4733.456	5293.091	-1227.309	1	5433.516	-13.05448	-0.0002194	0.0016993	9
	19	177	3796.875	5054.097	-1094.302	1	5171.208	-12.21698	0.0001434	0.0023621	9
	20	183	2987.132	5299.486	-1304.782	1	5457.748	-13.83164	1.312421E-005	0.0436177	8
	21	190	2390.625	5325.333	-1236.811	1	5467.072	-13.07517	0.0001474	-0.0263957	8
	22	195	1884.191	5721.696	-1395.105	1	5889.323	-13.7029	-0.0001402	0.0269996	8
	23	202	1516.544	5885.479	-1504.239	1	6074.668	-14.33701	-5.451891E-005	-0.0257376	8
	24	207	1193.986	5946.596	-1542.7	1	6143.446	-14.54339	4.201966E-005	-0.0501077	8
	25	213	946.5144	5952.058	-2366.809	1	6405.371	-21.68502	-0.0002227	0.0113631	9
	26	218	751.7689	5380.646	-1251.368	1	5524.245	-13.09245	0.000229	-0.0014995	9
	27	223	597.4265	6911.134	-1662.681	1	7108.325	-13.52716	-0.0002622	0.0045954	9
	28	229	477.4305	6723.008	-2042.324	1	7026.374	-16.8978	-9.585618E-008	0.0001021	9
	29	233	376.6741	9075.189	-2737.171	1	9478.985	-16.78386	-6.03173E-007	0.00074	7
	30	236	298.2954	9528.41	-2973.534	1	9981.61	-17.33159	-6.067816E-007	0.000706	7
	31	238	237.7717	9989.38	-3235.79	1	10500.39	-17.94832	-6.270416E-007	0.0007466	7
	32	240	189.0121	10327.29	-3448.474	1	10887.84	-18.46511	-5.841371E-007	0.0004974	7
	33	243	150.2404	10897.23	-3735.919	1	11519.84	-18.92335	-6.214588E-007	0.0007224	7
	34	245	119.1737	11401.57	-3962.406	1	12070.48	-19.16395	-6.017031E-007	0.000707	7
	35	247	95.0169	11773.71	-4258.708	1	12520.26	-19.88572	-5.905692E-007	0.000747	7
	36	250	75.60484	12371.14	-4633.75	1	13210.48	-20.534	-6.185742E-007	0.0006452	7
	37	253	54.50582	12984.94	-5180.139	1	13980.08	-21.74876	-5.82843E-007	0.0007014	7
	38	255	45.95588	13485.58	-5644.695	1	14619.28	-22.71285	-6.063011E-007	0.0006479	7
	39	257	37.20238	13889.71	-6200.905	1	15211.02	-24.05784	-5.926003E-007	0.0005584	7
	40	260	30.04808	14494.04	-6985.41	1	16089.54	-25.73176	-6.114678E-007	0.000562	7
	41	263	23.91582	15143.42	-7902.763	1	17081.48	-27.5583	-5.971195E-007	0.0005216	7
	42	265	18.60119	16011.66	-9139.982	1	18436.71	-29.71915	-5.870837E-007	0.0007425	7
	43	268	15.02404	17199.18	-10455.38	1	20127.76	-31.29542	-6.144552E-007	0.0005696	7
	44	270	12.01923	18396.41	-11773.52	1	21841.33	-32.61885	-5.944057E-007	0.0007168	7
	45	273	9.450605	20370.5	-13610.02	1	24498.77	-33.74783	-6.25274E-007	0.0006991	7
	46	275	7.512019	22187.83	-14894.64	1	26723.58	-33.87337	-5.968374E-007	0.0007452	7
	47	278	5.978954	24730.41	-16162.94	1	29543.76	-33.16725	-6.03695E-007	0.0005287	7
	48	282	4.734848	27521.36	-17126.41	1	32415.11	-31.89381	-5.945078E-007	0.0005085	7
	49	287	3.75601	30396.01	-17595.97	1	35121.73	-30.06616	-6.078199E-007	0.0006584	7
	50	292	3.004808	33209.06	-17591.57	1	37580.64	-27.91116	-5.975423E-007	0.0004641	7
	51	299	2.372217	36309.81	-17463.35	1	40291.08	-25.68542	-6.188995E-007	0.0005979	7
	52	303	1.878005	38781.96	-16674.61	1	42214.73	-23.26567	-6.077748E-007	0.00063	7
	53	308	1.512097	40573.99	-15591.61	1	43466.62	-21.02056	-6.140722E-007	0.0005171	7
	54	318	1.201923	42345.03	-14535.68	1	44770.39	-18.94569	-6.144502E-007	0.0006867	7
	55	331	0.956633	43845.59	-13396.04	1	45846.37	-16.98936	-6.358096E-007	-2.271596E-005	7
