EXPLAIN
TAG	EISPOT
TITLE	LABEL	Potentiostatic EIS	Test Identifier
DATE	LABEL	8/25/2020	Date
TIME	LABEL	2:59:20	Time
NOTES	NOTES	1	Notes...
	
PSTAT	PSTAT	REF3000-16137	Potentiostat
VDC	POTEN	0.00000E+000	T	DC Voltage (V)
FREQINIT	QUANT	3.00000E+005	Initial Freq. (Hz)
FREQFINAL	QUANT	1.00000E+000	Final Freq. (Hz)
PTSPERDEC	QUANT	1.00000E+001	Points/decade
VAC	QUANT	5.00000E+001	AC Voltage (mV rms)
AREA	QUANT	1.00000E+000	Sample Area (cm^2)
SPEED	SELECTOR	2	Optimize for:
ZGUESS	QUANT	1.00000E+003	Estimated Z (ohms)
EOC	QUANT	0	Open Circuit (V)
SEQUENCER	TOGGLE	TRUE	Run as Sequence
PSTATMODEL	IQUANT	5	Pstat Model
PSTATSECTION	LABEL	REF3000-16137	Pstat Section
PSTATSERIALNO	LABEL	16137	Pstat Serial Number
CTRLMODE	IQUANT	1	Control Mode
IESTAB	IQUANT	0	I/E Stability
CASPEED	IQUANT	1	Control Amp Speed
CONVENTION	IQUANT	1	Current Convention
ICHRANGE	IQUANT	2	Ich Range
ICHRANGEMODE	TOGGLE	F	Ich Auto Range
ICHOFFSETENABLE	TOGGLE	T	Ich Offset Enable
ICHOFFSET	QUANT	0	Ich Offset (V)
ICHFILTER	IQUANT	3	Ich Filter
VCHRANGE	IQUANT	2	Vch Range
VCHRANGEMODE	TOGGLE	F	Vch Auto Range
VCHOFFSETENABLE	TOGGLE	T	Vch Offset Enable
VCHOFFSET	QUANT	0	Vch Offset (V)
VCHFILTER	IQUANT	3	Vch Filter
ACHRANGE	IQUANT	2	Ach Range
ACHOFFSETENABLE	TOGGLE	F	Ach Offset Enable
ACHOFFSET	QUANT	0	Ach Offset (V)
ACHFILTER	IQUANT	3	Ach Filter
IERANGELOWERLIMIT	IQUANT	2	I/E Range Lower Limit
IERANGEMODE	TOGGLE	F	I/E AutoRange
IERANGE	IQUANT	11	I/E Range
POSFEEDENABLE	TOGGLE	F	Positive Feedback IR Comp
POSFEEDRESISTANCE	QUANT	0	Positive Feedback Resistance (ohm)
ACHSELECT	IQUANT	0	Ach Select
CABLEID	IQUANT	13	Cable ID
DCCALDATE	LABEL	7/31/2020	DC Calibration Date
ACCALDATE	LABEL	7/31/2020	AC Calibration Date
THERMOSELECT	IQUANT	1	Thermo Select
FRAMEWORKVERSION	QUANT	6.33	Framework Version
INSTRUMENTVERSION	LABEL	3.50	Instrument Version
COMPLIANCEVOLTAGE	IQUANT	0	Compliance Voltage
ZCURVE	TABLE
	Pt	Time	Freq	Zreal	Zimag	Zsig	Zmod	Zphz	Idc	Vdc	IERange
	#	s	Hz	ohm	ohm	V	ohm	°	A	V	#
	0	15	300046.9	868.3304	-1376.126	1	1627.182	-57.74822	-0.000864	0.029914	9
	1	29	238359.4	1065.104	-1409.02	1	1766.291	-52.91371	-0.0005145	0.0027025	9
	2	43	189328.1	1320.411	-1584.339	1	2062.429	-50.19168	0.0002365	0.0100783	9
	3	53	150421.9	1634.978	-1803.6	1	2434.364	-47.80743	-0.0007023	0.0124312	9
	4	60	119484.4	2071.643	-1797.93	1	2743.038	-40.95394	4.702641E-005	0.0148114	9
	5	69	94921.88	2294.225	-1827.762	1	2933.289	-38.54362	0.0002044	-0.0107545	9
	6	77	75421.88	2648.117	-1781.914	1	3191.824	-33.93656	-0.0001451	0.0105519	9
	7	87	59859.37	2893.63	-1710.798	1	3361.536	-30.59281	-5.261655E-005	-0.0053377	9
	8	97	47578.12	3482.697	-1338.986	1	3731.228	-21.03016	0.0001463	-0.0517993	8
	9	106	37828.12	3427.259	-1553.153	1	3762.764	-24.37892	-0.0001418	0.0104102	9
	10	114	30046.88	3662.855	-1418.409	1	3927.899	-21.16847	-0.0002873	0.007124	9
	11	123	23859.38	4009.514	-1288.054	1	4211.328	-17.80958	-0.0001459	-0.0021255	9
	12	131	18984.38	4063.279	-1277.283	1	4259.306	-17.45043	4.559543E-005	0.0059392	9
	13	138	15046.87	4223.721	-1262.425	1	4408.349	-16.64084	-0.0002648	0.0046321	9
	14	145	11953.13	4539.141	-1248.985	1	4707.84	-15.38471	-0.0002945	0.0074293	9
	15	152	9515.62	4645.098	-1138.419	1	4782.565	-13.77061	0.000125	-0.0563471	8
	16	159	7546.875	4617.904	-1098.46	1	4746.752	-13.38027	0.0002963	-0.0096298	9
	17	165	5928.309	4981.331	-1205.443	1	5125.109	-13.60361	8.467867E-005	-0.0556122	8
	18	173	4733.456	5029.946	-1141.513	1	5157.85	-12.78632	-0.0002653	0.0046562	9
	19	179	3796.875	5493.614	-1033.998	1	5590.076	-10.6594	-0.0001464	0.0106066	9
	20	187	2987.132	4819.855	-1365.108	1	5009.443	-15.8135	4.526737E-005	0.0060233	9
	21	193	2390.625	5875.817	-750.1051	1	5923.502	-7.275013	-1.387601E-005	0.0526318	8
	22	199	1884.191	5912.992	-1352.828	1	6065.774	-12.88686	-0.0001439	0.0105599	9
	23	207	1516.544	5620.124	-1502.82	1	5817.582	-14.97062	-5.30381E-005	-0.0255567	8
	24	213	1193.986	6342.306	-1651.18	1	6553.719	-14.59266	1.416116E-005	0.043628	8
	25	218	946.5144	6162.585	-1815.327	1	6424.396	-16.41352	0.000145	-0.0262005	8
	26	222	751.7689	6474.764	-965.681	1	6546.381	-8.482867	0.000134	-0.0100708	9
	27	227	597.4265	5919.107	-1739.764	1	6169.49	-16.37929	-0.0002881	0.009269	9
	28	232	477.4305	6939.595	-2182.069	1	7274.573	-17.4551	-7.868654E-008	0.0001003	9
	29	235	376.6741	9455.908	-2948.051	1	9904.81	-17.31581	-5.862947E-007	0.0005886	7
	30	238	298.2954	9821.74	-3220.306	1	10336.19	-18.15305	-5.977552E-007	0.0005522	7
	31	240	237.7717	10280.91	-3464.547	1	10848.97	-18.62322	-6.004931E-007	0.0007181	7
	32	242	189.0121	10792.9	-3711.907	1	11413.37	-18.97918	-6.037276E-007	0.0007387	7
	33	245	150.2404	11268.62	-3954.333	1	11942.3	-19.33677	-5.991272E-007	0.0007401	7
	34	247	119.1737	11752.28	-4324.313	1	12522.61	-20.20136	-5.872006E-007	0.0004978	7
	35	249	95.0169	12336.88	-4632.516	1	13177.97	-20.58123	-6.061769E-007	0.0007052	7
	36	252	75.60484	12744.8	-4956.972	1	13674.85	-21.25309	-5.758289E-007	0.0005143	7
	37	254	54.50582	13555.75	-5699.021	1	14705.01	-22.80254	-5.887739E-007	0.0006857	7
	38	257	45.95588	13927.55	-6075.626	1	15195.06	-23.56832	-5.912201E-007	0.000593	7
	39	259	37.20238	14435.42	-6801.029	1	15957.29	-25.22676	-6.046495E-007	0.0007117	7
	40	262	30.04808	15018.88	-7620.293	1	16841.49	-26.90237	-5.997721E-007	0.0006293	7
	41	265	23.91582	15708.06	-8754.787	1	17983.03	-29.13284	-5.85337E-007	0.000585	7
	42	267	18.60119	16737.33	-10253.88	1	19628.55	-31.49312	-5.825107E-007	0.0006378	7
	43	270	15.02404	17706.9	-11764.12	1	21258.62	-33.5993	-5.802853E-007	0.0005579	7
	44	272	12.01923	19155.45	-13519.06	1	23445.61	-35.21273	-5.831644E-007	0.0006947	7
	45	275	9.450605	21045.97	-15574.61	1	26182.09	-36.50248	-5.950648E-007	0.0007478	7
	46	278	7.512019	23489.98	-17580.13	1	29340.08	-36.81154	-5.9374E-007	0.0007157	7
	47	281	5.978954	26242.28	-19306.26	1	32578.97	-36.34165	-5.869541E-007	0.0006993	7
	48	285	4.734848	29584.11	-20793.48	1	36160.59	-35.10183	-5.935372E-007	0.0007339	7
	49	288	3.75601	33080.28	-21585.57	1	39499.89	-33.12528	-5.836955E-007	0.0005271	7
	50	294	3.004808	36445.18	-21661.56	1	42396.64	-30.72556	-5.92894E-007	0.0005731	7
	51	300	2.372217	40132.93	-21573.68	1	45563.97	-28.2605	-5.900206E-007	0.0006503	7
	52	305	1.878005	42897.87	-20104.39	1	47375.25	-25.11047	-5.970861E-007	0.0005929	7
	53	314	1.512097	45120.89	-18861.71	1	48904.59	-22.6862	-5.985972E-007	0.0006759	7
	54	324	1.201923	47191.12	-17419.81	1	50303.59	-20.26078	-6.034695E-007	0.0006105	7
	55	337	0.956633	52139.65	-17182.92	1	54898.05	-18.23993	-1.234777E-007	2.169045E-005	6
