EXPLAIN
TAG	EISPOT
TITLE	LABEL	Potentiostatic EIS	Test Identifier
DATE	LABEL	8/25/2020	Date
TIME	LABEL	0:39:33	Time
NOTES	NOTES	1	Notes...
	
PSTAT	PSTAT	REF3000-16137	Potentiostat
VDC	POTEN	0.00000E+000	T	DC Voltage (V)
FREQINIT	QUANT	3.00000E+005	Initial Freq. (Hz)
FREQFINAL	QUANT	1.00000E+000	Final Freq. (Hz)
PTSPERDEC	QUANT	1.00000E+001	Points/decade
VAC	QUANT	5.00000E+001	AC Voltage (mV rms)
AREA	QUANT	1.00000E+000	Sample Area (cm^2)
SPEED	SELECTOR	2	Optimize for:
ZGUESS	QUANT	1.00000E+003	Estimated Z (ohms)
EOC	QUANT	0	Open Circuit (V)
SEQUENCER	TOGGLE	TRUE	Run as Sequence
PSTATMODEL	IQUANT	5	Pstat Model
PSTATSECTION	LABEL	REF3000-16137	Pstat Section
PSTATSERIALNO	LABEL	16137	Pstat Serial Number
CTRLMODE	IQUANT	1	Control Mode
IESTAB	IQUANT	0	I/E Stability
CASPEED	IQUANT	1	Control Amp Speed
CONVENTION	IQUANT	1	Current Convention
ICHRANGE	IQUANT	2	Ich Range
ICHRANGEMODE	TOGGLE	F	Ich Auto Range
ICHOFFSETENABLE	TOGGLE	T	Ich Offset Enable
ICHOFFSET	QUANT	0	Ich Offset (V)
ICHFILTER	IQUANT	3	Ich Filter
VCHRANGE	IQUANT	2	Vch Range
VCHRANGEMODE	TOGGLE	F	Vch Auto Range
VCHOFFSETENABLE	TOGGLE	T	Vch Offset Enable
VCHOFFSET	QUANT	0	Vch Offset (V)
VCHFILTER	IQUANT	3	Vch Filter
ACHRANGE	IQUANT	2	Ach Range
ACHOFFSETENABLE	TOGGLE	F	Ach Offset Enable
ACHOFFSET	QUANT	0	Ach Offset (V)
ACHFILTER	IQUANT	3	Ach Filter
IERANGELOWERLIMIT	IQUANT	2	I/E Range Lower Limit
IERANGEMODE	TOGGLE	F	I/E AutoRange
IERANGE	IQUANT	11	I/E Range
POSFEEDENABLE	TOGGLE	F	Positive Feedback IR Comp
POSFEEDRESISTANCE	QUANT	0	Positive Feedback Resistance (ohm)
ACHSELECT	IQUANT	0	Ach Select
CABLEID	IQUANT	13	Cable ID
DCCALDATE	LABEL	7/31/2020	DC Calibration Date
ACCALDATE	LABEL	7/31/2020	AC Calibration Date
THERMOSELECT	IQUANT	1	Thermo Select
FRAMEWORKVERSION	QUANT	6.33	Framework Version
INSTRUMENTVERSION	LABEL	3.50	Instrument Version
COMPLIANCEVOLTAGE	IQUANT	0	Compliance Voltage
ZCURVE	TABLE
	Pt	Time	Freq	Zreal	Zimag	Zsig	Zmod	Zphz	Idc	Vdc	IERange
	#	s	Hz	ohm	ohm	V	ohm	°	A	V	#
	0	16	300046.9	841.8831	-1321.418	1	1566.816	-57.49855	-0.0004613	0.0317184	9
	1	31	238359.4	995.951	-1631.049	1	1911.083	-58.59093	-0.000444	0.0311025	9
	2	47	189328.1	1422.651	-1599.598	1	2140.712	-48.35073	-0.0008134	0.0225041	9
	3	57	150421.9	1658.29	-1735.15	1	2400.14	-46.2975	0.0004205	0.0027413	9
	4	65	119484.4	2044.608	-1770.676	1	2704.758	-40.89328	-0.0008229	0.0014025	10
	5	73	94921.88	2326.216	-1862.748	1	2980.119	-38.68646	-0.0002857	0.0071344	9
	6	83	75421.88	2664.319	-1778.808	1	3203.554	-33.72869	0.0001428	0.0023742	9
	7	91	59859.37	2980.816	-1732.743	1	3447.849	-30.16936	4.385874E-005	-0.0082076	9
	8	102	47578.12	3255.942	-1656.559	1	3653.128	-26.96609	-0.0002669	0.0046583	9
	9	110	37828.12	3518.04	-1549.452	1	3844.14	-23.77015	0.0002095	-0.0109372	9
	10	120	30046.88	3629.542	-1411.898	1	3894.487	-21.25612	-0.0002895	0.0094043	9
	11	129	23859.38	4057.18	-1181.494	1	4225.712	-16.23612	0.0001475	-0.0262856	8
	12	135	18984.38	4107.447	-1370.247	1	4329.977	-18.44873	-0.0001411	-0.0019404	9
	13	142	15046.87	4352.208	-1075.348	1	4483.089	-13.87873	-0.0001422	0.0495992	8
	14	147	11953.13	4456.603	-1235.912	1	4624.801	-15.49984	-0.0001478	0.0107241	9
	15	155	9515.62	4551.1	-1174.123	1	4700.114	-14.46611	-0.0002674	0.0107589	9
	16	161	7546.875	4690.014	-1141.282	1	4826.878	-13.6767	-0.0001466	-0.0018566	9
	17	168	5928.309	5112.479	-1222.416	1	5256.591	-13.4472	-0.0001416	0.0270059	8
	18	173	4733.456	5182.419	-1347.24	1	5354.673	-14.57226	0.0002822	-0.0051503	9
	19	180	3796.875	4991.577	-1217.628	1	5137.943	-13.7088	-0.0002662	0.0046856	9
	20	187	2987.132	5572.776	-1106.81	1	5681.625	-11.23335	-5.19227E-005	-0.0053827	9
	21	194	2390.625	5416.724	-1155.998	1	5538.703	-12.04693	1.078044E-005	0.0435612	8
	22	199	1884.191	5089.231	-1881.757	1	5425.982	-20.29201	4.540145E-005	-0.00822	9
	23	208	1516.544	5964.198	-1425.133	1	6132.101	-13.43873	-0.0001362	0.0491278	8
	24	213	1193.986	6104.883	-1953.315	1	6409.761	-17.74256	-0.000123	0.0097934	8
	25	219	946.5144	5522.014	-973.242	1	5607.124	-9.9956	-0.0001136	0.0535738	8
	26	222	751.7689	6138.469	-150.8708	1	6140.323	-1.407928	0.000119	-0.0551693	8
	27	226	597.4265	6108.165	-1414.397	1	6269.785	-13.03754	8.770911E-005	-0.0550412	8
	28	231	477.4305	7081.228	-2162.146	1	7403.962	-16.97926	-1.40975E-006	0.0006463	8
	29	235	376.6741	9357.588	-2848.883	1	9781.65	-16.93267	-6.148444E-007	0.0005526	7
	30	237	298.2954	9682.21	-3060.096	1	10154.28	-17.53932	-5.919121E-007	0.0004908	7
	31	239	237.7717	10118.5	-3318.772	1	10648.87	-18.15899	-5.872337E-007	0.0005018	7
	32	242	189.0121	10657.44	-3606.456	1	11251.12	-18.69571	-6.080667E-007	0.0005183	7
	33	244	150.2404	10938.14	-3806.023	1	11581.4	-19.18579	-5.792892E-007	0.000526	7
	34	247	119.1737	11601.3	-4102.19	1	12305.2	-19.47347	-5.994686E-007	0.0006998	7
	35	249	95.0169	12073.25	-4414.327	1	12854.95	-20.08386	-5.974377E-007	0.0004967	7
	36	252	75.60484	12528.67	-4751.718	1	13399.49	-20.77011	-5.866918E-007	0.0005245	7
	37	254	54.50582	13370.22	-5420.192	1	14427.11	-22.06728	-6.236365E-007	0.000696	7
	38	257	45.95588	13587.77	-5816.07	1	14780.2	-23.17272	-5.732827E-007	0.0005981	7
	39	259	37.20238	14237.13	-6488.175	1	15645.84	-24.49981	-5.812824E-007	0.0005221	7
	40	262	30.04808	14706.48	-7280.96	1	16410.15	-26.33932	-6.031817E-007	0.0006975	7
	41	264	23.91582	15504.04	-8261.569	1	17567.83	-28.05162	-6.051159E-007	0.0007232	7
	42	267	18.60119	16474.37	-9651.77	1	19093.49	-30.36457	-5.973758E-007	0.0004973	7
	43	269	15.02404	17302.11	-10920.29	1	20460.1	-32.25822	-5.777403E-007	0.0007481	7
	44	272	12.01923	18908.66	-12521.01	1	22678.47	-33.51189	-6.060148E-007	0.0005035	7
	45	274	9.450605	20565.71	-14166.81	1	24972.92	-34.56124	-5.655266E-007	0.0005506	7
	46	277	7.512019	22895.21	-15966.09	1	27912.48	-34.89018	-5.914206E-007	0.0005744	7
	47	280	5.978954	25367.46	-17327.81	1	30720.69	-34.3359	-6.013879E-007	0.0005962	7
	48	285	4.734848	28394.46	-18538.57	1	33910.53	-33.14027	-6.000533E-007	0.0006958	7
	49	288	3.75601	31544.49	-19148.71	1	36901.6	-31.25934	-6.038645E-007	0.000748	7
	50	294	3.004808	34500.82	-19100.23	1	39435.07	-28.96965	-5.859394E-007	0.0004613	7
	51	300	2.372217	37888.55	-19043.92	1	42405.34	-26.68548	-6.162562E-007	0.0005675	7
	52	304	1.878005	40609.74	-18179.62	1	44493.25	-24.11647	-6.11401E-007	0.0006241	7
	53	309	1.512097	42663.59	-17031.27	1	45937.41	-21.76184	-6.10297E-007	0.0005509	7
	54	320	1.201923	44513.95	-15764.73	1	47223.07	-19.50173	-6.134152E-007	0.0006252	7
	55	333	0.956633	46114.98	-14685.41	1	48396.82	-17.66418	-6.320914E-007	-2.817002E-005	7
