EXPLAIN
TAG	EISPOT
TITLE	LABEL	Potentiostatic EIS	Test Identifier
DATE	LABEL	8/24/2020	Date
TIME	LABEL	22:03:37	Time
NOTES	NOTES	1	Notes...
	
PSTAT	PSTAT	REF3000-16137	Potentiostat
VDC	POTEN	0.00000E+000	T	DC Voltage (V)
FREQINIT	QUANT	3.00000E+005	Initial Freq. (Hz)
FREQFINAL	QUANT	1.00000E+000	Final Freq. (Hz)
PTSPERDEC	QUANT	1.00000E+001	Points/decade
VAC	QUANT	5.00000E+001	AC Voltage (mV rms)
AREA	QUANT	1.00000E+000	Sample Area (cm^2)
SPEED	SELECTOR	2	Optimize for:
ZGUESS	QUANT	1.00000E+003	Estimated Z (ohms)
EOC	QUANT	0	Open Circuit (V)
SEQUENCER	TOGGLE	TRUE	Run as Sequence
PSTATMODEL	IQUANT	5	Pstat Model
PSTATSECTION	LABEL	REF3000-16137	Pstat Section
PSTATSERIALNO	LABEL	16137	Pstat Serial Number
CTRLMODE	IQUANT	1	Control Mode
IESTAB	IQUANT	0	I/E Stability
CASPEED	IQUANT	1	Control Amp Speed
CONVENTION	IQUANT	1	Current Convention
ICHRANGE	IQUANT	2	Ich Range
ICHRANGEMODE	TOGGLE	F	Ich Auto Range
ICHOFFSETENABLE	TOGGLE	T	Ich Offset Enable
ICHOFFSET	QUANT	0	Ich Offset (V)
ICHFILTER	IQUANT	3	Ich Filter
VCHRANGE	IQUANT	2	Vch Range
VCHRANGEMODE	TOGGLE	F	Vch Auto Range
VCHOFFSETENABLE	TOGGLE	T	Vch Offset Enable
VCHOFFSET	QUANT	0	Vch Offset (V)
VCHFILTER	IQUANT	3	Vch Filter
ACHRANGE	IQUANT	2	Ach Range
ACHOFFSETENABLE	TOGGLE	F	Ach Offset Enable
ACHOFFSET	QUANT	0	Ach Offset (V)
ACHFILTER	IQUANT	3	Ach Filter
IERANGELOWERLIMIT	IQUANT	2	I/E Range Lower Limit
IERANGEMODE	TOGGLE	F	I/E AutoRange
IERANGE	IQUANT	11	I/E Range
POSFEEDENABLE	TOGGLE	F	Positive Feedback IR Comp
POSFEEDRESISTANCE	QUANT	0	Positive Feedback Resistance (ohm)
ACHSELECT	IQUANT	0	Ach Select
CABLEID	IQUANT	13	Cable ID
DCCALDATE	LABEL	7/31/2020	DC Calibration Date
ACCALDATE	LABEL	7/31/2020	AC Calibration Date
THERMOSELECT	IQUANT	1	Thermo Select
FRAMEWORKVERSION	QUANT	6.33	Framework Version
INSTRUMENTVERSION	LABEL	3.50	Instrument Version
COMPLIANCEVOLTAGE	IQUANT	0	Compliance Voltage
ZCURVE	TABLE
	Pt	Time	Freq	Zreal	Zimag	Zsig	Zmod	Zphz	Idc	Vdc	IERange
	#	s	Hz	ohm	ohm	V	ohm	°	A	V	#
	0	16	300046.9	662.3828	-2351.125	1	2442.65	-74.26587	-0.0008594	0.0229148	9
	1	31	238359.4	760.4665	-2839.319	1	2939.395	-75.00615	0.0005392	0.0016612	10
	2	51	189328.1	1006.929	-3166.277	1	3322.532	-72.35847	0.0001122	-0.0018952	10
	3	60	150421.9	1223.714	-3886.879	1	4074.961	-72.52434	-6.378086E-005	-0.0016948	10
	4	69	119484.4	2043.244	-4890.749	1	5300.403	-67.32593	-0.0007427	0.0348798	9
	5	78	94921.88	2789.017	-5658.917	1	6308.88	-63.76345	4.098046E-005	0.0062234	9
	6	87	75421.88	5709.574	-5701.181	1	8068.625	-44.95786	-0.0001376	0.049808	8
	7	95	59859.37	4676.738	-7037.265	1	8449.555	-56.39328	-0.0002906	0.0071816	9
	8	105	47578.12	6508.449	-7539.545	1	9960.15	-49.19788	-0.0002663	0.0045993	9
	9	114	37828.12	7387.196	-8289.663	1	11103.57	-48.2947	0.0002107	-0.0109664	9
	10	124	30046.88	9011.764	-7959.199	1	12023.34	-41.45097	-0.0002707	0.0107569	9
	11	135	23859.38	11282.78	-9141.363	1	14521.21	-39.01457	0.0002984	-0.009622	9
	12	143	18984.38	11498.09	-8589.558	1	14352.24	-36.76127	0.0002241	-0.0011767	9
	13	151	15046.87	15025.82	-11321.05	1	18813.33	-36.99582	0.0003009	-0.0076177	9
	14	160	11953.13	15858.79	-8319.427	1	17908.49	-27.68124	4.843228E-005	-0.0536666	8
	15	166	9515.62	17219.58	-8011.389	1	18992	-24.95015	-9.444695E-005	-0.010429	8
	16	173	7546.875	20391.88	-7011.009	1	21563.46	-18.97368	-6.254917E-006	-0.0430878	8
	17	179	5928.309	17553.43	-6152.689	1	18600.49	-19.31618	-0.0002221	0.0113287	9
	18	188	4733.456	20986.03	-5768.15	1	21764.3	-15.36862	-0.000128	0.0087968	8
	19	194	3796.875	22603.57	-9222.013	1	24412.44	-22.19493	4.075579E-005	0.0061112	9
	20	204	2987.132	24334.99	-8707.092	1	25845.8	-19.68728	-0.0002927	0.00934	9
	21	213	2390.625	20102.83	-2187.893	1	20221.54	-6.211345	0.0003032	-0.007491	9
	22	223	1884.191	26513.51	-9874.03	1	28292.45	-20.42608	0.000149	-0.0257062	8
	23	230	1516.544	36537.57	-9341.972	1	37712.95	-14.3422	-0.0002932	0.0093504	9
	24	238	1193.986	20104.54	-5332.625	1	20799.75	-14.85533	-0.0002165	0.0014744	9
	25	247	946.5144	3742.38	-27543.08	1	27796.16	-82.2624	0.0002807	-0.0049643	9
	26	255	751.7689	161297.5	-19734.69	1	162500.3	-6.975449	-0.0002607	0.0043799	9
	27	262	597.4265	23959.85	-2761.037	1	24118.41	-6.573542	0.0001414	-0.010195	9
	28	269	477.4305	34081.52	-17954.34	1	38521.53	-27.78053	-2.116994E-006	0.0007036	8
	29	275	376.6741	50439.23	-27251.21	1	57330.14	-28.38138	-7.790534E-007	0.000642	7
	30	279	298.2954	56947.26	-26219.95	1	62693.51	-24.72253	-7.325531E-008	0.0005942	6
	31	281	237.7717	60550.63	-32109.21	1	68537.44	-27.93642	-7.951738E-008	0.0008	6
	32	284	189.0121	64637.52	-38139.46	1	75050.83	-30.54279	-7.979654E-008	0.0007787	6
	33	287	150.2404	69768.07	-45532.15	1	83311.23	-33.12933	-7.838644E-008	0.0005322	6
	34	289	119.1737	72853.6	-54296.71	1	90861.32	-36.69662	-7.739283E-008	0.0005501	6
	35	292	95.0169	81294.63	-61436.41	1	101898.2	-37.07927	-8.221416E-008	0.0007914	6
	36	295	75.60484	88700.75	-70142.8	1	113083.3	-38.33625	-8.019697E-008	0.0005263	6
	37	298	54.50582	103005.8	-86442.18	1	134471	-40.00328	-8.382509E-008	0.000795	6
	38	301	45.95588	112164.8	-93852.62	1	146250.6	-39.92054	-8.195146E-008	0.0006331	6
	39	303	37.20238	125976.7	-106334	1	164854.6	-40.16692	-8.428084E-008	0.0007787	6
	40	306	30.04808	140404	-117863.5	1	183316.9	-40.01212	-8.400757E-008	0.0007895	6
	41	309	23.91582	157162.5	-129645.7	1	203735.3	-39.51973	-8.238172E-008	0.0006322	6
	42	312	18.60119	178652.1	-145519.7	1	230418.2	-39.16427	-8.471325E-008	0.0006802	6
	43	314	15.02404	200028.5	-157954.9	1	254874.7	-38.29681	-8.757831E-008	0.000775	6
	44	317	12.01923	216496.1	-154376.7	1	265899.8	-35.49149	-7.833124E-007	0.0006976	7
	45	320	9.450605	243948.2	-184138.6	1	305643.2	-37.04648	-8.255461E-008	0.0007724	6
	46	324	7.512019	262460	-192191.4	1	325304.1	-36.21417	-7.581694E-007	0.0005547	7
	47	329	5.978954	300741	-218626.1	1	371809.8	-36.01559	-8.594117E-008	0.0006039	6
	48	334	4.734848	328846.6	-237844.5	1	405844.8	-35.87704	-8.517192E-008	0.0007803	6
	49	341	3.75601	360278.2	-259284.9	1	443879.5	-35.7418	-8.482485E-008	0.0006054	6
	50	349	3.004808	394965.3	-282256.5	1	485454.8	-35.55097	-8.377502E-008	0.0005278	6
	51	357	2.372217	435010.8	-310162.2	1	534261.1	-35.48883	-8.511265E-008	0.000588	6
	52	361	1.878005	472987.8	-341187.7	1	583203.7	-35.80463	-8.460631E-008	0.0006754	6
	53	366	1.512097	511534.7	-372368	1	632712.9	-36.05248	-8.511258E-008	0.0005568	6
	54	371	1.201923	618332.7	-455285.4	1	767867.3	-36.36464	-9.615238E-009	0.0006712	5
	55	378	0.956633	646787.6	-485426.2	1	808685.8	-36.88892	-9.79793E-009	1.692738E-005	5
