EXPLAIN
TAG	EISPOT
TITLE	LABEL	Potentiostatic EIS	Test Identifier
DATE	LABEL	8/25/2020	Date
TIME	LABEL	1:31:25	Time
NOTES	NOTES	1	Notes...
	
PSTAT	PSTAT	REF3000-16137	Potentiostat
VDC	POTEN	0.00000E+000	T	DC Voltage (V)
FREQINIT	QUANT	3.00000E+005	Initial Freq. (Hz)
FREQFINAL	QUANT	1.00000E+000	Final Freq. (Hz)
PTSPERDEC	QUANT	1.00000E+001	Points/decade
VAC	QUANT	5.00000E+001	AC Voltage (mV rms)
AREA	QUANT	1.00000E+000	Sample Area (cm^2)
SPEED	SELECTOR	2	Optimize for:
ZGUESS	QUANT	1.00000E+003	Estimated Z (ohms)
EOC	QUANT	0	Open Circuit (V)
SEQUENCER	TOGGLE	TRUE	Run as Sequence
PSTATMODEL	IQUANT	5	Pstat Model
PSTATSECTION	LABEL	REF3000-16137	Pstat Section
PSTATSERIALNO	LABEL	16137	Pstat Serial Number
CTRLMODE	IQUANT	1	Control Mode
IESTAB	IQUANT	0	I/E Stability
CASPEED	IQUANT	1	Control Amp Speed
CONVENTION	IQUANT	1	Current Convention
ICHRANGE	IQUANT	2	Ich Range
ICHRANGEMODE	TOGGLE	F	Ich Auto Range
ICHOFFSETENABLE	TOGGLE	T	Ich Offset Enable
ICHOFFSET	QUANT	0	Ich Offset (V)
ICHFILTER	IQUANT	3	Ich Filter
VCHRANGE	IQUANT	2	Vch Range
VCHRANGEMODE	TOGGLE	F	Vch Auto Range
VCHOFFSETENABLE	TOGGLE	T	Vch Offset Enable
VCHOFFSET	QUANT	0	Vch Offset (V)
VCHFILTER	IQUANT	3	Vch Filter
ACHRANGE	IQUANT	2	Ach Range
ACHOFFSETENABLE	TOGGLE	F	Ach Offset Enable
ACHOFFSET	QUANT	0	Ach Offset (V)
ACHFILTER	IQUANT	3	Ach Filter
IERANGELOWERLIMIT	IQUANT	2	I/E Range Lower Limit
IERANGEMODE	TOGGLE	F	I/E AutoRange
IERANGE	IQUANT	11	I/E Range
POSFEEDENABLE	TOGGLE	F	Positive Feedback IR Comp
POSFEEDRESISTANCE	QUANT	0	Positive Feedback Resistance (ohm)
ACHSELECT	IQUANT	0	Ach Select
CABLEID	IQUANT	13	Cable ID
DCCALDATE	LABEL	7/31/2020	DC Calibration Date
ACCALDATE	LABEL	7/31/2020	AC Calibration Date
THERMOSELECT	IQUANT	1	Thermo Select
FRAMEWORKVERSION	QUANT	6.33	Framework Version
INSTRUMENTVERSION	LABEL	3.50	Instrument Version
COMPLIANCEVOLTAGE	IQUANT	0	Compliance Voltage
ZCURVE	TABLE
	Pt	Time	Freq	Zreal	Zimag	Zsig	Zmod	Zphz	Idc	Vdc	IERange
	#	s	Hz	ohm	ohm	V	ohm	°	A	V	#
	0	16	300046.9	835.3896	-1331.955	1	1572.253	-57.90446	-0.0008558	0.0299861	9
	1	31	238359.4	1078.48	-1455.722	1	1811.697	-53.4669	-0.0005363	0.0028252	9
	2	47	189328.1	1275.122	-1626.076	1	2066.412	-51.89749	-0.0001264	-0.0129932	9
	3	54	150421.9	1546.466	-1720.309	1	2313.227	-48.04614	-0.0005313	0.0026291	9
	4	62	119484.4	1862.274	-1735.894	1	2545.857	-42.98841	0.0002233	0.0099504	9
	5	71	94921.88	2275.01	-1792.737	1	2896.477	-38.23856	-5.178086E-005	-0.0053821	9
	6	81	75421.88	2662.389	-1714.551	1	3166.702	-32.78112	-0.0002186	0.0112181	9
	7	90	59859.37	2868.294	-1667.168	1	3317.614	-30.16687	-5.520984E-005	0.0087922	9
	8	99	47578.12	3223.305	-1587.119	1	3592.86	-26.21511	-0.0002168	0.0015983	9
	9	107	37828.12	3484.129	-1548.419	1	3812.71	-23.96136	0.0001115	0.0015299	10
	10	116	30046.88	3654.837	-1368.697	1	3902.713	-20.53037	-0.0002678	0.0107789	9
	11	126	23859.38	3908.721	-1455.495	1	4170.919	-20.42387	-0.0002173	0.0111873	9
	12	133	18984.38	3986.146	-1261.932	1	4181.128	-17.56672	-0.0002877	0.0071231	9
	13	141	15046.87	4268.039	-1227.5	1	4441.049	-16.04538	0.000149	0.0025144	9
	14	147	11953.13	4557.253	-1285.409	1	4735.064	-15.75152	-0.000148	0.0106059	9
	15	155	9515.62	4567.669	-1088.351	1	4695.542	-13.40212	4.588992E-005	-0.0509386	8
	16	162	7546.875	5000.463	-1046.947	1	5108.887	-11.82521	-7.163762E-005	0.0549986	8
	17	167	5928.309	4519.434	-1295.145	1	4701.349	-15.99084	-0.0002908	0.0093513	9
	18	174	4733.456	5076.849	-1258.655	1	5230.546	-13.92406	-9.270768E-005	-0.0084699	8
	19	180	3796.875	5010.488	-1320.193	1	5181.496	-14.76114	4.423071E-005	0.0060325	9
	20	187	2987.132	5178.594	-1204.151	1	5316.748	-13.09007	0.0002973	-0.0096503	9
	21	194	2390.625	4959.216	-1574.148	1	5203.053	-17.61041	-0.0001456	0.010628	9
	22	200	1884.191	5397.913	-1591.301	1	5627.584	-16.42548	-9.214551E-005	-0.0081611	8
	23	206	1516.544	5974.977	-1494.918	1	6159.15	-14.04684	-0.0002873	0.0071041	9
	24	212	1193.986	5700.624	-1615.091	1	5925	-15.8184	0.0001343	-0.0100595	9
	25	219	946.5144	6340.035	-1719.791	1	6569.149	-15.17679	-3.38836E-005	0.0530059	8
	26	222	751.7689	7151.61	-4362.242	1	8377.033	-31.38179	-0.0001357	0.0485166	8
	27	226	597.4265	5707.046	-3906.708	1	6916.122	-34.39325	0.0002805	-0.0051763	9
	28	232	477.4305	6808.642	-2134.409	1	7135.356	-17.40544	-2.507459E-007	0.0000957	9
	29	236	376.6741	9279.237	-2876.239	1	9714.78	-17.22161	-6.008196E-007	0.0005459	7
	30	238	298.2954	9645	-3095.998	1	10129.72	-17.79638	-6.008369E-007	0.0007274	7
	31	240	237.7717	10040.49	-3345.976	1	10583.33	-18.43057	-5.844714E-007	0.0006366	7
	32	243	189.0121	10593.7	-3634.073	1	11199.69	-18.93406	-6.108021E-007	0.0007184	7
	33	245	150.2404	10949.07	-3847.617	1	11605.45	-19.362	-5.846084E-007	0.0005164	7
	34	247	119.1737	11490.21	-4129.005	1	12209.57	-19.7659	-5.88438E-007	0.0007152	7
	35	250	95.0169	12096.49	-4475.061	1	12897.72	-20.3018	-5.918036E-007	0.0005893	7
	36	252	75.60484	12477.94	-4777.453	1	13361.25	-20.95044	-5.787712E-007	0.0004999	7
	37	255	54.50582	13292.44	-5436.348	1	14361.16	-22.24359	-6.051095E-007	0.0006861	7
	38	257	45.95588	13619.17	-5885.136	1	14836.33	-23.37022	-6.057269E-007	0.0006387	7
	39	260	37.20238	14066.63	-6491.444	1	15492.22	-24.7723	-5.771846E-007	0.0005503	7
	40	262	30.04808	14744.47	-7285.428	1	16446.18	-26.29456	-5.941602E-007	0.00052	7
	41	265	23.91582	15384.85	-8338.719	1	17499.37	-28.45807	-5.770133E-007	0.0006354	7
	42	268	18.60119	16409.98	-9762.83	1	19094.52	-30.74979	-6.01553E-007	0.0006944	7
	43	270	15.02404	17339.35	-11094.12	1	20584.77	-32.61207	-5.885382E-007	0.0004935	7
	44	273	12.01923	18707.25	-12691.95	1	22606.35	-34.15497	-5.979279E-007	0.0006322	7
	45	275	9.450605	20630.96	-14603.08	1	25276.2	-35.29177	-5.852198E-007	0.0006414	7
	46	278	7.512019	22957.85	-16428.56	1	28230.49	-35.58738	-5.959843E-007	0.0007716	7
	47	281	5.978954	25456.08	-17782.85	1	31052.24	-34.93699	-5.952996E-007	0.0007434	7
	48	285	4.734848	28589.14	-19012.33	1	34333.77	-33.62467	-5.793096E-007	0.0005473	7
	49	289	3.75601	31738.51	-19594.72	1	37299.95	-31.69036	-5.81585E-007	0.0005106	7
	50	294	3.004808	34879.15	-19661.73	1	40039.21	-29.4104	-5.784823E-007	0.0005245	7
	51	301	2.372217	38233.46	-19478.45	1	42909.29	-26.99706	-6.007412E-007	0.0005369	7
	52	305	1.878005	40949.19	-18619.29	1	44983.49	-24.45094	-5.946517E-007	0.0006192	7
	53	310	1.512097	42953.77	-17377.38	1	46335.72	-22.02629	-5.990112E-007	0.0005338	7
	54	320	1.201923	44769.31	-16067.71	1	47565.35	-19.74306	-6.033437E-007	0.0006466	7
	55	333	0.956633	46604.07	-14828.61	1	48906.31	-17.65017	-6.225239E-007	-2.838044E-005	7
