EXPLAIN
TAG	EISPOT
TITLE	LABEL	Potentiostatic EIS	Test Identifier
DATE	LABEL	8/24/2020	Date
TIME	LABEL	23:49:33	Time
NOTES	NOTES	1	Notes...
	
PSTAT	PSTAT	REF3000-16137	Potentiostat
VDC	POTEN	0.00000E+000	T	DC Voltage (V)
FREQINIT	QUANT	3.00000E+005	Initial Freq. (Hz)
FREQFINAL	QUANT	1.00000E+000	Final Freq. (Hz)
PTSPERDEC	QUANT	1.00000E+001	Points/decade
VAC	QUANT	5.00000E+001	AC Voltage (mV rms)
AREA	QUANT	1.00000E+000	Sample Area (cm^2)
SPEED	SELECTOR	2	Optimize for:
ZGUESS	QUANT	1.00000E+003	Estimated Z (ohms)
EOC	QUANT	0	Open Circuit (V)
SEQUENCER	TOGGLE	TRUE	Run as Sequence
PSTATMODEL	IQUANT	5	Pstat Model
PSTATSECTION	LABEL	REF3000-16137	Pstat Section
PSTATSERIALNO	LABEL	16137	Pstat Serial Number
CTRLMODE	IQUANT	1	Control Mode
IESTAB	IQUANT	0	I/E Stability
CASPEED	IQUANT	1	Control Amp Speed
CONVENTION	IQUANT	1	Current Convention
ICHRANGE	IQUANT	2	Ich Range
ICHRANGEMODE	TOGGLE	F	Ich Auto Range
ICHOFFSETENABLE	TOGGLE	T	Ich Offset Enable
ICHOFFSET	QUANT	0	Ich Offset (V)
ICHFILTER	IQUANT	3	Ich Filter
VCHRANGE	IQUANT	2	Vch Range
VCHRANGEMODE	TOGGLE	F	Vch Auto Range
VCHOFFSETENABLE	TOGGLE	T	Vch Offset Enable
VCHOFFSET	QUANT	0	Vch Offset (V)
VCHFILTER	IQUANT	3	Vch Filter
ACHRANGE	IQUANT	2	Ach Range
ACHOFFSETENABLE	TOGGLE	F	Ach Offset Enable
ACHOFFSET	QUANT	0	Ach Offset (V)
ACHFILTER	IQUANT	3	Ach Filter
IERANGELOWERLIMIT	IQUANT	2	I/E Range Lower Limit
IERANGEMODE	TOGGLE	F	I/E AutoRange
IERANGE	IQUANT	11	I/E Range
POSFEEDENABLE	TOGGLE	F	Positive Feedback IR Comp
POSFEEDRESISTANCE	QUANT	0	Positive Feedback Resistance (ohm)
ACHSELECT	IQUANT	0	Ach Select
CABLEID	IQUANT	13	Cable ID
DCCALDATE	LABEL	7/31/2020	DC Calibration Date
ACCALDATE	LABEL	7/31/2020	AC Calibration Date
THERMOSELECT	IQUANT	1	Thermo Select
FRAMEWORKVERSION	QUANT	6.33	Framework Version
INSTRUMENTVERSION	LABEL	3.50	Instrument Version
COMPLIANCEVOLTAGE	IQUANT	0	Compliance Voltage
ZCURVE	TABLE
	Pt	Time	Freq	Zreal	Zimag	Zsig	Zmod	Zphz	Idc	Vdc	IERange
	#	s	Hz	ohm	ohm	V	ohm	°	A	V	#
	0	15	300046.9	89.59859	-2533.708	1	2535.292	-87.97472	0.0001614	-0.0020718	10
	1	30	238359.4	293.2299	-3062.665	1	3076.67	-84.53098	-0.0008231	0.0227507	9
	2	46	189328.1	436.1565	-4019.411	1	4043.006	-83.80692	-9.001687E-005	0.0177652	9
	3	56	150421.9	593.1987	-5039.113	1	5073.908	-83.2861	-0.0008184	0.029202	9
	4	64	119484.4	703.9252	-6189.781	1	6229.679	-83.51199	-0.0006866	0.0006989	10
	5	73	94921.88	513.1138	-8008.555	1	8024.976	-86.33403	0.000138	-0.0102377	9
	6	83	75421.88	438.8586	-10002.88	1	10012.5	-87.48786	0.0002674	-0.0108136	9
	7	93	59859.37	1013.202	-12528.76	1	12569.67	-85.37655	0.000268	-0.0108733	9
	8	102	47578.12	912.3502	-14684.74	1	14713.05	-86.44483	0.0002855	-0.0051257	9
	9	112	37828.12	-475.3345	-18968.09	1	18974.04	-91.43552	0.0003026	-0.007581	9
	10	123	30046.88	-195.2771	-23928.02	1	23928.82	-90.46758	-0.0002951	0.0094416	9
	11	134	23859.38	-16865.46	-24407.79	1	29667.9	-124.644	-0.0001514	-0.0018824	9
	12	144	18984.38	-1874.243	-30193.79	1	30251.91	-93.55201	5.255046E-005	-0.008522	9
	13	151	15046.87	1803.898	-46159.75	1	46194.98	-87.76205	0.0002701	-0.0108372	9
	14	159	11953.13	38365.27	-58656.97	1	70089.48	-56.81284	0.0001384	0.0024363	9
	15	169	9515.62	12602.21	-74117.69	1	75181.43	-80.3503	0.0001297	-0.0589885	8
	16	176	7546.875	-8600.357	-74425.6	1	74920.87	-96.5917	-0.0002916	0.0072085	9
	17	186	5928.309	-40904.86	-23137.74	1	46995.34	-150.5054	0.0002846	-0.005134	9
	18	195	4733.456	-55134.94	-52276.12	1	75977.98	-136.5246	0.0002145	-0.0110771	9
	19	204	3796.875	13295.02	-285129.7	1	285439.5	-87.33035	0.0000993	0.0152817	8
	20	212	2987.132	-146759.5	-246622.9	1	286986.4	-120.7559	-0.0002928	0.0093618	9
	21	221	2390.625	-19116.75	57.7706	1	19116.84	179.8269	0.0001424	-0.0103808	9
	22	230	1884.191	32497.96	-70663.63	1	77778.31	-65.30246	0.0001295	-0.0056326	8
	23	236	1516.544	-99162	117664.8	1	153876.9	130.1225	0.0001377	-0.0102189	9
	24	245	1193.986	-57879.28	64637.29	1	86763.99	131.8428	-0.0002702	0.0108712	9
	25	254	946.5144	29404.59	-13427.37	1	32325.29	-24.54343	0.0001383	-0.0102532	9
	26	262	751.7689	57754.59	-9815.6	1	58582.75	-9.64546	0.000143	0.0025302	9
	27	269	597.4265	-20036.41	-32786.64	1	38424.23	-121.4297	-0.0002931	0.0093601	9
	28	275	477.4305	233148.3	-1437227	1	1456015	-80.78569	1.408029E-007	0.0001029	9
	29	281	376.6741	3349971	-3923036	1	5158732	-49.50522	-8.620606E-009	0.0007859	5
	30	284	298.2954	3387939	-4551419	1	5673935	-53.33711	-8.752426E-009	0.0006258	5
	31	288	237.7717	3413897	-4901597	1	5973303	-55.1433	-9.366186E-009	0.0006371	5
	32	291	189.0121	3447102	-6534134	1	7387653	-62.18598	-8.755936E-009	0.0007725	5
	33	295	150.2404	2226078	-4866205	1	5351203	-65.41795	-8.607536E-009	0.0007389	5
	34	299	119.1737	1010477	-3132145	1	3291108	-72.11953	-8.565055E-009	0.0008014	5
	35	303	95.0169	5064.602	-1.036575E+007	1	1.036575E+007	-89.97201	-8.649909E-008	0.0005277	6
	36	307	75.60484	5300318	-1.893051E+007	1	1.965852E+007	-74.35838	-8.934125E-009	0.0005142	5
	37	312	54.50582	5963627	-2.119108E+007	1	2.201424E+007	-74.28226	-9.136621E-009	0.0005508	5
	38	317	45.95588	5975296	-6.313042E+007	1	6.341257E+007	-84.59306	-4.613847E-010	0.0007467	4
	39	319	37.20238	9.386785E+007	-1.26623E+008	1	1.576216E+008	-53.44982	-3.926913E-010	0.0005409	4
	40	323	30.04808	1.458423E+008	-1.916967E+007	1	1.470968E+008	-7.488091	-5.301812E-010	0.000515	4
	41	327	23.91582	-1.776635E+008	-1.701308E+008	1	2.459854E+008	-136.2408	-8.30867E-010	0.0005233	4
	42	331	18.60119	1.33341E+007	-9308209	1	1.626164E+007	-34.91795	-8.763603E-008	0.0007735	6
	43	338	15.02404	-8481254	-1.219166E+008	1	1.222113E+008	-93.97943	-8.328389E-009	0.0006418	5
	44	343	12.01923	-2.243606E+007	-1.125757E+008	1	1.147897E+008	-101.2712	-7.472737E-010	0.0007579	4
	45	347	9.450605	-2.370531E+008	5.234007E+007	1	2.427625E+008	167.5492	-8.585285E-010	0.0007907	4
	46	351	7.512019	2.178528E+007	-8.874016E+007	1	9.137513E+007	-76.20693	-8.634751E-008	0.0008044	6
	47	359	5.978954	51792.04	-8.026338E+007	1	8.02634E+007	-89.96303	-8.812719E-009	0.0007833	5
	48	366	4.734848	3.555756E+007	-1.177612E+008	1	1.230124E+008	-73.19851	-8.598091E-008	0.000796	6
	49	378	3.75601	-1.697122E+008	-4.933388E+008	1	5.217139E+008	-108.9836	-8.649701E-009	0.000755	5
	50	386	3.004808	4.02253E+007	-2.035616E+008	1	2.07498E+008	-78.82194	-8.495703E-009	0.0007894	5
	51	397	2.372217	-4.009596E+008	-3.102627E+008	1	5.069828E+008	-142.2673	-5.114175E-010	0.0007009	4
	52	407	1.878005	6.823937E+009	-1.692421E+009	1	7.030676E+009	-13.92901	-3.738595E-011	0.0006988	3
	53	418	1.512097	-4.16102E+009	-5.029344E+009	1	6.52751E+009	-129.6026	-1.578198E-012	0.0006247	3
	54	430	1.201923	-1.310247E+009	4.751528E+009	1	4.92887E+009	105.4163	-7.176922E-012	0.0006848	3
	55	445	0.956633	3.502975E+009	-2.595798E+009	1	4.359931E+009	-36.53943	-4.06055E-011	8.443131E-005	3
