EXPLAIN
TAG	EISPOT
TITLE	LABEL	Potentiostatic EIS	Test Identifier
DATE	LABEL	8/25/2020	Date
TIME	LABEL	1:14:08	Time
NOTES	NOTES	1	Notes...
	
PSTAT	PSTAT	REF3000-16137	Potentiostat
VDC	POTEN	0.00000E+000	T	DC Voltage (V)
FREQINIT	QUANT	3.00000E+005	Initial Freq. (Hz)
FREQFINAL	QUANT	1.00000E+000	Final Freq. (Hz)
PTSPERDEC	QUANT	1.00000E+001	Points/decade
VAC	QUANT	5.00000E+001	AC Voltage (mV rms)
AREA	QUANT	1.00000E+000	Sample Area (cm^2)
SPEED	SELECTOR	2	Optimize for:
ZGUESS	QUANT	1.00000E+003	Estimated Z (ohms)
EOC	QUANT	0	Open Circuit (V)
SEQUENCER	TOGGLE	TRUE	Run as Sequence
PSTATMODEL	IQUANT	5	Pstat Model
PSTATSECTION	LABEL	REF3000-16137	Pstat Section
PSTATSERIALNO	LABEL	16137	Pstat Serial Number
CTRLMODE	IQUANT	1	Control Mode
IESTAB	IQUANT	0	I/E Stability
CASPEED	IQUANT	1	Control Amp Speed
CONVENTION	IQUANT	1	Current Convention
ICHRANGE	IQUANT	2	Ich Range
ICHRANGEMODE	TOGGLE	F	Ich Auto Range
ICHOFFSETENABLE	TOGGLE	T	Ich Offset Enable
ICHOFFSET	QUANT	0	Ich Offset (V)
ICHFILTER	IQUANT	3	Ich Filter
VCHRANGE	IQUANT	2	Vch Range
VCHRANGEMODE	TOGGLE	F	Vch Auto Range
VCHOFFSETENABLE	TOGGLE	T	Vch Offset Enable
VCHOFFSET	QUANT	0	Vch Offset (V)
VCHFILTER	IQUANT	3	Vch Filter
ACHRANGE	IQUANT	2	Ach Range
ACHOFFSETENABLE	TOGGLE	F	Ach Offset Enable
ACHOFFSET	QUANT	0	Ach Offset (V)
ACHFILTER	IQUANT	3	Ach Filter
IERANGELOWERLIMIT	IQUANT	2	I/E Range Lower Limit
IERANGEMODE	TOGGLE	F	I/E AutoRange
IERANGE	IQUANT	11	I/E Range
POSFEEDENABLE	TOGGLE	F	Positive Feedback IR Comp
POSFEEDRESISTANCE	QUANT	0	Positive Feedback Resistance (ohm)
ACHSELECT	IQUANT	0	Ach Select
CABLEID	IQUANT	13	Cable ID
DCCALDATE	LABEL	7/31/2020	DC Calibration Date
ACCALDATE	LABEL	7/31/2020	AC Calibration Date
THERMOSELECT	IQUANT	1	Thermo Select
FRAMEWORKVERSION	QUANT	6.33	Framework Version
INSTRUMENTVERSION	LABEL	3.50	Instrument Version
COMPLIANCEVOLTAGE	IQUANT	0	Compliance Voltage
ZCURVE	TABLE
	Pt	Time	Freq	Zreal	Zimag	Zsig	Zmod	Zphz	Idc	Vdc	IERange
	#	s	Hz	ohm	ohm	V	ohm	°	A	V	#
	0	17	300046.9	878.1307	-1372.881	1	1629.698	-57.39595	0.0007818	-0.0241984	9
	1	31	238359.4	1080.702	-1250.738	1	1652.955	-49.17131	0.0005853	-0.0061795	9
	2	47	189328.1	1279.704	-1613.401	1	2059.297	-51.57955	0.000598	-0.0311512	9
	3	54	150421.9	1685.189	-1723.103	1	2410.175	-45.63733	-0.0003464	-0.0058277	9
	4	63	119484.4	1948.981	-1771.47	1	2633.749	-42.26837	0.0002484	-0.0016186	10
	5	71	94921.88	2264.847	-1799.893	1	2892.948	-38.47446	-0.0001492	0.0106798	9
	6	81	75421.88	2636.28	-1761.716	1	3170.744	-33.75316	0.0001344	-0.010097	9
	7	91	59859.37	2921.174	-1717.701	1	3388.769	-30.45627	-0.0002175	0.0016408	9
	8	101	47578.12	3202.71	-1612.098	1	3585.556	-26.7186	-0.0002184	0.0112836	9
	9	109	37828.12	3396.891	-1546.926	1	3732.54	-24.48426	-0.0001437	0.010586	9
	10	118	30046.88	3848.867	-1143.264	1	4015.076	-16.54348	-0.0001384	0.0496966	8
	11	126	23859.38	3511.419	-1340.341	1	3758.534	-20.89232	-0.0001375	-0.0018713	9
	12	133	18984.38	3982.614	-1229.924	1	4168.204	-17.16191	-0.0001435	0.0106849	9
	13	140	15046.87	4382.967	-1106.255	1	4520.42	-14.16552	-0.0001373	0.0414755	8
	14	145	11953.13	4387.423	-1112.45	1	4526.26	-14.22775	-0.0001427	0.0268111	8
	15	150	9515.62	4474.571	-1186.266	1	4629.148	-14.84827	-0.000218	0.0016837	9
	16	158	7546.875	4657.554	-1206.568	1	4811.301	-14.52355	0.0001321	-0.0099875	9
	17	166	5928.309	4810.017	-1182.974	1	4953.351	-13.81708	-0.0002658	0.0107048	9
	18	174	4733.456	4995.483	-1329.271	1	5169.314	-14.90082	0.0002827	-0.0051468	9
	19	181	3796.875	5017.881	-1328.931	1	5190.875	-14.83361	4.779629E-005	0.0060651	9
	20	187	2987.132	5424.614	-1243.026	1	5565.209	-12.90626	1.41067E-005	0.0437054	8
	21	193	2390.625	5934.695	-1668.981	1	6164.909	-15.70728	-0.0001272	0.0102827	8
	22	198	1884.191	5773.93	-1026.534	1	5864.473	-10.08115	4.341575E-005	0.0060375	9
	23	204	1516.544	5863.35	-1488.216	1	6049.269	-14.24188	-3.219268E-005	0.0521899	8
	24	210	1193.986	6240.131	-1271.916	1	6368.438	-11.52069	1.241987E-005	0.0434376	8
	25	215	946.5144	6203.856	473.8365	1	6221.925	4.367642	-7.42337E-005	0.0550413	8
	26	219	751.7689	4238.022	-2446.525	1	4893.497	-29.99698	8.231392E-005	-0.0556337	8
	27	223	597.4265	6810.621	-2737.765	1	7340.294	-21.89937	-7.64811E-005	0.0563114	8
	28	226	477.4305	7032.282	-2179.696	1	7362.341	-17.22112	-1.390177E-006	0.0005889	8
	29	231	376.6741	9275.179	-2859.578	1	9705.98	-17.13476	-6.009577E-007	0.0005179	7
	30	234	298.2954	9586.04	-3074.629	1	10067.05	-17.78314	-6.017692E-007	0.0006335	7
	31	236	237.7717	10056.08	-3317.707	1	10589.24	-18.25878	-6.029776E-007	0.0007436	7
	32	239	189.0121	10576.34	-3599.295	1	11172.01	-18.79425	-6.106966E-007	0.0007494	7
	33	241	150.2404	10874.15	-3913.958	1	11557.09	-19.79543	-5.850004E-007	0.0007163	7
	34	244	119.1737	11532.63	-4237.034	1	12286.34	-20.17309	-6.145454E-007	0.0007196	7
	35	246	95.0169	11934.73	-4389.624	1	12716.39	-20.19366	-5.799639E-007	0.0005501	7
	36	249	75.60484	12478.86	-4749.419	1	13352.11	-20.83669	-5.896927E-007	0.000693	7
	37	251	54.50582	13221.88	-5441.298	1	14297.76	-22.36899	-6.006103E-007	0.0006361	7
	38	254	45.95588	13443.1	-5785.527	1	14635.2	-23.28567	-5.751781E-007	0.0007422	7
	39	256	37.20238	14133.26	-6480.217	1	15548.06	-24.63185	-6.052335E-007	0.0007263	7
	40	258	30.04808	14581.1	-7204.07	1	16263.67	-26.29255	-5.691834E-007	0.0005521	7
	41	261	23.91582	15421.74	-8285.477	1	17506.55	-28.24734	-6.050917E-007	0.0007182	7
	42	264	18.60119	16225.05	-9581.43	1	18842.93	-30.56326	-6.009189E-007	0.0007168	7
	43	266	15.02404	17274.83	-10954.12	1	20455.13	-32.37914	-5.743958E-007	0.0004968	7
	44	269	12.01923	18791.12	-12689.66	1	22674.52	-34.03119	-6.060213E-007	0.0006356	7
	45	271	9.450605	20388.48	-14311.11	1	24909.8	-35.06585	-5.728651E-007	0.0005315	7
	46	274	7.512019	22748.69	-16052.7	1	27842.27	-35.20885	-5.863684E-007	0.0005212	7
	47	277	5.978954	25321.32	-17479.71	1	30768.65	-34.61794	-5.906232E-007	0.000554	7
	48	281	4.734848	28267.3	-18679.16	1	33881.44	-33.45691	-5.755074E-007	0.0005026	7
	49	285	3.75601	31572.26	-19314.35	1	37011.51	-31.45623	-6.021292E-007	0.0006406	7
	50	291	3.004808	34540.02	-19270.51	1	39552.06	-29.15795	-5.782542E-007	0.0005215	7
	51	297	2.372217	37838.9	-19135.06	1	42402.04	-26.82564	-5.983397E-007	0.0005379	7
	52	301	1.878005	40522.34	-18259.68	1	44446.32	-24.25669	-5.937677E-007	0.0006256	7
	53	306	1.512097	42509.96	-17037.96	1	45797.26	-21.84088	-6.00069E-007	0.0005138	7
	54	317	1.201923	44339.2	-15757.46	1	47055.95	-19.56442	-6.044576E-007	0.0006421	7
	55	329	0.956633	45980.85	-14589.9	1	48240.06	-17.60443	-6.191754E-007	-2.917791E-005	7
