EXPLAIN
TAG	EISPOT
TITLE	LABEL	Potentiostatic EIS	Test Identifier
DATE	LABEL	8/24/2020	Date
TIME	LABEL	23:04:00	Time
NOTES	NOTES	1	Notes...
	
PSTAT	PSTAT	REF3000-16137	Potentiostat
VDC	POTEN	0.00000E+000	T	DC Voltage (V)
FREQINIT	QUANT	3.00000E+005	Initial Freq. (Hz)
FREQFINAL	QUANT	1.00000E+000	Final Freq. (Hz)
PTSPERDEC	QUANT	1.00000E+001	Points/decade
VAC	QUANT	5.00000E+001	AC Voltage (mV rms)
AREA	QUANT	1.00000E+000	Sample Area (cm^2)
SPEED	SELECTOR	2	Optimize for:
ZGUESS	QUANT	1.00000E+003	Estimated Z (ohms)
EOC	QUANT	0	Open Circuit (V)
SEQUENCER	TOGGLE	TRUE	Run as Sequence
PSTATMODEL	IQUANT	5	Pstat Model
PSTATSECTION	LABEL	REF3000-16137	Pstat Section
PSTATSERIALNO	LABEL	16137	Pstat Serial Number
CTRLMODE	IQUANT	1	Control Mode
IESTAB	IQUANT	0	I/E Stability
CASPEED	IQUANT	1	Control Amp Speed
CONVENTION	IQUANT	1	Current Convention
ICHRANGE	IQUANT	2	Ich Range
ICHRANGEMODE	TOGGLE	F	Ich Auto Range
ICHOFFSETENABLE	TOGGLE	T	Ich Offset Enable
ICHOFFSET	QUANT	0	Ich Offset (V)
ICHFILTER	IQUANT	3	Ich Filter
VCHRANGE	IQUANT	2	Vch Range
VCHRANGEMODE	TOGGLE	F	Vch Auto Range
VCHOFFSETENABLE	TOGGLE	T	Vch Offset Enable
VCHOFFSET	QUANT	0	Vch Offset (V)
VCHFILTER	IQUANT	3	Vch Filter
ACHRANGE	IQUANT	2	Ach Range
ACHOFFSETENABLE	TOGGLE	F	Ach Offset Enable
ACHOFFSET	QUANT	0	Ach Offset (V)
ACHFILTER	IQUANT	3	Ach Filter
IERANGELOWERLIMIT	IQUANT	2	I/E Range Lower Limit
IERANGEMODE	TOGGLE	F	I/E AutoRange
IERANGE	IQUANT	11	I/E Range
POSFEEDENABLE	TOGGLE	F	Positive Feedback IR Comp
POSFEEDRESISTANCE	QUANT	0	Positive Feedback Resistance (ohm)
ACHSELECT	IQUANT	0	Ach Select
CABLEID	IQUANT	13	Cable ID
DCCALDATE	LABEL	7/31/2020	DC Calibration Date
ACCALDATE	LABEL	7/31/2020	AC Calibration Date
THERMOSELECT	IQUANT	1	Thermo Select
FRAMEWORKVERSION	QUANT	6.33	Framework Version
INSTRUMENTVERSION	LABEL	3.50	Instrument Version
COMPLIANCEVOLTAGE	IQUANT	0	Compliance Voltage
ZCURVE	TABLE
	Pt	Time	Freq	Zreal	Zimag	Zsig	Zmod	Zphz	Idc	Vdc	IERange
	#	s	Hz	ohm	ohm	V	ohm	°	A	V	#
	0	16	300046.9	231.8988	-2684.849	1	2694.846	-85.06344	-0.0007249	0.0123536	9
	1	31	238359.4	263.5297	-3290.193	1	3300.73	-85.42064	-0.0001191	-0.0134483	9
	2	47	189328.1	388.116	-3844.724	1	3864.264	-84.23565	0.0001743	-0.018896	9
	3	57	150421.9	143.5721	-5415.697	1	5417.6	-88.48142	-0.0008086	0.0223588	9
	4	65	119484.4	587.6378	-6891.046	1	6916.057	-85.12586	-0.000634	0.0081082	10
	5	74	94921.88	363.8028	-7666.882	1	7675.509	-87.28329	-0.0002626	0.0044952	9
	6	85	75421.88	782.803	-9370.494	1	9403.135	-85.22465	-0.0002913	0.0072112	9
	7	94	59859.37	706.7588	-12075.45	1	12096.12	-86.65038	-0.0002176	0.0015579	9
	8	104	47578.12	596.7911	-15732.02	1	15743.34	-87.82754	-5.06633E-005	-0.0055817	9
	9	115	37828.12	2774.42	-19233.51	1	19432.59	-81.79175	-5.979338E-005	-0.0287803	8
	10	123	30046.88	2835.381	-24142.86	1	24308.79	-83.30177	-0.00015	0.0267565	8
	11	131	23859.38	-1250.55	-37079.09	1	37100.18	-91.93166	0.0002154	-0.0110322	9
	12	140	18984.38	-590.8964	-32964.89	1	32970.19	-91.02692	0.0002631	-0.010679	9
	13	149	15046.87	392.4813	-46896.79	1	46898.43	-89.5205	-0.0002925	0.0092533	9
	14	157	11953.13	-9662.83	-97529.9	1	98007.4	-95.6581	-0.0001474	0.0106812	9
	15	167	9515.62	-44118.04	-49714.7	1	66467.68	-131.5866	-6.312172E-005	0.009274	9
	16	177	7546.875	-31650.89	-125931.9	1	129848.4	-104.1081	-0.000146	0.010625	9
	17	185	5928.309	-28159.86	-111036	1	114551.1	-104.2308	4.835727E-005	-0.0083509	9
	18	193	4733.456	-87521.74	-94453.35	1	128769.1	-132.8186	0.0002266	-0.001338	9
	19	205	3796.875	-39145.45	-178467.5	1	182710.1	-102.3715	-0.000265	0.0045579	9
	20	215	2987.132	102535.9	100708.3	1	143721.1	44.4848	0.0002262	-0.0013448	9
	21	224	2390.625	53068.89	4221.539	1	53236.54	4.548203	0.0001386	-0.0101902	9
	22	233	1884.191	-50206.82	-56480.59	1	75569.72	-131.6346	0.0001397	-0.01025	9
	23	242	1516.544	-44252.49	-57255.13	1	72363.2	-127.7004	0.0002689	-0.0108043	9
	24	252	1193.986	-452120.8	403268.2	1	605837	138.2687	-0.0002659	0.0046027	9
	25	263	946.5144	-67989.3	-42871.22	1	80377.15	-147.7662	4.352873E-005	0.0061378	9
	26	271	751.7689	11591.63	17037.31	1	20606.7	55.76991	-7.626713E-005	0.0593653	8
	27	276	597.4265	331251.1	-358494.9	1	488104.3	-47.26191	0.0001464	-0.0536545	8
	28	280	477.4305	538183.6	-1085794	1	1211854	-63.63428	-2.346186E-006	0.0007524	8
	29	288	376.6741	64046.52	-2736191	1	2736940	-88.65911	-8.019833E-007	0.0007535	7
	30	293	298.2954	403973.7	-3509843	1	3533014	-83.4343	-8.72368E-008	0.0006468	6
	31	299	237.7717	4237951	-4901037	1	6479228	-49.14986	-8.930962E-009	0.0006684	5
	32	303	189.0121	3977785	-6150873	1	7325026	-57.10915	-8.948023E-009	0.000673	5
	33	307	150.2404	3317131	-5559962	1	6474298	-59.17926	-8.764596E-009	0.0005126	5
	34	311	119.1737	1037922	-2922368	1	3101212	-70.44675	-8.389647E-009	0.0005132	5
	35	315	95.0169	2395768	-9.921563E+006	1	1.020672E+007	-76.42461	-8.55827E-008	0.0005793	6
	36	319	75.60484	9.97821E+006	-1.634652E+007	1	1.915133E+007	-58.59935	-9.419383E-009	0.0006318	5
	37	324	54.50582	4213525	-1.934624E+007	1	1.979977E+007	-77.71311	-8.933231E-009	0.0007617	5
	38	328	45.95588	2.5007E+007	-6.812215E+007	1	7.256706E+007	-69.84229	-3.607074E-010	0.0005749	4
	39	331	37.20238	-6352726	-5.833196E+007	1	5.867687E+007	-96.2154	-2.787064E-010	0.0007598	4
	40	335	30.04808	-4.018353E+007	-1.642684E+008	1	1.691119E+008	-103.7458	-3.242822E-010	0.0007868	4
	41	339	23.91582	1.565991E+007	-1.21332E+008	1	1.223384E+008	-82.64568	-9.444967E-010	0.0006903	4
	42	343	18.60119	6.022578E+007	-6.13564E+007	1	8.59753E+007	-45.53279	-7.969349E-010	0.0005603	4
	43	346	15.02404	-7.600313E+007	-1.688158E+008	1	1.851358E+008	-114.2379	-6.709234E-010	0.0007616	4
	44	350	12.01923	-1.947145E+008	-8.623596E+007	1	2.129563E+008	-156.1122	-4.015154E-010	0.0005679	4
	45	353	9.450605	-4.794795E+007	-1.445073E+008	1	1.522543E+008	-108.356	-3.402512E-010	0.0007554	4
	46	357	7.512019	1.581301E+008	-2.942014E+008	1	3.340053E+008	-61.74245	-6.501158E-010	0.0007681	4
	47	362	5.978954	1.582657E+007	-1.930455E+008	1	1.936932E+008	-85.31316	-8.718023E-008	0.0008069	6
	48	370	4.734848	5.158156E+007	-1.619463E+008	1	1.699625E+008	-72.33279	-8.932802E-009	0.0007236	5
	49	379	3.75601	-6.951251E+008	-2.055503E+008	1	7.248792E+008	-163.5269	-3.686327E-010	0.0007318	4
	50	386	3.004808	-2.932463E+009	-4.44937E+009	1	5.328811E+009	-123.3878	7.29578E-012	0.0008713	3
	51	394	2.372217	-5.612812E+008	-8.407457E+009	1	8.426172E+009	-93.8194	1.689104E-011	0.0006379	3
	52	403	1.878005	-3.674154E+009	-1.128217E+010	1	1.186536E+010	-108.0384	5.176316E-013	0.0007258	3
	53	413	1.512097	6.397912E+009	1.619567E+009	1	6.599717E+009	14.20544	1.604589E-011	0.000819	3
	54	426	1.201923	9.882926E+009	2.594417E+009	1	1.021779E+010	14.70911	1.851579E-011	0.0007374	3
	55	441	0.956633	-1.316312E+009	3.66257E+009	1	3.891927E+009	109.7682	-1.376974E-012	0.0001171	3
