EXPLAIN
TAG	EISPOT
TITLE	LABEL	Potentiostatic EIS	Test Identifier
DATE	LABEL	8/24/2020	Date
TIME	LABEL	21:32:57	Time
NOTES	NOTES	1	Notes...
	
PSTAT	PSTAT	REF3000-16137	Potentiostat
VDC	POTEN	0.00000E+000	T	DC Voltage (V)
FREQINIT	QUANT	3.00000E+005	Initial Freq. (Hz)
FREQFINAL	QUANT	1.00000E+000	Final Freq. (Hz)
PTSPERDEC	QUANT	1.00000E+001	Points/decade
VAC	QUANT	5.00000E+001	AC Voltage (mV rms)
AREA	QUANT	1.00000E+000	Sample Area (cm^2)
SPEED	SELECTOR	2	Optimize for:
ZGUESS	QUANT	1.00000E+003	Estimated Z (ohms)
EOC	QUANT	0	Open Circuit (V)
SEQUENCER	TOGGLE	TRUE	Run as Sequence
PSTATMODEL	IQUANT	5	Pstat Model
PSTATSECTION	LABEL	REF3000-16137	Pstat Section
PSTATSERIALNO	LABEL	16137	Pstat Serial Number
CTRLMODE	IQUANT	1	Control Mode
IESTAB	IQUANT	0	I/E Stability
CASPEED	IQUANT	1	Control Amp Speed
CONVENTION	IQUANT	1	Current Convention
ICHRANGE	IQUANT	2	Ich Range
ICHRANGEMODE	TOGGLE	F	Ich Auto Range
ICHOFFSETENABLE	TOGGLE	T	Ich Offset Enable
ICHOFFSET	QUANT	0	Ich Offset (V)
ICHFILTER	IQUANT	3	Ich Filter
VCHRANGE	IQUANT	2	Vch Range
VCHRANGEMODE	TOGGLE	F	Vch Auto Range
VCHOFFSETENABLE	TOGGLE	T	Vch Offset Enable
VCHOFFSET	QUANT	0	Vch Offset (V)
VCHFILTER	IQUANT	3	Vch Filter
ACHRANGE	IQUANT	2	Ach Range
ACHOFFSETENABLE	TOGGLE	F	Ach Offset Enable
ACHOFFSET	QUANT	0	Ach Offset (V)
ACHFILTER	IQUANT	3	Ach Filter
IERANGELOWERLIMIT	IQUANT	2	I/E Range Lower Limit
IERANGEMODE	TOGGLE	F	I/E AutoRange
IERANGE	IQUANT	11	I/E Range
POSFEEDENABLE	TOGGLE	F	Positive Feedback IR Comp
POSFEEDRESISTANCE	QUANT	0	Positive Feedback Resistance (ohm)
ACHSELECT	IQUANT	0	Ach Select
CABLEID	IQUANT	13	Cable ID
DCCALDATE	LABEL	7/31/2020	DC Calibration Date
ACCALDATE	LABEL	7/31/2020	AC Calibration Date
THERMOSELECT	IQUANT	1	Thermo Select
FRAMEWORKVERSION	QUANT	6.33	Framework Version
INSTRUMENTVERSION	LABEL	3.50	Instrument Version
COMPLIANCEVOLTAGE	IQUANT	0	Compliance Voltage
ZCURVE	TABLE
	Pt	Time	Freq	Zreal	Zimag	Zsig	Zmod	Zphz	Idc	Vdc	IERange
	#	s	Hz	ohm	ohm	V	ohm	°	A	V	#
	0	14	300046.9	1950.53	-2940.95	1	3528.988	-56.44642	2.618077E-006	0.0016124	9
	1	34	238359.4	2504.094	-3107.938	1	3991.211	-51.14129	1.012571E-006	0.0015925	9
	2	49	189328.1	3152.943	-3305.253	1	4567.904	-46.35102	2.78093E-005	-0.0015383	9
	3	58	150421.9	3792.392	-3292.726	1	5022.378	-40.96599	-0.0001082	0.0038883	9
	4	66	119484.4	4343.872	-3309.162	1	5460.749	-37.30015	-1.580462E-005	0.0019148	9
	5	75	94921.88	5068.926	-3095.572	1	5939.409	-31.41224	-1.597553E-005	0.0008991	8
	6	82	75421.88	5566.542	-2963.74	1	6306.358	-28.03175	-2.590064E-005	0.0094718	8
	7	90	59859.37	6076.635	-2801.141	1	6691.18	-24.74824	-2.55009E-005	0.0075169	8
	8	97	47578.12	6474.578	-2655.555	1	6998.009	-22.30104	1.491971E-005	-0.0087912	8
	9	105	37828.12	6833.101	-2494.32	1	7274.125	-20.05385	-2.359863E-005	0.005357	8
	10	112	30046.88	7162.785	-2354.48	1	7539.832	-18.19622	-1.718541E-006	-0.0047882	8
	11	121	23859.38	7689.461	-1835.916	1	7905.593	-13.4284	-4.476495E-006	0.0015132	7
	12	124	18984.38	7904.798	-1832.063	1	8114.326	-13.04882	4.183954E-006	0.0011423	7
	13	128	15046.87	8125.461	-1818.608	1	8326.491	-12.61579	-2.133378E-007	0.0163632	7
	14	132	11953.13	8337.127	-1866.114	1	8543.423	-12.61666	-2.212014E-006	0.0209478	7
	15	136	9515.62	8562.117	-1943.736	1	8779.975	-12.79027	3.945259E-006	0.0014926	7
	16	140	7546.875	8822.67	-2025.335	1	9052.153	-12.92883	-6.158476E-006	0.0230428	7
	17	144	5928.309	9115.712	-2160.589	1	9368.263	-13.33408	-6.633553E-006	0.0204606	7
	18	148	4733.456	9378.173	-2201.781	1	9633.17	-13.21245	-1.400983E-007	0.0163008	7
	19	152	3796.875	9617.47	-2374.932	1	9906.37	-13.87107	-6.583633E-006	0.015884	7
	20	155	2987.132	10014.12	-2547.556	1	10333.08	-14.27308	1.672452E-006	-0.0191214	7
	21	160	2390.625	10306.23	-2694.759	1	10652.71	-14.65301	-4.337757E-007	-0.0135459	7
	22	164	1884.191	10727.76	-2922.059	1	11118.6	-15.23675	5.180557E-006	-0.0242609	7
	23	168	1516.544	11029.2	-3179.759	1	11478.42	-16.08246	-3.851246E-006	0.0235579	7
	24	173	1193.986	11455.55	-3485.223	1	11973.99	-16.9218	3.62375E-006	-0.0228933	7
	25	177	946.5144	11744.17	-3847.332	1	12358.3	-18.13854	-1.043528E-007	0.016154	7
	26	180	751.7689	12328.03	-4345.849	1	13071.6	-19.41845	-6.58527E-006	0.0158706	7
	27	182	597.4265	12932.57	-4787.587	1	13790.3	-20.31436	-4.784706E-007	-0.0134877	7
	28	185	477.4305	13537.59	-5247.118	1	14518.91	-21.18613	-1.015995E-007	0.0006496	7
	29	187	376.6741	14287.61	-5824.952	1	15429.38	-22.18036	-9.838757E-008	0.0006695	7
	30	189	298.2954	15128.9	-6436.162	1	16441.04	-23.04595	-9.092463E-008	0.0005886	7
	31	192	237.7717	16062.53	-7063.787	1	17547.13	-23.73836	-9.128941E-008	0.0005985	7
	32	194	189.0121	17121.53	-7712.35	1	18778.37	-24.24906	-9.233257E-008	0.0005766	7
	33	197	150.2404	18297.65	-8363.423	1	20118.42	-24.56401	-9.780769E-008	0.0006662	7
	34	199	119.1737	19600.42	-9006.02	1	21570.46	-24.67788	-9.11128E-008	0.0005904	7
	35	201	95.0169	20952.93	-9589.41	1	23043.04	-24.59188	-8.912807E-008	0.0005818	7
	36	204	75.60484	22385.28	-10162.15	1	24583.94	-24.41643	-9.626104E-008	0.0006641	7
	37	206	54.50582	24484.87	-10956.83	1	26824.63	-24.10822	-9.314181E-008	0.0005857	7
	38	209	45.95588	25588.89	-11398.88	1	28012.96	-24.01117	-9.50533E-008	0.0006583	7
	39	211	37.20238	26947.72	-11992.98	1	29495.95	-23.99127	-9.438825E-008	0.0006809	7
	40	214	30.04808	28300.62	-12648.89	1	30998.7	-24.08213	-8.547621E-008	0.0005703	7
	41	216	23.91582	29729.91	-13527.41	1	32662.79	-24.46601	-8.913365E-008	0.0005899	7
	42	219	18.60119	31343.06	-14778.05	1	34652.25	-25.24357	-9.576545E-008	0.0006638	7
	43	221	15.02404	32662.55	-16056.09	1	36395.61	-26.17758	-8.572901E-008	0.0006106	7
	44	223	12.01923	34156.1	-17752.86	1	38494.2	-27.46346	-1.088169E-008	0.0006275	6
	45	226	9.450605	35787.57	-20106.29	1	41048.91	-29.32829	-1.376517E-008	0.0007069	6
	46	228	7.512019	37504.01	-22918.94	1	43952.57	-31.42937	-1.220467E-008	0.0007163	6
	47	231	5.978954	39581.04	-26409.87	1	47582.98	-33.71262	-1.426012E-008	0.0006403	6
	48	234	4.734848	42206.61	-30630.6	1	52150.08	-35.96951	-1.446712E-008	0.0007164	6
	49	237	3.75601	45604.93	-35574.47	1	57839.02	-37.95628	-1.726978E-008	0.0006271	6
	50	240	3.004808	49766.48	-40941.36	1	64442.98	-39.44308	-2.019291E-008	0.0006958	6
	51	244	2.372217	55585.18	-47084.62	1	72846.91	-40.26698	-1.570472E-008	0.0007301	6
	52	248	1.878005	62548.54	-53021.73	1	81997.7	-40.28759	-1.842218E-008	0.0006443	6
	53	253	1.512097	70410.27	-58558.51	1	91578.96	-39.74947	-1.950041E-008	0.0007374	6
	54	259	1.201923	80366.55	-63790.93	1	102606.4	-38.44078	-1.837151E-008	0.0006934	6
	55	265	0.956633	91389.71	-68130.66	1	113990.6	-36.70438	-2.62724E-008	3.01072E-005	6
