EXPLAIN
TAG	EISPOT
TITLE	LABEL	Potentiostatic EIS	Test Identifier
DATE	LABEL	8/25/2020	Date
TIME	LABEL	0:04:21	Time
NOTES	NOTES	1	Notes...
	
PSTAT	PSTAT	REF3000-16137	Potentiostat
VDC	POTEN	0.00000E+000	T	DC Voltage (V)
FREQINIT	QUANT	3.00000E+005	Initial Freq. (Hz)
FREQFINAL	QUANT	1.00000E+000	Final Freq. (Hz)
PTSPERDEC	QUANT	1.00000E+001	Points/decade
VAC	QUANT	5.00000E+001	AC Voltage (mV rms)
AREA	QUANT	1.00000E+000	Sample Area (cm^2)
SPEED	SELECTOR	2	Optimize for:
ZGUESS	QUANT	1.00000E+003	Estimated Z (ohms)
EOC	QUANT	0	Open Circuit (V)
SEQUENCER	TOGGLE	TRUE	Run as Sequence
PSTATMODEL	IQUANT	5	Pstat Model
PSTATSECTION	LABEL	REF3000-16137	Pstat Section
PSTATSERIALNO	LABEL	16137	Pstat Serial Number
CTRLMODE	IQUANT	1	Control Mode
IESTAB	IQUANT	0	I/E Stability
CASPEED	IQUANT	1	Control Amp Speed
CONVENTION	IQUANT	1	Current Convention
ICHRANGE	IQUANT	2	Ich Range
ICHRANGEMODE	TOGGLE	F	Ich Auto Range
ICHOFFSETENABLE	TOGGLE	T	Ich Offset Enable
ICHOFFSET	QUANT	0	Ich Offset (V)
ICHFILTER	IQUANT	3	Ich Filter
VCHRANGE	IQUANT	2	Vch Range
VCHRANGEMODE	TOGGLE	F	Vch Auto Range
VCHOFFSETENABLE	TOGGLE	T	Vch Offset Enable
VCHOFFSET	QUANT	0	Vch Offset (V)
VCHFILTER	IQUANT	3	Vch Filter
ACHRANGE	IQUANT	2	Ach Range
ACHOFFSETENABLE	TOGGLE	F	Ach Offset Enable
ACHOFFSET	QUANT	0	Ach Offset (V)
ACHFILTER	IQUANT	3	Ach Filter
IERANGELOWERLIMIT	IQUANT	2	I/E Range Lower Limit
IERANGEMODE	TOGGLE	F	I/E AutoRange
IERANGE	IQUANT	11	I/E Range
POSFEEDENABLE	TOGGLE	F	Positive Feedback IR Comp
POSFEEDRESISTANCE	QUANT	0	Positive Feedback Resistance (ohm)
ACHSELECT	IQUANT	0	Ach Select
CABLEID	IQUANT	13	Cable ID
DCCALDATE	LABEL	7/31/2020	DC Calibration Date
ACCALDATE	LABEL	7/31/2020	AC Calibration Date
THERMOSELECT	IQUANT	1	Thermo Select
FRAMEWORKVERSION	QUANT	6.33	Framework Version
INSTRUMENTVERSION	LABEL	3.50	Instrument Version
COMPLIANCEVOLTAGE	IQUANT	0	Compliance Voltage
ZCURVE	TABLE
	Pt	Time	Freq	Zreal	Zimag	Zsig	Zmod	Zphz	Idc	Vdc	IERange
	#	s	Hz	ohm	ohm	V	ohm	°	A	V	#
	0	16	300046.9	191.9162	-2581.837	1	2588.96	-85.74884	-0.000719	0.0005597	10
	1	32	238359.4	351.4606	-2865.66	1	2887.133	-83.00784	-0.0008749	0.0035045	10
	2	48	189328.1	310.2981	-4142.708	1	4154.313	-85.71642	0.0003768	-0.0017119	10
	3	59	150421.9	960.545	-5685.898	1	5766.462	-80.4113	-0.0008112	0.0034711	10
	4	69	119484.4	972.595	-5876.56	1	5956.5	-80.60249	0.0007531	-0.0280715	9
	5	77	94921.88	1383.837	-7190.244	1	7322.2	-79.10604	-0.0002178	0.001525	9
	6	87	75421.88	2126.878	-8798.407	1	9051.827	-76.41034	-0.0002719	0.0108805	9
	7	97	59859.37	2965.542	-10833.41	1	11231.97	-74.69086	-0.0001459	-0.0020211	9
	8	106	47578.12	4978.941	-12293.15	1	13263.16	-67.95119	0.0002143	-0.0111076	9
	9	116	37828.12	7859.951	-12709.68	1	14943.72	-58.26643	-0.0002726	0.0109171	9
	10	126	30046.88	10443.12	-12846.69	1	16555.85	-50.8922	-0.0002939	0.0093865	9
	11	136	23859.38	13095.13	-14029.1	1	19191.09	-46.97209	-6.562439E-005	0.058448	8
	12	142	18984.38	16988.31	-14357.58	1	22242.81	-40.20265	-6.170229E-005	-0.027414	8
	13	147	15046.87	20094.82	-10894.2	1	22857.94	-28.46388	-0.0002144	0.0013051	9
	14	156	11953.13	18344.12	-14149.29	1	23166.98	-37.64392	0.0002691	-0.0108543	9
	15	163	9515.62	19197.43	-9824.53	1	21565.31	-27.10166	0.0002704	-0.0109082	9
	16	172	7546.875	22566.59	-10338.32	1	24822.01	-24.6137	0.0002996	-0.0004916	10
	17	180	5928.309	18679.48	-8141.313	1	20376.56	-23.54962	0.0002149	-0.0111162	9
	18	188	4733.456	21741.99	-5895.25	1	22527.05	-15.17075	0.0003045	-0.0076394	9
	19	194	3796.875	21599.08	-8454.01	1	23194.62	-21.37568	-0.0002163	0.0014484	9
	20	203	2987.132	20356.95	-4981.245	1	20957.53	-13.74982	-0.0002716	0.0108962	9
	21	213	2390.625	12897.41	-4042.024	1	13515.96	-17.40089	0.0002989	-0.009514	9
	22	220	1884.191	12721.21	-6634.03	1	14347.11	-27.54176	0.0003	-0.0097008	9
	23	228	1516.544	17695.37	-6358.632	1	18803.15	-19.76533	-3.067758E-005	0.0552561	8
	24	234	1193.986	20292.98	-760.431	1	20307.22	-2.146019	-0.0002706	0.0108881	9
	25	242	946.5144	11689.41	-8311.977	1	14343.33	-35.41545	0.0002687	-0.0108265	9
	26	248	751.7689	21117.09	-20427.8	1	29380.72	-44.04946	-0.0002908	0.0071753	9
	27	253	597.4265	9630.04	-21275.85	1	23353.79	-65.64717	4.715933E-005	-0.0083169	9
	28	259	477.4305	23757.54	-13783.69	1	27466.54	-30.12153	-2.217919E-006	0.0006325	8
	29	263	376.6741	34243.39	-20668.36	1	39997.38	-31.11402	-7.581865E-007	0.0006419	7
	30	267	298.2954	36222.38	-23489.41	1	43171.91	-32.96251	-7.308093E-007	0.0005269	7
	31	269	237.7717	38762.49	-26629.26	1	47028.16	-34.48849	-7.54485E-007	0.0006445	7
	32	272	189.0121	41550.98	-30216.86	1	51376.48	-36.02554	-7.47858E-007	0.0007591	7
	33	275	150.2404	43862.47	-32969.61	1	54871.77	-36.93067	-7.330676E-007	0.0005041	7
	34	278	119.1737	52257.27	-36650.79	1	63828.7	-35.04401	-8.2341E-008	0.0007863	6
	35	280	95.0169	56656.07	-42969.71	1	71107.7	-37.1778	-8.025448E-008	0.000643	6
	36	283	75.60484	62241.81	-47906.98	1	78543.76	-37.58517	-8.15729E-008	0.0006489	6
	37	286	54.50582	72057.36	-55539.79	1	90977.64	-37.62403	-8.25474E-008	0.000743	6
	38	289	45.95588	77486.94	-59030.16	1	97410.4	-37.30044	-8.333803E-008	0.0006127	6
	39	291	37.20238	85565.13	-63356.14	1	106467.8	-36.51786	-8.609957E-008	0.000798	6
	40	294	30.04808	93852.19	-67537.58	1	115626.8	-35.73941	-8.564618E-008	0.0008119	6
	41	297	23.91582	102982.5	-71701.98	1	125485.3	-34.84772	-8.730001E-008	0.0005341	6
	42	300	18.60119	113994.8	-75963.73	1	136986.5	-33.67865	-8.425657E-008	0.0006549	6
	43	302	15.02404	122912.5	-79684.1	1	146482.2	-32.95533	-9.084231E-008	0.0007783	6
	44	305	12.01923	133598.9	-83788.15	1	157699.5	-32.09437	-8.897761E-008	0.0007456	6
	45	307	9.450605	144301.5	-86196.53	1	168085.5	-30.85142	-9.086773E-008	0.0005341	6
	46	310	7.512019	153496	-89299.52	1	177582.2	-30.1896	-9.12239E-008	0.0007679	6
	47	313	5.978954	163462.7	-91896.42	1	187523.4	-29.34408	-9.259679E-008	0.0007987	6
	48	317	4.734848	172246.1	-93661.52	1	196064.3	-28.53583	-9.583113E-008	0.0007306	6
	49	322	3.75601	180333.7	-94391.67	1	203543.7	-27.62881	-9.644791E-008	0.0006594	6
	50	328	3.004808	186631.7	-93416.21	1	208705.5	-26.58969	-1.002236E-007	0.0007719	6
	51	334	2.372217	194373.4	-93161.12	1	215545.9	-25.6079	-1.037695E-007	0.000595	6
	52	338	1.878005	201807.4	-92227.69	1	221883.3	-24.5608	-1.065467E-007	0.0006746	6
	53	343	1.512097	202160.7	-84476.61	1	219101	-22.67852	-1.124205E-007	0.0005593	6
	54	354	1.201923	172003.1	-57341.91	1	181309.6	-18.43721	-1.073169E-007	0.0006909	6
	55	367	0.956633	126746.4	-34226	1	131286.2	-15.11146	-9.83598E-008	2.807076E-005	6
