EXPLAIN
TAG	EISPOT
TITLE	LABEL	Potentiostatic EIS	Test Identifier
DATE	LABEL	8/25/2020	Date
TIME	LABEL	1:42:55	Time
NOTES	NOTES	1	Notes...
	
PSTAT	PSTAT	REF3000-16137	Potentiostat
VDC	POTEN	0.00000E+000	T	DC Voltage (V)
FREQINIT	QUANT	3.00000E+005	Initial Freq. (Hz)
FREQFINAL	QUANT	1.00000E+000	Final Freq. (Hz)
PTSPERDEC	QUANT	1.00000E+001	Points/decade
VAC	QUANT	5.00000E+001	AC Voltage (mV rms)
AREA	QUANT	1.00000E+000	Sample Area (cm^2)
SPEED	SELECTOR	2	Optimize for:
ZGUESS	QUANT	1.00000E+003	Estimated Z (ohms)
EOC	QUANT	0	Open Circuit (V)
SEQUENCER	TOGGLE	TRUE	Run as Sequence
PSTATMODEL	IQUANT	5	Pstat Model
PSTATSECTION	LABEL	REF3000-16137	Pstat Section
PSTATSERIALNO	LABEL	16137	Pstat Serial Number
CTRLMODE	IQUANT	1	Control Mode
IESTAB	IQUANT	0	I/E Stability
CASPEED	IQUANT	1	Control Amp Speed
CONVENTION	IQUANT	1	Current Convention
ICHRANGE	IQUANT	2	Ich Range
ICHRANGEMODE	TOGGLE	F	Ich Auto Range
ICHOFFSETENABLE	TOGGLE	T	Ich Offset Enable
ICHOFFSET	QUANT	0	Ich Offset (V)
ICHFILTER	IQUANT	3	Ich Filter
VCHRANGE	IQUANT	2	Vch Range
VCHRANGEMODE	TOGGLE	F	Vch Auto Range
VCHOFFSETENABLE	TOGGLE	T	Vch Offset Enable
VCHOFFSET	QUANT	0	Vch Offset (V)
VCHFILTER	IQUANT	3	Vch Filter
ACHRANGE	IQUANT	2	Ach Range
ACHOFFSETENABLE	TOGGLE	F	Ach Offset Enable
ACHOFFSET	QUANT	0	Ach Offset (V)
ACHFILTER	IQUANT	3	Ach Filter
IERANGELOWERLIMIT	IQUANT	2	I/E Range Lower Limit
IERANGEMODE	TOGGLE	F	I/E AutoRange
IERANGE	IQUANT	11	I/E Range
POSFEEDENABLE	TOGGLE	F	Positive Feedback IR Comp
POSFEEDRESISTANCE	QUANT	0	Positive Feedback Resistance (ohm)
ACHSELECT	IQUANT	0	Ach Select
CABLEID	IQUANT	13	Cable ID
DCCALDATE	LABEL	7/31/2020	DC Calibration Date
ACCALDATE	LABEL	7/31/2020	AC Calibration Date
THERMOSELECT	IQUANT	1	Thermo Select
FRAMEWORKVERSION	QUANT	6.33	Framework Version
INSTRUMENTVERSION	LABEL	3.50	Instrument Version
COMPLIANCEVOLTAGE	IQUANT	0	Compliance Voltage
ZCURVE	TABLE
	Pt	Time	Freq	Zreal	Zimag	Zsig	Zmod	Zphz	Idc	Vdc	IERange
	#	s	Hz	ohm	ohm	V	ohm	°	A	V	#
	0	16	300046.9	655.2783	-1305.062	1	1460.334	-63.33854	-0.0006843	0.0006334	10
	1	37	238359.4	1127.009	-1466.681	1	1849.677	-52.46105	0.0002247	0.0099742	9
	2	53	189328.1	1327.695	-1579.426	1	2063.337	-49.94897	0.0007498	-0.0282439	9
	3	63	150421.9	1629.286	-1731.383	1	2377.448	-46.74011	0.0004049	0.0029372	9
	4	73	119484.4	1888.45	-1733.1	1	2563.177	-42.54374	-0.000802	0.0223344	9
	5	81	94921.88	2295.925	-1800.133	1	2917.491	-38.09842	-5.534799E-005	0.0089059	9
	6	91	75421.88	2639.315	-1762.145	1	3173.506	-33.72915	-0.0002925	0.0094338	9
	7	100	59859.37	2905.846	-1696.562	1	3364.857	-30.27829	0.0002655	-0.0108137	9
	8	108	47578.12	3155.083	-1563.941	1	3521.429	-26.36713	0.0001436	0.0024132	9
	9	118	37828.12	3642.902	-1283.443	1	3862.378	-19.40805	0.0001246	-0.0558261	8
	10	126	30046.88	3679.57	-1377.38	1	3928.919	-20.52247	-0.0001436	-0.001981	9
	11	134	23859.38	4057.124	-1188.42	1	4227.6	-16.32646	-0.0001244	0.0102856	8
	12	140	18984.38	3958.181	-1292.782	1	4163.95	-18.08756	-0.0002102	0.0109988	9
	13	146	15046.87	4076.459	-1273.925	1	4270.879	-17.35443	-0.0002919	0.0094413	9
	14	154	11953.13	4306.612	-1151.029	1	4457.777	-14.9637	-0.0002906	0.0093264	9
	15	162	9515.62	4439.862	-1186.949	1	4595.783	-14.96738	0.0001345	-0.0101312	9
	16	170	7546.875	4513.59	-1303.185	1	4697.956	-16.10473	-0.0002887	0.0072647	9
	17	176	5928.309	4863.026	-1314.773	1	5037.624	-15.12885	-0.0001453	0.0105989	9
	18	184	4733.456	4800.788	-1016.12	1	4907.145	-11.95068	4.58819E-005	0.0059923	9
	19	192	3796.875	4950.75	-1270.186	1	5111.096	-14.38968	0.0002134	-0.0110127	9
	20	198	2987.132	4916.784	-1292.549	1	5083.842	-14.72895	-0.0002671	0.0107872	9
	21	206	2390.625	4957.69	-1148.832	1	5089.057	-13.04672	-0.0001476	-0.0017972	9
	22	213	1884.191	5277.512	-1046.114	1	5380.194	-11.21189	0.0002968	-0.0096655	9
	23	222	1516.544	5883.856	-1396.747	1	6047.368	-13.35405	-0.0002173	0.011218	9
	24	228	1193.986	6058.361	-1348.706	1	6206.669	-12.55047	-0.0002878	0.0071486	9
	25	235	946.5144	6385.687	-1196.883	1	6496.886	-10.6159	-0.0002181	0.0113322	9
	26	240	751.7689	5990.325	-2625.705	1	6540.514	-23.66901	-0.0002647	0.0107666	9
	27	245	597.4265	6659.026	-3541.276	1	7542.1	-28.00408	-0.0001463	0.0105898	9
	28	249	477.4305	7131.317	-2213.569	1	7466.965	-17.2444	-1.628749E-006	0.0006759	8
	29	254	376.6741	9247.873	-2874.617	1	9684.35	-17.26738	-5.867636E-007	0.0004898	7
	30	257	298.2954	9715.38	-3132.406	1	10207.87	-17.87022	-5.892028E-007	0.0006435	7
	31	259	237.7717	10152.28	-3375.82	1	10698.83	-18.39292	-5.986689E-007	0.0004887	7
	32	261	189.0121	10555.02	-3617.515	1	11157.72	-18.9181	-5.787844E-007	0.0005007	7
	33	264	150.2404	11249.82	-3890.183	1	11903.44	-19.07537	-6.033734E-007	0.000698	7
	34	267	119.1737	11595.93	-4168.03	1	12322.26	-19.77042	-6.089065E-007	0.0005044	7
	35	269	95.0169	12136.67	-4498.196	1	12943.44	-20.33614	-5.959332E-007	0.0007175	7
	36	272	75.60484	12662.61	-4855.706	1	13561.7	-20.98022	-6.129256E-007	0.0007376	7
	37	274	54.50582	13317.67	-5521.555	1	14416.94	-22.51907	-6.035909E-007	0.0006864	7
	38	277	45.95588	13847.14	-5991.167	1	15087.65	-23.39643	-6.197493E-007	0.0005925	7
	39	279	37.20238	14124.65	-6549.755	1	15569.36	-24.87768	-5.678347E-007	0.0005915	7
	40	281	30.04808	14924.64	-7424.407	1	16669.33	-26.44849	-6.095817E-007	0.0007368	7
	41	284	23.91582	15548.13	-8476.065	1	17708.41	-28.59702	-5.968531E-007	0.0007182	7
	42	287	18.60119	16417.12	-9884.31	1	19163.02	-31.05103	-5.859613E-007	0.0007321	7
	43	289	15.02404	17828.59	-11446.64	1	21186.89	-32.70201	-6.234523E-007	0.0006415	7
	44	292	12.01923	18718.86	-12774.6	1	22662.44	-34.31139	-5.620659E-007	0.000493	7
	45	294	9.450605	20938.4	-14922.12	1	25711.59	-35.47625	-5.917135E-007	0.0005438	7
	46	297	7.512019	23087.1	-16630.4	1	28453.19	-35.76645	-5.779033E-007	0.0005048	7
	47	300	5.978954	25759.75	-18167.25	1	31521.64	-35.19368	-5.848264E-007	0.0004842	7
	48	304	4.734848	28981.18	-19493.01	1	34926.87	-33.92514	-5.971486E-007	0.0005148	7
	49	308	3.75601	32248.87	-20197.27	1	38051.53	-32.05866	-5.98498E-007	0.0004932	7
	50	313	3.004808	35452.43	-20109.19	1	40758.48	-29.5626	-5.91877E-007	0.0005566	7
	51	320	2.372217	38862.61	-20001.38	1	43707.64	-27.23347	-6.095675E-007	0.0005689	7
	52	324	1.878005	41287.12	-18627.42	1	45294.66	-24.28336	-6.090867E-007	0.0006582	7
	53	333	1.512097	43105.24	-17446.86	1	46502.2	-22.03565	-6.023385E-007	0.0005045	7
	54	344	1.201923	45226.93	-16202.48	1	48041.61	-19.70999	-6.107439E-007	0.0006227	7
	55	357	0.956633	46889.31	-14961.77	1	49218.52	-17.6972	-6.216488E-007	3.138773E-006	7
