EXPLAIN
TAG	EISPOT
TITLE	LABEL	Potentiostatic EIS	Test Identifier
DATE	LABEL	8/25/2020	Date
TIME	LABEL	2:12:18	Time
NOTES	NOTES	1	Notes...
	
PSTAT	PSTAT	REF3000-16137	Potentiostat
VDC	POTEN	0.00000E+000	T	DC Voltage (V)
FREQINIT	QUANT	3.00000E+005	Initial Freq. (Hz)
FREQFINAL	QUANT	1.00000E+000	Final Freq. (Hz)
PTSPERDEC	QUANT	1.00000E+001	Points/decade
VAC	QUANT	5.00000E+001	AC Voltage (mV rms)
AREA	QUANT	1.00000E+000	Sample Area (cm^2)
SPEED	SELECTOR	2	Optimize for:
ZGUESS	QUANT	1.00000E+003	Estimated Z (ohms)
EOC	QUANT	0	Open Circuit (V)
SEQUENCER	TOGGLE	TRUE	Run as Sequence
PSTATMODEL	IQUANT	5	Pstat Model
PSTATSECTION	LABEL	REF3000-16137	Pstat Section
PSTATSERIALNO	LABEL	16137	Pstat Serial Number
CTRLMODE	IQUANT	1	Control Mode
IESTAB	IQUANT	0	I/E Stability
CASPEED	IQUANT	1	Control Amp Speed
CONVENTION	IQUANT	1	Current Convention
ICHRANGE	IQUANT	2	Ich Range
ICHRANGEMODE	TOGGLE	F	Ich Auto Range
ICHOFFSETENABLE	TOGGLE	T	Ich Offset Enable
ICHOFFSET	QUANT	0	Ich Offset (V)
ICHFILTER	IQUANT	3	Ich Filter
VCHRANGE	IQUANT	2	Vch Range
VCHRANGEMODE	TOGGLE	F	Vch Auto Range
VCHOFFSETENABLE	TOGGLE	T	Vch Offset Enable
VCHOFFSET	QUANT	0	Vch Offset (V)
VCHFILTER	IQUANT	3	Vch Filter
ACHRANGE	IQUANT	2	Ach Range
ACHOFFSETENABLE	TOGGLE	F	Ach Offset Enable
ACHOFFSET	QUANT	0	Ach Offset (V)
ACHFILTER	IQUANT	3	Ach Filter
IERANGELOWERLIMIT	IQUANT	2	I/E Range Lower Limit
IERANGEMODE	TOGGLE	F	I/E AutoRange
IERANGE	IQUANT	11	I/E Range
POSFEEDENABLE	TOGGLE	F	Positive Feedback IR Comp
POSFEEDRESISTANCE	QUANT	0	Positive Feedback Resistance (ohm)
ACHSELECT	IQUANT	0	Ach Select
CABLEID	IQUANT	13	Cable ID
DCCALDATE	LABEL	7/31/2020	DC Calibration Date
ACCALDATE	LABEL	7/31/2020	AC Calibration Date
THERMOSELECT	IQUANT	1	Thermo Select
FRAMEWORKVERSION	QUANT	6.33	Framework Version
INSTRUMENTVERSION	LABEL	3.50	Instrument Version
COMPLIANCEVOLTAGE	IQUANT	0	Compliance Voltage
ZCURVE	TABLE
	Pt	Time	Freq	Zreal	Zimag	Zsig	Zmod	Zphz	Idc	Vdc	IERange
	#	s	Hz	ohm	ohm	V	ohm	°	A	V	#
	0	16	300046.9	850.7152	-1357.962	1	1602.429	-57.93431	-0.0001331	-0.0134747	9
	1	30	238359.4	1202.129	-1349.598	1	1807.354	-48.30755	0.0004229	0.0025817	9
	2	44	189328.1	1326.1	-1570.952	1	2055.829	-49.83103	3.568178E-005	0.0148883	9
	3	51	150421.9	1536.476	-1804.672	1	2370.147	-49.58932	-0.0004502	0.0305887	9
	4	58	119484.4	1877.433	-1733.391	1	2555.269	-42.71557	0.0004051	0.0027843	9
	5	67	94921.88	2344.378	-1795.336	1	2952.853	-37.44506	-0.0002873	0.007156	9
	6	77	75421.88	2595.811	-1804.26	1	3161.264	-34.80185	0.0002634	-0.0107404	9
	7	86	59859.37	2901.029	-1815.144	1	3422.092	-32.0338	-5.787876E-005	0.0088871	9
	8	96	47578.12	3186.152	-1576.125	1	3554.678	-26.32068	0.0002648	-0.0107607	9
	9	105	37828.12	3481.111	-1535.376	1	3804.669	-23.80032	0.0001429	0.0023593	9
	10	113	30046.88	3677.117	-1431.348	1	3945.877	-21.26888	-0.0001456	0.0105695	9
	11	123	23859.38	3797.03	-1353.089	1	4030.916	-19.61376	-0.0002672	0.0107445	9
	12	130	18984.38	3939.33	-1248.598	1	4132.472	-17.58638	0.0003041	-0.0098489	9
	13	136	15046.87	4249.833	-1312.889	1	4448.005	-17.16734	0.0002586	-0.0104464	9
	14	143	11953.13	4414.958	-1142.733	1	4560.449	-14.51153	0.0002834	-0.0052438	9
	15	149	9515.62	4484.348	-1166.719	1	4633.639	-14.58365	0.0002882	-0.0052844	9
	16	157	7546.875	4451.115	-1208.856	1	4612.349	-15.19418	-0.0002223	0.0016263	9
	17	165	5928.309	4846.912	-1209.456	1	4995.532	-14.01096	-0.000265	0.0046561	9
	18	172	4733.456	4654.496	-1163.991	1	4797.834	-14.0405	-5.547841E-005	0.0088277	9
	19	180	3796.875	5222.29	-1235.89	1	5366.539	-13.31447	-3.435732E-005	0.0526526	8
	20	185	2987.132	5063.024	-1435.373	1	5262.558	-15.82809	0.0002098	-0.0109502	9
	21	192	2390.625	5256.928	-1444.758	1	5451.845	-15.36716	-0.0002667	0.0107481	9
	22	200	1884.191	5307.511	-2168.781	1	5733.522	-22.22615	4.489995E-005	0.0059876	9
	23	207	1516.544	5878.292	-1508.422	1	6068.745	-14.39207	0.0001499	-0.0419438	8
	24	212	1193.986	5840.867	-1647.455	1	6068.759	-15.75146	5.5987E-005	0.0298433	8
	25	218	946.5144	6200.785	-1662.975	1	6419.908	-15.01276	0.0001244	-0.0071146	8
	26	221	751.7689	5719.71	-2144.252	1	6108.429	-20.55043	0.0002827	-0.0052234	9
	27	226	597.4265	6292.48	-3326.913	1	7117.841	-27.86597	-0.000147	0.0398245	8
	28	231	477.4305	7181.226	-2251.343	1	7525.858	-17.40642	-1.716141E-006	0.0007399	8
	29	236	376.6741	9334.143	-2900.19	1	9774.32	-17.26042	-6.134355E-007	0.0007096	7
	30	238	298.2954	9790.94	-3150.593	1	10285.36	-17.83748	-5.877192E-007	0.0004975	7
	31	241	237.7717	10213.35	-3433.475	1	10775.03	-18.58136	-6.036545E-007	0.0007272	7
	32	243	189.0121	10658.66	-3668.319	1	11272.25	-18.99157	-5.838099E-007	0.0004921	7
	33	246	150.2404	11183.47	-3834.54	1	11822.59	-18.92559	-6.124581E-007	0.0006359	7
	34	249	119.1737	11663.63	-4241.714	1	12410.98	-19.98481	-6.065334E-007	0.0005948	7
	35	251	95.0169	12223.43	-4557.757	1	13045.51	-20.449	-5.878626E-007	0.0004993	7
	36	253	75.60484	12630.4	-4885.791	1	13542.45	-21.14786	-5.937694E-007	0.0007104	7
	37	256	54.50582	13452.74	-5628.626	1	14582.78	-22.70444	-5.908238E-007	0.0006898	7
	38	259	45.95588	13802	-5981.906	1	15042.55	-23.43233	-5.923475E-007	0.0007444	7
	39	261	37.20238	14287.2	-6662.362	1	15764.24	-25.00043	-5.730585E-007	0.0004972	7
	40	263	30.04808	14875.43	-7484.649	1	16652.28	-26.70949	-5.910458E-007	0.0005015	7
	41	266	23.91582	15577.94	-8569.211	1	17779.3	-28.81459	-5.942155E-007	0.0007141	7
	42	269	18.60119	16577.11	-10081.54	1	19402.01	-31.30631	-5.907075E-007	0.0007476	7
	43	271	15.02404	17549	-11460.31	1	20959.63	-33.14639	-5.780157E-007	0.0006903	7
	44	274	12.01923	19088.33	-13235.66	1	23228.15	-34.73705	-5.978511E-007	0.0007444	7
	45	276	9.450605	20870.11	-15149.62	1	25788.99	-35.97591	-5.887902E-007	0.0005067	7
	46	279	7.512019	23292.89	-17111.97	1	28902.91	-36.30262	-5.913493E-007	0.0006293	7
	47	282	5.978954	25909.09	-18669.93	1	31935.05	-35.77628	-6.020596E-007	0.000696	7
	48	286	4.734848	29170.86	-20080.84	1	35414.39	-34.54302	-5.790072E-007	0.0005222	7
	49	290	3.75601	32551.43	-20759.28	1	38607.55	-32.52719	-5.808583E-007	0.0005137	7
	50	295	3.004808	35758.85	-20856.02	1	41396.48	-30.25247	-5.969344E-007	0.0007672	7
	51	302	2.372217	39356.71	-20683.71	1	44460.84	-27.72394	-5.956999E-007	0.000636	7
	52	306	1.878005	41925.83	-19276.38	1	46144.92	-24.69171	-5.98039E-007	0.0005908	7
	53	315	1.512097	44085.55	-18135.78	1	47670.14	-22.36114	-6.023849E-007	0.0007028	7
	54	325	1.201923	46167.57	-16774.58	1	49120.57	-19.96817	-6.001962E-007	0.0006046	7
	55	338	0.956633	48181.57	-15632.65	1	50654.16	-17.97581	-6.329391E-007	-3.040431E-005	7
