EXPLAIN
TAG	EISPOT
TITLE	LABEL	Potentiostatic EIS	Test Identifier
DATE	LABEL	8/24/2020	Date
TIME	LABEL	23:27:14	Time
NOTES	NOTES	1	Notes...
	
PSTAT	PSTAT	REF3000-16137	Potentiostat
VDC	POTEN	0.00000E+000	T	DC Voltage (V)
FREQINIT	QUANT	3.00000E+005	Initial Freq. (Hz)
FREQFINAL	QUANT	1.00000E+000	Final Freq. (Hz)
PTSPERDEC	QUANT	1.00000E+001	Points/decade
VAC	QUANT	5.00000E+001	AC Voltage (mV rms)
AREA	QUANT	1.00000E+000	Sample Area (cm^2)
SPEED	SELECTOR	2	Optimize for:
ZGUESS	QUANT	1.00000E+003	Estimated Z (ohms)
EOC	QUANT	0	Open Circuit (V)
SEQUENCER	TOGGLE	TRUE	Run as Sequence
PSTATMODEL	IQUANT	5	Pstat Model
PSTATSECTION	LABEL	REF3000-16137	Pstat Section
PSTATSERIALNO	LABEL	16137	Pstat Serial Number
CTRLMODE	IQUANT	1	Control Mode
IESTAB	IQUANT	0	I/E Stability
CASPEED	IQUANT	1	Control Amp Speed
CONVENTION	IQUANT	1	Current Convention
ICHRANGE	IQUANT	2	Ich Range
ICHRANGEMODE	TOGGLE	F	Ich Auto Range
ICHOFFSETENABLE	TOGGLE	T	Ich Offset Enable
ICHOFFSET	QUANT	0	Ich Offset (V)
ICHFILTER	IQUANT	3	Ich Filter
VCHRANGE	IQUANT	2	Vch Range
VCHRANGEMODE	TOGGLE	F	Vch Auto Range
VCHOFFSETENABLE	TOGGLE	T	Vch Offset Enable
VCHOFFSET	QUANT	0	Vch Offset (V)
VCHFILTER	IQUANT	3	Vch Filter
ACHRANGE	IQUANT	2	Ach Range
ACHOFFSETENABLE	TOGGLE	F	Ach Offset Enable
ACHOFFSET	QUANT	0	Ach Offset (V)
ACHFILTER	IQUANT	3	Ach Filter
IERANGELOWERLIMIT	IQUANT	2	I/E Range Lower Limit
IERANGEMODE	TOGGLE	F	I/E AutoRange
IERANGE	IQUANT	11	I/E Range
POSFEEDENABLE	TOGGLE	F	Positive Feedback IR Comp
POSFEEDRESISTANCE	QUANT	0	Positive Feedback Resistance (ohm)
ACHSELECT	IQUANT	0	Ach Select
CABLEID	IQUANT	13	Cable ID
DCCALDATE	LABEL	7/31/2020	DC Calibration Date
ACCALDATE	LABEL	7/31/2020	AC Calibration Date
THERMOSELECT	IQUANT	1	Thermo Select
FRAMEWORKVERSION	QUANT	6.33	Framework Version
INSTRUMENTVERSION	LABEL	3.50	Instrument Version
COMPLIANCEVOLTAGE	IQUANT	0	Compliance Voltage
ZCURVE	TABLE
	Pt	Time	Freq	Zreal	Zimag	Zsig	Zmod	Zphz	Idc	Vdc	IERange
	#	s	Hz	ohm	ohm	V	ohm	°	A	V	#
	0	15	300046.9	47.82141	-2686.043	1	2686.469	-88.98003	-0.0006548	0.0081138	10
	1	30	238359.4	382.0338	-3007.432	1	3031.6	-82.7605	-0.0004597	0.032147	9
	2	46	189328.1	271.4223	-3807.915	1	3817.576	-85.92294	-0.0001032	0.0178695	9
	3	56	150421.9	184.925	-4575.981	1	4579.716	-87.68581	-0.0004778	0.0319061	9
	4	66	119484.4	316.4597	-6357.927	1	6365.798	-87.15051	0.0002132	0.0104878	9
	5	74	94921.88	260.5458	-7784.953	1	7789.312	-88.08315	-4.841703E-005	-0.0056281	9
	6	86	75421.88	4297.072	-9363.771	1	10302.67	-65.34943	-0.0001206	0.0573543	8
	7	93	59859.37	2460.637	-12195.71	1	12441.47	-78.593	-0.0000978	-0.0108072	8
	8	101	47578.12	2331.671	-16583.25	1	16746.37	-81.99645	0.0001494	-0.0261028	8
	9	109	37828.12	1491.404	-19816.41	1	19872.46	-85.69598	0.0001518	-0.0536036	8
	10	118	30046.88	5570.006	-25494.33	1	26095.71	-77.67567	1.965866E-005	0.0475568	8
	11	126	23859.38	-3176.92	-35115.93	1	35259.35	-95.1694	0.0002696	-0.0108234	9
	12	134	18984.38	3616.841	-34338.07	1	34528.03	-83.98718	-0.0002943	0.0095904	9
	13	143	15046.87	14058.35	-62661.82	1	64219.47	-77.35492	4.192823E-005	0.0062381	9
	14	150	11953.13	-327.4845	-72326.03	1	72326.77	-90.25943	9.437636E-005	-0.0593994	8
	15	157	9515.62	25031.6	-80620.07	1	84416.69	-72.75104	-0.0002903	0.0071492	9
	16	166	7546.875	-20445.25	-158202.3	1	159518	-97.3638	-0.0002704	0.0108054	9
	17	174	5928.309	-57494.12	-68766.41	1	89634.78	-129.8983	-5.812367E-005	0.0089877	9
	18	184	4733.456	3983.653	-54853.06	1	54997.52	-85.84624	-0.0002897	0.0071251	9
	19	192	3796.875	113713	-117765.5	1	163705.1	-46.00299	-0.0002942	0.0094006	9
	20	202	2987.132	93551.95	-89592.06	1	129532.6	-43.76136	0.000157	-0.0430569	8
	21	210	2390.625	63717.26	-129399.9	1	144236.7	-63.7841	0.0002235	-0.0113904	9
	22	220	1884.191	33420.24	54110.66	1	63599.34	58.29937	-0.0002935	0.009362	9
	23	229	1516.544	-29029.39	-97006.3	1	101256.8	-106.66	0.0001415	0.0025982	9
	24	237	1193.986	26035.05	46919.86	1	53659.08	60.97483	-0.000141	-0.002156	9
	25	246	946.5144	-37695.1	-75822.02	1	84675.26	-116.4344	-0.0001299	0.0087974	8
	26	251	751.7689	-34860.93	17181.24	1	38864.89	153.7636	-0.0002179	0.0015607	9
	27	258	597.4265	-18645.78	-6747.693	1	19829.18	-160.1054	-0.0002886	0.0070967	9
	28	265	477.4305	158040.5	-1538907	1	1547001	-84.13647	2.421376E-007	0.0001023	9
	29	270	376.6741	3478914	-3986376	1	5290939	-48.88877	-8.284253E-009	0.0005703	5
	30	274	298.2954	3620397	-4568086	1	5828781	-51.60172	-8.258349E-009	0.0005274	5
	31	278	237.7717	3021461	-5553828	1	6322518	-61.45239	-8.552473E-009	0.000556	5
	32	282	189.0121	3467635	-6232076	1	7131849	-60.90768	-8.811559E-009	0.0006252	5
	33	285	150.2404	-40993.99	-7760332	1	7760441	-90.30267	-9.048366E-009	0.0007685	5
	34	289	119.1737	2507207	-2225520	1	3352466	-41.59384	-8.634112E-009	0.0005264	5
	35	293	95.0169	1510103	-1.026282E+007	1	1.037333E+007	-81.62939	-8.693021E-008	0.000803	6
	36	297	75.60484	5961794	-1.508651E+007	1	1.622177E+007	-68.43736	-8.574025E-008	0.000534	6
	37	302	54.50582	3839375	-2.008813E+007	1	2.045174E+007	-79.17975	-8.580069E-009	0.0006662	5
	38	308	45.95588	3.888828E+007	-4.274182E+007	1	5.778548E+007	-47.70278	-1.171193E-010	0.0005393	4
	39	310	37.20238	-4.992991E+007	-1.434159E+008	1	1.518589E+008	-109.1954	-4.503584E-010	0.0006245	4
	40	314	30.04808	-1057371	-1.260817E+008	1	1.260861E+008	-90.48049	-4.502407E-010	0.0005274	4
	41	318	23.91582	1.215992E+008	-9.101599E+007	1	1.51889E+008	-36.81455	-5.431079E-010	0.000678	4
	42	322	18.60119	5.727565E+007	-4.384971E+007	1	7.213389E+007	-37.43734	-8.096317E-010	0.0005175	4
	43	326	15.02404	2.054846E+008	-1.403239E+008	1	2.488267E+008	-34.32888	-3.078535E-010	0.0005678	4
	44	329	12.01923	2.367601E+007	-7.543235E+007	1	7.90607E+007	-72.57446	-8.698741E-008	0.0007472	6
	45	335	9.450605	6.223596E+007	-1.067451E+008	1	1.23563E+008	-59.75638	-8.976695E-009	0.0005147	5
	46	341	7.512019	-3.42626E+008	-2.280522E+008	1	4.115828E+008	-146.3522	-6.092555E-011	0.0007737	4
	47	345	5.978954	1.486334E+008	-6.719571E+008	1	6.881993E+008	-77.5273	-3.778133E-010	0.0005141	4
	48	352	4.734848	2.750491E+009	2.542835E+009	1	3.745826E+009	42.75346	-1.157326E-011	0.0006643	3
	49	358	3.75601	-2.362473E+008	-1.15923E+010	1	1.159471E+010	-91.16751	2.317492E-011	0.0008477	3
	50	366	3.004808	-2.655425E+009	-6.719068E+009	1	7.22476E+009	-111.5643	-3.2657E-013	0.0007843	3
	51	377	2.372217	9.237091E+009	-2.927035E+009	1	9.689757E+009	-17.58228	-3.961408E-012	0.0007229	3
	52	388	1.878005	-2.365698E+009	-1.430038E+010	1	1.449473E+010	-99.3933	-1.52542E-011	0.0007003	3
	53	398	1.512097	-2.588369E+009	6.988573E+008	1	2.681054E+009	164.8905	-2.470367E-011	0.0007156	3
	54	411	1.201923	-2.64343E+009	-7.630063E+008	1	2.751345E+009	-163.8996	-3.536275E-011	0.0006991	3
	55	425	0.956633	1.162092E+009	-1.571493E+009	1	1.954494E+009	-53.51772	-2.642453E-011	8.14201E-005	3
