EXPLAIN
TAG	EISPOT
TITLE	LABEL	Potentiostatic EIS	Test Identifier
DATE	LABEL	8/25/2020	Date
TIME	LABEL	2:29:49	Time
NOTES	NOTES	1	Notes...
	
PSTAT	PSTAT	REF3000-16137	Potentiostat
VDC	POTEN	0.00000E+000	T	DC Voltage (V)
FREQINIT	QUANT	3.00000E+005	Initial Freq. (Hz)
FREQFINAL	QUANT	1.00000E+000	Final Freq. (Hz)
PTSPERDEC	QUANT	1.00000E+001	Points/decade
VAC	QUANT	5.00000E+001	AC Voltage (mV rms)
AREA	QUANT	1.00000E+000	Sample Area (cm^2)
SPEED	SELECTOR	2	Optimize for:
ZGUESS	QUANT	1.00000E+003	Estimated Z (ohms)
EOC	QUANT	0	Open Circuit (V)
SEQUENCER	TOGGLE	TRUE	Run as Sequence
PSTATMODEL	IQUANT	5	Pstat Model
PSTATSECTION	LABEL	REF3000-16137	Pstat Section
PSTATSERIALNO	LABEL	16137	Pstat Serial Number
CTRLMODE	IQUANT	1	Control Mode
IESTAB	IQUANT	0	I/E Stability
CASPEED	IQUANT	1	Control Amp Speed
CONVENTION	IQUANT	1	Current Convention
ICHRANGE	IQUANT	2	Ich Range
ICHRANGEMODE	TOGGLE	F	Ich Auto Range
ICHOFFSETENABLE	TOGGLE	T	Ich Offset Enable
ICHOFFSET	QUANT	0	Ich Offset (V)
ICHFILTER	IQUANT	3	Ich Filter
VCHRANGE	IQUANT	2	Vch Range
VCHRANGEMODE	TOGGLE	F	Vch Auto Range
VCHOFFSETENABLE	TOGGLE	T	Vch Offset Enable
VCHOFFSET	QUANT	0	Vch Offset (V)
VCHFILTER	IQUANT	3	Vch Filter
ACHRANGE	IQUANT	2	Ach Range
ACHOFFSETENABLE	TOGGLE	F	Ach Offset Enable
ACHOFFSET	QUANT	0	Ach Offset (V)
ACHFILTER	IQUANT	3	Ach Filter
IERANGELOWERLIMIT	IQUANT	2	I/E Range Lower Limit
IERANGEMODE	TOGGLE	F	I/E AutoRange
IERANGE	IQUANT	11	I/E Range
POSFEEDENABLE	TOGGLE	F	Positive Feedback IR Comp
POSFEEDRESISTANCE	QUANT	0	Positive Feedback Resistance (ohm)
ACHSELECT	IQUANT	0	Ach Select
CABLEID	IQUANT	13	Cable ID
DCCALDATE	LABEL	7/31/2020	DC Calibration Date
ACCALDATE	LABEL	7/31/2020	AC Calibration Date
THERMOSELECT	IQUANT	1	Thermo Select
FRAMEWORKVERSION	QUANT	6.33	Framework Version
INSTRUMENTVERSION	LABEL	3.50	Instrument Version
COMPLIANCEVOLTAGE	IQUANT	0	Compliance Voltage
ZCURVE	TABLE
	Pt	Time	Freq	Zreal	Zimag	Zsig	Zmod	Zphz	Idc	Vdc	IERange
	#	s	Hz	ohm	ohm	V	ohm	°	A	V	#
	0	15	300046.9	835.6437	-1321.832	1	1563.822	-57.6995	-0.0003601	-0.0063313	9
	1	30	238359.4	828.293	-1946.931	1	2115.8	-66.95339	-0.0003304	-0.0060665	9
	2	45	189328.1	1314.883	-1713.99	1	2160.25	-52.50647	-0.0008108	0.0292667	9
	3	52	150421.9	1551.19	-1743.388	1	2333.58	-48.33871	-0.0008066	0.0289285	9
	4	62	119484.4	2084.767	-1887.145	1	2812.04	-42.15161	-0.0001323	-0.0127767	9
	5	72	94921.88	2269.729	-1814.825	1	2906.073	-38.64505	0.000136	-0.0100625	9
	6	82	75421.88	2973.439	-1316.51	1	3251.852	-23.88169	0.000147	-0.0262261	8
	7	89	59859.37	3078.206	-1715.589	1	3524.004	-29.13242	0.0002109	-0.0110683	9
	8	99	47578.12	3223.454	-1600.295	1	3598.833	-26.40226	4.528493E-005	0.0060168	9
	9	109	37828.12	3485.559	-1532.775	1	3807.693	-23.7375	-0.000144	-0.0019283	9
	10	118	30046.88	3634.949	-1425.451	1	3904.455	-21.4127	-0.0002911	0.0093481	9
	11	129	23859.38	4446.864	-1303.95	1	4634.1	-16.34267	4.031482E-005	-0.008024	9
	12	135	18984.38	4128.917	-1157.801	1	4288.176	-15.66418	0.0001243	-0.0560408	8
	13	140	15046.87	4733.522	-1086.689	1	4856.658	-12.92953	-0.000097	0.0541559	8
	14	147	11953.13	4512.262	-1271.051	1	4687.865	-15.7319	0.0002342	-0.0017078	9
	15	154	9515.62	4528.312	-1176.562	1	4678.665	-14.56474	-0.0002292	0.0114999	9
	16	160	7546.875	4604.39	-1223.611	1	4764.203	-14.8823	0.00015	0.0021891	9
	17	168	5928.309	4707.808	-1274.347	1	4877.234	-15.14631	-0.0002186	0.0016604	9
	18	175	4733.456	4654.955	-1265.261	1	4823.846	-15.20616	-0.0002668	0.0107531	9
	19	183	3796.875	5281.359	-1226.551	1	5421.917	-13.07468	-0.0002974	0.0095749	9
	20	191	2987.132	5469.488	-1106.258	1	5580.243	-11.43438	1.205515E-005	0.0435655	8
	21	197	2390.625	5539.128	-1226.522	1	5673.297	-12.48548	-0.0001437	0.0273576	8
	22	203	1884.191	5794.731	-1591.309	1	6009.257	-15.35564	-0.0001443	0.0403451	8
	23	208	1516.544	5765.332	-1352.83	1	5921.925	-13.2055	-0.0002678	0.0107935	9
	24	218	1193.986	5681.032	-1377.241	1	5845.59	-13.62719	-0.0002877	0.0071694	9
	25	224	946.5144	5703.766	-3441.082	1	6661.381	-31.10258	0.0002616	-0.0106217	9
	26	229	751.7689	5598.968	-2605.011	1	6175.316	-24.95097	0.000283	-0.005137	9
	27	234	597.4265	7039.989	-1752.264	1	7254.783	-13.97699	4.504728E-005	0.0059707	9
	28	240	477.4305	7167.959	-2259.552	1	7515.665	-17.49639	-1.567759E-006	0.000565	8
	29	244	376.6741	9392.855	-2931.194	1	9839.6	-17.33139	-6.106012E-007	0.0006963	7
	30	246	298.2954	9748.22	-3162.087	1	10248.25	-17.97181	-5.847174E-007	0.0007373	7
	31	248	237.7717	10273.79	-3440.651	1	10834.61	-18.51549	-5.888878E-007	0.0005227	7
	32	251	189.0121	10701.5	-3687.755	1	11319.08	-19.01404	-5.923376E-007	0.0006985	7
	33	253	150.2404	11311.05	-4007.861	1	12000.12	-19.51083	-5.921797E-007	0.0007257	7
	34	256	119.1737	11676.43	-4242.378	1	12423.24	-19.96751	-6.037628E-007	0.0007409	7
	35	259	95.0169	12207.62	-4562.05	1	13032.2	-20.49098	-6.028169E-007	0.0007151	7
	36	261	75.60484	12792.17	-4968.154	1	13723.05	-21.2249	-5.947038E-007	0.0007248	7
	37	264	54.50582	13413.08	-5590.337	1	14531.43	-22.62553	-5.898345E-007	0.0007128	7
	38	266	45.95588	13892.43	-6070.216	1	15160.71	-23.60263	-5.828206E-007	0.0005589	7
	39	269	37.20238	14365.08	-6733.833	1	15865.06	-25.1155	-5.995966E-007	0.0007141	7
	40	271	30.04808	14931.12	-7603.57	1	16755.68	-26.98715	-5.923873E-007	0.0007155	7
	41	274	23.91582	15624.5	-8642.586	1	17855.51	-28.94888	-5.794955E-007	0.0004922	7
	42	276	18.60119	16597.04	-10152.23	1	19455.83	-31.45368	-5.939316E-007	0.0007039	7
	43	279	15.02404	17691.15	-11632.78	1	21173.06	-33.32683	-5.917402E-007	0.0007505	7
	44	281	12.01923	18983.36	-13359.8	1	23213.19	-35.13649	-5.809494E-007	0.0007454	7
	45	284	9.450605	21049.08	-15411.29	1	26087.77	-36.21009	-5.862126E-007	0.0007346	7
	46	287	7.512019	23315.71	-17230.56	1	28991.63	-36.4648	-5.898314E-007	0.0007298	7
	47	290	5.978954	26078.54	-18945.25	1	32233.72	-35.99724	-5.928724E-007	0.0007434	7
	48	294	4.734848	29441.33	-20455.15	1	35849.76	-34.79067	-5.88929E-007	0.0004781	7
	49	298	3.75601	32836.48	-21207.65	1	39089.62	-32.85666	-5.907369E-007	0.0005112	7
	50	303	3.004808	36128.76	-21253.59	1	41916.62	-30.46717	-5.965422E-007	0.0006025	7
	51	310	2.372217	39909.05	-21163.08	1	45173.09	-27.93623	-6.075248E-007	0.0006348	7
	52	314	1.878005	42470.11	-19735.53	1	46831.62	-24.92393	-6.007728E-007	0.0006187	7
	53	323	1.512097	44599.2	-18475.81	1	48274.68	-22.50243	-6.019166E-007	0.0005495	7
	54	333	1.201923	46672.52	-17104.66	1	49708.08	-20.127	-6.024508E-007	0.0006241	7
	55	346	0.956633	51373.94	-16832.83	1	54061.31	-18.14154	-1.175017E-007	2.827206E-005	6
