EXPLAIN
TAG	EISPOT
TITLE	LABEL	Potentiostatic EIS	Test Identifier
DATE	LABEL	8/24/2020	Date
TIME	LABEL	23:34:33	Time
NOTES	NOTES	1	Notes...
	
PSTAT	PSTAT	REF3000-16137	Potentiostat
VDC	POTEN	0.00000E+000	T	DC Voltage (V)
FREQINIT	QUANT	3.00000E+005	Initial Freq. (Hz)
FREQFINAL	QUANT	1.00000E+000	Final Freq. (Hz)
PTSPERDEC	QUANT	1.00000E+001	Points/decade
VAC	QUANT	5.00000E+001	AC Voltage (mV rms)
AREA	QUANT	1.00000E+000	Sample Area (cm^2)
SPEED	SELECTOR	2	Optimize for:
ZGUESS	QUANT	1.00000E+003	Estimated Z (ohms)
EOC	QUANT	0	Open Circuit (V)
SEQUENCER	TOGGLE	TRUE	Run as Sequence
PSTATMODEL	IQUANT	5	Pstat Model
PSTATSECTION	LABEL	REF3000-16137	Pstat Section
PSTATSERIALNO	LABEL	16137	Pstat Serial Number
CTRLMODE	IQUANT	1	Control Mode
IESTAB	IQUANT	0	I/E Stability
CASPEED	IQUANT	1	Control Amp Speed
CONVENTION	IQUANT	1	Current Convention
ICHRANGE	IQUANT	2	Ich Range
ICHRANGEMODE	TOGGLE	F	Ich Auto Range
ICHOFFSETENABLE	TOGGLE	T	Ich Offset Enable
ICHOFFSET	QUANT	0	Ich Offset (V)
ICHFILTER	IQUANT	3	Ich Filter
VCHRANGE	IQUANT	2	Vch Range
VCHRANGEMODE	TOGGLE	F	Vch Auto Range
VCHOFFSETENABLE	TOGGLE	T	Vch Offset Enable
VCHOFFSET	QUANT	0	Vch Offset (V)
VCHFILTER	IQUANT	3	Vch Filter
ACHRANGE	IQUANT	2	Ach Range
ACHOFFSETENABLE	TOGGLE	F	Ach Offset Enable
ACHOFFSET	QUANT	0	Ach Offset (V)
ACHFILTER	IQUANT	3	Ach Filter
IERANGELOWERLIMIT	IQUANT	2	I/E Range Lower Limit
IERANGEMODE	TOGGLE	F	I/E AutoRange
IERANGE	IQUANT	11	I/E Range
POSFEEDENABLE	TOGGLE	F	Positive Feedback IR Comp
POSFEEDRESISTANCE	QUANT	0	Positive Feedback Resistance (ohm)
ACHSELECT	IQUANT	0	Ach Select
CABLEID	IQUANT	13	Cable ID
DCCALDATE	LABEL	7/31/2020	DC Calibration Date
ACCALDATE	LABEL	7/31/2020	AC Calibration Date
THERMOSELECT	IQUANT	1	Thermo Select
FRAMEWORKVERSION	QUANT	6.33	Framework Version
INSTRUMENTVERSION	LABEL	3.50	Instrument Version
COMPLIANCEVOLTAGE	IQUANT	0	Compliance Voltage
ZCURVE	TABLE
	Pt	Time	Freq	Zreal	Zimag	Zsig	Zmod	Zphz	Idc	Vdc	IERange
	#	s	Hz	ohm	ohm	V	ohm	°	A	V	#
	0	15	300046.9	304.3865	-2604.537	1	2622.263	-83.33421	0.0004157	0.0030436	9
	1	30	238359.4	132.3097	-3233.678	1	3236.384	-87.65698	0.000353	0.0022728	10
	2	49	189328.1	112.6932	-3993.591	1	3995.181	-88.38363	0.0007112	0.0003701	10
	3	58	150421.9	600.5505	-5170.458	1	5205.218	-83.37476	0.000351	-0.0016879	10
	4	67	119484.4	-190.0571	-6061.946	1	6064.924	-91.79578	3.551136E-005	-0.0170631	9
	5	76	94921.88	4198.999	-7202.503	1	8337.124	-59.75817	-0.000118	0.0574362	8
	6	83	75421.88	206.9366	-9774.48	1	9776.67	-88.78716	-0.0002208	0.0113547	9
	7	94	59859.37	-935.7396	-14935.11	1	14964.39	-93.58511	0.0003003	-0.0075911	9
	8	103	47578.12	460.8826	-15224.82	1	15231.79	-88.26608	-4.880756E-005	-0.0055534	9
	9	113	37828.12	5334.417	-19519.27	1	20235.06	-74.71489	-2.11496E-005	0.0554886	8
	10	120	30046.88	3272.308	-25114.61	1	25326.89	-82.57646	-6.47776E-006	-0.0438965	8
	11	129	23859.38	-4446.544	-26113.35	1	26489.22	-99.6636	-0.0002162	0.0014958	9
	12	137	18984.38	-3674.356	-37263.71	1	37444.43	-95.6314	5.172408E-005	-0.0084865	9
	13	145	15046.87	2279.375	-46074.14	1	46130.49	-87.16778	-7.932144E-005	0.0590747	8
	14	153	11953.13	-8530.132	-59780.84	1	60386.36	-98.1207	-0.000261	0.0044558	9
	15	160	9515.62	-3657.926	-76780.03	1	76867.12	-92.7276	-0.0002934	0.0094196	9
	16	169	7546.875	-21315.4	-107047.6	1	109149.1	-101.2615	-0.0002652	0.0045905	9
	17	178	5928.309	-64344.15	-24198.57	1	68744.02	-159.3897	0.0001425	0.0025247	9
	18	187	4733.456	66601.37	-190560.8	1	201864.2	-70.73538	-5.055276E-005	-0.0054858	9
	19	197	3796.875	-39848.25	-301615.6	1	304236.5	-97.5261	0.0001327	-0.0531222	8
	20	204	2987.132	160773	-37401.6	1	165066.1	-13.09613	-0.0002888	0.0071468	9
	21	214	2390.625	-16305.94	27226.08	1	31735.52	120.9178	0.000231	-0.0016638	9
	22	223	1884.191	80193.68	-153424.9	1	173119.1	-62.40438	-0.0001401	0.0510051	8
	23	232	1516.544	123573.6	-4207.035	1	123645.2	-1.949869	0.0002832	-0.0051606	9
	24	241	1193.986	34175.52	-58393.76	1	67659.42	-59.66127	-0.0001445	0.0105964	9
	25	250	946.5144	15071.82	9267.78	1	17693.26	31.58768	0.0001469	-0.0535375	8
	26	257	751.7689	89974.09	59303.32	1	107760	33.3895	0.0002821	-0.0051699	9
	27	264	597.4265	-25425.81	-13147.78	1	28624.04	-152.6564	0.0002262	-0.0013532	9
	28	272	477.4305	82791.99	-1231748	1	1234528	-86.15465	-2.05631E-006	0.000687	8
	29	278	376.6741	340798.1	-2940070	1	2959756	-83.38807	-8.496523E-008	0.0007772	6
	30	283	298.2954	3480214	-5129341	1	6198551	-55.84344	-6.155727E-009	0.0006389	5
	31	287	237.7717	4514134	-5129208	1	6832729	-48.64951	-8.82796E-009	0.0007941	5
	32	291	189.0121	3502277	-7397166	1	8184376	-64.66422	-8.533027E-009	0.0005952	5
	33	294	150.2404	2845658	-5035549	1	5783989	-60.52861	-8.729502E-009	0.0006215	5
	34	298	119.1737	-1869894	-3740073	1	4181465	-116.5633	-7.895634E-009	0.0007356	5
	35	302	95.0169	4895936	-1.102749E+007	1	1.206548E+007	-66.05994	-8.359352E-009	0.000677	5
	36	306	75.60484	-363371.8	-1.457138E+007	1	1.457591E+007	-91.42851	-9.39478E-009	0.0005076	5
	37	310	54.50582	4728016	-2.163572E+007	1	2.21463E+007	-77.67304	-8.24183E-009	0.0007501	5
	38	315	45.95588	-1.335051E+007	-6.7253E+007	1	6.856531E+007	-101.2279	-6.095242E-010	0.0007963	4
	39	317	37.20238	-4.402912E+007	-1.303411E+008	1	1.375768E+008	-108.6649	-7.64848E-010	0.0007964	4
	40	321	30.04808	5.851926E+007	-2.136847E+008	1	2.215528E+008	-74.6846	-5.200931E-010	0.0005176	4
	41	325	23.91582	3.073371E+008	1.976628E+008	1	3.65413E+008	32.74697	-1.104254E-010	0.0006552	4
	42	329	18.60119	-5.811063E+007	1.666392E+008	1	1.764808E+008	109.2247	-3.760859E-010	0.0007853	4
	43	333	15.02404	9.181601E+007	-6.494194E+007	1	1.124617E+008	-35.27197	-3.875718E-010	0.0005812	4
	44	337	12.01923	-1.901028E+008	-1.146636E+008	1	2.220063E+008	-148.903	-6.650567E-010	0.0008009	4
	45	341	9.450605	-9.480483E+007	-2.551163E+008	1	2.721622E+008	-110.3858	-4.41186E-010	0.0005549	4
	46	345	7.512019	-6.059576E+007	-1.731422E+007	1	6.302085E+007	-164.0536	-8.555283E-008	0.0007882	6
	47	353	5.978954	-1.45206E+008	-1.553017E+008	1	2.12611E+008	-133.0759	-9.166047E-009	0.000787	5
	48	360	4.734848	2.514648E+008	-6.431868E+008	1	6.905967E+008	-68.64614	-5.56217E-010	0.0007345	4
	49	368	3.75601	6.169235E+009	-6.524455E+008	1	6.20364E+009	-6.037042	-2.83312E-011	0.0008756	3
	50	375	3.004808	1.768399E+010	-1.41876E+010	1	2.267182E+010	-38.73955	-4.815609E-011	0.0007467	3
	51	384	2.372217	1.786364E+008	7.353241E+009	1	7.35541E+009	88.60835	-5.252671E-011	0.0007953	3
	52	396	1.878005	5.718743E+009	-7.786335E+008	1	5.771507E+009	-7.753411	1.618109E-011	0.0006901	3
	53	408	1.512097	5.805565E+009	-5.27488E+009	1	7.844039E+009	-42.25798	-1.314321E-011	0.0006273	3
	54	421	1.201923	2.11688E+009	-2.645117E+009	1	3.387894E+009	-51.32981	-3.616792E-011	0.0006915	3
	55	435	0.956633	1.600094E+010	-2.337413E+010	1	2.832631E+010	-55.6061	2.426294E-011	7.122412E-005	3
