EXPLAIN
TAG	EISPOT
TITLE	LABEL	Potentiostatic EIS	Test Identifier
DATE	LABEL	8/24/2020	Date
TIME	LABEL	22:10:04	Time
NOTES	NOTES	1	Notes...
	
PSTAT	PSTAT	REF3000-16137	Potentiostat
VDC	POTEN	0.00000E+000	T	DC Voltage (V)
FREQINIT	QUANT	3.00000E+005	Initial Freq. (Hz)
FREQFINAL	QUANT	1.00000E+000	Final Freq. (Hz)
PTSPERDEC	QUANT	1.00000E+001	Points/decade
VAC	QUANT	5.00000E+001	AC Voltage (mV rms)
AREA	QUANT	1.00000E+000	Sample Area (cm^2)
SPEED	SELECTOR	2	Optimize for:
ZGUESS	QUANT	1.00000E+003	Estimated Z (ohms)
EOC	QUANT	0	Open Circuit (V)
SEQUENCER	TOGGLE	TRUE	Run as Sequence
PSTATMODEL	IQUANT	5	Pstat Model
PSTATSECTION	LABEL	REF3000-16137	Pstat Section
PSTATSERIALNO	LABEL	16137	Pstat Serial Number
CTRLMODE	IQUANT	1	Control Mode
IESTAB	IQUANT	0	I/E Stability
CASPEED	IQUANT	1	Control Amp Speed
CONVENTION	IQUANT	1	Current Convention
ICHRANGE	IQUANT	2	Ich Range
ICHRANGEMODE	TOGGLE	F	Ich Auto Range
ICHOFFSETENABLE	TOGGLE	T	Ich Offset Enable
ICHOFFSET	QUANT	0	Ich Offset (V)
ICHFILTER	IQUANT	3	Ich Filter
VCHRANGE	IQUANT	2	Vch Range
VCHRANGEMODE	TOGGLE	F	Vch Auto Range
VCHOFFSETENABLE	TOGGLE	T	Vch Offset Enable
VCHOFFSET	QUANT	0	Vch Offset (V)
VCHFILTER	IQUANT	3	Vch Filter
ACHRANGE	IQUANT	2	Ach Range
ACHOFFSETENABLE	TOGGLE	F	Ach Offset Enable
ACHOFFSET	QUANT	0	Ach Offset (V)
ACHFILTER	IQUANT	3	Ach Filter
IERANGELOWERLIMIT	IQUANT	2	I/E Range Lower Limit
IERANGEMODE	TOGGLE	F	I/E AutoRange
IERANGE	IQUANT	11	I/E Range
POSFEEDENABLE	TOGGLE	F	Positive Feedback IR Comp
POSFEEDRESISTANCE	QUANT	0	Positive Feedback Resistance (ohm)
ACHSELECT	IQUANT	0	Ach Select
CABLEID	IQUANT	13	Cable ID
DCCALDATE	LABEL	7/31/2020	DC Calibration Date
ACCALDATE	LABEL	7/31/2020	AC Calibration Date
THERMOSELECT	IQUANT	1	Thermo Select
FRAMEWORKVERSION	QUANT	6.33	Framework Version
INSTRUMENTVERSION	LABEL	3.50	Instrument Version
COMPLIANCEVOLTAGE	IQUANT	0	Compliance Voltage
ZCURVE	TABLE
	Pt	Time	Freq	Zreal	Zimag	Zsig	Zmod	Zphz	Idc	Vdc	IERange
	#	s	Hz	ohm	ohm	V	ohm	°	A	V	#
	0	16	300046.9	346.4783	-2378.613	1	2403.716	-81.71236	0.0007667	-0.003588	10
	1	33	238359.4	598.311	-3079.042	1	3136.635	-79.00348	0.0002258	-0.001841	10
	2	48	189328.1	955.439	-3372.351	1	3505.084	-74.18176	0.0003465	0.0022637	10
	3	58	150421.9	1282.465	-4016.743	1	4216.508	-72.29277	-0.0001833	0.0027821	10
	4	66	119484.4	1668.323	-5174.351	1	5436.654	-72.12955	0.000789	-0.022998	9
	5	75	94921.88	2713.045	-6100.74	1	6676.799	-66.02493	0.0002681	-0.0107588	9
	6	85	75421.88	6095.73	-5788.93	1	8406.523	-43.52125	-0.0001202	0.0565695	8
	7	93	59859.37	6232.285	-7879.514	1	10046.3	-51.65784	-0.0000954	-0.0106772	8
	8	102	47578.12	6186.861	-8772.925	1	10735.06	-54.80766	-0.0002643	0.0045552	9
	9	111	37828.12	7320.77	-10193.36	1	12549.83	-54.31447	0.0002066	0.001138	10
	10	121	30046.88	10456.06	-11272.61	1	15375.34	-47.15211	-5.948569E-005	0.0089278	9
	11	131	23859.38	12586.14	-10535.18	1	16413.43	-39.93089	-5.836983E-005	0.0090376	9
	12	138	18984.38	16221.34	-10717.16	1	19441.95	-33.45204	-5.358334E-005	-0.0286718	8
	13	145	15046.87	18525.54	-11793.41	1	21960.88	-32.48095	-0.0001547	0.0407627	8
	14	150	11953.13	20592.08	-9305.918	1	22597.21	-24.31903	9.45341E-005	0.014869	8
	15	157	9515.62	25120.66	-11184.92	1	27498.18	-24.00092	0.0001038	-0.0588856	8
	16	162	7546.875	29777.08	-11071.6	1	31768.77	-20.39594	0.0001041	-0.0574616	8
	17	168	5928.309	22548.32	-8810.128	1	24208.37	-21.34169	-0.0001499	0.010733	9
	18	177	4733.456	26622.66	-6096.184	1	27311.71	-12.89751	-5.584818E-005	-0.0288009	8
	19	185	3796.875	28817.22	-10504.58	1	30672.11	-20.02804	-0.0001274	0.0083756	8
	20	191	2987.132	31586.25	-12048.74	1	33806.26	-20.87961	-5.61353E-005	-0.0286754	8
	21	198	2390.625	19187.33	4108.773	1	19622.32	12.08677	0.0003032	-0.0074965	9
	22	206	1884.191	30763.14	3124.741	1	30921.43	5.799882	0.0001407	0.0025768	9
	23	213	1516.544	35674.65	-9487.654	1	36914.72	-14.89305	-5.808687E-005	0.0089521	9
	24	222	1193.986	27972.73	877.1792	1	27986.48	1.796114	-0.0002879	0.0070634	9
	25	230	946.5144	150334.3	55839.89	1	160369.9	20.37691	0.0003024	-0.0096589	9
	26	236	751.7689	45324.53	1731.137	1	45357.57	2.187307	0.0002975	-0.0096048	9
	27	245	597.4265	106060.3	35342.18	1	111793.8	18.42948	-5.585409E-005	0.0088627	9
	28	252	477.4305	43533.33	-20992.78	1	48330.61	-25.74444	-2.264348E-006	0.0007286	8
	29	258	376.6741	62837.24	-31677.73	1	70370.43	-26.75375	-7.708302E-007	0.0007255	7
	30	260	298.2954	72443.69	-31463.89	1	78981.42	-23.47637	-7.843084E-008	0.0008143	6
	31	263	237.7717	75314.75	-37526.32	1	84145.92	-26.48524	-7.737216E-008	0.000608	6
	32	266	189.0121	80423.86	-45058.58	1	92186.08	-29.26033	-8.273935E-008	0.0007598	6
	33	268	150.2404	83791.3	-52352.07	1	98801.4	-31.99678	-8.007429E-008	0.0005326	6
	34	271	119.1737	91862	-60021.76	1	109732.6	-33.16022	-8.475306E-008	0.0007827	6
	35	274	95.0169	98893.2	-72500.49	1	122622.2	-36.24585	-8.255766E-008	0.0008096	6
	36	277	75.60484	108131.9	-84746.88	1	137384.6	-38.08708	-8.345415E-008	0.0006501	6
	37	279	54.50582	124379.3	-104032.9	1	162151.3	-39.90969	-8.329708E-008	0.0007391	6
	38	283	45.95588	134478.5	-115092.2	1	177004.7	-40.55828	-8.250302E-008	0.0006922	6
	39	285	37.20238	150539.8	-130726.7	1	199378.3	-40.97059	-8.618514E-008	0.0008048	6
	40	288	30.04808	167714.5	-145428.3	1	221985.4	-40.92916	-8.503695E-008	0.0008097	6
	41	291	23.91582	190231.3	-165529.5	1	252166.5	-41.0281	-8.347128E-008	0.0005514	6
	42	294	18.60119	200335.4	-186513.2	1	273717.8	-42.95368	-7.854013E-007	0.0006489	7
	43	297	15.02404	242867	-203351.2	1	316758.8	-39.93925	-8.381922E-008	0.0005287	6
	44	301	12.01923	271125.7	-221218.7	1	349924.1	-39.21193	-8.358217E-008	0.0005579	6
	45	304	9.450605	304520.8	-242307	1	389160.1	-38.50925	-8.323439E-008	0.0006266	6
	46	309	7.512019	336614.3	-264530.4	1	428118.6	-38.16225	-8.465148E-008	0.0007973	6
	47	313	5.978954	373666.8	-287084.6	1	471216	-37.53473	-8.424548E-008	0.0007503	6
	48	318	4.734848	416218.5	-315386.9	1	522213.3	-37.1528	-8.556442E-008	0.0007336	6
	49	325	3.75601	456973.9	-343723.5	1	571813.8	-36.9495	-8.560507E-008	0.0007065	6
	50	331	3.004808	502058.5	-376185.8	1	627358.4	-36.84373	-8.428462E-008	0.0007692	6
	51	339	2.372217	589590.1	-438455.5	1	734751.5	-36.63676	-9.277242E-009	0.0006747	5
	52	343	1.878005	643142	-482384.9	1	803944.5	-36.87152	-9.490439E-009	0.0006908	5
	53	348	1.512097	695008.6	-529842.1	1	873939.1	-37.32021	-8.914157E-009	0.0005618	5
	54	354	1.201923	763211.3	-593025.7	1	966525	-37.8477	-8.800036E-009	0.000643	5
	55	360	0.956633	831540.9	-662158.1	1	1062974	-38.5304	-9.371047E-009	9.436304E-006	5
