EXPLAIN
TAG	EISPOT
TITLE	LABEL	Potentiostatic EIS	Test Identifier
DATE	LABEL	8/25/2020	Date
TIME	LABEL	0:22:24	Time
NOTES	NOTES	1	Notes...
	
PSTAT	PSTAT	REF3000-16137	Potentiostat
VDC	POTEN	0.00000E+000	T	DC Voltage (V)
FREQINIT	QUANT	3.00000E+005	Initial Freq. (Hz)
FREQFINAL	QUANT	1.00000E+000	Final Freq. (Hz)
PTSPERDEC	QUANT	1.00000E+001	Points/decade
VAC	QUANT	5.00000E+001	AC Voltage (mV rms)
AREA	QUANT	1.00000E+000	Sample Area (cm^2)
SPEED	SELECTOR	2	Optimize for:
ZGUESS	QUANT	1.00000E+003	Estimated Z (ohms)
EOC	QUANT	0	Open Circuit (V)
SEQUENCER	TOGGLE	TRUE	Run as Sequence
PSTATMODEL	IQUANT	5	Pstat Model
PSTATSECTION	LABEL	REF3000-16137	Pstat Section
PSTATSERIALNO	LABEL	16137	Pstat Serial Number
CTRLMODE	IQUANT	1	Control Mode
IESTAB	IQUANT	0	I/E Stability
CASPEED	IQUANT	1	Control Amp Speed
CONVENTION	IQUANT	1	Current Convention
ICHRANGE	IQUANT	2	Ich Range
ICHRANGEMODE	TOGGLE	F	Ich Auto Range
ICHOFFSETENABLE	TOGGLE	T	Ich Offset Enable
ICHOFFSET	QUANT	0	Ich Offset (V)
ICHFILTER	IQUANT	3	Ich Filter
VCHRANGE	IQUANT	2	Vch Range
VCHRANGEMODE	TOGGLE	F	Vch Auto Range
VCHOFFSETENABLE	TOGGLE	T	Vch Offset Enable
VCHOFFSET	QUANT	0	Vch Offset (V)
VCHFILTER	IQUANT	3	Vch Filter
ACHRANGE	IQUANT	2	Ach Range
ACHOFFSETENABLE	TOGGLE	F	Ach Offset Enable
ACHOFFSET	QUANT	0	Ach Offset (V)
ACHFILTER	IQUANT	3	Ach Filter
IERANGELOWERLIMIT	IQUANT	2	I/E Range Lower Limit
IERANGEMODE	TOGGLE	F	I/E AutoRange
IERANGE	IQUANT	11	I/E Range
POSFEEDENABLE	TOGGLE	F	Positive Feedback IR Comp
POSFEEDRESISTANCE	QUANT	0	Positive Feedback Resistance (ohm)
ACHSELECT	IQUANT	0	Ach Select
CABLEID	IQUANT	13	Cable ID
DCCALDATE	LABEL	7/31/2020	DC Calibration Date
ACCALDATE	LABEL	7/31/2020	AC Calibration Date
THERMOSELECT	IQUANT	1	Thermo Select
FRAMEWORKVERSION	QUANT	6.33	Framework Version
INSTRUMENTVERSION	LABEL	3.50	Instrument Version
COMPLIANCEVOLTAGE	IQUANT	0	Compliance Voltage
ZCURVE	TABLE
	Pt	Time	Freq	Zreal	Zimag	Zsig	Zmod	Zphz	Idc	Vdc	IERange
	#	s	Hz	ohm	ohm	V	ohm	°	A	V	#
	0	15	300046.9	800.7227	-1403.427	1	1615.786	-60.29317	0.0005785	-0.0064552	9
	1	29	238359.4	1053.478	-1528.681	1	1856.524	-55.42766	-0.0007583	0.0357844	9
	2	45	189328.1	1286.698	-1715.963	1	2144.789	-53.13596	-0.000121	-0.012896	9
	3	54	150421.9	1484.907	-1756.675	1	2300.186	-49.79236	-0.0001605	0.0027851	10
	4	63	119484.4	1894.624	-1895.521	1	2680.037	-45.01357	-0.0004959	-0.0005833	10
	5	73	94921.88	2305.567	-1789.168	1	2918.349	-37.81221	-0.0002667	0.0107259	9
	6	83	75421.88	2593.314	-1787.52	1	3149.684	-34.57773	0.0002452	-0.0005942	10
	7	93	59859.37	2917.882	-1745.916	1	3400.333	-30.89421	-0.0002217	0.0017023	9
	8	103	47578.12	3236.583	-1632.911	1	3625.172	-26.77173	-5.385818E-005	-0.0053946	9
	9	112	37828.12	3870.283	-960.437	1	3987.672	-13.9368	-7.22948E-005	0.0557397	8
	10	120	30046.88	3591.969	-1434.873	1	3867.958	-21.77508	0.000266	-0.0107558	9
	11	129	23859.38	3813.724	-1272.352	1	4020.369	-18.44997	0.0002276	-0.0014254	9
	12	135	18984.38	4039.62	-1233.286	1	4223.686	-16.9773	4.319687E-005	0.0060898	9
	13	141	15046.87	4181.055	-1236.46	1	4360.052	-16.47449	0.0002965	-0.0096213	9
	14	148	11953.13	4404.353	-1136.174	1	4548.54	-14.46501	-0.0002187	0.0016598	9
	15	155	9515.62	4396.101	-1194.892	1	4555.598	-15.20604	4.006306E-005	-0.0080094	9
	16	162	7546.875	4822.631	-1075.634	1	4941.129	-12.57338	4.171144E-005	-0.0500405	8
	17	168	5928.309	5073.241	-1105.237	1	5192.237	-12.2902	9.353038E-005	0.0123046	8
	18	173	4733.456	4994.568	-956.815	1	5085.391	-10.84483	-0.0002182	0.0016464	9
	19	181	3796.875	5080.937	-1220.941	1	5225.573	-13.5119	0.0002097	-0.0109084	9
	20	188	2987.132	5267.999	-1308.375	1	5428.043	-13.94792	0.0001347	-0.0101036	9
	21	196	2390.625	5522.663	-1166.516	1	5644.516	-11.92691	9.191896E-005	-0.0559306	8
	22	202	1884.191	5428.546	-1462.698	1	5622.152	-15.07997	9.448863E-005	0.0123243	8
	23	208	1516.544	5854.104	-856.2115	1	5916.387	-8.320987	0.0002997	-0.0075794	9
	24	214	1193.986	5675.092	-1784.935	1	5949.174	-17.45945	0.0002657	-0.0107979	9
	25	222	946.5144	6128.375	-673.1179	1	6165.231	-6.26803	-0.0001466	-0.0018998	9
	26	227	751.7689	6920.345	-1643.434	1	7112.809	-13.35906	-9.426191E-005	-0.0079004	8
	27	231	597.4265	6245.254	-2084.139	1	6583.832	-18.45466	-0.0001123	0.0551575	8
	28	234	477.4305	6959.55	-2064.249	1	7259.232	-16.5207	-1.624303E-006	0.0006224	8
	29	238	376.6741	9086.107	-2695.775	1	9477.581	-16.5252	-6.255931E-007	0.0007011	7
	30	240	298.2954	9488.488	-2925.066	1	9929.12	-17.13323	-6.267529E-007	0.0004937	7
	31	243	237.7717	9875.76	-3144.313	1	10364.23	-17.6608	-6.056407E-007	0.0004973	7
	32	245	189.0121	10310.89	-3385.612	1	10852.5	-18.17776	-6.192097E-007	0.000748	7
	33	248	150.2404	10880.73	-3604.315	1	11462.17	-18.32781	-6.077087E-007	0.0005001	7
	34	250	119.1737	11178.47	-3898.335	1	11838.72	-19.2255	-5.812697E-007	0.0005249	7
	35	253	95.0169	11700.54	-4180.772	1	12425.04	-19.66254	-6.001644E-007	0.0005046	7
	36	255	75.60484	12222.66	-4514.745	1	13029.83	-20.27297	-6.080246E-007	0.0006993	7
	37	258	54.50582	12931.97	-5076.271	1	13892.6	-21.43182	-6.153638E-007	0.0007404	7
	38	260	45.95588	13313.16	-5462.036	1	14390.07	-22.30704	-6.089575E-007	0.0007589	7
	39	263	37.20238	13804.88	-6051.145	1	15072.86	-23.66946	-6.174854E-007	0.0006399	7
	40	265	30.04808	14331.82	-6696.948	1	15819.3	-25.04566	-6.008287E-007	0.0006465	7
	41	268	23.91582	14977.45	-7624.85	1	16806.62	-26.98012	-6.071832E-007	0.0005978	7
	42	271	18.60119	15923.95	-8852.567	1	18219.23	-29.0709	-6.02777E-007	0.0005615	7
	43	273	15.02404	16931.65	-10002.57	1	19665.51	-30.57297	-6.054939E-007	0.0005088	7
	44	275	12.01923	18149.56	-11287.33	1	21373.12	-31.87775	-6.148543E-007	0.0006968	7
	45	278	9.450605	19969.69	-12800.78	1	23720.21	-32.66029	-5.97146E-007	0.0004891	7
	46	281	7.512019	21899.47	-14130.77	1	26062.72	-32.83238	-6.107911E-007	0.0007483	7
	47	284	5.978954	24181.99	-15257.53	1	28593.02	-32.24971	-6.078496E-007	0.0007473	7
	48	288	4.734848	26911.2	-16193.13	1	31407.48	-31.03635	-6.155702E-007	0.0007297	7
	49	292	3.75601	29651.98	-16590.67	1	33977.79	-29.22759	-6.022604E-007	0.0005099	7
	50	297	3.004808	32228.71	-16606.31	1	36255.47	-27.26045	-6.197354E-007	0.000703	7
	51	304	2.372217	35068.91	-16388.48	1	38709.32	-25.04773	-6.195741E-007	0.0006382	7
	52	308	1.878005	37576.73	-15699.26	1	40724.41	-22.67479	-6.256367E-007	0.000615	7
	53	313	1.512097	39240.52	-14711.93	1	41907.75	-20.55186	-6.225526E-007	0.000545	7
	54	323	1.201923	40665.61	-13560.39	1	42866.96	-18.44152	-6.236344E-007	0.0006051	7
	55	336	0.956633	42158.55	-12590.63	1	43998.49	-16.62823	-6.397059E-007	-1.927872E-005	7
