EXPLAIN
TAG	EISPOT
TITLE	LABEL	Potentiostatic EIS	Test Identifier
DATE	LABEL	11/20/2021	Date
TIME	LABEL	13:11:05	Time
NOTES	NOTES	1	Notes...
	
PSTAT	PSTAT	REF3000-16137	Potentiostat
VDC	POTEN	0.00000E+000	T	DC Voltage (V)
FREQINIT	QUANT	3.00000E+005	Initial Freq. (Hz)
FREQFINAL	QUANT	1.00000E+000	Final Freq. (Hz)
PTSPERDEC	QUANT	1.00000E+001	Points/decade
VAC	QUANT	5.00000E+001	AC Voltage (mV rms)
AREA	QUANT	1.00000E+000	Sample Area (cm^2)
SPEED	SELECTOR	2	Optimize for:
ZGUESS	QUANT	1.00000E+003	Estimated Z (ohms)
EOC	QUANT	0	Open Circuit (V)
SEQUENCER	TOGGLE	TRUE	Run as Sequence
PSTATMODEL	IQUANT	5	Pstat Model
PSTATSECTION	LABEL	REF3000-16137	Pstat Section
PSTATSERIALNO	LABEL	16137	Pstat Serial Number
CTRLMODE	IQUANT	1	Control Mode
IESTAB	IQUANT	0	I/E Stability
CASPEED	IQUANT	1	Control Amp Speed
CONVENTION	IQUANT	1	Current Convention
ICHRANGE	IQUANT	2	Ich Range
ICHRANGEMODE	TOGGLE	F	Ich Auto Range
ICHOFFSETENABLE	TOGGLE	T	Ich Offset Enable
ICHOFFSET	QUANT	0	Ich Offset (V)
ICHFILTER	IQUANT	3	Ich Filter
VCHRANGE	IQUANT	2	Vch Range
VCHRANGEMODE	TOGGLE	F	Vch Auto Range
VCHOFFSETENABLE	TOGGLE	T	Vch Offset Enable
VCHOFFSET	QUANT	0	Vch Offset (V)
VCHFILTER	IQUANT	3	Vch Filter
ACHRANGE	IQUANT	2	Ach Range
ACHOFFSETENABLE	TOGGLE	F	Ach Offset Enable
ACHOFFSET	QUANT	0	Ach Offset (V)
ACHFILTER	IQUANT	3	Ach Filter
IERANGELOWERLIMIT	IQUANT	2	I/E Range Lower Limit
IERANGEMODE	TOGGLE	F	I/E AutoRange
IERANGE	IQUANT	11	I/E Range
POSFEEDENABLE	TOGGLE	F	Positive Feedback IR Comp
POSFEEDRESISTANCE	QUANT	0	Positive Feedback Resistance (ohm)
ACHSELECT	IQUANT	0	Ach Select
CABLEID	IQUANT	13	Cable ID
DCCALDATE	LABEL	9/10/2021	DC Calibration Date
ACCALDATE	LABEL	9/10/2021	AC Calibration Date
THERMOSELECT	IQUANT	1	Thermo Select
FRAMEWORKVERSION	QUANT	6.33	Framework Version
INSTRUMENTVERSION	LABEL	3.50	Instrument Version
COMPLIANCEVOLTAGE	IQUANT	0	Compliance Voltage
ZCURVE	TABLE
	Pt	Time	Freq	Zreal	Zimag	Zsig	Zmod	Zphz	Idc	Vdc	IERange
	#	s	Hz	ohm	ohm	V	ohm	°	A	V	#
	0	10	300046.9	3.096099	2.282572	1	3.846552	36.39917	5.466917E-006	-0.0009045	10
	1	14	238359.4	3.056115	1.804236	1	3.548959	30.55629	-3.068737E-005	-0.0013821	10
	2	17	189328.1	3.035421	1.39482	1	3.340554	24.67946	4.549909E-005	-0.0009394	10
	3	19	150421.9	3.070028	0.8989337	1	3.19893	16.32054	-8.339083E-005	-0.0007755	12
	4	23	119484.4	3.023504	0.7940566	1	3.126036	14.71516	-9.479695E-005	6.677878E-005	11
	5	25	94921.88	3.033099	0.5722646	1	3.086612	10.68458	-8.645636E-005	0.0001876	11
	6	28	75421.88	3.049583	0.3909017	1	3.074534	7.304458	-1.423478E-005	0.0002995	11
	7	30	59859.37	3.070116	0.2381618	1	3.07934	4.43579	-6.561618E-005	0.0002865	11
	8	33	47578.12	3.09516	0.1079035	1	3.097041	1.996638	-6.935625E-005	0.0003163	11
	9	35	37828.12	3.120595	-0.0066674	1	3.120602	-0.1224174	-9.235444E-005	0.0002671	11
	10	38	30046.88	3.149125	-0.1117321	1	3.151106	-2.032024	-7.966445E-005	0.0002522	11
	11	41	23859.38	3.177534	-0.2129948	1	3.184664	-3.834884	-2.404544E-005	0.0004147	11
	12	43	18984.38	3.205283	-0.3147379	1	3.220699	-5.608093	-1.356205E-005	0.0004416	11
	13	45	15046.87	3.232128	-0.4257836	1	3.260053	-7.504632	-7.629678E-005	0.0003044	11
	14	47	11953.13	3.259348	-0.5505862	1	3.305525	-9.58819	-7.917464E-005	0.0003207	11
	15	50	9515.62	3.28776	-0.6954718	1	3.360513	-11.94391	-7.701088E-005	0.0003432	11
	16	52	7546.875	3.318685	-0.8707544	1	3.431018	-14.70184	-7.133327E-005	0.0003644	11
	17	54	5928.309	3.352928	-1.095184	1	3.527259	-18.08885	-8.179963E-005	0.0003352	11
	18	57	4733.456	3.394018	-1.352704	1	3.653651	-21.73003	6.649038E-006	-0.0001371	10
	19	59	3796.875	3.437262	-1.661285	1	3.817674	-25.79524	9.237262E-007	-0.0001102	10
	20	61	2987.132	3.492783	-2.074413	1	4.062355	-30.70667	2.007615E-005	-0.0001369	10
	21	64	2390.625	3.557882	-2.550838	1	4.37782	-35.63879	-1.395532E-006	-0.0001084	10
	22	66	1884.191	3.643684	-3.178917	1	4.835488	-41.10294	-1.944556E-005	-0.000122	10
	23	68	1516.544	3.743299	-3.885213	1	5.395106	-46.06575	-9.500067E-006	-0.0001333	10
	24	70	1193.986	3.884583	-4.846342	1	6.21104	-51.2861	1.392949E-005	-0.0001319	10
	25	73	946.5144	4.057592	-6.009068	1	7.250721	-55.97101	-1.8736E-005	-0.0001504	10
	26	75	751.7689	4.294147	-7.426251	1	8.578398	-59.96183	1.404752E-005	-0.0001317	10
	27	78	597.4265	4.595276	-9.17048	1	10.2574	-63.38481	1.67314E-005	-0.0001247	10
	28	80	477.4305	4.99097	-11.26026	1	12.31679	-66.09528	1.388187E-007	-0.0001086	10
	29	82	376.6741	5.539897	-13.95923	1	15.01834	-68.35372	7.203712E-007	-0.0001123	10
	30	84	298.2954	6.25976	-17.21764	1	18.32026	-70.02042	2.750758E-007	-0.0001087	10
	31	87	237.7717	7.183018	-21.06746	1	22.25834	-71.17303	2.799123E-007	-0.000111	10
	32	89	189.0121	8.40814	-25.77819	1	27.11479	-71.93509	2.972047E-007	-0.0001133	10
	33	92	150.2404	10.00081	-31.45778	1	33.00921	-72.36391	-4.66989E-007	-0.0001141	10
	34	94	119.1737	12.07303	-38.33419	1	40.1904	-72.51862	3.575325E-007	-0.0001504	10
	35	96	95.0169	14.62862	-46.30778	1	48.56343	-72.46868	7.831166E-007	-0.0001275	9
	36	99	75.60484	17.88778	-55.9306	1	58.72142	-72.26464	6.620413E-007	-0.0001298	9
	37	101	54.50582	23.95827	-72.90012	1	76.73608	-71.80714	6.051668E-007	-0.0001363	9
	38	104	45.95588	27.89735	-83.54075	1	88.07564	-71.53393	6.777335E-007	-0.0001295	9
	39	106	37.20238	33.64826	-98.7376	1	104.3136	-71.18169	5.878696E-007	-0.0001231	9
	40	109	30.04808	40.47184	-116.7308	1	123.5477	-70.87801	9.910528E-007	-0.0001633	9
	41	111	23.91582	49.20304	-139.546	1	147.9663	-70.57767	2.88064E-007	-0.000128	9
	42	113	18.60119	61.12532	-170.1113	1	180.7599	-70.23534	6.332689E-007	-0.0001241	9
	43	116	15.02404	73.55859	-201.3891	1	214.4025	-69.93497	1.117345E-006	-0.000117	9
	44	118	12.01923	89.94824	-240.2239	1	256.5116	-69.47234	6.460294E-007	-0.0001258	9
	45	120	9.450605	112.8745	-290.3663	1	311.5337	-68.75733	5.184128E-007	-0.0001729	9
	46	123	7.512019	141.7145	-347.2213	1	375.0275	-67.79771	9.102096E-007	-0.0001353	9
	47	125	5.978954	178.2112	-410.7596	1	447.7529	-66.54603	1.006712E-006	-0.0001162	8
	48	129	4.734848	228.2067	-486.6284	1	537.4807	-64.87554	9.964871E-007	-0.0000964	8
	49	132	3.75601	291.9481	-570.7042	1	641.0436	-62.90764	4.432375E-007	-0.0001341	8
	50	135	3.004808	369.2621	-658.5262	1	754.991	-60.7189	5.619449E-007	-0.0001209	8
	51	139	2.372217	470.946	-755.168	1	889.9825	-58.05107	4.895592E-007	-8.335657E-005	8
	52	143	1.878005	594.0776	-853.7961	1	1040.142	-55.16952	3.536732E-007	-0.0001258	8
	53	148	1.512097	724.3107	-942.0984	1	1188.35	-52.44594	5.142339E-007	-0.000199	8
	54	153	1.201923	882.5126	-1029.45	1	1355.948	-49.39463	4.59954E-007	-0.0001132	8
	55	159	0.956633	1053.427	-1108.273	1	1529.044	-46.45337	3.466224E-007	-0.0006643	8
