EXPLAIN
TAG	EISPOT
TITLE	LABEL	Potentiostatic EIS	Test Identifier
DATE	LABEL	11/20/2021	Date
TIME	LABEL	13:19:30	Time
NOTES	NOTES	1	Notes...
	
PSTAT	PSTAT	REF3000-16137	Potentiostat
VDC	POTEN	0.00000E+000	T	DC Voltage (V)
FREQINIT	QUANT	3.00000E+005	Initial Freq. (Hz)
FREQFINAL	QUANT	1.00000E+000	Final Freq. (Hz)
PTSPERDEC	QUANT	1.00000E+001	Points/decade
VAC	QUANT	5.00000E+001	AC Voltage (mV rms)
AREA	QUANT	1.00000E+000	Sample Area (cm^2)
SPEED	SELECTOR	2	Optimize for:
ZGUESS	QUANT	1.00000E+003	Estimated Z (ohms)
EOC	QUANT	0	Open Circuit (V)
SEQUENCER	TOGGLE	TRUE	Run as Sequence
PSTATMODEL	IQUANT	5	Pstat Model
PSTATSECTION	LABEL	REF3000-16137	Pstat Section
PSTATSERIALNO	LABEL	16137	Pstat Serial Number
CTRLMODE	IQUANT	1	Control Mode
IESTAB	IQUANT	0	I/E Stability
CASPEED	IQUANT	1	Control Amp Speed
CONVENTION	IQUANT	1	Current Convention
ICHRANGE	IQUANT	2	Ich Range
ICHRANGEMODE	TOGGLE	F	Ich Auto Range
ICHOFFSETENABLE	TOGGLE	T	Ich Offset Enable
ICHOFFSET	QUANT	0	Ich Offset (V)
ICHFILTER	IQUANT	3	Ich Filter
VCHRANGE	IQUANT	2	Vch Range
VCHRANGEMODE	TOGGLE	F	Vch Auto Range
VCHOFFSETENABLE	TOGGLE	T	Vch Offset Enable
VCHOFFSET	QUANT	0	Vch Offset (V)
VCHFILTER	IQUANT	3	Vch Filter
ACHRANGE	IQUANT	2	Ach Range
ACHOFFSETENABLE	TOGGLE	F	Ach Offset Enable
ACHOFFSET	QUANT	0	Ach Offset (V)
ACHFILTER	IQUANT	3	Ach Filter
IERANGELOWERLIMIT	IQUANT	2	I/E Range Lower Limit
IERANGEMODE	TOGGLE	F	I/E AutoRange
IERANGE	IQUANT	11	I/E Range
POSFEEDENABLE	TOGGLE	F	Positive Feedback IR Comp
POSFEEDRESISTANCE	QUANT	0	Positive Feedback Resistance (ohm)
ACHSELECT	IQUANT	0	Ach Select
CABLEID	IQUANT	13	Cable ID
DCCALDATE	LABEL	9/10/2021	DC Calibration Date
ACCALDATE	LABEL	9/10/2021	AC Calibration Date
THERMOSELECT	IQUANT	1	Thermo Select
FRAMEWORKVERSION	QUANT	6.33	Framework Version
INSTRUMENTVERSION	LABEL	3.50	Instrument Version
COMPLIANCEVOLTAGE	IQUANT	0	Compliance Voltage
ZCURVE	TABLE
	Pt	Time	Freq	Zreal	Zimag	Zsig	Zmod	Zphz	Idc	Vdc	IERange
	#	s	Hz	ohm	ohm	V	ohm	°	A	V	#
	0	10	300046.9	3.80202	2.288837	1	4.437808	31.04817	7.25702E-005	-0.0011086	10
	1	13	238359.4	3.753267	1.808916	1	4.166436	25.7321	1.407748E-005	-0.0011792	10
	2	16	189328.1	3.727859	1.416427	1	3.987881	20.80466	-6.746759E-007	-0.0008434	10
	3	19	150421.9	3.725653	1.10164	1	3.885113	16.47245	-3.972326E-006	-0.0006083	10
	4	21	119484.4	3.723632	0.826172	1	3.814183	12.50972	6.672566E-005	-0.0006807	10
	5	24	94921.88	3.732667	0.6163123	1	3.783206	9.375693	1.506619E-005	-0.0003919	10
	6	26	75421.88	3.74427	0.4296651	1	3.768842	6.546213	3.023182E-005	-0.0003343	10
	7	29	59859.37	3.760566	0.2723753	1	3.770417	4.142661	1.797346E-005	-0.0002696	10
	8	31	47578.12	3.781043	0.1374615	1	3.783541	2.082097	-1.490897E-005	-0.0001958	10
	9	34	37828.12	3.802913	0.0159471	1	3.802946	0.2402624	2.410075E-005	-0.0001817	10
	10	36	30046.88	3.829159	-0.0962416	1	3.830368	-1.439762	-8.859432E-006	-0.000148	10
	11	39	23859.38	3.855545	-0.2051498	1	3.860999	-3.045781	-4.627395E-006	-0.0001462	10
	12	41	18984.38	3.881609	-0.3155562	1	3.894415	-4.647652	1.311338E-005	-0.000148	10
	13	44	15046.87	3.909697	-0.4352498	1	3.933849	-6.352338	2.279773E-005	-0.0001241	10
	14	46	11953.13	3.937926	-0.5688968	1	3.978807	-8.220426	1.362432E-005	-0.0001339	10
	15	48	9515.62	3.968041	-0.7238567	1	4.033524	-10.33832	2.042376E-005	-0.0001048	10
	16	53	7546.875	4.002511	-0.9107583	1	4.104823	-12.81919	2.31837E-005	-0.0001178	10
	17	55	5928.309	4.039841	-1.149263	1	4.200133	-15.88011	2.290719E-005	-0.0001146	10
	18	57	4733.456	4.079669	-1.421714	1	4.320298	-19.21281	2.313771E-005	-0.0001159	10
	19	59	3796.875	4.125869	-1.748117	1	4.480927	-22.96221	-9.131641E-006	-0.0001065	10
	20	62	2987.132	4.184472	-2.185744	1	4.72094	-27.58015	-2.482562E-005	-0.0001264	10
	21	64	2390.625	4.250844	-2.689456	1	5.030194	-32.32103	1.830378E-005	-0.0001218	10
	22	66	1884.191	4.339098	-3.353012	1	5.483654	-37.69484	6.435387E-006	-0.0001302	10
	23	69	1516.544	4.440352	-4.099628	1	6.043483	-42.71525	-1.416606E-005	-0.0001229	10
	24	71	1193.986	4.581564	-5.115447	1	6.867206	-48.15132	6.016037E-006	-0.0001356	10
	25	73	946.5144	4.752024	-6.348129	1	7.929721	-53.18254	2.465187E-005	-0.0001052	10
	26	76	751.7689	4.97685	-7.850536	1	9.295157	-57.62733	-2.140795E-005	-0.0001297	10
	27	78	597.4265	5.272007	-9.70416	1	11.04377	-61.48597	1.812816E-005	-0.0001174	10
	28	80	477.4305	5.647149	-11.93687	1	13.20527	-64.68188	-1.215238E-006	-0.000108	10
	29	83	376.6741	6.167566	-14.8303	1	16.06165	-67.41874	-1.117161E-006	-0.0001053	10
	30	85	298.2954	6.848878	-18.34421	1	19.58104	-69.5267	-5.642692E-007	-0.0001038	10
	31	87	237.7717	7.726227	-22.51979	1	23.80831	-71.06361	-7.629806E-007	-0.0001058	10
	32	90	189.0121	8.900491	-27.66876	1	29.06508	-72.16805	-1.392442E-006	-0.0001053	10
	33	92	150.2404	10.4439	-33.91076	1	35.4826	-72.88211	-1.112511E-006	-0.0001069	10
	34	95	119.1737	12.46958	-41.47978	1	43.31353	-73.26826	6.69232E-007	-0.0001214	9
	35	97	95.0169	15.04922	-50.41986	1	52.61788	-73.38079	5.738119E-007	-0.0001225	9
	36	99	75.60484	18.37534	-61.20668	1	63.90548	-73.2893	4.229168E-007	-0.0001218	9
	37	102	54.50582	24.70846	-80.32898	1	84.04316	-72.90258	3.081173E-007	-0.0001267	9
	38	105	45.95588	28.90239	-92.3634	1	96.7799	-72.62403	7.16475E-007	-0.000118	9
	39	107	37.20238	35.08051	-109.5109	1	114.9926	-72.23776	4.577949E-007	-0.000121	9
	40	109	30.04808	42.58747	-129.8363	1	136.6425	-71.84005	5.688212E-007	-0.0001303	9
	41	112	23.91582	52.24266	-155.4235	1	163.9688	-71.42091	4.735162E-007	-0.0001301	9
	42	114	18.60119	65.07298	-189.3221	1	200.1933	-71.03135	8.676234E-007	-0.0001275	9
	43	116	15.02404	78.25275	-223.9702	1	237.247	-70.74114	3.491794E-007	-0.0001293	9
	44	119	12.01923	94.82089	-267.0613	1	283.395	-70.45245	2.335214E-007	-0.0001284	9
	45	121	9.450605	117.1297	-323.0174	1	343.5981	-70.06879	3.521951E-007	-0.0001096	9
	46	123	7.512019	144.5048	-387.4158	1	413.4883	-69.54465	2.791786E-007	-0.0001309	9
	47	126	5.978954	178.7371	-462.068	1	495.4329	-68.85253	4.89202E-007	-0.0001129	8
	48	129	4.734848	225.3765	-553.7743	1	597.8801	-67.85453	3.672194E-007	-0.0001375	8
	49	132	3.75601	286.5063	-659.6906	1	719.22	-66.5245	8.380401E-007	-0.0000994	8
	50	136	3.004808	362.9327	-775.1244	1	855.8843	-64.90983	4.857412E-007	-8.906658E-005	8
	51	140	2.372217	466.0294	-910.9827	1	1023.266	-62.90718	6.547036E-007	-0.0001053	8
	52	144	1.878005	598.1021	-1057.585	1	1214.995	-60.5103	6.730796E-007	-0.000133	8
	53	148	1.512097	745.0644	-1200.056	1	1412.535	-58.16558	5.459735E-007	-1.779073E-005	8
	54	154	1.201923	932.1939	-1353.901	1	1643.786	-55.45164	6.591906E-007	-0.0001325	8
	55	160	0.956633	1146.317	-1507.036	1	1893.462	-52.74179	2.01356E-007	-0.0006644	8
