EXPLAIN
TAG	EISPOT
TITLE	LABEL	Potentiostatic EIS	Test Identifier
DATE	LABEL	11/20/2021	Date
TIME	LABEL	14:06:44	Time
NOTES	NOTES	1	Notes...
	
PSTAT	PSTAT	REF3000-16137	Potentiostat
VDC	POTEN	0.00000E+000	T	DC Voltage (V)
FREQINIT	QUANT	3.00000E+005	Initial Freq. (Hz)
FREQFINAL	QUANT	1.00000E+000	Final Freq. (Hz)
PTSPERDEC	QUANT	1.00000E+001	Points/decade
VAC	QUANT	5.00000E+001	AC Voltage (mV rms)
AREA	QUANT	1.00000E+000	Sample Area (cm^2)
SPEED	SELECTOR	2	Optimize for:
ZGUESS	QUANT	1.00000E+003	Estimated Z (ohms)
EOC	QUANT	0	Open Circuit (V)
SEQUENCER	TOGGLE	TRUE	Run as Sequence
PSTATMODEL	IQUANT	5	Pstat Model
PSTATSECTION	LABEL	REF3000-16137	Pstat Section
PSTATSERIALNO	LABEL	16137	Pstat Serial Number
CTRLMODE	IQUANT	1	Control Mode
IESTAB	IQUANT	0	I/E Stability
CASPEED	IQUANT	1	Control Amp Speed
CONVENTION	IQUANT	1	Current Convention
ICHRANGE	IQUANT	2	Ich Range
ICHRANGEMODE	TOGGLE	F	Ich Auto Range
ICHOFFSETENABLE	TOGGLE	T	Ich Offset Enable
ICHOFFSET	QUANT	0	Ich Offset (V)
ICHFILTER	IQUANT	3	Ich Filter
VCHRANGE	IQUANT	2	Vch Range
VCHRANGEMODE	TOGGLE	F	Vch Auto Range
VCHOFFSETENABLE	TOGGLE	T	Vch Offset Enable
VCHOFFSET	QUANT	0	Vch Offset (V)
VCHFILTER	IQUANT	3	Vch Filter
ACHRANGE	IQUANT	2	Ach Range
ACHOFFSETENABLE	TOGGLE	F	Ach Offset Enable
ACHOFFSET	QUANT	0	Ach Offset (V)
ACHFILTER	IQUANT	3	Ach Filter
IERANGELOWERLIMIT	IQUANT	2	I/E Range Lower Limit
IERANGEMODE	TOGGLE	F	I/E AutoRange
IERANGE	IQUANT	11	I/E Range
POSFEEDENABLE	TOGGLE	F	Positive Feedback IR Comp
POSFEEDRESISTANCE	QUANT	0	Positive Feedback Resistance (ohm)
ACHSELECT	IQUANT	0	Ach Select
CABLEID	IQUANT	13	Cable ID
DCCALDATE	LABEL	9/10/2021	DC Calibration Date
ACCALDATE	LABEL	9/10/2021	AC Calibration Date
THERMOSELECT	IQUANT	1	Thermo Select
FRAMEWORKVERSION	QUANT	6.33	Framework Version
INSTRUMENTVERSION	LABEL	3.50	Instrument Version
COMPLIANCEVOLTAGE	IQUANT	0	Compliance Voltage
ZCURVE	TABLE
	Pt	Time	Freq	Zreal	Zimag	Zsig	Zmod	Zphz	Idc	Vdc	IERange
	#	s	Hz	ohm	ohm	V	ohm	°	A	V	#
	0	7	300046.9	92.76248	0.1189729	1	92.76256	0.0734849	-3.536443E-005	-0.0005871	9
	1	10	238359.4	93.23679	-0.0341952	1	93.23679	-0.0210136	4.639676E-005	-0.0010206	9
	2	13	189328.1	93.90083	-0.0411503	1	93.90084	-0.0251088	-1.337959E-005	0.0006181	9
	3	16	150421.9	94.40136	-0.2421363	1	94.40167	-0.1469614	-5.196705E-005	0.0008542	9
	4	18	119484.4	94.94404	-0.2947887	1	94.9445	-0.1778953	1.111736E-005	0.0006482	9
	5	21	94921.88	95.5425	-0.1663087	1	95.5427	-0.0997334	2.224616E-005	-0.0007164	9
	6	23	75421.88	96.1457	-0.2832909	1	96.1461	-0.1688202	1.949126E-005	-0.0004708	9
	7	26	59859.37	96.6365	-0.3409072	1	96.6371	-0.2021232	-1.637812E-005	0.0005809	9
	8	28	47578.12	97.2105	-0.4433684	1	97.2115	-0.261319	-1.94367E-005	0.0005568	9
	9	31	37828.12	97.6613	-0.4140882	1	97.6621	-0.2429352	1.258772E-005	-0.0001642	9
	10	33	30046.88	98.3464	-0.5192657	1	98.3478	-0.302517	-1.965618E-005	0.0004421	9
	11	36	23859.38	98.8979	-0.7056243	1	98.9004	-0.4087913	-1.506151E-005	-2.558736E-005	9
	12	38	18984.38	99.3982	-0.7246267	1	99.4009	-0.4176867	2.472848E-006	0.0001812	9
	13	40	15046.87	99.8739	-0.8841056	1	99.8778	-0.5071815	-1.634109E-005	0.0004848	9
	14	43	11953.13	100.453	-1.120359	1	100.4593	-0.6389971	-1.314987E-005	0.0005494	9
	15	45	9515.62	101.1036	-1.29696	1	101.1119	-0.7349516	-8.967786E-006	-0.0001658	9
	16	47	7546.875	101.6566	-1.573637	1	101.6688	-0.8868635	-4.01655E-006	-0.0004209	9
	17	50	5928.309	102.2366	-1.833193	1	102.253	-1.027254	-1.514768E-005	-1.37668E-005	9
	18	52	4733.456	102.783	-2.278523	1	102.8082	-1.269942	1.085412E-005	-6.46332E-005	9
	19	54	3796.875	103.4576	-2.840128	1	103.4966	-1.572494	1.085599E-005	-0.0008408	9
	20	57	2987.132	104.0787	-3.511298	1	104.1379	-1.932251	1.828563E-005	-0.000352	9
	21	59	2390.625	104.6664	-4.241023	1	104.7522	-2.320324	2.210102E-005	-0.0006701	9
	22	61	1884.191	105.3903	-5.443799	1	105.5308	-2.956912	-1.561287E-005	-9.532676E-006	9
	23	64	1516.544	106.018	-6.40066	1	106.211	-3.454944	2.321272E-005	-0.0006603	9
	24	66	1193.986	106.7891	-8.011117	1	107.0891	-4.290187	-5.564781E-006	0.0004419	9
	25	69	946.5144	107.5548	-9.94087	1	108.0132	-5.280624	1.71497E-005	-0.0008959	9
	26	71	751.7689	108.3815	-12.32222	1	109.0798	-6.486279	2.096874E-005	-0.0008623	9
	27	73	597.4265	109.3158	-15.19903	1	110.3674	-7.915536	-2.144248E-005	0.0004608	9
	28	75	477.4305	110.3425	-18.79732	1	111.9321	-9.66778	4.584986E-007	-0.0001292	9
	29	78	376.6741	111.4253	-23.40996	1	113.8579	-11.86502	4.792446E-007	-0.0001327	9
	30	80	298.2954	112.6371	-29.07362	1	116.3288	-14.47315	4.417487E-007	-0.0001261	9
	31	82	237.7717	114.0301	-35.89326	1	119.5458	-17.47244	3.774327E-007	-0.000125	9
	32	85	189.0121	115.6402	-44.43164	1	123.8823	-21.01794	4.663864E-007	-0.0001303	9
	33	87	150.2404	117.5126	-54.98288	1	129.7394	-25.07439	4.41423E-007	-0.0001278	9
	34	90	119.1737	119.7427	-68.16434	1	137.785	-29.65098	5.366948E-007	-0.0001304	9
	35	92	95.0169	122.3482	-84.07603	1	148.4515	-34.49633	4.581159E-007	-0.000128	9
	36	95	75.60484	125.517	-103.8671	1	162.9199	-39.60823	5.829603E-007	-0.0001375	9
	37	97	54.50582	130.9444	-140.4911	1	192.0526	-47.01433	4.57503E-007	-0.0001306	9
	38	100	45.95588	134.7601	-164.4871	1	212.6412	-50.6731	4.809378E-007	-0.000123	9
	39	102	37.20238	140.1468	-199.9103	1	244.1419	-54.96769	5.389403E-007	-0.0001235	9
	40	104	30.04808	146.8513	-243.4767	1	284.3346	-58.90401	4.479629E-007	-0.0001267	9
	41	107	23.91582	155.632	-300.5263	1	338.4337	-62.62195	4.419692E-007	-0.0001232	9
	42	109	18.60119	167.8486	-378.8044	1	414.3259	-66.10181	4.812061E-007	-0.0001276	9
	43	111	15.02404	180.4856	-459.2258	1	493.4201	-68.54411	8.366277E-008	-0.0001201	8
	44	114	12.01923	197.9634	-563.722	1	597.4713	-70.65015	8.068218E-008	-0.000123	8
	45	116	9.450605	222.6154	-702.7829	1	737.1984	-72.42374	1.612643E-007	-0.0001184	8
	46	119	7.512019	252.9418	-866.6486	1	902.8063	-73.72948	1.029708E-007	-0.0000952	8
	47	121	5.978954	292.8163	-1066.235	1	1105.712	-74.64365	8.715439E-008	-0.0001443	8
	48	124	4.734848	345.9778	-1317.565	1	1362.233	-75.28693	1.531067E-007	-0.000137	8
	49	128	3.75601	414.6841	-1620.859	1	1673.065	-75.64915	5.090839E-008	-0.0001277	8
	50	131	3.004808	501.5824	-1974.476	1	2037.189	-75.74648	1.166546E-007	-0.0001117	8
	51	135	2.372217	624.7321	-2430.92	1	2509.912	-75.58722	9.574062E-008	-4.072331E-005	8
	52	139	1.878005	775.8514	-2981.561	1	3080.852	-75.41416	5.747666E-008	-0.0001299	8
	53	144	1.512097	952.83	-3583.968	1	3708.465	-75.1118	9.294244E-008	-0.0001314	8
	54	149	1.201923	1203.491	-4374.352	1	4536.887	-74.61712	-1.350458E-008	-0.0001139	7
	55	155	0.956633	1507.722	-5293.098	1	5503.646	-74.10057	-1.722736E-008	-0.0006375	7
