EXPLAIN
TAG	EISPOT
TITLE	LABEL	Potentiostatic EIS	Test Identifier
DATE	LABEL	11/20/2021	Date
TIME	LABEL	13:52:53	Time
NOTES	NOTES	1	Notes...
	
PSTAT	PSTAT	REF3000-16137	Potentiostat
VDC	POTEN	0.00000E+000	T	DC Voltage (V)
FREQINIT	QUANT	3.00000E+005	Initial Freq. (Hz)
FREQFINAL	QUANT	1.00000E+000	Final Freq. (Hz)
PTSPERDEC	QUANT	1.00000E+001	Points/decade
VAC	QUANT	5.00000E+001	AC Voltage (mV rms)
AREA	QUANT	1.00000E+000	Sample Area (cm^2)
SPEED	SELECTOR	2	Optimize for:
ZGUESS	QUANT	1.00000E+003	Estimated Z (ohms)
EOC	QUANT	0	Open Circuit (V)
SEQUENCER	TOGGLE	TRUE	Run as Sequence
PSTATMODEL	IQUANT	5	Pstat Model
PSTATSECTION	LABEL	REF3000-16137	Pstat Section
PSTATSERIALNO	LABEL	16137	Pstat Serial Number
CTRLMODE	IQUANT	1	Control Mode
IESTAB	IQUANT	0	I/E Stability
CASPEED	IQUANT	1	Control Amp Speed
CONVENTION	IQUANT	1	Current Convention
ICHRANGE	IQUANT	2	Ich Range
ICHRANGEMODE	TOGGLE	F	Ich Auto Range
ICHOFFSETENABLE	TOGGLE	T	Ich Offset Enable
ICHOFFSET	QUANT	0	Ich Offset (V)
ICHFILTER	IQUANT	3	Ich Filter
VCHRANGE	IQUANT	2	Vch Range
VCHRANGEMODE	TOGGLE	F	Vch Auto Range
VCHOFFSETENABLE	TOGGLE	T	Vch Offset Enable
VCHOFFSET	QUANT	0	Vch Offset (V)
VCHFILTER	IQUANT	3	Vch Filter
ACHRANGE	IQUANT	2	Ach Range
ACHOFFSETENABLE	TOGGLE	F	Ach Offset Enable
ACHOFFSET	QUANT	0	Ach Offset (V)
ACHFILTER	IQUANT	3	Ach Filter
IERANGELOWERLIMIT	IQUANT	2	I/E Range Lower Limit
IERANGEMODE	TOGGLE	F	I/E AutoRange
IERANGE	IQUANT	11	I/E Range
POSFEEDENABLE	TOGGLE	F	Positive Feedback IR Comp
POSFEEDRESISTANCE	QUANT	0	Positive Feedback Resistance (ohm)
ACHSELECT	IQUANT	0	Ach Select
CABLEID	IQUANT	13	Cable ID
DCCALDATE	LABEL	9/10/2021	DC Calibration Date
ACCALDATE	LABEL	9/10/2021	AC Calibration Date
THERMOSELECT	IQUANT	1	Thermo Select
FRAMEWORKVERSION	QUANT	6.33	Framework Version
INSTRUMENTVERSION	LABEL	3.50	Instrument Version
COMPLIANCEVOLTAGE	IQUANT	0	Compliance Voltage
ZCURVE	TABLE
	Pt	Time	Freq	Zreal	Zimag	Zsig	Zmod	Zphz	Idc	Vdc	IERange
	#	s	Hz	ohm	ohm	V	ohm	°	A	V	#
	0	8	300046.9	21.20462	2.011753	1	21.29983	5.41962	-9.201235E-005	-0.0011105	10
	1	11	238359.4	21.27678	1.561497	1	21.334	4.197396	-8.712981E-005	-0.0004832	10
	2	15	189328.1	21.3364	1.224057	1	21.37149	3.283426	-8.541415E-005	-0.000341	10
	3	17	150421.9	21.38828	0.955082	1	21.4096	2.556812	-1.063297E-005	-0.0002387	10
	4	20	119484.4	21.47356	0.7240723	1	21.48577	1.931239	-3.03521E-005	-0.0002029	10
	5	22	94921.88	21.54124	0.5090395	1	21.54726	1.3537	1.57767E-005	-0.0001791	10
	6	25	75421.88	21.62361	0.3488215	1	21.62642	0.9241872	1.484478E-005	-0.0002015	10
	7	27	59859.37	21.7076	0.2100006	1	21.70862	0.5542654	1.618019E-005	-0.0001665	10
	8	30	47578.12	21.79402	0.0875498	1	21.7942	0.2301643	2.649263E-005	-0.0001673	10
	9	32	37828.12	21.88226	-0.030837	1	21.88228	-0.0807426	2.451544E-005	-0.0001129	10
	10	35	30046.88	21.96768	-0.1507785	1	21.9682	-0.3932521	2.305226E-005	-0.0001433	10
	11	37	23859.38	22.05861	-0.271377	1	22.06028	-0.7048482	-4.589636E-006	-0.0001603	10
	12	40	18984.38	22.14757	-0.4029696	1	22.15123	-1.042368	-2.239054E-005	-0.0000952	10
	13	42	15046.87	22.23071	-0.5538613	1	22.2376	-1.427186	-2.441927E-005	-0.0001379	10
	14	44	11953.13	22.32765	-0.725499	1	22.33944	-1.861074	7.30394E-006	-0.0001609	10
	15	47	9515.62	22.43257	-0.9315779	1	22.4519	-2.378008	1.4983E-005	-0.000149	10
	16	49	7546.875	22.53664	-1.18119	1	22.56757	-3.000241	2.4865E-005	-0.0001546	10
	17	51	5928.309	22.65339	-1.498882	1	22.70293	-3.785508	2.233709E-005	-0.0001327	10
	18	54	4733.456	22.76747	-1.857156	1	22.84308	-4.663326	-2.064926E-005	-0.0001002	10
	19	56	3796.875	22.89855	-2.297158	1	23.01348	-5.728686	2.570166E-005	-0.0001496	10
	20	58	2987.132	23.04041	-2.870805	1	23.21857	-7.102375	-1.301161E-005	-0.0001102	10
	21	61	2390.625	23.19567	-3.546416	1	23.46521	-8.692709	-7.454144E-007	-0.0001592	10
	22	63	1884.191	23.37773	-4.413783	1	23.79075	-10.69175	-1.602698E-005	-0.000169	10
	23	65	1516.544	23.56844	-5.420261	1	24.18369	-12.95165	8.212719E-006	-0.0001286	10
	24	68	1193.986	23.81028	-6.769019	1	24.75377	-15.86991	-1.952058E-005	-0.0001638	10
	25	70	946.5144	24.08285	-8.393671	1	25.50367	-19.21514	-2.255479E-005	-6.533601E-005	10
	26	72	751.7689	24.40524	-10.39785	1	26.52793	-23.07642	1.533635E-005	-0.0001607	10
	27	75	597.4265	24.77748	-12.89215	1	27.93083	-27.48875	-1.187308E-005	-0.000105	10
	28	77	477.4305	25.23701	-15.86684	1	29.81045	-32.15812	-8.902362E-007	-0.0001098	10
	29	79	376.6741	25.79736	-19.75799	1	32.49434	-37.44822	-3.48015E-007	-0.0001125	10
	30	82	298.2954	26.47475	-24.51896	1	36.08451	-42.80357	-8.594263E-007	-0.00011	10
	31	84	237.7717	27.25784	-30.20586	1	40.68641	-47.93683	5.475915E-007	-0.0001368	9
	32	87	189.0121	28.27739	-37.35231	1	46.84876	-52.87263	9.005601E-007	-0.0001694	9
	33	89	150.2404	29.5501	-46.18308	1	54.82777	-57.38698	5.265941E-007	-0.0001341	9
	34	91	119.1737	31.17025	-57.2163	1	65.15589	-61.41937	4.974644E-007	-0.000136	9
	35	94	95.0169	33.18407	-70.53335	1	77.94957	-64.80426	6.153748E-007	-0.0001384	9
	36	96	75.60484	35.78447	-87.09379	1	94.15868	-67.66357	5.587546E-007	-0.0001332	9
	37	99	54.50582	40.83791	-117.6782	1	124.5628	-70.86168	8.989688E-007	-0.0001775	9
	38	101	45.95588	44.37873	-137.6471	1	144.6243	-72.13019	6.681884E-007	-0.0001352	9
	39	104	37.20238	49.83588	-166.9609	1	174.24	-73.38025	5.112077E-007	-0.0001317	9
	40	106	30.04808	56.97112	-202.7619	1	210.6136	-74.30594	7.399011E-007	-0.0001442	9
	41	108	23.91582	66.89393	-249.1983	1	258.0206	-74.97395	6.959975E-007	-0.0001339	9
	42	111	18.60119	81.33414	-312.0193	1	322.4458	-75.38982	7.291176E-007	-0.000168	9
	43	113	15.02404	97.5215	-376.919	1	389.3307	-75.49378	4.49804E-007	-0.000127	9
	44	115	12.01923	118.8596	-456.3858	1	471.6096	-75.40235	5.921231E-007	-0.000116	8
	45	118	9.450605	149.2197	-561.4464	1	580.9377	-75.11617	3.531155E-007	-0.0001104	8
	46	120	7.512019	186.6308	-682.1324	1	707.2028	-74.6984	3.796228E-007	-0.0001153	8
	47	123	5.978954	232.9339	-824.9337	1	857.1895	-74.23208	4.161892E-007	-0.0001198	8
	48	126	4.734848	292.08	-999.952	1	1041.736	-73.71722	5.465089E-007	-0.000097	8
	49	129	3.75601	365.0914	-1205.768	1	1259.828	-73.15434	4.550149E-007	-0.0001193	8
	50	133	3.004808	448.8274	-1440.085	1	1508.406	-72.68945	5.275777E-007	-0.0001541	8
	51	137	2.372217	554.201	-1736.305	1	1822.606	-72.29774	5.103053E-007	-0.0001968	8
	52	141	1.878005	681.513	-2088.244	1	2196.639	-71.92554	4.813357E-007	-0.0001062	8
	53	145	1.512097	819.0518	-2480.229	1	2611.969	-71.72511	4.923729E-007	-0.0002268	8
	54	151	1.201923	989.625	-2984.427	1	3144.227	-71.65467	4.829901E-007	-0.0000959	8
	55	157	0.956633	1195.288	-3592.74	1	3786.356	-71.59796	4.581439E-007	-0.0006642	8
