EXPLAIN
TAG	EISPOT
TITLE	LABEL	Potentiostatic EIS	Test Identifier
DATE	LABEL	11/20/2021	Date
TIME	LABEL	13:39:02	Time
NOTES	NOTES	1	Notes...
	
PSTAT	PSTAT	REF3000-16137	Potentiostat
VDC	POTEN	0.00000E+000	T	DC Voltage (V)
FREQINIT	QUANT	3.00000E+005	Initial Freq. (Hz)
FREQFINAL	QUANT	1.00000E+000	Final Freq. (Hz)
PTSPERDEC	QUANT	1.00000E+001	Points/decade
VAC	QUANT	5.00000E+001	AC Voltage (mV rms)
AREA	QUANT	1.00000E+000	Sample Area (cm^2)
SPEED	SELECTOR	2	Optimize for:
ZGUESS	QUANT	1.00000E+003	Estimated Z (ohms)
EOC	QUANT	0	Open Circuit (V)
SEQUENCER	TOGGLE	TRUE	Run as Sequence
PSTATMODEL	IQUANT	5	Pstat Model
PSTATSECTION	LABEL	REF3000-16137	Pstat Section
PSTATSERIALNO	LABEL	16137	Pstat Serial Number
CTRLMODE	IQUANT	1	Control Mode
IESTAB	IQUANT	0	I/E Stability
CASPEED	IQUANT	1	Control Amp Speed
CONVENTION	IQUANT	1	Current Convention
ICHRANGE	IQUANT	2	Ich Range
ICHRANGEMODE	TOGGLE	F	Ich Auto Range
ICHOFFSETENABLE	TOGGLE	T	Ich Offset Enable
ICHOFFSET	QUANT	0	Ich Offset (V)
ICHFILTER	IQUANT	3	Ich Filter
VCHRANGE	IQUANT	2	Vch Range
VCHRANGEMODE	TOGGLE	F	Vch Auto Range
VCHOFFSETENABLE	TOGGLE	T	Vch Offset Enable
VCHOFFSET	QUANT	0	Vch Offset (V)
VCHFILTER	IQUANT	3	Vch Filter
ACHRANGE	IQUANT	2	Ach Range
ACHOFFSETENABLE	TOGGLE	F	Ach Offset Enable
ACHOFFSET	QUANT	0	Ach Offset (V)
ACHFILTER	IQUANT	3	Ach Filter
IERANGELOWERLIMIT	IQUANT	2	I/E Range Lower Limit
IERANGEMODE	TOGGLE	F	I/E AutoRange
IERANGE	IQUANT	11	I/E Range
POSFEEDENABLE	TOGGLE	F	Positive Feedback IR Comp
POSFEEDRESISTANCE	QUANT	0	Positive Feedback Resistance (ohm)
ACHSELECT	IQUANT	0	Ach Select
CABLEID	IQUANT	13	Cable ID
DCCALDATE	LABEL	9/10/2021	DC Calibration Date
ACCALDATE	LABEL	9/10/2021	AC Calibration Date
THERMOSELECT	IQUANT	1	Thermo Select
FRAMEWORKVERSION	QUANT	6.33	Framework Version
INSTRUMENTVERSION	LABEL	3.50	Instrument Version
COMPLIANCEVOLTAGE	IQUANT	0	Compliance Voltage
ZCURVE	TABLE
	Pt	Time	Freq	Zreal	Zimag	Zsig	Zmod	Zphz	Idc	Vdc	IERange
	#	s	Hz	ohm	ohm	V	ohm	°	A	V	#
	0	8	300046.9	8.165386	2.24744	1	8.469033	15.38903	3.025859E-005	-0.0007331	10
	1	11	238359.4	8.156811	1.784167	1	8.34966	12.33818	2.244265E-005	-0.0007328	10
	2	14	189328.1	8.147433	1.403826	1	8.26749	9.77624	-8.327587E-005	-0.0005441	10
	3	17	150421.9	8.152291	1.104002	1	8.226705	7.712209	1.335218E-005	-0.0002547	10
	4	19	119484.4	8.154655	0.8379963	1	8.197599	5.867287	-2.560618E-005	-0.0002975	10
	5	22	94921.88	8.172182	0.6386933	1	8.197103	4.468843	-1.149559E-005	-0.0002432	10
	6	24	75421.88	8.183932	0.4549137	1	8.196566	3.18158	1.508706E-005	-0.0002341	10
	7	27	59859.37	8.204699	0.2943675	1	8.209977	2.054772	2.397343E-005	-0.000195	10
	8	29	47578.12	8.231514	0.1567739	1	8.233006	1.091099	-1.266892E-005	-0.0001848	10
	9	32	37828.12	8.258526	0.0309854	1	8.258584	0.2149689	-8.330622E-006	-0.0001456	10
	10	34	30046.88	8.287463	-0.0891033	1	8.287942	-0.6159962	2.094472E-005	-0.0001585	10
	11	37	23859.38	8.31896	-0.2088707	1	8.321582	-1.438268	7.351722E-006	-0.0001536	10
	12	39	18984.38	8.351844	-0.333689	1	8.358507	-2.287975	-1.274822E-005	-0.0001223	10
	13	42	15046.87	8.386374	-0.4743627	1	8.399778	-3.237401	1.44855E-005	-0.0001642	10
	14	44	11953.13	8.423938	-0.631747	1	8.447594	-4.288826	1.348949E-005	-0.0001552	10
	15	46	9515.62	8.465868	-0.8135723	1	8.50487	-5.489284	2.250828E-005	-0.0001381	10
	16	49	7546.875	8.512385	-1.034399	1	8.575004	-6.928437	-2.846725E-005	-0.0001412	10
	17	51	5928.309	8.56563	-1.313912	1	8.665817	-8.720825	6.491614E-006	-0.0001405	10
	18	53	4733.456	8.622784	-1.630813	1	8.775645	-10.70976	-2.563939E-005	-0.0001179	10
	19	55	3796.875	8.687337	-2.009637	1	8.916752	-13.02509	-1.346456E-005	-0.0001547	10
	20	58	2987.132	8.763664	-2.5207	1	9.118977	-16.04687	2.137322E-005	-0.0001391	10
	21	60	2390.625	8.852104	-3.102259	1	9.379966	-19.31324	1.885622E-005	-0.0001405	10
	22	62	1884.191	8.96064	-3.876537	1	9.76323	-23.3942	2.3077E-005	-0.0001299	10
	23	65	1516.544	9.085146	-4.743215	1	10.2488	-27.56837	-1.605654E-005	-0.0001309	10
	24	67	1193.986	9.244687	-5.925757	1	10.98084	-32.65949	1.622571E-005	-0.000131	10
	25	69	946.5144	9.443384	-7.342913	1	11.96227	-37.86765	-1.361222E-005	-0.0001589	10
	26	72	751.7689	9.67572	-9.097715	1	13.28111	-43.23652	-1.613843E-005	-0.0001715	10
	27	74	597.4265	9.96773	-11.26159	1	15.03925	-48.4877	-2.069839E-005	-0.0001139	10
	28	76	477.4305	10.33753	-13.86446	1	17.29416	-53.29131	-4.106145E-007	-0.0001098	10
	29	79	376.6741	10.82012	-17.26235	1	20.37311	-57.92033	-1.180529E-006	-0.0001122	10
	30	81	298.2954	11.4291	-21.41941	1	24.27788	-61.91624	-2.370313E-007	-0.0001062	10
	31	83	237.7717	12.196	-26.41636	1	29.09582	-65.218	-1.213075E-006	-0.0001116	10
	32	86	189.0121	13.20046	-32.64382	1	35.2118	-67.98264	-8.056677E-007	-0.0001108	10
	33	88	150.2404	14.49435	-40.26437	1	42.79376	-70.20217	5.37085E-007	-0.0001297	9
	34	91	119.1737	16.23559	-49.78036	1	52.36104	-71.93655	5.439481E-007	-0.0001307	9
	35	93	95.0169	18.48121	-61.17822	1	63.90876	-73.19106	5.49098E-007	-0.0001303	9
	36	96	75.60484	21.47046	-75.21606	1	78.22044	-74.06858	4.868164E-007	-0.0001321	9
	37	98	54.50582	27.46449	-100.7379	1	104.4146	-74.7499	8.214434E-007	-0.0001748	9
	38	101	45.95588	31.64306	-117.1118	1	121.3114	-74.87999	5.115577E-007	-0.0001253	9
	39	103	37.20238	38.08509	-140.7917	1	145.8519	-74.86337	3.967651E-007	-0.0001292	9
	40	105	30.04808	46.39297	-169.2414	1	175.4849	-74.67047	3.940314E-007	-0.0001288	9
	41	108	23.91582	57.50387	-205.1895	1	213.0948	-74.3446	4.592983E-007	-0.000132	9
	42	110	18.60119	73.24268	-252.9698	1	263.3595	-73.85262	3.703989E-007	-0.0001252	9
	43	112	15.02404	89.94778	-301.3945	1	314.5302	-73.38287	4.902438E-007	-0.0001371	9
	44	115	12.01923	111.1792	-360.808	1	377.549	-72.87387	3.685083E-007	-0.0001324	9
	45	117	9.450605	138.1826	-435.0554	1	456.473	-72.37907	5.038327E-007	-0.0001065	8
	46	120	7.512019	169.7519	-521.5954	1	548.523	-71.97265	5.093199E-007	-0.0001022	8
	47	122	5.978954	207.1676	-624.0753	1	657.5625	-71.63593	4.837428E-007	-0.0001161	8
	48	125	4.734848	252.9773	-750.9844	1	792.4488	-71.38334	5.718962E-007	-0.0001102	8
	49	129	3.75601	307.509	-902.9284	1	953.856	-71.19277	4.690383E-007	-0.0001231	8
	50	132	3.004808	372.6837	-1079.015	1	1141.563	-70.94547	5.879448E-007	-0.0001298	8
	51	136	2.372217	461.7626	-1303.662	1	1383.025	-70.49564	5.360256E-007	-7.760614E-005	8
	52	140	1.878005	574.9892	-1576.41	1	1677.999	-69.96075	4.507588E-007	-0.0001264	8
	53	145	1.512097	707.7836	-1872.166	1	2001.49	-69.2906	5.229996E-007	-0.000183	8
	54	150	1.201923	899.6932	-2243.766	1	2417.423	-68.15047	4.749599E-007	-0.0001247	8
	55	156	0.956633	1143.164	-2668.664	1	2903.204	-66.81137	4.505108E-007	-0.0006646	8
