EXPLAIN
TAG	EISPOT
TITLE	LABEL	Potentiostatic EIS	Test Identifier
DATE	LABEL	11/20/2021	Date
TIME	LABEL	13:08:17	Time
NOTES	NOTES	1	Notes...
	
PSTAT	PSTAT	REF3000-16137	Potentiostat
VDC	POTEN	0.00000E+000	T	DC Voltage (V)
FREQINIT	QUANT	3.00000E+005	Initial Freq. (Hz)
FREQFINAL	QUANT	1.00000E+000	Final Freq. (Hz)
PTSPERDEC	QUANT	1.00000E+001	Points/decade
VAC	QUANT	5.00000E+001	AC Voltage (mV rms)
AREA	QUANT	1.00000E+000	Sample Area (cm^2)
SPEED	SELECTOR	2	Optimize for:
ZGUESS	QUANT	1.00000E+003	Estimated Z (ohms)
EOC	QUANT	0	Open Circuit (V)
SEQUENCER	TOGGLE	TRUE	Run as Sequence
PSTATMODEL	IQUANT	5	Pstat Model
PSTATSECTION	LABEL	REF3000-16137	Pstat Section
PSTATSERIALNO	LABEL	16137	Pstat Serial Number
CTRLMODE	IQUANT	1	Control Mode
IESTAB	IQUANT	0	I/E Stability
CASPEED	IQUANT	1	Control Amp Speed
CONVENTION	IQUANT	1	Current Convention
ICHRANGE	IQUANT	2	Ich Range
ICHRANGEMODE	TOGGLE	F	Ich Auto Range
ICHOFFSETENABLE	TOGGLE	T	Ich Offset Enable
ICHOFFSET	QUANT	0	Ich Offset (V)
ICHFILTER	IQUANT	3	Ich Filter
VCHRANGE	IQUANT	2	Vch Range
VCHRANGEMODE	TOGGLE	F	Vch Auto Range
VCHOFFSETENABLE	TOGGLE	T	Vch Offset Enable
VCHOFFSET	QUANT	0	Vch Offset (V)
VCHFILTER	IQUANT	3	Vch Filter
ACHRANGE	IQUANT	2	Ach Range
ACHOFFSETENABLE	TOGGLE	F	Ach Offset Enable
ACHOFFSET	QUANT	0	Ach Offset (V)
ACHFILTER	IQUANT	3	Ach Filter
IERANGELOWERLIMIT	IQUANT	2	I/E Range Lower Limit
IERANGEMODE	TOGGLE	F	I/E AutoRange
IERANGE	IQUANT	11	I/E Range
POSFEEDENABLE	TOGGLE	F	Positive Feedback IR Comp
POSFEEDRESISTANCE	QUANT	0	Positive Feedback Resistance (ohm)
ACHSELECT	IQUANT	0	Ach Select
CABLEID	IQUANT	13	Cable ID
DCCALDATE	LABEL	9/10/2021	DC Calibration Date
ACCALDATE	LABEL	9/10/2021	AC Calibration Date
THERMOSELECT	IQUANT	1	Thermo Select
FRAMEWORKVERSION	QUANT	6.33	Framework Version
INSTRUMENTVERSION	LABEL	3.50	Instrument Version
COMPLIANCEVOLTAGE	IQUANT	0	Compliance Voltage
ZCURVE	TABLE
	Pt	Time	Freq	Zreal	Zimag	Zsig	Zmod	Zphz	Idc	Vdc	IERange
	#	s	Hz	ohm	ohm	V	ohm	°	A	V	#
	0	10	300046.9	2.92755	2.307315	1	3.727499	38.24301	-5.802415E-005	-0.000888	10
	1	13	238359.4	2.875644	1.795525	1	3.390167	31.98026	2.343603E-005	-0.0013107	10
	2	16	189328.1	2.936194	1.179184	1	3.164129	21.88053	5.265299E-005	-0.0007204	12
	3	20	150421.9	2.855788	1.059708	1	3.046064	20.35856	-6.751106E-005	2.24268E-005	11
	4	22	119484.4	2.854886	0.7876366	1	2.961545	15.42369	-2.4741E-005	0.0001923	11
	5	25	94921.88	2.865543	0.5654043	1	2.920791	11.16173	-1.684086E-005	0.0002761	11
	6	27	75421.88	2.882326	0.3838141	1	2.907768	7.584956	-2.696549E-005	0.0002919	11
	7	30	59859.37	2.905238	0.2320255	1	2.914488	4.56621	-6.971037E-005	0.0002846	11
	8	32	47578.12	2.929558	0.1018667	1	2.931328	1.991488	-1.600182E-005	0.0003623	11
	9	35	37828.12	2.958366	-0.0111663	1	2.958387	-0.2162605	-3.441519E-005	0.0003616	11
	10	37	30046.88	2.987031	-0.1146123	1	2.989228	-2.197359	-8.654349E-005	0.0002888	11
	11	40	23859.38	3.015969	-0.2137748	1	3.023535	-4.0544	-8.781831E-005	0.0002881	11
	12	42	18984.38	3.043746	-0.3133882	1	3.059836	-5.878537	-1.077937E-005	0.0004027	11
	13	45	15046.87	3.07247	-0.4227432	1	3.101417	-7.834175	-6.200866E-006	0.0004002	11
	14	47	11953.13	3.100103	-0.5446814	1	3.147589	-9.96504	-6.191277E-005	0.0003532	11
	15	49	9515.62	3.127894	-0.6862675	1	3.202294	-12.37475	-6.462503E-005	0.0003504	11
	16	51	7546.875	3.156936	-0.8594969	1	3.271847	-15.23002	-5.41767E-005	0.0003668	11
	17	54	5928.309	3.191251	-1.078889	1	3.368692	-18.67922	-7.603131E-005	0.0003307	11
	18	56	4733.456	3.228008	-1.330869	1	3.491597	-22.40576	-6.494546E-005	0.0003366	11
	19	58	3796.875	3.26983	-1.632772	1	3.654824	-26.535	-8.617032E-005	0.0003011	11
	20	61	2987.132	3.329504	-2.040659	1	3.90511	-31.50421	1.619282E-005	-0.0001225	10
	21	63	2390.625	3.394433	-2.506078	1	4.219313	-36.4381	1.345166E-005	-0.0001278	10
	22	65	1884.191	3.4797	-3.124929	1	4.67691	-41.92529	2.300174E-005	-0.0001061	10
	23	68	1516.544	3.579781	-3.819058	1	5.234505	-46.85229	-8.746298E-006	-0.0001277	10
	24	70	1193.986	3.719038	-4.763315	1	6.043212	-52.01847	-3.006597E-006	-0.0001221	10
	25	72	946.5144	3.901919	-5.896402	1	7.070539	-56.50557	1.893124E-005	-0.0001451	10
	26	75	751.7689	4.133585	-7.291607	1	8.38177	-60.45126	2.522628E-005	-0.000109	10
	27	77	597.4265	4.442257	-9.002584	1	10.03893	-63.73631	8.179744E-006	-0.0001289	10
	28	79	477.4305	4.842488	-11.04596	1	12.0608	-66.32762	1.373963E-006	-0.0001132	10
	29	82	376.6741	5.400259	-13.68167	1	14.70887	-68.46047	5.051039E-007	-0.0001109	10
	30	84	298.2954	6.130519	-16.85816	1	17.93825	-70.01605	9.981117E-007	-0.0001093	10
	31	86	237.7717	7.065432	-20.60303	1	21.78085	-71.07153	4.021117E-007	-0.0001182	10
	32	89	189.0121	8.299171	-25.17472	1	26.50741	-71.75452	6.877876E-007	-0.0001158	10
	33	91	150.2404	9.89707	-30.67706	1	32.23405	-72.11921	1.149276E-007	-0.0001143	10
	34	94	119.1737	11.96441	-37.32652	1	39.19714	-72.22759	-2.642003E-007	-0.0001138	10
	35	96	95.0169	14.50237	-45.02063	1	47.2988	-72.14484	8.939384E-007	-0.0001249	9
	36	98	75.60484	17.71991	-54.29513	1	57.11354	-71.92524	7.679721E-007	-0.0001297	9
	37	101	54.50582	23.68112	-70.63847	1	74.50227	-71.46658	8.452809E-007	-0.0001355	9
	38	103	45.95588	27.52388	-80.88354	1	85.43835	-71.20706	8.129587E-007	-0.0001246	9
	39	106	37.20238	33.08626	-95.5038	1	101.0726	-70.89191	1.26926E-006	-0.0001663	9
	40	108	30.04808	39.75611	-112.897	1	119.6924	-70.60053	9.226338E-007	-0.000132	9
	41	111	23.91582	48.26641	-134.9813	1	143.3513	-70.32404	9.844128E-007	-0.0001301	9
	42	113	18.60119	59.99504	-164.6238	1	175.2153	-69.97637	7.62945E-007	-0.0001279	9
	43	115	15.02404	72.43847	-194.9151	1	207.9405	-69.61286	4.986454E-007	-0.0001316	9
	44	118	12.01923	88.9863	-232.3666	1	248.8228	-69.04533	9.738656E-007	-0.0001263	9
	45	120	9.450605	112.3693	-280.5689	1	302.2346	-68.17364	1.009798E-006	-0.0001287	9
	46	122	7.512019	141.5945	-334.6666	1	363.3878	-67.0672	5.834264E-007	-0.0001107	9
	47	125	5.978954	178.8715	-394.4293	1	433.0929	-65.60597	4.520438E-007	-0.0001123	8
	48	128	4.734848	229.6183	-465.1157	1	518.7072	-63.72537	5.759406E-007	-0.0001403	8
	49	131	3.75601	293.711	-541.9936	1	616.4602	-61.54636	9.554913E-007	-0.000132	8
	50	135	3.004808	370.4084	-620.6763	1	722.8011	-59.17201	9.726209E-007	-0.0001512	8
	51	139	2.372217	470.3872	-705.2561	1	847.7324	-56.29776	8.2806E-007	-0.0001678	8
	52	143	1.878005	588.04	-789.3871	1	984.339	-53.31638	1.01966E-006	-0.0001234	8
	53	147	1.512097	710.5936	-862.5911	1	1117.59	-50.51866	9.049753E-007	-6.8762E-005	8
	54	153	1.201923	857.6859	-932.5527	1	1266.996	-47.39468	9.657E-007	-0.0001093	8
	55	159	0.956633	1014.112	-994.754	1	1420.549	-44.4479	3.312271E-007	-0.0006651	8
