EXPLAIN
TAG	EISPOT
TITLE	LABEL	Potentiostatic EIS	Test Identifier
DATE	LABEL	11/20/2021	Date
TIME	LABEL	14:25:47	Time
NOTES	NOTES	1	Notes...
	
PSTAT	PSTAT	REF3000-16137	Potentiostat
VDC	POTEN	0.00000E+000	T	DC Voltage (V)
FREQINIT	QUANT	3.00000E+005	Initial Freq. (Hz)
FREQFINAL	QUANT	1.00000E+000	Final Freq. (Hz)
PTSPERDEC	QUANT	1.00000E+001	Points/decade
VAC	QUANT	5.00000E+001	AC Voltage (mV rms)
AREA	QUANT	1.00000E+000	Sample Area (cm^2)
SPEED	SELECTOR	2	Optimize for:
ZGUESS	QUANT	1.00000E+003	Estimated Z (ohms)
EOC	QUANT	0	Open Circuit (V)
SEQUENCER	TOGGLE	TRUE	Run as Sequence
PSTATMODEL	IQUANT	5	Pstat Model
PSTATSECTION	LABEL	REF3000-16137	Pstat Section
PSTATSERIALNO	LABEL	16137	Pstat Serial Number
CTRLMODE	IQUANT	1	Control Mode
IESTAB	IQUANT	0	I/E Stability
CASPEED	IQUANT	1	Control Amp Speed
CONVENTION	IQUANT	1	Current Convention
ICHRANGE	IQUANT	2	Ich Range
ICHRANGEMODE	TOGGLE	F	Ich Auto Range
ICHOFFSETENABLE	TOGGLE	T	Ich Offset Enable
ICHOFFSET	QUANT	0	Ich Offset (V)
ICHFILTER	IQUANT	3	Ich Filter
VCHRANGE	IQUANT	2	Vch Range
VCHRANGEMODE	TOGGLE	F	Vch Auto Range
VCHOFFSETENABLE	TOGGLE	T	Vch Offset Enable
VCHOFFSET	QUANT	0	Vch Offset (V)
VCHFILTER	IQUANT	3	Vch Filter
ACHRANGE	IQUANT	2	Ach Range
ACHOFFSETENABLE	TOGGLE	F	Ach Offset Enable
ACHOFFSET	QUANT	0	Ach Offset (V)
ACHFILTER	IQUANT	3	Ach Filter
IERANGELOWERLIMIT	IQUANT	2	I/E Range Lower Limit
IERANGEMODE	TOGGLE	F	I/E AutoRange
IERANGE	IQUANT	11	I/E Range
POSFEEDENABLE	TOGGLE	F	Positive Feedback IR Comp
POSFEEDRESISTANCE	QUANT	0	Positive Feedback Resistance (ohm)
ACHSELECT	IQUANT	0	Ach Select
CABLEID	IQUANT	13	Cable ID
DCCALDATE	LABEL	9/10/2021	DC Calibration Date
ACCALDATE	LABEL	9/10/2021	AC Calibration Date
THERMOSELECT	IQUANT	1	Thermo Select
FRAMEWORKVERSION	QUANT	6.33	Framework Version
INSTRUMENTVERSION	LABEL	3.50	Instrument Version
COMPLIANCEVOLTAGE	IQUANT	0	Compliance Voltage
ZCURVE	TABLE
	Pt	Time	Freq	Zreal	Zimag	Zsig	Zmod	Zphz	Idc	Vdc	IERange
	#	s	Hz	ohm	ohm	V	ohm	°	A	V	#
	0	24	300046.9	1669.111	-1238.772	1	2078.578	-36.58188	2.35765E-005	-0.0023068	9
	1	45	238359.4	1949.46	-1272.452	1	2327.988	-33.1333	-9.369342E-005	0.0018658	9
	2	64	189328.1	2204.93	-1306.126	1	2562.749	-30.64106	2.121571E-005	-0.0012012	9
	3	77	150421.9	2515.42	-1382.471	1	2870.29	-28.79313	1.938832E-005	-0.0012168	9
	4	88	119484.4	2867.257	-1087.352	1	3066.512	-20.76826	3.426916E-005	-0.0175973	8
	5	96	94921.88	3073.773	-979.925	1	3226.195	-17.68239	2.405877E-005	-0.0061165	8
	6	103	75421.88	3257.546	-971.019	1	3399.189	-16.59842	2.307763E-005	-0.001168	9
	7	110	59859.37	3465.681	-798.2754	1	3556.429	-12.97111	-1.598482E-005	0.0093118	8
	8	118	47578.12	3644.819	-784.2725	1	3728.242	-12.14344	-2.704515E-005	0.0007409	9
	9	125	37828.12	3812.877	-615.5864	1	3862.25	-9.171225	-2.452859E-005	0.0069207	8
	10	132	30046.88	3963.265	-554.9576	1	4001.93	-7.971036	1.920813E-005	-0.009627	8
	11	140	23859.38	4113.861	-464.9163	1	4140.048	-6.447762	-1.662702E-005	0.0007001	8
	12	145	18984.38	4235.771	-399.119	1	4254.533	-5.38285	-1.102235E-005	-0.0019453	8
	13	151	15046.87	4351.987	-330.8095	1	4364.542	-4.34689	1.300103E-005	-0.0090557	8
	14	156	11953.13	4458.876	-274.2785	1	4467.304	-3.519996	-1.628341E-005	0.0095027	8
	15	161	9515.62	4578.611	-243.1596	1	4585.063	-3.039993	2.334696E-005	-0.0093423	8
	16	167	7546.875	4689.364	-212.0028	1	4694.154	-2.588539	1.927052E-005	-0.0097126	8
	17	172	5928.309	4808.729	-201.8126	1	4812.961	-2.403177	1.77717E-005	-0.001302	8
	18	177	4733.456	4922.17	-164.416	1	4924.916	-1.913148	-1.111507E-005	-0.0018993	8
	19	184	3796.875	5046.947	-137.7536	1	5048.826	-1.563468	-1.677527E-005	0.0006811	8
	20	189	2987.132	5182.637	-138.3361	1	5184.483	-1.528988	-1.645654E-005	0.0095604	8
	21	195	2390.625	5274.129	-85.24552	1	5274.818	-0.9259886	-3.381911E-006	-0.0048589	8
	22	200	1884.191	5376.04	-62.82975	1	5376.407	-0.669585	-5.606048E-006	0.0209024	7
	23	204	1516.544	5494.103	-41.41646	1	5494.259	-0.4319074	2.09939E-006	0.0072473	7
	24	208	1193.986	5577.963	-30.28054	1	5578.045	-0.311033	3.950629E-006	-0.000487	7
	25	213	946.5144	5646.025	-63.0701	1	5646.377	-0.6400077	-1.729977E-006	0.018348	7
	26	215	751.7689	5753.693	-50.86885	1	5753.918	-0.5065432	-2.634494E-006	-0.005957	7
	27	218	597.4265	5788.746	-100.0391	1	5789.61	-0.990067	3.149203E-006	-0.0219666	7
	28	220	477.4305	5846.654	-46.52072	1	5846.839	-0.455882	-1.102652E-007	-8.674291E-005	7
	29	223	376.6741	5904.875	-50.05776	1	5905.087	-0.4857054	-9.458406E-008	-0.0001474	7
	30	225	298.2954	5962.291	-56.26764	1	5962.556	-0.5406987	-9.313866E-008	-7.073599E-005	7
	31	227	237.7717	6024.695	-64.93042	1	6025.045	-0.6174744	-1.071782E-007	-8.231598E-005	7
	32	230	189.0121	6086.694	-76.7415	1	6087.178	-0.7223513	-1.137696E-007	-0.000112	7
	33	232	150.2404	6152.357	-91.24499	1	6153.034	-0.8496857	-1.068028E-007	-0.0000972	7
	34	235	119.1737	6216.445	-110.3667	1	6217.425	-1.017122	-8.176148E-008	-8.061694E-005	7
	35	237	95.0169	6284.655	-134.0292	1	6286.084	-1.221728	-8.784043E-008	-0.0001478	7
	36	239	75.60484	6356.778	-163.0923	1	6358.87	-1.469683	-1.03867E-007	-0.0001483	7
	37	242	54.50582	6431.231	-217.6282	1	6434.912	-1.938108	-9.260275E-008	-8.482547E-005	7
	38	245	45.95588	6505.549	-253.1987	1	6510.475	-2.22885	-1.629833E-007	-0.0001109	7
	39	247	37.20238	6571.449	-305.7453	1	6578.558	-2.66384	-1.311695E-007	-7.428887E-005	7
	40	249	30.04808	6652.926	-371.2729	1	6663.278	-3.194132	-1.425034E-007	-0.0001313	7
	41	252	23.91582	6727.322	-460.3397	1	6743.054	-3.914554	-1.422731E-007	-6.470682E-005	7
	42	254	18.60119	6802.431	-583.4205	1	6827.404	-4.902061	-1.931602E-007	-6.551935E-005	7
	43	256	15.02404	6904.809	-700.6387	1	6940.265	-5.794035	6.140659E-008	-0.0001348	7
	44	259	12.01923	6995.092	-849.0774	1	7046.435	-6.920812	-2.237524E-007	-0.0001492	7
	45	261	9.450605	7082.729	-1063.334	1	7162.104	-8.538085	-1.577536E-007	-0.0001029	7
	46	264	7.512019	7188.192	-1333.406	1	7310.819	-10.50888	-6.437153E-008	-0.0001258	7
	47	266	5.978954	7314.722	-1638.159	1	7495.914	-12.62331	-9.534514E-008	-0.0001399	7
	48	269	4.734848	7468.05	-2045.94	1	7743.232	-15.32079	-5.861866E-008	-6.347514E-005	7
	49	273	3.75601	7629.563	-2535.649	1	8039.884	-18.38398	-1.400153E-007	-0.0001333	7
	50	276	3.004808	7827.759	-3099.273	1	8418.985	-21.60028	-9.950752E-008	-0.0001635	7
	51	280	2.372217	8054.08	-3855.066	1	8929.151	-25.578	-1.087325E-007	-6.33258E-005	7
	52	284	1.878005	8333.26	-4786.505	1	9610.09	-29.87244	-1.127979E-007	-0.0001138	7
	53	289	1.512097	8644.38	-5841.933	1	10433.29	-34.05111	-1.018475E-007	-0.0001581	7
	54	294	1.201923	9042.073	-7227.293	1	11575.53	-38.6352	-1.01348E-007	-0.0001577	7
	55	300	0.956633	9503.47	-8919.418	1	13033.5	-43.18418	-1.011871E-007	-0.0006567	7
