EXPLAIN
TAG	EISPOT
TITLE	LABEL	Potentiostatic EIS	Test Identifier
DATE	LABEL	11/20/2021	Date
TIME	LABEL	13:13:54	Time
NOTES	NOTES	1	Notes...
	
PSTAT	PSTAT	REF3000-16137	Potentiostat
VDC	POTEN	0.00000E+000	T	DC Voltage (V)
FREQINIT	QUANT	3.00000E+005	Initial Freq. (Hz)
FREQFINAL	QUANT	1.00000E+000	Final Freq. (Hz)
PTSPERDEC	QUANT	1.00000E+001	Points/decade
VAC	QUANT	5.00000E+001	AC Voltage (mV rms)
AREA	QUANT	1.00000E+000	Sample Area (cm^2)
SPEED	SELECTOR	2	Optimize for:
ZGUESS	QUANT	1.00000E+003	Estimated Z (ohms)
EOC	QUANT	0	Open Circuit (V)
SEQUENCER	TOGGLE	TRUE	Run as Sequence
PSTATMODEL	IQUANT	5	Pstat Model
PSTATSECTION	LABEL	REF3000-16137	Pstat Section
PSTATSERIALNO	LABEL	16137	Pstat Serial Number
CTRLMODE	IQUANT	1	Control Mode
IESTAB	IQUANT	0	I/E Stability
CASPEED	IQUANT	1	Control Amp Speed
CONVENTION	IQUANT	1	Current Convention
ICHRANGE	IQUANT	2	Ich Range
ICHRANGEMODE	TOGGLE	F	Ich Auto Range
ICHOFFSETENABLE	TOGGLE	T	Ich Offset Enable
ICHOFFSET	QUANT	0	Ich Offset (V)
ICHFILTER	IQUANT	3	Ich Filter
VCHRANGE	IQUANT	2	Vch Range
VCHRANGEMODE	TOGGLE	F	Vch Auto Range
VCHOFFSETENABLE	TOGGLE	T	Vch Offset Enable
VCHOFFSET	QUANT	0	Vch Offset (V)
VCHFILTER	IQUANT	3	Vch Filter
ACHRANGE	IQUANT	2	Ach Range
ACHOFFSETENABLE	TOGGLE	F	Ach Offset Enable
ACHOFFSET	QUANT	0	Ach Offset (V)
ACHFILTER	IQUANT	3	Ach Filter
IERANGELOWERLIMIT	IQUANT	2	I/E Range Lower Limit
IERANGEMODE	TOGGLE	F	I/E AutoRange
IERANGE	IQUANT	11	I/E Range
POSFEEDENABLE	TOGGLE	F	Positive Feedback IR Comp
POSFEEDRESISTANCE	QUANT	0	Positive Feedback Resistance (ohm)
ACHSELECT	IQUANT	0	Ach Select
CABLEID	IQUANT	13	Cable ID
DCCALDATE	LABEL	9/10/2021	DC Calibration Date
ACCALDATE	LABEL	9/10/2021	AC Calibration Date
THERMOSELECT	IQUANT	1	Thermo Select
FRAMEWORKVERSION	QUANT	6.33	Framework Version
INSTRUMENTVERSION	LABEL	3.50	Instrument Version
COMPLIANCEVOLTAGE	IQUANT	0	Compliance Voltage
ZCURVE	TABLE
	Pt	Time	Freq	Zreal	Zimag	Zsig	Zmod	Zphz	Idc	Vdc	IERange
	#	s	Hz	ohm	ohm	V	ohm	°	A	V	#
	0	10	300046.9	3.278658	2.290912	1	3.999735	34.94334	6.743574E-005	-0.000848	10
	1	13	238359.4	3.240541	1.814697	1	3.714059	29.24874	-1.562896E-005	-0.001281	10
	2	16	189328.1	3.22469	1.410259	1	3.519581	23.62128	2.810626E-005	-0.0008803	10
	3	19	150421.9	3.211148	1.091256	1	3.391506	18.7695	6.598675E-005	-0.0009259	10
	4	21	119484.4	3.242664	0.6624464	1	3.309638	11.54612	3.515364E-005	-0.0004461	12
	5	25	94921.88	3.228202	0.5788379	1	3.279686	10.16549	-2.339595E-005	0.000291	11
	6	27	75421.88	3.24218	0.3994751	1	3.266697	7.024118	-8.417526E-005	0.0002099	11
	7	30	59859.37	3.262087	0.2451673	1	3.271287	4.298075	-1.296273E-005	0.0003447	11
	8	32	47578.12	3.286384	0.1147675	1	3.288388	2.000077	-5.21635E-005	0.0003395	11
	9	35	37828.12	3.311875	-0.001263	1	3.311876	-0.0218503	-2.543678E-005	0.0003834	11
	10	37	30046.88	3.338376	-0.1081029	1	3.340126	-1.854697	-1.745306E-005	0.0003879	11
	11	40	23859.38	3.366156	-0.2110181	1	3.372764	-3.587072	-2.689448E-005	0.0003823	11
	12	42	18984.38	3.3939	-0.3148446	1	3.408473	-5.300034	-5.937719E-005	0.0003635	11
	13	45	15046.87	3.421943	-0.4290079	1	3.448731	-7.145871	-6.848903E-005	0.0003633	11
	14	47	11953.13	3.447835	-0.5562333	1	3.492415	-9.164468	-3.205286E-005	0.0003702	11
	15	49	9515.62	3.480655	-0.7038465	1	3.551106	-11.432	2.522251E-005	-0.0001156	10
	16	51	7546.875	3.51158	-0.8839189	1	3.62112	-14.12871	-8.091924E-006	-0.0001079	10
	17	54	5928.309	3.546454	-1.112588	1	3.716879	-17.4176	7.804428E-006	-0.0001351	10
	18	56	4733.456	3.584786	-1.374354	1	3.839211	-20.97609	6.593609E-006	-0.0001457	10
	19	58	3796.875	3.62817	-1.688987	1	4.002037	-24.96293	-2.80419E-005	-0.0001392	10
	20	61	2987.132	3.685577	-2.109721	1	4.246693	-29.78795	-1.3043E-005	-0.0001707	10
	21	63	2390.625	3.749932	-2.594824	1	4.560165	-34.6819	-1.954088E-005	-0.000148	10
	22	65	1884.191	3.837427	-3.233051	1	5.017814	-40.1143	2.329323E-005	-0.0001248	10
	23	68	1516.544	3.936437	-3.95381	1	5.579261	-45.12615	1.761573E-005	-0.000123	10
	24	70	1193.986	4.076199	-4.931901	1	6.398363	-50.42639	2.360402E-005	-0.0001179	10
	25	72	946.5144	4.252803	-6.111182	1	7.445326	-55.16574	4.284025E-006	-0.0001447	10
	26	75	751.7689	4.482537	-7.563007	1	8.791598	-59.3451	-2.26908E-005	-0.0001213	10
	27	77	597.4265	4.777025	-9.340546	1	10.49122	-62.91349	-2.588386E-005	-0.0001242	10
	28	79	477.4305	5.1692	-11.47886	1	12.58907	-65.75684	-8.60058E-008	-0.0001144	10
	29	82	376.6741	5.709576	-14.24154	1	15.34343	-68.15366	-4.488115E-007	-0.000117	10
	30	84	298.2954	6.416838	-17.58356	1	18.71783	-69.95126	-1.311317E-007	-0.0001136	10
	31	86	237.7717	7.327376	-21.53999	1	22.75218	-71.21296	-4.42679E-007	-0.0001173	10
	32	89	189.0121	8.538386	-26.39099	1	27.73785	-72.07183	1.770955E-007	-0.0001086	10
	33	91	150.2404	10.12078	-32.25294	1	33.80359	-72.57845	-5.580589E-007	-0.0001132	10
	34	94	119.1737	12.18935	-39.36824	1	41.21212	-72.79623	-1.058855E-006	-0.0001168	10
	35	96	95.0169	14.75623	-47.63154	1	49.86491	-72.78704	6.638739E-007	-0.0001322	9
	36	98	75.60484	18.04684	-57.6215	1	60.3815	-72.60963	4.834617E-007	-0.000134	9
	37	101	54.50582	24.2172	-75.261	1	79.06131	-72.16306	5.873916E-007	-0.0001341	9
	38	103	45.95588	28.2627	-86.34585	1	90.85365	-71.87571	7.948328E-007	-0.0001295	9
	39	106	37.20238	34.1547	-102.1373	1	107.6966	-71.51007	8.002486E-007	-0.0001328	9
	40	108	30.04808	41.19098	-120.8022	1	127.6318	-71.17172	6.675123E-007	-0.0001403	9
	41	111	23.91582	50.24251	-144.5387	1	153.022	-70.83224	6.683443E-007	-0.0001317	9
	42	113	18.60119	62.31604	-176.0406	1	186.7447	-70.50671	4.856255E-007	-0.0001364	9
	43	115	15.02404	74.89635	-208.3033	1	221.3588	-70.22372	4.41356E-007	-0.0001325	9
	44	117	12.01923	91.24173	-248.4661	1	264.6894	-69.83575	7.362553E-007	-0.0001275	9
	45	120	9.450605	113.8748	-300.6339	1	321.4782	-69.2542	9.034005E-007	-0.0001322	9
	46	122	7.512019	142.122	-359.9458	1	386.9879	-68.45377	1.036768E-006	-0.0001285	9
	47	125	5.978954	177.8018	-427.4046	1	462.9127	-67.41251	8.971896E-007	-0.000124	8
	48	128	4.734848	227.0272	-508.5174	1	556.8943	-65.94167	9.379723E-007	-9.278805E-005	8
	49	131	3.75601	290.1834	-599.8218	1	666.3278	-64.18311	4.672084E-007	-0.0001319	8
	50	135	3.004808	367.5872	-696.7165	1	787.7399	-62.1839	4.626079E-007	-0.0001209	8
	51	139	2.372217	471.8992	-806.2509	1	934.1998	-59.65953	5.894527E-007	-4.047136E-005	8
	52	143	1.878005	596.7715	-919.8474	1	1096.474	-57.02561	3.568378E-007	-0.0001316	8
	53	147	1.512097	732.2814	-1023.993	1	1258.888	-54.43056	4.550659E-007	-0.0001285	8
	54	153	1.201923	901.9249	-1131.863	1	1447.267	-51.45041	4.828364E-007	-0.0001406	8
	55	159	0.956633	1089.202	-1231.778	1	1644.274	-48.51522	3.256803E-007	-0.0006678	8
