EXPLAIN
TAG	EISPOT
TITLE	LABEL	Potentiostatic EIS	Test Identifier
DATE	LABEL	11/20/2021	Date
TIME	LABEL	13:47:21	Time
NOTES	NOTES	1	Notes...
	
PSTAT	PSTAT	REF3000-16137	Potentiostat
VDC	POTEN	0.00000E+000	T	DC Voltage (V)
FREQINIT	QUANT	3.00000E+005	Initial Freq. (Hz)
FREQFINAL	QUANT	1.00000E+000	Final Freq. (Hz)
PTSPERDEC	QUANT	1.00000E+001	Points/decade
VAC	QUANT	5.00000E+001	AC Voltage (mV rms)
AREA	QUANT	1.00000E+000	Sample Area (cm^2)
SPEED	SELECTOR	2	Optimize for:
ZGUESS	QUANT	1.00000E+003	Estimated Z (ohms)
EOC	QUANT	0	Open Circuit (V)
SEQUENCER	TOGGLE	TRUE	Run as Sequence
PSTATMODEL	IQUANT	5	Pstat Model
PSTATSECTION	LABEL	REF3000-16137	Pstat Section
PSTATSERIALNO	LABEL	16137	Pstat Serial Number
CTRLMODE	IQUANT	1	Control Mode
IESTAB	IQUANT	0	I/E Stability
CASPEED	IQUANT	1	Control Amp Speed
CONVENTION	IQUANT	1	Current Convention
ICHRANGE	IQUANT	2	Ich Range
ICHRANGEMODE	TOGGLE	F	Ich Auto Range
ICHOFFSETENABLE	TOGGLE	T	Ich Offset Enable
ICHOFFSET	QUANT	0	Ich Offset (V)
ICHFILTER	IQUANT	3	Ich Filter
VCHRANGE	IQUANT	2	Vch Range
VCHRANGEMODE	TOGGLE	F	Vch Auto Range
VCHOFFSETENABLE	TOGGLE	T	Vch Offset Enable
VCHOFFSET	QUANT	0	Vch Offset (V)
VCHFILTER	IQUANT	3	Vch Filter
ACHRANGE	IQUANT	2	Ach Range
ACHOFFSETENABLE	TOGGLE	F	Ach Offset Enable
ACHOFFSET	QUANT	0	Ach Offset (V)
ACHFILTER	IQUANT	3	Ach Filter
IERANGELOWERLIMIT	IQUANT	2	I/E Range Lower Limit
IERANGEMODE	TOGGLE	F	I/E AutoRange
IERANGE	IQUANT	11	I/E Range
POSFEEDENABLE	TOGGLE	F	Positive Feedback IR Comp
POSFEEDRESISTANCE	QUANT	0	Positive Feedback Resistance (ohm)
ACHSELECT	IQUANT	0	Ach Select
CABLEID	IQUANT	13	Cable ID
DCCALDATE	LABEL	9/10/2021	DC Calibration Date
ACCALDATE	LABEL	9/10/2021	AC Calibration Date
THERMOSELECT	IQUANT	1	Thermo Select
FRAMEWORKVERSION	QUANT	6.33	Framework Version
INSTRUMENTVERSION	LABEL	3.50	Instrument Version
COMPLIANCEVOLTAGE	IQUANT	0	Compliance Voltage
ZCURVE	TABLE
	Pt	Time	Freq	Zreal	Zimag	Zsig	Zmod	Zphz	Idc	Vdc	IERange
	#	s	Hz	ohm	ohm	V	ohm	°	A	V	#
	0	8	300046.9	13.72015	2.145901	1	13.88695	8.889332	5.060806E-005	-0.000582	10
	1	11	238359.4	13.74253	1.711562	1	13.84871	7.09934	2.424579E-006	-0.0005094	10
	2	14	189328.1	13.75484	1.332528	1	13.81924	5.533376	6.808508E-005	-0.0007278	10
	3	17	150421.9	13.81151	1.055425	1	13.85178	4.369843	-1.787956E-005	-0.0002378	10
	4	20	119484.4	13.82173	0.7983054	1	13.84477	3.305575	2.521473E-005	-0.0004333	10
	5	22	94921.88	13.86177	0.5932164	1	13.87445	2.450486	2.802306E-005	-0.0001612	10
	6	25	75421.88	13.9014	0.4162116	1	13.90763	1.714938	1.538072E-005	-0.0002025	10
	7	27	59859.37	13.94891	0.2631786	1	13.95139	1.08089	-2.696975E-005	-0.0001694	10
	8	30	47578.12	13.9966	0.1306115	1	13.99721	0.5346494	-1.5225E-005	-0.0001696	10
	9	32	37828.12	14.04664	0.0086486	1	14.04665	0.0352771	2.359334E-005	-0.0001648	10
	10	35	30046.88	14.09806	-0.1115898	1	14.0985	-0.4535017	2.066231E-005	-0.0001733	10
	11	37	23859.38	14.15197	-0.2332219	1	14.15389	-0.9441388	1.988503E-005	-0.0001094	10
	12	40	18984.38	14.20541	-0.3635791	1	14.21006	-1.466131	1.9164E-005	-0.0001014	10
	13	42	15046.87	14.26024	-0.510571	1	14.26937	-2.050532	-1.019768E-005	-8.631201E-005	10
	14	44	11953.13	14.31887	-0.6786184	1	14.33494	-2.713406	2.442059E-005	-0.0001514	10
	15	46	9515.62	14.38391	-0.8740925	1	14.41045	-3.477517	-2.21842E-005	-8.09142E-005	10
	16	49	7546.875	14.45015	-1.109404	1	14.49267	-4.390246	1.495576E-005	-0.0001675	10
	17	51	5928.309	14.52719	-1.412787	1	14.59572	-5.554618	5.747118E-006	-0.0001572	10
	18	53	4733.456	14.60872	-1.756845	1	14.71398	-6.857459	-1.275608E-005	-0.0001176	10
	19	56	3796.875	14.69495	-2.165205	1	14.8536	-8.381852	2.250592E-005	-0.0001549	10
	20	58	2987.132	14.80258	-2.714679	1	15.04945	-10.39212	2.031623E-005	-0.000149	10
	21	60	2390.625	14.9169	-3.346147	1	15.2876	-12.64325	1.99936E-005	-0.0001669	10
	22	63	1884.191	15.06147	-4.183738	1	15.63175	-15.52409	-2.785877E-005	-0.0001147	10
	23	65	1516.544	15.209	-5.116283	1	16.04649	-18.59286	-9.971138E-006	-0.000131	10
	24	67	1193.986	15.40202	-6.396551	1	16.67747	-22.55341	-1.269688E-005	-0.0001173	10
	25	70	946.5144	15.62553	-7.942568	1	17.52831	-26.94456	-1.628003E-005	-0.0001869	10
	26	72	751.7689	15.8992	-9.8267	1	18.69087	-31.71865	-2.677736E-005	-0.0001109	10
	27	74	597.4265	16.22486	-12.15831	1	20.27488	-36.84653	2.42565E-005	-0.0001267	10
	28	77	477.4305	16.63065	-14.9752	1	22.37935	-42.0017	-3.177562E-007	-0.0001118	10
	29	79	376.6741	17.14237	-18.64413	1	25.32715	-47.40298	1.28382E-007	-0.0001141	10
	30	81	298.2954	17.77093	-23.13997	1	29.17644	-52.47662	-3.980992E-007	-0.0001142	10
	31	84	237.7717	18.53953	-28.54177	1	34.0345	-56.99395	-9.252107E-007	-0.0001179	10
	32	86	189.0121	19.52194	-35.29351	1	40.33284	-61.05165	-6.543983E-007	-0.0001123	10
	33	89	150.2404	20.74818	-43.58211	1	48.2689	-64.54224	5.796568E-007	-0.0001323	9
	34	91	119.1737	22.37474	-53.97493	1	58.42878	-67.48407	5.421876E-007	-0.0001273	9
	35	93	95.0169	24.43805	-66.4957	1	70.84417	-69.82095	4.91117E-007	-0.0001325	9
	36	96	75.60484	27.1528	-82.02471	1	86.40213	-71.68381	4.841536E-007	-0.0001368	9
	37	99	54.50582	32.55576	-110.5684	1	115.2617	-73.59346	4.720492E-007	-0.0001295	9
	38	101	45.95588	36.35512	-129.0984	1	134.1196	-74.27236	5.067946E-007	-0.0001257	9
	39	103	37.20238	42.27748	-156.1534	1	161.7753	-74.85074	5.605212E-007	-0.0001256	9
	40	106	30.04808	49.99395	-188.9911	1	195.4917	-75.1829	4.515128E-007	-0.0001287	9
	41	108	23.91582	60.64075	-231.1542	1	238.9761	-75.30033	4.41332E-007	-0.0001388	9
	42	111	18.60119	76.1497	-287.7712	1	297.6761	-75.17818	6.577956E-007	-0.0001366	9
	43	113	15.02404	93.18428	-345.7245	1	358.0625	-74.91535	6.913075E-007	-0.0001154	9
	44	115	12.01923	115.0917	-415.6521	1	431.292	-74.52289	4.39062E-007	-0.000117	8
	45	118	9.450605	145.5441	-507.5004	1	527.9581	-73.99784	4.886399E-007	-0.0001058	8
	46	120	7.512019	181.5924	-611.9971	1	638.37	-73.47327	5.744765E-007	-0.0000985	8
	47	123	5.978954	225.5572	-735.511	1	769.3195	-72.95094	5.408976E-007	-0.000119	8
	48	126	4.734848	279.9923	-885.2356	1	928.4599	-72.44829	5.835246E-007	-8.998442E-005	8
	49	129	3.75601	343.8422	-1062.914	1	1117.146	-72.07413	4.770184E-007	-0.0001286	8
	50	133	3.004808	416.5363	-1266.973	1	1333.687	-71.80094	5.115788E-007	-0.0001017	8
	51	136	2.372217	510.0764	-1528.497	1	1611.36	-71.54558	5.371297E-007	-4.795919E-005	8
	52	140	1.878005	618.4837	-1845.234	1	1946.127	-71.46993	4.622819E-007	-0.000135	8
	53	145	1.512097	742.6324	-2193.558	1	2315.858	-71.29639	5.222531E-007	-0.0000999	8
	54	151	1.201923	911.6951	-2652.384	1	2804.698	-71.03078	5.166734E-007	-0.0001546	8
	55	157	0.956633	1127.513	-3197.085	1	3390.08	-70.57383	4.60213E-007	-0.0006626	8
