EXPLAIN
TAG	EISPOT
TITLE	LABEL	Potentiostatic EIS	Test Identifier
DATE	LABEL	11/20/2021	Date
TIME	LABEL	12:39:46	Time
NOTES	NOTES	1	Notes...
	
PSTAT	PSTAT	REF3000-16137	Potentiostat
VDC	POTEN	0.00000E+000	T	DC Voltage (V)
FREQINIT	QUANT	3.00000E+005	Initial Freq. (Hz)
FREQFINAL	QUANT	1.00000E+000	Final Freq. (Hz)
PTSPERDEC	QUANT	1.00000E+001	Points/decade
VAC	QUANT	5.00000E+001	AC Voltage (mV rms)
AREA	QUANT	1.00000E+000	Sample Area (cm^2)
SPEED	SELECTOR	2	Optimize for:
ZGUESS	QUANT	1.00000E+003	Estimated Z (ohms)
EOC	QUANT	0	Open Circuit (V)
SEQUENCER	TOGGLE	TRUE	Run as Sequence
PSTATMODEL	IQUANT	5	Pstat Model
PSTATSECTION	LABEL	REF3000-16137	Pstat Section
PSTATSERIALNO	LABEL	16137	Pstat Serial Number
CTRLMODE	IQUANT	1	Control Mode
IESTAB	IQUANT	0	I/E Stability
CASPEED	IQUANT	1	Control Amp Speed
CONVENTION	IQUANT	1	Current Convention
ICHRANGE	IQUANT	2	Ich Range
ICHRANGEMODE	TOGGLE	F	Ich Auto Range
ICHOFFSETENABLE	TOGGLE	T	Ich Offset Enable
ICHOFFSET	QUANT	0	Ich Offset (V)
ICHFILTER	IQUANT	3	Ich Filter
VCHRANGE	IQUANT	2	Vch Range
VCHRANGEMODE	TOGGLE	F	Vch Auto Range
VCHOFFSETENABLE	TOGGLE	T	Vch Offset Enable
VCHOFFSET	QUANT	0	Vch Offset (V)
VCHFILTER	IQUANT	3	Vch Filter
ACHRANGE	IQUANT	2	Ach Range
ACHOFFSETENABLE	TOGGLE	F	Ach Offset Enable
ACHOFFSET	QUANT	0	Ach Offset (V)
ACHFILTER	IQUANT	1	Ach Filter
IERANGELOWERLIMIT	IQUANT	2	I/E Range Lower Limit
IERANGEMODE	TOGGLE	F	I/E AutoRange
IERANGE	IQUANT	11	I/E Range
POSFEEDENABLE	TOGGLE	F	Positive Feedback IR Comp
POSFEEDRESISTANCE	QUANT	0	Positive Feedback Resistance (ohm)
ACHSELECT	IQUANT	0	Ach Select
CABLEID	IQUANT	13	Cable ID
DCCALDATE	LABEL	9/10/2021	DC Calibration Date
ACCALDATE	LABEL	9/10/2021	AC Calibration Date
THERMOSELECT	IQUANT	1	Thermo Select
FRAMEWORKVERSION	QUANT	6.33	Framework Version
INSTRUMENTVERSION	LABEL	3.50	Instrument Version
COMPLIANCEVOLTAGE	IQUANT	0	Compliance Voltage
ZCURVE	TABLE
	Pt	Time	Freq	Zreal	Zimag	Zsig	Zmod	Zphz	Idc	Vdc	IERange
	#	s	Hz	ohm	ohm	V	ohm	°	A	V	#
	0	10	300046.9	1.994284	2.240648	1	2.999612	48.32939	3.625296E-006	-0.0006014	11
	1	14	238359.4	2.096992	1.568531	1	2.618715	36.79616	-7.516942E-005	-0.0010701	12
	2	18	189328.1	2.025668	1.20704	1	2.358024	30.78955	-7.532816E-005	-0.0008817	12
	3	21	150421.9	2.001995	0.8963532	1	2.193498	24.11949	8.125035E-005	-0.0005023	12
	4	25	119484.4	1.969301	0.740109	1	2.103784	20.59738	-0.0001572	-0.0005119	11
	5	27	94921.88	1.993242	0.5159594	1	2.058938	14.51272	-6.77678E-005	8.39684E-005	11
	6	30	75421.88	2.024529	0.333857	1	2.051872	9.364144	-8.729597E-006	0.0001765	11
	7	32	59859.37	2.061421	0.185637	1	2.069762	5.145773	-3.279042E-005	0.0002537	11
	8	35	47578.12	2.09918	0.0631557	1	2.100129	1.723275	-1.097407E-006	0.0003314	11
	9	38	37828.12	2.136705	-0.0398438	1	2.137077	-1.068287	1.663977E-006	0.0003511	11
	10	40	30046.88	2.174309	-0.1295473	1	2.178165	-3.409704	-2.077556E-005	0.0003486	11
	11	43	23859.38	2.20878	-0.2127255	1	2.219	-5.501137	-4.125435E-005	0.000357	11
	12	45	18984.38	2.238829	-0.2946621	1	2.258136	-7.497856	-7.944649E-006	0.0003552	11
	13	47	15046.87	2.269029	-0.3834953	1	2.301208	-9.59307	-3.815313E-005	0.0003576	11
	14	49	11953.13	2.296471	-0.4827301	1	2.346659	-11.87104	-2.246682E-005	0.0003767	11
	15	52	9515.62	2.323135	-0.598137	1	2.398901	-14.43834	-1.516279E-005	0.0003831	11
	16	54	7546.875	2.35109	-0.7385663	1	2.464367	-17.43948	-4.449612E-007	0.0003956	11
	17	56	5928.309	2.383419	-0.9198803	1	2.554773	-21.10409	-1.291736E-005	0.0003641	11
	18	59	4733.456	2.418102	-1.127536	1	2.668062	-24.99917	-1.414303E-005	0.0003652	11
	19	61	3796.875	2.458292	-1.377585	1	2.817967	-29.26553	5.406037E-006	0.0004072	11
	20	63	2987.132	2.511554	-1.71156	1	3.039299	-34.27344	-5.794587E-006	0.0003763	11
	21	66	2390.625	2.574634	-2.096726	1	3.320392	-39.15863	-5.593285E-005	0.0003537	11
	22	68	1884.191	2.662259	-2.601446	1	3.72225	-44.33808	-9.017147E-006	0.000361	11
	23	70	1516.544	2.768638	-3.171351	1	4.209848	-48.87855	-3.708637E-006	-0.0001288	10
	24	72	1193.986	2.917658	-3.936756	1	4.900079	-53.45666	-3.381876E-006	-0.0001235	10
	25	75	946.5144	3.112983	-4.847983	1	5.761389	-57.2947	3.291368E-005	-0.0001387	10
	26	77	751.7689	3.362857	-5.960649	1	6.843839	-60.56934	-1.68762E-005	-0.0001281	10
	27	80	597.4265	3.69076	-7.302442	1	8.182137	-63.1873	-1.592764E-005	-0.0001273	10
	28	82	477.4305	4.117214	-8.886024	1	9.79351	-65.14002	9.937398E-006	-0.0001298	10
	29	84	376.6741	4.694818	-10.89548	1	11.86393	-66.68899	8.434151E-006	-0.0001259	10
	30	87	298.2954	5.427688	-13.27761	1	14.34415	-67.76599	1.217516E-005	-0.000166	10
	31	89	237.7717	6.329823	-16.04004	1	17.24383	-68.46451	8.35125E-006	-0.0001237	10
	32	91	189.0121	7.474544	-19.3671	1	20.75942	-68.89639	8.946908E-006	-0.0001296	10
	33	94	150.2404	8.892184	-23.3134	1	24.95167	-69.12218	7.935901E-006	-0.0001247	10
	34	96	119.1737	10.64865	-28.04494	1	29.99855	-69.20825	7.912459E-006	-0.0001217	10
	35	98	95.0169	12.72382	-33.51992	1	35.8536	-69.21375	7.52317E-006	-0.0001197	10
	36	101	75.60484	15.21727	-40.03601	1	42.83045	-69.18872	7.639058E-006	-0.0001373	9
	37	103	54.50582	19.70347	-51.70053	1	55.32786	-69.13777	7.503242E-006	-0.0001426	9
	38	106	45.95588	22.59711	-59.13132	1	63.302	-69.08558	7.563039E-006	-0.0001326	9
	39	108	37.20238	26.88778	-69.84987	1	74.84622	-68.94645	7.365944E-006	-0.0001367	9
	40	111	30.04808	32.31845	-82.72847	1	88.81712	-68.66155	7.007572E-006	-0.0001281	9
	41	113	23.91582	39.71403	-99.0529	1	106.7178	-68.1523	7.433889E-006	-0.000139	9
	42	115	18.60119	50.52964	-120.4636	1	130.632	-67.24391	6.481232E-006	-0.0001361	9
	43	118	15.02404	62.78438	-141.644	1	154.9352	-66.09446	7.224009E-006	-0.0001248	9
	44	120	12.01923	79.32607	-166.7584	1	184.6646	-64.55982	7.219322E-006	-0.000133	9
	45	122	9.450605	102.6708	-196.862	1	222.0269	-62.45631	6.640984E-006	-0.0001438	9
	46	125	7.512019	131.3351	-227.882	1	263.0192	-60.04388	7.539348E-006	-0.0001317	9
	47	128	5.978954	166.7184	-259.707	1	308.6143	-57.30165	7.425833E-006	-0.0001398	9
	48	131	4.734848	210.9652	-291.9937	1	360.2314	-54.15192	7.246839E-006	-0.0001275	9
	49	134	3.75601	262.2904	-321.4739	1	414.8997	-50.78901	7.314131E-006	-0.0001374	9
	50	137	3.004808	316.4428	-344.4111	1	467.7126	-47.42339	6.838749E-006	-0.0001061	8
	51	141	2.372217	381.0903	-364.4817	1	527.3298	-43.72387	7.387379E-006	-5.459857E-005	8
	52	145	1.878005	447.3699	-377.3438	1	585.2591	-40.14668	6.966227E-006	-0.0001559	8
	53	150	1.512097	509.3191	-384.2734	1	638.022	-37.03399	7.061515E-006	-0.0001246	8
	54	155	1.201923	575.8287	-385.7379	1	693.0891	-33.81746	7.238786E-006	-0.0001601	8
	55	162	0.956633	639.532	-382.6684	1	745.2759	-30.89448	6.661083E-006	-0.0006759	8
