EXPLAIN
TAG	EISPOT
TITLE	LABEL	Potentiostatic EIS	Test Identifier
DATE	LABEL	11/20/2021	Date
TIME	LABEL	12:51:06	Time
NOTES	NOTES	1	Notes...
	
PSTAT	PSTAT	REF3000-16137	Potentiostat
VDC	POTEN	0.00000E+000	T	DC Voltage (V)
FREQINIT	QUANT	3.00000E+005	Initial Freq. (Hz)
FREQFINAL	QUANT	1.00000E+000	Final Freq. (Hz)
PTSPERDEC	QUANT	1.00000E+001	Points/decade
VAC	QUANT	5.00000E+001	AC Voltage (mV rms)
AREA	QUANT	1.00000E+000	Sample Area (cm^2)
SPEED	SELECTOR	2	Optimize for:
ZGUESS	QUANT	1.00000E+003	Estimated Z (ohms)
EOC	QUANT	0	Open Circuit (V)
SEQUENCER	TOGGLE	TRUE	Run as Sequence
PSTATMODEL	IQUANT	5	Pstat Model
PSTATSECTION	LABEL	REF3000-16137	Pstat Section
PSTATSERIALNO	LABEL	16137	Pstat Serial Number
CTRLMODE	IQUANT	1	Control Mode
IESTAB	IQUANT	0	I/E Stability
CASPEED	IQUANT	1	Control Amp Speed
CONVENTION	IQUANT	1	Current Convention
ICHRANGE	IQUANT	2	Ich Range
ICHRANGEMODE	TOGGLE	F	Ich Auto Range
ICHOFFSETENABLE	TOGGLE	T	Ich Offset Enable
ICHOFFSET	QUANT	0	Ich Offset (V)
ICHFILTER	IQUANT	3	Ich Filter
VCHRANGE	IQUANT	2	Vch Range
VCHRANGEMODE	TOGGLE	F	Vch Auto Range
VCHOFFSETENABLE	TOGGLE	T	Vch Offset Enable
VCHOFFSET	QUANT	0	Vch Offset (V)
VCHFILTER	IQUANT	3	Vch Filter
ACHRANGE	IQUANT	2	Ach Range
ACHOFFSETENABLE	TOGGLE	F	Ach Offset Enable
ACHOFFSET	QUANT	0	Ach Offset (V)
ACHFILTER	IQUANT	3	Ach Filter
IERANGELOWERLIMIT	IQUANT	2	I/E Range Lower Limit
IERANGEMODE	TOGGLE	F	I/E AutoRange
IERANGE	IQUANT	11	I/E Range
POSFEEDENABLE	TOGGLE	F	Positive Feedback IR Comp
POSFEEDRESISTANCE	QUANT	0	Positive Feedback Resistance (ohm)
ACHSELECT	IQUANT	0	Ach Select
CABLEID	IQUANT	13	Cable ID
DCCALDATE	LABEL	9/10/2021	DC Calibration Date
ACCALDATE	LABEL	9/10/2021	AC Calibration Date
THERMOSELECT	IQUANT	1	Thermo Select
FRAMEWORKVERSION	QUANT	6.33	Framework Version
INSTRUMENTVERSION	LABEL	3.50	Instrument Version
COMPLIANCEVOLTAGE	IQUANT	0	Compliance Voltage
ZCURVE	TABLE
	Pt	Time	Freq	Zreal	Zimag	Zsig	Zmod	Zphz	Idc	Vdc	IERange
	#	s	Hz	ohm	ohm	V	ohm	°	A	V	#
	0	10	300046.9	2.23897	2.256398	1	3.178729	45.22214	-2.233722E-005	-0.000552	11
	1	13	238359.4	2.194737	1.766867	1	2.817568	38.83571	-0.0001736	-0.0006748	11
	2	16	189328.1	2.250024	1.199847	1	2.549949	28.0692	3.504715E-005	-0.0007051	12
	3	20	150421.9	2.222066	0.9092115	1	2.400884	22.2531	4.058949E-005	-0.0004326	12
	4	24	119484.4	2.217269	0.6603488	1	2.313513	16.58463	2.689358E-005	-0.0003479	12
	5	27	94921.88	2.211096	0.5315604	1	2.274093	13.51772	-3.915304E-005	0.0001784	11
	6	30	75421.88	2.237969	0.3489415	1	2.265009	8.862136	-9.819437E-006	0.0002366	11
	7	32	59859.37	2.27036	0.197273	1	2.278914	4.965994	-4.464878E-005	0.0002649	11
	8	35	47578.12	2.305028	0.0714735	1	2.306136	1.776038	-9.09292E-006	0.0003375	11
	9	37	37828.12	2.34106	-0.0358497	1	2.341335	-0.8773282	-3.559455E-005	0.0003306	11
	10	40	30046.88	2.375414	-0.1315159	1	2.379052	-3.168971	-1.763134E-005	0.0003284	11
	11	42	23859.38	2.410444	-0.2208051	1	2.420536	-5.233887	-4.39257E-005	0.0003572	11
	12	45	18984.38	2.4421	-0.3099877	1	2.461696	-7.234146	-1.409534E-005	0.0003799	11
	13	47	15046.87	2.471878	-0.4065298	1	2.505084	-9.339372	-1.117615E-005	0.0003874	11
	14	49	11953.13	2.500392	-0.5147339	1	2.552824	-11.63247	-2.872238E-005	0.0003696	11
	15	52	9515.62	2.528054	-0.6407576	1	2.607993	-14.22261	-1.13769E-005	0.000407	11
	16	54	7546.875	2.55738	-0.7945582	1	2.677968	-17.25962	-6.729541E-006	0.0004024	11
	17	56	5928.309	2.590909	-0.990748	1	2.773877	-20.92656	-3.597802E-005	0.0003702	11
	18	59	4733.456	2.626316	-1.216899	1	2.894543	-24.86057	-3.948555E-005	0.0003572	11
	19	61	3796.875	2.667759	-1.486619	1	3.05401	-29.1289	-1.639538E-005	0.0003903	11
	20	63	2987.132	2.722968	-1.852986	1	3.293647	-34.23537	-4.616565E-005	0.0003736	11
	21	65	2390.625	2.786167	-2.273632	1	3.596127	-39.21592	-3.242071E-005	0.0003873	11
	22	68	1884.191	2.876997	-2.82788	1	4.034107	-44.50672	2.605841E-005	-0.0001298	10
	23	70	1516.544	2.980423	-3.449752	1	4.558916	-49.17453	5.199763E-007	-0.0001479	10
	24	72	1193.986	3.127304	-4.292428	1	5.310835	-53.92431	-2.072015E-005	-0.0001202	10
	25	75	946.5144	3.316634	-5.303558	1	6.255221	-57.97978	-2.686583E-005	-0.0001369	10
	26	77	751.7689	3.570274	-6.528559	1	7.441031	-61.32707	2.578352E-005	-0.0001408	10
	27	79	597.4265	3.900456	-8.026354	1	8.923896	-64.08228	2.779851E-005	-0.0001382	10
	28	82	477.4305	4.326914	-9.80396	1	10.71634	-66.18605	2.402508E-006	-0.0001234	10
	29	84	376.6741	4.916395	-12.06974	1	13.03264	-67.83735	2.716719E-006	-0.0001221	10
	30	86	298.2954	5.674466	-14.77091	1	15.82338	-68.98498	2.847789E-006	-0.0001258	10
	31	89	237.7717	6.621903	-17.92146	1	19.10571	-69.72095	2.13748E-006	-0.0001277	10
	32	91	189.0121	7.84176	-21.72939	1	23.10107	-70.15636	2.41715E-006	-0.0001206	10
	33	93	150.2404	9.37687	-26.26482	1	27.88846	-70.3528	2.247559E-006	-0.0001236	10
	34	96	119.1737	11.31223	-31.7187	1	33.67555	-70.37161	2.19858E-006	-0.0001266	10
	35	98	95.0169	13.63932	-38.03178	1	40.40356	-70.27066	1.563442E-006	-0.0001192	10
	36	101	75.60484	16.47668	-45.52451	1	48.41449	-70.10329	2.471354E-006	-0.0001348	9
	37	103	54.50582	21.62613	-58.84715	1	62.69511	-69.82178	2.441445E-006	-0.0001393	9
	38	106	45.95588	24.91784	-67.26727	1	71.73413	-69.67384	2.45275E-006	-0.000127	9
	39	108	37.20238	29.75345	-79.40572	1	84.79703	-69.45895	2.706357E-006	-0.0001349	9
	40	111	30.04808	35.68715	-93.91486	1	100.4668	-69.19347	2.579995E-006	-0.0001369	9
	41	113	23.91582	43.74245	-112.4261	1	120.6359	-68.74012	2.463667E-006	-0.0001368	9
	42	115	18.60119	55.3728	-136.968	1	147.7375	-67.98772	2.414765E-006	-0.0001373	9
	43	118	15.02404	68.34818	-161.4771	1	175.3463	-67.05859	2.783615E-006	-0.0001333	9
	44	120	12.01923	86.10199	-190.8111	1	209.3381	-65.7131	1.900485E-006	-0.0001435	9
	45	122	9.450605	111.1402	-226.6026	1	252.3904	-63.87375	2.063622E-006	-0.0001784	9
	46	125	7.512019	142.0918	-264.6304	1	300.3653	-61.76668	2.37487E-006	-0.000148	9
	47	127	5.978954	181.063	-304.2752	1	354.0723	-59.24468	2.508568E-006	-0.0001395	9
	48	131	4.734848	229.3921	-344.6799	1	414.035	-56.35536	2.491559E-006	-0.0001199	8
	49	134	3.75601	287.2873	-384.8528	1	480.2558	-53.25916	2.125332E-006	-0.0001413	8
	50	137	3.004808	351.4816	-420.8392	1	548.311	-50.13163	1.977584E-006	-0.0001151	8
	51	141	2.372217	428.0984	-453.0536	1	623.3184	-46.62224	2.183885E-006	-6.741919E-005	8
	52	145	1.878005	510.2811	-479.0721	1	699.9263	-43.19321	1.925722E-006	-0.0001393	8
	53	150	1.512097	588.6519	-497.2903	1	770.5898	-40.19096	2.151364E-006	-0.000189	8
	54	155	1.201923	674.3128	-509.5062	1	845.1593	-37.07445	2.202466E-006	-0.0001394	8
	55	161	0.956633	758.7692	-516.7722	1	918.0328	-34.25746	1.955239E-006	-0.0006768	8
