EXPLAIN
TAG	EISPOT
TITLE	LABEL	Potentiostatic EIS	Test Identifier
DATE	LABEL	11/20/2021	Date
TIME	LABEL	13:30:42	Time
NOTES	NOTES	1	Notes...
	
PSTAT	PSTAT	REF3000-16137	Potentiostat
VDC	POTEN	0.00000E+000	T	DC Voltage (V)
FREQINIT	QUANT	3.00000E+005	Initial Freq. (Hz)
FREQFINAL	QUANT	1.00000E+000	Final Freq. (Hz)
PTSPERDEC	QUANT	1.00000E+001	Points/decade
VAC	QUANT	5.00000E+001	AC Voltage (mV rms)
AREA	QUANT	1.00000E+000	Sample Area (cm^2)
SPEED	SELECTOR	2	Optimize for:
ZGUESS	QUANT	1.00000E+003	Estimated Z (ohms)
EOC	QUANT	0	Open Circuit (V)
SEQUENCER	TOGGLE	TRUE	Run as Sequence
PSTATMODEL	IQUANT	5	Pstat Model
PSTATSECTION	LABEL	REF3000-16137	Pstat Section
PSTATSERIALNO	LABEL	16137	Pstat Serial Number
CTRLMODE	IQUANT	1	Control Mode
IESTAB	IQUANT	0	I/E Stability
CASPEED	IQUANT	1	Control Amp Speed
CONVENTION	IQUANT	1	Current Convention
ICHRANGE	IQUANT	2	Ich Range
ICHRANGEMODE	TOGGLE	F	Ich Auto Range
ICHOFFSETENABLE	TOGGLE	T	Ich Offset Enable
ICHOFFSET	QUANT	0	Ich Offset (V)
ICHFILTER	IQUANT	3	Ich Filter
VCHRANGE	IQUANT	2	Vch Range
VCHRANGEMODE	TOGGLE	F	Vch Auto Range
VCHOFFSETENABLE	TOGGLE	T	Vch Offset Enable
VCHOFFSET	QUANT	0	Vch Offset (V)
VCHFILTER	IQUANT	3	Vch Filter
ACHRANGE	IQUANT	2	Ach Range
ACHOFFSETENABLE	TOGGLE	F	Ach Offset Enable
ACHOFFSET	QUANT	0	Ach Offset (V)
ACHFILTER	IQUANT	3	Ach Filter
IERANGELOWERLIMIT	IQUANT	2	I/E Range Lower Limit
IERANGEMODE	TOGGLE	F	I/E AutoRange
IERANGE	IQUANT	11	I/E Range
POSFEEDENABLE	TOGGLE	F	Positive Feedback IR Comp
POSFEEDRESISTANCE	QUANT	0	Positive Feedback Resistance (ohm)
ACHSELECT	IQUANT	0	Ach Select
CABLEID	IQUANT	13	Cable ID
DCCALDATE	LABEL	9/10/2021	DC Calibration Date
ACCALDATE	LABEL	9/10/2021	AC Calibration Date
THERMOSELECT	IQUANT	1	Thermo Select
FRAMEWORKVERSION	QUANT	6.33	Framework Version
INSTRUMENTVERSION	LABEL	3.50	Instrument Version
COMPLIANCEVOLTAGE	IQUANT	0	Compliance Voltage
ZCURVE	TABLE
	Pt	Time	Freq	Zreal	Zimag	Zsig	Zmod	Zphz	Idc	Vdc	IERange
	#	s	Hz	ohm	ohm	V	ohm	°	A	V	#
	0	10	300046.9	5.535167	2.279951	1	5.986338	22.3869	6.315942E-005	-0.0006064	10
	1	13	238359.4	5.503566	1.811786	1	5.794118	18.22166	1.545374E-005	-0.000935	10
	2	16	189328.1	5.484107	1.422068	1	5.665484	14.53702	6.982726E-005	-0.0009052	10
	3	19	150421.9	5.477762	1.116155	1	5.59032	11.51699	3.032557E-005	-0.0003771	10
	4	21	119484.4	5.478003	0.8452542	1	5.54283	8.771545	-3.227071E-007	-0.0003805	10
	5	24	94921.88	5.486385	0.6414113	1	5.523752	6.668159	8.594034E-006	-0.0003041	10
	6	26	75421.88	5.496805	0.4578473	1	5.51584	4.761367	-1.321978E-006	-0.0002703	10
	7	29	59859.37	5.510865	0.298352	1	5.518936	3.098903	-1.705198E-005	-0.0001822	10
	8	31	47578.12	5.526945	0.1579508	1	5.529202	1.636972	2.26948E-005	-0.0001899	10
	9	34	37828.12	5.550294	0.0327784	1	5.550391	0.3383682	-2.086834E-005	-0.0001368	10
	10	37	30046.88	5.573806	-0.0859576	1	5.574469	-0.8835291	1.416621E-006	-0.0001491	10
	11	39	23859.38	5.600502	-0.2023759	1	5.604157	-2.069501	-1.497378E-005	-0.0001028	10
	12	41	18984.38	5.627456	-0.3217055	1	5.636644	-3.271874	-8.757897E-006	-0.0001019	10
	13	44	15046.87	5.657046	-0.4531599	1	5.675168	-4.579921	-1.917734E-005	-0.0000958	10
	14	46	11953.13	5.686842	-0.6003752	1	5.718446	-6.026546	1.852738E-005	-0.0001586	10
	15	48	9515.62	5.721543	-0.7698378	1	5.773102	-7.663166	-1.319977E-005	-9.017123E-005	10
	16	52	7546.875	5.762535	-0.975382	1	5.8445	-9.60698	1.115509E-006	-0.0001012	10
	17	54	5928.309	5.80456	-1.234809	1	5.934448	-12.00956	2.433004E-005	-0.0001236	10
	18	56	4733.456	5.851181	-1.531766	1	6.048357	-14.67011	-2.09538E-005	-0.0001197	10
	19	58	3796.875	5.904525	-1.884863	1	6.198075	-17.70431	-1.876491E-005	-0.0001013	10
	20	61	2987.132	5.970426	-2.361524	1	6.420496	-21.58063	-2.043197E-005	-0.0001149	10
	21	63	2390.625	6.044112	-2.907293	1	6.706985	-25.68814	-1.772983E-005	-0.0001484	10
	22	65	1884.191	6.142095	-3.627696	1	7.133408	-30.56731	-2.536591E-005	-0.0001194	10
	23	68	1516.544	6.249609	-4.43765	1	7.664878	-35.37736	2.074045E-005	-0.0001345	10
	24	70	1193.986	6.39746	-5.540257	1	8.462976	-40.89285	2.005568E-005	-0.0001353	10
	25	72	946.5144	6.582595	-6.865746	1	9.51152	-46.20617	-3.851779E-007	-0.0001303	10
	26	75	751.7689	6.800265	-8.508039	1	10.89176	-51.36552	-2.354839E-005	-0.0001174	10
	27	77	597.4265	7.086789	-10.52889	1	12.69173	-56.05627	-2.697678E-005	-0.0001133	10
	28	79	477.4305	7.446537	-12.95951	1	14.94657	-60.11832	-5.190997E-007	-0.000107	10
	29	82	376.6741	7.934206	-16.12904	1	17.97491	-63.80648	-9.305406E-007	-0.000111	10
	30	84	298.2954	8.5639	-19.99806	1	21.75461	-66.81763	-9.383602E-007	-0.0001062	10
	31	86	237.7717	9.368099	-24.62962	1	26.35108	-69.17523	-3.718104E-007	-0.000116	10
	32	89	189.0121	10.44151	-30.38564	1	32.12962	-71.03558	-5.797122E-007	-0.0001094	10
	33	91	150.2404	11.85864	-37.43279	1	39.26628	-72.42189	-1.029108E-006	-0.0001088	10
	34	94	119.1737	13.73788	-46.06991	1	48.07459	-73.39561	4.936618E-007	-0.000127	9
	35	96	95.0169	16.17932	-56.38799	1	58.66324	-73.99031	5.168926E-007	-0.0001295	9
	36	98	75.60484	19.40444	-68.97636	1	71.65382	-74.28764	4.280719E-007	-0.0001307	9
	37	101	54.50582	25.75747	-91.5744	1	95.1279	-74.29011	4.050771E-007	-0.0001313	9
	38	103	45.95588	30.10658	-105.9372	1	110.1322	-74.13524	5.242148E-007	-0.0001252	9
	39	106	37.20238	36.6649	-126.5274	1	131.7327	-73.83955	6.29948E-007	-0.0001295	9
	40	108	30.04808	44.83189	-150.9625	1	157.4788	-73.45997	4.64533E-007	-0.0001236	9
	41	111	23.91582	55.60131	-181.7427	1	190.0577	-72.98934	3.527442E-007	-0.0001266	9
	42	113	18.60119	70.34924	-222.4821	1	233.3395	-72.45296	5.012483E-007	-0.0001211	9
	43	115	15.02404	85.46374	-263.5596	1	277.0699	-72.03382	7.445881E-007	-0.0001157	9
	44	117	12.01923	104.2943	-314.146	1	331.006	-71.63419	5.331431E-007	-0.000172	9
	45	120	9.450605	128.6038	-379.3801	1	400.5848	-71.27417	4.099244E-007	-0.0001327	9
	46	122	7.512019	156.0487	-453.0698	1	479.1904	-70.995	7.245216E-007	-0.0001242	8
	47	125	5.978954	189.6811	-542.8282	1	575.0143	-70.739	7.109266E-007	-0.0001092	8
	48	128	4.734848	233.5868	-654.2103	1	694.661	-70.35081	6.249742E-007	-0.0001019	8
	49	131	3.75601	288.9126	-786.809	1	838.1759	-69.837	5.380012E-007	-0.0001193	8
	50	135	3.004808	357.6646	-938.4358	1	1004.284	-69.13673	4.529466E-007	-8.842995E-005	8
	51	139	2.372217	454.8813	-1128.373	1	1216.611	-68.04414	5.408166E-007	-4.690131E-005	8
	52	143	1.878005	578.5733	-1348.435	1	1467.319	-66.77727	3.965891E-007	-0.0001333	8
	53	147	1.512097	724.7858	-1577.41	1	1735.954	-65.32224	4.719144E-007	-0.0001389	8
	54	153	1.201923	929.1246	-1853.408	1	2073.257	-63.37511	4.484746E-007	-0.000131	8
	55	159	0.956633	1180.297	-2149.951	1	2452.629	-61.23375	3.775825E-007	-0.0006614	8
