EXPLAIN
TAG	EISPOT
TITLE	LABEL	Potentiostatic EIS	Test Identifier
DATE	LABEL	11/20/2021	Date
TIME	LABEL	14:35:45	Time
NOTES	NOTES	1	Notes...
	
PSTAT	PSTAT	REF3000-16137	Potentiostat
VDC	POTEN	0.00000E+000	T	DC Voltage (V)
FREQINIT	QUANT	3.00000E+005	Initial Freq. (Hz)
FREQFINAL	QUANT	1.00000E+000	Final Freq. (Hz)
PTSPERDEC	QUANT	1.00000E+001	Points/decade
VAC	QUANT	5.00000E+001	AC Voltage (mV rms)
AREA	QUANT	1.00000E+000	Sample Area (cm^2)
SPEED	SELECTOR	2	Optimize for:
ZGUESS	QUANT	1.00000E+003	Estimated Z (ohms)
EOC	QUANT	0	Open Circuit (V)
SEQUENCER	TOGGLE	TRUE	Run as Sequence
PSTATMODEL	IQUANT	5	Pstat Model
PSTATSECTION	LABEL	REF3000-16137	Pstat Section
PSTATSERIALNO	LABEL	16137	Pstat Serial Number
CTRLMODE	IQUANT	1	Control Mode
IESTAB	IQUANT	0	I/E Stability
CASPEED	IQUANT	1	Control Amp Speed
CONVENTION	IQUANT	1	Current Convention
ICHRANGE	IQUANT	2	Ich Range
ICHRANGEMODE	TOGGLE	F	Ich Auto Range
ICHOFFSETENABLE	TOGGLE	T	Ich Offset Enable
ICHOFFSET	QUANT	0	Ich Offset (V)
ICHFILTER	IQUANT	3	Ich Filter
VCHRANGE	IQUANT	2	Vch Range
VCHRANGEMODE	TOGGLE	F	Vch Auto Range
VCHOFFSETENABLE	TOGGLE	T	Vch Offset Enable
VCHOFFSET	QUANT	0	Vch Offset (V)
VCHFILTER	IQUANT	3	Vch Filter
ACHRANGE	IQUANT	2	Ach Range
ACHOFFSETENABLE	TOGGLE	F	Ach Offset Enable
ACHOFFSET	QUANT	0	Ach Offset (V)
ACHFILTER	IQUANT	3	Ach Filter
IERANGELOWERLIMIT	IQUANT	2	I/E Range Lower Limit
IERANGEMODE	TOGGLE	F	I/E AutoRange
IERANGE	IQUANT	11	I/E Range
POSFEEDENABLE	TOGGLE	F	Positive Feedback IR Comp
POSFEEDRESISTANCE	QUANT	0	Positive Feedback Resistance (ohm)
ACHSELECT	IQUANT	0	Ach Select
CABLEID	IQUANT	13	Cable ID
DCCALDATE	LABEL	9/10/2021	DC Calibration Date
ACCALDATE	LABEL	9/10/2021	AC Calibration Date
THERMOSELECT	IQUANT	1	Thermo Select
FRAMEWORKVERSION	QUANT	6.33	Framework Version
INSTRUMENTVERSION	LABEL	3.50	Instrument Version
COMPLIANCEVOLTAGE	IQUANT	0	Compliance Voltage
ZCURVE	TABLE
	Pt	Time	Freq	Zreal	Zimag	Zsig	Zmod	Zphz	Idc	Vdc	IERange
	#	s	Hz	ohm	ohm	V	ohm	°	A	V	#
	0	17	300046.9	641.3701	-3966.447	1	4017.967	-80.81483	1.421014E-005	-0.002407	9
	1	34	238359.4	950.472	-4860.929	1	4952.982	-78.93637	-2.459955E-005	0.0009198	9
	2	53	189328.1	1331.091	-6075.807	1	6219.906	-77.64285	-2.122155E-005	0.0009355	9
	3	60	150421.9	2566.95	-8708.293	1	9078.744	-73.57603	7.486742E-005	-0.0035704	9
	4	73	119484.4	2509.409	-8901.635	1	9248.58	-74.25663	1.394311E-005	-0.0021463	9
	5	83	94921.88	3535.495	-10585.6	1	11160.41	-71.53115	1.047892E-005	0.000176	9
	6	92	75421.88	5078.45	-12644.65	1	13626.37	-68.11821	-2.999217E-006	-0.0053653	8
	7	99	59859.37	6961.899	-15113.06	1	16639.49	-65.26663	-2.463476E-005	0.0049501	8
	8	108	47578.12	9873.41	-17538.27	1	20126.47	-60.62207	-2.141266E-005	0.0026049	8
	9	116	37828.12	15040.02	-20957.95	1	25796.09	-54.3357	6.542119E-006	-0.011746	7
	10	123	30046.88	18506.46	-23394.35	1	29829.26	-51.6537	-1.42089E-006	-0.0124924	7
	11	130	23859.38	21933.33	-26242.1	1	34201.15	-50.11089	-1.724552E-005	0.0004177	8
	12	137	18984.38	28693.59	-28058.16	1	40132.06	-44.35851	3.049867E-006	-0.0240526	7
	13	142	15046.87	34682.79	-29396.08	1	45464.55	-40.2836	7.336046E-006	-0.0249118	7
	14	148	11953.13	41281.58	-29725.02	1	50869.89	-35.75597	-3.380822E-006	0.0235484	7
	15	153	9515.62	47555.32	-29584.89	1	56006.91	-31.88637	7.405599E-006	-0.0197112	7
	16	158	7546.875	54724.69	-27813.99	1	61387.38	-26.9421	-5.503944E-006	0.0041869	7
	17	164	5928.309	60229.49	-27531.95	1	66223.86	-24.56597	8.465525E-007	-0.0192509	7
	18	169	4733.456	72785.89	-18327.07	1	75057.76	-14.13296	-5.289422E-007	0.0252579	6
	19	173	3796.875	75123.38	-16183.78	1	76846.84	-12.15739	7.163654E-007	-0.0174829	6
	20	177	2987.132	78724.3	-14038.88	1	79966.27	-10.11125	-6.534991E-007	0.0251492	6
	21	181	2390.625	81337.88	-12333.85	1	82267.7	-8.622487	5.47744E-007	-0.0276464	6
	22	185	1884.191	84335.1	-10968.99	1	85045.45	-7.410536	-6.536667E-007	0.010137	6
	23	189	1516.544	86684.35	-9028.644	1	87153.27	-5.946225	-6.55262E-007	0.0251511	6
	24	194	1193.986	89493.45	-8278.132	1	89875.49	-5.284813	6.827278E-007	-0.0273468	6
	25	198	946.5144	91327.98	-7419.84	1	91628.9	-4.64473	6.110776E-007	-0.0090331	6
	26	201	751.7689	93426.15	-6312.738	1	93639.18	-3.865559	-3.593699E-007	0.0236979	6
	27	203	597.4265	96009.2	-4606.526	1	96119.6	-2.746949	-5.320127E-007	0.0252759	6
	28	206	477.4305	96753.2	-4330.629	1	96850.1	-2.562821	-1.299593E-008	-0.0001814	6
	29	208	376.6741	98172.3	-3637.095	1	98239.6	-2.121728	-1.346437E-008	-9.095861E-005	6
	30	211	298.2954	99613.3	-3059.437	1	99660.3	-1.75918	-1.378556E-008	-0.0001503	6
	31	213	237.7717	101065	-2628.489	1	101099.1	-1.489808	-1.377793E-008	-9.340099E-005	6
	32	215	189.0121	102568.9	-2236.813	1	102593.3	-1.249303	-1.36145E-008	-0.0001005	6
	33	218	150.2404	104016.3	-1936.001	1	104034.3	-1.066293	-1.351989E-008	-0.0000992	6
	34	220	119.1737	105433.5	-1559.431	1	105445.1	-0.8473804	-1.242183E-008	-0.0001777	6
	35	222	95.0169	107053.7	-1468.459	1	107063.8	-0.7858786	-1.22317E-008	-0.0001646	6
	36	225	75.60484	108611.1	-1305.552	1	108618.9	-0.6886868	-1.296404E-008	-0.000114	6
	37	228	54.50582	110269.2	-1108.768	1	110274.8	-0.5760954	-1.340484E-008	-0.0000976	6
	38	230	45.95588	111836.2	-1122.264	1	111841.8	-0.5749379	-1.203863E-008	-0.000176	6
	39	232	37.20238	113344.8	-1061.984	1	113349.8	-0.536817	-1.391327E-008	-0.0001271	6
	40	235	30.04808	114973	-1097.824	1	114978.2	-0.5470743	-1.409076E-008	-0.0001677	6
	41	237	23.91582	116536.4	-1130.821	1	116541.9	-0.5559571	-1.189683E-008	-0.0001673	6
	42	240	18.60119	118068.4	-1162.581	1	118074.1	-0.5641549	-1.502747E-008	-0.0001593	6
	43	242	15.02404	119724.9	-1334.612	1	119732.3	-0.6386681	-1.5626E-008	-0.0001743	6
	44	244	12.01923	121449.9	-1492.057	1	121459	-0.7038647	-1.097413E-008	-0.0001047	6
	45	247	9.450605	123167	-1746.713	1	123179.4	-0.8124952	-1.569306E-008	-0.0001753	6
	46	249	7.512019	125043	-2099.941	1	125060.7	-0.96212	-1.823409E-008	-9.408984E-005	6
	47	252	5.978954	127259.2	-2475.288	1	127283.3	-1.114306	-1.487551E-008	-0.0001316	6
	48	255	4.734848	129657.7	-3029.357	1	129693	-1.338431	-1.712242E-008	-0.0001883	6
	49	258	3.75601	132351.3	-3653.742	1	132401.7	-1.581328	-7.189948E-009	-0.000121	6
	50	262	3.004808	135308.3	-4436.802	1	135381	-1.878074	-4.780834E-009	-0.000104	6
	51	265	2.372217	138549	-5388.656	1	138653.7	-2.227311	-7.818109E-009	-0.0001876	6
	52	270	1.878005	142462.5	-6720.423	1	142620.9	-2.700827	-3.365608E-009	-0.0001283	6
	53	274	1.512097	147034.5	-8047.116	1	147254.6	-3.13264	-3.738874E-009	-0.000151	6
	54	280	1.201923	152145.3	-10033.9	1	152475.8	-3.773162	-7.565244E-009	-0.0001104	6
	55	286	0.956633	158706.3	-12185.15	1	159173.3	-4.390442	-2.357896E-008	-0.0007028	6
