EXPLAIN
TAG	EISPOT
TITLE	LABEL	Potentiostatic EIS	Test Identifier
DATE	LABEL	11/20/2021	Date
TIME	LABEL	12:56:49	Time
NOTES	NOTES	1	Notes...
	
PSTAT	PSTAT	REF3000-16137	Potentiostat
VDC	POTEN	0.00000E+000	T	DC Voltage (V)
FREQINIT	QUANT	3.00000E+005	Initial Freq. (Hz)
FREQFINAL	QUANT	1.00000E+000	Final Freq. (Hz)
PTSPERDEC	QUANT	1.00000E+001	Points/decade
VAC	QUANT	5.00000E+001	AC Voltage (mV rms)
AREA	QUANT	1.00000E+000	Sample Area (cm^2)
SPEED	SELECTOR	2	Optimize for:
ZGUESS	QUANT	1.00000E+003	Estimated Z (ohms)
EOC	QUANT	0	Open Circuit (V)
SEQUENCER	TOGGLE	TRUE	Run as Sequence
PSTATMODEL	IQUANT	5	Pstat Model
PSTATSECTION	LABEL	REF3000-16137	Pstat Section
PSTATSERIALNO	LABEL	16137	Pstat Serial Number
CTRLMODE	IQUANT	1	Control Mode
IESTAB	IQUANT	0	I/E Stability
CASPEED	IQUANT	1	Control Amp Speed
CONVENTION	IQUANT	1	Current Convention
ICHRANGE	IQUANT	2	Ich Range
ICHRANGEMODE	TOGGLE	F	Ich Auto Range
ICHOFFSETENABLE	TOGGLE	T	Ich Offset Enable
ICHOFFSET	QUANT	0	Ich Offset (V)
ICHFILTER	IQUANT	3	Ich Filter
VCHRANGE	IQUANT	2	Vch Range
VCHRANGEMODE	TOGGLE	F	Vch Auto Range
VCHOFFSETENABLE	TOGGLE	T	Vch Offset Enable
VCHOFFSET	QUANT	0	Vch Offset (V)
VCHFILTER	IQUANT	3	Vch Filter
ACHRANGE	IQUANT	2	Ach Range
ACHOFFSETENABLE	TOGGLE	F	Ach Offset Enable
ACHOFFSET	QUANT	0	Ach Offset (V)
ACHFILTER	IQUANT	3	Ach Filter
IERANGELOWERLIMIT	IQUANT	2	I/E Range Lower Limit
IERANGEMODE	TOGGLE	F	I/E AutoRange
IERANGE	IQUANT	11	I/E Range
POSFEEDENABLE	TOGGLE	F	Positive Feedback IR Comp
POSFEEDRESISTANCE	QUANT	0	Positive Feedback Resistance (ohm)
ACHSELECT	IQUANT	0	Ach Select
CABLEID	IQUANT	13	Cable ID
DCCALDATE	LABEL	9/10/2021	DC Calibration Date
ACCALDATE	LABEL	9/10/2021	AC Calibration Date
THERMOSELECT	IQUANT	1	Thermo Select
FRAMEWORKVERSION	QUANT	6.33	Framework Version
INSTRUMENTVERSION	LABEL	3.50	Instrument Version
COMPLIANCEVOLTAGE	IQUANT	0	Compliance Voltage
ZCURVE	TABLE
	Pt	Time	Freq	Zreal	Zimag	Zsig	Zmod	Zphz	Idc	Vdc	IERange
	#	s	Hz	ohm	ohm	V	ohm	°	A	V	#
	0	10	300046.9	2.406437	2.249059	1	3.293814	43.06387	2.419408E-005	-0.0004566	11
	1	13	238359.4	2.363391	1.761249	1	2.947476	36.69426	3.265857E-005	-0.000622	11
	2	16	189328.1	2.353664	1.362478	1	2.719573	30.06549	3.569714E-005	6.601338E-005	11
	3	20	150421.9	2.391987	0.8994973	1	2.555522	20.60858	-8.404372E-005	-0.0005482	12
	4	23	119484.4	2.383981	0.6653574	1	2.475089	15.59416	-0.0001107	-0.00032	12
	5	27	94921.88	2.390038	0.4596055	1	2.433828	10.88513	-1.744078E-005	-0.0002476	12
	6	31	75421.88	2.406886	0.2944456	1	2.424829	6.974604	-8.63662E-006	-0.0002343	12
	7	34	59859.37	2.432529	0.1546857	1	2.437443	3.638566	1.749393E-005	-0.0001437	12
	8	38	47578.12	2.462478	0.0818737	1	2.463839	1.904297	-2.906014E-005	0.0003435	11
	9	41	37828.12	2.49626	-0.0273341	1	2.49641	-0.6273653	-5.796168E-005	0.0003245	11
	10	44	30046.88	2.529121	-0.1254616	1	2.532231	-2.839933	-5.503374E-005	0.0003461	11
	11	46	23859.38	2.561063	-0.2180716	1	2.570331	-4.86693	-5.852542E-005	0.0003613	11
	12	49	18984.38	2.591363	-0.3100949	1	2.60985	-6.823839	-5.388514E-005	0.0003537	11
	13	51	15046.87	2.62004	-0.4109365	1	2.652071	-8.913856	-4.071901E-005	0.0003839	11
	14	53	11953.13	2.648152	-0.5236273	1	2.699425	-11.18499	-5.295316E-005	0.0003687	11
	15	56	9515.62	2.675189	-0.6548336	1	2.754169	-13.75442	-2.229713E-005	0.0004173	11
	16	58	7546.875	2.703993	-0.8145091	1	2.824004	-16.76359	-8.12142E-005	0.0003233	11
	17	60	5928.309	2.737769	-1.0184	1	2.921047	-20.40428	-4.568826E-005	0.0003773	11
	18	63	4733.456	2.773208	-1.252895	1	3.043096	-24.31276	-1.009574E-005	0.0004261	11
	19	65	3796.875	2.814747	-1.532898	1	3.205086	-28.5725	-2.026849E-005	0.0004091	11
	20	67	2987.132	2.869797	-1.912756	1	3.448822	-33.68396	-3.39628E-005	0.0003907	11
	21	69	2390.625	2.933436	-2.345389	1	3.755781	-38.64361	-6.715851E-006	0.0004222	11
	22	72	1884.191	3.022761	-2.924589	1	4.205985	-44.05432	2.555144E-005	-0.0001103	10
	23	74	1516.544	3.124632	-3.570492	1	4.744653	-48.80997	1.052763E-006	-0.0001297	10
	24	76	1193.986	3.270648	-4.44593	1	5.519369	-53.65995	1.675087E-005	-0.0001209	10
	25	79	946.5144	3.45886	-5.498877	1	6.496257	-57.82961	-1.649321E-005	-0.0001204	10
	26	81	751.7689	3.700833	-6.783819	1	7.727636	-61.38584	-2.365344E-005	-0.0001372	10
	27	84	597.4265	4.027609	-8.346727	1	9.267658	-64.24095	1.613302E-005	-0.0001199	10
	28	86	477.4305	4.447139	-10.21471	1	11.1408	-66.47332	2.277527E-006	-0.0001101	10
	29	88	376.6741	5.02988	-12.60254	1	13.56922	-68.24225	1.590095E-006	-0.0001154	10
	30	90	298.2954	5.786018	-15.45996	1	16.50722	-69.48122	2.194205E-006	-0.0001108	10
	31	93	237.7717	6.739107	-18.8016	1	19.97288	-70.28066	1.592866E-006	-0.0001081	10
	32	95	189.0121	7.976813	-22.85378	1	24.20588	-70.75912	1.606669E-006	-0.0001056	10
	33	98	150.2404	9.55014	-27.69436	1	29.29476	-70.97372	1.852737E-006	-0.0001533	10
	34	100	119.1737	11.54622	-33.51338	1	35.44661	-70.98986	1.237625E-006	-0.000108	10
	35	102	95.0169	13.95043	-40.21334	1	42.56439	-70.86781	1.711056E-006	-0.0001315	9
	36	105	75.60484	16.94322	-48.26875	1	51.15609	-70.65799	1.658765E-006	-0.0001326	9
	37	107	54.50582	22.37074	-62.46685	1	66.35178	-70.29645	1.459691E-006	-0.0001345	9
	38	110	45.95588	25.82636	-71.41	1	75.93674	-70.11681	1.755073E-006	-0.0001274	9
	39	112	37.20238	30.83743	-84.2462	1	89.71271	-69.89539	1.608106E-006	-0.0001286	9
	40	115	30.04808	36.9683	-99.6557	1	106.2916	-69.64715	1.264863E-006	-0.0001266	9
	41	117	23.91582	45.02742	-119.2388	1	127.4573	-69.31227	9.780089E-007	-0.0001305	9
	42	119	18.60119	56.63083	-145.4271	1	156.0644	-68.72354	1.780441E-006	-0.0001234	9
	43	122	15.02404	69.4362	-171.8457	1	185.3438	-67.99827	1.827833E-006	-0.0001308	9
	44	124	12.01923	86.92402	-203.9687	1	221.7183	-66.91806	7.89116E-007	-0.0001292	9
	45	126	9.450605	111.4947	-243.8524	1	268.1325	-65.42908	1.036752E-006	-0.0001188	9
	46	129	7.512019	142.5211	-286.7151	1	320.184	-63.56883	8.323846E-007	-0.0001755	9
	47	132	5.978954	181.8639	-333.594	1	379.9466	-61.40231	1.213405E-006	-0.0001266	9
	48	135	4.734848	231.4501	-382.695	1	447.2411	-58.83487	9.918782E-007	-0.0001403	8
	49	138	3.75601	292.9497	-433.3738	1	523.0988	-55.9423	1.750155E-006	-0.0001024	8
	50	141	3.004808	362.8885	-480.5127	1	602.1466	-52.93949	1.178818E-006	-8.554271E-005	8
	51	145	2.372217	448.103	-527.1252	1	691.8506	-49.63252	1.534559E-006	-6.430763E-005	8
	52	149	1.878005	542.0688	-565.1197	1	783.0702	-46.19268	1.418591E-006	-0.000144	8
	53	154	1.512097	634.0797	-594.6746	1	869.3071	-43.1632	1.312299E-006	-2.123148E-005	8
	54	159	1.201923	736.5844	-619.8373	1	962.681	-40.08068	1.543142E-006	-0.0001495	8
	55	166	0.956633	840.5688	-638.8693	1	1055.798	-37.23643	8.537734E-007	-0.0006657	8
