EXPLAIN
TAG	EISPOT
TITLE	LABEL	Potentiostatic EIS	Test Identifier
DATE	LABEL	11/20/2021	Date
TIME	LABEL	13:02:38	Time
NOTES	NOTES	1	Notes...
	
PSTAT	PSTAT	REF3000-16137	Potentiostat
VDC	POTEN	0.00000E+000	T	DC Voltage (V)
FREQINIT	QUANT	3.00000E+005	Initial Freq. (Hz)
FREQFINAL	QUANT	1.00000E+000	Final Freq. (Hz)
PTSPERDEC	QUANT	1.00000E+001	Points/decade
VAC	QUANT	5.00000E+001	AC Voltage (mV rms)
AREA	QUANT	1.00000E+000	Sample Area (cm^2)
SPEED	SELECTOR	2	Optimize for:
ZGUESS	QUANT	1.00000E+003	Estimated Z (ohms)
EOC	QUANT	0	Open Circuit (V)
SEQUENCER	TOGGLE	TRUE	Run as Sequence
PSTATMODEL	IQUANT	5	Pstat Model
PSTATSECTION	LABEL	REF3000-16137	Pstat Section
PSTATSERIALNO	LABEL	16137	Pstat Serial Number
CTRLMODE	IQUANT	1	Control Mode
IESTAB	IQUANT	0	I/E Stability
CASPEED	IQUANT	1	Control Amp Speed
CONVENTION	IQUANT	1	Current Convention
ICHRANGE	IQUANT	2	Ich Range
ICHRANGEMODE	TOGGLE	F	Ich Auto Range
ICHOFFSETENABLE	TOGGLE	T	Ich Offset Enable
ICHOFFSET	QUANT	0	Ich Offset (V)
ICHFILTER	IQUANT	3	Ich Filter
VCHRANGE	IQUANT	2	Vch Range
VCHRANGEMODE	TOGGLE	F	Vch Auto Range
VCHOFFSETENABLE	TOGGLE	T	Vch Offset Enable
VCHOFFSET	QUANT	0	Vch Offset (V)
VCHFILTER	IQUANT	3	Vch Filter
ACHRANGE	IQUANT	2	Ach Range
ACHOFFSETENABLE	TOGGLE	F	Ach Offset Enable
ACHOFFSET	QUANT	0	Ach Offset (V)
ACHFILTER	IQUANT	3	Ach Filter
IERANGELOWERLIMIT	IQUANT	2	I/E Range Lower Limit
IERANGEMODE	TOGGLE	F	I/E AutoRange
IERANGE	IQUANT	11	I/E Range
POSFEEDENABLE	TOGGLE	F	Positive Feedback IR Comp
POSFEEDRESISTANCE	QUANT	0	Positive Feedback Resistance (ohm)
ACHSELECT	IQUANT	0	Ach Select
CABLEID	IQUANT	13	Cable ID
DCCALDATE	LABEL	9/10/2021	DC Calibration Date
ACCALDATE	LABEL	9/10/2021	AC Calibration Date
THERMOSELECT	IQUANT	1	Thermo Select
FRAMEWORKVERSION	QUANT	6.33	Framework Version
INSTRUMENTVERSION	LABEL	3.50	Instrument Version
COMPLIANCEVOLTAGE	IQUANT	0	Compliance Voltage
ZCURVE	TABLE
	Pt	Time	Freq	Zreal	Zimag	Zsig	Zmod	Zphz	Idc	Vdc	IERange
	#	s	Hz	ohm	ohm	V	ohm	°	A	V	#
	0	11	300046.9	2.652504	2.261342	1	3.485605	40.44862	-5.976758E-005	-0.0005792	11
	1	14	238359.4	2.617144	1.769892	1	3.159424	34.06924	-2.401977E-005	-0.000353	11
	2	17	189328.1	2.58727	1.366556	1	2.925995	27.84232	3.393862E-005	-0.0001419	11
	3	19	150421.9	2.570657	1.040457	1	2.773234	22.03534	-0.0001334	3.355634E-005	11
	4	22	119484.4	2.603947	0.6631126	1	2.687054	14.28708	4.399734E-005	-0.0002722	12
	5	26	94921.88	2.592472	0.5521078	1	2.65061	12.02243	-3.62749E-005	0.0002338	11
	6	28	75421.88	2.619213	0.2989307	1	2.636216	6.510993	-5.537895E-005	-0.0002321	12
	7	32	59859.37	2.638494	0.2188442	1	2.647554	4.741423	-6.494509E-005	0.0002352	11
	8	34	47578.12	2.665726	0.0905222	1	2.667263	1.944891	-6.785349E-005	0.0002546	11
	9	37	37828.12	2.697008	-0.0203043	1	2.697084	-0.4313411	-4.598543E-005	0.0003544	11
	10	39	30046.88	2.728534	-0.1206547	1	2.7312	-2.531948	-6.363511E-005	0.0003244	11
	11	42	23859.38	2.758067	-0.2162908	1	2.766535	-4.484025	-1.927474E-005	0.0004038	11
	12	44	18984.38	2.787089	-0.3121342	1	2.804513	-6.390094	-6.613562E-005	0.0002773	11
	13	46	15046.87	2.815173	-0.4164409	1	2.845808	-8.414585	-1.982773E-005	0.0004175	11
	14	49	11953.13	2.84319	-0.5336604	1	2.89284	-10.6306	-6.246191E-005	0.000364	11
	15	51	9515.62	2.870254	-0.6702306	1	2.947468	-13.14357	-5.247744E-005	0.0003731	11
	16	53	7546.875	2.900181	-0.8360373	1	3.018279	-16.08073	-6.675523E-005	0.0003458	11
	17	56	5928.309	2.93289	-1.047855	1	3.114457	-19.66066	-6.128915E-006	0.0004443	11
	18	58	4733.456	2.969538	-1.290846	1	3.237969	-23.49438	-4.405325E-005	0.000381	11
	19	60	3796.875	3.010945	-1.583593	1	3.401993	-27.74193	-1.078269E-005	0.0004515	11
	20	62	2987.132	3.065881	-1.974126	1	3.646477	-32.77755	-1.490346E-005	0.0004323	11
	21	65	2390.625	3.132446	-2.428114	1	3.963326	-37.78104	-1.588969E-005	-0.0001522	10
	22	67	1884.191	3.219034	-3.023811	1	4.416516	-43.20886	-2.32203E-005	-0.0001415	10
	23	69	1516.544	3.319058	-3.693366	1	4.965591	-48.05543	-1.308899E-005	-0.0001372	10
	24	72	1193.986	3.461884	-4.602407	1	5.759062	-53.04989	1.724041E-005	-0.0001075	10
	25	74	946.5144	3.650542	-5.693196	1	6.763057	-57.33154	1.157248E-005	-0.0001293	10
	26	77	751.7689	3.885203	-7.03524	1	8.036753	-61.09037	2.074402E-005	-0.0001337	10
	27	79	597.4265	4.202869	-8.668681	1	9.6338	-64.13433	1.513466E-005	-0.0001207	10
	28	81	477.4305	4.61425	-10.62649	1	11.58506	-66.52849	7.733217E-007	-0.000109	10
	29	83	376.6741	5.18708	-13.1371	1	14.12407	-68.45381	1.393045E-006	-0.0001158	10
	30	86	298.2954	5.932977	-16.15146	1	17.20668	-69.83002	1.385245E-006	-0.000109	10
	31	88	237.7717	6.883074	-19.69136	1	20.85969	-70.73304	6.889214E-007	-0.0001118	10
	32	91	189.0121	8.126132	-23.99756	1	25.33608	-71.2927	5.774525E-007	-0.0001091	10
	33	93	150.2404	9.7197	-29.1562	1	30.73364	-71.56335	-2.122629E-007	-0.0001104	10
	34	95	119.1737	11.7614	-35.37471	1	37.27869	-71.60904	-2.227028E-007	-0.0001042	10
	35	98	95.0169	14.24374	-42.54932	1	44.87013	-71.4916	1.154234E-006	-0.0001248	9
	36	100	75.60484	17.3593	-51.17808	1	54.04203	-71.26337	9.751392E-007	-0.0001283	9
	37	103	54.50582	23.05636	-66.37158	1	70.26224	-70.84364	1.049661E-006	-0.0001255	9
	38	105	45.95588	26.70665	-75.91672	1	80.47729	-70.6187	1.063177E-006	-0.000123	9
	39	108	37.20238	31.9711	-89.57198	1	95.1067	-70.3569	1.118884E-006	-0.0001263	9
	40	110	30.04808	38.37435	-105.955	1	112.6901	-70.09084	1.465233E-006	-0.0001725	9
	41	112	23.91582	46.56032	-126.6582	1	134.945	-69.81627	5.997563E-007	-0.0001348	9
	42	115	18.60119	58.11948	-154.5083	1	165.0779	-69.38583	1.905431E-006	-0.0001742	9
	43	117	15.02404	70.76769	-182.8702	1	196.0856	-68.8444	9.331142E-007	-0.0001423	9
	44	119	12.01923	87.70667	-217.7443	1	234.7446	-68.06059	4.977335E-007	-0.0001348	9
	45	122	9.450605	111.6568	-261.6928	1	284.5178	-66.89346	7.640201E-007	-0.0001236	9
	46	124	7.512019	142.1565	-310.1415	1	341.1689	-65.37516	5.361518E-007	-0.0001337	9
	47	127	5.978954	181.057	-364.2617	1	406.7779	-63.57023	6.608657E-007	-0.0001334	9
	48	130	4.734848	231.2971	-422.759	1	481.8958	-61.31634	6.085832E-007	-0.0001454	8
	49	133	3.75601	294.8489	-485.892	1	568.3546	-58.74979	1.304073E-006	-0.0001039	8
	50	137	3.004808	369.0705	-548.0052	1	660.6987	-56.04052	1.021243E-006	-0.0001097	8
	51	140	2.372217	461.9278	-611.4977	1	766.3594	-52.93246	1.14104E-006	-0.0001353	8
	52	144	1.878005	569.4333	-669.8817	1	879.2017	-49.63378	1.231318E-006	-0.0001341	8
	53	149	1.512097	676.8873	-718.5173	1	987.139	-46.70884	1.133563E-006	-4.0672E-005	8
	54	155	1.201923	800.4622	-761.313	1	1104.689	-43.56406	1.266581E-006	-0.0001298	8
	55	161	0.956633	928.1221	-797.2855	1	1223.55	-40.6636	5.250361E-007	-0.0006628	8
