EXPLAIN
TAG	EISPOT
TITLE	LABEL	Potentiostatic EIS	Test Identifier
DATE	LABEL	11/20/2021	Date
TIME	LABEL	14:12:14	Time
NOTES	NOTES	1	Notes...
	
PSTAT	PSTAT	REF3000-16137	Potentiostat
VDC	POTEN	0.00000E+000	T	DC Voltage (V)
FREQINIT	QUANT	3.00000E+005	Initial Freq. (Hz)
FREQFINAL	QUANT	1.00000E+000	Final Freq. (Hz)
PTSPERDEC	QUANT	1.00000E+001	Points/decade
VAC	QUANT	5.00000E+001	AC Voltage (mV rms)
AREA	QUANT	1.00000E+000	Sample Area (cm^2)
SPEED	SELECTOR	2	Optimize for:
ZGUESS	QUANT	1.00000E+003	Estimated Z (ohms)
EOC	QUANT	0	Open Circuit (V)
SEQUENCER	TOGGLE	TRUE	Run as Sequence
PSTATMODEL	IQUANT	5	Pstat Model
PSTATSECTION	LABEL	REF3000-16137	Pstat Section
PSTATSERIALNO	LABEL	16137	Pstat Serial Number
CTRLMODE	IQUANT	1	Control Mode
IESTAB	IQUANT	0	I/E Stability
CASPEED	IQUANT	1	Control Amp Speed
CONVENTION	IQUANT	1	Current Convention
ICHRANGE	IQUANT	2	Ich Range
ICHRANGEMODE	TOGGLE	F	Ich Auto Range
ICHOFFSETENABLE	TOGGLE	T	Ich Offset Enable
ICHOFFSET	QUANT	0	Ich Offset (V)
ICHFILTER	IQUANT	3	Ich Filter
VCHRANGE	IQUANT	2	Vch Range
VCHRANGEMODE	TOGGLE	F	Vch Auto Range
VCHOFFSETENABLE	TOGGLE	T	Vch Offset Enable
VCHOFFSET	QUANT	0	Vch Offset (V)
VCHFILTER	IQUANT	3	Vch Filter
ACHRANGE	IQUANT	2	Ach Range
ACHOFFSETENABLE	TOGGLE	F	Ach Offset Enable
ACHOFFSET	QUANT	0	Ach Offset (V)
ACHFILTER	IQUANT	3	Ach Filter
IERANGELOWERLIMIT	IQUANT	2	I/E Range Lower Limit
IERANGEMODE	TOGGLE	F	I/E AutoRange
IERANGE	IQUANT	11	I/E Range
POSFEEDENABLE	TOGGLE	F	Positive Feedback IR Comp
POSFEEDRESISTANCE	QUANT	0	Positive Feedback Resistance (ohm)
ACHSELECT	IQUANT	0	Ach Select
CABLEID	IQUANT	13	Cable ID
DCCALDATE	LABEL	9/10/2021	DC Calibration Date
ACCALDATE	LABEL	9/10/2021	AC Calibration Date
THERMOSELECT	IQUANT	1	Thermo Select
FRAMEWORKVERSION	QUANT	6.33	Framework Version
INSTRUMENTVERSION	LABEL	3.50	Instrument Version
COMPLIANCEVOLTAGE	IQUANT	0	Compliance Voltage
ZCURVE	TABLE
	Pt	Time	Freq	Zreal	Zimag	Zsig	Zmod	Zphz	Idc	Vdc	IERange
	#	s	Hz	ohm	ohm	V	ohm	°	A	V	#
	0	8	300046.9	201.358	-9.83633	1	201.5981	-2.796675	-6.05376E-005	0.00067	9
	1	12	238359.4	203.1833	-8.202173	1	203.3488	-2.31168	1.086536E-005	0.0007749	9
	2	15	189328.1	204.9835	-7.173271	1	205.1089	-2.004213	2.933735E-005	0.0001739	9
	3	18	150421.9	206.3444	-5.511609	1	206.418	-1.530048	4.948274E-005	-0.0006133	9
	4	22	119484.4	209.1328	-4.985613	1	209.1922	-1.365642	6.559974E-006	-0.0016777	9
	5	24	94921.88	210.3307	-4.300979	1	210.3747	-1.171458	-1.49455E-005	0.0006482	9
	6	27	75421.88	211.9214	-3.707147	1	211.9538	-1.002174	-1.557459E-005	0.0006636	9
	7	29	59859.37	213.5845	-3.10971	1	213.6071	-0.8341462	-1.92584E-005	0.0001009	9
	8	32	47578.12	215.0839	-2.82498	1	215.1025	-0.7524976	2.333845E-005	-0.0009779	9
	9	34	37828.12	216.6148	-2.461783	1	216.6288	-0.6511269	-2.041768E-005	0.0006926	9
	10	37	30046.88	217.8621	-2.155843	1	217.8727	-0.5669489	-1.555659E-005	0.0006781	9
	11	39	23859.38	219.575	-1.955958	1	219.5838	-0.5103731	-7.516967E-006	0.000538	9
	12	42	18984.38	220.655	-1.860364	1	220.6629	-0.4830548	2.403813E-005	-0.0009754	9
	13	44	15046.87	222.3403	-2.12555	1	222.3505	-0.547725	-1.470521E-005	0.0007564	9
	14	46	11953.13	223.2725	-1.579599	1	223.2781	-0.405347	-2.212367E-005	0.0008311	9
	15	49	9515.62	225.0316	-2.020195	1	225.0406	-0.5143526	2.89978E-005	-0.0008034	9
	16	51	7546.875	226.6597	-2.07662	1	226.6692	-0.5249201	-2.172191E-005	0.0008609	9
	17	53	5928.309	228.1337	-2.351796	1	228.1458	-0.5906326	-8.041691E-006	0.0005972	9
	18	56	4733.456	229.5841	-3.137184	1	229.6056	-0.7828773	1.970973E-005	-0.0003099	9
	19	58	3796.875	230.5588	-3.910822	1	230.5919	-0.971779	-2.27951E-005	0.000641	9
	20	60	2987.132	232.3136	-4.29535	1	232.3533	-1.059246	-3.668684E-006	-0.0005202	9
	21	63	2390.625	233.7463	-4.777094	1	233.7951	-1.170796	5.75422E-006	-0.0007786	9
	22	65	1884.191	235.1895	-6.884106	1	235.2902	-1.676596	-1.136853E-005	-0.0002276	9
	23	67	1516.544	236.7901	-7.38985	1	236.9054	-1.787531	-2.416015E-005	0.000685	9
	24	70	1193.986	239.5544	-8.931137	1	239.7208	-2.135129	2.567595E-005	-0.0006956	9
	25	73	946.5144	241.977	-10.98951	1	242.2264	-2.600331	-1.614939E-005	-4.575859E-005	9
	26	77	751.7689	244.8387	-13.66319	1	245.2197	-3.19407	-2.419834E-005	0.0006794	9
	27	80	597.4265	247.0271	-16.79219	1	247.5972	-3.88882	1.427329E-005	-0.0009693	9
	28	84	477.4305	249.3796	-20.5552	1	250.2253	-4.711972	2.267019E-007	-0.0001147	9
	29	86	376.6741	251.4681	-25.54621	1	252.7623	-5.800681	1.925906E-007	-0.0001182	9
	30	88	298.2954	253.696	-31.68619	1	255.6671	-7.119276	3.067142E-007	-0.0001201	9
	31	91	237.7717	256.1596	-39.1051	1	259.1273	-8.679712	2.254144E-007	-0.0001193	9
	32	93	189.0121	258.849	-48.39833	1	263.3348	-10.5906	1.987612E-007	-0.0001223	9
	33	96	150.2404	261.84	-59.89389	1	268.6028	-12.88431	3.048168E-007	-0.0001624	9
	34	98	119.1737	265.1593	-74.28003	1	275.3669	-15.64935	3.164468E-007	-0.0001219	9
	35	100	95.0169	268.918	-91.67565	1	284.115	-18.82453	2.66009E-007	-0.0001235	9
	36	103	75.60484	273.3071	-113.3336	1	295.8737	-22.52256	3.055355E-007	-0.0001248	9
	37	106	54.50582	280.0593	-153.4509	1	319.3437	-28.71935	3.061342E-007	-0.0001213	9
	38	108	45.95588	285.0827	-179.7303	1	337.0091	-32.22937	3.433448E-007	-0.0001213	9
	39	110	37.20238	291.6863	-218.5161	1	364.4588	-36.83863	2.672992E-007	-0.0001183	9
	40	113	30.04808	298.3641	-265.0454	1	399.0867	-41.61561	-9.535543E-008	-0.0001171	8
	41	115	23.91582	308.3341	-327.1656	1	449.5634	-46.69732	-1.046757E-007	-0.0001144	8
	42	118	18.60119	321.4404	-412.4499	1	522.9138	-52.06914	-1.735043E-007	-0.0001036	8
	43	120	15.02404	335.5334	-502.0704	1	603.8686	-56.24522	-5.346083E-008	-0.000109	8
	44	122	12.01923	353.6571	-616.774	1	710.9737	-60.17012	-1.285331E-007	-0.0001237	8
	45	125	9.450605	377.836	-769.6552	1	857.3967	-63.85284	-2.742186E-008	-0.0001262	8
	46	127	7.512019	407.1683	-950.462	1	1034.004	-66.81021	-6.309038E-008	-0.0001041	8
	47	130	5.978954	444.0278	-1172.292	1	1253.566	-69.25486	-4.78738E-008	-0.0001266	8
	48	133	4.734848	492.611	-1452.062	1	1533.346	-71.26053	-4.076669E-008	-0.0001016	8
	49	136	3.75601	554.8746	-1795.186	1	1878.984	-72.82413	-1.102099E-007	-0.0001451	8
	50	140	3.004808	632.8361	-2199.526	1	2288.754	-73.94869	-8.061574E-008	-0.0000968	8
	51	143	2.372217	742.1188	-2728.14	1	2827.275	-74.78241	-8.517604E-008	-3.713925E-005	8
	52	148	1.878005	878.1198	-3370.605	1	3483.112	-75.39772	-1.066688E-007	-0.0001713	8
	53	152	1.512097	1046.001	-4085.73	1	4217.5	-75.63995	-8.667123E-008	-7.81134E-005	8
	54	158	1.201923	1275.849	-5039.7	1	5198.688	-75.7935	-2.484206E-008	-0.0001331	7
	55	164	0.956633	1570.325	-6169.225	1	6365.945	-75.71911	-3.876523E-008	-0.0006475	7
