EXPLAIN
TAG	EISPOT
TITLE	LABEL	Potentiostatic EIS	Test Identifier
DATE	LABEL	11/20/2021	Date
TIME	LABEL	14:21:31	Time
NOTES	NOTES	1	Notes...
	
PSTAT	PSTAT	REF3000-16137	Potentiostat
VDC	POTEN	0.00000E+000	T	DC Voltage (V)
FREQINIT	QUANT	3.00000E+005	Initial Freq. (Hz)
FREQFINAL	QUANT	1.00000E+000	Final Freq. (Hz)
PTSPERDEC	QUANT	1.00000E+001	Points/decade
VAC	QUANT	5.00000E+001	AC Voltage (mV rms)
AREA	QUANT	1.00000E+000	Sample Area (cm^2)
SPEED	SELECTOR	2	Optimize for:
ZGUESS	QUANT	1.00000E+003	Estimated Z (ohms)
EOC	QUANT	0	Open Circuit (V)
SEQUENCER	TOGGLE	TRUE	Run as Sequence
PSTATMODEL	IQUANT	5	Pstat Model
PSTATSECTION	LABEL	REF3000-16137	Pstat Section
PSTATSERIALNO	LABEL	16137	Pstat Serial Number
CTRLMODE	IQUANT	1	Control Mode
IESTAB	IQUANT	0	I/E Stability
CASPEED	IQUANT	1	Control Amp Speed
CONVENTION	IQUANT	1	Current Convention
ICHRANGE	IQUANT	2	Ich Range
ICHRANGEMODE	TOGGLE	F	Ich Auto Range
ICHOFFSETENABLE	TOGGLE	T	Ich Offset Enable
ICHOFFSET	QUANT	0	Ich Offset (V)
ICHFILTER	IQUANT	3	Ich Filter
VCHRANGE	IQUANT	2	Vch Range
VCHRANGEMODE	TOGGLE	F	Vch Auto Range
VCHOFFSETENABLE	TOGGLE	T	Vch Offset Enable
VCHOFFSET	QUANT	0	Vch Offset (V)
VCHFILTER	IQUANT	3	Vch Filter
ACHRANGE	IQUANT	2	Ach Range
ACHOFFSETENABLE	TOGGLE	F	Ach Offset Enable
ACHOFFSET	QUANT	0	Ach Offset (V)
ACHFILTER	IQUANT	3	Ach Filter
IERANGELOWERLIMIT	IQUANT	2	I/E Range Lower Limit
IERANGEMODE	TOGGLE	F	I/E AutoRange
IERANGE	IQUANT	11	I/E Range
POSFEEDENABLE	TOGGLE	F	Positive Feedback IR Comp
POSFEEDRESISTANCE	QUANT	0	Positive Feedback Resistance (ohm)
ACHSELECT	IQUANT	0	Ach Select
CABLEID	IQUANT	13	Cable ID
DCCALDATE	LABEL	9/10/2021	DC Calibration Date
ACCALDATE	LABEL	9/10/2021	AC Calibration Date
THERMOSELECT	IQUANT	1	Thermo Select
FRAMEWORKVERSION	QUANT	6.33	Framework Version
INSTRUMENTVERSION	LABEL	3.50	Instrument Version
COMPLIANCEVOLTAGE	IQUANT	0	Compliance Voltage
ZCURVE	TABLE
	Pt	Time	Freq	Zreal	Zimag	Zsig	Zmod	Zphz	Idc	Vdc	IERange
	#	s	Hz	ohm	ohm	V	ohm	°	A	V	#
	0	20	300046.9	960.275	-309.7578	1	1008.998	-17.87825	-1.277057E-005	-0.0019188	9
	1	37	238359.4	1041.652	-288.6821	1	1080.914	-15.49012	7.484507E-005	-0.003501	9
	2	54	189328.1	1132.435	-257.4729	1	1161.336	-12.80914	-9.013662E-006	-0.001715	9
	3	67	150421.9	1191.911	-246.1767	1	1217.068	-11.66975	4.707877E-006	0.0013248	9
	4	80	119484.4	1255.86	-184.544	1	1269.347	-8.359572	-5.730773E-005	0.0274983	8
	5	86	94921.88	1294.632	-148.1916	1	1303.086	-6.530008	-1.34423E-005	0.0079045	8
	6	89	75421.88	1311.329	-123.7563	1	1317.155	-5.391305	1.990576E-005	-0.0081754	8
	7	92	59859.37	1333.953	-107.0847	1	1338.244	-4.58965	-6.891712E-006	0.0068624	8
	8	95	47578.12	1361.136	-93.55483	1	1364.347	-3.931921	-1.766991E-005	0.0081659	8
	9	98	37828.12	1376.234	-75.83131	1	1378.322	-3.153842	-1.028636E-005	-0.0013227	8
	10	102	30046.88	1402.469	-63.65778	1	1403.912	-2.598861	3.450334E-006	-0.0061524	8
	11	107	23859.38	1422.029	-52.21704	1	1422.988	-2.102961	-1.530985E-005	0.0009743	8
	12	110	18984.38	1442.12	-45.49407	1	1442.838	-1.806891	-1.339791E-005	0.0081136	8
	13	113	15046.87	1459.537	-38.34209	1	1460.04	-1.504816	9.271195E-006	0.0016078	8
	14	117	11953.13	1478.981	-30.82243	1	1479.302	-1.19389	2.014559E-005	-0.0082023	8
	15	120	9515.62	1494.66	-26.91691	1	1494.903	-1.031712	1.080213E-005	-0.0078555	8
	16	123	7546.875	1513.372	-23.9334	1	1513.561	-0.9060357	1.31626E-006	0.0046784	8
	17	126	5928.309	1533.692	-21.60892	1	1533.844	-0.8072143	-1.851457E-005	0.0026909	8
	18	130	4733.456	1554.818	-18.90109	1	1554.933	-0.69648	1.644663E-005	-0.0084793	8
	19	134	3796.875	1578.889	-14.28762	1	1578.954	-0.5184644	1.622069E-005	-0.0015349	8
	20	139	2987.132	1605.411	-17.5942	1	1605.507	-0.6278972	1.65427E-005	-0.0085364	8
	21	143	2390.625	1627.602	-13.26057	1	1627.656	-0.4667957	2.208875E-005	-0.0072867	8
	22	146	1884.191	1650.524	-17.94596	1	1650.621	-0.6229463	1.642675E-005	-0.0014817	8
	23	150	1516.544	1672.98	-11.30374	1	1673.018	-0.3871217	1.101664E-005	-0.0079533	8
	24	155	1193.986	1698.785	-15.54526	1	1698.856	-0.5242881	2.056328E-005	-0.0083665	8
	25	159	946.5144	1735.1	-27.36198	1	1735.316	-0.9034614	-3.775716E-006	-0.0040196	8
	26	162	751.7689	1737.456	-9.360934	1	1737.481	-0.3086909	2.25908E-005	-0.0073994	8
	27	164	597.4265	1746.342	-31.49024	1	1746.626	-1.033052	-2.220215E-005	0.0064502	8
	28	167	477.4305	1772.37	-27.97079	1	1772.59	-0.9041426	-3.925634E-007	-0.0001311	8
	29	169	376.6741	1787.723	-33.54949	1	1788.038	-1.075121	-3.736762E-007	-0.0001251	8
	30	172	298.2954	1803.528	-40.6328	1	1803.985	-1.290634	-3.886316E-007	-0.0001166	8
	31	174	237.7717	1820.336	-49.38082	1	1821.006	-1.553899	-3.687355E-007	-0.000137	8
	32	176	189.0121	1837.578	-60.44777	1	1838.572	-1.884085	-3.894648E-007	-0.0001098	8
	33	179	150.2404	1855.354	-74.30712	1	1856.841	-2.293477	-4.19814E-007	-0.0001067	8
	34	181	119.1737	1873.902	-91.90335	1	1876.154	-2.807755	-3.775419E-007	-0.0001288	8
	35	184	95.0169	1892.868	-112.6905	1	1896.22	-3.407039	-4.17822E-007	-0.0001227	8
	36	186	75.60484	1913.55	-138.8765	1	1918.583	-4.15098	-3.982377E-007	-0.0001219	8
	37	189	54.50582	1937.113	-187.3245	1	1946.15	-5.523495	-4.071195E-007	-0.0001183	8
	38	191	45.95588	1958.132	-219.6969	1	1970.419	-6.401652	-4.548736E-007	-0.0001218	8
	39	194	37.20238	1980.099	-266.6909	1	1997.979	-7.670756	-4.281921E-007	-9.462633E-005	8
	40	196	30.04808	2004.887	-324.8441	1	2031.033	-9.203431	-4.197877E-007	-0.000123	8
	41	198	23.91582	2030.612	-401.3613	1	2069.898	-11.1807	-3.62217E-007	-0.0001353	8
	42	201	18.60119	2061.97	-506.2902	1	2123.217	-13.79533	-2.986908E-007	-0.0001376	8
	43	203	15.02404	2091.307	-616.3089	1	2180.229	-16.42027	-3.837751E-007	-0.000102	8
	44	205	12.01923	2127.389	-754.0289	1	2257.065	-19.51629	-5.123065E-007	-0.0001328	8
	45	208	9.450605	2168.823	-947.324	1	2366.688	-23.59531	-3.633048E-007	-0.0001118	8
	46	210	7.512019	2216.223	-1169.708	1	2505.965	-27.82481	-3.095502E-007	-0.0001289	8
	47	213	5.978954	2276.361	-1445.761	1	2696.673	-32.42042	-3.782422E-007	-0.00011	8
	48	216	4.734848	2346.836	-1791.376	1	2952.4	-37.35505	-3.600785E-007	-0.0001172	8
	49	219	3.75601	2431.891	-2217.572	1	3291.157	-42.36079	-4.420741E-007	-0.0001289	8
	50	223	3.004808	2530.825	-2720.96	1	3716.006	-47.07343	-4.35904E-007	-9.074232E-005	8
	51	227	2.372217	2667.242	-3387.464	1	4311.507	-51.7836	-6.783926E-008	-3.681553E-005	7
	52	231	1.878005	2818.623	-4208.176	1	5064.917	-56.18595	-8.985482E-008	-0.0001216	7
	53	235	1.512097	2990.505	-5124.763	1	5933.491	-59.73472	-6.827677E-008	-0.0001003	7
	54	241	1.201923	3224.949	-6351.568	1	7123.392	-63.08125	-8.266439E-008	-0.0001373	7
	55	247	0.956633	3510.481	-7838.816	1	8588.977	-65.87559	-8.513053E-008	-0.0006495	7
