EXPLAIN
TAG	EISPOT
TITLE	LABEL	Potentiostatic EIS	Test Identifier
DATE	LABEL	11/20/2021	Date
TIME	LABEL	14:46:14	Time
NOTES	NOTES	1	Notes...
	
PSTAT	PSTAT	REF3000-16137	Potentiostat
VDC	POTEN	0.00000E+000	T	DC Voltage (V)
FREQINIT	QUANT	3.00000E+005	Initial Freq. (Hz)
FREQFINAL	QUANT	1.00000E+000	Final Freq. (Hz)
PTSPERDEC	QUANT	1.00000E+001	Points/decade
VAC	QUANT	5.00000E+001	AC Voltage (mV rms)
AREA	QUANT	1.00000E+000	Sample Area (cm^2)
SPEED	SELECTOR	2	Optimize for:
ZGUESS	QUANT	1.00000E+003	Estimated Z (ohms)
EOC	QUANT	0	Open Circuit (V)
SEQUENCER	TOGGLE	TRUE	Run as Sequence
PSTATMODEL	IQUANT	5	Pstat Model
PSTATSECTION	LABEL	REF3000-16137	Pstat Section
PSTATSERIALNO	LABEL	16137	Pstat Serial Number
CTRLMODE	IQUANT	1	Control Mode
IESTAB	IQUANT	0	I/E Stability
CASPEED	IQUANT	1	Control Amp Speed
CONVENTION	IQUANT	1	Current Convention
ICHRANGE	IQUANT	2	Ich Range
ICHRANGEMODE	TOGGLE	F	Ich Auto Range
ICHOFFSETENABLE	TOGGLE	T	Ich Offset Enable
ICHOFFSET	QUANT	0	Ich Offset (V)
ICHFILTER	IQUANT	3	Ich Filter
VCHRANGE	IQUANT	2	Vch Range
VCHRANGEMODE	TOGGLE	F	Vch Auto Range
VCHOFFSETENABLE	TOGGLE	T	Vch Offset Enable
VCHOFFSET	QUANT	0	Vch Offset (V)
VCHFILTER	IQUANT	3	Vch Filter
ACHRANGE	IQUANT	2	Ach Range
ACHOFFSETENABLE	TOGGLE	F	Ach Offset Enable
ACHOFFSET	QUANT	0	Ach Offset (V)
ACHFILTER	IQUANT	3	Ach Filter
IERANGELOWERLIMIT	IQUANT	2	I/E Range Lower Limit
IERANGEMODE	TOGGLE	F	I/E AutoRange
IERANGE	IQUANT	11	I/E Range
POSFEEDENABLE	TOGGLE	F	Positive Feedback IR Comp
POSFEEDRESISTANCE	QUANT	0	Positive Feedback Resistance (ohm)
ACHSELECT	IQUANT	0	Ach Select
CABLEID	IQUANT	13	Cable ID
DCCALDATE	LABEL	9/10/2021	DC Calibration Date
ACCALDATE	LABEL	9/10/2021	AC Calibration Date
THERMOSELECT	IQUANT	1	Thermo Select
FRAMEWORKVERSION	QUANT	6.33	Framework Version
INSTRUMENTVERSION	LABEL	3.50	Instrument Version
COMPLIANCEVOLTAGE	IQUANT	0	Compliance Voltage
ZCURVE	TABLE
	Pt	Time	Freq	Zreal	Zimag	Zsig	Zmod	Zphz	Idc	Vdc	IERange
	#	s	Hz	ohm	ohm	V	ohm	°	A	V	#
	0	16	300046.9	88.24149	-4427.411	1	4428.291	-88.85821	-8.089896E-005	0.0027224	9
	1	31	238359.4	90.75107	-5494.178	1	5494.928	-89.0537	-6.47986E-005	0.0006455	9
	2	48	189328.1	209.4927	-6853.103	1	6856.304	-88.24907	-7.840934E-005	0.0026587	9
	3	56	150421.9	-266.1372	-8817.395	1	8821.41	-91.72884	-6.464362E-005	0.0007577	9
	4	63	119484.4	243.7837	-10640.16	1	10642.95	-88.68748	2.954943E-006	0.001338	9
	5	78	94921.88	376.4468	-12938.4	1	12943.88	-88.33344	-1.044628E-005	0.0089956	8
	6	86	75421.88	1346.787	-16321.06	1	16376.53	-85.28274	-1.036058E-005	0.0089657	8
	7	95	59859.37	1388.242	-20667.94	1	20714.51	-86.15728	-2.415566E-005	0.0104306	8
	8	104	47578.12	1628.746	-26417.44	1	26467.6	-86.47194	-1.717841E-005	0.000344	8
	9	111	37828.12	3166.183	-33226.05	1	33376.57	-84.55659	6.510403E-006	-0.0082237	8
	10	121	30046.88	5853.623	-41589.17	1	41999.09	-81.98832	-1.281662E-006	0.019968	7
	11	128	23859.38	5680.111	-51978.08	1	52287.52	-83.76352	-1.420651E-006	0.0202908	7
	12	134	18984.38	6296.749	-64776.93	1	65082.25	-84.44791	-1.357917E-006	0.0202245	7
	13	139	15046.87	9996.54	-79949.92	1	80572.46	-82.87301	5.239441E-006	-0.0031411	7
	14	144	11953.13	8339.685	-101612.1	1	101953.7	-85.30804	6.610909E-006	-0.0120286	7
	15	150	9515.62	20574.99	-119253.4	1	121015.3	-80.21103	-1.094471E-005	-0.0024434	8
	16	157	7546.875	21780.52	-157471	1	158970.1	-82.12513	9.31714E-007	0.0139499	7
	17	164	5928.309	18023.89	-191101.6	1	191949.7	-84.61205	-6.337081E-006	0.0255239	7
	18	169	4733.456	31597.56	-237280.8	1	239375.4	-82.41482	3.038857E-006	-0.0245693	7
	19	175	3796.875	49647.61	-315376.7	1	319260.7	-81.05373	-5.690384E-006	0.004455	7
	20	181	2987.132	81863.31	-381379.4	1	390066.5	-77.88525	-7.415254E-006	0.0192864	7
	21	187	2390.625	73756.34	-456206.3	1	462130	-80.81627	-7.449104E-006	0.0193772	7
	22	195	1884.191	1400.114	-561732.5	1	561734.3	-89.85719	-5.04288E-006	0.0257934	7
	23	201	1516.544	65328.07	-687760	1	690855.7	-84.57394	-6.34733E-006	0.0254621	7
	24	208	1193.986	184766.8	-927656.6	1	945878.1	-78.73547	-6.913217E-006	0.0126623	7
	25	215	946.5144	-244966.2	-860109.1	1	894313.2	-105.8974	6.548845E-006	-0.0277276	7
	26	221	751.7689	989722	-578263.6	1	1146272	-30.2964	-3.309934E-006	0.0241937	7
	27	227	597.4265	484210.3	-713220.4	1	862057.4	-55.82714	-5.060954E-006	0.0257196	7
	28	232	477.4305	747277.8	-1964766	1	2102077	-69.17622	-1.097105E-007	-6.090127E-005	7
	29	239	376.6741	1364817	-2293518	1	2668886	-59.24413	-1.093512E-009	-0.000112	5
	30	241	298.2954	1737015	-2652097	1	3170306	-56.77685	-1.179357E-009	-5.233535E-005	5
	31	244	237.7717	2192006	-3002797	1	3717752	-53.871	-1.159484E-009	-5.944612E-005	5
	32	247	189.0121	2779564	-3361954	1	4362191	-50.41706	-1.084932E-009	-8.941549E-005	5
	33	249	150.2404	3496969	-3704261	1	5094148	-46.64885	-1.177125E-009	-1.232345E-005	5
	34	252	119.1737	3978483	-4103162	1	5715266	-45.88385	-1.169034E-009	-5.268066E-005	5
	35	255	95.0169	5086164	-3984717	1	6461195	-38.07666	-1.105183E-009	-0.0001128	5
	36	258	75.60484	5989800	-3984581	1	7194067	-33.63295	-1.131471E-009	-2.54926E-005	5
	37	261	54.50582	7117847	-3745594	1	8043210	-27.7545	-1.076055E-009	-0.0001072	5
	38	264	45.95588	8528390	-2908769	1	9010792	-18.83291	-1.134558E-010	0.0004071	4
	39	267	37.20238	9037013	-2653822	1	9418619	-16.36548	-1.168168E-010	0.0003976	4
	40	269	30.04808	9.527008E+006	-2416514	1	9.828704E+006	-14.23284	-1.233368E-010	0.0004701	4
	41	272	23.91582	1.001436E+007	-2168913	1	1.024654E+007	-12.2204	-1.215674E-010	0.0004345	4
	42	275	18.60119	1.048315E+007	-1864416	1	1.064765E+007	-10.08455	-1.227541E-010	0.0003959	4
	43	277	15.02404	1.081601E+007	-1685435	1	1.094654E+007	-8.857047	-1.17058E-010	0.0004884	4
	44	280	12.01923	1.117346E+007	-1497518	1	1.127336E+007	-7.633552	-1.17812E-010	0.0004916	4
	45	282	9.450605	1.155958E+007	-1307452	1	1.163328E+007	-6.453046	-1.142084E-010	0.0004097	4
	46	285	7.512019	1.194603E+007	-1151859	1	1.200143E+007	-5.507542	-1.254684E-010	0.0004763	4
	47	288	5.978954	1.237888E+007	-1032416	1	1.242185E+007	-4.767517	-1.163169E-010	0.0004889	4
	48	292	4.734848	1.291892E+007	-913422.4	1	1.295117E+007	-4.044326	-1.221824E-010	0.0004662	4
	49	297	3.75601	1.353601E+007	-829456.6	1	1.35614E+007	-3.506572	-1.191081E-010	0.000482	4
	50	303	3.004808	1.426858E+007	-758713.6	1	1.428874E+007	-3.043764	-1.112464E-010	0.0003568	4
	51	309	2.372217	1.497509E+007	-688041.2	1	1.499089E+007	-2.630646	-1.194956E-010	0.0003858	4
	52	313	1.878005	1.558537E+007	-610363.4	1	1.559731E+007	-2.242705	-1.142881E-010	0.0004523	4
	53	318	1.512097	1.629537E+007	-557597.9	1	1.63049E+007	-1.959793	-1.192717E-010	0.0003333	4
	54	323	1.201923	1.716057E+007	-517577	1	1.716838E+007	-1.727564	-1.076173E-010	0.0004606	4
	55	330	0.956633	1.81316E+007	-499036.3	1	1.813846E+007	-1.576555	-1.361793E-010	-0.0001068	4
