EXPLAIN
TAG	EISPOT
TITLE	LABEL	Potentiostatic EIS	Test Identifier
DATE	LABEL	11/20/2021	Date
TIME	LABEL	12:42:37	Time
NOTES	NOTES	1	Notes...
	
PSTAT	PSTAT	REF3000-16137	Potentiostat
VDC	POTEN	0.00000E+000	T	DC Voltage (V)
FREQINIT	QUANT	3.00000E+005	Initial Freq. (Hz)
FREQFINAL	QUANT	1.00000E+000	Final Freq. (Hz)
PTSPERDEC	QUANT	1.00000E+001	Points/decade
VAC	QUANT	5.00000E+001	AC Voltage (mV rms)
AREA	QUANT	1.00000E+000	Sample Area (cm^2)
SPEED	SELECTOR	2	Optimize for:
ZGUESS	QUANT	1.00000E+003	Estimated Z (ohms)
EOC	QUANT	0	Open Circuit (V)
SEQUENCER	TOGGLE	TRUE	Run as Sequence
PSTATMODEL	IQUANT	5	Pstat Model
PSTATSECTION	LABEL	REF3000-16137	Pstat Section
PSTATSERIALNO	LABEL	16137	Pstat Serial Number
CTRLMODE	IQUANT	1	Control Mode
IESTAB	IQUANT	0	I/E Stability
CASPEED	IQUANT	1	Control Amp Speed
CONVENTION	IQUANT	1	Current Convention
ICHRANGE	IQUANT	2	Ich Range
ICHRANGEMODE	TOGGLE	F	Ich Auto Range
ICHOFFSETENABLE	TOGGLE	T	Ich Offset Enable
ICHOFFSET	QUANT	0	Ich Offset (V)
ICHFILTER	IQUANT	3	Ich Filter
VCHRANGE	IQUANT	2	Vch Range
VCHRANGEMODE	TOGGLE	F	Vch Auto Range
VCHOFFSETENABLE	TOGGLE	T	Vch Offset Enable
VCHOFFSET	QUANT	0	Vch Offset (V)
VCHFILTER	IQUANT	3	Vch Filter
ACHRANGE	IQUANT	2	Ach Range
ACHOFFSETENABLE	TOGGLE	F	Ach Offset Enable
ACHOFFSET	QUANT	0	Ach Offset (V)
ACHFILTER	IQUANT	3	Ach Filter
IERANGELOWERLIMIT	IQUANT	2	I/E Range Lower Limit
IERANGEMODE	TOGGLE	F	I/E AutoRange
IERANGE	IQUANT	11	I/E Range
POSFEEDENABLE	TOGGLE	F	Positive Feedback IR Comp
POSFEEDRESISTANCE	QUANT	0	Positive Feedback Resistance (ohm)
ACHSELECT	IQUANT	0	Ach Select
CABLEID	IQUANT	13	Cable ID
DCCALDATE	LABEL	9/10/2021	DC Calibration Date
ACCALDATE	LABEL	9/10/2021	AC Calibration Date
THERMOSELECT	IQUANT	1	Thermo Select
FRAMEWORKVERSION	QUANT	6.33	Framework Version
INSTRUMENTVERSION	LABEL	3.50	Instrument Version
COMPLIANCEVOLTAGE	IQUANT	0	Compliance Voltage
ZCURVE	TABLE
	Pt	Time	Freq	Zreal	Zimag	Zsig	Zmod	Zphz	Idc	Vdc	IERange
	#	s	Hz	ohm	ohm	V	ohm	°	A	V	#
	0	10	300046.9	2.028585	2.255098	1	3.033253	48.02687	-0.0001536	-0.0009867	11
	1	13	238359.4	1.998976	1.749456	1	2.656408	41.19164	3.461991E-005	-0.000478	11
	2	16	189328.1	2.058579	1.209429	1	2.387565	30.43452	-4.528988E-005	-0.0009255	12
	3	20	150421.9	2.036874	0.9011745	1	2.227324	23.86604	-4.024538E-005	-0.0007532	12
	4	24	119484.4	2.000764	0.7436534	1	2.134497	20.38933	6.194256E-005	4.76176E-006	11
	5	26	94921.88	2.022235	0.5192897	1	2.087845	14.40181	-1.786964E-005	0.0001133	11
	6	29	75421.88	2.052095	0.3382675	1	2.079789	9.360464	-4.844138E-005	0.0001475	11
	7	31	59859.37	2.087947	0.1887257	1	2.096459	5.164824	-1.53113E-005	0.0002754	11
	8	34	47578.12	2.12511	0.0658109	1	2.126129	1.773781	-2.835326E-005	0.0003049	11
	9	36	37828.12	2.162045	-0.0383961	1	2.162386	-1.017418	2.527194E-006	0.0003647	11
	10	39	30046.88	2.198475	-0.1298664	1	2.202307	-3.380598	-4.983579E-005	0.0002946	11
	11	41	23859.38	2.232835	-0.2148753	1	2.24315	-5.496892	3.28889E-006	0.0003834	11
	12	44	18984.38	2.265682	-0.2988053	1	2.285301	-7.51299	-4.617578E-005	0.0003527	11
	13	46	15046.87	2.294799	-0.3899077	1	2.327688	-9.64299	-7.611874E-005	0.0003156	11
	14	48	11953.13	2.323849	-0.4916348	1	2.375285	-11.94539	-5.125352E-005	0.0003622	11
	15	50	9515.62	2.351903	-0.6100436	1	2.429732	-14.5411	-5.224071E-005	0.0003578	11
	16	53	7546.875	2.380678	-0.7544832	1	2.497373	-17.58442	-3.761684E-005	0.0003684	11
	17	55	5928.309	2.413642	-0.9398304	1	2.590164	-21.27508	-6.144621E-005	0.0003382	11
	18	57	4733.456	2.449138	-1.152682	1	2.706834	-25.20393	-5.855667E-005	0.0003382	11
	19	60	3796.875	2.490225	-1.408655	1	2.861036	-29.49571	5.371749E-006	0.0004321	11
	20	62	2987.132	2.545102	-1.750722	1	3.089106	-34.52325	-3.703188E-005	0.0003433	11
	21	64	2390.625	2.609302	-2.145455	1	3.378081	-39.42818	-2.143886E-005	0.0004037	11
	22	67	1884.191	2.698398	-2.663475	1	3.791497	-44.62682	-5.971768E-005	0.0003435	11
	23	69	1516.544	2.805647	-3.247047	1	4.291267	-49.17098	1.244164E-005	-0.00013	10
	24	71	1193.986	2.95649	-4.032407	1	5.000113	-53.75179	-2.226089E-006	-0.0001404	10
	25	74	946.5144	3.151707	-4.973024	1	5.887633	-57.63509	-1.164364E-005	-0.0001287	10
	26	76	751.7689	3.402949	-6.113021	1	6.996363	-60.89653	-1.715568E-005	-0.0001302	10
	27	78	597.4265	3.739076	-7.494725	1	8.375655	-63.48565	3.032326E-005	-0.0001118	10
	28	81	477.4305	4.164646	-9.126504	1	10.03182	-65.47163	6.55574E-006	-0.0001128	10
	29	83	376.6741	4.748804	-11.20066	1	12.16577	-67.02426	6.655652E-006	-0.0001145	10
	30	85	298.2954	5.492247	-13.66277	1	14.72535	-68.10054	5.86231E-006	-0.0001089	10
	31	87	237.7717	6.410394	-16.52231	1	17.7223	-68.79454	6.076306E-006	-0.0001156	10
	32	90	189.0121	7.578328	-19.96919	1	21.35883	-69.2182	6.558429E-006	-0.000116	10
	33	92	150.2404	9.033312	-24.06347	1	25.70313	-69.4241	5.406808E-006	-0.000119	10
	34	95	119.1737	10.84404	-28.97708	1	30.93969	-69.48273	5.305748E-006	-0.0001122	10
	35	97	95.0169	12.99718	-34.66267	1	37.01929	-69.44587	5.179827E-006	-0.0001116	10
	36	100	75.60484	15.5987	-41.42687	1	44.26629	-69.36685	5.63914E-006	-0.0001325	9
	37	102	54.50582	20.30335	-53.50193	1	57.22484	-69.21883	5.416599E-006	-0.0001359	9
	38	105	45.95588	23.34297	-61.18629	1	65.48784	-69.11782	5.881853E-006	-0.0001289	9
	39	107	37.20238	27.8405	-72.25927	1	77.43704	-68.92902	5.570387E-006	-0.0001317	9
	40	109	30.04808	33.53684	-85.54996	1	91.88861	-68.59409	5.487968E-006	-0.0001663	9
	41	112	23.91582	41.24277	-102.2881	1	110.2897	-68.0406	4.686612E-006	-0.0001313	9
	42	114	18.60119	52.66219	-124.3421	1	135.0343	-67.04605	5.382884E-006	-0.0001273	9
	43	116	15.02404	65.40815	-146.1257	1	160.0966	-65.88596	5.622578E-006	-0.0001201	9
	44	119	12.01923	82.73425	-171.7726	1	190.6588	-64.28221	4.726946E-006	-0.0001294	9
	45	121	9.450605	107.0048	-202.4757	1	229.0118	-62.14434	4.341758E-006	-0.0001289	9
	46	124	7.512019	136.5916	-234.0582	1	270.9991	-59.73303	5.232373E-006	-0.0001379	9
	47	126	5.978954	173.2211	-266.304	1	317.6844	-56.95746	5.344953E-006	-0.0001653	9
	48	129	4.734848	218.631	-298.9333	1	370.3521	-53.81936	4.948756E-006	-0.000131	9
	49	133	3.75601	270.0059	-327.2541	1	424.2622	-50.47515	5.306284E-006	-0.0001233	8
	50	136	3.004808	326.3579	-351.717	1	479.8065	-47.14179	4.784032E-006	-9.234918E-005	8
	51	140	2.372217	392.0721	-372.4149	1	540.7527	-43.52708	5.34005E-006	-5.552789E-005	8
	52	144	1.878005	459.3803	-385.6306	1	599.7844	-40.01206	5.004419E-006	-0.0001492	8
	53	149	1.512097	522.4202	-393.3741	1	653.9618	-36.97917	5.019386E-006	-0.000116	8
	54	154	1.201923	590.4015	-396.6276	1	711.2576	-33.89293	5.259927E-006	-0.0001572	8
	55	160	0.956633	656.2417	-395.6281	1	766.2733	-31.0845	4.565293E-006	-0.0006661	8
