EXPLAIN
TAG	EISPOT
TITLE	LABEL	Potentiostatic EIS	Test Identifier
DATE	LABEL	11/20/2021	Date
TIME	LABEL	13:33:30	Time
NOTES	NOTES	1	Notes...
	
PSTAT	PSTAT	REF3000-16137	Potentiostat
VDC	POTEN	0.00000E+000	T	DC Voltage (V)
FREQINIT	QUANT	3.00000E+005	Initial Freq. (Hz)
FREQFINAL	QUANT	1.00000E+000	Final Freq. (Hz)
PTSPERDEC	QUANT	1.00000E+001	Points/decade
VAC	QUANT	5.00000E+001	AC Voltage (mV rms)
AREA	QUANT	1.00000E+000	Sample Area (cm^2)
SPEED	SELECTOR	2	Optimize for:
ZGUESS	QUANT	1.00000E+003	Estimated Z (ohms)
EOC	QUANT	0	Open Circuit (V)
SEQUENCER	TOGGLE	TRUE	Run as Sequence
PSTATMODEL	IQUANT	5	Pstat Model
PSTATSECTION	LABEL	REF3000-16137	Pstat Section
PSTATSERIALNO	LABEL	16137	Pstat Serial Number
CTRLMODE	IQUANT	1	Control Mode
IESTAB	IQUANT	0	I/E Stability
CASPEED	IQUANT	1	Control Amp Speed
CONVENTION	IQUANT	1	Current Convention
ICHRANGE	IQUANT	2	Ich Range
ICHRANGEMODE	TOGGLE	F	Ich Auto Range
ICHOFFSETENABLE	TOGGLE	T	Ich Offset Enable
ICHOFFSET	QUANT	0	Ich Offset (V)
ICHFILTER	IQUANT	3	Ich Filter
VCHRANGE	IQUANT	2	Vch Range
VCHRANGEMODE	TOGGLE	F	Vch Auto Range
VCHOFFSETENABLE	TOGGLE	T	Vch Offset Enable
VCHOFFSET	QUANT	0	Vch Offset (V)
VCHFILTER	IQUANT	3	Vch Filter
ACHRANGE	IQUANT	2	Ach Range
ACHOFFSETENABLE	TOGGLE	F	Ach Offset Enable
ACHOFFSET	QUANT	0	Ach Offset (V)
ACHFILTER	IQUANT	3	Ach Filter
IERANGELOWERLIMIT	IQUANT	2	I/E Range Lower Limit
IERANGEMODE	TOGGLE	F	I/E AutoRange
IERANGE	IQUANT	11	I/E Range
POSFEEDENABLE	TOGGLE	F	Positive Feedback IR Comp
POSFEEDRESISTANCE	QUANT	0	Positive Feedback Resistance (ohm)
ACHSELECT	IQUANT	0	Ach Select
CABLEID	IQUANT	13	Cable ID
DCCALDATE	LABEL	9/10/2021	DC Calibration Date
ACCALDATE	LABEL	9/10/2021	AC Calibration Date
THERMOSELECT	IQUANT	1	Thermo Select
FRAMEWORKVERSION	QUANT	6.33	Framework Version
INSTRUMENTVERSION	LABEL	3.50	Instrument Version
COMPLIANCEVOLTAGE	IQUANT	0	Compliance Voltage
ZCURVE	TABLE
	Pt	Time	Freq	Zreal	Zimag	Zsig	Zmod	Zphz	Idc	Vdc	IERange
	#	s	Hz	ohm	ohm	V	ohm	°	A	V	#
	0	9	300046.9	6.228438	2.302099	1	6.640263	20.28486	-9.324948E-005	-0.000849	10
	1	13	238359.4	6.20615	1.812908	1	6.465518	16.28386	-5.186901E-005	-0.0007533	10
	2	16	189328.1	6.186624	1.424232	1	6.348444	12.96427	-8.872803E-005	-0.0006805	10
	3	18	150421.9	6.192798	1.105494	1	6.290696	10.12142	-4.484988E-005	-0.0002727	10
	4	21	119484.4	6.182644	0.8441542	1	6.240006	7.774868	2.134112E-005	-0.0003168	10
	5	23	94921.88	6.19393	0.6442216	1	6.227342	5.937901	-4.671153E-006	-0.00028	10
	6	26	75421.88	6.203644	0.4589428	1	6.220597	4.231008	2.278094E-005	-0.0002443	10
	7	28	59859.37	6.219502	0.2993801	1	6.226703	2.755845	2.026591E-005	-0.0001791	10
	8	31	47578.12	6.238186	0.15971	1	6.24023	1.466566	2.394214E-005	-0.0001688	10
	9	33	37828.12	6.25965	0.0333979	1	6.259739	0.3056949	2.261494E-005	-0.0001676	10
	10	36	30046.88	6.285861	-0.0856259	1	6.286444	-0.7804341	-1.81299E-007	-0.0001529	10
	11	38	23859.38	6.313616	-0.2030782	1	6.316881	-1.84229	-1.417698E-005	-0.0000957	10
	12	41	18984.38	6.340513	-0.3244478	1	6.348808	-2.929304	-1.076488E-006	-0.0001358	10
	13	43	15046.87	6.37011	-0.4594606	1	6.386658	-4.125462	-1.789625E-005	-0.0001494	10
	14	45	11953.13	6.404198	-0.6099863	1	6.433182	-5.440888	2.360664E-005	-0.0001198	10
	15	48	9515.62	6.43815	-0.7834253	1	6.48564	-6.937919	1.333249E-005	-0.0001505	10
	16	50	7546.875	6.47828	-0.992708	1	6.553898	-8.71203	2.041784E-005	-0.0001274	10
	17	52	5928.309	6.523977	-1.259645	1	6.64447	-10.92815	1.300825E-005	-0.0001349	10
	18	54	4733.456	6.573782	-1.562837	1	6.757002	-13.37312	-2.571199E-005	-0.0001194	10
	19	57	3796.875	6.628392	-1.926552	1	6.902694	-16.20658	1.286845E-005	-0.0001414	10
	20	59	2987.132	6.698349	-2.411207	1	7.119115	-19.79737	-2.322941E-005	-0.0001198	10
	21	61	2390.625	6.775673	-2.970871	1	7.398366	-23.67559	-1.880788E-005	-0.0001441	10
	22	64	1884.191	6.875087	-3.705096	1	7.809901	-28.32094	2.425035E-005	-0.0001205	10
	23	66	1516.544	6.988575	-4.533761	1	8.330377	-32.97305	-2.337624E-005	-0.0001141	10
	24	68	1193.986	7.139657	-5.658954	1	9.110349	-38.40065	6.368034E-006	-0.000139	10
	25	71	946.5144	7.319263	-7.02554	1	10.14543	-43.82698	-2.915627E-005	-0.0001412	10
	26	73	751.7689	7.548479	-8.692082	1	11.51225	-49.02792	-1.513068E-005	-0.0001716	10
	27	75	597.4265	7.836298	-10.75234	1	13.3049	-53.91547	-1.1039E-005	-0.0001324	10
	28	78	477.4305	8.195264	-13.24375	1	15.57431	-58.25067	-1.39806E-007	-0.0001178	10
	29	80	376.6741	8.678998	-16.48639	1	18.63132	-62.23616	-4.479518E-007	-0.0001138	10
	30	82	298.2954	9.298326	-20.4486	1	22.46339	-65.5479	-5.173881E-007	-0.0001099	10
	31	85	237.7717	10.08572	-25.1969	1	27.14047	-68.18496	-6.960165E-007	-0.0001137	10
	32	87	189.0121	11.13355	-31.1091	1	33.04137	-70.30836	-1.36626E-006	-0.0001153	10
	33	89	150.2404	12.5145	-38.36141	1	40.35109	-71.93231	-1.643708E-006	-0.0001127	10
	34	92	119.1737	14.3422	-47.27372	1	49.40145	-73.12292	5.259811E-007	-0.0001304	9
	35	94	95.0169	16.72264	-57.94796	1	60.31263	-73.9029	4.466455E-007	-0.0001288	9
	36	97	75.60484	19.88171	-71.01607	1	73.74662	-74.35984	4.121342E-007	-0.0001333	9
	37	99	54.50582	26.15162	-94.56907	1	98.1184	-74.54204	3.483415E-007	-0.0001357	9
	38	102	45.95588	30.47448	-109.588	1	113.7463	-74.45969	5.549933E-007	-0.0001364	9
	39	104	37.20238	37.03403	-131.141	1	136.2699	-74.23039	5.530029E-007	-0.0001379	9
	40	106	30.04808	45.31708	-156.8796	1	163.2937	-73.88783	4.860145E-007	-0.0001348	9
	41	109	23.91582	56.27907	-189.2727	1	197.4627	-73.44048	5.689772E-007	-0.0001303	9
	42	111	18.60119	71.39727	-232.1334	1	242.8652	-72.90367	3.789926E-007	-0.0001251	9
	43	113	15.02404	87.09218	-275.4015	1	288.8443	-72.45111	4.358474E-007	-0.0001334	9
	44	116	12.01923	106.7971	-328.561	1	345.4822	-71.9935	6.358566E-007	-0.000129	9
	45	118	9.450605	132.1514	-396.9929	1	418.4105	-71.58838	7.155434E-007	-0.0001337	9
	46	121	7.512019	160.3193	-473.5614	1	499.9627	-71.297	6.917448E-007	-0.0001036	8
	47	123	5.978954	194.9375	-567.2806	1	599.8399	-71.03548	5.383812E-007	-0.0001225	8
	48	126	4.734848	238.1845	-683.6911	1	723.9927	-70.79267	6.759814E-007	-0.000108	8
	49	130	3.75601	292.7516	-822.7583	1	873.2896	-70.41356	4.643093E-007	-0.0001232	8
	50	133	3.004808	360.0043	-983.124	1	1046.965	-69.88808	6.554112E-007	-0.0001521	8
	51	137	2.372217	452.1732	-1185.853	1	1269.137	-69.12784	5.235801E-007	-0.0001655	8
	52	141	1.878005	575.0983	-1421.986	1	1533.878	-67.97996	5.472963E-007	-0.000108	8
	53	146	1.512097	722.0428	-1674.23	1	1823.291	-66.67097	5.814923E-007	-0.0002172	8
	54	151	1.201923	921.0336	-1981.505	1	2185.101	-65.07028	5.099452E-007	-0.0000977	8
	55	157	0.956633	1171.766	-2321.23	1	2600.22	-63.21518	4.30379E-007	-0.0006645	8
