EXPLAIN
TAG	EISPOT
TITLE	LABEL	Potentiostatic EIS	Test Identifier
DATE	LABEL	11/20/2021	Date
TIME	LABEL	13:25:07	Time
NOTES	NOTES	1	Notes...
	
PSTAT	PSTAT	REF3000-16137	Potentiostat
VDC	POTEN	0.00000E+000	T	DC Voltage (V)
FREQINIT	QUANT	3.00000E+005	Initial Freq. (Hz)
FREQFINAL	QUANT	1.00000E+000	Final Freq. (Hz)
PTSPERDEC	QUANT	1.00000E+001	Points/decade
VAC	QUANT	5.00000E+001	AC Voltage (mV rms)
AREA	QUANT	1.00000E+000	Sample Area (cm^2)
SPEED	SELECTOR	2	Optimize for:
ZGUESS	QUANT	1.00000E+003	Estimated Z (ohms)
EOC	QUANT	0	Open Circuit (V)
SEQUENCER	TOGGLE	TRUE	Run as Sequence
PSTATMODEL	IQUANT	5	Pstat Model
PSTATSECTION	LABEL	REF3000-16137	Pstat Section
PSTATSERIALNO	LABEL	16137	Pstat Serial Number
CTRLMODE	IQUANT	1	Control Mode
IESTAB	IQUANT	0	I/E Stability
CASPEED	IQUANT	1	Control Amp Speed
CONVENTION	IQUANT	1	Current Convention
ICHRANGE	IQUANT	2	Ich Range
ICHRANGEMODE	TOGGLE	F	Ich Auto Range
ICHOFFSETENABLE	TOGGLE	T	Ich Offset Enable
ICHOFFSET	QUANT	0	Ich Offset (V)
ICHFILTER	IQUANT	3	Ich Filter
VCHRANGE	IQUANT	2	Vch Range
VCHRANGEMODE	TOGGLE	F	Vch Auto Range
VCHOFFSETENABLE	TOGGLE	T	Vch Offset Enable
VCHOFFSET	QUANT	0	Vch Offset (V)
VCHFILTER	IQUANT	3	Vch Filter
ACHRANGE	IQUANT	2	Ach Range
ACHOFFSETENABLE	TOGGLE	F	Ach Offset Enable
ACHOFFSET	QUANT	0	Ach Offset (V)
ACHFILTER	IQUANT	3	Ach Filter
IERANGELOWERLIMIT	IQUANT	2	I/E Range Lower Limit
IERANGEMODE	TOGGLE	F	I/E AutoRange
IERANGE	IQUANT	11	I/E Range
POSFEEDENABLE	TOGGLE	F	Positive Feedback IR Comp
POSFEEDRESISTANCE	QUANT	0	Positive Feedback Resistance (ohm)
ACHSELECT	IQUANT	0	Ach Select
CABLEID	IQUANT	13	Cable ID
DCCALDATE	LABEL	9/10/2021	DC Calibration Date
ACCALDATE	LABEL	9/10/2021	AC Calibration Date
THERMOSELECT	IQUANT	1	Thermo Select
FRAMEWORKVERSION	QUANT	6.33	Framework Version
INSTRUMENTVERSION	LABEL	3.50	Instrument Version
COMPLIANCEVOLTAGE	IQUANT	0	Compliance Voltage
ZCURVE	TABLE
	Pt	Time	Freq	Zreal	Zimag	Zsig	Zmod	Zphz	Idc	Vdc	IERange
	#	s	Hz	ohm	ohm	V	ohm	°	A	V	#
	0	10	300046.9	4.505164	2.299043	1	5.057876	27.0358	3.062204E-005	-0.0009938	10
	1	13	238359.4	4.461157	1.817314	1	4.81711	22.16421	6.929369E-005	-0.0013091	10
	2	16	189328.1	4.437028	1.429937	1	4.661753	17.86275	-3.003137E-005	-0.000826	10
	3	19	150421.9	4.432519	1.092273	1	4.565116	13.84317	4.069885E-005	-0.0005297	10
	4	21	119484.4	4.435415	0.8409566	1	4.514434	10.73587	1.01951E-005	-0.000443	10
	5	24	94921.88	4.442584	0.6318232	1	4.487288	8.094311	3.471989E-006	-0.0003465	10
	6	26	75421.88	4.454166	0.4474942	1	4.476589	5.737052	1.294081E-005	-0.0003085	10
	7	29	59859.37	4.467721	0.287845	1	4.476985	3.68634	2.745402E-005	-0.0002379	10
	8	31	47578.12	4.48577	0.1509526	1	4.488309	1.927358	-1.62158E-005	-0.0002171	10
	9	34	37828.12	4.508652	0.0270236	1	4.508733	0.3434107	-6.947025E-006	-0.0001503	10
	10	36	30046.88	4.531701	-0.0895054	1	4.532585	-1.131499	-1.716649E-005	-0.0001776	10
	11	39	23859.38	4.558754	-0.2025245	1	4.563251	-2.543716	-1.988475E-006	-0.0001226	10
	12	41	18984.38	4.585434	-0.31773	1	4.596429	-3.963755	2.549449E-005	-0.0001276	10
	13	43	15046.87	4.613822	-0.4431473	1	4.635054	-5.486303	-1.162436E-005	-0.0001275	10
	14	46	11953.13	4.64193	-0.5833364	1	4.67844	-7.162629	1.663193E-005	-0.0001606	10
	15	48	9515.62	4.672826	-0.7451905	1	4.731872	-9.060844	2.158236E-005	-0.0001376	10
	16	50	7546.875	4.707896	-0.9412768	1	4.801071	-11.30639	-8.829227E-006	-0.0001061	10
	17	53	5928.309	4.74632	-1.189761	1	4.893167	-14.07237	2.243698E-005	-0.0001291	10
	18	55	4733.456	4.788725	-1.473677	1	5.01035	-17.10517	-4.104567E-006	-0.0001246	10
	19	57	3796.875	4.837366	-1.81198	1	5.165596	-20.53494	1.88694E-005	-0.0001401	10
	20	60	2987.132	4.89992	-2.268848	1	5.399712	-24.84592	-2.428398E-005	-0.0001204	10
	21	62	2390.625	4.969216	-2.793063	1	5.700378	-29.33917	-4.339509E-006	-0.0001482	10
	22	64	1884.191	5.061165	-3.483401	1	6.14406	-34.53811	-1.281697E-005	-0.0001269	10
	23	67	1516.544	5.164478	-4.259563	1	6.694454	-39.51516	-2.269975E-005	-0.0001244	10
	24	69	1193.986	5.307175	-5.316794	1	7.512284	-45.05188	-1.537459E-005	-0.0001746	10
	25	71	946.5144	5.478375	-6.59788	1	8.575816	-50.29635	-1.294978E-005	-0.0001403	10
	26	74	751.7689	5.702711	-8.162022	1	9.95688	-55.05844	7.369229E-006	-0.0001369	10
	27	76	597.4265	5.987547	-10.09669	1	11.73857	-59.33119	-2.696584E-005	-0.0001241	10
	28	78	477.4305	6.35771	-12.42676	1	13.95869	-62.90506	-5.798768E-007	-0.0001192	10
	29	81	376.6741	6.859148	-15.45479	1	16.90853	-66.06738	3.150154E-007	-0.0001253	10
	30	83	298.2954	7.51392	-19.14218	1	20.5641	-68.5684	-7.691113E-007	-0.0001223	10
	31	85	237.7717	8.354746	-23.54403	1	24.98245	-70.46245	-8.807049E-007	-0.0001217	10
	32	88	189.0121	9.480942	-28.99303	1	30.50383	-71.89186	-1.53384E-006	-0.0001167	10
	33	90	150.2404	10.96867	-35.63118	1	37.28127	-72.8896	-1.164848E-006	-0.0001183	10
	34	92	119.1737	12.93613	-43.72485	1	45.59831	-73.51899	9.77897E-007	-0.0001725	9
	35	95	95.0169	15.4709	-53.33639	1	55.53485	-73.82452	4.921218E-007	-0.0001328	9
	36	97	75.60484	18.77944	-64.99095	1	67.64977	-73.8831	4.052636E-007	-0.0001348	9
	37	100	54.50582	25.19575	-85.7766	1	89.40051	-73.63054	3.871138E-007	-0.0001355	9
	38	102	45.95588	29.5075	-98.9007	1	103.2087	-73.38728	6.871774E-007	-0.0001325	9
	39	105	37.20238	35.90338	-117.6273	1	122.9847	-73.02624	4.409998E-007	-0.0001319	9
	40	107	30.04808	43.8136	-139.8332	1	146.5366	-72.60279	2.842079E-007	-0.0001333	9
	41	110	23.91582	54.16523	-167.9368	1	176.4557	-72.12375	4.100837E-007	-0.000136	9
	42	112	18.60119	67.8484	-204.7255	1	215.6755	-71.6642	2.418944E-007	-0.0001293	9
	43	114	15.02404	81.92384	-242.0859	1	255.5721	-71.30376	5.340581E-007	-0.0001402	9
	44	116	12.01923	99.353	-288.4731	1	305.1028	-70.99579	4.745172E-007	-0.0001361	9
	45	119	9.450605	122.3022	-348.7035	1	369.5294	-70.67249	3.494899E-007	-0.0001374	9
	46	121	7.512019	148.5209	-416.7815	1	442.4537	-70.38638	6.726293E-007	-0.0001376	8
	47	124	5.978954	182.4874	-499.4825	1	531.7748	-69.93007	7.92677E-007	-0.0001206	8
	48	127	4.734848	227.6006	-601.2028	1	642.8428	-69.26456	7.19092E-007	-0.0001054	8
	49	130	3.75601	285.6349	-720.6339	1	775.1777	-68.3783	5.340306E-007	-0.0001296	8
	50	134	3.004808	358.4958	-854.5789	1	926.7278	-67.24196	4.341853E-007	-8.918133E-005	8
	51	137	2.372217	460.8019	-1017.982	1	1117.419	-65.64553	5.570428E-007	-3.665361E-005	8
	52	142	1.878005	589.3532	-1200.376	1	1337.251	-63.85017	4.016106E-007	-0.0001297	8
	53	146	1.512097	738.342	-1383.733	1	1568.396	-61.91619	4.394101E-007	-0.0001126	8
	54	152	1.201923	938.8718	-1595.777	1	1851.482	-59.52967	4.740741E-007	-0.0001395	8
	55	158	0.956633	1177.72	-1813.906	1	2162.702	-57.00542	3.541092E-007	-0.0006896	8
