Z60W Data File: Version 1.1
CorrTest for Windows: SN CS310H1805157  V5.2.1111.9  2.5H6.220118
Sweep Frequency: Control Voltage
  Date:5-1-2026   Time:09:17:20
  Begin Information:            Cell Information
      Surface Area:           1
      Density:                7.8
      Weight:                 28
  End Information:              Cell Information
  Freq (Hz)     Ampl(mV)       Bias(V)      Time(Sec)       Z'(Ohm.cm^2)    Z''(Ohm.cm^2)        GD       Err      Range
End Comments
  3.07200E+05,	1.00000E+01,	1.15404E-03,	4.57749E-02,	9.63802E-01,	4.85880E+00,	0.00000E+00,	0,	0
  2.76480E+05,	1.00000E+01,	1.15404E-03,	1.64962E+00,	1.55757E+00,	3.78102E+00,	0.00000E+00,	0,	0
  1.97486E+05,	1.00000E+01,	1.15404E-03,	2.56156E+00,	2.42155E+00,	2.64298E+00,	0.00000E+00,	0,	0
  1.53600E+05,	1.00000E+01,	1.15404E-03,	3.46302E+00,	2.76414E+00,	1.94732E+00,	0.00000E+00,	0,	0
  1.25673E+05,	1.00000E+01,	1.15404E-03,	4.36670E+00,	2.99169E+00,	1.52274E+00,	0.00000E+00,	0,	0
  9.87429E+04,	1.00000E+01,	1.15404E-03,	5.29853E+00,	3.16726E+00,	1.12077E+00,	0.00000E+00,	0,	0
  7.68000E+04,	1.00000E+01,	1.15404E-03,	6.20290E+00,	3.29157E+00,	8.08269E-01,	0.00000E+00,	0,	0
  6.01043E+04,	1.00000E+01,	1.15404E-03,	9.42701E+00,	3.39271E+00,	4.87197E-01,	0.00000E+00,	0,	0
  4.93714E+04,	1.00000E+01,	1.15404E-03,	1.10173E+01,	3.42495E+00,	3.02961E-01,	0.00000E+00,	0,	0
  3.84000E+04,	1.00000E+01,	1.15404E-03,	1.19590E+01,	3.45309E+00,	8.84687E-02,	0.00000E+00,	0,	0
  3.00522E+04,	1.00000E+01,	1.15404E-03,	1.28305E+01,	3.48817E+00,	-1.02749E-01,	0.00000E+00,	0,	0
  2.38345E+04,	1.00000E+01,	1.15404E-03,	1.37235E+01,	3.51744E+00,	-2.83034E-01,	0.00000E+00,	0,	0
  1.86811E+04,	1.00000E+01,	1.15404E-03,	1.45787E+01,	3.55317E+00,	-4.80667E-01,	0.00000E+00,	0,	0
  1.47064E+04,	1.00000E+01,	1.15404E-03,	1.55627E+01,	3.59647E+00,	-6.87218E-01,	0.00000E+00,	0,	0
  1.15200E+04,	1.00000E+01,	1.15404E-03,	1.65324E+01,	3.65269E+00,	-9.22626E-01,	0.00000E+00,	0,	0
  9.60000E+03,	1.00000E+01,	1.15404E-03,	1.81294E+01,	3.69864E+00,	-1.11965E+00,	0.00000E+00,	0,	0
  7.51304E+03,	1.00000E+01,	1.15404E-03,	1.90183E+01,	3.77295E+00,	-1.42399E+00,	0.00000E+00,	0,	0
  5.76000E+03,	1.00000E+01,	1.15404E-03,	1.99588E+01,	3.85638E+00,	-1.82732E+00,	0.00000E+00,	0,	0
  4.54737E+03,	1.00000E+01,	1.15404E-03,	2.08600E+01,	3.96072E+00,	-2.25644E+00,	0.00000E+00,	0,	0
  3.60000E+03,	1.00000E+01,	1.15404E-03,	2.18869E+01,	4.06731E+00,	-2.78253E+00,	0.00000E+00,	0,	0
  2.88000E+03,	1.00000E+01,	1.15404E-03,	2.28250E+01,	4.19641E+00,	-3.37503E+00,	0.00000E+00,	0,	0
  2.27368E+03,	1.00000E+01,	1.15404E-03,	2.51527E+01,	4.12902E+00,	-4.12098E+00,	0.00000E+00,	0,	0
  1.78144E+03,	1.00000E+01,	1.15404E-03,	2.59754E+01,	4.32286E+00,	-5.09225E+00,	0.00000E+00,	0,	0
  1.41639E+03,	1.00000E+01,	1.15404E-03,	2.68707E+01,	4.53050E+00,	-6.21199E+00,	0.00000E+00,	0,	0
  1.12208E+03,	1.00000E+01,	1.15404E-03,	2.79073E+01,	4.77832E+00,	-7.60987E+00,	0.00000E+00,	0,	0
  9.00000E+02,	1.00000E+01,	1.15404E-03,	3.29116E+01,	5.08721E+00,	-9.27827E+00,	0.00000E+00,	0,	0
  7.20000E+02,	1.00000E+01,	1.15404E-03,	3.43281E+01,	5.42749E+00,	-1.12960E+01,	0.00000E+00,	0,	0
  5.68421E+02,	1.00000E+01,	1.15404E-03,	3.57385E+01,	5.84400E+00,	-1.39452E+01,	0.00000E+00,	0,	0
  4.40816E+02,	1.00000E+01,	1.15404E-03,	3.87749E+01,	6.40763E+00,	-1.75400E+01,	0.00000E+00,	0,	0
  3.54098E+02,	1.00000E+01,	1.15404E-03,	4.11446E+01,	6.96989E+00,	-2.13542E+01,	0.00000E+00,	0,	0
  2.76923E+02,	1.00000E+01,	1.15404E-03,	4.38090E+01,	7.74703E+00,	-2.66365E+01,	0.00000E+00,	0,	0
  2.20408E+02,	1.00000E+01,	1.15404E-03,	4.67516E+01,	8.61877E+00,	-3.27491E+01,	0.00000E+00,	0,	0
  1.74194E+02,	1.00000E+01,	1.15404E-03,	5.00050E+01,	9.71630E+00,	-4.05284E+01,	0.00000E+00,	0,	0
  1.37580E+02,	1.00000E+01,	1.15404E-03,	5.36658E+01,	1.10750E+01,	-5.02218E+01,	0.00000E+00,	0,	0
  1.09091E+02,	1.00000E+01,	1.15404E-03,	5.77491E+01,	1.26944E+01,	-6.20538E+01,	0.00000E+00,	0,	0
  8.70968E+01,	1.00000E+01,	1.15404E-03,	6.34730E+01,	1.45822E+01,	-7.63049E+01,	0.00000E+00,	0,	0
  6.83544E+01,	1.00000E+01,	1.15404E-03,	6.85025E+01,	1.70824E+01,	-9.57593E+01,	0.00000E+00,	0,	0
  5.45455E+01,	1.00000E+01,	1.15404E-03,	7.39727E+01,	2.06417E+01,	-1.15998E+02,	0.00000E+00,	0,	0
  4.28571E+01,	1.00000E+01,	1.15404E-03,	7.75154E+01,	2.47731E+01,	-1.44394E+02,	0.00000E+00,	0,	0
  3.39623E+01,	1.00000E+01,	1.15404E-03,	8.12764E+01,	2.86009E+01,	-1.77989E+02,	0.00000E+00,	0,	0
  2.68657E+01,	1.00000E+01,	1.15404E-03,	8.51382E+01,	3.50001E+01,	-2.21042E+02,	0.00000E+00,	0,	0
  2.13439E+01,	1.00000E+01,	1.15404E-03,	8.89913E+01,	4.27420E+01,	-2.72823E+02,	0.00000E+00,	0,	0
  1.73077E+01,	1.00000E+01,	1.15404E-03,	9.56767E+01,	5.13807E+01,	-3.30853E+02,	0.00000E+00,	0,	0
  1.36364E+01,	1.00000E+01,	1.15404E-03,	1.00726E+02,	6.32757E+01,	-4.10881E+02,	0.00000E+00,	0,	0
  1.07143E+01,	1.00000E+01,	1.15404E-03,	1.03662E+02,	7.82796E+01,	-5.11471E+02,	0.00000E+00,	0,	0
  8.49057E+00,	1.00000E+01,	1.15404E-03,	1.07880E+02,	9.63262E+01,	-6.32070E+02,	0.00000E+00,	0,	0
  6.71642E+00,	1.00000E+01,	1.15404E-03,	1.10390E+02,	1.18952E+02,	-7.82112E+02,	0.00000E+00,	0,	0
  5.29412E+00,	1.00000E+01,	1.15404E-03,	1.13319E+02,	1.48017E+02,	-9.70234E+02,	0.00000E+00,	0,	0
  4.16667E+00,	1.00000E+01,	1.15404E-03,	1.16808E+02,	1.84570E+02,	-1.20581E+03,	0.00000E+00,	0,	0
  3.30882E+00,	1.00000E+01,	1.15404E-03,	1.23369E+02,	2.27977E+02,	-1.48390E+03,	0.00000E+00,	0,	0
  2.61628E+00,	1.00000E+01,	1.15404E-03,	1.27343E+02,	2.84786E+02,	-1.83480E+03,	0.00000E+00,	0,	0
  2.07373E+00,	1.00000E+01,	1.15404E-03,	1.32133E+02,	3.54069E+02,	-2.26334E+03,	0.00000E+00,	0,	0
  1.64234E+00,	1.00000E+01,	1.15404E-03,	1.37931E+02,	4.40647E+02,	-2.79340E+03,	0.00000E+00,	0,	0
  1.30058E+00,	1.00000E+01,	1.15404E-03,	1.42102E+02,	5.52745E+02,	-3.44655E+03,	0.00000E+00,	0,	0
  1.03211E+00,	1.00000E+01,	1.15404E-03,	1.46511E+02,	6.89355E+02,	-4.24439E+03,	0.00000E+00,	0,	0
  8.15217E-01,	1.00000E+01,	1.15404E-03,	1.53467E+02,	8.63169E+02,	-5.24171E+03,	0.00000E+00,	0,	0
  6.46552E-01,	1.00000E+01,	1.15404E-03,	1.58307E+02,	1.08020E+03,	-6.45280E+03,	0.00000E+00,	0,	0
  5.11364E-01,	1.00000E+01,	1.15404E-03,	1.63326E+02,	1.31458E+03,	-7.96713E+03,	0.00000E+00,	0,	0
  4.07609E-01,	1.00000E+01,	1.15404E-03,	1.69391E+02,	1.64525E+03,	-9.76273E+03,	0.00000E+00,	0,	0
  3.21429E-01,	1.00000E+01,	1.15404E-03,	1.76526E+02,	2.07188E+03,	-1.21501E+04,	0.00000E+00,	0,	0
  2.54525E-01,	1.00000E+01,	1.15404E-03,	1.85339E+02,	2.63878E+03,	-1.49494E+04,	0.00000E+00,	0,	0
  2.01613E-01,	1.00000E+01,	1.15404E-03,	1.96219E+02,	3.35269E+03,	-1.83989E+04,	0.00000E+00,	0,	0
  1.59574E-01,	1.00000E+01,	1.15404E-03,	2.09708E+02,	4.27905E+03,	-2.26293E+04,	0.00000E+00,	0,	0
  1.26689E-01,	1.00000E+01,	1.15404E-03,	2.43589E+02,	5.51825E+03,	-2.74940E+04,	0.00000E+00,	0,	0
  1.00446E-01,	1.00000E+01,	1.15404E-03,	2.64467E+02,	6.90836E+03,	-3.41547E+04,	0.00000E+00,	0,	0