Z60W Data File: Version 1.1
CorrTest for Windows: SN CS310H1805157  V5.2.1111.9  2.5H6.220118
Sweep Frequency: Control Voltage
  Date:5-1-2026   Time:09:06:33
  Begin Information:            Cell Information
      Surface Area:           1
      Density:                7.8
      Weight:                 28
  End Information:              Cell Information
  Freq (Hz)     Ampl(mV)       Bias(V)      Time(Sec)       Z'(Ohm.cm^2)    Z''(Ohm.cm^2)        GD       Err      Range
End Comments
  3.07200E+05,	1.00000E+01,	-1.76280E-02,	8.05856E-02,	-6.50587E-01,	3.94594E+00,	0.00000E+00,	0,	0
  2.76480E+05,	1.00000E+01,	-1.76280E-02,	1.71210E+00,	-1.39885E-02,	2.92251E+00,	0.00000E+00,	0,	0
  1.97486E+05,	1.00000E+01,	-1.76280E-02,	2.64414E+00,	8.72328E-01,	2.05496E+00,	0.00000E+00,	0,	0
  1.53600E+05,	1.00000E+01,	-1.76280E-02,	3.56418E+00,	1.22106E+00,	1.54896E+00,	0.00000E+00,	0,	0
  1.25673E+05,	1.00000E+01,	-1.76280E-02,	4.49634E+00,	1.42035E+00,	1.20648E+00,	0.00000E+00,	0,	0
  9.87429E+04,	1.00000E+01,	-1.76280E-02,	5.41481E+00,	1.58754E+00,	9.14058E-01,	0.00000E+00,	0,	0
  7.68000E+04,	1.00000E+01,	-1.76280E-02,	6.34241E+00,	1.69221E+00,	6.92332E-01,	0.00000E+00,	0,	0
  6.01043E+04,	1.00000E+01,	-1.76280E-02,	9.57468E+00,	1.76931E+00,	4.62018E-01,	0.00000E+00,	0,	0
  4.93714E+04,	1.00000E+01,	-1.76280E-02,	1.11818E+01,	1.78643E+00,	3.33632E-01,	0.00000E+00,	0,	0
  3.84000E+04,	1.00000E+01,	-1.76280E-02,	1.21090E+01,	1.79838E+00,	1.89988E-01,	0.00000E+00,	0,	0
  3.00522E+04,	1.00000E+01,	-1.76280E-02,	1.30089E+01,	1.80879E+00,	6.39454E-02,	0.00000E+00,	0,	0
  2.38345E+04,	1.00000E+01,	-1.76280E-02,	1.38842E+01,	1.82179E+00,	-5.18401E-02,	0.00000E+00,	0,	0
  1.86811E+04,	1.00000E+01,	-1.76280E-02,	1.47412E+01,	1.83559E+00,	-1.73087E-01,	0.00000E+00,	0,	0
  1.47064E+04,	1.00000E+01,	-1.76280E-02,	1.57446E+01,	1.85476E+00,	-2.97643E-01,	0.00000E+00,	0,	0
  1.15200E+04,	1.00000E+01,	-1.76280E-02,	1.67545E+01,	1.87608E+00,	-4.37032E-01,	0.00000E+00,	0,	0
  9.60000E+03,	1.00000E+01,	-1.76280E-02,	1.83770E+01,	1.89565E+00,	-5.52581E-01,	0.00000E+00,	0,	0
  7.51304E+03,	1.00000E+01,	-1.76280E-02,	1.92842E+01,	1.92959E+00,	-7.25899E-01,	0.00000E+00,	0,	0
  5.76000E+03,	1.00000E+01,	-1.76280E-02,	2.02181E+01,	1.97325E+00,	-9.52914E-01,	0.00000E+00,	0,	0
  4.54737E+03,	1.00000E+01,	-1.76280E-02,	2.11126E+01,	2.01922E+00,	-1.19546E+00,	0.00000E+00,	0,	0
  3.60000E+03,	1.00000E+01,	-1.76280E-02,	2.21492E+01,	2.08097E+00,	-1.48524E+00,	0.00000E+00,	0,	0
  2.88000E+03,	1.00000E+01,	-1.76280E-02,	2.30926E+01,	2.14889E+00,	-1.82033E+00,	0.00000E+00,	0,	0
  2.27368E+03,	1.00000E+01,	-1.76280E-02,	2.53949E+01,	2.06765E+00,	-2.23292E+00,	0.00000E+00,	0,	0
  1.78144E+03,	1.00000E+01,	-1.76280E-02,	2.61823E+01,	2.18433E+00,	-2.77483E+00,	0.00000E+00,	0,	0
  1.41639E+03,	1.00000E+01,	-1.76280E-02,	2.71288E+01,	2.32311E+00,	-3.39600E+00,	0.00000E+00,	0,	0
  1.12208E+03,	1.00000E+01,	-1.76280E-02,	2.81904E+01,	2.50313E+00,	-4.16491E+00,	0.00000E+00,	0,	0
  9.00000E+02,	1.00000E+01,	-1.76280E-02,	3.32108E+01,	2.71805E+00,	-5.06466E+00,	0.00000E+00,	0,	0
  7.20000E+02,	1.00000E+01,	-1.76280E-02,	3.46168E+01,	2.98695E+00,	-6.14948E+00,	0.00000E+00,	0,	0
  5.68421E+02,	1.00000E+01,	-1.76280E-02,	3.60125E+01,	3.35471E+00,	-7.54431E+00,	0.00000E+00,	0,	0
  4.40816E+02,	1.00000E+01,	-1.76280E-02,	3.74819E+01,	3.86557E+00,	-9.38093E+00,	0.00000E+00,	0,	0
  3.54098E+02,	1.00000E+01,	-1.76280E-02,	3.98476E+01,	4.42950E+00,	-1.12915E+01,	0.00000E+00,	0,	0
  2.76923E+02,	1.00000E+01,	-1.76280E-02,	4.24833E+01,	5.24598E+00,	-1.38669E+01,	0.00000E+00,	0,	0
  2.20408E+02,	1.00000E+01,	-1.76280E-02,	4.54309E+01,	6.21040E+00,	-1.67406E+01,	0.00000E+00,	0,	0
  1.74194E+02,	1.00000E+01,	-1.76280E-02,	4.87208E+01,	7.44538E+00,	-2.02499E+01,	0.00000E+00,	0,	0
  1.37580E+02,	1.00000E+01,	-1.76280E-02,	5.24210E+01,	8.96779E+00,	-2.44185E+01,	0.00000E+00,	0,	0
  1.09091E+02,	1.00000E+01,	-1.76280E-02,	5.65337E+01,	1.07565E+01,	-2.92835E+01,	0.00000E+00,	0,	0
  8.70968E+01,	1.00000E+01,	-1.76280E-02,	6.46838E+01,	1.28159E+01,	-3.49895E+01,	0.00000E+00,	0,	0
  6.83544E+01,	1.00000E+01,	-1.76280E-02,	6.97208E+01,	1.53584E+01,	-4.23833E+01,	0.00000E+00,	0,	0
  5.45455E+01,	1.00000E+01,	-1.76280E-02,	7.51572E+01,	1.81497E+01,	-4.96435E+01,	0.00000E+00,	0,	0
  4.28571E+01,	1.00000E+01,	-1.76280E-02,	7.86863E+01,	2.13920E+01,	-5.97650E+01,	0.00000E+00,	0,	0
  3.39623E+01,	1.00000E+01,	-1.76280E-02,	8.24108E+01,	2.44561E+01,	-7.15996E+01,	0.00000E+00,	0,	0
  2.68657E+01,	1.00000E+01,	-1.76280E-02,	8.62423E+01,	2.86016E+01,	-8.65292E+01,	0.00000E+00,	0,	0
  2.13439E+01,	1.00000E+01,	-1.76280E-02,	9.00517E+01,	3.32192E+01,	-1.04349E+02,	0.00000E+00,	0,	0
  1.73077E+01,	1.00000E+01,	-1.76280E-02,	9.67275E+01,	3.81012E+01,	-1.24236E+02,	0.00000E+00,	0,	0
  1.36364E+01,	1.00000E+01,	-1.76280E-02,	1.01748E+02,	4.44590E+01,	-1.51515E+02,	0.00000E+00,	0,	0
  1.07143E+01,	1.00000E+01,	-1.76280E-02,	1.04659E+02,	5.21497E+01,	-1.85582E+02,	0.00000E+00,	0,	0
  8.49057E+00,	1.00000E+01,	-1.76280E-02,	1.08851E+02,	6.10059E+01,	-2.25957E+02,	0.00000E+00,	0,	0
  6.71642E+00,	1.00000E+01,	-1.76280E-02,	1.11371E+02,	7.17704E+01,	-2.75911E+02,	0.00000E+00,	0,	0
  5.29412E+00,	1.00000E+01,	-1.76280E-02,	1.14290E+02,	8.49828E+01,	-3.37909E+02,	0.00000E+00,	0,	0
  4.16667E+00,	1.00000E+01,	-1.76280E-02,	1.17749E+02,	1.00585E+02,	-4.14760E+02,	0.00000E+00,	0,	0
  3.30882E+00,	1.00000E+01,	-1.76280E-02,	1.21969E+02,	1.17972E+02,	-5.05475E+02,	0.00000E+00,	0,	0
  2.61628E+00,	1.00000E+01,	-1.76280E-02,	1.25918E+02,	1.38388E+02,	-6.18526E+02,	0.00000E+00,	0,	0
  2.07373E+00,	1.00000E+01,	-1.76280E-02,	1.30680E+02,	1.61058E+02,	-7.57129E+02,	0.00000E+00,	0,	0
  1.64234E+00,	1.00000E+01,	-1.76280E-02,	1.36449E+02,	1.86790E+02,	-9.29538E+02,	0.00000E+00,	0,	0
  1.30058E+00,	1.00000E+01,	-1.76280E-02,	1.40598E+02,	2.17238E+02,	-1.14451E+03,	0.00000E+00,	0,	0
  1.03211E+00,	1.00000E+01,	-1.76280E-02,	1.45003E+02,	2.52779E+02,	-1.41056E+03,	0.00000E+00,	0,	0
  8.15217E-01,	1.00000E+01,	-1.76280E-02,	1.51941E+02,	2.97488E+02,	-1.74817E+03,	0.00000E+00,	0,	0
  6.46552E-01,	1.00000E+01,	-1.76280E-02,	1.61025E+02,	3.51889E+02,	-2.16130E+03,	0.00000E+00,	0,	0
  5.11364E-01,	1.00000E+01,	-1.76280E-02,	1.66037E+02,	4.16173E+02,	-2.68285E+03,	0.00000E+00,	0,	0
  4.07609E-01,	1.00000E+01,	-1.76280E-02,	1.72081E+02,	5.07053E+02,	-3.30990E+03,	0.00000E+00,	0,	0
  3.21429E-01,	1.00000E+01,	-1.76280E-02,	1.79196E+02,	6.29516E+02,	-4.14427E+03,	0.00000E+00,	0,	0
  2.54525E-01,	1.00000E+01,	-1.76280E-02,	1.87953E+02,	7.99854E+02,	-5.13766E+03,	0.00000E+00,	0,	0
  2.01613E-01,	1.00000E+01,	-1.76280E-02,	1.98788E+02,	1.02797E+03,	-6.36792E+03,	0.00000E+00,	0,	0
  1.59574E-01,	1.00000E+01,	-1.76280E-02,	2.12248E+02,	1.34188E+03,	-7.89171E+03,	0.00000E+00,	0,	0
  1.26689E-01,	1.00000E+01,	-1.76280E-02,	2.29141E+02,	1.76616E+03,	-9.73336E+03,	0.00000E+00,	0,	0
  1.00446E-01,	1.00000E+01,	-1.76280E-02,	2.50007E+02,	2.35354E+03,	-1.20073E+04,	0.00000E+00,	0,	0