Z60W Data File: Version 1.1
CorrTest for Windows: SN CS310H1805157  V5.2.1111.9  2.5H6.220118
Sweep Frequency: Control Voltage
  Date:5-1-2026   Time:14:54:58
  Begin Information:            Cell Information
      Surface Area:           1
      Density:                7.8
      Weight:                 28
  End Information:              Cell Information
  Freq (Hz)     Ampl(mV)       Bias(V)      Time(Sec)       Z'(Ohm.cm^2)    Z''(Ohm.cm^2)        GD       Err      Range
End Comments
  3.07200E+05,	1.00000E+01,	-1.27607E-02,	2.40182E-02,	2.92797E-01,	4.33199E+00,	0.00000E+00,	0,	0
  2.76480E+05,	1.00000E+01,	-1.27607E-02,	1.64856E+00,	8.91688E-01,	3.28183E+00,	0.00000E+00,	0,	0
  1.97486E+05,	1.00000E+01,	-1.27607E-02,	2.56365E+00,	1.74942E+00,	2.31466E+00,	0.00000E+00,	0,	0
  1.53600E+05,	1.00000E+01,	-1.27607E-02,	3.46197E+00,	2.07975E+00,	1.73699E+00,	0.00000E+00,	0,	0
  1.25673E+05,	1.00000E+01,	-1.27607E-02,	4.35952E+00,	2.27539E+00,	1.35965E+00,	0.00000E+00,	0,	0
  9.87429E+04,	1.00000E+01,	-1.27607E-02,	5.27593E+00,	2.46126E+00,	1.02298E+00,	0.00000E+00,	0,	0
  7.68000E+04,	1.00000E+01,	-1.27607E-02,	6.19131E+00,	2.55882E+00,	7.53166E-01,	0.00000E+00,	0,	0
  6.01043E+04,	1.00000E+01,	-1.27607E-02,	9.41041E+00,	2.64522E+00,	5.10795E-01,	0.00000E+00,	0,	0
  4.93714E+04,	1.00000E+01,	-1.27607E-02,	1.09896E+01,	2.65820E+00,	3.66855E-01,	0.00000E+00,	0,	0
  3.84000E+04,	1.00000E+01,	-1.27607E-02,	1.19127E+01,	2.67447E+00,	2.04993E-01,	0.00000E+00,	0,	0
  3.00522E+04,	1.00000E+01,	-1.27607E-02,	1.27868E+01,	2.68704E+00,	6.42609E-02,	0.00000E+00,	0,	0
  2.38345E+04,	1.00000E+01,	-1.27607E-02,	1.36585E+01,	2.70003E+00,	-6.51638E-02,	0.00000E+00,	0,	0
  1.86811E+04,	1.00000E+01,	-1.27607E-02,	1.44912E+01,	2.71492E+00,	-2.03089E-01,	0.00000E+00,	0,	0
  1.47064E+04,	1.00000E+01,	-1.27607E-02,	1.54987E+01,	2.73083E+00,	-3.42040E-01,	0.00000E+00,	0,	0
  1.15200E+04,	1.00000E+01,	-1.27607E-02,	1.64969E+01,	2.75873E+00,	-4.97395E-01,	0.00000E+00,	0,	0
  9.60000E+03,	1.00000E+01,	-1.27607E-02,	1.80805E+01,	2.78225E+00,	-6.28478E-01,	0.00000E+00,	0,	0
  7.51304E+03,	1.00000E+01,	-1.27607E-02,	1.89757E+01,	2.81689E+00,	-8.26674E-01,	0.00000E+00,	0,	0
  5.76000E+03,	1.00000E+01,	-1.27607E-02,	1.98992E+01,	2.86428E+00,	-1.08466E+00,	0.00000E+00,	0,	0
  4.54737E+03,	1.00000E+01,	-1.27607E-02,	2.07738E+01,	2.91930E+00,	-1.35925E+00,	0.00000E+00,	0,	0
  3.60000E+03,	1.00000E+01,	-1.27607E-02,	2.17882E+01,	2.98435E+00,	-1.69040E+00,	0.00000E+00,	0,	0
  2.88000E+03,	1.00000E+01,	-1.27607E-02,	2.27013E+01,	3.05825E+00,	-2.07319E+00,	0.00000E+00,	0,	0
  2.27368E+03,	1.00000E+01,	-1.27607E-02,	2.49931E+01,	3.13146E+00,	-2.54617E+00,	0.00000E+00,	0,	0
  1.78144E+03,	1.00000E+01,	-1.27607E-02,	2.57877E+01,	3.26499E+00,	-3.16951E+00,	0.00000E+00,	0,	0
  1.41639E+03,	1.00000E+01,	-1.27607E-02,	2.66951E+01,	3.41901E+00,	-3.88676E+00,	0.00000E+00,	0,	0
  1.12208E+03,	1.00000E+01,	-1.27607E-02,	2.77319E+01,	3.62014E+00,	-4.77675E+00,	0.00000E+00,	0,	0
  9.00000E+02,	1.00000E+01,	-1.27607E-02,	3.27191E+01,	3.86969E+00,	-5.82141E+00,	0.00000E+00,	0,	0
  7.20000E+02,	1.00000E+01,	-1.27607E-02,	3.41289E+01,	4.18346E+00,	-7.07516E+00,	0.00000E+00,	0,	0
  5.68421E+02,	1.00000E+01,	-1.27607E-02,	3.55299E+01,	4.61428E+00,	-8.68579E+00,	0.00000E+00,	0,	0
  4.40816E+02,	1.00000E+01,	-1.27607E-02,	3.85578E+01,	5.23933E+00,	-1.08214E+01,	0.00000E+00,	0,	0
  3.54098E+02,	1.00000E+01,	-1.27607E-02,	4.09566E+01,	5.91805E+00,	-1.30151E+01,	0.00000E+00,	0,	0
  2.76923E+02,	1.00000E+01,	-1.27607E-02,	4.35961E+01,	6.88342E+00,	-1.59315E+01,	0.00000E+00,	0,	0
  2.20408E+02,	1.00000E+01,	-1.27607E-02,	4.65452E+01,	7.98364E+00,	-1.91546E+01,	0.00000E+00,	0,	0
  1.74194E+02,	1.00000E+01,	-1.27607E-02,	4.97898E+01,	9.34141E+00,	-2.30822E+01,	0.00000E+00,	0,	0
  1.37580E+02,	1.00000E+01,	-1.27607E-02,	5.34342E+01,	1.09256E+01,	-2.77623E+01,	0.00000E+00,	0,	0
  1.09091E+02,	1.00000E+01,	-1.27607E-02,	5.75010E+01,	1.26985E+01,	-3.32918E+01,	0.00000E+00,	0,	0
  8.70968E+01,	1.00000E+01,	-1.27607E-02,	6.32185E+01,	1.45982E+01,	-3.97878E+01,	0.00000E+00,	0,	0
  6.83544E+01,	1.00000E+01,	-1.27607E-02,	6.82496E+01,	1.69112E+01,	-4.85134E+01,	0.00000E+00,	0,	0
  5.45455E+01,	1.00000E+01,	-1.27607E-02,	7.37086E+01,	1.94672E+01,	-5.73128E+01,	0.00000E+00,	0,	0
  4.28571E+01,	1.00000E+01,	-1.27607E-02,	7.72553E+01,	2.24053E+01,	-6.97343E+01,	0.00000E+00,	0,	0
  3.39623E+01,	1.00000E+01,	-1.27607E-02,	8.09815E+01,	2.50919E+01,	-8.44029E+01,	0.00000E+00,	0,	0
  2.68657E+01,	1.00000E+01,	-1.27607E-02,	8.48171E+01,	2.89559E+01,	-1.03099E+02,	0.00000E+00,	0,	0
  2.13439E+01,	1.00000E+01,	-1.27607E-02,	8.86660E+01,	3.32498E+01,	-1.25527E+02,	0.00000E+00,	0,	0
  1.73077E+01,	1.00000E+01,	-1.27607E-02,	9.53409E+01,	3.77574E+01,	-1.50686E+02,	0.00000E+00,	0,	0
  1.36364E+01,	1.00000E+01,	-1.27607E-02,	1.00361E+02,	4.34219E+01,	-1.85371E+02,	0.00000E+00,	0,	0
  1.07143E+01,	1.00000E+01,	-1.27607E-02,	1.03301E+02,	5.00616E+01,	-2.29074E+02,	0.00000E+00,	0,	0
  8.49057E+00,	1.00000E+01,	-1.27607E-02,	1.07539E+02,	5.73654E+01,	-2.81696E+02,	0.00000E+00,	0,	0
  6.71642E+00,	1.00000E+01,	-1.27607E-02,	1.10067E+02,	6.58393E+01,	-3.47418E+02,	0.00000E+00,	0,	0
  5.29412E+00,	1.00000E+01,	-1.27607E-02,	1.12998E+02,	7.59381E+01,	-4.30484E+02,	0.00000E+00,	0,	0
  4.16667E+00,	1.00000E+01,	-1.27607E-02,	1.16513E+02,	8.77137E+01,	-5.35473E+02,	0.00000E+00,	0,	0
  3.30882E+00,	1.00000E+01,	-1.27607E-02,	1.20758E+02,	1.01022E+02,	-6.61648E+02,	0.00000E+00,	0,	0
  2.61628E+00,	1.00000E+01,	-1.27607E-02,	1.24739E+02,	1.17419E+02,	-8.21722E+02,	0.00000E+00,	0,	0
  2.07373E+00,	1.00000E+01,	-1.27607E-02,	1.29513E+02,	1.36701E+02,	-1.01973E+03,	0.00000E+00,	0,	0
  1.64234E+00,	1.00000E+01,	-1.27607E-02,	1.35302E+02,	1.60146E+02,	-1.26772E+03,	0.00000E+00,	0,	0
  1.30058E+00,	1.00000E+01,	-1.27607E-02,	1.39474E+02,	1.89875E+02,	-1.57753E+03,	0.00000E+00,	0,	0
  1.03211E+00,	1.00000E+01,	-1.27607E-02,	1.43879E+02,	2.26013E+02,	-1.96080E+03,	0.00000E+00,	0,	0
  8.15217E-01,	1.00000E+01,	-1.27607E-02,	1.50821E+02,	2.72719E+02,	-2.44732E+03,	0.00000E+00,	0,	0
  6.46552E-01,	1.00000E+01,	-1.27607E-02,	1.59910E+02,	3.30189E+02,	-3.04229E+03,	0.00000E+00,	0,	0
  5.11364E-01,	1.00000E+01,	-1.27607E-02,	1.64908E+02,	3.96692E+02,	-3.79424E+03,	0.00000E+00,	0,	0
  4.07609E-01,	1.00000E+01,	-1.27607E-02,	1.70966E+02,	4.88890E+02,	-4.70055E+03,	0.00000E+00,	0,	0
  3.21429E-01,	1.00000E+01,	-1.27607E-02,	1.78116E+02,	6.07836E+02,	-5.90224E+03,	0.00000E+00,	0,	0
  2.54525E-01,	1.00000E+01,	-1.27607E-02,	1.86890E+02,	7.71395E+02,	-7.34872E+03,	0.00000E+00,	0,	0
  2.01613E-01,	1.00000E+01,	-1.27607E-02,	1.97734E+02,	9.81677E+02,	-9.14989E+03,	0.00000E+00,	0,	0
  1.59574E-01,	1.00000E+01,	-1.27607E-02,	2.11197E+02,	1.25886E+03,	-1.13981E+04,	0.00000E+00,	0,	0
  1.26689E-01,	1.00000E+01,	-1.27607E-02,	2.45077E+02,	1.64063E+03,	-1.40701E+04,	0.00000E+00,	0,	0
  1.00446E-01,	1.00000E+01,	-1.27607E-02,	2.65948E+02,	2.04985E+03,	-1.76007E+04,	0.00000E+00,	0,	0