Z60W Data File: Version 1.1
CorrTest for Windows: SN CS310H1805157  V5.2.1111.9  2.5H6.220118
Sweep Frequency: Control Voltage
  Date:5-1-2026   Time:19:04:30
  Begin Information:            Cell Information
      Surface Area:           1
      Density:                7.8
      Weight:                 28
  End Information:              Cell Information
  Freq (Hz)     Ampl(mV)       Bias(V)      Time(Sec)       Z'(Ohm.cm^2)    Z''(Ohm.cm^2)        GD       Err      Range
End Comments
  3.07200E+05,	1.00000E+01,	-2.36918E-02,	2.18395E-02,	5.23079E+02,	-1.65758E+02,	0.00000E+00,	0,	0
  2.76480E+05,	1.00000E+01,	-2.36918E-02,	1.63520E+00,	5.24512E+02,	-1.74834E+02,	0.00000E+00,	0,	0
  1.97486E+05,	1.00000E+01,	-2.36918E-02,	2.52885E+00,	5.67309E+02,	-2.27069E+02,	0.00000E+00,	0,	0
  1.53600E+05,	1.00000E+01,	-2.36918E-02,	3.42994E+00,	6.16702E+02,	-2.48051E+02,	0.00000E+00,	0,	0
  1.25673E+05,	1.00000E+01,	-2.36918E-02,	4.32673E+00,	6.56709E+02,	-2.72788E+02,	0.00000E+00,	0,	0
  9.87429E+04,	1.00000E+01,	-2.36918E-02,	5.22314E+00,	7.23153E+02,	-2.75551E+02,	0.00000E+00,	0,	0
  7.68000E+04,	1.00000E+01,	-2.36918E-02,	6.12168E+00,	7.86646E+02,	-2.64865E+02,	0.00000E+00,	0,	0
  6.01043E+04,	1.00000E+01,	-2.36918E-02,	7.13799E+00,	8.43703E+02,	-2.52418E+02,	0.00000E+00,	0,	0
  4.93714E+04,	1.00000E+01,	-2.36918E-02,	8.70924E+00,	8.89997E+02,	-2.19677E+02,	0.00000E+00,	0,	0
  3.84000E+04,	1.00000E+01,	-2.36918E-02,	9.61623E+00,	9.22545E+02,	-2.04955E+02,	0.00000E+00,	0,	0
  3.00522E+04,	1.00000E+01,	-2.36918E-02,	1.04712E+01,	8.94539E+02,	-1.40022E+02,	0.00000E+00,	0,	0
  2.38345E+04,	1.00000E+01,	-2.36918E-02,	1.13366E+01,	9.69262E+02,	-1.43100E+02,	0.00000E+00,	0,	0
  1.86811E+04,	1.00000E+01,	-2.36918E-02,	1.21868E+01,	9.97074E+02,	-1.16445E+02,	0.00000E+00,	0,	0
  1.47064E+04,	1.00000E+01,	-2.36918E-02,	1.31517E+01,	9.88438E+02,	-1.08720E+02,	0.00000E+00,	0,	0
  1.15200E+04,	1.00000E+01,	-2.36918E-02,	1.41327E+01,	1.00899E+03,	-9.20135E+01,	0.00000E+00,	0,	0
  9.60000E+03,	1.00000E+01,	-2.36918E-02,	1.56907E+01,	1.00584E+03,	-8.89182E+01,	0.00000E+00,	0,	0
  7.51304E+03,	1.00000E+01,	-2.36918E-02,	1.65619E+01,	1.02583E+03,	-8.57508E+01,	0.00000E+00,	0,	0
  5.76000E+03,	1.00000E+01,	-2.36918E-02,	1.74572E+01,	1.03243E+03,	-7.52011E+01,	0.00000E+00,	0,	0
  4.54737E+03,	1.00000E+01,	-2.36918E-02,	1.83304E+01,	1.04072E+03,	-7.44745E+01,	0.00000E+00,	0,	0
  3.60000E+03,	1.00000E+01,	-2.36918E-02,	1.93152E+01,	1.05631E+03,	-8.88938E+01,	0.00000E+00,	0,	0
  2.88000E+03,	1.00000E+01,	-2.36918E-02,	2.02428E+01,	1.06602E+03,	-8.33115E+01,	0.00000E+00,	0,	0
  2.27368E+03,	1.00000E+01,	-2.36918E-02,	2.25372E+01,	1.07574E+03,	-8.35939E+01,	0.00000E+00,	0,	0
  1.78144E+03,	1.00000E+01,	-2.36918E-02,	2.33304E+01,	1.09161E+03,	-8.52297E+01,	0.00000E+00,	0,	0
  1.41639E+03,	1.00000E+01,	-2.36918E-02,	2.42352E+01,	1.10147E+03,	-9.09780E+01,	0.00000E+00,	0,	0
  1.12208E+03,	1.00000E+01,	-2.36918E-02,	2.52929E+01,	1.12755E+03,	-7.06534E+01,	0.00000E+00,	0,	0
  9.00000E+02,	1.00000E+01,	-2.36918E-02,	3.02961E+01,	1.13420E+03,	-7.03049E+01,	0.00000E+00,	0,	0
  7.20000E+02,	1.00000E+01,	-2.36918E-02,	3.16642E+01,	1.14394E+03,	-6.43227E+01,	0.00000E+00,	0,	0
  5.68421E+02,	1.00000E+01,	-2.36918E-02,	3.30392E+01,	1.15213E+03,	-5.99014E+01,	0.00000E+00,	0,	0
  4.40816E+02,	1.00000E+01,	-2.36918E-02,	3.60572E+01,	1.15879E+03,	-5.62972E+01,	0.00000E+00,	0,	0
  3.54098E+02,	1.00000E+01,	-2.36918E-02,	3.83977E+01,	1.16437E+03,	-5.56581E+01,	0.00000E+00,	0,	0
  2.76923E+02,	1.00000E+01,	-2.36918E-02,	4.10252E+01,	1.16983E+03,	-5.65585E+01,	0.00000E+00,	0,	0
  2.20408E+02,	1.00000E+01,	-2.36918E-02,	4.39585E+01,	1.17495E+03,	-6.01648E+01,	0.00000E+00,	0,	0
  1.74194E+02,	1.00000E+01,	-2.36918E-02,	4.72255E+01,	1.18017E+03,	-6.61682E+01,	0.00000E+00,	0,	0
  1.37580E+02,	1.00000E+01,	-2.36918E-02,	5.08946E+01,	1.18708E+03,	-7.49587E+01,	0.00000E+00,	0,	0
  1.09091E+02,	1.00000E+01,	-2.36918E-02,	5.49660E+01,	1.19399E+03,	-8.81836E+01,	0.00000E+00,	0,	0
  8.70968E+01,	1.00000E+01,	-2.36918E-02,	6.06691E+01,	1.20451E+03,	-1.02586E+02,	0.00000E+00,	0,	0
  6.83544E+01,	1.00000E+01,	-2.36918E-02,	6.56894E+01,	1.22074E+03,	-1.24866E+02,	0.00000E+00,	0,	0
  5.45455E+01,	1.00000E+01,	-2.36918E-02,	7.11439E+01,	1.21594E+03,	-1.36831E+02,	0.00000E+00,	0,	0
  4.28571E+01,	1.00000E+01,	-2.36918E-02,	7.47102E+01,	1.22591E+03,	-1.65270E+02,	0.00000E+00,	0,	0
  3.39623E+01,	1.00000E+01,	-2.36918E-02,	7.84769E+01,	1.23165E+03,	-2.04716E+02,	0.00000E+00,	0,	0
  2.68657E+01,	1.00000E+01,	-2.36918E-02,	8.23208E+01,	1.24931E+03,	-2.45196E+02,	0.00000E+00,	0,	0
  2.13439E+01,	1.00000E+01,	-2.36918E-02,	8.61407E+01,	1.26619E+03,	-2.94739E+02,	0.00000E+00,	0,	0
  1.73077E+01,	1.00000E+01,	-2.36918E-02,	8.98249E+01,	1.28224E+03,	-3.49943E+02,	0.00000E+00,	0,	0
  1.36364E+01,	1.00000E+01,	-2.36918E-02,	9.48493E+01,	1.30395E+03,	-4.26634E+02,	0.00000E+00,	0,	0
  1.07143E+01,	1.00000E+01,	-2.36918E-02,	9.77697E+01,	1.32757E+03,	-5.22684E+02,	0.00000E+00,	0,	0
  8.49057E+00,	1.00000E+01,	-2.36918E-02,	1.01975E+02,	1.35399E+03,	-6.38006E+02,	0.00000E+00,	0,	0
  6.71642E+00,	1.00000E+01,	-2.36918E-02,	1.04492E+02,	1.38751E+03,	-7.78084E+02,	0.00000E+00,	0,	0
  5.29412E+00,	1.00000E+01,	-2.36918E-02,	1.07456E+02,	1.42558E+03,	-9.56377E+02,	0.00000E+00,	0,	0
  4.16667E+00,	1.00000E+01,	-2.36918E-02,	1.10968E+02,	1.47425E+03,	-1.17835E+03,	0.00000E+00,	0,	0
  3.30882E+00,	1.00000E+01,	-2.36918E-02,	1.15243E+02,	1.53315E+03,	-1.44165E+03,	0.00000E+00,	0,	0
  2.61628E+00,	1.00000E+01,	-2.36918E-02,	1.19231E+02,	1.60831E+03,	-1.77018E+03,	0.00000E+00,	0,	0
  2.07373E+00,	1.00000E+01,	-2.36918E-02,	1.24004E+02,	1.70475E+03,	-2.16907E+03,	0.00000E+00,	0,	0
  1.64234E+00,	1.00000E+01,	-2.36918E-02,	1.29802E+02,	1.82772E+03,	-2.65652E+03,	0.00000E+00,	0,	0
  1.30058E+00,	1.00000E+01,	-2.36918E-02,	1.33964E+02,	1.98510E+03,	-3.24475E+03,	0.00000E+00,	0,	0
  1.03211E+00,	1.00000E+01,	-2.36918E-02,	1.38356E+02,	2.18736E+03,	-3.95213E+03,	0.00000E+00,	0,	0
  8.15217E-01,	1.00000E+01,	-2.36918E-02,	1.45297E+02,	2.42802E+03,	-4.80714E+03,	0.00000E+00,	0,	0
  6.46552E-01,	1.00000E+01,	-2.36918E-02,	1.50123E+02,	2.72678E+03,	-5.81727E+03,	0.00000E+00,	0,	0
  5.11364E-01,	1.00000E+01,	-2.36918E-02,	1.55134E+02,	2.99646E+03,	-7.10035E+03,	0.00000E+00,	0,	0
  4.07609E-01,	1.00000E+01,	-2.36918E-02,	1.61188E+02,	3.38203E+03,	-8.54836E+03,	0.00000E+00,	0,	0
  3.21429E-01,	1.00000E+01,	-2.36918E-02,	1.68321E+02,	3.87123E+03,	-1.05534E+04,	0.00000E+00,	0,	0
  2.54525E-01,	1.00000E+01,	-2.36918E-02,	1.77077E+02,	4.40167E+03,	-1.27575E+04,	0.00000E+00,	0,	0
  2.01613E-01,	1.00000E+01,	-2.36918E-02,	1.87917E+02,	4.98892E+03,	-1.54909E+04,	0.00000E+00,	0,	0
  1.59574E-01,	1.00000E+01,	-2.36918E-02,	2.01382E+02,	5.66320E+03,	-1.88691E+04,	0.00000E+00,	0,	0
  1.26689E-01,	1.00000E+01,	-2.36918E-02,	2.35291E+02,	6.46905E+03,	-2.26254E+04,	0.00000E+00,	0,	0
  1.00446E-01,	1.00000E+01,	-2.36918E-02,	2.56185E+02,	7.24955E+03,	-2.84221E+04,	0.00000E+00,	0,	0