Z60W Data File: Version 1.1
CorrTest for Windows: SN CS310H1805157  V5.2.1111.9  2.5H6.220118
Sweep Frequency: Control Voltage
  Date:5-1-2026   Time:09:57:51
  Begin Information:            Cell Information
      Surface Area:           1
      Density:                7.8
      Weight:                 28
  End Information:              Cell Information
  Freq (Hz)     Ampl(mV)       Bias(V)      Time(Sec)       Z'(Ohm.cm^2)    Z''(Ohm.cm^2)        GD       Err      Range
End Comments
  3.07200E+05,	1.00000E+01,	-1.73393E-02,	3.55731E-02,	-2.59841E-01,	4.06799E+00,	0.00000E+00,	0,	0
  2.76480E+05,	1.00000E+01,	-1.73393E-02,	1.63036E+00,	3.13027E-01,	3.04560E+00,	0.00000E+00,	0,	0
  1.97486E+05,	1.00000E+01,	-1.73393E-02,	2.52109E+00,	1.29817E+00,	2.14371E+00,	0.00000E+00,	0,	0
  1.53600E+05,	1.00000E+01,	-1.73393E-02,	3.44180E+00,	1.61955E+00,	1.60388E+00,	0.00000E+00,	0,	0
  1.25673E+05,	1.00000E+01,	-1.73393E-02,	4.34556E+00,	1.83146E+00,	1.25018E+00,	0.00000E+00,	0,	0
  9.87429E+04,	1.00000E+01,	-1.73393E-02,	5.25127E+00,	2.00077E+00,	9.60321E-01,	0.00000E+00,	0,	0
  7.68000E+04,	1.00000E+01,	-1.73393E-02,	6.18335E+00,	2.10488E+00,	7.07244E-01,	0.00000E+00,	0,	0
  6.01043E+04,	1.00000E+01,	-1.73393E-02,	9.40857E+00,	2.18305E+00,	4.75584E-01,	0.00000E+00,	0,	0
  4.93714E+04,	1.00000E+01,	-1.73393E-02,	1.09740E+01,	2.19897E+00,	3.44165E-01,	0.00000E+00,	0,	0
  3.84000E+04,	1.00000E+01,	-1.73393E-02,	1.18942E+01,	2.21394E+00,	1.97477E-01,	0.00000E+00,	0,	0
  3.00522E+04,	1.00000E+01,	-1.73393E-02,	1.27493E+01,	2.22434E+00,	6.99110E-02,	0.00000E+00,	0,	0
  2.38345E+04,	1.00000E+01,	-1.73393E-02,	1.36348E+01,	2.23534E+00,	-4.93808E-02,	0.00000E+00,	0,	0
  1.86811E+04,	1.00000E+01,	-1.73393E-02,	1.44960E+01,	2.24664E+00,	-1.73758E-01,	0.00000E+00,	0,	0
  1.47064E+04,	1.00000E+01,	-1.73393E-02,	1.54747E+01,	2.26360E+00,	-3.00265E-01,	0.00000E+00,	0,	0
  1.15200E+04,	1.00000E+01,	-1.73393E-02,	1.64556E+01,	2.28885E+00,	-4.41411E-01,	0.00000E+00,	0,	0
  9.60000E+03,	1.00000E+01,	-1.73393E-02,	1.80272E+01,	2.30875E+00,	-5.56648E-01,	0.00000E+00,	0,	0
  7.51304E+03,	1.00000E+01,	-1.73393E-02,	1.89184E+01,	2.33984E+00,	-7.37921E-01,	0.00000E+00,	0,	0
  5.76000E+03,	1.00000E+01,	-1.73393E-02,	1.98334E+01,	2.38128E+00,	-9.67024E-01,	0.00000E+00,	0,	0
  4.54737E+03,	1.00000E+01,	-1.73393E-02,	2.07031E+01,	2.42994E+00,	-1.21625E+00,	0.00000E+00,	0,	0
  3.60000E+03,	1.00000E+01,	-1.73393E-02,	2.17112E+01,	2.48876E+00,	-1.51317E+00,	0.00000E+00,	0,	0
  2.88000E+03,	1.00000E+01,	-1.73393E-02,	2.26027E+01,	2.55679E+00,	-1.85896E+00,	0.00000E+00,	0,	0
  2.27368E+03,	1.00000E+01,	-1.73393E-02,	2.48835E+01,	2.62634E+00,	-2.28211E+00,	0.00000E+00,	0,	0
  1.78144E+03,	1.00000E+01,	-1.73393E-02,	2.56708E+01,	2.74279E+00,	-2.84128E+00,	0.00000E+00,	0,	0
  1.41639E+03,	1.00000E+01,	-1.73393E-02,	2.65722E+01,	2.89235E+00,	-3.48838E+00,	0.00000E+00,	0,	0
  1.12208E+03,	1.00000E+01,	-1.73393E-02,	2.76017E+01,	3.07833E+00,	-4.28828E+00,	0.00000E+00,	0,	0
  9.00000E+02,	1.00000E+01,	-1.73393E-02,	3.26145E+01,	3.31506E+00,	-5.21478E+00,	0.00000E+00,	0,	0
  7.20000E+02,	1.00000E+01,	-1.73393E-02,	3.39984E+01,	3.60995E+00,	-6.32754E+00,	0.00000E+00,	0,	0
  5.68421E+02,	1.00000E+01,	-1.73393E-02,	3.53891E+01,	4.02119E+00,	-7.74831E+00,	0.00000E+00,	0,	0
  4.40816E+02,	1.00000E+01,	-1.73393E-02,	3.68460E+01,	4.59162E+00,	-9.59664E+00,	0.00000E+00,	0,	0
  3.54098E+02,	1.00000E+01,	-1.73393E-02,	3.92076E+01,	5.21027E+00,	-1.14972E+01,	0.00000E+00,	0,	0
  2.76923E+02,	1.00000E+01,	-1.73393E-02,	4.18427E+01,	6.06518E+00,	-1.40204E+01,	0.00000E+00,	0,	0
  2.20408E+02,	1.00000E+01,	-1.73393E-02,	4.48007E+01,	7.01670E+00,	-1.68099E+01,	0.00000E+00,	0,	0
  1.74194E+02,	1.00000E+01,	-1.73393E-02,	4.80598E+01,	8.15267E+00,	-2.02137E+01,	0.00000E+00,	0,	0
  1.37580E+02,	1.00000E+01,	-1.73393E-02,	5.17288E+01,	9.44871E+00,	-2.43121E+01,	0.00000E+00,	0,	0
  1.09091E+02,	1.00000E+01,	-1.73393E-02,	5.57971E+01,	1.08725E+01,	-2.91923E+01,	0.00000E+00,	0,	0
  8.70968E+01,	1.00000E+01,	-1.73393E-02,	6.39473E+01,	1.24329E+01,	-3.50775E+01,	0.00000E+00,	0,	0
  6.83544E+01,	1.00000E+01,	-1.73393E-02,	6.90068E+01,	1.42995E+01,	-4.29219E+01,	0.00000E+00,	0,	0
  5.45455E+01,	1.00000E+01,	-1.73393E-02,	7.44925E+01,	1.64086E+01,	-5.08881E+01,	0.00000E+00,	0,	0
  4.28571E+01,	1.00000E+01,	-1.73393E-02,	7.80201E+01,	1.88439E+01,	-6.21511E+01,	0.00000E+00,	0,	0
  3.39623E+01,	1.00000E+01,	-1.73393E-02,	8.17776E+01,	2.10470E+01,	-7.54583E+01,	0.00000E+00,	0,	0
  2.68657E+01,	1.00000E+01,	-1.73393E-02,	8.56182E+01,	2.42910E+01,	-9.24449E+01,	0.00000E+00,	0,	0
  2.13439E+01,	1.00000E+01,	-1.73393E-02,	8.94444E+01,	2.79239E+01,	-1.12852E+02,	0.00000E+00,	0,	0
  1.73077E+01,	1.00000E+01,	-1.73393E-02,	9.61357E+01,	3.17384E+01,	-1.35751E+02,	0.00000E+00,	0,	0
  1.36364E+01,	1.00000E+01,	-1.73393E-02,	1.01159E+02,	3.65822E+01,	-1.67377E+02,	0.00000E+00,	0,	0
  1.07143E+01,	1.00000E+01,	-1.73393E-02,	1.04076E+02,	4.22772E+01,	-2.07238E+02,	0.00000E+00,	0,	0
  8.49057E+00,	1.00000E+01,	-1.73393E-02,	1.08272E+02,	4.85578E+01,	-2.55179E+02,	0.00000E+00,	0,	0
  6.71642E+00,	1.00000E+01,	-1.73393E-02,	1.10839E+02,	5.59777E+01,	-3.15407E+02,	0.00000E+00,	0,	0
  5.29412E+00,	1.00000E+01,	-1.73393E-02,	1.13816E+02,	6.48875E+01,	-3.91433E+02,	0.00000E+00,	0,	0
  4.16667E+00,	1.00000E+01,	-1.73393E-02,	1.17335E+02,	7.53136E+01,	-4.87394E+02,	0.00000E+00,	0,	0
  3.30882E+00,	1.00000E+01,	-1.73393E-02,	1.21574E+02,	8.73187E+01,	-6.02909E+02,	0.00000E+00,	0,	0
  2.61628E+00,	1.00000E+01,	-1.73393E-02,	1.25548E+02,	1.02426E+02,	-7.49408E+02,	0.00000E+00,	0,	0
  2.07373E+00,	1.00000E+01,	-1.73393E-02,	1.30315E+02,	1.20602E+02,	-9.30912E+02,	0.00000E+00,	0,	0
  1.64234E+00,	1.00000E+01,	-1.73393E-02,	1.36117E+02,	1.43219E+02,	-1.15786E+03,	0.00000E+00,	0,	0
  1.30058E+00,	1.00000E+01,	-1.73393E-02,	1.40272E+02,	1.72555E+02,	-1.44100E+03,	0.00000E+00,	0,	0
  1.03211E+00,	1.00000E+01,	-1.73393E-02,	1.44693E+02,	2.09060E+02,	-1.79102E+03,	0.00000E+00,	0,	0
  8.15217E-01,	1.00000E+01,	-1.73393E-02,	1.51637E+02,	2.57119E+02,	-2.23428E+03,	0.00000E+00,	0,	0
  6.46552E-01,	1.00000E+01,	-1.73393E-02,	1.60770E+02,	3.17935E+02,	-2.77545E+03,	0.00000E+00,	0,	0
  5.11364E-01,	1.00000E+01,	-1.73393E-02,	1.65777E+02,	3.89150E+02,	-3.45819E+03,	0.00000E+00,	0,	0
  4.07609E-01,	1.00000E+01,	-1.73393E-02,	1.71840E+02,	4.89471E+02,	-4.27878E+03,	0.00000E+00,	0,	0
  3.21429E-01,	1.00000E+01,	-1.73393E-02,	1.78993E+02,	6.23350E+02,	-5.36582E+03,	0.00000E+00,	0,	0
  2.54525E-01,	1.00000E+01,	-1.73393E-02,	1.87759E+02,	8.08767E+02,	-6.67081E+03,	0.00000E+00,	0,	0
  2.01613E-01,	1.00000E+01,	-1.73393E-02,	1.98595E+02,	1.05382E+03,	-8.28914E+03,	0.00000E+00,	0,	0
  1.59574E-01,	1.00000E+01,	-1.73393E-02,	2.12075E+02,	1.38533E+03,	-1.02995E+04,	0.00000E+00,	0,	0
  1.26689E-01,	1.00000E+01,	-1.73393E-02,	2.45982E+02,	1.84594E+03,	-1.26699E+04,	0.00000E+00,	0,	0
  1.00446E-01,	1.00000E+01,	-1.73393E-02,	2.66879E+02,	2.39155E+03,	-1.58050E+04,	0.00000E+00,	0,	0