Z60W Data File: Version 1.1
CorrTest for Windows: SN CS310H1805157  V5.2.1111.9  2.5H6.220118
Sweep Frequency: Control Voltage
  Date:5-1-2026   Time:15:31:02
  Begin Information:            Cell Information
      Surface Area:           1
      Density:                7.8
      Weight:                 28
  End Information:              Cell Information
  Freq (Hz)     Ampl(mV)       Bias(V)      Time(Sec)       Z'(Ohm.cm^2)    Z''(Ohm.cm^2)        GD       Err      Range
End Comments
  3.07200E+05,	1.00000E+01,	-1.27690E-02,	4.16021E-02,	6.01711E-01,	4.48619E+00,	0.00000E+00,	0,	0
  2.76480E+05,	1.00000E+01,	-1.27690E-02,	1.64156E+00,	1.11429E+00,	3.34637E+00,	0.00000E+00,	0,	0
  1.97486E+05,	1.00000E+01,	-1.27690E-02,	2.58363E+00,	1.97212E+00,	2.38300E+00,	0.00000E+00,	0,	0
  1.53600E+05,	1.00000E+01,	-1.27690E-02,	3.50880E+00,	2.29538E+00,	1.79333E+00,	0.00000E+00,	0,	0
  1.25673E+05,	1.00000E+01,	-1.27690E-02,	4.42325E+00,	2.49839E+00,	1.40367E+00,	0.00000E+00,	0,	0
  9.87429E+04,	1.00000E+01,	-1.27690E-02,	5.37892E+00,	2.67707E+00,	1.05268E+00,	0.00000E+00,	0,	0
  7.68000E+04,	1.00000E+01,	-1.27690E-02,	6.29114E+00,	2.78062E+00,	7.90186E-01,	0.00000E+00,	0,	0
  6.01043E+04,	1.00000E+01,	-1.27690E-02,	9.50377E+00,	2.86155E+00,	5.25785E-01,	0.00000E+00,	0,	0
  4.93714E+04,	1.00000E+01,	-1.27690E-02,	1.10669E+01,	2.88037E+00,	3.81540E-01,	0.00000E+00,	0,	0
  3.84000E+04,	1.00000E+01,	-1.27690E-02,	1.19552E+01,	2.89387E+00,	2.11230E-01,	0.00000E+00,	0,	0
  3.00522E+04,	1.00000E+01,	-1.27690E-02,	1.28181E+01,	2.90472E+00,	6.35935E-02,	0.00000E+00,	0,	0
  2.38345E+04,	1.00000E+01,	-1.27690E-02,	1.36776E+01,	2.91596E+00,	-6.86859E-02,	0.00000E+00,	0,	0
  1.86811E+04,	1.00000E+01,	-1.27690E-02,	1.45407E+01,	2.93509E+00,	-2.10814E-01,	0.00000E+00,	0,	0
  1.47064E+04,	1.00000E+01,	-1.27690E-02,	1.55407E+01,	2.95215E+00,	-3.56615E-01,	0.00000E+00,	0,	0
  1.15200E+04,	1.00000E+01,	-1.27690E-02,	1.65352E+01,	2.98091E+00,	-5.17199E-01,	0.00000E+00,	0,	0
  9.60000E+03,	1.00000E+01,	-1.27690E-02,	1.81050E+01,	3.00336E+00,	-6.51688E-01,	0.00000E+00,	0,	0
  7.51304E+03,	1.00000E+01,	-1.27690E-02,	1.89787E+01,	3.04113E+00,	-8.57875E-01,	0.00000E+00,	0,	0
  5.76000E+03,	1.00000E+01,	-1.27690E-02,	1.98990E+01,	3.09171E+00,	-1.12324E+00,	0.00000E+00,	0,	0
  4.54737E+03,	1.00000E+01,	-1.27690E-02,	2.07609E+01,	3.14965E+00,	-1.40853E+00,	0.00000E+00,	0,	0
  3.60000E+03,	1.00000E+01,	-1.27690E-02,	2.17518E+01,	3.21614E+00,	-1.75085E+00,	0.00000E+00,	0,	0
  2.88000E+03,	1.00000E+01,	-1.27690E-02,	2.26400E+01,	3.29258E+00,	-2.14697E+00,	0.00000E+00,	0,	0
  2.27368E+03,	1.00000E+01,	-1.27690E-02,	2.49539E+01,	3.37159E+00,	-2.63055E+00,	0.00000E+00,	0,	0
  1.78144E+03,	1.00000E+01,	-1.27690E-02,	2.57759E+01,	3.50092E+00,	-3.26903E+00,	0.00000E+00,	0,	0
  1.41639E+03,	1.00000E+01,	-1.27690E-02,	2.66674E+01,	3.65575E+00,	-4.01399E+00,	0.00000E+00,	0,	0
  1.12208E+03,	1.00000E+01,	-1.27690E-02,	2.76990E+01,	3.85941E+00,	-4.93589E+00,	0.00000E+00,	0,	0
  9.00000E+02,	1.00000E+01,	-1.27690E-02,	3.26814E+01,	4.11296E+00,	-6.01278E+00,	0.00000E+00,	0,	0
  7.20000E+02,	1.00000E+01,	-1.27690E-02,	3.40527E+01,	4.43001E+00,	-7.31680E+00,	0.00000E+00,	0,	0
  5.68421E+02,	1.00000E+01,	-1.27690E-02,	3.54613E+01,	4.86866E+00,	-8.98608E+00,	0.00000E+00,	0,	0
  4.40816E+02,	1.00000E+01,	-1.27690E-02,	3.84784E+01,	5.50198E+00,	-1.12085E+01,	0.00000E+00,	0,	0
  3.54098E+02,	1.00000E+01,	-1.27690E-02,	4.08199E+01,	6.19215E+00,	-1.34961E+01,	0.00000E+00,	0,	0
  2.76923E+02,	1.00000E+01,	-1.27690E-02,	4.34814E+01,	7.18104E+00,	-1.65500E+01,	0.00000E+00,	0,	0
  2.20408E+02,	1.00000E+01,	-1.27690E-02,	4.64054E+01,	8.32131E+00,	-1.99269E+01,	0.00000E+00,	0,	0
  1.74194E+02,	1.00000E+01,	-1.27690E-02,	4.96711E+01,	9.74525E+00,	-2.40423E+01,	0.00000E+00,	0,	0
  1.37580E+02,	1.00000E+01,	-1.27690E-02,	5.33578E+01,	1.14266E+01,	-2.89380E+01,	0.00000E+00,	0,	0
  1.09091E+02,	1.00000E+01,	-1.27690E-02,	5.74713E+01,	1.33191E+01,	-3.46933E+01,	0.00000E+00,	0,	0
  8.70968E+01,	1.00000E+01,	-1.27690E-02,	6.31589E+01,	1.53619E+01,	-4.14395E+01,	0.00000E+00,	0,	0
  6.83544E+01,	1.00000E+01,	-1.27690E-02,	6.81838E+01,	1.78501E+01,	-5.04708E+01,	0.00000E+00,	0,	0
  5.45455E+01,	1.00000E+01,	-1.27690E-02,	7.36210E+01,	2.05796E+01,	-5.95316E+01,	0.00000E+00,	0,	0
  4.28571E+01,	1.00000E+01,	-1.27690E-02,	7.71628E+01,	2.37161E+01,	-7.23311E+01,	0.00000E+00,	0,	0
  3.39623E+01,	1.00000E+01,	-1.27690E-02,	8.09051E+01,	2.65918E+01,	-8.74506E+01,	0.00000E+00,	0,	0
  2.68657E+01,	1.00000E+01,	-1.27690E-02,	8.47529E+01,	3.06914E+01,	-1.06675E+02,	0.00000E+00,	0,	0
  2.13439E+01,	1.00000E+01,	-1.27690E-02,	8.85843E+01,	3.52287E+01,	-1.29736E+02,	0.00000E+00,	0,	0
  1.73077E+01,	1.00000E+01,	-1.27690E-02,	9.52909E+01,	3.99994E+01,	-1.55574E+02,	0.00000E+00,	0,	0
  1.36364E+01,	1.00000E+01,	-1.27690E-02,	1.00310E+02,	4.60026E+01,	-1.91215E+02,	0.00000E+00,	0,	0
  1.07143E+01,	1.00000E+01,	-1.27690E-02,	1.03238E+02,	5.30120E+01,	-2.36078E+02,	0.00000E+00,	0,	0
  8.49057E+00,	1.00000E+01,	-1.27690E-02,	1.07451E+02,	6.07740E+01,	-2.89987E+02,	0.00000E+00,	0,	0
  6.71642E+00,	1.00000E+01,	-1.27690E-02,	1.09969E+02,	6.97103E+01,	-3.57350E+02,	0.00000E+00,	0,	0
  5.29412E+00,	1.00000E+01,	-1.27690E-02,	1.12895E+02,	8.03599E+01,	-4.42502E+02,	0.00000E+00,	0,	0
  4.16667E+00,	1.00000E+01,	-1.27690E-02,	1.16399E+02,	9.27221E+01,	-5.49864E+02,	0.00000E+00,	0,	0
  3.30882E+00,	1.00000E+01,	-1.27690E-02,	1.20656E+02,	1.06574E+02,	-6.79027E+02,	0.00000E+00,	0,	0
  2.61628E+00,	1.00000E+01,	-1.27690E-02,	1.24634E+02,	1.23499E+02,	-8.42684E+02,	0.00000E+00,	0,	0
  2.07373E+00,	1.00000E+01,	-1.27690E-02,	1.29397E+02,	1.43551E+02,	-1.04512E+03,	0.00000E+00,	0,	0
  1.64234E+00,	1.00000E+01,	-1.27690E-02,	1.35216E+02,	1.67562E+02,	-1.29874E+03,	0.00000E+00,	0,	0
  1.30058E+00,	1.00000E+01,	-1.27690E-02,	1.39429E+02,	1.98105E+02,	-1.61549E+03,	0.00000E+00,	0,	0
  1.03211E+00,	1.00000E+01,	-1.27690E-02,	1.43862E+02,	2.34593E+02,	-2.00725E+03,	0.00000E+00,	0,	0
  8.15217E-01,	1.00000E+01,	-1.27690E-02,	1.50804E+02,	2.81571E+02,	-2.50469E+03,	0.00000E+00,	0,	0
  6.46552E-01,	1.00000E+01,	-1.27690E-02,	1.59912E+02,	3.39301E+02,	-3.11367E+03,	0.00000E+00,	0,	0
  5.11364E-01,	1.00000E+01,	-1.27690E-02,	1.64940E+02,	4.04468E+02,	-3.88295E+03,	0.00000E+00,	0,	0
  4.07609E-01,	1.00000E+01,	-1.27690E-02,	1.71062E+02,	4.96255E+02,	-4.80971E+03,	0.00000E+00,	0,	0
  3.21429E-01,	1.00000E+01,	-1.27690E-02,	1.78192E+02,	6.13344E+02,	-6.04009E+03,	0.00000E+00,	0,	0
  2.54525E-01,	1.00000E+01,	-1.27690E-02,	1.86994E+02,	7.74807E+02,	-7.52222E+03,	0.00000E+00,	0,	0
  2.01613E-01,	1.00000E+01,	-1.27690E-02,	1.97834E+02,	9.79544E+02,	-9.36674E+03,	0.00000E+00,	0,	0
  1.59574E-01,	1.00000E+01,	-1.27690E-02,	2.11318E+02,	1.24935E+03,	-1.16676E+04,	0.00000E+00,	0,	0
  1.26689E-01,	1.00000E+01,	-1.27690E-02,	2.45202E+02,	1.62122E+03,	-1.44073E+04,	0.00000E+00,	0,	0
  1.00446E-01,	1.00000E+01,	-1.27690E-02,	2.66067E+02,	2.01107E+03,	-1.80271E+04,	0.00000E+00,	0,	0