Z60W Data File: Version 1.1
CorrTest for Windows: SN CS310H1805157  V5.2.1111.9  2.5H6.220118
Sweep Frequency: Control Voltage
  Date:5-1-2026   Time:15:19:20
  Begin Information:            Cell Information
      Surface Area:           1
      Density:                7.8
      Weight:                 28
  End Information:              Cell Information
  Freq (Hz)     Ampl(mV)       Bias(V)      Time(Sec)       Z'(Ohm.cm^2)    Z''(Ohm.cm^2)        GD       Err      Range
End Comments
  3.07200E+05,	1.00000E+01,	-1.25057E-02,	6.90929E-02,	3.08368E-01,	4.38003E+00,	0.00000E+00,	0,	0
  2.76480E+05,	1.00000E+01,	-1.25057E-02,	1.67480E+00,	1.00225E+00,	3.26067E+00,	0.00000E+00,	0,	0
  1.97486E+05,	1.00000E+01,	-1.25057E-02,	2.62727E+00,	1.84443E+00,	2.32831E+00,	0.00000E+00,	0,	0
  1.53600E+05,	1.00000E+01,	-1.25057E-02,	3.55343E+00,	2.18075E+00,	1.75595E+00,	0.00000E+00,	0,	0
  1.25673E+05,	1.00000E+01,	-1.25057E-02,	4.46357E+00,	2.36404E+00,	1.38059E+00,	0.00000E+00,	0,	0
  9.87429E+04,	1.00000E+01,	-1.25057E-02,	5.38217E+00,	2.54505E+00,	1.04557E+00,	0.00000E+00,	0,	0
  7.68000E+04,	1.00000E+01,	-1.25057E-02,	6.27725E+00,	2.64245E+00,	7.66502E-01,	0.00000E+00,	0,	0
  6.01043E+04,	1.00000E+01,	-1.25057E-02,	9.51228E+00,	2.73296E+00,	5.17250E-01,	0.00000E+00,	0,	0
  4.93714E+04,	1.00000E+01,	-1.25057E-02,	1.10853E+01,	2.74702E+00,	3.72441E-01,	0.00000E+00,	0,	0
  3.84000E+04,	1.00000E+01,	-1.25057E-02,	1.20171E+01,	2.76127E+00,	2.07882E-01,	0.00000E+00,	0,	0
  3.00522E+04,	1.00000E+01,	-1.25057E-02,	1.29207E+01,	2.77776E+00,	6.75549E-02,	0.00000E+00,	0,	0
  2.38345E+04,	1.00000E+01,	-1.25057E-02,	1.38304E+01,	2.78382E+00,	-6.65211E-02,	0.00000E+00,	0,	0
  1.86811E+04,	1.00000E+01,	-1.25057E-02,	1.46802E+01,	2.80130E+00,	-2.05733E-01,	0.00000E+00,	0,	0
  1.47064E+04,	1.00000E+01,	-1.25057E-02,	1.56411E+01,	2.82207E+00,	-3.49031E-01,	0.00000E+00,	0,	0
  1.15200E+04,	1.00000E+01,	-1.25057E-02,	1.66340E+01,	2.84649E+00,	-5.03947E-01,	0.00000E+00,	0,	0
  9.60000E+03,	1.00000E+01,	-1.25057E-02,	1.82104E+01,	2.86878E+00,	-6.36977E-01,	0.00000E+00,	0,	0
  7.51304E+03,	1.00000E+01,	-1.25057E-02,	1.91297E+01,	2.90706E+00,	-8.35882E-01,	0.00000E+00,	0,	0
  5.76000E+03,	1.00000E+01,	-1.25057E-02,	2.00451E+01,	2.95733E+00,	-1.09809E+00,	0.00000E+00,	0,	0
  4.54737E+03,	1.00000E+01,	-1.25057E-02,	2.09078E+01,	3.00763E+00,	-1.37882E+00,	0.00000E+00,	0,	0
  3.60000E+03,	1.00000E+01,	-1.25057E-02,	2.19008E+01,	3.08079E+00,	-1.71433E+00,	0.00000E+00,	0,	0
  2.88000E+03,	1.00000E+01,	-1.25057E-02,	2.27913E+01,	3.15021E+00,	-2.09708E+00,	0.00000E+00,	0,	0
  2.27368E+03,	1.00000E+01,	-1.25057E-02,	2.50793E+01,	3.20379E+00,	-2.57193E+00,	0.00000E+00,	0,	0
  1.78144E+03,	1.00000E+01,	-1.25057E-02,	2.58634E+01,	3.33274E+00,	-3.20565E+00,	0.00000E+00,	0,	0
  1.41639E+03,	1.00000E+01,	-1.25057E-02,	2.67822E+01,	3.48418E+00,	-3.92846E+00,	0.00000E+00,	0,	0
  1.12208E+03,	1.00000E+01,	-1.25057E-02,	2.78213E+01,	3.67849E+00,	-4.83765E+00,	0.00000E+00,	0,	0
  9.00000E+02,	1.00000E+01,	-1.25057E-02,	3.28045E+01,	3.93832E+00,	-5.88676E+00,	0.00000E+00,	0,	0
  7.20000E+02,	1.00000E+01,	-1.25057E-02,	3.42223E+01,	4.25187E+00,	-7.15967E+00,	0.00000E+00,	0,	0
  5.68421E+02,	1.00000E+01,	-1.25057E-02,	3.56249E+01,	4.68697E+00,	-8.79276E+00,	0.00000E+00,	0,	0
  4.40816E+02,	1.00000E+01,	-1.25057E-02,	3.86492E+01,	5.31558E+00,	-1.09588E+01,	0.00000E+00,	0,	0
  3.54098E+02,	1.00000E+01,	-1.25057E-02,	4.09958E+01,	5.99475E+00,	-1.31750E+01,	0.00000E+00,	0,	0
  2.76923E+02,	1.00000E+01,	-1.25057E-02,	4.36341E+01,	6.97196E+00,	-1.61486E+01,	0.00000E+00,	0,	0
  2.20408E+02,	1.00000E+01,	-1.25057E-02,	4.65524E+01,	8.08716E+00,	-1.94300E+01,	0.00000E+00,	0,	0
  1.74194E+02,	1.00000E+01,	-1.25057E-02,	4.98030E+01,	9.47083E+00,	-2.34246E+01,	0.00000E+00,	0,	0
  1.37580E+02,	1.00000E+01,	-1.25057E-02,	5.34888E+01,	1.10914E+01,	-2.81829E+01,	0.00000E+00,	0,	0
  1.09091E+02,	1.00000E+01,	-1.25057E-02,	5.75663E+01,	1.29049E+01,	-3.37866E+01,	0.00000E+00,	0,	0
  8.70968E+01,	1.00000E+01,	-1.25057E-02,	6.32696E+01,	1.48583E+01,	-4.03735E+01,	0.00000E+00,	0,	0
  6.83544E+01,	1.00000E+01,	-1.25057E-02,	6.82900E+01,	1.72325E+01,	-4.92122E+01,	0.00000E+00,	0,	0
  5.45455E+01,	1.00000E+01,	-1.25057E-02,	7.37377E+01,	1.98518E+01,	-5.81044E+01,	0.00000E+00,	0,	0
  4.28571E+01,	1.00000E+01,	-1.25057E-02,	7.72879E+01,	2.28616E+01,	-7.06617E+01,	0.00000E+00,	0,	0
  3.39623E+01,	1.00000E+01,	-1.25057E-02,	8.10260E+01,	2.56195E+01,	-8.55049E+01,	0.00000E+00,	0,	0
  2.68657E+01,	1.00000E+01,	-1.25057E-02,	8.49054E+01,	2.95600E+01,	-1.04391E+02,	0.00000E+00,	0,	0
  2.13439E+01,	1.00000E+01,	-1.25057E-02,	8.87191E+01,	3.39466E+01,	-1.27054E+02,	0.00000E+00,	0,	0
  1.73077E+01,	1.00000E+01,	-1.25057E-02,	9.53795E+01,	3.85472E+01,	-1.52464E+02,	0.00000E+00,	0,	0
  1.36364E+01,	1.00000E+01,	-1.25057E-02,	1.00417E+02,	4.43455E+01,	-1.87523E+02,	0.00000E+00,	0,	0
  1.07143E+01,	1.00000E+01,	-1.25057E-02,	1.03373E+02,	5.11042E+01,	-2.31632E+02,	0.00000E+00,	0,	0
  8.49057E+00,	1.00000E+01,	-1.25057E-02,	1.07562E+02,	5.85689E+01,	-2.84720E+02,	0.00000E+00,	0,	0
  6.71642E+00,	1.00000E+01,	-1.25057E-02,	1.10088E+02,	6.72015E+01,	-3.51018E+02,	0.00000E+00,	0,	0
  5.29412E+00,	1.00000E+01,	-1.25057E-02,	1.13069E+02,	7.75637E+01,	-4.34976E+02,	0.00000E+00,	0,	0
  4.16667E+00,	1.00000E+01,	-1.25057E-02,	1.16560E+02,	8.95260E+01,	-5.40919E+02,	0.00000E+00,	0,	0
  3.30882E+00,	1.00000E+01,	-1.25057E-02,	1.20830E+02,	1.03053E+02,	-6.68163E+02,	0.00000E+00,	0,	0
  2.61628E+00,	1.00000E+01,	-1.25057E-02,	1.24823E+02,	1.19683E+02,	-8.29668E+02,	0.00000E+00,	0,	0
  2.07373E+00,	1.00000E+01,	-1.25057E-02,	1.29591E+02,	1.39109E+02,	-1.02962E+03,	0.00000E+00,	0,	0
  1.64234E+00,	1.00000E+01,	-1.25057E-02,	1.35384E+02,	1.62875E+02,	-1.27963E+03,	0.00000E+00,	0,	0
  1.30058E+00,	1.00000E+01,	-1.25057E-02,	1.39566E+02,	1.92901E+02,	-1.59243E+03,	0.00000E+00,	0,	0
  1.03211E+00,	1.00000E+01,	-1.25057E-02,	1.43993E+02,	2.29114E+02,	-1.97900E+03,	0.00000E+00,	0,	0
  8.15217E-01,	1.00000E+01,	-1.25057E-02,	1.50916E+02,	2.75686E+02,	-2.47045E+03,	0.00000E+00,	0,	0
  6.46552E-01,	1.00000E+01,	-1.25057E-02,	1.60017E+02,	3.33620E+02,	-3.07112E+03,	0.00000E+00,	0,	0
  5.11364E-01,	1.00000E+01,	-1.25057E-02,	1.65063E+02,	3.99173E+02,	-3.83041E+03,	0.00000E+00,	0,	0
  4.07609E-01,	1.00000E+01,	-1.25057E-02,	1.71109E+02,	4.91769E+02,	-4.74488E+03,	0.00000E+00,	0,	0
  3.21429E-01,	1.00000E+01,	-1.25057E-02,	1.78243E+02,	6.09805E+02,	-5.95969E+03,	0.00000E+00,	0,	0
  2.54525E-01,	1.00000E+01,	-1.25057E-02,	1.87014E+02,	7.72219E+02,	-7.42250E+03,	0.00000E+00,	0,	0
  2.01613E-01,	1.00000E+01,	-1.25057E-02,	1.97851E+02,	9.80538E+02,	-9.24079E+03,	0.00000E+00,	0,	0
  1.59574E-01,	1.00000E+01,	-1.25057E-02,	2.11307E+02,	1.25329E+03,	-1.15144E+04,	0.00000E+00,	0,	0
  1.26689E-01,	1.00000E+01,	-1.25057E-02,	2.45196E+02,	1.63009E+03,	-1.42229E+04,	0.00000E+00,	0,	0
  1.00446E-01,	1.00000E+01,	-1.25057E-02,	2.66063E+02,	2.03057E+03,	-1.77990E+04,	0.00000E+00,	0,	0