Z60W Data File: Version 1.1
CorrTest for Windows: SN CS310H1805157  V5.2.1111.9  2.5H6.220118
Sweep Frequency: Control Voltage
  Date:5-1-2026   Time:11:02:07
  Begin Information:            Cell Information
      Surface Area:           1
      Density:                7.8
      Weight:                 28
  End Information:              Cell Information
  Freq (Hz)     Ampl(mV)       Bias(V)      Time(Sec)       Z'(Ohm.cm^2)    Z''(Ohm.cm^2)        GD       Err      Range
End Comments
  3.07200E+05,	1.00000E+01,	-1.58791E-02,	6.81504E-02,	1.22000E-02,	4.19624E+00,	0.00000E+00,	0,	0
  2.76480E+05,	1.00000E+01,	-1.58791E-02,	1.69912E+00,	6.10769E-01,	3.17810E+00,	0.00000E+00,	0,	0
  1.97486E+05,	1.00000E+01,	-1.58791E-02,	2.60650E+00,	1.51037E+00,	2.18208E+00,	0.00000E+00,	0,	0
  1.53600E+05,	1.00000E+01,	-1.58791E-02,	3.55055E+00,	1.83962E+00,	1.65792E+00,	0.00000E+00,	0,	0
  1.25673E+05,	1.00000E+01,	-1.58791E-02,	4.45974E+00,	2.04877E+00,	1.30065E+00,	0.00000E+00,	0,	0
  9.87429E+04,	1.00000E+01,	-1.58791E-02,	5.35773E+00,	2.21948E+00,	9.89298E-01,	0.00000E+00,	0,	0
  7.68000E+04,	1.00000E+01,	-1.58791E-02,	6.25314E+00,	2.32346E+00,	7.33335E-01,	0.00000E+00,	0,	0
  6.01043E+04,	1.00000E+01,	-1.58791E-02,	9.45834E+00,	2.39553E+00,	4.88741E-01,	0.00000E+00,	0,	0
  4.93714E+04,	1.00000E+01,	-1.58791E-02,	1.10241E+01,	2.41247E+00,	3.55231E-01,	0.00000E+00,	0,	0
  3.84000E+04,	1.00000E+01,	-1.58791E-02,	1.19588E+01,	2.42569E+00,	1.98035E-01,	0.00000E+00,	0,	0
  3.00522E+04,	1.00000E+01,	-1.58791E-02,	1.28191E+01,	2.43781E+00,	6.37128E-02,	0.00000E+00,	0,	0
  2.38345E+04,	1.00000E+01,	-1.58791E-02,	1.37116E+01,	2.44737E+00,	-6.08297E-02,	0.00000E+00,	0,	0
  1.86811E+04,	1.00000E+01,	-1.58791E-02,	1.45611E+01,	2.46173E+00,	-1.87630E-01,	0.00000E+00,	0,	0
  1.47064E+04,	1.00000E+01,	-1.58791E-02,	1.55220E+01,	2.48211E+00,	-3.23264E-01,	0.00000E+00,	0,	0
  1.15200E+04,	1.00000E+01,	-1.58791E-02,	1.65181E+01,	2.50509E+00,	-4.72038E-01,	0.00000E+00,	0,	0
  9.60000E+03,	1.00000E+01,	-1.58791E-02,	1.81183E+01,	2.52675E+00,	-5.95133E-01,	0.00000E+00,	0,	0
  7.51304E+03,	1.00000E+01,	-1.58791E-02,	1.89977E+01,	2.55986E+00,	-7.83061E-01,	0.00000E+00,	0,	0
  5.76000E+03,	1.00000E+01,	-1.58791E-02,	1.99098E+01,	2.60796E+00,	-1.02714E+00,	0.00000E+00,	0,	0
  4.54737E+03,	1.00000E+01,	-1.58791E-02,	2.07651E+01,	2.65497E+00,	-1.29343E+00,	0.00000E+00,	0,	0
  3.60000E+03,	1.00000E+01,	-1.58791E-02,	2.17817E+01,	2.71769E+00,	-1.60300E+00,	0.00000E+00,	0,	0
  2.88000E+03,	1.00000E+01,	-1.58791E-02,	2.27213E+01,	2.79466E+00,	-1.96688E+00,	0.00000E+00,	0,	0
  2.27368E+03,	1.00000E+01,	-1.58791E-02,	2.50525E+01,	2.86038E+00,	-2.42354E+00,	0.00000E+00,	0,	0
  1.78144E+03,	1.00000E+01,	-1.58791E-02,	2.58363E+01,	2.98973E+00,	-3.01207E+00,	0.00000E+00,	0,	0
  1.41639E+03,	1.00000E+01,	-1.58791E-02,	2.67388E+01,	3.13718E+00,	-3.69576E+00,	0.00000E+00,	0,	0
  1.12208E+03,	1.00000E+01,	-1.58791E-02,	2.77714E+01,	3.32981E+00,	-4.54646E+00,	0.00000E+00,	0,	0
  9.00000E+02,	1.00000E+01,	-1.58791E-02,	3.27706E+01,	3.57418E+00,	-5.53310E+00,	0.00000E+00,	0,	0
  7.20000E+02,	1.00000E+01,	-1.58791E-02,	3.41471E+01,	3.88106E+00,	-6.71963E+00,	0.00000E+00,	0,	0
  5.68421E+02,	1.00000E+01,	-1.58791E-02,	3.55073E+01,	4.30400E+00,	-8.24018E+00,	0.00000E+00,	0,	0
  4.40816E+02,	1.00000E+01,	-1.58791E-02,	3.85799E+01,	4.90917E+00,	-1.02493E+01,	0.00000E+00,	0,	0
  3.54098E+02,	1.00000E+01,	-1.58791E-02,	4.09670E+01,	5.55773E+00,	-1.22922E+01,	0.00000E+00,	0,	0
  2.76923E+02,	1.00000E+01,	-1.58791E-02,	4.36353E+01,	6.48215E+00,	-1.50319E+01,	0.00000E+00,	0,	0
  2.20408E+02,	1.00000E+01,	-1.58791E-02,	4.66087E+01,	7.51267E+00,	-1.80412E+01,	0.00000E+00,	0,	0
  1.74194E+02,	1.00000E+01,	-1.58791E-02,	4.98677E+01,	8.76450E+00,	-2.17142E+01,	0.00000E+00,	0,	0
  1.37580E+02,	1.00000E+01,	-1.58791E-02,	5.35284E+01,	1.02154E+01,	-2.61148E+01,	0.00000E+00,	0,	0
  1.09091E+02,	1.00000E+01,	-1.58791E-02,	5.75984E+01,	1.18126E+01,	-3.13271E+01,	0.00000E+00,	0,	0
  8.70968E+01,	1.00000E+01,	-1.58791E-02,	6.32947E+01,	1.35270E+01,	-3.74854E+01,	0.00000E+00,	0,	0
  6.83544E+01,	1.00000E+01,	-1.58791E-02,	6.83569E+01,	1.56143E+01,	-4.57905E+01,	0.00000E+00,	0,	0
  5.45455E+01,	1.00000E+01,	-1.58791E-02,	7.38191E+01,	1.79429E+01,	-5.41880E+01,	0.00000E+00,	0,	0
  4.28571E+01,	1.00000E+01,	-1.58791E-02,	7.73863E+01,	2.06271E+01,	-6.60562E+01,	0.00000E+00,	0,	0
  3.39623E+01,	1.00000E+01,	-1.58791E-02,	8.11271E+01,	2.30760E+01,	-8.00895E+01,	0.00000E+00,	0,	0
  2.68657E+01,	1.00000E+01,	-1.58791E-02,	8.50092E+01,	2.66285E+01,	-9.79722E+01,	0.00000E+00,	0,	0
  2.13439E+01,	1.00000E+01,	-1.58791E-02,	8.88207E+01,	3.05871E+01,	-1.19434E+02,	0.00000E+00,	0,	0
  1.73077E+01,	1.00000E+01,	-1.58791E-02,	9.55035E+01,	3.47523E+01,	-1.43529E+02,	0.00000E+00,	0,	0
  1.36364E+01,	1.00000E+01,	-1.58791E-02,	1.00531E+02,	4.00203E+01,	-1.76791E+02,	0.00000E+00,	0,	0
  1.07143E+01,	1.00000E+01,	-1.58791E-02,	1.03458E+02,	4.61719E+01,	-2.18655E+02,	0.00000E+00,	0,	0
  8.49057E+00,	1.00000E+01,	-1.58791E-02,	1.07670E+02,	5.30405E+01,	-2.69244E+02,	0.00000E+00,	0,	0
  6.71642E+00,	1.00000E+01,	-1.58791E-02,	1.10183E+02,	6.09054E+01,	-3.32141E+02,	0.00000E+00,	0,	0
  5.29412E+00,	1.00000E+01,	-1.58791E-02,	1.13137E+02,	7.04544E+01,	-4.11898E+02,	0.00000E+00,	0,	0
  4.16667E+00,	1.00000E+01,	-1.58791E-02,	1.16614E+02,	8.15446E+01,	-5.12728E+02,	0.00000E+00,	0,	0
  3.30882E+00,	1.00000E+01,	-1.58791E-02,	1.20885E+02,	9.40670E+01,	-6.33840E+02,	0.00000E+00,	0,	0
  2.61628E+00,	1.00000E+01,	-1.58791E-02,	1.24888E+02,	1.09767E+02,	-7.87594E+02,	0.00000E+00,	0,	0
  2.07373E+00,	1.00000E+01,	-1.58791E-02,	1.29663E+02,	1.28341E+02,	-9.77837E+02,	0.00000E+00,	0,	0
  1.64234E+00,	1.00000E+01,	-1.58791E-02,	1.35471E+02,	1.50974E+02,	-1.21615E+03,	0.00000E+00,	0,	0
  1.30058E+00,	1.00000E+01,	-1.58791E-02,	1.39649E+02,	1.80365E+02,	-1.51362E+03,	0.00000E+00,	0,	0
  1.03211E+00,	1.00000E+01,	-1.58791E-02,	1.44053E+02,	2.16410E+02,	-1.88151E+03,	0.00000E+00,	0,	0
  8.15217E-01,	1.00000E+01,	-1.58791E-02,	1.50982E+02,	2.63137E+02,	-2.34866E+03,	0.00000E+00,	0,	0
  6.46552E-01,	1.00000E+01,	-1.58791E-02,	1.60064E+02,	3.21237E+02,	-2.91925E+03,	0.00000E+00,	0,	0
  5.11364E-01,	1.00000E+01,	-1.58791E-02,	1.65098E+02,	3.88605E+02,	-3.63951E+03,	0.00000E+00,	0,	0
  4.07609E-01,	1.00000E+01,	-1.58791E-02,	1.71158E+02,	4.83282E+02,	-4.50627E+03,	0.00000E+00,	0,	0
  3.21429E-01,	1.00000E+01,	-1.58791E-02,	1.78320E+02,	6.05578E+02,	-5.65628E+03,	0.00000E+00,	0,	0
  2.54525E-01,	1.00000E+01,	-1.58791E-02,	1.87104E+02,	7.75628E+02,	-7.03989E+03,	0.00000E+00,	0,	0
  2.01613E-01,	1.00000E+01,	-1.58791E-02,	1.97941E+02,	9.95666E+02,	-8.75928E+03,	0.00000E+00,	0,	0
  1.59574E-01,	1.00000E+01,	-1.58791E-02,	2.11406E+02,	1.28794E+03,	-1.09031E+04,	0.00000E+00,	0,	0
  1.26689E-01,	1.00000E+01,	-1.58791E-02,	2.45292E+02,	1.69127E+03,	-1.34483E+04,	0.00000E+00,	0,	0
  1.00446E-01,	1.00000E+01,	-1.58791E-02,	2.66162E+02,	2.13986E+03,	-1.68115E+04,	0.00000E+00,	0,	0