Z60W Data File: Version 1.1
CorrTest for Windows: SN CS310H1805157  V5.2.1111.9  2.5H6.220118
Sweep Frequency: Control Voltage
  Date:5-1-2026   Time:19:40:11
  Begin Information:            Cell Information
      Surface Area:           1
      Density:                7.8
      Weight:                 28
  End Information:              Cell Information
  Freq (Hz)     Ampl(mV)       Bias(V)      Time(Sec)       Z'(Ohm.cm^2)    Z''(Ohm.cm^2)        GD       Err      Range
End Comments
  3.07200E+05,	1.00000E+01,	-2.65409E-02,	2.44775E-02,	6.77027E+02,	-5.31932E+02,	0.00000E+00,	0,	0
  2.76480E+05,	1.00000E+01,	-2.65409E-02,	1.63464E+00,	7.03906E+02,	-5.75635E+02,	0.00000E+00,	0,	0
  1.97486E+05,	1.00000E+01,	-2.65409E-02,	2.55186E+00,	8.25315E+02,	-7.11089E+02,	0.00000E+00,	0,	0
  1.53600E+05,	1.00000E+01,	-2.65409E-02,	3.45047E+00,	9.28562E+02,	-8.46013E+02,	0.00000E+00,	0,	0
  1.25673E+05,	1.00000E+01,	-2.65409E-02,	4.36200E+00,	1.06742E+03,	-9.41860E+02,	0.00000E+00,	0,	0
  9.87429E+04,	1.00000E+01,	-2.65409E-02,	5.25360E+00,	1.24858E+03,	-1.05137E+03,	0.00000E+00,	0,	0
  7.68000E+04,	1.00000E+01,	-2.65409E-02,	6.15333E+00,	1.46792E+03,	-1.16636E+03,	0.00000E+00,	0,	0
  6.01043E+04,	1.00000E+01,	-2.65409E-02,	8.29543E+00,	1.72653E+03,	-1.21847E+03,	0.00000E+00,	0,	0
  4.93714E+04,	1.00000E+01,	-2.65409E-02,	9.87541E+00,	1.95343E+03,	-1.23913E+03,	0.00000E+00,	0,	0
  3.84000E+04,	1.00000E+01,	-2.65409E-02,	1.07755E+01,	2.22732E+03,	-1.23297E+03,	0.00000E+00,	0,	0
  3.00522E+04,	1.00000E+01,	-2.65409E-02,	1.16583E+01,	2.25181E+03,	-1.43031E+03,	0.00000E+00,	0,	0
  2.38345E+04,	1.00000E+01,	-2.65409E-02,	1.25278E+01,	2.68416E+03,	-1.00822E+03,	0.00000E+00,	0,	0
  1.86811E+04,	1.00000E+01,	-2.65409E-02,	1.33704E+01,	2.87355E+03,	-6.80710E+02,	0.00000E+00,	0,	0
  1.47064E+04,	1.00000E+01,	-2.65409E-02,	1.43347E+01,	2.97585E+03,	-7.57006E+02,	0.00000E+00,	0,	0
  1.15200E+04,	1.00000E+01,	-2.65409E-02,	1.53201E+01,	3.07336E+03,	-6.49137E+02,	0.00000E+00,	0,	0
  9.60000E+03,	1.00000E+01,	-2.65409E-02,	1.69226E+01,	3.10458E+03,	-5.44652E+02,	0.00000E+00,	0,	0
  7.51304E+03,	1.00000E+01,	-2.65409E-02,	1.77945E+01,	3.14720E+03,	-4.93236E+02,	0.00000E+00,	0,	0
  5.76000E+03,	1.00000E+01,	-2.65409E-02,	1.87200E+01,	3.17416E+03,	-4.11722E+02,	0.00000E+00,	0,	0
  4.54737E+03,	1.00000E+01,	-2.65409E-02,	1.95855E+01,	3.26047E+03,	-3.56746E+02,	0.00000E+00,	0,	0
  3.60000E+03,	1.00000E+01,	-2.65409E-02,	2.05759E+01,	3.30161E+03,	-3.11552E+02,	0.00000E+00,	0,	0
  2.88000E+03,	1.00000E+01,	-2.65409E-02,	2.15003E+01,	3.26879E+03,	-3.23458E+02,	0.00000E+00,	0,	0
  2.27368E+03,	1.00000E+01,	-2.65409E-02,	2.26350E+01,	3.27045E+03,	-3.16913E+02,	0.00000E+00,	0,	0
  1.78144E+03,	1.00000E+01,	-2.65409E-02,	2.34650E+01,	3.39244E+03,	-3.71167E+02,	0.00000E+00,	0,	0
  1.41639E+03,	1.00000E+01,	-2.65409E-02,	2.43602E+01,	3.42428E+03,	-3.34815E+02,	0.00000E+00,	0,	0
  1.12208E+03,	1.00000E+01,	-2.65409E-02,	2.53889E+01,	3.53412E+03,	-2.71916E+02,	0.00000E+00,	0,	0
  9.00000E+02,	1.00000E+01,	-2.65409E-02,	3.03662E+01,	3.53915E+03,	-2.93657E+02,	0.00000E+00,	0,	0
  7.20000E+02,	1.00000E+01,	-2.65409E-02,	3.17488E+01,	3.59346E+03,	-2.79066E+02,	0.00000E+00,	0,	0
  5.68421E+02,	1.00000E+01,	-2.65409E-02,	3.31167E+01,	3.63985E+03,	-2.54972E+02,	0.00000E+00,	0,	0
  4.40816E+02,	1.00000E+01,	-2.65409E-02,	3.61722E+01,	3.68988E+03,	-2.31361E+02,	0.00000E+00,	0,	0
  3.54098E+02,	1.00000E+01,	-2.65409E-02,	3.85164E+01,	3.72462E+03,	-2.10088E+02,	0.00000E+00,	0,	0
  2.76923E+02,	1.00000E+01,	-2.65409E-02,	4.11729E+01,	3.75450E+03,	-1.89400E+02,	0.00000E+00,	0,	0
  2.20408E+02,	1.00000E+01,	-2.65409E-02,	4.41098E+01,	3.78020E+03,	-1.74530E+02,	0.00000E+00,	0,	0
  1.74194E+02,	1.00000E+01,	-2.65409E-02,	4.73966E+01,	3.80514E+03,	-1.68626E+02,	0.00000E+00,	0,	0
  1.37580E+02,	1.00000E+01,	-2.65409E-02,	5.10818E+01,	3.82796E+03,	-1.64747E+02,	0.00000E+00,	0,	0
  1.09091E+02,	1.00000E+01,	-2.65409E-02,	5.51569E+01,	3.84809E+03,	-1.73629E+02,	0.00000E+00,	0,	0
  8.70968E+01,	1.00000E+01,	-2.65409E-02,	6.08692E+01,	3.88858E+03,	-1.87474E+02,	0.00000E+00,	0,	0
  6.83544E+01,	1.00000E+01,	-2.65409E-02,	6.58919E+01,	3.93632E+03,	-2.12796E+02,	0.00000E+00,	0,	0
  5.45455E+01,	1.00000E+01,	-2.65409E-02,	7.13485E+01,	3.91964E+03,	-2.06248E+02,	0.00000E+00,	0,	0
  4.28571E+01,	1.00000E+01,	-2.65409E-02,	7.48736E+01,	3.94239E+03,	-2.37479E+02,	0.00000E+00,	0,	0
  3.39623E+01,	1.00000E+01,	-2.65409E-02,	7.86136E+01,	3.95184E+03,	-2.98659E+02,	0.00000E+00,	0,	0
  2.68657E+01,	1.00000E+01,	-2.65409E-02,	8.24519E+01,	3.99621E+03,	-3.43761E+02,	0.00000E+00,	0,	0
  2.13439E+01,	1.00000E+01,	-2.65409E-02,	8.62672E+01,	4.03355E+03,	-4.02138E+02,	0.00000E+00,	0,	0
  1.73077E+01,	1.00000E+01,	-2.65409E-02,	8.99708E+01,	4.06816E+03,	-4.70761E+02,	0.00000E+00,	0,	0
  1.36364E+01,	1.00000E+01,	-2.65409E-02,	9.50092E+01,	4.11487E+03,	-5.65064E+02,	0.00000E+00,	0,	0
  1.07143E+01,	1.00000E+01,	-2.65409E-02,	9.79361E+01,	4.16173E+03,	-6.83248E+02,	0.00000E+00,	0,	0
  8.49057E+00,	1.00000E+01,	-2.65409E-02,	1.02207E+02,	4.22154E+03,	-8.30460E+02,	0.00000E+00,	0,	0
  6.71642E+00,	1.00000E+01,	-2.65409E-02,	1.04713E+02,	4.27153E+03,	-1.00014E+03,	0.00000E+00,	0,	0
  5.29412E+00,	1.00000E+01,	-2.65409E-02,	1.07668E+02,	4.33611E+03,	-1.21068E+03,	0.00000E+00,	0,	0
  4.16667E+00,	1.00000E+01,	-2.65409E-02,	1.11155E+02,	4.41259E+03,	-1.47683E+03,	0.00000E+00,	0,	0
  3.30882E+00,	1.00000E+01,	-2.65409E-02,	1.15391E+02,	4.50456E+03,	-1.78945E+03,	0.00000E+00,	0,	0
  2.61628E+00,	1.00000E+01,	-2.65409E-02,	1.19374E+02,	4.60699E+03,	-2.17982E+03,	0.00000E+00,	0,	0
  2.07373E+00,	1.00000E+01,	-2.65409E-02,	1.24157E+02,	4.72773E+03,	-2.65533E+03,	0.00000E+00,	0,	0
  1.64234E+00,	1.00000E+01,	-2.65409E-02,	1.29954E+02,	4.87590E+03,	-3.24380E+03,	0.00000E+00,	0,	0
  1.30058E+00,	1.00000E+01,	-2.65409E-02,	1.34146E+02,	5.04027E+03,	-3.96505E+03,	0.00000E+00,	0,	0
  1.03211E+00,	1.00000E+01,	-2.65409E-02,	1.38551E+02,	5.25801E+03,	-4.84133E+03,	0.00000E+00,	0,	0
  8.15217E-01,	1.00000E+01,	-2.65409E-02,	1.45488E+02,	5.50674E+03,	-5.94856E+03,	0.00000E+00,	0,	0
  6.46552E-01,	1.00000E+01,	-2.65409E-02,	1.50305E+02,	5.82624E+03,	-7.27388E+03,	0.00000E+00,	0,	0
  5.11364E-01,	1.00000E+01,	-2.65409E-02,	1.55315E+02,	6.14757E+03,	-9.08424E+03,	0.00000E+00,	0,	0
  4.07609E-01,	1.00000E+01,	-2.65409E-02,	1.61379E+02,	6.65511E+03,	-1.10227E+04,	0.00000E+00,	0,	0
  3.21429E-01,	1.00000E+01,	-2.65409E-02,	1.68521E+02,	7.49200E+03,	-1.38120E+04,	0.00000E+00,	0,	0
  2.54525E-01,	1.00000E+01,	-2.65409E-02,	1.77282E+02,	8.33032E+03,	-1.67279E+04,	0.00000E+00,	0,	0
  2.01613E-01,	1.00000E+01,	-2.65409E-02,	1.88126E+02,	9.35696E+03,	-2.02934E+04,	0.00000E+00,	0,	0
  1.59574E-01,	1.00000E+01,	-2.65409E-02,	2.01604E+02,	1.06132E+04,	-2.46030E+04,	0.00000E+00,	0,	0
  1.26689E-01,	1.00000E+01,	-2.65409E-02,	2.35499E+02,	1.20631E+04,	-2.91937E+04,	0.00000E+00,	0,	0
  1.00446E-01,	1.00000E+01,	-2.65409E-02,	2.56420E+02,	1.37949E+04,	-3.65994E+04,	0.00000E+00,	0,	0