Z60W Data File: Version 1.1
CorrTest for Windows: SN CS310H1805157  V5.2.1111.9  2.5H6.220118
Sweep Frequency: Control Voltage
  Date:5-1-2026   Time:14:38:07
  Begin Information:            Cell Information
      Surface Area:           1
      Density:                7.8
      Weight:                 28
  End Information:              Cell Information
  Freq (Hz)     Ampl(mV)       Bias(V)      Time(Sec)       Z'(Ohm.cm^2)    Z''(Ohm.cm^2)        GD       Err      Range
End Comments
  3.07200E+05,	1.00000E+01,	-1.26915E-02,	5.64286E-02,	3.55805E-01,	4.31159E+00,	0.00000E+00,	0,	0
  2.76480E+05,	1.00000E+01,	-1.26915E-02,	1.66131E+00,	9.28294E-01,	3.26321E+00,	0.00000E+00,	0,	0
  1.97486E+05,	1.00000E+01,	-1.26915E-02,	2.55956E+00,	1.80424E+00,	2.29497E+00,	0.00000E+00,	0,	0
  1.53600E+05,	1.00000E+01,	-1.26915E-02,	3.50973E+00,	2.13705E+00,	1.74728E+00,	0.00000E+00,	0,	0
  1.25673E+05,	1.00000E+01,	-1.26915E-02,	4.42386E+00,	2.31815E+00,	1.36957E+00,	0.00000E+00,	0,	0
  9.87429E+04,	1.00000E+01,	-1.26915E-02,	5.34190E+00,	2.50058E+00,	1.02848E+00,	0.00000E+00,	0,	0
  7.68000E+04,	1.00000E+01,	-1.26915E-02,	6.23580E+00,	2.60447E+00,	7.64809E-01,	0.00000E+00,	0,	0
  6.01043E+04,	1.00000E+01,	-1.26915E-02,	9.43804E+00,	2.68457E+00,	5.13582E-01,	0.00000E+00,	0,	0
  4.93714E+04,	1.00000E+01,	-1.26915E-02,	1.10241E+01,	2.69690E+00,	3.70696E-01,	0.00000E+00,	0,	0
  3.84000E+04,	1.00000E+01,	-1.26915E-02,	1.19342E+01,	2.71361E+00,	2.11774E-01,	0.00000E+00,	0,	0
  3.00522E+04,	1.00000E+01,	-1.26915E-02,	1.27918E+01,	2.72521E+00,	6.62606E-02,	0.00000E+00,	0,	0
  2.38345E+04,	1.00000E+01,	-1.26915E-02,	1.36447E+01,	2.73665E+00,	-6.06177E-02,	0.00000E+00,	0,	0
  1.86811E+04,	1.00000E+01,	-1.26915E-02,	1.44839E+01,	2.75269E+00,	-1.97048E-01,	0.00000E+00,	0,	0
  1.47064E+04,	1.00000E+01,	-1.26915E-02,	1.54778E+01,	2.76956E+00,	-3.39866E-01,	0.00000E+00,	0,	0
  1.15200E+04,	1.00000E+01,	-1.26915E-02,	1.64594E+01,	2.79743E+00,	-4.93683E-01,	0.00000E+00,	0,	0
  9.60000E+03,	1.00000E+01,	-1.26915E-02,	1.80447E+01,	2.81780E+00,	-6.21240E-01,	0.00000E+00,	0,	0
  7.51304E+03,	1.00000E+01,	-1.26915E-02,	1.89086E+01,	2.85668E+00,	-8.21275E-01,	0.00000E+00,	0,	0
  5.76000E+03,	1.00000E+01,	-1.26915E-02,	1.98161E+01,	2.89919E+00,	-1.07243E+00,	0.00000E+00,	0,	0
  4.54737E+03,	1.00000E+01,	-1.26915E-02,	2.06694E+01,	2.95132E+00,	-1.34570E+00,	0.00000E+00,	0,	0
  3.60000E+03,	1.00000E+01,	-1.26915E-02,	2.16413E+01,	3.01815E+00,	-1.67948E+00,	0.00000E+00,	0,	0
  2.88000E+03,	1.00000E+01,	-1.26915E-02,	2.25362E+01,	3.09678E+00,	-2.05981E+00,	0.00000E+00,	0,	0
  2.27368E+03,	1.00000E+01,	-1.26915E-02,	2.48171E+01,	3.08366E+00,	-2.52917E+00,	0.00000E+00,	0,	0
  1.78144E+03,	1.00000E+01,	-1.26915E-02,	2.56051E+01,	3.21206E+00,	-3.14937E+00,	0.00000E+00,	0,	0
  1.41639E+03,	1.00000E+01,	-1.26915E-02,	2.65240E+01,	3.36076E+00,	-3.86158E+00,	0.00000E+00,	0,	0
  1.12208E+03,	1.00000E+01,	-1.26915E-02,	2.75639E+01,	3.56542E+00,	-4.74643E+00,	0.00000E+00,	0,	0
  9.00000E+02,	1.00000E+01,	-1.26915E-02,	3.25500E+01,	3.81252E+00,	-5.78079E+00,	0.00000E+00,	0,	0
  7.20000E+02,	1.00000E+01,	-1.26915E-02,	3.39215E+01,	4.12540E+00,	-7.02804E+00,	0.00000E+00,	0,	0
  5.68421E+02,	1.00000E+01,	-1.26915E-02,	3.52911E+01,	4.55928E+00,	-8.62281E+00,	0.00000E+00,	0,	0
  4.40816E+02,	1.00000E+01,	-1.26915E-02,	3.83137E+01,	5.17993E+00,	-1.07392E+01,	0.00000E+00,	0,	0
  3.54098E+02,	1.00000E+01,	-1.26915E-02,	4.06807E+01,	5.85427E+00,	-1.29066E+01,	0.00000E+00,	0,	0
  2.76923E+02,	1.00000E+01,	-1.26915E-02,	4.33400E+01,	6.81022E+00,	-1.57939E+01,	0.00000E+00,	0,	0
  2.20408E+02,	1.00000E+01,	-1.26915E-02,	4.62482E+01,	7.90289E+00,	-1.89854E+01,	0.00000E+00,	0,	0
  1.74194E+02,	1.00000E+01,	-1.26915E-02,	4.95072E+01,	9.24275E+00,	-2.28641E+01,	0.00000E+00,	0,	0
  1.37580E+02,	1.00000E+01,	-1.26915E-02,	5.31906E+01,	1.08096E+01,	-2.74998E+01,	0.00000E+00,	0,	0
  1.09091E+02,	1.00000E+01,	-1.26915E-02,	5.72909E+01,	1.25528E+01,	-3.29714E+01,	0.00000E+00,	0,	0
  8.70968E+01,	1.00000E+01,	-1.26915E-02,	6.29805E+01,	1.44181E+01,	-3.94026E+01,	0.00000E+00,	0,	0
  6.83544E+01,	1.00000E+01,	-1.26915E-02,	6.80004E+01,	1.66861E+01,	-4.80452E+01,	0.00000E+00,	0,	0
  5.45455E+01,	1.00000E+01,	-1.26915E-02,	7.34539E+01,	1.91997E+01,	-5.67685E+01,	0.00000E+00,	0,	0
  4.28571E+01,	1.00000E+01,	-1.26915E-02,	7.69832E+01,	2.20887E+01,	-6.90813E+01,	0.00000E+00,	0,	0
  3.39623E+01,	1.00000E+01,	-1.26915E-02,	8.07164E+01,	2.47312E+01,	-8.36363E+01,	0.00000E+00,	0,	0
  2.68657E+01,	1.00000E+01,	-1.26915E-02,	8.45675E+01,	2.85232E+01,	-1.02171E+02,	0.00000E+00,	0,	0
  2.13439E+01,	1.00000E+01,	-1.26915E-02,	8.83892E+01,	3.27534E+01,	-1.24413E+02,	0.00000E+00,	0,	0
  1.73077E+01,	1.00000E+01,	-1.26915E-02,	9.50627E+01,	3.71779E+01,	-1.49353E+02,	0.00000E+00,	0,	0
  1.36364E+01,	1.00000E+01,	-1.26915E-02,	1.00103E+02,	4.27443E+01,	-1.83739E+02,	0.00000E+00,	0,	0
  1.07143E+01,	1.00000E+01,	-1.26915E-02,	1.03024E+02,	4.92560E+01,	-2.27057E+02,	0.00000E+00,	0,	0
  8.49057E+00,	1.00000E+01,	-1.26915E-02,	1.07224E+02,	5.64430E+01,	-2.79256E+02,	0.00000E+00,	0,	0
  6.71642E+00,	1.00000E+01,	-1.26915E-02,	1.09763E+02,	6.47681E+01,	-3.44384E+02,	0.00000E+00,	0,	0
  5.29412E+00,	1.00000E+01,	-1.26915E-02,	1.12699E+02,	7.47667E+01,	-4.26979E+02,	0.00000E+00,	0,	0
  4.16667E+00,	1.00000E+01,	-1.26915E-02,	1.16172E+02,	8.63255E+01,	-5.31121E+02,	0.00000E+00,	0,	0
  3.30882E+00,	1.00000E+01,	-1.26915E-02,	1.20407E+02,	9.93998E+01,	-6.56302E+02,	0.00000E+00,	0,	0
  2.61628E+00,	1.00000E+01,	-1.26915E-02,	1.24376E+02,	1.15667E+02,	-8.15117E+02,	0.00000E+00,	0,	0
  2.07373E+00,	1.00000E+01,	-1.26915E-02,	1.29143E+02,	1.34723E+02,	-1.01160E+03,	0.00000E+00,	0,	0
  1.64234E+00,	1.00000E+01,	-1.26915E-02,	1.34959E+02,	1.57881E+02,	-1.25756E+03,	0.00000E+00,	0,	0
  1.30058E+00,	1.00000E+01,	-1.26915E-02,	1.39141E+02,	1.87640E+02,	-1.56499E+03,	0.00000E+00,	0,	0
  1.03211E+00,	1.00000E+01,	-1.26915E-02,	1.43582E+02,	2.23416E+02,	-1.94518E+03,	0.00000E+00,	0,	0
  8.15217E-01,	1.00000E+01,	-1.26915E-02,	1.50537E+02,	2.70239E+02,	-2.42747E+03,	0.00000E+00,	0,	0
  6.46552E-01,	1.00000E+01,	-1.26915E-02,	1.59643E+02,	3.28003E+02,	-3.01753E+03,	0.00000E+00,	0,	0
  5.11364E-01,	1.00000E+01,	-1.26915E-02,	1.64648E+02,	3.94313E+02,	-3.76269E+03,	0.00000E+00,	0,	0
  4.07609E-01,	1.00000E+01,	-1.26915E-02,	1.70721E+02,	4.86846E+02,	-4.66035E+03,	0.00000E+00,	0,	0
  3.21429E-01,	1.00000E+01,	-1.26915E-02,	1.77873E+02,	6.06906E+02,	-5.85023E+03,	0.00000E+00,	0,	0
  2.54525E-01,	1.00000E+01,	-1.26915E-02,	1.86638E+02,	7.71330E+02,	-7.28283E+03,	0.00000E+00,	0,	0
  2.01613E-01,	1.00000E+01,	-1.26915E-02,	1.97499E+02,	9.84232E+02,	-9.06295E+03,	0.00000E+00,	0,	0
  1.59574E-01,	1.00000E+01,	-1.26915E-02,	2.10968E+02,	1.26497E+03,	-1.12857E+04,	0.00000E+00,	0,	0
  1.26689E-01,	1.00000E+01,	-1.26915E-02,	2.44849E+02,	1.65162E+03,	-1.39206E+04,	0.00000E+00,	0,	0
  1.00446E-01,	1.00000E+01,	-1.26915E-02,	2.65715E+02,	2.07210E+03,	-1.74047E+04,	0.00000E+00,	0,	0