Z60W Data File: Version 1.1
CorrTest for Windows: SN CS310H1805157  V5.2.1111.9  2.5H6.220118
Sweep Frequency: Control Voltage
  Date:5-1-2026   Time:17:16:37
  Begin Information:            Cell Information
      Surface Area:           1
      Density:                7.8
      Weight:                 28
  End Information:              Cell Information
  Freq (Hz)     Ampl(mV)       Bias(V)      Time(Sec)       Z'(Ohm.cm^2)    Z''(Ohm.cm^2)        GD       Err      Range
End Comments
  3.07200E+05,	1.00000E+01,	-1.39322E-02,	4.32635E-02,	2.85423E+00,	5.68346E+00,	0.00000E+00,	0,	0
  2.76480E+05,	1.00000E+01,	-1.39322E-02,	1.66761E+00,	3.29603E+00,	4.45190E+00,	0.00000E+00,	0,	0
  1.97486E+05,	1.00000E+01,	-1.39322E-02,	2.59011E+00,	4.11394E+00,	3.13671E+00,	0.00000E+00,	0,	0
  1.53600E+05,	1.00000E+01,	-1.39322E-02,	3.52261E+00,	4.43255E+00,	2.41037E+00,	0.00000E+00,	0,	0
  1.25673E+05,	1.00000E+01,	-1.39322E-02,	4.47189E+00,	4.59403E+00,	1.89650E+00,	0.00000E+00,	0,	0
  9.87429E+04,	1.00000E+01,	-1.39322E-02,	5.41927E+00,	4.76384E+00,	1.42760E+00,	0.00000E+00,	0,	0
  7.68000E+04,	1.00000E+01,	-1.39322E-02,	6.32001E+00,	4.87009E+00,	1.06636E+00,	0.00000E+00,	0,	0
  6.01043E+04,	1.00000E+01,	-1.39322E-02,	8.44357E+00,	4.91914E+00,	7.51537E-01,	0.00000E+00,	0,	0
  4.93714E+04,	1.00000E+01,	-1.39322E-02,	1.00487E+01,	4.94276E+00,	5.50055E-01,	0.00000E+00,	0,	0
  3.84000E+04,	1.00000E+01,	-1.39322E-02,	1.09530E+01,	4.96335E+00,	3.30593E-01,	0.00000E+00,	0,	0
  3.00522E+04,	1.00000E+01,	-1.39322E-02,	1.18103E+01,	4.97518E+00,	1.37718E-01,	0.00000E+00,	0,	0
  2.38345E+04,	1.00000E+01,	-1.39322E-02,	1.26759E+01,	4.98804E+00,	-3.45752E-02,	0.00000E+00,	0,	0
  1.86811E+04,	1.00000E+01,	-1.39322E-02,	1.35258E+01,	5.01318E+00,	-2.13207E-01,	0.00000E+00,	0,	0
  1.47064E+04,	1.00000E+01,	-1.39322E-02,	1.44822E+01,	5.03914E+00,	-3.93548E-01,	0.00000E+00,	0,	0
  1.15200E+04,	1.00000E+01,	-1.39322E-02,	1.54629E+01,	5.06843E+00,	-5.98353E-01,	0.00000E+00,	0,	0
  9.60000E+03,	1.00000E+01,	-1.39322E-02,	1.70367E+01,	5.09915E+00,	-7.59110E-01,	0.00000E+00,	0,	0
  7.51304E+03,	1.00000E+01,	-1.39322E-02,	1.79431E+01,	5.14100E+00,	-1.00186E+00,	0.00000E+00,	0,	0
  5.76000E+03,	1.00000E+01,	-1.39322E-02,	1.88414E+01,	5.20553E+00,	-1.32301E+00,	0.00000E+00,	0,	0
  4.54737E+03,	1.00000E+01,	-1.39322E-02,	1.97513E+01,	5.27674E+00,	-1.65839E+00,	0.00000E+00,	0,	0
  3.60000E+03,	1.00000E+01,	-1.39322E-02,	2.07545E+01,	5.35759E+00,	-2.06584E+00,	0.00000E+00,	0,	0
  2.88000E+03,	1.00000E+01,	-1.39322E-02,	2.16832E+01,	5.44893E+00,	-2.53211E+00,	0.00000E+00,	0,	0
  2.27368E+03,	1.00000E+01,	-1.39322E-02,	2.28414E+01,	5.57441E+00,	-3.12658E+00,	0.00000E+00,	0,	0
  1.78144E+03,	1.00000E+01,	-1.39322E-02,	2.36419E+01,	5.72574E+00,	-3.88755E+00,	0.00000E+00,	0,	0
  1.41639E+03,	1.00000E+01,	-1.39322E-02,	2.45564E+01,	5.91169E+00,	-4.75915E+00,	0.00000E+00,	0,	0
  1.12208E+03,	1.00000E+01,	-1.39322E-02,	2.56070E+01,	6.13378E+00,	-5.84993E+00,	0.00000E+00,	0,	0
  9.00000E+02,	1.00000E+01,	-1.39322E-02,	3.06127E+01,	6.41407E+00,	-7.12441E+00,	0.00000E+00,	0,	0
  7.20000E+02,	1.00000E+01,	-1.39322E-02,	3.19895E+01,	6.74900E+00,	-8.67126E+00,	0.00000E+00,	0,	0
  5.68421E+02,	1.00000E+01,	-1.39322E-02,	3.33530E+01,	7.19938E+00,	-1.06761E+01,	0.00000E+00,	0,	0
  4.40816E+02,	1.00000E+01,	-1.39322E-02,	3.63916E+01,	7.85246E+00,	-1.33829E+01,	0.00000E+00,	0,	0
  3.54098E+02,	1.00000E+01,	-1.39322E-02,	3.87339E+01,	8.55835E+00,	-1.61885E+01,	0.00000E+00,	0,	0
  2.76923E+02,	1.00000E+01,	-1.39322E-02,	4.13745E+01,	9.60209E+00,	-2.00214E+01,	0.00000E+00,	0,	0
  2.20408E+02,	1.00000E+01,	-1.39322E-02,	4.42908E+01,	1.08584E+01,	-2.43338E+01,	0.00000E+00,	0,	0
  1.74194E+02,	1.00000E+01,	-1.39322E-02,	4.75593E+01,	1.25162E+01,	-2.96426E+01,	0.00000E+00,	0,	0
  1.37580E+02,	1.00000E+01,	-1.39322E-02,	5.12114E+01,	1.46177E+01,	-3.60010E+01,	0.00000E+00,	0,	0
  1.09091E+02,	1.00000E+01,	-1.39322E-02,	5.53189E+01,	1.71661E+01,	-4.34454E+01,	0.00000E+00,	0,	0
  8.70968E+01,	1.00000E+01,	-1.39322E-02,	6.10168E+01,	2.01025E+01,	-5.20331E+01,	0.00000E+00,	0,	0
  6.83544E+01,	1.00000E+01,	-1.39322E-02,	6.60352E+01,	2.38424E+01,	-6.32966E+01,	0.00000E+00,	0,	0
  5.45455E+01,	1.00000E+01,	-1.39322E-02,	7.14916E+01,	2.79738E+01,	-7.43001E+01,	0.00000E+00,	0,	0
  4.28571E+01,	1.00000E+01,	-1.39322E-02,	7.50456E+01,	3.27658E+01,	-8.95771E+01,	0.00000E+00,	0,	0
  3.39623E+01,	1.00000E+01,	-1.39322E-02,	7.87851E+01,	3.72219E+01,	-1.07412E+02,	0.00000E+00,	0,	0
  2.68657E+01,	1.00000E+01,	-1.39322E-02,	8.26439E+01,	4.32458E+01,	-1.29912E+02,	0.00000E+00,	0,	0
  2.13439E+01,	1.00000E+01,	-1.39322E-02,	8.64419E+01,	4.98112E+01,	-1.56739E+02,	0.00000E+00,	0,	0
  1.73077E+01,	1.00000E+01,	-1.39322E-02,	9.30883E+01,	5.66312E+01,	-1.86733E+02,	0.00000E+00,	0,	0
  1.36364E+01,	1.00000E+01,	-1.39322E-02,	9.81096E+01,	6.51705E+01,	-2.27921E+02,	0.00000E+00,	0,	0
  1.07143E+01,	1.00000E+01,	-1.39322E-02,	1.01000E+02,	7.50889E+01,	-2.79553E+02,	0.00000E+00,	0,	0
  8.49057E+00,	1.00000E+01,	-1.39322E-02,	1.05169E+02,	8.60292E+01,	-3.41461E+02,	0.00000E+00,	0,	0
  6.71642E+00,	1.00000E+01,	-1.39322E-02,	1.07659E+02,	9.87468E+01,	-4.18571E+02,	0.00000E+00,	0,	0
  5.29412E+00,	1.00000E+01,	-1.39322E-02,	1.10575E+02,	1.13711E+02,	-5.15348E+02,	0.00000E+00,	0,	0
  4.16667E+00,	1.00000E+01,	-1.39322E-02,	1.14018E+02,	1.30892E+02,	-6.37207E+02,	0.00000E+00,	0,	0
  3.30882E+00,	1.00000E+01,	-1.39322E-02,	1.18241E+02,	1.49966E+02,	-7.82982E+02,	0.00000E+00,	0,	0
  2.61628E+00,	1.00000E+01,	-1.39322E-02,	1.22182E+02,	1.72758E+02,	-9.67118E+02,	0.00000E+00,	0,	0
  2.07373E+00,	1.00000E+01,	-1.39322E-02,	1.26937E+02,	1.98763E+02,	-1.19495E+03,	0.00000E+00,	0,	0
  1.64234E+00,	1.00000E+01,	-1.39322E-02,	1.32705E+02,	2.29367E+02,	-1.47941E+03,	0.00000E+00,	0,	0
  1.30058E+00,	1.00000E+01,	-1.39322E-02,	1.36889E+02,	2.66167E+02,	-1.83439E+03,	0.00000E+00,	0,	0
  1.03211E+00,	1.00000E+01,	-1.39322E-02,	1.41284E+02,	3.09787E+02,	-2.27363E+03,	0.00000E+00,	0,	0
  8.15217E-01,	1.00000E+01,	-1.39322E-02,	1.48214E+02,	3.63651E+02,	-2.83138E+03,	0.00000E+00,	0,	0
  6.46552E-01,	1.00000E+01,	-1.39322E-02,	1.57282E+02,	4.27186E+02,	-3.51392E+03,	0.00000E+00,	0,	0
  5.11364E-01,	1.00000E+01,	-1.39322E-02,	1.62272E+02,	4.95250E+02,	-4.37835E+03,	0.00000E+00,	0,	0
  4.07609E-01,	1.00000E+01,	-1.39322E-02,	1.68301E+02,	5.90358E+02,	-5.42100E+03,	0.00000E+00,	0,	0
  3.21429E-01,	1.00000E+01,	-1.39322E-02,	1.75410E+02,	7.07203E+02,	-6.80938E+03,	0.00000E+00,	0,	0
  2.54525E-01,	1.00000E+01,	-1.39322E-02,	1.84163E+02,	8.65882E+02,	-8.48233E+03,	0.00000E+00,	0,	0
  2.01613E-01,	1.00000E+01,	-1.39322E-02,	1.94972E+02,	1.06180E+03,	-1.05675E+04,	0.00000E+00,	0,	0
  1.59574E-01,	1.00000E+01,	-1.39322E-02,	2.08435E+02,	1.31317E+03,	-1.31798E+04,	0.00000E+00,	0,	0
  1.26689E-01,	1.00000E+01,	-1.39322E-02,	2.42312E+02,	1.65716E+03,	-1.63061E+04,	0.00000E+00,	0,	0
  1.00446E-01,	1.00000E+01,	-1.39322E-02,	2.63186E+02,	1.98927E+03,	-2.04410E+04,	0.00000E+00,	0,	0