Z60W Data File: Version 1.1
CorrTest for Windows: SN CS310H1805157  V5.2.1111.9  2.5H6.220118
Sweep Frequency: Control Voltage
  Date:5-1-2026   Time:15:57:12
  Begin Information:            Cell Information
      Surface Area:           1
      Density:                7.8
      Weight:                 28
  End Information:              Cell Information
  Freq (Hz)     Ampl(mV)       Bias(V)      Time(Sec)       Z'(Ohm.cm^2)    Z''(Ohm.cm^2)        GD       Err      Range
End Comments
  3.07200E+05,	1.00000E+01,	-1.29996E-02,	3.23850E-02,	9.72803E-01,	4.69092E+00,	0.00000E+00,	0,	0
  2.76480E+05,	1.00000E+01,	-1.29996E-02,	1.64268E+00,	1.56140E+00,	3.67163E+00,	0.00000E+00,	0,	0
  1.97486E+05,	1.00000E+01,	-1.29996E-02,	2.56020E+00,	2.43410E+00,	2.54514E+00,	0.00000E+00,	0,	0
  1.53600E+05,	1.00000E+01,	-1.29996E-02,	3.46418E+00,	2.78949E+00,	1.92244E+00,	0.00000E+00,	0,	0
  1.25673E+05,	1.00000E+01,	-1.29996E-02,	4.35984E+00,	2.96151E+00,	1.50926E+00,	0.00000E+00,	0,	0
  9.87429E+04,	1.00000E+01,	-1.29996E-02,	5.27396E+00,	3.13509E+00,	1.15218E+00,	0.00000E+00,	0,	0
  7.68000E+04,	1.00000E+01,	-1.29996E-02,	6.19071E+00,	3.23071E+00,	8.43842E-01,	0.00000E+00,	0,	0
  6.01043E+04,	1.00000E+01,	-1.29996E-02,	9.40043E+00,	3.32379E+00,	5.67379E-01,	0.00000E+00,	0,	0
  4.93714E+04,	1.00000E+01,	-1.29996E-02,	1.10203E+01,	3.33746E+00,	4.10525E-01,	0.00000E+00,	0,	0
  3.84000E+04,	1.00000E+01,	-1.29996E-02,	1.19253E+01,	3.35099E+00,	2.29714E-01,	0.00000E+00,	0,	0
  3.00522E+04,	1.00000E+01,	-1.29996E-02,	1.28036E+01,	3.36766E+00,	7.41013E-02,	0.00000E+00,	0,	0
  2.38345E+04,	1.00000E+01,	-1.29996E-02,	1.36925E+01,	3.38086E+00,	-6.82206E-02,	0.00000E+00,	0,	0
  1.86811E+04,	1.00000E+01,	-1.29996E-02,	1.45819E+01,	3.39882E+00,	-2.15593E-01,	0.00000E+00,	0,	0
  1.47064E+04,	1.00000E+01,	-1.29996E-02,	1.55276E+01,	3.41822E+00,	-3.71956E-01,	0.00000E+00,	0,	0
  1.15200E+04,	1.00000E+01,	-1.29996E-02,	1.65009E+01,	3.44885E+00,	-5.43547E-01,	0.00000E+00,	0,	0
  9.60000E+03,	1.00000E+01,	-1.29996E-02,	1.81017E+01,	3.47225E+00,	-6.83617E-01,	0.00000E+00,	0,	0
  7.51304E+03,	1.00000E+01,	-1.29996E-02,	1.89751E+01,	3.51302E+00,	-8.99561E-01,	0.00000E+00,	0,	0
  5.76000E+03,	1.00000E+01,	-1.29996E-02,	1.98780E+01,	3.56713E+00,	-1.17981E+00,	0.00000E+00,	0,	0
  4.54737E+03,	1.00000E+01,	-1.29996E-02,	2.07341E+01,	3.62777E+00,	-1.48010E+00,	0.00000E+00,	0,	0
  3.60000E+03,	1.00000E+01,	-1.29996E-02,	2.17115E+01,	3.69519E+00,	-1.83311E+00,	0.00000E+00,	0,	0
  2.88000E+03,	1.00000E+01,	-1.29996E-02,	2.26118E+01,	3.77929E+00,	-2.25048E+00,	0.00000E+00,	0,	0
  2.27368E+03,	1.00000E+01,	-1.29996E-02,	2.49178E+01,	3.85982E+00,	-2.76119E+00,	0.00000E+00,	0,	0
  1.78144E+03,	1.00000E+01,	-1.29996E-02,	2.57528E+01,	3.99122E+00,	-3.43637E+00,	0.00000E+00,	0,	0
  1.41639E+03,	1.00000E+01,	-1.29996E-02,	2.66803E+01,	4.15163E+00,	-4.21236E+00,	0.00000E+00,	0,	0
  1.12208E+03,	1.00000E+01,	-1.29996E-02,	2.77125E+01,	4.36380E+00,	-5.17537E+00,	0.00000E+00,	0,	0
  9.00000E+02,	1.00000E+01,	-1.29996E-02,	3.26918E+01,	4.62185E+00,	-6.31278E+00,	0.00000E+00,	0,	0
  7.20000E+02,	1.00000E+01,	-1.29996E-02,	3.40706E+01,	4.94315E+00,	-7.67903E+00,	0.00000E+00,	0,	0
  5.68421E+02,	1.00000E+01,	-1.29996E-02,	3.54431E+01,	5.38440E+00,	-9.44404E+00,	0.00000E+00,	0,	0
  4.40816E+02,	1.00000E+01,	-1.29996E-02,	3.84742E+01,	6.02743E+00,	-1.17990E+01,	0.00000E+00,	0,	0
  3.54098E+02,	1.00000E+01,	-1.29996E-02,	4.08733E+01,	6.72990E+00,	-1.42347E+01,	0.00000E+00,	0,	0
  2.76923E+02,	1.00000E+01,	-1.29996E-02,	4.35088E+01,	7.74721E+00,	-1.74978E+01,	0.00000E+00,	0,	0
  2.20408E+02,	1.00000E+01,	-1.29996E-02,	4.64402E+01,	8.94144E+00,	-2.11281E+01,	0.00000E+00,	0,	0
  1.74194E+02,	1.00000E+01,	-1.29996E-02,	4.96904E+01,	1.04535E+01,	-2.55460E+01,	0.00000E+00,	0,	0
  1.37580E+02,	1.00000E+01,	-1.29996E-02,	5.33509E+01,	1.22772E+01,	-3.07989E+01,	0.00000E+00,	0,	0
  1.09091E+02,	1.00000E+01,	-1.29996E-02,	5.74098E+01,	1.43670E+01,	-3.69581E+01,	0.00000E+00,	0,	0
  8.70968E+01,	1.00000E+01,	-1.29996E-02,	6.30941E+01,	1.66490E+01,	-4.41249E+01,	0.00000E+00,	0,	0
  6.83544E+01,	1.00000E+01,	-1.29996E-02,	6.81650E+01,	1.94437E+01,	-5.36680E+01,	0.00000E+00,	0,	0
  5.45455E+01,	1.00000E+01,	-1.29996E-02,	7.36274E+01,	2.24922E+01,	-6.31888E+01,	0.00000E+00,	0,	0
  4.28571E+01,	1.00000E+01,	-1.29996E-02,	7.71906E+01,	2.59925E+01,	-7.66052E+01,	0.00000E+00,	0,	0
  3.39623E+01,	1.00000E+01,	-1.29996E-02,	8.09175E+01,	2.92045E+01,	-9.24135E+01,	0.00000E+00,	0,	0
  2.68657E+01,	1.00000E+01,	-1.29996E-02,	8.47768E+01,	3.37214E+01,	-1.12517E+02,	0.00000E+00,	0,	0
  2.13439E+01,	1.00000E+01,	-1.29996E-02,	8.85953E+01,	3.87243E+01,	-1.36603E+02,	0.00000E+00,	0,	0
  1.73077E+01,	1.00000E+01,	-1.29996E-02,	9.52825E+01,	4.39669E+01,	-1.63578E+02,	0.00000E+00,	0,	0
  1.36364E+01,	1.00000E+01,	-1.29996E-02,	1.00322E+02,	5.05659E+01,	-2.00741E+02,	0.00000E+00,	0,	0
  1.07143E+01,	1.00000E+01,	-1.29996E-02,	1.03261E+02,	5.82675E+01,	-2.47454E+02,	0.00000E+00,	0,	0
  8.49057E+00,	1.00000E+01,	-1.29996E-02,	1.07465E+02,	6.67810E+01,	-3.03593E+02,	0.00000E+00,	0,	0
  6.71642E+00,	1.00000E+01,	-1.29996E-02,	1.10006E+02,	7.66479E+01,	-3.73749E+02,	0.00000E+00,	0,	0
  5.29412E+00,	1.00000E+01,	-1.29996E-02,	1.12974E+02,	8.83527E+01,	-4.61920E+02,	0.00000E+00,	0,	0
  4.16667E+00,	1.00000E+01,	-1.29996E-02,	1.16504E+02,	1.01808E+02,	-5.73402E+02,	0.00000E+00,	0,	0
  3.30882E+00,	1.00000E+01,	-1.29996E-02,	1.20753E+02,	1.16848E+02,	-7.07243E+02,	0.00000E+00,	0,	0
  2.61628E+00,	1.00000E+01,	-1.29996E-02,	1.24751E+02,	1.35209E+02,	-8.76737E+02,	0.00000E+00,	0,	0
  2.07373E+00,	1.00000E+01,	-1.29996E-02,	1.29562E+02,	1.56464E+02,	-1.08649E+03,	0.00000E+00,	0,	0
  1.64234E+00,	1.00000E+01,	-1.29996E-02,	1.35348E+02,	1.81945E+02,	-1.34887E+03,	0.00000E+00,	0,	0
  1.30058E+00,	1.00000E+01,	-1.29996E-02,	1.39516E+02,	2.13398E+02,	-1.67689E+03,	0.00000E+00,	0,	0
  1.03211E+00,	1.00000E+01,	-1.29996E-02,	1.43924E+02,	2.51152E+02,	-2.08268E+03,	0.00000E+00,	0,	0
  8.15217E-01,	1.00000E+01,	-1.29996E-02,	1.50870E+02,	2.99108E+02,	-2.59813E+03,	0.00000E+00,	0,	0
  6.46552E-01,	1.00000E+01,	-1.29996E-02,	1.59954E+02,	3.57965E+02,	-3.22953E+03,	0.00000E+00,	0,	0
  5.11364E-01,	1.00000E+01,	-1.29996E-02,	1.64969E+02,	4.22984E+02,	-4.02802E+03,	0.00000E+00,	0,	0
  4.07609E-01,	1.00000E+01,	-1.29996E-02,	1.71048E+02,	5.14282E+02,	-4.99005E+03,	0.00000E+00,	0,	0
  3.21429E-01,	1.00000E+01,	-1.29996E-02,	1.78171E+02,	6.29243E+02,	-6.26730E+03,	0.00000E+00,	0,	0
  2.54525E-01,	1.00000E+01,	-1.29996E-02,	1.86973E+02,	7.87868E+02,	-7.80878E+03,	0.00000E+00,	0,	0
  2.01613E-01,	1.00000E+01,	-1.29996E-02,	1.97825E+02,	9.86711E+02,	-9.72785E+03,	0.00000E+00,	0,	0
  1.59574E-01,	1.00000E+01,	-1.29996E-02,	2.11288E+02,	1.24771E+03,	-1.21260E+04,	0.00000E+00,	0,	0
  1.26689E-01,	1.00000E+01,	-1.29996E-02,	2.45182E+02,	1.60623E+03,	-1.49887E+04,	0.00000E+00,	0,	0
  1.00446E-01,	1.00000E+01,	-1.29996E-02,	2.66068E+02,	1.97075E+03,	-1.87656E+04,	0.00000E+00,	0,	0