Z60W Data File: Version 1.1
CorrTest for Windows: SN CS310H1805157  V5.2.1111.9  2.5H6.220118
Sweep Frequency: Control Voltage
  Date:5-1-2026   Time:17:00:27
  Begin Information:            Cell Information
      Surface Area:           1
      Density:                7.8
      Weight:                 28
  End Information:              Cell Information
  Freq (Hz)     Ampl(mV)       Bias(V)      Time(Sec)       Z'(Ohm.cm^2)    Z''(Ohm.cm^2)        GD       Err      Range
End Comments
  3.07200E+05,	1.00000E+01,	-1.36626E-02,	2.63937E-02,	2.43130E+00,	5.47878E+00,	0.00000E+00,	0,	0
  2.76480E+05,	1.00000E+01,	-1.36626E-02,	1.62620E+00,	3.01572E+00,	4.28512E+00,	0.00000E+00,	0,	0
  1.97486E+05,	1.00000E+01,	-1.36626E-02,	2.53271E+00,	3.75522E+00,	2.99898E+00,	0.00000E+00,	0,	0
  1.53600E+05,	1.00000E+01,	-1.36626E-02,	3.45964E+00,	4.04562E+00,	2.28315E+00,	0.00000E+00,	0,	0
  1.25673E+05,	1.00000E+01,	-1.36626E-02,	4.38064E+00,	4.25568E+00,	1.82309E+00,	0.00000E+00,	0,	0
  9.87429E+04,	1.00000E+01,	-1.36626E-02,	5.30316E+00,	4.40227E+00,	1.36854E+00,	0.00000E+00,	0,	0
  7.68000E+04,	1.00000E+01,	-1.36626E-02,	6.20428E+00,	4.50440E+00,	1.00867E+00,	0.00000E+00,	0,	0
  6.01043E+04,	1.00000E+01,	-1.36626E-02,	8.32893E+00,	4.56067E+00,	7.13121E-01,	0.00000E+00,	0,	0
  4.93714E+04,	1.00000E+01,	-1.36626E-02,	9.89203E+00,	4.57966E+00,	5.21608E-01,	0.00000E+00,	0,	0
  3.84000E+04,	1.00000E+01,	-1.36626E-02,	1.07947E+01,	4.59405E+00,	3.11447E-01,	0.00000E+00,	0,	0
  3.00522E+04,	1.00000E+01,	-1.36626E-02,	1.16549E+01,	4.61546E+00,	1.22774E-01,	0.00000E+00,	0,	0
  2.38345E+04,	1.00000E+01,	-1.36626E-02,	1.25235E+01,	4.62909E+00,	-4.55367E-02,	0.00000E+00,	0,	0
  1.86811E+04,	1.00000E+01,	-1.36626E-02,	1.33778E+01,	4.65433E+00,	-2.12456E-01,	0.00000E+00,	0,	0
  1.47064E+04,	1.00000E+01,	-1.36626E-02,	1.43442E+01,	4.67166E+00,	-3.93267E-01,	0.00000E+00,	0,	0
  1.15200E+04,	1.00000E+01,	-1.36626E-02,	1.64570E+01,	4.74984E+00,	-5.99159E-01,	0.00000E+00,	0,	0
  9.60000E+03,	1.00000E+01,	-1.36626E-02,	1.80226E+01,	4.77377E+00,	-7.56488E-01,	0.00000E+00,	0,	0
  7.51304E+03,	1.00000E+01,	-1.36626E-02,	1.89210E+01,	4.82091E+00,	-1.00179E+00,	0.00000E+00,	0,	0
  5.76000E+03,	1.00000E+01,	-1.36626E-02,	1.97912E+01,	4.88342E+00,	-1.31031E+00,	0.00000E+00,	0,	0
  4.54737E+03,	1.00000E+01,	-1.36626E-02,	2.06563E+01,	4.94611E+00,	-1.64477E+00,	0.00000E+00,	0,	0
  3.60000E+03,	1.00000E+01,	-1.36626E-02,	2.16626E+01,	5.03597E+00,	-2.04589E+00,	0.00000E+00,	0,	0
  2.88000E+03,	1.00000E+01,	-1.36626E-02,	2.25593E+01,	5.12102E+00,	-2.50416E+00,	0.00000E+00,	0,	0
  2.27368E+03,	1.00000E+01,	-1.36626E-02,	2.48393E+01,	5.18398E+00,	-3.05679E+00,	0.00000E+00,	0,	0
  1.78144E+03,	1.00000E+01,	-1.36626E-02,	2.56394E+01,	5.33168E+00,	-3.80274E+00,	0.00000E+00,	0,	0
  1.41639E+03,	1.00000E+01,	-1.36626E-02,	2.65483E+01,	5.50985E+00,	-4.66236E+00,	0.00000E+00,	0,	0
  1.12208E+03,	1.00000E+01,	-1.36626E-02,	2.75864E+01,	5.73167E+00,	-5.73366E+00,	0.00000E+00,	0,	0
  9.00000E+02,	1.00000E+01,	-1.36626E-02,	3.25892E+01,	6.00573E+00,	-6.97814E+00,	0.00000E+00,	0,	0
  7.20000E+02,	1.00000E+01,	-1.36626E-02,	3.39879E+01,	6.33621E+00,	-8.49597E+00,	0.00000E+00,	0,	0
  5.68421E+02,	1.00000E+01,	-1.36626E-02,	3.53710E+01,	6.78503E+00,	-1.04616E+01,	0.00000E+00,	0,	0
  4.40816E+02,	1.00000E+01,	-1.36626E-02,	3.83983E+01,	7.43847E+00,	-1.31093E+01,	0.00000E+00,	0,	0
  3.54098E+02,	1.00000E+01,	-1.36626E-02,	4.07369E+01,	8.14890E+00,	-1.58637E+01,	0.00000E+00,	0,	0
  2.76923E+02,	1.00000E+01,	-1.36626E-02,	4.33954E+01,	9.19370E+00,	-1.96052E+01,	0.00000E+00,	0,	0
  2.20408E+02,	1.00000E+01,	-1.36626E-02,	4.62972E+01,	1.04454E+01,	-2.38027E+01,	0.00000E+00,	0,	0
  1.74194E+02,	1.00000E+01,	-1.36626E-02,	4.95570E+01,	1.20929E+01,	-2.89667E+01,	0.00000E+00,	0,	0
  1.37580E+02,	1.00000E+01,	-1.36626E-02,	5.32215E+01,	1.41667E+01,	-3.51361E+01,	0.00000E+00,	0,	0
  1.09091E+02,	1.00000E+01,	-1.36626E-02,	5.72890E+01,	1.66530E+01,	-4.23407E+01,	0.00000E+00,	0,	0
  8.70968E+01,	1.00000E+01,	-1.36626E-02,	6.30200E+01,	1.94873E+01,	-5.06707E+01,	0.00000E+00,	0,	0
  6.83544E+01,	1.00000E+01,	-1.36626E-02,	6.80654E+01,	2.30718E+01,	-6.16092E+01,	0.00000E+00,	0,	0
  5.45455E+01,	1.00000E+01,	-1.36626E-02,	7.35396E+01,	2.70069E+01,	-7.23257E+01,	0.00000E+00,	0,	0
  4.28571E+01,	1.00000E+01,	-1.36626E-02,	7.71043E+01,	3.15535E+01,	-8.72558E+01,	0.00000E+00,	0,	0
  3.39623E+01,	1.00000E+01,	-1.36626E-02,	8.08319E+01,	3.57728E+01,	-1.04727E+02,	0.00000E+00,	0,	0
  2.68657E+01,	1.00000E+01,	-1.36626E-02,	8.46711E+01,	4.14897E+01,	-1.26819E+02,	0.00000E+00,	0,	0
  2.13439E+01,	1.00000E+01,	-1.36626E-02,	8.84807E+01,	4.77566E+01,	-1.53182E+02,	0.00000E+00,	0,	0
  1.73077E+01,	1.00000E+01,	-1.36626E-02,	9.51730E+01,	5.42625E+01,	-1.82658E+02,	0.00000E+00,	0,	0
  1.36364E+01,	1.00000E+01,	-1.36626E-02,	1.00202E+02,	6.24390E+01,	-2.23201E+02,	0.00000E+00,	0,	0
  1.07143E+01,	1.00000E+01,	-1.36626E-02,	1.03119E+02,	7.19300E+01,	-2.74039E+02,	0.00000E+00,	0,	0
  8.49057E+00,	1.00000E+01,	-1.36626E-02,	1.07327E+02,	8.24852E+01,	-3.35088E+02,	0.00000E+00,	0,	0
  6.71642E+00,	1.00000E+01,	-1.36626E-02,	1.09848E+02,	9.46276E+01,	-4.10831E+02,	0.00000E+00,	0,	0
  5.29412E+00,	1.00000E+01,	-1.36626E-02,	1.12788E+02,	1.09030E+02,	-5.06319E+02,	0.00000E+00,	0,	0
  4.16667E+00,	1.00000E+01,	-1.36626E-02,	1.16300E+02,	1.25540E+02,	-6.26526E+02,	0.00000E+00,	0,	0
  3.30882E+00,	1.00000E+01,	-1.36626E-02,	1.20564E+02,	1.43813E+02,	-7.70319E+02,	0.00000E+00,	0,	0
  2.61628E+00,	1.00000E+01,	-1.36626E-02,	1.24533E+02,	1.65709E+02,	-9.52113E+02,	0.00000E+00,	0,	0
  2.07373E+00,	1.00000E+01,	-1.36626E-02,	1.29296E+02,	1.90925E+02,	-1.17691E+03,	0.00000E+00,	0,	0
  1.64234E+00,	1.00000E+01,	-1.36626E-02,	1.35099E+02,	2.20526E+02,	-1.45782E+03,	0.00000E+00,	0,	0
  1.30058E+00,	1.00000E+01,	-1.36626E-02,	1.39265E+02,	2.56628E+02,	-1.80875E+03,	0.00000E+00,	0,	0
  1.03211E+00,	1.00000E+01,	-1.36626E-02,	1.43689E+02,	2.98516E+02,	-2.24242E+03,	0.00000E+00,	0,	0
  8.15217E-01,	1.00000E+01,	-1.36626E-02,	1.50648E+02,	3.51324E+02,	-2.79338E+03,	0.00000E+00,	0,	0
  6.46552E-01,	1.00000E+01,	-1.36626E-02,	1.59750E+02,	4.13151E+02,	-3.46804E+03,	0.00000E+00,	0,	0
  5.11364E-01,	1.00000E+01,	-1.36626E-02,	1.64762E+02,	4.80783E+02,	-4.32238E+03,	0.00000E+00,	0,	0
  4.07609E-01,	1.00000E+01,	-1.36626E-02,	1.70816E+02,	5.74926E+02,	-5.35121E+03,	0.00000E+00,	0,	0
  3.21429E-01,	1.00000E+01,	-1.36626E-02,	1.77996E+02,	6.90576E+02,	-6.72250E+03,	0.00000E+00,	0,	0
  2.54525E-01,	1.00000E+01,	-1.36626E-02,	1.86772E+02,	8.48597E+02,	-8.37573E+03,	0.00000E+00,	0,	0
  2.01613E-01,	1.00000E+01,	-1.36626E-02,	1.97607E+02,	1.04448E+03,	-1.04356E+04,	0.00000E+00,	0,	0
  1.59574E-01,	1.00000E+01,	-1.36626E-02,	2.11101E+02,	1.29625E+03,	-1.30162E+04,	0.00000E+00,	0,	0
  1.26689E-01,	1.00000E+01,	-1.36626E-02,	2.44992E+02,	1.64232E+03,	-1.60963E+04,	0.00000E+00,	0,	0
  1.00446E-01,	1.00000E+01,	-1.36626E-02,	2.65849E+02,	1.97728E+03,	-2.01726E+04,	0.00000E+00,	0,	0