Z60W Data File: Version 1.1
CorrTest for Windows: SN CS310H1805157  V5.2.1111.9  2.5H6.220118
Sweep Frequency: Control Voltage
  Date:5-1-2026   Time:18:21:55
  Begin Information:            Cell Information
      Surface Area:           1
      Density:                7.8
      Weight:                 28
  End Information:              Cell Information
  Freq (Hz)     Ampl(mV)       Bias(V)      Time(Sec)       Z'(Ohm.cm^2)    Z''(Ohm.cm^2)        GD       Err      Range
End Comments
  3.07200E+05,	1.00000E+01,	-2.08075E-02,	3.94660E-02,	2.74704E+02,	-2.78679E+01,	0.00000E+00,	0,	0
  2.76480E+05,	1.00000E+01,	-2.08075E-02,	1.65393E+00,	2.76419E+02,	-3.48578E+01,	0.00000E+00,	0,	0
  1.97486E+05,	1.00000E+01,	-2.08075E-02,	2.56500E+00,	2.94321E+02,	-4.78119E+01,	0.00000E+00,	0,	0
  1.53600E+05,	1.00000E+01,	-2.08075E-02,	3.47235E+00,	3.09836E+02,	-5.41155E+01,	0.00000E+00,	0,	0
  1.25673E+05,	1.00000E+01,	-2.08075E-02,	4.37446E+00,	3.21907E+02,	-5.67246E+01,	0.00000E+00,	0,	0
  9.87429E+04,	1.00000E+01,	-2.08075E-02,	5.27423E+00,	3.35895E+02,	-5.42018E+01,	0.00000E+00,	0,	0
  7.68000E+04,	1.00000E+01,	-2.08075E-02,	6.18854E+00,	3.46644E+02,	-4.96110E+01,	0.00000E+00,	0,	0
  6.01043E+04,	1.00000E+01,	-2.08075E-02,	7.17130E+00,	3.55771E+02,	-4.38965E+01,	0.00000E+00,	0,	0
  4.93714E+04,	1.00000E+01,	-2.08075E-02,	8.74753E+00,	3.60937E+02,	-4.02982E+01,	0.00000E+00,	0,	0
  3.84000E+04,	1.00000E+01,	-2.08075E-02,	9.65826E+00,	3.64974E+02,	-3.44564E+01,	0.00000E+00,	0,	0
  3.00522E+04,	1.00000E+01,	-2.08075E-02,	1.05156E+01,	3.77263E+02,	-2.83497E+01,	0.00000E+00,	0,	0
  2.38345E+04,	1.00000E+01,	-2.08075E-02,	1.14035E+01,	3.72436E+02,	-2.56731E+01,	0.00000E+00,	0,	0
  1.86811E+04,	1.00000E+01,	-2.08075E-02,	1.22521E+01,	3.75486E+02,	-2.27846E+01,	0.00000E+00,	0,	0
  1.47064E+04,	1.00000E+01,	-2.08075E-02,	1.32199E+01,	3.76436E+02,	-2.43746E+01,	0.00000E+00,	0,	0
  1.15200E+04,	1.00000E+01,	-2.08075E-02,	1.42026E+01,	3.81909E+02,	-2.27957E+01,	0.00000E+00,	0,	0
  9.60000E+03,	1.00000E+01,	-2.08075E-02,	1.57832E+01,	3.81271E+02,	-2.29660E+01,	0.00000E+00,	0,	0
  7.51304E+03,	1.00000E+01,	-2.08075E-02,	1.66905E+01,	3.85138E+02,	-2.51279E+01,	0.00000E+00,	0,	0
  5.76000E+03,	1.00000E+01,	-2.08075E-02,	1.75807E+01,	3.90034E+02,	-2.40833E+01,	0.00000E+00,	0,	0
  4.54737E+03,	1.00000E+01,	-2.08075E-02,	1.84463E+01,	3.96149E+02,	-2.24624E+01,	0.00000E+00,	0,	0
  3.60000E+03,	1.00000E+01,	-2.08075E-02,	1.94573E+01,	3.99570E+02,	-2.52969E+01,	0.00000E+00,	0,	0
  2.88000E+03,	1.00000E+01,	-2.08075E-02,	2.03677E+01,	4.05529E+02,	-2.48064E+01,	0.00000E+00,	0,	0
  2.27368E+03,	1.00000E+01,	-2.08075E-02,	2.26499E+01,	4.08171E+02,	-2.47233E+01,	0.00000E+00,	0,	0
  1.78144E+03,	1.00000E+01,	-2.08075E-02,	2.34869E+01,	4.11017E+02,	-2.12896E+01,	0.00000E+00,	0,	0
  1.41639E+03,	1.00000E+01,	-2.08075E-02,	2.43728E+01,	4.14363E+02,	-2.33075E+01,	0.00000E+00,	0,	0
  1.12208E+03,	1.00000E+01,	-2.08075E-02,	2.54154E+01,	4.16395E+02,	-2.08003E+01,	0.00000E+00,	0,	0
  9.00000E+02,	1.00000E+01,	-2.08075E-02,	3.04012E+01,	4.22444E+02,	-2.18627E+01,	0.00000E+00,	0,	0
  7.20000E+02,	1.00000E+01,	-2.08075E-02,	3.17789E+01,	4.24656E+02,	-2.21921E+01,	0.00000E+00,	0,	0
  5.68421E+02,	1.00000E+01,	-2.08075E-02,	3.31497E+01,	4.26539E+02,	-2.33161E+01,	0.00000E+00,	0,	0
  4.40816E+02,	1.00000E+01,	-2.08075E-02,	3.45961E+01,	4.28444E+02,	-2.55773E+01,	0.00000E+00,	0,	0
  3.54098E+02,	1.00000E+01,	-2.08075E-02,	3.69723E+01,	4.30713E+02,	-2.82110E+01,	0.00000E+00,	0,	0
  2.76923E+02,	1.00000E+01,	-2.08075E-02,	3.96340E+01,	4.33237E+02,	-3.23524E+01,	0.00000E+00,	0,	0
  2.20408E+02,	1.00000E+01,	-2.08075E-02,	4.25704E+01,	4.35574E+02,	-3.74296E+01,	0.00000E+00,	0,	0
  1.74194E+02,	1.00000E+01,	-2.08075E-02,	4.58233E+01,	4.38532E+02,	-4.42877E+01,	0.00000E+00,	0,	0
  1.37580E+02,	1.00000E+01,	-2.08075E-02,	4.94858E+01,	4.41910E+02,	-5.27329E+01,	0.00000E+00,	0,	0
  1.09091E+02,	1.00000E+01,	-2.08075E-02,	5.35536E+01,	4.46099E+02,	-6.33698E+01,	0.00000E+00,	0,	0
  8.70968E+01,	1.00000E+01,	-2.08075E-02,	5.92532E+01,	4.51084E+02,	-7.63706E+01,	0.00000E+00,	0,	0
  6.83544E+01,	1.00000E+01,	-2.08075E-02,	6.42855E+01,	4.58760E+02,	-9.42474E+01,	0.00000E+00,	0,	0
  5.45455E+01,	1.00000E+01,	-2.08075E-02,	6.97318E+01,	4.59547E+02,	-1.08589E+02,	0.00000E+00,	0,	0
  4.28571E+01,	1.00000E+01,	-2.08075E-02,	7.32648E+01,	4.65879E+02,	-1.32987E+02,	0.00000E+00,	0,	0
  3.39623E+01,	1.00000E+01,	-2.08075E-02,	7.69934E+01,	4.70587E+02,	-1.63814E+02,	0.00000E+00,	0,	0
  2.68657E+01,	1.00000E+01,	-2.08075E-02,	8.08843E+01,	4.81186E+02,	-1.99742E+02,	0.00000E+00,	0,	0
  2.13439E+01,	1.00000E+01,	-2.08075E-02,	8.46956E+01,	4.92019E+02,	-2.42950E+02,	0.00000E+00,	0,	0
  1.73077E+01,	1.00000E+01,	-2.08075E-02,	8.83937E+01,	5.03316E+02,	-2.91158E+02,	0.00000E+00,	0,	0
  1.36364E+01,	1.00000E+01,	-2.08075E-02,	9.34159E+01,	5.18772E+02,	-3.58252E+02,	0.00000E+00,	0,	0
  1.07143E+01,	1.00000E+01,	-2.08075E-02,	9.63543E+01,	5.37422E+02,	-4.42337E+02,	0.00000E+00,	0,	0
  8.49057E+00,	1.00000E+01,	-2.08075E-02,	1.00571E+02,	5.60991E+02,	-5.42262E+02,	0.00000E+00,	0,	0
  6.71642E+00,	1.00000E+01,	-2.08075E-02,	1.03072E+02,	5.89770E+02,	-6.65545E+02,	0.00000E+00,	0,	0
  5.29412E+00,	1.00000E+01,	-2.08075E-02,	1.06006E+02,	6.28208E+02,	-8.18751E+02,	0.00000E+00,	0,	0
  4.16667E+00,	1.00000E+01,	-2.08075E-02,	1.09477E+02,	6.77822E+02,	-1.00641E+03,	0.00000E+00,	0,	0
  3.30882E+00,	1.00000E+01,	-2.08075E-02,	1.15995E+02,	7.38148E+02,	-1.22348E+03,	0.00000E+00,	0,	0
  2.61628E+00,	1.00000E+01,	-2.08075E-02,	1.19945E+02,	8.14739E+02,	-1.48985E+03,	0.00000E+00,	0,	0
  2.07373E+00,	1.00000E+01,	-2.08075E-02,	1.24684E+02,	9.06198E+02,	-1.80640E+03,	0.00000E+00,	0,	0
  1.64234E+00,	1.00000E+01,	-2.08075E-02,	1.30435E+02,	1.01464E+03,	-2.18729E+03,	0.00000E+00,	0,	0
  1.30058E+00,	1.00000E+01,	-2.08075E-02,	1.34578E+02,	1.14034E+03,	-2.64564E+03,	0.00000E+00,	0,	0
  1.03211E+00,	1.00000E+01,	-2.08075E-02,	1.38976E+02,	1.28408E+03,	-3.19943E+03,	0.00000E+00,	0,	0
  8.15217E-01,	1.00000E+01,	-2.08075E-02,	1.45883E+02,	1.44506E+03,	-3.88333E+03,	0.00000E+00,	0,	0
  6.46552E-01,	1.00000E+01,	-2.08075E-02,	1.50653E+02,	1.62863E+03,	-4.71181E+03,	0.00000E+00,	0,	0
  5.11364E-01,	1.00000E+01,	-2.08075E-02,	1.55656E+02,	1.78947E+03,	-5.76707E+03,	0.00000E+00,	0,	0
  4.07609E-01,	1.00000E+01,	-2.08075E-02,	1.61743E+02,	2.02191E+03,	-7.00421E+03,	0.00000E+00,	0,	0
  3.21429E-01,	1.00000E+01,	-2.08075E-02,	1.68890E+02,	2.30445E+03,	-8.71076E+03,	0.00000E+00,	0,	0
  2.54525E-01,	1.00000E+01,	-2.08075E-02,	1.77658E+02,	2.64151E+03,	-1.06614E+04,	0.00000E+00,	0,	0
  2.01613E-01,	1.00000E+01,	-2.08075E-02,	1.88495E+02,	3.02758E+03,	-1.30858E+04,	0.00000E+00,	0,	0
  1.59574E-01,	1.00000E+01,	-2.08075E-02,	2.01989E+02,	3.48816E+03,	-1.61016E+04,	0.00000E+00,	0,	0
  1.26689E-01,	1.00000E+01,	-2.08075E-02,	2.35907E+02,	4.07914E+03,	-1.95684E+04,	0.00000E+00,	0,	0
  1.00446E-01,	1.00000E+01,	-2.08075E-02,	2.56776E+02,	4.60661E+03,	-2.45486E+04,	0.00000E+00,	0,	0