Z60W Data File: Version 1.1
CorrTest for Windows: SN CS310H1805157  V5.2.1111.9  2.5H6.220118
Sweep Frequency: Control Voltage
  Date:5-1-2026   Time:10:15:29
  Begin Information:            Cell Information
      Surface Area:           1
      Density:                7.8
      Weight:                 28
  End Information:              Cell Information
  Freq (Hz)     Ampl(mV)       Bias(V)      Time(Sec)       Z'(Ohm.cm^2)    Z''(Ohm.cm^2)        GD       Err      Range
End Comments
  3.07200E+05,	1.00000E+01,	-1.67917E-02,	5.16852E-02,	-2.19739E-01,	4.03556E+00,	0.00000E+00,	0,	0
  2.76480E+05,	1.00000E+01,	-1.67917E-02,	1.64075E+00,	3.93885E-01,	3.04690E+00,	0.00000E+00,	0,	0
  1.97486E+05,	1.00000E+01,	-1.67917E-02,	2.55871E+00,	1.28670E+00,	2.14254E+00,	0.00000E+00,	0,	0
  1.53600E+05,	1.00000E+01,	-1.67917E-02,	3.46007E+00,	1.62232E+00,	1.61422E+00,	0.00000E+00,	0,	0
  1.25673E+05,	1.00000E+01,	-1.67917E-02,	4.36919E+00,	1.82943E+00,	1.25332E+00,	0.00000E+00,	0,	0
  9.87429E+04,	1.00000E+01,	-1.67917E-02,	5.28350E+00,	2.01953E+00,	9.56385E-01,	0.00000E+00,	0,	0
  7.68000E+04,	1.00000E+01,	-1.67917E-02,	6.18152E+00,	2.11593E+00,	7.16098E-01,	0.00000E+00,	0,	0
  6.01043E+04,	1.00000E+01,	-1.67917E-02,	9.38688E+00,	2.19544E+00,	4.77325E-01,	0.00000E+00,	0,	0
  4.93714E+04,	1.00000E+01,	-1.67917E-02,	1.09824E+01,	2.21070E+00,	3.46662E-01,	0.00000E+00,	0,	0
  3.84000E+04,	1.00000E+01,	-1.67917E-02,	1.18764E+01,	2.22184E+00,	1.95992E-01,	0.00000E+00,	0,	0
  3.00522E+04,	1.00000E+01,	-1.67917E-02,	1.27758E+01,	2.23476E+00,	6.52015E-02,	0.00000E+00,	0,	0
  2.38345E+04,	1.00000E+01,	-1.67917E-02,	1.36665E+01,	2.24656E+00,	-4.97956E-02,	0.00000E+00,	0,	0
  1.86811E+04,	1.00000E+01,	-1.67917E-02,	1.45344E+01,	2.25709E+00,	-1.74597E-01,	0.00000E+00,	0,	0
  1.47064E+04,	1.00000E+01,	-1.67917E-02,	1.55245E+01,	2.27457E+00,	-3.02535E-01,	0.00000E+00,	0,	0
  1.15200E+04,	1.00000E+01,	-1.67917E-02,	1.64947E+01,	2.29745E+00,	-4.42570E-01,	0.00000E+00,	0,	0
  9.60000E+03,	1.00000E+01,	-1.67917E-02,	1.81074E+01,	2.31630E+00,	-5.60550E-01,	0.00000E+00,	0,	0
  7.51304E+03,	1.00000E+01,	-1.67917E-02,	1.89809E+01,	2.35123E+00,	-7.40757E-01,	0.00000E+00,	0,	0
  5.76000E+03,	1.00000E+01,	-1.67917E-02,	1.99063E+01,	2.39129E+00,	-9.72582E-01,	0.00000E+00,	0,	0
  4.54737E+03,	1.00000E+01,	-1.67917E-02,	2.07788E+01,	2.43919E+00,	-1.22320E+00,	0.00000E+00,	0,	0
  3.60000E+03,	1.00000E+01,	-1.67917E-02,	2.18185E+01,	2.50144E+00,	-1.52193E+00,	0.00000E+00,	0,	0
  2.88000E+03,	1.00000E+01,	-1.67917E-02,	2.27518E+01,	2.56323E+00,	-1.86424E+00,	0.00000E+00,	0,	0
  2.27368E+03,	1.00000E+01,	-1.67917E-02,	2.50265E+01,	2.61992E+00,	-2.29509E+00,	0.00000E+00,	0,	0
  1.78144E+03,	1.00000E+01,	-1.67917E-02,	2.58116E+01,	2.73791E+00,	-2.85431E+00,	0.00000E+00,	0,	0
  1.41639E+03,	1.00000E+01,	-1.67917E-02,	2.67074E+01,	2.87937E+00,	-3.50645E+00,	0.00000E+00,	0,	0
  1.12208E+03,	1.00000E+01,	-1.67917E-02,	2.77694E+01,	3.07066E+00,	-4.30622E+00,	0.00000E+00,	0,	0
  9.00000E+02,	1.00000E+01,	-1.67917E-02,	3.27651E+01,	3.30729E+00,	-5.23779E+00,	0.00000E+00,	0,	0
  7.20000E+02,	1.00000E+01,	-1.67917E-02,	3.41513E+01,	3.41917E+00,	-6.46059E+00,	0.00000E+00,	0,	0
  5.68421E+02,	1.00000E+01,	-1.67917E-02,	3.55176E+01,	4.01606E+00,	-7.78614E+00,	0.00000E+00,	0,	0
  4.40816E+02,	1.00000E+01,	-1.67917E-02,	3.69893E+01,	4.59026E+00,	-9.64199E+00,	0.00000E+00,	0,	0
  3.54098E+02,	1.00000E+01,	-1.67917E-02,	3.93730E+01,	5.20975E+00,	-1.15523E+01,	0.00000E+00,	0,	0
  2.76923E+02,	1.00000E+01,	-1.67917E-02,	4.20230E+01,	6.07301E+00,	-1.40920E+01,	0.00000E+00,	0,	0
  2.20408E+02,	1.00000E+01,	-1.67917E-02,	4.49337E+01,	7.03168E+00,	-1.68995E+01,	0.00000E+00,	0,	0
  1.74194E+02,	1.00000E+01,	-1.67917E-02,	4.82222E+01,	8.17816E+00,	-2.03216E+01,	0.00000E+00,	0,	0
  1.37580E+02,	1.00000E+01,	-1.67917E-02,	5.19240E+01,	9.48764E+00,	-2.44401E+01,	0.00000E+00,	0,	0
  1.09091E+02,	1.00000E+01,	-1.67917E-02,	5.59773E+01,	1.09242E+01,	-2.93519E+01,	0.00000E+00,	0,	0
  8.70968E+01,	1.00000E+01,	-1.67917E-02,	6.41078E+01,	1.24993E+01,	-3.52655E+01,	0.00000E+00,	0,	0
  6.83544E+01,	1.00000E+01,	-1.67917E-02,	6.91206E+01,	1.43856E+01,	-4.31493E+01,	0.00000E+00,	0,	0
  5.45455E+01,	1.00000E+01,	-1.67917E-02,	7.45572E+01,	1.65130E+01,	-5.11556E+01,	0.00000E+00,	0,	0
  4.28571E+01,	1.00000E+01,	-1.67917E-02,	7.80743E+01,	1.89634E+01,	-6.24640E+01,	0.00000E+00,	0,	0
  3.39623E+01,	1.00000E+01,	-1.67917E-02,	8.17825E+01,	2.11936E+01,	-7.58447E+01,	0.00000E+00,	0,	0
  2.68657E+01,	1.00000E+01,	-1.67917E-02,	8.55910E+01,	2.44613E+01,	-9.29130E+01,	0.00000E+00,	0,	0
  2.13439E+01,	1.00000E+01,	-1.67917E-02,	8.93923E+01,	2.81123E+01,	-1.13425E+02,	0.00000E+00,	0,	0
  1.73077E+01,	1.00000E+01,	-1.67917E-02,	9.60362E+01,	3.19545E+01,	-1.36441E+02,	0.00000E+00,	0,	0
  1.36364E+01,	1.00000E+01,	-1.67917E-02,	1.01050E+02,	3.68284E+01,	-1.68245E+02,	0.00000E+00,	0,	0
  1.07143E+01,	1.00000E+01,	-1.67917E-02,	1.03951E+02,	4.25549E+01,	-2.08353E+02,	0.00000E+00,	0,	0
  8.49057E+00,	1.00000E+01,	-1.67917E-02,	1.08123E+02,	4.89087E+01,	-2.56513E+02,	0.00000E+00,	0,	0
  6.71642E+00,	1.00000E+01,	-1.67917E-02,	1.10613E+02,	5.63063E+01,	-3.16889E+02,	0.00000E+00,	0,	0
  5.29412E+00,	1.00000E+01,	-1.67917E-02,	1.13521E+02,	6.53395E+01,	-3.93465E+02,	0.00000E+00,	0,	0
  4.16667E+00,	1.00000E+01,	-1.67917E-02,	1.16983E+02,	7.57721E+01,	-4.90065E+02,	0.00000E+00,	0,	0
  3.30882E+00,	1.00000E+01,	-1.67917E-02,	1.21201E+02,	8.78006E+01,	-6.06176E+02,	0.00000E+00,	0,	0
  2.61628E+00,	1.00000E+01,	-1.67917E-02,	1.25172E+02,	1.02985E+02,	-7.53556E+02,	0.00000E+00,	0,	0
  2.07373E+00,	1.00000E+01,	-1.67917E-02,	1.29927E+02,	1.21022E+02,	-9.36046E+02,	0.00000E+00,	0,	0
  1.64234E+00,	1.00000E+01,	-1.67917E-02,	1.35720E+02,	1.43609E+02,	-1.16443E+03,	0.00000E+00,	0,	0
  1.30058E+00,	1.00000E+01,	-1.67917E-02,	1.39862E+02,	1.72746E+02,	-1.44934E+03,	0.00000E+00,	0,	0
  1.03211E+00,	1.00000E+01,	-1.67917E-02,	1.44250E+02,	2.09022E+02,	-1.80174E+03,	0.00000E+00,	0,	0
  8.15217E-01,	1.00000E+01,	-1.67917E-02,	1.51177E+02,	2.57504E+02,	-2.24835E+03,	0.00000E+00,	0,	0
  6.46552E-01,	1.00000E+01,	-1.67917E-02,	1.60248E+02,	3.17390E+02,	-2.79359E+03,	0.00000E+00,	0,	0
  5.11364E-01,	1.00000E+01,	-1.67917E-02,	1.65245E+02,	3.87916E+02,	-3.48089E+03,	0.00000E+00,	0,	0
  4.07609E-01,	1.00000E+01,	-1.67917E-02,	1.71268E+02,	4.87775E+02,	-4.30855E+03,	0.00000E+00,	0,	0
  3.21429E-01,	1.00000E+01,	-1.67917E-02,	1.78378E+02,	6.19590E+02,	-5.40438E+03,	0.00000E+00,	0,	0
  2.54525E-01,	1.00000E+01,	-1.67917E-02,	1.87137E+02,	8.02193E+02,	-6.72156E+03,	0.00000E+00,	0,	0
  2.01613E-01,	1.00000E+01,	-1.67917E-02,	1.97968E+02,	1.04238E+03,	-8.35509E+03,	0.00000E+00,	0,	0
  1.59574E-01,	1.00000E+01,	-1.67917E-02,	2.11402E+02,	1.36691E+03,	-1.03853E+04,	0.00000E+00,	0,	0
  1.26689E-01,	1.00000E+01,	-1.67917E-02,	2.45269E+02,	1.81468E+03,	-1.27944E+04,	0.00000E+00,	0,	0
  1.00446E-01,	1.00000E+01,	-1.67917E-02,	2.66126E+02,	2.33935E+03,	-1.59743E+04,	0.00000E+00,	0,	0