Z60W Data File: Version 1.1
CorrTest for Windows: SN CS310H1805157  V5.2.1111.9  2.5H6.220118
Sweep Frequency: Control Voltage
  Date:5-1-2026   Time:15:40:29
  Begin Information:            Cell Information
      Surface Area:           1
      Density:                7.8
      Weight:                 28
  End Information:              Cell Information
  Freq (Hz)     Ampl(mV)       Bias(V)      Time(Sec)       Z'(Ohm.cm^2)    Z''(Ohm.cm^2)        GD       Err      Range
End Comments
  3.07200E+05,	1.00000E+01,	-1.29790E-02,	4.99521E-02,	6.65250E-01,	4.57521E+00,	0.00000E+00,	0,	0
  2.76480E+05,	1.00000E+01,	-1.29790E-02,	1.64926E+00,	1.22749E+00,	3.44450E+00,	0.00000E+00,	0,	0
  1.97486E+05,	1.00000E+01,	-1.29790E-02,	2.58561E+00,	2.09724E+00,	2.43068E+00,	0.00000E+00,	0,	0
  1.53600E+05,	1.00000E+01,	-1.29790E-02,	3.48351E+00,	2.44526E+00,	1.82869E+00,	0.00000E+00,	0,	0
  1.25673E+05,	1.00000E+01,	-1.29790E-02,	4.38481E+00,	2.62777E+00,	1.43330E+00,	0.00000E+00,	0,	0
  9.87429E+04,	1.00000E+01,	-1.29790E-02,	5.28399E+00,	2.79653E+00,	1.09720E+00,	0.00000E+00,	0,	0
  7.68000E+04,	1.00000E+01,	-1.29790E-02,	6.16989E+00,	2.91085E+00,	8.01471E-01,	0.00000E+00,	0,	0
  6.01043E+04,	1.00000E+01,	-1.29790E-02,	9.40953E+00,	2.99109E+00,	5.37788E-01,	0.00000E+00,	0,	0
  4.93714E+04,	1.00000E+01,	-1.29790E-02,	1.10255E+01,	3.00711E+00,	3.87596E-01,	0.00000E+00,	0,	0
  3.84000E+04,	1.00000E+01,	-1.29790E-02,	1.19522E+01,	3.02161E+00,	2.15829E-01,	0.00000E+00,	0,	0
  3.00522E+04,	1.00000E+01,	-1.29790E-02,	1.28097E+01,	3.03607E+00,	6.84177E-02,	0.00000E+00,	0,	0
  2.38345E+04,	1.00000E+01,	-1.29790E-02,	1.36612E+01,	3.04897E+00,	-6.57846E-02,	0.00000E+00,	0,	0
  1.86811E+04,	1.00000E+01,	-1.29790E-02,	1.45086E+01,	3.06733E+00,	-2.06997E-01,	0.00000E+00,	0,	0
  1.47064E+04,	1.00000E+01,	-1.29790E-02,	1.54703E+01,	3.08475E+00,	-3.62485E-01,	0.00000E+00,	0,	0
  1.15200E+04,	1.00000E+01,	-1.29790E-02,	1.64774E+01,	3.11432E+00,	-5.21243E-01,	0.00000E+00,	0,	0
  9.60000E+03,	1.00000E+01,	-1.29790E-02,	1.80604E+01,	3.13850E+00,	-6.61061E-01,	0.00000E+00,	0,	0
  7.51304E+03,	1.00000E+01,	-1.29790E-02,	1.89379E+01,	3.17814E+00,	-8.69122E-01,	0.00000E+00,	0,	0
  5.76000E+03,	1.00000E+01,	-1.29790E-02,	1.98598E+01,	3.22527E+00,	-1.14082E+00,	0.00000E+00,	0,	0
  4.54737E+03,	1.00000E+01,	-1.29790E-02,	2.07225E+01,	3.29077E+00,	-1.42978E+00,	0.00000E+00,	0,	0
  3.60000E+03,	1.00000E+01,	-1.29790E-02,	2.17352E+01,	3.35643E+00,	-1.77647E+00,	0.00000E+00,	0,	0
  2.88000E+03,	1.00000E+01,	-1.29790E-02,	2.26288E+01,	3.43609E+00,	-2.17439E+00,	0.00000E+00,	0,	0
  2.27368E+03,	1.00000E+01,	-1.29790E-02,	2.49071E+01,	3.51384E+00,	-2.66815E+00,	0.00000E+00,	0,	0
  1.78144E+03,	1.00000E+01,	-1.29790E-02,	2.56958E+01,	3.64496E+00,	-3.32127E+00,	0.00000E+00,	0,	0
  1.41639E+03,	1.00000E+01,	-1.29790E-02,	2.65924E+01,	3.80209E+00,	-4.07566E+00,	0.00000E+00,	0,	0
  1.12208E+03,	1.00000E+01,	-1.29790E-02,	2.76371E+01,	4.00621E+00,	-5.01058E+00,	0.00000E+00,	0,	0
  9.00000E+02,	1.00000E+01,	-1.29790E-02,	3.26352E+01,	4.26544E+00,	-6.10670E+00,	0.00000E+00,	0,	0
  7.20000E+02,	1.00000E+01,	-1.29790E-02,	3.40306E+01,	4.58400E+00,	-7.42968E+00,	0.00000E+00,	0,	0
  5.68421E+02,	1.00000E+01,	-1.29790E-02,	3.53986E+01,	5.02248E+00,	-9.12805E+00,	0.00000E+00,	0,	0
  4.40816E+02,	1.00000E+01,	-1.29790E-02,	3.84330E+01,	5.66165E+00,	-1.13945E+01,	0.00000E+00,	0,	0
  3.54098E+02,	1.00000E+01,	-1.29790E-02,	4.07841E+01,	6.35240E+00,	-1.37210E+01,	0.00000E+00,	0,	0
  2.76923E+02,	1.00000E+01,	-1.29790E-02,	4.34485E+01,	7.35507E+00,	-1.68451E+01,	0.00000E+00,	0,	0
  2.20408E+02,	1.00000E+01,	-1.29790E-02,	4.63876E+01,	8.51529E+00,	-2.03045E+01,	0.00000E+00,	0,	0
  1.74194E+02,	1.00000E+01,	-1.29790E-02,	4.96611E+01,	9.96864E+00,	-2.45124E+01,	0.00000E+00,	0,	0
  1.37580E+02,	1.00000E+01,	-1.29790E-02,	5.33289E+01,	1.16997E+01,	-2.95249E+01,	0.00000E+00,	0,	0
  1.09091E+02,	1.00000E+01,	-1.29790E-02,	5.74176E+01,	1.36589E+01,	-3.54144E+01,	0.00000E+00,	0,	0
  8.70968E+01,	1.00000E+01,	-1.29790E-02,	6.31457E+01,	1.57826E+01,	-4.23048E+01,	0.00000E+00,	0,	0
  6.83544E+01,	1.00000E+01,	-1.29790E-02,	6.81679E+01,	1.83691E+01,	-5.15139E+01,	0.00000E+00,	0,	0
  5.45455E+01,	1.00000E+01,	-1.29790E-02,	7.36306E+01,	2.12066E+01,	-6.07364E+01,	0.00000E+00,	0,	0
  4.28571E+01,	1.00000E+01,	-1.29790E-02,	7.71728E+01,	2.44665E+01,	-7.37493E+01,	0.00000E+00,	0,	0
  3.39623E+01,	1.00000E+01,	-1.29790E-02,	8.09140E+01,	2.74492E+01,	-8.91129E+01,	0.00000E+00,	0,	0
  2.68657E+01,	1.00000E+01,	-1.29790E-02,	8.48024E+01,	3.16935E+01,	-1.08669E+02,	0.00000E+00,	0,	0
  2.13439E+01,	1.00000E+01,	-1.29790E-02,	8.86023E+01,	3.63968E+01,	-1.32109E+02,	0.00000E+00,	0,	0
  1.73077E+01,	1.00000E+01,	-1.29790E-02,	9.52729E+01,	4.13397E+01,	-1.58381E+02,	0.00000E+00,	0,	0
  1.36364E+01,	1.00000E+01,	-1.29790E-02,	1.00304E+02,	4.75700E+01,	-1.94620E+02,	0.00000E+00,	0,	0
  1.07143E+01,	1.00000E+01,	-1.29790E-02,	1.03223E+02,	5.48437E+01,	-2.40158E+02,	0.00000E+00,	0,	0
  8.49057E+00,	1.00000E+01,	-1.29790E-02,	1.07425E+02,	6.28446E+01,	-2.94864E+02,	0.00000E+00,	0,	0
  6.71642E+00,	1.00000E+01,	-1.29790E-02,	1.09941E+02,	7.21557E+01,	-3.63365E+02,	0.00000E+00,	0,	0
  5.29412E+00,	1.00000E+01,	-1.29790E-02,	1.12877E+02,	8.32445E+01,	-4.49741E+02,	0.00000E+00,	0,	0
  4.16667E+00,	1.00000E+01,	-1.29790E-02,	1.16368E+02,	9.59501E+01,	-5.58801E+02,	0.00000E+00,	0,	0
  3.30882E+00,	1.00000E+01,	-1.29790E-02,	1.20628E+02,	1.10285E+02,	-6.89787E+02,	0.00000E+00,	0,	0
  2.61628E+00,	1.00000E+01,	-1.29790E-02,	1.24607E+02,	1.27741E+02,	-8.55753E+02,	0.00000E+00,	0,	0
  2.07373E+00,	1.00000E+01,	-1.29790E-02,	1.29417E+02,	1.48180E+02,	-1.06126E+03,	0.00000E+00,	0,	0
  1.64234E+00,	1.00000E+01,	-1.29790E-02,	1.35243E+02,	1.73020E+02,	-1.31844E+03,	0.00000E+00,	0,	0
  1.30058E+00,	1.00000E+01,	-1.29790E-02,	1.39412E+02,	2.03842E+02,	-1.63995E+03,	0.00000E+00,	0,	0
  1.03211E+00,	1.00000E+01,	-1.29790E-02,	1.43826E+02,	2.40703E+02,	-2.03755E+03,	0.00000E+00,	0,	0
  8.15217E-01,	1.00000E+01,	-1.29790E-02,	1.50801E+02,	2.88600E+02,	-2.54319E+03,	0.00000E+00,	0,	0
  6.46552E-01,	1.00000E+01,	-1.29790E-02,	1.59900E+02,	3.46524E+02,	-3.16174E+03,	0.00000E+00,	0,	0
  5.11364E-01,	1.00000E+01,	-1.29790E-02,	1.64910E+02,	4.11520E+02,	-3.94345E+03,	0.00000E+00,	0,	0
  4.07609E-01,	1.00000E+01,	-1.29790E-02,	1.70977E+02,	5.03287E+02,	-4.88586E+03,	0.00000E+00,	0,	0
  3.21429E-01,	1.00000E+01,	-1.29790E-02,	1.78105E+02,	6.19082E+02,	-6.13755E+03,	0.00000E+00,	0,	0
  2.54525E-01,	1.00000E+01,	-1.29790E-02,	1.86887E+02,	7.79257E+02,	-7.64744E+03,	0.00000E+00,	0,	0
  2.01613E-01,	1.00000E+01,	-1.29790E-02,	1.97748E+02,	9.81537E+02,	-9.52739E+03,	0.00000E+00,	0,	0
  1.59574E-01,	1.00000E+01,	-1.29790E-02,	2.11233E+02,	1.24609E+03,	-1.18775E+04,	0.00000E+00,	0,	0
  1.26689E-01,	1.00000E+01,	-1.29790E-02,	2.45189E+02,	1.61089E+03,	-1.46823E+04,	0.00000E+00,	0,	0
  1.00446E-01,	1.00000E+01,	-1.29790E-02,	2.66055E+02,	1.98823E+03,	-1.83834E+04,	0.00000E+00,	0,	0