Z60W Data File: Version 1.1
CorrTest for Windows: SN CS310H1805157  V5.2.1111.9  2.5H6.220118
Sweep Frequency: Control Voltage
  Date:5-1-2026   Time:16:24:40
  Begin Information:            Cell Information
      Surface Area:           1
      Density:                7.8
      Weight:                 28
  End Information:              Cell Information
  Freq (Hz)     Ampl(mV)       Bias(V)      Time(Sec)       Z'(Ohm.cm^2)    Z''(Ohm.cm^2)        GD       Err      Range
End Comments
  3.07200E+05,	1.00000E+01,	-1.33154E-02,	5.85835E-02,	1.47127E+00,	4.96857E+00,	0.00000E+00,	0,	0
  2.76480E+05,	1.00000E+01,	-1.33154E-02,	1.68347E+00,	2.06558E+00,	3.86947E+00,	0.00000E+00,	0,	0
  1.97486E+05,	1.00000E+01,	-1.33154E-02,	2.63526E+00,	2.94613E+00,	2.70574E+00,	0.00000E+00,	0,	0
  1.53600E+05,	1.00000E+01,	-1.33154E-02,	3.53568E+00,	3.25187E+00,	2.07260E+00,	0.00000E+00,	0,	0
  1.25673E+05,	1.00000E+01,	-1.33154E-02,	4.44757E+00,	3.44404E+00,	1.61649E+00,	0.00000E+00,	0,	0
  9.87429E+04,	1.00000E+01,	-1.33154E-02,	5.34782E+00,	3.61629E+00,	1.22344E+00,	0.00000E+00,	0,	0
  7.68000E+04,	1.00000E+01,	-1.33154E-02,	6.25845E+00,	3.70986E+00,	9.13881E-01,	0.00000E+00,	0,	0
  6.01043E+04,	1.00000E+01,	-1.33154E-02,	8.37795E+00,	3.76773E+00,	6.33497E-01,	0.00000E+00,	0,	0
  4.93714E+04,	1.00000E+01,	-1.33154E-02,	9.95565E+00,	3.78528E+00,	4.61831E-01,	0.00000E+00,	0,	0
  3.84000E+04,	1.00000E+01,	-1.33154E-02,	1.08424E+01,	3.79854E+00,	2.67136E-01,	0.00000E+00,	0,	0
  3.00522E+04,	1.00000E+01,	-1.33154E-02,	1.17339E+01,	3.81654E+00,	9.80938E-02,	0.00000E+00,	0,	0
  2.38345E+04,	1.00000E+01,	-1.33154E-02,	1.25974E+01,	3.83135E+00,	-5.51057E-02,	0.00000E+00,	0,	0
  1.86811E+04,	1.00000E+01,	-1.33154E-02,	1.34440E+01,	3.84681E+00,	-2.14904E-01,	0.00000E+00,	0,	0
  1.47064E+04,	1.00000E+01,	-1.33154E-02,	1.44004E+01,	3.86735E+00,	-3.77236E-01,	0.00000E+00,	0,	0
  1.15200E+04,	1.00000E+01,	-1.33154E-02,	1.64679E+01,	3.92974E+00,	-5.66143E-01,	0.00000E+00,	0,	0
  9.60000E+03,	1.00000E+01,	-1.33154E-02,	1.80409E+01,	3.95805E+00,	-7.14218E-01,	0.00000E+00,	0,	0
  7.51304E+03,	1.00000E+01,	-1.33154E-02,	1.89298E+01,	4.00039E+00,	-9.38094E-01,	0.00000E+00,	0,	0
  5.76000E+03,	1.00000E+01,	-1.33154E-02,	1.98258E+01,	4.05622E+00,	-1.23712E+00,	0.00000E+00,	0,	0
  4.54737E+03,	1.00000E+01,	-1.33154E-02,	2.07240E+01,	4.11573E+00,	-1.54817E+00,	0.00000E+00,	0,	0
  3.60000E+03,	1.00000E+01,	-1.33154E-02,	2.17299E+01,	4.19268E+00,	-1.92809E+00,	0.00000E+00,	0,	0
  2.88000E+03,	1.00000E+01,	-1.33154E-02,	2.26242E+01,	4.29153E+00,	-2.36446E+00,	0.00000E+00,	0,	0
  2.27368E+03,	1.00000E+01,	-1.33154E-02,	2.49164E+01,	4.31460E+00,	-2.89082E+00,	0.00000E+00,	0,	0
  1.78144E+03,	1.00000E+01,	-1.33154E-02,	2.57426E+01,	4.45900E+00,	-3.59113E+00,	0.00000E+00,	0,	0
  1.41639E+03,	1.00000E+01,	-1.33154E-02,	2.66531E+01,	4.62744E+00,	-4.40387E+00,	0.00000E+00,	0,	0
  1.12208E+03,	1.00000E+01,	-1.33154E-02,	2.77000E+01,	4.83585E+00,	-5.41466E+00,	0.00000E+00,	0,	0
  9.00000E+02,	1.00000E+01,	-1.33154E-02,	3.26941E+01,	5.10183E+00,	-6.59590E+00,	0.00000E+00,	0,	0
  7.20000E+02,	1.00000E+01,	-1.33154E-02,	3.40758E+01,	5.42399E+00,	-8.03026E+00,	0.00000E+00,	0,	0
  5.68421E+02,	1.00000E+01,	-1.33154E-02,	3.54353E+01,	5.87298E+00,	-9.88498E+00,	0.00000E+00,	0,	0
  4.40816E+02,	1.00000E+01,	-1.33154E-02,	3.84599E+01,	6.51928E+00,	-1.23676E+01,	0.00000E+00,	0,	0
  3.54098E+02,	1.00000E+01,	-1.33154E-02,	4.07986E+01,	7.22637E+00,	-1.49390E+01,	0.00000E+00,	0,	0
  2.76923E+02,	1.00000E+01,	-1.33154E-02,	4.34414E+01,	8.26068E+00,	-1.84064E+01,	0.00000E+00,	0,	0
  2.20408E+02,	1.00000E+01,	-1.33154E-02,	4.63850E+01,	9.48966E+00,	-2.22792E+01,	0.00000E+00,	0,	0
  1.74194E+02,	1.00000E+01,	-1.33154E-02,	4.96506E+01,	1.10750E+01,	-2.70151E+01,	0.00000E+00,	0,	0
  1.37580E+02,	1.00000E+01,	-1.33154E-02,	5.33315E+01,	1.30201E+01,	-3.26458E+01,	0.00000E+00,	0,	0
  1.09091E+02,	1.00000E+01,	-1.33154E-02,	5.74059E+01,	1.52933E+01,	-3.92267E+01,	0.00000E+00,	0,	0
  8.70968E+01,	1.00000E+01,	-1.33154E-02,	6.31403E+01,	1.78204E+01,	-4.68566E+01,	0.00000E+00,	0,	0
  6.83544E+01,	1.00000E+01,	-1.33154E-02,	6.81658E+01,	2.09396E+01,	-5.69517E+01,	0.00000E+00,	0,	0
  5.45455E+01,	1.00000E+01,	-1.33154E-02,	7.36302E+01,	2.43426E+01,	-6.69442E+01,	0.00000E+00,	0,	0
  4.28571E+01,	1.00000E+01,	-1.33154E-02,	7.71815E+01,	2.82479E+01,	-8.09672E+01,	0.00000E+00,	0,	0
  3.39623E+01,	1.00000E+01,	-1.33154E-02,	8.09358E+01,	3.18456E+01,	-9.74714E+01,	0.00000E+00,	0,	0
  2.68657E+01,	1.00000E+01,	-1.33154E-02,	8.48005E+01,	3.68262E+01,	-1.18402E+02,	0.00000E+00,	0,	0
  2.13439E+01,	1.00000E+01,	-1.33154E-02,	8.86146E+01,	4.23325E+01,	-1.43472E+02,	0.00000E+00,	0,	0
  1.73077E+01,	1.00000E+01,	-1.33154E-02,	9.52859E+01,	4.80677E+01,	-1.71502E+02,	0.00000E+00,	0,	0
  1.36364E+01,	1.00000E+01,	-1.33154E-02,	1.00312E+02,	5.53015E+01,	-2.10119E+02,	0.00000E+00,	0,	0
  1.07143E+01,	1.00000E+01,	-1.33154E-02,	1.03243E+02,	6.37430E+01,	-2.58627E+02,	0.00000E+00,	0,	0
  8.49057E+00,	1.00000E+01,	-1.33154E-02,	1.07472E+02,	7.30235E+01,	-3.16756E+02,	0.00000E+00,	0,	0
  6.71642E+00,	1.00000E+01,	-1.33154E-02,	1.10005E+02,	8.38134E+01,	-3.89253E+02,	0.00000E+00,	0,	0
  5.29412E+00,	1.00000E+01,	-1.33154E-02,	1.12954E+02,	9.66653E+01,	-4.80858E+02,	0.00000E+00,	0,	0
  4.16667E+00,	1.00000E+01,	-1.33154E-02,	1.16472E+02,	1.11318E+02,	-5.95947E+02,	0.00000E+00,	0,	0
  3.30882E+00,	1.00000E+01,	-1.33154E-02,	1.20733E+02,	1.27621E+02,	-7.34049E+02,	0.00000E+00,	0,	0
  2.61628E+00,	1.00000E+01,	-1.33154E-02,	1.24724E+02,	1.47379E+02,	-9.08972E+02,	0.00000E+00,	0,	0
  2.07373E+00,	1.00000E+01,	-1.33154E-02,	1.29483E+02,	1.70219E+02,	-1.12535E+03,	0.00000E+00,	0,	0
  1.64234E+00,	1.00000E+01,	-1.33154E-02,	1.35275E+02,	1.97200E+02,	-1.39580E+03,	0.00000E+00,	0,	0
  1.30058E+00,	1.00000E+01,	-1.33154E-02,	1.39478E+02,	2.30445E+02,	-1.73394E+03,	0.00000E+00,	0,	0
  1.03211E+00,	1.00000E+01,	-1.33154E-02,	1.43877E+02,	2.69847E+02,	-2.15212E+03,	0.00000E+00,	0,	0
  8.15217E-01,	1.00000E+01,	-1.33154E-02,	1.50832E+02,	3.19599E+02,	-2.68361E+03,	0.00000E+00,	0,	0
  6.46552E-01,	1.00000E+01,	-1.33154E-02,	1.59927E+02,	3.79325E+02,	-3.33411E+03,	0.00000E+00,	0,	0
  5.11364E-01,	1.00000E+01,	-1.33154E-02,	1.64924E+02,	4.45053E+02,	-4.15737E+03,	0.00000E+00,	0,	0
  4.07609E-01,	1.00000E+01,	-1.33154E-02,	1.70985E+02,	5.36441E+02,	-5.14973E+03,	0.00000E+00,	0,	0
  3.21429E-01,	1.00000E+01,	-1.33154E-02,	1.78117E+02,	6.52035E+02,	-6.46938E+03,	0.00000E+00,	0,	0
  2.54525E-01,	1.00000E+01,	-1.33154E-02,	1.86899E+02,	8.09002E+02,	-8.06050E+03,	0.00000E+00,	0,	0
  2.01613E-01,	1.00000E+01,	-1.33154E-02,	1.97748E+02,	1.00604E+03,	-1.00435E+04,	0.00000E+00,	0,	0
  1.59574E-01,	1.00000E+01,	-1.33154E-02,	2.11197E+02,	1.26212E+03,	-1.25234E+04,	0.00000E+00,	0,	0
  1.26689E-01,	1.00000E+01,	-1.33154E-02,	2.45081E+02,	1.61160E+03,	-1.54876E+04,	0.00000E+00,	0,	0
  1.00446E-01,	1.00000E+01,	-1.33154E-02,	2.65962E+02,	1.96028E+03,	-1.94011E+04,	0.00000E+00,	0,	0