EXPLAIN
TAG	EISPOT
TITLE	LABEL	Potentiostatic EIS	Test Identifier
DATE	LABEL	8/6/2020	Date
TIME	LABEL	10:55:32	Time
NOTES	NOTES	1	Notes...
	
PSTAT	PSTAT	REF3000-16137	Potentiostat
VDC	POTEN	0.00000E+000	T	DC Voltage (V)
FREQINIT	QUANT	3.00000E+005	Initial Freq. (Hz)
FREQFINAL	QUANT	1.00000E+000	Final Freq. (Hz)
PTSPERDEC	QUANT	1.00000E+001	Points/decade
VAC	QUANT	5.00000E+001	AC Voltage (mV rms)
AREA	QUANT	1.00000E+000	Sample Area (cm^2)
SPEED	SELECTOR	2	Optimize for:
ZGUESS	QUANT	1.00000E+003	Estimated Z (ohms)
EOC	QUANT	0	Open Circuit (V)
SEQUENCER	TOGGLE	TRUE	Run as Sequence
PSTATMODEL	IQUANT	5	Pstat Model
PSTATSECTION	LABEL	REF3000-16137	Pstat Section
PSTATSERIALNO	LABEL	16137	Pstat Serial Number
CTRLMODE	IQUANT	1	Control Mode
IESTAB	IQUANT	0	I/E Stability
CASPEED	IQUANT	1	Control Amp Speed
CONVENTION	IQUANT	1	Current Convention
ICHRANGE	IQUANT	2	Ich Range
ICHRANGEMODE	TOGGLE	F	Ich Auto Range
ICHOFFSETENABLE	TOGGLE	T	Ich Offset Enable
ICHOFFSET	QUANT	0	Ich Offset (V)
ICHFILTER	IQUANT	3	Ich Filter
VCHRANGE	IQUANT	2	Vch Range
VCHRANGEMODE	TOGGLE	F	Vch Auto Range
VCHOFFSETENABLE	TOGGLE	T	Vch Offset Enable
VCHOFFSET	QUANT	0	Vch Offset (V)
VCHFILTER	IQUANT	3	Vch Filter
ACHRANGE	IQUANT	2	Ach Range
ACHOFFSETENABLE	TOGGLE	F	Ach Offset Enable
ACHOFFSET	QUANT	0	Ach Offset (V)
ACHFILTER	IQUANT	3	Ach Filter
IERANGELOWERLIMIT	IQUANT	2	I/E Range Lower Limit
IERANGEMODE	TOGGLE	F	I/E AutoRange
IERANGE	IQUANT	11	I/E Range
POSFEEDENABLE	TOGGLE	F	Positive Feedback IR Comp
POSFEEDRESISTANCE	QUANT	0	Positive Feedback Resistance (ohm)
ACHSELECT	IQUANT	0	Ach Select
CABLEID	IQUANT	13	Cable ID
DCCALDATE	LABEL	7/31/2020	DC Calibration Date
ACCALDATE	LABEL	7/31/2020	AC Calibration Date
THERMOSELECT	IQUANT	1	Thermo Select
FRAMEWORKVERSION	QUANT	6.33	Framework Version
INSTRUMENTVERSION	LABEL	3.50	Instrument Version
COMPLIANCEVOLTAGE	IQUANT	0	Compliance Voltage
ZCURVE	TABLE
	Pt	Time	Freq	Zreal	Zimag	Zsig	Zmod	Zphz	Idc	Vdc	IERange
	#	s	Hz	ohm	ohm	V	ohm	°	A	V	#
	0	7	300046.9	90.73062	-8.80377	1	91.15675	-5.542171	7.026888E-005	-0.0020533	9
	1	10	238359.4	91.2593	-10.76199	1	91.89168	-6.72569	-7.733901E-005	0.0018455	9
	2	13	189328.1	91.99071	-13.17322	1	92.92914	-8.149447	-5.904635E-005	0.0022933	9
	3	15	150421.9	93.13855	-15.93532	1	94.49193	-9.70888	1.457803E-005	0.0007061	9
	4	18	119484.4	94.54598	-19.04837	1	96.4458	-11.391	-9.427941E-006	0.0008525	9
	5	20	94921.88	96.2731	-22.26009	1	98.813	-13.01904	2.066301E-005	-0.0002011	9
	6	23	75421.88	98.1254	-26.45012	1	101.6277	-15.08577	2.037741E-005	-0.0007482	9
	7	25	59859.37	100.5061	-31.34884	1	105.2817	-17.32321	-1.759068E-005	0.0004643	9
	8	28	47578.12	103.5095	-36.87621	1	109.8821	-19.6089	-1.38397E-005	0.0002602	9
	9	31	37828.12	106.9534	-43.23784	1	115.3627	-22.01191	2.704288E-005	-0.0006478	9
	10	33	30046.88	111.0622	-50.44492	1	121.9816	-24.42774	1.256929E-005	-0.0005638	9
	11	36	23859.38	115.8125	-58.85126	1	129.9077	-26.93784	1.397277E-005	0.0001692	9
	12	38	18984.38	121.3599	-68.55816	1	139.386	-29.4628	-1.571302E-005	0.0008013	9
	13	40	15046.87	127.7632	-79.61494	1	150.539	-31.92886	1.483668E-005	-0.0006447	9
	14	43	11953.13	134.8631	-92.76614	1	163.6876	-34.52229	2.235521E-005	-0.000129	9
	15	45	9515.62	143.1071	-107.7518	1	179.1371	-36.97774	5.856321E-006	0.0004659	9
	16	47	7546.875	153.1197	-125.9945	1	198.2934	-39.44925	2.064723E-005	-0.0006954	9
	17	50	5928.309	164.4064	-148.3541	1	221.4462	-42.0619	-1.038236E-005	0.0008124	9
	18	52	4733.456	177.1686	-172.4484	1	247.2391	-44.22649	-1.801213E-005	0.0005072	9
	19	54	3796.875	191.2224	-200.7433	1	277.2433	-46.39145	2.771392E-005	-0.0006561	9
	20	58	2987.132	210.6166	-236.6503	1	316.8008	-48.33122	-1.901438E-006	-0.0002175	9
	21	60	2390.625	230.9677	-277.4362	1	360.9944	-50.22236	6.060701E-006	-0.0004865	9
	22	63	1884.191	256.5681	-324.2611	1	413.4882	-51.64758	-1.705304E-006	0.0025418	8
	23	65	1516.544	285.9279	-376.8976	1	473.082	-52.81476	4.392479E-006	0.0007494	8
	24	67	1193.986	324.6357	-443.148	1	549.3347	-53.77472	6.279245E-006	-8.425605E-005	8
	25	70	946.5144	370.5512	-517.3822	1	636.3902	-54.38961	5.442064E-006	-0.0013775	8
	26	72	751.7689	421.7758	-604.5596	1	737.148	-55.09814	-1.67904E-006	0.0025281	8
	27	74	597.4265	484.3704	-702.1071	1	852.9766	-55.39894	6.261757E-006	-6.87922E-005	8
	28	77	477.4305	558.3109	-809.9855	1	983.762	-55.42208	1.285397E-006	0.0006486	8
	29	79	376.6741	648.2235	-940.6882	1	1142.405	-55.42947	1.276562E-006	0.0006461	8
	30	81	298.2954	751.533	-1087.654	1	1322.041	-55.3568	1.279991E-006	0.0006479	8
	31	84	237.7717	867.9781	-1249.945	1	1521.759	-55.22339	1.279322E-006	0.0006434	8
	32	86	189.0121	1004.254	-1437.145	1	1753.257	-55.05476	1.294887E-006	0.0006452	8
	33	88	150.2404	1161.875	-1650.357	1	2018.324	-54.85389	1.278554E-006	0.000643	8
	34	91	119.1737	1346.918	-1896.778	1	2326.361	-54.62112	1.289555E-006	0.0006444	8
	35	93	95.0169	1555.174	-2169.151	1	2669.042	-54.36134	1.285325E-006	0.0006381	8
	36	96	75.60484	1799.653	-2482.543	1	3066.23	-54.06077	1.279016E-006	0.0006435	8
	37	98	54.50582	2219.08	-3004.145	1	3734.864	-53.54773	1.290649E-006	0.0006388	8
	38	101	45.95588	2481.512	-3320.248	1	4145.111	-53.22601	9.853304E-007	0.0006177	7
	39	103	37.20238	2839.667	-3742.449	1	4697.833	-52.80978	9.955477E-007	0.0006087	7
	40	105	30.04808	3254.283	-4218.002	1	5327.467	-52.34901	9.874585E-007	0.0006055	7
	41	108	23.91582	3760.951	-4784.229	1	6085.523	-51.8286	9.857548E-007	0.0006031	7
	42	110	18.60119	4414.777	-5487.832	1	7043.192	-51.18449	9.879213E-007	0.00062	7
	43	113	15.02404	5054.818	-6146.309	1	7957.908	-50.5656	9.552418E-007	0.0006078	7
	44	115	12.01923	5821.777	-6908.118	1	9034.112	-49.87767	9.859657E-007	0.0006171	7
	45	117	9.450605	6770.594	-7802.052	1	10330.2	-49.04867	9.700653E-007	0.0006066	7
	46	120	7.512019	7816.417	-8716.372	1	11707.75	-48.1158	9.748188E-007	0.000618	7
	47	123	5.978954	8997.324	-9673.18	1	13210.69	-47.07315	9.721143E-007	0.0006138	7
	48	126	4.734848	10400.16	-10696.98	1	14919.41	-45.80607	9.644029E-007	0.0006272	7
	49	129	3.75601	11988.5	-11741.46	1	16780.53	-44.40354	9.671786E-007	0.0006094	7
	50	132	3.004808	13703.48	-12671.67	1	18664.32	-42.7597	9.51146E-007	0.0006505	7
	51	136	2.372217	15776.46	-13715.88	1	20905.07	-41.00333	9.674217E-007	0.0006649	7
	52	140	1.878005	17998.09	-14443.18	1	23076.75	-38.74649	9.571107E-007	0.0005873	7
	53	145	1.512097	20215.7	-14915.01	1	25122.34	-36.41967	9.555772E-007	0.000689	7
	54	156	1.201923	22839.96	-15535.18	1	27622.56	-34.22258	9.470241E-007	0.0005812	7
	55	168	0.956633	25622.28	-15983.78	1	30199.04	-31.95688	9.159299E-007	-2.801554E-005	7
