EXPLAIN
TAG	EISPOT
TITLE	LABEL	Potentiostatic EIS	Test Identifier
DATE	LABEL	8/4/2020	Date
TIME	LABEL	0:12:52	Time
NOTES	NOTES	1	Notes...
	
PSTAT	PSTAT	REF3000-16137	Potentiostat
VDC	POTEN	0.00000E+000	T	DC Voltage (V)
FREQINIT	QUANT	3.00000E+005	Initial Freq. (Hz)
FREQFINAL	QUANT	1.00000E+000	Final Freq. (Hz)
PTSPERDEC	QUANT	1.00000E+001	Points/decade
VAC	QUANT	5.00000E+001	AC Voltage (mV rms)
AREA	QUANT	1.00000E+000	Sample Area (cm^2)
SPEED	SELECTOR	2	Optimize for:
ZGUESS	QUANT	1.00000E+003	Estimated Z (ohms)
EOC	QUANT	0	Open Circuit (V)
SEQUENCER	TOGGLE	TRUE	Run as Sequence
PSTATMODEL	IQUANT	5	Pstat Model
PSTATSECTION	LABEL	REF3000-16137	Pstat Section
PSTATSERIALNO	LABEL	16137	Pstat Serial Number
CTRLMODE	IQUANT	1	Control Mode
IESTAB	IQUANT	0	I/E Stability
CASPEED	IQUANT	1	Control Amp Speed
CONVENTION	IQUANT	1	Current Convention
ICHRANGE	IQUANT	2	Ich Range
ICHRANGEMODE	TOGGLE	F	Ich Auto Range
ICHOFFSETENABLE	TOGGLE	T	Ich Offset Enable
ICHOFFSET	QUANT	0	Ich Offset (V)
ICHFILTER	IQUANT	3	Ich Filter
VCHRANGE	IQUANT	2	Vch Range
VCHRANGEMODE	TOGGLE	F	Vch Auto Range
VCHOFFSETENABLE	TOGGLE	T	Vch Offset Enable
VCHOFFSET	QUANT	0	Vch Offset (V)
VCHFILTER	IQUANT	3	Vch Filter
ACHRANGE	IQUANT	2	Ach Range
ACHOFFSETENABLE	TOGGLE	F	Ach Offset Enable
ACHOFFSET	QUANT	0	Ach Offset (V)
ACHFILTER	IQUANT	3	Ach Filter
IERANGELOWERLIMIT	IQUANT	2	I/E Range Lower Limit
IERANGEMODE	TOGGLE	F	I/E AutoRange
IERANGE	IQUANT	11	I/E Range
POSFEEDENABLE	TOGGLE	F	Positive Feedback IR Comp
POSFEEDRESISTANCE	QUANT	0	Positive Feedback Resistance (ohm)
ACHSELECT	IQUANT	0	Ach Select
CABLEID	IQUANT	13	Cable ID
DCCALDATE	LABEL	7/31/2020	DC Calibration Date
ACCALDATE	LABEL	7/31/2020	AC Calibration Date
THERMOSELECT	IQUANT	1	Thermo Select
FRAMEWORKVERSION	QUANT	6.33	Framework Version
INSTRUMENTVERSION	LABEL	3.50	Instrument Version
COMPLIANCEVOLTAGE	IQUANT	0	Compliance Voltage
ZCURVE	TABLE
	Pt	Time	Freq	Zreal	Zimag	Zsig	Zmod	Zphz	Idc	Vdc	IERange
	#	s	Hz	ohm	ohm	V	ohm	°	A	V	#
	0	10	300046.9	2.634057	1.22978	1	2.906994	25.02678	0.0003874	-4.531204E-005	11
	1	13	238359.4	2.646624	0.970854	1	2.819073	20.14442	0.0001201	0.0001238	11
	2	18	189328.1	2.686122	0.5744041	1	2.746851	12.07042	0.000297	0.0001968	12
	3	21	150421.9	2.670377	0.5827166	1	2.733217	12.30984	0.0004291	0.0005575	11
	4	25	119484.4	2.711061	0.4359005	1	2.745881	9.134177	0.0004327	0.0007917	11
	5	29	94921.88	2.768212	0.3148754	1	2.786062	6.489324	7.669943E-005	0.0005848	11
	6	31	75421.88	2.798705	0.2103953	1	2.806602	4.299178	8.381021E-005	0.0006196	11
	7	34	59859.37	2.812094	0.1193268	1	2.814624	2.429799	-0.000196	0.0005422	11
	8	36	47578.12	2.829951	0.0360692	1	2.830181	0.7302251	-0.0001851	0.0005705	11
	9	39	37828.12	2.8453	-0.0435083	1	2.845633	-0.8760588	-0.0001775	0.0006044	11
	10	41	30046.88	2.865416	-0.1240553	1	2.8681	-2.479015	0.0002072	0.0007483	11
	11	44	23859.38	2.896245	-0.2083026	1	2.903727	-4.113721	0.0001879	0.0007572	11
	12	46	18984.38	2.926812	-0.3003452	1	2.942182	-5.8591	7.477892E-005	0.0007069	11
	13	49	15046.87	2.785307	-0.401354	1	2.814075	-8.1997	0.0002044	0.0007863	11
	14	51	11953.13	2.761682	-0.5209455	1	2.810386	-10.68238	0.000146	0.000759	11
	15	53	9515.62	2.782748	-0.6636059	1	2.860779	-13.4129	-0.000196	0.000604	11
	16	56	7546.875	2.849519	-0.8379184	1	2.970163	-16.38629	-0.0002101	0.0005602	11
	17	58	5928.309	2.861051	-1.057241	1	3.050143	-20.28073	0.0001595	0.0007563	11
	18	60	4733.456	2.908693	-1.309763	1	3.18998	-24.24169	-2.419437E-006	0.0006991	11
	19	63	3796.875	2.971833	-1.609462	1	3.379668	-28.43875	0.0001481	0.0007709	11
	20	65	2987.132	3.048764	-2.008662	1	3.650984	-33.37867	7.156042E-005	0.0007308	11
	21	67	2390.625	3.174118	-2.465387	1	4.019099	-37.83705	-0.0001296	0.0007452	10
	22	69	1884.191	3.314917	-3.06146	1	4.51234	-42.72373	-0.0001376	0.0008181	10
	23	72	1516.544	3.461863	-3.724364	1	5.084819	-47.09199	1.100834E-005	0.0006054	10
	24	74	1193.986	3.652608	-4.614425	1	5.885105	-51.63617	0.0001369	0.0005263	10
	25	77	946.5144	3.897314	-5.676637	1	6.885729	-55.52833	-0.0001348	0.0008451	10
	26	79	751.7689	4.187719	-6.954676	1	8.118159	-58.94599	9.219583E-005	0.0006231	10
	27	81	597.4265	4.567735	-8.496364	1	9.64637	-61.73705	-0.0001628	0.000837	10
	28	84	477.4305	5.034472	-10.3172	1	11.48	-63.98906	5.674737E-006	0.0006228	10
	29	86	376.6741	5.664068	-12.64711	1	13.85752	-65.87454	8.964641E-007	0.000682	10
	30	88	298.2954	6.443093	-15.42321	1	16.71493	-67.32711	1.091722E-006	0.0006808	10
	31	91	237.7717	7.382296	-18.66696	1	20.07371	-68.42249	9.174174E-007	0.0006819	10
	32	93	189.0121	8.557508	-22.60522	1	24.17079	-69.26517	1.269043E-006	0.0006819	10
	33	95	150.2404	9.99451	-27.33171	1	29.10176	-69.91383	1.274224E-006	0.0006819	10
	34	98	119.1737	11.75479	-33.05536	1	35.08321	-70.42415	7.117301E-007	0.0006782	10
	35	100	95.0169	13.80822	-39.70954	1	42.04182	-70.82587	2.088047E-006	7.69612E-005	9
	36	103	75.60484	16.31128	-47.81615	1	50.52171	-71.16421	1.957101E-006	7.737621E-005	9
	37	105	54.50582	20.70778	-62.33036	1	65.68018	-71.62216	1.844343E-006	7.479047E-005	9
	38	108	45.95588	23.54491	-71.59752	1	75.36954	-71.7965	2.18951E-006	8.716516E-005	9
	39	110	37.20238	27.6264	-85.01546	1	89.39154	-71.99805	2.005366E-006	9.027842E-005	9
	40	112	30.04808	32.54641	-101.1912	1	106.2964	-72.17051	1.882297E-006	9.252458E-005	9
	41	115	23.91582	39.4915	-121.9648	1	128.1991	-72.05835	2.163728E-006	7.841562E-005	9
	42	117	18.60119	48.77533	-150.1255	1	157.8503	-72.00117	2.329655E-006	8.584483E-005	9
	43	120	15.02404	59.23726	-179.3511	1	188.8806	-71.72231	2.16704E-006	7.469908E-005	9
	44	122	12.01923	68.85718	-216.3392	1	227.033	-72.34459	2.463628E-006	8.046781E-005	9
	45	124	9.450605	81.27428	-265.2764	1	277.4474	-72.9662	2.009955E-006	8.501491E-005	9
	46	127	7.512019	96.2733	-322.9474	1	336.9919	-73.40024	2.180492E-006	6.751188E-005	9
	47	130	5.978954	114.8931	-393.1961	1	409.6384	-73.71148	2.24897E-006	7.851011E-005	9
	48	133	4.734848	140.346	-479.2536	1	499.3806	-73.67771	1.599321E-006	0.0006363	8
	49	136	3.75601	172.289	-586.0594	1	610.8593	-73.61778	1.675254E-006	0.0006738	8
	50	139	3.004808	212.0303	-710.7853	1	741.7362	-73.38993	1.690999E-006	0.0006239	8
	51	143	2.372217	271.01	-871.0576	1	912.2433	-72.71764	1.580556E-006	0.0005782	8
	52	147	1.878005	350.7028	-1059.702	1	1116.226	-71.68832	1.680193E-006	0.0006336	8
	53	152	1.512097	449.4558	-1263.743	1	1341.29	-70.42185	1.58357E-006	0.0005965	8
	54	157	1.201923	584.7983	-1527.494	1	1635.612	-69.05074	1.545944E-006	0.0006804	8
	55	164	0.956633	769.45	-1819.331	1	1975.352	-67.07503	1.365169E-006	1.365351E-005	8
