EXPLAIN
TAG	EISPOT
TITLE	LABEL	Potentiostatic EIS	Test Identifier
DATE	LABEL	8/4/2020	Date
TIME	LABEL	0:26:53	Time
NOTES	NOTES	1	Notes...
	
PSTAT	PSTAT	REF3000-16137	Potentiostat
VDC	POTEN	0.00000E+000	T	DC Voltage (V)
FREQINIT	QUANT	3.00000E+005	Initial Freq. (Hz)
FREQFINAL	QUANT	1.00000E+000	Final Freq. (Hz)
PTSPERDEC	QUANT	1.00000E+001	Points/decade
VAC	QUANT	5.00000E+001	AC Voltage (mV rms)
AREA	QUANT	1.00000E+000	Sample Area (cm^2)
SPEED	SELECTOR	2	Optimize for:
ZGUESS	QUANT	1.00000E+003	Estimated Z (ohms)
EOC	QUANT	0	Open Circuit (V)
SEQUENCER	TOGGLE	TRUE	Run as Sequence
PSTATMODEL	IQUANT	5	Pstat Model
PSTATSECTION	LABEL	REF3000-16137	Pstat Section
PSTATSERIALNO	LABEL	16137	Pstat Serial Number
CTRLMODE	IQUANT	1	Control Mode
IESTAB	IQUANT	0	I/E Stability
CASPEED	IQUANT	1	Control Amp Speed
CONVENTION	IQUANT	1	Current Convention
ICHRANGE	IQUANT	2	Ich Range
ICHRANGEMODE	TOGGLE	F	Ich Auto Range
ICHOFFSETENABLE	TOGGLE	T	Ich Offset Enable
ICHOFFSET	QUANT	0	Ich Offset (V)
ICHFILTER	IQUANT	3	Ich Filter
VCHRANGE	IQUANT	2	Vch Range
VCHRANGEMODE	TOGGLE	F	Vch Auto Range
VCHOFFSETENABLE	TOGGLE	T	Vch Offset Enable
VCHOFFSET	QUANT	0	Vch Offset (V)
VCHFILTER	IQUANT	3	Vch Filter
ACHRANGE	IQUANT	2	Ach Range
ACHOFFSETENABLE	TOGGLE	F	Ach Offset Enable
ACHOFFSET	QUANT	0	Ach Offset (V)
ACHFILTER	IQUANT	3	Ach Filter
IERANGELOWERLIMIT	IQUANT	2	I/E Range Lower Limit
IERANGEMODE	TOGGLE	F	I/E AutoRange
IERANGE	IQUANT	11	I/E Range
POSFEEDENABLE	TOGGLE	F	Positive Feedback IR Comp
POSFEEDRESISTANCE	QUANT	0	Positive Feedback Resistance (ohm)
ACHSELECT	IQUANT	0	Ach Select
CABLEID	IQUANT	13	Cable ID
DCCALDATE	LABEL	7/31/2020	DC Calibration Date
ACCALDATE	LABEL	7/31/2020	AC Calibration Date
THERMOSELECT	IQUANT	1	Thermo Select
FRAMEWORKVERSION	QUANT	6.33	Framework Version
INSTRUMENTVERSION	LABEL	3.50	Instrument Version
COMPLIANCEVOLTAGE	IQUANT	0	Compliance Voltage
ZCURVE	TABLE
	Pt	Time	Freq	Zreal	Zimag	Zsig	Zmod	Zphz	Idc	Vdc	IERange
	#	s	Hz	ohm	ohm	V	ohm	°	A	V	#
	0	8	300046.9	11.5786	1.203855	1	11.64102	5.935853	-0.0003159	0.0008184	10
	1	11	238359.4	11.6016	0.9382828	1	11.63948	4.623748	-0.0002248	0.0003651	10
	2	15	189328.1	11.64509	0.7279772	1	11.66782	3.577113	0.0002741	0.0002424	10
	3	17	150421.9	11.703	0.5486577	1	11.71586	2.684164	0.000264	-0.0002307	10
	4	20	119484.4	11.76257	0.3930796	1	11.76913	1.913989	0.0002468	-0.000189	10
	5	22	94921.88	11.82645	0.292752	1	11.83008	1.41801	-0.0001331	0.0007756	10
	6	25	75421.88	11.89318	0.1711996	1	11.89441	0.8247028	2.626708E-005	0.0007432	10
	7	27	59859.37	11.96863	0.0642482	1	11.9688	0.3075637	0.0001371	0.0004832	10
	8	30	47578.12	12.04669	-0.0300462	1	12.04672	-0.142904	6.300978E-005	0.0006973	10
	9	32	37828.12	12.1224	-0.1206837	1	12.123	-0.5703853	-2.379798E-005	0.00056	10
	10	35	30046.88	12.20103	-0.2151902	1	12.20293	-1.010424	1.548552E-005	0.000525	10
	11	38	23859.38	12.28037	-0.3177954	1	12.28448	-1.482388	-2.596695E-005	0.0005712	10
	12	40	18984.38	12.36433	-0.4304426	1	12.37182	-1.993847	0.0001281	0.0004904	10
	13	42	15046.87	12.4513	-0.5651617	1	12.46412	-2.598858	-2.816208E-005	0.0005819	10
	14	44	11953.13	12.54299	-0.723534	1	12.56384	-3.30141	0.0001104	0.0004911	10
	15	47	9515.62	12.63717	-0.9036524	1	12.66944	-4.090117	-0.0001212	0.0008374	10
	16	49	7546.875	12.7405	-1.130396	1	12.79055	-5.070268	-0.0001159	0.0008041	10
	17	51	5928.309	12.86117	-1.420658	1	12.93939	-6.303399	-0.0001205	0.0008252	10
	18	54	4733.456	12.98493	-1.74842	1	13.10211	-7.668752	7.988147E-005	0.0004935	10
	19	56	3796.875	13.11654	-2.145609	1	13.29087	-9.290186	1.019885E-005	0.000547	10
	20	58	2987.132	13.27287	-2.668864	1	13.53853	-11.36924	-0.000104	0.0008676	10
	21	61	2390.625	13.4458	-3.266655	1	13.83692	-13.65544	0.0001269	0.0004826	10
	22	63	1884.191	13.65934	-4.044456	1	14.24554	-16.49373	-0.0000989	0.0007311	10
	23	65	1516.544	13.86777	-4.937819	1	14.72063	-19.59901	-5.563797E-005	0.0008425	10
	24	68	1193.986	14.14277	-6.124174	1	15.41179	-23.41383	-0.0000958	0.0007258	10
	25	70	946.5144	14.45908	-7.565464	1	16.31874	-27.62004	-9.01414E-005	0.0008424	10
	26	72	751.7689	14.83003	-9.321838	1	17.51646	-32.15259	0.0001104	0.000558	10
	27	75	597.4265	15.27084	-11.47203	1	19.09989	-36.91525	8.024399E-005	0.0004942	10
	28	77	477.4305	15.80758	-14.05099	1	21.1497	-41.63316	-1.106064E-006	0.0006772	10
	29	79	376.6741	16.50126	-17.41079	1	23.98807	-46.53631	-5.123858E-007	0.0006705	10
	30	82	298.2954	17.36107	-21.49335	1	27.62917	-51.07076	-7.310103E-007	0.000685	10
	31	84	237.7717	18.41745	-26.35557	1	32.15305	-55.05389	-6.947463E-007	0.0006782	10
	32	87	189.0121	19.76285	-32.36915	1	37.92535	-58.59402	-5.356295E-007	0.0006743	10
	33	89	150.2404	21.44359	-39.66246	1	45.08812	-61.60204	1.324073E-006	7.569537E-005	9
	34	91	119.1737	23.63278	-48.68703	1	54.11964	-64.10797	1.12692E-006	8.336446E-005	9
	35	94	95.0169	26.35547	-59.4017	1	64.98594	-66.07399	1.264172E-006	7.394807E-005	9
	36	96	75.60484	29.84065	-72.48422	1	78.3864	-67.62378	1.164436E-006	7.807149E-005	9
	37	99	54.50582	36.42276	-95.9946	1	102.6722	-69.222	1.294975E-006	7.331598E-005	9
	38	101	45.95588	40.87883	-111.0121	1	118.2995	-69.7844	1.14764E-006	8.110297E-005	9
	39	104	37.20238	47.44287	-132.6258	1	140.8561	-70.31686	1.171059E-006	8.008343E-005	9
	40	106	30.04808	55.51274	-158.4719	1	167.9137	-70.69463	1.22968E-006	7.207578E-005	9
	41	108	23.91582	65.95029	-191.2712	1	202.3218	-70.97581	1.099756E-006	7.727481E-005	9
	42	111	18.60119	79.91508	-234.8141	1	248.0405	-71.20485	9.703909E-007	7.584519E-005	9
	43	113	15.02404	94.30192	-279.1877	1	294.6839	-71.33645	1.228323E-006	6.956949E-005	9
	44	115	12.01923	111.9882	-334.3912	1	352.6455	-71.48421	1.129946E-006	7.821477E-005	9
	45	118	9.450605	133.6908	-404.0627	1	425.6054	-71.69234	4.817572E-007	0.0006694	8
	46	120	7.512019	158.9008	-486.2929	1	511.5958	-71.90471	3.802388E-007	0.0006573	8
	47	123	5.978954	187.4703	-584.7982	1	614.1124	-72.22557	4.03194E-007	0.0006613	8
	48	126	4.734848	221.6145	-706.9888	1	740.909	-72.59575	4.157374E-007	0.0006238	8
	49	129	3.75601	260.947	-855.2505	1	894.1738	-73.03244	5.050131E-007	0.0006669	8
	50	133	3.004808	304.2192	-1028.729	1	1072.768	-73.52581	4.65544E-007	0.0006441	8
	51	136	2.372217	359.1117	-1255.219	1	1305.579	-74.03445	4.342621E-007	0.0005802	8
	52	141	1.878005	419.6154	-1532.385	1	1588.798	-74.686	4.740384E-007	0.0006643	8
	53	145	1.512097	489.2959	-1844.453	1	1908.25	-75.1428	4.319705E-007	0.0005853	8
	54	151	1.201923	574.6004	-2260.431	1	2332.319	-75.73752	4.556402E-007	0.0006767	8
	55	157	0.956633	679.1733	-2767.005	1	2849.139	-76.20914	4.211506E-007	1.35811E-005	8
