EXPLAIN
TAG	EISPOT
TITLE	LABEL	Potentiostatic EIS	Test Identifier
DATE	LABEL	8/4/2020	Date
TIME	LABEL	0:44:32	Time
NOTES	NOTES	1	Notes...
	
PSTAT	PSTAT	REF3000-16137	Potentiostat
VDC	POTEN	0.00000E+000	T	DC Voltage (V)
FREQINIT	QUANT	3.00000E+005	Initial Freq. (Hz)
FREQFINAL	QUANT	1.00000E+000	Final Freq. (Hz)
PTSPERDEC	QUANT	1.00000E+001	Points/decade
VAC	QUANT	5.00000E+001	AC Voltage (mV rms)
AREA	QUANT	1.00000E+000	Sample Area (cm^2)
SPEED	SELECTOR	2	Optimize for:
ZGUESS	QUANT	1.00000E+003	Estimated Z (ohms)
EOC	QUANT	0	Open Circuit (V)
SEQUENCER	TOGGLE	TRUE	Run as Sequence
PSTATMODEL	IQUANT	5	Pstat Model
PSTATSECTION	LABEL	REF3000-16137	Pstat Section
PSTATSERIALNO	LABEL	16137	Pstat Serial Number
CTRLMODE	IQUANT	1	Control Mode
IESTAB	IQUANT	0	I/E Stability
CASPEED	IQUANT	1	Control Amp Speed
CONVENTION	IQUANT	1	Current Convention
ICHRANGE	IQUANT	2	Ich Range
ICHRANGEMODE	TOGGLE	F	Ich Auto Range
ICHOFFSETENABLE	TOGGLE	T	Ich Offset Enable
ICHOFFSET	QUANT	0	Ich Offset (V)
ICHFILTER	IQUANT	3	Ich Filter
VCHRANGE	IQUANT	2	Vch Range
VCHRANGEMODE	TOGGLE	F	Vch Auto Range
VCHOFFSETENABLE	TOGGLE	T	Vch Offset Enable
VCHOFFSET	QUANT	0	Vch Offset (V)
VCHFILTER	IQUANT	3	Vch Filter
ACHRANGE	IQUANT	2	Ach Range
ACHOFFSETENABLE	TOGGLE	F	Ach Offset Enable
ACHOFFSET	QUANT	0	Ach Offset (V)
ACHFILTER	IQUANT	3	Ach Filter
IERANGELOWERLIMIT	IQUANT	2	I/E Range Lower Limit
IERANGEMODE	TOGGLE	F	I/E AutoRange
IERANGE	IQUANT	11	I/E Range
POSFEEDENABLE	TOGGLE	F	Positive Feedback IR Comp
POSFEEDRESISTANCE	QUANT	0	Positive Feedback Resistance (ohm)
ACHSELECT	IQUANT	0	Ach Select
CABLEID	IQUANT	13	Cable ID
DCCALDATE	LABEL	7/31/2020	DC Calibration Date
ACCALDATE	LABEL	7/31/2020	AC Calibration Date
THERMOSELECT	IQUANT	1	Thermo Select
FRAMEWORKVERSION	QUANT	6.33	Framework Version
INSTRUMENTVERSION	LABEL	3.50	Instrument Version
COMPLIANCEVOLTAGE	IQUANT	0	Compliance Voltage
ZCURVE	TABLE
	Pt	Time	Freq	Zreal	Zimag	Zsig	Zmod	Zphz	Idc	Vdc	IERange
	#	s	Hz	ohm	ohm	V	ohm	°	A	V	#
	0	14	300046.9	1529.536	-3078.73	1	3437.74	-63.58146	2.533628E-006	0.0014102	9
	1	28	238359.4	2036.888	-3771.379	1	4286.282	-61.62692	2.75827E-005	-0.001617	9
	2	43	189328.1	2538.314	-4562.254	1	5220.843	-60.90963	-6.295138E-005	0.0006063	9
	3	51	150421.9	3190.185	-5479.689	1	6340.684	-59.79274	7.638662E-005	-0.0015092	9
	4	64	119484.4	4302.887	-6394.273	1	7707.241	-56.06228	1.978801E-005	-0.0177863	8
	5	72	94921.88	5530.887	-7363.68	1	9209.479	-53.08966	-1.130359E-005	0.0099011	8
	6	80	75421.88	7040.812	-8649.368	1	11152.78	-50.85351	-1.838344E-006	-0.0048498	8
	7	89	59859.37	9041.255	-10036.29	1	13508.2	-47.98568	7.317646E-006	-0.0074104	8
	8	97	47578.12	12990.21	-10561.67	1	16742	-39.11279	-6.882042E-006	0.0221792	7
	9	103	37828.12	15445.55	-11465.97	1	19236.26	-36.58826	4.669119E-006	-0.0005118	7
	10	109	30046.88	18180.94	-12359.76	1	21984.32	-34.20863	6.4919E-006	-0.0257305	7
	11	115	23859.38	21417.63	-12609.83	1	24854.03	-30.48786	2.864538E-006	0.0071521	7
	12	120	18984.38	24872.33	-13364.54	1	28235.5	-28.25027	-1.744295E-006	0.0211263	7
	13	125	15046.87	27608.12	-15263.94	1	31546.73	-28.93726	8.632681E-006	0.0039375	8
	14	131	11953.13	32607.24	-13960.71	1	35470.18	-23.17807	-7.089018E-006	0.0182062	7
	15	137	9515.62	36793.94	-15246.06	1	39827.58	-22.50732	-1.161976E-005	0.0100716	8
	16	143	7546.875	41679.05	-13961.86	1	43955.39	-18.52008	3.883427E-007	0.0155803	7
	17	148	5928.309	47483.52	-14455.27	1	49635.06	-16.93167	4.640187E-007	0.0155431	7
	18	154	4733.456	56541.54	-8590.512	1	57190.41	-8.639036	6.974631E-007	-0.0153124	6
	19	158	3796.875	59951.48	-8036.233	1	60487.69	-7.634738	-2.174551E-007	0.0217431	6
	20	162	2987.132	63955.88	-7424.101	1	64385.33	-6.621351	-3.965087E-007	0.0247894	6
	21	167	2390.625	68465.02	-6892.624	1	68811.1	-5.748806	6.998398E-007	-0.0262202	6
	22	171	1884.191	72697.23	-6400.029	1	72978.41	-5.031164	-2.124017E-007	0.0217407	6
	23	175	1516.544	78039.32	-6217.801	1	78286.63	-4.555431	-2.799582E-007	-0.0069874	6
	24	179	1193.986	83072.22	-6081.627	1	83294.54	-4.187092	3.796967E-007	-0.024532	6
	25	184	946.5144	89124.17	-5391.355	1	89287.09	-3.461754	7.439908E-007	-0.0226065	6
	26	186	751.7689	93221.51	-3557.365	1	93289.36	-2.185367	7.071694E-007	-0.0267655	6
	27	189	597.4265	95688.6	-4582.521	1	95798.2	-2.741797	5.851373E-007	-0.0066831	6
	28	192	477.4305	100142.7	-3466.962	1	100202.7	-1.982801	-1.379384E-008	0.0006905	6
	29	194	376.6741	103957.4	-2901.758	1	103997.9	-1.598878	-1.467961E-008	0.0007392	6
	30	196	298.2954	107879.2	-2512.882	1	107908.4	-1.334377	-1.336012E-008	0.0006315	6
	31	198	237.7717	112168	-1999.715	1	112185.8	-1.021353	-1.43458E-008	0.0007454	6
	32	201	189.0121	116638.6	-1585.613	1	116649.4	-0.7788443	-1.39193E-008	0.0006565	6
	33	203	150.2404	121707.2	-1308.425	1	121714.3	-0.6159401	-1.297178E-008	0.0006161	6
	34	206	119.1737	126486	33.36068	1	126486	0.0151118	-1.360363E-008	0.0006192	6
	35	209	95.0169	131897.2	-680.2881	1	131898.9	-0.2955128	-1.36665E-008	0.0007096	6
	36	211	75.60484	137209.7	-385.5079	1	137210.2	-0.1609793	-1.322637E-008	0.0006265	6
	37	214	54.50582	143165	-872.6669	1	143167.7	-0.3492439	-1.420363E-008	0.0007411	6
	38	216	45.95588	148556	-319.7423	1	148556.4	-0.1233195	-1.262323E-008	0.0006631	6
	39	218	37.20238	154360.5	-341.3257	1	154360.9	-0.1266936	-1.463779E-008	0.0006996	6
	40	221	30.04808	161221.1	-452.8673	1	161221.8	-0.1609424	-1.268404E-008	0.0006228	6
	41	224	23.91582	168411.7	-724.7278	1	168413.3	-0.24656	-1.157742E-008	0.0006125	6
	42	226	18.60119	174770.1	-1002.821	1	174773	-0.3287563	-1.128866E-008	0.0006187	6
	43	228	15.02404	182282.4	-1024.608	1	182285.3	-0.3220557	-1.216629E-008	0.0006229	6
	44	231	12.01923	190223	-1320.97	1	190227.6	-0.3978741	-1.195617E-008	0.0007085	6
	45	233	9.450605	198741.1	-1768.01	1	198748.9	-0.5096924	-1.43138E-008	0.000686	6
	46	236	7.512019	208823.2	-2271.094	1	208835.5	-0.6231059	-1.355988E-008	0.0006699	6
	47	239	5.978954	222823.3	-2891.59	1	222842.1	-0.7434886	-1.519002E-008	0.0007498	6
	48	243	4.734848	237777.3	-3441.564	1	237802.2	-0.8292353	-1.313674E-008	0.0006981	6
	49	246	3.75601	263972.5	-4391.962	1	264009	-0.953197	-1.478147E-008	0.0006031	6
	50	253	3.004808	294041.4	-5455.068	1	294092	-1.062832	-1.348362E-008	0.000672	6
	51	260	2.372217	323609	-6742.547	1	323679.3	-1.193612	-1.369002E-008	0.0006769	6
	52	264	1.878005	351891.8	-8386.582	1	351991.7	-1.365263	-1.424599E-008	0.0006591	6
	53	269	1.512097	386936.1	-9805.47	1	387060.3	-1.45164	-1.314244E-008	0.000571	6
	54	274	1.201923	432624.2	-12132.34	1	432794.3	-1.606359	-2.372957E-009	0.000699	5
	55	280	0.956633	488134.2	-15233.5	1	488371.8	-1.787484	-3.365522E-009	-7.452732E-007	5
