EXPLAIN
TAG	EISPOT
TITLE	LABEL	Potentiostatic EIS	Test Identifier
DATE	LABEL	8/4/2020	Date
TIME	LABEL	0:40:52	Time
NOTES	NOTES	1	Notes...
	
PSTAT	PSTAT	REF3000-16137	Potentiostat
VDC	POTEN	0.00000E+000	T	DC Voltage (V)
FREQINIT	QUANT	3.00000E+005	Initial Freq. (Hz)
FREQFINAL	QUANT	1.00000E+000	Final Freq. (Hz)
PTSPERDEC	QUANT	1.00000E+001	Points/decade
VAC	QUANT	5.00000E+001	AC Voltage (mV rms)
AREA	QUANT	1.00000E+000	Sample Area (cm^2)
SPEED	SELECTOR	2	Optimize for:
ZGUESS	QUANT	1.00000E+003	Estimated Z (ohms)
EOC	QUANT	0	Open Circuit (V)
SEQUENCER	TOGGLE	TRUE	Run as Sequence
PSTATMODEL	IQUANT	5	Pstat Model
PSTATSECTION	LABEL	REF3000-16137	Pstat Section
PSTATSERIALNO	LABEL	16137	Pstat Serial Number
CTRLMODE	IQUANT	1	Control Mode
IESTAB	IQUANT	0	I/E Stability
CASPEED	IQUANT	1	Control Amp Speed
CONVENTION	IQUANT	1	Current Convention
ICHRANGE	IQUANT	2	Ich Range
ICHRANGEMODE	TOGGLE	F	Ich Auto Range
ICHOFFSETENABLE	TOGGLE	T	Ich Offset Enable
ICHOFFSET	QUANT	0	Ich Offset (V)
ICHFILTER	IQUANT	3	Ich Filter
VCHRANGE	IQUANT	2	Vch Range
VCHRANGEMODE	TOGGLE	F	Vch Auto Range
VCHOFFSETENABLE	TOGGLE	T	Vch Offset Enable
VCHOFFSET	QUANT	0	Vch Offset (V)
VCHFILTER	IQUANT	3	Vch Filter
ACHRANGE	IQUANT	2	Ach Range
ACHOFFSETENABLE	TOGGLE	F	Ach Offset Enable
ACHOFFSET	QUANT	0	Ach Offset (V)
ACHFILTER	IQUANT	3	Ach Filter
IERANGELOWERLIMIT	IQUANT	2	I/E Range Lower Limit
IERANGEMODE	TOGGLE	F	I/E AutoRange
IERANGE	IQUANT	11	I/E Range
POSFEEDENABLE	TOGGLE	F	Positive Feedback IR Comp
POSFEEDRESISTANCE	QUANT	0	Positive Feedback Resistance (ohm)
ACHSELECT	IQUANT	0	Ach Select
CABLEID	IQUANT	13	Cable ID
DCCALDATE	LABEL	7/31/2020	DC Calibration Date
ACCALDATE	LABEL	7/31/2020	AC Calibration Date
THERMOSELECT	IQUANT	1	Thermo Select
FRAMEWORKVERSION	QUANT	6.33	Framework Version
INSTRUMENTVERSION	LABEL	3.50	Instrument Version
COMPLIANCEVOLTAGE	IQUANT	0	Compliance Voltage
ZCURVE	TABLE
	Pt	Time	Freq	Zreal	Zimag	Zsig	Zmod	Zphz	Idc	Vdc	IERange
	#	s	Hz	ohm	ohm	V	ohm	°	A	V	#
	0	14	300046.9	868.393	-225.6117	1	897.2219	-14.56368	1.974498E-005	-0.0019587	9
	1	25	238359.4	929.1938	-210.0333	1	952.636	-12.73699	3.297672E-005	0.0005591	9
	2	31	189328.1	1008.031	-196.5555	1	1027.015	-11.03364	1.557041E-005	-0.0009151	9
	3	39	150421.9	1077.037	-180.6287	1	1092.078	-9.52041	9.017795E-006	0.0012876	9
	4	44	119484.4	1160.217	-129.4263	1	1167.414	-6.365226	7.166619E-006	-0.0114061	8
	5	50	94921.88	1210.289	-110.9556	1	1215.365	-5.238061	1.526662E-005	-0.0074147	8
	6	53	75421.88	1246.677	-97.1585	1	1250.457	-4.456283	9.700125E-006	-0.0066919	8
	7	55	59859.37	1287.152	-81.05304	1	1289.701	-3.603206	-1.540512E-005	0.0019656	8
	8	59	47578.12	1324.645	-68.03923	1	1326.391	-2.940364	-1.565824E-005	0.0019891	8
	9	61	37828.12	1359.549	-59.92246	1	1360.869	-2.523693	-1.551368E-005	0.0020281	8
	10	64	30046.88	1398.263	-50.07031	1	1399.159	-2.050824	1.619968E-005	-0.0076622	8
	11	67	23859.38	1437.105	-43.69443	1	1437.769	-1.741512	9.949353E-006	0.0022354	8
	12	70	18984.38	1476.566	-35.16343	1	1476.985	-1.364203	-1.071807E-005	-0.0004531	8
	13	73	15046.87	1527.283	-29.78712	1	1527.574	-1.117317	1.613399E-005	-0.0076855	8
	14	76	11953.13	1574.03	-23.99599	1	1574.213	-0.8734031	3.262968E-006	-0.0054216	8
	15	80	9515.62	1621.048	-19.28263	1	1621.162	-0.6815107	-1.846459E-005	0.0091633	8
	16	82	7546.875	1677.089	-16.00559	1	1677.166	-0.5467957	-3.641877E-006	-0.0031587	8
	17	87	5928.309	1739.606	-11.53873	1	1739.644	-0.3800348	-2.097503E-005	0.0054416	8
	18	91	4733.456	1816.367	-16.91532	1	1816.446	-0.533564	1.680741E-005	-0.0007295	8
	19	95	3796.875	1882.579	-10.94544	1	1882.611	-0.3331176	-1.934639E-005	0.0094898	8
	20	99	2987.132	1957.558	-8.77946	1	1957.577	-0.2569644	2.307853E-005	-0.0067742	8
	21	103	2390.625	2045.505	25.50808	1	2045.664	0.7144591	-3.727052E-006	-0.0035262	8
	22	107	1884.191	2121.624	-13.24356	1	2121.666	-0.3576459	9.553614E-006	0.0027417	8
	23	111	1516.544	2215.64	-10.76211	1	2215.666	-0.2783027	7.522651E-007	0.0059439	8
	24	116	1193.986	2306.778	-4.80422	1	2306.783	-0.1193271	-1.956126E-005	0.0035124	8
	25	120	946.5144	2397.596	-35.44429	1	2397.858	-0.8469567	-2.060757E-005	0.0100514	8
	26	123	751.7689	2484.65	-44.50933	1	2485.049	-1.026271	1.762836E-005	-0.0083246	8
	27	127	597.4265	2613.96	-21.65252	1	2614.049	-0.4745941	-7.961454E-007	0.0007193	9
	28	130	477.4305	2654.897	-29.42963	1	2655.061	-0.6350997	-4.249565E-007	0.000658	8
	29	133	376.6741	2719.885	-36.57556	1	2720.131	-0.7704366	-4.024357E-007	0.0006218	8
	30	135	298.2954	2786.918	-45.5747	1	2787.29	-0.9368793	-3.932525E-007	0.0006468	8
	31	137	237.7717	2859.221	-56.06548	1	2859.771	-1.123349	-4.532223E-007	0.0006579	8
	32	140	189.0121	2933.884	-68.97244	1	2934.695	-1.346714	-4.154227E-007	0.0006479	8
	33	142	150.2404	3011.247	-84.80655	1	3012.441	-1.61321	-4.055254E-007	0.0006214	8
	34	145	119.1737	3092.31	-103.1695	1	3094.03	-1.910865	-4.418404E-007	0.0006952	8
	35	147	95.0169	3176.624	-127.9178	1	3179.198	-2.305967	-4.400414E-007	0.0006637	8
	36	149	75.60484	3267.598	-156.6398	1	3271.351	-2.744504	-4.352381E-007	0.000654	8
	37	152	54.50582	3367.256	-208.946	1	3373.732	-3.550782	-4.483381E-007	0.0006926	8
	38	154	45.95588	3461.257	-244.2742	1	3469.866	-4.03689	-4.290754E-007	0.0006426	8
	39	157	37.20238	3556.251	-294.4162	1	3568.417	-4.732631	-4.117267E-007	0.0006583	8
	40	159	30.04808	3669.834	-354.4344	1	3686.91	-5.516545	-5.963229E-008	0.0005777	7
	41	162	23.91582	3779.982	-439.5034	1	3805.447	-6.632074	-2.198616E-007	0.0005859	7
	42	164	18.60119	3896.286	-553.0701	1	3935.344	-8.079048	9.607991E-008	0.0006512	7
	43	166	15.02404	4013.743	-650.7668	1	4066.156	-9.209491	-2.677501E-007	0.0005771	7
	44	169	12.01923	4133.109	-800.4587	1	4209.908	-10.96077	3.537953E-008	0.0005829	7
	45	171	9.450605	4286.786	-989.797	1	4399.571	-13.00145	-1.528075E-008	0.0006137	7
	46	173	7.512019	4437.051	-1218.043	1	4601.201	-15.35049	2.849912E-008	0.0006321	7
	47	176	5.978954	4635.843	-1497.848	1	4871.815	-17.90572	-5.64424E-008	0.0006199	7
	48	179	4.734848	4864.067	-1851.883	1	5204.673	-20.8432	-1.383098E-007	0.0006408	7
	49	183	3.75601	5121.267	-2279.475	1	5605.656	-23.99384	-4.596953E-008	0.0006254	7
	50	186	3.004808	5412.041	-2778.693	1	6083.693	-27.17723	-8.542592E-008	0.0006494	7
	51	190	2.372217	5760.189	-3432.231	1	6705.221	-30.78877	-8.162256E-008	0.000594	7
	52	194	1.878005	6190.129	-4247.467	1	7507.241	-34.45666	-7.657023E-008	0.0006044	7
	53	199	1.512097	6695.539	-5176.718	1	8463.371	-37.70973	-8.997328E-008	0.0006918	7
	54	204	1.201923	7337.569	-6391.902	1	9731.2	-41.05977	-8.399225E-008	0.0006192	7
	55	210	0.956633	8105.052	-7885.749	1	11308.27	-44.21428	-1.139175E-007	-2.34595E-005	7
