EXPLAIN
TAG	EISPOT
TITLE	LABEL	Potentiostatic EIS	Test Identifier
DATE	LABEL	8/4/2020	Date
TIME	LABEL	0:24:07	Time
NOTES	NOTES	1	Notes...
	
PSTAT	PSTAT	REF3000-16137	Potentiostat
VDC	POTEN	0.00000E+000	T	DC Voltage (V)
FREQINIT	QUANT	3.00000E+005	Initial Freq. (Hz)
FREQFINAL	QUANT	1.00000E+000	Final Freq. (Hz)
PTSPERDEC	QUANT	1.00000E+001	Points/decade
VAC	QUANT	5.00000E+001	AC Voltage (mV rms)
AREA	QUANT	1.00000E+000	Sample Area (cm^2)
SPEED	SELECTOR	2	Optimize for:
ZGUESS	QUANT	1.00000E+003	Estimated Z (ohms)
EOC	QUANT	0	Open Circuit (V)
SEQUENCER	TOGGLE	TRUE	Run as Sequence
PSTATMODEL	IQUANT	5	Pstat Model
PSTATSECTION	LABEL	REF3000-16137	Pstat Section
PSTATSERIALNO	LABEL	16137	Pstat Serial Number
CTRLMODE	IQUANT	1	Control Mode
IESTAB	IQUANT	0	I/E Stability
CASPEED	IQUANT	1	Control Amp Speed
CONVENTION	IQUANT	1	Current Convention
ICHRANGE	IQUANT	2	Ich Range
ICHRANGEMODE	TOGGLE	F	Ich Auto Range
ICHOFFSETENABLE	TOGGLE	T	Ich Offset Enable
ICHOFFSET	QUANT	0	Ich Offset (V)
ICHFILTER	IQUANT	3	Ich Filter
VCHRANGE	IQUANT	2	Vch Range
VCHRANGEMODE	TOGGLE	F	Vch Auto Range
VCHOFFSETENABLE	TOGGLE	T	Vch Offset Enable
VCHOFFSET	QUANT	0	Vch Offset (V)
VCHFILTER	IQUANT	3	Vch Filter
ACHRANGE	IQUANT	2	Ach Range
ACHOFFSETENABLE	TOGGLE	F	Ach Offset Enable
ACHOFFSET	QUANT	0	Ach Offset (V)
ACHFILTER	IQUANT	3	Ach Filter
IERANGELOWERLIMIT	IQUANT	2	I/E Range Lower Limit
IERANGEMODE	TOGGLE	F	I/E AutoRange
IERANGE	IQUANT	11	I/E Range
POSFEEDENABLE	TOGGLE	F	Positive Feedback IR Comp
POSFEEDRESISTANCE	QUANT	0	Positive Feedback Resistance (ohm)
ACHSELECT	IQUANT	0	Ach Select
CABLEID	IQUANT	13	Cable ID
DCCALDATE	LABEL	7/31/2020	DC Calibration Date
ACCALDATE	LABEL	7/31/2020	AC Calibration Date
THERMOSELECT	IQUANT	1	Thermo Select
FRAMEWORKVERSION	QUANT	6.33	Framework Version
INSTRUMENTVERSION	LABEL	3.50	Instrument Version
COMPLIANCEVOLTAGE	IQUANT	0	Compliance Voltage
ZCURVE	TABLE
	Pt	Time	Freq	Zreal	Zimag	Zsig	Zmod	Zphz	Idc	Vdc	IERange
	#	s	Hz	ohm	ohm	V	ohm	°	A	V	#
	0	8	300046.9	13.51998	-0.5133899	1	13.52973	-2.174629	0.0002396	-0.0012853	10
	1	11	238359.4	13.66483	-0.6793659	1	13.6817	-2.846196	9.207195E-005	0.0008374	10
	2	15	189328.1	13.72184	-0.7451775	1	13.74206	-3.108448	-0.0004717	0.0012592	10
	3	17	150421.9	13.83622	-0.8044968	1	13.85959	-3.327674	0.0002856	-0.0009591	10
	4	20	119484.4	13.63413	-0.7202116	1	13.65314	-3.023791	-0.0004352	0.0012697	10
	5	22	94921.88	13.47343	-0.6190837	1	13.48765	-2.630804	0.000177	0.0003685	10
	6	25	75421.88	13.31881	-0.5660887	1	13.33084	-2.433774	-2.481511E-005	0.0010098	10
	7	27	59859.37	13.19681	-0.5266149	1	13.20731	-2.285159	7.531193E-005	0.0002246	10
	8	30	47578.12	13.10709	-0.5029179	1	13.11674	-2.197356	-2.015571E-005	0.0010175	10
	9	32	37828.12	12.92787	-0.4855509	1	12.93698	-2.150931	-7.60004E-005	0.0010994	10
	10	35	30046.88	12.79419	-0.4923054	1	12.80365	-2.203588	-2.757502E-005	0.0010255	10
	11	37	23859.38	12.5953	-0.5167683	1	12.60589	-2.349452	0.0001702	0.0002265	10
	12	40	18984.38	12.36699	-0.5665926	1	12.37996	-2.623168	0.0001685	0.0002362	10
	13	42	15046.87	12.24091	-0.6509095	1	12.2582	-3.043833	7.592086E-005	0.000297	10
	14	44	11953.13	12.16895	-0.7648824	1	12.19297	-3.596608	0.0001594	0.0003965	10
	15	47	9515.62	12.03135	-0.9122318	1	12.06589	-4.335939	0.0001486	0.0002326	10
	16	49	7546.875	11.95065	-1.108192	1	12.00192	-5.297925	0.0001103	0.0002844	10
	17	51	5928.309	11.86302	-1.359998	1	11.94072	-6.539939	2.881844E-005	0.0008349	10
	18	54	4733.456	11.83235	-1.652919	1	11.94725	-7.952462	-0.0001602	0.000898	10
	19	56	3796.875	11.83453	-2.017803	1	12.00532	-9.67596	-2.590133E-005	0.0009726	10
	20	58	2987.132	11.84945	-2.490351	1	12.10832	-11.86888	-8.095546E-005	0.0006261	10
	21	60	2390.625	11.88513	-3.040627	1	12.26792	-14.35044	-0.0001501	0.0008904	10
	22	63	1884.191	11.9636	-3.769899	1	12.54352	-17.49038	0.0001646	0.0003145	10
	23	65	1516.544	12.03336	-4.592192	1	12.87983	-20.88794	1.750217E-005	0.0008415	10
	24	67	1193.986	12.1581	-5.699286	1	13.42763	-25.11551	6.850142E-005	0.0003618	10
	25	70	946.5144	12.33279	-7.031287	1	14.19636	-29.68874	6.37453E-005	0.0003609	10
	26	72	751.7689	12.55377	-8.656614	1	15.24907	-34.58871	0.0001572	0.0003303	10
	27	75	597.4265	12.86487	-10.67527	1	16.71725	-39.68588	-0.0001486	0.000952	10
	28	77	477.4305	13.29173	-13.06297	1	18.63629	-44.50267	-4.71534E-007	0.0006819	10
	29	79	376.6741	13.87884	-16.16141	1	21.30289	-49.3452	-1.382555E-007	0.0006746	10
	30	81	298.2954	14.6397	-19.90639	1	24.71003	-53.66823	-4.533678E-007	0.0006789	10
	31	84	237.7717	15.59071	-24.35389	1	28.91681	-57.37372	-7.442387E-007	0.0006772	10
	32	86	189.0121	16.86074	-29.82157	1	34.258	-60.51673	-2.605516E-007	0.0006811	10
	33	89	150.2404	18.49054	-36.45974	1	40.88047	-63.10818	-4.144579E-007	0.0006818	10
	34	91	119.1737	20.57054	-44.52736	1	49.04929	-65.20422	1.274273E-006	7.454645E-005	9
	35	93	95.0169	23.17838	-54.09431	1	58.85093	-66.80579	1.125795E-006	7.55492E-005	9
	36	96	75.60484	26.50252	-65.69698	1	70.8412	-68.03059	1.105772E-006	8.288371E-005	9
	37	98	54.50582	32.70909	-86.39278	1	92.37747	-69.26288	1.229353E-006	7.182176E-005	9
	38	101	45.95588	36.79854	-99.5556	1	106.1388	-69.71427	1.320908E-006	7.451721E-005	9
	39	103	37.20238	42.73243	-118.4298	1	125.9034	-70.15929	1.323001E-006	7.811065E-005	9
	40	106	30.04808	49.87439	-140.9806	1	149.5425	-70.51786	1.426994E-006	7.136652E-005	9
	41	108	23.91582	58.97525	-169.6702	1	179.6275	-70.83318	1.378326E-006	7.488439E-005	9
	42	111	18.60119	70.99739	-207.7742	1	219.5694	-71.13447	1.132095E-006	8.006408E-005	9
	43	113	15.02404	82.95712	-246.7729	1	260.3435	-71.41901	1.297449E-006	8.359232E-005	9
	44	115	12.01923	97.6842	-295.4366	1	311.1671	-71.70386	1.360617E-006	8.0754E-005	9
	45	118	9.450605	115.9772	-358.9218	1	377.1944	-72.09298	1.4428E-006	7.29934E-005	9
	46	120	7.512019	135.5979	-430.9066	1	451.7381	-72.53223	6.008584E-007	0.0006558	8
	47	123	5.978954	158.7898	-519.4725	1	543.1996	-73.00291	6.224087E-007	0.0006583	8
	48	126	4.734848	185.8663	-630.9513	1	657.7582	-73.58602	5.177974E-007	0.000644	8
	49	129	3.75601	217.6613	-766.2452	1	796.5602	-74.14216	6.489805E-007	0.0006842	8
	50	133	3.004808	253.195	-926.1291	1	960.116	-74.70951	5.791301E-007	0.0006566	8
	51	136	2.372217	300.3082	-1134.645	1	1173.714	-75.17536	5.384444E-007	0.0006013	8
	52	141	1.878005	354.0747	-1393.869	1	1438.138	-75.74702	6.10187E-007	0.00066	8
	53	145	1.512097	415.1667	-1683.637	1	1734.069	-76.14783	5.50455E-007	0.0006604	8
	54	151	1.201923	500.2026	-2071.334	1	2130.875	-76.42368	5.968428E-007	0.0006755	8
	55	157	0.956633	607.58	-2540.099	1	2611.753	-76.54786	5.159E-007	1.190841E-005	8
