EXPLAIN
TAG	EISPOT
TITLE	LABEL	Potentiostatic EIS	Test Identifier
DATE	LABEL	8/4/2020	Date
TIME	LABEL	0:15:45	Time
NOTES	NOTES	1	Notes...
	
PSTAT	PSTAT	REF3000-16137	Potentiostat
VDC	POTEN	0.00000E+000	T	DC Voltage (V)
FREQINIT	QUANT	3.00000E+005	Initial Freq. (Hz)
FREQFINAL	QUANT	1.00000E+000	Final Freq. (Hz)
PTSPERDEC	QUANT	1.00000E+001	Points/decade
VAC	QUANT	5.00000E+001	AC Voltage (mV rms)
AREA	QUANT	1.00000E+000	Sample Area (cm^2)
SPEED	SELECTOR	2	Optimize for:
ZGUESS	QUANT	1.00000E+003	Estimated Z (ohms)
EOC	QUANT	0	Open Circuit (V)
SEQUENCER	TOGGLE	TRUE	Run as Sequence
PSTATMODEL	IQUANT	5	Pstat Model
PSTATSECTION	LABEL	REF3000-16137	Pstat Section
PSTATSERIALNO	LABEL	16137	Pstat Serial Number
CTRLMODE	IQUANT	1	Control Mode
IESTAB	IQUANT	0	I/E Stability
CASPEED	IQUANT	1	Control Amp Speed
CONVENTION	IQUANT	1	Current Convention
ICHRANGE	IQUANT	2	Ich Range
ICHRANGEMODE	TOGGLE	F	Ich Auto Range
ICHOFFSETENABLE	TOGGLE	T	Ich Offset Enable
ICHOFFSET	QUANT	0	Ich Offset (V)
ICHFILTER	IQUANT	3	Ich Filter
VCHRANGE	IQUANT	2	Vch Range
VCHRANGEMODE	TOGGLE	F	Vch Auto Range
VCHOFFSETENABLE	TOGGLE	T	Vch Offset Enable
VCHOFFSET	QUANT	0	Vch Offset (V)
VCHFILTER	IQUANT	3	Vch Filter
ACHRANGE	IQUANT	2	Ach Range
ACHOFFSETENABLE	TOGGLE	F	Ach Offset Enable
ACHOFFSET	QUANT	0	Ach Offset (V)
ACHFILTER	IQUANT	3	Ach Filter
IERANGELOWERLIMIT	IQUANT	2	I/E Range Lower Limit
IERANGEMODE	TOGGLE	F	I/E AutoRange
IERANGE	IQUANT	11	I/E Range
POSFEEDENABLE	TOGGLE	F	Positive Feedback IR Comp
POSFEEDRESISTANCE	QUANT	0	Positive Feedback Resistance (ohm)
ACHSELECT	IQUANT	0	Ach Select
CABLEID	IQUANT	13	Cable ID
DCCALDATE	LABEL	7/31/2020	DC Calibration Date
ACCALDATE	LABEL	7/31/2020	AC Calibration Date
THERMOSELECT	IQUANT	1	Thermo Select
FRAMEWORKVERSION	QUANT	6.33	Framework Version
INSTRUMENTVERSION	LABEL	3.50	Instrument Version
COMPLIANCEVOLTAGE	IQUANT	0	Compliance Voltage
ZCURVE	TABLE
	Pt	Time	Freq	Zreal	Zimag	Zsig	Zmod	Zphz	Idc	Vdc	IERange
	#	s	Hz	ohm	ohm	V	ohm	°	A	V	#
	0	8	300046.9	9.55647	-2.252315	1	9.8183	-13.26174	-0.0006714	0.0020647	10
	1	11	238359.4	10.16951	-2.628472	1	10.50371	-14.49186	0.0001496	-0.0010963	10
	2	14	189328.1	10.88938	-2.91234	1	11.2721	-14.97319	0.0006228	-0.0014019	10
	3	17	150421.9	11.61766	-3.053671	1	12.01228	-14.72692	0.0003542	-0.0015417	10
	4	19	119484.4	12.30233	-3.041919	1	12.67283	-13.88859	-0.0004427	0.0011953	10
	5	22	94921.88	12.96601	-2.950164	1	13.29741	-12.81831	-7.99493E-005	0.0012584	10
	6	24	75421.88	13.53147	-2.766935	1	13.81147	-11.55661	0.0002483	-6.615984E-005	10
	7	27	59859.37	14.01935	-2.53991	1	14.24757	-10.26899	3.063351E-005	9.179879E-005	10
	8	29	47578.12	14.43353	-2.314233	1	14.61788	-9.109118	-0.0002177	0.0015546	10
	9	32	37828.12	14.77116	-2.089906	1	14.91827	-8.053073	0.0001847	0.000458	10
	10	35	30046.88	15.04288	-1.879491	1	15.15984	-7.121759	3.262166E-005	0.0009776	10
	11	37	23859.38	15.26836	-1.694274	1	15.36208	-6.331998	0.0002181	-0.0001571	10
	12	39	18984.38	15.42443	-1.557934	1	15.5029	-5.767561	-0.0002169	0.0014916	10
	13	42	15046.87	15.56372	-1.466537	1	15.63266	-5.382967	-4.808858E-005	0.001241	10
	14	44	11953.13	15.68941	-1.407003	1	15.75237	-5.124494	0.0002471	-0.0001223	10
	15	46	9515.62	15.79237	-1.420338	1	15.85611	-5.139256	0.0002656	9.480636E-005	10
	16	49	7546.875	15.85225	-1.468627	1	15.92014	-5.29304	-0.0001827	0.0008934	10
	17	51	5928.309	15.95648	-1.59127	1	16.03563	-5.695028	-4.62559E-005	0.0012862	10
	18	53	4733.456	16.04041	-1.782703	1	16.13917	-6.341724	0.000112	-8.711236E-005	10
	19	56	3796.875	16.12513	-2.008782	1	16.24977	-7.101017	0.0001157	0.0007685	10
	20	58	2987.132	16.22608	-2.362723	1	16.3972	-8.284766	-0.0002274	0.0013868	10
	21	60	2390.625	16.34956	-2.791458	1	16.58615	-9.68902	-0.0002141	0.0015593	10
	22	63	1884.191	16.46852	-3.381953	1	16.81219	-11.60484	-0.0001164	0.0006151	10
	23	65	1516.544	16.69232	-4.052448	1	17.17719	-13.64588	0.0002232	0.0001837	10
	24	67	1193.986	16.89946	-4.948612	1	17.6091	-16.32144	-0.0002288	0.0014079	10
	25	70	946.5144	17.17906	-6.03323	1	18.20769	-19.35111	0.0000987	-7.312831E-005	10
	26	72	751.7689	17.51698	-7.38419	1	19.00975	-22.8576	-0.0001886	0.0009121	10
	27	74	597.4265	17.91439	-8.979524	1	20.03889	-26.62216	2.965672E-005	0.0000956	10
	28	77	477.4305	18.435	-10.89907	1	21.41586	-30.59225	4.364837E-006	0.0006202	10
	29	79	376.6741	19.1067	-13.35698	1	23.31255	-34.95636	3.312989E-007	0.0006734	10
	30	81	298.2954	19.93456	-16.29515	1	25.7472	-39.26368	6.698105E-007	0.0006775	10
	31	84	237.7717	20.95245	-19.74077	1	28.7872	-43.29446	6.150259E-007	0.0006783	10
	32	86	189.0121	22.2313	-23.92402	1	32.65868	-47.10035	3.766078E-007	0.0006797	10
	33	88	150.2404	23.75594	-28.94145	1	37.44266	-50.61991	1.648635E-007	0.0006712	10
	34	91	119.1737	25.60529	-34.97548	1	43.34646	-53.79242	1.852642E-006	7.086495E-005	9
	35	93	95.0169	27.85608	-42.08018	1	50.46486	-56.49639	1.64182E-006	7.620213E-005	9
	36	96	75.60484	30.52487	-50.66634	1	59.15105	-58.93237	1.771185E-006	7.339982E-005	9
	37	98	54.50582	35.26048	-65.99632	1	74.82524	-61.88532	2.146956E-006	1.258407E-005	9
	38	101	45.95588	38.23977	-75.7804	1	84.88197	-63.2239	1.760951E-006	7.336889E-005	9
	39	103	37.20238	42.51571	-89.89934	1	99.4458	-64.68933	1.802159E-006	7.419483E-005	9
	40	106	30.04808	47.4464	-106.8999	1	116.9562	-66.06647	2.184552E-006	1.76169E-005	9
	41	108	23.91582	53.62769	-128.6862	1	139.4133	-67.37694	1.877972E-006	7.204055E-005	9
	42	110	18.60119	61.651	-158.1161	1	169.7102	-68.69871	1.890627E-006	8.045448E-005	9
	43	113	15.02404	69.70286	-188.575	1	201.0448	-69.71421	2.010671E-006	9.027193E-005	9
	44	115	12.01923	79.53323	-227.1192	1	240.6422	-70.70063	1.424652E-006	8.455619E-005	9
	45	117	9.450605	92.15159	-278.0872	1	292.958	-71.66602	1.833561E-006	8.870641E-005	9
	46	120	7.512019	107.1134	-338.2135	1	354.7699	-72.42682	1.687277E-006	8.055199E-005	9
	47	123	5.978954	124.848	-409.5561	1	428.1626	-73.04682	1.092543E-006	0.0006624	8
	48	126	4.734848	148.7969	-501.2574	1	522.8761	-73.46662	1.163501E-006	0.000647	8
	49	129	3.75601	179.3019	-613.272	1	638.9457	-73.70271	1.142904E-006	0.0006557	8
	50	132	3.004808	218.0791	-744.2819	1	775.5733	-73.66909	1.280202E-006	0.0006166	8
	51	136	2.372217	272.7862	-912.8466	1	952.734	-73.36227	1.184044E-006	0.0006109	8
	52	140	1.878005	348.2985	-1115.921	1	1169.013	-72.66593	1.169036E-006	0.0006573	8
	53	145	1.512097	442.6025	-1338.453	1	1409.736	-71.70188	1.176201E-006	0.00055	8
	54	150	1.201923	574.8759	-1617.487	1	1716.609	-70.43413	1.160498E-006	0.0006772	8
	55	157	0.956633	748.8637	-1939.52	1	2079.071	-68.88805	1.06526E-006	1.074271E-005	8
