EXPLAIN
TAG	EISPOT
TITLE	LABEL	Potentiostatic EIS	Test Identifier
DATE	LABEL	9/11/2020	Date
TIME	LABEL	22:10:14	Time
NOTES	NOTES	1	Notes...
	
PSTAT	PSTAT	REF3000-16137	Potentiostat
VDC	POTEN	0.00000E+000	T	DC Voltage (V)
FREQINIT	QUANT	3.00000E+005	Initial Freq. (Hz)
FREQFINAL	QUANT	1.00000E+000	Final Freq. (Hz)
PTSPERDEC	QUANT	1.00000E+001	Points/decade
VAC	QUANT	5.00000E+001	AC Voltage (mV rms)
AREA	QUANT	1.00000E+000	Sample Area (cm^2)
SPEED	SELECTOR	2	Optimize for:
ZGUESS	QUANT	1.00000E+003	Estimated Z (ohms)
EOC	QUANT	0	Open Circuit (V)
SEQUENCER	TOGGLE	TRUE	Run as Sequence
PSTATMODEL	IQUANT	5	Pstat Model
PSTATSECTION	LABEL	REF3000-16137	Pstat Section
PSTATSERIALNO	LABEL	16137	Pstat Serial Number
CTRLMODE	IQUANT	1	Control Mode
IESTAB	IQUANT	0	I/E Stability
CASPEED	IQUANT	1	Control Amp Speed
CONVENTION	IQUANT	1	Current Convention
ICHRANGE	IQUANT	2	Ich Range
ICHRANGEMODE	TOGGLE	F	Ich Auto Range
ICHOFFSETENABLE	TOGGLE	T	Ich Offset Enable
ICHOFFSET	QUANT	0	Ich Offset (V)
ICHFILTER	IQUANT	3	Ich Filter
VCHRANGE	IQUANT	2	Vch Range
VCHRANGEMODE	TOGGLE	F	Vch Auto Range
VCHOFFSETENABLE	TOGGLE	T	Vch Offset Enable
VCHOFFSET	QUANT	0	Vch Offset (V)
VCHFILTER	IQUANT	3	Vch Filter
ACHRANGE	IQUANT	2	Ach Range
ACHOFFSETENABLE	TOGGLE	F	Ach Offset Enable
ACHOFFSET	QUANT	0	Ach Offset (V)
ACHFILTER	IQUANT	3	Ach Filter
IERANGELOWERLIMIT	IQUANT	2	I/E Range Lower Limit
IERANGEMODE	TOGGLE	F	I/E AutoRange
IERANGE	IQUANT	11	I/E Range
POSFEEDENABLE	TOGGLE	F	Positive Feedback IR Comp
POSFEEDRESISTANCE	QUANT	0	Positive Feedback Resistance (ohm)
ACHSELECT	IQUANT	0	Ach Select
CABLEID	IQUANT	13	Cable ID
DCCALDATE	LABEL	7/31/2020	DC Calibration Date
ACCALDATE	LABEL	7/31/2020	AC Calibration Date
THERMOSELECT	IQUANT	1	Thermo Select
FRAMEWORKVERSION	QUANT	6.33	Framework Version
INSTRUMENTVERSION	LABEL	3.50	Instrument Version
COMPLIANCEVOLTAGE	IQUANT	0	Compliance Voltage
ZCURVE	TABLE
	Pt	Time	Freq	Zreal	Zimag	Zsig	Zmod	Zphz	Idc	Vdc	IERange
	#	s	Hz	ohm	ohm	V	ohm	°	A	V	#
	0	7	300046.9	35.33104	2.481013	1	35.41805	4.016824	5.242818E-005	-0.0023745	9
	1	10	238359.4	35.61988	1.274421	1	35.64267	2.049076	-0.0001067	-4.758218E-005	10
	2	14	189328.1	35.75756	1.002039	1	35.7716	1.605187	-2.278637E-005	0.000459	10
	3	16	150421.9	35.84416	1.156239	1	35.8628	1.847571	2.259663E-005	1.396887E-005	9
	4	19	119484.4	35.96898	0.8996382	1	35.98023	1.432755	3.385492E-006	-0.0008942	9
	5	22	94921.88	36.12268	0.8026451	1	36.13159	1.272902	-1.346927E-005	0.0002974	9
	6	24	75421.88	36.23173	0.5882773	1	36.23651	0.9302024	-5.299768E-006	-5.992272E-005	9
	7	27	59859.37	36.34842	0.4091078	1	36.35072	0.6448469	2.007094E-005	-0.0005166	9
	8	29	47578.12	36.46709	0.2469987	1	36.46793	0.3880695	3.500219E-006	0.0001516	9
	9	32	37828.12	36.60052	0.1040502	1	36.60067	0.1628834	8.939306E-006	-0.000443	9
	10	34	30046.88	36.72918	-0.0295001	1	36.72919	-0.0460188	-1.340392E-005	0.0004701	9
	11	37	23859.38	36.86481	-0.1593273	1	36.86515	-0.247627	-1.274955E-005	0.0005501	9
	12	39	18984.38	36.9889	-0.2920915	1	36.99005	-0.4524401	-1.290923E-005	0.0005421	9
	13	41	15046.87	37.12557	-0.4293246	1	37.12806	-0.6625458	2.72458E-006	-0.0002497	9
	14	44	11953.13	37.24986	-0.6000884	1	37.25469	-0.9229447	1.896123E-005	-0.0004188	9
	15	46	9515.62	37.38466	-0.7831604	1	37.39286	-1.200097	1.753228E-005	-0.0004446	9
	16	48	7546.875	37.51964	-1.001475	1	37.533	-1.528977	-1.368018E-005	0.0003224	9
	17	50	5928.309	37.6651	-1.283624	1	37.68696	-1.95188	9.094141E-006	5.403648E-005	9
	18	53	4733.456	37.81151	-1.609358	1	37.84574	-2.43719	-1.497195E-005	0.0004783	9
	19	55	3796.875	37.97464	-1.990271	1	38.02676	-3.000157	1.831425E-005	-0.0003413	9
	20	57	2987.132	38.13491	-2.526372	1	38.2185	-3.790208	1.418404E-005	-0.000137	9
	21	60	2390.625	38.30612	-3.118427	1	38.43284	-4.654076	-1.47358E-005	0.0005224	9
	22	62	1884.191	38.50814	-3.917627	1	38.70691	-5.809001	8.896815E-006	-0.0004241	9
	23	64	1516.544	38.70742	-4.804984	1	39.00452	-7.076268	9.415135E-006	4.536458E-005	9
	24	67	1193.986	38.94134	-6.034157	1	39.40607	-8.808218	-1.329611E-005	0.0003484	9
	25	69	946.5144	39.22254	-7.51507	1	39.936	-10.84646	1.44152E-005	-0.0001646	9
	26	71	751.7689	39.52809	-9.333784	1	40.61514	-13.28591	-7.585595E-006	4.437925E-005	9
	27	74	597.4265	39.8827	-11.61945	1	41.54084	-16.24298	-2.752154E-006	0.0004238	9
	28	76	477.4305	40.30378	-14.35058	1	42.7824	-19.5988	1.501767E-006	4.824584E-005	9
	29	78	376.6741	40.83759	-17.93821	1	44.60368	-23.71384	1.452555E-006	4.751641E-005	9
	30	81	298.2954	41.49001	-22.33128	1	47.11801	-28.29059	1.464451E-006	4.718661E-005	9
	31	83	237.7717	42.28798	-27.61184	1	50.50432	-33.14244	1.444395E-006	4.587346E-005	9
	32	86	189.0121	43.30074	-34.1999	1	55.17778	-38.30247	1.358636E-006	4.884344E-005	9
	33	88	150.2404	44.58087	-42.32421	1	61.47189	-43.51254	1.321663E-006	4.722563E-005	9
	34	90	119.1737	46.22278	-52.43033	1	69.89625	-48.60048	1.393403E-006	4.826755E-005	9
	35	93	95.0169	48.27002	-64.57055	1	80.61855	-53.21988	1.39072E-006	5.110775E-005	9
	36	95	75.60484	50.89681	-79.58579	1	94.46896	-57.40022	1.356689E-006	4.947833E-005	9
	37	98	54.50582	55.88028	-107.1208	1	120.82	-62.4509	1.322704E-006	4.49179E-005	9
	38	100	45.95588	59.29165	-124.9807	1	138.3318	-64.62005	1.395356E-006	5.191593E-005	9
	39	103	37.20238	64.38232	-151.0898	1	164.2353	-66.9202	1.342723E-006	5.183212E-005	9
	40	105	30.04808	70.73735	-182.899	1	196.1016	-68.85571	1.297969E-006	5.947816E-005	9
	41	107	23.91582	79.19447	-224.0619	1	237.6457	-70.53409	1.295209E-006	4.48691E-005	9
	42	110	18.60119	90.89394	-279.9362	1	294.3229	-72.01163	1.412033E-006	4.740835E-005	9
	43	112	15.02404	103.3249	-337.9383	1	353.3812	-72.99895	1.342077E-006	5.331962E-005	9
	44	114	12.01923	119.0991	-409.6313	1	426.5939	-73.78837	5.883205E-007	0.0006321	8
	45	117	9.450605	140.9189	-505.9732	1	525.2305	-74.43692	5.731657E-007	0.0006254	8
	46	119	7.512019	167.2124	-618.27	1	640.4825	-74.86629	5.26243E-007	0.0006484	8
	47	122	5.978954	200.5969	-754.3599	1	780.5754	-75.1087	3.988416E-007	0.0006337	8
	48	125	4.734848	243.9581	-924.2978	1	955.951	-75.2146	5.092987E-007	0.0006433	8
	49	128	3.75601	299.0132	-1128.001	1	1166.96	-75.15336	4.272099E-007	0.0006271	8
	50	132	3.004808	366.1469	-1363.759	1	1412.056	-74.97144	5.120024E-007	0.0005936	8
	51	135	2.372217	455.8308	-1665.367	1	1726.624	-74.69238	4.623078E-007	0.000564	8
	52	140	1.878005	569.7911	-2022.744	1	2101.465	-74.26789	4.730007E-007	0.0006319	8
	53	144	1.512097	699.5963	-2413.91	1	2513.244	-73.83742	4.578071E-007	0.0005447	8
	54	150	1.201923	863.3542	-2915.802	1	3040.934	-73.50624	4.698609E-007	0.0006541	8
	55	156	0.956633	1058.844	-3505.533	1	3661.955	-73.19308	4.459592E-007	-1.528268E-005	8
