EXPLAIN
TAG	EISPOT
TITLE	LABEL	Potentiostatic EIS	Test Identifier
DATE	LABEL	9/11/2020	Date
TIME	LABEL	22:32:43	Time
NOTES	NOTES	1	Notes...
	
PSTAT	PSTAT	REF3000-16137	Potentiostat
VDC	POTEN	0.00000E+000	T	DC Voltage (V)
FREQINIT	QUANT	3.00000E+005	Initial Freq. (Hz)
FREQFINAL	QUANT	1.00000E+000	Final Freq. (Hz)
PTSPERDEC	QUANT	1.00000E+001	Points/decade
VAC	QUANT	5.00000E+001	AC Voltage (mV rms)
AREA	QUANT	1.00000E+000	Sample Area (cm^2)
SPEED	SELECTOR	2	Optimize for:
ZGUESS	QUANT	1.00000E+003	Estimated Z (ohms)
EOC	QUANT	0	Open Circuit (V)
SEQUENCER	TOGGLE	TRUE	Run as Sequence
PSTATMODEL	IQUANT	5	Pstat Model
PSTATSECTION	LABEL	REF3000-16137	Pstat Section
PSTATSERIALNO	LABEL	16137	Pstat Serial Number
CTRLMODE	IQUANT	1	Control Mode
IESTAB	IQUANT	0	I/E Stability
CASPEED	IQUANT	1	Control Amp Speed
CONVENTION	IQUANT	1	Current Convention
ICHRANGE	IQUANT	2	Ich Range
ICHRANGEMODE	TOGGLE	F	Ich Auto Range
ICHOFFSETENABLE	TOGGLE	T	Ich Offset Enable
ICHOFFSET	QUANT	0	Ich Offset (V)
ICHFILTER	IQUANT	3	Ich Filter
VCHRANGE	IQUANT	2	Vch Range
VCHRANGEMODE	TOGGLE	F	Vch Auto Range
VCHOFFSETENABLE	TOGGLE	T	Vch Offset Enable
VCHOFFSET	QUANT	0	Vch Offset (V)
VCHFILTER	IQUANT	3	Vch Filter
ACHRANGE	IQUANT	2	Ach Range
ACHOFFSETENABLE	TOGGLE	F	Ach Offset Enable
ACHOFFSET	QUANT	0	Ach Offset (V)
ACHFILTER	IQUANT	3	Ach Filter
IERANGELOWERLIMIT	IQUANT	2	I/E Range Lower Limit
IERANGEMODE	TOGGLE	F	I/E AutoRange
IERANGE	IQUANT	11	I/E Range
POSFEEDENABLE	TOGGLE	F	Positive Feedback IR Comp
POSFEEDRESISTANCE	QUANT	0	Positive Feedback Resistance (ohm)
ACHSELECT	IQUANT	0	Ach Select
CABLEID	IQUANT	13	Cable ID
DCCALDATE	LABEL	7/31/2020	DC Calibration Date
ACCALDATE	LABEL	7/31/2020	AC Calibration Date
THERMOSELECT	IQUANT	1	Thermo Select
FRAMEWORKVERSION	QUANT	6.33	Framework Version
INSTRUMENTVERSION	LABEL	3.50	Instrument Version
COMPLIANCEVOLTAGE	IQUANT	0	Compliance Voltage
ZCURVE	TABLE
	Pt	Time	Freq	Zreal	Zimag	Zsig	Zmod	Zphz	Idc	Vdc	IERange
	#	s	Hz	ohm	ohm	V	ohm	°	A	V	#
	0	17	300046.9	416.9911	-41.19481	1	419.021	-5.641978	-1.609841E-005	0.0014756	9
	1	23	238359.4	429.007	-35.14702	1	430.4443	-4.68358	-8.164178E-005	0.003663	9
	2	34	189328.1	438.8827	-31.11961	1	439.9846	-4.055852	-8.752572E-005	0.0021843	9
	3	40	150421.9	447.7327	-26.45009	1	448.5133	-3.380855	4.984369E-005	-2.433845E-005	9
	4	47	119484.4	455.3398	-22.37213	1	455.8891	-2.812841	2.49582E-005	-0.0017704	9
	5	55	94921.88	461.9073	-4.597995	1	461.9302	-0.5703244	8.886759E-007	0.0040857	8
	6	57	75421.88	464.5149	-5.207667	1	464.5441	-0.6423149	1.174173E-005	-0.0008709	8
	7	60	59859.37	467.0364	-4.115983	1	467.0546	-0.5049335	1.560628E-005	-0.0033966	8
	8	62	47578.12	470.3047	-3.477717	1	470.3175	-0.4236719	1.196486E-005	-0.0040757	8
	9	65	37828.12	473.3469	-4.021092	1	473.364	-0.4867172	-4.02376E-006	0.0053966	8
	10	67	30046.88	476.337	-2.869828	1	476.3456	-0.3451906	-9.703701E-006	0.0006785	8
	11	70	23859.38	478.714	-2.373089	1	478.7199	-0.2840253	-1.323723E-005	0.0027557	8
	12	72	18984.38	482.1379	-2.940185	1	482.1469	-0.3493981	-1.450118E-005	0.0039803	8
	13	75	15046.87	484.4824	-3.038287	1	484.4919	-0.3593087	-1.560885E-005	0.0046887	8
	14	77	11953.13	487.3423	-2.032192	1	487.3465	-0.238919	7.258061E-006	0.0018138	8
	15	79	9515.62	490.5307	-2.463407	1	490.5369	-0.2877325	2.829339E-006	-0.00381	8
	16	81	7546.875	493.9009	-3.559282	1	493.9137	-0.4128931	-1.350766E-005	0.0066812	8
	17	84	5928.309	496.9247	-1.253375	1	496.9263	-0.1445147	1.599938E-005	-0.0033524	8
	18	86	4733.456	501.1185	-2.284611	1	501.1237	-0.2612109	-1.518807E-005	0.0050638	8
	19	88	3796.875	503.3856	-4.003821	1	503.4015	-0.4557087	-1.265375E-005	0.0064953	8
	20	91	2987.132	505.6447	-3.236503	1	505.655	-0.3667307	2.9274E-006	-0.003822	8
	21	93	2390.625	508.8907	-4.984714	1	508.9151	-0.5612087	-5.081395E-006	0.0058163	8
	22	95	1884.191	514.4236	-4.377094	1	514.4423	-0.4875028	-1.131323E-005	0.0014791	8
	23	98	1516.544	515.3871	-5.879441	1	515.4206	-0.6535913	-1.13877E-005	0.0015056	8
	24	100	1193.986	518.6479	-8.731374	1	518.7214	-0.964476	1.506449E-005	-0.005301	8
	25	102	946.5144	519.6052	-10.60375	1	519.7134	-1.169091	-1.144554E-005	0.0015391	8
	26	105	751.7689	525.2519	-12.40955	1	525.3984	-1.353413	1.55778E-005	-0.0023327	8
	27	107	597.4265	527.0005	-14.32884	1	527.1953	-1.557456	1.237784E-005	-0.0054855	8
	28	110	477.4305	531.7568	-18.14073	1	532.0661	-1.953872	-1.463118E-007	0.0006339	8
	29	112	376.6741	535.3506	-22.55091	1	535.8254	-2.41208	-1.628214E-007	0.0006723	8
	30	114	298.2954	539.0366	-28.0396	1	539.7653	-2.977727	-9.973547E-008	0.0006094	8
	31	117	237.7717	542.9724	-34.66737	1	544.078	-3.653228	-9.705899E-008	0.0006067	8
	32	119	189.0121	547.0828	-42.98547	1	548.769	-4.492622	-1.746254E-007	0.0006776	8
	33	122	150.2404	551.4217	-53.33664	1	553.9952	-5.524787	-1.358853E-007	0.0006273	8
	34	124	119.1737	556.0428	-66.32104	1	559.9841	-6.801721	-1.594216E-007	0.0006322	8
	35	126	95.0169	561.0322	-82.07197	1	567.0035	-8.322619	-1.052615E-007	0.0006107	8
	36	129	75.60484	566.6309	-101.7601	1	575.6959	-10.1811	-1.313561E-007	0.0006304	8
	37	131	54.50582	574.1255	-138.4438	1	590.5817	-13.5574	-1.180772E-007	0.0006208	8
	38	134	45.95588	580.244	-162.5481	1	602.582	-15.64955	-1.226531E-007	0.0006149	8
	39	136	37.20238	587.5834	-198.2832	1	620.1375	-18.64725	-1.413566E-007	0.0006117	8
	40	139	30.04808	596.2942	-242.3298	1	643.6541	-22.11648	-1.677894E-007	0.0006217	8
	41	141	23.91582	606.9291	-300.0009	1	677.0255	-26.30287	-1.130521E-007	0.0006283	8
	42	143	18.60119	620.5464	-379.5272	1	727.4055	-31.45002	-2.618448E-007	0.0006346	8
	43	146	15.02404	635.5873	-462.7667	1	786.2088	-36.0581	-3.254003E-008	0.0006304	8
	44	148	12.01923	654.3809	-568.7034	1	866.9705	-40.99295	-1.645342E-007	0.0006085	8
	45	150	9.450605	679.5941	-710.251	1	983.008	-46.26361	-1.727688E-007	0.0006311	8
	46	153	7.512019	710.3749	-876.5851	1	1128.288	-50.97908	-1.86862E-007	0.0006357	8
	47	156	5.978954	748.4191	-1079.994	1	1313.97	-55.27863	-1.735129E-007	0.0006299	8
	48	159	4.734848	797.5028	-1335.513	1	1555.508	-59.15642	-1.855795E-007	0.0006121	8
	49	162	3.75601	859.8327	-1646.979	1	1857.916	-62.43244	-7.466933E-008	0.0006403	8
	50	165	3.004808	934.79	-2012.174	1	2218.711	-65.08197	-1.497095E-007	0.0006332	8
	51	169	2.372217	1035.301	-2483.094	1	2690.28	-67.3668	-1.469999E-007	0.0006043	8
	52	173	1.878005	1161.58	-3065.888	1	3278.557	-69.24969	-1.17241E-007	0.0006125	8
	53	178	1.512097	1300.203	-3716.286	1	3937.17	-70.71678	-1.461311E-007	0.000701	8
	54	183	1.201923	1496.828	-4568.981	1	4807.919	-71.86086	-1.489543E-008	0.0005999	7
	55	190	0.956633	1726.183	-5589.208	1	5849.697	-72.8371	-5.356169E-008	-3.96732E-005	7
