EXPLAIN
TAG	EISPOT
TITLE	LABEL	Potentiostatic EIS	Test Identifier
DATE	LABEL	9/11/2020	Date
TIME	LABEL	22:48:44	Time
NOTES	NOTES	1	Notes...
	
PSTAT	PSTAT	REF3000-16137	Potentiostat
VDC	POTEN	0.00000E+000	T	DC Voltage (V)
FREQINIT	QUANT	3.00000E+005	Initial Freq. (Hz)
FREQFINAL	QUANT	1.00000E+000	Final Freq. (Hz)
PTSPERDEC	QUANT	1.00000E+001	Points/decade
VAC	QUANT	5.00000E+001	AC Voltage (mV rms)
AREA	QUANT	1.00000E+000	Sample Area (cm^2)
SPEED	SELECTOR	2	Optimize for:
ZGUESS	QUANT	1.00000E+003	Estimated Z (ohms)
EOC	QUANT	0	Open Circuit (V)
SEQUENCER	TOGGLE	TRUE	Run as Sequence
PSTATMODEL	IQUANT	5	Pstat Model
PSTATSECTION	LABEL	REF3000-16137	Pstat Section
PSTATSERIALNO	LABEL	16137	Pstat Serial Number
CTRLMODE	IQUANT	1	Control Mode
IESTAB	IQUANT	0	I/E Stability
CASPEED	IQUANT	1	Control Amp Speed
CONVENTION	IQUANT	1	Current Convention
ICHRANGE	IQUANT	2	Ich Range
ICHRANGEMODE	TOGGLE	F	Ich Auto Range
ICHOFFSETENABLE	TOGGLE	T	Ich Offset Enable
ICHOFFSET	QUANT	0	Ich Offset (V)
ICHFILTER	IQUANT	3	Ich Filter
VCHRANGE	IQUANT	2	Vch Range
VCHRANGEMODE	TOGGLE	F	Vch Auto Range
VCHOFFSETENABLE	TOGGLE	T	Vch Offset Enable
VCHOFFSET	QUANT	0	Vch Offset (V)
VCHFILTER	IQUANT	3	Vch Filter
ACHRANGE	IQUANT	2	Ach Range
ACHOFFSETENABLE	TOGGLE	F	Ach Offset Enable
ACHOFFSET	QUANT	0	Ach Offset (V)
ACHFILTER	IQUANT	3	Ach Filter
IERANGELOWERLIMIT	IQUANT	2	I/E Range Lower Limit
IERANGEMODE	TOGGLE	F	I/E AutoRange
IERANGE	IQUANT	11	I/E Range
POSFEEDENABLE	TOGGLE	F	Positive Feedback IR Comp
POSFEEDRESISTANCE	QUANT	0	Positive Feedback Resistance (ohm)
ACHSELECT	IQUANT	0	Ach Select
CABLEID	IQUANT	13	Cable ID
DCCALDATE	LABEL	7/31/2020	DC Calibration Date
ACCALDATE	LABEL	7/31/2020	AC Calibration Date
THERMOSELECT	IQUANT	1	Thermo Select
FRAMEWORKVERSION	QUANT	6.33	Framework Version
INSTRUMENTVERSION	LABEL	3.50	Instrument Version
COMPLIANCEVOLTAGE	IQUANT	0	Compliance Voltage
ZCURVE	TABLE
	Pt	Time	Freq	Zreal	Zimag	Zsig	Zmod	Zphz	Idc	Vdc	IERange
	#	s	Hz	ohm	ohm	V	ohm	°	A	V	#
	0	14	300046.9	1681.402	-3065.649	1	3496.472	-61.25676	-2.288155E-005	0.0010197	9
	1	28	238359.4	2202.832	-3487.105	1	4124.605	-57.71907	-5.861453E-005	0.0004854	9
	2	47	189328.1	2967.717	-3806.208	1	4826.444	-52.0563	-6.030674E-005	0.0005719	9
	3	55	150421.9	3727.443	-4201.385	1	5616.535	-48.42076	2.011031E-005	-0.0002994	9
	4	64	119484.4	4734.07	-4361.925	1	6437.221	-42.65716	-3.89387E-005	0.0216642	8
	5	71	94921.88	5763.491	-4314.87	1	7199.717	-36.82056	-2.573863E-005	0.0094667	8
	6	79	75421.88	6736.999	-4330.39	1	8008.709	-32.73199	-1.876609E-005	0.0109317	8
	7	88	59859.37	7731.482	-4127.346	1	8764.177	-28.09492	-2.008624E-005	0.0029135	8
	8	96	47578.12	8658.476	-3851.682	1	9476.532	-23.98166	-1.591786E-005	0.0007858	8
	9	105	37828.12	9410.951	-3535.621	1	10053.19	-20.59081	-2.036972E-005	0.0029316	8
	10	113	30046.88	10237.71	-3203.572	1	10727.23	-17.37588	8.807037E-006	0.0037876	8
	11	121	23859.38	11167.47	-2184.814	1	11379.19	-11.06958	-6.71873E-007	-0.0129771	7
	12	125	18984.38	11518.35	-1836.488	1	11663.84	-9.058996	-2.805784E-006	-0.0057296	7
	13	130	15046.87	11858.62	-1564.386	1	11961.36	-7.515051	-3.695571E-006	0.0234405	7
	14	134	11953.13	12172.93	-1346.501	1	12247.17	-6.312077	-4.680895E-006	0.0022903	7
	15	138	9515.62	12429.94	-1113.766	1	12479.74	-5.120229	7.035666E-006	-0.0168201	7
	16	142	7546.875	12722.1	-914.299	1	12754.91	-4.110609	2.234492E-006	0.0089508	7
	17	147	5928.309	12909.98	-784.3831	1	12933.78	-3.476897	-6.086529E-006	0.0234909	7
	18	151	4733.456	13225.29	-655.1927	1	13241.51	-2.836165	-4.752107E-006	0.0024805	7
	19	155	3796.875	13439.1	-528.379	1	13449.48	-2.251513	-2.865181E-006	-0.0056383	7
	20	159	2987.132	13772.34	-364.0506	1	13777.15	-1.514174	1.38519E-006	-0.0188187	7
	21	164	2390.625	13832.12	-261.9904	1	13834.6	-1.085094	-6.874161E-006	0.0213082	7
	22	168	1884.191	14249.19	-347.1564	1	14253.42	-1.395635	5.950866E-006	-0.0085294	7
	23	172	1516.544	14379.47	-275.1877	1	14382.1	-1.096367	-2.929613E-006	-0.0054991	7
	24	176	1193.986	14648.13	-188.5311	1	14649.34	-0.7373937	2.354046E-006	0.0086033	7
	25	181	946.5144	15034.97	-77.25378	1	15035.17	-0.2943987	-1.776782E-006	0.0207113	7
	26	183	751.7689	15168.08	15.88742	1	15168.09	0.060013	-4.660492E-006	0.0022472	7
	27	186	597.4265	15516.8	-17.83098	1	15516.81	-0.0658409	-4.915172E-006	0.0028602	7
	28	189	477.4305	15400.3	-125.1738	1	15400.81	-0.4656903	-9.262347E-008	0.0005647	7
	29	191	376.6741	15546.12	-112.6693	1	15546.53	-0.4152393	-9.826257E-008	0.0005767	7
	30	193	298.2954	15700.87	-108.3089	1	15701.25	-0.3952357	-8.807035E-008	0.0005657	7
	31	196	237.7717	15859.27	-103.2634	1	15859.6	-0.3730608	-8.965599E-008	0.0005674	7
	32	198	189.0121	16015.88	-104.5372	1	16016.22	-0.3739698	-9.957794E-008	0.000643	7
	33	200	150.2404	16181.71	-114.5369	1	16182.11	-0.4055427	-9.34716E-008	0.0006315	7
	34	203	119.1737	16335.62	-132.5492	1	16336.16	-0.4648947	-9.969514E-008	0.0005508	7
	35	205	95.0169	16508.71	-141.2375	1	16509.32	-0.4901726	-8.251286E-008	0.0005664	7
	36	208	75.60484	16690.07	-163.4378	1	16690.87	-0.5610518	-1.009167E-007	0.0005648	7
	37	210	54.50582	16875.15	-213.1336	1	16876.5	-0.7236084	-7.75859E-008	0.0005666	7
	38	213	45.95588	17043.72	-237.1859	1	17045.37	-0.7972951	-7.213123E-008	0.000617	7
	39	215	37.20238	17220.29	-284.136	1	17222.63	-0.9452987	-7.624797E-008	0.000562	7
	40	217	30.04808	17392.24	-342.3227	1	17395.61	-1.127579	-9.634018E-008	0.0005581	7
	41	220	23.91582	17573.84	-422.866	1	17578.93	-1.378399	-1.27702E-007	0.0006241	7
	42	222	18.60119	17758.48	-540.2029	1	17766.7	-1.742368	-1.347492E-007	0.0006214	7
	43	224	15.02404	17952.75	-635.4465	1	17963.99	-2.027166	-4.332651E-008	0.0006454	7
	44	227	12.01923	18119.79	-769.8987	1	18136.13	-2.433	-1.42842E-007	0.0005464	7
	45	229	9.450605	18309.16	-973.653	1	18335.03	-3.044034	-1.735817E-007	0.0006269	7
	46	232	7.512019	18568.39	-1209.368	1	18607.73	-3.726439	-8.39068E-008	0.0005888	7
	47	234	5.978954	18798.54	-1503.242	1	18858.54	-4.571979	-3.611409E-008	0.0005824	7
	48	237	4.734848	19112.6	-1855.219	1	19202.43	-5.544208	-8.339853E-008	0.0006042	7
	49	241	3.75601	19438.76	-2305.665	1	19575.02	-6.76435	-9.518016E-008	0.0006278	7
	50	244	3.004808	19822.35	-2892.099	1	20032.22	-8.300937	-1.401274E-007	0.0006283	7
	51	248	2.372217	20209.27	-3531.854	1	20515.57	-9.91313	-9.549977E-008	0.0006711	7
	52	252	1.878005	20720.54	-4442.708	1	21191.47	-12.10161	-1.199582E-007	0.0005768	7
	53	257	1.512097	21312.03	-5417.735	1	21989.87	-14.26305	-1.164695E-007	0.0006031	7
	54	262	1.201923	21948.86	-6720.41	1	22954.65	-17.0238	-1.01929E-007	0.0005675	7
	55	268	0.956633	22802.57	-8302.986	1	24267.19	-20.00783	-1.119024E-007	-4.503657E-005	7
