EXPLAIN
TAG	EISPOT
TITLE	LABEL	Potentiostatic EIS	Test Identifier
DATE	LABEL	9/11/2020	Date
TIME	LABEL	22:12:59	Time
NOTES	NOTES	1	Notes...
	
PSTAT	PSTAT	REF3000-16137	Potentiostat
VDC	POTEN	0.00000E+000	T	DC Voltage (V)
FREQINIT	QUANT	3.00000E+005	Initial Freq. (Hz)
FREQFINAL	QUANT	1.00000E+000	Final Freq. (Hz)
PTSPERDEC	QUANT	1.00000E+001	Points/decade
VAC	QUANT	5.00000E+001	AC Voltage (mV rms)
AREA	QUANT	1.00000E+000	Sample Area (cm^2)
SPEED	SELECTOR	2	Optimize for:
ZGUESS	QUANT	1.00000E+003	Estimated Z (ohms)
EOC	QUANT	0	Open Circuit (V)
SEQUENCER	TOGGLE	TRUE	Run as Sequence
PSTATMODEL	IQUANT	5	Pstat Model
PSTATSECTION	LABEL	REF3000-16137	Pstat Section
PSTATSERIALNO	LABEL	16137	Pstat Serial Number
CTRLMODE	IQUANT	1	Control Mode
IESTAB	IQUANT	0	I/E Stability
CASPEED	IQUANT	1	Control Amp Speed
CONVENTION	IQUANT	1	Current Convention
ICHRANGE	IQUANT	2	Ich Range
ICHRANGEMODE	TOGGLE	F	Ich Auto Range
ICHOFFSETENABLE	TOGGLE	T	Ich Offset Enable
ICHOFFSET	QUANT	0	Ich Offset (V)
ICHFILTER	IQUANT	3	Ich Filter
VCHRANGE	IQUANT	2	Vch Range
VCHRANGEMODE	TOGGLE	F	Vch Auto Range
VCHOFFSETENABLE	TOGGLE	T	Vch Offset Enable
VCHOFFSET	QUANT	0	Vch Offset (V)
VCHFILTER	IQUANT	3	Vch Filter
ACHRANGE	IQUANT	2	Ach Range
ACHOFFSETENABLE	TOGGLE	F	Ach Offset Enable
ACHOFFSET	QUANT	0	Ach Offset (V)
ACHFILTER	IQUANT	3	Ach Filter
IERANGELOWERLIMIT	IQUANT	2	I/E Range Lower Limit
IERANGEMODE	TOGGLE	F	I/E AutoRange
IERANGE	IQUANT	11	I/E Range
POSFEEDENABLE	TOGGLE	F	Positive Feedback IR Comp
POSFEEDRESISTANCE	QUANT	0	Positive Feedback Resistance (ohm)
ACHSELECT	IQUANT	0	Ach Select
CABLEID	IQUANT	13	Cable ID
DCCALDATE	LABEL	7/31/2020	DC Calibration Date
ACCALDATE	LABEL	7/31/2020	AC Calibration Date
THERMOSELECT	IQUANT	1	Thermo Select
FRAMEWORKVERSION	QUANT	6.33	Framework Version
INSTRUMENTVERSION	LABEL	3.50	Instrument Version
COMPLIANCEVOLTAGE	IQUANT	0	Compliance Voltage
ZCURVE	TABLE
	Pt	Time	Freq	Zreal	Zimag	Zsig	Zmod	Zphz	Idc	Vdc	IERange
	#	s	Hz	ohm	ohm	V	ohm	°	A	V	#
	0	7	300046.9	44.52228	2.426728	1	44.58836	3.119872	-5.929486E-005	0.0010031	9
	1	10	238359.4	44.75321	1.853783	1	44.79158	2.371969	-5.870448E-005	0.0016754	9
	2	13	189328.1	44.94156	1.399954	1	44.96336	1.784217	5.834597E-006	-0.0009097	9
	3	16	150421.9	45.05477	1.11478	1	45.06856	1.417367	-5.604279E-005	0.0020055	9
	4	18	119484.4	45.247	0.8277074	1	45.25457	1.048	-5.650549E-005	0.0015786	9
	5	21	94921.88	45.45551	0.8023551	1	45.46259	1.011248	1.483598E-005	-0.000604	9
	6	23	75421.88	45.61137	0.5875474	1	45.61515	0.7380205	1.561525E-005	-0.000212	9
	7	26	59859.37	45.74625	0.3942765	1	45.74795	0.493807	1.76135E-005	-0.0002954	9
	8	28	47578.12	45.91629	0.2288691	1	45.91687	0.2855875	-8.365952E-006	-9.161857E-006	9
	9	31	37828.12	46.09311	0.0780583	1	46.09318	0.0970298	-8.288966E-006	0.0005864	9
	10	33	30046.88	46.26682	-0.0596917	1	46.26686	-0.0739209	3.784147E-006	-0.0003538	9
	11	36	23859.38	46.44641	-0.1913329	1	46.4468	-0.2360248	1.771189E-005	-0.0002821	9
	12	38	18984.38	46.62144	-0.3157035	1	46.62251	-0.3879802	9.169929E-006	4.284118E-005	9
	13	41	15046.87	46.7785	-0.4487864	1	46.78065	-0.5496709	-1.524613E-005	0.0004299	9
	14	43	11953.13	46.96353	-0.6317918	1	46.96778	-0.7707432	1.782657E-005	-0.00027	9
	15	45	9515.62	47.13575	-0.8082154	1	47.14268	-0.982329	-2.955569E-006	-0.0001544	9
	16	47	7546.875	47.30671	-1.026605	1	47.31785	-1.243183	1.898031E-005	-0.0003464	9
	17	50	5928.309	47.49928	-1.322238	1	47.51768	-1.594532	3.447588E-006	-0.0003302	9
	18	52	4733.456	47.68896	-1.645222	1	47.71733	-1.975864	-9.145995E-006	0.0005968	9
	19	54	3796.875	47.88641	-2.038378	1	47.92978	-2.437434	1.944449E-005	-0.00046	9
	20	57	2987.132	48.09029	-2.578766	1	48.15938	-3.069457	-1.203857E-005	0.0001764	9
	21	59	2390.625	48.32154	-3.192789	1	48.42691	-3.780256	2.521725E-006	0.0002825	9
	22	61	1884.191	48.54007	-4.036145	1	48.70759	-4.753254	9.718021E-006	8.900464E-005	9
	23	64	1516.544	48.8158	-4.93014	1	49.06413	-5.767019	-1.29178E-005	0.000618	9
	24	66	1193.986	49.0864	-6.154819	1	49.47076	-7.146874	1.608611E-005	-0.0001455	9
	25	68	946.5144	49.41025	-7.679936	1	50.00354	-8.834905	-9.80922E-006	0.000578	9
	26	71	751.7689	49.77172	-9.54127	1	50.67801	-10.85198	-1.519554E-005	0.0003956	9
	27	73	597.4265	50.1666	-11.86687	1	51.55104	-13.30864	1.879041E-005	-0.0002704	9
	28	75	477.4305	50.6222	-14.66	1	52.70221	-16.15082	1.372967E-006	5.123187E-005	9
	29	78	376.6741	51.19167	-18.33385	1	54.3757	-19.70455	1.332861E-006	4.974759E-005	9
	30	80	298.2954	51.87672	-22.834	1	56.67967	-23.75712	1.384593E-006	4.420921E-005	9
	31	82	237.7717	52.70517	-28.2518	1	59.79966	-28.19286	1.411596E-006	4.685008E-005	9
	32	85	189.0121	53.74066	-35.01929	1	64.14366	-33.08967	1.297999E-006	5.09918E-005	9
	33	87	150.2404	55.04086	-43.37651	1	70.07866	-38.24088	1.390797E-006	4.867776E-005	9
	34	90	119.1737	56.69661	-53.78256	1	78.14774	-43.48909	1.391938E-006	4.875557E-005	9
	35	92	95.0169	58.75118	-66.30315	1	88.58786	-48.45586	1.331521E-006	5.362447E-005	9
	36	94	75.60484	61.38901	-81.80666	1	102.2787	-53.11486	1.42293E-006	5.044723E-005	9
	37	97	54.50582	66.36654	-110.2933	1	128.7211	-58.96352	1.376022E-006	5.0123E-005	9
	38	100	45.95588	69.81345	-128.7911	1	146.4959	-61.53932	1.383326E-006	4.983774E-005	9
	39	102	37.20238	74.93346	-155.8829	1	172.9581	-64.32625	1.401216E-006	5.767158E-005	9
	40	104	30.04808	81.37048	-188.8763	1	205.6585	-66.69297	1.398546E-006	4.890526E-005	9
	41	107	23.91582	89.91143	-231.6189	1	248.458	-68.78444	1.452071E-006	4.180667E-005	9
	42	109	18.60119	101.7708	-289.651	1	307.0098	-70.64073	1.213845E-006	5.389226E-005	9
	43	111	15.02404	114.4763	-350.0088	1	368.254	-71.88879	1.440285E-006	6.455647E-005	9
	44	114	12.01923	130.2769	-424.3378	1	443.8858	-72.93288	4.185819E-007	0.0006281	8
	45	116	9.450605	152.4013	-524.2975	1	545.9982	-73.79206	3.154713E-007	0.0006228	8
	46	118	7.512019	178.8569	-641.6336	1	666.0957	-74.42406	4.609745E-007	0.0006248	8
	47	121	5.978954	211.8945	-783.066	1	811.2285	-74.8586	4.826604E-007	0.0006292	8
	48	124	4.734848	255.4016	-959.763	1	993.164	-75.09842	4.585802E-007	0.0006536	8
	49	127	3.75601	309.9928	-1173.538	1	1213.79	-75.20316	3.396015E-007	0.0006749	8
	50	131	3.004808	376.2964	-1421.506	1	1470.469	-75.17294	3.879538E-007	0.0006478	8
	51	135	2.372217	468.4739	-1739.391	1	1801.374	-74.9261	4.110373E-007	0.0006906	8
	52	139	1.878005	579.7477	-2122.517	1	2200.269	-74.72279	3.649268E-007	0.0006067	8
	53	143	1.512097	706.5703	-2541.81	1	2638.189	-74.46518	4.099171E-007	0.000561	8
	54	149	1.201923	882.2748	-3078.783	1	3202.704	-74.00949	3.82112E-007	0.000614	8
	55	155	0.956633	1089.566	-3708.214	1	3864.971	-73.62589	3.806382E-007	-1.763666E-005	8
