EXPLAIN
TAG	EISPOT
TITLE	LABEL	Potentiostatic EIS	Test Identifier
DATE	LABEL	9/11/2020	Date
TIME	LABEL	21:14:43	Time
NOTES	NOTES	1	Notes...
	
PSTAT	PSTAT	REF3000-16137	Potentiostat
VDC	POTEN	0.00000E+000	T	DC Voltage (V)
FREQINIT	QUANT	3.00000E+005	Initial Freq. (Hz)
FREQFINAL	QUANT	1.00000E+000	Final Freq. (Hz)
PTSPERDEC	QUANT	1.00000E+001	Points/decade
VAC	QUANT	5.00000E+001	AC Voltage (mV rms)
AREA	QUANT	1.00000E+000	Sample Area (cm^2)
SPEED	SELECTOR	2	Optimize for:
ZGUESS	QUANT	1.00000E+003	Estimated Z (ohms)
EOC	QUANT	0	Open Circuit (V)
SEQUENCER	TOGGLE	TRUE	Run as Sequence
PSTATMODEL	IQUANT	5	Pstat Model
PSTATSECTION	LABEL	REF3000-16137	Pstat Section
PSTATSERIALNO	LABEL	16137	Pstat Serial Number
CTRLMODE	IQUANT	1	Control Mode
IESTAB	IQUANT	0	I/E Stability
CASPEED	IQUANT	1	Control Amp Speed
CONVENTION	IQUANT	1	Current Convention
ICHRANGE	IQUANT	2	Ich Range
ICHRANGEMODE	TOGGLE	F	Ich Auto Range
ICHOFFSETENABLE	TOGGLE	T	Ich Offset Enable
ICHOFFSET	QUANT	0	Ich Offset (V)
ICHFILTER	IQUANT	3	Ich Filter
VCHRANGE	IQUANT	2	Vch Range
VCHRANGEMODE	TOGGLE	F	Vch Auto Range
VCHOFFSETENABLE	TOGGLE	T	Vch Offset Enable
VCHOFFSET	QUANT	0	Vch Offset (V)
VCHFILTER	IQUANT	3	Vch Filter
ACHRANGE	IQUANT	2	Ach Range
ACHOFFSETENABLE	TOGGLE	F	Ach Offset Enable
ACHOFFSET	QUANT	0	Ach Offset (V)
ACHFILTER	IQUANT	3	Ach Filter
IERANGELOWERLIMIT	IQUANT	2	I/E Range Lower Limit
IERANGEMODE	TOGGLE	F	I/E AutoRange
IERANGE	IQUANT	11	I/E Range
POSFEEDENABLE	TOGGLE	F	Positive Feedback IR Comp
POSFEEDRESISTANCE	QUANT	0	Positive Feedback Resistance (ohm)
ACHSELECT	IQUANT	0	Ach Select
CABLEID	IQUANT	13	Cable ID
DCCALDATE	LABEL	7/31/2020	DC Calibration Date
ACCALDATE	LABEL	7/31/2020	AC Calibration Date
THERMOSELECT	IQUANT	1	Thermo Select
FRAMEWORKVERSION	QUANT	6.33	Framework Version
INSTRUMENTVERSION	LABEL	3.50	Instrument Version
COMPLIANCEVOLTAGE	IQUANT	0	Compliance Voltage
ZCURVE	TABLE
	Pt	Time	Freq	Zreal	Zimag	Zsig	Zmod	Zphz	Idc	Vdc	IERange
	#	s	Hz	ohm	ohm	V	ohm	°	A	V	#
	0	10	300046.9	3.582349	2.31074	1	4.26295	32.82343	-0.000145	-0.000104	10
	1	13	238359.4	3.534265	1.833291	1	3.981455	27.41664	6.775482E-005	-0.0002985	10
	2	16	189328.1	3.515023	1.440648	1	3.798797	22.2865	0.0003873	-0.0006798	10
	3	19	150421.9	3.513183	1.141437	1	3.693959	17.99903	-9.402977E-006	0.0004068	10
	4	21	119484.4	3.502314	0.8802083	1	3.611228	14.10751	0.0001481	-0.0002709	10
	5	24	94921.88	3.498001	0.6896905	1	3.565345	11.15378	-0.0001208	0.0006717	10
	6	27	75421.88	3.497831	0.5159912	1	3.535685	8.391607	-0.0001154	0.0005679	10
	7	29	59859.37	3.498565	0.3688144	1	3.517951	6.017824	0.000162	0.0002854	10
	8	32	47578.12	3.500363	0.2428162	1	3.508775	3.968187	0.0001052	0.0002606	10
	9	34	37828.12	3.503744	0.1308164	1	3.506185	2.138212	0.000102	0.0004636	10
	10	37	30046.88	3.508727	0.0260409	1	3.508823	0.425227	-8.869878E-005	0.0006532	10
	11	39	23859.38	3.515166	-0.0767562	1	3.516004	-1.250896	-0.0001258	0.0007767	10
	12	41	18984.38	3.523066	-0.180655	1	3.527694	-2.93543	-1.160542E-005	0.0007962	10
	13	44	15046.87	3.530849	-0.2938007	1	3.543051	-4.756605	0.0001273	0.0004542	10
	14	46	11953.13	3.543147	-0.4197062	1	3.567919	-6.755535	-0.000103	0.0009402	10
	15	48	9515.62	3.555755	-0.5636232	1	3.600148	-9.007025	3.58861E-005	0.0006714	10
	16	51	7546.875	3.574033	-0.7365176	1	3.649132	-11.64421	3.598102E-006	0.000485	10
	17	53	5928.309	3.597444	-0.9539	1	3.721764	-14.85081	-0.0001575	0.0009541	10
	18	55	4733.456	3.625094	-1.200019	1	3.818554	-18.31616	0.0001581	0.0003318	10
	19	58	3796.875	3.661956	-1.49439	1	3.955139	-22.19964	9.347907E-005	0.0006031	10
	20	60	2987.132	3.711098	-1.884232	1	4.162041	-26.91822	0.0001313	0.0004832	10
	21	62	2390.625	3.772469	-2.331538	1	4.434816	-31.71774	-9.373542E-006	0.0008174	10
	22	65	1884.191	3.85746	-2.917258	1	4.836362	-37.0989	-0.0001085	0.000932	10
	23	67	1516.544	3.959397	-3.570373	1	5.331452	-42.04245	0.0001005	0.0003652	10
	24	69	1193.986	4.10257	-4.453975	1	6.05549	-47.35173	0.0001565	0.0003299	10
	25	72	946.5144	4.288008	-5.51172	1	6.983271	-52.1178	8.404306E-005	0.0005798	10
	26	74	751.7689	4.521773	-6.795259	1	8.162229	-56.35899	-6.720616E-005	0.0008797	10
	27	76	597.4265	4.821636	-8.357628	1	9.64874	-60.01873	5.409478E-006	0.0004904	10
	28	79	477.4305	5.188268	-10.21461	1	11.45672	-63.0728	3.876263E-006	0.0005934	10
	29	81	376.6741	5.680763	-12.61338	1	13.8336	-65.75435	-4.254693E-007	0.0006474	10
	30	83	298.2954	6.294425	-15.50696	1	16.73576	-67.90729	-5.886949E-007	0.0006582	10
	31	86	237.7717	7.04586	-18.93715	1	20.20544	-69.5915	-3.531167E-007	0.0006476	10
	32	88	189.0121	8.006924	-23.16682	1	24.51147	-70.93381	-4.798378E-007	0.0006519	10
	33	90	150.2404	9.227163	-28.3196	1	29.7849	-71.95322	-7.26198E-007	0.0006519	10
	34	93	119.1737	10.79961	-34.64516	1	36.28937	-72.68667	-1.111169E-006	0.0006552	10
	35	95	95.0169	12.7426	-42.082	1	43.96895	-73.15347	2.637159E-006	4.379765E-005	9
	36	98	75.60484	15.25797	-51.19016	1	53.41571	-73.40255	2.523313E-006	4.710355E-005	9
	37	100	54.50582	20.08697	-67.53533	1	70.45926	-73.436	2.410415E-006	4.396071E-005	9
	38	103	45.95588	23.33376	-77.90749	1	81.32676	-73.32673	2.682519E-006	5.272066E-005	9
	39	105	37.20238	28.16969	-92.78751	1	96.9693	-73.11205	2.507865E-006	5.335533E-005	9
	40	107	30.04808	34.17045	-110.5171	1	115.6791	-72.81907	2.434595E-006	4.865189E-005	9
	41	110	23.91582	42.06199	-133.0091	1	139.5013	-72.45128	2.620569E-006	4.24315E-005	9
	42	112	18.60119	52.65926	-162.6531	1	170.965	-72.06054	2.494485E-006	5.795515E-005	9
	43	115	15.02404	63.72768	-192.8496	1	203.1064	-71.71372	2.888073E-006	6.450387E-005	9
	44	117	12.01923	77.64458	-230.3652	1	243.0983	-71.37361	2.598513E-006	5.141869E-005	9
	45	119	9.450605	96.3808	-279.2702	1	295.4338	-70.95959	2.748252E-006	5.062127E-005	9
	46	122	7.512019	118.8104	-335.6963	1	356.101	-70.50999	2.895882E-006	4.6744E-005	9
	47	124	5.978954	147.0266	-401.3991	1	427.4788	-69.88296	2.757374E-006	0.0006266	8
	48	127	4.734848	186.0675	-484.2185	1	518.7375	-68.98005	2.679587E-006	0.0006226	8
	49	131	3.75601	238.2588	-581.2028	1	628.1432	-67.70927	2.710374E-006	0.0006238	8
	50	134	3.004808	306.3372	-689.243	1	754.2536	-66.03703	2.588175E-006	0.0006499	8
	51	138	2.372217	404.9892	-819.0269	1	913.6856	-63.68871	2.656251E-006	0.0006987	8
	52	142	1.878005	535.3898	-956.655	1	1096.281	-60.76654	2.566682E-006	0.0005384	8
	53	147	1.512097	690.4184	-1084.264	1	1285.421	-57.51256	2.546225E-006	0.0006653	8
	54	152	1.201923	897.9691	-1214.305	1	1510.26	-53.51737	2.570599E-006	0.0005927	8
	55	158	0.956633	1140.576	-1318.562	1	1743.422	-49.13968	2.254129E-006	-1.428083E-005	8
