EXPLAIN
TAG	EISPOT
TITLE	LABEL	Potentiostatic EIS	Test Identifier
DATE	LABEL	9/11/2020	Date
TIME	LABEL	22:26:41	Time
NOTES	NOTES	1	Notes...
	
PSTAT	PSTAT	REF3000-16137	Potentiostat
VDC	POTEN	0.00000E+000	T	DC Voltage (V)
FREQINIT	QUANT	3.00000E+005	Initial Freq. (Hz)
FREQFINAL	QUANT	1.00000E+000	Final Freq. (Hz)
PTSPERDEC	QUANT	1.00000E+001	Points/decade
VAC	QUANT	5.00000E+001	AC Voltage (mV rms)
AREA	QUANT	1.00000E+000	Sample Area (cm^2)
SPEED	SELECTOR	2	Optimize for:
ZGUESS	QUANT	1.00000E+003	Estimated Z (ohms)
EOC	QUANT	0	Open Circuit (V)
SEQUENCER	TOGGLE	TRUE	Run as Sequence
PSTATMODEL	IQUANT	5	Pstat Model
PSTATSECTION	LABEL	REF3000-16137	Pstat Section
PSTATSERIALNO	LABEL	16137	Pstat Serial Number
CTRLMODE	IQUANT	1	Control Mode
IESTAB	IQUANT	0	I/E Stability
CASPEED	IQUANT	1	Control Amp Speed
CONVENTION	IQUANT	1	Current Convention
ICHRANGE	IQUANT	2	Ich Range
ICHRANGEMODE	TOGGLE	F	Ich Auto Range
ICHOFFSETENABLE	TOGGLE	T	Ich Offset Enable
ICHOFFSET	QUANT	0	Ich Offset (V)
ICHFILTER	IQUANT	3	Ich Filter
VCHRANGE	IQUANT	2	Vch Range
VCHRANGEMODE	TOGGLE	F	Vch Auto Range
VCHOFFSETENABLE	TOGGLE	T	Vch Offset Enable
VCHOFFSET	QUANT	0	Vch Offset (V)
VCHFILTER	IQUANT	3	Vch Filter
ACHRANGE	IQUANT	2	Ach Range
ACHOFFSETENABLE	TOGGLE	F	Ach Offset Enable
ACHOFFSET	QUANT	0	Ach Offset (V)
ACHFILTER	IQUANT	3	Ach Filter
IERANGELOWERLIMIT	IQUANT	2	I/E Range Lower Limit
IERANGEMODE	TOGGLE	F	I/E AutoRange
IERANGE	IQUANT	11	I/E Range
POSFEEDENABLE	TOGGLE	F	Positive Feedback IR Comp
POSFEEDRESISTANCE	QUANT	0	Positive Feedback Resistance (ohm)
ACHSELECT	IQUANT	0	Ach Select
CABLEID	IQUANT	13	Cable ID
DCCALDATE	LABEL	7/31/2020	DC Calibration Date
ACCALDATE	LABEL	7/31/2020	AC Calibration Date
THERMOSELECT	IQUANT	1	Thermo Select
FRAMEWORKVERSION	QUANT	6.33	Framework Version
INSTRUMENTVERSION	LABEL	3.50	Instrument Version
COMPLIANCEVOLTAGE	IQUANT	0	Compliance Voltage
ZCURVE	TABLE
	Pt	Time	Freq	Zreal	Zimag	Zsig	Zmod	Zphz	Idc	Vdc	IERange
	#	s	Hz	ohm	ohm	V	ohm	°	A	V	#
	0	12	300046.9	185.6211	-5.069631	1	185.6903	-1.564458	-2.592459E-005	-0.0008322	9
	1	15	238359.4	186.401	-4.570226	1	186.457	-1.40451	2.886747E-005	0.0003679	9
	2	19	189328.1	188.2298	-3.577073	1	188.2638	-1.088704	1.899055E-005	-0.0005284	9
	3	21	150421.9	189.2957	-3.181704	1	189.3224	-0.962944	-1.732127E-005	0.0011223	9
	4	24	119484.4	190.8826	-2.834267	1	190.9037	-0.8506777	-1.364768E-005	0.0010853	9
	5	27	94921.88	191.6009	-2.18578	1	191.6134	-0.6536009	2.536786E-005	-0.0007955	9
	6	29	75421.88	192.7468	-1.930662	1	192.7564	-0.5738882	1.029737E-005	0.0002017	9
	7	32	59859.37	193.8557	-1.66077	1	193.8628	-0.4908434	2.105798E-005	-0.0008587	9
	8	34	47578.12	194.8477	-1.420235	1	194.8528	-0.4176187	-8.64586E-006	-0.0001501	9
	9	37	37828.12	195.9588	-1.319451	1	195.9632	-0.3857843	9.131271E-007	0.0005962	9
	10	39	30046.88	197.0817	-1.112362	1	197.0849	-0.3233835	-2.086479E-005	0.000493	9
	11	42	23859.38	198.1035	-1.077962	1	198.1064	-0.3117666	-1.460976E-006	-0.0004221	9
	12	44	18984.38	199.0905	-1.042539	1	199.0932	-0.3000272	2.351378E-008	0.0005734	9
	13	46	15046.87	200.3586	-1.097366	1	200.3616	-0.3138065	8.168789E-006	-0.0006772	9
	14	49	11953.13	201.0022	-1.524946	1	201.008	-0.4346782	-1.335524E-005	0.0001261	9
	15	51	9515.62	202.2566	-1.194558	1	202.2601	-0.3383937	-1.69137E-005	0.0002723	9
	16	53	7546.875	203.2513	-1.595565	1	203.2575	-0.4497747	-1.525282E-005	0.0008833	9
	17	56	5928.309	204.1799	-1.73564	1	204.1873	-0.4870335	-2.081784E-005	0.000453	9
	18	58	4733.456	205.297	-2.432743	1	205.3115	-0.6789156	-1.778762E-005	0.0003162	9
	19	60	3796.875	206.1693	-2.565593	1	206.1853	-0.712958	-1.57213E-005	0.0009585	9
	20	63	2987.132	207.3927	-3.031599	1	207.4149	-0.8374712	2.569643E-005	-0.0004762	9
	21	65	2390.625	208.1757	-4.083922	1	208.2158	-1.123865	2.250176E-005	-0.0005345	9
	22	67	1884.191	209.8414	-5.142947	1	209.9044	-1.403966	-9.018878E-006	-0.0001131	9
	23	70	1516.544	210.446	-5.5172	1	210.5183	-1.501762	2.553433E-005	-0.0007872	9
	24	72	1193.986	211.7042	-7.282109	1	211.8295	-1.970058	1.534496E-005	-0.0007924	9
	25	74	946.5144	213.134	-8.489957	1	213.3031	-2.281108	-1.186857E-006	-0.0003943	9
	26	77	751.7689	214.304	-11.04219	1	214.5883	-2.949604	2.155513E-005	-0.0008427	9
	27	79	597.4265	215.644	-13.48071	1	216.065	-3.577117	-1.484184E-005	9.134038E-005	9
	28	81	477.4305	216.9741	-16.69308	1	217.6153	-4.39943	1.142773E-006	4.512953E-005	9
	29	84	376.6741	218.4511	-20.85007	1	219.4439	-5.452081	1.076806E-006	4.999901E-005	9
	30	86	298.2954	220.0105	-25.97159	1	221.5381	-6.73244	1.184522E-006	4.82547E-005	9
	31	88	237.7717	221.7478	-32.15221	1	224.0666	-8.250077	1.135332E-006	4.793821E-005	9
	32	91	189.0121	223.6389	-39.93451	1	227.1764	-10.12442	1.183948E-006	4.296482E-005	9
	33	93	150.2404	225.767	-49.56134	1	231.1429	-12.38142	1.106967E-006	4.628843E-005	9
	34	95	119.1737	228.1747	-61.65933	1	236.3589	-15.12179	1.132877E-006	4.752522E-005	9
	35	98	95.0169	230.9811	-76.33121	1	243.2668	-18.28692	1.111504E-006	4.178306E-005	9
	36	100	75.60484	234.2982	-94.62219	1	252.6836	-21.9915	1.124166E-006	4.524403E-005	9
	37	103	54.50582	239.6728	-128.5566	1	271.974	-28.20839	1.129478E-006	4.642188E-005	9
	38	105	45.95588	243.717	-150.8011	1	286.5989	-31.74735	1.192566E-006	4.942351E-005	9
	39	108	37.20238	249.281	-183.5789	1	309.584	-36.36918	1.174132E-006	5.102122E-005	9
	40	110	30.04808	256.1903	-223.8149	1	340.1862	-41.14136	1.26308E-006	3.956311E-005	9
	41	113	23.91582	265.2382	-276.3513	1	383.0422	-46.17551	1.232593E-006	4.096302E-005	9
	42	115	18.60119	276.4964	-346.8085	1	443.5385	-51.43606	-1.3127E-007	0.0006365	8
	43	117	15.02404	290.1491	-421.4504	1	511.6708	-55.45438	4.333784E-008	0.0006385	8
	44	119	12.01923	307.7794	-516.4267	1	601.186	-59.20595	3.263789E-009	0.000627	8
	45	122	9.450605	331.8847	-641.856	1	722.5833	-62.65786	-3.63283E-009	0.0006099	8
	46	124	7.512019	361.0667	-789.504	1	868.1508	-65.42379	4.981694E-008	0.0006076	8
	47	127	5.978954	397.3307	-967.925	1	1046.303	-67.68197	5.336017E-008	0.0006177	8
	48	130	4.734848	444.5486	-1191.63	1	1271.851	-69.5415	5.480915E-008	0.0006358	8
	49	133	3.75601	502.4751	-1463.775	1	1547.617	-71.05402	1.372402E-008	0.0006205	8
	50	137	3.004808	571.7003	-1781.873	1	1871.34	-72.21156	6.838111E-009	0.0006527	8
	51	141	2.372217	663.5725	-2195.635	1	2293.717	-73.18394	6.963931E-009	0.0006927	8
	52	145	1.878005	776.1221	-2695.569	1	2805.077	-73.93756	-1.107232E-008	0.0005913	8
	53	149	1.512097	908.3903	-3253.82	1	3378.242	-74.40151	1.844151E-008	0.0006663	8
	54	155	1.201923	1079.901	-3991.341	1	4134.851	-74.86048	4.144218E-009	0.0005882	8
	55	161	0.956633	1299.953	-4886.034	1	5056.007	-75.10132	-3.402664E-008	-4.392793E-005	7
