EXPLAIN
TAG	EISPOT
TITLE	LABEL	Potentiostatic EIS	Test Identifier
DATE	LABEL	9/11/2020	Date
TIME	LABEL	22:21:12	Time
NOTES	NOTES	1	Notes...
	
PSTAT	PSTAT	REF3000-16137	Potentiostat
VDC	POTEN	0.00000E+000	T	DC Voltage (V)
FREQINIT	QUANT	3.00000E+005	Initial Freq. (Hz)
FREQFINAL	QUANT	1.00000E+000	Final Freq. (Hz)
PTSPERDEC	QUANT	1.00000E+001	Points/decade
VAC	QUANT	5.00000E+001	AC Voltage (mV rms)
AREA	QUANT	1.00000E+000	Sample Area (cm^2)
SPEED	SELECTOR	2	Optimize for:
ZGUESS	QUANT	1.00000E+003	Estimated Z (ohms)
EOC	QUANT	0	Open Circuit (V)
SEQUENCER	TOGGLE	TRUE	Run as Sequence
PSTATMODEL	IQUANT	5	Pstat Model
PSTATSECTION	LABEL	REF3000-16137	Pstat Section
PSTATSERIALNO	LABEL	16137	Pstat Serial Number
CTRLMODE	IQUANT	1	Control Mode
IESTAB	IQUANT	0	I/E Stability
CASPEED	IQUANT	1	Control Amp Speed
CONVENTION	IQUANT	1	Current Convention
ICHRANGE	IQUANT	2	Ich Range
ICHRANGEMODE	TOGGLE	F	Ich Auto Range
ICHOFFSETENABLE	TOGGLE	T	Ich Offset Enable
ICHOFFSET	QUANT	0	Ich Offset (V)
ICHFILTER	IQUANT	3	Ich Filter
VCHRANGE	IQUANT	2	Vch Range
VCHRANGEMODE	TOGGLE	F	Vch Auto Range
VCHOFFSETENABLE	TOGGLE	T	Vch Offset Enable
VCHOFFSET	QUANT	0	Vch Offset (V)
VCHFILTER	IQUANT	3	Vch Filter
ACHRANGE	IQUANT	2	Ach Range
ACHOFFSETENABLE	TOGGLE	F	Ach Offset Enable
ACHOFFSET	QUANT	0	Ach Offset (V)
ACHFILTER	IQUANT	3	Ach Filter
IERANGELOWERLIMIT	IQUANT	2	I/E Range Lower Limit
IERANGEMODE	TOGGLE	F	I/E AutoRange
IERANGE	IQUANT	11	I/E Range
POSFEEDENABLE	TOGGLE	F	Positive Feedback IR Comp
POSFEEDRESISTANCE	QUANT	0	Positive Feedback Resistance (ohm)
ACHSELECT	IQUANT	0	Ach Select
CABLEID	IQUANT	13	Cable ID
DCCALDATE	LABEL	7/31/2020	DC Calibration Date
ACCALDATE	LABEL	7/31/2020	AC Calibration Date
THERMOSELECT	IQUANT	1	Thermo Select
FRAMEWORKVERSION	QUANT	6.33	Framework Version
INSTRUMENTVERSION	LABEL	3.50	Instrument Version
COMPLIANCEVOLTAGE	IQUANT	0	Compliance Voltage
ZCURVE	TABLE
	Pt	Time	Freq	Zreal	Zimag	Zsig	Zmod	Zphz	Idc	Vdc	IERange
	#	s	Hz	ohm	ohm	V	ohm	°	A	V	#
	0	7	300046.9	97.8729	0.8603793	1	97.8767	0.5036618	-5.249231E-005	0.0005491	9
	1	10	238359.4	98.2786	0.6815922	1	98.2809	0.3973576	-1.103156E-005	0.0006053	9
	2	13	189328.1	98.8312	0.575626	1	98.8329	0.3337059	5.96624E-005	-0.0023425	9
	3	16	150421.9	99.5699	0.1863137	1	99.57	0.1072109	1.060059E-005	0.0007586	9
	4	18	119484.4	100.015	0.0742885	1	100.0151	0.0425578	2.89216E-005	0.0003628	9
	5	21	94921.88	100.543	0.2402633	1	100.5433	0.1369171	-1.23884E-005	0.000791	9
	6	23	75421.88	101.0049	0.0689456	1	101.0049	0.0391099	-9.978565E-006	-4.087252E-005	9
	7	26	59859.37	101.4831	-0.0867913	1	101.4831	-0.049001	1.290583E-005	-0.0006814	9
	8	28	47578.12	101.9697	-0.16216	1	101.9698	-0.0911161	-1.956115E-005	0.0004305	9
	9	31	37828.12	102.4304	-0.2556439	1	102.4307	-0.1429975	-4.729891E-006	0.0006939	9
	10	33	30046.88	102.9065	-0.3165257	1	102.907	-0.1762332	-1.709462E-005	0.0008303	9
	11	36	23859.38	103.4165	-0.4078254	1	103.4173	-0.2259461	2.28351E-005	-0.0006877	9
	12	38	18984.38	103.8368	-0.526693	1	103.8382	-0.2906197	2.443786E-006	0.0004912	9
	13	40	15046.87	104.1248	-0.62595	1	104.1267	-0.3444316	-1.634586E-005	0.0008318	9
	14	43	11953.13	104.8778	-0.7945915	1	104.8808	-0.4340848	2.592258E-005	-0.000448	9
	15	45	9515.62	105.1925	-0.962424	1	105.1969	-0.5241942	-2.099673E-005	0.0006581	9
	16	47	7546.875	105.7295	-1.225014	1	105.7365	-0.6638167	-9.398922E-006	-5.729019E-005	9
	17	50	5928.309	106.1757	-1.546195	1	106.187	-0.8343169	1.296215E-005	-0.0006686	9
	18	52	4733.456	106.628	-1.849568	1	106.644	-0.993752	-9.647497E-006	-2.978283E-005	9
	19	54	3796.875	107.2192	-2.237092	1	107.2426	-1.195283	-5.825152E-006	0.000728	9
	20	56	2987.132	107.5712	-2.829202	1	107.6084	-1.506574	1.278646E-005	-0.0006712	9
	21	59	2390.625	108.1543	-3.46233	1	108.2097	-1.833577	2.182752E-005	-0.0006549	9
	22	61	1884.191	108.642	-4.322077	1	108.728	-2.278181	2.237264E-005	-0.0006985	9
	23	63	1516.544	109.1341	-5.332869	1	109.2643	-2.797549	2.149677E-005	-0.0002485	9
	24	66	1193.986	109.8409	-6.623675	1	110.0404	-3.450898	1.855108E-005	-0.0001123	9
	25	68	946.5144	110.4713	-8.182855	1	110.7739	-4.23629	-1.773333E-005	0.0008626	9
	26	70	751.7689	111.1279	-10.29662	1	111.6039	-5.293661	2.376806E-005	-0.0004586	9
	27	73	597.4265	111.8475	-12.69758	1	112.566	-6.476818	-1.764419E-005	0.0008365	9
	28	75	477.4305	112.5845	-15.74179	1	113.6797	-7.959603	1.251182E-006	5.552871E-005	9
	29	77	376.6741	113.4501	-19.68704	1	115.1456	-9.84452	1.171157E-006	5.016431E-005	9
	30	80	298.2954	114.4122	-24.54225	1	117.0148	-12.10689	1.240856E-006	5.391438E-005	9
	31	82	237.7717	115.5178	-30.38867	1	119.448	-14.73858	1.12222E-006	5.510898E-005	9
	32	85	189.0121	116.8065	-37.73142	1	122.7494	-17.90175	1.203186E-006	4.754473E-005	9
	33	87	150.2404	118.3377	-46.82905	1	127.2666	-21.58988	1.1901E-006	4.986923E-005	9
	34	89	119.1737	120.1922	-58.21296	1	133.5474	-25.84241	1.24693E-006	5.055242E-005	9
	35	92	95.0169	122.4222	-71.9668	1	142.0085	-30.44946	1.195651E-006	4.892608E-005	9
	36	94	75.60484	125.2121	-89.07091	1	153.6609	-35.42654	1.27685E-006	4.978295E-005	9
	37	97	54.50582	130.2137	-120.672	1	177.5312	-42.82197	1.192832E-006	5.073826E-005	9
	38	99	45.95588	133.8099	-141.299	1	194.6035	-46.55933	1.18217E-006	5.692375E-005	9
	39	102	37.20238	139.038	-171.6334	1	220.8837	-50.98952	1.321731E-006	5.197839E-005	9
	40	104	30.04808	145.6554	-208.7441	1	254.538	-55.09381	1.337224E-006	5.730351E-005	9
	41	106	23.91582	154.4612	-257.0145	1	299.8578	-58.99487	1.327726E-006	4.913485E-005	9
	42	109	18.60119	166.7571	-322.709	1	363.2478	-62.67273	1.243061E-006	6.096279E-005	9
	43	111	15.02404	179.25	-389.5412	1	428.8041	-65.29016	2.372292E-007	0.0006329	8
	44	113	12.01923	196.5891	-475.6997	1	514.7208	-67.5465	1.29752E-007	0.0006241	8
	45	116	9.450605	219.8352	-589.4634	1	629.1221	-69.54744	1.233194E-007	0.0006371	8
	46	118	7.512019	248.0331	-722.5839	1	763.9685	-71.05478	1.33352E-007	0.0006245	8
	47	121	5.978954	282.2726	-883.8264	1	927.8076	-72.28778	1.376549E-007	0.0006283	8
	48	124	4.734848	326.9255	-1086.234	1	1134.365	-73.2497	2.0552E-007	0.000617	8
	49	127	3.75601	381.3439	-1331.66	1	1385.186	-74.02001	1.526272E-007	0.0006254	8
	50	131	3.004808	447.3073	-1618.68	1	1679.348	-74.55235	2.160818E-007	0.0005961	8
	51	134	2.372217	534.7727	-1990.855	1	2061.428	-74.96444	1.787376E-007	0.0005692	8
	52	139	1.878005	647.4308	-2440.365	1	2524.787	-75.14167	1.963232E-007	0.0006397	8
	53	143	1.512097	780.2275	-2942.129	1	3043.827	-75.14752	1.876903E-007	0.0005443	8
	54	149	1.201923	952.251	-3595.313	1	3719.282	-75.16533	1.809484E-007	0.0006569	8
	55	155	0.956633	1172.755	-4384.07	1	4538.218	-75.02382	-1.310982E-008	-3.379246E-005	7
