EXPLAIN
TAG	EISPOT
TITLE	LABEL	Potentiostatic EIS	Test Identifier
DATE	LABEL	9/11/2020	Date
TIME	LABEL	21:11:54	Time
NOTES	NOTES	1	Notes...
	
PSTAT	PSTAT	REF3000-16137	Potentiostat
VDC	POTEN	0.00000E+000	T	DC Voltage (V)
FREQINIT	QUANT	3.00000E+005	Initial Freq. (Hz)
FREQFINAL	QUANT	1.00000E+000	Final Freq. (Hz)
PTSPERDEC	QUANT	1.00000E+001	Points/decade
VAC	QUANT	5.00000E+001	AC Voltage (mV rms)
AREA	QUANT	1.00000E+000	Sample Area (cm^2)
SPEED	SELECTOR	2	Optimize for:
ZGUESS	QUANT	1.00000E+003	Estimated Z (ohms)
EOC	QUANT	0	Open Circuit (V)
SEQUENCER	TOGGLE	TRUE	Run as Sequence
PSTATMODEL	IQUANT	5	Pstat Model
PSTATSECTION	LABEL	REF3000-16137	Pstat Section
PSTATSERIALNO	LABEL	16137	Pstat Serial Number
CTRLMODE	IQUANT	1	Control Mode
IESTAB	IQUANT	0	I/E Stability
CASPEED	IQUANT	1	Control Amp Speed
CONVENTION	IQUANT	1	Current Convention
ICHRANGE	IQUANT	2	Ich Range
ICHRANGEMODE	TOGGLE	F	Ich Auto Range
ICHOFFSETENABLE	TOGGLE	T	Ich Offset Enable
ICHOFFSET	QUANT	0	Ich Offset (V)
ICHFILTER	IQUANT	3	Ich Filter
VCHRANGE	IQUANT	2	Vch Range
VCHRANGEMODE	TOGGLE	F	Vch Auto Range
VCHOFFSETENABLE	TOGGLE	T	Vch Offset Enable
VCHOFFSET	QUANT	0	Vch Offset (V)
VCHFILTER	IQUANT	3	Vch Filter
ACHRANGE	IQUANT	2	Ach Range
ACHOFFSETENABLE	TOGGLE	F	Ach Offset Enable
ACHOFFSET	QUANT	0	Ach Offset (V)
ACHFILTER	IQUANT	3	Ach Filter
IERANGELOWERLIMIT	IQUANT	2	I/E Range Lower Limit
IERANGEMODE	TOGGLE	F	I/E AutoRange
IERANGE	IQUANT	11	I/E Range
POSFEEDENABLE	TOGGLE	F	Positive Feedback IR Comp
POSFEEDRESISTANCE	QUANT	0	Positive Feedback Resistance (ohm)
ACHSELECT	IQUANT	0	Ach Select
CABLEID	IQUANT	13	Cable ID
DCCALDATE	LABEL	7/31/2020	DC Calibration Date
ACCALDATE	LABEL	7/31/2020	AC Calibration Date
THERMOSELECT	IQUANT	1	Thermo Select
FRAMEWORKVERSION	QUANT	6.33	Framework Version
INSTRUMENTVERSION	LABEL	3.50	Instrument Version
COMPLIANCEVOLTAGE	IQUANT	0	Compliance Voltage
ZCURVE	TABLE
	Pt	Time	Freq	Zreal	Zimag	Zsig	Zmod	Zphz	Idc	Vdc	IERange
	#	s	Hz	ohm	ohm	V	ohm	°	A	V	#
	0	10	300046.9	3.463201	2.296488	1	4.155432	33.54881	0.0004351	-0.0006495	10
	1	14	238359.4	3.43626	1.834726	1	3.895395	28.09914	-0.0004517	0.0004787	10
	2	17	189328.1	3.41475	1.448451	1	3.709249	22.98544	-0.0004238	0.0007895	10
	3	19	150421.9	3.40663	1.12594	1	3.587878	18.28946	0.0002053	-0.0005043	10
	4	22	119484.4	3.396363	0.8829688	1	3.509261	14.57287	-0.0003651	0.0011126	10
	5	24	94921.88	3.389678	0.6552867	1	3.452437	10.94135	0.0001682	0.0005792	11
	6	28	75421.88	3.387685	0.4901048	1	3.422954	8.232007	-1.72612E-005	0.0006009	11
	7	30	59859.37	3.388744	0.3493691	1	3.406706	5.886224	0.0001329	0.0006672	11
	8	33	47578.12	3.390013	0.2284632	1	3.397703	3.855505	0.0001369	0.0006824	11
	9	35	37828.12	3.392299	0.1201218	1	3.394425	2.028005	-0.0001368	0.000618	11
	10	38	30046.88	3.395782	0.0187543	1	3.395833	0.3164314	-0.000151	0.0006155	11
	11	41	23859.38	3.401516	-0.0810592	1	3.402482	-1.365118	0.0001504	0.0007014	11
	12	43	18984.38	3.407923	-0.1819617	1	3.412778	-3.056333	-8.076E-005	0.0007406	11
	13	45	15046.87	3.415707	-0.2940335	1	3.428339	-4.920049	-0.0002313	0.0006385	11
	14	47	11953.13	3.425884	-0.4171245	1	3.451184	-6.94198	-8.47604E-005	0.0006284	11
	15	50	9515.62	3.437213	-0.5592679	1	3.482415	-9.24159	0.0001242	0.0006784	11
	16	52	7546.875	3.454795	-0.7292975	1	3.530932	-11.91998	0.0002038	0.0006402	11
	17	54	5928.309	3.480064	-0.9445075	1	3.605959	-15.18459	0.0001641	0.0003587	10
	18	57	4733.456	3.508259	-1.188726	1	3.70418	-18.71826	-6.602124E-005	0.0008704	10
	19	59	3796.875	3.543519	-1.478635	1	3.839647	-22.64974	-0.0001226	0.0008042	10
	20	61	2987.132	3.593369	-1.865929	1	4.048949	-27.4415	-0.0001476	0.0008517	10
	21	64	2390.625	3.653902	-2.307304	1	4.321418	-32.2709	0.0001733	0.000368	10
	22	66	1884.191	3.740048	-2.887012	1	4.724701	-37.66521	-9.034587E-005	0.0006965	10
	23	68	1516.544	3.840236	-3.533257	1	5.218364	-42.616	-8.945062E-005	0.0006942	10
	24	71	1193.986	3.984258	-4.405235	1	5.939732	-47.87264	-8.889358E-005	0.0006946	10
	25	73	946.5144	4.168844	-5.44313	1	6.856159	-52.55182	6.727428E-006	0.00051	10
	26	75	751.7689	4.401432	-6.711948	1	8.026384	-56.74471	-9.015829E-005	0.000697	10
	27	78	597.4265	4.69833	-8.255854	1	9.499127	-60.3562	-4.171401E-005	0.0005895	10
	28	80	477.4305	5.061114	-10.08639	1	11.28495	-63.35358	9.511696E-007	0.0006514	10
	29	82	376.6741	5.548483	-12.45092	1	13.63126	-65.9809	1.367758E-006	0.000653	10
	30	85	298.2954	6.156048	-15.30381	1	16.49557	-68.08726	7.757904E-007	0.0006523	10
	31	87	237.7717	6.899603	-18.68556	1	19.9187	-69.73344	5.119654E-006	0.0005897	10
	32	89	189.0121	7.853316	-22.85386	1	24.16554	-71.03564	4.585692E-007	0.0006463	10
	33	92	150.2404	9.064079	-27.93015	1	29.3641	-72.02036	4.95451E-007	0.0006444	10
	34	94	119.1737	10.62185	-34.1557	1	35.7692	-72.72519	8.817336E-007	0.0005907	10
	35	96	95.0169	12.54475	-41.47076	1	43.32661	-73.16962	2.976866E-006	4.127539E-005	9
	36	99	75.60484	15.02694	-50.42329	1	52.6148	-73.40511	2.866016E-006	4.678292E-005	9
	37	102	54.50582	19.76181	-66.47805	1	69.35316	-73.44446	2.653652E-006	4.289644E-005	9
	38	104	45.95588	22.92932	-76.6818	1	80.03657	-73.35233	3.03819E-006	5.043139E-005	9
	39	106	37.20238	27.6782	-91.35314	1	95.4541	-73.14423	2.816528E-006	5.779859E-005	9
	40	109	30.04808	33.48301	-108.7956	1	113.8315	-72.8937	2.769593E-006	5.499283E-005	9
	41	111	23.91582	41.1715	-131.0009	1	137.3183	-72.55289	2.716342E-006	4.697842E-005	9
	42	114	18.60119	51.56034	-160.3613	1	168.4464	-72.17604	2.751105E-006	5.65094E-005	9
	43	116	15.02404	62.40451	-190.3498	1	200.3182	-71.84872	3.048738E-006	6.450417E-005	9
	44	118	12.01923	76.25912	-227.5502	1	239.9886	-71.4724	2.758137E-006	5.335837E-005	9
	45	121	9.450605	94.95981	-276.1198	1	291.9923	-71.0215	2.838586E-006	5.20763E-005	9
	46	123	7.512019	117.8074	-332.2235	1	352.4926	-70.47536	3.055375E-006	4.240799E-005	9
	47	126	5.978954	147.368	-398.8375	1	425.1925	-69.72104	3.196118E-006	4.635603E-005	9
	48	129	4.734848	187.2709	-478.5963	1	513.9307	-68.62999	2.934708E-006	0.0006333	8
	49	132	3.75601	241.5399	-573.2217	1	622.0327	-67.15078	2.95574E-006	0.0005588	8
	50	135	3.004808	312.046	-677.5212	1	745.9274	-65.27061	2.802322E-006	0.000653	8
	51	139	2.372217	414.243	-800.4025	1	901.2443	-62.63648	2.881316E-006	0.0007035	8
	52	143	1.878005	546.8008	-928.6863	1	1077.706	-59.51086	2.696022E-006	0.0006083	8
	53	148	1.512097	701.2725	-1044.193	1	1257.825	-56.11499	2.75353E-006	0.0006162	8
	54	153	1.201923	906.1796	-1155.363	1	1468.341	-51.89204	2.773177E-006	0.0005972	8
	55	160	0.956633	1138.808	-1237.659	1	1681.868	-47.38189	2.490432E-006	-1.034481E-005	8
