EXPLAIN
TAG	EISPOT
TITLE	LABEL	Potentiostatic EIS	Test Identifier
DATE	LABEL	9/11/2020	Date
TIME	LABEL	21:20:18	Time
NOTES	NOTES	1	Notes...
	
PSTAT	PSTAT	REF3000-16137	Potentiostat
VDC	POTEN	0.00000E+000	T	DC Voltage (V)
FREQINIT	QUANT	3.00000E+005	Initial Freq. (Hz)
FREQFINAL	QUANT	1.00000E+000	Final Freq. (Hz)
PTSPERDEC	QUANT	1.00000E+001	Points/decade
VAC	QUANT	5.00000E+001	AC Voltage (mV rms)
AREA	QUANT	1.00000E+000	Sample Area (cm^2)
SPEED	SELECTOR	2	Optimize for:
ZGUESS	QUANT	1.00000E+003	Estimated Z (ohms)
EOC	QUANT	0	Open Circuit (V)
SEQUENCER	TOGGLE	TRUE	Run as Sequence
PSTATMODEL	IQUANT	5	Pstat Model
PSTATSECTION	LABEL	REF3000-16137	Pstat Section
PSTATSERIALNO	LABEL	16137	Pstat Serial Number
CTRLMODE	IQUANT	1	Control Mode
IESTAB	IQUANT	0	I/E Stability
CASPEED	IQUANT	1	Control Amp Speed
CONVENTION	IQUANT	1	Current Convention
ICHRANGE	IQUANT	2	Ich Range
ICHRANGEMODE	TOGGLE	F	Ich Auto Range
ICHOFFSETENABLE	TOGGLE	T	Ich Offset Enable
ICHOFFSET	QUANT	0	Ich Offset (V)
ICHFILTER	IQUANT	3	Ich Filter
VCHRANGE	IQUANT	2	Vch Range
VCHRANGEMODE	TOGGLE	F	Vch Auto Range
VCHOFFSETENABLE	TOGGLE	T	Vch Offset Enable
VCHOFFSET	QUANT	0	Vch Offset (V)
VCHFILTER	IQUANT	3	Vch Filter
ACHRANGE	IQUANT	2	Ach Range
ACHOFFSETENABLE	TOGGLE	F	Ach Offset Enable
ACHOFFSET	QUANT	0	Ach Offset (V)
ACHFILTER	IQUANT	3	Ach Filter
IERANGELOWERLIMIT	IQUANT	2	I/E Range Lower Limit
IERANGEMODE	TOGGLE	F	I/E AutoRange
IERANGE	IQUANT	11	I/E Range
POSFEEDENABLE	TOGGLE	F	Positive Feedback IR Comp
POSFEEDRESISTANCE	QUANT	0	Positive Feedback Resistance (ohm)
ACHSELECT	IQUANT	0	Ach Select
CABLEID	IQUANT	13	Cable ID
DCCALDATE	LABEL	7/31/2020	DC Calibration Date
ACCALDATE	LABEL	7/31/2020	AC Calibration Date
THERMOSELECT	IQUANT	1	Thermo Select
FRAMEWORKVERSION	QUANT	6.33	Framework Version
INSTRUMENTVERSION	LABEL	3.50	Instrument Version
COMPLIANCEVOLTAGE	IQUANT	0	Compliance Voltage
ZCURVE	TABLE
	Pt	Time	Freq	Zreal	Zimag	Zsig	Zmod	Zphz	Idc	Vdc	IERange
	#	s	Hz	ohm	ohm	V	ohm	°	A	V	#
	0	10	300046.9	3.90554	2.301933	1	4.533446	30.51518	0.0002578	-0.0002422	10
	1	14	238359.4	3.891914	1.828048	1	4.299855	25.15963	-0.0002367	-0.0002191	10
	2	17	189328.1	3.863708	1.440451	1	4.123487	20.44625	0.0003585	-0.0004551	10
	3	19	150421.9	3.854494	1.137454	1	4.018822	16.44123	0.0003693	-0.0008511	10
	4	22	119484.4	3.854351	0.8806965	1	3.953688	12.87079	0.0002681	0.0001415	10
	5	24	94921.88	3.852746	0.6892297	1	3.91391	10.14253	0.0001869	0.0001076	10
	6	27	75421.88	3.852288	0.5144719	1	3.88649	7.606823	0.0001442	0.0003249	10
	7	29	59859.37	3.854514	0.3665552	1	3.871904	5.432356	-3.872385E-005	0.0004676	10
	8	32	47578.12	3.857786	0.2398887	1	3.865238	3.558241	-0.0001475	0.0008163	10
	9	34	37828.12	3.861388	0.1266843	1	3.863465	1.879084	0.0001388	0.0002319	10
	10	37	30046.88	3.867499	0.0206211	1	3.867554	0.3054929	0.0001576	0.0003223	10
	11	39	23859.38	3.875723	-0.0832594	1	3.876617	-1.230656	-0.0001335	0.0009535	10
	12	42	18984.38	3.884326	-0.1879066	1	3.888868	-2.769559	-4.473706E-005	0.0005629	10
	13	44	15046.87	3.894996	-0.3020416	1	3.906689	-4.434188	-1.858056E-005	0.0007893	10
	14	46	11953.13	3.907292	-0.4309811	1	3.930989	-6.294379	-0.0001124	0.0009317	10
	15	49	9515.62	3.922307	-0.5770695	1	3.964531	-8.369597	4.469089E-005	0.0007261	10
	16	51	7546.875	3.93996	-0.7536794	1	4.011399	-10.82935	-0.0001329	0.0007928	10
	17	53	5928.309	3.964545	-0.975348	1	4.082759	-13.82129	0.0001591	0.0003084	10
	18	56	4733.456	3.993212	-1.227441	1	4.177601	-17.08647	5.426032E-005	0.0003894	10
	19	58	3796.875	4.029964	-1.52567	1	4.309093	-20.73574	-0.0001393	0.0009918	10
	20	60	2987.132	4.08027	-1.926514	1	4.512212	-25.27451	-1.595893E-005	0.000824	10
	21	63	2390.625	4.142185	-2.384839	1	4.779661	-29.93093	-1.103592E-005	0.0008487	10
	22	65	1884.191	4.225541	-2.985112	1	5.173595	-35.2391	0.0001385	0.0002974	10
	23	67	1516.544	4.328547	-3.657844	1	5.66711	-40.19952	-0.0001558	0.0008897	10
	24	69	1193.986	4.471693	-4.566672	1	6.391442	-45.60207	0.0001585	0.0003061	10
	25	72	946.5144	4.652674	-5.657195	1	7.324699	-50.56493	-0.0001147	0.0009552	10
	26	74	751.7689	4.886521	-6.9797	1	8.520228	-55.00395	0.0001349	0.0004778	10
	27	77	597.4265	5.187826	-8.596951	1	10.04097	-58.89114	-0.0001413	0.0009983	10
	28	79	477.4305	5.560324	-10.51333	1	11.89316	-62.12639	-5.85187E-007	0.0006533	10
	29	81	376.6741	6.059278	-12.99296	1	14.33638	-64.99796	-1.341197E-006	0.0006551	10
	30	84	298.2954	6.681571	-15.98409	1	17.32439	-67.31439	-1.099085E-006	0.0006545	10
	31	86	237.7717	7.443437	-19.53047	1	20.90082	-69.1372	-1.262106E-006	0.0006542	10
	32	88	189.0121	8.414177	-23.90506	1	25.34266	-70.6088	-1.222942E-006	0.0006545	10
	33	91	150.2404	9.64478	-29.24039	1	30.78996	-71.74515	-4.932081E-007	0.0005954	10
	34	93	119.1737	11.22229	-35.79768	1	37.51551	-72.59421	-9.639184E-007	0.0006594	10
	35	95	95.0169	13.17185	-43.52596	1	45.47534	-73.16311	2.213199E-006	5.196742E-005	9
	36	98	75.60484	15.69951	-53.01257	1	55.2884	-73.5035	2.044989E-006	4.87129E-005	9
	37	100	54.50582	20.58255	-70.09224	1	73.05179	-73.63515	1.888086E-006	5.197821E-005	9
	38	103	45.95588	23.88073	-80.95865	1	84.4073	-73.56528	2.06499E-006	5.799387E-005	9
	39	105	37.20238	28.86772	-96.5852	1	100.807	-73.35947	1.973142E-006	6.18609E-005	9
	40	108	30.04808	35.07044	-115.172	1	120.3932	-73.06425	1.905406E-006	5.943265E-005	9
	41	110	23.91582	43.17253	-138.6021	1	145.1703	-72.69895	2.006245E-006	5.966577E-005	9
	42	113	18.60119	54.34549	-169.6686	1	178.1597	-72.23955	2.046475E-006	6.158768E-005	9
	43	115	15.02404	65.83726	-201.0154	1	211.5224	-71.86517	2.706187E-006	-4.257511E-006	9
	44	117	12.01923	80.31287	-239.8497	1	252.9388	-71.48705	1.886723E-006	4.971279E-005	9
	45	120	9.450605	98.9801	-290.0812	1	306.5031	-71.15958	1.948493E-006	6.438995E-005	9
	46	122	7.512019	121.0462	-348.0883	1	368.5344	-70.8251	2.018024E-006	4.140548E-005	9
	47	125	5.978954	147.4416	-416.0325	1	441.3865	-70.48572	2.046783E-006	0.00063	8
	48	128	4.734848	182.8573	-502.1369	1	534.3952	-69.99049	2.02099E-006	0.0006028	8
	49	131	3.75601	229.5439	-605.362	1	647.4207	-69.23405	2.202814E-006	0.000644	8
	50	134	3.004808	289.8882	-723.4125	1	779.3336	-68.16287	2.076857E-006	0.0006505	8
	51	138	2.372217	377.9815	-868.5162	1	947.2014	-66.48114	2.10027E-006	0.0005597	8
	52	142	1.878005	499.2878	-1034.691	1	1148.858	-64.24048	2.148716E-006	0.0006094	8
	53	147	1.512097	647.6636	-1201.722	1	1365.138	-61.67771	2.074892E-006	0.000728	8
	54	152	1.201923	853.9438	-1383.915	1	1626.173	-58.32336	2.10313E-006	0.0006129	8
	55	159	0.956633	1111.468	-1556.13	1	1912.303	-54.46363	1.753845E-006	-8.10143E-006	8
