EXPLAIN
TAG	EISPOT
TITLE	LABEL	Potentiostatic EIS	Test Identifier
DATE	LABEL	9/11/2020	Date
TIME	LABEL	22:58:30	Time
NOTES	NOTES	1	Notes...
	
PSTAT	PSTAT	REF3000-16137	Potentiostat
VDC	POTEN	0.00000E+000	T	DC Voltage (V)
FREQINIT	QUANT	3.00000E+005	Initial Freq. (Hz)
FREQFINAL	QUANT	1.00000E+000	Final Freq. (Hz)
PTSPERDEC	QUANT	1.00000E+001	Points/decade
VAC	QUANT	5.00000E+001	AC Voltage (mV rms)
AREA	QUANT	1.00000E+000	Sample Area (cm^2)
SPEED	SELECTOR	2	Optimize for:
ZGUESS	QUANT	1.00000E+003	Estimated Z (ohms)
EOC	QUANT	0	Open Circuit (V)
SEQUENCER	TOGGLE	TRUE	Run as Sequence
PSTATMODEL	IQUANT	5	Pstat Model
PSTATSECTION	LABEL	REF3000-16137	Pstat Section
PSTATSERIALNO	LABEL	16137	Pstat Serial Number
CTRLMODE	IQUANT	1	Control Mode
IESTAB	IQUANT	0	I/E Stability
CASPEED	IQUANT	1	Control Amp Speed
CONVENTION	IQUANT	1	Current Convention
ICHRANGE	IQUANT	2	Ich Range
ICHRANGEMODE	TOGGLE	F	Ich Auto Range
ICHOFFSETENABLE	TOGGLE	T	Ich Offset Enable
ICHOFFSET	QUANT	0	Ich Offset (V)
ICHFILTER	IQUANT	3	Ich Filter
VCHRANGE	IQUANT	2	Vch Range
VCHRANGEMODE	TOGGLE	F	Vch Auto Range
VCHOFFSETENABLE	TOGGLE	T	Vch Offset Enable
VCHOFFSET	QUANT	0	Vch Offset (V)
VCHFILTER	IQUANT	3	Vch Filter
ACHRANGE	IQUANT	2	Ach Range
ACHOFFSETENABLE	TOGGLE	F	Ach Offset Enable
ACHOFFSET	QUANT	0	Ach Offset (V)
ACHFILTER	IQUANT	3	Ach Filter
IERANGELOWERLIMIT	IQUANT	2	I/E Range Lower Limit
IERANGEMODE	TOGGLE	F	I/E AutoRange
IERANGE	IQUANT	11	I/E Range
POSFEEDENABLE	TOGGLE	F	Positive Feedback IR Comp
POSFEEDRESISTANCE	QUANT	0	Positive Feedback Resistance (ohm)
ACHSELECT	IQUANT	0	Ach Select
CABLEID	IQUANT	13	Cable ID
DCCALDATE	LABEL	7/31/2020	DC Calibration Date
ACCALDATE	LABEL	7/31/2020	AC Calibration Date
THERMOSELECT	IQUANT	1	Thermo Select
FRAMEWORKVERSION	QUANT	6.33	Framework Version
INSTRUMENTVERSION	LABEL	3.50	Instrument Version
COMPLIANCEVOLTAGE	IQUANT	0	Compliance Voltage
ZCURVE	TABLE
	Pt	Time	Freq	Zreal	Zimag	Zsig	Zmod	Zphz	Idc	Vdc	IERange
	#	s	Hz	ohm	ohm	V	ohm	°	A	V	#
	0	18	300046.9	295.4377	-4334.407	1	4344.464	-86.10069	5.159532E-005	-3.276682E-005	9
	1	32	238359.4	521.8976	-5305.501	1	5331.108	-84.38194	2.004706E-005	-0.0009671	9
	2	59	189328.1	683.5757	-6554.345	1	6589.895	-84.04594	8.4785E-005	-0.0033422	9
	3	69	150421.9	941.8819	-8140.34	1	8194.649	-83.39991	4.985873E-005	0.0002133	9
	4	77	119484.4	1598.455	-10159.88	1	10284.85	-81.05894	2.567352E-005	0.0079934	8
	5	84	94921.88	2279.656	-12578.66	1	12783.56	-79.72767	-2.362038E-005	0.0051438	8
	6	93	75421.88	3155.286	-15586.06	1	15902.24	-78.55555	-2.453843E-005	0.0109927	8
	7	100	59859.37	3922.774	-19673.69	1	20060.96	-78.72357	-2.694962E-005	0.0097097	8
	8	109	47578.12	5694.333	-23762.51	1	24435.27	-76.52403	2.613294E-005	-0.0089985	8
	9	116	37828.12	7710.681	-29579.54	1	30568.02	-75.3895	-1.600015E-005	0.0006286	8
	10	126	30046.88	10125	-36419.79	1	37801.01	-74.46363	-1.746719E-006	0.007647	8
	11	138	23859.38	13828.81	-43124.29	1	45287.31	-72.22034	-1.968167E-006	0.0076008	8
	12	144	18984.38	23247.19	-53309.89	1	58158.2	-66.43912	-1.576189E-006	0.0213962	7
	13	150	15046.87	30312.42	-63135.8	1	70035.51	-64.35365	7.378553E-006	-0.023705	7
	14	155	11953.13	42339.6	-75532.95	1	86590.23	-60.72742	-1.379859E-006	-0.01267	7
	15	160	9515.62	55005.36	-85589.57	1	101740.7	-57.27259	-7.11754E-006	0.0232183	7
	16	166	7546.875	61815.51	-97156	1	115154	-57.53343	1.692211E-005	0.0001853	8
	17	173	5928.309	93138.8	-102837.4	1	138745.7	-47.83318	-3.661326E-006	0.0249316	7
	18	180	4733.456	138342.9	-104403.7	1	173317.3	-37.04089	1.778448E-007	-0.0208408	6
	19	185	3796.875	159606	-103614.6	1	190289.4	-32.99123	-7.277387E-007	0.0226162	6
	20	189	2987.132	182580.3	-96958.9	1	206728.3	-27.97046	2.151872E-007	0.0102244	6
	21	193	2390.625	202573.1	-92352.26	1	222631.5	-24.50805	-7.140813E-007	0.0172066	6
	22	198	1884.191	222954.4	-90100.56	1	240472	-22.00467	-3.965913E-007	0.025053	6
	23	202	1516.544	271791.2	-109096.5	1	292869.4	-21.87045	-2.049709E-005	0.0028405	8
	24	209	1193.986	226284.2	-172169.2	1	284335.7	-37.26583	1.731372E-005	0.0002759	8
	25	217	946.5144	243968.8	-8564.634	1	244119.1	-2.010568	-7.097671E-006	0.0231569	7
	26	223	751.7689	274175.9	-66434.84	1	282110	-13.62067	2.215458E-005	-0.0096406	8
	27	230	597.4265	289978.1	-19392.09	1	290625.8	-3.825921	-1.092777E-006	-0.0051499	8
	28	236	477.4305	318956.1	-42938.58	1	321833.3	-7.66719	-1.068202E-008	0.0006764	6
	29	239	376.6741	325921.2	-35435.22	1	327841.8	-6.205013	-1.021633E-008	0.0005948	6
	30	242	298.2954	331903.3	-28344.49	1	333111.4	-4.881206	-9.925564E-009	0.0005919	6
	31	244	237.7717	338031.2	-24580.32	1	338923.7	-4.159007	-1.003243E-008	0.000595	6
	32	247	189.0121	343793.8	-20660.31	1	344414	-3.439057	-1.005721E-008	0.0006468	6
	33	249	150.2404	349948.4	-17160.91	1	350368.9	-2.807445	-1.07622E-008	0.0007151	6
	34	252	119.1737	353269.9	-8264.338	1	353366.6	-1.340124	-1.07253E-008	0.0006589	6
	35	254	95.0169	360336.7	-11292.97	1	360513.6	-1.795065	-1.05394E-008	0.000685	6
	36	257	75.60484	366969.3	-9423.317	1	367090.3	-1.470961	-9.886075E-009	0.0006133	6
	37	259	54.50582	370076.5	-780.3384	1	370077.3	-0.120813	-1.672027E-009	0.0005914	5
	38	262	45.95588	378408.9	-1370.178	1	378411.4	-0.207461	-1.669032E-009	0.0006257	5
	39	264	37.20238	383272.6	-538.0002	1	383273	-0.0804261	-1.74583E-009	0.0006666	5
	40	266	30.04808	389269.2	-1157.599	1	389270.9	-0.1703842	-1.784184E-009	0.0006208	5
	41	269	23.91582	395266.3	-817.0568	1	395267.2	-0.1184362	-1.611596E-009	0.0006438	5
	42	272	18.60119	401199.1	-673.097	1	401199.7	-0.0961258	-1.695483E-009	0.0006331	5
	43	274	15.02404	406827.8	-1296.493	1	406829.8	-0.1825916	-1.60547E-009	0.0006678	5
	44	277	12.01923	412621.3	-1618.561	1	412624.5	-0.224749	-1.408539E-009	0.0006746	5
	45	279	9.450605	418757.3	-1782.605	1	418761.1	-0.2439005	-1.644361E-009	0.0007149	5
	46	282	7.512019	425731.2	-2282.594	1	425737.3	-0.3071933	-1.776827E-009	0.000666	5
	47	285	5.978954	434795.1	-2536.302	1	434802.5	-0.3342212	-1.500207E-009	0.0006103	5
	48	289	4.734848	444893.3	-2974.876	1	444903.3	-0.383115	-1.719252E-009	0.0006157	5
	49	293	3.75601	457054.2	-3512.793	1	457067.7	-0.440351	-2.031025E-009	0.0006619	5
	50	298	3.004808	473412.4	-4295.351	1	473431.9	-0.5198401	-2.5041E-009	0.0006281	5
	51	305	2.372217	488534.1	-4825.498	1	488557.9	-0.5659209	-1.729666E-009	0.0006988	5
	52	309	1.878005	501669	-6248.872	1	501707.9	-0.7136488	-2.924565E-009	0.0006605	5
	53	314	1.512097	517291.6	-7767.787	1	517349.9	-0.8603038	-3.197867E-009	0.000664	5
	54	319	1.201923	535665.3	-9391.852	1	535747.6	-1.004467	-2.276846E-009	0.0005922	5
	55	325	0.956633	557103.6	-11754.79	1	557227.6	-1.208751	-4.203716E-009	-8.739815E-006	5
