EXPLAIN
TAG	EISPOT
TITLE	LABEL	Potentiostatic EIS	Test Identifier
DATE	LABEL	9/11/2020	Date
TIME	LABEL	21:39:50	Time
NOTES	NOTES	1	Notes...
	
PSTAT	PSTAT	REF3000-16137	Potentiostat
VDC	POTEN	0.00000E+000	T	DC Voltage (V)
FREQINIT	QUANT	3.00000E+005	Initial Freq. (Hz)
FREQFINAL	QUANT	1.00000E+000	Final Freq. (Hz)
PTSPERDEC	QUANT	1.00000E+001	Points/decade
VAC	QUANT	5.00000E+001	AC Voltage (mV rms)
AREA	QUANT	1.00000E+000	Sample Area (cm^2)
SPEED	SELECTOR	2	Optimize for:
ZGUESS	QUANT	1.00000E+003	Estimated Z (ohms)
EOC	QUANT	0	Open Circuit (V)
SEQUENCER	TOGGLE	TRUE	Run as Sequence
PSTATMODEL	IQUANT	5	Pstat Model
PSTATSECTION	LABEL	REF3000-16137	Pstat Section
PSTATSERIALNO	LABEL	16137	Pstat Serial Number
CTRLMODE	IQUANT	1	Control Mode
IESTAB	IQUANT	0	I/E Stability
CASPEED	IQUANT	1	Control Amp Speed
CONVENTION	IQUANT	1	Current Convention
ICHRANGE	IQUANT	2	Ich Range
ICHRANGEMODE	TOGGLE	F	Ich Auto Range
ICHOFFSETENABLE	TOGGLE	T	Ich Offset Enable
ICHOFFSET	QUANT	0	Ich Offset (V)
ICHFILTER	IQUANT	3	Ich Filter
VCHRANGE	IQUANT	2	Vch Range
VCHRANGEMODE	TOGGLE	F	Vch Auto Range
VCHOFFSETENABLE	TOGGLE	T	Vch Offset Enable
VCHOFFSET	QUANT	0	Vch Offset (V)
VCHFILTER	IQUANT	3	Vch Filter
ACHRANGE	IQUANT	2	Ach Range
ACHOFFSETENABLE	TOGGLE	F	Ach Offset Enable
ACHOFFSET	QUANT	0	Ach Offset (V)
ACHFILTER	IQUANT	3	Ach Filter
IERANGELOWERLIMIT	IQUANT	2	I/E Range Lower Limit
IERANGEMODE	TOGGLE	F	I/E AutoRange
IERANGE	IQUANT	11	I/E Range
POSFEEDENABLE	TOGGLE	F	Positive Feedback IR Comp
POSFEEDRESISTANCE	QUANT	0	Positive Feedback Resistance (ohm)
ACHSELECT	IQUANT	0	Ach Select
CABLEID	IQUANT	13	Cable ID
DCCALDATE	LABEL	7/31/2020	DC Calibration Date
ACCALDATE	LABEL	7/31/2020	AC Calibration Date
THERMOSELECT	IQUANT	1	Thermo Select
FRAMEWORKVERSION	QUANT	6.33	Framework Version
INSTRUMENTVERSION	LABEL	3.50	Instrument Version
COMPLIANCEVOLTAGE	IQUANT	0	Compliance Voltage
ZCURVE	TABLE
	Pt	Time	Freq	Zreal	Zimag	Zsig	Zmod	Zphz	Idc	Vdc	IERange
	#	s	Hz	ohm	ohm	V	ohm	°	A	V	#
	0	9	300046.9	6.643975	2.309701	1	7.033998	19.16942	0.0001353	0.0005525	10
	1	12	238359.4	6.626963	1.824717	1	6.87359	15.39475	0.0002135	4.333132E-005	10
	2	16	189328.1	6.613961	1.428596	1	6.766488	12.18847	0.0003683	-0.0011958	10
	3	18	150421.9	6.614114	1.123943	1	6.70893	9.64421	-0.000538	0.001898	10
	4	21	119484.4	6.62097	0.8710232	1	6.678018	7.494522	3.983034E-005	-0.0002133	10
	5	23	94921.88	6.631499	0.6880934	1	6.667102	5.923889	-6.770792E-005	0.0003879	10
	6	26	75421.88	6.635422	0.5089749	1	6.654914	4.386325	5.05735E-005	0.0001236	10
	7	28	59859.37	6.645035	0.3557192	1	6.654549	3.064209	0.0001517	0.000401	10
	8	31	47578.12	6.655866	0.2243365	1	6.659645	1.930428	-6.842663E-005	0.0010231	10
	9	33	37828.12	6.669377	0.1065388	1	6.670228	0.915184	6.008057E-005	0.0007822	10
	10	36	30046.88	6.684514	-0.0014067	1	6.684514	-0.0120578	6.317754E-006	0.000958	10
	11	38	23859.38	6.697053	-0.1089005	1	6.697938	-0.9316019	0.0001004	0.0001318	10
	12	41	18984.38	6.712059	-0.2183212	1	6.715609	-1.862987	0.0001912	0.0002663	10
	13	43	15046.87	6.730223	-0.3389042	1	6.73875	-2.882727	0.0001772	9.38848E-005	10
	14	45	11953.13	6.750986	-0.4774444	1	6.767848	-4.045347	-0.0001156	0.0011408	10
	15	47	9515.62	6.770105	-0.6329818	1	6.799631	-5.341433	5.943173E-005	0.0007505	10
	16	50	7546.875	6.796369	-0.8232298	1	6.846045	-6.906471	-0.0001663	0.0011838	10
	17	52	5928.309	6.826895	-1.06313	1	6.909178	-8.851386	-0.000106	0.001154	10
	18	54	4733.456	6.860602	-1.338994	1	6.990047	-11.04368	3.710514E-006	0.0009428	10
	19	57	3796.875	6.898715	-1.663262	1	7.096387	-13.55517	9.473434E-005	0.0001606	10
	20	59	2987.132	6.957427	-2.097855	1	7.266828	-16.7795	4.279324E-005	0.0002401	10
	21	61	2390.625	7.019677	-2.600727	1	7.485963	-20.32921	-2.7569E-005	0.0004099	10
	22	64	1884.191	7.107999	-3.261071	1	7.820374	-24.64513	-0.0001763	0.0011864	10
	23	66	1516.544	7.203242	-4.009818	1	8.244109	-29.10331	-0.0001743	0.0011838	10
	24	68	1193.986	7.343947	-5.019846	1	8.89564	-34.35398	6.499137E-005	0.0007701	10
	25	71	946.5144	7.522148	-6.23235	1	9.76857	-39.64288	0.000161	0.0003764	10
	26	73	751.7689	7.748256	-7.722151	1	10.93925	-44.90332	-0.0001806	0.001023	10
	27	75	597.4265	8.030219	-9.55307	1	12.4798	-49.94991	-0.0001753	0.001065	10
	28	78	477.4305	8.403314	-11.73174	1	14.43085	-54.38639	-2.045126E-006	0.0006609	10
	29	80	376.6741	8.900664	-14.56263	1	17.06728	-58.56677	-2.222233E-006	0.0006589	10
	30	82	298.2954	9.5306	-17.98992	1	20.35852	-62.08649	-1.526153E-006	0.0006549	10
	31	85	237.7717	10.30943	-22.06352	1	24.3533	-64.95514	-1.635445E-006	0.000652	10
	32	87	189.0121	11.30629	-27.0966	1	29.36082	-67.35123	-1.70408E-006	0.0006474	10
	33	89	150.2404	12.55939	-33.23481	1	35.52873	-69.29848	-1.964389E-006	0.0006491	10
	34	92	119.1737	14.13142	-40.75999	1	43.14017	-70.87865	1.749721E-006	5.203694E-005	9
	35	94	95.0169	16.08226	-49.77853	1	52.31195	-72.09559	1.732494E-006	4.440061E-005	9
	36	97	75.60484	18.5529	-60.86192	1	63.62691	-73.0469	1.614016E-006	4.601781E-005	9
	37	99	54.50582	23.27624	-81.04943	1	84.32552	-73.97668	1.125359E-006	0.0001031	9
	38	102	45.95588	26.46869	-94.05785	1	97.7112	-74.28294	1.677366E-006	5.115799E-005	9
	39	104	37.20238	31.3268	-112.9857	1	117.2481	-74.50325	1.576883E-006	5.410724E-005	9
	40	106	30.04808	37.4997	-135.8284	1	140.9098	-74.56615	1.574768E-006	5.150988E-005	9
	41	109	23.91582	45.78721	-164.9504	1	171.1873	-74.48632	1.636276E-006	4.586906E-005	9
	42	111	18.60119	57.56438	-203.9684	1	211.9357	-74.23976	1.468787E-006	5.115797E-005	9
	43	113	15.02404	70.23756	-243.5772	1	253.5018	-73.91463	1.605234E-006	6.165281E-005	9
	44	116	12.01923	86.6983	-292.5713	1	305.1468	-73.49374	1.849822E-006	5.666588E-005	9
	45	118	9.450605	108.3333	-355.4161	1	371.5598	-73.04841	1.864622E-006	4.871659E-005	9
	46	121	7.512019	133.0618	-425.0602	1	445.4005	-72.61768	1.086985E-006	0.0006864	8
	47	123	5.978954	162.5397	-509.1354	1	534.4512	-72.2945	1.081479E-006	0.0006269	8
	48	126	4.734848	198.1818	-611.9442	1	643.2353	-72.05514	1.103655E-006	0.0006587	8
	49	130	3.75601	239.7672	-735.0448	1	773.1618	-71.93398	1.003671E-006	0.0006137	8
	50	133	3.004808	286.6651	-878.2057	1	923.8085	-71.92221	8.455852E-007	0.0006168	8
	51	137	2.372217	347.6527	-1062.481	1	1117.913	-71.88148	8.486191E-007	0.0006459	8
	52	141	1.878005	424.4078	-1290.638	1	1358.627	-71.79729	7.965074E-007	0.0006374	8
	53	146	1.512097	513.8109	-1547.245	1	1630.327	-71.62964	8.332133E-007	0.0005275	8
	54	151	1.201923	642.479	-1876.979	1	1983.893	-71.10423	8.478182E-007	0.0006423	8
	55	157	0.956633	814.918	-2270.875	1	2412.667	-70.25915	9.739153E-007	-1.519092E-005	8
