EXPLAIN
TAG	EISPOT
TITLE	LABEL	Potentiostatic EIS	Test Identifier
DATE	LABEL	9/11/2020	Date
TIME	LABEL	22:01:55	Time
NOTES	NOTES	1	Notes...
	
PSTAT	PSTAT	REF3000-16137	Potentiostat
VDC	POTEN	0.00000E+000	T	DC Voltage (V)
FREQINIT	QUANT	3.00000E+005	Initial Freq. (Hz)
FREQFINAL	QUANT	1.00000E+000	Final Freq. (Hz)
PTSPERDEC	QUANT	1.00000E+001	Points/decade
VAC	QUANT	5.00000E+001	AC Voltage (mV rms)
AREA	QUANT	1.00000E+000	Sample Area (cm^2)
SPEED	SELECTOR	2	Optimize for:
ZGUESS	QUANT	1.00000E+003	Estimated Z (ohms)
EOC	QUANT	0	Open Circuit (V)
SEQUENCER	TOGGLE	TRUE	Run as Sequence
PSTATMODEL	IQUANT	5	Pstat Model
PSTATSECTION	LABEL	REF3000-16137	Pstat Section
PSTATSERIALNO	LABEL	16137	Pstat Serial Number
CTRLMODE	IQUANT	1	Control Mode
IESTAB	IQUANT	0	I/E Stability
CASPEED	IQUANT	1	Control Amp Speed
CONVENTION	IQUANT	1	Current Convention
ICHRANGE	IQUANT	2	Ich Range
ICHRANGEMODE	TOGGLE	F	Ich Auto Range
ICHOFFSETENABLE	TOGGLE	T	Ich Offset Enable
ICHOFFSET	QUANT	0	Ich Offset (V)
ICHFILTER	IQUANT	3	Ich Filter
VCHRANGE	IQUANT	2	Vch Range
VCHRANGEMODE	TOGGLE	F	Vch Auto Range
VCHOFFSETENABLE	TOGGLE	T	Vch Offset Enable
VCHOFFSET	QUANT	0	Vch Offset (V)
VCHFILTER	IQUANT	3	Vch Filter
ACHRANGE	IQUANT	2	Ach Range
ACHOFFSETENABLE	TOGGLE	F	Ach Offset Enable
ACHOFFSET	QUANT	0	Ach Offset (V)
ACHFILTER	IQUANT	3	Ach Filter
IERANGELOWERLIMIT	IQUANT	2	I/E Range Lower Limit
IERANGEMODE	TOGGLE	F	I/E AutoRange
IERANGE	IQUANT	11	I/E Range
POSFEEDENABLE	TOGGLE	F	Positive Feedback IR Comp
POSFEEDRESISTANCE	QUANT	0	Positive Feedback Resistance (ohm)
ACHSELECT	IQUANT	0	Ach Select
CABLEID	IQUANT	13	Cable ID
DCCALDATE	LABEL	7/31/2020	DC Calibration Date
ACCALDATE	LABEL	7/31/2020	AC Calibration Date
THERMOSELECT	IQUANT	1	Thermo Select
FRAMEWORKVERSION	QUANT	6.33	Framework Version
INSTRUMENTVERSION	LABEL	3.50	Instrument Version
COMPLIANCEVOLTAGE	IQUANT	0	Compliance Voltage
ZCURVE	TABLE
	Pt	Time	Freq	Zreal	Zimag	Zsig	Zmod	Zphz	Idc	Vdc	IERange
	#	s	Hz	ohm	ohm	V	ohm	°	A	V	#
	0	8	300046.9	19.46771	2.03649	1	19.57394	5.971912	-1.630787E-005	0.0004116	10
	1	11	238359.4	19.53571	1.608338	1	19.6018	4.706439	1.645427E-005	0.0003054	10
	2	15	189328.1	19.5881	1.269258	1	19.62918	3.707435	-5.362601E-005	0.0005396	10
	3	17	150421.9	19.61489	0.983157	1	19.63951	2.869435	6.572052E-005	0.0004511	10
	4	20	119484.4	19.68445	0.7640263	1	19.69927	2.222745	-5.222434E-005	0.0006796	10
	5	22	94921.88	19.72252	0.5878229	1	19.73128	1.707176	2.565156E-005	0.0006246	10
	6	25	75421.88	19.77826	0.4211937	1	19.78274	1.219975	2.364076E-005	0.0005772	10
	7	27	59859.37	19.83938	0.281472	1	19.84137	0.8128318	-1.692304E-006	0.0006805	10
	8	30	47578.12	19.89456	0.1612889	1	19.89521	0.4644973	-1.272422E-006	0.0005913	10
	9	32	37828.12	19.95353	0.046125	1	19.95358	0.1324458	2.362323E-005	0.000599	10
	10	35	30046.88	20.01549	-0.0608311	1	20.01558	-0.174133	2.54883E-005	0.0006512	10
	11	37	23859.38	20.07343	-0.1713325	1	20.07416	-0.4890241	2.052074E-005	0.000596	10
	12	40	18984.38	20.13219	-0.2875933	1	20.13425	-0.8184285	-6.226308E-006	0.0006303	10
	13	42	15046.87	20.19428	-0.415926	1	20.19856	-1.17991	-2.236873E-005	0.0006597	10
	14	44	11953.13	20.25537	-0.5623472	1	20.26318	-1.590287	-1.298123E-005	0.0007234	10
	15	46	9515.62	20.32103	-0.7362163	1	20.33437	-2.074877	-2.664495E-005	0.0007069	10
	16	49	7546.875	20.39279	-0.9457262	1	20.41471	-2.655219	-2.33913E-005	0.0006638	10
	17	51	5928.309	20.46827	-1.2146	1	20.50427	-3.395985	-2.459199E-005	0.0007147	10
	18	53	4733.456	20.54405	-1.518122	1	20.60007	-4.226244	-2.701757E-005	0.000671	10
	19	56	3796.875	20.62972	-1.887246	1	20.71586	-5.22698	1.415721E-005	0.0005905	10
	20	58	2987.132	20.7265	-2.379925	1	20.86269	-6.550313	2.362284E-005	0.0006426	10
	21	60	2390.625	20.831	-2.943243	1	21.0379	-8.042171	-2.592156E-005	0.0006991	10
	22	63	1884.191	20.95412	-3.692291	1	21.27694	-9.99341	5.428238E-006	0.0005946	10
	23	65	1516.544	21.09016	-4.541815	1	21.57366	-12.15317	-3.759277E-006	0.0006087	10
	24	67	1193.986	21.26264	-5.699717	1	22.01333	-15.00606	-2.665219E-005	0.0006907	10
	25	70	946.5144	21.46599	-7.104295	1	22.61106	-18.31226	-3.022588E-005	0.0006531	10
	26	72	751.7689	21.70871	-8.823655	1	23.43342	-22.11962	-1.808605E-005	0.0006491	10
	27	74	597.4265	22.01021	-10.95323	1	24.58501	-26.45692	1.936932E-005	0.0005933	10
	28	77	477.4305	22.38525	-13.51901	1	26.15078	-31.12883	-2.724591E-006	0.0006507	10
	29	79	376.6741	22.87655	-16.87065	1	28.42456	-36.40747	-2.530611E-006	0.0006451	10
	30	81	298.2954	23.49505	-20.96041	1	31.48581	-41.73679	-2.376641E-006	0.000657	10
	31	84	237.7717	24.26638	-25.85981	1	35.46248	-46.82072	-2.205466E-006	0.0006554	10
	32	86	189.0121	25.23067	-31.91501	1	40.68359	-51.67159	1.319676E-006	4.743758E-005	9
	33	88	150.2404	26.50178	-39.39174	1	47.47688	-56.06832	1.39301E-006	5.21282E-005	9
	34	91	119.1737	28.14075	-48.65754	1	56.20906	-59.95736	1.347998E-006	5.68805E-005	9
	35	93	95.0169	30.18163	-59.74602	1	66.93667	-63.19867	1.340896E-006	5.377507E-005	9
	36	96	75.60484	32.78719	-73.40899	1	80.39825	-65.93268	1.241461E-006	5.286919E-005	9
	37	98	54.50582	37.71288	-98.3699	1	105.3513	-69.02427	1.32964E-006	4.890244E-005	9
	38	101	45.95588	41.02164	-114.5124	1	121.6383	-70.29102	1.422699E-006	5.415797E-005	9
	39	103	37.20238	45.94421	-138.1002	1	145.5422	-71.59836	1.312453E-006	6.245686E-005	9
	40	105	30.04808	52.0569	-166.7838	1	174.7191	-72.66571	1.295561E-006	5.535066E-005	9
	41	108	23.91582	60.19887	-203.9115	1	212.6118	-73.55231	1.196154E-006	5.222842E-005	9
	42	110	18.60119	71.55266	-254.2446	1	264.1214	-74.28168	1.274663E-006	5.709529E-005	9
	43	113	15.02404	83.75231	-306.5654	1	317.8	-74.71991	1.194212E-006	5.148393E-005	9
	44	115	12.01923	99.8885	-372.3314	1	385.4976	-74.98241	1.49636E-006	5.443909E-005	9
	45	117	9.450605	121.6506	-456.7593	1	472.6816	-75.08637	6.998551E-007	0.0006383	8
	46	120	7.512019	148.5579	-556.6726	1	576.1544	-75.05784	5.187631E-007	0.000646	8
	47	122	5.978954	182.6132	-675.791	1	700.0294	-74.8786	4.942358E-007	0.0006326	8
	48	125	4.734848	227.2711	-823.1184	1	853.9181	-74.56464	5.840993E-007	0.0006273	8
	49	129	3.75601	282.3046	-997.917	1	1037.08	-74.20412	5.815946E-007	0.0006404	8
	50	132	3.004808	347.6459	-1197.288	1	1246.738	-73.80876	6.295908E-007	0.0006074	8
	51	136	2.372217	434.224	-1449.996	1	1513.617	-73.32884	5.823989E-007	0.0005565	8
	52	140	1.878005	533.3826	-1748.94	1	1828.466	-73.03962	6.311188E-007	0.0006354	8
	53	145	1.512097	640.8143	-2072.495	1	2169.304	-72.81842	5.762557E-007	0.000625	8
	54	150	1.201923	776.2521	-2493.588	1	2611.618	-72.70867	6.294363E-007	0.0006471	8
	55	156	0.956633	928.9544	-2990.886	1	3131.829	-72.74546	5.816912E-007	-1.022151E-005	8
