EXPLAIN
TAG	EISPOT
TITLE	LABEL	Potentiostatic EIS	Test Identifier
DATE	LABEL	9/11/2020	Date
TIME	LABEL	22:15:43	Time
NOTES	NOTES	1	Notes...
	
PSTAT	PSTAT	REF3000-16137	Potentiostat
VDC	POTEN	0.00000E+000	T	DC Voltage (V)
FREQINIT	QUANT	3.00000E+005	Initial Freq. (Hz)
FREQFINAL	QUANT	1.00000E+000	Final Freq. (Hz)
PTSPERDEC	QUANT	1.00000E+001	Points/decade
VAC	QUANT	5.00000E+001	AC Voltage (mV rms)
AREA	QUANT	1.00000E+000	Sample Area (cm^2)
SPEED	SELECTOR	2	Optimize for:
ZGUESS	QUANT	1.00000E+003	Estimated Z (ohms)
EOC	QUANT	0	Open Circuit (V)
SEQUENCER	TOGGLE	TRUE	Run as Sequence
PSTATMODEL	IQUANT	5	Pstat Model
PSTATSECTION	LABEL	REF3000-16137	Pstat Section
PSTATSERIALNO	LABEL	16137	Pstat Serial Number
CTRLMODE	IQUANT	1	Control Mode
IESTAB	IQUANT	0	I/E Stability
CASPEED	IQUANT	1	Control Amp Speed
CONVENTION	IQUANT	1	Current Convention
ICHRANGE	IQUANT	2	Ich Range
ICHRANGEMODE	TOGGLE	F	Ich Auto Range
ICHOFFSETENABLE	TOGGLE	T	Ich Offset Enable
ICHOFFSET	QUANT	0	Ich Offset (V)
ICHFILTER	IQUANT	3	Ich Filter
VCHRANGE	IQUANT	2	Vch Range
VCHRANGEMODE	TOGGLE	F	Vch Auto Range
VCHOFFSETENABLE	TOGGLE	T	Vch Offset Enable
VCHOFFSET	QUANT	0	Vch Offset (V)
VCHFILTER	IQUANT	3	Vch Filter
ACHRANGE	IQUANT	2	Ach Range
ACHOFFSETENABLE	TOGGLE	F	Ach Offset Enable
ACHOFFSET	QUANT	0	Ach Offset (V)
ACHFILTER	IQUANT	3	Ach Filter
IERANGELOWERLIMIT	IQUANT	2	I/E Range Lower Limit
IERANGEMODE	TOGGLE	F	I/E AutoRange
IERANGE	IQUANT	11	I/E Range
POSFEEDENABLE	TOGGLE	F	Positive Feedback IR Comp
POSFEEDRESISTANCE	QUANT	0	Positive Feedback Resistance (ohm)
ACHSELECT	IQUANT	0	Ach Select
CABLEID	IQUANT	13	Cable ID
DCCALDATE	LABEL	7/31/2020	DC Calibration Date
ACCALDATE	LABEL	7/31/2020	AC Calibration Date
THERMOSELECT	IQUANT	1	Thermo Select
FRAMEWORKVERSION	QUANT	6.33	Framework Version
INSTRUMENTVERSION	LABEL	3.50	Instrument Version
COMPLIANCEVOLTAGE	IQUANT	0	Compliance Voltage
ZCURVE	TABLE
	Pt	Time	Freq	Zreal	Zimag	Zsig	Zmod	Zphz	Idc	Vdc	IERange
	#	s	Hz	ohm	ohm	V	ohm	°	A	V	#
	0	7	300046.9	56.8801	2.216861	1	56.92328	2.231932	-4.42247E-005	0.0003345	9
	1	10	238359.4	57.08296	1.643996	1	57.10663	1.64967	3.897246E-006	-0.001427	9
	2	14	189328.1	57.35949	1.264241	1	57.37342	1.262633	7.218151E-006	-0.0011845	9
	3	16	150421.9	57.57151	0.983833	1	57.57992	0.979026	-8.249745E-008	0.0006554	9
	4	19	119484.4	57.84952	0.7193754	1	57.85399	0.7124528	-8.098932E-006	0.0006181	9
	5	21	94921.88	58.1399	0.7728431	1	58.14504	0.7615775	1.066725E-005	-0.0006031	9
	6	24	75421.88	58.34808	0.5399973	1	58.35057	0.5302434	-8.70985E-006	-5.41459E-005	9
	7	26	59859.37	58.54782	0.3481449	1	58.54885	0.3406959	-1.350102E-005	0.0003301	9
	8	29	47578.12	58.78545	0.1776634	1	58.78572	0.1731608	1.478805E-005	-0.0005342	9
	9	31	37828.12	59.03037	0.0187631	1	59.03037	0.0182117	-1.734558E-005	0.0004857	9
	10	34	30046.88	59.27841	-0.1064777	1	59.27851	-0.1029163	-1.528856E-005	0.0003766	9
	11	36	23859.38	59.53032	-0.2094571	1	59.53069	-0.201594	-9.146055E-006	0.0006689	9
	12	38	18984.38	59.75217	-0.3569486	1	59.75323	-0.3422705	1.731758E-005	-0.0001341	9
	13	41	15046.87	59.98691	-0.4826655	1	59.98885	-0.4610023	1.10045E-005	0.000128	9
	14	43	11953.13	60.20623	-0.623499	1	60.20946	-0.593337	-1.755967E-005	0.0006371	9
	15	45	9515.62	60.46266	-0.8406062	1	60.4685	-0.7965261	-1.368303E-005	0.0001607	9
	16	48	7546.875	60.6763	-1.077367	1	60.68586	-1.017236	2.10183E-005	-0.0002852	9
	17	50	5928.309	60.96711	-1.378755	1	60.9827	-1.295508	-8.674372E-006	1.628689E-005	9
	18	52	4733.456	61.19145	-1.698514	1	61.21502	-1.589972	-1.762255E-005	0.0005515	9
	19	55	3796.875	61.42781	-2.108311	1	61.46398	-1.965721	6.461267E-006	-0.0004185	9
	20	57	2987.132	61.72789	-2.660887	1	61.78521	-2.468305	2.076378E-005	-0.0005085	9
	21	59	2390.625	62.02046	-3.277758	1	62.10702	-3.025246	-1.666294E-005	0.0004509	9
	22	62	1884.191	62.29606	-4.05442	1	62.42786	-3.723734	-1.538656E-005	0.0003633	9
	23	64	1516.544	62.63807	-5.033981	1	62.84002	-4.594767	-1.318612E-005	0.0001871	9
	24	66	1193.986	62.98973	-6.31822	1	63.30581	-5.727926	1.705901E-005	-0.0001369	9
	25	69	946.5144	63.38018	-7.866239	1	63.86646	-7.074914	-9.80311E-006	0.0006998	9
	26	71	751.7689	63.76997	-9.75111	1	64.51118	-8.693799	-1.45231E-005	0.0007013	9
	27	73	597.4265	64.25684	-12.14301	1	65.39414	-10.70134	-8.761629E-006	1.898217E-005	9
	28	76	477.4305	64.76154	-14.99467	1	66.47478	-13.03636	1.386328E-006	5.065048E-005	9
	29	78	376.6741	65.39056	-18.75142	1	68.02604	-16.00079	1.233562E-006	5.340175E-005	9
	30	80	298.2954	66.12813	-23.3638	1	70.13413	-19.45888	1.350046E-006	5.460854E-005	9
	31	82	237.7717	67.00684	-28.92261	1	72.98242	-23.3468	1.363995E-006	5.341266E-005	9
	32	85	189.0121	68.08706	-35.87543	1	76.96034	-27.78499	9.270364E-007	0.0001105	9
	33	87	150.2404	69.42234	-44.4732	1	82.4459	-32.64436	1.386633E-006	4.594983E-005	9
	34	90	119.1737	71.10686	-55.193	1	90.01363	-37.81854	1.328562E-006	5.658755E-005	9
	35	92	95.0169	73.18584	-68.10688	1	99.9736	-42.94131	1.331354E-006	5.704531E-005	9
	36	95	75.60484	75.83984	-84.12465	1	113.2636	-47.96479	1.318489E-006	5.266583E-005	9
	37	97	54.50582	80.8129	-113.5972	1	139.4097	-54.57201	1.281204E-006	5.18517E-005	9
	38	100	45.95588	84.28391	-132.7757	1	157.2679	-57.59327	1.016715E-006	0.0001093	9
	39	102	37.20238	89.44627	-160.8759	1	184.0698	-60.92614	1.298488E-006	5.05818E-005	9
	40	104	30.04808	95.9213	-195.1772	1	217.4742	-63.82784	1.275183E-006	5.241457E-005	9
	41	107	23.91582	104.597	-239.6376	1	261.4703	-66.41969	1.178499E-006	4.854079E-005	9
	42	109	18.60119	116.6583	-300.0391	1	321.9202	-68.7534	1.383011E-006	5.576711E-005	9
	43	111	15.02404	129.5894	-362.722	1	385.1761	-70.33974	1.376358E-006	4.839773E-005	9
	44	114	12.01923	145.6797	-440.2228	1	463.7011	-71.68945	4.069814E-007	0.0006247	8
	45	116	9.450605	168.1049	-544.3536	1	569.7194	-72.83849	4.282946E-007	0.0006252	8
	46	119	7.512019	194.6523	-666.3879	1	694.235	-73.71688	2.863597E-007	0.0006953	8
	47	121	5.978954	228.0823	-813.8517	1	845.2078	-74.34445	2.704039E-007	0.0006313	8
	48	124	4.734848	271.4958	-999.068	1	1035.3	-74.79707	3.026489E-007	0.0006805	8
	49	128	3.75601	325.4654	-1222.822	1	1265.394	-75.09573	3.148573E-007	0.0006297	8
	50	131	3.004808	391.663	-1483.146	1	1533.989	-75.20726	3.763519E-007	0.0006052	8
	51	135	2.372217	481.1553	-1820.529	1	1883.039	-75.19556	3.389397E-007	0.0005541	8
	52	139	1.878005	594.3127	-2223.139	1	2301.207	-75.03308	3.599004E-007	0.0006401	8
	53	144	1.512097	727.91	-2667.502	1	2765.035	-74.73669	3.384782E-007	0.0005498	8
	54	149	1.201923	901.543	-3242.924	1	3365.908	-74.46391	3.452184E-007	0.0006557	8
	55	155	0.956633	1115.385	-3922.13	1	4077.645	-74.12518	3.120263E-007	-9.263535E-006	8
