EXPLAIN
TAG	EISPOT
TITLE	LABEL	Potentiostatic EIS	Test Identifier
DATE	LABEL	9/11/2020	Date
TIME	LABEL	23:10:09	Time
NOTES	NOTES	1	Notes...
	
PSTAT	PSTAT	REF3000-16137	Potentiostat
VDC	POTEN	0.00000E+000	T	DC Voltage (V)
FREQINIT	QUANT	3.00000E+005	Initial Freq. (Hz)
FREQFINAL	QUANT	1.00000E+000	Final Freq. (Hz)
PTSPERDEC	QUANT	1.00000E+001	Points/decade
VAC	QUANT	5.00000E+001	AC Voltage (mV rms)
AREA	QUANT	1.00000E+000	Sample Area (cm^2)
SPEED	SELECTOR	2	Optimize for:
ZGUESS	QUANT	1.00000E+003	Estimated Z (ohms)
EOC	QUANT	0	Open Circuit (V)
SEQUENCER	TOGGLE	TRUE	Run as Sequence
PSTATMODEL	IQUANT	5	Pstat Model
PSTATSECTION	LABEL	REF3000-16137	Pstat Section
PSTATSERIALNO	LABEL	16137	Pstat Serial Number
CTRLMODE	IQUANT	1	Control Mode
IESTAB	IQUANT	0	I/E Stability
CASPEED	IQUANT	1	Control Amp Speed
CONVENTION	IQUANT	1	Current Convention
ICHRANGE	IQUANT	2	Ich Range
ICHRANGEMODE	TOGGLE	F	Ich Auto Range
ICHOFFSETENABLE	TOGGLE	T	Ich Offset Enable
ICHOFFSET	QUANT	0	Ich Offset (V)
ICHFILTER	IQUANT	3	Ich Filter
VCHRANGE	IQUANT	2	Vch Range
VCHRANGEMODE	TOGGLE	F	Vch Auto Range
VCHOFFSETENABLE	TOGGLE	T	Vch Offset Enable
VCHOFFSET	QUANT	0	Vch Offset (V)
VCHFILTER	IQUANT	3	Vch Filter
ACHRANGE	IQUANT	2	Ach Range
ACHOFFSETENABLE	TOGGLE	F	Ach Offset Enable
ACHOFFSET	QUANT	0	Ach Offset (V)
ACHFILTER	IQUANT	3	Ach Filter
IERANGELOWERLIMIT	IQUANT	2	I/E Range Lower Limit
IERANGEMODE	TOGGLE	F	I/E AutoRange
IERANGE	IQUANT	11	I/E Range
POSFEEDENABLE	TOGGLE	F	Positive Feedback IR Comp
POSFEEDRESISTANCE	QUANT	0	Positive Feedback Resistance (ohm)
ACHSELECT	IQUANT	0	Ach Select
CABLEID	IQUANT	13	Cable ID
DCCALDATE	LABEL	7/31/2020	DC Calibration Date
ACCALDATE	LABEL	7/31/2020	AC Calibration Date
THERMOSELECT	IQUANT	1	Thermo Select
FRAMEWORKVERSION	QUANT	6.33	Framework Version
INSTRUMENTVERSION	LABEL	3.50	Instrument Version
COMPLIANCEVOLTAGE	IQUANT	0	Compliance Voltage
ZCURVE	TABLE
	Pt	Time	Freq	Zreal	Zimag	Zsig	Zmod	Zphz	Idc	Vdc	IERange
	#	s	Hz	ohm	ohm	V	ohm	°	A	V	#
	0	14	300046.9	29.56597	-4604.941	1	4605.036	-89.63214	1.796169E-005	-0.0004686	9
	1	29	238359.4	49.6797	-5558.488	1	5558.71	-89.48792	4.995623E-005	0.0001426	9
	2	44	189328.1	59.13882	-6938.107	1	6938.359	-89.51163	1.819528E-005	-0.0003684	9
	3	53	150421.9	47.07167	-8941.832	1	8941.956	-89.69839	2.453155E-005	0.001111	9
	4	61	119484.4	621.0896	-11048.56	1	11066	-86.78253	2.237651E-005	-0.0185888	8
	5	68	94921.88	651.4407	-13651.16	1	13666.7	-87.26789	-1.216338E-005	0.0103074	8
	6	77	75421.88	777.0828	-17109.06	1	17126.7	-87.39945	2.304495E-005	-0.0028978	8
	7	84	59859.37	888.6027	-21499.95	1	21518.3	-87.63329	8.328508E-006	0.004087	8
	8	93	47578.12	4158.794	-28362.72	1	28666	-81.65823	-5.27859E-006	0.0035919	7
	9	99	37828.12	4566.188	-34892.91	1	35190.42	-82.54447	-1.038838E-006	-0.0132518	7
	10	106	30046.88	4779.84	-43605.53	1	43866.72	-83.74447	-5.336735E-006	0.0263976	7
	11	114	23859.38	2463.046	-52768.11	1	52825.56	-87.32756	-1.581369E-005	0.0005407	8
	12	120	18984.38	6097.579	-67999.97	1	68272.8	-84.87598	3.404134E-006	-0.0243859	7
	13	126	15046.87	7880.985	-86092.32	1	86452.28	-84.76966	6.694908E-006	-0.0264329	7
	14	131	11953.13	7408.679	-104937	1	105198.3	-85.96156	-5.370952E-006	0.0265786	7
	15	137	9515.62	7751.328	-132432.3	1	132659	-86.65027	3.413523E-006	-0.0243833	7
	16	143	7546.875	2481.866	-167144.5	1	167162.9	-89.1493	-7.241579E-006	0.0238527	7
	17	148	5928.309	9471.935	-210929	1	211141.5	-87.42882	7.536433E-006	-0.0184793	7
	18	153	4733.456	-1116.408	-258254.5	1	258256.9	-90.24768	6.775909E-006	-0.0268848	7
	19	160	3796.875	-13291.52	-355081.3	1	355330	-92.14371	-3.467515E-006	0.0249496	7
	20	166	2987.132	69911.98	-389951.4	1	396168.8	-79.83578	-7.203555E-006	0.0234163	7
	21	174	2390.625	109208.9	-430988.3	1	444609.4	-75.781	-1.375297E-006	0.0213291	7
	22	180	1884.191	79211.2	-670106.2	1	674771.6	-83.25852	-2.856918E-007	-0.0071643	6
	23	186	1516.544	80064.37	-844235.7	1	848023.7	-84.58247	7.184344E-007	-0.0269534	6
	24	191	1193.986	120748.6	-1005091	1	1012318	-83.14949	1.781407E-007	-0.0209858	6
	25	198	946.5144	-257180.5	-442855.1	1	512115.6	-120.1451	-1.497834E-005	1.846674E-005	9
	26	205	751.7689	1032173	-675050.5	1	1233319	-33.18505	6.789289E-006	-0.0268802	7
	27	211	597.4265	-567493.4	-790839.5	1	973384	-125.6626	1.223551E-006	-0.0196588	7
	28	216	477.4305	334903	-2500896	1	2523220	-82.37271	-1.056628E-008	0.0007208	6
	29	221	376.6741	807178.1	-3192715	1	3293169	-75.81186	-1.02372E-009	0.0006597	5
	30	225	298.2954	662366.6	-3920724	1	3976281	-80.411	-9.485306E-009	0.000648	6
	31	229	237.7717	1203570	-4929889	1	5074681	-76.28033	-1.034877E-009	0.0006636	5
	32	233	189.0121	1642158	-5969212	1	6190976	-74.61817	-9.479373E-010	0.0005946	5
	33	236	150.2404	1945459	-7356530	1	7609424	-75.18704	-1.038381E-009	0.0006513	5
	34	238	119.1737	6213893	-9.980036E+006	1	1.175643E+007	-58.09227	-1.101726E-009	0.0006712	5
	35	241	95.0169	3702381	-1.078914E+007	1	1.140672E+007	-71.05993	-1.074912E-009	0.0006265	5
	36	244	75.60484	4683711	-1.274367E+007	1	1.357712E+007	-69.81998	-1.049252E-009	0.0006295	5
	37	247	54.50582	8699748	-1.663243E+007	1	1.877028E+007	-62.38776	-9.752466E-010	0.0005725	5
	38	250	45.95588	1.539104E+007	-1.810365E+007	1	2.376187E+007	-49.63006	-7.606808E-011	0.0007158	4
	39	253	37.20238	1.185202E+007	-2.04516E+007	1	2.363764E+007	-59.90703	-8.770143E-010	0.000608	5
	40	256	30.04808	1.860579E+007	-2.277437E+007	1	2.940829E+007	-50.75249	-1.019656E-009	0.0006462	5
	41	260	23.91582	2.018495E+007	-2.274526E+007	1	3.041017E+007	-48.41301	-1.08303E-009	0.0005765	5
	42	264	18.60119	4.851746E+007	-2.746689E+007	1	5.57528E+007	-29.51524	-1.253653E-009	0.0005972	5
	43	268	15.02404	3.483407E+007	-2.313061E+007	1	4.181432E+007	-33.58505	-8.066502E-011	0.0006798	4
	44	271	12.01923	4.207124E+007	-2.187754E+007	1	4.741957E+007	-27.47496	-1.214066E-010	0.0006661	4
	45	275	9.450605	4.612771E+007	-2.217669E+007	1	5.118175E+007	-25.67672	-8.803418E-011	0.0006864	4
	46	279	7.512019	5.073634E+007	-1.956555E+007	1	5.437818E+007	-21.08823	-1.010672E-010	0.0006658	4
	47	283	5.978954	5.713949E+007	-1.702562E+007	1	5.962209E+007	-16.59227	-7.75349E-011	0.0005829	4
	48	289	4.734848	6.006954E+007	-1.599156E+007	1	6.216172E+007	-14.90739	-9.518811E-011	0.0006153	4
	49	295	3.75601	6.424862E+007	-1.604295E+007	1	6.62213E+007	-14.02012	-8.926171E-011	0.0006799	4
	50	302	3.004808	7.13587E+007	-1.263409E+007	1	7.246851E+007	-10.04019	-1.127577E-010	0.0006724	4
	51	310	2.372217	7.82027E+007	-7148795	1	7.852877E+007	-5.223101	-9.697734E-012	0.0007237	3
	52	314	1.878005	8.136023E+007	-6311720	1	8.160469E+007	-4.435976	-9.687041E-012	0.0007055	3
	53	319	1.512097	8.511517E+007	-5712280	1	8.530663E+007	-3.839497	-1.06967E-011	0.0006119	3
	54	324	1.201923	8.969781E+007	-5342149	1	8.985675E+007	-3.408349	-9.009286E-012	0.0007055	3
	55	330	0.956633	9.496125E+007	-4973309	1	9.509139E+007	-2.997954	-1.531736E-011	6.424188E-005	3
