EXPLAIN
TAG	EISPOT
TITLE	LABEL	Potentiostatic EIS	Test Identifier
DATE	LABEL	9/11/2020	Date
TIME	LABEL	21:23:06	Time
NOTES	NOTES	1	Notes...
	
PSTAT	PSTAT	REF3000-16137	Potentiostat
VDC	POTEN	0.00000E+000	T	DC Voltage (V)
FREQINIT	QUANT	3.00000E+005	Initial Freq. (Hz)
FREQFINAL	QUANT	1.00000E+000	Final Freq. (Hz)
PTSPERDEC	QUANT	1.00000E+001	Points/decade
VAC	QUANT	5.00000E+001	AC Voltage (mV rms)
AREA	QUANT	1.00000E+000	Sample Area (cm^2)
SPEED	SELECTOR	2	Optimize for:
ZGUESS	QUANT	1.00000E+003	Estimated Z (ohms)
EOC	QUANT	0	Open Circuit (V)
SEQUENCER	TOGGLE	TRUE	Run as Sequence
PSTATMODEL	IQUANT	5	Pstat Model
PSTATSECTION	LABEL	REF3000-16137	Pstat Section
PSTATSERIALNO	LABEL	16137	Pstat Serial Number
CTRLMODE	IQUANT	1	Control Mode
IESTAB	IQUANT	0	I/E Stability
CASPEED	IQUANT	1	Control Amp Speed
CONVENTION	IQUANT	1	Current Convention
ICHRANGE	IQUANT	2	Ich Range
ICHRANGEMODE	TOGGLE	F	Ich Auto Range
ICHOFFSETENABLE	TOGGLE	T	Ich Offset Enable
ICHOFFSET	QUANT	0	Ich Offset (V)
ICHFILTER	IQUANT	3	Ich Filter
VCHRANGE	IQUANT	2	Vch Range
VCHRANGEMODE	TOGGLE	F	Vch Auto Range
VCHOFFSETENABLE	TOGGLE	T	Vch Offset Enable
VCHOFFSET	QUANT	0	Vch Offset (V)
VCHFILTER	IQUANT	3	Vch Filter
ACHRANGE	IQUANT	2	Ach Range
ACHOFFSETENABLE	TOGGLE	F	Ach Offset Enable
ACHOFFSET	QUANT	0	Ach Offset (V)
ACHFILTER	IQUANT	3	Ach Filter
IERANGELOWERLIMIT	IQUANT	2	I/E Range Lower Limit
IERANGEMODE	TOGGLE	F	I/E AutoRange
IERANGE	IQUANT	11	I/E Range
POSFEEDENABLE	TOGGLE	F	Positive Feedback IR Comp
POSFEEDRESISTANCE	QUANT	0	Positive Feedback Resistance (ohm)
ACHSELECT	IQUANT	0	Ach Select
CABLEID	IQUANT	13	Cable ID
DCCALDATE	LABEL	7/31/2020	DC Calibration Date
ACCALDATE	LABEL	7/31/2020	AC Calibration Date
THERMOSELECT	IQUANT	1	Thermo Select
FRAMEWORKVERSION	QUANT	6.33	Framework Version
INSTRUMENTVERSION	LABEL	3.50	Instrument Version
COMPLIANCEVOLTAGE	IQUANT	0	Compliance Voltage
ZCURVE	TABLE
	Pt	Time	Freq	Zreal	Zimag	Zsig	Zmod	Zphz	Idc	Vdc	IERange
	#	s	Hz	ohm	ohm	V	ohm	°	A	V	#
	0	10	300046.9	4.145849	2.293262	1	4.737838	28.94902	0.0004523	-0.0006739	10
	1	13	238359.4	4.109088	1.82118	1	4.494586	23.90329	0.0001179	-0.0009049	10
	2	16	189328.1	4.094806	1.440965	1	4.340946	19.38701	0.0003596	-0.0004647	10
	3	19	150421.9	4.083256	1.131029	1	4.237004	15.4823	-0.0003687	0.0007018	10
	4	21	119484.4	4.084229	0.8784994	1	4.177642	12.13911	0.00036	-8.814248E-005	10
	5	24	94921.88	4.087095	0.6893532	1	4.144822	9.57373	-3.776838E-005	0.0003475	10
	6	26	75421.88	4.08671	0.5142519	1	4.118939	7.172128	-0.0001481	0.0007021	10
	7	29	59859.37	4.088802	0.3661899	1	4.105167	5.117712	-0.0001599	0.0008676	10
	8	32	47578.12	4.091717	0.2383529	1	4.098653	3.333858	0.0001654	0.0002696	10
	9	34	37828.12	4.098916	0.1249992	1	4.100821	1.746732	9.222955E-005	0.0005635	10
	10	37	30046.88	4.106227	0.0186289	1	4.10627	0.259935	-5.972565E-005	0.0009032	10
	11	39	23859.38	4.114025	-0.0865769	1	4.114936	-1.205573	0.0001423	0.0004057	10
	12	41	18984.38	4.122458	-0.1913561	1	4.126897	-2.657646	-0.0001651	0.0009195	10
	13	44	15046.87	4.134435	-0.3074018	1	4.145847	-4.252207	-0.0001588	0.0010179	10
	14	46	11953.13	4.14749	-0.4354555	1	4.170287	-5.99367	0.0001014	0.000598	10
	15	48	9515.62	4.161494	-0.5845272	1	4.202345	-7.995508	-0.000101	0.0006865	10
	16	51	7546.875	4.179066	-0.7622962	1	4.248022	-10.33757	0.0001592	0.0002752	10
	17	53	5928.309	4.205323	-0.985536	1	4.319262	-13.18949	0.0001374	0.0004682	10
	18	55	4733.456	4.235598	-1.242208	1	4.413997	-16.34525	-0.0001413	0.0010096	10
	19	58	3796.875	4.271698	-1.542773	1	4.541757	-19.85777	5.603678E-005	0.0003655	10
	20	60	2987.132	4.322658	-1.949385	1	4.741885	-24.27391	-0.0001371	0.0008189	10
	21	62	2390.625	4.382013	-2.41279	1	5.002359	-28.83772	-7.059981E-005	0.0009056	10
	22	64	1884.191	4.467729	-3.022758	1	5.394226	-34.08133	-5.173025E-005	0.0005782	10
	23	67	1516.544	4.568499	-3.70245	1	5.880418	-39.02235	-5.065379E-005	0.0005661	10
	24	69	1193.986	4.710715	-4.625397	1	6.601904	-44.47642	-0.000159	0.0009173	10
	25	72	946.5144	4.892084	-5.732558	1	7.536227	-49.52303	4.768348E-005	0.0007328	10
	26	74	751.7689	5.127022	-7.079647	1	8.741153	-54.08825	-0.0001125	0.0009906	10
	27	76	597.4265	5.423323	-8.723031	1	10.2715	-58.12976	0.0001395	0.0002793	10
	28	79	477.4305	5.79779	-10.67169	1	12.14493	-61.48535	-1.409776E-006	0.0006547	10
	29	81	376.6741	6.298199	-13.19572	1	14.6217	-64.48527	-1.021807E-006	0.0006504	10
	30	83	298.2954	6.922605	-16.24097	1	17.65479	-66.9142	-1.250969E-006	0.0006596	10
	31	85	237.7717	7.686557	-19.85221	1	21.28834	-68.83414	2.908791E-008	0.0006481	10
	32	88	189.0121	8.660391	-24.30808	1	25.80475	-70.39023	-1.479756E-006	0.0006514	10
	33	90	150.2404	9.88906	-29.74273	1	31.34363	-71.60873	-7.744387E-007	0.0006474	10
	34	93	119.1737	11.4618	-36.43	1	38.19054	-72.5351	-8.010433E-007	0.0006545	10
	35	95	95.0169	13.405	-44.32088	1	46.30371	-73.17188	1.808939E-006	5.320603E-005	9
	36	98	75.60484	15.9224	-54.02216	1	56.31977	-73.57773	1.709317E-006	5.271239E-005	9
	37	100	54.50582	20.78905	-71.51588	1	74.47621	-73.79131	1.5721E-006	5.602135E-005	9
	38	103	45.95588	24.09032	-82.66994	1	86.10844	-73.75368	1.709239E-006	6.529068E-005	9
	39	105	37.20238	29.0891	-98.7494	1	102.9447	-73.58635	1.841314E-006	5.812084E-005	9
	40	107	30.04808	35.31654	-117.848	1	123.026	-73.31764	1.588568E-006	5.197199E-005	9
	41	110	23.91582	43.58833	-142.002	1	148.5413	-72.93583	1.564562E-006	4.963453E-005	9
	42	112	18.60119	54.96118	-173.9815	1	182.4563	-72.46854	2.037491E-006	4.197823E-005	9
	43	114	15.02404	66.72676	-206.2651	1	216.7897	-72.07361	1.667989E-006	5.171797E-005	9
	44	117	12.01923	81.4329	-245.9888	1	259.1173	-71.68323	1.920965E-006	5.479074E-005	9
	45	119	9.450605	100.4681	-297.5291	1	314.0341	-71.34148	1.923201E-006	5.077701E-005	9
	46	122	7.512019	122.429	-356.5438	1	376.9779	-71.0487	2.008226E-006	6.764845E-005	9
	47	124	5.978954	148.368	-425.934	1	451.0353	-70.79496	1.811886E-006	0.0006269	8
	48	127	4.734848	182.4443	-514.2299	1	545.6356	-70.46576	1.908137E-006	0.0006493	8
	49	131	3.75601	226.7621	-620.384	1	660.5281	-69.92168	1.740636E-006	0.0006188	8
	50	134	3.004808	283.5714	-743.1109	1	795.3782	-69.11312	1.848376E-006	0.0005937	8
	51	138	2.372217	365.4902	-897.6884	1	969.241	-67.8465	1.787588E-006	0.0005725	8
	52	142	1.878005	479.1389	-1075.223	1	1177.149	-65.98138	1.807045E-006	0.0006385	8
	53	147	1.512097	620.936	-1258.98	1	1403.778	-63.74723	1.788825E-006	0.0005297	8
	54	152	1.201923	820.2458	-1472.221	1	1685.301	-60.8757	1.80291E-006	0.0006575	8
	55	158	0.956633	1078.117	-1684.901	1	2000.307	-57.38604	1.605418E-006	-1.212751E-005	8
