EXPLAIN
TAG	EISPOT
TITLE	LABEL	Potentiostatic EIS	Test Identifier
DATE	LABEL	9/11/2020	Date
TIME	LABEL	22:23:56	Time
NOTES	NOTES	1	Notes...
	
PSTAT	PSTAT	REF3000-16137	Potentiostat
VDC	POTEN	0.00000E+000	T	DC Voltage (V)
FREQINIT	QUANT	3.00000E+005	Initial Freq. (Hz)
FREQFINAL	QUANT	1.00000E+000	Final Freq. (Hz)
PTSPERDEC	QUANT	1.00000E+001	Points/decade
VAC	QUANT	5.00000E+001	AC Voltage (mV rms)
AREA	QUANT	1.00000E+000	Sample Area (cm^2)
SPEED	SELECTOR	2	Optimize for:
ZGUESS	QUANT	1.00000E+003	Estimated Z (ohms)
EOC	QUANT	0	Open Circuit (V)
SEQUENCER	TOGGLE	TRUE	Run as Sequence
PSTATMODEL	IQUANT	5	Pstat Model
PSTATSECTION	LABEL	REF3000-16137	Pstat Section
PSTATSERIALNO	LABEL	16137	Pstat Serial Number
CTRLMODE	IQUANT	1	Control Mode
IESTAB	IQUANT	0	I/E Stability
CASPEED	IQUANT	1	Control Amp Speed
CONVENTION	IQUANT	1	Current Convention
ICHRANGE	IQUANT	2	Ich Range
ICHRANGEMODE	TOGGLE	F	Ich Auto Range
ICHOFFSETENABLE	TOGGLE	T	Ich Offset Enable
ICHOFFSET	QUANT	0	Ich Offset (V)
ICHFILTER	IQUANT	3	Ich Filter
VCHRANGE	IQUANT	2	Vch Range
VCHRANGEMODE	TOGGLE	F	Vch Auto Range
VCHOFFSETENABLE	TOGGLE	T	Vch Offset Enable
VCHOFFSET	QUANT	0	Vch Offset (V)
VCHFILTER	IQUANT	3	Vch Filter
ACHRANGE	IQUANT	2	Ach Range
ACHOFFSETENABLE	TOGGLE	F	Ach Offset Enable
ACHOFFSET	QUANT	0	Ach Offset (V)
ACHFILTER	IQUANT	3	Ach Filter
IERANGELOWERLIMIT	IQUANT	2	I/E Range Lower Limit
IERANGEMODE	TOGGLE	F	I/E AutoRange
IERANGE	IQUANT	11	I/E Range
POSFEEDENABLE	TOGGLE	F	Positive Feedback IR Comp
POSFEEDRESISTANCE	QUANT	0	Positive Feedback Resistance (ohm)
ACHSELECT	IQUANT	0	Ach Select
CABLEID	IQUANT	13	Cable ID
DCCALDATE	LABEL	7/31/2020	DC Calibration Date
ACCALDATE	LABEL	7/31/2020	AC Calibration Date
THERMOSELECT	IQUANT	1	Thermo Select
FRAMEWORKVERSION	QUANT	6.33	Framework Version
INSTRUMENTVERSION	LABEL	3.50	Instrument Version
COMPLIANCEVOLTAGE	IQUANT	0	Compliance Voltage
ZCURVE	TABLE
	Pt	Time	Freq	Zreal	Zimag	Zsig	Zmod	Zphz	Idc	Vdc	IERange
	#	s	Hz	ohm	ohm	V	ohm	°	A	V	#
	0	7	300046.9	132.239	-0.9098181	1	132.2422	-0.3941946	-4.918897E-006	0.0010675	9
	1	10	238359.4	133.3327	-0.961589	1	133.3361	-0.4132073	6.901825E-005	-0.0018335	9
	2	13	189328.1	134.1367	-0.8253713	1	134.1393	-0.3525484	6.760432E-005	-0.0016541	9
	3	16	150421.9	135.1252	-0.8949784	1	135.1282	-0.3794831	-8.529539E-005	0.0030633	9
	4	18	119484.4	135.5774	-0.6441699	1	135.5789	-0.2722278	7.112177E-005	-0.0025445	9
	5	21	94921.88	136.4514	-0.5072475	1	136.4523	-0.2129917	-1.954333E-005	0.0008383	9
	6	24	75421.88	137.1	-0.6068088	1	137.1013	-0.2535912	1.965586E-005	-0.0007925	9
	7	26	59859.37	137.8721	-0.5854596	1	137.8734	-0.2432991	-1.554206E-005	0.0001429	9
	8	29	47578.12	138.5479	-0.5625138	1	138.549	-0.2326235	-2.0881E-005	0.0008077	9
	9	31	37828.12	139.3537	-0.5558104	1	139.3548	-0.2285222	2.827976E-006	0.000505	9
	10	34	30046.88	139.9031	-0.5510147	1	139.9042	-0.2256609	2.369741E-005	-0.0003826	9
	11	36	23859.38	140.6891	-0.6343374	1	140.6905	-0.2583328	-1.985792E-005	0.0004751	9
	12	39	18984.38	141.3432	-0.681583	1	141.3449	-0.2762886	2.254184E-005	-0.0006888	9
	13	41	15046.87	141.8629	-0.8770103	1	141.8656	-0.3542035	-1.044212E-006	-0.0003601	9
	14	43	11953.13	142.548	-0.7167321	1	142.5498	-0.288081	1.354107E-006	0.0005761	9
	15	46	9515.62	143.319	-1.06012	1	143.323	-0.4238048	2.416882E-005	-0.0004638	9
	16	48	7546.875	143.989	-1.293971	1	143.9949	-0.5148798	1.000137E-005	-0.0007175	9
	17	50	5928.309	144.7449	-1.596431	1	144.7537	-0.6319049	2.510296E-005	-0.0004705	9
	18	53	4733.456	145.3631	-1.916246	1	145.3758	-0.7552565	-2.00047E-005	0.0004543	9
	19	55	3796.875	146.2086	-2.280059	1	146.2264	-0.8934298	-1.555889E-006	-0.000342	9
	20	57	2987.132	146.6865	-2.97308	1	146.7166	-1.161127	-1.914493E-005	0.0008868	9
	21	60	2390.625	147.5118	-3.671909	1	147.5575	-1.42593	-1.474372E-005	0.0009497	9
	22	62	1884.191	147.9844	-4.468428	1	148.0518	-1.729535	-1.800322E-006	-0.0003346	9
	23	64	1516.544	149.0545	-5.504704	1	149.1561	-2.115019	2.531646E-005	-0.000613	9
	24	66	1193.986	149.9116	-6.90907	1	150.0707	-2.638759	-2.1838E-005	0.0006502	9
	25	69	946.5144	150.6938	-8.479546	1	150.9322	-3.220638	1.434571E-005	-0.0007287	9
	26	71	751.7689	151.5606	-10.6121	1	151.9317	-4.005248	6.742187E-006	-0.0005823	9
	27	74	597.4265	152.536	-13.08989	1	153.0966	-4.904825	1.517924E-006	0.0005398	9
	28	76	477.4305	153.5208	-16.1856	1	154.3717	-6.018425	1.168031E-006	5.499028E-005	9
	29	78	376.6741	154.6077	-20.22388	1	155.9248	-7.452419	1.246845E-006	4.774255E-005	9
	30	80	298.2954	155.7928	-25.20219	1	157.8181	-9.188984	1.253008E-006	4.914848E-005	9
	31	83	237.7717	157.1274	-31.21216	1	160.1974	-11.23512	1.139016E-006	5.408769E-005	9
	32	85	189.0121	158.6476	-38.76124	1	163.3141	-13.72969	1.223299E-006	4.952698E-005	9
	33	88	150.2404	160.3813	-48.11997	1	167.4446	-16.70108	1.20045E-006	4.229079E-005	9
	34	90	119.1737	162.4257	-59.84178	1	173.0987	-20.22508	1.141373E-006	4.84335E-005	9
	35	92	95.0169	164.8444	-74.03617	1	180.707	-24.18617	1.114184E-006	4.239733E-005	9
	36	95	75.60484	167.8075	-91.70982	1	191.233	-28.65739	1.242868E-006	4.629899E-005	9
	37	97	54.50582	172.9176	-124.4471	1	213.0436	-35.7422	1.151627E-006	4.364836E-005	9
	38	100	45.95588	176.6731	-145.8492	1	229.0969	-39.54074	1.26693E-006	5.301727E-005	9
	39	102	37.20238	181.9962	-177.3439	1	254.1131	-44.25824	1.210214E-006	5.365812E-005	9
	40	105	30.04808	188.7078	-216.0052	1	286.8255	-48.85869	1.189987E-006	5.51486E-005	9
	41	107	23.91582	197.5959	-266.2815	1	331.587	-53.4225	1.171895E-006	4.641589E-005	9
	42	109	18.60119	209.9512	-334.9096	1	395.277	-57.91685	1.342506E-006	4.494715E-005	9
	43	112	15.02404	222.4578	-404.7987	1	461.8977	-61.20893	1.631466E-007	0.0006184	8
	44	114	12.01923	240.0533	-495.2364	1	550.3495	-64.13939	-6.462082E-009	0.000624	8
	45	116	9.450605	263.6359	-614.5084	1	668.6736	-66.77973	6.446697E-008	0.0006302	8
	46	119	7.512019	292.3002	-753.9867	1	808.6627	-68.81004	4.514915E-008	0.0006118	8
	47	122	5.978954	327.72	-923.6676	1	980.083	-70.46516	1.033866E-007	0.0006274	8
	48	125	4.734848	372.4845	-1135.922	1	1195.435	-71.84498	6.274927E-008	0.0005975	8
	49	128	3.75601	428.6569	-1393.324	1	1457.772	-72.89946	1.410269E-007	0.000637	8
	50	131	3.004808	495.5069	-1694.779	1	1765.73	-73.70253	8.170606E-008	0.0006555	8
	51	135	2.372217	583.8076	-2083.585	1	2163.829	-74.34746	9.348253E-008	0.0006447	8
	52	139	1.878005	698.2179	-2560.444	1	2653.937	-74.74665	1.172547E-007	0.0006021	8
	53	144	1.512097	829.2482	-3094.852	1	3204.023	-75.00026	1.020723E-007	0.0007845	8
	54	149	1.201923	1001.845	-3783.951	1	3914.33	-75.17053	1.207874E-007	0.0006006	8
	55	156	0.956633	1219.214	-4623.96	1	4781.996	-75.22884	-2.928716E-008	-4.009578E-005	7
