EXPLAIN
TAG	EISPOT
TITLE	LABEL	Potentiostatic EIS	Test Identifier
DATE	LABEL	9/11/2020	Date
TIME	LABEL	21:48:08	Time
NOTES	NOTES	1	Notes...
	
PSTAT	PSTAT	REF3000-16137	Potentiostat
VDC	POTEN	0.00000E+000	T	DC Voltage (V)
FREQINIT	QUANT	3.00000E+005	Initial Freq. (Hz)
FREQFINAL	QUANT	1.00000E+000	Final Freq. (Hz)
PTSPERDEC	QUANT	1.00000E+001	Points/decade
VAC	QUANT	5.00000E+001	AC Voltage (mV rms)
AREA	QUANT	1.00000E+000	Sample Area (cm^2)
SPEED	SELECTOR	2	Optimize for:
ZGUESS	QUANT	1.00000E+003	Estimated Z (ohms)
EOC	QUANT	0	Open Circuit (V)
SEQUENCER	TOGGLE	TRUE	Run as Sequence
PSTATMODEL	IQUANT	5	Pstat Model
PSTATSECTION	LABEL	REF3000-16137	Pstat Section
PSTATSERIALNO	LABEL	16137	Pstat Serial Number
CTRLMODE	IQUANT	1	Control Mode
IESTAB	IQUANT	0	I/E Stability
CASPEED	IQUANT	1	Control Amp Speed
CONVENTION	IQUANT	1	Current Convention
ICHRANGE	IQUANT	2	Ich Range
ICHRANGEMODE	TOGGLE	F	Ich Auto Range
ICHOFFSETENABLE	TOGGLE	T	Ich Offset Enable
ICHOFFSET	QUANT	0	Ich Offset (V)
ICHFILTER	IQUANT	3	Ich Filter
VCHRANGE	IQUANT	2	Vch Range
VCHRANGEMODE	TOGGLE	F	Vch Auto Range
VCHOFFSETENABLE	TOGGLE	T	Vch Offset Enable
VCHOFFSET	QUANT	0	Vch Offset (V)
VCHFILTER	IQUANT	3	Vch Filter
ACHRANGE	IQUANT	2	Ach Range
ACHOFFSETENABLE	TOGGLE	F	Ach Offset Enable
ACHOFFSET	QUANT	0	Ach Offset (V)
ACHFILTER	IQUANT	3	Ach Filter
IERANGELOWERLIMIT	IQUANT	2	I/E Range Lower Limit
IERANGEMODE	TOGGLE	F	I/E AutoRange
IERANGE	IQUANT	11	I/E Range
POSFEEDENABLE	TOGGLE	F	Positive Feedback IR Comp
POSFEEDRESISTANCE	QUANT	0	Positive Feedback Resistance (ohm)
ACHSELECT	IQUANT	0	Ach Select
CABLEID	IQUANT	13	Cable ID
DCCALDATE	LABEL	7/31/2020	DC Calibration Date
ACCALDATE	LABEL	7/31/2020	AC Calibration Date
THERMOSELECT	IQUANT	1	Thermo Select
FRAMEWORKVERSION	QUANT	6.33	Framework Version
INSTRUMENTVERSION	LABEL	3.50	Instrument Version
COMPLIANCEVOLTAGE	IQUANT	0	Compliance Voltage
ZCURVE	TABLE
	Pt	Time	Freq	Zreal	Zimag	Zsig	Zmod	Zphz	Idc	Vdc	IERange
	#	s	Hz	ohm	ohm	V	ohm	°	A	V	#
	0	7	300046.9	9.276649	2.204309	1	9.53495	13.36667	1.716047E-005	1.00983E-005	10
	1	11	238359.4	9.246401	1.743808	1	9.409399	10.68015	2.074152E-005	7.940363E-005	10
	2	14	189328.1	9.248986	1.383662	1	9.351912	8.50843	-2.451614E-005	0.000386	10
	3	16	150421.9	9.242443	1.075278	1	9.304783	6.636034	5.44425E-006	0.0005147	10
	4	19	119484.4	9.261668	0.8401998	1	9.299701	5.183568	-5.04991E-005	0.000587	10
	5	21	94921.88	9.272944	0.6619241	1	9.296539	4.082979	2.216518E-005	0.0005365	10
	6	24	75421.88	9.287197	0.4853704	1	9.299871	2.991688	-2.364476E-005	0.0006229	10
	7	26	59859.37	9.304615	0.3330941	1	9.310575	2.050245	-2.192181E-005	0.0006443	10
	8	29	47578.12	9.324135	0.2028157	1	9.326341	1.246084	4.981846E-006	0.0005671	10
	9	31	37828.12	9.34631	0.0889491	1	9.346733	0.545269	-1.60192E-005	0.0006429	10
	10	34	30046.88	9.367493	-0.019618	1	9.367514	-0.1199923	-9.924006E-006	0.0006268	10
	11	36	23859.38	9.390085	-0.1272499	1	9.390947	-0.7763973	-1.661058E-005	0.0007035	10
	12	39	18984.38	9.412358	-0.2393829	1	9.415401	-1.45688	-1.640355E-005	0.0006606	10
	13	41	15046.87	9.437462	-0.3641683	1	9.444486	-2.209806	-2.185157E-005	0.0007029	10
	14	43	11953.13	9.463832	-0.5035965	1	9.477221	-3.045993	-2.90252E-005	0.0006448	10
	15	46	9515.62	9.493736	-0.6659969	1	9.51707	-4.012793	-2.232185E-005	0.0007027	10
	16	48	7546.875	9.52617	-0.862959	1	9.56517	-5.176198	-2.697615E-005	0.0006349	10
	17	50	5928.309	9.56395	-1.111708	1	9.62835	-6.630268	1.583678E-005	0.000641	10
	18	53	4733.456	9.60574	-1.395422	1	9.70657	-8.265512	-3.786639E-006	0.0006183	10
	19	55	3796.875	9.65442	-1.733963	1	9.80889	-10.18194	-2.399515E-005	0.0006899	10
	20	57	2987.132	9.71462	-2.190825	1	9.95859	-12.70865	-3.581193E-006	0.0006603	10
	21	59	2390.625	9.7852	-2.71104	1	10.15381	-15.48567	-1.608097E-005	0.0006613	10
	22	62	1884.191	9.87559	-3.405012	1	10.44612	-19.02371	-1.775038E-005	0.0006448	10
	23	64	1516.544	9.9777	-4.186006	1	10.82022	-22.75982	-2.776682E-005	0.0006771	10
	24	66	1193.986	10.12034	-5.246369	1	11.39937	-27.40216	-2.126302E-005	0.0006791	10
	25	69	946.5144	10.29675	-6.527578	1	12.19148	-32.37248	-1.315629E-005	0.0006299	10
	26	71	751.7689	10.52036	-8.094271	1	13.27385	-37.57437	1.959915E-005	0.0006325	10
	27	74	597.4265	10.81145	-10.02224	1	14.74221	-42.8306	2.055662E-005	0.0006088	10
	28	76	477.4305	11.16918	-12.33326	1	16.63911	-47.83554	-2.618034E-006	0.0006484	10
	29	78	376.6741	11.66045	-15.3413	1	19.2697	-52.76265	-2.422751E-006	0.00065	10
	30	80	298.2954	12.28489	-18.99397	1	22.62056	-57.10608	-1.996636E-006	0.000653	10
	31	83	237.7717	13.0637	-23.34476	1	26.75141	-60.76867	-2.511467E-006	0.0006507	10
	32	85	189.0121	14.06904	-28.7328	1	31.99236	-63.91127	-2.130518E-006	0.0006517	10
	33	88	150.2404	15.34131	-35.31195	1	38.50052	-66.51742	-1.923243E-006	0.000644	10
	34	90	119.1737	16.94161	-43.37869	1	46.56961	-68.6668	1.452966E-006	5.052336E-005	9
	35	92	95.0169	18.92777	-53.04961	1	56.32514	-70.36391	1.425825E-006	4.914351E-005	9
	36	95	75.60484	21.43776	-64.94259	1	68.38945	-71.73177	1.386372E-006	4.621276E-005	9
	37	97	54.50582	26.17257	-86.64084	1	90.50768	-73.19141	1.359713E-006	4.248628E-005	9
	38	100	45.95588	29.35637	-100.6614	1	104.8548	-73.74148	1.512063E-006	5.576747E-005	9
	39	102	37.20238	34.13331	-121.1048	1	125.8231	-74.25954	1.302102E-006	5.97711E-005	9
	40	105	30.04808	40.19144	-145.9491	1	151.3819	-74.60352	1.337484E-006	5.557209E-005	9
	41	107	23.91582	48.37469	-177.8996	1	184.3593	-74.78786	1.57784E-006	5.191559E-005	9
	42	109	18.60119	59.93339	-220.8024	1	228.7918	-74.81384	1.12741E-006	5.572831E-005	9
	43	112	15.02404	72.62425	-264.8169	1	274.5948	-74.66407	1.428167E-006	5.588434E-005	9
	44	114	12.01923	89.28834	-319.7644	1	331.9965	-74.39858	1.651323E-006	5.066293E-005	9
	45	116	9.450605	111.8021	-390.469	1	406.1598	-74.02211	1.654208E-006	4.85311E-005	9
	46	119	7.512019	137.815	-469.2791	1	489.0969	-73.63387	8.581234E-007	0.0006516	8
	47	122	5.978954	170.3741	-564.2629	1	589.4235	-73.19878	7.189048E-007	0.0006874	8
	48	125	4.734848	210.1272	-680.188	1	711.9053	-72.83276	8.715843E-007	0.0006478	8
	49	128	3.75601	257.0657	-816.8485	1	856.3436	-72.53099	7.448651E-007	0.000621	8
	50	131	3.004808	309.5475	-973.565	1	1021.592	-72.36181	8.13686E-007	0.0006177	8
	51	135	2.372217	374.3183	-1172.923	1	1231.204	-72.30041	8.228482E-007	0.0006257	8
	52	139	1.878005	451.1213	-1417.341	1	1487.402	-72.3444	7.721092E-007	0.0006338	8
	53	144	1.512097	532.228	-1692.501	1	1774.212	-72.5436	7.959714E-007	0.0005252	8
	54	149	1.201923	641.4452	-2049.628	1	2147.656	-72.62213	7.783521E-007	0.0006389	8
	55	156	0.956633	777.0226	-2484.591	1	2603.259	-72.63362	7.555569E-007	-6.146982E-006	8
