EXPLAIN
TAG	EISPOT
TITLE	LABEL	Potentiostatic EIS	Test Identifier
DATE	LABEL	3/1/2021	Date
TIME	LABEL	1:47:52	Time
NOTES	NOTES	1	Notes...
	
PSTAT	PSTAT	REF3000-16137	Potentiostat
VDC	POTEN	0.00000E+000	T	DC Voltage (V)
FREQINIT	QUANT	3.00000E+005	Initial Freq. (Hz)
FREQFINAL	QUANT	1.00000E+000	Final Freq. (Hz)
PTSPERDEC	QUANT	1.00000E+001	Points/decade
VAC	QUANT	5.00000E+001	AC Voltage (mV rms)
AREA	QUANT	1.00000E+000	Sample Area (cm^2)
SPEED	SELECTOR	2	Optimize for:
ZGUESS	QUANT	1.00000E+003	Estimated Z (ohms)
EOC	QUANT	0	Open Circuit (V)
SEQUENCER	TOGGLE	TRUE	Run as Sequence
PSTATMODEL	IQUANT	5	Pstat Model
PSTATSECTION	LABEL	REF3000-16137	Pstat Section
PSTATSERIALNO	LABEL	16137	Pstat Serial Number
CTRLMODE	IQUANT	1	Control Mode
IESTAB	IQUANT	0	I/E Stability
CASPEED	IQUANT	1	Control Amp Speed
CONVENTION	IQUANT	1	Current Convention
ICHRANGE	IQUANT	2	Ich Range
ICHRANGEMODE	TOGGLE	F	Ich Auto Range
ICHOFFSETENABLE	TOGGLE	T	Ich Offset Enable
ICHOFFSET	QUANT	0	Ich Offset (V)
ICHFILTER	IQUANT	3	Ich Filter
VCHRANGE	IQUANT	2	Vch Range
VCHRANGEMODE	TOGGLE	F	Vch Auto Range
VCHOFFSETENABLE	TOGGLE	T	Vch Offset Enable
VCHOFFSET	QUANT	0	Vch Offset (V)
VCHFILTER	IQUANT	3	Vch Filter
ACHRANGE	IQUANT	2	Ach Range
ACHOFFSETENABLE	TOGGLE	F	Ach Offset Enable
ACHOFFSET	QUANT	0	Ach Offset (V)
ACHFILTER	IQUANT	3	Ach Filter
IERANGELOWERLIMIT	IQUANT	2	I/E Range Lower Limit
IERANGEMODE	TOGGLE	F	I/E AutoRange
IERANGE	IQUANT	11	I/E Range
POSFEEDENABLE	TOGGLE	F	Positive Feedback IR Comp
POSFEEDRESISTANCE	QUANT	0	Positive Feedback Resistance (ohm)
ACHSELECT	IQUANT	0	Ach Select
CABLEID	IQUANT	13	Cable ID
DCCALDATE	LABEL	7/31/2020	DC Calibration Date
ACCALDATE	LABEL	7/31/2020	AC Calibration Date
THERMOSELECT	IQUANT	1	Thermo Select
FRAMEWORKVERSION	QUANT	6.33	Framework Version
INSTRUMENTVERSION	LABEL	3.50	Instrument Version
COMPLIANCEVOLTAGE	IQUANT	0	Compliance Voltage
ZCURVE	TABLE
	Pt	Time	Freq	Zreal	Zimag	Zsig	Zmod	Zphz	Idc	Vdc	IERange
	#	s	Hz	ohm	ohm	V	ohm	°	A	V	#
	0	20	300046.9	878.4896	-2588.983	1	2733.967	-71.25698	1.829615E-005	-0.0010135	9
	1	36	238359.4	1192.252	-3074.967	1	3298.012	-68.80728	5.162461E-005	3.971825E-005	9
	2	50	189328.1	1633.406	-3606.671	1	3959.305	-65.63496	8.941268E-005	-0.0025009	9
	3	58	150421.9	2290.397	-4225.397	1	4806.235	-61.53988	-5.970962E-005	0.000551	9
	4	67	119484.4	2982.953	-4839.251	1	5684.749	-58.34999	-2.864216E-005	-0.0009367	9
	5	76	94921.88	4054.525	-5217.536	1	6607.711	-52.14937	6.59147E-006	-0.0070948	8
	6	83	75421.88	5134.354	-5620.616	1	7612.681	-47.58873	1.841529E-005	-0.0002777	8
	7	91	59859.37	6346.497	-5820.517	1	8611.413	-42.52464	-1.778715E-005	0.0108589	8
	8	99	47578.12	7575.562	-5750.588	1	9510.96	-37.20203	-2.397544E-005	0.0056484	8
	9	108	37828.12	8716.661	-5632.528	1	10378.13	-32.86972	-2.568751E-005	0.0096945	8
	10	116	30046.88	9821.71	-5431.343	1	11223.43	-28.94233	1.902943E-005	-0.0009345	9
	11	125	23859.38	10778.35	-4890.87	1	11836.11	-24.40703	-1.987646E-005	0.0011527	9
	12	131	18984.38	11369.61	-4339.166	1	12169.48	-20.88916	2.600324E-005	-0.0054339	8
	13	138	15046.87	12030.16	-3839.76	1	12628.09	-17.70193	-2.369247E-005	0.0055674	8
	14	143	11953.13	12424.54	-3475.285	1	12901.43	-15.62691	1.840481E-005	-0.0001779	8
	15	149	9515.62	13014.96	-2828.867	1	13318.84	-12.26279	5.738519E-006	-0.0090386	7
	16	155	7546.875	13320.91	-2595.065	1	13571.33	-11.0238	-6.223223E-006	0.015985	7
	17	159	5928.309	13542.64	-2413.033	1	13755.94	-10.10296	-5.799102E-006	0.0108814	7
	18	163	4733.456	13961.48	-2334.877	1	14155.37	-9.49412	4.289954E-006	-0.0009107	7
	19	168	3796.875	14152.5	-2326.133	1	14342.39	-9.333796	4.571197E-007	0.0136364	7
	20	172	2987.132	14504.59	-2348.192	1	14693.44	-9.196001	-9.542878E-007	-0.0109427	7
	21	176	2390.625	14649.12	-2381.864	1	14841.49	-9.235154	-4.508765E-006	0.0229475	7
	22	180	1884.191	15070.98	-2440.84	1	15267.36	-9.199532	-5.796684E-006	0.0108661	7
	23	185	1516.544	15226	-2633.692	1	15452.1	-9.81354	-6.234902E-006	0.0206182	7
	24	189	1193.986	15481.65	-2868.759	1	15745.2	-10.49787	4.804845E-007	0.0136627	7
	25	193	946.5144	15666.94	-3146.995	1	15979.88	-11.35778	1.092159E-006	-0.0167744	7
	26	196	751.7689	16077.12	-3128.133	1	16378.61	-11.0105	6.557149E-006	-0.0161048	7
	27	199	597.4265	16782.04	-3710.312	1	17187.3	-12.46688	1.049926E-006	-0.0167281	7
	28	201	477.4305	17048.34	-4048.696	1	17522.49	-13.35932	-5.269665E-008	0.0006704	7
	29	203	376.6741	17546.53	-4528.192	1	18121.4	-14.47047	-4.827893E-008	0.0005997	7
	30	206	298.2954	18089.99	-5076.371	1	18788.75	-15.67506	-4.515818E-008	0.0005895	7
	31	208	237.7717	18686.79	-5684.38	1	19532.24	-16.91936	-4.582735E-008	0.0005853	7
	32	211	189.0121	19355.14	-6393.37	1	20383.74	-18.27937	-5.249222E-008	0.0006465	7
	33	213	150.2404	20109.07	-7211.155	1	21362.94	-19.72794	-4.329331E-008	0.0005887	7
	34	215	119.1737	20947.35	-8128.739	1	22469.27	-21.20902	-4.855359E-008	0.0006586	7
	35	218	95.0169	21896.69	-9200.515	1	23751.1	-22.79109	-5.196374E-008	0.0006711	7
	36	220	75.60484	22942.92	-10409.71	1	25194.04	-24.40484	-5.161525E-008	0.0006467	7
	37	223	54.50582	24705.48	-12493.5	1	27684.8	-26.8256	-4.333495E-008	0.000582	7
	38	225	45.95588	25747.98	-13680.65	1	29156.8	-27.983	-4.89919E-008	0.000673	7
	39	228	37.20238	27178.67	-15394.53	1	31235.74	-29.52807	-4.450036E-008	0.0006018	7
	40	230	30.04808	28805.82	-17347.48	1	33626.04	-31.05726	-4.466547E-008	0.0006297	7
	41	233	23.91582	30784.22	-19729.99	1	36564.2	-32.65631	-4.883572E-008	0.0005911	7
	42	235	18.60119	33301.64	-22799.93	1	40358.84	-34.39745	-6.822297E-009	0.0006489	6
	43	237	15.02404	35730.8	-25656.88	1	43988.25	-35.68063	-4.060517E-009	0.0007167	6
	44	240	12.01923	38570.74	-29110.61	1	48323.18	-37.04306	-3.949565E-009	0.0006557	6
	45	242	9.450605	42095.1	-33340.63	1	53699.11	-38.38032	-4.807768E-009	0.0006419	6
	46	245	7.512019	45876.6	-38027.97	1	59588.49	-39.65597	-4.931307E-009	0.0007096	6
	47	248	5.978954	50274.64	-43305.68	1	66354.52	-40.74102	-6.824766E-009	0.0006328	6
	48	252	4.734848	55443.02	-49400.52	1	74258.6	-41.7015	-6.2788E-009	0.0006967	6
	49	256	3.75601	61308.7	-56334.28	1	83260.48	-42.57874	-8.487036E-009	0.0006463	6
	50	261	3.004808	67797.23	-63892.87	1	93159.88	-43.30179	-8.468777E-009	0.0006641	6
	51	267	2.372217	75732.32	-72845.64	1	105080.3	-43.88696	-8.8516E-009	0.000737	6
	52	272	1.878005	84683.86	-83155.12	1	118685	-44.47814	-1.10654E-008	0.0006573	6
	53	276	1.512097	94060.88	-93694.88	1	132763.6	-44.88831	-9.957467E-009	0.0006434	6
	54	282	1.201923	105718.9	-106290.8	1	149914.1	-45.15456	-9.800689E-009	0.0006458	6
	55	288	0.956633	118965	-120315.7	1	169199.7	-45.32344	-1.098861E-008	2.919112E-005	6
