EXPLAIN
TAG	EISPOT
TITLE	LABEL	Potentiostatic EIS	Test Identifier
DATE	LABEL	3/1/2021	Date
TIME	LABEL	2:34:40	Time
NOTES	NOTES	1	Notes...
	
PSTAT	PSTAT	REF3000-16137	Potentiostat
VDC	POTEN	0.00000E+000	T	DC Voltage (V)
FREQINIT	QUANT	3.00000E+005	Initial Freq. (Hz)
FREQFINAL	QUANT	1.00000E+000	Final Freq. (Hz)
PTSPERDEC	QUANT	1.00000E+001	Points/decade
VAC	QUANT	5.00000E+001	AC Voltage (mV rms)
AREA	QUANT	1.00000E+000	Sample Area (cm^2)
SPEED	SELECTOR	2	Optimize for:
ZGUESS	QUANT	1.00000E+003	Estimated Z (ohms)
EOC	QUANT	0	Open Circuit (V)
SEQUENCER	TOGGLE	TRUE	Run as Sequence
PSTATMODEL	IQUANT	5	Pstat Model
PSTATSECTION	LABEL	REF3000-16137	Pstat Section
PSTATSERIALNO	LABEL	16137	Pstat Serial Number
CTRLMODE	IQUANT	1	Control Mode
IESTAB	IQUANT	0	I/E Stability
CASPEED	IQUANT	1	Control Amp Speed
CONVENTION	IQUANT	1	Current Convention
ICHRANGE	IQUANT	2	Ich Range
ICHRANGEMODE	TOGGLE	F	Ich Auto Range
ICHOFFSETENABLE	TOGGLE	T	Ich Offset Enable
ICHOFFSET	QUANT	0	Ich Offset (V)
ICHFILTER	IQUANT	3	Ich Filter
VCHRANGE	IQUANT	2	Vch Range
VCHRANGEMODE	TOGGLE	F	Vch Auto Range
VCHOFFSETENABLE	TOGGLE	T	Vch Offset Enable
VCHOFFSET	QUANT	0	Vch Offset (V)
VCHFILTER	IQUANT	3	Vch Filter
ACHRANGE	IQUANT	2	Ach Range
ACHOFFSETENABLE	TOGGLE	F	Ach Offset Enable
ACHOFFSET	QUANT	0	Ach Offset (V)
ACHFILTER	IQUANT	3	Ach Filter
IERANGELOWERLIMIT	IQUANT	2	I/E Range Lower Limit
IERANGEMODE	TOGGLE	F	I/E AutoRange
IERANGE	IQUANT	11	I/E Range
POSFEEDENABLE	TOGGLE	F	Positive Feedback IR Comp
POSFEEDRESISTANCE	QUANT	0	Positive Feedback Resistance (ohm)
ACHSELECT	IQUANT	0	Ach Select
CABLEID	IQUANT	13	Cable ID
DCCALDATE	LABEL	7/31/2020	DC Calibration Date
ACCALDATE	LABEL	7/31/2020	AC Calibration Date
THERMOSELECT	IQUANT	1	Thermo Select
FRAMEWORKVERSION	QUANT	6.33	Framework Version
INSTRUMENTVERSION	LABEL	3.50	Instrument Version
COMPLIANCEVOLTAGE	IQUANT	0	Compliance Voltage
ZCURVE	TABLE
	Pt	Time	Freq	Zreal	Zimag	Zsig	Zmod	Zphz	Idc	Vdc	IERange
	#	s	Hz	ohm	ohm	V	ohm	°	A	V	#
	0	14	300046.9	466.1093	-3773.536	1	3802.214	-82.95846	3.035935E-005	0.0009124	9
	1	31	238359.4	680.5032	-4604.331	1	4654.347	-81.59276	-1.578347E-005	0.0018	9
	2	46	189328.1	854.7553	-5349.813	1	5417.667	-80.92241	-2.064484E-005	0.0015044	9
	3	53	150421.9	1152.687	-7067.264	1	7160.65	-80.7365	2.552393E-005	0.0011229	9
	4	65	119484.4	1810.684	-8433.336	1	8625.528	-77.88225	-9.221005E-005	0.0330362	8
	5	73	94921.88	2011.603	-10343.25	1	10537.05	-78.99425	2.603586E-005	-0.0089785	8
	6	81	75421.88	2473.013	-12861.68	1	13097.28	-79.11613	2.717657E-005	-0.007442	8
	7	90	59859.37	3238.21	-15486.19	1	15821.13	-78.18945	-1.13393E-005	0.0101213	8
	8	99	47578.12	6376.447	-19639.51	1	20648.72	-72.01271	-1.637153E-006	0.0207342	7
	9	105	37828.12	7498.989	-23811.19	1	24964.13	-72.51894	-1.553701E-006	0.0205244	7
	10	112	30046.88	6986.142	-28348.07	1	29196.22	-76.15581	-1.485913E-006	-0.0049093	8
	11	120	23859.38	9102.384	-35915.74	1	37051.23	-75.77856	-1.914299E-005	0.0112427	8
	12	127	18984.38	10256.67	-42677.2	1	43892.4	-76.48632	1.615861E-005	-0.0091395	8
	13	133	15046.87	17408.68	-53015.78	1	55800.85	-71.82148	4.792207E-006	-0.0012792	7
	14	138	11953.13	21719.4	-64619.84	1	68172.25	-71.42197	-5.117412E-006	0.0038871	7
	15	144	9515.62	29670.21	-78879.6	1	84275.22	-69.38644	-1.418514E-006	0.0201935	7
	16	149	7546.875	37997.26	-94959.26	1	102279.3	-68.19154	-1.20219E-006	-0.0120836	7
	17	154	5928.309	46451.87	-116281.4	1	125216.4	-68.22438	-5.128625E-006	0.0038183	7
	18	160	4733.456	63177.81	-129390.3	1	143990.5	-63.97498	6.351689E-006	-0.0099114	7
	19	166	3796.875	85986.55	-152048.6	1	174678.2	-60.51097	-6.220418E-006	0.0248264	7
	20	171	2987.132	114767.5	-161866.8	1	198424.9	-54.66243	7.329011E-006	-0.0233893	7
	21	178	2390.625	147267.5	-196691.7	1	245714	-53.17698	3.372054E-006	-0.0234382	7
	22	184	1884.191	258576.9	-184328.9	1	317551.8	-35.48351	2.725414E-006	0.007768	7
	23	191	1516.544	49012.03	-517968.1	1	520281.8	-84.59456	2.348244E-005	-0.0029321	8
	24	198	1193.986	270461.3	-172611.1	1	320848.7	-32.54643	-1.614729E-006	0.0208238	7
	25	206	946.5144	333747.9	-177325.3	1	377931.1	-27.98238	5.825187E-007	-0.007026	6
	26	210	751.7689	401353.2	-140665.8	1	425289.6	-19.31448	2.710865E-006	0.0079663	7
	27	215	597.4265	459239.7	-308904.3	1	553464.5	-33.92646	-7.003328E-006	0.0230925	7
	28	219	477.4305	423560.1	-163478.5	1	454013.7	-21.10474	-6.629484E-008	0.0006639	7
	29	225	376.6741	450276.1	-143405.4	1	472560.7	-17.6658	-6.170482E-009	0.0006241	6
	30	227	298.2954	495368.9	-94915.12	1	504380	-10.84669	-1.206952E-009	0.0006989	5
	31	230	237.7717	502585.3	-89942.96	1	510569.9	-10.14628	-8.592013E-010	0.0006096	5
	32	232	189.0121	514536	-87399.76	1	521906.1	-9.64032	-7.254612E-010	0.0007073	5
	33	235	150.2404	525918	-86124.34	1	532923.2	-9.300208	-8.134146E-010	0.0006916	5
	34	238	119.1737	532702.1	-87597.81	1	539856.4	-9.338176	-8.725343E-010	0.0006305	5
	35	240	95.0169	550535.2	-90335.05	1	557897.3	-9.31839	-8.81114E-010	0.0006407	5
	36	243	75.60484	562144.9	-91731.9	1	569580.3	-9.267949	-7.11792E-010	0.0006564	5
	37	245	54.50582	586638.8	-112842.4	1	597393	-10.88809	-4.311546E-010	0.0006087	5
	38	248	45.95588	590942.4	-107356.6	1	600615	-10.29664	-1.187558E-009	0.0006506	5
	39	250	37.20238	605889.5	-116031.6	1	616899.9	-10.84124	-1.142815E-009	0.0006509	5
	40	253	30.04808	622938.1	-126153.8	1	635583.7	-11.44838	-6.014438E-010	0.0006799	5
	41	256	23.91582	640955.8	-138571	1	655763.9	-12.19927	-6.131514E-010	0.0007003	5
	42	258	18.60119	662320.6	-161115.6	1	681635.4	-13.67217	-8.579233E-010	0.0006397	5
	43	260	15.02404	683874.7	-172055.6	1	705186.3	-14.12192	-1.479292E-009	0.0007069	5
	44	263	12.01923	706836.9	-191016.5	1	732192.4	-15.12245	-1.275636E-009	0.0006562	5
	45	265	9.450605	734511	-215198	1	765386.6	-16.3296	-1.329727E-009	0.0006668	5
	46	268	7.512019	762768.4	-242211.6	1	800301.3	-17.61687	-1.257094E-009	0.000673	5
	47	271	5.978954	796740.8	-274309.2	1	842639.5	-18.99803	-6.573952E-010	0.0006292	5
	48	275	4.734848	835863.3	-311015.4	1	891850.9	-20.40967	-1.116048E-009	0.0006885	5
	49	279	3.75601	880720.4	-352702.2	1	948718.8	-21.82462	-9.97249E-010	0.0006789	5
	50	284	3.004808	931837.7	-400179.1	1	1014133	-23.24118	-9.881225E-010	0.0007021	5
	51	291	2.372217	991038	-455589.2	1	1090742	-24.68867	-6.337461E-010	0.0007373	5
	52	295	1.878005	1053184	-520509.9	1	1174789	-26.29973	-8.390796E-010	0.0006339	5
	53	300	1.512097	1119762	-588802.7	1	1265131	-27.73667	-9.258554E-010	0.0007596	5
	54	305	1.201923	1202354	-672790.8	1	1377789	-29.22969	-6.995352E-010	0.0006286	5
	55	311	0.956633	1296645	-770998.3	1	1508551	-30.73615	-1.289949E-009	1.462452E-005	5
