EXPLAIN
TAG	EISPOT
TITLE	LABEL	Potentiostatic EIS	Test Identifier
DATE	LABEL	3/1/2021	Date
TIME	LABEL	2:45:31	Time
NOTES	NOTES	1	Notes...
	
PSTAT	PSTAT	REF3000-16137	Potentiostat
VDC	POTEN	0.00000E+000	T	DC Voltage (V)
FREQINIT	QUANT	3.00000E+005	Initial Freq. (Hz)
FREQFINAL	QUANT	1.00000E+000	Final Freq. (Hz)
PTSPERDEC	QUANT	1.00000E+001	Points/decade
VAC	QUANT	5.00000E+001	AC Voltage (mV rms)
AREA	QUANT	1.00000E+000	Sample Area (cm^2)
SPEED	SELECTOR	2	Optimize for:
ZGUESS	QUANT	1.00000E+003	Estimated Z (ohms)
EOC	QUANT	0	Open Circuit (V)
SEQUENCER	TOGGLE	TRUE	Run as Sequence
PSTATMODEL	IQUANT	5	Pstat Model
PSTATSECTION	LABEL	REF3000-16137	Pstat Section
PSTATSERIALNO	LABEL	16137	Pstat Serial Number
CTRLMODE	IQUANT	1	Control Mode
IESTAB	IQUANT	0	I/E Stability
CASPEED	IQUANT	1	Control Amp Speed
CONVENTION	IQUANT	1	Current Convention
ICHRANGE	IQUANT	2	Ich Range
ICHRANGEMODE	TOGGLE	F	Ich Auto Range
ICHOFFSETENABLE	TOGGLE	T	Ich Offset Enable
ICHOFFSET	QUANT	0	Ich Offset (V)
ICHFILTER	IQUANT	3	Ich Filter
VCHRANGE	IQUANT	2	Vch Range
VCHRANGEMODE	TOGGLE	F	Vch Auto Range
VCHOFFSETENABLE	TOGGLE	T	Vch Offset Enable
VCHOFFSET	QUANT	0	Vch Offset (V)
VCHFILTER	IQUANT	3	Vch Filter
ACHRANGE	IQUANT	2	Ach Range
ACHOFFSETENABLE	TOGGLE	F	Ach Offset Enable
ACHOFFSET	QUANT	0	Ach Offset (V)
ACHFILTER	IQUANT	3	Ach Filter
IERANGELOWERLIMIT	IQUANT	2	I/E Range Lower Limit
IERANGEMODE	TOGGLE	F	I/E AutoRange
IERANGE	IQUANT	11	I/E Range
POSFEEDENABLE	TOGGLE	F	Positive Feedback IR Comp
POSFEEDRESISTANCE	QUANT	0	Positive Feedback Resistance (ohm)
ACHSELECT	IQUANT	0	Ach Select
CABLEID	IQUANT	13	Cable ID
DCCALDATE	LABEL	7/31/2020	DC Calibration Date
ACCALDATE	LABEL	7/31/2020	AC Calibration Date
THERMOSELECT	IQUANT	1	Thermo Select
FRAMEWORKVERSION	QUANT	6.33	Framework Version
INSTRUMENTVERSION	LABEL	3.50	Instrument Version
COMPLIANCEVOLTAGE	IQUANT	0	Compliance Voltage
ZCURVE	TABLE
	Pt	Time	Freq	Zreal	Zimag	Zsig	Zmod	Zphz	Idc	Vdc	IERange
	#	s	Hz	ohm	ohm	V	ohm	°	A	V	#
	0	18	300046.9	265.5838	-4158.033	1	4166.506	-86.34534	2.47112E-005	-0.0009959	9
	1	35	238359.4	441.2638	-5109.196	1	5128.216	-85.0638	5.027726E-005	0.0001491	9
	2	51	189328.1	603.7382	-6239.3	1	6268.442	-84.47305	2.921066E-005	-0.0018671	9
	3	61	150421.9	1017.161	-7770.601	1	7836.891	-82.54247	2.043927E-005	-0.0003292	9
	4	68	119484.4	1106.992	-9643.27	1	9706.6	-83.45144	-3.168945E-005	-0.0058145	8
	5	76	94921.88	1560.332	-11821.04	1	11923.57	-82.48064	-1.155666E-005	0.0101289	8
	6	84	75421.88	1722.246	-14509.12	1	14610.98	-83.23061	1.748183E-005	0.0001978	8
	7	93	59859.37	2386.208	-18178.65	1	18334.59	-82.52187	2.74482E-005	-0.0074408	8
	8	102	47578.12	3109.092	-22598.99	1	22811.86	-82.16662	-2.389035E-005	0.0053427	8
	9	110	37828.12	3714.256	-27643.23	1	27891.64	-82.34734	2.599574E-005	-0.0088949	8
	10	120	30046.88	5060	-34321.62	1	34692.61	-81.61336	2.82372E-005	-0.0004642	9
	11	129	23859.38	7129.575	-43032.34	1	43618.95	-80.59272	2.613044E-005	-0.0089061	8
	12	136	18984.38	8128.512	-51449.4	1	52087.56	-81.02203	1.763756E-005	0.0003076	8
	13	143	15046.87	13862.97	-65483.18	1	66934.52	-78.04681	3.462258E-006	-0.0239085	7
	14	148	11953.13	16521.25	-79325.76	1	81027.95	-78.23514	-5.195873E-006	0.0262021	7
	15	153	9515.62	18629.93	-98684.5	1	100427.6	-79.30936	7.489411E-006	-0.023993	7
	16	160	7546.875	24706.76	-121253.3	1	123744.9	-78.48299	1.272925E-006	-0.0192411	7
	17	165	5928.309	29717.43	-151037.6	1	153933.4	-78.86894	7.392658E-006	-0.0181396	7
	18	171	4733.456	50272.91	-177894	1	184861.2	-74.21969	7.488256E-006	-0.0238392	7
	19	177	3796.875	58351.04	-226855.5	1	234239.8	-75.57526	-6.432402E-006	0.0254944	7
	20	183	2987.132	138523.9	-175248.1	1	223384.8	-51.67559	-2.650532E-005	0.0096702	8
	21	192	2390.625	145109.1	-372659.9	1	399915.1	-68.72469	-2.638133E-005	0.0077746	8
	22	201	1884.191	10526.25	-168552.1	1	168880.5	-86.42646	2.740521E-005	-0.0073807	8
	23	210	1516.544	399830	-170614.9	1	434710.8	-23.10884	-1.936814E-005	0.0112779	8
	24	218	1193.986	262064.7	-690795.5	1	738834.4	-69.22493	1.248896E-006	-0.0191602	7
	25	226	946.5144	109326.1	-724974.6	1	733171.4	-81.42442	6.498934E-006	-0.0101188	7
	26	232	751.7689	493045.4	-659553.3	1	823470.9	-53.22025	2.755843E-006	0.008128	7
	27	238	597.4265	754368.4	-216798.4	1	784903.3	-16.03415	7.443713E-006	-0.0182166	7
	28	244	477.4305	708791.6	-1145830	1	1347335	-58.25975	-6.651837E-008	0.0006885	7
	29	251	376.6741	1117126	-1213574	1	1649464	-47.36963	-7.284254E-010	0.0006745	5
	30	254	298.2954	1353997	-1306224	1	1881364	-43.97118	-7.56539E-010	0.0006666	5
	31	256	237.7717	1619182	-1365798	1	2118291	-40.14799	-6.578764E-010	0.0006764	5
	32	259	189.0121	1893447	-1378419	1	2342046	-36.05441	-7.251165E-010	0.0006795	5
	33	262	150.2404	2163266	-1337770	1	2543492	-31.73276	-6.482151E-010	0.0006241	5
	34	265	119.1737	2288184	-1379397	1	2671801	-31.08302	-6.486584E-009	0.0006984	6
	35	269	95.0169	2599759	-1298339	1	2905930	-26.53789	-6.720111E-009	0.0007195	6
	36	272	75.60484	2907914	-1183400	1	3139491	-22.14428	-6.995882E-009	0.0007289	6
	37	276	54.50582	3090384	-1116953	1	3286040	-19.8713	-6.475088E-009	0.00063	6
	38	281	45.95588	3280690	-955151	1	3416905	-16.23257	-6.657392E-010	0.0006296	5
	39	285	37.20238	3416869	-967698	1	3551258	-15.81276	-6.096154E-009	0.0006488	6
	40	289	30.04808	3513615	-933078.1	1	3635399	-14.87224	-6.355922E-009	0.0006661	6
	41	293	23.91582	3617870	-861076.8	1	3718929	-13.38769	-8.588511E-010	0.0007084	5
	42	296	18.60119	3794245	-753798.1	1	3868399	-11.23658	-9.45766E-010	0.0006512	5
	43	300	15.02404	3919074	-819658.1	1	4003871	-11.8129	-8.637023E-010	0.0006178	5
	44	304	12.01923	4041532	-838495.4	1	4127596	-11.72086	-6.536086E-010	0.0006195	5
	45	307	9.450605	4196712	-863075.4	1	4284541	-11.62115	-6.985335E-010	0.0007166	5
	46	311	7.512019	4316701	-866471.6	1	4402803	-11.34989	-6.505664E-010	0.0006674	5
	47	316	5.978954	4477291	-902810.8	1	4567407	-11.40038	-7.26949E-010	0.0007099	5
	48	321	4.734848	4658174	-931402.7	1	4750378	-11.30719	-7.795708E-012	0.0007182	4
	49	325	3.75601	4826664	-1026426	1	4934595	-12.00553	-3.755662E-011	0.000656	4
	50	330	3.004808	5031224	-1137534	1	5158216	-12.74008	1.684563E-011	0.0006436	4
	51	337	2.372217	5228499	-1261620	1	5378558	-13.56596	-8.82107E-011	0.0005966	4
	52	341	1.878005	5439655	-1421344	1	5622283	-14.64359	-5.71547E-012	0.0006759	4
	53	346	1.512097	5669439	-1591333	1	5888538	-15.67869	3.454224E-011	0.0006129	4
	54	351	1.201923	5940256	-1789101	1	6203832	-16.76138	-6.380901E-011	0.0006952	4
	55	357	0.956633	6261797	-2030657	1	6582832	-17.96751	-2.058617E-010	3.365244E-005	4
