EXPLAIN
TAG	EISPOT
TITLE	LABEL	Potentiostatic EIS	Test Identifier
DATE	LABEL	3/1/2021	Date
TIME	LABEL	2:07:51	Time
NOTES	NOTES	1	Notes...
	
PSTAT	PSTAT	REF3000-16137	Potentiostat
VDC	POTEN	0.00000E+000	T	DC Voltage (V)
FREQINIT	QUANT	3.00000E+005	Initial Freq. (Hz)
FREQFINAL	QUANT	1.00000E+000	Final Freq. (Hz)
PTSPERDEC	QUANT	1.00000E+001	Points/decade
VAC	QUANT	5.00000E+001	AC Voltage (mV rms)
AREA	QUANT	1.00000E+000	Sample Area (cm^2)
SPEED	SELECTOR	2	Optimize for:
ZGUESS	QUANT	1.00000E+003	Estimated Z (ohms)
EOC	QUANT	0	Open Circuit (V)
SEQUENCER	TOGGLE	TRUE	Run as Sequence
PSTATMODEL	IQUANT	5	Pstat Model
PSTATSECTION	LABEL	REF3000-16137	Pstat Section
PSTATSERIALNO	LABEL	16137	Pstat Serial Number
CTRLMODE	IQUANT	1	Control Mode
IESTAB	IQUANT	0	I/E Stability
CASPEED	IQUANT	1	Control Amp Speed
CONVENTION	IQUANT	1	Current Convention
ICHRANGE	IQUANT	2	Ich Range
ICHRANGEMODE	TOGGLE	F	Ich Auto Range
ICHOFFSETENABLE	TOGGLE	T	Ich Offset Enable
ICHOFFSET	QUANT	0	Ich Offset (V)
ICHFILTER	IQUANT	3	Ich Filter
VCHRANGE	IQUANT	2	Vch Range
VCHRANGEMODE	TOGGLE	F	Vch Auto Range
VCHOFFSETENABLE	TOGGLE	T	Vch Offset Enable
VCHOFFSET	QUANT	0	Vch Offset (V)
VCHFILTER	IQUANT	3	Vch Filter
ACHRANGE	IQUANT	2	Ach Range
ACHOFFSETENABLE	TOGGLE	F	Ach Offset Enable
ACHOFFSET	QUANT	0	Ach Offset (V)
ACHFILTER	IQUANT	3	Ach Filter
IERANGELOWERLIMIT	IQUANT	2	I/E Range Lower Limit
IERANGEMODE	TOGGLE	F	I/E AutoRange
IERANGE	IQUANT	11	I/E Range
POSFEEDENABLE	TOGGLE	F	Positive Feedback IR Comp
POSFEEDRESISTANCE	QUANT	0	Positive Feedback Resistance (ohm)
ACHSELECT	IQUANT	0	Ach Select
CABLEID	IQUANT	13	Cable ID
DCCALDATE	LABEL	7/31/2020	DC Calibration Date
ACCALDATE	LABEL	7/31/2020	AC Calibration Date
THERMOSELECT	IQUANT	1	Thermo Select
FRAMEWORKVERSION	QUANT	6.33	Framework Version
INSTRUMENTVERSION	LABEL	3.50	Instrument Version
COMPLIANCEVOLTAGE	IQUANT	0	Compliance Voltage
ZCURVE	TABLE
	Pt	Time	Freq	Zreal	Zimag	Zsig	Zmod	Zphz	Idc	Vdc	IERange
	#	s	Hz	ohm	ohm	V	ohm	°	A	V	#
	0	30	300046.9	672.1681	-2943.359	1	3019.134	-77.13609	2.301156E-005	-0.0020918	9
	1	48	238359.4	926.6591	-3549.758	1	3668.717	-75.36953	-5.768985E-005	0.0004539	9
	2	74	189328.1	1278.272	-4780.96	1	4948.895	-75.03111	-6.107036E-005	0.00052	9
	3	84	150421.9	1578.394	-5243.381	1	5475.799	-73.24684	-1.960449E-005	0.0012632	9
	4	91	119484.4	2378.344	-6247.657	1	6685.038	-69.15928	-6.174146E-005	0.008429	8
	5	99	94921.88	3097.777	-7445.185	1	8063.932	-67.40888	-2.589381E-005	0.0097353	8
	6	106	75421.88	4184.138	-8841.418	1	9781.5	-64.67448	-1.826999E-005	0.011065	8
	7	115	59859.37	5729.356	-10353.96	1	11833.43	-61.04209	-1.657186E-005	0.0010316	8
	8	122	47578.12	7546.424	-12192.18	1	14338.68	-58.24432	9.685973E-006	0.0036429	8
	9	131	37828.12	11413.13	-12756.41	1	17116.82	-48.18108	5.988095E-006	-0.0095215	7
	10	137	30046.88	14012.73	-13516.78	1	19469.46	-43.9679	2.635319E-006	0.0068599	7
	11	144	23859.38	16778.02	-13964.75	1	21829.25	-39.77142	5.723072E-007	0.0138626	7
	12	148	18984.38	19797.63	-13910.01	1	24195.75	-35.09226	-3.220237E-006	0.0225838	7
	13	152	15046.87	22435.12	-13423.4	1	26144.26	-30.89296	1.074515E-006	-0.0172812	7
	14	158	11953.13	25069.09	-12500.17	1	28012.74	-26.50216	-6.493707E-006	0.0212932	7
	15	163	9515.62	26941.47	-11544.33	1	29310.65	-23.19497	3.045111E-006	-0.0215526	7
	16	168	7546.875	28894.61	-10528.29	1	30752.94	-20.02016	5.880898E-006	-0.0093161	7
	17	173	5928.309	30909.87	-9504.38	1	32338.1	-17.09198	3.02997E-006	-0.0215679	7
	18	179	4733.456	31003.7	-8950.367	1	32269.78	-16.10275	-5.771566E-006	0.0233321	7
	19	184	3796.875	32713.12	-7667.041	1	33599.57	-13.19045	-1.050917E-006	-0.0112085	7
	20	190	2987.132	34286.83	-6996.916	1	34993.48	-11.53398	-2.064138E-006	-0.0046739	8
	21	196	2390.625	34429.68	-7051.818	1	35144.43	-11.57512	-1.040674E-005	-0.001651	8
	22	202	1884.191	35356.7	-6412.816	1	35933.55	-10.28026	6.829758E-006	-0.0169538	7
	23	208	1516.544	35355.04	-6703.739	1	35984.98	-10.73651	-4.842539E-006	0.0039958	7
	24	213	1193.986	37377.16	-5602.413	1	37794.69	-8.524529	6.863733E-006	-0.0220262	7
	25	219	946.5144	38720.84	-5263.855	1	39077	-7.741544	1.504172E-005	-0.0088736	8
	26	224	751.7689	38176.18	-8047.318	1	39015.13	-11.90335	4.748359E-006	-0.0237805	7
	27	227	597.4265	36299.38	-2231.403	1	36367.89	-3.517672	2.569162E-005	-0.0089993	8
	28	232	477.4305	40028.14	-7768.037	1	40774.93	-10.98256	-2.263183E-007	0.000671	8
	29	236	376.6741	41286.3	-7937.513	1	42042.39	-10.88264	-5.70486E-009	0.0006304	6
	30	238	298.2954	42309.78	-8803.626	1	43215.98	-11.75413	-6.32322E-009	0.0007069	6
	31	240	237.7717	43409.6	-9827.36	1	44508.09	-12.75599	-5.908769E-009	0.0006387	6
	32	243	189.0121	44618.87	-10981.28	1	45950.32	-13.82644	-6.037136E-009	0.0006293	6
	33	245	150.2404	45988.01	-12306.47	1	47606.16	-14.98142	-6.04091E-009	0.0006952	6
	34	248	119.1737	47566.03	-13839.28	1	49538.39	-16.22229	-5.919425E-009	0.0006396	6
	35	250	95.0169	49174.44	-15521.57	1	51565.92	-17.51794	-5.74541E-009	0.0006529	6
	36	252	75.60484	51064.72	-17482.15	1	53974.36	-18.89878	-6.827338E-009	0.0006914	6
	37	255	54.50582	54000.34	-20816.75	1	57873.78	-21.0813	-7.0183E-009	0.0007098	6
	38	258	45.95588	55986.29	-22774.48	1	60441.23	-22.13584	-5.691102E-009	0.0007035	6
	39	260	37.20238	58462.36	-25547.82	1	63800.77	-23.60514	-8.619072E-009	0.0006795	6
	40	262	30.04808	61259.84	-28646.18	1	67626.71	-25.06162	-5.731598E-009	0.0007133	6
	41	265	23.91582	64603.04	-32382.94	1	72264.84	-26.62279	-8.36166E-009	0.0007186	6
	42	267	18.60119	68899.81	-37307.74	1	78352.1	-28.43457	-1.066448E-008	0.0007071	6
	43	270	15.02404	72883.55	-41928.38	1	84083.3	-29.91091	-9.364602E-009	0.0006529	6
	44	272	12.01923	77641.52	-47453.24	1	90994.59	-31.4326	-8.534288E-009	0.0006353	6
	45	275	9.450605	83535.1	-54210.43	1	99583.6	-32.98171	-3.558873E-009	0.0007147	6
	46	277	7.512019	89686.73	-61707.48	1	108864.7	-34.52928	-4.307531E-009	0.0007227	6
	47	280	5.978954	96923.5	-70200.63	1	119675.8	-35.9154	-5.61492E-009	0.0006892	6
	48	285	4.734848	105341.9	-80038.2	1	132299	-37.22737	-4.630528E-009	0.0006591	6
	49	288	3.75601	114955.9	-91269.91	1	146782.3	-38.44803	-5.944738E-009	0.0006232	6
	50	293	3.004808	125559.6	-103603.6	1	162784.9	-39.52721	-6.872954E-009	0.0007321	6
	51	300	2.372217	138389.8	-118303.5	1	182064.4	-40.52571	-6.889912E-009	0.0007285	6
	52	304	1.878005	152941.7	-135238.3	1	204158.2	-41.48465	-7.827177E-009	0.00066	6
	53	309	1.512097	168073.5	-152721.1	1	227095.7	-42.26007	-7.299212E-009	0.000643	6
	54	314	1.201923	186760.7	-173786.3	1	255110.3	-42.93908	-7.00531E-009	0.0006528	6
	55	320	0.956633	208224.7	-197586.6	1	287050.5	-43.49837	-7.804786E-009	1.025684E-005	6
