EXPLAIN
TAG	EISPOT
TITLE	LABEL	Potentiostatic EIS	Test Identifier
DATE	LABEL	3/1/2021	Date
TIME	LABEL	1:23:46	Time
NOTES	NOTES	1	Notes...
	
PSTAT	PSTAT	REF3000-16137	Potentiostat
VDC	POTEN	0.00000E+000	T	DC Voltage (V)
FREQINIT	QUANT	3.00000E+005	Initial Freq. (Hz)
FREQFINAL	QUANT	1.00000E+000	Final Freq. (Hz)
PTSPERDEC	QUANT	1.00000E+001	Points/decade
VAC	QUANT	5.00000E+001	AC Voltage (mV rms)
AREA	QUANT	1.00000E+000	Sample Area (cm^2)
SPEED	SELECTOR	2	Optimize for:
ZGUESS	QUANT	1.00000E+003	Estimated Z (ohms)
EOC	QUANT	0	Open Circuit (V)
SEQUENCER	TOGGLE	TRUE	Run as Sequence
PSTATMODEL	IQUANT	5	Pstat Model
PSTATSECTION	LABEL	REF3000-16137	Pstat Section
PSTATSERIALNO	LABEL	16137	Pstat Serial Number
CTRLMODE	IQUANT	1	Control Mode
IESTAB	IQUANT	0	I/E Stability
CASPEED	IQUANT	1	Control Amp Speed
CONVENTION	IQUANT	1	Current Convention
ICHRANGE	IQUANT	2	Ich Range
ICHRANGEMODE	TOGGLE	F	Ich Auto Range
ICHOFFSETENABLE	TOGGLE	T	Ich Offset Enable
ICHOFFSET	QUANT	0	Ich Offset (V)
ICHFILTER	IQUANT	3	Ich Filter
VCHRANGE	IQUANT	2	Vch Range
VCHRANGEMODE	TOGGLE	F	Vch Auto Range
VCHOFFSETENABLE	TOGGLE	T	Vch Offset Enable
VCHOFFSET	QUANT	0	Vch Offset (V)
VCHFILTER	IQUANT	3	Vch Filter
ACHRANGE	IQUANT	2	Ach Range
ACHOFFSETENABLE	TOGGLE	F	Ach Offset Enable
ACHOFFSET	QUANT	0	Ach Offset (V)
ACHFILTER	IQUANT	1	Ach Filter
IERANGELOWERLIMIT	IQUANT	2	I/E Range Lower Limit
IERANGEMODE	TOGGLE	F	I/E AutoRange
IERANGE	IQUANT	11	I/E Range
POSFEEDENABLE	TOGGLE	F	Positive Feedback IR Comp
POSFEEDRESISTANCE	QUANT	0	Positive Feedback Resistance (ohm)
ACHSELECT	IQUANT	0	Ach Select
CABLEID	IQUANT	13	Cable ID
DCCALDATE	LABEL	7/31/2020	DC Calibration Date
ACCALDATE	LABEL	7/31/2020	AC Calibration Date
THERMOSELECT	IQUANT	1	Thermo Select
FRAMEWORKVERSION	QUANT	6.33	Framework Version
INSTRUMENTVERSION	LABEL	3.50	Instrument Version
COMPLIANCEVOLTAGE	IQUANT	0	Compliance Voltage
ZCURVE	TABLE
	Pt	Time	Freq	Zreal	Zimag	Zsig	Zmod	Zphz	Idc	Vdc	IERange
	#	s	Hz	ohm	ohm	V	ohm	°	A	V	#
	0	14	300046.9	1080.86	-2240.174	1	2487.295	-64.24319	2.575778E-005	-0.0016244	9
	1	32	238359.4	1443.62	-2548.946	1	2929.363	-60.47453	1.906246E-005	-0.0009104	9
	2	53	189328.1	1815.002	-2872.365	1	3397.751	-57.71185	1.926651E-005	-0.0008936	9
	3	63	150421.9	2489.215	-3123.17	1	3993.793	-51.44462	2.098035E-005	-0.0002885	9
	4	70	119484.4	3246.584	-3171.327	1	4538.46	-44.32817	1.814754E-005	-0.0094556	8
	5	78	94921.88	3945.943	-3177.681	1	5066.372	-38.84461	-2.526353E-005	0.0077816	8
	6	86	75421.88	4604.318	-3125.109	1	5564.715	-34.16609	-1.670811E-005	0.0012702	8
	7	93	59859.37	5158.663	-2961.097	1	5948.101	-29.85603	2.466983E-005	-0.0087557	8
	8	100	47578.12	5677.078	-2701.342	1	6287.007	-25.44665	-1.057148E-005	-0.0014058	8
	9	108	37828.12	6090.655	-2468.032	1	6571.701	-22.05859	1.008452E-005	0.0033451	8
	10	115	30046.88	6450.949	-2219.165	1	6821.982	-18.98352	-2.517066E-005	0.0095991	8
	11	123	23859.38	6747.07	-1960.537	1	7026.142	-16.2026	-1.680693E-005	0.001307	8
	12	128	18984.38	6971.39	-1794.601	1	7198.672	-14.43587	-2.258927E-005	0.0107565	8
	13	133	15046.87	7225.044	-1660.294	1	7413.355	-12.94172	2.367805E-005	-0.0033477	8
	14	140	11953.13	7330.951	-1536.693	1	7490.278	-11.83877	-2.003836E-005	0.0011067	9
	15	146	9515.62	7471.513	-1405.145	1	7602.496	-10.65104	-1.731414E-005	0.01075	8
	16	153	7546.875	7633.103	-1362.747	1	7753.795	-10.12244	-2.307608E-005	0.0004617	9
	17	159	5928.309	7825.226	-1266.702	1	7927.086	-9.194951	2.650043E-005	-0.0074357	8
	18	165	4733.456	7827.82	-1340.881	1	7941.834	-9.72025	2.657485E-005	-0.0074594	8
	19	171	3796.875	8018.006	-1344.496	1	8129.95	-9.51906	-2.265636E-005	0.0107382	8
	20	178	2987.132	8259.636	-1368.965	1	8372.314	-9.410741	-2.678272E-005	0.0009354	9
	21	184	2390.625	8473.318	-1431.895	1	8593.454	-9.59172	-2.35001E-005	0.0056026	8
	22	190	1884.191	8493.039	-1824.212	1	8686.74	-12.12233	-2.25983E-005	0.010705	8
	23	196	1516.544	8827.039	-1838.362	1	9016.44	-11.76453	1.832196E-005	-0.000307	8
	24	203	1193.986	8965.464	-1811.967	1	9146.735	-11.42587	-1.665489E-005	0.0012963	8
	25	209	946.5144	9198.814	-2218.523	1	9462.56	-13.55936	3.004935E-005	-0.0006848	9
	26	214	751.7689	9335.308	-2293.6	1	9612.94	-13.80364	1.038498E-005	0.0004269	9
	27	219	597.4265	9793.35	-2664.56	1	10149.36	-15.22051	-5.448819E-006	0.0215055	7
	28	222	477.4305	9989.4	-2901.435	1	10402.24	-16.196	-3.848001E-008	0.0005961	7
	29	224	376.6741	10336.81	-3270.035	1	10841.71	-17.5547	-4.201743E-008	0.0006511	7
	30	226	298.2954	10720.57	-3688.469	1	11337.34	-18.98605	-3.921785E-008	0.0006379	7
	31	228	237.7717	11133.58	-4153.857	1	11883.23	-20.46018	-3.885053E-008	0.0005898	7
	32	231	189.0121	11604.67	-4693.972	1	12518.06	-22.02284	-4.426243E-008	0.0006651	7
	33	233	150.2404	12131.36	-5312.578	1	13243.62	-23.64962	-4.68455E-008	0.0006279	7
	34	236	119.1737	12732.79	-6032.137	1	14089.38	-25.34918	-4.87372E-008	0.0006464	7
	35	238	95.0169	13388.54	-6834.937	1	15032.28	-27.04461	-3.932152E-008	0.0006104	7
	36	241	75.60484	14143.76	-7767.689	1	16136.38	-28.7754	-4.666231E-008	0.0006699	7
	37	243	54.50582	15371.38	-9351.432	1	17992.46	-31.31493	-4.706524E-008	0.000665	7
	38	246	45.95588	16138.93	-10309.8	1	19150.9	-32.57108	-4.232464E-008	0.0006696	7
	39	248	37.20238	17162.81	-11641.07	1	20738.29	-34.14799	-5.013275E-008	0.0006727	7
	40	250	30.04808	18347.95	-13177.38	1	22589.62	-35.68567	-4.406547E-008	0.0006025	7
	41	253	23.91582	19771.8	-15041.73	1	24843.06	-37.26267	-4.504741E-008	0.0006582	7
	42	255	18.60119	21549.32	-17442.51	1	27723.89	-38.9875	-3.727691E-008	0.0006229	7
	43	257	15.02404	23386.16	-19756.4	1	30614.18	-40.1908	-5.053551E-008	0.0006654	7
	44	260	12.01923	25516.29	-22492.41	1	34014.54	-41.39592	-5.217685E-008	0.0006608	7
	45	262	9.450605	28105.88	-25933.86	1	38242.72	-42.69835	-5.081143E-008	0.0006774	7
	46	265	7.512019	31020.03	-29648.97	1	42910.42	-43.70539	-1.010605E-008	0.0006359	6
	47	268	5.978954	34286.91	-33891.82	1	48210.45	-44.66798	-9.451257E-009	0.000716	6
	48	272	4.734848	38147.91	-38861.46	1	54456.19	-45.53088	-1.072453E-008	0.0006858	6
	49	275	3.75601	42600.28	-44432.46	1	61555.08	-46.20599	-5.304336E-009	0.0006542	6
	50	280	3.004808	47505.93	-50512.91	1	69342.39	-46.75714	-7.814031E-009	0.0006612	6
	51	287	2.372217	53523.64	-57902.23	1	78850.8	-47.25034	-5.282487E-009	0.0006922	6
	52	291	1.878005	60468.34	-66090.05	1	89578.55	-47.5434	-6.554923E-009	0.000649	6
	53	296	1.512097	67806.92	-74639.07	1	100840.3	-47.74598	-8.066142E-009	0.0007683	6
	54	301	1.201923	76780.21	-84965.66	1	114518	-47.89709	-6.53876E-009	0.0006419	6
	55	307	0.956633	87027.24	-96540.9	1	129976.5	-47.96679	-1.216492E-008	3.118746E-005	6
