EXPLAIN
TAG	EISPOT
TITLE	LABEL	Potentiostatic EIS	Test Identifier
DATE	LABEL	3/1/2021	Date
TIME	LABEL	2:02:25	Time
NOTES	NOTES	1	Notes...
	
PSTAT	PSTAT	REF3000-16137	Potentiostat
VDC	POTEN	0.00000E+000	T	DC Voltage (V)
FREQINIT	QUANT	3.00000E+005	Initial Freq. (Hz)
FREQFINAL	QUANT	1.00000E+000	Final Freq. (Hz)
PTSPERDEC	QUANT	1.00000E+001	Points/decade
VAC	QUANT	5.00000E+001	AC Voltage (mV rms)
AREA	QUANT	1.00000E+000	Sample Area (cm^2)
SPEED	SELECTOR	2	Optimize for:
ZGUESS	QUANT	1.00000E+003	Estimated Z (ohms)
EOC	QUANT	0	Open Circuit (V)
SEQUENCER	TOGGLE	TRUE	Run as Sequence
PSTATMODEL	IQUANT	5	Pstat Model
PSTATSECTION	LABEL	REF3000-16137	Pstat Section
PSTATSERIALNO	LABEL	16137	Pstat Serial Number
CTRLMODE	IQUANT	1	Control Mode
IESTAB	IQUANT	0	I/E Stability
CASPEED	IQUANT	1	Control Amp Speed
CONVENTION	IQUANT	1	Current Convention
ICHRANGE	IQUANT	2	Ich Range
ICHRANGEMODE	TOGGLE	F	Ich Auto Range
ICHOFFSETENABLE	TOGGLE	T	Ich Offset Enable
ICHOFFSET	QUANT	0	Ich Offset (V)
ICHFILTER	IQUANT	3	Ich Filter
VCHRANGE	IQUANT	2	Vch Range
VCHRANGEMODE	TOGGLE	F	Vch Auto Range
VCHOFFSETENABLE	TOGGLE	T	Vch Offset Enable
VCHOFFSET	QUANT	0	Vch Offset (V)
VCHFILTER	IQUANT	3	Vch Filter
ACHRANGE	IQUANT	2	Ach Range
ACHOFFSETENABLE	TOGGLE	F	Ach Offset Enable
ACHOFFSET	QUANT	0	Ach Offset (V)
ACHFILTER	IQUANT	3	Ach Filter
IERANGELOWERLIMIT	IQUANT	2	I/E Range Lower Limit
IERANGEMODE	TOGGLE	F	I/E AutoRange
IERANGE	IQUANT	11	I/E Range
POSFEEDENABLE	TOGGLE	F	Positive Feedback IR Comp
POSFEEDRESISTANCE	QUANT	0	Positive Feedback Resistance (ohm)
ACHSELECT	IQUANT	0	Ach Select
CABLEID	IQUANT	13	Cable ID
DCCALDATE	LABEL	7/31/2020	DC Calibration Date
ACCALDATE	LABEL	7/31/2020	AC Calibration Date
THERMOSELECT	IQUANT	1	Thermo Select
FRAMEWORKVERSION	QUANT	6.33	Framework Version
INSTRUMENTVERSION	LABEL	3.50	Instrument Version
COMPLIANCEVOLTAGE	IQUANT	0	Compliance Voltage
ZCURVE	TABLE
	Pt	Time	Freq	Zreal	Zimag	Zsig	Zmod	Zphz	Idc	Vdc	IERange
	#	s	Hz	ohm	ohm	V	ohm	°	A	V	#
	0	19	300046.9	708.0379	-2840.225	1	2927.148	-76.00208	4.775859E-005	-4.176761E-005	9
	1	50	238359.4	972.574	-3431.652	1	3566.81	-74.1766	-1.801871E-005	0.001601	9
	2	69	189328.1	1366.8	-4168.398	1	4386.762	-71.8459	-1.625535E-005	0.0017428	9
	3	82	150421.9	1932.356	-5051.537	1	5408.514	-69.06673	2.324415E-006	0.0016144	9
	4	91	119484.4	2543.277	-5800.377	1	6333.453	-66.32411	-3.900378E-005	0.0222692	8
	5	98	94921.88	3461.729	-6887.127	1	7708.183	-63.31418	-1.01792E-005	0.0097572	8
	6	106	75421.88	4535.739	-8361.217	1	9512.25	-61.52134	1.895917E-005	-0.0009365	9
	7	114	59859.37	6176.215	-9074.837	1	10977.17	-55.76131	-1.048815E-005	-0.0016181	8
	8	123	47578.12	9535.54	-9561.15	1	13503.41	-45.07686	-3.11674E-006	0.0220989	7
	9	129	37828.12	11538.33	-10081.19	1	15321.99	-41.14412	-3.106463E-006	-0.0039567	7
	10	136	30046.88	13501.56	-10271.67	1	16964.65	-37.26303	-6.57846E-006	0.0174592	7
	11	142	23859.38	15646.77	-10131.51	1	18640.52	-32.92365	3.042063E-006	-0.0216029	7
	12	146	18984.38	17502.3	-9673.18	1	19997.53	-28.92856	-6.423279E-006	0.0213252	7
	13	150	15046.87	19262.6	-9083.248	1	21296.79	-25.24615	2.572481E-006	0.0068408	7
	14	155	11953.13	20585.07	-8193.527	1	22155.79	-21.70417	6.803517E-006	-0.0218022	7
	15	159	9515.62	21832.97	-7431.094	1	23062.96	-18.79657	-5.700084E-006	0.023026	7
	16	163	7546.875	22799.16	-6657.739	1	23751.36	-16.27869	4.402403E-006	-0.0011614	7
	17	167	5928.309	22895.46	-5516.102	1	23550.57	-13.54587	-2.602191E-005	0.0097782	8
	18	174	4733.456	23751.13	-5182.495	1	24309.96	-12.30901	1.516866E-005	-0.0089195	8
	19	179	3796.875	24852.59	-4885.016	1	25328.14	-11.12027	-8.739055E-007	0.0072497	8
	20	187	2987.132	25730.22	-4992.471	1	26210.09	-10.98074	-3.161823E-006	0.0222481	7
	21	192	2390.625	26355.17	-4757.102	1	26781.05	-10.23171	6.094785E-006	-0.024121	7
	22	197	1884.191	26713.62	-5285.042	1	27231.4	-11.19093	-3.060261E-006	-0.0038792	7
	23	203	1516.544	27702.41	-5840.197	1	28311.33	-11.90472	-1.556658E-005	6.241412E-005	9
	24	209	1193.986	27933.07	-4531.008	1	28298.17	-9.213667	1.040174E-006	-0.0170883	7
	25	215	946.5144	25947.16	-5613.499	1	26547.44	-12.20743	-6.306387E-007	0.0071597	8
	26	220	751.7689	27737.92	-5735.62	1	28324.71	-11.68291	1.526558E-005	-0.0089781	8
	27	225	597.4265	30649.94	-6127.484	1	31256.44	-11.30543	6.007205E-006	-0.0238858	7
	28	228	477.4305	30529.3	-6198.022	1	31152.11	-11.47615	-5.317672E-008	0.0006742	7
	29	232	376.6741	31300.96	-6812.646	1	32033.77	-12.27891	-4.607107E-008	0.0005777	7
	30	234	298.2954	32142.13	-7550.953	1	33017.17	-13.22042	-4.413713E-008	0.0005906	7
	31	236	237.7717	33041.11	-8362.034	1	34082.82	-14.2022	-5.052313E-008	0.0006149	7
	32	239	189.0121	34059.22	-9322.207	1	35311.96	-15.30729	-5.35335E-008	0.0006492	7
	33	241	150.2404	35194.7	-10434.8	1	36709.02	-16.51444	-4.441666E-008	0.0005784	7
	34	243	119.1737	36619.25	-11590.86	1	38409.86	-17.56381	-7.505851E-009	0.0006982	6
	35	246	95.0169	37979.49	-13072.91	1	40166.44	-18.99396	-7.256823E-009	0.0006783	6
	36	248	75.60484	39545.96	-14771.74	1	42214.78	-20.48234	-7.165456E-009	0.0007095	6
	37	251	54.50582	42137.47	-17514.32	1	45632.42	-22.57007	-7.521764E-009	0.0006171	6
	38	253	45.95588	43602.77	-19298.95	1	47682.81	-23.87458	-6.988666E-009	0.0007126	6
	39	256	37.20238	45664.06	-21631.09	1	50528.32	-25.34694	-9.021413E-009	0.0006879	6
	40	258	30.04808	48043.93	-24326.01	1	53851.41	-26.85439	-6.665153E-009	0.0007176	6
	41	261	23.91582	50797	-27637.26	1	57828.66	-28.5494	-2.624958E-009	0.0006249	6
	42	263	18.60119	54333.49	-31707.78	1	62908.75	-30.26685	-3.776605E-009	0.0007081	6
	43	266	15.02404	57807.67	-35739.43	1	67963.47	-31.72631	-3.527446E-009	0.0006525	6
	44	268	12.01923	61814.79	-40483.44	1	73891.66	-33.2214	-5.399109E-009	0.0006979	6
	45	271	9.450605	66740.54	-46316.69	1	81237.52	-34.75993	-3.874147E-009	0.0006489	6
	46	273	7.512019	72110.34	-52726.47	1	89330.74	-36.17396	-6.326434E-009	0.000668	6
	47	276	5.978954	78231.84	-59954.85	1	98563.7	-37.46561	-4.777404E-009	0.0006251	6
	48	280	4.734848	85404.12	-68540.19	1	109506.3	-38.74842	-8.807175E-009	0.0006657	6
	49	284	3.75601	93575.05	-78008.13	1	121825.9	-39.81602	-4.544084E-009	0.0006781	6
	50	289	3.004808	102637.1	-88490.65	1	135517.4	-40.76693	-5.219733E-009	0.0006427	6
	51	296	2.372217	113611.2	-100965.5	1	151991.9	-41.62729	-5.664786E-009	0.0006147	6
	52	300	1.878005	126034.2	-115357.7	1	170856.7	-42.46754	-4.465286E-009	0.0006704	6
	53	305	1.512097	138979.4	-130215.3	1	190450.2	-43.1353	-5.001973E-009	0.0006973	6
	54	310	1.201923	154976.3	-148033.1	1	214316.3	-43.68734	-5.301182E-009	0.0006884	6
	55	316	0.956633	173292.4	-168209.1	1	241504.8	-44.14722	-8.578415E-009	2.592765E-005	6
