EXPLAIN
TAG	EISPOT
TITLE	LABEL	Potentiostatic EIS	Test Identifier
DATE	LABEL	3/1/2021	Date
TIME	LABEL	2:40:01	Time
NOTES	NOTES	1	Notes...
	
PSTAT	PSTAT	REF3000-16137	Potentiostat
VDC	POTEN	0.00000E+000	T	DC Voltage (V)
FREQINIT	QUANT	3.00000E+005	Initial Freq. (Hz)
FREQFINAL	QUANT	1.00000E+000	Final Freq. (Hz)
PTSPERDEC	QUANT	1.00000E+001	Points/decade
VAC	QUANT	5.00000E+001	AC Voltage (mV rms)
AREA	QUANT	1.00000E+000	Sample Area (cm^2)
SPEED	SELECTOR	2	Optimize for:
ZGUESS	QUANT	1.00000E+003	Estimated Z (ohms)
EOC	QUANT	0	Open Circuit (V)
SEQUENCER	TOGGLE	TRUE	Run as Sequence
PSTATMODEL	IQUANT	5	Pstat Model
PSTATSECTION	LABEL	REF3000-16137	Pstat Section
PSTATSERIALNO	LABEL	16137	Pstat Serial Number
CTRLMODE	IQUANT	1	Control Mode
IESTAB	IQUANT	0	I/E Stability
CASPEED	IQUANT	1	Control Amp Speed
CONVENTION	IQUANT	1	Current Convention
ICHRANGE	IQUANT	2	Ich Range
ICHRANGEMODE	TOGGLE	F	Ich Auto Range
ICHOFFSETENABLE	TOGGLE	T	Ich Offset Enable
ICHOFFSET	QUANT	0	Ich Offset (V)
ICHFILTER	IQUANT	3	Ich Filter
VCHRANGE	IQUANT	2	Vch Range
VCHRANGEMODE	TOGGLE	F	Vch Auto Range
VCHOFFSETENABLE	TOGGLE	T	Vch Offset Enable
VCHOFFSET	QUANT	0	Vch Offset (V)
VCHFILTER	IQUANT	3	Vch Filter
ACHRANGE	IQUANT	2	Ach Range
ACHOFFSETENABLE	TOGGLE	F	Ach Offset Enable
ACHOFFSET	QUANT	0	Ach Offset (V)
ACHFILTER	IQUANT	3	Ach Filter
IERANGELOWERLIMIT	IQUANT	2	I/E Range Lower Limit
IERANGEMODE	TOGGLE	F	I/E AutoRange
IERANGE	IQUANT	11	I/E Range
POSFEEDENABLE	TOGGLE	F	Positive Feedback IR Comp
POSFEEDRESISTANCE	QUANT	0	Positive Feedback Resistance (ohm)
ACHSELECT	IQUANT	0	Ach Select
CABLEID	IQUANT	13	Cable ID
DCCALDATE	LABEL	7/31/2020	DC Calibration Date
ACCALDATE	LABEL	7/31/2020	AC Calibration Date
THERMOSELECT	IQUANT	1	Thermo Select
FRAMEWORKVERSION	QUANT	6.33	Framework Version
INSTRUMENTVERSION	LABEL	3.50	Instrument Version
COMPLIANCEVOLTAGE	IQUANT	0	Compliance Voltage
ZCURVE	TABLE
	Pt	Time	Freq	Zreal	Zimag	Zsig	Zmod	Zphz	Idc	Vdc	IERange
	#	s	Hz	ohm	ohm	V	ohm	°	A	V	#
	0	14	300046.9	338.7047	-4028.808	1	4043.02	-85.1944	-9.327132E-005	0.0021556	9
	1	28	238359.4	552.8061	-4881.83	1	4913.029	-83.53949	7.700582E-005	-0.0017001	9
	2	44	189328.1	991.775	-6168.354	1	6247.577	-80.86591	-2.735284E-005	-0.0010083	9
	3	54	150421.9	1150.242	-7665.594	1	7751.412	-81.46629	-8.973149E-005	0.0042714	9
	4	61	119484.4	1301.167	-9081.065	1	9173.81	-81.84596	-5.921581E-005	0.0005377	9
	5	70	94921.88	1905.418	-11275.48	1	11435.34	-80.40833	7.878005E-006	-0.0075362	8
	6	78	75421.88	2257.436	-13632.55	1	13818.2	-80.59762	1.612647E-005	-0.0091516	8
	7	87	59859.37	2941.204	-17106.54	1	17357.55	-80.24427	-1.620863E-005	0.0008242	8
	8	96	47578.12	6234.717	-21435.72	1	22324.02	-73.78259	-7.124746E-006	0.0185677	7
	9	102	37828.12	7107.874	-26299.23	1	27242.83	-74.87605	6.378605E-006	-0.0099387	7
	10	108	30046.88	8429.339	-31810.37	1	32908.26	-75.15846	-5.059562E-006	0.0257824	7
	11	116	23859.38	8000.441	-39285.2	1	40091.57	-78.48911	2.352474E-005	-0.0028685	8
	12	122	18984.38	9922.76	-47094.4	1	48128.41	-78.10185	-1.938458E-005	0.0113013	8
	13	130	15046.87	13085.69	-57114.1	1	58593.99	-77.09541	2.354453E-005	-0.0028818	8
	14	137	11953.13	14760.92	-69891.82	1	71433.55	-78.07457	-1.726806E-006	0.0076502	8
	15	144	9515.62	18684.77	-90929.53	1	92829.41	-78.38814	2.239341E-005	-0.0096221	8
	16	151	7546.875	31263.92	-105889.9	1	110408.8	-73.5508	-9.740228E-006	-0.0019607	8
	17	160	5928.309	21612.87	-124703	1	126562.1	-80.16747	2.622934E-005	-0.0051886	8
	18	167	4733.456	47546.78	-162215	1	169039.6	-73.66363	2.735818E-005	-0.0073983	8
	19	175	3796.875	71271.46	-201586.7	1	213814.9	-70.52883	-2.610123E-005	0.0076594	8
	20	183	2987.132	78467.73	-220099.4	1	233668.4	-70.37831	7.346843E-006	-0.0180333	7
	21	189	2390.625	133011.4	-281251.8	1	311118.3	-64.6893	5.211407E-006	-0.0258754	7
	22	195	1884.191	255743.1	-343056.2	1	427892.6	-53.29604	-6.285063E-006	0.0250882	7
	23	203	1516.544	200531.3	-443541.5	1	486766.7	-65.67161	-3.5337E-006	0.0244168	7
	24	209	1193.986	326640.9	-383498.5	1	503751.3	-49.57764	4.838043E-006	-0.0009269	7
	25	216	946.5144	241280.3	-343750.1	1	419976.5	-54.93475	-1.612345E-006	0.0208989	7
	26	221	751.7689	438540	-492554	1	659489.8	-48.32008	-3.82536E-007	0.0246191	6
	27	225	597.4265	635207.4	-504437	1	811138.1	-38.45413	-2.011509E-007	0.0214421	6
	28	228	477.4305	706210.4	-513920.7	1	873411.4	-36.04399	-7.0977E-009	0.0006703	6
	29	231	376.6741	890270.4	-429181.5	1	988321	-25.73778	-8.941215E-010	0.0006753	5
	30	233	298.2954	967221	-403471.3	1	1048001	-22.64321	-6.456908E-010	0.0006987	5
	31	236	237.7717	1022912	-371693.6	1	1088350	-19.96952	-6.884547E-010	0.0006145	5
	32	239	189.0121	1079361	-344439.3	1	1132987	-17.69861	-7.618357E-010	0.0007094	5
	33	241	150.2404	1124066	-320234.2	1	1168792	-15.90168	-7.278379E-010	0.0006084	5
	34	244	119.1737	1149914	-290872.5	1	1186132	-14.19529	-7.904842E-010	0.0006515	5
	35	247	95.0169	1210261	-281884.1	1	1242654	-13.11112	-6.934274E-010	0.0006077	5
	36	249	75.60484	1248245	-278007.4	1	1278829	-12.55591	-7.953849E-010	0.0006887	5
	37	252	54.50582	1308793	-247173.3	1	1331929	-10.69468	-8.470078E-010	0.0006207	5
	38	255	45.95588	1334409	-258870.8	1	1359287	-10.97881	-8.181603E-010	0.0006971	5
	39	258	37.20238	1355514	-261174.6	1	1380446	-10.90586	-7.30497E-010	0.0006691	5
	40	261	30.04808	1393417	-263454.5	1	1418104	-10.70658	-6.680544E-010	0.0006903	5
	41	264	23.91582	1439644	-275075.1	1	1465688	-10.81721	-6.767668E-010	0.0007011	5
	42	266	18.60119	1486704	-277283.4	1	1512341	-10.56478	-1.379051E-009	0.0007004	5
	43	269	15.02404	1512532	-307633.3	1	1543500	-11.49655	-5.072274E-010	0.0006278	5
	44	271	12.01923	1554591	-330504.8	1	1589335	-12.00234	-7.655461E-010	0.0006113	5
	45	274	9.450605	1602412	-366577.5	1	1643808	-12.8856	-1.010917E-009	0.0007037	5
	46	276	7.512019	1655359	-401531	1	1703362	-13.63457	-5.996651E-010	0.0007	5
	47	280	5.978954	1717566	-448747.8	1	1775220	-14.64233	-6.041844E-010	0.0006739	5
	48	284	4.734848	1788963	-500034.1	1	1857531	-15.61624	-8.369126E-010	0.0005916	5
	49	289	3.75601	1867544	-562301.8	1	1950360	-16.75661	-6.533113E-010	0.0006206	5
	50	294	3.004808	1958368	-632129.4	1	2057861	-17.88924	-5.979871E-010	0.0006411	5
	51	301	2.372217	2057335	-713894.3	1	2177676	-19.13675	-7.675642E-010	0.0005759	5
	52	305	1.878005	2162769	-813709.9	1	2310778	-20.61807	-5.540417E-010	0.0006641	5
	53	309	1.512097	2276690	-917693.4	1	2454685	-21.95349	-5.375631E-010	0.000634	5
	54	315	1.201923	2412150	-1042469	1	2627776	-23.37276	-6.879936E-010	0.0006878	5
	55	321	0.956633	2572291	-1188303	1	2833504	-24.79519	-1.032698E-009	1.407183E-005	5
