EXPLAIN
TAG	EISPOT
TITLE	LABEL	Potentiostatic EIS	Test Identifier
DATE	LABEL	3/1/2021	Date
TIME	LABEL	2:51:38	Time
NOTES	NOTES	1	Notes...
	
PSTAT	PSTAT	REF3000-16137	Potentiostat
VDC	POTEN	0.00000E+000	T	DC Voltage (V)
FREQINIT	QUANT	3.00000E+005	Initial Freq. (Hz)
FREQFINAL	QUANT	1.00000E+000	Final Freq. (Hz)
PTSPERDEC	QUANT	1.00000E+001	Points/decade
VAC	QUANT	5.00000E+001	AC Voltage (mV rms)
AREA	QUANT	1.00000E+000	Sample Area (cm^2)
SPEED	SELECTOR	2	Optimize for:
ZGUESS	QUANT	1.00000E+003	Estimated Z (ohms)
EOC	QUANT	0	Open Circuit (V)
SEQUENCER	TOGGLE	TRUE	Run as Sequence
PSTATMODEL	IQUANT	5	Pstat Model
PSTATSECTION	LABEL	REF3000-16137	Pstat Section
PSTATSERIALNO	LABEL	16137	Pstat Serial Number
CTRLMODE	IQUANT	1	Control Mode
IESTAB	IQUANT	0	I/E Stability
CASPEED	IQUANT	1	Control Amp Speed
CONVENTION	IQUANT	1	Current Convention
ICHRANGE	IQUANT	2	Ich Range
ICHRANGEMODE	TOGGLE	F	Ich Auto Range
ICHOFFSETENABLE	TOGGLE	T	Ich Offset Enable
ICHOFFSET	QUANT	0	Ich Offset (V)
ICHFILTER	IQUANT	3	Ich Filter
VCHRANGE	IQUANT	2	Vch Range
VCHRANGEMODE	TOGGLE	F	Vch Auto Range
VCHOFFSETENABLE	TOGGLE	T	Vch Offset Enable
VCHOFFSET	QUANT	0	Vch Offset (V)
VCHFILTER	IQUANT	3	Vch Filter
ACHRANGE	IQUANT	2	Ach Range
ACHOFFSETENABLE	TOGGLE	F	Ach Offset Enable
ACHOFFSET	QUANT	0	Ach Offset (V)
ACHFILTER	IQUANT	3	Ach Filter
IERANGELOWERLIMIT	IQUANT	2	I/E Range Lower Limit
IERANGEMODE	TOGGLE	F	I/E AutoRange
IERANGE	IQUANT	11	I/E Range
POSFEEDENABLE	TOGGLE	F	Positive Feedback IR Comp
POSFEEDRESISTANCE	QUANT	0	Positive Feedback Resistance (ohm)
ACHSELECT	IQUANT	0	Ach Select
CABLEID	IQUANT	13	Cable ID
DCCALDATE	LABEL	7/31/2020	DC Calibration Date
ACCALDATE	LABEL	7/31/2020	AC Calibration Date
THERMOSELECT	IQUANT	1	Thermo Select
FRAMEWORKVERSION	QUANT	6.33	Framework Version
INSTRUMENTVERSION	LABEL	3.50	Instrument Version
COMPLIANCEVOLTAGE	IQUANT	0	Compliance Voltage
ZCURVE	TABLE
	Pt	Time	Freq	Zreal	Zimag	Zsig	Zmod	Zphz	Idc	Vdc	IERange
	#	s	Hz	ohm	ohm	V	ohm	°	A	V	#
	0	14	300046.9	208.1022	-4300.925	1	4305.957	-87.22988	-1.64816E-005	0.0015395	9
	1	30	238359.4	320.0457	-5272.349	1	5282.054	-86.52625	2.447589E-005	-0.0019124	9
	2	47	189328.1	345.2504	-6408.76	1	6418.053	-86.91637	1.863798E-005	-0.0020461	9
	3	58	150421.9	773.4438	-8359.748	1	8395.451	-84.71404	2.487605E-005	0.0011401	9
	4	70	119484.4	807.9347	-9960.74	1	9993.45	-85.36278	-2.014943E-005	0.001297	9
	5	79	94921.88	880.5665	-12524.74	1	12555.65	-85.97837	2.543387E-005	-0.0008959	9
	6	87	75421.88	1432.207	-15455.59	1	15521.81	-84.70576	2.250958E-005	-0.0096538	8
	7	96	59859.37	2109.077	-19101.48	1	19217.57	-83.69925	-1.152651E-005	0.01017	8
	8	104	47578.12	5289.665	-24692.58	1	25252.8	-77.9088	-3.489852E-006	0.0246503	7
	9	111	37828.12	3249.984	-30434.55	1	30607.59	-83.90471	2.538175E-005	-0.0009413	9
	10	119	30046.88	4587.269	-36537.68	1	36824.52	-82.84402	7.983013E-006	-0.0075796	8
	11	129	23859.38	8377.186	-45986.09	1	46742.89	-79.67577	4.892675E-006	-0.0009003	7
	12	134	18984.38	9632.38	-57118	1	57924.5	-80.4277	-7.235907E-006	0.0188257	7
	13	140	15046.87	12962.38	-71783.88	1	72944.84	-79.76411	-3.222525E-006	0.024103	7
	14	145	11953.13	13514.26	-87525.91	1	88563.09	-81.22267	-3.669342E-006	0.0247321	7
	15	150	9515.62	17968.52	-107522.5	1	109013.6	-80.51274	-5.204869E-006	0.0262615	7
	16	157	7546.875	22823.46	-136308.6	1	138206.1	-80.49459	2.785136E-006	0.0080768	7
	17	162	5928.309	4883.832	-220615.5	1	220669.5	-88.73183	-1.60827E-005	0.00075	8
	18	170	4733.456	51266.47	-191323.1	1	198072.7	-74.99956	2.737494E-005	-0.0073619	8
	19	178	3796.875	46798.46	-256123.4	1	260363.8	-79.64523	4.847373E-006	-0.0007244	7
	20	185	2987.132	44816.15	-280344.4	1	283904	-80.91749	7.53219E-006	-0.0240013	7
	21	191	2390.625	40790.68	-352552.6	1	354904.5	-83.40017	6.624022E-007	0.0156084	7
	22	198	1884.191	141220	-474038.9	1	494627.1	-73.41078	4.257214E-007	0.0017892	6
	23	203	1516.544	164820.1	-558855.5	1	582653.6	-73.56792	-6.687178E-007	0.0257639	6
	24	209	1193.986	171554.4	-728650.5	1	748573.6	-76.75149	3.913959E-007	-0.0247453	6
	25	214	946.5144	162595.6	-839148.9	1	854756.2	-79.03411	-7.368296E-007	0.0230363	6
	26	218	751.7689	303599.3	-1027216	1	1071142	-73.53468	-6.708129E-007	0.0258032	6
	27	222	597.4265	90511.8	-629036.1	1	635514.6	-81.81193	4.841048E-006	-0.0007763	7
	28	228	477.4305	495810.6	-1553316	1	1630528	-72.29719	-6.237727E-008	0.00064	7
	29	232	376.6741	926304.4	-1873181	1	2089700	-63.6872	-6.251091E-010	0.0006193	5
	30	235	298.2954	1156245	-2215887	1	2499411	-62.44455	-6.95656E-010	0.0006188	5
	31	238	237.7717	1268589	-2663482	1	2950162	-64.53203	-6.254783E-009	0.0006388	6
	32	242	189.0121	1882003	-3024298	1	3562066	-58.10624	-7.429211E-010	0.0007116	5
	33	246	150.2404	2449435	-3421211	1	4207662	-54.39902	-6.980159E-010	0.0006086	5
	34	250	119.1737	2901827	-3683978	1	4689594	-51.7729	-8.273869E-010	0.0006332	5
	35	253	95.0169	3850699	-4252500	1	5736867	-47.83872	-8.001602E-010	0.0006711	5
	36	257	75.60484	4564740	-4235976	1	6227387	-42.86063	-6.031311E-010	0.0006141	5
	37	262	54.50582	5976130	-4682363	1	7592013	-38.07909	-7.237307E-010	0.0006412	5
	38	266	45.95588	7814297	-3840904	1	8707225	-26.17516	-1.092437E-010	0.0007106	4
	39	268	37.20238	8524693	-3932376	1	9387969	-24.76351	-1.833462E-010	0.0007086	4
	40	271	30.04808	8804245	-3513446	1	9479400	-21.7551	-6.720045E-011	0.0006808	4
	41	274	23.91582	9.581603E+006	-3124411	1	1.007815E+007	-18.06034	5.943976E-012	0.0006086	4
	42	277	18.60119	9.566523E+006	-3769092	1	1.028224E+007	-21.50383	-2.187782E-010	0.000623	4
	43	279	15.02404	1.030528E+007	-3032384	1	1.074217E+007	-16.3968	-6.191265E-011	0.0007237	4
	44	282	12.01923	1.067218E+007	-2801358	1	1.103372E+007	-14.70786	-3.928267E-011	0.0006865	4
	45	284	9.450605	1.101744E+007	-2760135	1	1.135792E+007	-14.06451	-1.370586E-010	0.0006392	4
	46	287	7.512019	1.155667E+007	-2668642	1	1.186079E+007	-13.0027	-1.272678E-010	0.0007042	4
	47	290	5.978954	1.190008E+007	-2552807	1	1.217082E+007	-12.1076	-5.748522E-011	0.0007071	4
	48	294	4.734848	1.238507E+007	-2560305	1	1.264694E+007	-11.67995	-9.875983E-011	0.00068	4
	49	299	3.75601	1.282891E+007	-2643740	1	1.309849E+007	-11.64432	-6.051609E-011	0.0007203	4
	50	305	3.004808	1.325212E+007	-2718262	1	1.352803E+007	-11.59167	-5.552834E-011	0.0006525	4
	51	311	2.372217	1.385985E+007	-2822354	1	1.41443E+007	-11.51007	-6.642929E-011	0.0005854	4
	52	315	1.878005	1.440217E+007	-3015690	1	1.471452E+007	-11.82637	-3.421621E-011	0.0006623	4
	53	321	1.512097	1.498654E+007	-3239406	1	1.533265E+007	-12.19708	-2.17902E-011	0.0006479	4
	54	327	1.201923	1.560291E+007	-3521786	1	1.599543E+007	-12.71929	-4.242567E-011	0.0006915	4
	55	333	0.956633	1.633201E+007	-3853001	1	1.678035E+007	-13.27434	-1.410435E-010	1.879983E-005	4
