EXPLAIN
TAG	EISPOT
TITLE	LABEL	Potentiostatic EIS	Test Identifier
DATE	LABEL	8/29/2020	Date
TIME	LABEL	12:42:57	Time
NOTES	NOTES	1	Notes...
	
PSTAT	PSTAT	REF3000-16137	Potentiostat
VDC	POTEN	0.00000E+000	T	DC Voltage (V)
FREQINIT	QUANT	3.00000E+005	Initial Freq. (Hz)
FREQFINAL	QUANT	1.00000E+000	Final Freq. (Hz)
PTSPERDEC	QUANT	1.00000E+001	Points/decade
VAC	QUANT	5.00000E+001	AC Voltage (mV rms)
AREA	QUANT	1.00000E+000	Sample Area (cm^2)
SPEED	SELECTOR	2	Optimize for:
ZGUESS	QUANT	1.00000E+003	Estimated Z (ohms)
EOC	QUANT	0	Open Circuit (V)
SEQUENCER	TOGGLE	TRUE	Run as Sequence
PSTATMODEL	IQUANT	5	Pstat Model
PSTATSECTION	LABEL	REF3000-16137	Pstat Section
PSTATSERIALNO	LABEL	16137	Pstat Serial Number
CTRLMODE	IQUANT	1	Control Mode
IESTAB	IQUANT	0	I/E Stability
CASPEED	IQUANT	1	Control Amp Speed
CONVENTION	IQUANT	1	Current Convention
ICHRANGE	IQUANT	2	Ich Range
ICHRANGEMODE	TOGGLE	F	Ich Auto Range
ICHOFFSETENABLE	TOGGLE	T	Ich Offset Enable
ICHOFFSET	QUANT	0	Ich Offset (V)
ICHFILTER	IQUANT	3	Ich Filter
VCHRANGE	IQUANT	2	Vch Range
VCHRANGEMODE	TOGGLE	F	Vch Auto Range
VCHOFFSETENABLE	TOGGLE	T	Vch Offset Enable
VCHOFFSET	QUANT	0	Vch Offset (V)
VCHFILTER	IQUANT	3	Vch Filter
ACHRANGE	IQUANT	2	Ach Range
ACHOFFSETENABLE	TOGGLE	F	Ach Offset Enable
ACHOFFSET	QUANT	0	Ach Offset (V)
ACHFILTER	IQUANT	3	Ach Filter
IERANGELOWERLIMIT	IQUANT	2	I/E Range Lower Limit
IERANGEMODE	TOGGLE	F	I/E AutoRange
IERANGE	IQUANT	11	I/E Range
POSFEEDENABLE	TOGGLE	F	Positive Feedback IR Comp
POSFEEDRESISTANCE	QUANT	0	Positive Feedback Resistance (ohm)
ACHSELECT	IQUANT	0	Ach Select
CABLEID	IQUANT	13	Cable ID
DCCALDATE	LABEL	7/31/2020	DC Calibration Date
ACCALDATE	LABEL	7/31/2020	AC Calibration Date
THERMOSELECT	IQUANT	1	Thermo Select
FRAMEWORKVERSION	QUANT	6.33	Framework Version
INSTRUMENTVERSION	LABEL	3.50	Instrument Version
COMPLIANCEVOLTAGE	IQUANT	0	Compliance Voltage
ZCURVE	TABLE
	Pt	Time	Freq	Zreal	Zimag	Zsig	Zmod	Zphz	Idc	Vdc	IERange
	#	s	Hz	ohm	ohm	V	ohm	°	A	V	#
	0	16	300046.9	1236.036	-2127.928	1	2460.866	-59.84925	-0.0000956	-0.0139008	9
	1	29	238359.4	1437.237	-2331.625	1	2739	-58.34989	-0.0007215	0.0122965	9
	2	45	189328.1	1798.44	-2879.806	1	3395.242	-58.01521	0.000163	0.0027101	10
	3	55	150421.9	2548.572	-2861.428	1	3831.839	-48.30968	0.0001218	-0.0019112	10
	4	64	119484.4	3301.938	-3032.915	1	4483.455	-42.56827	0.0007131	-0.0137706	9
	5	72	94921.88	3902.755	-2995.255	1	4919.659	-37.50523	4.242305E-005	0.0061703	9
	6	82	75421.88	5072.16	-2127.256	1	5500.184	-22.7531	-0.0001251	0.0082447	8
	7	89	59859.37	5138.034	-2853.599	1	5877.28	-29.04724	-0.0002957	0.009353	9
	8	101	47578.12	5671.737	-2469.418	1	6186.002	-23.52784	0.0003028	-0.0075231	9
	9	112	37828.12	6129.898	-2393.526	1	6580.625	-21.32903	-0.0002155	0.001448	9
	10	121	30046.88	6658.631	-1754.152	1	6885.813	-14.75869	-0.0002678	0.0046728	9
	11	129	23859.38	6824.638	-2031.9	1	7120.696	-16.57985	-0.0002171	0.0014585	9
	12	140	18984.38	7152.714	-1595.025	1	7328.398	-12.57103	-0.0002236	0.0114002	9
	13	147	15046.87	7398.283	-1173.017	1	7490.699	-9.009402	-4.925179E-005	-0.0055897	9
	14	155	11953.13	8130.231	-901.6884	1	8180.079	-6.328562	-1.014541E-005	-0.0434052	8
	15	160	9515.62	8211.127	-861.9393	1	8256.243	-5.992512	4.008273E-005	0.00625	9
	16	168	7546.875	8419.745	-1097.131	1	8490.925	-7.424071	8.724099E-005	-0.0569698	8
	17	173	5928.309	8113.562	-1002.269	1	8175.232	-7.04208	0.000303	-0.0075549	9
	18	181	4733.456	8422.489	-1279.269	1	8519.088	-8.636492	-0.0002717	0.0108474	9
	19	188	3796.875	8566.184	-643.095	1	8590.289	-4.293352	0.0002167	-0.011175	9
	20	196	2987.132	8678.218	-423.4529	1	8688.543	-2.793527	0.0002996	-0.0096177	9
	21	204	2390.625	8716.954	-1058.534	1	8780.99	-6.923753	0.0001411	0.0026071	9
	22	211	1884.191	10414.48	-2078.914	1	10619.95	-11.28887	-5.946953E-005	0.0090231	9
	23	219	1516.544	10040.53	-807.2939	1	10072.93	-4.596895	0.0001411	0.0025877	9
	24	227	1193.986	9510.32	-1032.739	1	9566.23	-6.197545	0.0001229	-0.0579939	8
	25	233	946.5144	10924.65	-1317.362	1	11003.79	-6.875884	0.0001463	-0.0243386	8
	26	237	751.7689	13206.79	-1774.886	1	13325.53	-7.654226	-0.0002955	0.0093695	9
	27	243	597.4265	11095.16	-2073.698	1	11287.28	-10.5865	-0.0001477	0.0106381	9
	28	250	477.4305	11416.51	-2119.284	1	11611.54	-10.5163	-2.122115E-006	0.0006679	8
	29	255	376.6741	15974.38	-3208.496	1	16293.41	-11.3569	-7.375425E-007	0.0007426	7
	30	257	298.2954	16341.39	-3747.642	1	16765.62	-12.91654	-7.233545E-007	0.0005936	7
	31	259	237.7717	16830.74	-4459.435	1	17411.5	-14.83997	-7.442367E-007	0.0007574	7
	32	262	189.0121	17279.01	-5248.464	1	18058.53	-16.89605	-7.519773E-007	0.0007424	7
	33	264	150.2404	17932.24	-6097.183	1	18940.46	-18.77867	-7.407533E-007	0.000688	7
	34	267	119.1737	18468.89	-7287.6	1	19854.7	-21.53359	-7.393479E-007	0.0005109	7
	35	271	95.0169	18880.5	-8604.666	1	20748.82	-24.50082	-7.485455E-007	0.0007295	7
	36	273	75.60484	19405.89	-10243.36	1	21943.45	-27.82725	-7.348851E-007	0.0004857	7
	37	276	54.50582	20120.57	-13303.59	1	24121	-33.47241	-7.288124E-007	0.0005085	7
	38	278	45.95588	20622.44	-15418.04	1	25748.8	-36.78304	-7.511221E-007	0.0007528	7
	39	281	37.20238	21028.51	-18395.68	1	27939.2	-41.17934	-7.304153E-007	0.0006478	7
	40	283	30.04808	21598.25	-22272.34	1	31024.85	-45.8803	-7.433148E-007	0.0007466	7
	41	286	23.91582	22443.27	-27429.54	1	35441.22	-50.70945	-7.455847E-007	0.000706	7
	42	289	18.60119	23273.63	-34674.64	1	41761.14	-56.13047	-7.359436E-007	0.0005508	7
	43	291	15.02404	23978.47	-42056.32	1	48411.79	-60.31031	-7.413648E-007	0.0005911	7
	44	294	12.01923	25039.29	-51964.42	1	57682.47	-64.2727	-7.40954E-007	0.0005821	7
	45	296	9.450605	27061.54	-65481.61	1	70853.15	-67.5462	-7.480231E-008	0.0005306	6
	46	299	7.512019	28826.7	-81858.85	1	86786.23	-70.60022	-7.776285E-008	0.0007628	6
	47	302	5.978954	31022.65	-101943.7	1	106559.5	-73.07439	-7.991876E-008	0.000795	6
	48	306	4.734848	33846.46	-127682.8	1	132092.7	-75.15337	-8.161159E-008	0.0007911	6
	49	310	3.75601	37371.44	-159515.5	1	163834.7	-76.8145	-8.060866E-008	0.0005645	6
	50	315	3.004808	41676.84	-198852.2	1	203172.8	-78.16289	-8.142557E-008	0.000522	6
	51	322	2.372217	47757.5	-248961.3	1	253500.5	-79.14104	-8.264213E-008	0.0006211	6
	52	326	1.878005	54117.84	-312503	1	317154.3	-80.17522	-8.345803E-008	0.0006467	6
	53	331	1.512097	61374.49	-383482.9	1	388363.2	-80.90721	-8.328397E-008	0.0007114	6
	54	336	1.201923	72237.09	-476060.2	1	481509.6	-81.3718	-8.310848E-008	0.0006663	6
	55	342	0.956633	82554.35	-591879.3	1	597608.8	-82.05971	-8.449351E-008	1.270898E-005	6
