EXPLAIN
TAG	EISPOT
TITLE	LABEL	Potentiostatic EIS	Test Identifier
DATE	LABEL	8/29/2020	Date
TIME	LABEL	13:43:22	Time
NOTES	NOTES	1	Notes...
	
PSTAT	PSTAT	REF3000-16137	Potentiostat
VDC	POTEN	0.00000E+000	T	DC Voltage (V)
FREQINIT	QUANT	3.00000E+005	Initial Freq. (Hz)
FREQFINAL	QUANT	1.00000E+000	Final Freq. (Hz)
PTSPERDEC	QUANT	1.00000E+001	Points/decade
VAC	QUANT	5.00000E+001	AC Voltage (mV rms)
AREA	QUANT	1.00000E+000	Sample Area (cm^2)
SPEED	SELECTOR	2	Optimize for:
ZGUESS	QUANT	1.00000E+003	Estimated Z (ohms)
EOC	QUANT	0	Open Circuit (V)
SEQUENCER	TOGGLE	TRUE	Run as Sequence
PSTATMODEL	IQUANT	5	Pstat Model
PSTATSECTION	LABEL	REF3000-16137	Pstat Section
PSTATSERIALNO	LABEL	16137	Pstat Serial Number
CTRLMODE	IQUANT	1	Control Mode
IESTAB	IQUANT	0	I/E Stability
CASPEED	IQUANT	1	Control Amp Speed
CONVENTION	IQUANT	1	Current Convention
ICHRANGE	IQUANT	2	Ich Range
ICHRANGEMODE	TOGGLE	F	Ich Auto Range
ICHOFFSETENABLE	TOGGLE	T	Ich Offset Enable
ICHOFFSET	QUANT	0	Ich Offset (V)
ICHFILTER	IQUANT	3	Ich Filter
VCHRANGE	IQUANT	2	Vch Range
VCHRANGEMODE	TOGGLE	F	Vch Auto Range
VCHOFFSETENABLE	TOGGLE	T	Vch Offset Enable
VCHOFFSET	QUANT	0	Vch Offset (V)
VCHFILTER	IQUANT	3	Vch Filter
ACHRANGE	IQUANT	2	Ach Range
ACHOFFSETENABLE	TOGGLE	F	Ach Offset Enable
ACHOFFSET	QUANT	0	Ach Offset (V)
ACHFILTER	IQUANT	3	Ach Filter
IERANGELOWERLIMIT	IQUANT	2	I/E Range Lower Limit
IERANGEMODE	TOGGLE	F	I/E AutoRange
IERANGE	IQUANT	11	I/E Range
POSFEEDENABLE	TOGGLE	F	Positive Feedback IR Comp
POSFEEDRESISTANCE	QUANT	0	Positive Feedback Resistance (ohm)
ACHSELECT	IQUANT	0	Ach Select
CABLEID	IQUANT	13	Cable ID
DCCALDATE	LABEL	7/31/2020	DC Calibration Date
ACCALDATE	LABEL	7/31/2020	AC Calibration Date
THERMOSELECT	IQUANT	1	Thermo Select
FRAMEWORKVERSION	QUANT	6.33	Framework Version
INSTRUMENTVERSION	LABEL	3.50	Instrument Version
COMPLIANCEVOLTAGE	IQUANT	0	Compliance Voltage
ZCURVE	TABLE
	Pt	Time	Freq	Zreal	Zimag	Zsig	Zmod	Zphz	Idc	Vdc	IERange
	#	s	Hz	ohm	ohm	V	ohm	°	A	V	#
	0	25	300046.9	-35.20386	-4830.961	1	4831.089	-90.41751	8.937326E-005	-0.0027432	9
	1	47	238359.4	25.1384	-6122.442	1	6122.494	-89.76475	3.30679E-006	-0.0020389	9
	2	74	189328.1	56.32729	-7343.484	1	7343.7	-89.56053	-2.814823E-005	-0.0011086	9
	3	82	150421.9	81.60047	-9355.41	1	9355.766	-89.50026	-9.211621E-005	0.002218	9
	4	96	119484.4	418.8215	-11748.55	1	11756.01	-87.95834	-8.451282E-005	0.0223205	8
	5	103	94921.88	619.0059	-14525.69	1	14538.87	-87.55984	-2.494748E-005	0.0111499	8
	6	112	75421.88	576.4796	-18228.42	1	18237.54	-88.18861	2.301634E-005	-0.0098217	8
	7	121	59859.37	602.8798	-22695.75	1	22703.75	-88.47838	-2.031565E-005	0.0027627	8
	8	129	47578.12	3897.083	-30035.28	1	30287.04	-82.60716	6.936317E-006	-0.0271392	7
	9	137	37828.12	4063.864	-37129.98	1	37351.71	-83.75386	7.654148E-006	-0.0186328	7
	10	144	30046.88	4696.331	-46213.92	1	46451.93	-84.19743	-6.631074E-006	0.0262016	7
	11	152	23859.38	3833.465	-56237.65	1	56368.15	-86.10044	-1.195385E-006	-0.0134105	7
	12	157	18984.38	4816.764	-72027.33	1	72188.2	-86.1741	4.915188E-007	0.0164664	7
	13	162	15046.87	6365.512	-90186.63	1	90410.99	-85.96267	2.815092E-006	0.0084783	7
	14	169	11953.13	5697.32	-115642.7	1	115783	-87.17951	-7.351575E-006	0.0191052	7
	15	174	9515.62	3508.456	-127666.5	1	127714.7	-88.42583	-1.937234E-005	0.0111842	8
	16	182	7546.875	13645.12	-185876.6	1	186376.8	-85.80148	-1.86329E-006	0.0223038	7
	17	188	5928.309	7178.793	-235878.1	1	235987.4	-88.25678	-7.39667E-006	0.0189771	7
	18	194	4733.456	3549.046	-283502.6	1	283524.8	-89.28278	-3.78289E-006	0.0256606	7
	19	200	3796.875	743.5256	-377078	1	377078.8	-89.88702	-5.355136E-006	0.0036795	7
	20	208	2987.132	33396.33	-445852.3	1	447101.3	-85.71629	6.909181E-006	-0.0271905	7
	21	215	2390.625	-91719.2	-557668.6	1	565160.7	-99.3398	-7.425608E-006	0.0194278	7
	22	222	1884.191	-64617.23	-617080.6	1	620454.6	-95.9779	-6.582906E-006	0.0260156	7
	23	228	1516.544	53304.65	-764125.7	1	765982.7	-86.00957	6.6638E-006	-0.0101419	7
	24	235	1193.986	180305.2	-774190.9	1	794909.8	-76.88979	1.345237E-006	-0.0201771	7
	25	241	946.5144	-34528.83	-1501909	1	1502306	-91.31699	-5.424416E-009	0.0177867	6
	26	246	751.7689	-92121.22	-1883798	1	1886049	-92.79964	6.111845E-007	-0.0072026	6
	27	250	597.4265	-389243.3	-2197859	1	2232061	-100.043	1.82788E-007	-0.0211985	6
	28	255	477.4305	85439.99	-2808762	1	2810062	-88.25765	-8.02613E-009	0.0007107	6
	29	258	376.6741	477709.8	-3667775	1	3698754	-82.57928	-8.332809E-010	0.0006947	5
	30	261	298.2954	504212.7	-4563500	1	4591271	-83.69507	-8.727847E-010	0.000703	5
	31	264	237.7717	500072.1	-5564662	1	5587087	-84.86487	-8.914902E-010	0.0006888	5
	32	267	189.0121	547463.3	-7074975	1	7096125	-85.57526	-7.939002E-010	0.0006288	5
	33	270	150.2404	847997.3	-8711914	1	8753088	-84.44048	-8.796724E-010	0.0006967	5
	34	272	119.1737	-2458781	-1.575041E+007	1	1.594118E+007	-98.8728	-8.472601E-010	0.0006057	5
	35	275	95.0169	946363.9	-1.378078E+007	1	1.381323E+007	-86.07151	-8.072427E-010	0.000618	5
	36	278	75.60484	1616535	-1.715242E+007	1	1.722843E+007	-84.61604	-8.341072E-010	0.0006816	5
	37	281	54.50582	844568.1	-2.369082E+007	1	2.370587E+007	-87.95829	-7.883982E-010	0.0005977	5
	38	284	45.95588	1515998	-2.701041E+007	1	2.705292E+007	-86.78756	-7.537391E-010	0.000636	5
	39	288	37.20238	120261.4	-3.580534E+007	1	3.580554E+007	-89.80756	-8.851275E-010	0.0007041	5
	40	292	30.04808	743965	-4.385901E+007	1	4.386532E+007	-89.02821	-7.843023E-010	0.0005918	5
	41	296	23.91582	642924.4	-5.469152E+007	1	5.46953E+007	-89.32649	-5.654036E-011	0.0006267	4
	42	300	18.60119	-2.527556E+007	-8.069277E+007	1	8.455872E+007	-107.3922	6.654633E-011	0.0006864	4
	43	303	15.02404	6253783	-8.60977E+007	1	8.632452E+007	-85.84557	-9.746196E-011	0.0006185	4
	44	307	12.01923	5791788	-1.040378E+008	1	1.041989E+008	-86.81363	-1.090025E-010	0.0006339	4
	45	310	9.450605	6917089	-1.327817E+008	1	1.329618E+008	-87.01794	-9.266889E-011	0.0006232	4
	46	315	7.512019	1.121574E+007	-1.66706E+008	1	1.670829E+008	-86.15102	-9.284792E-011	0.000611	4
	47	319	5.978954	9266437	-2.164161E+008	1	2.166144E+008	-87.54823	-9.722314E-011	0.0006046	4
	48	324	4.734848	4.83552E+007	-2.845297E+008	1	2.886094E+008	-80.35486	-3.572313E-011	0.0007481	3
	49	329	3.75601	5910269	-3.107472E+008	1	3.108034E+008	-88.91039	-8.011352E-010	0.0006008	5
	50	337	3.004808	-2.194103E+007	-4.27731E+008	1	4.282934E+008	-92.93649	-8.02978E-010	0.0006552	5
	51	347	2.372217	6.989194E+007	-5.470399E+008	1	5.514867E+008	-82.71912	-3.545564E-011	0.0007058	3
	52	352	1.878005	8.120886E+007	-6.819803E+008	1	6.867983E+008	-83.2093	-3.553059E-011	0.0007291	3
	53	361	1.512097	9.800466E+007	-8.408567E+008	1	8.465488E+008	-83.35198	-3.55955E-011	0.0006239	3
	54	368	1.201923	1.391882E+008	-1.062063E+009	1	1.071144E+009	-82.53368	-3.574337E-011	0.0007423	3
	55	380	0.956633	1.752537E+008	-1.321632E+009	1	1.333201E+009	-82.44642	-3.561696E-011	0.0000957	3
