EXPLAIN
TAG	EISPOT
TITLE	LABEL	Potentiostatic EIS	Test Identifier
DATE	LABEL	8/29/2020	Date
TIME	LABEL	13:36:51	Time
NOTES	NOTES	1	Notes...
	
PSTAT	PSTAT	REF3000-16137	Potentiostat
VDC	POTEN	0.00000E+000	T	DC Voltage (V)
FREQINIT	QUANT	3.00000E+005	Initial Freq. (Hz)
FREQFINAL	QUANT	1.00000E+000	Final Freq. (Hz)
PTSPERDEC	QUANT	1.00000E+001	Points/decade
VAC	QUANT	5.00000E+001	AC Voltage (mV rms)
AREA	QUANT	1.00000E+000	Sample Area (cm^2)
SPEED	SELECTOR	2	Optimize for:
ZGUESS	QUANT	1.00000E+003	Estimated Z (ohms)
EOC	QUANT	0	Open Circuit (V)
SEQUENCER	TOGGLE	TRUE	Run as Sequence
PSTATMODEL	IQUANT	5	Pstat Model
PSTATSECTION	LABEL	REF3000-16137	Pstat Section
PSTATSERIALNO	LABEL	16137	Pstat Serial Number
CTRLMODE	IQUANT	1	Control Mode
IESTAB	IQUANT	0	I/E Stability
CASPEED	IQUANT	1	Control Amp Speed
CONVENTION	IQUANT	1	Current Convention
ICHRANGE	IQUANT	2	Ich Range
ICHRANGEMODE	TOGGLE	F	Ich Auto Range
ICHOFFSETENABLE	TOGGLE	T	Ich Offset Enable
ICHOFFSET	QUANT	0	Ich Offset (V)
ICHFILTER	IQUANT	3	Ich Filter
VCHRANGE	IQUANT	2	Vch Range
VCHRANGEMODE	TOGGLE	F	Vch Auto Range
VCHOFFSETENABLE	TOGGLE	T	Vch Offset Enable
VCHOFFSET	QUANT	0	Vch Offset (V)
VCHFILTER	IQUANT	3	Vch Filter
ACHRANGE	IQUANT	2	Ach Range
ACHOFFSETENABLE	TOGGLE	F	Ach Offset Enable
ACHOFFSET	QUANT	0	Ach Offset (V)
ACHFILTER	IQUANT	3	Ach Filter
IERANGELOWERLIMIT	IQUANT	2	I/E Range Lower Limit
IERANGEMODE	TOGGLE	F	I/E AutoRange
IERANGE	IQUANT	11	I/E Range
POSFEEDENABLE	TOGGLE	F	Positive Feedback IR Comp
POSFEEDRESISTANCE	QUANT	0	Positive Feedback Resistance (ohm)
ACHSELECT	IQUANT	0	Ach Select
CABLEID	IQUANT	13	Cable ID
DCCALDATE	LABEL	7/31/2020	DC Calibration Date
ACCALDATE	LABEL	7/31/2020	AC Calibration Date
THERMOSELECT	IQUANT	1	Thermo Select
FRAMEWORKVERSION	QUANT	6.33	Framework Version
INSTRUMENTVERSION	LABEL	3.50	Instrument Version
COMPLIANCEVOLTAGE	IQUANT	0	Compliance Voltage
ZCURVE	TABLE
	Pt	Time	Freq	Zreal	Zimag	Zsig	Zmod	Zphz	Idc	Vdc	IERange
	#	s	Hz	ohm	ohm	V	ohm	°	A	V	#
	0	15	300046.9	-93.2194	-4841.196	1	4842.093	-91.10312	-0.0001145	0.0036872	9
	1	40	238359.4	153.6666	-5830.521	1	5832.545	-88.49029	-0.0001066	0.0036656	9
	2	54	189328.1	-17.19147	-7516.799	1	7516.818	-90.13104	-2.668562E-005	-0.0010879	9
	3	62	150421.9	-385.3578	-9102.934	1	9111.087	-92.42407	-2.153939E-005	0.0015719	9
	4	70	119484.4	528.956	-11279.04	1	11291.44	-87.31496	-7.835706E-005	0.0356854	8
	5	77	94921.88	342.1257	-14533.75	1	14537.78	-88.6515	-2.382676E-005	0.0051751	8
	6	86	75421.88	618.6357	-18162.84	1	18173.37	-88.04923	-2.694403E-005	0.0096677	8
	7	95	59859.37	194.2731	-23081.87	1	23082.69	-89.51777	-1.985674E-005	0.0114232	8
	8	103	47578.12	920.5421	-28746.42	1	28761.16	-88.16586	-2.683866E-005	0.0097279	8
	9	113	37828.12	748.2935	-36405.8	1	36413.49	-88.82249	2.750884E-005	-0.0074322	8
	10	122	30046.88	4521.513	-46376.96	1	46596.85	-84.43156	-7.341618E-006	0.0189299	7
	11	130	23859.38	4553.143	-57407.98	1	57588.25	-85.46525	-1.023989E-006	-0.0133919	7
	12	136	18984.38	5210.37	-72046.09	1	72234.26	-85.86357	-5.422429E-006	0.0272927	7
	13	141	15046.87	7372.969	-90274.04	1	90574.63	-85.33083	4.766862E-007	0.0162641	7
	14	146	11953.13	836.6245	-110433.5	1	110436.7	-89.56595	2.616285E-005	-0.0089884	8
	15	154	9515.62	11917.2	-130770.5	1	131312.4	-84.79298	-1.599457E-005	0.0005675	8
	16	161	7546.875	4928.479	-183089.7	1	183156.1	-88.45806	6.679494E-006	-0.0102312	7
	17	168	5928.309	2870.608	-236314.1	1	236331.5	-89.30404	-6.738792E-006	0.0120505	7
	18	173	4733.456	159669.4	-702794.6	1	720704.2	-77.20013	2.623585E-005	-0.0051264	8
	19	182	3796.875	24300.17	-322308.6	1	323223.3	-85.68839	-2.614031E-005	0.0074468	8
	20	192	2987.132	-120267.8	-321689.7	1	343436.4	-110.4989	-2.045237E-005	0.0028313	8
	21	200	2390.625	41004.45	-460347.4	1	462170	-84.90993	5.372235E-006	-0.0264752	7
	22	208	1884.191	88893.08	-247229.8	1	262725.2	-70.22362	8.421821E-006	0.004204	8
	23	215	1516.544	-157380.7	-716355.9	1	733440.2	-102.3908	-3.771187E-006	0.0256327	7
	24	223	1193.986	-409014.4	-332296.6	1	526985.6	-140.9085	2.336746E-005	-0.0027837	8
	25	232	946.5144	63835.32	-947412.1	1	949560.3	-86.14532	7.735275E-006	-0.0244268	7
	26	238	751.7689	682404.1	-325565.9	1	756087.7	-25.50519	2.802924E-006	0.0085911	7
	27	244	597.4265	1151621	-640353.9	1	1317681	-29.07607	7.728318E-006	-0.0244398	7
	28	250	477.4305	40600.06	-2785652	1	2785948	-89.16499	-7.113197E-008	0.0005724	7
	29	257	376.6741	476213.1	-3663918	1	3694736	-82.59457	-7.643514E-010	0.0005953	5
	30	261	298.2954	492512.1	-4564383	1	4590878	-83.84142	-8.547318E-010	0.0006774	5
	31	264	237.7717	582199.9	-5581896	1	5612176	-84.04549	-7.727776E-010	0.0005932	5
	32	266	189.0121	527019.8	-7082540	1	7102121	-85.7444	-8.729852E-010	0.000695	5
	33	269	150.2404	837815.1	-8703710	1	8743941	-84.50168	-8.576678E-010	0.0007292	5
	34	272	119.1737	4301595	-1.016731E+007	1	1.103984E+007	-67.06771	-7.391937E-010	0.0005981	5
	35	275	95.0169	562290.8	-1.378255E+007	1	1.379402E+007	-87.66378	-7.36477E-010	0.0006009	5
	36	277	75.60484	864009.2	-1.661953E+007	1	1.664197E+007	-87.02401	-8.500704E-010	0.0006906	5
	37	280	54.50582	607359.4	-2.370606E+007	1	2.371384E+007	-88.53238	-7.835596E-010	0.0005908	5
	38	284	45.95588	719178.3	-2.733964E+007	1	2.734909E+007	-88.49316	-8.495997E-010	0.0006949	5
	39	287	37.20238	3218969	-3.513514E+007	1	3.528229E+007	-84.76536	-8.628294E-010	0.000687	5
	40	291	30.04808	384595.9	-4.311803E+007	1	4.311974E+007	-89.48896	-8.304955E-010	0.00069	5
	41	295	23.91582	6731218	-5.388003E+007	1	5.429887E+007	-82.87894	-1.016131E-010	0.0006699	4
	42	299	18.60119	2.747544E+007	-7.052922E+007	1	7.569194E+007	-68.71605	-2.2676E-010	0.0006075	4
	43	302	15.02404	7265460	-8.758534E+007	1	8.788618E+007	-85.258	-9.793004E-011	0.0007034	4
	44	306	12.01923	6436469	-1.082754E+008	1	1.084665E+008	-86.59804	-1.061561E-010	0.0006901	4
	45	310	9.450605	2682525	-1.313745E+008	1	1.314019E+008	-88.83025	-8.50763E-011	0.0006298	4
	46	314	7.512019	8218620	-1.710648E+008	1	1.712621E+008	-87.2494	-1.067146E-010	0.0006477	4
	47	318	5.978954	8062697	-2.132032E+008	1	2.133556E+008	-87.83428	-1.00497E-010	0.0006097	4
	48	324	4.734848	4.80262E+007	-2.868355E+008	1	2.908283E+008	-80.49487	-3.535209E-011	0.0007729	3
	49	329	3.75601	1.594174E+007	-3.156793E+008	1	3.160816E+008	-87.10903	-8.178168E-010	0.0006009	5
	50	337	3.004808	-1.943012E+007	-4.074576E+008	1	4.079206E+008	-92.73016	-8.839447E-010	0.0006541	5
	51	346	2.372217	6.7809E+007	-5.439694E+008	1	5.481795E+008	-82.89439	-3.56525E-011	0.0007166	3
	52	352	1.878005	8.069733E+007	-6.841448E+008	1	6.888876E+008	-83.27284	-3.530348E-011	0.000714	3
	53	361	1.512097	9.503792E+007	-8.454791E+008	1	8.508038E+008	-83.58646	-3.535868E-011	0.0007951	3
	54	368	1.201923	1.233094E+008	-1.062505E+009	1	1.069636E+009	-83.38013	-3.498304E-011	0.0007295	3
	55	380	0.956633	1.650393E+008	-1.32707E+009	1	1.337293E+009	-82.91088	-3.514668E-011	8.682846E-005	3
