EXPLAIN
TAG	EISPOT
TITLE	LABEL	Potentiostatic EIS	Test Identifier
DATE	LABEL	8/29/2020	Date
TIME	LABEL	11:07:50	Time
NOTES	NOTES	1	Notes...
	
PSTAT	PSTAT	REF3000-16137	Potentiostat
VDC	POTEN	0.00000E+000	T	DC Voltage (V)
FREQINIT	QUANT	3.00000E+005	Initial Freq. (Hz)
FREQFINAL	QUANT	1.00000E+000	Final Freq. (Hz)
PTSPERDEC	QUANT	1.00000E+001	Points/decade
VAC	QUANT	5.00000E+001	AC Voltage (mV rms)
AREA	QUANT	1.00000E+000	Sample Area (cm^2)
SPEED	SELECTOR	2	Optimize for:
ZGUESS	QUANT	1.00000E+003	Estimated Z (ohms)
EOC	QUANT	0	Open Circuit (V)
SEQUENCER	TOGGLE	TRUE	Run as Sequence
PSTATMODEL	IQUANT	5	Pstat Model
PSTATSECTION	LABEL	REF3000-16137	Pstat Section
PSTATSERIALNO	LABEL	16137	Pstat Serial Number
CTRLMODE	IQUANT	1	Control Mode
IESTAB	IQUANT	0	I/E Stability
CASPEED	IQUANT	1	Control Amp Speed
CONVENTION	IQUANT	1	Current Convention
ICHRANGE	IQUANT	2	Ich Range
ICHRANGEMODE	TOGGLE	F	Ich Auto Range
ICHOFFSETENABLE	TOGGLE	T	Ich Offset Enable
ICHOFFSET	QUANT	0	Ich Offset (V)
ICHFILTER	IQUANT	3	Ich Filter
VCHRANGE	IQUANT	2	Vch Range
VCHRANGEMODE	TOGGLE	F	Vch Auto Range
VCHOFFSETENABLE	TOGGLE	T	Vch Offset Enable
VCHOFFSET	QUANT	0	Vch Offset (V)
VCHFILTER	IQUANT	3	Vch Filter
ACHRANGE	IQUANT	2	Ach Range
ACHOFFSETENABLE	TOGGLE	F	Ach Offset Enable
ACHOFFSET	QUANT	0	Ach Offset (V)
ACHFILTER	IQUANT	3	Ach Filter
IERANGELOWERLIMIT	IQUANT	2	I/E Range Lower Limit
IERANGEMODE	TOGGLE	F	I/E AutoRange
IERANGE	IQUANT	11	I/E Range
POSFEEDENABLE	TOGGLE	F	Positive Feedback IR Comp
POSFEEDRESISTANCE	QUANT	0	Positive Feedback Resistance (ohm)
ACHSELECT	IQUANT	0	Ach Select
CABLEID	IQUANT	13	Cable ID
DCCALDATE	LABEL	7/31/2020	DC Calibration Date
ACCALDATE	LABEL	7/31/2020	AC Calibration Date
THERMOSELECT	IQUANT	1	Thermo Select
FRAMEWORKVERSION	QUANT	6.33	Framework Version
INSTRUMENTVERSION	LABEL	3.50	Instrument Version
COMPLIANCEVOLTAGE	IQUANT	0	Compliance Voltage
ZCURVE	TABLE
	Pt	Time	Freq	Zreal	Zimag	Zsig	Zmod	Zphz	Idc	Vdc	IERange
	#	s	Hz	ohm	ohm	V	ohm	°	A	V	#
	0	7	300046.9	29.91276	-2.109691	1	29.98706	-4.034285	1.311002E-005	0.0005898	11
	1	11	238359.4	30.35481	-2.328503	1	30.44398	-4.386542	-0.0006874	0.0010696	10
	2	15	189328.1	30.71271	-3.173785	1	30.87626	-5.899879	0.0001861	-0.001427	10
	3	22	150421.9	31.12668	-4.063025	1	31.39074	-7.436878	5.051257E-005	-0.0013494	10
	4	27	119484.4	31.54346	-5.05665	1	31.9462	-9.107449	-0.0004915	0.004884	10
	5	31	94921.88	32.10963	-6.078696	1	32.67995	-10.71984	-0.0001377	0.0018871	10
	6	34	75421.88	32.75132	-7.234806	1	33.54089	-12.45666	0.0002064	-0.0004835	10
	7	37	59859.37	33.47997	-8.527721	1	34.54896	-14.29001	-0.0002835	0.0015237	10
	8	39	47578.12	34.26488	-10.05825	1	35.71065	-16.35928	0.0002827	6.682664E-005	10
	9	42	37828.12	35.05251	-11.71957	1	36.9598	-18.48701	0.0001403	-0.0005116	10
	10	45	30046.88	36.01723	-13.72521	1	38.54377	-20.86052	0.0002528	-0.0003956	10
	11	47	23859.38	36.9739	-16.07723	1	40.31806	-23.50068	-0.0001317	0.0002102	10
	12	49	18984.38	37.92622	-18.75544	1	42.31034	-26.31351	0.000137	-0.0024738	9
	13	52	15046.87	38.86111	-22.22494	1	44.76755	-29.76554	-0.0001426	0.0037403	9
	14	54	11953.13	39.8578	-26.76674	1	48.01148	-33.88357	-3.389597E-005	0.003985	9
	15	56	9515.62	40.50405	-32.28444	1	51.79636	-38.55719	0.000138	-0.005046	9
	16	59	7546.875	41.32463	-39.34827	1	57.06147	-43.59662	-1.428212E-005	-0.0022191	9
	17	61	5928.309	42.20815	-48.53022	1	64.31726	-48.98557	1.709103E-005	0.0025811	9
	18	63	4733.456	43.06918	-59.64334	1	73.56821	-54.1665	-0.0001427	0.0045157	9
	19	66	3796.875	44.1151	-73.13181	1	85.40729	-58.90047	-0.0001277	0.0051024	9
	20	68	2987.132	45.21147	-91.72273	1	102.2601	-63.76064	0.0001363	-0.0050345	9
	21	71	2390.625	46.7202	-113.1727	1	122.4371	-67.56808	-1.44532E-005	-0.0026522	9
	22	73	1884.191	48.81301	-142.1114	1	150.2609	-71.04321	0.0001084	-0.0050243	9
	23	76	1516.544	50.64958	-174.9068	1	182.0927	-73.85002	-0.0001076	0.0051691	9
	24	80	1193.986	53.80302	-220.0671	1	226.5486	-76.26156	-0.0001309	0.0025619	9
	25	83	946.5144	58.56221	-274.7958	1	280.9667	-77.96957	-0.0001324	0.0025955	9
	26	86	751.7689	60.86213	-343.1089	1	348.4651	-79.94125	-1.619241E-005	-0.0023126	9
	27	90	597.4265	72.04605	-429.0186	1	435.0259	-80.46714	2.790856E-005	-0.003511	9
	28	93	477.4305	77.8686	-529.687	1	535.3801	-81.63692	6.505331E-007	0.0006516	8
	29	96	376.6741	90.03524	-665.104	1	671.1704	-82.29073	6.194865E-007	0.000673	8
	30	98	298.2954	106.2129	-831.7148	1	838.4693	-82.72252	6.546142E-007	0.0006547	8
	31	100	237.7717	127.3926	-1032.687	1	1040.515	-82.9675	6.352555E-007	0.0006687	8
	32	103	189.0121	156.0591	-1284.731	1	1294.175	-83.07409	6.371963E-007	0.0006737	8
	33	105	150.2404	194.957	-1596.8	1	1608.658	-83.03908	6.131516E-007	0.0006652	8
	34	108	119.1737	248.8063	-1988.753	1	2004.256	-82.86897	6.452614E-007	0.0006742	8
	35	110	95.0169	317.3701	-2457.148	1	2477.559	-82.64031	6.437363E-007	0.0006525	8
	36	112	75.60484	412.2382	-3042.434	1	3070.236	-82.28364	6.338401E-007	0.0006727	8
	37	115	54.50582	609.7574	-4118.1	1	4162.998	-81.57755	6.739284E-007	0.0006493	8
	38	118	45.95588	753.1561	-4825.142	1	4883.568	-81.1283	8.12526E-008	0.000652	7
	39	120	37.20238	976.636	-5847.888	1	5928.879	-80.51873	7.934447E-008	0.0006279	7
	40	122	30.04808	1282.314	-7099.941	1	7214.811	-79.76222	6.763054E-008	0.0006253	7
	41	125	23.91582	1719.339	-8713.422	1	8881.433	-78.83775	6.449089E-008	0.0006462	7
	42	127	18.60119	2339.372	-10857.68	1	11106.84	-77.84105	9.081E-008	0.0006347	7
	43	129	15.02404	3091.158	-13042.28	1	13403.59	-76.66633	7.728282E-008	0.000631	7
	44	132	12.01923	4109.59	-15755.22	1	16282.38	-75.38072	7.000061E-008	0.0006259	7
	45	134	9.450605	5594.453	-19215.26	1	20013.1	-73.76727	7.886325E-008	0.0006186	7
	46	137	7.512019	7399.292	-23081.21	1	24238.23	-72.22538	7.875247E-008	0.0006354	7
	47	140	5.978954	9780.5	-27529.42	1	29215.19	-70.44118	7.760318E-008	0.00063	7
	48	144	4.734848	12960.84	-32740.92	1	35212.95	-68.40334	8.218046E-008	0.0006084	7
	49	147	3.75601	16982	-38557.85	1	42131.89	-66.2299	8.08917E-008	0.0006293	7
	50	153	3.004808	21936.19	-44706.92	1	49798.64	-63.86435	8.214484E-009	0.0006383	6
	51	159	2.372217	28394.33	-51899.46	1	59159.04	-61.31681	4.94265E-009	0.0006087	6
	52	164	1.878005	36323.57	-59134.41	1	69399.42	-58.43949	6.22717E-009	0.0006885	6
	53	168	1.512097	45030.73	-65872.28	1	79793.01	-55.64323	6.561437E-009	0.000607	6
	54	174	1.201923	55900.32	-73159.05	1	92071.13	-52.61681	4.958012E-009	0.0007111	6
	55	180	0.956633	68308.7	-79646.7	1	104927	-49.38208	1.749915E-010	3.908985E-005	6
