EXPLAIN
TAG	EISPOT
TITLE	LABEL	Potentiostatic EIS	Test Identifier
DATE	LABEL	8/29/2020	Date
TIME	LABEL	12:54:56	Time
NOTES	NOTES	1	Notes...
	
PSTAT	PSTAT	REF3000-16137	Potentiostat
VDC	POTEN	0.00000E+000	T	DC Voltage (V)
FREQINIT	QUANT	3.00000E+005	Initial Freq. (Hz)
FREQFINAL	QUANT	1.00000E+000	Final Freq. (Hz)
PTSPERDEC	QUANT	1.00000E+001	Points/decade
VAC	QUANT	5.00000E+001	AC Voltage (mV rms)
AREA	QUANT	1.00000E+000	Sample Area (cm^2)
SPEED	SELECTOR	2	Optimize for:
ZGUESS	QUANT	1.00000E+003	Estimated Z (ohms)
EOC	QUANT	0	Open Circuit (V)
SEQUENCER	TOGGLE	TRUE	Run as Sequence
PSTATMODEL	IQUANT	5	Pstat Model
PSTATSECTION	LABEL	REF3000-16137	Pstat Section
PSTATSERIALNO	LABEL	16137	Pstat Serial Number
CTRLMODE	IQUANT	1	Control Mode
IESTAB	IQUANT	0	I/E Stability
CASPEED	IQUANT	1	Control Amp Speed
CONVENTION	IQUANT	1	Current Convention
ICHRANGE	IQUANT	2	Ich Range
ICHRANGEMODE	TOGGLE	F	Ich Auto Range
ICHOFFSETENABLE	TOGGLE	T	Ich Offset Enable
ICHOFFSET	QUANT	0	Ich Offset (V)
ICHFILTER	IQUANT	3	Ich Filter
VCHRANGE	IQUANT	2	Vch Range
VCHRANGEMODE	TOGGLE	F	Vch Auto Range
VCHOFFSETENABLE	TOGGLE	T	Vch Offset Enable
VCHOFFSET	QUANT	0	Vch Offset (V)
VCHFILTER	IQUANT	3	Vch Filter
ACHRANGE	IQUANT	2	Ach Range
ACHOFFSETENABLE	TOGGLE	F	Ach Offset Enable
ACHOFFSET	QUANT	0	Ach Offset (V)
ACHFILTER	IQUANT	3	Ach Filter
IERANGELOWERLIMIT	IQUANT	2	I/E Range Lower Limit
IERANGEMODE	TOGGLE	F	I/E AutoRange
IERANGE	IQUANT	11	I/E Range
POSFEEDENABLE	TOGGLE	F	Positive Feedback IR Comp
POSFEEDRESISTANCE	QUANT	0	Positive Feedback Resistance (ohm)
ACHSELECT	IQUANT	0	Ach Select
CABLEID	IQUANT	13	Cable ID
DCCALDATE	LABEL	7/31/2020	DC Calibration Date
ACCALDATE	LABEL	7/31/2020	AC Calibration Date
THERMOSELECT	IQUANT	1	Thermo Select
FRAMEWORKVERSION	QUANT	6.33	Framework Version
INSTRUMENTVERSION	LABEL	3.50	Instrument Version
COMPLIANCEVOLTAGE	IQUANT	0	Compliance Voltage
ZCURVE	TABLE
	Pt	Time	Freq	Zreal	Zimag	Zsig	Zmod	Zphz	Idc	Vdc	IERange
	#	s	Hz	ohm	ohm	V	ohm	°	A	V	#
	0	15	300046.9	520.0876	-2634.691	1	2685.533	-78.83338	6.247078E-005	0.0156253	9
	1	30	238359.4	598.6724	-2950.56	1	3010.683	-78.53032	-0.0008324	0.0297218	9
	2	46	189328.1	903.7294	-3803.842	1	3909.724	-76.63526	0.000414	0.0031614	9
	3	57	150421.9	853.3737	-5090.311	1	5161.348	-80.48306	0.0003632	-0.0017926	10
	4	66	119484.4	1151.274	-5730.562	1	5845.063	-78.64046	0.0002165	0.0103056	9
	5	75	94921.88	1394.67	-7510.354	1	7638.751	-79.48003	-0.0002722	0.0108199	9
	6	85	75421.88	1734.754	-9588.63	1	9744.29	-79.74509	4.072284E-005	0.0061787	9
	7	95	59859.37	2830.781	-11513.52	1	11856.41	-76.18691	-0.0002243	0.0113854	9
	8	105	47578.12	4524.543	-14235.69	1	14937.42	-72.36813	0.0001396	-0.0102986	9
	9	115	37828.12	5764.704	-17198.93	1	18139.32	-71.46998	-0.0002956	0.0093691	9
	10	128	30046.88	8017.742	-19707.87	1	21276.38	-67.86206	0.0002179	-0.0111589	9
	11	138	23859.38	12305.96	-23362.35	1	26405.23	-62.22229	0.0003054	-0.0076895	9
	12	148	18984.38	18319.4	-28066.45	1	33516.05	-56.86691	4.899351E-005	-0.0083521	9
	13	157	15046.87	16970.98	-35363.8	1	39225.15	-64.36379	0.0001402	0.0026916	9
	14	164	11953.13	32503.05	-32348.21	1	45856.9	-44.8632	0.0001531	-0.0257168	8
	15	172	9515.62	32975.37	-40361.64	1	52119.45	-50.75126	-0.0002265	0.0114889	9
	16	181	7546.875	45257.78	-53402.19	1	70000.43	-49.71909	-0.000292	0.0070884	9
	17	189	5928.309	27726.65	-17878.24	1	32990.88	-32.81407	0.000226	-0.0012822	9
	18	197	4733.456	88864.84	-2702.043	1	88905.91	-1.741611	0.00015	-0.025751	8
	19	205	3796.875	77362.14	-40581.19	1	87359.8	-27.67977	0.0001465	-0.0255391	8
	20	212	2987.132	40947.55	-31755.59	1	51818.14	-37.79425	-0.0002723	0.0108367	9
	21	221	2390.625	62327.91	-9709.24	1	63079.61	-8.854185	0.0002272	-0.0013513	9
	22	229	1884.191	-53217.89	-138062.2	1	147963.9	-111.0798	-4.890545E-005	-0.0056101	9
	23	237	1516.544	118590.2	38142	1	124573.1	17.82928	0.0001241	-0.0589201	8
	24	244	1193.986	111938.2	71430.88	1	132787.6	32.54307	-0.0002722	0.010848	9
	25	253	946.5144	52196.09	32498.81	1	61486.62	31.9076	0.0002999	-0.0096872	9
	26	260	751.7689	-27791.53	-20338.18	1	34438.51	-143.8029	-1.010696E-005	-0.0439694	8
	27	267	597.4265	16368.37	-23706.4	1	28808.27	-55.3764	-0.0002189	0.0015106	9
	28	273	477.4305	116781	-14172.78	1	117637.9	-6.919691	-2.268738E-006	0.0007412	8
	29	279	376.6741	169353.8	-14659.35	1	169987.1	-4.947219	-7.970061E-007	0.0007169	7
	30	282	298.2954	178182	1573.727	1	178188.9	0.5060308	-8.620417E-008	0.0007721	6
	31	284	237.7717	180405.7	-1354.483	1	180410.8	-0.4301677	-8.479221E-008	0.0007726	6
	32	287	189.0121	182962.6	-5684.081	1	183050.8	-1.77943	-8.489518E-008	0.0006387	6
	33	290	150.2404	185021.2	-6707.646	1	185142.8	-2.076257	-8.556198E-008	0.0005752	6
	34	293	119.1737	182861.5	-8983.607	1	183082	-2.812562	-8.682822E-008	0.0008049	6
	35	296	95.0169	192860.9	-17246.42	1	193630.5	-5.110034	-8.468515E-008	0.0007912	6
	36	298	75.60484	196987.4	-22410.16	1	198258	-6.49032	-8.491051E-008	0.0007946	6
	37	301	54.50582	201794.7	-29068.98	1	203877.7	-8.197195	-8.431572E-008	0.0006243	6
	38	305	45.95588	207088.8	-33490.46	1	209779.3	-9.186356	-8.77329E-008	0.0006922	6
	39	307	37.20238	211993.8	-39585.82	1	215658.1	-10.57709	-8.780241E-008	0.0007722	6
	40	310	30.04808	203052.2	-43823.58	1	207727.5	-12.17901	-7.651072E-008	0.0007623	6
	41	313	23.91582	144877	-36215.68	1	149334.9	-14.03492	-9.438634E-009	0.0006133	6
	42	315	18.60119	149897.4	-42732.51	1	155869.5	-15.91171	-1.049667E-008	0.0006492	6
	43	317	15.02404	154004	-49442.57	1	161746.1	-17.79909	-8.74395E-009	0.0006141	6
	44	320	12.01923	158549.4	-57589.38	1	168684.5	-19.96237	-8.06382E-009	0.0006116	6
	45	322	9.450605	163570.1	-68199.52	1	177218.4	-22.63338	-8.798385E-009	0.0006663	6
	46	325	7.512019	168515	-81039.62	1	186988.6	-25.68311	-7.944696E-009	0.000601	6
	47	328	5.978954	174170.8	-96731.1	1	199229.5	-29.04695	-8.112485E-009	0.0006806	6
	48	332	4.734848	180023.9	-116858	1	214626.2	-32.98861	-7.689033E-009	0.0007131	6
	49	335	3.75601	186717.6	-142224.3	1	234715.2	-37.29683	-7.373143E-009	0.0006581	6
	50	341	3.004808	194667.5	-172797.7	1	260296.9	-41.59404	-7.967556E-009	0.0006916	6
	51	347	2.372217	203173.5	-213480.5	1	294709	-46.41708	-7.898367E-009	0.0007316	6
	52	351	1.878005	211317	-264119.7	1	338251.5	-51.33738	-8.057643E-009	0.000632	6
	53	356	1.512097	220790.5	-321624.5	1	390116.4	-55.53097	-7.833098E-009	0.0007212	6
	54	362	1.201923	232673.9	-400118.1	1	462851.6	-59.82144	-9.604241E-010	0.0006153	5
	55	368	0.956633	246425.9	-495669.8	1	553546.9	-63.5654	-9.757032E-010	2.153005E-006	5
