EXPLAIN
TAG	EISPOT
TITLE	LABEL	Potentiostatic EIS	Test Identifier
DATE	LABEL	8/29/2020	Date
TIME	LABEL	13:24:20	Time
NOTES	NOTES	1	Notes...
	
PSTAT	PSTAT	REF3000-16137	Potentiostat
VDC	POTEN	0.00000E+000	T	DC Voltage (V)
FREQINIT	QUANT	3.00000E+005	Initial Freq. (Hz)
FREQFINAL	QUANT	1.00000E+000	Final Freq. (Hz)
PTSPERDEC	QUANT	1.00000E+001	Points/decade
VAC	QUANT	5.00000E+001	AC Voltage (mV rms)
AREA	QUANT	1.00000E+000	Sample Area (cm^2)
SPEED	SELECTOR	2	Optimize for:
ZGUESS	QUANT	1.00000E+003	Estimated Z (ohms)
EOC	QUANT	0	Open Circuit (V)
SEQUENCER	TOGGLE	TRUE	Run as Sequence
PSTATMODEL	IQUANT	5	Pstat Model
PSTATSECTION	LABEL	REF3000-16137	Pstat Section
PSTATSERIALNO	LABEL	16137	Pstat Serial Number
CTRLMODE	IQUANT	1	Control Mode
IESTAB	IQUANT	0	I/E Stability
CASPEED	IQUANT	1	Control Amp Speed
CONVENTION	IQUANT	1	Current Convention
ICHRANGE	IQUANT	2	Ich Range
ICHRANGEMODE	TOGGLE	F	Ich Auto Range
ICHOFFSETENABLE	TOGGLE	T	Ich Offset Enable
ICHOFFSET	QUANT	0	Ich Offset (V)
ICHFILTER	IQUANT	3	Ich Filter
VCHRANGE	IQUANT	2	Vch Range
VCHRANGEMODE	TOGGLE	F	Vch Auto Range
VCHOFFSETENABLE	TOGGLE	T	Vch Offset Enable
VCHOFFSET	QUANT	0	Vch Offset (V)
VCHFILTER	IQUANT	3	Vch Filter
ACHRANGE	IQUANT	2	Ach Range
ACHOFFSETENABLE	TOGGLE	F	Ach Offset Enable
ACHOFFSET	QUANT	0	Ach Offset (V)
ACHFILTER	IQUANT	3	Ach Filter
IERANGELOWERLIMIT	IQUANT	2	I/E Range Lower Limit
IERANGEMODE	TOGGLE	F	I/E AutoRange
IERANGE	IQUANT	11	I/E Range
POSFEEDENABLE	TOGGLE	F	Positive Feedback IR Comp
POSFEEDRESISTANCE	QUANT	0	Positive Feedback Resistance (ohm)
ACHSELECT	IQUANT	0	Ach Select
CABLEID	IQUANT	13	Cable ID
DCCALDATE	LABEL	7/31/2020	DC Calibration Date
ACCALDATE	LABEL	7/31/2020	AC Calibration Date
THERMOSELECT	IQUANT	1	Thermo Select
FRAMEWORKVERSION	QUANT	6.33	Framework Version
INSTRUMENTVERSION	LABEL	3.50	Instrument Version
COMPLIANCEVOLTAGE	IQUANT	0	Compliance Voltage
ZCURVE	TABLE
	Pt	Time	Freq	Zreal	Zimag	Zsig	Zmod	Zphz	Idc	Vdc	IERange
	#	s	Hz	ohm	ohm	V	ohm	°	A	V	#
	0	20	300046.9	-49.5891	-4827.214	1	4827.469	-90.58857	-1.55857E-005	0.0017735	9
	1	34	238359.4	149.11	-6000.854	1	6002.707	-88.5766	-6.490034E-005	0.0004985	9
	2	61	189328.1	-44.39378	-7411.74	1	7411.873	-90.34318	2.624896E-005	0.0010064	9
	3	68	150421.9	77.12987	-9187.589	1	9187.913	-89.51901	3.746182E-007	0.0016356	9
	4	79	119484.4	512.4506	-11519.58	1	11530.98	-87.45287	1.38887E-005	-0.0193289	8
	5	86	94921.88	616.0851	-14460.04	1	14473.16	-87.56033	-1.214602E-005	0.0103755	8
	6	95	75421.88	577.1758	-18276.2	1	18285.31	-88.19116	2.24931E-005	-0.009609	8
	7	103	59859.37	-380.3573	-22324.65	1	22327.89	-90.97608	1.634926E-005	-0.0093015	8
	8	112	47578.12	3941.691	-30057.73	1	30315.08	-82.52901	6.733585E-006	-0.0101966	7
	9	118	37828.12	4010.122	-36945.54	1	37162.53	-83.80528	7.673389E-006	-0.0186283	7
	10	126	30046.88	414.5456	-45879.66	1	45881.53	-89.48232	-2.002891E-005	0.0114722	8
	11	134	23859.38	-1765.112	-54574.35	1	54602.89	-91.85249	1.740564E-005	0.0004302	8
	12	141	18984.38	4618.874	-72799.94	1	72946.31	-86.36967	5.141229E-006	-0.0010549	7
	13	146	15046.87	5618.391	-89423.32	1	89599.65	-86.40488	1.381574E-006	-0.0201689	7
	14	153	11953.13	5440.94	-115274.2	1	115402.6	-87.29765	-5.402948E-006	0.0037131	7
	15	158	9515.62	5927.148	-134284.3	1	134415	-87.47267	-2.050536E-005	0.0028582	8
	16	166	7546.875	-3883.949	-183921	1	183962	-91.20976	-2.477949E-005	0.0111096	8
	17	173	5928.309	-2566.093	-201916.8	1	201933.1	-90.72811	2.330853E-005	-0.002763	8
	18	181	4733.456	-11081.31	-286759.2	1	286973.2	-92.213	-1.796864E-006	0.0222324	7
	19	187	3796.875	11035.47	-335933.8	1	336115	-88.1185	6.901361E-006	-0.0270511	7
	20	195	2987.132	-131332.1	-617231.7	1	631049.2	-102.012	2.746438E-005	-0.0073759	8
	21	203	2390.625	50285.61	-446341.6	1	449165.3	-83.57207	6.983801E-006	-0.0274956	7
	22	211	1884.191	64508.41	-567905.3	1	571557.3	-83.51955	-6.749589E-006	0.0121013	7
	23	218	1516.544	-20374.1	-690888.9	1	691189.3	-91.68915	-5.392384E-006	0.0269008	7
	24	225	1193.986	-251101.7	-946236.1	1	978987	-104.862	-3.383028E-006	-0.0052763	7
	25	232	946.5144	-409186.2	-440414.6	1	601164.2	-132.895	-6.731984E-006	0.0119108	7
	26	237	751.7689	-771005.1	-1711205	1	1876878	-114.2545	-5.399411E-006	0.0269754	7
	27	243	597.4265	-1108985	-1218577	1	1647658	-132.3043	4.947507E-006	-0.0006149	7
	28	250	477.4305	39434.93	-2785893	1	2786172	-89.18902	-6.643668E-008	0.0005886	7
	29	256	376.6741	476469.7	-3657308	1	3688214	-82.57738	-9.018083E-010	0.0006938	5
	30	259	298.2954	496690.9	-4552553	1	4579568	-83.77357	-7.652146E-010	0.0006183	5
	31	262	237.7717	627389.8	-5602507	1	5637527	-83.61043	-8.40283E-010	0.0006251	5
	32	265	189.0121	577918.3	-7041923	1	7065598	-85.30835	-8.487555E-010	0.0006658	5
	33	268	150.2404	681353.8	-9282884	1	9307856	-85.80208	-8.700651E-010	0.0006779	5
	34	271	119.1737	-2968248	-1.013022E+007	1	1.055613E+007	-106.3311	-7.695991E-010	0.0006314	5
	35	273	95.0169	709561.6	-1.392058E+007	1	1.393865E+007	-87.08204	-7.79218E-010	0.000645	5
	36	276	75.60484	308459.8	-1.752629E+007	1	1.752901E+007	-88.99171	-7.91738E-010	0.0006242	5
	37	279	54.50582	1023651	-2.378234E+007	1	2.380436E+007	-87.53537	-8.566397E-010	0.0006408	5
	38	282	45.95588	1868874	-2.777709E+007	1	2.783989E+007	-86.15088	-8.557601E-010	0.0006995	5
	39	286	37.20238	4124218	-3.508444E+007	1	3.532602E+007	-83.29558	-7.335428E-010	0.0006017	5
	40	290	30.04808	1812070	-4.284806E+007	1	4.288636E+007	-87.57837	-8.896095E-010	0.0007275	5
	41	294	23.91582	1489626	-5.440878E+007	1	5.442917E+007	-88.43172	-5.995033E-011	0.0006155	4
	42	298	18.60119	1.180796E+007	-6.148166E+007	1	6.260529E+007	-79.12834	-4.406252E-011	0.0006148	4
	43	301	15.02404	6292970	-8.60831E+007	1	8.631281E+007	-85.81892	-9.96508E-011	0.000626	4
	44	305	12.01923	9096706	-1.059424E+008	1	1.063322E+008	-85.09235	-1.076835E-010	0.0007357	4
	45	308	9.450605	1.104588E+007	-1.348661E+008	1	1.353177E+008	-85.31778	-1.041812E-010	0.0006448	4
	46	313	7.512019	1.808642E+007	-1.708359E+008	1	1.717906E+008	-83.9566	-1.195166E-010	0.0007502	4
	47	317	5.978954	1.717112E+007	-2.151257E+008	1	2.158099E+008	-85.43639	-9.652519E-011	0.0006035	4
	48	322	4.734848	5.483559E+007	-2.828483E+008	1	2.881147E+008	-79.02821	-3.499495E-011	0.0007963	3
	49	327	3.75601	3.667284E+007	-3.214699E+008	1	3.235549E+008	-83.49191	-8.073204E-010	0.0006081	5
	50	335	3.004808	6.038252E+007	-4.353181E+008	1	4.39486E+008	-82.10295	-8.073879E-010	0.0005995	5
	51	345	2.372217	8.627408E+007	-5.373418E+008	1	5.442237E+008	-80.8786	-3.495141E-011	0.0007212	3
	52	350	1.878005	1.074228E+008	-6.746687E+008	1	6.831673E+008	-80.95313	-3.479947E-011	0.0007009	3
	53	359	1.512097	1.349292E+008	-8.320063E+008	1	8.428762E+008	-80.78835	-3.54028E-011	0.0008073	3
	54	366	1.201923	1.803216E+008	-1.040401E+009	1	1.055912E+009	-80.16722	-3.537875E-011	0.0007337	3
	55	377	0.956633	2.406396E+008	-1.296423E+009	1	1.318568E+009	-79.48454	-3.540711E-011	9.063352E-005	3
