EXPLAIN
TAG	EISPOT
TITLE	LABEL	Potentiostatic EIS	Test Identifier
DATE	LABEL	8/29/2020	Date
TIME	LABEL	14:08:06	Time
NOTES	NOTES	1	Notes...
	
PSTAT	PSTAT	REF3000-16137	Potentiostat
VDC	POTEN	0.00000E+000	T	DC Voltage (V)
FREQINIT	QUANT	3.00000E+005	Initial Freq. (Hz)
FREQFINAL	QUANT	1.00000E+000	Final Freq. (Hz)
PTSPERDEC	QUANT	1.00000E+001	Points/decade
VAC	QUANT	5.00000E+001	AC Voltage (mV rms)
AREA	QUANT	1.00000E+000	Sample Area (cm^2)
SPEED	SELECTOR	2	Optimize for:
ZGUESS	QUANT	1.00000E+003	Estimated Z (ohms)
EOC	QUANT	0	Open Circuit (V)
SEQUENCER	TOGGLE	TRUE	Run as Sequence
PSTATMODEL	IQUANT	5	Pstat Model
PSTATSECTION	LABEL	REF3000-16137	Pstat Section
PSTATSERIALNO	LABEL	16137	Pstat Serial Number
CTRLMODE	IQUANT	1	Control Mode
IESTAB	IQUANT	0	I/E Stability
CASPEED	IQUANT	1	Control Amp Speed
CONVENTION	IQUANT	1	Current Convention
ICHRANGE	IQUANT	2	Ich Range
ICHRANGEMODE	TOGGLE	F	Ich Auto Range
ICHOFFSETENABLE	TOGGLE	T	Ich Offset Enable
ICHOFFSET	QUANT	0	Ich Offset (V)
ICHFILTER	IQUANT	3	Ich Filter
VCHRANGE	IQUANT	2	Vch Range
VCHRANGEMODE	TOGGLE	F	Vch Auto Range
VCHOFFSETENABLE	TOGGLE	T	Vch Offset Enable
VCHOFFSET	QUANT	0	Vch Offset (V)
VCHFILTER	IQUANT	3	Vch Filter
ACHRANGE	IQUANT	2	Ach Range
ACHOFFSETENABLE	TOGGLE	F	Ach Offset Enable
ACHOFFSET	QUANT	0	Ach Offset (V)
ACHFILTER	IQUANT	3	Ach Filter
IERANGELOWERLIMIT	IQUANT	2	I/E Range Lower Limit
IERANGEMODE	TOGGLE	F	I/E AutoRange
IERANGE	IQUANT	11	I/E Range
POSFEEDENABLE	TOGGLE	F	Positive Feedback IR Comp
POSFEEDRESISTANCE	QUANT	0	Positive Feedback Resistance (ohm)
ACHSELECT	IQUANT	0	Ach Select
CABLEID	IQUANT	13	Cable ID
DCCALDATE	LABEL	7/31/2020	DC Calibration Date
ACCALDATE	LABEL	7/31/2020	AC Calibration Date
THERMOSELECT	IQUANT	1	Thermo Select
FRAMEWORKVERSION	QUANT	6.33	Framework Version
INSTRUMENTVERSION	LABEL	3.50	Instrument Version
COMPLIANCEVOLTAGE	IQUANT	0	Compliance Voltage
ZCURVE	TABLE
	Pt	Time	Freq	Zreal	Zimag	Zsig	Zmod	Zphz	Idc	Vdc	IERange
	#	s	Hz	ohm	ohm	V	ohm	°	A	V	#
	0	7	300046.9	31.10527	-2.232968	1	31.18532	-4.106075	6.988626E-005	1.117053E-005	11
	1	11	238359.4	31.42402	-2.477015	1	31.5215	-4.50705	1.242864E-005	0.0003559	10
	2	14	189328.1	31.70443	-3.338349	1	31.8797	-6.010866	-2.053421E-005	0.0005914	10
	3	17	150421.9	32.07032	-4.196094	1	32.34366	-7.454259	-4.573174E-006	0.0004157	10
	4	19	119484.4	32.5033	-5.142407	1	32.90759	-8.990352	6.995327E-005	0.0005495	10
	5	22	94921.88	33.00032	-6.151029	1	33.56868	-10.55837	-2.282574E-005	0.0006814	10
	6	24	75421.88	33.59779	-7.341956	1	34.39063	-12.32678	-2.021487E-005	0.0006905	10
	7	27	59859.37	34.28084	-8.653999	1	35.3563	-14.16797	-1.009902E-006	0.0006079	10
	8	29	47578.12	35.03925	-9.95671	1	36.42644	-15.86296	-1.218925E-005	0.0004894	9
	9	32	37828.12	35.85375	-11.71178	1	37.71813	-18.08985	-1.0874E-005	0.0005173	9
	10	34	30046.88	36.71188	-13.73653	1	39.19763	-20.51441	-1.213542E-005	0.0004851	9
	11	37	23859.38	37.62001	-16.17373	1	40.94941	-23.26401	-2.172981E-006	0.0003667	9
	12	39	18984.38	38.51567	-19.03327	1	42.96187	-26.29718	-1.223599E-005	0.0004995	9
	13	42	15046.87	39.42715	-22.63482	1	45.46246	-29.85979	4.730446E-006	0.0002619	9
	14	44	11953.13	40.26864	-27.11482	1	48.54665	-33.95429	-7.949298E-006	0.0001104	9
	15	46	9515.62	41.0756	-32.62086	1	52.45308	-38.45542	-1.073273E-005	0.0005187	9
	16	49	7546.875	41.90479	-39.65565	1	57.69386	-43.42039	1.701409E-005	-0.0003241	9
	17	51	5928.309	42.73512	-49.01687	1	65.03033	-48.91662	-9.740696E-006	0.0005327	9
	18	53	4733.456	43.56218	-60.09604	1	74.22397	-54.06254	-6.196138E-006	0.0004821	9
	19	56	3796.875	44.46429	-73.68867	1	86.06448	-58.89291	9.613515E-006	2.482433E-006	9
	20	58	2987.132	45.67171	-92.15079	1	102.8478	-63.6361	-1.299371E-005	0.0004035	9
	21	60	2390.625	47.23845	-113.6149	1	123.044	-67.42359	-1.037338E-005	0.0002551	9
	22	63	1884.191	48.60105	-142.7069	1	150.7559	-71.19293	1.754006E-005	-0.0003205	9
	23	65	1516.544	50.815	-175.6928	1	182.8938	-73.86874	-9.807953E-006	0.000531	9
	24	67	1193.986	53.70383	-221.0556	1	227.4855	-76.34496	-1.212733E-005	0.0005275	9
	25	70	946.5144	57.36911	-276.09	1	281.9874	-78.26147	-6.339333E-007	0.0004024	9
	26	72	751.7689	62.05074	-345.3431	1	350.8734	-79.81387	-1.286746E-005	0.0004107	9
	27	74	597.4265	70.04591	-430.7475	1	436.4056	-80.76371	-2.592796E-006	-3.899364E-005	9
	28	77	477.4305	76.63665	-531.5801	1	537.0759	-81.79633	4.488663E-007	0.0006585	8
	29	79	376.6741	88.26546	-667.4763	1	673.287	-82.46705	4.240858E-007	0.0006987	8
	30	81	298.2954	103.7144	-834.7656	1	841.1839	-82.91765	4.600379E-007	0.0006603	8
	31	84	237.7717	123.9855	-1036.879	1	1044.265	-83.18119	4.660724E-007	0.0006478	8
	32	86	189.0121	151.6418	-1290.576	1	1299.455	-83.29852	4.460397E-007	0.0006522	8
	33	89	150.2404	189.1745	-1605.075	1	1616.184	-83.27811	4.562635E-007	0.0006499	8
	34	91	119.1737	240.9044	-1999.081	1	2013.544	-83.12856	4.507849E-007	0.0006635	8
	35	93	95.0169	309.3581	-2474.75	1	2494.01	-82.87466	4.65821E-007	0.0006464	8
	36	96	75.60484	403.7619	-3066.882	1	3093.346	-82.50002	4.643381E-007	0.0006972	8
	37	99	54.50582	602.873	-4157.377	1	4200.862	-81.74889	4.632743E-007	0.00065	8
	38	101	45.95588	750.5891	-4877.647	1	4935.061	-81.25175	4.891464E-008	0.0006244	7
	39	103	37.20238	989.363	-5922.479	1	6004.548	-80.51619	4.605713E-008	0.0006238	7
	40	106	30.04808	1312.208	-7182.395	1	7301.28	-79.64637	3.25544E-008	0.0006172	7
	41	108	23.91582	1774.372	-8804.379	1	8981.396	-78.60564	3.101623E-008	0.0006241	7
	42	111	18.60119	2508.857	-11000.99	1	11283.45	-77.15299	4.024562E-008	0.0006279	7
	43	113	15.02404	3360.679	-13213.36	1	13634.04	-75.73	5.067309E-008	0.0006314	7
	44	115	12.01923	4565.749	-15921.6	1	16563.32	-73.99899	3.377273E-008	0.0006222	7
	45	118	9.450605	6347.457	-19303.67	1	20320.48	-71.79803	4.614916E-008	0.0006312	7
	46	120	7.512019	8605.183	-23001.46	1	24558.43	-69.48844	4.933449E-008	0.0006427	7
	47	123	5.978954	11563.63	-27057.88	1	29425.27	-66.85976	4.743423E-008	0.0006258	7
	48	126	4.734848	15484.65	-31547.33	1	35142.68	-63.85641	4.704066E-008	0.0006366	7
	49	129	3.75601	20325.82	-36158.32	1	41479.67	-60.65818	4.536332E-008	0.0006287	7
	50	133	3.004808	25981.94	-40501.09	1	48118.6	-57.31934	-1.092945E-008	0.0007033	6
	51	136	2.372217	33042.32	-44764.68	1	55638.75	-53.56771	-7.380248E-009	0.0007	6
	52	141	1.878005	41106.52	-48153.72	1	63312.93	-49.51421	-8.779182E-009	0.0006456	6
	53	145	1.512097	49056.58	-50748.74	1	70583.16	-45.97133	-1.077068E-008	0.0007658	6
	54	151	1.201923	57993.71	-52325.37	1	78110.27	-42.05865	-9.475102E-009	0.0006605	6
	55	157	0.956633	67033.72	-53032.69	1	85475.05	-38.34874	-2.164943E-008	3.618479E-005	6
