EXPLAIN
TAG	EISPOT
TITLE	LABEL	Potentiostatic EIS	Test Identifier
DATE	LABEL	8/29/2020	Date
TIME	LABEL	11:20:30	Time
NOTES	NOTES	1	Notes...
	
PSTAT	PSTAT	REF3000-16137	Potentiostat
VDC	POTEN	0.00000E+000	T	DC Voltage (V)
FREQINIT	QUANT	3.00000E+005	Initial Freq. (Hz)
FREQFINAL	QUANT	1.00000E+000	Final Freq. (Hz)
PTSPERDEC	QUANT	1.00000E+001	Points/decade
VAC	QUANT	5.00000E+001	AC Voltage (mV rms)
AREA	QUANT	1.00000E+000	Sample Area (cm^2)
SPEED	SELECTOR	2	Optimize for:
ZGUESS	QUANT	1.00000E+003	Estimated Z (ohms)
EOC	QUANT	0	Open Circuit (V)
SEQUENCER	TOGGLE	TRUE	Run as Sequence
PSTATMODEL	IQUANT	5	Pstat Model
PSTATSECTION	LABEL	REF3000-16137	Pstat Section
PSTATSERIALNO	LABEL	16137	Pstat Serial Number
CTRLMODE	IQUANT	1	Control Mode
IESTAB	IQUANT	0	I/E Stability
CASPEED	IQUANT	1	Control Amp Speed
CONVENTION	IQUANT	1	Current Convention
ICHRANGE	IQUANT	2	Ich Range
ICHRANGEMODE	TOGGLE	F	Ich Auto Range
ICHOFFSETENABLE	TOGGLE	T	Ich Offset Enable
ICHOFFSET	QUANT	0	Ich Offset (V)
ICHFILTER	IQUANT	3	Ich Filter
VCHRANGE	IQUANT	2	Vch Range
VCHRANGEMODE	TOGGLE	F	Vch Auto Range
VCHOFFSETENABLE	TOGGLE	T	Vch Offset Enable
VCHOFFSET	QUANT	0	Vch Offset (V)
VCHFILTER	IQUANT	3	Vch Filter
ACHRANGE	IQUANT	2	Ach Range
ACHOFFSETENABLE	TOGGLE	F	Ach Offset Enable
ACHOFFSET	QUANT	0	Ach Offset (V)
ACHFILTER	IQUANT	3	Ach Filter
IERANGELOWERLIMIT	IQUANT	2	I/E Range Lower Limit
IERANGEMODE	TOGGLE	F	I/E AutoRange
IERANGE	IQUANT	11	I/E Range
POSFEEDENABLE	TOGGLE	F	Positive Feedback IR Comp
POSFEEDRESISTANCE	QUANT	0	Positive Feedback Resistance (ohm)
ACHSELECT	IQUANT	0	Ach Select
CABLEID	IQUANT	13	Cable ID
DCCALDATE	LABEL	7/31/2020	DC Calibration Date
ACCALDATE	LABEL	7/31/2020	AC Calibration Date
THERMOSELECT	IQUANT	1	Thermo Select
FRAMEWORKVERSION	QUANT	6.33	Framework Version
INSTRUMENTVERSION	LABEL	3.50	Instrument Version
COMPLIANCEVOLTAGE	IQUANT	0	Compliance Voltage
ZCURVE	TABLE
	Pt	Time	Freq	Zreal	Zimag	Zsig	Zmod	Zphz	Idc	Vdc	IERange
	#	s	Hz	ohm	ohm	V	ohm	°	A	V	#
	0	7	300046.9	37.586	-1.768721	1	37.62759	-2.694235	-0.0008092	0.0029259	10
	1	11	238359.4	37.78793	-2.685431	1	37.88324	-4.064938	0.0006042	-0.0033228	10
	2	17	189328.1	38.14664	-3.583234	1	38.31457	-5.366226	-0.0003109	-0.0007133	10
	3	23	150421.9	38.71859	-4.566896	1	38.987	-6.727012	-0.0007934	0.0022785	10
	4	30	119484.4	39.24082	-5.636241	1	39.64352	-8.173612	-0.0007725	0.0023173	10
	5	36	94921.88	39.83923	-6.785994	1	40.41304	-9.66667	0.0002135	0.0007911	10
	6	39	75421.88	40.78675	-7.165956	1	41.41147	-9.96478	0.0001485	-0.0025906	9
	7	41	59859.37	41.58879	-8.782483	1	42.506	-11.9242	-0.0001464	0.002822	9
	8	44	47578.12	42.52071	-10.57215	1	43.81531	-13.96263	-0.0001338	0.0063202	9
	9	46	37828.12	43.46893	-12.6308	1	45.26682	-16.20232	-3.851579E-005	0.0046703	9
	10	49	30046.88	44.52995	-14.9458	1	46.9712	-18.55354	3.442292E-005	-0.0041403	9
	11	51	23859.38	45.70242	-17.58316	1	48.96814	-21.0433	5.996487E-005	0.0013201	9
	12	54	18984.38	46.87374	-20.70753	1	51.24401	-23.83452	-0.0001704	0.0048067	9
	13	56	15046.87	48.06594	-24.39886	1	53.90398	-26.91291	-7.391994E-005	-0.0009247	9
	14	58	11953.13	49.13378	-29.11639	1	57.11298	-30.65074	7.861937E-006	0.0034189	9
	15	60	9515.62	50.39088	-34.91154	1	61.30299	-34.71478	-0.000108	0.0007682	9
	16	63	7546.875	51.58433	-42.38449	1	66.76367	-39.40839	0.0001664	-0.003967	9
	17	65	5928.309	52.58249	-51.95576	1	73.92104	-44.65651	-0.0001241	0.0058479	9
	18	67	4733.456	53.51235	-63.50338	1	83.04367	-49.88019	0.0001552	-0.0057551	9
	19	70	3796.875	54.96067	-77.91424	1	95.3483	-54.80087	-0.0001655	0.0051103	9
	20	72	2987.132	55.8509	-96.9977	1	111.928	-60.06683	-8.843052E-005	0.00558	9
	21	75	2390.625	57.29644	-118.9898	1	132.0661	-64.28806	0.0001542	-0.0055959	9
	22	78	1884.191	59.15474	-149.619	1	160.8885	-68.42768	-0.0001254	0.0059304	9
	23	81	1516.544	61.36781	-184.6164	1	194.5488	-71.61282	6.672488E-005	0.0013673	9
	24	85	1193.986	63.47939	-231.8226	1	240.3567	-74.68623	-1.497043E-005	-0.0028416	9
	25	90	946.5144	66.43124	-289.3928	1	296.9197	-77.07152	0.0001523	-0.0025943	9
	26	93	751.7689	74.50509	-360.9901	1	368.5985	-78.33842	-0.0001454	0.0026667	9
	27	97	597.4265	78.90376	-452.2526	1	459.0841	-80.10331	0.0001699	-0.0041906	9
	28	101	477.4305	85.68014	-562.1165	1	568.6089	-81.33344	9.937206E-007	8.814965E-005	9
	29	103	376.6741	96.4821	-703.5759	1	710.1604	-82.19167	5.683622E-007	0.000639	8
	30	105	298.2954	110.6248	-881.1433	1	888.0605	-82.84413	5.035241E-007	0.0006815	8
	31	108	237.7717	128.9321	-1096.139	1	1103.695	-83.29147	5.283951E-007	0.0006462	8
	32	110	189.0121	154.0559	-1366.409	1	1375.066	-83.56735	5.098333E-007	0.0006642	8
	33	112	150.2404	187.8039	-1702.164	1	1712.493	-83.70388	5.121051E-007	0.0006664	8
	34	115	119.1737	236.0424	-2122.421	1	2135.506	-83.654	5.12049E-007	0.0006785	8
	35	117	95.0169	294.7102	-2632.52	1	2648.965	-83.61234	5.17039E-007	0.0006793	8
	36	120	75.60484	377.8351	-3269.139	1	3290.901	-83.40722	5.198751E-007	0.0006687	8
	37	122	54.50582	549.6522	-4441.762	1	4475.641	-82.94572	5.222589E-007	0.0006685	8
	38	125	45.95588	678.4658	-5222.88	1	5266.763	-82.59858	6.819651E-008	0.0006302	7
	39	127	37.20238	872.8901	-6351.032	1	6410.737	-82.17426	6.976898E-008	0.0006183	7
	40	129	30.04808	1138.592	-7744.669	1	7827.918	-81.63651	6.122082E-008	0.0006183	7
	41	132	23.91582	1510.216	-9548.12	1	9666.82	-81.01205	6.109551E-008	0.0006227	7
	42	134	18.60119	2067.993	-11974.6	1	12151.86	-80.20177	6.632278E-008	0.0006544	7
	43	137	15.02404	2702.791	-14500.08	1	14749.82	-79.44133	7.170251E-008	0.0006621	7
	44	139	12.01923	3591.641	-17657.58	1	18019.16	-78.5026	6.840358E-008	0.0006197	7
	45	142	9.450605	4863.757	-21773.92	1	22310.53	-77.40825	7.076726E-008	0.000611	7
	46	144	7.512019	6514.433	-26473.6	1	27263.33	-76.17573	6.846324E-008	0.000652	7
	47	147	5.978954	8645.98	-32025.51	1	33172.07	-74.89194	7.006497E-008	0.000615	7
	48	151	4.734848	11533.08	-38781.51	1	40460.07	-73.43826	6.645639E-008	0.0006262	7
	49	155	3.75601	15301.34	-46525.66	1	48977.21	-71.79501	6.875774E-009	0.000706	6
	50	160	3.004808	19879.44	-55227.39	1	58696.31	-70.20335	4.411187E-009	0.0007283	6
	51	167	2.372217	26116.12	-65796.55	1	70790.09	-68.35076	5.525992E-009	0.0006934	6
	52	171	1.878005	34224.67	-77735.42	1	84936	-66.23749	5.341933E-009	0.0006552	6
	53	176	1.512097	43473.27	-89968.58	1	99921.3	-64.20993	3.961345E-009	0.0007716	6
	54	181	1.201923	55664.35	-104212.4	1	118147.2	-61.8914	4.497637E-009	0.0006545	6
	55	187	0.956633	70403.42	-119367.7	1	138583.2	-59.46777	1.082938E-010	4.027154E-005	6
