EXPLAIN
TAG	EISPOT
TITLE	LABEL	Potentiostatic EIS	Test Identifier
DATE	LABEL	8/29/2020	Date
TIME	LABEL	12:26:27	Time
NOTES	NOTES	1	Notes...
	
PSTAT	PSTAT	REF3000-16137	Potentiostat
VDC	POTEN	0.00000E+000	T	DC Voltage (V)
FREQINIT	QUANT	3.00000E+005	Initial Freq. (Hz)
FREQFINAL	QUANT	1.00000E+000	Final Freq. (Hz)
PTSPERDEC	QUANT	1.00000E+001	Points/decade
VAC	QUANT	5.00000E+001	AC Voltage (mV rms)
AREA	QUANT	1.00000E+000	Sample Area (cm^2)
SPEED	SELECTOR	2	Optimize for:
ZGUESS	QUANT	1.00000E+003	Estimated Z (ohms)
EOC	QUANT	0	Open Circuit (V)
SEQUENCER	TOGGLE	TRUE	Run as Sequence
PSTATMODEL	IQUANT	5	Pstat Model
PSTATSECTION	LABEL	REF3000-16137	Pstat Section
PSTATSERIALNO	LABEL	16137	Pstat Serial Number
CTRLMODE	IQUANT	1	Control Mode
IESTAB	IQUANT	0	I/E Stability
CASPEED	IQUANT	1	Control Amp Speed
CONVENTION	IQUANT	1	Current Convention
ICHRANGE	IQUANT	2	Ich Range
ICHRANGEMODE	TOGGLE	F	Ich Auto Range
ICHOFFSETENABLE	TOGGLE	T	Ich Offset Enable
ICHOFFSET	QUANT	0	Ich Offset (V)
ICHFILTER	IQUANT	3	Ich Filter
VCHRANGE	IQUANT	2	Vch Range
VCHRANGEMODE	TOGGLE	F	Vch Auto Range
VCHOFFSETENABLE	TOGGLE	T	Vch Offset Enable
VCHOFFSET	QUANT	0	Vch Offset (V)
VCHFILTER	IQUANT	3	Vch Filter
ACHRANGE	IQUANT	2	Ach Range
ACHOFFSETENABLE	TOGGLE	F	Ach Offset Enable
ACHOFFSET	QUANT	0	Ach Offset (V)
ACHFILTER	IQUANT	3	Ach Filter
IERANGELOWERLIMIT	IQUANT	2	I/E Range Lower Limit
IERANGEMODE	TOGGLE	F	I/E AutoRange
IERANGE	IQUANT	11	I/E Range
POSFEEDENABLE	TOGGLE	F	Positive Feedback IR Comp
POSFEEDRESISTANCE	QUANT	0	Positive Feedback Resistance (ohm)
ACHSELECT	IQUANT	0	Ach Select
CABLEID	IQUANT	13	Cable ID
DCCALDATE	LABEL	7/31/2020	DC Calibration Date
ACCALDATE	LABEL	7/31/2020	AC Calibration Date
THERMOSELECT	IQUANT	1	Thermo Select
FRAMEWORKVERSION	QUANT	6.33	Framework Version
INSTRUMENTVERSION	LABEL	3.50	Instrument Version
COMPLIANCEVOLTAGE	IQUANT	0	Compliance Voltage
ZCURVE	TABLE
	Pt	Time	Freq	Zreal	Zimag	Zsig	Zmod	Zphz	Idc	Vdc	IERange
	#	s	Hz	ohm	ohm	V	ohm	°	A	V	#
	0	15	300046.9	797.5097	-174.6124	1	816.4014	-12.34986	0.0007046	-0.0283496	9
	1	29	238359.4	784.606	-138.9187	1	796.8092	-10.04047	-0.0009069	0.0035171	10
	2	45	189328.1	828.8082	-139.2708	1	840.428	-9.53872	5.354724E-005	-0.0166623	9
	3	53	150421.9	838.2014	-124.8208	1	847.4443	-8.469962	-0.0007909	0.0283632	9
	4	62	119484.4	852.1085	-138.0036	1	863.2114	-9.199488	0.0003576	0.0023631	10
	5	70	94921.88	880.4104	-89.68522	1	884.9666	-5.816514	-0.0001413	0.0103016	9
	6	79	75421.88	893.8993	-80.29407	1	897.4982	-5.132791	0.0001408	0.0022624	9
	7	88	59859.37	900.4447	-75.26594	1	903.5849	-4.778105	4.494079E-005	0.0058063	9
	8	96	47578.12	928.417	-83.14621	1	932.1327	-5.117584	0.0002786	0.0005751	10
	9	105	37828.12	943.4574	-69.69877	1	946.0284	-4.225102	-0.0002847	0.0091904	9
	10	114	30046.88	956.456	-80.01402	1	959.797	-4.782043	-0.0001164	-0.0001412	10
	11	122	23859.38	976.714	-86.39	1	980.527	-5.054639	0.0002597	-0.0105191	9
	12	129	18984.38	994.884	-82.80294	1	998.324	-4.75769	-0.0001402	0.0101873	9
	13	136	15046.87	1004.012	-97.5561	1	1008.741	-5.549791	-4.871055E-005	-0.0054148	9
	14	142	11953.13	1027.395	-85.0608	1	1030.91	-4.732877	0.0001175	-0.0493747	8
	15	146	9515.62	1037.472	-122.9504	1	1044.732	-6.758577	0.0002779	-0.0050277	9
	16	153	7546.875	1059.338	-145.4808	1	1069.281	-7.819617	0.0001469	0.002263	9
	17	159	5928.309	1081.655	-164.5416	1	1094.098	-8.64954	0.0002066	-0.0107153	9
	18	166	4733.456	1098.144	-188.2152	1	1114.157	-9.72565	0.000261	-0.0105887	9
	19	171	3796.875	1132.753	-227.1467	1	1155.303	-11.33892	-0.0002152	0.011111	9
	20	178	2987.132	1168.197	-258.5388	1	1196.464	-12.47923	-5.186102E-005	-0.0052628	9
	21	184	2390.625	1280.581	-317.4944	1	1319.353	-13.92456	-0.0001062	0.0071272	8
	22	189	1884.191	1253.824	-333.6908	1	1297.468	-14.90316	-0.000262	0.0105899	9
	23	197	1516.544	1262.458	-403.4583	1	1325.36	-17.72292	-5.358711E-005	0.0086487	9
	24	203	1193.986	1310.462	-472.504	1	1393.044	-19.82742	4.281891E-005	-0.007995	9
	25	211	946.5144	1379.243	-606.5883	1	1506.739	-23.73979	-4.998269E-005	0.0483854	8
	26	214	751.7689	1429.72	-598.9741	1	1550.12	-22.731	8.65135E-005	-0.050726	8
	27	216	597.4265	1508.637	-801.6902	1	1708.418	-27.98619	-0.000265	0.0106876	9
	28	221	477.4305	1473.666	-958.792	1	1758.117	-33.04872	-9.349401E-008	0.0000963	9
	29	224	376.6741	1552.125	-1192.578	1	1957.379	-37.53693	-1.448384E-006	0.000641	8
	30	226	298.2954	1582.723	-1452.706	1	2148.34	-42.54734	-1.432119E-006	0.000613	8
	31	228	237.7717	1638.593	-1776.069	1	2416.486	-47.30552	-1.412276E-006	0.0005468	8
	32	231	189.0121	1689.952	-2175.967	1	2755.135	-52.16552	-1.413216E-006	0.000591	8
	33	234	150.2404	1757.371	-2724.879	1	3242.425	-57.18059	-1.499395E-006	0.0007334	8
	34	236	119.1737	1823.841	-3311.618	1	3780.636	-61.15666	-1.508426E-006	0.0005974	8
	35	238	95.0169	2248.187	-4787.652	1	5289.23	-64.84618	-5.093544E-007	0.0006318	7
	36	241	75.60484	2349.386	-5879.991	1	6331.975	-68.22052	-4.953988E-007	0.0007293	7
	37	244	54.50582	2510.526	-7816.863	1	8210.121	-72.19464	-4.521293E-007	0.0005005	7
	38	246	45.95588	2623.416	-9168.211	1	9536.16	-74.03192	-4.551979E-007	0.0007459	7
	39	249	37.20238	2787.535	-11050.82	1	11396.97	-75.84266	-4.374118E-007	0.0006159	7
	40	251	30.04808	3007.329	-13473.44	1	13804.99	-77.41759	-4.19211E-007	0.0005125	7
	41	254	23.91582	3297.535	-16735.51	1	17057.28	-78.85332	-4.329582E-007	0.0006965	7
	42	258	18.60119	3699.434	-21114.73	1	21436.36	-80.06229	-4.223367E-007	0.0007417	7
	43	260	15.02404	4094.382	-25812.33	1	26135.04	-80.98677	-3.999778E-007	0.0005409	7
	44	262	12.01923	4648.167	-31865.86	1	32203.08	-81.70098	-4.089015E-007	0.0007252	7
	45	265	9.450605	5224.615	-40192	1	40530.15	-82.59357	-4.134788E-007	0.0007415	7
	46	268	7.512019	6033.62	-50029.8	1	50392.31	-83.12331	-4.156869E-007	0.0006472	7
	47	271	5.978954	7749.289	-66081.46	1	66534.28	-83.31155	-5.474866E-008	0.0007674	6
	48	275	4.734848	9126.825	-81650.83	1	82159.34	-83.62202	-5.160834E-008	0.0006707	6
	49	279	3.75601	10975.34	-101203.2	1	101796.6	-83.81055	-5.081486E-008	0.0007552	6
	50	284	3.004808	13226.99	-124520.6	1	125221.1	-83.93659	-4.949695E-008	0.0005526	6
	51	292	2.372217	16647.49	-155479.3	1	156368	-83.8885	-4.959512E-008	0.0007236	6
	52	296	1.878005	20506.35	-193994.3	1	195075.1	-83.9659	-4.957777E-008	0.0006374	6
	53	300	1.512097	25596.66	-237468.4	1	238844	-83.84785	-4.957955E-008	0.0006531	6
	54	306	1.201923	32608.36	-296068.9	1	297859.2	-83.7149	-4.950889E-008	0.0006275	6
	55	312	0.956633	41442.84	-368492.7	1	370815.8	-83.58315	-4.976269E-008	1.744738E-005	6
