EXPLAIN
TAG	EISPOT
TITLE	LABEL	Potentiostatic EIS	Test Identifier
DATE	LABEL	8/29/2020	Date
TIME	LABEL	12:16:34	Time
NOTES	NOTES	1	Notes...
	
PSTAT	PSTAT	REF3000-16137	Potentiostat
VDC	POTEN	0.00000E+000	T	DC Voltage (V)
FREQINIT	QUANT	3.00000E+005	Initial Freq. (Hz)
FREQFINAL	QUANT	1.00000E+000	Final Freq. (Hz)
PTSPERDEC	QUANT	1.00000E+001	Points/decade
VAC	QUANT	5.00000E+001	AC Voltage (mV rms)
AREA	QUANT	1.00000E+000	Sample Area (cm^2)
SPEED	SELECTOR	2	Optimize for:
ZGUESS	QUANT	1.00000E+003	Estimated Z (ohms)
EOC	QUANT	0	Open Circuit (V)
SEQUENCER	TOGGLE	TRUE	Run as Sequence
PSTATMODEL	IQUANT	5	Pstat Model
PSTATSECTION	LABEL	REF3000-16137	Pstat Section
PSTATSERIALNO	LABEL	16137	Pstat Serial Number
CTRLMODE	IQUANT	1	Control Mode
IESTAB	IQUANT	0	I/E Stability
CASPEED	IQUANT	1	Control Amp Speed
CONVENTION	IQUANT	1	Current Convention
ICHRANGE	IQUANT	2	Ich Range
ICHRANGEMODE	TOGGLE	F	Ich Auto Range
ICHOFFSETENABLE	TOGGLE	T	Ich Offset Enable
ICHOFFSET	QUANT	0	Ich Offset (V)
ICHFILTER	IQUANT	3	Ich Filter
VCHRANGE	IQUANT	2	Vch Range
VCHRANGEMODE	TOGGLE	F	Vch Auto Range
VCHOFFSETENABLE	TOGGLE	T	Vch Offset Enable
VCHOFFSET	QUANT	0	Vch Offset (V)
VCHFILTER	IQUANT	3	Vch Filter
ACHRANGE	IQUANT	2	Ach Range
ACHOFFSETENABLE	TOGGLE	F	Ach Offset Enable
ACHOFFSET	QUANT	0	Ach Offset (V)
ACHFILTER	IQUANT	3	Ach Filter
IERANGELOWERLIMIT	IQUANT	2	I/E Range Lower Limit
IERANGEMODE	TOGGLE	F	I/E AutoRange
IERANGE	IQUANT	11	I/E Range
POSFEEDENABLE	TOGGLE	F	Positive Feedback IR Comp
POSFEEDRESISTANCE	QUANT	0	Positive Feedback Resistance (ohm)
ACHSELECT	IQUANT	0	Ach Select
CABLEID	IQUANT	13	Cable ID
DCCALDATE	LABEL	7/31/2020	DC Calibration Date
ACCALDATE	LABEL	7/31/2020	AC Calibration Date
THERMOSELECT	IQUANT	1	Thermo Select
FRAMEWORKVERSION	QUANT	6.33	Framework Version
INSTRUMENTVERSION	LABEL	3.50	Instrument Version
COMPLIANCEVOLTAGE	IQUANT	0	Compliance Voltage
ZCURVE	TABLE
	Pt	Time	Freq	Zreal	Zimag	Zsig	Zmod	Zphz	Idc	Vdc	IERange
	#	s	Hz	ohm	ohm	V	ohm	°	A	V	#
	0	16	300046.9	355.9639	-52.94071	1	359.8792	-8.459304	0.0008932	-0.0013493	10
	1	30	238359.4	373.4203	-19.77002	1	373.9432	-3.030585	0.0007289	-0.0228548	9
	2	43	189328.1	373.7972	-19.87894	1	374.3254	-3.044184	0.0002186	0.0086243	9
	3	52	150421.9	380.3801	-37.52058	1	382.2262	-5.633415	0.000819	-0.0010523	10
	4	61	119484.4	382.2479	-22.47289	1	382.908	-3.364626	-0.0007538	0.0274857	9
	5	68	94921.88	388.239	-20.32393	1	388.7707	-2.996642	-0.0002706	0.0069638	9
	6	76	75421.88	391.2637	-31.74693	1	392.5496	-4.638787	-0.0001856	0.0020751	10
	7	81	59859.37	396.2083	-24.13336	1	396.9426	-3.485625	-0.0002472	0.0101146	9
	8	86	47578.12	400.4662	-29.21275	1	401.5302	-4.172157	0.0001416	0.0018463	9
	9	92	37828.12	404.0805	-32.28358	1	405.3681	-4.567883	-0.0002688	0.0069049	9
	10	99	30046.88	412.3866	-37.49556	1	414.0877	-5.195239	-0.000132	0.0098206	9
	11	107	23859.38	417.185	-44.93172	1	419.5977	-6.147183	0.0002184	-0.0016758	9
	12	112	18984.38	424.7583	-52.4524	1	427.9846	-7.039682	4.967381E-005	0.0052996	9
	13	117	15046.87	430.7826	-62.11268	1	435.2375	-8.204685	0.0001897	-0.0100791	9
	14	123	11953.13	439.4077	-72.54973	1	445.3567	-9.375409	0.0001918	-0.0102389	9
	15	128	9515.62	449.1822	-84.76805	1	457.1107	-10.68697	-0.0002106	0.0018481	9
	16	133	7546.875	461.1046	-100.2802	1	471.883	-12.26953	-4.941645E-005	0.0081723	9
	17	139	5928.309	471.5995	-119.9759	1	486.6213	-14.27338	-5.702656E-005	-0.0047502	9
	18	144	4733.456	484.229	-135.3416	1	502.7873	-15.61563	0.0002855	-0.0073758	9
	19	149	3796.875	499.0236	-156.9389	1	523.1198	-17.45794	-0.0002732	0.0089712	9
	20	155	2987.132	509.435	-183.998	1	541.645	-19.85873	-0.0002109	0.0018308	9
	21	160	2390.625	532.6447	-215.3078	1	574.5153	-22.00974	-5.722536E-005	-0.0047259	9
	22	165	1884.191	539.0771	-250.6669	1	594.5066	-24.93808	0.00022	-0.0017121	9
	23	171	1516.544	561.7071	-299.4243	1	636.5295	-28.06035	-4.460398E-005	0.0080953	9
	24	176	1193.986	583.4	-362.9388	1	687.0809	-31.88614	-0.0000982	0.0402046	8
	25	181	946.5144	568.771	-451.7117	1	726.3221	-38.45621	0.000143	0.0019887	9
	26	185	751.7689	611.4408	-532.911	1	811.082	-41.0743	0.0002789	-0.0092345	9
	27	190	597.4265	617.9412	-649.5851	1	896.5557	-46.4301	5.076103E-005	0.0053634	9
	28	194	477.4305	656.9895	-802.2241	1	1036.918	-50.68389	-8.608446E-007	0.000581	8
	29	197	376.6741	678.7071	-990.751	1	1200.929	-55.58717	-9.387807E-007	0.000678	8
	30	199	298.2954	704.9836	-1225.726	1	1414.004	-60.09439	-8.053887E-007	0.0006469	8
	31	201	237.7717	731.8828	-1510.135	1	1678.142	-64.14298	-8.994759E-007	0.0007232	8
	32	204	189.0121	765.3047	-1869.301	1	2019.895	-67.73547	-8.749681E-007	0.0006813	8
	33	206	150.2404	778.4828	-2316.29	1	2443.611	-71.423	-8.351378E-007	0.0005734	8
	34	209	119.1737	843.2556	-2871.833	1	2993.076	-73.63619	-7.772296E-007	0.0006494	8
	35	211	95.0169	900.4139	-3563.85	1	3675.837	-75.82084	-8.135643E-007	0.0005755	8
	36	214	75.60484	1021.52	-4629.546	1	4740.907	-77.55695	-2.429744E-007	0.0005263	7
	37	216	54.50582	1122.935	-6235.419	1	6335.727	-79.79105	-2.057413E-007	0.0006247	7
	38	219	45.95588	1194.115	-7327.866	1	7424.522	-80.7447	-1.819793E-007	0.0005297	7
	39	221	37.20238	1308.051	-8942.875	1	9038.031	-81.6785	-1.946187E-007	0.0007143	7
	40	223	30.04808	1475.975	-10986.06	1	11084.77	-82.34814	-1.720819E-007	0.0006517	7
	41	226	23.91582	1647.607	-13635.3	1	13734.48	-83.11013	-1.849698E-007	0.0007106	7
	42	228	18.60119	1956.715	-17347.86	1	17457.86	-83.56464	-1.785529E-007	0.0006187	7
	43	230	15.02404	2289.153	-21291.1	1	21413.8	-83.86331	-1.783797E-007	0.0005366	7
	44	233	12.01923	2705.869	-26377.54	1	26515.96	-84.14295	-1.801747E-007	0.0006177	7
	45	235	9.450605	3380.268	-33195.97	1	33367.63	-84.18575	-1.886044E-007	0.0006762	7
	46	238	7.512019	4162.418	-41320.83	1	41529.95	-84.24776	-1.747768E-007	0.0006119	7
	47	241	5.978954	5476.001	-52722.12	1	53005.75	-84.07021	-2.611158E-008	0.000571	6
	48	246	4.734848	6848.23	-65174.29	1	65533.1	-84.00162	-2.473247E-008	0.0007436	6
	49	249	3.75601	8666.502	-80694.07	1	81158.13	-83.86996	-2.149836E-008	0.0006532	6
	50	255	3.004808	11036.33	-99285.1	1	99896.6	-83.65716	-2.012144E-008	0.0007159	6
	51	261	2.372217	14549.58	-123764.7	1	124617	-83.29517	-2.077125E-008	0.0007202	6
	52	265	1.878005	18865.56	-154207.7	1	155357.4	-83.02517	-2.125465E-008	0.0006435	6
	53	270	1.512097	24248.16	-188157.7	1	189713.7	-82.65668	-1.985406E-008	0.0006352	6
	54	275	1.201923	31882.13	-233191.4	1	235360.7	-82.21474	-2.067666E-008	0.0006401	6
	55	282	0.956633	42505.89	-288237.3	1	291354.6	-81.61115	-2.107762E-008	2.065959E-005	6
