EXPLAIN
TAG	EISPOT
TITLE	LABEL	Potentiostatic EIS	Test Identifier
DATE	LABEL	8/29/2020	Date
TIME	LABEL	12:07:38	Time
NOTES	NOTES	1	Notes...
	
PSTAT	PSTAT	REF3000-16137	Potentiostat
VDC	POTEN	0.00000E+000	T	DC Voltage (V)
FREQINIT	QUANT	3.00000E+005	Initial Freq. (Hz)
FREQFINAL	QUANT	1.00000E+000	Final Freq. (Hz)
PTSPERDEC	QUANT	1.00000E+001	Points/decade
VAC	QUANT	5.00000E+001	AC Voltage (mV rms)
AREA	QUANT	1.00000E+000	Sample Area (cm^2)
SPEED	SELECTOR	2	Optimize for:
ZGUESS	QUANT	1.00000E+003	Estimated Z (ohms)
EOC	QUANT	0	Open Circuit (V)
SEQUENCER	TOGGLE	TRUE	Run as Sequence
PSTATMODEL	IQUANT	5	Pstat Model
PSTATSECTION	LABEL	REF3000-16137	Pstat Section
PSTATSERIALNO	LABEL	16137	Pstat Serial Number
CTRLMODE	IQUANT	1	Control Mode
IESTAB	IQUANT	0	I/E Stability
CASPEED	IQUANT	1	Control Amp Speed
CONVENTION	IQUANT	1	Current Convention
ICHRANGE	IQUANT	2	Ich Range
ICHRANGEMODE	TOGGLE	F	Ich Auto Range
ICHOFFSETENABLE	TOGGLE	T	Ich Offset Enable
ICHOFFSET	QUANT	0	Ich Offset (V)
ICHFILTER	IQUANT	3	Ich Filter
VCHRANGE	IQUANT	2	Vch Range
VCHRANGEMODE	TOGGLE	F	Vch Auto Range
VCHOFFSETENABLE	TOGGLE	T	Vch Offset Enable
VCHOFFSET	QUANT	0	Vch Offset (V)
VCHFILTER	IQUANT	3	Vch Filter
ACHRANGE	IQUANT	2	Ach Range
ACHOFFSETENABLE	TOGGLE	F	Ach Offset Enable
ACHOFFSET	QUANT	0	Ach Offset (V)
ACHFILTER	IQUANT	3	Ach Filter
IERANGELOWERLIMIT	IQUANT	2	I/E Range Lower Limit
IERANGEMODE	TOGGLE	F	I/E AutoRange
IERANGE	IQUANT	11	I/E Range
POSFEEDENABLE	TOGGLE	F	Positive Feedback IR Comp
POSFEEDRESISTANCE	QUANT	0	Positive Feedback Resistance (ohm)
ACHSELECT	IQUANT	0	Ach Select
CABLEID	IQUANT	13	Cable ID
DCCALDATE	LABEL	7/31/2020	DC Calibration Date
ACCALDATE	LABEL	7/31/2020	AC Calibration Date
THERMOSELECT	IQUANT	1	Thermo Select
FRAMEWORKVERSION	QUANT	6.33	Framework Version
INSTRUMENTVERSION	LABEL	3.50	Instrument Version
COMPLIANCEVOLTAGE	IQUANT	0	Compliance Voltage
ZCURVE	TABLE
	Pt	Time	Freq	Zreal	Zimag	Zsig	Zmod	Zphz	Idc	Vdc	IERange
	#	s	Hz	ohm	ohm	V	ohm	°	A	V	#
	0	16	300046.9	214.849	2.167228	1	214.8599	0.5779353	0.0005496	-0.0275412	9
	1	26	238359.4	208.9643	-2.424465	1	208.9784	-0.6647326	-6.518201E-005	0.0143475	9
	2	34	189328.1	209.0417	-4.776279	1	209.0962	-1.308892	8.34737E-005	0.0115057	9
	3	41	150421.9	210.5186	-7.725316	1	210.6603	-2.101617	0.000395	0.0004186	9
	4	47	119484.4	211.9268	-9.073053	1	212.1209	-2.451462	0.0006905	-0.0214719	9
	5	53	94921.88	214.1056	-10.56464	1	214.3661	-2.824862	-0.0002567	0.0067309	9
	6	60	75421.88	215.0303	-13.83864	1	215.4751	-3.682288	0.0001427	0.0013061	9
	7	63	59859.37	217.0789	-17.50059	1	217.7832	-4.609137	5.598816E-005	0.0045771	9
	8	66	47578.12	219.2382	-20.292	1	220.1752	-5.288052	-0.0001423	-0.0010143	9
	9	71	37828.12	221.9373	-24.57401	1	223.2936	-6.318339	-0.0001798	0.0097797	9
	10	74	30046.88	225.4768	-29.37309	1	227.382	-7.42218	5.719245E-005	0.0046277	9
	11	77	23859.38	229.048	-34.43127	1	231.6215	-8.548885	-0.0001811	0.0097756	9
	12	81	18984.38	232.6174	-41.08686	1	236.2181	-10.01675	-0.0002559	0.0085047	9
	13	85	15046.87	236.9384	-48.46073	1	241.8435	-11.55921	-5.866136E-005	-0.0042138	9
	14	90	11953.13	243.6646	-57.40293	1	250.3349	-13.25613	-0.0002508	0.0019884	10
	15	95	9515.62	249.5607	-66.14624	1	258.178	-14.84494	2.285335E-005	-0.0067018	9
	16	99	7546.875	255.9823	-77.76373	1	267.5334	-16.89802	-0.000114	0.0090097	9
	17	104	5928.309	262.7151	-90.5358	1	277.8776	-19.01476	5.620506E-005	0.0046766	9
	18	109	4733.456	271.9025	-106.9085	1	292.165	-21.46411	-0.0002642	0.0007979	10
	19	115	3796.875	278.9899	-124.8592	1	305.6553	-24.11043	-0.0002318	0.0096317	9
	20	119	2987.132	286.5674	-148.9317	1	322.9575	-27.46132	-3.271315E-005	0.0073246	9
	21	125	2390.625	296.0067	-175.9391	1	344.3466	-30.72621	0.0002126	-0.0019481	9
	22	130	1884.191	306.5093	-211.6062	1	372.4583	-34.62021	-0.0002585	0.0068166	9
	23	135	1516.544	310.5956	-255.1545	1	401.9619	-39.40313	-0.0002584	0.0068154	9
	24	140	1193.986	321.1868	-312.566	1	448.1724	-44.22066	-0.0001422	-0.001056	9
	25	146	946.5144	328.2591	-383.1086	1	504.506	-49.40903	0.0002622	-0.0087834	9
	26	150	751.7689	335.1801	-467.042	1	574.8686	-54.33429	0.0001053	-0.0085876	9
	27	154	597.4265	349.3257	-565.3873	1	664.5985	-58.29007	-6.113327E-005	-0.0042066	9
	28	157	477.4305	365.1634	-711.1437	1	799.4183	-62.82007	-5.006578E-007	0.0007056	8
	29	160	376.6741	379.3981	-887.4514	1	965.149	-66.8526	-4.125221E-007	0.0006121	8
	30	162	298.2954	395.6602	-1105.497	1	1174.168	-70.30759	-4.005774E-007	0.000601	8
	31	164	237.7717	413.4775	-1369.373	1	1430.436	-73.19849	-5.052498E-007	0.0007152	8
	32	167	189.0121	435.5346	-1704.015	1	1758.794	-75.66254	-5.225839E-007	0.0006843	8
	33	169	150.2404	463.3668	-2122.485	1	2172.476	-77.68479	-4.269998E-007	0.0005925	8
	34	171	119.1737	497.5824	-2651.935	1	2698.211	-79.37315	-4.176126E-007	0.0005947	8
	35	174	95.0169	538.8552	-3298.104	1	3341.834	-80.72081	-5.087875E-007	0.0006684	8
	36	176	75.60484	591.9561	-4111.703	1	4154.096	-81.8075	-3.921213E-007	0.0006348	8
	37	179	54.50582	714.774	-5699.389	1	5744.035	-82.85172	-7.794457E-008	0.0005668	7
	38	181	45.95588	795.2016	-6704.335	1	6751.33	-83.23575	-7.117829E-008	0.0005741	7
	39	184	37.20238	919.2606	-8226.22	1	8277.423	-83.62379	-7.532427E-008	0.0005523	7
	40	186	30.04808	1074.008	-10084.7	1	10141.73	-83.92099	-7.861957E-008	0.0006089	7
	41	189	23.91582	1298.923	-12590.6	1	12657.42	-84.10986	-7.74064E-008	0.0006311	7
	42	191	18.60119	1617.427	-15955.55	1	16037.32	-84.21165	-7.532773E-008	0.0005644	7
	43	193	15.02404	2002.631	-19567.62	1	19669.83	-84.15646	-8.188784E-008	0.0007111	7
	44	196	12.01923	2516.725	-24200.81	1	24331.32	-84.06296	-8.231885E-008	0.0007032	7
	45	198	9.450605	3219.907	-30407.55	1	30577.56	-83.95538	-8.593115E-008	0.0006256	7
	46	201	7.512019	4140.249	-37756.12	1	37982.45	-83.74208	-8.416963E-008	0.0006998	7
	47	204	5.978954	5469.629	-46945.87	1	47263.43	-83.35447	-8.933737E-009	0.000717	6
	48	208	4.734848	7115.43	-58408.16	1	58839.97	-83.05431	-8.791806E-009	0.00075	6
	49	212	3.75601	9331.907	-72435.98	1	73034.63	-82.65903	-7.680216E-009	0.0006286	6
	50	218	3.004808	12201.94	-89078.11	1	89909.94	-82.20015	-8.204701E-009	0.0006868	6
	51	224	2.372217	16252.87	-110714	1	111900.6	-81.64861	-9.078406E-009	0.0007258	6
	52	228	1.878005	21927.37	-137116.7	1	138859	-80.91433	-8.937511E-009	0.0006492	6
	53	233	1.512097	28771.21	-166649.6	1	169115	-80.20473	-9.172187E-009	0.0007764	6
	54	238	1.201923	38232.37	-204661.5	1	208201.9	-79.41866	-8.693913E-009	0.0006458	6
	55	244	0.956633	50321.83	-249996	1	255010.4	-78.61899	-9.946561E-009	3.322505E-005	6
