EXPLAIN
TAG	EISPOT
TITLE	LABEL	Potentiostatic EIS	Test Identifier
DATE	LABEL	8/29/2020	Date
TIME	LABEL	14:16:52	Time
NOTES	NOTES	1	Notes...
	
PSTAT	PSTAT	REF3000-16137	Potentiostat
VDC	POTEN	0.00000E+000	T	DC Voltage (V)
FREQINIT	QUANT	3.00000E+005	Initial Freq. (Hz)
FREQFINAL	QUANT	1.00000E+000	Final Freq. (Hz)
PTSPERDEC	QUANT	1.00000E+001	Points/decade
VAC	QUANT	5.00000E+001	AC Voltage (mV rms)
AREA	QUANT	1.00000E+000	Sample Area (cm^2)
SPEED	SELECTOR	2	Optimize for:
ZGUESS	QUANT	1.00000E+003	Estimated Z (ohms)
EOC	QUANT	0	Open Circuit (V)
SEQUENCER	TOGGLE	TRUE	Run as Sequence
PSTATMODEL	IQUANT	5	Pstat Model
PSTATSECTION	LABEL	REF3000-16137	Pstat Section
PSTATSERIALNO	LABEL	16137	Pstat Serial Number
CTRLMODE	IQUANT	1	Control Mode
IESTAB	IQUANT	0	I/E Stability
CASPEED	IQUANT	1	Control Amp Speed
CONVENTION	IQUANT	1	Current Convention
ICHRANGE	IQUANT	2	Ich Range
ICHRANGEMODE	TOGGLE	F	Ich Auto Range
ICHOFFSETENABLE	TOGGLE	T	Ich Offset Enable
ICHOFFSET	QUANT	0	Ich Offset (V)
ICHFILTER	IQUANT	3	Ich Filter
VCHRANGE	IQUANT	2	Vch Range
VCHRANGEMODE	TOGGLE	F	Vch Auto Range
VCHOFFSETENABLE	TOGGLE	T	Vch Offset Enable
VCHOFFSET	QUANT	0	Vch Offset (V)
VCHFILTER	IQUANT	3	Vch Filter
ACHRANGE	IQUANT	2	Ach Range
ACHOFFSETENABLE	TOGGLE	F	Ach Offset Enable
ACHOFFSET	QUANT	0	Ach Offset (V)
ACHFILTER	IQUANT	3	Ach Filter
IERANGELOWERLIMIT	IQUANT	2	I/E Range Lower Limit
IERANGEMODE	TOGGLE	F	I/E AutoRange
IERANGE	IQUANT	11	I/E Range
POSFEEDENABLE	TOGGLE	F	Positive Feedback IR Comp
POSFEEDRESISTANCE	QUANT	0	Positive Feedback Resistance (ohm)
ACHSELECT	IQUANT	0	Ach Select
CABLEID	IQUANT	13	Cable ID
DCCALDATE	LABEL	7/31/2020	DC Calibration Date
ACCALDATE	LABEL	7/31/2020	AC Calibration Date
THERMOSELECT	IQUANT	1	Thermo Select
FRAMEWORKVERSION	QUANT	6.33	Framework Version
INSTRUMENTVERSION	LABEL	3.50	Instrument Version
COMPLIANCEVOLTAGE	IQUANT	0	Compliance Voltage
ZCURVE	TABLE
	Pt	Time	Freq	Zreal	Zimag	Zsig	Zmod	Zphz	Idc	Vdc	IERange
	#	s	Hz	ohm	ohm	V	ohm	°	A	V	#
	0	10	300046.9	29.9007	-1.435696	1	29.93514	-2.748973	-0.0006912	0.003723	10
	1	14	238359.4	30.02139	-2.364741	1	30.11437	-4.503806	-0.0006927	0.0037265	10
	2	19	189328.1	30.39364	-3.18314	1	30.55987	-5.978817	-0.0006881	0.0013275	10
	3	25	150421.9	30.72189	-4.071459	1	30.99051	-7.549208	-0.0006991	0.0038364	10
	4	30	119484.4	31.20052	-5.048664	1	31.60635	-9.191559	-0.0004351	0.0047869	10
	5	33	94921.88	31.73281	-6.096607	1	32.31316	-10.87533	0.0001928	-0.0004576	10
	6	36	75421.88	32.36914	-7.256629	1	33.17257	-12.63585	0.0002802	-0.0002471	10
	7	39	59859.37	33.05881	-8.534117	1	34.14258	-14.47486	-0.000287	0.0014816	10
	8	41	47578.12	33.84862	-10.02461	1	35.30187	-16.49718	-0.00021	0.0006165	10
	9	44	37828.12	34.63208	-11.72867	1	36.56423	-18.70943	0.0002689	0.0003442	10
	10	46	30046.88	35.47664	-13.77031	1	38.0554	-21.2138	-4.331983E-005	-0.0001532	10
	11	49	23859.38	36.53761	-15.90717	1	39.85016	-23.52659	1.709451E-005	0.0024938	9
	12	51	18984.38	37.37271	-18.8082	1	41.8386	-26.7143	-6.777679E-005	0.0045184	9
	13	53	15046.87	38.37336	-22.50546	1	44.48607	-30.39106	-2.180466E-005	-0.002061	9
	14	56	11953.13	39.04643	-26.99203	1	47.46782	-34.65535	-0.0001342	0.0028089	9
	15	58	9515.62	39.88333	-32.52033	1	51.46117	-39.19334	-0.0000996	0.0050365	9
	16	60	7546.875	40.67955	-39.77044	1	56.89037	-44.35257	0.000097	-0.0046789	9
	17	63	5928.309	41.51632	-49.21243	1	64.38531	-49.84853	0.0001491	-0.0038471	9
	18	65	4733.456	42.36369	-60.32116	1	73.71109	-54.91954	1.697612E-005	0.0024877	9
	19	67	3796.875	43.3823	-73.93081	1	85.71925	-59.59576	-6.92778E-005	-0.0003811	9
	20	70	2987.132	44.54406	-92.53541	1	102.6985	-64.29508	-2.073656E-005	-0.0021411	9
	21	72	2390.625	46.0885	-114.4274	1	123.3603	-68.06165	-2.226139E-005	-0.0020056	9
	22	75	1884.191	47.52118	-143.2908	1	150.9653	-71.65234	-0.0001288	0.00503	9
	23	77	1516.544	49.22723	-176.9704	1	183.6895	-74.45522	0.0001055	-0.0049369	9
	24	80	1193.986	52.20118	-222.4345	1	228.4777	-76.79276	6.793596E-005	-0.0043923	9
	25	85	946.5144	56.25193	-278.3666	1	283.9934	-78.5756	-6.838136E-005	0.0046152	9
	26	87	751.7689	60.53747	-348.1631	1	353.3869	-80.13621	0.0001473	-0.0046284	9
	27	91	597.4265	67.4586	-432.6836	1	437.9106	-81.1385	-0.0001303	0.0026107	9
	28	95	477.4305	75.26639	-538.385	1	543.6207	-82.04161	6.739945E-007	7.758545E-005	9
	29	97	376.6741	86.90864	-673.2281	1	678.8145	-82.64423	4.381554E-007	0.0006659	8
	30	99	298.2954	102.1326	-842.3064	1	848.4758	-83.08644	4.809389E-007	0.00064	8
	31	102	237.7717	121.9076	-1046.625	1	1053.701	-83.35631	4.537188E-007	0.0006705	8
	32	104	189.0121	149.0178	-1303.351	1	1311.842	-83.47745	4.980962E-007	0.0006447	8
	33	106	150.2404	185.7882	-1621.724	1	1632.331	-83.46456	4.428594E-007	0.0006681	8
	34	109	119.1737	238.2365	-2019.588	1	2033.591	-83.27232	4.829014E-007	0.0006689	8
	35	111	95.0169	303.4504	-2502.557	1	2520.888	-83.08629	4.451976E-007	0.0006653	8
	36	114	75.60484	396.3767	-3102.586	1	3127.804	-82.71951	4.957496E-007	0.0006444	8
	37	116	54.50582	591.17	-4212.206	1	4253.488	-82.01089	4.781638E-007	0.0006671	8
	38	119	45.95588	743.385	-4942.636	1	4998.227	-81.44668	6.295808E-008	0.0005736	7
	39	121	37.20238	976.04	-5998.429	1	6077.319	-80.75806	5.473619E-008	0.0006479	7
	40	124	30.04808	1296.989	-7294.013	1	7408.428	-79.9173	4.41219E-008	0.0006424	7
	41	126	23.91582	1764.373	-8965.924	1	9137.877	-78.86722	4.456832E-008	0.000638	7
	42	128	18.60119	2489.268	-11164.98	1	11439.11	-77.43128	5.467585E-008	0.000625	7
	43	131	15.02404	3331.444	-13441.97	1	13848.65	-76.08035	5.012424E-008	0.0006468	7
	44	133	12.01923	4539.608	-16213.23	1	16836.77	-74.35806	5.468758E-008	0.0006469	7
	45	136	9.450605	6277.062	-19673.94	1	20651.04	-72.30447	5.820234E-008	0.000651	7
	46	138	7.512019	8568.691	-23508.42	1	25021.36	-69.97348	5.451544E-008	0.0006416	7
	47	141	5.978954	11563.1	-27701.18	1	30017.67	-67.34324	5.767818E-008	0.0006157	7
	48	146	4.734848	15456.44	-32378.48	1	35878.51	-64.4817	5.38839E-008	0.0005913	7
	49	149	3.75601	20494.38	-37045.86	1	42336.92	-61.04791	-3.334881E-009	0.0006978	6
	50	155	3.004808	26261.53	-41521.84	1	49129.74	-57.68767	-5.031988E-009	0.0006644	6
	51	161	2.372217	33469.76	-46021.09	1	56904.88	-53.97272	-5.515924E-009	0.0006193	6
	52	165	1.878005	41658.23	-49846.77	1	64962.36	-50.11362	-3.311925E-009	0.0006756	6
	53	170	1.512097	49747.36	-52685.91	1	72461.05	-46.64322	-5.451696E-009	0.0006937	6
	54	175	1.201923	59051.09	-54654.98	1	80462.4	-42.78593	-6.514999E-009	0.0006903	6
	55	181	0.956633	68501.66	-55621.15	1	88239.38	-39.07549	-1.782448E-008	-1.471537E-005	6
