EXPLAIN
TAG	EISPOT
TITLE	LABEL	Potentiostatic EIS	Test Identifier
DATE	LABEL	8/29/2020	Date
TIME	LABEL	12:31:49	Time
NOTES	NOTES	1	Notes...
	
PSTAT	PSTAT	REF3000-16137	Potentiostat
VDC	POTEN	0.00000E+000	T	DC Voltage (V)
FREQINIT	QUANT	3.00000E+005	Initial Freq. (Hz)
FREQFINAL	QUANT	1.00000E+000	Final Freq. (Hz)
PTSPERDEC	QUANT	1.00000E+001	Points/decade
VAC	QUANT	5.00000E+001	AC Voltage (mV rms)
AREA	QUANT	1.00000E+000	Sample Area (cm^2)
SPEED	SELECTOR	2	Optimize for:
ZGUESS	QUANT	1.00000E+003	Estimated Z (ohms)
EOC	QUANT	0	Open Circuit (V)
SEQUENCER	TOGGLE	TRUE	Run as Sequence
PSTATMODEL	IQUANT	5	Pstat Model
PSTATSECTION	LABEL	REF3000-16137	Pstat Section
PSTATSERIALNO	LABEL	16137	Pstat Serial Number
CTRLMODE	IQUANT	1	Control Mode
IESTAB	IQUANT	0	I/E Stability
CASPEED	IQUANT	1	Control Amp Speed
CONVENTION	IQUANT	1	Current Convention
ICHRANGE	IQUANT	2	Ich Range
ICHRANGEMODE	TOGGLE	F	Ich Auto Range
ICHOFFSETENABLE	TOGGLE	T	Ich Offset Enable
ICHOFFSET	QUANT	0	Ich Offset (V)
ICHFILTER	IQUANT	3	Ich Filter
VCHRANGE	IQUANT	2	Vch Range
VCHRANGEMODE	TOGGLE	F	Vch Auto Range
VCHOFFSETENABLE	TOGGLE	T	Vch Offset Enable
VCHOFFSET	QUANT	0	Vch Offset (V)
VCHFILTER	IQUANT	3	Vch Filter
ACHRANGE	IQUANT	2	Ach Range
ACHOFFSETENABLE	TOGGLE	F	Ach Offset Enable
ACHOFFSET	QUANT	0	Ach Offset (V)
ACHFILTER	IQUANT	3	Ach Filter
IERANGELOWERLIMIT	IQUANT	2	I/E Range Lower Limit
IERANGEMODE	TOGGLE	F	I/E AutoRange
IERANGE	IQUANT	11	I/E Range
POSFEEDENABLE	TOGGLE	F	Positive Feedback IR Comp
POSFEEDRESISTANCE	QUANT	0	Positive Feedback Resistance (ohm)
ACHSELECT	IQUANT	0	Ach Select
CABLEID	IQUANT	13	Cable ID
DCCALDATE	LABEL	7/31/2020	DC Calibration Date
ACCALDATE	LABEL	7/31/2020	AC Calibration Date
THERMOSELECT	IQUANT	1	Thermo Select
FRAMEWORKVERSION	QUANT	6.33	Framework Version
INSTRUMENTVERSION	LABEL	3.50	Instrument Version
COMPLIANCEVOLTAGE	IQUANT	0	Compliance Voltage
ZCURVE	TABLE
	Pt	Time	Freq	Zreal	Zimag	Zsig	Zmod	Zphz	Idc	Vdc	IERange
	#	s	Hz	ohm	ohm	V	ohm	°	A	V	#
	0	16	300046.9	1191.006	-491.6547	1	1288.495	-22.43113	-0.0004922	0.0320041	9
	1	31	238359.4	1237.574	-426.4769	1	1308.997	-19.01431	5.037461E-005	0.014795	9
	2	47	189328.1	1331.689	-408.8929	1	1393.05	-17.06902	0.0001684	-0.018492	9
	3	55	150421.9	1383.538	-382.6181	1	1435.47	-15.45881	0.0004057	0.0027385	9
	4	64	119484.4	1447.427	-293.4986	1	1476.884	-11.4626	-0.000132	-0.0126708	9
	5	71	94921.88	1621.699	172.2133	1	1630.818	6.061699	-0.0001282	0.0460338	8
	6	81	75421.88	1519.568	-232.3978	1	1537.237	-8.695252	0.0002807	-0.0051676	9
	7	91	59859.37	1580.401	-196.5441	1	1592.575	-7.089103	0.0001336	-0.0100705	9
	8	101	47578.12	1598.967	-180.0463	1	1609.072	-6.424536	-0.0002143	0.0014878	9
	9	109	37828.12	1649.232	-168.0519	1	1657.772	-5.818189	-0.0002175	0.0111466	9
	10	118	30046.88	1664.56	-146.1895	1	1670.968	-5.019106	-5.737627E-005	0.0087875	9
	11	126	23859.38	1733.142	-47.55744	1	1733.794	-1.571803	0.0001209	-0.0531316	8
	12	132	18984.38	1718.272	-145.0591	1	1724.384	-4.825552	-0.0002886	0.0070266	9
	13	140	15046.87	1760.98	-137.4826	1	1766.339	-4.464119	-5.172718E-005	-0.0052704	9
	14	146	11953.13	1794.718	-105.8782	1	1797.838	-3.376215	0.0001234	-0.0531658	8
	15	151	9515.62	1833.11	-120.3374	1	1837.056	-3.755882	0.0001164	-0.0043401	8
	16	155	7546.875	1852.244	-158.4996	1	1859.013	-4.89098	0.0001485	-0.0386324	8
	17	159	5928.309	1876.264	-195.5746	1	1886.429	-5.950805	0.0001153	-0.0041799	8
	18	163	4733.456	1830.446	-250.832	1	1847.553	-7.802829	0.0002949	-0.0095437	9
	19	171	3796.875	1967.372	-286.7669	1	1988.162	-8.293108	-0.0002166	0.0111275	9
	20	178	2987.132	1999.651	-328.435	1	2026.443	-9.327333	-0.0002187	0.0111977	9
	21	184	2390.625	2104.178	-199.8481	1	2113.647	-5.425495	-0.0002958	0.0094746	9
	22	190	1884.191	2051.56	-467.0294	1	2104.048	-12.8246	0.000266	-0.0107233	9
	23	197	1516.544	2212.726	-531.2201	1	2275.599	-13.49979	0.0001394	-0.0490594	8
	24	203	1193.986	2254.669	-623.4463	1	2339.277	-15.45684	0.0002811	-0.0050606	9
	25	210	946.5144	2372.661	-908.4341	1	2540.624	-20.95063	0.0001347	-0.0100445	9
	26	216	751.7689	2541.027	-764.7385	1	2653.61	-16.74951	-0.0002681	0.0107344	9
	27	221	597.4265	2486.482	-1147.332	1	2738.423	-24.76992	-4.952055E-005	-0.0054412	9
	28	227	477.4305	2597.786	-1164.403	1	2846.809	-24.1433	-1.835819E-006	0.0006917	8
	29	231	376.6741	2671.573	-1380.714	1	3007.271	-27.33069	-1.74353E-006	0.0005812	8
	30	233	298.2954	2729.655	-1660.638	1	3195.111	-31.31504	-1.576215E-006	0.0006121	8
	31	235	237.7717	2809.347	-2006.173	1	3452.125	-35.53088	-1.701532E-006	0.0005462	8
	32	238	189.0121	2879.88	-2431.889	1	3769.323	-40.17913	-1.698513E-006	0.0006072	8
	33	241	150.2404	2982.355	-3076.453	1	4284.74	-45.88977	-1.660695E-006	0.0006356	8
	34	244	119.1737	3846.749	-4545.732	1	5954.927	-49.76099	-5.97628E-007	0.0005267	7
	35	246	95.0169	3946.861	-5566.549	1	6823.795	-54.66214	-5.926219E-007	0.0004881	7
	36	248	75.60484	4082.741	-6838.63	1	7964.649	-59.16231	-5.741088E-007	0.0005194	7
	37	251	54.50582	4308.97	-9207.86	1	10166.21	-64.92198	-5.738887E-007	0.0006969	7
	38	254	45.95588	4482.121	-10757.74	1	11654.11	-67.38136	-5.724577E-007	0.0007044	7
	39	256	37.20238	4703.57	-13070.61	1	13891.17	-70.20831	-5.606762E-007	0.000653	7
	40	258	30.04808	4990.283	-15958.89	1	16720.92	-72.63574	-5.587536E-007	0.000495	7
	41	261	23.91582	5370.824	-19763.41	1	20480.19	-74.79669	-5.670177E-007	0.0007018	7
	42	264	18.60119	5896.759	-24970.2	1	25657.02	-76.71292	-5.688605E-007	0.0006458	7
	43	266	15.02404	6466.884	-30546.59	1	31223.63	-78.04666	-5.789865E-007	0.0007368	7
	44	268	12.01923	7297.096	-37556.08	1	38258.42	-79.00451	-5.666391E-007	0.0004995	7
	45	271	9.450605	7979.453	-47209.04	1	47878.65	-80.40633	-5.621951E-007	0.0005084	7
	46	274	7.512019	9175.008	-58586.15	1	59300.23	-81.09937	-5.604753E-007	0.000592	7
	47	277	5.978954	11121.32	-76251.23	1	77057.99	-81.70186	-6.535465E-008	0.0006905	6
	48	281	4.734848	12810.34	-94900.07	1	95760.8	-82.31225	-6.576247E-008	0.0007593	6
	49	285	3.75601	14938.99	-117964.7	1	118906.9	-82.78252	-6.556764E-008	0.000744	6
	50	290	3.004808	17566.13	-145845.9	1	146900	-83.1322	-6.484716E-008	0.0008045	6
	51	297	2.372217	20961.78	-182418.9	1	183619.3	-83.44489	-6.586045E-008	0.0007291	6
	52	301	1.878005	25378.38	-228089.9	1	229497.4	-83.65111	-6.609881E-008	0.0006228	6
	53	306	1.512097	31095.79	-281414.2	1	283127	-83.6945	-6.533158E-008	0.000737	6
	54	311	1.201923	36709.02	-348828.4	1	350754.6	-83.99258	-6.646622E-008	0.0006228	6
	55	317	0.956633	46990.83	-434948.6	1	437479.6	-83.83382	-6.693159E-008	1.168317E-005	6
