EXPLAIN
TAG	EISPOT
TITLE	LABEL	Potentiostatic EIS	Test Identifier
DATE	LABEL	8/29/2020	Date
TIME	LABEL	14:20:04	Time
NOTES	NOTES	1	Notes...
	
PSTAT	PSTAT	REF3000-16137	Potentiostat
VDC	POTEN	0.00000E+000	T	DC Voltage (V)
FREQINIT	QUANT	3.00000E+005	Initial Freq. (Hz)
FREQFINAL	QUANT	1.00000E+000	Final Freq. (Hz)
PTSPERDEC	QUANT	1.00000E+001	Points/decade
VAC	QUANT	5.00000E+001	AC Voltage (mV rms)
AREA	QUANT	1.00000E+000	Sample Area (cm^2)
SPEED	SELECTOR	2	Optimize for:
ZGUESS	QUANT	1.00000E+003	Estimated Z (ohms)
EOC	QUANT	0	Open Circuit (V)
SEQUENCER	TOGGLE	TRUE	Run as Sequence
PSTATMODEL	IQUANT	5	Pstat Model
PSTATSECTION	LABEL	REF3000-16137	Pstat Section
PSTATSERIALNO	LABEL	16137	Pstat Serial Number
CTRLMODE	IQUANT	1	Control Mode
IESTAB	IQUANT	0	I/E Stability
CASPEED	IQUANT	1	Control Amp Speed
CONVENTION	IQUANT	1	Current Convention
ICHRANGE	IQUANT	2	Ich Range
ICHRANGEMODE	TOGGLE	F	Ich Auto Range
ICHOFFSETENABLE	TOGGLE	T	Ich Offset Enable
ICHOFFSET	QUANT	0	Ich Offset (V)
ICHFILTER	IQUANT	3	Ich Filter
VCHRANGE	IQUANT	2	Vch Range
VCHRANGEMODE	TOGGLE	F	Vch Auto Range
VCHOFFSETENABLE	TOGGLE	T	Vch Offset Enable
VCHOFFSET	QUANT	0	Vch Offset (V)
VCHFILTER	IQUANT	3	Vch Filter
ACHRANGE	IQUANT	2	Ach Range
ACHOFFSETENABLE	TOGGLE	F	Ach Offset Enable
ACHOFFSET	QUANT	0	Ach Offset (V)
ACHFILTER	IQUANT	3	Ach Filter
IERANGELOWERLIMIT	IQUANT	2	I/E Range Lower Limit
IERANGEMODE	TOGGLE	F	I/E AutoRange
IERANGE	IQUANT	11	I/E Range
POSFEEDENABLE	TOGGLE	F	Positive Feedback IR Comp
POSFEEDRESISTANCE	QUANT	0	Positive Feedback Resistance (ohm)
ACHSELECT	IQUANT	0	Ach Select
CABLEID	IQUANT	13	Cable ID
DCCALDATE	LABEL	7/31/2020	DC Calibration Date
ACCALDATE	LABEL	7/31/2020	AC Calibration Date
THERMOSELECT	IQUANT	1	Thermo Select
FRAMEWORKVERSION	QUANT	6.33	Framework Version
INSTRUMENTVERSION	LABEL	3.50	Instrument Version
COMPLIANCEVOLTAGE	IQUANT	0	Compliance Voltage
ZCURVE	TABLE
	Pt	Time	Freq	Zreal	Zimag	Zsig	Zmod	Zphz	Idc	Vdc	IERange
	#	s	Hz	ohm	ohm	V	ohm	°	A	V	#
	0	7	300046.9	29.6349	-2.116118	1	29.71035	-4.084348	-0.0008096	0.0003132	11
	1	11	238359.4	30.02491	-2.37237	1	30.11849	-4.517747	-0.0008003	0.0033439	10
	2	15	189328.1	30.32862	-3.214757	1	30.49853	-6.050613	-0.0001317	-0.0010751	10
	3	20	150421.9	30.76492	-3.997648	1	31.02357	-7.403629	-0.0001405	-0.0010089	10
	4	25	119484.4	31.16799	-5.094767	1	31.58164	-9.283553	2.443961E-005	0.0023777	10
	5	29	94921.88	31.71197	-6.084047	1	32.29031	-10.86042	0.0002546	-0.000375	10
	6	32	75421.88	32.35366	-7.269875	1	33.16037	-12.66404	-0.0001376	0.0002314	10
	7	34	59859.37	33.0413	-8.564077	1	34.13313	-14.5309	-0.0002607	0.001087	10
	8	37	47578.12	33.79803	-10.05503	1	35.26203	-16.56793	-0.000281	0.0012104	10
	9	39	37828.12	34.74361	-11.71118	1	36.6643	-18.62765	-0.0001209	0.0017662	10
	10	42	30046.88	35.50319	-13.77406	1	38.08151	-21.20461	-0.0002762	0.0011546	10
	11	44	23859.38	36.43488	-16.08012	1	39.82551	-23.81372	-0.000277	0.0011139	10
	12	47	18984.38	37.27558	-19.06167	1	41.86665	-27.08391	-0.0001471	0.0002478	10
	13	49	15046.87	38.24564	-22.36329	1	44.30402	-30.31601	-7.066125E-005	0.0046029	9
	14	51	11953.13	38.99451	-26.84779	1	47.34317	-34.54748	0.0001493	-0.0050058	9
	15	54	9515.62	39.80881	-32.66509	1	51.49514	-39.37057	-0.0000992	0.0048548	9
	16	56	7546.875	40.7196	-39.73433	1	56.89378	-44.29837	1.762903E-005	0.002556	9
	17	58	5928.309	41.47161	-49.26545	1	64.39704	-49.90936	-0.0001038	0.005033	9
	18	61	4733.456	42.39074	-60.45714	1	73.83794	-54.96301	-0.0001052	0.0051204	9
	19	63	3796.875	43.17043	-74.33589	1	85.96227	-59.85421	0.0001487	-0.0045566	9
	20	65	2987.132	44.20179	-92.88475	1	102.8658	-64.55126	-0.0001403	0.0045143	9
	21	68	2390.625	46.04716	-114.5669	1	123.4744	-68.10364	-0.0001033	0.0011172	9
	22	71	1884.191	47.60045	-144.0671	1	151.7272	-71.71621	1.74771E-005	0.0024755	9
	23	74	1516.544	49.22705	-177.2201	1	183.93	-74.47611	0.0001347	-0.0025182	9
	24	76	1193.986	52.4686	-223.0414	1	229.1297	-76.76234	2.535664E-005	-0.0034509	9
	25	80	946.5144	54.0914	-279.9604	1	285.1381	-79.06458	-6.505393E-005	-0.0005733	9
	26	83	751.7689	58.41576	-348.8296	1	353.687	-80.49333	1.818495E-005	0.0024597	9
	27	87	597.4265	68.77541	-436.4807	1	441.8658	-81.04564	0.0001055	-0.0049407	9
	28	90	477.4305	75.03917	-539.5367	1	544.73	-82.08205	6.803699E-007	8.664773E-005	9
	29	93	376.6741	86.59957	-674.7568	1	680.2913	-82.68653	4.940191E-007	0.0006617	8
	30	96	298.2954	101.6427	-844.2106	1	850.3074	-83.13465	4.920231E-007	0.0006455	8
	31	98	237.7717	121.3126	-1049.21	1	1056.2	-83.40459	4.902058E-007	0.0006482	8
	32	101	189.0121	148.138	-1306.547	1	1314.919	-83.53136	4.865347E-007	0.0006502	8
	33	103	150.2404	184.6179	-1625.981	1	1636.428	-83.52223	4.808902E-007	0.0006707	8
	34	105	119.1737	234.9481	-2024.165	1	2037.755	-83.37921	4.723846E-007	0.0006759	8
	35	108	95.0169	302.4373	-2509.469	1	2527.628	-83.12794	4.983686E-007	0.0006466	8
	36	110	75.60484	394.5216	-3113.006	1	3137.906	-82.77722	4.882291E-007	0.0006718	8
	37	113	54.50582	589.1163	-4223.24	1	4264.131	-82.05883	4.967141E-007	0.000659	8
	38	115	45.95588	739.8544	-4962.097	1	5016.95	-81.51961	5.416243E-008	0.000651	7
	39	118	37.20238	974.801	-6027.235	1	6105.555	-80.81296	5.635631E-008	0.0006254	7
	40	120	30.04808	1289.75	-7311.083	1	7423.975	-79.99537	4.386795E-008	0.0006124	7
	41	122	23.91582	1763.895	-8972.601	1	9144.336	-78.87823	4.037754E-008	0.0006413	7
	42	125	18.60119	2470.203	-11230.49	1	11498.95	-77.59504	6.151203E-008	0.0006191	7
	43	127	15.02404	3331.448	-13506.4	1	13911.2	-76.14417	5.975155E-008	0.0006554	7
	44	130	12.01923	4533.433	-16292.38	1	16911.35	-74.45052	5.057803E-008	0.0006532	7
	45	132	9.450605	6326.153	-19814.21	1	20799.59	-72.29309	5.954809E-008	0.0006481	7
	46	135	7.512019	8566.979	-23635.44	1	25140.15	-70.07628	5.780311E-008	0.000634	7
	47	138	5.978954	11573.6	-27870.47	1	30177.99	-67.44865	4.95988E-008	0.0006519	7
	48	142	4.734848	15516.15	-32557.37	1	36065.68	-64.51852	5.738068E-008	0.0006783	7
	49	145	3.75601	20550.59	-37323.05	1	42606.77	-61.16221	-7.289756E-009	0.0006528	6
	50	151	3.004808	26373.69	-41852.41	1	49469.14	-57.78254	-7.632305E-009	0.0006773	6
	51	157	2.372217	33647.33	-46414.77	1	57327.78	-54.06063	-8.063423E-009	0.0007402	6
	52	161	1.878005	41873.34	-50424.21	1	65543.71	-50.29304	-1.262972E-008	0.0006588	6
	53	166	1.512097	50066.36	-53332.13	1	73150.23	-46.80904	-1.162598E-008	0.0006566	6
	54	171	1.201923	59419.05	-55285.99	1	81161.35	-42.93641	-1.171585E-008	0.0006444	6
	55	178	0.956633	68896.01	-55993.86	1	88780.47	-39.1018	-1.737228E-008	3.278046E-005	6
