EXPLAIN
TAG	EISPOT
TITLE	LABEL	Potentiostatic EIS	Test Identifier
DATE	LABEL	8/29/2020	Date
TIME	LABEL	14:23:12	Time
NOTES	NOTES	1	Notes...
	
PSTAT	PSTAT	REF3000-16137	Potentiostat
VDC	POTEN	0.00000E+000	T	DC Voltage (V)
FREQINIT	QUANT	3.00000E+005	Initial Freq. (Hz)
FREQFINAL	QUANT	1.00000E+000	Final Freq. (Hz)
PTSPERDEC	QUANT	1.00000E+001	Points/decade
VAC	QUANT	5.00000E+001	AC Voltage (mV rms)
AREA	QUANT	1.00000E+000	Sample Area (cm^2)
SPEED	SELECTOR	2	Optimize for:
ZGUESS	QUANT	1.00000E+003	Estimated Z (ohms)
EOC	QUANT	0	Open Circuit (V)
SEQUENCER	TOGGLE	TRUE	Run as Sequence
PSTATMODEL	IQUANT	5	Pstat Model
PSTATSECTION	LABEL	REF3000-16137	Pstat Section
PSTATSERIALNO	LABEL	16137	Pstat Serial Number
CTRLMODE	IQUANT	1	Control Mode
IESTAB	IQUANT	0	I/E Stability
CASPEED	IQUANT	1	Control Amp Speed
CONVENTION	IQUANT	1	Current Convention
ICHRANGE	IQUANT	2	Ich Range
ICHRANGEMODE	TOGGLE	F	Ich Auto Range
ICHOFFSETENABLE	TOGGLE	T	Ich Offset Enable
ICHOFFSET	QUANT	0	Ich Offset (V)
ICHFILTER	IQUANT	3	Ich Filter
VCHRANGE	IQUANT	2	Vch Range
VCHRANGEMODE	TOGGLE	F	Vch Auto Range
VCHOFFSETENABLE	TOGGLE	T	Vch Offset Enable
VCHOFFSET	QUANT	0	Vch Offset (V)
VCHFILTER	IQUANT	3	Vch Filter
ACHRANGE	IQUANT	2	Ach Range
ACHOFFSETENABLE	TOGGLE	F	Ach Offset Enable
ACHOFFSET	QUANT	0	Ach Offset (V)
ACHFILTER	IQUANT	3	Ach Filter
IERANGELOWERLIMIT	IQUANT	2	I/E Range Lower Limit
IERANGEMODE	TOGGLE	F	I/E AutoRange
IERANGE	IQUANT	11	I/E Range
POSFEEDENABLE	TOGGLE	F	Positive Feedback IR Comp
POSFEEDRESISTANCE	QUANT	0	Positive Feedback Resistance (ohm)
ACHSELECT	IQUANT	0	Ach Select
CABLEID	IQUANT	13	Cable ID
DCCALDATE	LABEL	7/31/2020	DC Calibration Date
ACCALDATE	LABEL	7/31/2020	AC Calibration Date
THERMOSELECT	IQUANT	1	Thermo Select
FRAMEWORKVERSION	QUANT	6.33	Framework Version
INSTRUMENTVERSION	LABEL	3.50	Instrument Version
COMPLIANCEVOLTAGE	IQUANT	0	Compliance Voltage
ZCURVE	TABLE
	Pt	Time	Freq	Zreal	Zimag	Zsig	Zmod	Zphz	Idc	Vdc	IERange
	#	s	Hz	ohm	ohm	V	ohm	°	A	V	#
	0	7	300046.9	29.66269	-2.139302	1	29.73973	-4.125086	-0.0008673	-0.0005411	11
	1	11	238359.4	29.8924	-2.888722	1	30.03166	-5.519772	0.0002119	0.0015197	11
	2	16	189328.1	30.37444	-3.172351	1	30.53966	-5.962438	0.0005646	0.0006514	10
	3	20	150421.9	30.65315	-4.11453	1	30.92806	-7.645038	0.0005399	-0.0028978	10
	4	24	119484.4	31.22954	-5.04099	1	31.63378	-9.169441	-0.0001537	-0.0009796	10
	5	28	94921.88	31.68359	-6.140131	1	32.27307	-10.9677	-7.917715E-005	-0.0001066	10
	6	31	75421.88	32.3442	-7.267448	1	33.15061	-12.66353	0.0002703	0.000254	10
	7	33	59859.37	33.02651	-8.582052	1	34.12333	-14.56635	-0.0002563	0.0016797	10
	8	36	47578.12	33.79237	-10.11206	1	35.2729	-16.65933	-0.0002016	0.0017629	10
	9	38	37828.12	34.59269	-11.76065	1	36.5372	-18.77674	0.0002976	-2.04689E-005	10
	10	41	30046.88	35.47949	-13.79117	1	38.06561	-21.24151	0.0002252	0.0006689	10
	11	43	23859.38	36.38753	-16.1924	1	39.82771	-23.989	4.029272E-005	0.0014476	10
	12	46	18984.38	37.30182	-18.87241	1	41.80423	-26.83658	-6.617192E-005	-0.0004933	9
	13	48	15046.87	38.15701	-22.54761	1	44.32101	-30.57954	-0.000104	0.0050776	9
	14	50	11953.13	39.09047	-27.12368	1	47.57898	-34.75559	0.0000994	-0.0051801	9
	15	53	9515.62	39.86619	-32.61512	1	51.50786	-39.28711	-8.229637E-005	0.0046996	9
	16	55	7546.875	40.68641	-39.72164	1	56.86117	-44.31258	-7.1487E-005	0.0046391	9
	17	57	5928.309	41.38497	-49.4473	1	64.48063	-50.07232	-0.0001269	0.0049884	9
	18	60	4733.456	42.11691	-60.68867	1	73.87116	-55.24001	6.547585E-005	0.0008168	9
	19	62	3796.875	43.09341	-74.10606	1	85.72485	-59.82157	-0.0001068	0.0050476	9
	20	64	2987.132	44.27768	-92.91119	1	102.9223	-64.51944	2.493672E-005	-0.0034251	9
	21	67	2390.625	45.26746	-115.1352	1	123.7144	-68.53684	-2.758088E-005	0.0037067	9
	22	69	1884.191	47.21965	-144.9156	1	152.4146	-71.95219	6.37275E-005	0.0008817	9
	23	72	1516.544	49.68984	-177.7526	1	184.5672	-74.38194	-2.932076E-005	0.0037929	9
	24	75	1193.986	51.85931	-223.7679	1	229.6986	-76.95177	0.0001323	-0.0050003	9
	25	79	946.5144	55.96073	-278.7265	1	284.2887	-78.64749	0.0001057	-0.0008723	9
	26	82	751.7689	60.33101	-349.6619	1	354.8285	-80.21052	-0.0002795	0.0012012	10
	27	86	597.4265	65.77785	-439.6447	1	444.5381	-81.49076	0.0001507	-0.0038736	9
	28	89	477.4305	74.90235	-540.6042	1	545.7686	-82.11172	7.247322E-007	7.922605E-005	9
	29	92	376.6741	86.40393	-676.0799	1	681.5788	-82.717	4.747759E-007	0.0006585	8
	30	94	298.2954	101.3021	-845.939	1	851.9829	-83.17129	5.058848E-007	0.0006407	8
	31	96	237.7717	120.8055	-1051.347	1	1058.264	-83.44515	4.601522E-007	0.0006656	8
	32	99	189.0121	147.6598	-1309.398	1	1317.698	-83.56598	4.865442E-007	0.0006438	8
	33	101	150.2404	183.7561	-1629.535	1	1639.863	-83.56616	5.253917E-007	0.000635	8
	34	104	119.1737	232.5037	-2032.464	1	2045.72	-83.47402	5.126157E-007	0.0006426	8
	35	106	95.0169	300.0237	-2516.028	1	2533.853	-83.19987	4.738058E-007	0.0006719	8
	36	110	75.60484	392.3279	-3121.048	1	3145.61	-82.83527	5.012626E-007	0.0006481	8
	37	112	54.50582	584.9661	-4235.926	1	4276.126	-82.13739	4.698148E-007	0.0006679	8
	38	115	45.95588	735.2072	-4974.369	1	5028.407	-81.59261	5.552969E-008	0.0006182	7
	39	117	37.20238	967.076	-6043.318	1	6120.207	-80.90839	5.869822E-008	0.0005698	7
	40	119	30.04808	1286.016	-7347.617	1	7459.31	-80.07237	4.421951E-008	0.0006268	7
	41	122	23.91582	1755.696	-9022.878	1	9192.105	-78.98882	3.826494E-008	0.0006382	7
	42	124	18.60119	2477.883	-11277.07	1	11546.09	-77.60747	6.003544E-008	0.0006156	7
	43	126	15.02404	3319.536	-13556.84	1	13957.33	-76.24123	5.129094E-008	0.0006556	7
	44	129	12.01923	4516.494	-16367.52	1	16979.23	-74.57355	4.695679E-008	0.0006266	7
	45	131	9.450605	6280.76	-19885.84	1	20854.13	-72.47176	5.679247E-008	0.0006151	7
	46	134	7.512019	8558.415	-23758.38	1	25252.86	-70.1896	5.549966E-008	0.0005688	7
	47	137	5.978954	11561.41	-28027.83	1	30318.73	-67.58398	5.219751E-008	0.0006451	7
	48	141	4.734848	15543.49	-32797.96	1	36294.71	-64.64296	5.091409E-008	0.0006381	7
	49	144	3.75601	20599.33	-37570.56	1	42847.17	-61.26476	-4.272725E-009	0.0006668	6
	50	150	3.004808	26457.4	-42127.33	1	49746.42	-57.86977	-7.356714E-009	0.0006927	6
	51	156	2.372217	33729.21	-46752.75	1	57649.62	-54.19189	-4.905231E-009	0.0007043	6
	52	161	1.878005	42086.41	-50587.88	1	65805.77	-50.24135	-6.384066E-009	0.000648	6
	53	165	1.512097	50381.94	-53558.98	1	73531.66	-46.75075	-8.969511E-009	0.0007799	6
	54	171	1.201923	59748.68	-55478.12	1	81533.59	-42.87746	-7.311577E-009	0.0006588	6
	55	177	0.956633	69293.75	-56532.92	1	89429.27	-39.2091	-1.823291E-008	3.846237E-005	6
