EXPLAIN
TAG	EISPOT
TITLE	LABEL	Potentiostatic EIS	Test Identifier
DATE	LABEL	8/29/2020	Date
TIME	LABEL	14:13:43	Time
NOTES	NOTES	1	Notes...
	
PSTAT	PSTAT	REF3000-16137	Potentiostat
VDC	POTEN	0.00000E+000	T	DC Voltage (V)
FREQINIT	QUANT	3.00000E+005	Initial Freq. (Hz)
FREQFINAL	QUANT	1.00000E+000	Final Freq. (Hz)
PTSPERDEC	QUANT	1.00000E+001	Points/decade
VAC	QUANT	5.00000E+001	AC Voltage (mV rms)
AREA	QUANT	1.00000E+000	Sample Area (cm^2)
SPEED	SELECTOR	2	Optimize for:
ZGUESS	QUANT	1.00000E+003	Estimated Z (ohms)
EOC	QUANT	0	Open Circuit (V)
SEQUENCER	TOGGLE	TRUE	Run as Sequence
PSTATMODEL	IQUANT	5	Pstat Model
PSTATSECTION	LABEL	REF3000-16137	Pstat Section
PSTATSERIALNO	LABEL	16137	Pstat Serial Number
CTRLMODE	IQUANT	1	Control Mode
IESTAB	IQUANT	0	I/E Stability
CASPEED	IQUANT	1	Control Amp Speed
CONVENTION	IQUANT	1	Current Convention
ICHRANGE	IQUANT	2	Ich Range
ICHRANGEMODE	TOGGLE	F	Ich Auto Range
ICHOFFSETENABLE	TOGGLE	T	Ich Offset Enable
ICHOFFSET	QUANT	0	Ich Offset (V)
ICHFILTER	IQUANT	3	Ich Filter
VCHRANGE	IQUANT	2	Vch Range
VCHRANGEMODE	TOGGLE	F	Vch Auto Range
VCHOFFSETENABLE	TOGGLE	T	Vch Offset Enable
VCHOFFSET	QUANT	0	Vch Offset (V)
VCHFILTER	IQUANT	3	Vch Filter
ACHRANGE	IQUANT	2	Ach Range
ACHOFFSETENABLE	TOGGLE	F	Ach Offset Enable
ACHOFFSET	QUANT	0	Ach Offset (V)
ACHFILTER	IQUANT	3	Ach Filter
IERANGELOWERLIMIT	IQUANT	2	I/E Range Lower Limit
IERANGEMODE	TOGGLE	F	I/E AutoRange
IERANGE	IQUANT	11	I/E Range
POSFEEDENABLE	TOGGLE	F	Positive Feedback IR Comp
POSFEEDRESISTANCE	QUANT	0	Positive Feedback Resistance (ohm)
ACHSELECT	IQUANT	0	Ach Select
CABLEID	IQUANT	13	Cable ID
DCCALDATE	LABEL	7/31/2020	DC Calibration Date
ACCALDATE	LABEL	7/31/2020	AC Calibration Date
THERMOSELECT	IQUANT	1	Thermo Select
FRAMEWORKVERSION	QUANT	6.33	Framework Version
INSTRUMENTVERSION	LABEL	3.50	Instrument Version
COMPLIANCEVOLTAGE	IQUANT	0	Compliance Voltage
ZCURVE	TABLE
	Pt	Time	Freq	Zreal	Zimag	Zsig	Zmod	Zphz	Idc	Vdc	IERange
	#	s	Hz	ohm	ohm	V	ohm	°	A	V	#
	0	7	300046.9	29.72193	-2.264181	1	29.80804	-4.35631	0.0001867	-0.0006364	11
	1	11	238359.4	30.16708	-2.439337	1	30.26555	-4.622929	-0.0001978	0.0012767	10
	2	15	189328.1	30.48256	-3.246882	1	30.655	-6.079996	-8.005827E-005	3.025485E-005	10
	3	19	150421.9	30.73496	-4.167584	1	31.01623	-7.722067	3.359339E-005	0.0010757	10
	4	24	119484.4	31.27185	-5.077497	1	31.68138	-9.222426	-0.0003099	0.0019097	10
	5	29	94921.88	31.82442	-6.10061	1	32.40388	-10.85172	-0.0001027	0.0010342	10
	6	31	75421.88	32.44578	-7.251498	1	33.24625	-12.59833	-6.960422E-005	0.0010265	10
	7	34	59859.37	33.14946	-8.596341	1	34.24593	-14.53775	0.0001293	0.0002072	10
	8	36	47578.12	33.8926	-10.01976	1	35.34267	-16.46941	-2.390266E-005	0.0011615	10
	9	39	37828.12	34.80878	-11.35972	1	36.61549	-18.07391	0.0001022	-0.0040897	9
	10	41	30046.88	35.71555	-13.89068	1	38.32169	-21.25231	7.167047E-005	0.0002316	10
	11	44	23859.38	36.4665	-16.06997	1	39.85034	-23.78201	-5.906031E-005	0.0028707	9
	12	46	18984.38	37.415	-18.84894	1	41.89468	-26.73806	6.604553E-005	-0.000659	9
	13	48	15046.87	38.32394	-22.48816	1	44.43469	-30.40405	6.276034E-005	-0.0005662	9
	14	51	11953.13	39.16313	-26.83175	1	47.47308	-34.41613	-6.923611E-005	0.0023842	9
	15	53	9515.62	39.85376	-32.56279	1	51.46511	-39.25078	3.17522E-006	-0.0013525	9
	16	55	7546.875	40.64428	-39.65601	1	56.78518	-44.29489	-2.213437E-005	-0.0007491	9
	17	58	5928.309	41.45792	-49.04045	1	64.21624	-49.78942	7.353097E-005	-0.0023405	9
	18	60	4733.456	42.30371	-60.19889	1	73.57656	-54.90304	-5.770758E-005	0.001003	9
	19	62	3796.875	43.229	-73.79077	1	85.5209	-59.63686	5.611169E-005	-0.0006757	9
	20	65	2987.132	44.32597	-92.5252	1	102.5949	-64.40236	-3.282018E-005	0.0027337	9
	21	67	2390.625	46.07048	-113.9732	1	122.9324	-67.99035	-7.552878E-005	0.0016772	9
	22	70	1884.191	47.21686	-142.7941	1	150.3981	-71.70281	3.005506E-005	-0.0022074	9
	23	72	1516.544	49.46664	-176.5421	1	183.3413	-74.34726	-6.254915E-005	0.0031143	9
	24	75	1193.986	52.58607	-222.3446	1	228.4785	-76.69365	2.192051E-005	0.0018236	9
	25	79	946.5144	58.84068	-276.757	1	282.9429	-77.99719	-0.0001271	0.0041829	9
	26	82	751.7689	61.26082	-347.2935	1	352.6552	-79.99622	-0.0001402	0.0012075	10
	27	86	597.4265	73.0771	-434.5778	1	440.6791	-80.45464	-1.332048E-005	-0.0012113	9
	28	89	477.4305	75.57219	-534.337	1	539.6547	-81.94995	4.327997E-007	0.0006565	8
	29	92	376.6741	87.13542	-671.0869	1	676.7202	-82.60197	4.067516E-007	0.0006549	8
	30	94	298.2954	102.5631	-839.5514	1	845.793	-83.03502	3.843496E-007	0.000644	8
	31	96	237.7717	122.5777	-1042.942	1	1050.12	-83.29674	3.403795E-007	0.0006669	8
	32	99	189.0121	149.8048	-1298.569	1	1307.182	-83.41936	3.933683E-007	0.0006434	8
	33	101	150.2404	186.8768	-1615.591	1	1626.363	-83.40187	3.917437E-007	0.0006651	8
	34	104	119.1737	239.8024	-2011.737	1	2025.979	-83.20232	4.146353E-007	0.000644	8
	35	106	95.0169	305.4117	-2492.12	1	2510.764	-83.01318	4.370732E-007	0.000664	8
	36	108	75.60484	399.4662	-3090.122	1	3115.835	-82.63411	4.246952E-007	0.0006506	8
	37	111	54.50582	597.4498	-4193.016	1	4235.367	-81.89069	4.448402E-007	0.0006326	8
	38	114	45.95588	747.4466	-4920.203	1	4976.653	-81.36203	4.795992E-008	0.0006506	7
	39	116	37.20238	981.285	-5969.404	1	6049.521	-80.66489	4.522315E-008	0.0006148	7
	40	118	30.04808	1300.312	-7247.495	1	7363.219	-79.82847	3.62746E-008	0.0006241	7
	41	121	23.91582	1768.089	-8899.896	1	9073.825	-78.76369	3.055998E-008	0.000618	7
	42	123	18.60119	2486.751	-11135.52	1	11409.81	-77.41143	3.437626E-008	0.0006504	7
	43	125	15.02404	3339.267	-13380.31	1	13790.7	-75.98717	4.470737E-008	0.0006308	7
	44	128	12.01923	4542.494	-16126.76	1	16754.3	-74.26884	4.138367E-008	0.0006231	7
	45	130	9.450605	6309.551	-19555.46	1	20548.15	-72.11775	5.322463E-008	0.0006364	7
	46	133	7.512019	8574.983	-23345.69	1	24870.7	-69.83147	5.160714E-008	0.00063	7
	47	136	5.978954	11565.52	-27459.37	1	29795.6	-67.15982	4.965574E-008	0.0006164	7
	48	143	4.734848	15450.74	-32148.59	1	35668.71	-64.33088	4.825129E-008	0.0005902	7
	49	146	3.75601	20399.04	-36748.48	1	42030.6	-60.9654	4.354479E-008	0.0006605	7
	50	151	3.004808	26187.21	-41132.95	1	48761.55	-57.51721	-4.800962E-009	0.0006505	6
	51	158	2.372217	33343.23	-45652.65	1	56532.61	-53.8568	-6.619887E-009	0.0005975	6
	52	162	1.878005	41392.34	-49375.55	1	64430.36	-50.02634	-4.92085E-009	0.000681	6
	53	167	1.512097	49461.57	-52027.2	1	71786.33	-46.44813	-5.186596E-009	0.0005468	6
	54	172	1.201923	58665.73	-54291.03	1	79932.38	-42.7821	-8.573703E-009	0.0007022	6
	55	178	0.956633	68026.5	-55035.73	1	87501.63	-38.97403	-1.624875E-008	4.007613E-005	6
