EXPLAIN
TAG	EISPOT
TITLE	LABEL	Potentiostatic EIS	Test Identifier
DATE	LABEL	8/29/2020	Date
TIME	LABEL	11:42:30	Time
NOTES	NOTES	1	Notes...
	
PSTAT	PSTAT	REF3000-16137	Potentiostat
VDC	POTEN	0.00000E+000	T	DC Voltage (V)
FREQINIT	QUANT	3.00000E+005	Initial Freq. (Hz)
FREQFINAL	QUANT	1.00000E+000	Final Freq. (Hz)
PTSPERDEC	QUANT	1.00000E+001	Points/decade
VAC	QUANT	5.00000E+001	AC Voltage (mV rms)
AREA	QUANT	1.00000E+000	Sample Area (cm^2)
SPEED	SELECTOR	2	Optimize for:
ZGUESS	QUANT	1.00000E+003	Estimated Z (ohms)
EOC	QUANT	0	Open Circuit (V)
SEQUENCER	TOGGLE	TRUE	Run as Sequence
PSTATMODEL	IQUANT	5	Pstat Model
PSTATSECTION	LABEL	REF3000-16137	Pstat Section
PSTATSERIALNO	LABEL	16137	Pstat Serial Number
CTRLMODE	IQUANT	1	Control Mode
IESTAB	IQUANT	0	I/E Stability
CASPEED	IQUANT	1	Control Amp Speed
CONVENTION	IQUANT	1	Current Convention
ICHRANGE	IQUANT	2	Ich Range
ICHRANGEMODE	TOGGLE	F	Ich Auto Range
ICHOFFSETENABLE	TOGGLE	T	Ich Offset Enable
ICHOFFSET	QUANT	0	Ich Offset (V)
ICHFILTER	IQUANT	3	Ich Filter
VCHRANGE	IQUANT	2	Vch Range
VCHRANGEMODE	TOGGLE	F	Vch Auto Range
VCHOFFSETENABLE	TOGGLE	T	Vch Offset Enable
VCHOFFSET	QUANT	0	Vch Offset (V)
VCHFILTER	IQUANT	3	Vch Filter
ACHRANGE	IQUANT	2	Ach Range
ACHOFFSETENABLE	TOGGLE	F	Ach Offset Enable
ACHOFFSET	QUANT	0	Ach Offset (V)
ACHFILTER	IQUANT	3	Ach Filter
IERANGELOWERLIMIT	IQUANT	2	I/E Range Lower Limit
IERANGEMODE	TOGGLE	F	I/E AutoRange
IERANGE	IQUANT	11	I/E Range
POSFEEDENABLE	TOGGLE	F	Positive Feedback IR Comp
POSFEEDRESISTANCE	QUANT	0	Positive Feedback Resistance (ohm)
ACHSELECT	IQUANT	0	Ach Select
CABLEID	IQUANT	13	Cable ID
DCCALDATE	LABEL	7/31/2020	DC Calibration Date
ACCALDATE	LABEL	7/31/2020	AC Calibration Date
THERMOSELECT	IQUANT	1	Thermo Select
FRAMEWORKVERSION	QUANT	6.33	Framework Version
INSTRUMENTVERSION	LABEL	3.50	Instrument Version
COMPLIANCEVOLTAGE	IQUANT	0	Compliance Voltage
ZCURVE	TABLE
	Pt	Time	Freq	Zreal	Zimag	Zsig	Zmod	Zphz	Idc	Vdc	IERange
	#	s	Hz	ohm	ohm	V	ohm	°	A	V	#
	0	7	300046.9	70.88818	3.304358	1	70.96516	2.668834	-0.0005628	0.0213496	9
	1	10	238359.4	68.62555	0.6765627	1	68.62888	0.5648469	-0.0005055	0.0206482	9
	2	14	189328.1	68.49625	-1.257116	1	68.50779	-1.051435	0.0001458	-0.0120284	9
	3	17	150421.9	68.70312	-3.148322	1	68.77522	-2.623745	-0.0004254	0.0219857	9
	4	20	119484.4	69.26958	-5.392231	1	69.47913	-4.451165	-0.0002427	0.018562	9
	5	24	94921.88	70.15387	-6.799681	1	70.48263	-5.536114	-7.567174E-005	-0.0020018	9
	6	27	75421.88	71.04894	-8.676407	1	71.57676	-6.962414	-0.0001125	-0.0003463	9
	7	30	59859.37	72.29202	-10.9952	1	73.12339	-8.648077	-0.0002227	0.0063297	9
	8	33	47578.12	73.26192	-13.39626	1	74.47663	-10.3623	5.892372E-005	-0.0054779	9
	9	35	37828.12	74.67017	-16.14467	1	76.39558	-12.2003	-6.783124E-005	-0.0022138	9
	10	38	30046.88	76.38761	-18.91561	1	78.69477	-13.90819	-5.650062E-006	0.0047158	9
	11	41	23859.38	78.0768	-22.42021	1	81.23209	-16.02173	0.000208	-0.0047315	9
	12	43	18984.38	80.12389	-26.28502	1	84.32521	-18.16232	-0.0001861	0.0027395	9
	13	46	15046.87	82.31357	-30.86366	1	87.90955	-20.55365	-0.0001969	0.0057919	9
	14	49	11953.13	84.55878	-36.2741	1	92.01086	-23.21841	-7.107936E-006	-0.0043726	9
	15	52	9515.62	86.67281	-42.69779	1	96.6192	-26.22633	-0.0002001	0.0045272	9
	16	55	7546.875	89.03305	-50.6984	1	102.4559	-29.65864	-0.0001343	0.0006847	9
	17	58	5928.309	91.217	-61.52954	1	110.0292	-34.00126	0.0001803	-0.00258	9
	18	61	4733.456	93.56702	-73.44867	1	118.9517	-38.13137	6.800654E-005	0.0025498	9
	19	64	3796.875	95.5195	-88.4565	1	130.1865	-42.80143	-0.0001668	0.0025639	9
	20	67	2987.132	97.5887	-109.2146	1	146.4629	-48.21764	6.825616E-005	0.0025594	9
	21	71	2390.625	100.3308	-132.6461	1	166.3168	-52.89687	-0.0001953	0.005679	9
	22	74	1884.191	103.0229	-165.4648	1	194.9162	-58.09248	-0.0001673	0.0075825	9
	23	79	1516.544	105.3031	-202.3904	1	228.1461	-62.51217	0.0001986	-0.0071475	9
	24	83	1193.986	107.9457	-254.4702	1	276.4189	-67.01345	-0.0002023	0.005926	9
	25	87	946.5144	112.2679	-318.4081	1	337.6208	-70.5778	0.0001327	2.24315E-005	9
	26	91	751.7689	117.9271	-396.0979	1	413.28	-73.42056	-0.000129	0.0001903	9
	27	95	597.4265	117.4142	-494.7543	1	508.4958	-76.64964	-0.0001295	0.0002912	9
	28	100	477.4305	129.3995	-610.8503	1	624.4056	-78.03956	8.924306E-007	2.705674E-005	9
	29	102	376.6741	138.9377	-764.7565	1	777.2749	-79.70306	2.640549E-007	0.0006428	8
	30	104	298.2954	151.13	-958.424	1	970.266	-81.03904	2.879081E-007	0.0006754	8
	31	106	237.7717	166.8815	-1193.547	1	1205.157	-82.04052	2.386194E-007	0.0006645	8
	32	109	189.0121	187.9798	-1490.136	1	1501.946	-82.81015	2.887768E-007	0.0006319	8
	33	111	150.2404	216.3596	-1859.828	1	1872.371	-83.36443	2.357146E-007	0.0006867	8
	34	114	119.1737	251.9265	-2324.413	1	2338.025	-83.81426	2.479688E-007	0.0006913	8
	35	116	95.0169	304.9779	-2890.729	1	2906.772	-83.97746	2.598164E-007	0.0006834	8
	36	119	75.60484	372.7942	-3599.413	1	3618.667	-84.08691	3.238072E-007	0.0006359	8
	37	121	54.50582	521.2643	-4923.974	1	4951.488	-83.95703	2.857516E-008	0.0005936	7
	38	124	45.95588	621.7243	-5793.368	1	5826.633	-83.87466	4.116182E-008	0.0006161	7
	39	126	37.20238	779.7858	-7073.2	1	7116.054	-83.70882	3.018547E-008	0.0006643	7
	40	128	30.04808	990.351	-8662.918	1	8719.343	-83.47822	3.446465E-008	0.0006084	7
	41	131	23.91582	1284.902	-10707.65	1	10784.47	-83.15731	2.664118E-008	0.0005883	7
	42	133	18.60119	1727.352	-13535.03	1	13644.81	-82.72718	2.939757E-008	0.0006397	7
	43	136	15.02404	2230.964	-16519.31	1	16669.28	-82.30863	3.720905E-008	0.0006042	7
	44	138	12.01923	2938.45	-20301.12	1	20512.67	-81.76402	3.182864E-008	0.000637	7
	45	141	9.450605	3966.27	-25292.04	1	25601.14	-81.08752	2.91736E-008	0.0006608	7
	46	143	7.512019	5272.257	-31131.7	1	31574.98	-80.38797	3.672682E-008	0.0005762	7
	47	146	5.978954	7027.912	-38186.87	1	38828.2	-79.57198	3.146653E-008	0.0006683	7
	48	150	4.734848	9542.22	-46889.02	1	47850.13	-78.49702	2.608638E-009	0.000624	6
	49	154	3.75601	12682.91	-57318.66	1	58705.07	-77.52318	2.752671E-009	0.0007162	6
	50	159	3.004808	16645.42	-69301.26	1	71272.26	-76.49401	3.087598E-009	0.0006737	6
	51	166	2.372217	22050.94	-84470.16	1	87300.93	-75.36945	2.369762E-009	0.0005978	6
	52	170	1.878005	29026.98	-102202.2	1	106244.3	-74.14465	2.575364E-009	0.0006795	6
	53	175	1.512097	37219.98	-121491.7	1	127065.2	-72.96712	2.410267E-009	0.0005686	6
	54	180	1.201923	47952.84	-145738.1	1	153424.5	-71.78702	1.915212E-009	0.0006946	6
	55	186	0.956633	61406.41	-173862.6	1	184388	-70.54733	8.612087E-010	2.740726E-005	6
