EXPLAIN
TAG	EISPOT
TITLE	LABEL	Potentiostatic EIS	Test Identifier
DATE	LABEL	8/29/2020	Date
TIME	LABEL	11:36:08	Time
NOTES	NOTES	1	Notes...
	
PSTAT	PSTAT	REF3000-16137	Potentiostat
VDC	POTEN	0.00000E+000	T	DC Voltage (V)
FREQINIT	QUANT	3.00000E+005	Initial Freq. (Hz)
FREQFINAL	QUANT	1.00000E+000	Final Freq. (Hz)
PTSPERDEC	QUANT	1.00000E+001	Points/decade
VAC	QUANT	5.00000E+001	AC Voltage (mV rms)
AREA	QUANT	1.00000E+000	Sample Area (cm^2)
SPEED	SELECTOR	2	Optimize for:
ZGUESS	QUANT	1.00000E+003	Estimated Z (ohms)
EOC	QUANT	0	Open Circuit (V)
SEQUENCER	TOGGLE	TRUE	Run as Sequence
PSTATMODEL	IQUANT	5	Pstat Model
PSTATSECTION	LABEL	REF3000-16137	Pstat Section
PSTATSERIALNO	LABEL	16137	Pstat Serial Number
CTRLMODE	IQUANT	1	Control Mode
IESTAB	IQUANT	0	I/E Stability
CASPEED	IQUANT	1	Control Amp Speed
CONVENTION	IQUANT	1	Current Convention
ICHRANGE	IQUANT	2	Ich Range
ICHRANGEMODE	TOGGLE	F	Ich Auto Range
ICHOFFSETENABLE	TOGGLE	T	Ich Offset Enable
ICHOFFSET	QUANT	0	Ich Offset (V)
ICHFILTER	IQUANT	3	Ich Filter
VCHRANGE	IQUANT	2	Vch Range
VCHRANGEMODE	TOGGLE	F	Vch Auto Range
VCHOFFSETENABLE	TOGGLE	T	Vch Offset Enable
VCHOFFSET	QUANT	0	Vch Offset (V)
VCHFILTER	IQUANT	3	Vch Filter
ACHRANGE	IQUANT	2	Ach Range
ACHOFFSETENABLE	TOGGLE	F	Ach Offset Enable
ACHOFFSET	QUANT	0	Ach Offset (V)
ACHFILTER	IQUANT	3	Ach Filter
IERANGELOWERLIMIT	IQUANT	2	I/E Range Lower Limit
IERANGEMODE	TOGGLE	F	I/E AutoRange
IERANGE	IQUANT	11	I/E Range
POSFEEDENABLE	TOGGLE	F	Positive Feedback IR Comp
POSFEEDRESISTANCE	QUANT	0	Positive Feedback Resistance (ohm)
ACHSELECT	IQUANT	0	Ach Select
CABLEID	IQUANT	13	Cable ID
DCCALDATE	LABEL	7/31/2020	DC Calibration Date
ACCALDATE	LABEL	7/31/2020	AC Calibration Date
THERMOSELECT	IQUANT	1	Thermo Select
FRAMEWORKVERSION	QUANT	6.33	Framework Version
INSTRUMENTVERSION	LABEL	3.50	Instrument Version
COMPLIANCEVOLTAGE	IQUANT	0	Compliance Voltage
ZCURVE	TABLE
	Pt	Time	Freq	Zreal	Zimag	Zsig	Zmod	Zphz	Idc	Vdc	IERange
	#	s	Hz	ohm	ohm	V	ohm	°	A	V	#
	0	9	300046.9	58.30161	2.501908	1	58.35527	2.457237	-0.0004097	0.0061539	9
	1	14	238359.4	56.63704	0.5425723	1	56.63964	0.5488661	-0.0004716	0.0194989	9
	2	17	189328.1	56.6468	-1.292758	1	56.66155	-1.307342	-0.0004737	0.0119566	9
	3	20	150421.9	56.78201	-3.236207	1	56.87416	-3.26196	3.743052E-005	0.0081008	9
	4	23	119484.4	57.28556	-4.980871	1	57.50169	-4.969262	-0.000479	0.0118646	9
	5	25	94921.88	58.1791	-6.371526	1	58.52695	-6.249882	-0.0001926	0.0045959	9
	6	28	75421.88	58.85118	-8.232661	1	59.42422	-7.9634	-6.950284E-005	-0.0017391	9
	7	30	59859.37	59.73002	-10.35775	1	60.62143	-9.83779	0.0001954	-0.0047571	9
	8	33	47578.12	60.9565	-12.46147	1	62.21722	-11.5539	-0.0001236	0.0005004	9
	9	35	37828.12	62.13063	-14.87178	1	63.88572	-13.46122	-5.287129E-005	0.005676	9
	10	38	30046.88	63.62876	-17.69705	1	66.04396	-15.54283	6.577141E-005	0.002698	9
	11	41	23859.38	65.12298	-20.68457	1	68.32901	-17.62106	-1.167499E-005	-0.0036474	9
	12	43	18984.38	66.8519	-24.25589	1	71.11627	-19.9423	0.0001982	-0.0058494	9
	13	45	15046.87	69.06178	-28.38441	1	74.66729	-22.34268	-0.0001221	0.0004266	9
	14	47	11953.13	70.41759	-33.71279	1	78.07169	-25.58302	-5.382894E-005	0.0057964	9
	15	50	9515.62	72.19139	-39.85454	1	82.462	-28.90167	0.0001486	-0.0066193	9
	16	52	7546.875	74.13408	-47.49971	1	88.04592	-32.64878	-0.0001898	0.0058845	9
	17	55	5928.309	75.96451	-57.77882	1	95.4411	-37.25672	-0.0001846	0.0043884	9
	18	58	4733.456	77.50984	-69.74953	1	104.2726	-41.98341	-5.630167E-005	0.0057867	9
	19	61	3796.875	79.10648	-84.57687	1	115.8062	-46.91414	0.000144	-0.0066913	9
	20	64	2987.132	81.01862	-104.5513	1	132.2687	-52.22728	-0.0001643	0.0026672	9
	21	67	2390.625	82.66765	-128.0175	1	152.3891	-57.14754	-0.0001208	0.0003548	9
	22	69	1884.191	84.55968	-159.9862	1	180.9584	-62.1416	0.0001841	-0.0067165	9
	23	73	1516.544	87.14435	-196.1522	1	214.6388	-66.04591	5.141145E-005	-0.0054123	9
	24	77	1193.986	90.64835	-246.2379	1	262.3932	-69.78966	-7.109942E-005	-0.0017408	9
	25	82	946.5144	92.6039	-306.4794	1	320.1642	-73.18761	-5.771714E-005	0.0058746	9
	26	85	751.7689	102.4086	-383.5371	1	396.9738	-75.05016	-0.0001536	0.0070598	9
	27	89	597.4265	102.014	-480.9192	1	491.6199	-78.02378	0.000127	-0.0002291	9
	28	93	477.4305	110.732	-595.7732	1	605.9763	-79.471	7.680358E-007	0.0000997	9
	29	95	376.6741	120.5395	-746.0244	1	755.6998	-80.82171	3.969697E-007	0.000624	8
	30	97	298.2954	133.2013	-934.9505	1	944.3914	-81.8917	3.617475E-007	0.0006779	8
	31	100	237.7717	149.5636	-1164.21	1	1173.778	-82.67943	3.370378E-007	0.0006611	8
	32	102	189.0121	171.8284	-1453.056	1	1463.18	-83.25591	3.445244E-007	0.0006622	8
	33	104	150.2404	201.5429	-1812.871	1	1824.04	-83.65629	3.771745E-007	0.0006686	8
	34	107	119.1737	239.9232	-2267.063	1	2279.723	-83.95887	3.863072E-007	0.0006751	8
	35	109	95.0169	294.9625	-2813.563	1	2828.982	-84.01521	3.664429E-007	0.0006427	8
	36	112	75.60484	367.3716	-3501.287	1	3520.507	-84.01017	3.601723E-007	0.0006749	8
	37	114	54.50582	516.7921	-4774.189	1	4802.079	-83.82195	3.874757E-007	0.0006624	8
	38	117	45.95588	629.6044	-5623.512	1	5658.647	-83.61181	4.629248E-008	0.0006624	7
	39	119	37.20238	796.7213	-6859.346	1	6905.461	-83.37472	4.411765E-008	0.0006562	7
	40	122	30.04808	1023.123	-8390.61	1	8452.758	-83.04787	3.354926E-008	0.0006512	7
	41	124	23.91582	1334.047	-10366.36	1	10451.84	-82.66691	3.541021E-008	0.0006611	7
	42	126	18.60119	1817.524	-13104.32	1	13229.76	-82.10365	5.084171E-008	0.0006132	7
	43	129	15.02404	2358.513	-15927.3	1	16100.98	-81.57686	4.679078E-008	0.0006203	7
	44	131	12.01923	3109.509	-19512.89	1	19759.09	-80.94566	4.684156E-008	0.0006026	7
	45	134	9.450605	4216.539	-24258.23	1	24621.96	-80.13943	4.578099E-008	0.0006526	7
	46	136	7.512019	5626.539	-29779.27	1	30306.15	-79.30058	5.103562E-008	0.0006486	7
	47	139	5.978954	7496.664	-36398.42	1	37162.41	-78.36203	4.27547E-008	0.000656	7
	48	144	4.734848	10151.97	-44530.55	1	45673.1	-77.15733	4.060922E-009	0.0007085	6
	49	147	3.75601	13438.14	-54177.49	1	55819.21	-76.06954	3.854393E-009	0.0006215	6
	50	153	3.004808	17573.74	-65178.88	1	67506.46	-74.91055	3.963103E-009	0.0006337	6
	51	159	2.372217	23210.17	-79065.23	1	82401.6	-73.64001	3.456571E-009	0.0005419	6
	52	163	1.878005	30403.19	-95143.3	1	99882.9	-72.27863	3.655134E-009	0.0006825	6
	53	168	1.512097	38908.48	-112391.4	1	118935.6	-70.90479	2.83972E-009	0.0005958	6
	54	173	1.201923	50127.3	-134009.3	1	143077.8	-69.49127	2.636473E-009	0.0007026	6
	55	180	0.956633	64283.23	-158632.7	1	171162.7	-67.94057	7.4268E-010	3.231785E-005	6
