EXPLAIN
TAG	EISPOT
TITLE	LABEL	Potentiostatic EIS	Test Identifier
DATE	LABEL	8/29/2020	Date
TIME	LABEL	11:33:00	Time
NOTES	NOTES	1	Notes...
	
PSTAT	PSTAT	REF3000-16137	Potentiostat
VDC	POTEN	0.00000E+000	T	DC Voltage (V)
FREQINIT	QUANT	3.00000E+005	Initial Freq. (Hz)
FREQFINAL	QUANT	1.00000E+000	Final Freq. (Hz)
PTSPERDEC	QUANT	1.00000E+001	Points/decade
VAC	QUANT	5.00000E+001	AC Voltage (mV rms)
AREA	QUANT	1.00000E+000	Sample Area (cm^2)
SPEED	SELECTOR	2	Optimize for:
ZGUESS	QUANT	1.00000E+003	Estimated Z (ohms)
EOC	QUANT	0	Open Circuit (V)
SEQUENCER	TOGGLE	TRUE	Run as Sequence
PSTATMODEL	IQUANT	5	Pstat Model
PSTATSECTION	LABEL	REF3000-16137	Pstat Section
PSTATSERIALNO	LABEL	16137	Pstat Serial Number
CTRLMODE	IQUANT	1	Control Mode
IESTAB	IQUANT	0	I/E Stability
CASPEED	IQUANT	1	Control Amp Speed
CONVENTION	IQUANT	1	Current Convention
ICHRANGE	IQUANT	2	Ich Range
ICHRANGEMODE	TOGGLE	F	Ich Auto Range
ICHOFFSETENABLE	TOGGLE	T	Ich Offset Enable
ICHOFFSET	QUANT	0	Ich Offset (V)
ICHFILTER	IQUANT	3	Ich Filter
VCHRANGE	IQUANT	2	Vch Range
VCHRANGEMODE	TOGGLE	F	Vch Auto Range
VCHOFFSETENABLE	TOGGLE	T	Vch Offset Enable
VCHOFFSET	QUANT	0	Vch Offset (V)
VCHFILTER	IQUANT	3	Vch Filter
ACHRANGE	IQUANT	2	Ach Range
ACHOFFSETENABLE	TOGGLE	F	Ach Offset Enable
ACHOFFSET	QUANT	0	Ach Offset (V)
ACHFILTER	IQUANT	3	Ach Filter
IERANGELOWERLIMIT	IQUANT	2	I/E Range Lower Limit
IERANGEMODE	TOGGLE	F	I/E AutoRange
IERANGE	IQUANT	11	I/E Range
POSFEEDENABLE	TOGGLE	F	Positive Feedback IR Comp
POSFEEDRESISTANCE	QUANT	0	Positive Feedback Resistance (ohm)
ACHSELECT	IQUANT	0	Ach Select
CABLEID	IQUANT	13	Cable ID
DCCALDATE	LABEL	7/31/2020	DC Calibration Date
ACCALDATE	LABEL	7/31/2020	AC Calibration Date
THERMOSELECT	IQUANT	1	Thermo Select
FRAMEWORKVERSION	QUANT	6.33	Framework Version
INSTRUMENTVERSION	LABEL	3.50	Instrument Version
COMPLIANCEVOLTAGE	IQUANT	0	Compliance Voltage
ZCURVE	TABLE
	Pt	Time	Freq	Zreal	Zimag	Zsig	Zmod	Zphz	Idc	Vdc	IERange
	#	s	Hz	ohm	ohm	V	ohm	°	A	V	#
	0	7	300046.9	53.25807	2.485122	1	53.31602	2.671591	0.0002426	0.0014072	9
	1	11	238359.4	51.88457	0.4787744	1	51.88678	0.5286923	0.0002258	0.0011939	9
	2	14	189328.1	51.77664	-1.423939	1	51.79622	-1.575327	-0.0002945	0.0004905	9
	3	17	150421.9	52.12652	-3.120252	1	52.21983	-3.425592	0.0002384	0.0013974	9
	4	21	119484.4	52.59825	-4.75652	1	52.81288	-5.167268	0.0004805	-0.0164892	9
	5	24	94921.88	53.34029	-6.24947	1	53.70514	-6.682439	-6.92313E-005	-0.001646	9
	6	26	75421.88	54.04787	-8.00652	1	54.63768	-8.426376	0.0001205	-0.0004174	9
	7	29	59859.37	54.95529	-9.97803	1	55.85378	-10.29088	6.850556E-005	0.0017284	9
	8	32	47578.12	56.15114	-12.10773	1	57.44169	-12.16824	-5.51915E-005	0.0055757	9
	9	34	37828.12	57.2316	-14.39222	1	59.01349	-14.11567	0.0001659	-0.0026436	9
	10	37	30046.88	58.59666	-16.97766	1	61.00664	-16.15829	-0.0001795	0.0052845	9
	11	39	23859.38	60.05639	-20.03182	1	63.30911	-18.44613	-0.0001213	0.0061358	9
	12	42	18984.38	61.61688	-23.42744	1	65.92029	-20.81737	-0.0001806	0.004377	9
	13	44	15046.87	63.22391	-27.56133	1	68.97021	-23.55393	7.499138E-005	0.0016488	9
	14	47	11953.13	64.78442	-32.70757	1	72.57276	-26.78774	6.758029E-005	0.0020305	9
	15	49	9515.62	66.60006	-38.67208	1	77.01362	-30.14208	-1.278532E-005	-0.0039443	9
	16	52	7546.875	68.11721	-46.3784	1	82.40697	-34.24945	0.0001564	-0.0021848	9
	17	55	5928.309	70.0597	-56.20195	1	89.81659	-38.73661	-0.0001444	0.0067043	9
	18	57	4733.456	71.36344	-68.14542	1	98.6739	-43.6786	-0.0001211	0.0005515	9
	19	60	3796.875	72.80695	-82.6385	1	110.1362	-48.619	-0.0001728	0.0065771	9
	20	63	2987.132	74.38601	-102.8082	1	126.8969	-54.11271	4.759626E-005	-0.0051202	9
	21	66	2390.625	76.12975	-125.9792	1	147.1955	-58.85527	-0.0001599	0.0026745	9
	22	68	1884.191	78.3377	-157.8329	1	176.2045	-63.60327	-0.0001606	0.0026883	9
	23	71	1516.544	80.24899	-193.5362	1	209.5141	-67.47886	6.845823E-005	0.0019722	9
	24	76	1193.986	82.90154	-244.6069	1	258.2735	-71.27759	-5.257723E-005	0.005542	9
	25	80	946.5144	85.26575	-304.678	1	316.3842	-74.36544	-7.09024E-005	-0.001576	9
	26	84	751.7689	86.3736	-378.6525	1	388.3788	-77.15025	6.685888E-005	0.0020177	9
	27	87	597.4265	96.4169	-472.4444	1	482.1825	-78.46542	0.0001935	-0.0045966	9
	28	91	477.4305	103.7582	-588.7079	1	597.7816	-80.00443	7.322172E-007	0.0000991	9
	29	95	376.6741	113.7535	-737.4022	1	746.1246	-81.23054	3.782558E-007	0.000663	8
	30	97	298.2954	126.6165	-924.1973	1	932.8303	-82.19895	4.448136E-007	0.0006484	8
	31	99	237.7717	143.4068	-1150.528	1	1159.431	-82.89505	4.186495E-007	0.0006714	8
	32	102	189.0121	166.222	-1435.796	1	1445.386	-83.39627	4.337947E-007	0.0006064	8
	33	104	150.2404	196.6085	-1790.66	1	1801.421	-83.73421	4.021397E-007	0.0006733	8
	34	107	119.1737	240.6672	-2236.028	1	2248.942	-83.85681	4.284425E-007	0.0006386	8
	35	109	95.0169	293.081	-2777.895	1	2793.313	-83.97731	4.464141E-007	0.0006421	8
	36	112	75.60484	367.662	-3454.257	1	3473.769	-83.92446	4.396799E-007	0.000635	8
	37	114	54.50582	521.3449	-4707.878	1	4736.657	-83.68088	4.615958E-007	0.0006368	8
	38	117	45.95588	637.015	-5546.664	1	5583.124	-83.44849	4.915744E-008	0.0006628	7
	39	119	37.20238	809.3369	-6757.177	1	6805.474	-83.16997	5.031024E-008	0.0006607	7
	40	121	30.04808	1039.713	-8254.253	1	8319.477	-82.82079	4.54872E-008	0.0006395	7
	41	124	23.91582	1376.886	-10219.66	1	10311.99	-82.32679	4.404958E-008	0.0006521	7
	42	126	18.60119	1847.08	-12884.87	1	13016.59	-81.84208	4.114408E-008	0.0006462	7
	43	128	15.02404	2418.873	-15644.73	1	15830.62	-81.21095	5.338347E-008	0.0005983	7
	44	131	12.01923	3203.33	-19150.71	1	19416.77	-80.50407	4.775958E-008	0.0006391	7
	45	133	9.450605	4325.691	-23773.45	1	24163.79	-79.68758	4.703558E-008	0.0006647	7
	46	136	7.512019	5796.605	-29131.77	1	29702.88	-78.74634	5.480341E-008	0.0006548	7
	47	139	5.978954	7713.658	-35536	1	36363.55	-77.75302	5.519935E-008	0.000613	7
	48	143	4.734848	10401.42	-43373.39	1	44603.14	-76.5145	4.580622E-009	0.0006877	6
	49	146	3.75601	13788.87	-52678.09	1	54452.86	-75.33152	5.302315E-009	0.000664	6
	50	152	3.004808	17987.51	-63251.21	1	65759.16	-74.12521	3.879533E-009	0.0006926	6
	51	158	2.372217	23692.49	-76433.75	1	80021.57	-72.77791	3.892275E-009	0.0007111	6
	52	163	1.878005	31179.8	-91788.23	1	96939.5	-71.23775	3.309082E-009	0.0006463	6
	53	167	1.512097	39843.92	-108251.3	1	115351.1	-69.79292	3.506702E-009	0.0007078	6
	54	173	1.201923	51403.39	-128419.3	1	138325	-68.18487	3.32924E-009	0.0006551	6
	55	179	0.956633	65719.9	-151199.7	1	164865	-66.50753	2.746608E-010	3.093535E-005	6
