EXPLAIN
TAG	EISPOT
TITLE	LABEL	Potentiostatic EIS	Test Identifier
DATE	LABEL	8/29/2020	Date
TIME	LABEL	11:55:56	Time
NOTES	NOTES	1	Notes...
	
PSTAT	PSTAT	REF3000-16137	Potentiostat
VDC	POTEN	0.00000E+000	T	DC Voltage (V)
FREQINIT	QUANT	3.00000E+005	Initial Freq. (Hz)
FREQFINAL	QUANT	1.00000E+000	Final Freq. (Hz)
PTSPERDEC	QUANT	1.00000E+001	Points/decade
VAC	QUANT	5.00000E+001	AC Voltage (mV rms)
AREA	QUANT	1.00000E+000	Sample Area (cm^2)
SPEED	SELECTOR	2	Optimize for:
ZGUESS	QUANT	1.00000E+003	Estimated Z (ohms)
EOC	QUANT	0	Open Circuit (V)
SEQUENCER	TOGGLE	TRUE	Run as Sequence
PSTATMODEL	IQUANT	5	Pstat Model
PSTATSECTION	LABEL	REF3000-16137	Pstat Section
PSTATSERIALNO	LABEL	16137	Pstat Serial Number
CTRLMODE	IQUANT	1	Control Mode
IESTAB	IQUANT	0	I/E Stability
CASPEED	IQUANT	1	Control Amp Speed
CONVENTION	IQUANT	1	Current Convention
ICHRANGE	IQUANT	2	Ich Range
ICHRANGEMODE	TOGGLE	F	Ich Auto Range
ICHOFFSETENABLE	TOGGLE	T	Ich Offset Enable
ICHOFFSET	QUANT	0	Ich Offset (V)
ICHFILTER	IQUANT	3	Ich Filter
VCHRANGE	IQUANT	2	Vch Range
VCHRANGEMODE	TOGGLE	F	Vch Auto Range
VCHOFFSETENABLE	TOGGLE	T	Vch Offset Enable
VCHOFFSET	QUANT	0	Vch Offset (V)
VCHFILTER	IQUANT	3	Vch Filter
ACHRANGE	IQUANT	2	Ach Range
ACHOFFSETENABLE	TOGGLE	F	Ach Offset Enable
ACHOFFSET	QUANT	0	Ach Offset (V)
ACHFILTER	IQUANT	3	Ach Filter
IERANGELOWERLIMIT	IQUANT	2	I/E Range Lower Limit
IERANGEMODE	TOGGLE	F	I/E AutoRange
IERANGE	IQUANT	11	I/E Range
POSFEEDENABLE	TOGGLE	F	Positive Feedback IR Comp
POSFEEDRESISTANCE	QUANT	0	Positive Feedback Resistance (ohm)
ACHSELECT	IQUANT	0	Ach Select
CABLEID	IQUANT	13	Cable ID
DCCALDATE	LABEL	7/31/2020	DC Calibration Date
ACCALDATE	LABEL	7/31/2020	AC Calibration Date
THERMOSELECT	IQUANT	1	Thermo Select
FRAMEWORKVERSION	QUANT	6.33	Framework Version
INSTRUMENTVERSION	LABEL	3.50	Instrument Version
COMPLIANCEVOLTAGE	IQUANT	0	Compliance Voltage
ZCURVE	TABLE
	Pt	Time	Freq	Zreal	Zimag	Zsig	Zmod	Zphz	Idc	Vdc	IERange
	#	s	Hz	ohm	ohm	V	ohm	°	A	V	#
	0	9	300046.9	118.343	3.932932	1	118.4084	1.903428	-0.000225	-0.0076832	9
	1	22	238359.4	115.5398	1.49271	1	115.5494	0.7401888	0.0001111	0.0093748	9
	2	26	189328.1	115.0212	-1.897468	1	115.0369	-0.9451042	-0.0003182	0.0227579	9
	3	30	150421.9	115.4368	-3.846428	1	115.5009	-1.908425	0.0006271	-0.0200134	9
	4	36	119484.4	116.1253	-6.199095	1	116.2907	-3.055709	-0.0006195	0.0237553	9
	5	43	94921.88	117.4284	-8.236623	1	117.7169	-4.01225	0.0001471	-0.0084418	9
	6	45	75421.88	118.1418	-10.80157	1	118.6346	-5.223964	0.0002344	-0.0080957	9
	7	48	59859.37	119.6103	-13.41418	1	120.3601	-6.39893	-8.490435E-005	0.0077027	9
	8	51	47578.12	121.2597	-16.2455	1	122.3431	-7.630641	-0.0001521	0.008563	9
	9	53	37828.12	122.9764	-19.75487	1	124.553	-9.126001	0.0002019	-0.002448	9
	10	56	30046.88	125.0723	-23.60626	1	127.2805	-10.68833	0.0001476	-0.0083578	9
	11	59	23859.38	127.954	-27.60894	1	130.8987	-12.17618	-8.431469E-005	0.0076862	9
	12	62	18984.38	130.3057	-32.55485	1	134.3108	-14.02732	0.0001463	-0.0083403	9
	13	65	15046.87	133.9301	-38.03868	1	139.2272	-15.85555	6.382984E-005	0.003675	9
	14	68	11953.13	136.7529	-44.41351	1	143.7842	-17.99235	-0.0002291	0.0080067	9
	15	71	9515.62	140.5955	-51.76165	1	149.8211	-20.21169	0.0001388	0.000636	9
	16	73	7546.875	144.3876	-61.07702	1	156.7743	-22.92872	0.0001996	-0.008647	9
	17	77	5928.309	148.3645	-72.77448	1	165.2518	-26.12847	0.0002374	-0.0050849	9
	18	81	4733.456	152.8993	-86.21135	1	175.5295	-29.41621	0.0002441	-0.0067872	9
	19	85	3796.875	156.5852	-102.2536	1	187.0152	-33.14542	-6.771058E-005	-0.0030946	9
	20	88	2987.132	160.3628	-123.68	1	202.5166	-37.64124	0.0001391	0.0006926	9
	21	93	2390.625	165.0893	-149.5399	1	222.748	-42.17065	0.000147	-0.0082867	9
	22	97	1884.191	169.536	-182.3353	1	248.9751	-47.08321	-6.800523E-005	-0.0031688	9
	23	101	1516.544	173.219	-222.1044	1	281.6651	-52.04936	6.360677E-005	0.0036764	9
	24	107	1193.986	179.739	-274.272	1	327.9196	-56.76192	-6.808668E-005	-0.0031622	9
	25	112	946.5144	187.5839	-345.4125	1	393.0618	-61.49485	1.64346E-005	0.001814	10
	26	116	751.7689	188.3164	-420.0187	1	460.3029	-65.85081	5.982331E-005	-0.0224367	8
	27	119	597.4265	196.9442	-530.8025	1	566.161	-69.64359	6.393543E-005	0.0036829	9
	28	123	477.4305	204.144	-648.2864	1	679.6691	-72.5209	-6.458222E-008	0.0006749	8
	29	125	376.6741	214.0354	-813.4744	1	841.1609	-75.25886	-6.786242E-008	0.0006731	8
	30	127	298.2954	226.2005	-1018.323	1	1043.144	-77.47621	-7.172022E-009	0.0006801	8
	31	130	237.7717	241.3347	-1267.225	1	1290.001	-79.21751	1.253233E-008	0.0006584	8
	32	132	189.0121	261.1531	-1581.665	1	1603.079	-80.62432	6.660652E-009	0.0006135	8
	33	134	150.2404	286.8038	-1974.55	1	1995.271	-81.73557	1.549118E-008	0.0006506	8
	34	137	119.1737	319.9419	-2472.687	1	2493.3	-82.62744	-2.547615E-008	0.0006879	8
	35	139	95.0169	365.3097	-3074.456	1	3096.083	-83.22383	-5.357508E-008	0.0006905	8
	36	142	75.60484	425.5589	-3831.889	1	3855.448	-83.66286	2.888322E-008	0.000607	8
	37	144	54.50582	556.9674	-5273.213	1	5302.545	-83.97066	-1.100548E-008	0.0005751	7
	38	147	45.95588	645.2248	-6203.727	1	6237.19	-84.06224	-3.873452E-009	0.0005763	7
	39	149	37.20238	785.795	-7591.481	1	7632.042	-84.09035	-8.599158E-009	0.0006715	7
	40	152	30.04808	967.018	-9302.47	1	9352.597	-84.06525	-3.099203E-009	0.0006006	7
	41	154	23.91582	1220.11	-11542.31	1	11606.62	-83.96581	-3.753686E-009	0.000618	7
	42	156	18.60119	1590.158	-14627.93	1	14714.11	-83.79591	-1.265674E-008	0.0006838	7
	43	159	15.02404	2029.244	-17908.63	1	18023.23	-83.53533	-9.457382E-009	0.0006931	7
	44	161	12.01923	2618.354	-22067.21	1	22222	-83.23328	-7.880523E-009	0.0006732	7
	45	164	9.450605	3495.298	-27649.04	1	27869.1	-82.79508	-6.466416E-009	0.0005856	7
	46	166	7.512019	4581.481	-34202.19	1	34507.68	-82.37048	-1.963382E-009	0.0006125	7
	47	169	5.978954	6094.074	-42202.61	1	42640.34	-81.78326	-3.429851E-009	0.0006462	7
	48	174	4.734848	8222.932	-52298.62	1	52941.12	-81.06451	-2.259797E-009	0.0007001	6
	49	177	3.75601	10968.43	-64490.23	1	65416.33	-80.34756	-1.794675E-009	0.0007106	6
	50	183	3.004808	14440.87	-78674.55	1	79988.89	-79.59902	-3.156337E-010	0.0006188	6
	51	189	2.372217	19469.52	-96782	1	98720.9	-78.62569	-1.298886E-009	0.0007138	6
	52	193	1.878005	25849.53	-118728.9	1	121510.3	-77.71731	-2.267876E-009	0.0006594	6
	53	198	1.512097	33200.79	-142473.9	1	146291.2	-76.88242	-1.344175E-009	0.0006336	6
	54	203	1.201923	43579.54	-173028.4	1	178432.1	-75.86331	-1.912599E-009	0.000651	6
	55	210	0.956633	56386.24	-208794.8	1	216274.5	-74.88744	-2.275997E-009	3.193313E-005	6
