EXPLAIN
TAG	EISPOT
TITLE	LABEL	Potentiostatic EIS	Test Identifier
DATE	LABEL	8/29/2020	Date
TIME	LABEL	11:10:59	Time
NOTES	NOTES	1	Notes...
	
PSTAT	PSTAT	REF3000-16137	Potentiostat
VDC	POTEN	0.00000E+000	T	DC Voltage (V)
FREQINIT	QUANT	3.00000E+005	Initial Freq. (Hz)
FREQFINAL	QUANT	1.00000E+000	Final Freq. (Hz)
PTSPERDEC	QUANT	1.00000E+001	Points/decade
VAC	QUANT	5.00000E+001	AC Voltage (mV rms)
AREA	QUANT	1.00000E+000	Sample Area (cm^2)
SPEED	SELECTOR	2	Optimize for:
ZGUESS	QUANT	1.00000E+003	Estimated Z (ohms)
EOC	QUANT	0	Open Circuit (V)
SEQUENCER	TOGGLE	TRUE	Run as Sequence
PSTATMODEL	IQUANT	5	Pstat Model
PSTATSECTION	LABEL	REF3000-16137	Pstat Section
PSTATSERIALNO	LABEL	16137	Pstat Serial Number
CTRLMODE	IQUANT	1	Control Mode
IESTAB	IQUANT	0	I/E Stability
CASPEED	IQUANT	1	Control Amp Speed
CONVENTION	IQUANT	1	Current Convention
ICHRANGE	IQUANT	2	Ich Range
ICHRANGEMODE	TOGGLE	F	Ich Auto Range
ICHOFFSETENABLE	TOGGLE	T	Ich Offset Enable
ICHOFFSET	QUANT	0	Ich Offset (V)
ICHFILTER	IQUANT	3	Ich Filter
VCHRANGE	IQUANT	2	Vch Range
VCHRANGEMODE	TOGGLE	F	Vch Auto Range
VCHOFFSETENABLE	TOGGLE	T	Vch Offset Enable
VCHOFFSET	QUANT	0	Vch Offset (V)
VCHFILTER	IQUANT	3	Vch Filter
ACHRANGE	IQUANT	2	Ach Range
ACHOFFSETENABLE	TOGGLE	F	Ach Offset Enable
ACHOFFSET	QUANT	0	Ach Offset (V)
ACHFILTER	IQUANT	3	Ach Filter
IERANGELOWERLIMIT	IQUANT	2	I/E Range Lower Limit
IERANGEMODE	TOGGLE	F	I/E AutoRange
IERANGE	IQUANT	11	I/E Range
POSFEEDENABLE	TOGGLE	F	Positive Feedback IR Comp
POSFEEDRESISTANCE	QUANT	0	Positive Feedback Resistance (ohm)
ACHSELECT	IQUANT	0	Ach Select
CABLEID	IQUANT	13	Cable ID
DCCALDATE	LABEL	7/31/2020	DC Calibration Date
ACCALDATE	LABEL	7/31/2020	AC Calibration Date
THERMOSELECT	IQUANT	1	Thermo Select
FRAMEWORKVERSION	QUANT	6.33	Framework Version
INSTRUMENTVERSION	LABEL	3.50	Instrument Version
COMPLIANCEVOLTAGE	IQUANT	0	Compliance Voltage
ZCURVE	TABLE
	Pt	Time	Freq	Zreal	Zimag	Zsig	Zmod	Zphz	Idc	Vdc	IERange
	#	s	Hz	ohm	ohm	V	ohm	°	A	V	#
	0	7	300046.9	31.1524	-2.269663	1	31.23497	-4.167023	0.0003808	-0.0007095	11
	1	11	238359.4	31.64974	-2.401474	1	31.74072	-4.339094	-0.000688	0.0010498	10
	2	16	189328.1	31.96427	-3.25252	1	32.12932	-5.810126	-0.0004477	0.0048112	10
	3	21	150421.9	32.38255	-4.145234	1	32.64679	-7.294661	0.0006795	-6.02441E-005	10
	4	26	119484.4	32.88225	-5.185846	1	33.28867	-8.962276	-0.000457	0.004819	10
	5	30	94921.88	33.45083	-6.201237	1	34.02078	-10.50247	4.356542E-005	-0.0003702	10
	6	33	75421.88	34.10056	-7.415079	1	34.89745	-12.26784	2.911367E-005	-0.0003205	10
	7	35	59859.37	34.85038	-8.684566	1	35.91616	-13.99287	0.0002461	0.0006642	10
	8	38	47578.12	35.62119	-10.2757	1	37.0737	-16.09134	-4.907491E-005	0.0016573	10
	9	41	37828.12	36.60858	-11.57465	1	38.3948	-17.54555	0.0001295	-0.0047494	9
	10	43	30046.88	37.56436	-13.71772	1	39.99071	-20.06114	-1.085139E-005	-0.0025567	9
	11	46	23859.38	38.52581	-16.18183	1	41.78623	-22.78365	3.082223E-005	-0.0037056	9
	12	48	18984.38	39.55484	-19.1425	1	43.94338	-25.82458	5.62904E-005	0.0012414	9
	13	50	15046.87	40.44524	-22.7945	1	46.42635	-29.40514	-0.0001284	0.0049603	9
	14	53	11953.13	41.29856	-27.34476	1	49.53087	-33.50949	0.0001111	-0.0051704	9
	15	55	9515.62	42.31181	-32.83577	1	53.55816	-37.81299	-1.534618E-005	-0.0024285	9
	16	57	7546.875	43.22713	-39.7319	1	58.71294	-42.58743	0.0001554	-0.0047558	9
	17	59	5928.309	44.12085	-49.38511	1	66.2234	-48.22227	-0.0001364	0.0052283	9
	18	62	4733.456	44.78116	-60.33883	1	75.14072	-53.41861	0.0001557	-0.0039605	9
	19	64	3796.875	46.13217	-74.0776	1	87.26779	-58.08722	-3.381545E-005	0.0041565	9
	20	66	2987.132	47.24818	-93.1191	1	104.4201	-63.09698	0.0001095	-0.0050951	9
	21	69	2390.625	48.33559	-114.7763	1	124.5389	-67.16264	-1.841561E-005	-0.0023747	9
	22	71	1884.191	50.5045	-144.1781	1	152.7679	-70.69503	0.0001579	-0.0039927	9
	23	74	1516.544	52.6508	-176.9843	1	184.6498	-73.43286	-1.84458E-005	-0.0023377	9
	24	77	1193.986	55.52953	-222.8748	1	229.6883	-76.00954	-0.0001349	0.005227	9
	25	81	946.5144	62.1744	-277.2216	1	284.1082	-77.35905	-0.0001051	0.0009538	9
	26	84	751.7689	63.50969	-351.0189	1	356.718	-79.74445	4.448011E-005	-0.0003643	10
	27	88	597.4265	71.37364	-432.885	1	438.7296	-80.63737	-3.225413E-005	0.0040801	9
	28	91	477.4305	78.90303	-536.919	1	542.6857	-81.63992	6.009635E-007	0.0006651	8
	29	94	376.6741	90.57281	-674.4601	1	680.5144	-82.35155	6.459512E-007	0.0006583	8
	30	96	298.2954	106.1908	-843.8397	1	850.4951	-82.82747	6.060502E-007	0.0006797	8
	31	98	237.7717	126.4453	-1048.393	1	1055.99	-83.12285	5.953535E-007	0.0006709	8
	32	101	189.0121	154.1951	-1305.148	1	1314.225	-83.26209	5.87005E-007	0.0006743	8
	33	103	150.2404	191.5443	-1623.297	1	1634.559	-83.27039	6.447053E-007	0.0006495	8
	34	106	119.1737	243.2732	-2019.378	1	2033.979	-83.13072	5.966423E-007	0.0006747	8
	35	108	95.0169	309.7685	-2501.506	1	2520.613	-82.94084	6.194972E-007	0.0006526	8
	36	110	75.60484	401.5082	-3099.373	1	3125.272	-82.61873	6.123825E-007	0.0006016	8
	37	113	54.50582	592.1642	-4203.077	1	4244.586	-81.98048	6.243757E-007	0.0006787	8
	38	116	45.95588	732.2192	-4926.422	1	4980.54	-81.54596	8.3112E-008	0.0006373	7
	39	118	37.20238	948.0405	-5976.42	1	6051.146	-80.98627	7.527112E-008	0.0006491	7
	40	120	30.04808	1236.076	-7253.326	1	7357.895	-80.32884	6.876597E-008	0.0006212	7
	41	123	23.91582	1641.849	-8895.62	1	9045.868	-79.54271	6.765667E-008	0.0006198	7
	42	125	18.60119	2259.713	-11135.97	1	11362.92	-78.52927	7.490905E-008	0.0006519	7
	43	127	15.02404	2989.841	-13423.27	1	13752.21	-77.44317	7.513952E-008	0.0006704	7
	44	130	12.01923	3977.126	-16253.93	1	16733.43	-76.25062	7.053258E-008	0.0006425	7
	45	132	9.450605	5373.832	-19849.7	1	20564.26	-74.85165	7.223801E-008	0.0006234	7
	46	135	7.512019	7173.547	-23978.36	1	25028.42	-73.34452	7.918737E-008	0.0006095	7
	47	138	5.978954	9492.758	-28720.01	1	30248.17	-71.70985	7.759196E-008	0.0006512	7
	48	142	4.734848	12574.3	-34359.94	1	36588.5	-69.89949	7.271963E-008	0.0006338	7
	49	145	3.75601	16629.04	-40645.37	1	43915.5	-67.74929	8.47989E-009	0.0007023	6
	50	151	3.004808	21477.88	-47513.75	1	52142.65	-65.67537	6.823278E-009	0.0006744	6
	51	157	2.372217	27945.41	-55509.04	1	62146.6	-63.27754	7.317886E-009	0.0006697	6
	52	162	1.878005	36121.01	-64069.67	1	73550.32	-60.5867	8.396029E-009	0.0005965	6
	53	166	1.512097	45105.17	-72353.63	1	85261.51	-58.06063	6.44107E-009	0.0007269	6
	54	172	1.201923	56623.3	-81128.74	1	98934.7	-55.08712	6.799723E-009	0.000659	6
	55	178	0.956633	69858.78	-89710.61	1	113702.4	-52.09166	-8.385039E-011	3.262528E-005	6
