EXPLAIN
TAG	EISPOT
TITLE	LABEL	Potentiostatic EIS	Test Identifier
DATE	LABEL	8/29/2020	Date
TIME	LABEL	11:29:56	Time
NOTES	NOTES	1	Notes...
	
PSTAT	PSTAT	REF3000-16137	Potentiostat
VDC	POTEN	0.00000E+000	T	DC Voltage (V)
FREQINIT	QUANT	3.00000E+005	Initial Freq. (Hz)
FREQFINAL	QUANT	1.00000E+000	Final Freq. (Hz)
PTSPERDEC	QUANT	1.00000E+001	Points/decade
VAC	QUANT	5.00000E+001	AC Voltage (mV rms)
AREA	QUANT	1.00000E+000	Sample Area (cm^2)
SPEED	SELECTOR	2	Optimize for:
ZGUESS	QUANT	1.00000E+003	Estimated Z (ohms)
EOC	QUANT	0	Open Circuit (V)
SEQUENCER	TOGGLE	TRUE	Run as Sequence
PSTATMODEL	IQUANT	5	Pstat Model
PSTATSECTION	LABEL	REF3000-16137	Pstat Section
PSTATSERIALNO	LABEL	16137	Pstat Serial Number
CTRLMODE	IQUANT	1	Control Mode
IESTAB	IQUANT	0	I/E Stability
CASPEED	IQUANT	1	Control Amp Speed
CONVENTION	IQUANT	1	Current Convention
ICHRANGE	IQUANT	2	Ich Range
ICHRANGEMODE	TOGGLE	F	Ich Auto Range
ICHOFFSETENABLE	TOGGLE	T	Ich Offset Enable
ICHOFFSET	QUANT	0	Ich Offset (V)
ICHFILTER	IQUANT	3	Ich Filter
VCHRANGE	IQUANT	2	Vch Range
VCHRANGEMODE	TOGGLE	F	Vch Auto Range
VCHOFFSETENABLE	TOGGLE	T	Vch Offset Enable
VCHOFFSET	QUANT	0	Vch Offset (V)
VCHFILTER	IQUANT	3	Vch Filter
ACHRANGE	IQUANT	2	Ach Range
ACHOFFSETENABLE	TOGGLE	F	Ach Offset Enable
ACHOFFSET	QUANT	0	Ach Offset (V)
ACHFILTER	IQUANT	3	Ach Filter
IERANGELOWERLIMIT	IQUANT	2	I/E Range Lower Limit
IERANGEMODE	TOGGLE	F	I/E AutoRange
IERANGE	IQUANT	11	I/E Range
POSFEEDENABLE	TOGGLE	F	Positive Feedback IR Comp
POSFEEDRESISTANCE	QUANT	0	Positive Feedback Resistance (ohm)
ACHSELECT	IQUANT	0	Ach Select
CABLEID	IQUANT	13	Cable ID
DCCALDATE	LABEL	7/31/2020	DC Calibration Date
ACCALDATE	LABEL	7/31/2020	AC Calibration Date
THERMOSELECT	IQUANT	1	Thermo Select
FRAMEWORKVERSION	QUANT	6.33	Framework Version
INSTRUMENTVERSION	LABEL	3.50	Instrument Version
COMPLIANCEVOLTAGE	IQUANT	0	Compliance Voltage
ZCURVE	TABLE
	Pt	Time	Freq	Zreal	Zimag	Zsig	Zmod	Zphz	Idc	Vdc	IERange
	#	s	Hz	ohm	ohm	V	ohm	°	A	V	#
	0	7	300046.9	49.26231	2.216755	1	49.31216	2.576515	-0.0003685	0.0185143	9
	1	11	238359.4	47.7379	-0.3832077	1	47.73943	-0.4599221	3.034226E-005	0.0075859	9
	2	14	189328.1	47.94978	-1.663555	1	47.97863	-1.987005	-0.0002027	0.0153913	9
	3	16	150421.9	48.29773	-3.07756	1	48.39568	-3.645993	0.0001209	0.0051511	9
	4	19	119484.4	48.75579	-4.731932	1	48.98487	-5.543408	-0.000281	0.0011793	9
	5	22	94921.88	49.24841	-6.103984	1	49.62524	-7.065366	0.0001391	-0.0064659	9
	6	24	75421.88	49.98709	-7.893653	1	50.60651	-8.973694	9.00523E-005	0.0011435	9
	7	27	59859.37	50.87244	-9.6571	1	51.78093	-10.74855	-0.0001338	0.0007269	9
	8	29	47578.12	51.88699	-11.62126	1	53.17249	-12.62434	-4.613663E-005	0.0051686	9
	9	32	37828.12	53.0595	-13.86648	1	54.8415	-14.64602	-4.692417E-005	0.0052085	9
	10	34	30046.88	54.35022	-16.37583	1	56.76366	-16.76766	-0.0001761	0.005606	9
	11	37	23859.38	55.6942	-19.36609	1	58.96515	-19.17368	-0.0001742	0.0053025	9
	12	39	18984.38	57.17066	-22.67636	1	61.50367	-21.63542	-4.540693E-005	0.0052623	9
	13	41	15046.87	58.78639	-26.70403	1	64.56737	-24.43017	0.0001903	-0.0047786	9
	14	44	11953.13	60.18098	-31.74572	1	68.04073	-27.81183	8.992864E-006	0.0038198	9
	15	46	9515.62	61.54737	-37.61847	1	72.13341	-31.43376	0.0001475	-0.006565	9
	16	48	7546.875	62.98398	-45.2266	1	77.53984	-35.68081	0.0001026	-0.0059652	9
	17	51	5928.309	64.52812	-55.20943	1	84.92326	-40.54987	0.0001214	-0.0004448	9
	18	54	4733.456	66.02848	-66.82027	1	93.93992	-45.34148	4.409595E-005	-0.0048726	9
	19	56	3796.875	67.06832	-81.28096	1	105.3791	-50.47253	8.444759E-005	0.0014221	9
	20	59	2987.132	68.78112	-101.041	1	122.2298	-55.75591	0.0001866	-0.0044893	9
	21	62	2390.625	70.07977	-124.3126	1	142.7053	-60.58839	1.69812E-005	0.0035201	9
	22	65	1884.191	72.56934	-155.4076	1	171.5163	-64.96925	0.0001707	-0.0062731	9
	23	68	1516.544	74.10122	-191.6115	1	205.4409	-68.8572	0.0001222	-0.0004465	9
	24	72	1193.986	77.34177	-239.5231	1	251.7003	-72.10478	6.816127E-005	0.0018107	9
	25	77	946.5144	82.26427	-300.4981	1	311.5551	-74.68983	-0.0001661	0.006294	9
	26	80	751.7689	83.68649	-377.2654	1	386.4357	-77.49294	-0.0001582	0.0019495	10
	27	85	597.4265	84.98563	-467.1401	1	474.8078	-79.68909	-0.0001012	0.0062758	9
	28	88	477.4305	97.96	-582.0833	1	590.2687	-80.44709	9.574952E-007	0.0000964	9
	29	90	376.6741	108.1196	-728.8311	1	736.807	-81.5619	4.675802E-007	0.0006634	8
	30	93	298.2954	121.3307	-913.3471	1	921.3707	-82.43303	4.220202E-007	0.0006729	8
	31	95	237.7717	138.3643	-1136.885	1	1145.274	-83.06096	4.122604E-007	0.0006831	8
	32	98	189.0121	161.5953	-1418.409	1	1427.585	-83.50048	4.790058E-007	0.0006352	8
	33	100	150.2404	192.9007	-1768.747	1	1779.235	-83.77589	4.485555E-007	0.0006486	8
	34	102	119.1737	236.8109	-2210.322	1	2222.971	-83.88474	4.473179E-007	0.0006453	8
	35	105	95.0169	292.2524	-2741.884	1	2757.415	-83.91592	4.8544E-007	0.0006485	8
	36	107	75.60484	368.0262	-3408.702	1	3428.512	-83.83784	4.778433E-007	0.0006368	8
	37	110	54.50582	527.0308	-4642.892	1	4672.709	-83.52388	4.895711E-007	0.0006439	8
	38	113	45.95588	645.1343	-5463.952	1	5501.906	-83.2662	5.617878E-008	0.0006583	7
	39	115	37.20238	823.8454	-6657.811	1	6708.589	-82.94601	5.781442E-008	0.0006119	7
	40	117	30.04808	1062.462	-8133.784	1	8202.882	-82.55797	5.019373E-008	0.0006128	7
	41	120	23.91582	1387.625	-10024.58	1	10120.16	-82.11906	4.933572E-008	0.000616	7
	42	122	18.60119	1900.493	-12635.21	1	12777.34	-81.44613	5.90549E-008	0.0006208	7
	43	124	15.02404	2481.16	-15366.67	1	15565.69	-80.82796	5.107807E-008	0.0006519	7
	44	127	12.01923	3291.427	-18800.76	1	19086.7	-80.06993	4.974532E-008	0.0006527	7
	45	129	9.450605	4467.327	-23299.67	1	23724.08	-79.1462	5.215557E-008	0.0006271	7
	46	132	7.512019	5961.681	-28479.12	1	29096.42	-78.17671	5.714635E-008	0.0005973	7
	47	135	5.978954	7961.875	-34669.61	1	35572.09	-77.06628	5.364434E-008	0.0006603	7
	48	139	4.734848	10623.93	-42274	1	43588.52	-75.89307	5.46168E-008	0.000652	7
	49	143	3.75601	14157.18	-51177.67	1	53099.71	-74.53706	4.148066E-009	0.0006478	6
	50	148	3.004808	18470.35	-61281.82	1	64004.81	-73.22719	5.064776E-009	0.0006193	6
	51	154	2.372217	24267.57	-73850.27	1	77735.3	-71.80921	3.156895E-009	0.0006399	6
	52	159	1.878005	31922.92	-88391.32	1	93979.24	-70.14259	2.880296E-009	0.0006808	6
	53	163	1.512097	40761.3	-103877.3	1	111588.4	-68.57504	3.080697E-009	0.0005656	6
	54	169	1.201923	52551.08	-122651.7	1	133435.6	-66.80692	1.792099E-009	0.0006898	6
	55	175	0.956633	67176.72	-143543.3	1	158484.7	-64.92092	7.595252E-010	3.483305E-005	6
