EXPLAIN
TAG	EISPOT
TITLE	LABEL	Potentiostatic EIS	Test Identifier
DATE	LABEL	8/29/2020	Date
TIME	LABEL	13:59:23	Time
NOTES	NOTES	1	Notes...
	
PSTAT	PSTAT	REF3000-16137	Potentiostat
VDC	POTEN	0.00000E+000	T	DC Voltage (V)
FREQINIT	QUANT	3.00000E+005	Initial Freq. (Hz)
FREQFINAL	QUANT	1.00000E+000	Final Freq. (Hz)
PTSPERDEC	QUANT	1.00000E+001	Points/decade
VAC	QUANT	5.00000E+001	AC Voltage (mV rms)
AREA	QUANT	1.00000E+000	Sample Area (cm^2)
SPEED	SELECTOR	2	Optimize for:
ZGUESS	QUANT	1.00000E+003	Estimated Z (ohms)
EOC	QUANT	0	Open Circuit (V)
SEQUENCER	TOGGLE	TRUE	Run as Sequence
PSTATMODEL	IQUANT	5	Pstat Model
PSTATSECTION	LABEL	REF3000-16137	Pstat Section
PSTATSERIALNO	LABEL	16137	Pstat Serial Number
CTRLMODE	IQUANT	1	Control Mode
IESTAB	IQUANT	0	I/E Stability
CASPEED	IQUANT	1	Control Amp Speed
CONVENTION	IQUANT	1	Current Convention
ICHRANGE	IQUANT	2	Ich Range
ICHRANGEMODE	TOGGLE	F	Ich Auto Range
ICHOFFSETENABLE	TOGGLE	T	Ich Offset Enable
ICHOFFSET	QUANT	0	Ich Offset (V)
ICHFILTER	IQUANT	3	Ich Filter
VCHRANGE	IQUANT	2	Vch Range
VCHRANGEMODE	TOGGLE	F	Vch Auto Range
VCHOFFSETENABLE	TOGGLE	T	Vch Offset Enable
VCHOFFSET	QUANT	0	Vch Offset (V)
VCHFILTER	IQUANT	3	Vch Filter
ACHRANGE	IQUANT	2	Ach Range
ACHOFFSETENABLE	TOGGLE	F	Ach Offset Enable
ACHOFFSET	QUANT	0	Ach Offset (V)
ACHFILTER	IQUANT	3	Ach Filter
IERANGELOWERLIMIT	IQUANT	2	I/E Range Lower Limit
IERANGEMODE	TOGGLE	F	I/E AutoRange
IERANGE	IQUANT	11	I/E Range
POSFEEDENABLE	TOGGLE	F	Positive Feedback IR Comp
POSFEEDRESISTANCE	QUANT	0	Positive Feedback Resistance (ohm)
ACHSELECT	IQUANT	0	Ach Select
CABLEID	IQUANT	13	Cable ID
DCCALDATE	LABEL	7/31/2020	DC Calibration Date
ACCALDATE	LABEL	7/31/2020	AC Calibration Date
THERMOSELECT	IQUANT	1	Thermo Select
FRAMEWORKVERSION	QUANT	6.33	Framework Version
INSTRUMENTVERSION	LABEL	3.50	Instrument Version
COMPLIANCEVOLTAGE	IQUANT	0	Compliance Voltage
ZCURVE	TABLE
	Pt	Time	Freq	Zreal	Zimag	Zsig	Zmod	Zphz	Idc	Vdc	IERange
	#	s	Hz	ohm	ohm	V	ohm	°	A	V	#
	0	7	300046.9	189.5056	-7.337136	1	189.6476	-2.217228	6.980383E-005	-0.0018433	9
	1	11	238359.4	184.5013	-7.757375	1	184.6643	-2.407589	-7.776136E-006	-0.0015926	9
	2	14	189328.1	180.6379	-7.880991	1	180.8098	-2.498154	6.942615E-005	-0.0016218	9
	3	16	150421.9	177.4734	-9.389139	1	177.7216	-3.028381	1.237383E-005	-0.0007182	9
	4	19	119484.4	174.0579	-10.15295	1	174.3537	-3.33833	-3.200947E-005	-0.0004599	9
	5	22	94921.88	171.2051	-11.5306	1	171.5929	-3.853033	1.719598E-005	-0.0006918	9
	6	24	75421.88	168.4703	-13.72182	1	169.0282	-4.656434	2.35093E-005	-0.000246	9
	7	27	59859.37	166.3209	-16.25595	1	167.1134	-5.582272	2.386615E-005	-0.0003164	9
	8	29	47578.12	164.4118	-19.12607	1	165.5205	-6.635412	-2.316386E-005	0.0006526	9
	9	32	37828.12	163.0219	-22.41356	1	164.5554	-7.828407	-2.023179E-005	0.0008926	9
	10	34	30046.88	162.0487	-26.20779	1	164.1543	-9.186776	-2.472506E-005	0.0006883	9
	11	37	23859.38	161.7472	-30.60313	1	164.6169	-10.71391	-6.859364E-006	0.0007351	9
	12	39	18984.38	161.9969	-35.49136	1	165.8392	-12.35749	-7.131841E-006	0.0007538	9
	13	41	15046.87	162.6205	-41.24481	1	167.7694	-14.23161	1.124307E-005	0.0001942	9
	14	44	11953.13	163.5363	-47.57748	1	170.3166	-16.22126	-1.764857E-005	0.0003466	9
	15	46	9515.62	164.6697	-54.83773	1	173.5607	-18.41861	1.940631E-005	-0.0007578	9
	16	48	7546.875	166.0481	-63.73121	1	177.8585	-20.99739	-1.570919E-005	0.0001825	9
	17	51	5928.309	167.6189	-74.88577	1	183.5864	-24.07329	-2.109985E-006	-0.0003027	9
	18	53	4733.456	169.0038	-87.56889	1	190.3434	-27.39082	2.260363E-005	-0.0002477	9
	19	55	3796.875	170.1746	-102.6026	1	198.7125	-31.08685	-1.981167E-005	0.0004657	9
	20	58	2987.132	171.4925	-123.5369	1	211.3553	-35.7676	-1.381974E-005	0.0008853	9
	21	60	2390.625	172.2827	-148.1735	1	227.2371	-40.69751	-1.371756E-005	0.0008484	9
	22	62	1884.191	173.729	-180.6172	1	250.6079	-46.11364	-1.762888E-005	0.0003908	9
	23	65	1516.544	174.1867	-218.7475	1	279.6274	-51.47	1.343967E-005	-0.0006662	9
	24	67	1193.986	175.6019	-271.4417	1	323.2903	-57.10024	2.560669E-006	0.0005226	9
	25	69	946.5144	177.1221	-335.8081	1	379.6569	-62.19058	2.51705E-005	-0.0005799	9
	26	72	751.7689	179.6592	-415.6729	1	452.837	-66.62538	2.291233E-005	-0.0002619	9
	27	74	597.4265	182.2551	-513.9478	1	545.3066	-70.47458	9.656812E-007	0.0018902	8
	28	77	477.4305	187.8535	-635.6868	1	662.8624	-73.53693	2.454364E-007	0.0006446	8
	29	79	376.6741	195.6803	-796.8951	1	820.5684	-76.2038	2.275304E-007	0.0006598	8
	30	81	298.2954	206.3892	-995.917	1	1017.077	-78.29202	2.400217E-007	0.0006469	8
	31	84	237.7717	220.7094	-1237.043	1	1256.578	-79.88391	2.599344E-007	0.000645	8
	32	86	189.0121	240.729	-1540.684	1	1559.378	-81.11945	2.497272E-007	0.0006521	8
	33	88	150.2404	268.4531	-1918.495	1	1937.186	-82.03438	2.552896E-007	0.0006479	8
	34	91	119.1737	307.0253	-2393.335	1	2412.948	-82.68983	2.550873E-007	0.0006481	8
	35	93	95.0169	358.2799	-2968.947	1	2990.487	-83.11906	2.680412E-007	0.0006496	8
	36	96	75.60484	429.0079	-3687.32	1	3712.193	-83.36366	2.63348E-007	0.0006541	8
	37	98	54.50582	579.1863	-5037.331	1	5070.519	-83.441	1.439495E-008	0.0006164	7
	38	101	45.95588	685.0629	-5911.985	1	5951.544	-83.39022	2.070559E-008	0.0006793	7
	39	103	37.20238	857.2352	-7205.224	1	7256.04	-83.21518	2.137069E-008	0.0006204	7
	40	106	30.04808	1091.168	-8792.694	1	8860.143	-82.9258	1.717044E-008	0.000631	7
	41	108	23.91582	1430.584	-10884.71	1	10978.32	-82.5125	1.910811E-008	0.0006175	7
	42	110	18.60119	1954.415	-13718.66	1	13857.17	-81.89197	2.280357E-008	0.0006332	7
	43	113	15.02404	2582.709	-16685.14	1	16883.85	-81.20097	2.315905E-008	0.0006229	7
	44	115	12.01923	3486.391	-20409.2	1	20704.84	-80.30605	2.268115E-008	0.0006275	7
	45	118	9.450605	4859.551	-25312.68	1	25774.93	-79.13253	2.1658E-008	0.0006231	7
	46	120	7.512019	6683.047	-30922.84	1	31636.77	-77.80479	2.371562E-008	0.0006214	7
	47	123	5.978954	9213.008	-37532.54	1	38646.75	-76.20845	2.04609E-008	0.0006288	7
	48	126	4.734848	12787.93	-45460.78	1	47225.14	-74.28893	-6.995914E-009	0.000694	6
	49	129	3.75601	17648.47	-54389.54	1	57181.2	-72.02264	-1.133139E-008	0.0006523	6
	50	133	3.004808	23853.77	-63976.7	1	68278.99	-69.55199	-1.151067E-008	0.0006816	6
	51	136	2.372217	32600.66	-74922.04	1	81707.5	-66.4848	-1.253307E-008	0.0007404	6
	52	141	1.878005	43511.06	-86012.36	1	96391.6	-63.16653	-1.513047E-008	0.0006489	6
	53	145	1.512097	55951.27	-95667.1	1	110827.5	-59.6786	-1.582248E-008	0.0007498	6
	54	151	1.201923	71744.67	-104600.9	1	126841	-55.55418	-1.657735E-008	0.0006405	6
	55	157	0.956633	89563.72	-110530.4	1	142262.5	-50.98185	-2.338173E-008	3.337875E-005	6
