EXPLAIN
TAG	EISPOT
TITLE	LABEL	Potentiostatic EIS	Test Identifier
DATE	LABEL	8/29/2020	Date
TIME	LABEL	12:48:49	Time
NOTES	NOTES	1	Notes...
	
PSTAT	PSTAT	REF3000-16137	Potentiostat
VDC	POTEN	0.00000E+000	T	DC Voltage (V)
FREQINIT	QUANT	3.00000E+005	Initial Freq. (Hz)
FREQFINAL	QUANT	1.00000E+000	Final Freq. (Hz)
PTSPERDEC	QUANT	1.00000E+001	Points/decade
VAC	QUANT	5.00000E+001	AC Voltage (mV rms)
AREA	QUANT	1.00000E+000	Sample Area (cm^2)
SPEED	SELECTOR	2	Optimize for:
ZGUESS	QUANT	1.00000E+003	Estimated Z (ohms)
EOC	QUANT	0	Open Circuit (V)
SEQUENCER	TOGGLE	TRUE	Run as Sequence
PSTATMODEL	IQUANT	5	Pstat Model
PSTATSECTION	LABEL	REF3000-16137	Pstat Section
PSTATSERIALNO	LABEL	16137	Pstat Serial Number
CTRLMODE	IQUANT	1	Control Mode
IESTAB	IQUANT	0	I/E Stability
CASPEED	IQUANT	1	Control Amp Speed
CONVENTION	IQUANT	1	Current Convention
ICHRANGE	IQUANT	2	Ich Range
ICHRANGEMODE	TOGGLE	F	Ich Auto Range
ICHOFFSETENABLE	TOGGLE	T	Ich Offset Enable
ICHOFFSET	QUANT	0	Ich Offset (V)
ICHFILTER	IQUANT	3	Ich Filter
VCHRANGE	IQUANT	2	Vch Range
VCHRANGEMODE	TOGGLE	F	Vch Auto Range
VCHOFFSETENABLE	TOGGLE	T	Vch Offset Enable
VCHOFFSET	QUANT	0	Vch Offset (V)
VCHFILTER	IQUANT	3	Vch Filter
ACHRANGE	IQUANT	2	Ach Range
ACHOFFSETENABLE	TOGGLE	F	Ach Offset Enable
ACHOFFSET	QUANT	0	Ach Offset (V)
ACHFILTER	IQUANT	3	Ach Filter
IERANGELOWERLIMIT	IQUANT	2	I/E Range Lower Limit
IERANGEMODE	TOGGLE	F	I/E AutoRange
IERANGE	IQUANT	11	I/E Range
POSFEEDENABLE	TOGGLE	F	Positive Feedback IR Comp
POSFEEDRESISTANCE	QUANT	0	Positive Feedback Resistance (ohm)
ACHSELECT	IQUANT	0	Ach Select
CABLEID	IQUANT	13	Cable ID
DCCALDATE	LABEL	7/31/2020	DC Calibration Date
ACCALDATE	LABEL	7/31/2020	AC Calibration Date
THERMOSELECT	IQUANT	1	Thermo Select
FRAMEWORKVERSION	QUANT	6.33	Framework Version
INSTRUMENTVERSION	LABEL	3.50	Instrument Version
COMPLIANCEVOLTAGE	IQUANT	0	Compliance Voltage
ZCURVE	TABLE
	Pt	Time	Freq	Zreal	Zimag	Zsig	Zmod	Zphz	Idc	Vdc	IERange
	#	s	Hz	ohm	ohm	V	ohm	°	A	V	#
	0	16	300046.9	540.4867	-2472.188	1	2530.581	-77.66765	-0.00072	0.0005195	10
	1	31	238359.4	538.2899	-2501.78	1	2559.035	-77.85721	0.000778	-0.0286616	9
	2	47	189328.1	809.8344	-3778.818	1	3864.621	-77.90398	0.0003549	-0.0019152	10
	3	56	150421.9	1688.24	-4318.99	1	4637.222	-68.65009	-0.0005363	0.0022937	9
	4	65	119484.4	2556.744	-5351.841	1	5931.2	-64.46472	-0.0001052	0.0177351	9
	5	74	94921.88	3037.875	-6191.742	1	6896.836	-63.86589	0.0003006	-0.0096359	9
	6	83	75421.88	4433.413	-7217.383	1	8470.288	-58.43889	-0.0001505	0.0107233	9
	7	91	59859.37	6343.584	-10271.26	1	12072.28	-58.30031	-0.0001426	-0.0021397	9
	8	101	47578.12	7578.961	-8590.753	1	11456.08	-48.58052	0.0002707	-0.0108492	9
	9	110	37828.12	9358.13	-9417.179	1	13276.21	-45.18019	-0.0002911	0.0071356	9
	10	121	30046.88	12606.14	-8011.033	1	14936.24	-32.43541	-0.0002159	0.0014702	9
	11	131	23859.38	15989.36	-6202.668	1	17150.3	-21.2025	-8.068161E-005	0.0592329	8
	12	139	18984.38	15531.69	-7904.017	1	17427.19	-26.97137	0.0001303	-0.0584513	8
	13	144	15046.87	19146.27	-7099.101	1	20420.01	-20.3439	-0.0002246	0.0114087	9
	14	152	11953.13	16586.04	-6987.517	1	17997.84	-22.84516	8.446818E-005	-0.000686	10
	15	161	9515.62	20114.58	-6073.598	1	21011.54	-16.80169	0.0003031	-0.0096785	9
	16	170	7546.875	22701.97	-5034.387	1	23253.48	-12.50356	-0.0002689	0.0106488	9
	17	177	5928.309	21853.68	-491.1114	1	21859.19	-1.287375	0.0002706	-0.0108546	9
	18	186	4733.456	24387.96	5114.198	1	24918.41	11.84341	0.0002845	-0.0050744	9
	19	195	3796.875	24059.91	-4008.07	1	24391.47	-9.457885	-4.970787E-005	-0.0056251	9
	20	204	2987.132	26061.38	-3440.893	1	26287.55	-7.521278	-0.000273	0.0108538	9
	21	212	2390.625	17691.89	2393.701	1	17853.09	7.705288	0.0002484	-0.0006703	10
	22	221	1884.191	24341.87	8040.843	1	25635.56	18.27993	0.0002708	-0.010878	9
	23	229	1516.544	19445.34	-7961.953	1	21012.24	-22.26679	4.073794E-005	0.0062568	9
	24	237	1193.986	32935.42	-2440.286	1	33025.7	-4.237477	-0.0000969	-0.0110766	8
	25	244	946.5144	51144.41	-23875.39	1	56442.76	-25.02425	-0.0002948	0.009383	9
	26	250	751.7689	15475.11	-9827.51	1	18331.91	-32.4177	-0.0002649	0.0045443	9
	27	256	597.4265	25329.03	-12708.7	1	28338.5	-26.64496	0.0002704	-0.0108153	9
	28	262	477.4305	30258.61	-3253.698	1	30433.04	-6.137414	3.887561E-007	5.537243E-005	9
	29	268	376.6741	45544.73	-4958.483	1	45813.85	-6.213356	-7.783182E-007	0.0007569	7
	30	271	298.2954	46140.09	-5925.075	1	46518.96	-7.317585	-7.736126E-007	0.000767	7
	31	273	237.7717	47196.48	-6837.365	1	47689.18	-8.243104	-7.677766E-007	0.0005945	7
	32	276	189.0121	48344.48	-8113.304	1	49020.55	-9.52676	-7.614296E-007	0.0005531	7
	33	279	150.2404	47704.77	-11218.68	1	49006.16	-13.23373	-7.725748E-007	0.000545	7
	34	282	119.1737	50368.65	-10920.36	1	51538.87	-12.2329	-7.763908E-007	0.0007521	7
	35	284	95.0169	52323.53	-12894.11	1	53888.87	-13.8436	-7.655129E-007	0.0005952	7
	36	287	75.60484	53786.2	-15151.03	1	55879.41	-15.73199	-7.716557E-007	0.0005098	7
	37	290	54.50582	56130.98	-18694.59	1	59162.28	-18.42049	-7.810019E-007	0.0007416	7
	38	293	45.95588	57684.32	-20209.52	1	61122.05	-19.30775	-7.552751E-008	0.0005406	6
	39	296	37.20238	59430.54	-23974.95	1	64084.22	-21.9697	-7.558154E-008	0.0005217	6
	40	298	30.04808	61150.23	-28397.94	1	67422.5	-24.90998	-7.549276E-008	0.0005207	6
	41	301	23.91582	62944.86	-34083.21	1	71580.17	-28.43453	-7.567491E-008	0.0007676	6
	42	304	18.60119	64673.49	-41801.61	1	77006.72	-32.87654	-7.938618E-008	0.0007935	6
	43	306	15.02404	66171.82	-50121.27	1	83011.16	-37.14179	-7.864338E-008	0.0006953	6
	44	309	12.01923	68251.66	-61166.9	1	91649.76	-41.86658	-7.959766E-008	0.0006827	6
	45	311	9.450605	71076.02	-76525.72	1	104441.3	-47.11449	-8.018971E-008	0.0005551	6
	46	314	7.512019	73554.03	-94506.19	1	119756.5	-52.10643	-8.322382E-008	0.0007706	6
	47	317	5.978954	76553.88	-116793.1	1	139646.5	-56.75653	-8.314603E-008	0.0008078	6
	48	321	4.734848	80306.48	-145757.5	1	166416.3	-61.14703	-8.290836E-008	0.0005631	6
	49	325	3.75601	84994.54	-181954.1	1	200826.7	-64.96175	-8.518979E-008	0.0007741	6
	50	330	3.004808	90437.67	-224880.4	1	242384.3	-68.09203	-8.356355E-008	0.0005568	6
	51	337	2.372217	96909.5	-282387.5	1	298553.4	-71.05885	-8.578559E-008	0.0007335	6
	52	341	1.878005	104935.5	-355141.4	1	370320	-73.53889	-8.651844E-008	0.0006291	6
	53	346	1.512097	113258.8	-432105.5	1	446702	-75.31265	-8.571546E-008	0.0006986	6
	54	351	1.201923	126047.9	-540906.9	1	555399.3	-76.88242	-8.62413E-008	0.0006255	6
	55	357	0.956633	139564	-672177.9	1	686513.9	-78.27036	-8.687148E-008	2.511188E-005	6
