EXPLAIN
TAG	EISPOT
TITLE	LABEL	Potentiostatic EIS	Test Identifier
DATE	LABEL	8/29/2020	Date
TIME	LABEL	11:52:24	Time
NOTES	NOTES	1	Notes...
	
PSTAT	PSTAT	REF3000-16137	Potentiostat
VDC	POTEN	0.00000E+000	T	DC Voltage (V)
FREQINIT	QUANT	3.00000E+005	Initial Freq. (Hz)
FREQFINAL	QUANT	1.00000E+000	Final Freq. (Hz)
PTSPERDEC	QUANT	1.00000E+001	Points/decade
VAC	QUANT	5.00000E+001	AC Voltage (mV rms)
AREA	QUANT	1.00000E+000	Sample Area (cm^2)
SPEED	SELECTOR	2	Optimize for:
ZGUESS	QUANT	1.00000E+003	Estimated Z (ohms)
EOC	QUANT	0	Open Circuit (V)
SEQUENCER	TOGGLE	TRUE	Run as Sequence
PSTATMODEL	IQUANT	5	Pstat Model
PSTATSECTION	LABEL	REF3000-16137	Pstat Section
PSTATSERIALNO	LABEL	16137	Pstat Serial Number
CTRLMODE	IQUANT	1	Control Mode
IESTAB	IQUANT	0	I/E Stability
CASPEED	IQUANT	1	Control Amp Speed
CONVENTION	IQUANT	1	Current Convention
ICHRANGE	IQUANT	2	Ich Range
ICHRANGEMODE	TOGGLE	F	Ich Auto Range
ICHOFFSETENABLE	TOGGLE	T	Ich Offset Enable
ICHOFFSET	QUANT	0	Ich Offset (V)
ICHFILTER	IQUANT	3	Ich Filter
VCHRANGE	IQUANT	2	Vch Range
VCHRANGEMODE	TOGGLE	F	Vch Auto Range
VCHOFFSETENABLE	TOGGLE	T	Vch Offset Enable
VCHOFFSET	QUANT	0	Vch Offset (V)
VCHFILTER	IQUANT	3	Vch Filter
ACHRANGE	IQUANT	2	Ach Range
ACHOFFSETENABLE	TOGGLE	F	Ach Offset Enable
ACHOFFSET	QUANT	0	Ach Offset (V)
ACHFILTER	IQUANT	3	Ach Filter
IERANGELOWERLIMIT	IQUANT	2	I/E Range Lower Limit
IERANGEMODE	TOGGLE	F	I/E AutoRange
IERANGE	IQUANT	11	I/E Range
POSFEEDENABLE	TOGGLE	F	Positive Feedback IR Comp
POSFEEDRESISTANCE	QUANT	0	Positive Feedback Resistance (ohm)
ACHSELECT	IQUANT	0	Ach Select
CABLEID	IQUANT	13	Cable ID
DCCALDATE	LABEL	7/31/2020	DC Calibration Date
ACCALDATE	LABEL	7/31/2020	AC Calibration Date
THERMOSELECT	IQUANT	1	Thermo Select
FRAMEWORKVERSION	QUANT	6.33	Framework Version
INSTRUMENTVERSION	LABEL	3.50	Instrument Version
COMPLIANCEVOLTAGE	IQUANT	0	Compliance Voltage
ZCURVE	TABLE
	Pt	Time	Freq	Zreal	Zimag	Zsig	Zmod	Zphz	Idc	Vdc	IERange
	#	s	Hz	ohm	ohm	V	ohm	°	A	V	#
	0	8	300046.9	102.0381	3.755713	1	102.1072	2.107931	-0.0006022	0.0195151	9
	1	17	238359.4	98.8265	1.769062	1	98.8423	1.025524	-0.0005756	0.0231358	9
	2	25	189328.1	99.0806	-1.568896	1	99.093	-0.9071766	-0.0002833	0.0216335	9
	3	29	150421.9	99.4693	-3.805368	1	99.542	-2.19088	-0.0003181	-0.0010389	9
	4	32	119484.4	99.8856	-5.635543	1	100.0444	-3.229203	0.0004978	-0.0079066	9
	5	36	94921.88	100.7819	-7.568735	1	101.0657	-4.294858	-0.0002227	0.0062605	9
	6	39	75421.88	101.5956	-9.91259	1	102.0781	-5.572658	-0.0001399	0.0081055	9
	7	41	59859.37	102.7454	-12.80302	1	103.54	-7.102969	0.0002345	-0.0067997	9
	8	44	47578.12	104.4073	-15.45678	1	105.5452	-8.421085	-8.448442E-005	0.0071842	9
	9	47	37828.12	106.0523	-18.8158	1	107.7085	-10.06073	0.0001438	-0.008225	9
	10	51	30046.88	108.1258	-21.985	1	110.3383	-11.49316	7.0955E-007	-0.0050576	9
	11	53	23859.38	110.4156	-25.99255	1	113.4338	-13.24662	0.000227	-0.0079174	9
	12	57	18984.38	112.8781	-30.56804	1	116.9439	-15.1526	0.0001412	-0.0080784	9
	13	60	15046.87	116.0515	-35.70334	1	121.4194	-17.10056	-0.0001907	0.0084043	9
	14	63	11953.13	118.9303	-41.5482	1	125.9789	-19.25682	-0.000217	0.0061199	9
	15	66	9515.62	122.0584	-49.07014	1	131.5528	-21.90121	0.0001361	0.0004577	9
	16	68	7546.875	125.6004	-57.60313	1	138.1796	-24.63724	-1.315139E-005	0.0057455	9
	17	71	5928.309	128.6406	-69.00259	1	145.9786	-28.20904	0.0002303	-0.0050273	9
	18	75	4733.456	132.1802	-81.81639	1	155.4526	-31.75653	-1.073815E-005	0.0057204	9
	19	79	3796.875	135.5109	-97.6403	1	167.0234	-35.77405	-1.183129E-005	0.0057426	9
	20	82	2987.132	138.8672	-118.8085	1	182.7555	-40.5488	7.734538E-005	-0.0070144	9
	21	86	2390.625	143.259	-144.2073	1	203.2704	-45.189	-8.633952E-005	0.0076469	9
	22	90	1884.191	146.1131	-177.0766	1	229.5761	-50.47258	0.0002368	-0.0066671	9
	23	95	1516.544	150.1035	-215.1521	1	262.3385	-55.09798	-0.000192	0.0084539	9
	24	99	1193.986	154.8365	-268.9329	1	310.3212	-60.06907	-0.000188	0.0025093	9
	25	105	946.5144	152.9099	-331.0913	1	364.6956	-65.21081	-0.0002456	0.0019066	10
	26	108	751.7689	161.6261	-420.3924	1	450.3918	-68.97	6.520332E-005	0.0033914	9
	27	112	597.4265	160.9944	-513.7484	1	538.3833	-72.60046	0.0001969	-0.0024364	9
	28	116	477.4305	177.7837	-638.8845	1	663.1595	-74.4496	7.645116E-007	9.123121E-005	9
	29	118	376.6741	187.2688	-798.8045	1	820.4622	-76.80606	2.00731E-008	0.0006683	8
	30	120	298.2954	199.2246	-1000.386	1	1020.031	-78.73703	1.698367E-008	0.0006974	8
	31	123	237.7717	214.358	-1245.493	1	1263.804	-80.23466	2.094137E-008	0.0006639	8
	32	125	189.0121	234.1397	-1554.94	1	1572.47	-81.43685	8.437911E-008	0.0006174	8
	33	127	150.2404	260.3373	-1941.585	1	1958.961	-82.36305	3.058761E-008	0.0006946	8
	34	130	119.1737	298.708	-2430.613	1	2448.899	-82.99382	1.178522E-007	0.000622	8
	35	132	95.0169	341.8825	-3022.366	1	3041.641	-83.54628	1.172336E-007	0.0006181	8
	36	135	75.60484	403.7355	-3766.322	1	3787.9	-83.88147	3.864647E-008	0.0006655	8
	37	137	54.50582	543.3645	-5168.359	1	5196.843	-83.99837	3.562477E-009	0.000584	7
	38	140	45.95588	629.7637	-6085.908	1	6118.405	-84.09212	5.14876E-009	0.000625	7
	39	142	37.20238	773.3604	-7439.413	1	7479.502	-84.06516	8.42588E-009	0.0005813	7
	40	145	30.04808	965.739	-9118.983	1	9169.979	-83.95467	8.448726E-009	0.0006079	7
	41	147	23.91582	1232.021	-11311.33	1	11378.23	-83.78389	-2.489565E-009	0.000653	7
	42	149	18.60119	1646.354	-14338.82	1	14433.03	-83.4501	-9.062918E-010	0.0006763	7
	43	152	15.02404	2070.908	-17509.84	1	17631.88	-83.2549	6.172747E-009	0.0006696	7
	44	154	12.01923	2713.288	-21573.44	1	21743.4	-82.83156	1.130117E-008	0.0005897	7
	45	157	9.450605	3592.049	-26977.21	1	27215.3	-82.41561	1.051272E-008	0.0006204	7
	46	159	7.512019	4754.807	-33343.15	1	33680.46	-81.88422	1.236742E-008	0.0006189	7
	47	162	5.978954	6330.075	-41079.5	1	41564.36	-81.24001	4.85652E-009	0.0006715	7
	48	167	4.734848	8554.704	-50790.27	1	51505.67	-80.43929	2.024593E-009	0.000654	6
	49	170	3.75601	11428.56	-62476.58	1	63513.27	-79.63375	9.717324E-010	0.0007361	6
	50	176	3.004808	15057.8	-76035.26	1	77511.92	-78.79825	6.607914E-010	0.0006375	6
	51	182	2.372217	20197.96	-93226.71	1	95389.6	-77.77556	1.632803E-010	0.0006492	6
	52	186	1.878005	26806.59	-114024.1	1	117132.8	-76.77024	1.005735E-009	0.0006548	6
	53	191	1.512097	34302.11	-136618.4	1	140858.9	-75.90555	8.749391E-011	0.0007469	6
	54	196	1.201923	44849.07	-165235.9	1	171214.3	-74.81438	6.817295E-010	0.0006733	6
	55	203	0.956633	57658.7	-198757.2	1	206951.6	-73.82276	-1.155972E-009	3.043872E-005	6
