EXPLAIN
TAG	EISPOT
TITLE	LABEL	Potentiostatic EIS	Test Identifier
DATE	LABEL	8/29/2020	Date
TIME	LABEL	13:01:13	Time
NOTES	NOTES	1	Notes...
	
PSTAT	PSTAT	REF3000-16137	Potentiostat
VDC	POTEN	0.00000E+000	T	DC Voltage (V)
FREQINIT	QUANT	3.00000E+005	Initial Freq. (Hz)
FREQFINAL	QUANT	1.00000E+000	Final Freq. (Hz)
PTSPERDEC	QUANT	1.00000E+001	Points/decade
VAC	QUANT	5.00000E+001	AC Voltage (mV rms)
AREA	QUANT	1.00000E+000	Sample Area (cm^2)
SPEED	SELECTOR	2	Optimize for:
ZGUESS	QUANT	1.00000E+003	Estimated Z (ohms)
EOC	QUANT	0	Open Circuit (V)
SEQUENCER	TOGGLE	TRUE	Run as Sequence
PSTATMODEL	IQUANT	5	Pstat Model
PSTATSECTION	LABEL	REF3000-16137	Pstat Section
PSTATSERIALNO	LABEL	16137	Pstat Serial Number
CTRLMODE	IQUANT	1	Control Mode
IESTAB	IQUANT	0	I/E Stability
CASPEED	IQUANT	1	Control Amp Speed
CONVENTION	IQUANT	1	Current Convention
ICHRANGE	IQUANT	2	Ich Range
ICHRANGEMODE	TOGGLE	F	Ich Auto Range
ICHOFFSETENABLE	TOGGLE	T	Ich Offset Enable
ICHOFFSET	QUANT	0	Ich Offset (V)
ICHFILTER	IQUANT	3	Ich Filter
VCHRANGE	IQUANT	2	Vch Range
VCHRANGEMODE	TOGGLE	F	Vch Auto Range
VCHOFFSETENABLE	TOGGLE	T	Vch Offset Enable
VCHOFFSET	QUANT	0	Vch Offset (V)
VCHFILTER	IQUANT	3	Vch Filter
ACHRANGE	IQUANT	2	Ach Range
ACHOFFSETENABLE	TOGGLE	F	Ach Offset Enable
ACHOFFSET	QUANT	0	Ach Offset (V)
ACHFILTER	IQUANT	3	Ach Filter
IERANGELOWERLIMIT	IQUANT	2	I/E Range Lower Limit
IERANGEMODE	TOGGLE	F	I/E AutoRange
IERANGE	IQUANT	11	I/E Range
POSFEEDENABLE	TOGGLE	F	Positive Feedback IR Comp
POSFEEDRESISTANCE	QUANT	0	Positive Feedback Resistance (ohm)
ACHSELECT	IQUANT	0	Ach Select
CABLEID	IQUANT	13	Cable ID
DCCALDATE	LABEL	7/31/2020	DC Calibration Date
ACCALDATE	LABEL	7/31/2020	AC Calibration Date
THERMOSELECT	IQUANT	1	Thermo Select
FRAMEWORKVERSION	QUANT	6.33	Framework Version
INSTRUMENTVERSION	LABEL	3.50	Instrument Version
COMPLIANCEVOLTAGE	IQUANT	0	Compliance Voltage
ZCURVE	TABLE
	Pt	Time	Freq	Zreal	Zimag	Zsig	Zmod	Zphz	Idc	Vdc	IERange
	#	s	Hz	ohm	ohm	V	ohm	°	A	V	#
	0	14	300046.9	75.15071	-4772.23	1	4772.822	-89.09781	-1.748301E-005	0.0016825	9
	1	28	238359.4	103.2107	-6138.917	1	6139.784	-89.0368	-1.472399E-005	0.0016565	9
	2	42	189328.1	232.0814	-7564.413	1	7567.973	-88.24268	5.396633E-007	-0.0019053	9
	3	51	150421.9	589.3681	-8687.403	1	8707.372	-86.1189	5.033741E-005	0.0001517	9
	4	58	119484.4	667.0697	-11415.2	1	11434.67	-86.65561	1.995246E-005	-0.0008274	9
	5	67	94921.88	1527.243	-14228.67	1	14310.4	-83.87358	8.217257E-006	-0.0077184	8
	6	75	75421.88	2178.792	-17778.02	1	17911.04	-83.01294	-2.499959E-005	0.0111956	8
	7	84	59859.37	2838.767	-22219.67	1	22400.27	-82.71938	1.74991E-005	0.00029	8
	8	93	47578.12	3981.939	-27902.25	1	28184.95	-81.87814	-9.480829E-006	-0.0021753	8
	9	101	37828.12	9380.506	-35600.7	1	36815.81	-75.23853	-5.36666E-006	0.0269136	7
	10	109	30046.88	7016.853	-42997.88	1	43566.66	-80.73156	8.470042E-006	0.0040801	8
	11	117	23859.38	15951.37	-52628.89	1	54993.15	-73.13838	-1.880953E-006	0.0223038	7
	12	122	18984.38	21269.69	-65105.98	1	68492.26	-71.90813	-3.266452E-006	-0.00532	7
	13	128	15046.87	29362.79	-79172.22	1	84441.77	-69.65157	-3.342129E-006	-0.0054674	7
	14	133	11953.13	42313.18	-95906.1	1	104825.5	-66.19324	-5.450574E-006	0.0267875	7
	15	139	9515.62	59032.42	-117951.6	1	131899.3	-63.41296	4.515844E-007	0.0163925	7
	16	144	7546.875	80022.63	-130927.8	1	153446.1	-58.56687	7.793245E-006	-0.0246222	7
	17	150	5928.309	107843.6	-152548.4	1	186818.8	-54.74174	7.711367E-006	-0.0244367	7
	18	157	4733.456	140117.2	-153164	1	207586.2	-47.54715	5.433636E-006	-0.0269168	7
	19	163	3796.875	179868.5	-161566.3	1	241777.5	-41.93166	-7.318475E-006	0.0236666	7
	20	170	2987.132	235609.1	-163773.3	1	286937.9	-34.8034	6.643237E-006	-0.010098	7
	21	176	2390.625	395562.6	-209633.2	1	447678.3	-27.9219	6.19303E-007	0.016185	7
	22	183	1884.191	296724.9	-129606.2	1	323795.3	-23.59519	6.152245E-007	-0.0072612	6
	23	188	1516.544	329379.9	-114851.5	1	348829.4	-19.22316	4.342447E-007	0.0020187	6
	24	193	1193.986	298011.5	-82762.7	1	309290.3	-15.52085	-1.795314E-006	0.0220929	7
	25	200	946.5144	371026.3	-90254.81	1	381846.1	-13.67206	6.820046E-006	-0.0268289	7
	26	205	751.7689	300008.2	-102637.6	1	317079.5	-18.88664	7.724123E-006	-0.0244211	7
	27	211	597.4265	247673.8	-44626.71	1	251662.2	-10.21415	-3.367871E-006	-0.005448	7
	28	217	477.4305	412743.5	-66633.3	1	418087.5	-9.170704	-7.64943E-008	0.0006739	7
	29	221	376.6741	421745	-51535.66	1	424882.1	-6.96679	-7.91096E-009	0.0006414	6
	30	224	298.2954	442270.5	-7286.321	1	442330.6	-0.9438515	-1.045654E-009	0.0006853	5
	31	226	237.7717	444941	-8700.834	1	445026.1	-1.120278	-1.014289E-009	0.0006476	5
	32	228	189.0121	447757.2	-10120.56	1	447871.6	-1.294823	-1.027539E-009	0.0006266	5
	33	231	150.2404	453461.5	-12938.93	1	453646.1	-1.634416	-9.246838E-010	0.0006046	5
	34	234	119.1737	450372.7	-20398.24	1	450834.4	-2.593262	-1.366223E-009	0.0006907	5
	35	236	95.0169	463530.7	-18319.42	1	463892.6	-2.263236	-1.248466E-009	0.0006445	5
	36	239	75.60484	469808.1	-22323.91	1	470338.2	-2.720482	-1.133099E-009	0.0006849	5
	37	241	54.50582	475535.6	-26217.97	1	476257.8	-3.155725	-8.758144E-010	0.0006914	5
	38	244	45.95588	483708.3	-33566.96	1	484871.6	-3.96968	-5.059866E-010	0.000671	5
	39	246	37.20238	491207.4	-39857.62	1	492821.8	-4.638939	-7.928528E-010	0.0005948	5
	40	248	30.04808	499953.5	-46740.06	1	502133.6	-5.340991	-1.285143E-009	0.0006121	5
	41	251	23.91582	510562.2	-55771.81	1	513599.3	-6.234048	-9.564013E-010	0.0006896	5
	42	254	18.60119	521566.8	-68112.57	1	525995.5	-7.440277	-1.49821E-009	0.0006962	5
	43	256	15.02404	532913.2	-78366.13	1	538644.3	-8.365521	-6.654519E-010	0.0006399	5
	44	259	12.01923	546554.1	-91609.78	1	554178.4	-9.51509	-1.959123E-009	0.0005934	5
	45	261	9.450605	560242.3	-107733.8	1	570506.8	-10.88502	-2.52689E-009	0.0006076	5
	46	264	7.512019	577048.7	-127306.1	1	590924.8	-12.44107	-1.810524E-009	0.0006144	5
	47	267	5.978954	598059	-149374.5	1	616431.1	-14.02359	-1.207039E-009	0.0006929	5
	48	271	4.734848	620757.1	-174573.4	1	644837.4	-15.7074	-9.061115E-010	0.0005966	5
	49	275	3.75601	646881.6	-205971	1	678881.3	-17.66179	-6.481974E-010	0.0006333	5
	50	280	3.004808	677168.8	-241707.2	1	719013.1	-19.64341	-9.744092E-010	0.0006345	5
	51	287	2.372217	709926.3	-286138.6	1	765421.8	-21.9521	-4.516289E-010	0.0007013	5
	52	291	1.878005	737947.9	-341083.6	1	812960.8	-24.80664	-7.862362E-010	0.0006216	5
	53	296	1.512097	768740.9	-403625.6	1	868260.4	-27.70161	-8.341714E-010	0.0008041	5
	54	301	1.201923	804696.1	-488077.6	1	941145.9	-31.23835	-7.661187E-010	0.0006228	5
	55	307	0.956633	843324.6	-592141.5	1	1030450	-35.07467	-1.045806E-009	1.198227E-005	5
