EXPLAIN
TAG	EISPOT
TITLE	LABEL	Potentiostatic EIS	Test Identifier
DATE	LABEL	8/29/2020	Date
TIME	LABEL	13:55:30	Time
NOTES	NOTES	1	Notes...
	
PSTAT	PSTAT	REF3000-16137	Potentiostat
VDC	POTEN	0.00000E+000	T	DC Voltage (V)
FREQINIT	QUANT	3.00000E+005	Initial Freq. (Hz)
FREQFINAL	QUANT	1.00000E+000	Final Freq. (Hz)
PTSPERDEC	QUANT	1.00000E+001	Points/decade
VAC	QUANT	5.00000E+001	AC Voltage (mV rms)
AREA	QUANT	1.00000E+000	Sample Area (cm^2)
SPEED	SELECTOR	2	Optimize for:
ZGUESS	QUANT	1.00000E+003	Estimated Z (ohms)
EOC	QUANT	0	Open Circuit (V)
SEQUENCER	TOGGLE	TRUE	Run as Sequence
PSTATMODEL	IQUANT	5	Pstat Model
PSTATSECTION	LABEL	REF3000-16137	Pstat Section
PSTATSERIALNO	LABEL	16137	Pstat Serial Number
CTRLMODE	IQUANT	1	Control Mode
IESTAB	IQUANT	0	I/E Stability
CASPEED	IQUANT	1	Control Amp Speed
CONVENTION	IQUANT	1	Current Convention
ICHRANGE	IQUANT	2	Ich Range
ICHRANGEMODE	TOGGLE	F	Ich Auto Range
ICHOFFSETENABLE	TOGGLE	T	Ich Offset Enable
ICHOFFSET	QUANT	0	Ich Offset (V)
ICHFILTER	IQUANT	3	Ich Filter
VCHRANGE	IQUANT	2	Vch Range
VCHRANGEMODE	TOGGLE	F	Vch Auto Range
VCHOFFSETENABLE	TOGGLE	T	Vch Offset Enable
VCHOFFSET	QUANT	0	Vch Offset (V)
VCHFILTER	IQUANT	3	Vch Filter
ACHRANGE	IQUANT	2	Ach Range
ACHOFFSETENABLE	TOGGLE	F	Ach Offset Enable
ACHOFFSET	QUANT	0	Ach Offset (V)
ACHFILTER	IQUANT	3	Ach Filter
IERANGELOWERLIMIT	IQUANT	2	I/E Range Lower Limit
IERANGEMODE	TOGGLE	F	I/E AutoRange
IERANGE	IQUANT	11	I/E Range
POSFEEDENABLE	TOGGLE	F	Positive Feedback IR Comp
POSFEEDRESISTANCE	QUANT	0	Positive Feedback Resistance (ohm)
ACHSELECT	IQUANT	0	Ach Select
CABLEID	IQUANT	13	Cable ID
DCCALDATE	LABEL	7/31/2020	DC Calibration Date
ACCALDATE	LABEL	7/31/2020	AC Calibration Date
THERMOSELECT	IQUANT	1	Thermo Select
FRAMEWORKVERSION	QUANT	6.33	Framework Version
INSTRUMENTVERSION	LABEL	3.50	Instrument Version
COMPLIANCEVOLTAGE	IQUANT	0	Compliance Voltage
ZCURVE	TABLE
	Pt	Time	Freq	Zreal	Zimag	Zsig	Zmod	Zphz	Idc	Vdc	IERange
	#	s	Hz	ohm	ohm	V	ohm	°	A	V	#
	0	18	300046.9	2329.483	-1803.218	1	2945.86	-37.74292	-1.288277E-007	0.0015808	9
	1	34	238359.4	2226.198	-1029.367	1	2452.663	-24.81525	8.907323E-005	-0.0026352	9
	2	49	189328.1	1988.408	-574.6185	1	2069.771	-16.11846	7.809417E-005	-0.0016105	9
	3	58	150421.9	1761.935	-332.1426	1	1792.968	-10.67556	2.489409E-005	0.0010922	9
	4	66	119484.4	1616.931	-176.784	1	1626.566	-6.23954	3.510131E-005	-0.0165874	8
	5	73	94921.88	1498.36	-126.728	1	1503.71	-4.834444	-1.461047E-005	0.0012868	8
	6	76	75421.88	1418.308	-96.8524	1	1421.611	-3.90651	-8.590167E-006	0.0081009	8
	7	79	59859.37	1354.243	-83.15306	1	1356.793	-3.513658	2.210697E-005	-0.0061014	8
	8	82	47578.12	1295.793	-69.74768	1	1297.669	-3.081044	-1.47273E-005	0.008903	8
	9	85	37828.12	1237.788	-64.98242	1	1239.493	-3.005203	1.503178E-005	-0.0001367	8
	10	87	30046.88	1188.774	-61.72671	1	1190.376	-2.972394	7.578765E-006	0.0029361	8
	11	90	23859.38	1147.145	-65.69593	1	1149.025	-3.277696	-1.820371E-005	0.0086394	8
	12	94	18984.38	1058.708	-72.31945	1	1061.176	-3.907754	1.443092E-005	-0.0002207	8
	13	100	15046.87	995.157	-81.45025	1	998.485	-4.679036	4.522116E-006	-0.0051354	8
	14	102	11953.13	965.556	-92.90153	1	970.015	-5.495827	-1.309727E-005	0.0082665	8
	15	105	9515.62	932.9783	-105.631	1	938.939	-6.459469	9.452902E-008	0.005229	8
	16	108	7546.875	905.7789	-122.865	1	914.074	-7.724776	1.848935E-005	-0.0064394	8
	17	112	5928.309	872.8001	-144.3703	1	884.6597	-9.392277	1.394263E-005	-0.0002914	8
	18	114	4733.456	853.076	-162.1644	1	868.3525	-10.76315	-1.540637E-005	0.0029016	8
	19	117	3796.875	835.8426	-187.0632	1	856.5194	-12.61503	1.88291E-005	-0.0037629	8
	20	120	2987.132	822.3773	-215.2703	1	850.0858	-14.66895	4.18765E-006	-0.0046606	8
	21	123	2390.625	812.0558	-245.1095	1	848.2413	-16.79582	9.75798E-006	-0.0056188	8
	22	125	1884.191	807.0527	-283.8803	1	855.5244	-19.3793	-1.155213E-005	0.007426	8
	23	128	1516.544	794.5825	-329.2014	1	860.0784	-22.50459	-1.144802E-005	0.0073601	8
	24	131	1193.986	782.4511	-385.4511	1	872.2398	-26.22578	3.804923E-006	-0.0043711	8
	25	134	946.5144	773.6595	-453.4601	1	896.7581	-30.37557	-1.105401E-005	0.0072395	8
	26	136	751.7689	766.4116	-540.3354	1	937.7361	-35.1846	-2.210067E-006	-0.0024362	8
	27	139	597.4265	759.7848	-654.1843	1	1002.612	-40.72887	1.587784E-005	-0.0054752	8
	28	141	477.4305	756.3484	-788.1422	1	1092.351	-46.17928	-4.104302E-008	0.0006409	8
	29	144	376.6741	757.1	-968.112	1	1229	-51.97324	-7.098574E-008	0.0006565	8
	30	146	298.2954	760.4	-1190.559	1	1412.671	-57.43397	-3.634458E-008	0.000645	8
	31	148	237.7717	765.7033	-1460.066	1	1648.664	-62.32611	-4.799867E-008	0.0006522	8
	32	151	189.0121	775.8734	-1799.989	1	1960.086	-66.68185	-4.717323E-008	0.0006457	8
	33	153	150.2404	791.6624	-2223.971	1	2360.673	-70.4059	-1.340025E-008	0.0006441	8
	34	156	119.1737	815.9198	-2758.891	1	2877.013	-73.52484	-3.901103E-009	0.000639	8
	35	158	95.0169	849.7347	-3408.699	1	3513.015	-76.00237	-2.501556E-008	0.0006434	8
	36	161	75.60484	900.1555	-4232.2	1	4326.869	-77.99257	-1.2668E-008	0.0006086	7
	37	163	54.50582	1012.015	-5763.653	1	5851.827	-80.0412	-1.337374E-008	0.0006208	7
	38	166	45.95588	1084.458	-6764.863	1	6851.235	-80.89255	-1.42996E-008	0.0006365	7
	39	168	37.20238	1207.644	-8251.691	1	8339.593	-81.67381	-1.367842E-008	0.0006269	7
	40	170	30.04808	1373.224	-10087.89	1	10180.93	-82.24821	-1.076871E-008	0.0005979	7
	41	173	23.91582	1614.535	-12506.05	1	12609.83	-82.64378	-1.422278E-008	0.0006253	7
	42	175	18.60119	1978.611	-15824.62	1	15947.84	-82.87309	-1.235007E-008	0.0006312	7
	43	179	15.02404	2390.706	-19301.97	1	19449.46	-82.93941	-1.097375E-008	0.000641	7
	44	181	12.01923	2993.615	-23768.36	1	23956.14	-82.82142	-8.876003E-009	0.0006031	7
	45	183	9.450605	3875.922	-29729.87	1	29981.46	-82.57217	-6.519838E-009	0.0006204	7
	46	186	7.512019	5050.7	-36718.72	1	37064.46	-82.16805	-7.775384E-009	0.0006409	7
	47	190	5.978954	6700.003	-45163	1	45657.27	-81.56162	-1.441491E-010	0.000658	6
	48	193	4.734848	9012.311	-55772.63	1	56496.08	-80.82091	-1.596501E-009	0.000656	6
	49	196	3.75601	12211.27	-68467.64	1	69548.06	-79.88757	-7.991527E-010	0.0006817	6
	50	199	3.004808	16452.3	-83048.52	1	84662.47	-78.79453	-1.856933E-009	0.0006823	6
	51	203	2.372217	22648.35	-101273.5	1	103775.1	-77.39406	-1.515993E-009	0.0006709	6
	52	207	1.878005	31168.63	-122797.3	1	126691.2	-75.75785	-1.134256E-009	0.000693	6
	53	212	1.512097	41289.04	-145162.3	1	150920.1	-74.12247	-1.821912E-009	0.0007411	6
	54	217	1.201923	55836.65	-171971.6	1	180809.2	-72.01215	-1.50624E-009	0.0006646	6
	55	224	0.956633	73999.79	-201068.1	1	214253	-69.79469	-4.222578E-009	5.051281E-005	6
