EXPLAIN
TAG	EISPOT
TITLE	LABEL	Potentiostatic EIS	Test Identifier
DATE	LABEL	8/29/2020	Date
TIME	LABEL	14:02:10	Time
NOTES	NOTES	1	Notes...
	
PSTAT	PSTAT	REF3000-16137	Potentiostat
VDC	POTEN	0.00000E+000	T	DC Voltage (V)
FREQINIT	QUANT	3.00000E+005	Initial Freq. (Hz)
FREQFINAL	QUANT	1.00000E+000	Final Freq. (Hz)
PTSPERDEC	QUANT	1.00000E+001	Points/decade
VAC	QUANT	5.00000E+001	AC Voltage (mV rms)
AREA	QUANT	1.00000E+000	Sample Area (cm^2)
SPEED	SELECTOR	2	Optimize for:
ZGUESS	QUANT	1.00000E+003	Estimated Z (ohms)
EOC	QUANT	0	Open Circuit (V)
SEQUENCER	TOGGLE	TRUE	Run as Sequence
PSTATMODEL	IQUANT	5	Pstat Model
PSTATSECTION	LABEL	REF3000-16137	Pstat Section
PSTATSERIALNO	LABEL	16137	Pstat Serial Number
CTRLMODE	IQUANT	1	Control Mode
IESTAB	IQUANT	0	I/E Stability
CASPEED	IQUANT	1	Control Amp Speed
CONVENTION	IQUANT	1	Current Convention
ICHRANGE	IQUANT	2	Ich Range
ICHRANGEMODE	TOGGLE	F	Ich Auto Range
ICHOFFSETENABLE	TOGGLE	T	Ich Offset Enable
ICHOFFSET	QUANT	0	Ich Offset (V)
ICHFILTER	IQUANT	3	Ich Filter
VCHRANGE	IQUANT	2	Vch Range
VCHRANGEMODE	TOGGLE	F	Vch Auto Range
VCHOFFSETENABLE	TOGGLE	T	Vch Offset Enable
VCHOFFSET	QUANT	0	Vch Offset (V)
VCHFILTER	IQUANT	3	Vch Filter
ACHRANGE	IQUANT	2	Ach Range
ACHOFFSETENABLE	TOGGLE	F	Ach Offset Enable
ACHOFFSET	QUANT	0	Ach Offset (V)
ACHFILTER	IQUANT	3	Ach Filter
IERANGELOWERLIMIT	IQUANT	2	I/E Range Lower Limit
IERANGEMODE	TOGGLE	F	I/E AutoRange
IERANGE	IQUANT	11	I/E Range
POSFEEDENABLE	TOGGLE	F	Positive Feedback IR Comp
POSFEEDRESISTANCE	QUANT	0	Positive Feedback Resistance (ohm)
ACHSELECT	IQUANT	0	Ach Select
CABLEID	IQUANT	13	Cable ID
DCCALDATE	LABEL	7/31/2020	DC Calibration Date
ACCALDATE	LABEL	7/31/2020	AC Calibration Date
THERMOSELECT	IQUANT	1	Thermo Select
FRAMEWORKVERSION	QUANT	6.33	Framework Version
INSTRUMENTVERSION	LABEL	3.50	Instrument Version
COMPLIANCEVOLTAGE	IQUANT	0	Compliance Voltage
ZCURVE	TABLE
	Pt	Time	Freq	Zreal	Zimag	Zsig	Zmod	Zphz	Idc	Vdc	IERange
	#	s	Hz	ohm	ohm	V	ohm	°	A	V	#
	0	7	300046.9	64.25712	-1.641249	1	64.27808	-1.463125	-8.707684E-006	0.0004147	9
	1	10	238359.4	63.59564	-2.807623	1	63.65759	-2.527855	9.1249E-006	-0.0010563	9
	2	14	189328.1	63.04651	-4.0006	1	63.17331	-3.630821	-1.075925E-005	0.0005615	9
	3	16	150421.9	62.81199	-5.088748	1	63.01778	-4.631733	-2.989983E-005	-0.0001137	9
	4	19	119484.4	62.4804	-6.3879	1	62.8061	-5.837549	5.348986E-006	-0.0010586	9
	5	21	94921.88	62.53059	-7.566391	1	62.98671	-6.89942	-1.692768E-005	0.0005545	9
	6	24	75421.88	62.59792	-9.235357	1	63.27552	-8.392566	-1.569146E-005	0.0006342	9
	7	26	59859.37	62.81354	-11.09189	1	63.78535	-10.0143	-1.055254E-005	0.0001293	9
	8	29	47578.12	63.20322	-13.09906	1	64.54636	-11.70895	1.56283E-005	-0.0005727	9
	9	31	37828.12	63.79052	-15.31774	1	65.60384	-13.50254	-1.611498E-005	0.0007041	9
	10	34	30046.88	64.50716	-17.83685	1	66.92778	-15.45663	-1.51565E-005	0.0004405	9
	11	36	23859.38	65.39461	-20.75843	1	68.61025	-17.61117	2.235756E-005	-0.0004669	9
	12	39	18984.38	66.39722	-24.09812	1	70.63506	-19.94779	3.160836E-006	0.0003294	9
	13	41	15046.87	67.43231	-28.0649	1	73.03941	-22.59677	-6.213012E-006	-3.707951E-005	9
	14	43	11953.13	68.49289	-32.918	1	75.99257	-25.66916	4.040142E-006	-0.0003404	9
	15	46	9515.62	69.47081	-38.76212	1	79.55309	-29.15988	-1.474325E-005	0.0006043	9
	16	48	7546.875	70.44576	-46.23422	1	84.26273	-33.27727	1.55071E-005	-7.508688E-005	9
	17	50	5928.309	71.32011	-55.9166	1	90.62685	-38.09726	-1.607409E-005	0.0004646	9
	18	53	4733.456	72.03773	-67.47761	1	98.7049	-43.12793	-1.65756E-005	0.0005724	9
	19	55	3796.875	72.73186	-81.51734	1	109.2474	-48.25984	1.781871E-005	-0.0005305	9
	20	57	2987.132	73.61817	-101.1433	1	125.0983	-53.95061	-3.276609E-006	0.0005391	9
	21	60	2390.625	74.44476	-123.9971	1	144.6282	-59.02045	1.036916E-005	5.631735E-005	9
	22	62	1884.191	76.25957	-154.6807	1	172.4576	-63.75611	-1.273404E-005	0.0002279	9
	23	64	1516.544	77.33114	-189.6572	1	204.8169	-67.81723	-1.521368E-005	0.0006407	9
	24	67	1193.986	79.55578	-238.0191	1	250.9626	-71.51825	2.056771E-005	-0.0003871	9
	25	69	946.5144	83.06673	-296.5983	1	308.0108	-74.35431	1.976271E-005	-0.000477	9
	26	72	751.7689	85.78897	-370.2841	1	380.0921	-76.95562	3.938148E-006	0.0003311	9
	27	74	597.4265	91.68352	-458.8126	1	467.8834	-78.69955	-2.568346E-006	0.0010537	8
	28	76	477.4305	98.6675	-568.7711	1	577.2659	-80.15856	3.866402E-007	0.0006487	8
	29	80	376.6741	108.7391	-713.3447	1	721.585	-81.33281	3.728485E-007	0.0006487	8
	30	82	298.2954	122.6207	-891.8641	1	900.2541	-82.17159	3.989319E-007	0.0006563	8
	31	84	237.7717	140.9649	-1107.542	1	1116.477	-82.74655	3.936627E-007	0.0006513	8
	32	87	189.0121	166.3271	-1378.445	1	1388.443	-83.11979	3.907805E-007	0.0006494	8
	33	89	150.2404	201.0478	-1714.575	1	1726.322	-83.31215	4.018731E-007	0.0006509	8
	34	92	119.1737	249.1474	-2135.46	1	2149.945	-83.3453	3.878501E-007	0.000669	8
	35	94	95.0169	313.8867	-2644.498	1	2663.061	-83.23099	3.977852E-007	0.0006586	8
	36	96	75.60484	403.6379	-3278.481	1	3303.235	-82.98122	4.097073E-007	0.0006463	8
	37	99	54.50582	596.2525	-4452.88	1	4492.623	-82.37331	4.064595E-007	0.0006512	8
	38	102	45.95588	739.4138	-5225.13	1	5277.188	-81.9455	1.448903E-008	0.0006276	7
	39	104	37.20238	972.134	-6346.092	1	6420.119	-81.29078	1.005875E-008	0.0006297	7
	40	106	30.04808	1291.582	-7711.96	1	7819.368	-80.49246	1.114396E-009	0.000629	7
	41	109	23.91582	1768.872	-9489.784	1	9653.23	-79.44138	-2.536534E-010	0.0006263	7
	42	111	18.60119	2493.367	-11839.43	1	12099.13	-78.10738	1.015074E-008	0.0006354	7
	43	113	15.02404	3367.254	-14245.4	1	14637.96	-76.70082	1.125235E-008	0.0006331	7
	44	116	12.01923	4616.17	-17196.93	1	17805.71	-74.9743	3.744253E-009	0.0006297	7
	45	118	9.450605	6470.753	-20926.24	1	21903.84	-72.8175	2.373106E-009	0.0006171	7
	46	121	7.512019	8871.352	-24942.44	1	26473.12	-70.42091	6.186395E-009	0.0006227	7
	47	123	5.978954	12093.2	-29388.02	1	31778.95	-67.63278	3.743895E-009	0.0006327	7
	48	127	4.734848	16407.43	-34253.84	1	37980.65	-64.4058	5.068267E-009	0.0006209	7
	49	130	3.75601	21772.14	-39160.64	1	44806.05	-60.92726	-4.644997E-008	0.000672	6
	50	133	3.004808	28088.7	-43566.41	1	51836.35	-57.1888	-4.413369E-008	0.0006574	6
	51	137	2.372217	35865.66	-47994.77	1	59915.3	-53.22987	-4.897676E-008	0.0006492	6
	52	141	1.878005	44739.1	-51133.27	1	67942.62	-48.81567	-5.183808E-008	0.0006713	6
	53	146	1.512097	53168.32	-52607.8	1	74796.06	-44.69639	-5.059503E-008	0.0005736	6
	54	157	1.201923	62170.31	-53136.85	1	81784.3	-40.52045	-5.031983E-008	0.0006763	6
	55	170	0.956633	70999.5	-52796.29	1	88478.12	-36.63504	-5.479588E-008	3.557628E-005	6
