EXPLAIN
TAG	EISPOT
TITLE	LABEL	Potentiostatic EIS	Test Identifier
DATE	LABEL	8/29/2020	Date
TIME	LABEL	12:11:52	Time
NOTES	NOTES	1	Notes...
	
PSTAT	PSTAT	REF3000-16137	Potentiostat
VDC	POTEN	0.00000E+000	T	DC Voltage (V)
FREQINIT	QUANT	3.00000E+005	Initial Freq. (Hz)
FREQFINAL	QUANT	1.00000E+000	Final Freq. (Hz)
PTSPERDEC	QUANT	1.00000E+001	Points/decade
VAC	QUANT	5.00000E+001	AC Voltage (mV rms)
AREA	QUANT	1.00000E+000	Sample Area (cm^2)
SPEED	SELECTOR	2	Optimize for:
ZGUESS	QUANT	1.00000E+003	Estimated Z (ohms)
EOC	QUANT	0	Open Circuit (V)
SEQUENCER	TOGGLE	TRUE	Run as Sequence
PSTATMODEL	IQUANT	5	Pstat Model
PSTATSECTION	LABEL	REF3000-16137	Pstat Section
PSTATSERIALNO	LABEL	16137	Pstat Serial Number
CTRLMODE	IQUANT	1	Control Mode
IESTAB	IQUANT	0	I/E Stability
CASPEED	IQUANT	1	Control Amp Speed
CONVENTION	IQUANT	1	Current Convention
ICHRANGE	IQUANT	2	Ich Range
ICHRANGEMODE	TOGGLE	F	Ich Auto Range
ICHOFFSETENABLE	TOGGLE	T	Ich Offset Enable
ICHOFFSET	QUANT	0	Ich Offset (V)
ICHFILTER	IQUANT	3	Ich Filter
VCHRANGE	IQUANT	2	Vch Range
VCHRANGEMODE	TOGGLE	F	Vch Auto Range
VCHOFFSETENABLE	TOGGLE	T	Vch Offset Enable
VCHOFFSET	QUANT	0	Vch Offset (V)
VCHFILTER	IQUANT	3	Vch Filter
ACHRANGE	IQUANT	2	Ach Range
ACHOFFSETENABLE	TOGGLE	F	Ach Offset Enable
ACHOFFSET	QUANT	0	Ach Offset (V)
ACHFILTER	IQUANT	3	Ach Filter
IERANGELOWERLIMIT	IQUANT	2	I/E Range Lower Limit
IERANGEMODE	TOGGLE	F	I/E AutoRange
IERANGE	IQUANT	11	I/E Range
POSFEEDENABLE	TOGGLE	F	Positive Feedback IR Comp
POSFEEDRESISTANCE	QUANT	0	Positive Feedback Resistance (ohm)
ACHSELECT	IQUANT	0	Ach Select
CABLEID	IQUANT	13	Cable ID
DCCALDATE	LABEL	7/31/2020	DC Calibration Date
ACCALDATE	LABEL	7/31/2020	AC Calibration Date
THERMOSELECT	IQUANT	1	Thermo Select
FRAMEWORKVERSION	QUANT	6.33	Framework Version
INSTRUMENTVERSION	LABEL	3.50	Instrument Version
COMPLIANCEVOLTAGE	IQUANT	0	Compliance Voltage
ZCURVE	TABLE
	Pt	Time	Freq	Zreal	Zimag	Zsig	Zmod	Zphz	Idc	Vdc	IERange
	#	s	Hz	ohm	ohm	V	ohm	°	A	V	#
	0	16	300046.9	277.3209	-4.925353	1	277.3646	-1.017494	0.0002201	0.0076694	9
	1	30	238359.4	267.4919	-24.75125	1	268.6346	-5.286572	0.0008269	-0.0013874	10
	2	44	189328.1	272.0172	-9.474738	1	272.1822	-1.994885	-0.0003474	-0.0037468	9
	3	51	150421.9	274.2485	-22.66365	1	275.1834	-4.724136	-0.000495	-0.0005475	10
	4	60	119484.4	276.6193	-21.66324	1	277.4663	-4.477938	0.0003591	-0.0017152	10
	5	68	94921.88	280.9632	-14.27904	1	281.3258	-2.909368	-0.0001888	0.0101478	9
	6	72	75421.88	282.7087	-17.60146	1	283.2561	-3.562641	0.0002764	-0.0073276	9
	7	77	59859.37	286.6657	-19.55552	1	287.3319	-3.90251	-0.0002453	0.0046412	9
	8	82	47578.12	288.4023	-27.22591	1	289.6846	-5.392884	0.000279	0.0005371	10
	9	88	37828.12	291.8954	-27.96458	1	293.2318	-5.472432	0.0002688	-0.0089342	9
	10	93	30046.88	296.7574	-33.02484	1	298.5893	-6.35007	-0.0001871	0.0101585	9
	11	99	23859.38	301.4801	-37.43913	1	303.7959	-7.079001	-3.510259E-005	0.0075083	9
	12	105	18984.38	306.642	-46.00223	1	310.0734	-8.531851	-5.53255E-005	-0.0044698	9
	13	110	15046.87	312.2905	-54.21195	1	316.961	-9.8481	0.0001845	-0.0099424	9
	14	115	11953.13	319.4236	-64.11132	1	325.794	-11.34901	2.69163E-005	-0.0069783	9
	15	121	9515.62	327.1539	-74.41176	1	335.5097	-12.81403	-0.0001208	0.0093535	9
	16	126	7546.875	335.5783	-86.64156	1	346.5827	-14.47681	-0.0002649	0.0088506	9
	17	131	5928.309	345.0826	-101.5813	1	359.7231	-16.40275	0.000142	0.0016703	9
	18	137	4733.456	353.5145	-120.3954	1	373.4535	-18.80715	-0.0002483	0.0047142	9
	19	142	3796.875	364.7791	-139.6629	1	390.6015	-20.95033	-0.0001421	-0.001297	9
	20	148	2987.132	375.5236	-163.8379	1	409.7082	-23.57126	0.0001134	-0.0089867	9
	21	153	2390.625	393.2237	-190.1909	1	436.8036	-25.81171	0.0001392	0.0019141	9
	22	158	1884.191	400.9886	-231.0826	1	462.8078	-29.95409	0.0001421	0.0016959	9
	23	164	1516.544	408.7767	-271.2789	1	490.6023	-33.56968	-0.0002409	0.0099714	9
	24	169	1193.986	424.5717	-334.5308	1	540.5294	-38.23547	0.0001419	0.001714	9
	25	175	946.5144	435.711	-412.8516	1	600.2421	-43.45689	0.000273	-0.0090491	9
	26	178	751.7689	454.5562	-515.561	1	687.3314	-48.59825	0.0001139	-0.0090065	9
	27	182	597.4265	449.479	-596.9976	1	747.2868	-53.02394	0.0002157	-0.00182	9
	28	186	477.4305	477.0253	-747.2798	1	886.5553	-57.44791	4.109889E-007	5.794177E-005	9
	29	188	376.6741	497.4629	-932.2805	1	1056.701	-61.91571	-7.029668E-007	0.0006245	8
	30	190	298.2954	517.1967	-1156.876	1	1267.223	-65.91234	-6.381885E-007	0.0005935	8
	31	193	237.7717	539.4493	-1429.53	1	1527.927	-69.32543	-6.862064E-007	0.0007021	8
	32	195	189.0121	565.6292	-1774.555	1	1862.52	-72.32062	-6.059953E-007	0.0005762	8
	33	198	150.2404	608.7416	-2210.944	1	2293.216	-74.60611	-7.160783E-007	0.0007151	8
	34	200	119.1737	637.2838	-2758.879	1	2831.527	-76.99317	-6.640185E-007	0.0006825	8
	35	202	95.0169	677.4141	-3413.774	1	3480.336	-78.77628	-6.101393E-007	0.000644	8
	36	205	75.60484	737.287	-4251.844	1	4315.294	-80.1625	-6.597013E-007	0.0006028	8
	37	207	54.50582	871.1204	-5912.778	1	5976.604	-81.619	-1.324222E-007	0.0006091	7
	38	210	45.95588	941.2357	-6961.424	1	7024.767	-82.29989	-1.228482E-007	0.0005364	7
	39	212	37.20238	1053.905	-8533.44	1	8598.274	-82.95945	-1.283565E-007	0.0007022	7
	40	215	30.04808	1209.389	-10472.08	1	10541.69	-83.41227	-1.319281E-007	0.0006138	7
	41	217	23.91582	1418.087	-13030.21	1	13107.15	-83.7889	-1.278067E-007	0.0007017	7
	42	219	18.60119	1734.738	-16582.68	1	16673.17	-84.02793	-1.280172E-007	0.0007066	7
	43	222	15.02404	2077.35	-20342.19	1	20447.98	-84.16915	-1.182245E-007	0.000665	7
	44	224	12.01923	2524.871	-25173.48	1	25299.79	-84.27245	-1.183124E-007	0.0005941	7
	45	227	9.450605	3248.813	-31638.8	1	31805.16	-84.13716	-1.184881E-007	0.0005523	7
	46	230	7.512019	4080.411	-39348.83	1	39559.83	-84.07968	-1.190528E-007	0.000662	7
	47	233	5.978954	5354.329	-49284.14	1	49574.14	-83.79959	-1.499838E-008	0.0005776	6
	48	237	4.734848	6854.558	-61194.8	1	61577.5	-83.60882	-1.456686E-008	0.0006821	6
	49	241	3.75601	8877.772	-75953.73	1	76470.8	-83.33329	-1.467892E-008	0.0007424	6
	50	246	3.004808	11470.57	-93494.89	1	94195.91	-83.00553	-1.403389E-008	0.0007291	6
	51	252	2.372217	15284.94	-116432.6	1	117431.6	-82.52113	-1.362947E-008	0.0006888	6
	52	257	1.878005	20212.73	-144924.5	1	146327.3	-82.06013	-1.458217E-008	0.0006501	6
	53	261	1.512097	26078.51	-176612	1	178527	-81.60041	-1.394478E-008	0.0005968	6
	54	267	1.201923	35215.13	-218056.8	1	220882.1	-80.82622	-1.41008E-008	0.0006571	6
	55	273	0.956633	46462.05	-267876.4	1	271875.8	-80.16018	-1.462286E-008	2.67458E-005	6
