EXPLAIN
TAG	EISPOT
TITLE	LABEL	Potentiostatic EIS	Test Identifier
DATE	LABEL	8/29/2020	Date
TIME	LABEL	14:26:19	Time
NOTES	NOTES	1	Notes...
	
PSTAT	PSTAT	REF3000-16137	Potentiostat
VDC	POTEN	0.00000E+000	T	DC Voltage (V)
FREQINIT	QUANT	3.00000E+005	Initial Freq. (Hz)
FREQFINAL	QUANT	1.00000E+000	Final Freq. (Hz)
PTSPERDEC	QUANT	1.00000E+001	Points/decade
VAC	QUANT	5.00000E+001	AC Voltage (mV rms)
AREA	QUANT	1.00000E+000	Sample Area (cm^2)
SPEED	SELECTOR	2	Optimize for:
ZGUESS	QUANT	1.00000E+003	Estimated Z (ohms)
EOC	QUANT	0	Open Circuit (V)
SEQUENCER	TOGGLE	TRUE	Run as Sequence
PSTATMODEL	IQUANT	5	Pstat Model
PSTATSECTION	LABEL	REF3000-16137	Pstat Section
PSTATSERIALNO	LABEL	16137	Pstat Serial Number
CTRLMODE	IQUANT	1	Control Mode
IESTAB	IQUANT	0	I/E Stability
CASPEED	IQUANT	1	Control Amp Speed
CONVENTION	IQUANT	1	Current Convention
ICHRANGE	IQUANT	2	Ich Range
ICHRANGEMODE	TOGGLE	F	Ich Auto Range
ICHOFFSETENABLE	TOGGLE	T	Ich Offset Enable
ICHOFFSET	QUANT	0	Ich Offset (V)
ICHFILTER	IQUANT	3	Ich Filter
VCHRANGE	IQUANT	2	Vch Range
VCHRANGEMODE	TOGGLE	F	Vch Auto Range
VCHOFFSETENABLE	TOGGLE	T	Vch Offset Enable
VCHOFFSET	QUANT	0	Vch Offset (V)
VCHFILTER	IQUANT	3	Vch Filter
ACHRANGE	IQUANT	2	Ach Range
ACHOFFSETENABLE	TOGGLE	F	Ach Offset Enable
ACHOFFSET	QUANT	0	Ach Offset (V)
ACHFILTER	IQUANT	3	Ach Filter
IERANGELOWERLIMIT	IQUANT	2	I/E Range Lower Limit
IERANGEMODE	TOGGLE	F	I/E AutoRange
IERANGE	IQUANT	11	I/E Range
POSFEEDENABLE	TOGGLE	F	Positive Feedback IR Comp
POSFEEDRESISTANCE	QUANT	0	Positive Feedback Resistance (ohm)
ACHSELECT	IQUANT	0	Ach Select
CABLEID	IQUANT	13	Cable ID
DCCALDATE	LABEL	7/31/2020	DC Calibration Date
ACCALDATE	LABEL	7/31/2020	AC Calibration Date
THERMOSELECT	IQUANT	1	Thermo Select
FRAMEWORKVERSION	QUANT	6.33	Framework Version
INSTRUMENTVERSION	LABEL	3.50	Instrument Version
COMPLIANCEVOLTAGE	IQUANT	0	Compliance Voltage
ZCURVE	TABLE
	Pt	Time	Freq	Zreal	Zimag	Zsig	Zmod	Zphz	Idc	Vdc	IERange
	#	s	Hz	ohm	ohm	V	ohm	°	A	V	#
	0	7	300046.9	29.55994	-2.180181	1	29.64023	-4.218188	0.0003821	0.0009541	11
	1	11	238359.4	29.96015	-3.008089	1	30.11078	-5.733454	0.0002136	-0.000102	11
	2	16	189328.1	30.34135	-3.182728	1	30.50782	-5.988276	0.0005699	0.0006774	10
	3	21	150421.9	30.66562	-4.085757	1	30.9366	-7.58915	-0.0006755	0.0013106	10
	4	26	119484.4	31.19765	-5.074525	1	31.60766	-9.238667	0.0005568	-0.0030624	10
	5	30	94921.88	31.68086	-6.117231	1	32.26604	-10.9287	0.0001929	-0.0004784	10
	6	33	75421.88	32.33523	-7.238072	1	33.13543	-12.61737	-0.0002493	0.0009439	10
	7	35	59859.37	33.01334	-8.572298	1	34.10813	-14.55606	-0.0001401	0.0018073	10
	8	38	47578.12	33.76971	-10.08707	1	35.24404	-16.63098	-0.0001703	0.0019551	10
	9	40	37828.12	34.55914	-11.76585	1	36.50711	-18.80143	-0.0002614	0.0010183	10
	10	43	30046.88	35.48003	-13.73994	1	38.04758	-21.16932	-0.0002601	0.0017662	10
	11	45	23859.38	36.39462	-16.14128	1	39.81343	-23.91763	0.0001134	-0.0005344	10
	12	48	18984.38	37.30633	-18.84389	1	41.79538	-26.7989	-0.0001358	0.0044582	9
	13	50	15046.87	38.15773	-22.49163	1	44.29318	-30.51673	0.0001154	-0.001484	9
	14	52	11953.13	38.97189	-27.00028	1	47.41122	-34.71477	-2.050234E-005	-0.0022199	9
	15	54	9515.62	39.78827	-32.70642	1	51.5055	-39.4206	6.636452E-005	-0.0043268	9
	16	57	7546.875	40.65642	-40.05804	1	57.07531	-44.57524	2.704351E-005	-0.0034628	9
	17	59	5928.309	41.50872	-49.48423	1	64.58841	-50.00916	6.810173E-005	-0.0043579	9
	18	61	4733.456	42.37584	-60.6109	1	73.95535	-55.04085	-2.094466E-005	-0.0021304	9
	19	64	3796.875	43.06898	-74.11814	1	85.72302	-59.83974	-0.0001029	0.0009991	9
	20	66	2987.132	44.46387	-93.23811	1	103.2975	-64.50422	-6.542625E-005	-0.0005604	9
	21	69	2390.625	45.39518	-115.1461	1	123.7713	-68.48366	-0.0001029	0.0010948	9
	22	71	1884.191	47.29097	-144.4273	1	151.9726	-71.86959	-0.0001035	0.0011149	9
	23	74	1516.544	49.47868	-178.1233	1	184.8676	-74.47589	0.0001048	-0.0008753	9
	24	77	1193.986	52.17577	-223.2945	1	229.3093	-76.84804	0.0001048	-0.0049163	9
	25	81	946.5144	53.95362	-279.614	1	284.7718	-79.07858	-0.0001402	0.0045023	9
	26	84	751.7689	60.33953	-347.3625	1	352.5643	-80.14561	-2.895792E-005	0.0037751	9
	27	88	597.4265	67.22368	-431.9301	1	437.13	-81.15371	0.0001348	-0.0025347	9
	28	91	477.4305	74.74752	-541.4509	1	546.586	-82.13998	8.485766E-007	2.550321E-005	9
	29	94	376.6741	86.18892	-677.1378	1	682.601	-82.74616	5.161443E-007	0.0006441	8
	30	96	298.2954	101.0907	-847.4066	1	853.415	-83.1971	5.245381E-007	0.0006465	8
	31	98	237.7717	120.5411	-1053.163	1	1060.038	-83.47055	5.133456E-007	0.0006561	8
	32	101	189.0121	147.15	-1311.7	1	1319.928	-83.59917	5.182214E-007	0.0006436	8
	33	103	150.2404	183.0445	-1632.621	1	1642.85	-83.60288	5.061355E-007	0.0006544	8
	34	106	119.1737	233.7966	-2036.455	1	2049.831	-83.45079	5.07499E-007	0.0006421	8
	35	108	95.0169	298.9861	-2521.214	1	2538.88	-83.23698	4.986754E-007	0.0006661	8
	36	110	75.60484	390.377	-3127.156	1	3151.428	-82.88432	4.763848E-007	0.0006654	8
	37	113	54.50582	585.3209	-4246.875	1	4287.021	-82.15271	4.75539E-007	0.0006663	8
	38	116	45.95588	732.7888	-4986.803	1	5040.356	-81.64046	6.155726E-008	0.0006444	7
	39	118	37.20238	965.812	-6063.491	1	6139.928	-80.94977	5.880271E-008	0.0006178	7
	40	120	30.04808	1280.024	-7355.641	1	7466.185	-80.12828	4.455156E-008	0.0006159	7
	41	123	23.91582	1746.893	-9054.205	1	9221.186	-79.0797	4.377453E-008	0.0005739	7
	42	125	18.60119	2469.525	-11295.54	1	11562.35	-77.66757	4.760138E-008	0.0006456	7
	43	127	15.02404	3309.369	-13602.95	1	13999.72	-76.32654	4.965874E-008	0.0006419	7
	44	130	12.01923	4506.607	-16425.63	1	17032.63	-74.65761	4.951095E-008	0.0006161	7
	45	132	9.450605	6291.733	-19975.34	1	20942.79	-72.51688	5.714176E-008	0.0006434	7
	46	135	7.512019	8570.516	-23853.76	1	25346.71	-70.23694	5.39445E-008	0.0006439	7
	47	138	5.978954	11559.06	-28147.26	1	30428.28	-67.67382	5.261548E-008	0.0006404	7
	48	142	4.734848	15497.15	-32960.11	1	36421.57	-64.81808	4.826349E-008	0.0006253	7
	49	145	3.75601	20617.67	-37735.21	1	43000.4	-61.3488	-3.944887E-009	0.0007036	6
	50	151	3.004808	26494.54	-42327.05	1	49935.36	-57.95556	-6.605116E-009	0.0007055	6
	51	157	2.372217	33824.55	-46919.04	1	57840.26	-54.21167	-5.496327E-009	0.0006351	6
	52	162	1.878005	42206.75	-50854.22	1	66087.53	-50.30883	-3.948549E-009	0.0006749	6
	53	166	1.512097	50450.08	-53728.97	1	73702.19	-46.80271	-5.540685E-009	0.0006919	6
	54	172	1.201923	59928.79	-55772.79	1	81866.13	-42.94282	-6.146859E-009	0.0006892	6
	55	178	0.956633	69544.28	-56846.79	1	89821.85	-39.2632	-1.665444E-008	-2.087933E-005	6
