EXPLAIN
TAG	EISPOT
TITLE	LABEL	Potentiostatic EIS	Test Identifier
DATE	LABEL	8/29/2020	Date
TIME	LABEL	13:12:22	Time
NOTES	NOTES	1	Notes...
	
PSTAT	PSTAT	REF3000-16137	Potentiostat
VDC	POTEN	0.00000E+000	T	DC Voltage (V)
FREQINIT	QUANT	3.00000E+005	Initial Freq. (Hz)
FREQFINAL	QUANT	1.00000E+000	Final Freq. (Hz)
PTSPERDEC	QUANT	1.00000E+001	Points/decade
VAC	QUANT	5.00000E+001	AC Voltage (mV rms)
AREA	QUANT	1.00000E+000	Sample Area (cm^2)
SPEED	SELECTOR	2	Optimize for:
ZGUESS	QUANT	1.00000E+003	Estimated Z (ohms)
EOC	QUANT	0	Open Circuit (V)
SEQUENCER	TOGGLE	TRUE	Run as Sequence
PSTATMODEL	IQUANT	5	Pstat Model
PSTATSECTION	LABEL	REF3000-16137	Pstat Section
PSTATSERIALNO	LABEL	16137	Pstat Serial Number
CTRLMODE	IQUANT	1	Control Mode
IESTAB	IQUANT	0	I/E Stability
CASPEED	IQUANT	1	Control Amp Speed
CONVENTION	IQUANT	1	Current Convention
ICHRANGE	IQUANT	2	Ich Range
ICHRANGEMODE	TOGGLE	F	Ich Auto Range
ICHOFFSETENABLE	TOGGLE	T	Ich Offset Enable
ICHOFFSET	QUANT	0	Ich Offset (V)
ICHFILTER	IQUANT	3	Ich Filter
VCHRANGE	IQUANT	2	Vch Range
VCHRANGEMODE	TOGGLE	F	Vch Auto Range
VCHOFFSETENABLE	TOGGLE	T	Vch Offset Enable
VCHOFFSET	QUANT	0	Vch Offset (V)
VCHFILTER	IQUANT	3	Vch Filter
ACHRANGE	IQUANT	2	Ach Range
ACHOFFSETENABLE	TOGGLE	F	Ach Offset Enable
ACHOFFSET	QUANT	0	Ach Offset (V)
ACHFILTER	IQUANT	3	Ach Filter
IERANGELOWERLIMIT	IQUANT	2	I/E Range Lower Limit
IERANGEMODE	TOGGLE	F	I/E AutoRange
IERANGE	IQUANT	11	I/E Range
POSFEEDENABLE	TOGGLE	F	Positive Feedback IR Comp
POSFEEDRESISTANCE	QUANT	0	Positive Feedback Resistance (ohm)
ACHSELECT	IQUANT	0	Ach Select
CABLEID	IQUANT	13	Cable ID
DCCALDATE	LABEL	7/31/2020	DC Calibration Date
ACCALDATE	LABEL	7/31/2020	AC Calibration Date
THERMOSELECT	IQUANT	1	Thermo Select
FRAMEWORKVERSION	QUANT	6.33	Framework Version
INSTRUMENTVERSION	LABEL	3.50	Instrument Version
COMPLIANCEVOLTAGE	IQUANT	0	Compliance Voltage
ZCURVE	TABLE
	Pt	Time	Freq	Zreal	Zimag	Zsig	Zmod	Zphz	Idc	Vdc	IERange
	#	s	Hz	ohm	ohm	V	ohm	°	A	V	#
	0	14	300046.9	-66.00188	-4793.989	1	4794.443	-90.78878	-6.491146E-005	0.0004462	9
	1	36	238359.4	8.343255	-5904.145	1	5904.151	-89.91904	-1.674048E-005	0.0017318	9
	2	54	189328.1	-53.8973	-7566.63	1	7566.822	-90.40811	2.538932E-005	0.0010418	9
	3	62	150421.9	-748.618	-8851.708	1	8883.309	-94.83419	2.341442E-005	0.0010754	9
	4	70	119484.4	625.3075	-11573.13	1	11590.01	-86.90726	-9.309997E-005	0.0330193	8
	5	77	94921.88	542.4283	-14453.73	1	14463.91	-87.85078	2.277675E-005	-0.0097494	8
	6	86	75421.88	609.4426	-18127.34	1	18137.58	-88.07444	1.649153E-005	-0.0092714	8
	7	94	59859.37	391.6526	-23066.01	1	23069.33	-89.02723	2.604705E-005	-0.008903	8
	8	103	47578.12	806.6119	-28528.89	1	28540.29	-88.38048	2.278475E-005	-0.0096815	8
	9	113	37828.12	1410.857	-35328.05	1	35356.21	-87.71306	-9.546513E-007	-0.0051734	8
	10	122	30046.88	318.3094	-44827.37	1	44828.5	-89.59316	-2.081431E-006	0.007771	8
	11	131	23859.38	4662.538	-57452.72	1	57641.61	-85.36037	-3.750336E-006	0.0254132	7
	12	136	18984.38	4919.149	-71981.88	1	72149.77	-86.09056	4.515891E-007	0.0164779	7
	13	142	15046.87	5927.104	-90023.66	1	90218.57	-86.23312	-3.353279E-006	-0.0049562	7
	14	148	11953.13	5127.407	-111359.7	1	111477.7	-87.36375	-2.05039E-005	0.0028377	8
	15	156	9515.62	5606.429	-140834.1	1	140945.7	-87.72033	-6.400978E-006	0.025782	7
	16	162	7546.875	8729.061	-173493.4	1	173712.8	-87.11967	7.735952E-006	-0.0245519	7
	17	167	5928.309	36360.11	-211850.8	1	214948.5	-80.26117	-1.749064E-006	0.0220981	7
	18	174	4733.456	6694.093	-281256.2	1	281335.8	-88.63658	-1.758757E-006	0.0221385	7
	19	179	3796.875	33837.13	-357009.8	1	358609.8	-84.58572	-7.443337E-006	0.0191834	7
	20	187	2987.132	40046.02	-387911.6	1	389973.2	-84.10596	7.756342E-006	-0.0245796	7
	21	193	2390.625	362586.9	-129101.9	1	384885.2	-19.59867	-1.223045E-005	0.0103602	8
	22	202	1884.191	907352.1	-539939.3	1	1055852	-30.75566	-2.691874E-005	0.0097229	8
	23	211	1516.544	642201.6	-220399.2	1	678968.8	-18.94187	-1.522813E-005	4.495201E-005	9
	24	219	1193.986	1662169	-787030	1	1839082	-25.33736	-1.048054E-006	-0.0134843	7
	25	228	946.5144	197908.9	-1376396	1	1390552	-81.81765	7.826022E-007	-0.0232539	6
	26	233	751.7689	340696.4	-1608453	1	1644139	-78.04059	-2.821737E-007	-0.0074294	6
	27	238	597.4265	333364.3	-1802087	1	1832662	-79.51945	7.274227E-007	-0.0271664	6
	28	242	477.4305	497555.5	-2699486	1	2744956	-79.55674	-8.009868E-009	0.0006597	6
	29	247	376.6741	1110619	-3414074	1	3590178	-71.97998	-9.341552E-010	0.0006998	5
	30	251	298.2954	1460723	-4172197	1	4420513	-70.7044	-8.862912E-010	0.0007105	5
	31	253	237.7717	2040785	-5007849	1	5407713	-67.82825	-7.763261E-010	0.0005969	5
	32	256	189.0121	2666850	-6052582	1	6614064	-66.22106	-7.802672E-010	0.0005984	5
	33	259	150.2404	3437535	-7106528	1	7894263	-64.18624	-8.776545E-010	0.0006807	5
	34	262	119.1737	3378124	-6877951	1	7662762	-63.84191	-8.429396E-010	0.0006685	5
	35	264	95.0169	6808837	-9247784	1	1.148398E+007	-53.63702	-8.475175E-010	0.0006787	5
	36	267	75.60484	8976929	-1.016192E+007	1	1.355912E+007	-48.54297	-7.851919E-010	0.0006243	5
	37	270	54.50582	1.229655E+007	-1.056533E+007	1	1.621208E+007	-40.66954	-8.111536E-010	0.0006748	5
	38	273	45.95588	1.539375E+007	-8936923	1	1.779989E+007	-30.13754	-9.154913E-011	0.000611	4
	39	276	37.20238	1.6916E+007	-8608369	1	1.898039E+007	-26.97104	-1.522527E-010	0.0006948	4
	40	279	30.04808	1.910245E+007	-7895651	1	2.06699E+007	-22.45687	-1.084033E-010	0.0006562	4
	41	282	23.91582	2.009064E+007	-7443313	1	2.142514E+007	-20.329	-6.938804E-011	0.0006859	4
	42	284	18.60119	2.229007E+007	-7802086	1	2.361609E+007	-19.29134	-2.049549E-010	0.0006167	4
	43	287	15.02404	2.245793E+007	-6483552	1	2.337509E+007	-16.10331	-8.073502E-010	0.0006404	5
	44	290	12.01923	2.371523E+007	-4589057	1	2.415516E+007	-10.95176	-1.092154E-010	0.0006048	4
	45	293	9.450605	2.407682E+007	-4634926	1	2.451888E+007	-10.89647	-8.275179E-010	0.0006091	5
	46	297	7.512019	2.54137E+007	-4157501	1	2.575152E+007	-9.290885	-7.859379E-010	0.0006043	5
	47	301	5.978954	2.661456E+007	-3604818	1	2.685758E+007	-7.713506	-8.690205E-010	0.0006409	5
	48	308	4.734848	2.78897E+007	-3332998	1	2.808815E+007	-6.814893	-8.558516E-010	0.0006071	5
	49	314	3.75601	2.934781E+007	-3080073	1	2.9509E+007	-5.991298	-8.068701E-010	0.0005928	5
	50	321	3.004808	3.113688E+007	-2937116	1	3.12751E+007	-5.388719	-8.053739E-010	0.0006524	5
	51	329	2.372217	3.219944E+007	-2517319	1	3.229769E+007	-4.470233	-1.105802E-010	0.0007822	4
	52	333	1.878005	3.32902E+007	-2478816	1	3.338236E+007	-4.258432	-1.255626E-010	0.0006311	4
	53	338	1.512097	3.456078E+007	-2522193	1	3.465269E+007	-4.173959	-1.316952E-010	0.0007151	4
	54	343	1.201923	3.606516E+007	-2603912	1	3.615904E+007	-4.129602	-1.142837E-010	0.0006194	4
	55	349	0.956633	3.785088E+007	-2831675	1	3.795666E+007	-4.278404	-1.517477E-010	2.229719E-005	4
