EXPLAIN
TAG	EISPOT
TITLE	LABEL	Potentiostatic EIS	Test Identifier
DATE	LABEL	8/29/2020	Date
TIME	LABEL	11:45:46	Time
NOTES	NOTES	1	Notes...
	
PSTAT	PSTAT	REF3000-16137	Potentiostat
VDC	POTEN	0.00000E+000	T	DC Voltage (V)
FREQINIT	QUANT	3.00000E+005	Initial Freq. (Hz)
FREQFINAL	QUANT	1.00000E+000	Final Freq. (Hz)
PTSPERDEC	QUANT	1.00000E+001	Points/decade
VAC	QUANT	5.00000E+001	AC Voltage (mV rms)
AREA	QUANT	1.00000E+000	Sample Area (cm^2)
SPEED	SELECTOR	2	Optimize for:
ZGUESS	QUANT	1.00000E+003	Estimated Z (ohms)
EOC	QUANT	0	Open Circuit (V)
SEQUENCER	TOGGLE	TRUE	Run as Sequence
PSTATMODEL	IQUANT	5	Pstat Model
PSTATSECTION	LABEL	REF3000-16137	Pstat Section
PSTATSERIALNO	LABEL	16137	Pstat Serial Number
CTRLMODE	IQUANT	1	Control Mode
IESTAB	IQUANT	0	I/E Stability
CASPEED	IQUANT	1	Control Amp Speed
CONVENTION	IQUANT	1	Current Convention
ICHRANGE	IQUANT	2	Ich Range
ICHRANGEMODE	TOGGLE	F	Ich Auto Range
ICHOFFSETENABLE	TOGGLE	T	Ich Offset Enable
ICHOFFSET	QUANT	0	Ich Offset (V)
ICHFILTER	IQUANT	3	Ich Filter
VCHRANGE	IQUANT	2	Vch Range
VCHRANGEMODE	TOGGLE	F	Vch Auto Range
VCHOFFSETENABLE	TOGGLE	T	Vch Offset Enable
VCHOFFSET	QUANT	0	Vch Offset (V)
VCHFILTER	IQUANT	3	Vch Filter
ACHRANGE	IQUANT	2	Ach Range
ACHOFFSETENABLE	TOGGLE	F	Ach Offset Enable
ACHOFFSET	QUANT	0	Ach Offset (V)
ACHFILTER	IQUANT	3	Ach Filter
IERANGELOWERLIMIT	IQUANT	2	I/E Range Lower Limit
IERANGEMODE	TOGGLE	F	I/E AutoRange
IERANGE	IQUANT	11	I/E Range
POSFEEDENABLE	TOGGLE	F	Positive Feedback IR Comp
POSFEEDRESISTANCE	QUANT	0	Positive Feedback Resistance (ohm)
ACHSELECT	IQUANT	0	Ach Select
CABLEID	IQUANT	13	Cable ID
DCCALDATE	LABEL	7/31/2020	DC Calibration Date
ACCALDATE	LABEL	7/31/2020	AC Calibration Date
THERMOSELECT	IQUANT	1	Thermo Select
FRAMEWORKVERSION	QUANT	6.33	Framework Version
INSTRUMENTVERSION	LABEL	3.50	Instrument Version
COMPLIANCEVOLTAGE	IQUANT	0	Compliance Voltage
ZCURVE	TABLE
	Pt	Time	Freq	Zreal	Zimag	Zsig	Zmod	Zphz	Idc	Vdc	IERange
	#	s	Hz	ohm	ohm	V	ohm	°	A	V	#
	0	6	300046.9	79.24129	3.132461	1	79.30318	2.263762	-0.0003257	-0.0004502	9
	1	12	238359.4	77.03825	0.7584379	1	77.04198	0.564056	-0.0005428	0.0218022	9
	2	16	189328.1	76.66267	-1.274152	1	76.67326	-0.952182	-0.00052	0.0122238	9
	3	22	150421.9	76.88972	-3.55977	1	76.97208	-2.650735	-0.0005147	0.0121579	9
	4	25	119484.4	77.55218	-5.279752	1	77.73169	-3.894687	0.0004895	-0.0202265	9
	5	28	94921.88	78.50191	-6.963629	1	78.81017	-5.069239	-0.000197	0.0069502	9
	6	31	75421.88	79.16996	-9.166439	1	79.69884	-6.604401	0.0001884	-0.0026089	9
	7	33	59859.37	80.30349	-11.65472	1	81.14483	-8.257877	5.169525E-005	-0.0058238	9
	8	36	47578.12	81.60267	-14.04086	1	82.80182	-9.76293	0.0001742	-0.0077245	9
	9	38	37828.12	83.16286	-16.72589	1	84.82816	-11.37174	-0.0001755	0.0078384	9
	10	41	30046.88	84.90749	-19.9537	1	87.22059	-13.22483	-0.0002088	0.0063085	9
	11	44	23859.38	86.80268	-23.52308	1	89.93353	-15.16269	-1.168808E-006	-0.0046448	9
	12	46	18984.38	89.00039	-27.52874	1	93.16061	-17.18738	-0.0002142	0.004478	9
	13	49	15046.87	91.22491	-32.22206	1	96.7484	-19.45401	-0.0001773	0.0026261	9
	14	52	11953.13	93.68237	-37.7908	1	101.0175	-21.9688	-0.0001782	0.0025489	9
	15	55	9515.62	96.117	-44.53326	1	105.9324	-24.85941	-7.907791E-005	0.0068593	9
	16	58	7546.875	98.5669	-52.57028	1	111.7097	-28.07307	0.0001695	-0.0076305	9
	17	60	5928.309	101.2268	-63.18485	1	119.3281	-31.97204	-2.577701E-006	-0.0045502	9
	18	63	4733.456	104.0345	-75.66339	1	128.6395	-36.02808	-0.0002034	0.0045772	9
	19	66	3796.875	106.3377	-90.86233	1	139.8702	-40.51288	0.000174	-0.0077475	9
	20	69	2987.132	109.0228	-111.6686	1	156.0636	-45.68688	-0.0001784	0.0026109	9
	21	72	2390.625	111.5506	-135.4564	1	175.4764	-50.52796	-0.0001767	0.0025632	9
	22	76	1884.191	114.3435	-168.5033	1	203.6365	-55.83984	-0.0002102	0.0060736	9
	23	80	1516.544	117.2156	-205.2885	1	236.3956	-60.27451	-0.0001324	0.0001375	9
	24	84	1193.986	120.3398	-257.5344	1	284.2633	-64.95441	0.0001266	-0.0074003	9
	25	90	946.5144	123.9532	-322.4204	1	345.4263	-68.97095	0.0001868	-0.0025663	9
	26	93	751.7689	130.3277	-403.4516	1	423.9793	-72.09789	-6.971546E-005	-0.0024001	9
	27	97	597.4265	135.9304	-507.8223	1	525.7	-75.01476	-0.0001316	0.0001377	9
	28	101	477.4305	141.8759	-619.112	1	635.1602	-77.09294	1.026058E-006	8.363565E-005	9
	29	103	376.6741	151.3095	-774.8932	1	789.5278	-78.95116	2.124884E-007	0.0006815	8
	30	106	298.2954	163.3779	-971.047	1	984.695	-80.44948	2.654966E-007	0.0006334	8
	31	108	237.7717	178.8937	-1209.292	1	1222.453	-81.58512	2.571165E-007	0.0006317	8
	32	110	189.0121	199.4491	-1509.829	1	1522.945	-82.47477	2.080019E-007	0.0006363	8
	33	113	150.2404	226.965	-1884.559	1	1898.177	-83.13271	1.827693E-007	0.0006709	8
	34	115	119.1737	261.3217	-2356.967	1	2371.41	-83.67334	2.601162E-007	0.0006167	8
	35	118	95.0169	313.2089	-2931.158	1	2947.845	-83.9008	1.918694E-007	0.0006877	8
	36	120	75.60484	379.4723	-3651.015	1	3670.683	-84.06621	2.161541E-007	0.000638	8
	37	123	54.50582	521.4095	-4997.373	1	5024.5	-84.0435	1.559615E-008	0.0006623	7
	38	125	45.95588	620.0687	-5884.724	1	5917.302	-83.98499	3.06208E-008	0.0005996	7
	39	128	37.20238	772.9563	-7185.834	1	7227.287	-83.86049	2.809362E-008	0.0006016	7
	40	130	30.04808	976.802	-8795.23	1	8849.307	-83.66267	2.602102E-008	0.0006159	7
	41	132	23.91582	1255.292	-10896.64	1	10968.71	-83.4285	2.112538E-008	0.0005931	7
	42	135	18.60119	1679.767	-13805.46	1	13907.28	-83.06269	3.465167E-008	0.0005977	7
	43	137	15.02404	2172.738	-16836.07	1	16975.69	-82.64648	2.436742E-008	0.0006596	7
	44	139	12.01923	2855.543	-20684.95	1	20881.13	-82.14004	2.786429E-008	0.0005902	7
	45	142	9.450605	3814.719	-25813.69	1	26094.04	-81.59373	2.43609E-008	0.0006706	7
	46	145	7.512019	5098.04	-31842.19	1	32247.71	-80.90395	2.304456E-008	0.0006821	7
	47	148	5.978954	6808.257	-39110.08	1	39698.25	-80.12495	3.09204E-008	0.0006066	7
	48	152	4.734848	9186.385	-48143.56	1	49012.16	-79.19712	4.668111E-009	0.0006784	6
	49	155	3.75601	12288.31	-58945.46	1	60212.7	-78.22425	2.938576E-009	0.0007231	6
	50	161	3.004808	16138.33	-71420.67	1	73221.3	-77.26718	1.39983E-009	0.000734	6
	51	167	2.372217	21429.75	-87139.92	1	89736.28	-76.1838	2.261914E-009	0.0006975	6
	52	172	1.878005	28390.06	-105873	1	109613.4	-74.98916	2.612015E-009	0.0006537	6
	53	176	1.512097	36224.73	-126310.7	1	131402.5	-73.9976	1.825122E-009	0.0007631	6
	54	182	1.201923	47011	-151815.9	1	158927.9	-72.79444	2.393696E-009	0.0006601	6
	55	188	0.956633	60126.41	-181563.7	1	191260.4	-71.67725	9.984959E-011	3.327978E-005	6
