EXPLAIN
TAG	EISPOT
TITLE	LABEL	Potentiostatic EIS	Test Identifier
DATE	LABEL	8/29/2020	Date
TIME	LABEL	13:18:21	Time
NOTES	NOTES	1	Notes...
	
PSTAT	PSTAT	REF3000-16137	Potentiostat
VDC	POTEN	0.00000E+000	T	DC Voltage (V)
FREQINIT	QUANT	3.00000E+005	Initial Freq. (Hz)
FREQFINAL	QUANT	1.00000E+000	Final Freq. (Hz)
PTSPERDEC	QUANT	1.00000E+001	Points/decade
VAC	QUANT	5.00000E+001	AC Voltage (mV rms)
AREA	QUANT	1.00000E+000	Sample Area (cm^2)
SPEED	SELECTOR	2	Optimize for:
ZGUESS	QUANT	1.00000E+003	Estimated Z (ohms)
EOC	QUANT	0	Open Circuit (V)
SEQUENCER	TOGGLE	TRUE	Run as Sequence
PSTATMODEL	IQUANT	5	Pstat Model
PSTATSECTION	LABEL	REF3000-16137	Pstat Section
PSTATSERIALNO	LABEL	16137	Pstat Serial Number
CTRLMODE	IQUANT	1	Control Mode
IESTAB	IQUANT	0	I/E Stability
CASPEED	IQUANT	1	Control Amp Speed
CONVENTION	IQUANT	1	Current Convention
ICHRANGE	IQUANT	2	Ich Range
ICHRANGEMODE	TOGGLE	F	Ich Auto Range
ICHOFFSETENABLE	TOGGLE	T	Ich Offset Enable
ICHOFFSET	QUANT	0	Ich Offset (V)
ICHFILTER	IQUANT	3	Ich Filter
VCHRANGE	IQUANT	2	Vch Range
VCHRANGEMODE	TOGGLE	F	Vch Auto Range
VCHOFFSETENABLE	TOGGLE	T	Vch Offset Enable
VCHOFFSET	QUANT	0	Vch Offset (V)
VCHFILTER	IQUANT	3	Vch Filter
ACHRANGE	IQUANT	2	Ach Range
ACHOFFSETENABLE	TOGGLE	F	Ach Offset Enable
ACHOFFSET	QUANT	0	Ach Offset (V)
ACHFILTER	IQUANT	3	Ach Filter
IERANGELOWERLIMIT	IQUANT	2	I/E Range Lower Limit
IERANGEMODE	TOGGLE	F	I/E AutoRange
IERANGE	IQUANT	11	I/E Range
POSFEEDENABLE	TOGGLE	F	Positive Feedback IR Comp
POSFEEDRESISTANCE	QUANT	0	Positive Feedback Resistance (ohm)
ACHSELECT	IQUANT	0	Ach Select
CABLEID	IQUANT	13	Cable ID
DCCALDATE	LABEL	7/31/2020	DC Calibration Date
ACCALDATE	LABEL	7/31/2020	AC Calibration Date
THERMOSELECT	IQUANT	1	Thermo Select
FRAMEWORKVERSION	QUANT	6.33	Framework Version
INSTRUMENTVERSION	LABEL	3.50	Instrument Version
COMPLIANCEVOLTAGE	IQUANT	0	Compliance Voltage
ZCURVE	TABLE
	Pt	Time	Freq	Zreal	Zimag	Zsig	Zmod	Zphz	Idc	Vdc	IERange
	#	s	Hz	ohm	ohm	V	ohm	°	A	V	#
	0	14	300046.9	-98.918	-4840.609	1	4841.62	-91.17068	2.875763E-005	-0.001712	9
	1	28	238359.4	-32.53044	-6021.018	1	6021.105	-90.30956	-2.28766E-005	0.0014985	9
	2	43	189328.1	111.4566	-7556.771	1	7557.593	-89.15499	-6.166819E-005	0.0005448	9
	3	50	150421.9	97.414	-9019.176	1	9019.702	-89.38119	1.982333E-005	-0.000867	9
	4	62	119484.4	483.4348	-11568.44	1	11578.54	-87.60706	2.539896E-005	0.008442	8
	5	69	94921.88	420.0938	-14514.35	1	14520.42	-88.34213	2.274833E-005	-0.0097454	8
	6	77	75421.88	465.0221	-18078.36	1	18084.34	-88.52653	8.326474E-006	0.0041988	8
	7	85	59859.37	948.2546	-22721.3	1	22741.08	-87.6102	1.667483E-005	-0.0093794	8
	8	94	47578.12	4261.369	-30024.03	1	30324.94	-81.92185	5.073088E-006	-0.0009102	7
	9	102	37828.12	4299.415	-36915.14	1	37164.66	-83.35683	2.781241E-006	0.0086315	7
	10	109	30046.88	4264.853	-46300.63	1	46496.64	-84.73721	5.309109E-006	-0.0269653	7
	11	117	23859.38	-3037.807	-53466.14	1	53552.37	-93.2519	-1.118532E-006	-0.0052369	8
	12	123	18984.38	4800.916	-71107.59	1	71269.48	-86.13747	2.773125E-006	0.0084284	7
	13	129	15046.87	6015.107	-89041.99	1	89244.93	-86.13534	-1.036654E-006	-0.0134615	7
	14	134	11953.13	3815.119	-112647	1	112711.6	-88.06026	7.620692E-006	-0.0239007	7
	15	139	9515.62	5017.563	-147415.4	1	147500.7	-88.05058	8.339292E-006	0.0042937	8
	16	147	7546.875	4889.844	-178541.9	1	178608.9	-88.4312	3.930748E-007	0.0165917	7
	17	153	5928.309	4576.335	-228941	1	228986.8	-88.85486	-5.359154E-006	0.0035909	7
	18	160	4733.456	15078.4	-277382.5	1	277792	-86.88849	7.638104E-006	-0.0185586	7
	19	166	3796.875	-82151.09	-381889.2	1	390625.4	-102.1403	-1.601396E-005	0.0006343	8
	20	175	2987.132	-36565.48	-442255.1	1	443764.1	-94.72644	3.551666E-006	-0.0247737	7
	21	183	2390.625	-27239.76	-449997.6	1	450821.3	-93.46407	7.726556E-006	-0.0246538	7
	22	189	1884.191	-71775.51	-647257.4	1	651224.9	-96.3278	3.543832E-006	-0.0247507	7
	23	196	1516.544	48770.15	-903260	1	904575.7	-86.9094	-2.83574E-007	-0.0073407	6
	24	202	1193.986	814003.8	-722524.6	1	1088414	-41.59284	-2.082792E-006	0.0077995	8
	25	211	946.5144	-193492	-756696.6	1	781043.5	-104.3435	-6.696519E-006	0.011878	7
	26	216	751.7689	1602997	-75313.61	1	1604766	-2.689949	-3.333439E-006	-0.0054167	7
	27	222	597.4265	-16269.27	-856793.3	1	856947.8	-91.08784	6.950516E-006	-0.027308	7
	28	228	477.4305	67327.88	-2748670	1	2749494	-88.59684	-6.780748E-008	0.0005829	7
	29	235	376.6741	533655.6	-3630564	1	3669575	-81.63799	-8.715909E-010	0.0006818	5
	30	239	298.2954	583318.3	-4522295	1	4559759	-82.65015	-7.937794E-010	0.0005978	5
	31	241	237.7717	782907.9	-5600708	1	5655164	-82.04234	-8.059702E-010	0.000645	5
	32	244	189.0121	730744.9	-7020137	1	7058067	-84.05733	-7.918E-010	0.0005911	5
	33	247	150.2404	792527.7	-8609922	1	8646320	-84.74084	-8.738156E-010	0.0006825	5
	34	250	119.1737	-1134124	-8844034	1	8916455	-97.3075	-8.209904E-010	0.0007141	5
	35	253	95.0169	1754203	-1.358025E+007	1	1.369308E+007	-82.63968	-8.562661E-010	0.0006949	5
	36	255	75.60484	1832136	-1.656053E+007	1	1.666157E+007	-83.68689	-8.336506E-010	0.0006832	5
	37	258	54.50582	3067107	-2.358858E+007	1	2.378714E+007	-82.59167	-7.751329E-010	0.0005905	5
	38	262	45.95588	3768462	-2.948038E+007	1	2.972026E+007	-82.71542	-8.67435E-010	0.00063	5
	39	265	37.20238	5893814	-3.142507E+007	1	3.197299E+007	-79.3775	-7.760156E-010	0.0006184	5
	40	269	30.04808	8063449	-4.189694E+007	1	4.266583E+007	-79.10611	-8.33631E-010	0.0006222	5
	41	273	23.91582	1.712656E+007	-5.610227E+007	1	5.86582E+007	-73.02393	-5.283302E-011	0.0006214	4
	42	277	18.60119	-1309544	-6.702289E+007	1	6.703568E+007	-91.11935	4.9533E-011	0.0005919	4
	43	280	15.02404	2.621982E+007	-7.757818E+007	1	8.188928E+007	-71.32581	-1.051796E-010	0.0006319	4
	44	284	12.01923	3.895671E+007	-9.753727E+007	1	1.050293E+008	-68.22807	-9.662077E-011	0.0006664	4
	45	288	9.450605	4.838522E+007	-1.13335E+008	1	1.232313E+008	-66.88129	-9.658498E-011	0.0007041	4
	46	292	7.512019	7.212322E+007	-1.342363E+008	1	1.523848E+008	-61.75151	-9.964126E-011	0.0005985	4
	47	296	5.978954	1.06096E+008	-1.565421E+008	1	1.891079E+008	-55.87265	-1.163327E-010	0.0007009	4
	48	302	4.734848	1.616467E+008	-1.657344E+008	1	2.315114E+008	-45.71537	-3.464001E-011	0.0007112	3
	49	307	3.75601	1.99966E+008	-1.78755E+008	1	2.682158E+008	-41.79439	-3.581768E-011	0.0006645	3
	50	312	3.004808	2.141136E+008	-2.024386E+008	1	2.946626E+008	-43.39455	-7.859046E-010	0.0005987	5
	51	321	2.372217	2.84174E+008	-1.95214E+008	1	3.447657E+008	-34.4872	-3.469156E-011	0.0007917	3
	52	327	1.878005	3.313227E+008	-1.956236E+008	1	3.84764E+008	-30.55896	-3.500923E-011	0.0007089	3
	53	335	1.512097	3.768359E+008	-1.934492E+008	1	4.235892E+008	-27.17375	-3.48847E-011	0.0007111	3
	54	340	1.201923	4.255597E+008	-1.857805E+008	1	4.643441E+008	-23.58394	-3.4794E-011	0.0007014	3
	55	349	0.956633	4.752668E+008	-1.797205E+008	1	5.081122E+008	-20.71394	-3.607455E-011	0.0001168	3
