EXPLAIN
TAG	EISPOT
TITLE	LABEL	Potentiostatic EIS	Test Identifier
DATE	LABEL	8/29/2020	Date
TIME	LABEL	11:14:06	Time
NOTES	NOTES	1	Notes...
	
PSTAT	PSTAT	REF3000-16137	Potentiostat
VDC	POTEN	0.00000E+000	T	DC Voltage (V)
FREQINIT	QUANT	3.00000E+005	Initial Freq. (Hz)
FREQFINAL	QUANT	1.00000E+000	Final Freq. (Hz)
PTSPERDEC	QUANT	1.00000E+001	Points/decade
VAC	QUANT	5.00000E+001	AC Voltage (mV rms)
AREA	QUANT	1.00000E+000	Sample Area (cm^2)
SPEED	SELECTOR	2	Optimize for:
ZGUESS	QUANT	1.00000E+003	Estimated Z (ohms)
EOC	QUANT	0	Open Circuit (V)
SEQUENCER	TOGGLE	TRUE	Run as Sequence
PSTATMODEL	IQUANT	5	Pstat Model
PSTATSECTION	LABEL	REF3000-16137	Pstat Section
PSTATSERIALNO	LABEL	16137	Pstat Serial Number
CTRLMODE	IQUANT	1	Control Mode
IESTAB	IQUANT	0	I/E Stability
CASPEED	IQUANT	1	Control Amp Speed
CONVENTION	IQUANT	1	Current Convention
ICHRANGE	IQUANT	2	Ich Range
ICHRANGEMODE	TOGGLE	F	Ich Auto Range
ICHOFFSETENABLE	TOGGLE	T	Ich Offset Enable
ICHOFFSET	QUANT	0	Ich Offset (V)
ICHFILTER	IQUANT	3	Ich Filter
VCHRANGE	IQUANT	2	Vch Range
VCHRANGEMODE	TOGGLE	F	Vch Auto Range
VCHOFFSETENABLE	TOGGLE	T	Vch Offset Enable
VCHOFFSET	QUANT	0	Vch Offset (V)
VCHFILTER	IQUANT	3	Vch Filter
ACHRANGE	IQUANT	2	Ach Range
ACHOFFSETENABLE	TOGGLE	F	Ach Offset Enable
ACHOFFSET	QUANT	0	Ach Offset (V)
ACHFILTER	IQUANT	3	Ach Filter
IERANGELOWERLIMIT	IQUANT	2	I/E Range Lower Limit
IERANGEMODE	TOGGLE	F	I/E AutoRange
IERANGE	IQUANT	11	I/E Range
POSFEEDENABLE	TOGGLE	F	Positive Feedback IR Comp
POSFEEDRESISTANCE	QUANT	0	Positive Feedback Resistance (ohm)
ACHSELECT	IQUANT	0	Ach Select
CABLEID	IQUANT	13	Cable ID
DCCALDATE	LABEL	7/31/2020	DC Calibration Date
ACCALDATE	LABEL	7/31/2020	AC Calibration Date
THERMOSELECT	IQUANT	1	Thermo Select
FRAMEWORKVERSION	QUANT	6.33	Framework Version
INSTRUMENTVERSION	LABEL	3.50	Instrument Version
COMPLIANCEVOLTAGE	IQUANT	0	Compliance Voltage
ZCURVE	TABLE
	Pt	Time	Freq	Zreal	Zimag	Zsig	Zmod	Zphz	Idc	Vdc	IERange
	#	s	Hz	ohm	ohm	V	ohm	°	A	V	#
	0	7	300046.9	33.20638	-1.633751	1	33.24654	-2.816677	-0.0003269	-0.0009442	10
	1	14	238359.4	33.30519	-2.515983	1	33.40009	-4.320105	-0.0005008	0.0049528	10
	2	19	189328.1	33.59715	-3.397611	1	33.76851	-5.774572	-0.0004578	0.0048833	10
	3	24	150421.9	34.19129	-4.247496	1	34.45411	-7.081427	-0.0006594	0.001177	10
	4	29	119484.4	34.63496	-5.300972	1	35.03827	-8.701745	0.0006982	-0.0001144	10
	5	33	94921.88	35.23427	-6.355161	1	35.80282	-10.22444	3.708098E-005	0.0015975	10
	6	36	75421.88	36.11469	-6.785315	1	36.74658	-10.64082	-7.423729E-005	0.0049024	9
	7	39	59859.37	36.84074	-8.348936	1	37.77493	-12.76883	-6.191634E-005	-0.0008725	9
	8	41	47578.12	37.66836	-10.00189	1	38.97363	-14.87033	0.0001572	-0.0039485	9
	9	44	37828.12	38.60022	-11.90886	1	40.39552	-17.14593	-3.535439E-005	0.0042042	9
	10	46	30046.88	39.53683	-14.1011	1	41.97621	-19.62914	0.0001669	-0.0042242	9
	11	49	23859.38	40.55675	-16.64403	1	43.83918	-22.31269	0.0001429	-0.0025901	9
	12	51	18984.38	41.57154	-19.6131	1	45.96593	-25.25754	0.0001518	-0.0047093	9
	13	53	15046.87	42.78109	-23.39188	1	48.75861	-28.66899	-0.0001479	0.0046331	9
	14	56	11953.13	43.62024	-28.07038	1	51.87168	-32.76198	-3.830026E-005	0.0038876	9
	15	58	9515.62	44.63757	-33.48439	1	55.80069	-36.875	1.587293E-005	-0.0030878	9
	16	60	7546.875	45.65506	-40.72232	1	61.17754	-41.73157	2.523693E-005	-0.0035417	9
	17	63	5928.309	46.49771	-50.22069	1	68.44089	-47.2044	0.0001099	-0.0007732	9
	18	65	4733.456	47.40213	-61.2976	1	77.48779	-52.28481	1.274693E-005	0.0028984	9
	19	67	3796.875	48.36891	-75.37149	1	89.55676	-57.31008	0.0001122	-0.0052459	9
	20	70	2987.132	49.7168	-94.19257	1	106.5082	-62.17397	0.0001162	-0.0053081	9
	21	72	2390.625	50.71823	-116.4137	1	126.9822	-66.45856	5.801423E-005	0.0012359	9
	22	75	1884.191	53.00307	-145.4955	1	154.8492	-69.98364	-1.83031E-005	-0.0024552	9
	23	78	1516.544	54.84834	-179.6754	1	187.8605	-73.02448	-7.901027E-005	0.005103	9
	24	81	1193.986	57.90049	-225.3856	1	232.7039	-75.59253	0.000116	-0.0053337	9
	25	85	946.5144	60.96744	-281.8561	1	288.3746	-77.79456	-1.5189E-005	-0.0025805	9
	26	88	751.7689	64.84504	-355.0513	1	360.9242	-79.64982	-6.548027E-005	-0.0008124	9
	27	91	597.4265	70.65882	-441.4642	1	447.0831	-80.90662	-1.959075E-005	-0.0024367	9
	28	95	477.4305	80.48071	-544.4825	1	550.3983	-81.59191	6.211698E-007	0.0006532	8
	29	97	376.6741	91.71769	-684.2704	1	690.3898	-82.36574	6.019445E-007	0.000644	8
	30	100	298.2954	106.6581	-856.5229	1	863.1381	-82.90181	6.181329E-007	0.0006594	8
	31	102	237.7717	126.2187	-1064.689	1	1072.145	-83.23915	6.17668E-007	0.0006475	8
	32	104	189.0121	152.8945	-1326.204	1	1334.989	-83.42355	5.873369E-007	0.0006528	8
	33	107	150.2404	188.7876	-1650.558	1	1661.319	-83.47498	5.651475E-007	0.0006787	8
	34	109	119.1737	238.5443	-2054.719	1	2068.519	-83.37785	6.218746E-007	0.0006499	8
	35	112	95.0169	303.0019	-2547.539	1	2565.495	-83.21716	5.677213E-007	0.0006736	8
	36	114	75.60484	391.0677	-3158.736	1	3182.852	-82.9424	5.829489E-007	0.0006679	8
	37	117	54.50582	572.1307	-4290.339	1	4328.319	-82.40424	6.245915E-007	0.0006664	8
	38	119	45.95588	711.3839	-5031.765	1	5081.803	-81.95293	8.131265E-008	0.0006183	7
	39	121	37.20238	918.7258	-6112.2	1	6180.861	-81.45185	7.394587E-008	0.0006506	7
	40	124	30.04808	1197.896	-7428.539	1	7524.503	-80.83957	6.44957E-008	0.0006439	7
	41	126	23.91582	1599.768	-9145.138	1	9284.008	-80.07759	6.412373E-008	0.0006199	7
	42	129	18.60119	2205.979	-11431.62	1	11642.52	-79.07778	7.621571E-008	0.0006208	7
	43	131	15.02404	2883.334	-13809.45	1	14107.25	-78.20641	6.995638E-008	0.0006356	7
	44	133	12.01923	3837.088	-16762.4	1	17195.97	-77.10654	6.406616E-008	0.0006482	7
	45	136	9.450605	5211.271	-20526.54	1	21177.73	-75.75474	7.597742E-008	0.000619	7
	46	139	7.512019	6943.64	-24878.83	1	25829.64	-74.40567	7.52428E-008	0.0006428	7
	47	142	5.978954	9202.263	-29917.03	1	31300.32	-72.90248	7.703107E-008	0.0006346	7
	48	146	4.734848	12266.25	-35925	1	37961.39	-71.14802	7.77689E-008	0.0006357	7
	49	149	3.75601	16206.35	-42781.86	1	45748.59	-69.25263	7.818763E-009	0.0006575	6
	50	155	3.004808	21007.26	-50310.43	1	54520.12	-67.33689	5.848547E-009	0.0007361	6
	51	161	2.372217	27486.65	-59317.16	1	65376.16	-65.13773	7.352432E-009	0.00069	6
	52	165	1.878005	35587.7	-68964.1	1	77604.97	-62.70481	4.648208E-009	0.0006574	6
	53	170	1.512097	44771.21	-78483.24	1	90355.3	-60.29716	4.686327E-009	0.0007423	6
	54	175	1.201923	56702.51	-89233.83	1	105725.4	-57.5666	5.537354E-009	0.0006493	6
	55	182	0.956633	70747.88	-100008.6	1	122503	-54.72374	1.115395E-009	3.730979E-005	6
