EXPLAIN
TAG	EISPOT
TITLE	LABEL	Potentiostatic EIS	Test Identifier
DATE	LABEL	8/29/2020	Date
TIME	LABEL	13:30:47	Time
NOTES	NOTES	1	Notes...
	
PSTAT	PSTAT	REF3000-16137	Potentiostat
VDC	POTEN	0.00000E+000	T	DC Voltage (V)
FREQINIT	QUANT	3.00000E+005	Initial Freq. (Hz)
FREQFINAL	QUANT	1.00000E+000	Final Freq. (Hz)
PTSPERDEC	QUANT	1.00000E+001	Points/decade
VAC	QUANT	5.00000E+001	AC Voltage (mV rms)
AREA	QUANT	1.00000E+000	Sample Area (cm^2)
SPEED	SELECTOR	2	Optimize for:
ZGUESS	QUANT	1.00000E+003	Estimated Z (ohms)
EOC	QUANT	0	Open Circuit (V)
SEQUENCER	TOGGLE	TRUE	Run as Sequence
PSTATMODEL	IQUANT	5	Pstat Model
PSTATSECTION	LABEL	REF3000-16137	Pstat Section
PSTATSERIALNO	LABEL	16137	Pstat Serial Number
CTRLMODE	IQUANT	1	Control Mode
IESTAB	IQUANT	0	I/E Stability
CASPEED	IQUANT	1	Control Amp Speed
CONVENTION	IQUANT	1	Current Convention
ICHRANGE	IQUANT	2	Ich Range
ICHRANGEMODE	TOGGLE	F	Ich Auto Range
ICHOFFSETENABLE	TOGGLE	T	Ich Offset Enable
ICHOFFSET	QUANT	0	Ich Offset (V)
ICHFILTER	IQUANT	3	Ich Filter
VCHRANGE	IQUANT	2	Vch Range
VCHRANGEMODE	TOGGLE	F	Vch Auto Range
VCHOFFSETENABLE	TOGGLE	T	Vch Offset Enable
VCHOFFSET	QUANT	0	Vch Offset (V)
VCHFILTER	IQUANT	3	Vch Filter
ACHRANGE	IQUANT	2	Ach Range
ACHOFFSETENABLE	TOGGLE	F	Ach Offset Enable
ACHOFFSET	QUANT	0	Ach Offset (V)
ACHFILTER	IQUANT	3	Ach Filter
IERANGELOWERLIMIT	IQUANT	2	I/E Range Lower Limit
IERANGEMODE	TOGGLE	F	I/E AutoRange
IERANGE	IQUANT	11	I/E Range
POSFEEDENABLE	TOGGLE	F	Positive Feedback IR Comp
POSFEEDRESISTANCE	QUANT	0	Positive Feedback Resistance (ohm)
ACHSELECT	IQUANT	0	Ach Select
CABLEID	IQUANT	13	Cable ID
DCCALDATE	LABEL	7/31/2020	DC Calibration Date
ACCALDATE	LABEL	7/31/2020	AC Calibration Date
THERMOSELECT	IQUANT	1	Thermo Select
FRAMEWORKVERSION	QUANT	6.33	Framework Version
INSTRUMENTVERSION	LABEL	3.50	Instrument Version
COMPLIANCEVOLTAGE	IQUANT	0	Compliance Voltage
ZCURVE	TABLE
	Pt	Time	Freq	Zreal	Zimag	Zsig	Zmod	Zphz	Idc	Vdc	IERange
	#	s	Hz	ohm	ohm	V	ohm	°	A	V	#
	0	24	300046.9	-30.37974	-4830.982	1	4831.078	-90.3603	1.407129E-007	0.0015903	9
	1	37	238359.4	37.69373	-6066.082	1	6066.199	-89.64397	5.140177E-005	6.864098E-005	9
	2	51	189328.1	-3.186346	-7441.724	1	7441.725	-90.02454	7.810123E-005	-0.0016395	9
	3	59	150421.9	333.1583	-9160.813	1	9166.869	-87.9172	-2.261042E-005	0.0016537	9
	4	69	119484.4	334.5644	-11600.64	1	11605.46	-88.34804	-3.06087E-005	-0.006419	8
	5	76	94921.88	671.6443	-14546.94	1	14562.44	-87.35648	-2.678382E-005	0.0097147	8
	6	85	75421.88	475.7465	-18131.1	1	18137.34	-88.49695	-2.251871E-006	0.0077972	8
	7	94	59859.37	666.1432	-22849.4	1	22859.11	-88.33009	-2.491365E-005	0.0110643	8
	8	102	47578.12	4057.871	-29899.11	1	30173.21	-82.27111	-5.299364E-006	0.0035385	7
	9	110	37828.12	4172.005	-37327.59	1	37560.02	-83.62267	-3.66907E-006	0.0255701	7
	10	117	30046.88	1454.201	-45522.33	1	45545.55	-88.17032	2.745146E-005	-0.0073599	8
	11	126	23859.38	2669.968	-55021.87	1	55086.61	-87.22187	2.637558E-005	-0.0089928	8
	12	133	18984.38	1317.815	-70880.57	1	70892.82	-88.93488	2.199902E-005	-0.0095381	8
	13	141	15046.87	12161.54	-90674.01	1	91485.95	-82.36086	-8.681833E-006	-0.0022845	8
	14	149	11953.13	5947.134	-111209.9	1	111368.8	-86.93893	2.829633E-006	0.0084173	7
	15	155	9515.62	1487.524	-140541.7	1	140549.6	-89.39359	4.241492E-007	0.0163953	7
	16	161	7546.875	7389.616	-177946.3	1	178099.7	-87.62203	6.902147E-006	-0.0272112	7
	17	168	5928.309	7922.767	-215335.1	1	215480.8	-87.89288	2.796156E-006	0.0085883	7
	18	173	4733.456	40893.29	-298925.1	1	301709.3	-82.21023	5.976035E-007	-0.0278446	6
	19	179	3796.875	39606.8	-366273.3	1	368408.5	-83.82832	-6.659856E-007	0.0101117	6
	20	184	2987.132	52978.37	-470180.7	1	473156	-83.57122	7.778584E-007	-0.0230558	6
	21	189	2390.625	-210701.9	-638538.8	1	672403.9	-108.2616	4.88557E-007	0.0162179	7
	22	196	1884.191	57322.96	-693985.7	1	696349.1	-85.27811	-7.529867E-007	0.0233409	6
	23	201	1516.544	59686.15	-888724	1	890726	-86.15782	-4.763267E-008	-0.0151991	6
	24	207	1193.986	120229.6	-1112766	1	1119243	-83.83336	-4.031698E-007	0.0256343	6
	25	212	946.5144	-51679.57	-1642393	1	1643206	-91.80228	2.180514E-007	0.0106393	6
	26	216	751.7689	259103.1	-1723370	1	1742739	-81.44981	7.349197E-007	-0.0274012	6
	27	220	597.4265	308377.9	-2725362	1	2742754	-83.54437	4.400009E-007	0.0018546	6
	28	225	477.4305	83574.23	-2802760	1	2804006	-88.29203	-7.225228E-009	0.0006178	6
	29	230	376.6741	482038.2	-3653333	1	3684997	-82.48354	-8.774788E-010	0.0006862	5
	30	234	298.2954	502971.7	-4571545	1	4599131	-83.72144	-8.039986E-010	0.0006061	5
	31	237	237.7717	486623.2	-5773410	1	5793881	-85.1821	-8.130456E-010	0.0005963	5
	32	240	189.0121	573059.1	-7075461	1	7098630	-85.36958	-8.515513E-010	0.000663	5
	33	243	150.2404	379604.7	-8674131	1	8682433	-87.49417	-8.558277E-010	0.0006861	5
	34	245	119.1737	-1752971	-9269944	1	9434234	-100.7083	-8.745291E-010	0.0006881	5
	35	248	95.0169	689178.9	-1.367392E+007	1	1.369127E+007	-87.11468	-7.531278E-010	0.0006045	5
	36	251	75.60484	778107.6	-1.688329E+007	1	1.690121E+007	-87.36125	-8.09078E-010	0.0006804	5
	37	254	54.50582	1483090	-2.38919E+007	1	2.393788E+007	-86.44792	-7.891831E-010	0.0006073	5
	38	257	45.95588	1685600	-2.743576E+007	1	2.748749E+007	-86.48428	-8.597941E-010	0.0006844	5
	39	261	37.20238	1716342	-3.34803E+007	1	3.352426E+007	-87.06535	-8.335334E-010	0.0006004	5
	40	265	30.04808	956554	-4.352229E+007	1	4.35328E+007	-88.74093	-8.680679E-010	0.0006387	5
	41	269	23.91582	1222138	-5.673284E+007	1	5.6746E+007	-88.76592	-6.093211E-011	0.0006807	4
	42	273	18.60119	-2444058	-1.042801E+008	1	1.043088E+008	-91.34262	-2.57948E-010	0.0007029	4
	43	276	15.02404	5659984	-8.736494E+007	1	8.75481E+007	-86.29324	-1.010356E-010	0.0006205	4
	44	280	12.01923	7295057	-1.107491E+008	1	1.109891E+008	-86.23136	-9.988448E-011	0.0006843	4
	45	283	9.450605	4935593	-1.385369E+008	1	1.386248E+008	-87.95961	-9.722399E-011	0.0006927	4
	46	287	7.512019	1.253391E+007	-1.656954E+008	1	1.661688E+008	-85.67414	-1.015569E-010	0.0006782	4
	47	292	5.978954	7978234	-2.165741E+008	1	2.16721E+008	-87.89027	-9.869516E-011	0.0006481	4
	48	297	4.734848	4.904331E+007	-2.854356E+008	1	2.896182E+008	-80.25068	-3.51828E-011	0.0006654	3
	49	302	3.75601	5196377	-3.573023E+008	1	3.573401E+008	-89.16679	-8.895594E-010	0.0006872	5
	50	310	3.004808	5.629229E+007	-4.412716E+008	1	4.448477E+008	-82.73014	-8.829872E-010	0.0007117	5
	51	320	2.372217	6.984614E+007	-5.450084E+008	1	5.494658E+008	-82.69701	-3.537622E-011	0.0007521	3
	52	325	1.878005	8.088681E+007	-6.823673E+008	1	6.871447E+008	-83.23979	-3.547087E-011	0.0007071	3
	53	334	1.512097	9.600564E+007	-8.417812E+008	1	8.472383E+008	-83.4935	-3.534727E-011	0.0007087	3
	54	341	1.201923	1.212232E+008	-1.059693E+009	1	1.066604E+009	-83.47404	-3.527049E-011	0.0006944	3
	55	354	0.956633	1.633492E+008	-1.320136E+009	1	1.330204E+009	-82.94627	-3.517413E-011	8.436848E-005	3
