EXPLAIN
TAG	EISPOT
TITLE	LABEL	Potentiostatic EIS	Test Identifier
DATE	LABEL	8/29/2020	Date
TIME	LABEL	13:06:29	Time
NOTES	NOTES	1	Notes...
	
PSTAT	PSTAT	REF3000-16137	Potentiostat
VDC	POTEN	0.00000E+000	T	DC Voltage (V)
FREQINIT	QUANT	3.00000E+005	Initial Freq. (Hz)
FREQFINAL	QUANT	1.00000E+000	Final Freq. (Hz)
PTSPERDEC	QUANT	1.00000E+001	Points/decade
VAC	QUANT	5.00000E+001	AC Voltage (mV rms)
AREA	QUANT	1.00000E+000	Sample Area (cm^2)
SPEED	SELECTOR	2	Optimize for:
ZGUESS	QUANT	1.00000E+003	Estimated Z (ohms)
EOC	QUANT	0	Open Circuit (V)
SEQUENCER	TOGGLE	TRUE	Run as Sequence
PSTATMODEL	IQUANT	5	Pstat Model
PSTATSECTION	LABEL	REF3000-16137	Pstat Section
PSTATSERIALNO	LABEL	16137	Pstat Serial Number
CTRLMODE	IQUANT	1	Control Mode
IESTAB	IQUANT	0	I/E Stability
CASPEED	IQUANT	1	Control Amp Speed
CONVENTION	IQUANT	1	Current Convention
ICHRANGE	IQUANT	2	Ich Range
ICHRANGEMODE	TOGGLE	F	Ich Auto Range
ICHOFFSETENABLE	TOGGLE	T	Ich Offset Enable
ICHOFFSET	QUANT	0	Ich Offset (V)
ICHFILTER	IQUANT	3	Ich Filter
VCHRANGE	IQUANT	2	Vch Range
VCHRANGEMODE	TOGGLE	F	Vch Auto Range
VCHOFFSETENABLE	TOGGLE	T	Vch Offset Enable
VCHOFFSET	QUANT	0	Vch Offset (V)
VCHFILTER	IQUANT	3	Vch Filter
ACHRANGE	IQUANT	2	Ach Range
ACHOFFSETENABLE	TOGGLE	F	Ach Offset Enable
ACHOFFSET	QUANT	0	Ach Offset (V)
ACHFILTER	IQUANT	3	Ach Filter
IERANGELOWERLIMIT	IQUANT	2	I/E Range Lower Limit
IERANGEMODE	TOGGLE	F	I/E AutoRange
IERANGE	IQUANT	11	I/E Range
POSFEEDENABLE	TOGGLE	F	Positive Feedback IR Comp
POSFEEDRESISTANCE	QUANT	0	Positive Feedback Resistance (ohm)
ACHSELECT	IQUANT	0	Ach Select
CABLEID	IQUANT	13	Cable ID
DCCALDATE	LABEL	7/31/2020	DC Calibration Date
ACCALDATE	LABEL	7/31/2020	AC Calibration Date
THERMOSELECT	IQUANT	1	Thermo Select
FRAMEWORKVERSION	QUANT	6.33	Framework Version
INSTRUMENTVERSION	LABEL	3.50	Instrument Version
COMPLIANCEVOLTAGE	IQUANT	0	Compliance Voltage
ZCURVE	TABLE
	Pt	Time	Freq	Zreal	Zimag	Zsig	Zmod	Zphz	Idc	Vdc	IERange
	#	s	Hz	ohm	ohm	V	ohm	°	A	V	#
	0	14	300046.9	-25.9217	-4789.975	1	4790.045	-90.31006	8.533317E-005	-0.0035988	9
	1	28	238359.4	-50.46146	-5928.184	1	5928.398	-90.48769	3.036396E-005	-0.001601	9
	2	44	189328.1	30.09941	-7380.364	1	7380.426	-89.76633	2.437547E-005	0.0010363	9
	3	52	150421.9	119.055	-9120.195	1	9120.973	-89.25211	-2.176365E-005	0.0015629	9
	4	60	119484.4	725.2471	-11427.85	1	11450.84	-86.3687	4.243686E-006	0.0153577	8
	5	67	94921.88	906.9645	-14408.72	1	14437.24	-86.39824	-2.49207E-005	0.0110957	8
	6	76	75421.88	936.8921	-18137.99	1	18162.17	-87.0431	2.758321E-005	-0.0074847	8
	7	83	59859.37	1196.828	-22423.13	1	22455.04	-86.94476	-2.529168E-005	0.0112149	8
	8	92	47578.12	4798.104	-29499.05	1	29886.72	-80.76158	3.597058E-006	-0.0248426	7
	9	99	37828.12	5269.298	-36417.71	1	36796.95	-81.76698	6.965052E-006	-0.0272699	7
	10	107	30046.88	1683.293	-44424.7	1	44456.58	-87.83005	-2.495406E-005	0.0110905	8
	11	116	23859.38	5544.625	-56109.72	1	56383.01	-84.35649	8.497766E-006	0.0041573	8
	12	123	18984.38	8049.709	-71283	1	71736.07	-83.55711	5.101341E-006	-0.0006691	7
	13	128	15046.87	6062.854	-88223.63	1	88431.7	-86.06873	-1.598881E-005	0.0006154	8
	14	136	11953.13	12328.99	-114103.9	1	114768	-83.83308	-6.852018E-006	0.0120074	7
	15	142	9515.62	15079.58	-123260.3	1	124179.3	-83.02513	8.309878E-006	0.0042963	8
	16	150	7546.875	25580	-177948.8	1	179777.9	-81.81982	5.350879E-006	-0.0272073	7
	17	156	5928.309	37485.43	-218284.2	1	221479.4	-80.25578	5.428406E-006	-0.027019	7
	18	162	4733.456	31645.18	-291569.7	1	293281.9	-83.80572	7.734327E-006	-0.0245733	7
	19	167	3796.875	69081.69	-335032.5	1	342080.4	-78.34924	7.703047E-006	-0.018509	7
	20	174	2987.132	-63015.26	-320392.4	1	326530.6	-101.127	8.46169E-006	0.0042106	8
	21	182	2390.625	408346.5	-363046.8	1	546397.1	-41.63919	2.352474E-005	-0.0028974	8
	22	191	1884.191	82092.02	-352424.6	1	361859.4	-76.88763	-1.19843E-005	0.0102906	8
	23	200	1516.544	433599.3	-640451.9	1	773425.5	-55.90118	4.957962E-006	-0.0006048	7
	24	207	1193.986	1058639	-775381.6	1	1312224	-36.22027	7.73288E-006	-0.024554	7
	25	215	946.5144	874100.6	-1325574	1	1587828	-56.59863	6.985885E-006	-0.0274612	7
	26	221	751.7689	-1175512	-742365.6	1	1390300	-147.7265	-1.076742E-006	-0.0133889	7
	27	227	597.4265	983204	-912690.3	1	1341527	-42.86999	-5.045123E-008	-0.0152012	6
	28	231	477.4305	1551638	-879058.6	1	1783347	-29.53311	-9.174741E-010	0.0006478	5
	29	233	376.6741	1725978	-804904.5	1	1904435	-25.00185	-7.923261E-010	0.0005996	5
	30	236	298.2954	1873720	-716416.8	1	2006011	-20.92435	-8.452269E-010	0.0006114	5
	31	239	237.7717	2003449	-622941.4	1	2098063	-17.27227	-9.289144E-010	0.0006462	5
	32	241	189.0121	2090087	-544439.3	1	2159833	-14.60032	-8.209454E-010	0.000596	5
	33	244	150.2404	2155005	-484693.4	1	2208840	-12.67576	-9.104594E-010	0.0006798	5
	34	247	119.1737	2101617	-441200.2	1	2147429	-11.85614	-9.433929E-010	0.0006702	5
	35	250	95.0169	2308525	-339104.2	1	2333298	-8.356541	-8.430584E-010	0.0006149	5
	36	253	75.60484	2346653	-294955.3	1	2365117	-7.164048	-8.486773E-010	0.0005933	5
	37	255	54.50582	2425887	-290667.1	1	2443238	-6.832546	-8.190823E-009	0.0006891	6
	38	260	45.95588	2486668	-222682.7	1	2496619	-5.117224	-8.873968E-010	0.0005998	5
	39	263	37.20238	2534283	-260816.5	1	2547669	-5.875925	-8.189178E-009	0.0007125	6
	40	267	30.04808	2616608	-194781.9	1	2623847	-4.257282	-7.395652E-010	0.0006161	5
	41	271	23.91582	2668516	-210609.3	1	2676814	-4.512644	-7.274058E-009	0.0006112	6
	42	275	18.60119	2693277	-183261	1	2699504	-3.892628	-1.041253E-009	0.0006831	5
	43	279	15.02404	2801523	-206660.9	1	2809135	-4.218916	-7.671663E-009	0.0006405	6
	44	282	12.01923	2866895	-220274.6	1	2875345	-4.393624	-8.192688E-009	0.0006573	6
	45	286	9.450605	2945887	-224882.8	1	2954458	-4.365371	-1.109359E-009	0.0006977	5
	46	290	7.512019	3020420	-262998.4	1	3031848	-4.97639	-7.877106E-009	0.0007002	6
	47	296	5.978954	3146938	-293116	1	3160560	-5.321361	-9.373858E-010	0.0006091	5
	48	301	4.734848	3263565	-348258.9	1	3282094	-6.091051	-7.323242E-009	0.000608	6
	49	307	3.75601	3412189	-399010.1	1	3435440	-6.669687	-7.011012E-010	0.0007047	5
	50	314	3.004808	3583266	-472851	1	3614330	-7.517369	-8.215404E-009	0.0006828	6
	51	322	2.372217	3738720	-552781.8	1	3779364	-8.410434	-1.086272E-009	0.0006932	5
	52	326	1.878005	3901724	-624782.5	1	3951430	-9.097531	-4.168971E-010	0.0006955	4
	53	331	1.512097	4063789	-728483.4	1	4128567	-10.16302	-3.161892E-010	0.000637	4
	54	336	1.201923	4258337	-871604.1	1	4346623	-11.56763	-2.988925E-010	0.0006414	4
	55	343	0.956633	4492316	-1023836	1	4607510	-12.83888	-3.821781E-010	1.285432E-005	4
