EXPLAIN
TAG	EISPOT
TITLE	LABEL	Potentiostatic EIS	Test Identifier
DATE	LABEL	8/29/2020	Date
TIME	LABEL	14:29:27	Time
NOTES	NOTES	1	Notes...
	
PSTAT	PSTAT	REF3000-16137	Potentiostat
VDC	POTEN	0.00000E+000	T	DC Voltage (V)
FREQINIT	QUANT	3.00000E+005	Initial Freq. (Hz)
FREQFINAL	QUANT	1.00000E+000	Final Freq. (Hz)
PTSPERDEC	QUANT	1.00000E+001	Points/decade
VAC	QUANT	5.00000E+001	AC Voltage (mV rms)
AREA	QUANT	1.00000E+000	Sample Area (cm^2)
SPEED	SELECTOR	2	Optimize for:
ZGUESS	QUANT	1.00000E+003	Estimated Z (ohms)
EOC	QUANT	0	Open Circuit (V)
SEQUENCER	TOGGLE	TRUE	Run as Sequence
PSTATMODEL	IQUANT	5	Pstat Model
PSTATSECTION	LABEL	REF3000-16137	Pstat Section
PSTATSERIALNO	LABEL	16137	Pstat Serial Number
CTRLMODE	IQUANT	1	Control Mode
IESTAB	IQUANT	0	I/E Stability
CASPEED	IQUANT	1	Control Amp Speed
CONVENTION	IQUANT	1	Current Convention
ICHRANGE	IQUANT	2	Ich Range
ICHRANGEMODE	TOGGLE	F	Ich Auto Range
ICHOFFSETENABLE	TOGGLE	T	Ich Offset Enable
ICHOFFSET	QUANT	0	Ich Offset (V)
ICHFILTER	IQUANT	3	Ich Filter
VCHRANGE	IQUANT	2	Vch Range
VCHRANGEMODE	TOGGLE	F	Vch Auto Range
VCHOFFSETENABLE	TOGGLE	T	Vch Offset Enable
VCHOFFSET	QUANT	0	Vch Offset (V)
VCHFILTER	IQUANT	3	Vch Filter
ACHRANGE	IQUANT	2	Ach Range
ACHOFFSETENABLE	TOGGLE	F	Ach Offset Enable
ACHOFFSET	QUANT	0	Ach Offset (V)
ACHFILTER	IQUANT	3	Ach Filter
IERANGELOWERLIMIT	IQUANT	2	I/E Range Lower Limit
IERANGEMODE	TOGGLE	F	I/E AutoRange
IERANGE	IQUANT	11	I/E Range
POSFEEDENABLE	TOGGLE	F	Positive Feedback IR Comp
POSFEEDRESISTANCE	QUANT	0	Positive Feedback Resistance (ohm)
ACHSELECT	IQUANT	0	Ach Select
CABLEID	IQUANT	13	Cable ID
DCCALDATE	LABEL	7/31/2020	DC Calibration Date
ACCALDATE	LABEL	7/31/2020	AC Calibration Date
THERMOSELECT	IQUANT	1	Thermo Select
FRAMEWORKVERSION	QUANT	6.33	Framework Version
INSTRUMENTVERSION	LABEL	3.50	Instrument Version
COMPLIANCEVOLTAGE	IQUANT	0	Compliance Voltage
ZCURVE	TABLE
	Pt	Time	Freq	Zreal	Zimag	Zsig	Zmod	Zphz	Idc	Vdc	IERange
	#	s	Hz	ohm	ohm	V	ohm	°	A	V	#
	0	7	300046.9	29.59182	-2.119336	1	29.66762	-4.09647	-0.0008269	0.0003976	11
	1	11	238359.4	30.01386	-2.356571	1	30.10623	-4.489431	0.0002352	0.0018421	10
	2	16	189328.1	30.31193	-3.216036	1	30.48206	-6.056312	-0.000323	-0.0004759	10
	3	22	150421.9	30.73475	-4.018969	1	30.9964	-7.449898	-0.0005231	0.0002551	10
	4	27	119484.4	31.18519	-5.058401	1	31.59278	-9.21343	0.0001534	-0.0012213	10
	5	31	94921.88	31.72031	-6.106372	1	32.30272	-10.89652	0.0002205	0.0006891	10
	6	34	75421.88	32.32254	-7.279302	1	33.13208	-12.69174	0.0002055	-0.0005575	10
	7	36	59859.37	33.02109	-8.569347	1	34.11489	-14.54799	0.0002842	-0.0001658	10
	8	39	47578.12	33.78446	-10.06363	1	35.25147	-16.58761	3.208897E-005	-0.0003026	10
	9	41	37828.12	34.60154	-11.75904	1	36.54506	-18.7699	-0.0002829	0.0015367	10
	10	44	30046.88	35.45403	-13.81556	1	38.05073	-21.28964	-0.0002775	0.0011394	10
	11	46	23859.38	36.36909	-16.22305	1	39.82333	-24.04007	0.0002626	-0.0004228	10
	12	49	18984.38	37.20391	-19.04494	1	41.79522	-27.10823	-0.0002068	0.0015394	10
	13	51	15046.87	38.19513	-22.61414	1	44.38769	-30.62844	6.352449E-005	0.0009392	9
	14	53	11953.13	38.92745	-27.08824	1	47.42488	-34.83269	0.0001275	-0.0049283	9
	15	56	9515.62	39.81988	-32.70003	1	51.52586	-39.39279	2.314045E-005	-0.0033308	9
	16	58	7546.875	40.60727	-39.88324	1	56.91769	-44.48463	0.0001336	-0.0026462	9
	17	60	5928.309	41.53144	-49.58717	1	64.6819	-50.05234	0.000105	-0.0008866	9
	18	62	4733.456	42.14703	-60.66258	1	73.86691	-55.20927	6.280021E-005	-0.0041319	9
	19	65	3796.875	43.15396	-74.37037	1	85.98382	-59.87523	0.0001246	-0.0022735	9
	20	67	2987.132	44.28097	-93.2747	1	103.252	-64.60457	-5.494475E-005	0.0036457	9
	21	70	2390.625	45.98339	-115.0386	1	123.8885	-68.21236	-0.0001373	0.0044135	9
	22	72	1884.191	47.30395	-144.4469	1	151.9953	-71.86725	-0.0001048	0.0050855	9
	23	75	1516.544	49.73331	-177.8164	1	184.6404	-74.37427	-0.0001036	0.0010928	9
	24	80	1193.986	52.10175	-223.9338	1	229.9151	-76.90225	-0.0001226	0.0024788	9
	25	83	946.5144	58.0845	-279.7496	1	285.716	-78.27032	0.000104	-0.0049258	9
	26	86	751.7689	58.73312	-350.1321	1	355.024	-80.47754	-0.0001393	0.0044726	9
	27	90	597.4265	67.45236	-439.3933	1	444.5405	-81.27251	0.0001399	-0.0043979	9
	28	93	477.4305	74.5826	-542.1799	1	547.2857	-82.16752	9.181715E-007	8.702992E-005	9
	29	96	376.6741	86.04742	-678.0714	1	683.5093	-82.76781	4.817455E-007	0.0006132	8
	30	98	298.2954	100.8117	-848.5886	1	854.5558	-83.22505	4.9211E-007	0.0006494	8
	31	100	237.7717	120.1788	-1054.647	1	1061.472	-83.49908	4.726348E-007	0.0006649	8
	32	103	189.0121	146.5972	-1313.585	1	1321.74	-83.6321	4.393604E-007	0.0006718	8
	33	105	150.2404	182.4	-1635.109	1	1645.251	-83.63484	4.772187E-007	0.0006743	8
	34	108	119.1737	230.6634	-2038.89	1	2051.896	-83.54546	4.16393E-007	0.0006496	8
	35	110	95.0169	297.4722	-2525.504	1	2542.963	-83.28224	4.8318E-007	0.0006676	8
	36	113	75.60484	389.1257	-3133.233	1	3157.303	-82.92051	4.363816E-007	0.0006762	8
	37	115	54.50582	580.502	-4254.398	1	4293.819	-82.23012	5.31971E-007	0.000652	8
	38	118	45.95588	730.6289	-4997.315	1	5050.443	-81.68204	6.122136E-008	0.0006325	7
	39	120	37.20238	960.232	-6069.926	1	6145.408	-81.01059	5.538853E-008	0.0006457	7
	40	122	30.04808	1272.032	-7376.28	1	7485.157	-80.21564	3.715094E-008	0.0006233	7
	41	125	23.91582	1740.984	-9080.739	1	9246.126	-79.1468	2.544729E-008	0.000637	7
	42	127	18.60119	2436.419	-11326.81	1	11585.88	-77.86053	4.509738E-008	0.0006301	7
	43	129	15.02404	3306.04	-13660.71	1	14055.07	-76.39538	3.738745E-008	0.0006365	7
	44	132	12.01923	4510.543	-16469.66	1	17076.14	-74.68396	3.364707E-008	0.0006237	7
	45	134	9.450605	6269.883	-20045.21	1	21002.9	-72.63099	2.931421E-008	0.0005931	7
	46	137	7.512019	8548.591	-23954.44	1	25434.1	-70.3601	4.011322E-008	0.0006298	7
	47	140	5.978954	11541.11	-28247.08	1	30513.84	-67.77619	2.930742E-008	0.0006431	7
	48	144	4.734848	15536.48	-33014.28	1	36487.32	-64.79837	4.390265E-008	0.0006465	7
	49	147	3.75601	20626.71	-37922.98	1	43169.59	-61.45776	-9.534652E-009	0.0006504	6
	50	153	3.004808	26525.5	-42546.29	1	50137.7	-58.05851	-8.167438E-009	0.0006765	6
	51	159	2.372217	33889.89	-47255.79	1	58151.82	-54.35349	-1.017157E-008	0.0007113	6
	52	163	1.878005	42313.36	-51348.39	1	66536.28	-50.50996	-1.340119E-008	0.0006689	6
	53	168	1.512097	50636.67	-54307.04	1	74251.78	-47.00308	-1.188358E-008	0.000639	6
	54	174	1.201923	60193.4	-56391.49	1	82481.79	-43.13221	-1.222648E-008	0.000658	6
	55	180	0.956633	69749.3	-57101.5	1	90141.81	-39.30608	-1.606341E-008	-1.699412E-005	6
