EXPLAIN
TAG	EISPOT
TITLE	LABEL	Potentiostatic EIS	Test Identifier
DATE	LABEL	8/29/2020	Date
TIME	LABEL	12:21:25	Time
NOTES	NOTES	1	Notes...
	
PSTAT	PSTAT	REF3000-16137	Potentiostat
VDC	POTEN	0.00000E+000	T	DC Voltage (V)
FREQINIT	QUANT	3.00000E+005	Initial Freq. (Hz)
FREQFINAL	QUANT	1.00000E+000	Final Freq. (Hz)
PTSPERDEC	QUANT	1.00000E+001	Points/decade
VAC	QUANT	5.00000E+001	AC Voltage (mV rms)
AREA	QUANT	1.00000E+000	Sample Area (cm^2)
SPEED	SELECTOR	2	Optimize for:
ZGUESS	QUANT	1.00000E+003	Estimated Z (ohms)
EOC	QUANT	0	Open Circuit (V)
SEQUENCER	TOGGLE	TRUE	Run as Sequence
PSTATMODEL	IQUANT	5	Pstat Model
PSTATSECTION	LABEL	REF3000-16137	Pstat Section
PSTATSERIALNO	LABEL	16137	Pstat Serial Number
CTRLMODE	IQUANT	1	Control Mode
IESTAB	IQUANT	0	I/E Stability
CASPEED	IQUANT	1	Control Amp Speed
CONVENTION	IQUANT	1	Current Convention
ICHRANGE	IQUANT	2	Ich Range
ICHRANGEMODE	TOGGLE	F	Ich Auto Range
ICHOFFSETENABLE	TOGGLE	T	Ich Offset Enable
ICHOFFSET	QUANT	0	Ich Offset (V)
ICHFILTER	IQUANT	3	Ich Filter
VCHRANGE	IQUANT	2	Vch Range
VCHRANGEMODE	TOGGLE	F	Vch Auto Range
VCHOFFSETENABLE	TOGGLE	T	Vch Offset Enable
VCHOFFSET	QUANT	0	Vch Offset (V)
VCHFILTER	IQUANT	3	Vch Filter
ACHRANGE	IQUANT	2	Ach Range
ACHOFFSETENABLE	TOGGLE	F	Ach Offset Enable
ACHOFFSET	QUANT	0	Ach Offset (V)
ACHFILTER	IQUANT	3	Ach Filter
IERANGELOWERLIMIT	IQUANT	2	I/E Range Lower Limit
IERANGEMODE	TOGGLE	F	I/E AutoRange
IERANGE	IQUANT	11	I/E Range
POSFEEDENABLE	TOGGLE	F	Positive Feedback IR Comp
POSFEEDRESISTANCE	QUANT	0	Positive Feedback Resistance (ohm)
ACHSELECT	IQUANT	0	Ach Select
CABLEID	IQUANT	13	Cable ID
DCCALDATE	LABEL	7/31/2020	DC Calibration Date
ACCALDATE	LABEL	7/31/2020	AC Calibration Date
THERMOSELECT	IQUANT	1	Thermo Select
FRAMEWORKVERSION	QUANT	6.33	Framework Version
INSTRUMENTVERSION	LABEL	3.50	Instrument Version
COMPLIANCEVOLTAGE	IQUANT	0	Compliance Voltage
ZCURVE	TABLE
	Pt	Time	Freq	Zreal	Zimag	Zsig	Zmod	Zphz	Idc	Vdc	IERange
	#	s	Hz	ohm	ohm	V	ohm	°	A	V	#
	0	16	300046.9	540.6036	-64.3344	1	544.4182	-6.786553	0.000758	-0.0235122	9
	1	30	238359.4	520.7229	-62.66536	1	524.48	-6.862146	0.0006857	-0.0145446	9
	2	45	189328.1	544.8733	-50.93818	1	547.2491	-5.340847	-0.000149	-0.0117862	9
	3	54	150421.9	552.5165	-44.03072	1	554.2682	-4.556342	-0.0006731	0.0124168	9
	4	61	119484.4	557.4696	-44.64069	1	559.2541	-4.578325	0.0005723	-0.0060874	9
	5	69	94921.88	565.0596	-38.918	1	566.3983	-3.939976	-0.0002552	0.0103673	9
	6	76	75421.88	570.1047	-39.4972	1	571.4713	-3.963154	0.0002746	-0.0051218	9
	7	82	59859.37	575.2593	-40.33306	1	576.6715	-4.010606	0.0001994	-0.0104949	9
	8	88	47578.12	586.0283	-41.2261	1	587.4766	-4.024031	0.0001408	0.0021462	9
	9	96	37828.12	592.5706	-45.39094	1	594.3066	-4.380306	0.0002023	-0.010555	9
	10	103	30046.88	602.2867	-48.95703	1	604.2732	-4.647085	-0.0001367	0.0100728	9
	11	111	23859.38	611.1418	-55.74545	1	613.679	-5.211825	0.0002545	-0.010395	9
	12	116	18984.38	619.2599	-63.44419	1	622.5015	-5.849637	-0.0001364	0.010156	9
	13	122	15046.87	627.5324	-70.7885	1	631.5124	-6.436016	0.0002212	-0.0016286	9
	14	127	11953.13	638.2174	-84.04354	1	643.7272	-7.50182	-0.0001382	-0.0017829	9
	15	132	9515.62	652.1716	-98.3989	1	659.553	-8.580002	0.0002913	-0.0074708	9
	16	138	7546.875	665.6351	-113.0548	1	675.1677	-9.63941	-0.0002125	0.001707	9
	17	143	5928.309	682.7759	-133.2119	1	695.6496	-11.03991	0.0002005	-0.0105156	9
	18	149	4733.456	699.1359	-158.1803	1	716.8068	-12.7486	-4.918947E-005	0.0083772	9
	19	154	3796.875	722.2277	-178.7535	1	744.02	-13.90151	0.0001103	-0.0450274	8
	20	158	2987.132	737.2806	-220.6732	1	769.5969	-16.66281	0.0002757	-0.0051459	9
	21	165	2390.625	758.549	-254.0364	1	799.9568	-18.51558	-0.0002786	0.0069841	9
	22	171	1884.191	795.0034	-282.8875	1	843.834	-19.58717	-0.0002132	0.0017174	9
	23	178	1516.544	813.888	-342.9573	1	883.195	-22.84965	-0.000257	0.0104397	9
	24	183	1193.986	834.5504	-400.9856	1	925.8854	-25.6634	0.0002917	-0.0074394	9
	25	190	946.5144	900.4482	-488.8879	1	1024.606	-28.49924	0.000141	0.002171	9
	26	195	751.7689	913.8479	-571.2499	1	1077.703	-32.00967	-0.000214	0.0017369	9
	27	200	597.4265	921.0505	-727.4867	1	1173.7	-38.30325	-5.310668E-005	-0.005079	9
	28	205	477.4305	952.687	-872.0117	1	1291.517	-42.46843	-1.107856E-006	0.0006213	8
	29	207	376.6741	981.867	-1072.764	1	1454.264	-47.53311	-1.18857E-006	0.0006174	8
	30	209	298.2954	1011.543	-1317.924	1	1661.368	-52.49276	-1.137532E-006	0.0006216	8
	31	212	237.7717	1047.222	-1620.032	1	1929.036	-57.12054	-1.099723E-006	0.0006472	8
	32	214	189.0121	1089.035	-2000.517	1	2277.732	-61.43715	-1.192677E-006	0.0007432	8
	33	217	150.2404	1153.571	-2495.179	1	2748.935	-65.18797	-1.167767E-006	0.0006012	8
	34	219	119.1737	1193.649	-3062.244	1	3286.66	-68.70439	-1.224692E-006	0.0007318	8
	35	221	95.0169	1261.969	-3789.983	1	3994.563	-71.58353	-1.127622E-006	0.0005634	8
	36	224	75.60484	1476.36	-5109.817	1	5318.823	-73.88461	-3.631063E-007	0.0006607	7
	37	227	54.50582	1590.924	-6830.55	1	7013.377	-76.88882	-3.223237E-007	0.0005118	7
	38	229	45.95588	1679.225	-7983.235	1	8157.931	-78.12135	-3.159921E-007	0.0006207	7
	39	232	37.20238	1814.247	-9690.31	1	9858.68	-79.39569	-2.998736E-007	0.0007164	7
	40	234	30.04808	1965.983	-11825.32	1	11987.63	-80.5608	-2.852886E-007	0.000696	7
	41	237	23.91582	2196.088	-14674.25	1	14837.67	-81.48852	-2.788108E-007	0.0007284	7
	42	240	18.60119	2495.702	-18591.25	1	18758.01	-82.35428	-2.775409E-007	0.0006521	7
	43	242	15.02404	2815.252	-22811.7	1	22984.76	-82.96455	-2.603528E-007	0.0006216	7
	44	244	12.01923	3260.817	-28227.3	1	28415.02	-83.4104	-2.607474E-007	0.0005116	7
	45	247	9.450605	3898.133	-35491.59	1	35705.02	-83.73218	-2.605358E-007	0.0007298	7
	46	250	7.512019	4649.062	-44240.8	1	44484.41	-84.00107	-2.618669E-007	0.0007303	7
	47	253	5.978954	6090.066	-58061.88	1	58380.39	-84.01218	-3.972115E-008	0.0005718	6
	48	257	4.734848	7422.991	-71516.95	1	71901.14	-84.0743	-3.702054E-008	0.0006252	6
	49	261	3.75601	9163.846	-88351.96	1	88825.92	-84.07847	-3.417655E-008	0.0005926	6
	50	266	3.004808	11417.27	-108511.9	1	109110.9	-83.99362	-3.359184E-008	0.0007363	6
	51	273	2.372217	14703.01	-135191.5	1	135988.7	-83.79308	-3.341315E-008	0.0006171	6
	52	277	1.878005	18767.3	-168579.9	1	169621.3	-83.64765	-3.160393E-008	0.0006535	6
	53	282	1.512097	23558.31	-206148.7	1	207490.4	-83.48062	-3.154715E-008	0.0007114	6
	54	287	1.201923	30640.29	-255912.8	1	257740.6	-83.17251	-3.157829E-008	0.0006745	6
	55	293	0.956633	40039.87	-317529.3	1	320043.8	-82.81303	-3.150399E-008	2.243259E-005	6
