EXPLAIN
TAG	EISPOT
TITLE	LABEL	Potentiostatic EIS	Test Identifier
DATE	LABEL	8/29/2020	Date
TIME	LABEL	11:04:43	Time
NOTES	NOTES	1	Notes...
	
PSTAT	PSTAT	REF3000-16137	Potentiostat
VDC	POTEN	0.00000E+000	T	DC Voltage (V)
FREQINIT	QUANT	3.00000E+005	Initial Freq. (Hz)
FREQFINAL	QUANT	1.00000E+000	Final Freq. (Hz)
PTSPERDEC	QUANT	1.00000E+001	Points/decade
VAC	QUANT	5.00000E+001	AC Voltage (mV rms)
AREA	QUANT	1.00000E+000	Sample Area (cm^2)
SPEED	SELECTOR	2	Optimize for:
ZGUESS	QUANT	1.00000E+003	Estimated Z (ohms)
EOC	QUANT	0	Open Circuit (V)
SEQUENCER	TOGGLE	TRUE	Run as Sequence
PSTATMODEL	IQUANT	5	Pstat Model
PSTATSECTION	LABEL	REF3000-16137	Pstat Section
PSTATSERIALNO	LABEL	16137	Pstat Serial Number
CTRLMODE	IQUANT	1	Control Mode
IESTAB	IQUANT	0	I/E Stability
CASPEED	IQUANT	1	Control Amp Speed
CONVENTION	IQUANT	1	Current Convention
ICHRANGE	IQUANT	2	Ich Range
ICHRANGEMODE	TOGGLE	F	Ich Auto Range
ICHOFFSETENABLE	TOGGLE	T	Ich Offset Enable
ICHOFFSET	QUANT	0	Ich Offset (V)
ICHFILTER	IQUANT	3	Ich Filter
VCHRANGE	IQUANT	2	Vch Range
VCHRANGEMODE	TOGGLE	F	Vch Auto Range
VCHOFFSETENABLE	TOGGLE	T	Vch Offset Enable
VCHOFFSET	QUANT	0	Vch Offset (V)
VCHFILTER	IQUANT	3	Vch Filter
ACHRANGE	IQUANT	2	Ach Range
ACHOFFSETENABLE	TOGGLE	F	Ach Offset Enable
ACHOFFSET	QUANT	0	Ach Offset (V)
ACHFILTER	IQUANT	3	Ach Filter
IERANGELOWERLIMIT	IQUANT	2	I/E Range Lower Limit
IERANGEMODE	TOGGLE	F	I/E AutoRange
IERANGE	IQUANT	11	I/E Range
POSFEEDENABLE	TOGGLE	F	Positive Feedback IR Comp
POSFEEDRESISTANCE	QUANT	0	Positive Feedback Resistance (ohm)
ACHSELECT	IQUANT	0	Ach Select
CABLEID	IQUANT	13	Cable ID
DCCALDATE	LABEL	7/31/2020	DC Calibration Date
ACCALDATE	LABEL	7/31/2020	AC Calibration Date
THERMOSELECT	IQUANT	1	Thermo Select
FRAMEWORKVERSION	QUANT	6.33	Framework Version
INSTRUMENTVERSION	LABEL	3.50	Instrument Version
COMPLIANCEVOLTAGE	IQUANT	0	Compliance Voltage
ZCURVE	TABLE
	Pt	Time	Freq	Zreal	Zimag	Zsig	Zmod	Zphz	Idc	Vdc	IERange
	#	s	Hz	ohm	ohm	V	ohm	°	A	V	#
	0	7	300046.9	29.74578	-2.105688	1	29.82022	-4.049184	0.0006083	0.0010203	11
	1	11	238359.4	30.01253	-2.816252	1	30.14437	-5.360701	0.0008042	0.0006172	11
	2	15	189328.1	30.44485	-3.119723	1	30.60427	-5.850751	-0.0007948	0.0023885	10
	3	20	150421.9	30.79871	-4.007966	1	31.0584	-7.414474	-0.0003268	-0.0005592	10
	4	26	119484.4	31.22351	-4.986273	1	31.61915	-9.073298	4.611579E-005	0.0024528	10
	5	29	94921.88	31.7768	-6.007919	1	32.33976	-10.70632	-0.0001447	0.0017939	10
	6	32	75421.88	32.34649	-7.150708	1	33.12745	-12.46566	0.0002701	0.0001549	10
	7	34	59859.37	33.04158	-8.439059	1	34.10225	-14.32746	0.000214	0.0007278	10
	8	37	47578.12	33.79932	-9.88476	1	35.21508	-16.30179	-0.0002159	0.0008637	10
	9	39	37828.12	34.62612	-11.61705	1	36.52292	-18.54658	0.0002622	-0.0003852	10
	10	42	30046.88	35.52609	-13.56302	1	38.02707	-20.89567	-0.0001996	0.0006835	10
	11	44	23859.38	36.39972	-15.88805	1	39.71611	-23.58071	-0.000211	0.0018709	10
	12	47	18984.38	37.38631	-18.47843	1	41.70358	-26.30118	-0.0001381	0.003798	9
	13	49	15046.87	38.31907	-22.06666	1	44.21864	-29.93619	1.602164E-005	0.0025155	9
	14	51	11953.13	39.02689	-26.40502	1	47.1203	-34.0817	7.100749E-005	-0.0044522	9
	15	53	9515.62	39.83205	-31.86991	1	51.01258	-38.66355	-0.0000964	0.0009827	9
	16	56	7546.875	40.63287	-38.83718	1	56.20816	-43.70558	-0.0001103	0.0052876	9
	17	58	5928.309	41.45417	-48.15142	1	63.53746	-49.27442	-1.713376E-005	-0.0022677	9
	18	60	4733.456	42.47623	-58.99696	1	72.69712	-54.24712	2.795288E-005	-0.0034826	9
	19	63	3796.875	43.2534	-72.40561	1	84.34115	-59.1469	3.994909E-005	-0.0040631	9
	20	65	2987.132	44.4431	-90.65055	1	100.959	-63.88274	2.688215E-005	-0.0034486	9
	21	68	2390.625	45.93143	-112.27	1	121.3023	-67.74976	-3.698541E-005	0.0041269	9
	22	71	1884.191	47.85188	-140.7998	1	148.709	-71.22928	0.0001526	-0.0038436	9
	23	73	1516.544	49.52903	-172.9938	1	179.9444	-74.02331	0.0001357	-0.0024639	9
	24	77	1193.986	52.61667	-217.8284	1	224.0932	-76.42027	1.62689E-005	0.0025503	9
	25	81	946.5144	56.11303	-271.7749	1	277.5072	-78.33414	-0.0000995	0.0009099	9
	26	83	751.7689	63.06302	-339.6826	1	345.487	-79.48262	0.0001491	-0.0046047	9
	27	87	597.4265	65.09797	-418.7881	1	423.8174	-81.16444	0.0001037	-0.0007556	9
	28	91	477.4305	77.98257	-524.9405	1	530.7012	-81.55022	1.04146E-006	9.349664E-005	9
	29	93	376.6741	90.83133	-655.8171	1	662.0774	-82.11464	6.045915E-007	0.0006774	8
	30	95	298.2954	107.6697	-819.4691	1	826.5122	-82.51481	6.443806E-007	0.00065	8
	31	98	237.7717	129.7007	-1016.894	1	1025.132	-82.7314	6.057709E-007	0.0006719	8
	32	100	189.0121	159.4518	-1264.113	1	1274.13	-82.81084	6.337591E-007	0.0006507	8
	33	103	150.2404	199.5024	-1569.944	1	1582.57	-82.75789	6.747419E-007	0.0006006	8
	34	105	119.1737	255.8009	-1952.964	1	1969.645	-82.53783	6.511497E-007	0.0006737	8
	35	107	95.0169	325.6014	-2411.78	1	2433.66	-82.31129	6.700064E-007	0.0006475	8
	36	110	75.60484	423.4488	-2983.486	1	3013.387	-81.92191	6.782068E-007	0.0006479	8
	37	112	54.50582	625.7782	-4035.464	1	4083.696	-81.18537	6.45749E-007	0.0006515	8
	38	115	45.95588	775.6377	-4722.354	1	4785.628	-80.67255	8.397611E-008	0.0006224	7
	39	117	37.20238	1009.44	-5724.991	1	5813.303	-80.00029	7.603776E-008	0.0006525	7
	40	120	30.04808	1320.048	-6927.845	1	7052.486	-79.21204	7.300835E-008	0.0006163	7
	41	122	23.91582	1760.849	-8472.229	1	8653.279	-78.25893	6.416589E-008	0.0006513	7
	42	125	18.60119	2431.273	-10545.02	1	10821.67	-77.0167	8.017679E-008	0.0006591	7
	43	127	15.02404	3191.34	-12666.78	1	13062.61	-75.85889	8.549731E-008	0.0006419	7
	44	129	12.01923	4243.343	-15256.46	1	15835.58	-74.45694	7.787397E-008	0.0006215	7
	45	132	9.450605	5727.741	-18529.96	1	19395.02	-72.82326	7.176535E-008	0.000662	7
	46	134	7.512019	7619.272	-22180.19	1	23452.38	-71.04153	8.111412E-008	0.0006725	7
	47	137	5.978954	10048.04	-26329.85	1	28181.98	-69.11206	8.219656E-008	0.0006249	7
	48	142	4.734848	13211.46	-31210.71	1	33891.76	-67.05711	7.461063E-008	0.0006357	7
	49	145	3.75601	17277.8	-36447.94	1	40335.77	-64.63715	8.34982E-008	0.0006375	7
	50	151	3.004808	22193.88	-41944.01	1	47453.86	-62.11529	7.123413E-009	0.0006605	6
	51	157	2.372217	28594.35	-48138.23	1	55990.41	-59.28947	6.11825E-009	0.0006225	6
	52	161	1.878005	36315.04	-54375	1	65386.72	-56.26252	7.967808E-009	0.0006762	6
	53	166	1.512097	44535.63	-59961.62	1	74691.48	-53.39742	6.252143E-009	0.0006819	6
	54	171	1.201923	54807.43	-65449.37	1	85366.7	-50.05713	5.868862E-009	0.0006905	6
	55	178	0.956633	66162.79	-70226.93	1	96484.9	-46.70679	-2.228007E-009	3.828358E-005	6
