EXPLAIN
TAG	EISPOT
TITLE	LABEL	Potentiostatic EIS	Test Identifier
DATE	LABEL	8/29/2020	Date
TIME	LABEL	12:03:30	Time
NOTES	NOTES	1	Notes...
	
PSTAT	PSTAT	REF3000-16137	Potentiostat
VDC	POTEN	0.00000E+000	T	DC Voltage (V)
FREQINIT	QUANT	3.00000E+005	Initial Freq. (Hz)
FREQFINAL	QUANT	1.00000E+000	Final Freq. (Hz)
PTSPERDEC	QUANT	1.00000E+001	Points/decade
VAC	QUANT	5.00000E+001	AC Voltage (mV rms)
AREA	QUANT	1.00000E+000	Sample Area (cm^2)
SPEED	SELECTOR	2	Optimize for:
ZGUESS	QUANT	1.00000E+003	Estimated Z (ohms)
EOC	QUANT	0	Open Circuit (V)
SEQUENCER	TOGGLE	TRUE	Run as Sequence
PSTATMODEL	IQUANT	5	Pstat Model
PSTATSECTION	LABEL	REF3000-16137	Pstat Section
PSTATSERIALNO	LABEL	16137	Pstat Serial Number
CTRLMODE	IQUANT	1	Control Mode
IESTAB	IQUANT	0	I/E Stability
CASPEED	IQUANT	1	Control Amp Speed
CONVENTION	IQUANT	1	Current Convention
ICHRANGE	IQUANT	2	Ich Range
ICHRANGEMODE	TOGGLE	F	Ich Auto Range
ICHOFFSETENABLE	TOGGLE	T	Ich Offset Enable
ICHOFFSET	QUANT	0	Ich Offset (V)
ICHFILTER	IQUANT	3	Ich Filter
VCHRANGE	IQUANT	2	Vch Range
VCHRANGEMODE	TOGGLE	F	Vch Auto Range
VCHOFFSETENABLE	TOGGLE	T	Vch Offset Enable
VCHOFFSET	QUANT	0	Vch Offset (V)
VCHFILTER	IQUANT	3	Vch Filter
ACHRANGE	IQUANT	2	Ach Range
ACHOFFSETENABLE	TOGGLE	F	Ach Offset Enable
ACHOFFSET	QUANT	0	Ach Offset (V)
ACHFILTER	IQUANT	3	Ach Filter
IERANGELOWERLIMIT	IQUANT	2	I/E Range Lower Limit
IERANGEMODE	TOGGLE	F	I/E AutoRange
IERANGE	IQUANT	11	I/E Range
POSFEEDENABLE	TOGGLE	F	Positive Feedback IR Comp
POSFEEDRESISTANCE	QUANT	0	Positive Feedback Resistance (ohm)
ACHSELECT	IQUANT	0	Ach Select
CABLEID	IQUANT	13	Cable ID
DCCALDATE	LABEL	7/31/2020	DC Calibration Date
ACCALDATE	LABEL	7/31/2020	AC Calibration Date
THERMOSELECT	IQUANT	1	Thermo Select
FRAMEWORKVERSION	QUANT	6.33	Framework Version
INSTRUMENTVERSION	LABEL	3.50	Instrument Version
COMPLIANCEVOLTAGE	IQUANT	0	Compliance Voltage
ZCURVE	TABLE
	Pt	Time	Freq	Zreal	Zimag	Zsig	Zmod	Zphz	Idc	Vdc	IERange
	#	s	Hz	ohm	ohm	V	ohm	°	A	V	#
	0	14	300046.9	170.5227	3.269375	1	170.554	1.098379	0.0004019	-0.0002648	9
	1	26	238359.4	167.8173	0.4679847	1	167.8179	0.1597778	-0.0003529	-0.0027603	9
	2	39	189328.1	167.2964	-2.452777	1	167.3143	-0.8399687	0.0004867	-0.0258054	9
	3	45	150421.9	167.6064	-5.66162	1	167.702	-1.934673	0.0002301	0.0063383	9
	4	50	119484.4	169.2477	-7.51378	1	169.4144	-2.541986	8.235261E-005	0.0108917	9
	5	56	94921.88	170.7883	-9.57208	1	171.0563	-3.207871	1.692241E-005	-0.0063484	9
	6	61	75421.88	171.3895	-12.6854	1	171.8583	-4.233032	0.000251	-0.0086433	9
	7	64	59859.37	173.1246	-15.59314	1	173.8254	-5.146681	0.0001651	-0.0091365	9
	8	67	47578.12	175.3573	-18.62476	1	176.3436	-6.062677	-0.0001386	-0.0008165	9
	9	71	37828.12	177.6013	-22.28066	1	178.9934	-7.150587	-0.0002224	0.0092926	9
	10	74	30046.88	180.1376	-27.17903	1	182.1765	-8.580027	0.0002603	-0.0070856	9
	11	77	23859.38	183.2918	-32.17252	1	186.094	-9.95549	-0.0001668	0.0093854	9
	12	81	18984.38	186.6843	-37.92029	1	190.4966	-11.48201	0.0002626	-0.0070885	9
	13	84	15046.87	191.1314	-44.76761	1	196.3042	-13.18242	-6.474513E-005	-0.003746	9
	14	87	11953.13	195.2045	-51.90136	1	201.9865	-14.88944	-0.0002013	0.0023178	9
	15	91	9515.62	200.23	-60.51732	1	209.1755	-16.81687	1.865367E-005	-0.0063429	9
	16	94	7546.875	205.9743	-70.9538	1	217.8529	-19.00775	0.0000971	-0.0081427	9
	17	98	5928.309	211.8159	-83.28789	1	227.6024	-21.46519	-0.0001066	0.0086624	9
	18	102	4733.456	217.678	-97.9536	1	238.702	-24.22742	0.0002197	-0.0093219	9
	19	106	3796.875	223.4458	-116.0661	1	251.7923	-27.44904	0.0003094	0.0001746	10
	20	111	2987.132	230.092	-138.352	1	268.4839	-31.01806	5.963827E-005	0.0043114	9
	21	116	2390.625	238.2731	-167.6343	1	291.3337	-35.12786	-0.0001097	0.0087532	9
	22	121	1884.191	244.3844	-200.8893	1	316.3546	-39.42095	0.0001674	-0.0092218	9
	23	127	1516.544	249.1539	-239.8697	1	345.8542	-43.91236	0.0001682	-0.009243	9
	24	132	1193.986	259.0291	-297.9709	1	394.8199	-48.99925	0.0002908	-0.0004211	10
	25	138	946.5144	263.0424	-363.1506	1	448.408	-54.0829	0.0002237	-0.009447	9
	26	141	751.7689	267.5421	-450.3037	1	523.7864	-59.28389	-0.0002211	0.0093581	9
	27	145	597.4265	296.825	-561.8741	1	635.4586	-62.15355	0.0002196	-0.0093523	9
	28	149	477.4305	292.3437	-685.8217	1	745.5309	-66.91301	9.08506E-007	2.41316E-005	9
	29	152	376.6741	304.3097	-855.9401	1	908.426	-70.42834	-2.922714E-007	0.0006182	8
	30	155	298.2954	317.9081	-1068.189	1	1114.492	-73.42625	-3.362248E-007	0.0007212	8
	31	157	237.7717	334.2009	-1326.937	1	1368.376	-75.86356	-2.959864E-007	0.0006341	8
	32	160	189.0121	354.6413	-1653.481	1	1691.085	-77.89451	-2.430555E-007	0.000606	8
	33	162	150.2404	381.2457	-2061.294	1	2096.254	-79.5213	-2.406799E-007	0.0006036	8
	34	164	119.1737	417.4803	-2576.33	1	2609.936	-80.79553	-3.264383E-007	0.0006737	8
	35	167	95.0169	455.2668	-3208.572	1	3240.71	-81.92416	-2.18317E-007	0.0006349	8
	36	169	75.60484	510.1015	-4000.551	1	4032.94	-82.73355	-2.801349E-007	0.0006266	8
	37	172	54.50582	635.2089	-5521.612	1	5558.029	-83.43752	-5.530314E-008	0.0006976	7
	38	174	45.95588	720.698	-6522.575	1	6562.271	-83.6948	-4.846261E-008	0.0005646	7
	39	177	37.20238	843.89	-7973.418	1	8017.952	-83.95843	-5.303245E-008	0.0006988	7
	40	179	30.04808	1013.358	-9794.59	1	9846.87	-84.09314	-5.942288E-008	0.0006638	7
	41	183	23.91582	1248.968	-12194.02	1	12257.81	-84.15189	-6.022922E-008	0.0006564	7
	42	186	18.60119	1588.898	-15467.87	1	15549.27	-84.13501	-4.232386E-008	0.0005935	7
	43	188	15.02404	1979.547	-18950.69	1	19053.8	-84.03664	-5.143228E-008	0.0006921	7
	44	191	12.01923	2514.428	-23391.93	1	23526.69	-83.86476	-4.886709E-008	0.0005652	7
	45	193	9.450605	3307.822	-29409.16	1	29594.6	-83.58257	-6.074124E-008	0.0006885	7
	46	196	7.512019	4264.073	-36416.64	1	36665.44	-83.32157	-5.585834E-008	0.0005701	7
	47	199	5.978954	5682.294	-45158.04	1	45514.14	-82.82809	-5.758647E-009	0.0007433	6
	48	203	4.734848	7459.132	-56088.1	1	56581.92	-82.42471	-6.281712E-009	0.0006988	6
	49	207	3.75601	9880.01	-69500.64	1	70199.38	-81.9092	-6.307051E-009	0.0007311	6
	50	212	3.004808	13029.74	-85242.19	1	86232.27	-81.30929	-5.71436E-009	0.0006863	6
	51	218	2.372217	17591.68	-105715.7	1	107169.4	-80.55224	-5.738204E-009	0.0007479	6
	52	223	1.878005	23381.04	-130414.4	1	132493.7	-79.83584	-6.535735E-009	0.0006516	6
	53	227	1.512097	30518.63	-157521.1	1	160450.2	-79.03518	-5.914494E-009	0.0006947	6
	54	233	1.201923	40325.61	-192987.1	1	197155.2	-78.19758	-6.341237E-009	0.0006414	6
	55	239	0.956633	52936.8	-234674.4	1	240570.9	-77.28823	-6.713738E-009	3.370574E-005	6
