EXPLAIN
TAG	EISPOT
TITLE	LABEL	Potentiostatic EIS	Test Identifier
DATE	LABEL	8/29/2020	Date
TIME	LABEL	14:05:10	Time
NOTES	NOTES	1	Notes...
	
PSTAT	PSTAT	REF3000-16137	Potentiostat
VDC	POTEN	0.00000E+000	T	DC Voltage (V)
FREQINIT	QUANT	3.00000E+005	Initial Freq. (Hz)
FREQFINAL	QUANT	1.00000E+000	Final Freq. (Hz)
PTSPERDEC	QUANT	1.00000E+001	Points/decade
VAC	QUANT	5.00000E+001	AC Voltage (mV rms)
AREA	QUANT	1.00000E+000	Sample Area (cm^2)
SPEED	SELECTOR	2	Optimize for:
ZGUESS	QUANT	1.00000E+003	Estimated Z (ohms)
EOC	QUANT	0	Open Circuit (V)
SEQUENCER	TOGGLE	TRUE	Run as Sequence
PSTATMODEL	IQUANT	5	Pstat Model
PSTATSECTION	LABEL	REF3000-16137	Pstat Section
PSTATSERIALNO	LABEL	16137	Pstat Serial Number
CTRLMODE	IQUANT	1	Control Mode
IESTAB	IQUANT	0	I/E Stability
CASPEED	IQUANT	1	Control Amp Speed
CONVENTION	IQUANT	1	Current Convention
ICHRANGE	IQUANT	2	Ich Range
ICHRANGEMODE	TOGGLE	F	Ich Auto Range
ICHOFFSETENABLE	TOGGLE	T	Ich Offset Enable
ICHOFFSET	QUANT	0	Ich Offset (V)
ICHFILTER	IQUANT	3	Ich Filter
VCHRANGE	IQUANT	2	Vch Range
VCHRANGEMODE	TOGGLE	F	Vch Auto Range
VCHOFFSETENABLE	TOGGLE	T	Vch Offset Enable
VCHOFFSET	QUANT	0	Vch Offset (V)
VCHFILTER	IQUANT	3	Vch Filter
ACHRANGE	IQUANT	2	Ach Range
ACHOFFSETENABLE	TOGGLE	F	Ach Offset Enable
ACHOFFSET	QUANT	0	Ach Offset (V)
ACHFILTER	IQUANT	3	Ach Filter
IERANGELOWERLIMIT	IQUANT	2	I/E Range Lower Limit
IERANGEMODE	TOGGLE	F	I/E AutoRange
IERANGE	IQUANT	11	I/E Range
POSFEEDENABLE	TOGGLE	F	Positive Feedback IR Comp
POSFEEDRESISTANCE	QUANT	0	Positive Feedback Resistance (ohm)
ACHSELECT	IQUANT	0	Ach Select
CABLEID	IQUANT	13	Cable ID
DCCALDATE	LABEL	7/31/2020	DC Calibration Date
ACCALDATE	LABEL	7/31/2020	AC Calibration Date
THERMOSELECT	IQUANT	1	Thermo Select
FRAMEWORKVERSION	QUANT	6.33	Framework Version
INSTRUMENTVERSION	LABEL	3.50	Instrument Version
COMPLIANCEVOLTAGE	IQUANT	0	Compliance Voltage
ZCURVE	TABLE
	Pt	Time	Freq	Zreal	Zimag	Zsig	Zmod	Zphz	Idc	Vdc	IERange
	#	s	Hz	ohm	ohm	V	ohm	°	A	V	#
	0	7	300046.9	35.86291	-1.111347	1	35.88013	-1.774957	-9.244973E-007	-0.0000996	9
	1	10	238359.4	36.04421	-2.05163	1	36.10255	-3.25775	4.991857E-005	-0.0021133	9
	2	13	189328.1	36.17196	-3.052815	1	36.30056	-4.824176	3.504735E-005	-0.0008796	9
	3	16	150421.9	36.45249	-4.070049	1	36.679	-6.370889	4.460442E-005	-0.0013819	9
	4	18	119484.4	36.74467	-5.083974	1	37.09472	-7.877402	-5.011751E-005	0.0017458	9
	5	21	94921.88	37.27048	-6.129633	1	37.77117	-9.339457	-8.113251E-006	0.0002262	9
	6	23	75421.88	37.76871	-7.429689	1	38.49255	-11.12887	5.855728E-006	0.0001948	9
	7	26	59859.37	38.38273	-8.863071	1	39.39274	-13.00244	1.747744E-005	-0.0001967	9
	8	28	47578.12	39.0944	-10.46021	1	40.46959	-14.97935	4.791214E-006	0.000252	9
	9	31	37828.12	39.88577	-12.27221	1	41.73106	-17.10229	-1.080533E-005	0.0005752	9
	10	33	30046.88	40.7422	-14.38873	1	43.20836	-19.45145	1.072889E-005	6.05322E-005	9
	11	36	23859.38	41.66863	-16.87789	1	44.95707	-22.05042	-1.142707E-005	0.0005395	9
	12	38	18984.38	42.58812	-19.80985	1	46.96997	-24.94548	-7.421298E-006	0.0004795	9
	13	41	15046.87	43.53254	-23.40781	1	49.42679	-28.26729	1.765354E-005	-0.00035	9
	14	43	11953.13	44.40585	-27.9004	1	52.44342	-32.14134	1.141304E-005	4.605208E-005	9
	15	45	9515.62	45.22728	-33.44635	1	56.25091	-36.48356	1.088505E-005	7.006704E-005	9
	16	48	7546.875	46.05556	-40.4852	1	61.32019	-41.31712	-1.211808E-005	0.0004066	9
	17	50	5928.309	46.90147	-49.93406	1	68.50662	-46.79374	2.838441E-006	-0.0002092	9
	18	52	4733.456	47.71928	-61.03498	1	77.47514	-51.98046	1.802377E-005	-0.0003367	9
	19	55	3796.875	48.5743	-74.70495	1	89.10831	-56.96746	9.530396E-006	2.095877E-005	9
	20	57	2987.132	49.70547	-93.29384	1	105.7089	-61.95202	1.809431E-005	-0.0003346	9
	21	59	2390.625	51.21999	-114.8884	1	125.7888	-65.97155	8.072547E-006	-0.0003431	9
	22	63	1884.191	52.70152	-144.1445	1	153.4767	-69.91679	1.793917E-005	-0.0003301	9
	23	65	1516.544	54.59139	-177.3389	1	185.5514	-72.88972	1.769786E-005	-0.0003972	9
	24	67	1193.986	57.3582	-223.0643	1	230.3208	-75.57951	-1.035022E-005	0.0005607	9
	25	70	946.5144	60.3553	-278.8604	1	285.3172	-77.78753	1.824742E-005	-0.0003208	9
	26	72	751.7689	66.81821	-347.7445	1	354.1058	-79.12333	2.940756E-006	-0.0002204	9
	27	74	597.4265	71.89127	-432.0123	1	437.9532	-80.55197	3.335485E-006	-0.0002303	8
	28	77	477.4305	79.86602	-535.7491	1	541.6693	-81.52116	4.311939E-007	0.0006479	8
	29	79	376.6741	91.31513	-672.5997	1	678.7701	-82.26854	4.477554E-007	0.0006436	8
	30	81	298.2954	106.5648	-841.0979	1	847.8218	-82.77926	4.441448E-007	0.0006478	8
	31	84	237.7717	126.5293	-1044.59	1	1052.226	-83.09352	4.432009E-007	0.0006521	8
	32	86	189.0121	153.8711	-1300.105	1	1309.179	-83.25028	4.448289E-007	0.0006537	8
	33	88	150.2404	191.0583	-1616.87	1	1628.119	-83.26086	4.482303E-007	0.0006548	8
	34	91	119.1737	241.9525	-2013.424	1	2027.91	-83.14764	4.427483E-007	0.0006522	8
	35	93	95.0169	310.2957	-2491.893	1	2511.138	-82.90195	4.485233E-007	0.0006539	8
	36	96	75.60484	404.4794	-3087.847	1	3114.226	-82.53728	4.485519E-007	0.0006515	8
	37	98	54.50582	603.6008	-4187.106	1	4230.389	-81.79692	4.551509E-007	0.0006482	8
	38	101	45.95588	751.5002	-4913.991	1	4971.123	-81.30508	3.875957E-008	0.0006304	7
	39	103	37.20238	989.483	-5965.083	1	6046.594	-80.58158	2.73357E-008	0.0006685	7
	40	106	30.04808	1311.252	-7234.117	1	7351.995	-79.72614	2.340628E-008	0.0006167	7
	41	108	23.91582	1795.647	-8892.601	1	9072.083	-78.584	1.618131E-008	0.0006241	7
	42	110	18.60119	2518.966	-11074.21	1	11357.08	-77.1854	4.040967E-008	0.0006291	7
	43	113	15.02404	3373.945	-13300.44	1	13721.71	-75.76593	3.94422E-008	0.0006312	7
	44	115	12.01923	4586.562	-16015.7	1	16659.51	-74.01939	2.914493E-008	0.0006182	7
	45	120	9.450605	6349.404	-19426.79	1	20438.08	-71.90067	2.942294E-008	0.0006328	7
	46	122	7.512019	8649.713	-23148.78	1	24712.02	-69.51143	3.215547E-008	0.0006417	7
	47	125	5.978954	11673.18	-27203.59	1	29602.34	-66.77562	3.347699E-008	0.0006245	7
	48	128	4.734848	15625.46	-31645.74	1	35293.17	-63.7216	4.003861E-008	0.0006504	7
	49	131	3.75601	20570.71	-36206.92	1	41642.47	-60.39723	3.088716E-008	0.0006149	7
	50	135	3.004808	26303.53	-40468.93	1	48266.03	-56.9774	-2.158514E-008	0.0007124	6
	51	138	2.372217	33521.98	-44522.45	1	55731.25	-53.02307	-1.815287E-008	0.0007412	6
	52	142	1.878005	41527.35	-47641.99	1	63200.32	-48.92282	-2.163502E-008	0.0006463	6
	53	147	1.512097	49441.6	-49881.88	1	70233	-45.25398	-2.284486E-008	0.0007614	6
	54	153	1.201923	58110.23	-50660.95	1	77093	-41.08216	-2.083985E-008	0.0006374	6
	55	166	0.956633	66885.1	-51221.56	1	84245.27	-37.44541	-3.011731E-008	3.208058E-005	6
