EXPLAIN
TAG	EISPOT
TITLE	LABEL	Potentiostatic EIS	Test Identifier
DATE	LABEL	8/29/2020	Date
TIME	LABEL	14:10:53	Time
NOTES	NOTES	1	Notes...
	
PSTAT	PSTAT	REF3000-16137	Potentiostat
VDC	POTEN	0.00000E+000	T	DC Voltage (V)
FREQINIT	QUANT	3.00000E+005	Initial Freq. (Hz)
FREQFINAL	QUANT	1.00000E+000	Final Freq. (Hz)
PTSPERDEC	QUANT	1.00000E+001	Points/decade
VAC	QUANT	5.00000E+001	AC Voltage (mV rms)
AREA	QUANT	1.00000E+000	Sample Area (cm^2)
SPEED	SELECTOR	2	Optimize for:
ZGUESS	QUANT	1.00000E+003	Estimated Z (ohms)
EOC	QUANT	0	Open Circuit (V)
SEQUENCER	TOGGLE	TRUE	Run as Sequence
PSTATMODEL	IQUANT	5	Pstat Model
PSTATSECTION	LABEL	REF3000-16137	Pstat Section
PSTATSERIALNO	LABEL	16137	Pstat Serial Number
CTRLMODE	IQUANT	1	Control Mode
IESTAB	IQUANT	0	I/E Stability
CASPEED	IQUANT	1	Control Amp Speed
CONVENTION	IQUANT	1	Current Convention
ICHRANGE	IQUANT	2	Ich Range
ICHRANGEMODE	TOGGLE	F	Ich Auto Range
ICHOFFSETENABLE	TOGGLE	T	Ich Offset Enable
ICHOFFSET	QUANT	0	Ich Offset (V)
ICHFILTER	IQUANT	3	Ich Filter
VCHRANGE	IQUANT	2	Vch Range
VCHRANGEMODE	TOGGLE	F	Vch Auto Range
VCHOFFSETENABLE	TOGGLE	T	Vch Offset Enable
VCHOFFSET	QUANT	0	Vch Offset (V)
VCHFILTER	IQUANT	3	Vch Filter
ACHRANGE	IQUANT	2	Ach Range
ACHOFFSETENABLE	TOGGLE	F	Ach Offset Enable
ACHOFFSET	QUANT	0	Ach Offset (V)
ACHFILTER	IQUANT	3	Ach Filter
IERANGELOWERLIMIT	IQUANT	2	I/E Range Lower Limit
IERANGEMODE	TOGGLE	F	I/E AutoRange
IERANGE	IQUANT	11	I/E Range
POSFEEDENABLE	TOGGLE	F	Positive Feedback IR Comp
POSFEEDRESISTANCE	QUANT	0	Positive Feedback Resistance (ohm)
ACHSELECT	IQUANT	0	Ach Select
CABLEID	IQUANT	13	Cable ID
DCCALDATE	LABEL	7/31/2020	DC Calibration Date
ACCALDATE	LABEL	7/31/2020	AC Calibration Date
THERMOSELECT	IQUANT	1	Thermo Select
FRAMEWORKVERSION	QUANT	6.33	Framework Version
INSTRUMENTVERSION	LABEL	3.50	Instrument Version
COMPLIANCEVOLTAGE	IQUANT	0	Compliance Voltage
ZCURVE	TABLE
	Pt	Time	Freq	Zreal	Zimag	Zsig	Zmod	Zphz	Idc	Vdc	IERange
	#	s	Hz	ohm	ohm	V	ohm	°	A	V	#
	0	7	300046.9	30.10718	-2.119007	1	30.18165	-4.02596	-3.348364E-005	-0.0002239	11
	1	12	238359.4	30.44773	-2.469909	1	30.54774	-4.637658	-3.018483E-005	0.0003343	10
	2	15	189328.1	30.72695	-3.270367	1	30.9005	-6.075301	-5.515208E-005	0.0006101	10
	3	17	150421.9	31.08511	-4.130247	1	31.3583	-7.568501	-2.003892E-005	0.0005547	10
	4	20	119484.4	31.58158	-5.097273	1	31.99028	-9.168483	2.702756E-005	0.0008234	10
	5	22	94921.88	32.08401	-6.102417	1	32.6592	-10.76909	1.516881E-005	0.0005927	10
	6	25	75421.88	32.69905	-7.257955	1	33.49486	-12.51461	2.438759E-005	0.0006716	10
	7	27	59859.37	33.40945	-8.573092	1	34.49187	-14.39196	1.585724E-005	0.0006346	10
	8	30	47578.12	34.15529	-10.03427	1	35.59874	-16.37193	-2.131169E-005	0.0007448	10
	9	32	37828.12	34.97704	-11.59799	1	36.84978	-18.34493	-1.055247E-005	0.0001865	9
	10	35	30046.88	35.82602	-13.62728	1	38.33023	-20.82551	-1.0869E-005	0.000532	9
	11	38	23859.38	36.73457	-16.04706	1	40.08661	-23.59754	1.61053E-005	-0.0002366	9
	12	40	18984.38	37.6116	-18.93472	1	42.10885	-26.72194	1.036537E-005	4.956789E-005	9
	13	42	15046.87	38.5073	-22.54589	1	44.62207	-30.34883	-1.89395E-005	0.0010087	9
	14	45	11953.13	39.34379	-27.00899	1	47.72231	-34.46908	-1.059604E-005	0.0005096	9
	15	47	9515.62	40.1469	-32.48822	1	51.6455	-38.98095	-2.654559E-006	0.0004348	9
	16	49	7546.875	40.96896	-39.62269	1	56.99485	-44.04297	1.420478E-005	-0.0001601	9
	17	51	5928.309	41.78386	-49.01428	1	64.40723	-49.55296	-6.068722E-006	0.0004836	9
	18	54	4733.456	42.64609	-60.07476	1	73.6727	-54.62968	-1.1942E-006	0.0003761	9
	19	56	3796.875	43.56359	-73.64803	1	85.56762	-59.39523	5.083961E-006	0.0002451	9
	20	58	2987.132	44.6895	-92.13173	1	102.3983	-64.12379	-3.206286E-005	0.000976	9
	21	61	2390.625	46.363	-113.6466	1	122.7399	-67.80662	-1.484114E-005	0.0002984	9
	22	63	1884.191	47.83799	-142.7748	1	150.5759	-71.4761	1.534446E-005	-0.0004026	9
	23	65	1516.544	49.832	-175.9469	1	182.8675	-74.18672	2.247622E-005	-0.0006536	9
	24	68	1193.986	52.61992	-221.5155	1	227.6795	-76.63734	-1.045715E-005	0.0006329	9
	25	70	946.5144	55.50536	-276.8042	1	282.3144	-78.66131	-3.952039E-007	0.0003899	9
	26	73	751.7689	62.01475	-344.9439	1	350.4742	-79.80812	2.484292E-006	-0.0001945	9
	27	75	597.4265	67.63155	-431.3684	1	436.638	-81.08949	1.528908E-005	-0.0003938	9
	28	77	477.4305	75.68533	-532.576	1	537.927	-81.91175	4.567215E-007	0.0006524	8
	29	80	376.6741	87.24194	-668.8146	1	674.4806	-82.56815	4.326699E-007	0.0006921	8
	30	82	298.2954	102.6457	-836.555	1	842.8288	-83.00475	4.520003E-007	0.0006626	8
	31	84	237.7717	123.0494	-1039.109	1	1046.37	-83.24659	3.788639E-007	0.0006539	8
	32	87	189.0121	150.7112	-1293.422	1	1302.172	-83.35379	3.475222E-007	0.0006587	8
	33	89	150.2404	187.8399	-1608.967	1	1619.895	-83.34111	4.208625E-007	0.0006444	8
	34	92	119.1737	238.9576	-2004.068	1	2018.264	-83.20037	4.647095E-007	0.0006461	8
	35	94	95.0169	307.1833	-2481.827	1	2500.765	-82.94421	4.654972E-007	0.0006446	8
	36	97	75.60484	401.4168	-3074.581	1	3100.674	-82.56155	4.137382E-007	0.00064	8
	37	99	54.50582	599.7405	-4171.898	1	4214.787	-81.81937	4.566547E-007	0.0006446	8
	38	102	45.95588	747.031	-4893.411	1	4950.104	-81.32021	4.494261E-008	0.0006252	7
	39	104	37.20238	980.792	-5938.245	1	6018.696	-80.62139	5.060024E-008	0.0006231	7
	40	106	30.04808	1308.888	-7225.713	1	7343.304	-79.7326	3.328225E-008	0.0006227	7
	41	109	23.91582	1780.671	-8870.563	1	9047.522	-78.64934	2.929272E-008	0.0006242	7
	42	111	18.60119	2500.101	-11052.05	1	11331.3	-77.25356	5.089837E-008	0.0006282	7
	43	114	15.02404	3361.771	-13276.37	1	13695.39	-75.79054	4.550753E-008	0.0006247	7
	44	116	12.01923	4525.034	-15960.84	1	16589.89	-74.17152	3.927989E-008	0.0006311	7
	45	118	9.450605	6326.42	-19477.52	1	20479.19	-72.00587	3.551204E-008	0.0006362	7
	46	121	7.512019	8567.613	-23161.37	1	24695.2	-69.70008	4.177821E-008	0.0006221	7
	47	124	5.978954	11523.98	-27274.57	1	29609.2	-67.09509	4.190358E-008	0.0006271	7
	48	127	4.734848	15445.93	-31850.56	1	35398.23	-64.12893	4.484814E-008	0.0006279	7
	49	130	3.75601	20316.53	-36468.66	1	41745.96	-60.87802	3.95812E-008	0.0006169	7
	50	135	3.004808	26027.56	-40824.34	1	48415.5	-57.48045	-4.000974E-009	0.0006432	6
	51	139	2.372217	33125.32	-45338.24	1	56150.18	-53.84715	-1.038336E-008	0.0006417	6
	52	143	1.878005	41240	-48929.4	1	63990.81	-49.87424	-1.182347E-008	0.0006742	6
	53	148	1.512097	49257.04	-51593.32	1	71331.11	-46.32706	-1.023224E-008	0.0005714	6
	54	153	1.201923	58376.04	-53525.91	1	79200.91	-42.5182	-1.323113E-008	0.0006729	6
	55	159	0.956633	67454.54	-54001.32	1	86407.51	-38.67932	-1.780875E-008	3.12333E-005	6
