EXPLAIN
TAG	EISPOT
TITLE	LABEL	Potentiostatic EIS	Test Identifier
DATE	LABEL	8/29/2020	Date
TIME	LABEL	11:26:52	Time
NOTES	NOTES	1	Notes...
	
PSTAT	PSTAT	REF3000-16137	Potentiostat
VDC	POTEN	0.00000E+000	T	DC Voltage (V)
FREQINIT	QUANT	3.00000E+005	Initial Freq. (Hz)
FREQFINAL	QUANT	1.00000E+000	Final Freq. (Hz)
PTSPERDEC	QUANT	1.00000E+001	Points/decade
VAC	QUANT	5.00000E+001	AC Voltage (mV rms)
AREA	QUANT	1.00000E+000	Sample Area (cm^2)
SPEED	SELECTOR	2	Optimize for:
ZGUESS	QUANT	1.00000E+003	Estimated Z (ohms)
EOC	QUANT	0	Open Circuit (V)
SEQUENCER	TOGGLE	TRUE	Run as Sequence
PSTATMODEL	IQUANT	5	Pstat Model
PSTATSECTION	LABEL	REF3000-16137	Pstat Section
PSTATSERIALNO	LABEL	16137	Pstat Serial Number
CTRLMODE	IQUANT	1	Control Mode
IESTAB	IQUANT	0	I/E Stability
CASPEED	IQUANT	1	Control Amp Speed
CONVENTION	IQUANT	1	Current Convention
ICHRANGE	IQUANT	2	Ich Range
ICHRANGEMODE	TOGGLE	F	Ich Auto Range
ICHOFFSETENABLE	TOGGLE	T	Ich Offset Enable
ICHOFFSET	QUANT	0	Ich Offset (V)
ICHFILTER	IQUANT	3	Ich Filter
VCHRANGE	IQUANT	2	Vch Range
VCHRANGEMODE	TOGGLE	F	Vch Auto Range
VCHOFFSETENABLE	TOGGLE	T	Vch Offset Enable
VCHOFFSET	QUANT	0	Vch Offset (V)
VCHFILTER	IQUANT	3	Vch Filter
ACHRANGE	IQUANT	2	Ach Range
ACHOFFSETENABLE	TOGGLE	F	Ach Offset Enable
ACHOFFSET	QUANT	0	Ach Offset (V)
ACHFILTER	IQUANT	3	Ach Filter
IERANGELOWERLIMIT	IQUANT	2	I/E Range Lower Limit
IERANGEMODE	TOGGLE	F	I/E AutoRange
IERANGE	IQUANT	11	I/E Range
POSFEEDENABLE	TOGGLE	F	Positive Feedback IR Comp
POSFEEDRESISTANCE	QUANT	0	Positive Feedback Resistance (ohm)
ACHSELECT	IQUANT	0	Ach Select
CABLEID	IQUANT	13	Cable ID
DCCALDATE	LABEL	7/31/2020	DC Calibration Date
ACCALDATE	LABEL	7/31/2020	AC Calibration Date
THERMOSELECT	IQUANT	1	Thermo Select
FRAMEWORKVERSION	QUANT	6.33	Framework Version
INSTRUMENTVERSION	LABEL	3.50	Instrument Version
COMPLIANCEVOLTAGE	IQUANT	0	Compliance Voltage
ZCURVE	TABLE
	Pt	Time	Freq	Zreal	Zimag	Zsig	Zmod	Zphz	Idc	Vdc	IERange
	#	s	Hz	ohm	ohm	V	ohm	°	A	V	#
	0	7	300046.9	45.60059	2.103671	1	45.64909	2.641327	4.152518E-005	0.0067875	9
	1	10	238359.4	44.48927	0.1329143	1	44.48946	0.171174	-0.0003421	0.0177853	9
	2	13	189328.1	44.32782	-1.490658	1	44.35287	-1.926019	0.0002384	0.000309	9
	3	16	150421.9	44.68435	-3.211465	1	44.7996	-4.110781	8.71633E-005	-0.0096372	9
	4	18	119484.4	45.12006	-4.602399	1	45.35418	-5.82422	-0.0001662	-0.0031284	9
	5	21	94921.88	45.81237	-5.899496	1	46.19066	-7.33789	0.0001806	-0.004467	9
	6	24	75421.88	46.47331	-7.592431	1	47.08942	-9.278547	0.0001776	-0.0054116	9
	7	27	59859.37	47.34034	-9.294672	1	48.24416	-11.108	7.731166E-005	-0.0057186	9
	8	29	47578.12	48.25658	-11.24964	1	49.5505	-13.1225	0.0001754	-0.0041918	9
	9	32	37828.12	49.42689	-13.42704	1	51.21819	-15.19789	0.0001174	-0.0005547	9
	10	34	30046.88	50.71373	-15.89564	1	53.14653	-17.403	-0.0001471	0.0048416	9
	11	37	23859.38	51.99576	-18.63534	1	55.23436	-19.71774	6.502455E-005	0.0017658	9
	12	39	18984.38	53.28345	-21.93286	1	57.62097	-22.37335	4.153772E-005	-0.0047549	9
	13	41	15046.87	54.85537	-25.77656	1	60.60976	-25.16884	-4.105447E-005	0.0048863	9
	14	44	11953.13	56.10529	-30.87681	1	64.04046	-28.82561	-0.0001685	0.0037179	9
	15	46	9515.62	57.40248	-36.68232	1	68.12223	-32.58009	-0.0001419	0.0066494	9
	16	49	7546.875	58.86684	-44.26583	1	73.65304	-36.9419	-0.000179	0.0054156	9
	17	51	5928.309	59.97813	-54.0298	1	80.72543	-42.01332	-1.261975E-005	-0.0031879	9
	18	53	4733.456	61.17369	-65.59278	1	89.69188	-46.99653	6.96018E-005	0.0015563	9
	19	56	3796.875	62.47952	-79.97321	1	101.486	-52.00107	0.0001807	-0.0041038	9
	20	59	2987.132	63.99233	-99.3123	1	118.1438	-57.20411	0.00018	-0.0043477	9
	21	62	2390.625	65.58405	-122.5886	1	139.0296	-61.85352	4.075442E-005	-0.0046082	9
	22	64	1884.191	67.37378	-153.1139	1	167.2815	-66.24936	4.180504E-005	-0.0046737	9
	23	68	1516.544	69.39664	-188.7155	1	201.0707	-69.80994	4.2013E-005	-0.0046814	9
	24	72	1193.986	71.6414	-237.8615	1	248.4162	-73.23825	6.747482E-005	0.0016562	9
	25	77	946.5144	76.83546	-296.7179	1	306.5048	-75.48209	-0.0000972	0.0059966	9
	26	80	751.7689	79.6767	-367.8434	1	376.3736	-77.77825	0.0001805	-0.0043746	9
	27	84	597.4265	81.63681	-464.6856	1	471.8021	-80.03585	0.0001199	-0.0005192	9
	28	88	477.4305	93.1507	-575.5119	1	583.0017	-80.80601	1.147024E-006	8.906972E-005	9
	29	90	376.6741	103.4968	-720.5092	1	727.9045	-81.82572	4.595514E-007	0.0006773	8
	30	92	298.2954	116.9513	-902.7833	1	910.327	-82.61871	5.053555E-007	0.0006037	8
	31	95	237.7717	134.4287	-1123.458	1	1131.472	-83.17664	4.533451E-007	0.0006851	8
	32	97	189.0121	158.2377	-1401.385	1	1410.29	-83.55772	5.124795E-007	0.0006446	8
	33	99	150.2404	190.2463	-1746.948	1	1757.277	-83.78487	5.130685E-007	0.0006413	8
	34	102	119.1737	236.3347	-2180.728	1	2193.497	-83.81475	5.175173E-007	0.0006467	8
	35	104	95.0169	292.0319	-2706.295	1	2722.006	-83.84114	4.872869E-007	0.0006488	8
	36	107	75.60484	370.5847	-3363.018	1	3383.375	-83.71172	4.520789E-007	0.0006641	8
	37	109	54.50582	535.3202	-4578.925	1	4610.111	-83.33185	4.579525E-007	0.0006829	8
	38	112	45.95588	654.4024	-5384.665	1	5424.284	-83.07078	6.300561E-008	0.0005763	7
	39	114	37.20238	837.8591	-6556.606	1	6609.924	-82.71773	6.25402E-008	0.0005748	7
	40	116	30.04808	1080.688	-7992.76	1	8065.488	-82.29983	4.939687E-008	0.0006463	7
	41	119	23.91582	1425.875	-9859.01	1	9961.58	-81.77056	5.721725E-008	0.0006204	7
	42	121	18.60119	1950.447	-12440	1	12591.97	-81.08923	5.546688E-008	0.0006464	7
	43	124	15.02404	2553.355	-15084.2	1	15298.78	-80.39242	6.423937E-008	0.0006613	7
	44	126	12.01923	3388.199	-18429.4	1	18738.27	-79.58264	6.235385E-008	0.0006121	7
	45	129	9.450605	4582.106	-22793.31	1	23249.32	-78.63342	5.543172E-008	0.0006379	7
	46	131	7.512019	6146.375	-27830.06	1	28500.71	-77.54593	5.573859E-008	0.0006538	7
	47	134	5.978954	8183.909	-33807.78	1	34784.23	-76.39208	6.165315E-008	0.0006363	7
	48	138	4.734848	10922.63	-41082.23	1	42509.46	-75.11108	6.069907E-008	0.0006108	7
	49	142	3.75601	14515.46	-49645.16	1	51723.69	-73.70191	4.313613E-009	0.0006514	6
	50	147	3.004808	18899.46	-59297.3	1	62236.32	-72.32169	4.533074E-009	0.0007021	6
	51	154	2.372217	25030.47	-71257.69	1	75526.04	-70.64531	4.44579E-009	0.0006842	6
	52	158	1.878005	32639.21	-84994.5	1	91046.05	-68.99243	2.364063E-009	0.000651	6
	53	163	1.512097	41596.01	-99256.6	1	107620.2	-67.26263	3.376262E-009	0.0006581	6
	54	168	1.201923	53633.1	-116728.7	1	128460.5	-65.32274	2.968892E-009	0.0006372	6
	55	174	0.956633	68455.02	-135893.6	1	152161.6	-63.26378	1.261061E-010	3.641716E-005	6
