EXPLAIN
TAG	EISPOT
TITLE	LABEL	Potentiostatic EIS	Test Identifier
DATE	LABEL	8/29/2020	Date
TIME	LABEL	11:23:47	Time
NOTES	NOTES	1	Notes...
	
PSTAT	PSTAT	REF3000-16137	Potentiostat
VDC	POTEN	0.00000E+000	T	DC Voltage (V)
FREQINIT	QUANT	3.00000E+005	Initial Freq. (Hz)
FREQFINAL	QUANT	1.00000E+000	Final Freq. (Hz)
PTSPERDEC	QUANT	1.00000E+001	Points/decade
VAC	QUANT	5.00000E+001	AC Voltage (mV rms)
AREA	QUANT	1.00000E+000	Sample Area (cm^2)
SPEED	SELECTOR	2	Optimize for:
ZGUESS	QUANT	1.00000E+003	Estimated Z (ohms)
EOC	QUANT	0	Open Circuit (V)
SEQUENCER	TOGGLE	TRUE	Run as Sequence
PSTATMODEL	IQUANT	5	Pstat Model
PSTATSECTION	LABEL	REF3000-16137	Pstat Section
PSTATSERIALNO	LABEL	16137	Pstat Serial Number
CTRLMODE	IQUANT	1	Control Mode
IESTAB	IQUANT	0	I/E Stability
CASPEED	IQUANT	1	Control Amp Speed
CONVENTION	IQUANT	1	Current Convention
ICHRANGE	IQUANT	2	Ich Range
ICHRANGEMODE	TOGGLE	F	Ich Auto Range
ICHOFFSETENABLE	TOGGLE	T	Ich Offset Enable
ICHOFFSET	QUANT	0	Ich Offset (V)
ICHFILTER	IQUANT	3	Ich Filter
VCHRANGE	IQUANT	2	Vch Range
VCHRANGEMODE	TOGGLE	F	Vch Auto Range
VCHOFFSETENABLE	TOGGLE	T	Vch Offset Enable
VCHOFFSET	QUANT	0	Vch Offset (V)
VCHFILTER	IQUANT	3	Vch Filter
ACHRANGE	IQUANT	2	Ach Range
ACHOFFSETENABLE	TOGGLE	F	Ach Offset Enable
ACHOFFSET	QUANT	0	Ach Offset (V)
ACHFILTER	IQUANT	3	Ach Filter
IERANGELOWERLIMIT	IQUANT	2	I/E Range Lower Limit
IERANGEMODE	TOGGLE	F	I/E AutoRange
IERANGE	IQUANT	11	I/E Range
POSFEEDENABLE	TOGGLE	F	Positive Feedback IR Comp
POSFEEDRESISTANCE	QUANT	0	Positive Feedback Resistance (ohm)
ACHSELECT	IQUANT	0	Ach Select
CABLEID	IQUANT	13	Cable ID
DCCALDATE	LABEL	7/31/2020	DC Calibration Date
ACCALDATE	LABEL	7/31/2020	AC Calibration Date
THERMOSELECT	IQUANT	1	Thermo Select
FRAMEWORKVERSION	QUANT	6.33	Framework Version
INSTRUMENTVERSION	LABEL	3.50	Instrument Version
COMPLIANCEVOLTAGE	IQUANT	0	Compliance Voltage
ZCURVE	TABLE
	Pt	Time	Freq	Zreal	Zimag	Zsig	Zmod	Zphz	Idc	Vdc	IERange
	#	s	Hz	ohm	ohm	V	ohm	°	A	V	#
	0	6	300046.9	42.35852	2.069883	1	42.40907	2.797578	-0.0001901	0.014179	9
	1	10	238359.4	40.88603	0.3761554	1	40.88776	0.5271118	-0.0004085	0.0163302	9
	2	13	189328.1	40.90212	-3.793488	1	41.07766	-5.298768	0.0001015	-0.001849	10
	3	17	150421.9	41.60608	-3.153974	1	41.72546	-4.33505	-0.0001697	-0.002584	9
	4	21	119484.4	41.96829	-4.546811	1	42.21387	-6.183261	-0.0003054	0.0168049	9
	5	23	94921.88	42.79501	-5.841853	1	43.1919	-7.773276	-1.405057E-005	-0.0029776	9
	6	26	75421.88	43.41889	-7.351305	1	44.03682	-9.60968	8.07168E-005	-0.0057518	9
	7	28	59859.37	44.26432	-9.102982	1	45.19064	-11.62089	0.0001743	-0.0053537	9
	8	31	47578.12	45.27623	-10.9407	1	46.57935	-13.58473	-0.00013	0.0060776	9
	9	33	37828.12	46.22005	-13.02034	1	48.01898	-15.7327	0.0001736	-0.0053448	9
	10	36	30046.88	47.43171	-15.36285	1	49.85764	-17.94683	-9.065464E-005	0.0059057	9
	11	39	23859.38	48.70074	-18.25739	1	52.01052	-20.55048	1.717086E-005	0.0032766	9
	12	41	18984.38	49.89616	-21.2688	1	54.2401	-23.08667	0.0001175	-0.0005799	9
	13	43	15046.87	51.30885	-25.4816	1	57.28796	-26.41045	-1.416651E-005	-0.0029627	9
	14	45	11953.13	52.57266	-29.96391	1	60.51215	-29.68108	-0.0001619	0.0039307	9
	15	48	9515.62	53.68887	-35.80907	1	64.53514	-33.70225	0.0001789	-0.0059409	9
	16	50	7546.875	54.84856	-43.21222	1	69.82594	-38.23267	-0.0001375	0.0031845	9
	17	53	5928.309	56.24426	-53.02783	1	77.3005	-43.31399	-6.906786E-005	-0.0011355	9
	18	55	4733.456	57.29522	-64.47401	1	86.25335	-48.37392	0.0001532	-0.0025716	9
	19	58	3796.875	58.44448	-78.7664	1	98.0811	-53.42467	1.871266E-005	0.0032306	9
	20	60	2987.132	59.74941	-98.2162	1	114.9626	-58.68592	6.854302E-005	0.0014566	9
	21	63	2390.625	61.04817	-121.1813	1	135.69	-63.26215	-1.781437E-005	-0.0028946	9
	22	66	1884.191	62.56893	-151.1544	1	163.5926	-67.51336	8.835873E-005	-0.0054428	9
	23	69	1516.544	65.06491	-186.4045	1	197.4338	-70.75835	0.0001598	-0.0059007	9
	24	73	1193.986	68.3591	-234.9262	1	244.6698	-73.776	-6.833106E-005	-0.0011508	9
	25	78	946.5144	74.28825	-294.7608	1	303.9781	-75.8544	0.0001431	-0.000521	10
	26	81	751.7689	77.24829	-364.4363	1	372.5334	-78.03235	0.0002982	6.919572E-005	10
	27	85	597.4265	83.40956	-460.97	1	468.4554	-79.74367	0.0001767	-0.0053389	9
	28	89	477.4305	89.13892	-568.871	1	575.8124	-81.09448	1.089277E-006	2.58937E-005	9
	29	91	376.6741	99.7276	-712.1114	1	719.0607	-82.02786	5.124988E-007	0.0006724	8
	30	93	298.2954	113.4988	-892.0579	1	899.2493	-82.74907	5.49996E-007	0.0006466	8
	31	96	237.7717	131.3708	-1109.888	1	1117.636	-83.24965	5.225584E-007	0.0006406	8
	32	98	189.0121	155.7306	-1384.112	1	1392.845	-83.58047	4.925397E-007	0.0006817	8
	33	101	150.2404	188.7788	-1724.782	1	1735.082	-83.75379	5.170135E-007	0.0006734	8
	34	103	119.1737	236.0604	-2152.577	1	2165.482	-83.74171	5.193043E-007	0.0006712	8
	35	105	95.0169	292.8855	-2669.926	1	2685.942	-83.7398	5.323446E-007	0.0006666	8
	36	108	75.60484	373.3084	-3316.02	1	3336.966	-83.57684	5.469447E-007	0.0006474	8
	37	110	54.50582	541.7871	-4514.158	1	4546.554	-83.15612	4.92731E-007	0.0006798	8
	38	113	45.95588	665.3332	-5303.242	1	5344.815	-82.84916	6.148296E-008	0.0006632	7
	39	115	37.20238	856.4825	-6454.025	1	6510.607	-82.44072	6.011332E-008	0.0006533	7
	40	118	30.04808	1112.396	-7874.935	1	7953.114	-81.95972	5.714059E-008	0.0006122	7
	41	120	23.91582	1468.218	-9723.83	1	9834.05	-81.41367	5.592189E-008	0.0006076	7
	42	122	18.60119	2021.455	-12198.16	1	12364.52	-80.59057	6.292617E-008	0.0006683	7
	43	125	15.02404	2630.245	-14789.79	1	15021.85	-79.91584	6.750574E-008	0.000623	7
	44	127	12.01923	3491.81	-18041.05	1	18375.86	-79.04596	6.17015E-008	0.0006538	7
	45	130	9.450605	4732.748	-22292.79	1	22789.63	-78.01409	5.992799E-008	0.0006689	7
	46	132	7.512019	6309.919	-27158.04	1	27881.43	-76.91992	6.271976E-008	0.0006815	7
	47	135	5.978954	8401.007	-32935.16	1	33989.73	-75.6903	6.505013E-008	0.00065	7
	48	140	4.734848	11191.4	-39967.52	1	41504.82	-74.35709	6.399468E-008	0.0006693	7
	49	143	3.75601	14885.16	-48130.14	1	50379.34	-72.81478	4.347555E-009	0.0006104	6
	50	149	3.004808	19368.26	-57306.81	1	60491.32	-71.32604	5.667681E-009	0.0006379	6
	51	155	2.372217	25508.88	-68538.91	1	73131.98	-69.58569	3.617544E-009	0.0006888	6
	52	159	1.878005	33432.44	-81501.28	1	88091.92	-67.69619	1.874308E-009	0.0006696	6
	53	164	1.512097	42440.63	-94920.49	1	103976.5	-65.90974	2.792817E-009	0.0006029	6
	54	169	1.201923	54713.1	-110719	1	123499.9	-63.70319	1.87661E-009	0.0006818	6
	55	175	0.956633	69596.16	-127778.6	1	145502.5	-61.42454	6.673146E-010	3.584901E-005	6
