EXPLAIN
TAG	EISPOT
TITLE	LABEL	Potentiostatic EIS	Test Identifier
DATE	LABEL	8/29/2020	Date
TIME	LABEL	11:49:03	Time
NOTES	NOTES	1	Notes...
	
PSTAT	PSTAT	REF3000-16137	Potentiostat
VDC	POTEN	0.00000E+000	T	DC Voltage (V)
FREQINIT	QUANT	3.00000E+005	Initial Freq. (Hz)
FREQFINAL	QUANT	1.00000E+000	Final Freq. (Hz)
PTSPERDEC	QUANT	1.00000E+001	Points/decade
VAC	QUANT	5.00000E+001	AC Voltage (mV rms)
AREA	QUANT	1.00000E+000	Sample Area (cm^2)
SPEED	SELECTOR	2	Optimize for:
ZGUESS	QUANT	1.00000E+003	Estimated Z (ohms)
EOC	QUANT	0	Open Circuit (V)
SEQUENCER	TOGGLE	TRUE	Run as Sequence
PSTATMODEL	IQUANT	5	Pstat Model
PSTATSECTION	LABEL	REF3000-16137	Pstat Section
PSTATSERIALNO	LABEL	16137	Pstat Serial Number
CTRLMODE	IQUANT	1	Control Mode
IESTAB	IQUANT	0	I/E Stability
CASPEED	IQUANT	1	Control Amp Speed
CONVENTION	IQUANT	1	Current Convention
ICHRANGE	IQUANT	2	Ich Range
ICHRANGEMODE	TOGGLE	F	Ich Auto Range
ICHOFFSETENABLE	TOGGLE	T	Ich Offset Enable
ICHOFFSET	QUANT	0	Ich Offset (V)
ICHFILTER	IQUANT	3	Ich Filter
VCHRANGE	IQUANT	2	Vch Range
VCHRANGEMODE	TOGGLE	F	Vch Auto Range
VCHOFFSETENABLE	TOGGLE	T	Vch Offset Enable
VCHOFFSET	QUANT	0	Vch Offset (V)
VCHFILTER	IQUANT	3	Vch Filter
ACHRANGE	IQUANT	2	Ach Range
ACHOFFSETENABLE	TOGGLE	F	Ach Offset Enable
ACHOFFSET	QUANT	0	Ach Offset (V)
ACHFILTER	IQUANT	3	Ach Filter
IERANGELOWERLIMIT	IQUANT	2	I/E Range Lower Limit
IERANGEMODE	TOGGLE	F	I/E AutoRange
IERANGE	IQUANT	11	I/E Range
POSFEEDENABLE	TOGGLE	F	Positive Feedback IR Comp
POSFEEDRESISTANCE	QUANT	0	Positive Feedback Resistance (ohm)
ACHSELECT	IQUANT	0	Ach Select
CABLEID	IQUANT	13	Cable ID
DCCALDATE	LABEL	7/31/2020	DC Calibration Date
ACCALDATE	LABEL	7/31/2020	AC Calibration Date
THERMOSELECT	IQUANT	1	Thermo Select
FRAMEWORKVERSION	QUANT	6.33	Framework Version
INSTRUMENTVERSION	LABEL	3.50	Instrument Version
COMPLIANCEVOLTAGE	IQUANT	0	Compliance Voltage
ZCURVE	TABLE
	Pt	Time	Freq	Zreal	Zimag	Zsig	Zmod	Zphz	Idc	Vdc	IERange
	#	s	Hz	ohm	ohm	V	ohm	°	A	V	#
	0	8	300046.9	89.43848	3.503249	1	89.50706	2.243093	0.0005511	-0.0221497	9
	1	12	238359.4	86.751	1.488681	1	86.76377	0.983121	0.0003553	-0.0021639	9
	2	15	189328.1	86.5005	-1.502677	1	86.51355	-0.995236	-0.0004833	0.0243347	9
	3	22	150421.9	86.74066	-3.61092	1	86.81579	-2.383785	-0.0003104	-0.0005875	9
	4	25	119484.4	87.3251	-5.591784	1	87.50395	-3.663881	0.0001171	0.0079806	9
	5	28	94921.88	88.14223	-7.257953	1	88.44054	-4.707324	-6.866338E-006	-0.0046315	9
	6	31	75421.88	88.97311	-9.61619	1	89.49126	-6.168571	0.0001856	-0.0081743	9
	7	34	59859.37	90.12553	-11.75886	1	90.8894	-7.433503	-7.540135E-005	0.0068391	9
	8	37	47578.12	91.61413	-14.76293	1	92.79597	-9.154095	-8.153292E-005	0.0067475	9
	9	40	37828.12	93.3216	-17.59484	1	94.96578	-10.6772	-0.000217	0.0060839	9
	10	43	30046.88	95.0325	-20.85827	1	97.2947	-12.3793	7.174848E-006	-0.0051039	9
	11	45	23859.38	97.286	-24.79215	1	100.3953	-14.29682	-0.0001392	0.0079953	9
	12	48	18984.38	99.3834	-28.88999	1	103.4973	-16.20874	7.371169E-005	-0.0066494	9
	13	51	15046.87	102.5701	-33.84888	1	108.0109	-18.26328	-7.841547E-007	-0.0048099	9
	14	53	11953.13	104.5621	-39.72983	1	111.8556	-20.80499	0.0002163	-0.0077003	9
	15	56	9515.62	107.4918	-46.56815	1	117.1455	-23.42347	-7.282698E-005	0.0068849	9
	16	60	7546.875	110.4365	-55.20139	1	123.4642	-26.55806	-6.750119E-005	-0.002667	9
	17	63	5928.309	113.5511	-66.03633	1	131.357	-30.18039	-0.0002098	0.0075131	9
	18	66	4733.456	116.396	-78.4777	1	140.3809	-33.98903	-0.0002098	0.0074914	9
	19	70	3796.875	119.2659	-94.07241	1	151.9012	-38.26504	-0.0002162	0.0060374	9
	20	73	2987.132	122.509	-114.8736	1	167.9417	-43.1577	0.0001335	-0.0077278	9
	21	77	2390.625	125.4704	-139.6316	1	187.7227	-48.05771	-6.960946E-005	-0.002594	9
	22	80	1884.191	128.0186	-172.6319	1	214.9198	-53.44048	-7.766904E-005	0.0070977	9
	23	84	1516.544	131.0868	-210.2052	1	247.7297	-58.05178	1.764505E-006	-0.0049387	9
	24	88	1193.986	135.9643	-262.622	1	295.7307	-62.62856	-7.412543E-006	0.0054348	9
	25	94	946.5144	138.5131	-327.2452	1	355.3524	-67.05852	0.0001826	-0.0080135	9
	26	98	751.7689	142.6119	-405.0476	1	429.4202	-70.60351	-7.498699E-006	0.0054537	9
	27	101	597.4265	151.1866	-503.3613	1	525.5759	-73.28214	-2.053801E-005	-0.0036243	8
	28	104	477.4305	157.2292	-625.2618	1	644.7274	-75.88498	1.885836E-007	0.0006234	8
	29	106	376.6741	166.7174	-785.9725	1	803.4597	-78.02415	1.935315E-007	0.0006207	8
	30	109	298.2954	178.7488	-984.814	1	1000.905	-79.71252	1.650796E-007	0.000622	8
	31	111	237.7717	194.0205	-1226.299	1	1241.553	-81.0094	1.143043E-007	0.0006649	8
	32	113	189.0121	214.1553	-1531.225	1	1546.128	-82.03832	1.970751E-007	0.0006428	8
	33	116	150.2404	241.0974	-1911.641	1	1926.785	-82.81178	1.911542E-007	0.0006358	8
	34	118	119.1737	274.0563	-2389.734	1	2405.397	-83.45786	1.17032E-007	0.0006623	8
	35	122	95.0169	324.8686	-2974.486	1	2992.175	-83.76695	1.321771E-007	0.0005904	8
	36	124	75.60484	388.9696	-3705.646	1	3726.004	-84.00779	1.677595E-007	0.0006196	8
	37	127	54.50582	530.696	-5078.897	1	5106.548	-84.03479	5.962967E-009	0.000657	7
	38	129	45.95588	622.5448	-5980.261	1	6012.577	-84.05692	2.114938E-008	0.000589	7
	39	131	37.20238	769.8713	-7308.695	1	7349.131	-83.98685	1.718109E-008	0.0006515	7
	40	134	30.04808	969.286	-8951.779	1	9004.103	-83.82017	1.215721E-008	0.0005986	7
	41	136	23.91582	1244.707	-11107.27	1	11176.79	-83.60598	9.34838E-009	0.0006601	7
	42	139	18.60119	1664.583	-14036	1	14134.36	-83.23666	1.375634E-008	0.0006713	7
	43	141	15.02404	2122.171	-17166.27	1	17296.95	-82.9526	1.590552E-008	0.0006523	7
	44	143	12.01923	2770.77	-21111.1	1	21292.15	-82.52283	1.360141E-008	0.0006585	7
	45	146	9.450605	3715.089	-26387.65	1	26647.89	-81.98606	1.356949E-008	0.0006561	7
	46	149	7.512019	4937.617	-32569.12	1	32941.27	-81.37936	1.421354E-008	0.000636	7
	47	152	5.978954	6567.417	-40062.92	1	40597.64	-80.69044	1.744151E-008	0.0006508	7
	48	156	4.734848	8897.904	-49456.58	1	50250.63	-79.80083	4.584474E-010	0.0006269	6
	49	159	3.75601	11883.35	-60668.06	1	61820.93	-78.91751	7.437003E-010	0.0006475	6
	50	165	3.004808	15642.81	-73645.73	1	75288.73	-78.00824	2.489992E-009	0.0006226	6
	51	171	2.372217	20820.85	-90066.96	1	92442.23	-76.98354	1.038944E-009	0.0006469	6
	52	176	1.878005	27661.12	-109745.1	1	113177.4	-75.85332	5.562171E-010	0.0006647	6
	53	180	1.512097	35464.43	-131204	1	135912.5	-74.8744	9.88564E-010	0.0005662	6
	54	186	1.201923	45981.72	-158143	1	164692.2	-73.78766	2.820923E-010	0.0006754	6
	55	192	0.956633	58911.96	-189660.9	1	198599.8	-72.7443	-2.677253E-011	2.875899E-005	6
