EXPLAIN
TAG	EISPOT
TITLE	LABEL	Potentiostatic EIS	Test Identifier
DATE	LABEL	8/29/2020	Date
TIME	LABEL	12:37:16	Time
NOTES	NOTES	1	Notes...
	
PSTAT	PSTAT	REF3000-16137	Potentiostat
VDC	POTEN	0.00000E+000	T	DC Voltage (V)
FREQINIT	QUANT	3.00000E+005	Initial Freq. (Hz)
FREQFINAL	QUANT	1.00000E+000	Final Freq. (Hz)
PTSPERDEC	QUANT	1.00000E+001	Points/decade
VAC	QUANT	5.00000E+001	AC Voltage (mV rms)
AREA	QUANT	1.00000E+000	Sample Area (cm^2)
SPEED	SELECTOR	2	Optimize for:
ZGUESS	QUANT	1.00000E+003	Estimated Z (ohms)
EOC	QUANT	0	Open Circuit (V)
SEQUENCER	TOGGLE	TRUE	Run as Sequence
PSTATMODEL	IQUANT	5	Pstat Model
PSTATSECTION	LABEL	REF3000-16137	Pstat Section
PSTATSERIALNO	LABEL	16137	Pstat Serial Number
CTRLMODE	IQUANT	1	Control Mode
IESTAB	IQUANT	0	I/E Stability
CASPEED	IQUANT	1	Control Amp Speed
CONVENTION	IQUANT	1	Current Convention
ICHRANGE	IQUANT	2	Ich Range
ICHRANGEMODE	TOGGLE	F	Ich Auto Range
ICHOFFSETENABLE	TOGGLE	T	Ich Offset Enable
ICHOFFSET	QUANT	0	Ich Offset (V)
ICHFILTER	IQUANT	3	Ich Filter
VCHRANGE	IQUANT	2	Vch Range
VCHRANGEMODE	TOGGLE	F	Vch Auto Range
VCHOFFSETENABLE	TOGGLE	T	Vch Offset Enable
VCHOFFSET	QUANT	0	Vch Offset (V)
VCHFILTER	IQUANT	3	Vch Filter
ACHRANGE	IQUANT	2	Ach Range
ACHOFFSETENABLE	TOGGLE	F	Ach Offset Enable
ACHOFFSET	QUANT	0	Ach Offset (V)
ACHFILTER	IQUANT	3	Ach Filter
IERANGELOWERLIMIT	IQUANT	2	I/E Range Lower Limit
IERANGEMODE	TOGGLE	F	I/E AutoRange
IERANGE	IQUANT	11	I/E Range
POSFEEDENABLE	TOGGLE	F	Positive Feedback IR Comp
POSFEEDRESISTANCE	QUANT	0	Positive Feedback Resistance (ohm)
ACHSELECT	IQUANT	0	Ach Select
CABLEID	IQUANT	13	Cable ID
DCCALDATE	LABEL	7/31/2020	DC Calibration Date
ACCALDATE	LABEL	7/31/2020	AC Calibration Date
THERMOSELECT	IQUANT	1	Thermo Select
FRAMEWORKVERSION	QUANT	6.33	Framework Version
INSTRUMENTVERSION	LABEL	3.50	Instrument Version
COMPLIANCEVOLTAGE	IQUANT	0	Compliance Voltage
ZCURVE	TABLE
	Pt	Time	Freq	Zreal	Zimag	Zsig	Zmod	Zphz	Idc	Vdc	IERange
	#	s	Hz	ohm	ohm	V	ohm	°	A	V	#
	0	15	300046.9	1449.849	-1178.535	1	1868.424	-39.10654	-0.0005032	0.0324746	9
	1	29	238359.4	2036.969	-990.526	1	2265.035	-25.93247	0.0003935	0.0028944	9
	2	48	189328.1	1957.386	-1223.469	1	2308.298	-32.00755	3.133935E-005	0.0150077	9
	3	56	150421.9	2141.3	-1060.024	1	2389.313	-26.33714	-0.0005272	0.0024449	9
	4	64	119484.4	2319.887	-1106.848	1	2570.407	-25.50641	-0.0007339	0.0344956	9
	5	73	94921.88	2540.705	-891.7881	1	2692.669	-19.34109	0.0001355	-0.0101019	9
	6	83	75421.88	2717.372	-789.2987	1	2829.682	-16.19668	-0.0002687	0.010755	9
	7	93	59859.37	2863.212	-697.1918	1	2946.873	-13.68519	-0.0001414	-0.0021202	9
	8	101	47578.12	3225.66	-244.7942	1	3234.936	-4.339838	-0.0001378	0.0251958	8
	9	109	37828.12	3213.574	-138.1115	1	3216.541	-2.460918	-0.0001352	0.0482989	8
	10	116	30046.88	3146.071	-443.8381	1	3177.224	-8.030121	-0.0001402	-0.0021615	9
	11	125	23859.38	3155.098	-362.3032	1	3175.832	-6.550642	0.0002659	-0.010723	9
	12	131	18984.38	3295.595	-396.2241	1	3319.328	-6.855674	0.0002153	-0.0110971	9
	13	139	15046.87	3330.704	-338.0875	1	3347.819	-5.796031	-0.0002173	0.0015665	9
	14	146	11953.13	3446.14	-255.4959	1	3455.599	-4.240136	-0.0002166	0.0014916	9
	15	154	9515.62	3494.158	-326.5699	1	3509.386	-5.33945	-5.064627E-005	-0.0054617	9
	16	161	7546.875	3523.786	-306.9665	1	3537.131	-4.978621	0.0001411	-0.0102569	9
	17	169	5928.309	3804.138	-312.5899	1	3816.959	-4.6975	4.833713E-005	-0.0083381	9
	18	177	4733.456	3622.404	-579.9106	1	3668.53	-9.095303	0.0001403	0.0025708	9
	19	184	3796.875	3722.792	-398.4532	1	3744.055	-6.109152	0.0003018	-0.0075055	9
	20	190	2987.132	3972.854	-330.2651	1	3986.558	-4.752097	0.0002989	-0.0096306	9
	21	198	2390.625	3894.33	-703.1146	1	3957.294	-10.2344	-0.0001487	0.0106548	9
	22	205	1884.191	4103.475	-552.2132	1	4140.465	-7.664368	-0.0001486	0.0106817	9
	23	212	1516.544	4397.748	-688.2945	1	4451.285	-8.895238	-8.014314E-005	0.0567803	8
	24	218	1193.986	4432.266	-873.7274	1	4517.564	-11.15167	-0.0002923	0.0093068	9
	25	225	946.5144	4433.31	-1318.304	1	4625.166	-16.56055	0.0002848	-0.0051776	9
	26	230	751.7689	4489.076	-1258.012	1	4662.017	-15.65491	0.0002825	-0.0050698	9
	27	237	597.4265	5601.64	-1232.059	1	5735.533	-12.40447	-0.000292	0.0093173	9
	28	242	477.4305	4880.49	-1457.664	1	5093.522	-16.62939	4.749425E-007	5.782022E-005	9
	29	246	376.6741	6872.09	-2237.183	1	7227.075	-18.03246	-6.691886E-007	0.0004835	7
	30	248	298.2954	7077.411	-2661.428	1	7561.28	-20.60854	-6.927675E-007	0.0006927	7
	31	251	237.7717	7253.201	-3152.695	1	7908.755	-23.49278	-6.675081E-007	0.0004821	7
	32	253	189.0121	7449.505	-3762.151	1	8345.592	-26.7947	-6.677399E-007	0.0004937	7
	33	255	150.2404	7646.618	-4496.436	1	8870.665	-30.45678	-6.767415E-007	0.0004864	7
	34	258	119.1737	7814.826	-5434.677	1	9518.78	-34.81597	-6.639116E-007	0.0005832	7
	35	260	95.0169	8030.738	-6630.333	1	10414.13	-39.54374	-6.623404E-007	0.0005176	7
	36	263	75.60484	8291.307	-8147.395	1	11624.36	-44.49842	-6.787702E-007	0.0007486	7
	37	265	54.50582	8608.502	-10868.47	1	13864.7	-51.61859	-6.663032E-007	0.0004785	7
	38	268	45.95588	8894.152	-12786.24	1	15575.42	-55.17738	-6.845189E-007	0.0006905	7
	39	270	37.20238	9179.068	-15467.57	1	17986.13	-59.31343	-6.737004E-007	0.000733	7
	40	273	30.04808	9571.96	-18947.7	1	21228.23	-63.19809	-6.903942E-007	0.0007144	7
	41	276	23.91582	10087.06	-23454.02	1	25531.15	-66.72852	-6.798055E-007	0.000507	7
	42	278	18.60119	10624.83	-29637.68	1	31484.59	-70.27771	-6.973266E-007	0.0007054	7
	43	281	15.02404	11429.08	-36325.85	1	38081.37	-72.53504	-6.845573E-007	0.0005433	7
	44	283	12.01923	12205.41	-44487.5	1	46131.44	-74.65807	-6.860877E-007	0.0007053	7
	45	286	9.450605	13342.11	-56126.61	1	57690.63	-76.62815	-6.953751E-007	0.0006767	7
	46	289	7.512019	15441.57	-71490.76	1	73139.39	-77.8117	-7.254067E-008	0.0006313	6
	47	292	5.978954	17245.83	-88867.7	1	90525.61	-79.01758	-7.324595E-008	0.0005341	6
	48	296	4.734848	19617.01	-111049.3	1	112768.7	-79.98198	-7.559862E-008	0.0006832	6
	49	299	3.75601	22454.91	-138380.4	1	140190.4	-80.78298	-7.499335E-008	0.0006855	6
	50	305	3.004808	25920.5	-171369.8	1	173319	-81.39893	-7.508127E-008	0.000512	6
	51	311	2.372217	30206.97	-214488.6	1	216605.2	-81.98361	-7.659818E-008	0.0005925	6
	52	316	1.878005	35881.63	-267746.5	1	270140.1	-82.36707	-7.74764E-008	0.0006583	6
	53	320	1.512097	42535.34	-329584	1	332317.4	-82.64619	-7.778977E-008	0.0005433	6
	54	326	1.201923	50893.36	-411231.3	1	414368.6	-82.94504	-7.72924E-008	0.0006726	6
	55	332	0.956633	59950.5	-508557.1	1	512078.5	-83.2768	-7.824725E-008	2.332769E-005	6
