EXPLAIN
TAG	EISPOT
TITLE	LABEL	Potentiostatic EIS	Test Identifier
DATE	LABEL	8/29/2020	Date
TIME	LABEL	13:49:53	Time
NOTES	NOTES	1	Notes...
	
PSTAT	PSTAT	REF3000-16137	Potentiostat
VDC	POTEN	0.00000E+000	T	DC Voltage (V)
FREQINIT	QUANT	3.00000E+005	Initial Freq. (Hz)
FREQFINAL	QUANT	1.00000E+000	Final Freq. (Hz)
PTSPERDEC	QUANT	1.00000E+001	Points/decade
VAC	QUANT	5.00000E+001	AC Voltage (mV rms)
AREA	QUANT	1.00000E+000	Sample Area (cm^2)
SPEED	SELECTOR	2	Optimize for:
ZGUESS	QUANT	1.00000E+003	Estimated Z (ohms)
EOC	QUANT	0	Open Circuit (V)
SEQUENCER	TOGGLE	TRUE	Run as Sequence
PSTATMODEL	IQUANT	5	Pstat Model
PSTATSECTION	LABEL	REF3000-16137	Pstat Section
PSTATSERIALNO	LABEL	16137	Pstat Serial Number
CTRLMODE	IQUANT	1	Control Mode
IESTAB	IQUANT	0	I/E Stability
CASPEED	IQUANT	1	Control Amp Speed
CONVENTION	IQUANT	1	Current Convention
ICHRANGE	IQUANT	2	Ich Range
ICHRANGEMODE	TOGGLE	F	Ich Auto Range
ICHOFFSETENABLE	TOGGLE	T	Ich Offset Enable
ICHOFFSET	QUANT	0	Ich Offset (V)
ICHFILTER	IQUANT	3	Ich Filter
VCHRANGE	IQUANT	2	Vch Range
VCHRANGEMODE	TOGGLE	F	Vch Auto Range
VCHOFFSETENABLE	TOGGLE	T	Vch Offset Enable
VCHOFFSET	QUANT	0	Vch Offset (V)
VCHFILTER	IQUANT	3	Vch Filter
ACHRANGE	IQUANT	2	Ach Range
ACHOFFSETENABLE	TOGGLE	F	Ach Offset Enable
ACHOFFSET	QUANT	0	Ach Offset (V)
ACHFILTER	IQUANT	3	Ach Filter
IERANGELOWERLIMIT	IQUANT	2	I/E Range Lower Limit
IERANGEMODE	TOGGLE	F	I/E AutoRange
IERANGE	IQUANT	11	I/E Range
POSFEEDENABLE	TOGGLE	F	Positive Feedback IR Comp
POSFEEDRESISTANCE	QUANT	0	Positive Feedback Resistance (ohm)
ACHSELECT	IQUANT	0	Ach Select
CABLEID	IQUANT	13	Cable ID
DCCALDATE	LABEL	7/31/2020	DC Calibration Date
ACCALDATE	LABEL	7/31/2020	AC Calibration Date
THERMOSELECT	IQUANT	1	Thermo Select
FRAMEWORKVERSION	QUANT	6.33	Framework Version
INSTRUMENTVERSION	LABEL	3.50	Instrument Version
COMPLIANCEVOLTAGE	IQUANT	0	Compliance Voltage
ZCURVE	TABLE
	Pt	Time	Freq	Zreal	Zimag	Zsig	Zmod	Zphz	Idc	Vdc	IERange
	#	s	Hz	ohm	ohm	V	ohm	°	A	V	#
	0	21	300046.9	-82.64621	-4851.183	1	4851.887	-90.97601	-0.0001108	0.0037549	9
	1	37	238359.4	38.98536	-5925.69	1	5925.818	-89.62305	-1.276181E-005	0.0018128	9
	2	52	189328.1	183.361	-7365.203	1	7367.485	-88.57388	1.981756E-005	-0.002143	9
	3	60	150421.9	3.380822	-9262.892	1	9262.893	-89.97909	7.55699E-007	0.0017217	9
	4	67	119484.4	361.3707	-11676.14	1	11681.73	-88.22729	-5.037517E-006	-0.0151945	8
	5	74	94921.88	597.2681	-14525.15	1	14537.43	-87.64535	8.55455E-006	0.0042577	8
	6	83	75421.88	672.9238	-18135.63	1	18148.11	-87.87501	-2.638658E-005	0.0076217	8
	7	91	59859.37	471.7489	-22438.34	1	22443.3	-88.79558	-2.035335E-005	0.002754	8
	8	99	47578.12	1304.567	-28184.4	1	28214.58	-87.34985	1.639244E-005	-0.0092909	8
	9	110	37828.12	883.3624	-35086.5	1	35097.61	-88.55779	-2.408703E-005	0.0052238	8
	10	120	30046.88	1498.948	-44614.13	1	44639.3	-88.0757	1.752482E-005	0.000381	8
	11	130	23859.38	4947.294	-57070.32	1	57284.36	-85.04555	1.395319E-006	-0.0201508	7
	12	135	18984.38	4980.047	-71297.75	1	71471.46	-86.00446	3.573119E-006	-0.0246698	7
	13	140	15046.87	5507.029	-88833.46	1	89003.99	-86.45262	6.71971E-006	-0.0101245	7
	14	147	11953.13	8278.892	-112053.1	1	112358.5	-85.77446	-6.622313E-006	0.0261175	7
	15	152	9515.62	10272.11	-138361.9	1	138742.7	-85.7541	-3.49988E-006	-0.0051428	7
	16	157	7546.875	19954.66	-147588.3	1	148931.2	-82.30003	-1.066039E-005	0.0464182	7
	17	164	5928.309	31949.06	-148486.8	1	151885.1	-77.85712	-1.661917E-005	-0.0037366	7
	18	169	4733.456	-55624.52	-163902.2	1	173083.8	-108.746	-0.0001396	0.0509161	8
	19	178	3796.875	31852.63	-84606.46	1	90403.78	-69.36965	4.8281E-005	0.0059715	9
	20	187	2987.132	128280.2	-75394.54	1	148795.7	-30.44417	-7.350774E-005	0.0030016	9
	21	195	2390.625	339999.7	-103499.6	1	355403.9	-16.93082	-1.199657E-005	0.0103393	8
	22	204	1884.191	86647.4	13939.6	1	87761.52	9.139278	2.52267E-005	0.0198811	8
	23	212	1516.544	241678.8	-383198.5	1	453045	-57.76085	0.00013	-0.0250387	8
	24	219	1193.986	114210.9	146219.6	1	185537.9	52.00689	0.0001352	-0.0493509	8
	25	229	946.5144	-23895.76	-57151.93	1	61946.35	-112.6903	-3.094343E-005	0.0424967	8
	26	236	751.7689	23211.37	15919.89	1	28146.24	34.44491	-7.063416E-006	-0.038704	8
	27	242	597.4265	95983	-8988.251	1	96402.9	-5.349818	1.359395E-006	-0.0201221	7
	28	246	477.4305	96481.8	-6625.19	1	96709	-3.928209	-7.581409E-008	0.0006767	7
	29	248	376.6741	89555.18	-5184.65	1	89705.13	-3.313347	-8.222991E-009	0.0006993	6
	30	251	298.2954	83094.55	-5552.414	1	83279.85	-3.822845	-7.699365E-009	0.0006996	6
	31	253	237.7717	76968.41	-6055.761	1	77206.27	-4.49868	-8.330573E-009	0.0007057	6
	32	255	189.0121	71511.62	-6801.39	1	71834.33	-5.432995	-8.388815E-009	0.0007079	6
	33	258	150.2404	66862.95	-7220.687	1	67251.71	-6.163619	-7.972129E-009	0.0006385	6
	34	261	119.1737	74531.85	-9395.902	1	75121.77	-7.185123	-4.553221E-008	0.0006022	6
	35	263	95.0169	57707.55	-9725.92	1	58521.4	-9.56662	-8.523551E-009	0.0006937	6
	36	266	75.60484	54280.18	-10905.56	1	55364.88	-11.36019	-7.375736E-009	0.0006654	6
	37	268	54.50582	74479.28	-17820.37	1	76581.52	-13.45597	-6.472467E-008	0.0005663	6
	38	271	45.95588	71931.41	-19800.13	1	74606.79	-15.39031	-6.841965E-008	0.0008032	6
	39	274	37.20238	45149.86	-15818.15	1	47840.61	-19.30779	-7.761872E-009	0.0006339	6
	40	276	30.04808	42801.95	-18088.25	1	46467.1	-22.90908	-7.135298E-009	0.0006097	6
	41	279	23.91582	40636.4	-21216.25	1	45841.53	-27.56904	-7.472409E-009	0.0006982	6
	42	281	18.60119	57494.06	-37910.42	1	68867.75	-33.40005	-6.384202E-008	0.0005249	6
	43	283	15.02404	37016.13	-30669.21	1	48070.72	-39.64299	-8.969222E-009	0.0006323	6
	44	286	12.01923	35501.59	-37098.65	1	51348.54	-46.26019	-9.130083E-009	0.0007089	6
	45	288	9.450605	34267.3	-45735.95	1	57149.14	-53.1579	-7.534347E-009	0.0006234	6
	46	291	7.512019	33321.76	-56047.71	1	65204.95	-59.26746	-8.56128E-009	0.0007218	6
	47	293	5.978954	32656.82	-68599.5	1	75976.05	-64.5432	-7.381708E-009	0.0006378	6
	48	296	4.734848	32443.7	-84386.23	1	90408.13	-68.9699	-7.421094E-009	0.0006529	6
	49	300	3.75601	32746.52	-103545.9	1	108600.6	-72.45037	-7.049846E-009	0.0006328	6
	50	303	3.004808	33722.09	-125811.7	1	130252.7	-74.99535	-8.125101E-009	0.0006538	6
	51	307	2.372217	35804.62	-154842.2	1	158927.9	-76.98016	-8.286333E-009	0.0006399	6
	52	311	1.878005	38540.36	-189486.3	1	193366.1	-78.50322	-7.69766E-009	0.0006717	6
	53	316	1.512097	42197.64	-227636.9	1	231515	-79.49815	-7.89584E-009	0.0005744	6
	54	321	1.201923	47063.57	-277500.3	1	281463	-80.37433	-7.633504E-009	0.0007023	6
	55	327	0.956633	54210.7	-337620	1	341944.5	-80.87804	-7.582216E-009	3.40012E-005	6
