EXPLAIN
TAG	EISPOT
TITLE	LABEL	Potentiostatic EIS	Test Identifier
DATE	LABEL	8/29/2020	Date
TIME	LABEL	11:39:17	Time
NOTES	NOTES	1	Notes...
	
PSTAT	PSTAT	REF3000-16137	Potentiostat
VDC	POTEN	0.00000E+000	T	DC Voltage (V)
FREQINIT	QUANT	3.00000E+005	Initial Freq. (Hz)
FREQFINAL	QUANT	1.00000E+000	Final Freq. (Hz)
PTSPERDEC	QUANT	1.00000E+001	Points/decade
VAC	QUANT	5.00000E+001	AC Voltage (mV rms)
AREA	QUANT	1.00000E+000	Sample Area (cm^2)
SPEED	SELECTOR	2	Optimize for:
ZGUESS	QUANT	1.00000E+003	Estimated Z (ohms)
EOC	QUANT	0	Open Circuit (V)
SEQUENCER	TOGGLE	TRUE	Run as Sequence
PSTATMODEL	IQUANT	5	Pstat Model
PSTATSECTION	LABEL	REF3000-16137	Pstat Section
PSTATSERIALNO	LABEL	16137	Pstat Serial Number
CTRLMODE	IQUANT	1	Control Mode
IESTAB	IQUANT	0	I/E Stability
CASPEED	IQUANT	1	Control Amp Speed
CONVENTION	IQUANT	1	Current Convention
ICHRANGE	IQUANT	2	Ich Range
ICHRANGEMODE	TOGGLE	F	Ich Auto Range
ICHOFFSETENABLE	TOGGLE	T	Ich Offset Enable
ICHOFFSET	QUANT	0	Ich Offset (V)
ICHFILTER	IQUANT	3	Ich Filter
VCHRANGE	IQUANT	2	Vch Range
VCHRANGEMODE	TOGGLE	F	Vch Auto Range
VCHOFFSETENABLE	TOGGLE	T	Vch Offset Enable
VCHOFFSET	QUANT	0	Vch Offset (V)
VCHFILTER	IQUANT	3	Vch Filter
ACHRANGE	IQUANT	2	Ach Range
ACHOFFSETENABLE	TOGGLE	F	Ach Offset Enable
ACHOFFSET	QUANT	0	Ach Offset (V)
ACHFILTER	IQUANT	3	Ach Filter
IERANGELOWERLIMIT	IQUANT	2	I/E Range Lower Limit
IERANGEMODE	TOGGLE	F	I/E AutoRange
IERANGE	IQUANT	11	I/E Range
POSFEEDENABLE	TOGGLE	F	Positive Feedback IR Comp
POSFEEDRESISTANCE	QUANT	0	Positive Feedback Resistance (ohm)
ACHSELECT	IQUANT	0	Ach Select
CABLEID	IQUANT	13	Cable ID
DCCALDATE	LABEL	7/31/2020	DC Calibration Date
ACCALDATE	LABEL	7/31/2020	AC Calibration Date
THERMOSELECT	IQUANT	1	Thermo Select
FRAMEWORKVERSION	QUANT	6.33	Framework Version
INSTRUMENTVERSION	LABEL	3.50	Instrument Version
COMPLIANCEVOLTAGE	IQUANT	0	Compliance Voltage
ZCURVE	TABLE
	Pt	Time	Freq	Zreal	Zimag	Zsig	Zmod	Zphz	Idc	Vdc	IERange
	#	s	Hz	ohm	ohm	V	ohm	°	A	V	#
	0	7	300046.9	63.86826	2.554098	1	63.91931	2.290044	-0.0003993	0.0058897	9
	1	10	238359.4	61.80926	0.8025786	1	61.81447	0.7439303	3.140879E-005	0.0086821	9
	2	14	189328.1	61.88742	-1.300855	1	61.90109	-1.204163	0.0004434	-0.0081977	9
	3	17	150421.9	62.36951	-3.130871	1	62.44804	-2.873764	0.0001191	0.006026	9
	4	21	119484.4	62.78354	-5.069843	1	62.9879	-4.616683	0.0004901	-0.0123512	9
	5	25	94921.88	63.62663	-6.538281	1	63.96169	-5.867129	5.591964E-005	-0.0057343	9
	6	28	75421.88	64.3541	-8.593966	1	64.92539	-7.606382	0.0001574	-0.007178	9
	7	31	59859.37	65.2597	-10.66727	1	66.12578	-9.2834	0.0002015	-0.0046606	9
	8	33	47578.12	66.41098	-12.97196	1	67.66602	-11.05234	-7.269847E-005	0.0067198	9
	9	36	37828.12	67.85212	-15.34666	1	69.56602	-12.74462	-0.000126	0.0004031	9
	10	38	30046.88	69.43537	-18.3882	1	71.82894	-14.83284	0.0001919	-0.0069493	9
	11	41	23859.38	71.1268	-21.36677	1	74.26682	-16.72047	-0.0001348	0.00651	9
	12	43	18984.38	72.92984	-25.16059	1	77.14802	-19.03429	-0.0001165	0.0070859	9
	13	46	15046.87	74.80136	-29.70513	1	80.48378	-21.65903	-5.358279E-005	0.0060047	9
	14	48	11953.13	76.81978	-34.87746	1	84.36655	-24.41884	-4.953045E-005	0.0057058	9
	15	51	9515.62	78.92245	-41.10419	1	88.98487	-27.51129	-0.0001155	0.0068277	9
	16	55	7546.875	80.92889	-49.07605	1	94.64641	-31.23302	-0.000174	0.0030113	9
	17	57	5928.309	82.96732	-59.42236	1	102.0519	-35.61077	0.0002035	-0.0047052	9
	18	60	4733.456	84.78241	-71.56161	1	110.9465	-40.16644	0.0001134	-0.0067739	9
	19	63	3796.875	86.67755	-86.25714	1	122.2837	-44.86071	-6.405724E-005	-0.0019639	9
	20	66	2987.132	88.58915	-106.6666	1	138.6571	-50.28955	0.0001767	-0.002599	9
	21	69	2390.625	90.78661	-130.1172	1	158.6591	-55.09539	-0.0001697	0.0026942	9
	22	72	1884.191	92.81384	-162.6779	1	187.2926	-60.29363	-7.070655E-005	-0.0019358	9
	23	76	1516.544	95.2796	-198.8758	1	220.5217	-64.40133	0.0001917	-0.0069375	9
	24	80	1193.986	97.1234	-250.3252	1	268.5063	-68.79429	0.0001296	-0.0001342	9
	25	85	946.5144	100.6489	-311.1348	1	327.0092	-72.07413	0.000191	-0.0069455	9
	26	89	751.7689	105.7185	-387.7817	1	401.9341	-74.7504	0.0001611	-0.0072369	9
	27	92	597.4265	110.9831	-484.7776	1	497.3194	-77.10514	-0.0001266	0.0003371	9
	28	96	477.4305	119.1175	-603.0837	1	614.7349	-78.8271	1.056428E-006	7.134453E-005	9
	29	98	376.6741	128.7549	-755.0242	1	765.9239	-80.3224	2.901725E-007	0.0006837	8
	30	101	298.2954	141.2305	-946.3744	1	956.854	-81.51221	3.577722E-007	0.0006344	8
	31	103	237.7717	157.2409	-1178.427	1	1188.871	-82.39976	2.919799E-007	0.0006881	8
	32	106	189.0121	178.9201	-1471.198	1	1482.038	-83.06601	3.480202E-007	0.000661	8
	33	109	150.2404	207.6781	-1835.799	1	1847.509	-83.54575	3.36787E-007	0.0006344	8
	34	111	119.1737	249.0866	-2295.998	1	2309.47	-83.80835	3.405296E-007	0.0006361	8
	35	114	95.0169	298.9579	-2851.149	1	2866.78	-84.01411	3.176409E-007	0.0006461	8
	36	116	75.60484	369.5022	-3549.275	1	3568.457	-84.05656	3.622197E-007	0.0006537	8
	37	119	54.50582	520.0937	-4852.695	1	4880.486	-83.88261	2.902543E-008	0.0006631	7
	38	121	45.95588	624.4113	-5707.735	1	5741.788	-83.75682	4.749248E-008	0.0006031	7
	39	124	37.20238	786.1334	-6966.595	1	7010.81	-83.56179	3.383307E-008	0.0006632	7
	40	126	30.04808	1002.267	-8511.983	1	8570.788	-83.28447	3.616134E-008	0.0006179	7
	41	128	23.91582	1315.876	-10530.94	1	10612.83	-82.87762	3.91604E-008	0.0006307	7
	42	131	18.60119	1763.774	-13311.46	1	13427.81	-82.45226	4.282776E-008	0.0006011	7
	43	133	15.02404	2293.56	-16226.78	1	16388.07	-81.95487	4.202499E-008	0.0006256	7
	44	136	12.01923	3019.628	-19910.85	1	20138.53	-81.37639	3.702286E-008	0.0005961	7
	45	138	9.450605	4073.375	-24755.41	1	25088.29	-80.65601	3.374473E-008	0.0006555	7
	46	141	7.512019	5438.073	-30458.95	1	30940.6	-79.8772	4.539339E-008	0.000595	7
	47	144	5.978954	7285.968	-37275.7	1	37981.09	-78.94032	4.366987E-008	0.000646	7
	48	148	4.734848	9792.72	-45687.46	1	46725.17	-77.90219	2.734535E-009	0.0006325	6
	49	151	3.75601	13039.78	-55718.99	1	57224.49	-76.82825	4.882763E-009	0.0006788	6
	50	157	3.004808	17057.03	-67203.73	1	69334.57	-75.75845	3.404412E-009	0.0006629	6
	51	163	2.372217	22642.69	-81546.28	1	84631.48	-74.4818	3.230007E-009	0.0006451	6
	52	167	1.878005	29708.23	-98683	1	103057.8	-73.24573	4.001693E-009	0.0006681	6
	53	172	1.512097	37730.95	-116978.9	1	122913.3	-72.12316	2.741819E-009	0.0007175	6
	54	177	1.201923	48991.52	-139940.6	1	148268.5	-70.70547	3.326343E-009	0.0006794	6
	55	184	0.956633	62778.27	-166203	1	177664.2	-69.30743	6.304312E-010	3.616481E-005	6
