EXPLAIN
TAG	EISPOT
TITLE	LABEL	Potentiostatic EIS	Test Identifier
DATE	LABEL	8/29/2020	Date
TIME	LABEL	11:17:17	Time
NOTES	NOTES	1	Notes...
	
PSTAT	PSTAT	REF3000-16137	Potentiostat
VDC	POTEN	0.00000E+000	T	DC Voltage (V)
FREQINIT	QUANT	3.00000E+005	Initial Freq. (Hz)
FREQFINAL	QUANT	1.00000E+000	Final Freq. (Hz)
PTSPERDEC	QUANT	1.00000E+001	Points/decade
VAC	QUANT	5.00000E+001	AC Voltage (mV rms)
AREA	QUANT	1.00000E+000	Sample Area (cm^2)
SPEED	SELECTOR	2	Optimize for:
ZGUESS	QUANT	1.00000E+003	Estimated Z (ohms)
EOC	QUANT	0	Open Circuit (V)
SEQUENCER	TOGGLE	TRUE	Run as Sequence
PSTATMODEL	IQUANT	5	Pstat Model
PSTATSECTION	LABEL	REF3000-16137	Pstat Section
PSTATSERIALNO	LABEL	16137	Pstat Serial Number
CTRLMODE	IQUANT	1	Control Mode
IESTAB	IQUANT	0	I/E Stability
CASPEED	IQUANT	1	Control Amp Speed
CONVENTION	IQUANT	1	Current Convention
ICHRANGE	IQUANT	2	Ich Range
ICHRANGEMODE	TOGGLE	F	Ich Auto Range
ICHOFFSETENABLE	TOGGLE	T	Ich Offset Enable
ICHOFFSET	QUANT	0	Ich Offset (V)
ICHFILTER	IQUANT	3	Ich Filter
VCHRANGE	IQUANT	2	Vch Range
VCHRANGEMODE	TOGGLE	F	Vch Auto Range
VCHOFFSETENABLE	TOGGLE	T	Vch Offset Enable
VCHOFFSET	QUANT	0	Vch Offset (V)
VCHFILTER	IQUANT	3	Vch Filter
ACHRANGE	IQUANT	2	Ach Range
ACHOFFSETENABLE	TOGGLE	F	Ach Offset Enable
ACHOFFSET	QUANT	0	Ach Offset (V)
ACHFILTER	IQUANT	3	Ach Filter
IERANGELOWERLIMIT	IQUANT	2	I/E Range Lower Limit
IERANGEMODE	TOGGLE	F	I/E AutoRange
IERANGE	IQUANT	11	I/E Range
POSFEEDENABLE	TOGGLE	F	Positive Feedback IR Comp
POSFEEDRESISTANCE	QUANT	0	Positive Feedback Resistance (ohm)
ACHSELECT	IQUANT	0	Ach Select
CABLEID	IQUANT	13	Cable ID
DCCALDATE	LABEL	7/31/2020	DC Calibration Date
ACCALDATE	LABEL	7/31/2020	AC Calibration Date
THERMOSELECT	IQUANT	1	Thermo Select
FRAMEWORKVERSION	QUANT	6.33	Framework Version
INSTRUMENTVERSION	LABEL	3.50	Instrument Version
COMPLIANCEVOLTAGE	IQUANT	0	Compliance Voltage
ZCURVE	TABLE
	Pt	Time	Freq	Zreal	Zimag	Zsig	Zmod	Zphz	Idc	Vdc	IERange
	#	s	Hz	ohm	ohm	V	ohm	°	A	V	#
	0	7	300046.9	35.21409	-1.71958	1	35.25605	-2.795656	-0.0008464	0.0029044	10
	1	11	238359.4	35.33531	-2.661788	1	35.43542	-4.30792	-0.0007764	0.0033437	10
	2	16	189328.1	35.76712	-3.489418	1	35.93694	-5.572106	-0.0001359	-0.0011761	10
	3	22	150421.9	36.17123	-4.467646	1	36.44609	-7.041159	0.000376	0.001635	10
	4	29	119484.4	36.75287	-5.454734	1	37.15545	-8.442017	-0.0007215	0.0038743	10
	5	33	94921.88	37.36188	-6.534761	1	37.92905	-9.92094	-5.544706E-005	0.0017982	10
	6	36	75421.88	38.26271	-6.980938	1	38.89433	-10.33975	0.0001233	-0.005618	9
	7	38	59859.37	39.02243	-8.569078	1	39.95221	-12.38521	0.0001499	-0.0056229	9
	8	41	47578.12	39.88944	-10.30944	1	41.20015	-14.49102	0.0001453	-0.0026362	9
	9	43	37828.12	40.80296	-12.26381	1	42.60613	-16.72878	0.000101	-0.0055336	9
	10	46	30046.88	41.86531	-14.43608	1	44.28436	-19.02532	-0.0001516	0.0048056	9
	11	48	23859.38	42.87201	-17.08469	1	46.15079	-21.72751	-1.216536E-005	-0.0026897	9
	12	51	18984.38	44.02521	-20.07621	1	48.3867	-24.51376	7.933712E-005	-0.0047781	9
	13	53	15046.87	45.28214	-23.9995	1	51.24888	-27.92356	-0.0001424	0.0027315	9
	14	55	11953.13	46.19876	-28.51038	1	54.28782	-31.67975	-0.0001209	0.0058055	9
	15	58	9515.62	47.3055	-34.24541	1	58.39999	-35.90155	0.0001347	-0.0013007	9
	16	60	7546.875	48.3298	-41.48815	1	63.69487	-40.64405	0.0001141	-0.0052781	9
	17	62	5928.309	49.33326	-51.13068	1	71.0501	-46.02498	6.467662E-005	0.0013259	9
	18	65	4733.456	50.28151	-62.34006	1	80.09066	-51.11145	-0.000152	0.00479	9
	19	67	3796.875	51.51297	-76.37981	1	92.12741	-56.00303	-0.0001427	0.0054921	9
	20	69	2987.132	52.72892	-95.4025	1	109.0045	-61.0706	-0.0001185	0.0056251	9
	21	72	2390.625	53.87704	-117.9306	1	129.6547	-65.44652	-0.0001494	0.0045337	9
	22	75	1884.191	55.47251	-148.0405	1	158.0924	-69.45844	0.0001667	-0.0041348	9
	23	78	1516.544	57.96107	-181.6571	1	190.6798	-72.30375	8.175018E-005	-0.0050593	9
	24	81	1193.986	60.77129	-228.668	1	236.6056	-75.11698	-0.0001198	0.0056833	9
	25	86	946.5144	61.18668	-287.8349	1	294.2664	-77.99895	-0.0001187	0.0056318	9
	26	89	751.7689	68.06031	-354.5765	1	361.0494	-79.13434	0.0001327	0.0012265	10
	27	93	597.4265	74.14634	-450.0964	1	456.1628	-80.64543	1.492492E-005	0.0029718	9
	28	97	477.4305	82.81582	-552.2329	1	558.4081	-81.47118	5.469566E-007	0.0006795	8
	29	99	376.6741	93.74446	-694.2461	1	700.5467	-82.30983	5.597778E-007	0.0006731	8
	30	102	298.2954	108.217	-869.2977	1	876.0076	-82.90388	5.424617E-007	0.0006845	8
	31	104	237.7717	127.0903	-1080.952	1	1088.398	-83.29437	5.948573E-007	0.0006515	8
	32	107	189.0121	152.8839	-1347.114	1	1355.762	-83.52521	5.943287E-007	0.0006461	8
	33	109	150.2404	187.7067	-1677.275	1	1687.745	-83.6145	5.67042E-007	0.000652	8
	34	111	119.1737	236.6736	-2092.97	1	2106.309	-83.54839	5.807935E-007	0.0006758	8
	35	114	95.0169	297.889	-2592.326	1	2609.385	-83.44479	5.706395E-007	0.0006769	8
	36	116	75.60484	383.2024	-3216.114	1	3238.863	-83.2052	6.122457E-007	0.0006426	8
	37	119	54.50582	562.1729	-4373.208	1	4409.193	-82.67484	5.797953E-007	0.0006722	8
	38	121	45.95588	693.2894	-5130.311	1	5176.943	-82.3039	7.628126E-008	0.0006259	7
	39	124	37.20238	896.6492	-6241.83	1	6305.903	-81.82529	6.793002E-008	0.000652	7
	40	126	30.04808	1166.873	-7587.502	1	7676.704	-81.25705	6.375024E-008	0.0006214	7
	41	129	23.91582	1541.372	-9331.304	1	9457.751	-80.62041	5.985796E-008	0.0006221	7
	42	131	18.60119	2120.667	-11710.95	1	11901.41	-79.73587	6.57368E-008	0.0006534	7
	43	133	15.02404	2794.149	-14166.47	1	14439.4	-78.84238	7.615843E-008	0.0006228	7
	44	136	12.01923	3716.144	-17226.24	1	17622.51	-77.82638	6.586506E-008	0.0006419	7
	45	138	9.450605	5042.466	-21201.07	1	21792.47	-76.62133	7.11286E-008	0.0006224	7
	46	141	7.512019	6729.5	-25706.66	1	26572.89	-75.33028	7.599239E-008	0.000623	7
	47	144	5.978954	8931.557	-31009.57	1	32270.21	-73.93224	6.859402E-008	0.0006554	7
	48	148	4.734848	11883.73	-37389.99	1	39233.08	-72.36808	7.676138E-008	0.0006281	7
	49	151	3.75601	15766.29	-44737.12	1	47434.02	-70.58648	8.065392E-009	0.0006874	6
	50	157	3.004808	20441.64	-52854	1	56669.27	-68.85568	5.357327E-009	0.0007238	6
	51	163	2.372217	26798.08	-62651.03	1	68141.68	-66.84187	6.495837E-009	0.0006979	6
	52	167	1.878005	35002.31	-73488.7	1	81398.72	-64.53177	5.981459E-009	0.0006525	6
	53	172	1.512097	44290.09	-84421.23	1	95333.9	-62.31705	4.758104E-009	0.0007753	6
	54	178	1.201923	56412.59	-96926.3	1	112147.6	-59.79993	5.78167E-009	0.0006552	6
	55	184	0.956633	70883.93	-109870.8	1	130752.2	-57.17163	6.989895E-010	3.064431E-005	6
