EXPLAIN
TAG	EISPOT
TITLE	LABEL	Potentiostatic EIS	Test Identifier
DATE	LABEL	8/29/2020	Date
TIME	LABEL	11:59:35	Time
NOTES	NOTES	1	Notes...
	
PSTAT	PSTAT	REF3000-16137	Potentiostat
VDC	POTEN	0.00000E+000	T	DC Voltage (V)
FREQINIT	QUANT	3.00000E+005	Initial Freq. (Hz)
FREQFINAL	QUANT	1.00000E+000	Final Freq. (Hz)
PTSPERDEC	QUANT	1.00000E+001	Points/decade
VAC	QUANT	5.00000E+001	AC Voltage (mV rms)
AREA	QUANT	1.00000E+000	Sample Area (cm^2)
SPEED	SELECTOR	2	Optimize for:
ZGUESS	QUANT	1.00000E+003	Estimated Z (ohms)
EOC	QUANT	0	Open Circuit (V)
SEQUENCER	TOGGLE	TRUE	Run as Sequence
PSTATMODEL	IQUANT	5	Pstat Model
PSTATSECTION	LABEL	REF3000-16137	Pstat Section
PSTATSERIALNO	LABEL	16137	Pstat Serial Number
CTRLMODE	IQUANT	1	Control Mode
IESTAB	IQUANT	0	I/E Stability
CASPEED	IQUANT	1	Control Amp Speed
CONVENTION	IQUANT	1	Current Convention
ICHRANGE	IQUANT	2	Ich Range
ICHRANGEMODE	TOGGLE	F	Ich Auto Range
ICHOFFSETENABLE	TOGGLE	T	Ich Offset Enable
ICHOFFSET	QUANT	0	Ich Offset (V)
ICHFILTER	IQUANT	3	Ich Filter
VCHRANGE	IQUANT	2	Vch Range
VCHRANGEMODE	TOGGLE	F	Vch Auto Range
VCHOFFSETENABLE	TOGGLE	T	Vch Offset Enable
VCHOFFSET	QUANT	0	Vch Offset (V)
VCHFILTER	IQUANT	3	Vch Filter
ACHRANGE	IQUANT	2	Ach Range
ACHOFFSETENABLE	TOGGLE	F	Ach Offset Enable
ACHOFFSET	QUANT	0	Ach Offset (V)
ACHFILTER	IQUANT	3	Ach Filter
IERANGELOWERLIMIT	IQUANT	2	I/E Range Lower Limit
IERANGEMODE	TOGGLE	F	I/E AutoRange
IERANGE	IQUANT	11	I/E Range
POSFEEDENABLE	TOGGLE	F	Positive Feedback IR Comp
POSFEEDRESISTANCE	QUANT	0	Positive Feedback Resistance (ohm)
ACHSELECT	IQUANT	0	Ach Select
CABLEID	IQUANT	13	Cable ID
DCCALDATE	LABEL	7/31/2020	DC Calibration Date
ACCALDATE	LABEL	7/31/2020	AC Calibration Date
THERMOSELECT	IQUANT	1	Thermo Select
FRAMEWORKVERSION	QUANT	6.33	Framework Version
INSTRUMENTVERSION	LABEL	3.50	Instrument Version
COMPLIANCEVOLTAGE	IQUANT	0	Compliance Voltage
ZCURVE	TABLE
	Pt	Time	Freq	Zreal	Zimag	Zsig	Zmod	Zphz	Idc	Vdc	IERange
	#	s	Hz	ohm	ohm	V	ohm	°	A	V	#
	0	16	300046.9	140.5884	4.195018	1	140.651	1.709142	-0.0003417	0.0243378	9
	1	29	238359.4	137.2059	1.246088	1	137.2115	0.5203394	-0.0006431	0.0248653	9
	2	34	189328.1	136.6058	-1.865719	1	136.6186	-0.7824788	-1.833212E-005	-0.0121313	9
	3	40	150421.9	137.1479	-4.233579	1	137.2132	-1.768086	-0.0004786	0.0050612	9
	4	45	119484.4	138.3213	-6.643033	1	138.4807	-2.749581	0.0005842	-0.023201	9
	5	49	94921.88	139.0961	-8.526905	1	139.3572	-3.507972	6.367666E-005	0.0037789	9
	6	52	75421.88	140.0297	-11.34884	1	140.4888	-4.633462	0.0002029	-0.0022508	9
	7	55	59859.37	141.5155	-14.16909	1	142.2231	-5.717625	9.001606E-005	-0.0077924	9
	8	58	47578.12	143.402	-17.27258	1	144.4385	-6.868115	8.79648E-005	-0.0076773	9
	9	62	37828.12	145.3502	-21.39677	1	146.9167	-8.374272	0.0001613	-0.0088507	9
	10	65	30046.88	147.7851	-25.28864	1	149.9331	-9.71027	0.0002518	-0.0069649	9
	11	68	23859.38	150.969	-29.27579	1	153.7814	-10.97454	-0.0001615	0.0091035	9
	12	71	18984.38	153.8686	-34.7563	1	157.7452	-12.72853	-0.0002349	0.0081185	9
	13	74	15046.87	157.3478	-40.68809	1	162.5233	-14.49836	0.0002037	-0.0022379	9
	14	77	11953.13	161.3863	-47.76177	1	168.3055	-16.48595	9.282453E-005	-0.0077804	9
	15	81	9515.62	165.5488	-55.77307	1	174.6913	-18.61857	0.0002053	-0.0023133	9
	16	85	7546.875	169.9562	-65.42019	1	182.1124	-21.0529	-2.614513E-005	0.0065693	9
	17	89	5928.309	174.8732	-77.36518	1	191.2224	-23.86495	0.0002092	-0.0089848	9
	18	93	4733.456	179.7064	-91.34673	1	201.5902	-26.94473	1.355821E-005	-0.0059479	9
	19	97	3796.875	184.1558	-107.5008	1	213.2365	-30.27421	-0.0001979	0.0023751	9
	20	101	2987.132	189.5846	-130.5558	1	230.1894	-34.55291	-6.659303E-005	-0.0034511	9
	21	105	2390.625	196.0289	-154.1628	1	249.3862	-38.18253	-0.0001925	0.0021848	9
	22	109	1884.191	201.1951	-190.6669	1	277.1882	-43.46099	-0.0001217	-6.17046E-005	10
	23	114	1516.544	205.9767	-229.3341	1	308.254	-48.07137	1.378872E-005	-0.0059696	9
	24	120	1193.986	211.2744	-285.061	1	354.8192	-53.45583	0.0001406	0.0009257	9
	25	125	946.5144	221.0962	-353.1642	1	416.6635	-57.95164	-0.0002438	0.0066323	9
	26	129	751.7689	222.0523	-435.2008	1	488.5765	-62.96799	0.0002048	-0.0022616	9
	27	133	597.4265	232.6931	-545.2414	1	592.8189	-66.88862	6.178884E-005	0.0040621	9
	28	137	477.4305	240.6475	-663.8724	1	706.1429	-70.0749	-9.784321E-008	0.0006085	8
	29	139	376.6741	251.1192	-832.0029	1	869.0741	-73.20488	-1.933127E-007	0.0007025	8
	30	141	298.2954	263.8916	-1039.998	1	1072.956	-75.76212	-1.096377E-007	0.0005989	8
	31	143	237.7717	279.1833	-1293.202	1	1322.995	-77.81765	-8.652758E-008	0.0006295	8
	32	146	189.0121	298.8453	-1613.581	1	1641.021	-79.50735	-1.444893E-007	0.0007013	8
	33	148	150.2404	324.2501	-2013.508	1	2039.449	-80.85178	-1.407792E-007	0.0006393	8
	34	151	119.1737	360.9338	-2517.057	1	2542.803	-81.83969	-7.665361E-008	0.0006228	8
	35	153	95.0169	400.9265	-3135.276	1	3160.806	-82.71279	-1.318909E-007	0.0006988	8
	36	156	75.60484	458.9283	-3908.324	1	3935.177	-83.30281	-1.550466E-007	0.0005988	8
	37	158	54.50582	587.5796	-5384.274	1	5416.24	-83.77203	-2.938025E-008	0.0005779	7
	38	161	45.95588	671.1796	-6342.81	1	6378.223	-83.95959	-2.228975E-008	0.0006468	7
	39	163	37.20238	805.2122	-7767.653	1	7809.276	-84.08173	-3.118005E-008	0.0006885	7
	40	165	30.04808	981.945	-9523.17	1	9573.66	-84.11297	-2.738526E-008	0.0005901	7
	41	168	23.91582	1229.52	-11844.1	1	11907.74	-84.07343	-3.225473E-008	0.0006852	7
	42	170	18.60119	1595.798	-14996.88	1	15081.55	-83.92609	-2.292664E-008	0.0005722	7
	43	173	15.02404	1996.981	-18367.09	1	18475.33	-83.79483	-1.910425E-008	0.0005738	7
	44	176	12.01923	2568.789	-22684.46	1	22829.44	-83.53934	-2.928888E-008	0.0006734	7
	45	180	9.450605	3391.242	-28410.96	1	28612.64	-83.19316	-2.304385E-008	0.0006297	7
	46	182	7.512019	4412.842	-35244.06	1	35519.25	-82.86324	-2.425855E-008	0.0006629	7
	47	185	5.978954	5925.959	-43618.16	1	44018.87	-82.26317	-3.148796E-009	0.0007303	6
	48	189	4.734848	7899.174	-54125.47	1	54698.85	-81.69676	-3.885516E-009	0.0007216	6
	49	193	3.75601	10454.18	-66844.88	1	67657.43	-81.11125	-3.028772E-009	0.0007193	6
	50	198	3.004808	13810.89	-81772.27	1	82930.36	-80.41353	-2.52235E-009	0.0006556	6
	51	205	2.372217	18452.08	-101058.4	1	102729.2	-79.65245	-3.356258E-009	0.0006022	6
	52	209	1.878005	24773.03	-124117.2	1	126565.3	-78.71244	-3.365699E-009	0.0006745	6
	53	214	1.512097	32333.13	-149630.1	1	153083.6	-77.8066	-3.480615E-009	0.0005684	6
	54	219	1.201923	42354.74	-182165	1	187024.1	-76.91086	-3.602656E-009	0.0006942	6
	55	225	0.956633	54897.3	-220694.6	1	227420	-76.0313	-4.222114E-009	2.982565E-005	6
