EXPLAIN
TAG	EISPOT
TITLE	LABEL	Potentiostatic EIS	Test Identifier
DATE	LABEL	8/29/2020	Date
TIME	LABEL	14:32:37	Time
NOTES	NOTES	1	Notes...
	
PSTAT	PSTAT	REF3000-16137	Potentiostat
VDC	POTEN	0.00000E+000	T	DC Voltage (V)
FREQINIT	QUANT	3.00000E+005	Initial Freq. (Hz)
FREQFINAL	QUANT	1.00000E+000	Final Freq. (Hz)
PTSPERDEC	QUANT	1.00000E+001	Points/decade
VAC	QUANT	5.00000E+001	AC Voltage (mV rms)
AREA	QUANT	1.00000E+000	Sample Area (cm^2)
SPEED	SELECTOR	2	Optimize for:
ZGUESS	QUANT	1.00000E+003	Estimated Z (ohms)
EOC	QUANT	0	Open Circuit (V)
SEQUENCER	TOGGLE	TRUE	Run as Sequence
PSTATMODEL	IQUANT	5	Pstat Model
PSTATSECTION	LABEL	REF3000-16137	Pstat Section
PSTATSERIALNO	LABEL	16137	Pstat Serial Number
CTRLMODE	IQUANT	1	Control Mode
IESTAB	IQUANT	0	I/E Stability
CASPEED	IQUANT	1	Control Amp Speed
CONVENTION	IQUANT	1	Current Convention
ICHRANGE	IQUANT	2	Ich Range
ICHRANGEMODE	TOGGLE	F	Ich Auto Range
ICHOFFSETENABLE	TOGGLE	T	Ich Offset Enable
ICHOFFSET	QUANT	0	Ich Offset (V)
ICHFILTER	IQUANT	3	Ich Filter
VCHRANGE	IQUANT	2	Vch Range
VCHRANGEMODE	TOGGLE	F	Vch Auto Range
VCHOFFSETENABLE	TOGGLE	T	Vch Offset Enable
VCHOFFSET	QUANT	0	Vch Offset (V)
VCHFILTER	IQUANT	3	Vch Filter
ACHRANGE	IQUANT	2	Ach Range
ACHOFFSETENABLE	TOGGLE	F	Ach Offset Enable
ACHOFFSET	QUANT	0	Ach Offset (V)
ACHFILTER	IQUANT	3	Ach Filter
IERANGELOWERLIMIT	IQUANT	2	I/E Range Lower Limit
IERANGEMODE	TOGGLE	F	I/E AutoRange
IERANGE	IQUANT	11	I/E Range
POSFEEDENABLE	TOGGLE	F	Positive Feedback IR Comp
POSFEEDRESISTANCE	QUANT	0	Positive Feedback Resistance (ohm)
ACHSELECT	IQUANT	0	Ach Select
CABLEID	IQUANT	13	Cable ID
DCCALDATE	LABEL	7/31/2020	DC Calibration Date
ACCALDATE	LABEL	7/31/2020	AC Calibration Date
THERMOSELECT	IQUANT	1	Thermo Select
FRAMEWORKVERSION	QUANT	6.33	Framework Version
INSTRUMENTVERSION	LABEL	3.50	Instrument Version
COMPLIANCEVOLTAGE	IQUANT	0	Compliance Voltage
ZCURVE	TABLE
	Pt	Time	Freq	Zreal	Zimag	Zsig	Zmod	Zphz	Idc	Vdc	IERange
	#	s	Hz	ohm	ohm	V	ohm	°	A	V	#
	0	7	300046.9	29.61956	-2.11692	1	29.69511	-4.087997	-0.0008785	-0.0005166	11
	1	11	238359.4	30.00952	-2.469636	1	30.11097	-4.704561	-0.0004628	0.0046963	10
	2	16	189328.1	30.21476	-3.630534	1	30.4321	-6.851676	-0.0001452	0.0010984	11
	3	20	150421.9	30.6473	-4.120759	1	30.9231	-7.657918	0.0002335	0.0019692	10
	4	25	119484.4	31.14429	-5.096264	1	31.55849	-9.293177	-0.0004411	0.0047411	10
EXPERIMENTABORTED	TOGGLE	T	Experiment Aborted
FRACURVE	TABLE	128
	Pt	V	I	Over
	#	V	A	bits
	0	6.85229E-002	2.47230E-003	......
	1	9.46276E-003	9.79726E-004	......
	2	-6.00762E-002	-1.32189E-003	......
	3	-6.06752E-002	-1.75465E-003	......
	4	8.59177E-003	9.05987E-005	......
	5	6.83659E-002	2.17493E-003	......
	6	5.01471E-002	2.08254E-003	......
	7	-2.50347E-002	-1.09385E-004	......
	8	-7.12560E-002	-1.86814E-003	......
	9	-3.54696E-002	-1.19390E-003	......
	10	4.12683E-002	1.14981E-003	......
	11	7.09078E-002	2.54850E-003	......
	12	1.98646E-002	1.29000E-003	......
	13	-5.36783E-002	-1.09700E-003	......
	14	-6.54551E-002	-1.90164E-003	......
	15	-1.87307E-003	-2.49474E-004	......
	16	6.41009E-002	2.01844E-003	......
	17	5.71290E-002	2.26832E-003	......
	18	-1.50209E-002	2.47286E-004	......
	19	-6.96590E-002	-1.71305E-003	......
	20	-4.42034E-002	-1.42918E-003	......
	21	3.21464E-002	8.58336E-004	......
	22	7.20398E-002	2.44731E-003	......
	23	2.98754E-002	1.56048E-003	......
	24	-4.62804E-002	-8.14528E-004	......
	25	-6.90000E-002	-1.94704E-003	......
	26	-1.24809E-002	-5.29451E-004	......
	27	5.84960E-002	1.84456E-003	......
	28	6.29509E-002	2.38191E-003	......
	29	-4.48303E-003	5.45862E-004	......
	30	-6.63951E-002	-1.61996E-003	......
	31	-5.18863E-002	-1.62716E-003	......
	32	2.23216E-002	5.32063E-004	......
	33	7.14248E-002	2.36791E-003	......
	34	3.90563E-002	1.82946E-003	......
	35	-3.77235E-002	-5.02753E-004	......
	36	-7.09420E-002	-1.94514E-003	......
	37	-2.26478E-002	-8.37526E-004	......
	38	5.19751E-002	1.53098E-003	......
	39	6.74399E-002	2.46351E-003	......
	40	5.97681E-003	8.75635E-004	......
	41	-6.19762E-002	-1.39938E-003	......
	42	-5.86312E-002	-1.74915E-003	......
	43	1.21137E-002	1.97390E-004	......
	44	6.92678E-002	2.25042E-003	......
	45	4.74582E-002	2.03624E-003	......
	46	-2.82997E-002	-2.10977E-004	......
	47	-7.14460E-002	-1.89704E-003	......
	48	-3.23696E-002	-1.11170E-003	......
	49	4.40872E-002	1.25430E-003	......
	50	7.03638E-002	2.50470E-003	......
	51	1.64117E-002	1.18741E-003	......
	52	-5.60862E-002	-1.16330E-003	......
	53	-6.39451E-002	-1.87924E-003	......
	54	1.64188E-003	-1.13985E-004	......
	55	6.57049E-002	2.08174E-003	......
	56	5.48451E-002	2.20833E-003	......
	57	-1.85058E-002	1.26896E-004	......
	58	-7.03570E-002	-1.77535E-003	......
	59	-4.14185E-002	-1.35078E-003	......
	60	3.52144E-002	9.51229E-004	......
	61	7.18528E-002	2.47261E-003	......
	62	2.65965E-002	1.47419E-003	......
	63	-4.88784E-002	-9.04420E-004	......
	64	-6.79841E-002	-1.94184E-003	......
	65	-8.91996E-003	-4.40958E-004	......
	66	6.05480E-002	1.88695E-003	......
	67	6.11670E-002	2.34942E-003	......
	68	-8.12197E-003	4.54069E-004	......
	69	-6.76921E-002	-1.65726E-003	......
	70	-4.93923E-002	-1.55657E-003	......
	71	2.56675E-002	6.37554E-004	......
	72	7.17148E-002	2.40541E-003	......
	73	3.60234E-002	1.73916E-003	......
	74	-4.07465E-002	-6.03645E-004	......
	75	-7.04210E-002	-1.93324E-003	......
	76	-1.93018E-002	-7.50133E-004	......
	77	5.43961E-002	1.59568E-003	......
	78	6.60949E-002	2.45191E-003	......
	79	2.46986E-003	7.74043E-004	......
	80	-6.36231E-002	-1.47187E-003	......
	81	-5.65422E-002	-1.72185E-003	......
	82	1.55227E-002	3.10081E-004	......
	83	7.02878E-002	2.30232E-003	......
	84	4.48052E-002	1.96615E-003	......
	85	-3.14686E-002	-3.24068E-004	......
	86	-7.13940E-002	-1.92144E-003	......
	87	-2.90947E-002	-1.04251E-003	......
	88	4.67322E-002	1.35220E-003	......
	89	6.95648E-002	2.49160E-003	......
	90	1.30367E-002	1.08472E-003	......
	91	-5.81192E-002	-1.20940E-003	......
	92	-6.23501E-002	-1.84054E-003	......
	93	5.20382E-003	-5.16898E-005	......
	94	6.70039E-002	2.15203E-003	......
	95	5.26411E-002	2.13653E-003	......
	96	-2.18508E-002	1.44049E-005	......
	97	-7.08610E-002	-1.83504E-003	......
	98	-3.84525E-002	-1.27659E-003	......
	99	3.82293E-002	1.09932E-003	......
	100	7.15258E-002	2.48670E-003	......
	101	2.33175E-002	1.35920E-003	......
	102	-5.13313E-002	-1.00391E-003	......
	103	-6.66951E-002	-1.94724E-003	......
	104	-5.53001E-003	-3.34167E-004	......
	105	6.24689E-002	1.94415E-003	......
	106	5.92160E-002	2.30392E-003	......
	107	-1.14709E-002	3.65576E-004	......
	108	-6.87850E-002	-1.71015E-003	......
	109	-4.68004E-002	-1.50017E-003	......
	110	2.89675E-002	7.48745E-004	......
	111	7.20488E-002	2.41931E-003	......
	112	3.29114E-002	1.65127E-003	......
	113	-4.36094E-002	-7.09036E-004	......
	114	-6.97390E-002	-1.96423E-003	......
	115	-1.59379E-002	-5.94746E-004	......
	116	5.65950E-002	1.70727E-003	......
	117	6.46659E-002	2.39671E-003	......
	118	-1.04008E-003	6.66852E-004	......
	119	-6.50551E-002	-1.55327E-003	......
	120	-5.43013E-002	-1.67456E-003	......
	121	1.89926E-002	4.16372E-004	......
	122	7.09778E-002	2.33452E-003	......
	123	4.20343E-002	1.91365E-003	......
	124	-3.47446E-002	-4.12760E-004	......
	125	-7.11740E-002	-1.94114E-003	......
	126	-2.59137E-002	-9.40118E-004	......
	127	4.95071E-002	1.43989E-003	......
