Z60W Data File: Version 1.1
CorrTest for Windows: SN CS310H1805157  V5.2.1111.9  2.5H6.220118
Sweep Frequency: Control Voltage
  Date:4-26-2026   Time:21:29:01
  Begin Information:            Cell Information
      Surface Area:           1
      Density:                7.8
      Weight:                 28
  End Information:              Cell Information
  Freq (Hz)     Ampl(mV)       Bias(V)      Time(Sec)       Z'(Ohm.cm^2)    Z''(Ohm.cm^2)        GD       Err      Range
End Comments
  3.07200E+05,	1.00000E+01,	-9.85613E-03,	3.33895E-02,	1.17763E+00,	4.22390E+00,	0.00000E+00,	0,	0
  2.76480E+05,	1.00000E+01,	-9.85613E-03,	1.63907E+00,	1.65997E+00,	3.47437E+00,	0.00000E+00,	0,	0
  2.30400E+05,	1.00000E+01,	-9.85613E-03,	2.54891E+00,	2.11235E+00,	2.89758E+00,	0.00000E+00,	0,	0
  1.72800E+05,	1.00000E+01,	-9.85613E-03,	3.47896E+00,	2.51832E+00,	2.15887E+00,	0.00000E+00,	0,	0
  1.53600E+05,	1.00000E+01,	-9.85613E-03,	4.39376E+00,	2.61066E+00,	1.90391E+00,	0.00000E+00,	0,	0
  1.15200E+05,	1.00000E+01,	-9.85613E-03,	5.28569E+00,	2.81369E+00,	1.35663E+00,	0.00000E+00,	0,	0
  9.87429E+04,	1.00000E+01,	-9.85613E-03,	6.18889E+00,	2.88358E+00,	1.12026E+00,	0.00000E+00,	0,	0
  8.13176E+04,	1.00000E+01,	-9.85613E-03,	7.09722E+00,	2.95105E+00,	8.71607E-01,	0.00000E+00,	0,	0
  6.58286E+04,	1.00000E+01,	-9.85613E-03,	8.00387E+00,	2.99948E+00,	6.46148E-01,	0.00000E+00,	0,	0
  5.31692E+04,	1.00000E+01,	-9.85613E-03,	1.12356E+01,	3.05191E+00,	3.90794E-01,	0.00000E+00,	0,	0
  4.60800E+04,	1.00000E+01,	-9.85613E-03,	1.27982E+01,	3.07142E+00,	2.70329E-01,	0.00000E+00,	0,	0
  3.63789E+04,	1.00000E+01,	-9.85613E-03,	1.37285E+01,	3.09663E+00,	9.50572E-02,	0.00000E+00,	0,	0
  3.00522E+04,	1.00000E+01,	-9.85613E-03,	1.45921E+01,	3.12229E+00,	-4.32485E-02,	0.00000E+00,	0,	0
  2.46857E+04,	1.00000E+01,	-9.85613E-03,	1.54415E+01,	3.14740E+00,	-1.74984E-01,	0.00000E+00,	0,	0
  2.03294E+04,	1.00000E+01,	-9.85613E-03,	1.64224E+01,	3.17950E+00,	-3.05813E-01,	0.00000E+00,	0,	0
  1.64571E+04,	1.00000E+01,	-9.85613E-03,	1.73476E+01,	3.21853E+00,	-4.52271E-01,	0.00000E+00,	0,	0
  1.35529E+04,	1.00000E+01,	-9.85613E-03,	1.81627E+01,	3.26195E+00,	-5.97195E-01,	0.00000E+00,	0,	0
  1.11484E+04,	1.00000E+01,	-9.85613E-03,	1.90665E+01,	3.31372E+00,	-7.44345E-01,	0.00000E+00,	0,	0
  9.60000E+03,	1.00000E+01,	-9.85613E-03,	2.18710E+01,	3.33648E+00,	-8.58904E-01,	0.00000E+00,	0,	0
  7.85455E+03,	1.00000E+01,	-9.85613E-03,	2.28092E+01,	3.40065E+00,	-1.03668E+00,	0.00000E+00,	0,	0
  6.40000E+03,	1.00000E+01,	-9.85613E-03,	2.37764E+01,	3.48062E+00,	-1.24418E+00,	0.00000E+00,	0,	0
  5.23636E+03,	1.00000E+01,	-9.85613E-03,	2.47172E+01,	3.56574E+00,	-1.46896E+00,	0.00000E+00,	0,	0
  4.32000E+03,	1.00000E+01,	-9.85613E-03,	2.55990E+01,	3.65573E+00,	-1.72011E+00,	0.00000E+00,	0,	0
  3.52653E+03,	1.00000E+01,	-9.85613E-03,	2.66506E+01,	3.76499E+00,	-2.02162E+00,	0.00000E+00,	0,	0
  2.88000E+03,	1.00000E+01,	-9.85613E-03,	2.75545E+01,	3.88790E+00,	-2.36688E+00,	0.00000E+00,	0,	0
  2.36712E+03,	1.00000E+01,	-9.85613E-03,	2.85648E+01,	4.01479E+00,	-2.77453E+00,	0.00000E+00,	0,	0
  1.96364E+03,	1.00000E+01,	-9.85613E-03,	2.93546E+01,	4.16153E+00,	-3.19655E+00,	0.00000E+00,	0,	0
  1.61495E+03,	1.00000E+01,	-9.85613E-03,	3.02514E+01,	4.33141E+00,	-3.73317E+00,	0.00000E+00,	0,	0
  1.32923E+03,	1.00000E+01,	-9.85613E-03,	3.11844E+01,	4.50537E+00,	-4.36127E+00,	0.00000E+00,	0,	0
  1.09367E+03,	1.00000E+01,	-9.85613E-03,	3.22855E+01,	4.71316E+00,	-5.09989E+00,	0.00000E+00,	0,	0
  9.00000E+02,	1.00000E+01,	-9.85613E-03,	3.72855E+01,	4.95944E+00,	-5.99353E+00,	0.00000E+00,	0,	0
  7.44828E+02,	1.00000E+01,	-9.85613E-03,	3.86516E+01,	5.22184E+00,	-6.99744E+00,	0.00000E+00,	0,	0
  6.17143E+02,	1.00000E+01,	-9.85613E-03,	4.00193E+01,	5.52218E+00,	-8.17587E+00,	0.00000E+00,	0,	0
  5.14286E+02,	1.00000E+01,	-9.85613E-03,	4.14226E+01,	5.85548E+00,	-9.51723E+00,	0.00000E+00,	0,	0
  4.15385E+02,	1.00000E+01,	-9.85613E-03,	4.27997E+01,	6.31156E+00,	-1.13835E+01,	0.00000E+00,	0,	0
  3.42857E+02,	1.00000E+01,	-9.85613E-03,	4.52032E+01,	6.79523E+00,	-1.33792E+01,	0.00000E+00,	0,	0
  2.84211E+02,	1.00000E+01,	-9.85613E-03,	4.96033E+01,	7.37100E+00,	-1.57160E+01,	0.00000E+00,	0,	0
  2.32258E+02,	1.00000E+01,	-9.85613E-03,	5.25003E+01,	8.09110E+00,	-1.86650E+01,	0.00000E+00,	0,	0
  1.91150E+02,	1.00000E+01,	-9.85613E-03,	5.56461E+01,	8.92796E+00,	-2.20374E+01,	0.00000E+00,	0,	0
  1.57664E+02,	1.00000E+01,	-9.85613E-03,	5.90496E+01,	9.91631E+00,	-2.59717E+01,	0.00000E+00,	0,	0
  1.30120E+02,	1.00000E+01,	-9.85613E-03,	6.28090E+01,	1.11104E+01,	-3.06046E+01,	0.00000E+00,	0,	0
  1.06931E+02,	1.00000E+01,	-9.85613E-03,	6.68884E+01,	1.25795E+01,	-3.61972E+01,	0.00000E+00,	0,	0
  8.85246E+01,	1.00000E+01,	-9.85613E-03,	7.24987E+01,	1.42949E+01,	-4.25648E+01,	0.00000E+00,	0,	0
  7.29730E+01,	1.00000E+01,	-9.85613E-03,	7.73466E+01,	1.64447E+01,	-5.03217E+01,	0.00000E+00,	0,	0
  6.00000E+01,	1.00000E+01,	-9.85613E-03,	8.26015E+01,	1.92999E+01,	-5.86301E+01,	0.00000E+00,	0,	0
  4.95413E+01,	1.00000E+01,	-9.85613E-03,	8.83652E+01,	2.25642E+01,	-6.87486E+01,	0.00000E+00,	0,	0
  4.06015E+01,	1.00000E+01,	-9.85613E-03,	9.19973E+01,	2.66993E+01,	-8.10057E+01,	0.00000E+00,	0,	0
  3.35404E+01,	1.00000E+01,	-9.85613E-03,	9.57622E+01,	3.09559E+01,	-9.44986E+01,	0.00000E+00,	0,	0
  2.75510E+01,	1.00000E+01,	-9.85613E-03,	9.96068E+01,	3.71699E+01,	-1.11017E+02,	0.00000E+00,	0,	0
  2.26891E+01,	1.00000E+01,	-9.85613E-03,	1.02562E+02,	4.44295E+01,	-1.29528E+02,	0.00000E+00,	0,	0
  1.87500E+01,	1.00000E+01,	-9.85613E-03,	1.06253E+02,	5.28829E+01,	-1.50328E+02,	0.00000E+00,	0,	0
  1.55172E+01,	1.00000E+01,	-9.85613E-03,	1.11817E+02,	6.25913E+01,	-1.73778E+02,	0.00000E+00,	0,	0
  1.28571E+01,	1.00000E+01,	-9.85613E-03,	1.16503E+02,	7.37721E+01,	-2.00248E+02,	0.00000E+00,	0,	0
  1.04651E+01,	1.00000E+01,	-9.85613E-03,	1.19217E+02,	8.74987E+01,	-2.33384E+02,	0.00000E+00,	0,	0
  8.65385E+00,	1.00000E+01,	-9.85613E-03,	1.25018E+02,	1.02104E+02,	-2.69119E+02,	0.00000E+00,	0,	0
  7.14286E+00,	1.00000E+01,	-9.85613E-03,	1.27456E+02,	1.18150E+02,	-3.10154E+02,	0.00000E+00,	0,	0
  5.84416E+00,	1.00000E+01,	-9.85613E-03,	1.30209E+02,	1.36611E+02,	-3.60067E+02,	0.00000E+00,	0,	0
  4.83871E+00,	1.00000E+01,	-9.85613E-03,	1.33324E+02,	1.55522E+02,	-4.14795E+02,	0.00000E+00,	0,	0
  3.98230E+00,	1.00000E+01,	-9.85613E-03,	1.36912E+02,	1.76954E+02,	-4.81146E+02,	0.00000E+00,	0,	0
  3.28467E+00,	1.00000E+01,	-9.85613E-03,	1.41063E+02,	2.00279E+02,	-5.58584E+02,	0.00000E+00,	0,	0
  2.69461E+00,	1.00000E+01,	-9.85613E-03,	1.44988E+02,	2.26989E+02,	-6.52707E+02,	0.00000E+00,	0,	0
  2.22772E+00,	1.00000E+01,	-9.85613E-03,	1.49490E+02,	2.55607E+02,	-7.59924E+02,	0.00000E+00,	0,	0
  1.82927E+00,	1.00000E+01,	-9.85613E-03,	1.54790E+02,	2.89121E+02,	-8.91795E+02,	0.00000E+00,	0,	0
  1.51007E+00,	1.00000E+01,	-9.85613E-03,	1.58647E+02,	3.26872E+02,	-1.04426E+03,	0.00000E+00,	0,	0
  1.24309E+00,	1.00000E+01,	-9.85613E-03,	1.62955E+02,	3.70915E+02,	-1.22790E+03,	0.00000E+00,	0,	0
  1.02273E+00,	1.00000E+01,	-9.85613E-03,	1.67453E+02,	4.23084E+02,	-1.44726E+03,	0.00000E+00,	0,	0
  8.45865E-01,	1.00000E+01,	-9.85613E-03,	1.74318E+02,	4.81695E+02,	-1.69780E+03,	0.00000E+00,	0,	0
  6.94444E-01,	1.00000E+01,	-9.85613E-03,	1.78702E+02,	5.54830E+02,	-2.00742E+03,	0.00000E+00,	0,	0
  5.73980E-01,	1.00000E+01,	-9.85613E-03,	1.83273E+02,	6.21023E+02,	-2.36682E+03,	0.00000E+00,	0,	0
  4.72689E-01,	1.00000E+01,	-9.85613E-03,	1.88625E+02,	7.20996E+02,	-2.79771E+03,	0.00000E+00,	0,	0
  3.90625E-01,	1.00000E+01,	-9.85613E-03,	1.94669E+02,	8.37055E+02,	-3.32800E+03,	0.00000E+00,	0,	0
  3.21429E-01,	1.00000E+01,	-9.85613E-03,	2.01793E+02,	9.87027E+02,	-3.93742E+03,	0.00000E+00,	0,	0
  2.64085E-01,	1.00000E+01,	-9.85613E-03,	2.19275E+02,	1.18639E+03,	-4.61584E+03,	0.00000E+00,	0,	0
  2.18023E-01,	1.00000E+01,	-9.85613E-03,	2.29362E+02,	1.37303E+03,	-5.53287E+03,	0.00000E+00,	0,	0
  1.79426E-01,	1.00000E+01,	-9.85613E-03,	2.41421E+02,	1.67814E+03,	-6.51061E+03,	0.00000E+00,	0,	0
  1.47638E-01,	1.00000E+01,	-9.85613E-03,	2.55902E+02,	2.04062E+03,	-7.69659E+03,	0.00000E+00,	0,	0
  1.21753E-01,	1.00000E+01,	-9.85613E-03,	2.73292E+02,	2.49638E+03,	-9.07044E+03,	0.00000E+00,	0,	0
  1.00446E-01,	1.00000E+01,	-9.85613E-03,	2.94175E+02,	3.07864E+03,	-1.06666E+04,	0.00000E+00,	0,	0