Z60W Data File: Version 1.1
CorrTest for Windows: SN CS310H1805157  V5.2.1111.9  2.5H6.220118
Sweep Frequency: Control Voltage
  Date:4-27-2026   Time:17:32:32
  Begin Information:            Cell Information
      Surface Area:           1
      Density:                7.8
      Weight:                 28
  End Information:              Cell Information
  Freq (Hz)     Ampl(mV)       Bias(V)      Time(Sec)       Z'(Ohm.cm^2)    Z''(Ohm.cm^2)        GD       Err      Range
End Comments
  1.02857E+03,	1.00000E+01,	-2.39435E-02,	4.12606E-02,	4.11347E+03,	-2.45908E+02,	0.00000E+00,	0,	0
  8.30769E+02,	1.00000E+01,	-2.39435E-02,	4.27387E+00,	4.12788E+03,	-1.52375E+02,	0.00000E+00,	0,	0
  6.96774E+02,	1.00000E+01,	-2.39435E-02,	5.64687E+00,	4.13509E+03,	-1.42774E+02,	0.00000E+00,	0,	0
  5.68421E+02,	1.00000E+01,	-2.39435E-02,	7.00980E+00,	4.13764E+03,	-1.32761E+02,	0.00000E+00,	0,	0
  4.59574E+02,	1.00000E+01,	-2.39435E-02,	8.39116E+00,	4.14222E+03,	-1.27013E+02,	0.00000E+00,	0,	0
  3.78947E+02,	1.00000E+01,	-2.39435E-02,	9.82636E+00,	4.15094E+03,	-1.27660E+02,	0.00000E+00,	0,	0
  3.13043E+02,	1.00000E+01,	-2.39435E-02,	1.23490E+01,	4.15937E+03,	-1.29103E+02,	0.00000E+00,	0,	0
  2.54118E+02,	1.00000E+01,	-2.39435E-02,	1.50922E+01,	4.16823E+03,	-1.43632E+02,	0.00000E+00,	0,	0
  2.09709E+02,	1.00000E+01,	-2.39435E-02,	1.80878E+01,	4.17558E+03,	-1.52541E+02,	0.00000E+00,	0,	0
  1.71429E+02,	1.00000E+01,	-2.39435E-02,	2.34638E+01,	4.18358E+03,	-1.69683E+02,	0.00000E+00,	0,	0
  1.41176E+02,	1.00000E+01,	-2.39435E-02,	2.70542E+01,	4.19014E+03,	-1.88582E+02,	0.00000E+00,	0,	0
  1.16129E+02,	1.00000E+01,	-2.39435E-02,	3.09966E+01,	4.20888E+03,	-2.19651E+02,	0.00000E+00,	0,	0
  9.64286E+01,	1.00000E+01,	-2.39435E-02,	3.64085E+01,	4.22664E+03,	-2.53244E+02,	0.00000E+00,	0,	0
  7.94118E+01,	1.00000E+01,	-2.39435E-02,	4.11289E+01,	4.25379E+03,	-2.96556E+02,	0.00000E+00,	0,	0
  6.50602E+01,	1.00000E+01,	-2.39435E-02,	4.62293E+01,	4.30347E+03,	-3.53484E+02,	0.00000E+00,	0,	0
  5.29412E+01,	1.00000E+01,	-2.39435E-02,	5.17272E+01,	4.26370E+03,	-3.73455E+02,	0.00000E+00,	0,	0
  4.35484E+01,	1.00000E+01,	-2.39435E-02,	5.52481E+01,	4.28754E+03,	-4.34371E+02,	0.00000E+00,	0,	0
  3.57616E+01,	1.00000E+01,	-2.39435E-02,	5.89572E+01,	4.28916E+03,	-5.30039E+02,	0.00000E+00,	0,	0
  2.95082E+01,	1.00000E+01,	-2.39435E-02,	6.29033E+01,	4.34108E+03,	-6.08690E+02,	0.00000E+00,	0,	0
  2.42152E+01,	1.00000E+01,	-2.39435E-02,	6.68095E+01,	4.38846E+03,	-7.03724E+02,	0.00000E+00,	0,	0
  2.04545E+01,	1.00000E+01,	-2.39435E-02,	7.06040E+01,	4.43095E+03,	-8.01117E+02,	0.00000E+00,	0,	0
  1.66667E+01,	1.00000E+01,	-2.39435E-02,	7.41263E+01,	4.48739E+03,	-9.36362E+02,	0.00000E+00,	0,	0
  1.36364E+01,	1.00000E+01,	-2.39435E-02,	7.91482E+01,	4.55299E+03,	-1.09135E+03,	0.00000E+00,	0,	0
  1.12500E+01,	1.00000E+01,	-2.39435E-02,	8.26806E+01,	4.62381E+03,	-1.26397E+03,	0.00000E+00,	0,	0
  9.18367E+00,	1.00000E+01,	-2.39435E-02,	8.68172E+01,	4.70998E+03,	-1.48164E+03,	0.00000E+00,	0,	0
  7.50000E+00,	1.00000E+01,	-2.39435E-02,	8.91643E+01,	4.81059E+03,	-1.72023E+03,	0.00000E+00,	0,	0
  6.16438E+00,	1.00000E+01,	-2.39435E-02,	9.18264E+01,	4.91812E+03,	-1.99186E+03,	0.00000E+00,	0,	0
  5.05618E+00,	1.00000E+01,	-2.39435E-02,	9.49611E+01,	5.04506E+03,	-2.31409E+03,	0.00000E+00,	0,	0
  4.16667E+00,	1.00000E+01,	-2.39435E-02,	9.84822E+01,	5.18747E+03,	-2.67806E+03,	0.00000E+00,	0,	0
  3.40909E+00,	1.00000E+01,	-2.39435E-02,	1.02559E+02,	5.35402E+03,	-3.11593E+03,	0.00000E+00,	0,	0
  2.81250E+00,	1.00000E+01,	-2.39435E-02,	1.06321E+02,	5.53376E+03,	-3.60666E+03,	0.00000E+00,	0,	0
  2.30769E+00,	1.00000E+01,	-2.39435E-02,	1.10736E+02,	5.73937E+03,	-4.19539E+03,	0.00000E+00,	0,	0
  1.89076E+00,	1.00000E+01,	-2.39435E-02,	1.15857E+02,	5.97639E+03,	-4.89276E+03,	0.00000E+00,	0,	0
  1.56250E+00,	1.00000E+01,	-2.39435E-02,	1.19488E+02,	6.22659E+03,	-5.67130E+03,	0.00000E+00,	0,	0
  1.27841E+00,	1.00000E+01,	-2.39435E-02,	1.23695E+02,	6.52938E+03,	-6.63945E+03,	0.00000E+00,	0,	0
  1.05140E+00,	1.00000E+01,	-2.39435E-02,	1.28043E+02,	6.88619E+03,	-7.74856E+03,	0.00000E+00,	0,	0
  8.65385E-01,	1.00000E+01,	-2.39435E-02,	1.38480E+02,	7.24058E+03,	-9.04298E+03,	0.00000E+00,	0,	0
  7.12025E-01,	1.00000E+01,	-2.39435E-02,	1.42782E+02,	7.66617E+03,	-1.05442E+04,	0.00000E+00,	0,	0
  5.85938E-01,	1.00000E+01,	-2.39435E-02,	1.47324E+02,	8.00612E+03,	-1.25642E+04,	0.00000E+00,	0,	0
  4.80769E-01,	1.00000E+01,	-2.39435E-02,	1.52619E+02,	8.60520E+03,	-1.47453E+04,	0.00000E+00,	0,	0
  3.96127E-01,	1.00000E+01,	-2.39435E-02,	1.58569E+02,	9.44309E+03,	-1.76662E+04,	0.00000E+00,	0,	0
  3.25144E-01,	1.00000E+01,	-2.39435E-02,	1.65695E+02,	1.02503E+04,	-2.07149E+04,	0.00000E+00,	0,	0
  2.66588E-01,	1.00000E+01,	-2.39435E-02,	1.74102E+02,	1.11891E+04,	-2.44112E+04,	0.00000E+00,	0,	0
  2.19298E-01,	1.00000E+01,	-2.39435E-02,	1.84162E+02,	1.22786E+04,	-2.86801E+04,	0.00000E+00,	0,	0
  1.80288E-01,	1.00000E+01,	-2.39435E-02,	1.96175E+02,	1.35649E+04,	-3.37475E+04,	0.00000E+00,	0,	0
  1.48221E-01,	1.00000E+01,	-2.39435E-02,	2.10792E+02,	1.51006E+04,	-3.97293E+04,	0.00000E+00,	0,	0
  1.21753E-01,	1.00000E+01,	-2.39435E-02,	2.28159E+02,	1.69313E+04,	-4.69070E+04,	0.00000E+00,	0,	0
  1.00446E-01,	1.00000E+01,	-2.39435E-02,	2.49048E+02,	1.90912E+04,	-5.49907E+04,	0.00000E+00,	0,	0