Z60W Data File: Version 1.1
CorrTest for Windows: SN CS310H1805157  V5.2.1111.9  2.5H6.220118
Sweep Frequency: Control Voltage
  Date:4-27-2026   Time:12:21:41
  Begin Information:            Cell Information
      Surface Area:           1
      Density:                7.8
      Weight:                 28
  End Information:              Cell Information
  Freq (Hz)     Ampl(mV)       Bias(V)      Time(Sec)       Z'(Ohm.cm^2)    Z''(Ohm.cm^2)        GD       Err      Range
End Comments
  3.07200E+05,	1.00000E+01,	-1.76748E-02,	2.35895E-02,	1.17696E+01,	9.68532E+00,	0.00000E+00,	0,	0
  2.76480E+05,	1.00000E+01,	-1.76748E-02,	1.62486E+00,	1.20815E+01,	8.41082E+00,	0.00000E+00,	0,	0
  2.30400E+05,	1.00000E+01,	-1.76748E-02,	2.53471E+00,	1.22538E+01,	6.94908E+00,	0.00000E+00,	0,	0
  1.72800E+05,	1.00000E+01,	-1.76748E-02,	3.43599E+00,	1.24336E+01,	5.20285E+00,	0.00000E+00,	0,	0
  1.53600E+05,	1.00000E+01,	-1.76748E-02,	4.36896E+00,	1.24833E+01,	4.54990E+00,	0.00000E+00,	0,	0
  1.15200E+05,	1.00000E+01,	-1.76748E-02,	5.30659E+00,	1.25673E+01,	3.32104E+00,	0.00000E+00,	0,	0
  9.87429E+04,	1.00000E+01,	-1.76748E-02,	6.21629E+00,	1.26159E+01,	2.78828E+00,	0.00000E+00,	0,	0
  8.13176E+04,	1.00000E+01,	-1.76748E-02,	7.13079E+00,	1.26642E+01,	2.19876E+00,	0.00000E+00,	0,	0
  6.58286E+04,	1.00000E+01,	-1.76748E-02,	8.04461E+00,	1.27004E+01,	1.66172E+00,	0.00000E+00,	0,	0
  5.31692E+04,	1.00000E+01,	-1.76748E-02,	1.01769E+01,	1.27194E+01,	1.19217E+00,	0.00000E+00,	0,	0
  4.60800E+04,	1.00000E+01,	-1.76748E-02,	1.17571E+01,	1.27314E+01,	9.38152E-01,	0.00000E+00,	0,	0
  3.63789E+04,	1.00000E+01,	-1.76748E-02,	1.27193E+01,	1.27738E+01,	5.45828E-01,	0.00000E+00,	0,	0
  3.00522E+04,	1.00000E+01,	-1.76748E-02,	1.35706E+01,	1.27847E+01,	2.58843E-01,	0.00000E+00,	0,	0
  2.46857E+04,	1.00000E+01,	-1.76748E-02,	1.44626E+01,	1.28384E+01,	-1.35856E-02,	0.00000E+00,	0,	0
  2.03294E+04,	1.00000E+01,	-1.76748E-02,	1.54469E+01,	1.28626E+01,	-2.60319E-01,	0.00000E+00,	0,	0
  1.64571E+04,	1.00000E+01,	-1.76748E-02,	1.63689E+01,	1.29180E+01,	-5.34547E-01,	0.00000E+00,	0,	0
  1.35529E+04,	1.00000E+01,	-1.76748E-02,	1.72178E+01,	1.29642E+01,	-8.30466E-01,	0.00000E+00,	0,	0
  1.11484E+04,	1.00000E+01,	-1.76748E-02,	1.81260E+01,	1.30552E+01,	-1.10396E+00,	0.00000E+00,	0,	0
  9.60000E+03,	1.00000E+01,	-1.76748E-02,	2.09524E+01,	1.31371E+01,	-1.33183E+00,	0.00000E+00,	0,	0
  7.85455E+03,	1.00000E+01,	-1.76748E-02,	2.19225E+01,	1.32412E+01,	-1.67128E+00,	0.00000E+00,	0,	0
  6.40000E+03,	1.00000E+01,	-1.76748E-02,	2.28792E+01,	1.33660E+01,	-2.05728E+00,	0.00000E+00,	0,	0
  5.23636E+03,	1.00000E+01,	-1.76748E-02,	2.38839E+01,	1.35124E+01,	-2.49340E+00,	0.00000E+00,	0,	0
  4.32000E+03,	1.00000E+01,	-1.76748E-02,	2.47986E+01,	1.36806E+01,	-2.94612E+00,	0.00000E+00,	0,	0
  3.52653E+03,	1.00000E+01,	-1.76748E-02,	2.58187E+01,	1.38881E+01,	-3.48087E+00,	0.00000E+00,	0,	0
  2.88000E+03,	1.00000E+01,	-1.76748E-02,	2.67170E+01,	1.41453E+01,	-4.10843E+00,	0.00000E+00,	0,	0
  2.36712E+03,	1.00000E+01,	-1.76748E-02,	2.77188E+01,	1.44012E+01,	-4.78244E+00,	0.00000E+00,	0,	0
  1.96364E+03,	1.00000E+01,	-1.76748E-02,	2.85092E+01,	1.47179E+01,	-5.54391E+00,	0.00000E+00,	0,	0
  1.61495E+03,	1.00000E+01,	-1.76748E-02,	2.94694E+01,	1.50365E+01,	-6.40902E+00,	0.00000E+00,	0,	0
  1.32923E+03,	1.00000E+01,	-1.76748E-02,	3.04500E+01,	1.54800E+01,	-7.43134E+00,	0.00000E+00,	0,	0
  1.09367E+03,	1.00000E+01,	-1.76748E-02,	3.15341E+01,	1.59566E+01,	-8.62144E+00,	0.00000E+00,	0,	0
  9.00000E+02,	1.00000E+01,	-1.76748E-02,	3.65338E+01,	1.65312E+01,	-1.00165E+01,	0.00000E+00,	0,	0
  7.44828E+02,	1.00000E+01,	-1.76748E-02,	3.78965E+01,	1.70910E+01,	-1.15564E+01,	0.00000E+00,	0,	0
  6.17143E+02,	1.00000E+01,	-1.76748E-02,	3.92614E+01,	1.77192E+01,	-1.33322E+01,	0.00000E+00,	0,	0
  5.14286E+02,	1.00000E+01,	-1.76748E-02,	4.06559E+01,	1.83964E+01,	-1.53267E+01,	0.00000E+00,	0,	0
  4.15385E+02,	1.00000E+01,	-1.76748E-02,	4.20242E+01,	1.92783E+01,	-1.80862E+01,	0.00000E+00,	0,	0
  3.42857E+02,	1.00000E+01,	-1.76748E-02,	4.44280E+01,	2.01755E+01,	-2.10156E+01,	0.00000E+00,	0,	0
  2.84211E+02,	1.00000E+01,	-1.76748E-02,	4.71356E+01,	2.11535E+01,	-2.43794E+01,	0.00000E+00,	0,	0
  2.32258E+02,	1.00000E+01,	-1.76748E-02,	4.99735E+01,	2.23468E+01,	-2.86627E+01,	0.00000E+00,	0,	0
  1.91150E+02,	1.00000E+01,	-1.76748E-02,	5.30964E+01,	2.36558E+01,	-3.35544E+01,	0.00000E+00,	0,	0
  1.57664E+02,	1.00000E+01,	-1.76748E-02,	5.65555E+01,	2.51365E+01,	-3.92906E+01,	0.00000E+00,	0,	0
  1.30120E+02,	1.00000E+01,	-1.76748E-02,	6.02926E+01,	2.68414E+01,	-4.60561E+01,	0.00000E+00,	0,	0
  1.06931E+02,	1.00000E+01,	-1.76748E-02,	6.44378E+01,	2.88338E+01,	-5.42643E+01,	0.00000E+00,	0,	0
  8.85246E+01,	1.00000E+01,	-1.76748E-02,	7.00424E+01,	3.10719E+01,	-6.37033E+01,	0.00000E+00,	0,	0
  7.29730E+01,	1.00000E+01,	-1.76748E-02,	7.48689E+01,	3.37850E+01,	-7.52875E+01,	0.00000E+00,	0,	0
  6.00000E+01,	1.00000E+01,	-1.76748E-02,	8.01178E+01,	3.71954E+01,	-8.77739E+01,	0.00000E+00,	0,	0
  4.95413E+01,	1.00000E+01,	-1.76748E-02,	8.58525E+01,	4.10424E+01,	-1.03250E+02,	0.00000E+00,	0,	0
  4.06015E+01,	1.00000E+01,	-1.76748E-02,	8.94915E+01,	4.58070E+01,	-1.22310E+02,	0.00000E+00,	0,	0
  3.35404E+01,	1.00000E+01,	-1.76748E-02,	9.32528E+01,	5.04433E+01,	-1.43749E+02,	0.00000E+00,	0,	0
  2.75510E+01,	1.00000E+01,	-1.76748E-02,	9.70708E+01,	5.75750E+01,	-1.70463E+02,	0.00000E+00,	0,	0
  2.26891E+01,	1.00000E+01,	-1.76748E-02,	1.00007E+02,	6.59852E+01,	-2.01175E+02,	0.00000E+00,	0,	0
  1.87500E+01,	1.00000E+01,	-1.76748E-02,	1.03693E+02,	7.60359E+01,	-2.36595E+02,	0.00000E+00,	0,	0
  1.55172E+01,	1.00000E+01,	-1.76748E-02,	1.09211E+02,	8.79780E+01,	-2.77671E+02,	0.00000E+00,	0,	0
  1.28571E+01,	1.00000E+01,	-1.76748E-02,	1.13866E+02,	1.02504E+02,	-3.25204E+02,	0.00000E+00,	0,	0
  1.04651E+01,	1.00000E+01,	-1.76748E-02,	1.16607E+02,	1.21802E+02,	-3.86134E+02,	0.00000E+00,	0,	0
  8.65385E+00,	1.00000E+01,	-1.76748E-02,	1.22441E+02,	1.43962E+02,	-4.52311E+02,	0.00000E+00,	0,	0
  7.14286E+00,	1.00000E+01,	-1.76748E-02,	1.24858E+02,	1.71143E+02,	-5.29367E+02,	0.00000E+00,	0,	0
  5.84416E+00,	1.00000E+01,	-1.76748E-02,	1.27583E+02,	2.05353E+02,	-6.22120E+02,	0.00000E+00,	0,	0
  4.83871E+00,	1.00000E+01,	-1.76748E-02,	1.30720E+02,	2.44125E+02,	-7.22644E+02,	0.00000E+00,	0,	0
  3.98230E+00,	1.00000E+01,	-1.76748E-02,	1.34359E+02,	2.91766E+02,	-8.41454E+02,	0.00000E+00,	0,	0
  3.28467E+00,	1.00000E+01,	-1.76748E-02,	1.38545E+02,	3.47291E+02,	-9.76018E+02,	0.00000E+00,	0,	0
  2.69461E+00,	1.00000E+01,	-1.76748E-02,	1.42426E+02,	4.13772E+02,	-1.13338E+03,	0.00000E+00,	0,	0
  2.22772E+00,	1.00000E+01,	-1.76748E-02,	1.46923E+02,	4.86548E+02,	-1.30610E+03,	0.00000E+00,	0,	0
  1.82927E+00,	1.00000E+01,	-1.76748E-02,	1.52236E+02,	5.71479E+02,	-1.51071E+03,	0.00000E+00,	0,	0
  1.51007E+00,	1.00000E+01,	-1.76748E-02,	1.59174E+02,	6.62669E+02,	-1.73879E+03,	0.00000E+00,	0,	0
  1.24309E+00,	1.00000E+01,	-1.76748E-02,	1.63513E+02,	7.65380E+02,	-2.00641E+03,	0.00000E+00,	0,	0
  1.02273E+00,	1.00000E+01,	-1.76748E-02,	1.67943E+02,	8.79431E+02,	-2.32251E+03,	0.00000E+00,	0,	0
  8.45865E-01,	1.00000E+01,	-1.76748E-02,	1.74816E+02,	9.96782E+02,	-2.67635E+03,	0.00000E+00,	0,	0
  6.94444E-01,	1.00000E+01,	-1.76748E-02,	1.79180E+02,	1.13359E+03,	-3.11206E+03,	0.00000E+00,	0,	0
  5.73980E-01,	1.00000E+01,	-1.76748E-02,	1.83725E+02,	1.23762E+03,	-3.62812E+03,	0.00000E+00,	0,	0
  4.72689E-01,	1.00000E+01,	-1.76748E-02,	1.89113E+02,	1.40176E+03,	-4.23538E+03,	0.00000E+00,	0,	0
  3.90625E-01,	1.00000E+01,	-1.76748E-02,	1.95177E+02,	1.58422E+03,	-5.01020E+03,	0.00000E+00,	0,	0
  3.21429E-01,	1.00000E+01,	-1.76748E-02,	2.02379E+02,	1.79800E+03,	-5.86981E+03,	0.00000E+00,	0,	0
  2.64085E-01,	1.00000E+01,	-1.76748E-02,	2.11042E+02,	2.04036E+03,	-6.90545E+03,	0.00000E+00,	0,	0
  2.18023E-01,	1.00000E+01,	-1.76748E-02,	2.21175E+02,	2.30955E+03,	-8.11289E+03,	0.00000E+00,	0,	0
  1.79426E-01,	1.00000E+01,	-1.76748E-02,	2.33258E+02,	2.63462E+03,	-9.54335E+03,	0.00000E+00,	0,	0
  1.47638E-01,	1.00000E+01,	-1.76748E-02,	2.47722E+02,	3.01054E+03,	-1.12502E+04,	0.00000E+00,	0,	0
  1.21753E-01,	1.00000E+01,	-1.76748E-02,	2.65125E+02,	3.44564E+03,	-1.32513E+04,	0.00000E+00,	0,	0
  1.00446E-01,	1.00000E+01,	-1.76748E-02,	2.86052E+02,	3.95181E+03,	-1.56203E+04,	0.00000E+00,	0,	0