Z60W Data File: Version 1.1
CorrTest for Windows: SN CS310H1805157  V5.2.1111.9  2.5H6.220118
Sweep Frequency: Control Voltage
  Date:4-27-2026   Time:10:25:21
  Begin Information:            Cell Information
      Surface Area:           1
      Density:                7.8
      Weight:                 28
  End Information:              Cell Information
  Freq (Hz)     Ampl(mV)       Bias(V)      Time(Sec)       Z'(Ohm.cm^2)    Z''(Ohm.cm^2)        GD       Err      Range
End Comments
  3.07200E+05,	1.00000E+01,	-1.70983E-02,	3.66819E-02,	7.21709E+00,	7.39749E+00,	0.00000E+00,	0,	0
  2.76480E+05,	1.00000E+01,	-1.70983E-02,	1.64128E+00,	7.57572E+00,	6.29502E+00,	0.00000E+00,	0,	0
  2.30400E+05,	1.00000E+01,	-1.70983E-02,	2.58437E+00,	7.88977E+00,	5.30447E+00,	0.00000E+00,	0,	0
  1.72800E+05,	1.00000E+01,	-1.70983E-02,	3.48295E+00,	8.18323E+00,	3.90858E+00,	0.00000E+00,	0,	0
  1.53600E+05,	1.00000E+01,	-1.70983E-02,	4.38916E+00,	8.25166E+00,	3.44131E+00,	0.00000E+00,	0,	0
  1.15200E+05,	1.00000E+01,	-1.70983E-02,	5.31187E+00,	8.40332E+00,	2.48448E+00,	0.00000E+00,	0,	0
  9.87429E+04,	1.00000E+01,	-1.70983E-02,	6.19803E+00,	8.45971E+00,	2.08476E+00,	0.00000E+00,	0,	0
  8.13176E+04,	1.00000E+01,	-1.70983E-02,	7.10517E+00,	8.51723E+00,	1.63401E+00,	0.00000E+00,	0,	0
  6.58286E+04,	1.00000E+01,	-1.70983E-02,	7.99586E+00,	8.55829E+00,	1.24277E+00,	0.00000E+00,	0,	0
  5.31692E+04,	1.00000E+01,	-1.70983E-02,	1.01098E+01,	8.57477E+00,	8.47500E-01,	0.00000E+00,	0,	0
  4.60800E+04,	1.00000E+01,	-1.70983E-02,	1.16689E+01,	8.59473E+00,	6.37479E-01,	0.00000E+00,	0,	0
  3.63789E+04,	1.00000E+01,	-1.70983E-02,	1.25937E+01,	8.63287E+00,	3.39274E-01,	0.00000E+00,	0,	0
  3.00522E+04,	1.00000E+01,	-1.70983E-02,	1.34632E+01,	8.65816E+00,	1.14849E-01,	0.00000E+00,	0,	0
  2.46857E+04,	1.00000E+01,	-1.70983E-02,	1.43667E+01,	8.68326E+00,	-1.20760E-01,	0.00000E+00,	0,	0
  2.03294E+04,	1.00000E+01,	-1.70983E-02,	1.53273E+01,	8.73209E+00,	-3.31181E-01,	0.00000E+00,	0,	0
  1.64571E+04,	1.00000E+01,	-1.70983E-02,	1.62343E+01,	8.77420E+00,	-5.69189E-01,	0.00000E+00,	0,	0
  1.35529E+04,	1.00000E+01,	-1.70983E-02,	1.70672E+01,	8.82016E+00,	-8.04555E-01,	0.00000E+00,	0,	0
  1.11484E+04,	1.00000E+01,	-1.70983E-02,	1.79945E+01,	8.90168E+00,	-1.05081E+00,	0.00000E+00,	0,	0
  9.60000E+03,	1.00000E+01,	-1.70983E-02,	1.97061E+01,	8.96489E+00,	-1.24727E+00,	0.00000E+00,	0,	0
  7.85455E+03,	1.00000E+01,	-1.70983E-02,	2.06686E+01,	9.05659E+00,	-1.54051E+00,	0.00000E+00,	0,	0
  6.40000E+03,	1.00000E+01,	-1.70983E-02,	2.16350E+01,	9.17248E+00,	-1.86878E+00,	0.00000E+00,	0,	0
  5.23636E+03,	1.00000E+01,	-1.70983E-02,	2.25929E+01,	9.31666E+00,	-2.22838E+00,	0.00000E+00,	0,	0
  4.32000E+03,	1.00000E+01,	-1.70983E-02,	2.34834E+01,	9.47220E+00,	-2.62208E+00,	0.00000E+00,	0,	0
  3.52653E+03,	1.00000E+01,	-1.70983E-02,	2.45056E+01,	9.65627E+00,	-3.09752E+00,	0.00000E+00,	0,	0
  2.88000E+03,	1.00000E+01,	-1.70983E-02,	2.54346E+01,	9.88633E+00,	-3.63295E+00,	0.00000E+00,	0,	0
  2.36712E+03,	1.00000E+01,	-1.70983E-02,	2.64494E+01,	1.01206E+01,	-4.21906E+00,	0.00000E+00,	0,	0
  1.96364E+03,	1.00000E+01,	-1.70983E-02,	2.72109E+01,	1.03953E+01,	-4.88894E+00,	0.00000E+00,	0,	0
  1.61495E+03,	1.00000E+01,	-1.70983E-02,	2.92123E+01,	1.06708E+01,	-5.68429E+00,	0.00000E+00,	0,	0
  1.32923E+03,	1.00000E+01,	-1.70983E-02,	3.01481E+01,	1.10466E+01,	-6.56009E+00,	0.00000E+00,	0,	0
  1.09367E+03,	1.00000E+01,	-1.70983E-02,	3.11976E+01,	1.14371E+01,	-7.61398E+00,	0.00000E+00,	0,	0
  9.00000E+02,	1.00000E+01,	-1.70983E-02,	3.61930E+01,	1.18882E+01,	-8.84043E+00,	0.00000E+00,	0,	0
  7.44828E+02,	1.00000E+01,	-1.70983E-02,	3.76099E+01,	1.23537E+01,	-1.02208E+01,	0.00000E+00,	0,	0
  6.17143E+02,	1.00000E+01,	-1.70983E-02,	3.89843E+01,	1.28704E+01,	-1.18240E+01,	0.00000E+00,	0,	0
  5.14286E+02,	1.00000E+01,	-1.70983E-02,	4.03522E+01,	1.34272E+01,	-1.36372E+01,	0.00000E+00,	0,	0
  4.15385E+02,	1.00000E+01,	-1.70983E-02,	4.17190E+01,	1.41605E+01,	-1.61520E+01,	0.00000E+00,	0,	0
  3.42857E+02,	1.00000E+01,	-1.70983E-02,	4.41141E+01,	1.49081E+01,	-1.88294E+01,	0.00000E+00,	0,	0
  2.84211E+02,	1.00000E+01,	-1.70983E-02,	4.67975E+01,	1.57390E+01,	-2.19190E+01,	0.00000E+00,	0,	0
  2.32258E+02,	1.00000E+01,	-1.70983E-02,	4.96533E+01,	1.67679E+01,	-2.58707E+01,	0.00000E+00,	0,	0
  1.91150E+02,	1.00000E+01,	-1.70983E-02,	5.27844E+01,	1.79042E+01,	-3.03811E+01,	0.00000E+00,	0,	0
  1.57664E+02,	1.00000E+01,	-1.70983E-02,	5.62504E+01,	1.92008E+01,	-3.56682E+01,	0.00000E+00,	0,	0
  1.30120E+02,	1.00000E+01,	-1.70983E-02,	6.00058E+01,	2.07167E+01,	-4.19203E+01,	0.00000E+00,	0,	0
  1.06931E+02,	1.00000E+01,	-1.70983E-02,	6.40922E+01,	2.25172E+01,	-4.95003E+01,	0.00000E+00,	0,	0
  8.85246E+01,	1.00000E+01,	-1.70983E-02,	6.97011E+01,	2.45597E+01,	-5.82014E+01,	0.00000E+00,	0,	0
  7.29730E+01,	1.00000E+01,	-1.70983E-02,	7.45819E+01,	2.70603E+01,	-6.88751E+01,	0.00000E+00,	0,	0
  6.00000E+01,	1.00000E+01,	-1.70983E-02,	7.98608E+01,	3.02959E+01,	-8.04211E+01,	0.00000E+00,	0,	0
  4.95413E+01,	1.00000E+01,	-1.70983E-02,	8.56092E+01,	3.39312E+01,	-9.46769E+01,	0.00000E+00,	0,	0
  4.06015E+01,	1.00000E+01,	-1.70983E-02,	8.92055E+01,	3.85264E+01,	-1.12157E+02,	0.00000E+00,	0,	0
  3.35404E+01,	1.00000E+01,	-1.70983E-02,	9.29596E+01,	4.30627E+01,	-1.31772E+02,	0.00000E+00,	0,	0
  2.75510E+01,	1.00000E+01,	-1.70983E-02,	9.67888E+01,	5.00069E+01,	-1.56164E+02,	0.00000E+00,	0,	0
  2.26891E+01,	1.00000E+01,	-1.70983E-02,	9.97444E+01,	5.82541E+01,	-1.84112E+02,	0.00000E+00,	0,	0
  1.87500E+01,	1.00000E+01,	-1.70983E-02,	1.03432E+02,	6.81185E+01,	-2.16189E+02,	0.00000E+00,	0,	0
  1.55172E+01,	1.00000E+01,	-1.70983E-02,	1.09014E+02,	7.99352E+01,	-2.53181E+02,	0.00000E+00,	0,	0
  1.28571E+01,	1.00000E+01,	-1.70983E-02,	1.13646E+02,	9.43466E+01,	-2.95731E+02,	0.00000E+00,	0,	0
  1.04651E+01,	1.00000E+01,	-1.70983E-02,	1.16345E+02,	1.13255E+02,	-3.49789E+02,	0.00000E+00,	0,	0
  8.65385E+00,	1.00000E+01,	-1.70983E-02,	1.22166E+02,	1.35010E+02,	-4.08410E+02,	0.00000E+00,	0,	0
  7.14286E+00,	1.00000E+01,	-1.70983E-02,	1.24585E+02,	1.61030E+02,	-4.75482E+02,	0.00000E+00,	0,	0
  5.84416E+00,	1.00000E+01,	-1.70983E-02,	1.27349E+02,	1.93543E+02,	-5.56080E+02,	0.00000E+00,	0,	0
  4.83871E+00,	1.00000E+01,	-1.70983E-02,	1.30470E+02,	2.29436E+02,	-6.42790E+02,	0.00000E+00,	0,	0
  3.98230E+00,	1.00000E+01,	-1.70983E-02,	1.34108E+02,	2.72417E+02,	-7.44847E+02,	0.00000E+00,	0,	0
  3.28467E+00,	1.00000E+01,	-1.70983E-02,	1.38286E+02,	3.20903E+02,	-8.59874E+02,	0.00000E+00,	0,	0
  2.69461E+00,	1.00000E+01,	-1.70983E-02,	1.42184E+02,	3.76998E+02,	-9.94854E+02,	0.00000E+00,	0,	0
  2.22772E+00,	1.00000E+01,	-1.70983E-02,	1.46718E+02,	4.36594E+02,	-1.14443E+03,	0.00000E+00,	0,	0
  1.82927E+00,	1.00000E+01,	-1.70983E-02,	1.52052E+02,	5.04340E+02,	-1.32395E+03,	0.00000E+00,	0,	0
  1.51007E+00,	1.00000E+01,	-1.70983E-02,	1.59004E+02,	5.76124E+02,	-1.52661E+03,	0.00000E+00,	0,	0
  1.24309E+00,	1.00000E+01,	-1.70983E-02,	1.63315E+02,	6.56364E+02,	-1.76782E+03,	0.00000E+00,	0,	0
  1.02273E+00,	1.00000E+01,	-1.70983E-02,	1.67783E+02,	7.45691E+02,	-2.05550E+03,	0.00000E+00,	0,	0
  8.45865E-01,	1.00000E+01,	-1.70983E-02,	1.74629E+02,	8.38857E+02,	-2.38086E+03,	0.00000E+00,	0,	0
  6.94444E-01,	1.00000E+01,	-1.70983E-02,	1.79004E+02,	9.49085E+02,	-2.78474E+03,	0.00000E+00,	0,	0
  5.73980E-01,	1.00000E+01,	-1.70983E-02,	1.83586E+02,	1.03725E+03,	-3.25940E+03,	0.00000E+00,	0,	0
  4.72689E-01,	1.00000E+01,	-1.70983E-02,	1.88930E+02,	1.17461E+03,	-3.82352E+03,	0.00000E+00,	0,	0
  3.90625E-01,	1.00000E+01,	-1.70983E-02,	1.94940E+02,	1.32896E+03,	-4.53533E+03,	0.00000E+00,	0,	0
  3.21429E-01,	1.00000E+01,	-1.70983E-02,	2.02066E+02,	1.51682E+03,	-5.33487E+03,	0.00000E+00,	0,	0
  2.64085E-01,	1.00000E+01,	-1.70983E-02,	2.10729E+02,	1.73134E+03,	-6.29470E+03,	0.00000E+00,	0,	0
  2.18023E-01,	1.00000E+01,	-1.70983E-02,	2.20826E+02,	1.97294E+03,	-7.41446E+03,	0.00000E+00,	0,	0
  1.79426E-01,	1.00000E+01,	-1.70983E-02,	2.32904E+02,	2.27135E+03,	-8.74226E+03,	0.00000E+00,	0,	0
  1.47638E-01,	1.00000E+01,	-1.70983E-02,	2.47373E+02,	2.61768E+03,	-1.03266E+04,	0.00000E+00,	0,	0
  1.21753E-01,	1.00000E+01,	-1.70983E-02,	2.64745E+02,	3.02423E+03,	-1.21841E+04,	0.00000E+00,	0,	0
  1.00446E-01,	1.00000E+01,	-1.70983E-02,	2.85615E+02,	3.51133E+03,	-1.43806E+04,	0.00000E+00,	0,	0