Z60W Data File: Version 1.1
CorrTest for Windows: SN CS310H1805157  V5.2.1111.9  2.5H6.220118
Sweep Frequency: Control Voltage
  Date:4-26-2026   Time:22:02:26
  Begin Information:            Cell Information
      Surface Area:           1
      Density:                7.8
      Weight:                 28
  End Information:              Cell Information
  Freq (Hz)     Ampl(mV)       Bias(V)      Time(Sec)       Z'(Ohm.cm^2)    Z''(Ohm.cm^2)        GD       Err      Range
End Comments
  3.07200E+05,	1.00000E+01,	-8.28708E-03,	2.20668E-02,	1.38653E+00,	4.34051E+00,	0.00000E+00,	0,	0
  2.76480E+05,	1.00000E+01,	-8.28708E-03,	1.63868E+00,	1.90101E+00,	3.57383E+00,	0.00000E+00,	0,	0
  2.30400E+05,	1.00000E+01,	-8.28708E-03,	2.52795E+00,	2.32914E+00,	2.97872E+00,	0.00000E+00,	0,	0
  1.72800E+05,	1.00000E+01,	-8.28708E-03,	3.42862E+00,	2.71865E+00,	2.22121E+00,	0.00000E+00,	0,	0
  1.53600E+05,	1.00000E+01,	-8.28708E-03,	4.37364E+00,	2.83353E+00,	1.94209E+00,	0.00000E+00,	0,	0
  1.15200E+05,	1.00000E+01,	-8.28708E-03,	5.29295E+00,	3.01766E+00,	1.39175E+00,	0.00000E+00,	0,	0
  9.87429E+04,	1.00000E+01,	-8.28708E-03,	6.23959E+00,	3.10019E+00,	1.15442E+00,	0.00000E+00,	0,	0
  8.13176E+04,	1.00000E+01,	-8.28708E-03,	7.14674E+00,	3.16326E+00,	9.01373E-01,	0.00000E+00,	0,	0
  6.58286E+04,	1.00000E+01,	-8.28708E-03,	8.07171E+00,	3.19949E+00,	6.61171E-01,	0.00000E+00,	0,	0
  5.31692E+04,	1.00000E+01,	-8.28708E-03,	1.13315E+01,	3.26286E+00,	3.99636E-01,	0.00000E+00,	0,	0
  4.60800E+04,	1.00000E+01,	-8.28708E-03,	1.28958E+01,	3.28336E+00,	2.78450E-01,	0.00000E+00,	0,	0
  3.63789E+04,	1.00000E+01,	-8.28708E-03,	1.38313E+01,	3.30613E+00,	9.17821E-02,	0.00000E+00,	0,	0
  3.00522E+04,	1.00000E+01,	-8.28708E-03,	1.46962E+01,	3.32854E+00,	-4.65063E-02,	0.00000E+00,	0,	0
  2.46857E+04,	1.00000E+01,	-8.28708E-03,	1.55510E+01,	3.35570E+00,	-1.83868E-01,	0.00000E+00,	0,	0
  2.03294E+04,	1.00000E+01,	-8.28708E-03,	1.64959E+01,	3.39159E+00,	-3.24918E-01,	0.00000E+00,	0,	0
  1.64571E+04,	1.00000E+01,	-8.28708E-03,	1.74235E+01,	3.42981E+00,	-4.76496E-01,	0.00000E+00,	0,	0
  1.35529E+04,	1.00000E+01,	-8.28708E-03,	1.82343E+01,	3.47844E+00,	-6.21382E-01,	0.00000E+00,	0,	0
  1.11484E+04,	1.00000E+01,	-8.28708E-03,	1.91355E+01,	3.52980E+00,	-7.83084E-01,	0.00000E+00,	0,	0
  9.60000E+03,	1.00000E+01,	-8.28708E-03,	2.19247E+01,	3.52024E+00,	-8.95463E-01,	0.00000E+00,	0,	0
  7.85455E+03,	1.00000E+01,	-8.28708E-03,	2.28783E+01,	3.59157E+00,	-1.08933E+00,	0.00000E+00,	0,	0
  6.40000E+03,	1.00000E+01,	-8.28708E-03,	2.38280E+01,	3.67098E+00,	-1.30326E+00,	0.00000E+00,	0,	0
  5.23636E+03,	1.00000E+01,	-8.28708E-03,	2.47692E+01,	3.76471E+00,	-1.54116E+00,	0.00000E+00,	0,	0
  4.32000E+03,	1.00000E+01,	-8.28708E-03,	2.57100E+01,	3.86174E+00,	-1.79679E+00,	0.00000E+00,	0,	0
  3.52653E+03,	1.00000E+01,	-8.28708E-03,	2.67307E+01,	3.98167E+00,	-2.11262E+00,	0.00000E+00,	0,	0
  2.88000E+03,	1.00000E+01,	-8.28708E-03,	2.76390E+01,	4.10562E+00,	-2.47307E+00,	0.00000E+00,	0,	0
  2.36712E+03,	1.00000E+01,	-8.28708E-03,	2.86591E+01,	4.23671E+00,	-2.88030E+00,	0.00000E+00,	0,	0
  1.96364E+03,	1.00000E+01,	-8.28708E-03,	2.93975E+01,	4.39361E+00,	-3.33611E+00,	0.00000E+00,	0,	0
  1.61495E+03,	1.00000E+01,	-8.28708E-03,	3.02911E+01,	4.56904E+00,	-3.88943E+00,	0.00000E+00,	0,	0
  1.32923E+03,	1.00000E+01,	-8.28708E-03,	3.12783E+01,	4.76394E+00,	-4.54555E+00,	0.00000E+00,	0,	0
  1.09367E+03,	1.00000E+01,	-8.28708E-03,	3.23357E+01,	4.98851E+00,	-5.30184E+00,	0.00000E+00,	0,	0
  9.00000E+02,	1.00000E+01,	-8.28708E-03,	3.73169E+01,	5.24452E+00,	-6.22212E+00,	0.00000E+00,	0,	0
  7.44828E+02,	1.00000E+01,	-8.28708E-03,	3.86671E+01,	5.52216E+00,	-7.25669E+00,	0.00000E+00,	0,	0
  6.17143E+02,	1.00000E+01,	-8.28708E-03,	4.00359E+01,	5.83224E+00,	-8.47196E+00,	0.00000E+00,	0,	0
  5.14286E+02,	1.00000E+01,	-8.28708E-03,	4.14170E+01,	6.18155E+00,	-9.85262E+00,	0.00000E+00,	0,	0
  4.15385E+02,	1.00000E+01,	-8.28708E-03,	4.27904E+01,	6.65539E+00,	-1.17754E+01,	0.00000E+00,	0,	0
  3.42857E+02,	1.00000E+01,	-8.28708E-03,	4.51953E+01,	7.15995E+00,	-1.38387E+01,	0.00000E+00,	0,	0
  2.84211E+02,	1.00000E+01,	-8.28708E-03,	4.96049E+01,	7.75296E+00,	-1.62507E+01,	0.00000E+00,	0,	0
  2.32258E+02,	1.00000E+01,	-8.28708E-03,	5.24650E+01,	8.48948E+00,	-1.92903E+01,	0.00000E+00,	0,	0
  1.91150E+02,	1.00000E+01,	-8.28708E-03,	5.56005E+01,	9.34509E+00,	-2.27655E+01,	0.00000E+00,	0,	0
  1.57664E+02,	1.00000E+01,	-8.28708E-03,	5.90355E+01,	1.03507E+01,	-2.68303E+01,	0.00000E+00,	0,	0
  1.30120E+02,	1.00000E+01,	-8.28708E-03,	6.27788E+01,	1.15648E+01,	-3.16229E+01,	0.00000E+00,	0,	0
  1.06931E+02,	1.00000E+01,	-8.28708E-03,	6.68884E+01,	1.30554E+01,	-3.73952E+01,	0.00000E+00,	0,	0
  8.85246E+01,	1.00000E+01,	-8.28708E-03,	7.24994E+01,	1.47892E+01,	-4.39918E+01,	0.00000E+00,	0,	0
  7.29730E+01,	1.00000E+01,	-8.28708E-03,	7.73714E+01,	1.69624E+01,	-5.20272E+01,	0.00000E+00,	0,	0
  6.00000E+01,	1.00000E+01,	-8.28708E-03,	8.26217E+01,	1.98468E+01,	-6.06547E+01,	0.00000E+00,	0,	0
  4.95413E+01,	1.00000E+01,	-8.28708E-03,	8.83948E+01,	2.31420E+01,	-7.11871E+01,	0.00000E+00,	0,	0
  4.06015E+01,	1.00000E+01,	-8.28708E-03,	9.20033E+01,	2.73250E+01,	-8.39474E+01,	0.00000E+00,	0,	0
  3.35404E+01,	1.00000E+01,	-8.28708E-03,	9.57729E+01,	3.16440E+01,	-9.80506E+01,	0.00000E+00,	0,	0
  2.75510E+01,	1.00000E+01,	-8.28708E-03,	9.95979E+01,	3.79466E+01,	-1.15337E+02,	0.00000E+00,	0,	0
  2.26891E+01,	1.00000E+01,	-8.28708E-03,	1.02548E+02,	4.53697E+01,	-1.34762E+02,	0.00000E+00,	0,	0
  1.87500E+01,	1.00000E+01,	-8.28708E-03,	1.06269E+02,	5.40880E+01,	-1.56651E+02,	0.00000E+00,	0,	0
  1.55172E+01,	1.00000E+01,	-8.28708E-03,	1.11784E+02,	6.41662E+01,	-1.81365E+02,	0.00000E+00,	0,	0
  1.28571E+01,	1.00000E+01,	-8.28708E-03,	1.16477E+02,	7.58661E+01,	-2.09249E+02,	0.00000E+00,	0,	0
  1.04651E+01,	1.00000E+01,	-8.28708E-03,	1.19232E+02,	9.04372E+01,	-2.44157E+02,	0.00000E+00,	0,	0
  8.65385E+00,	1.00000E+01,	-8.28708E-03,	1.25047E+02,	1.05925E+02,	-2.81658E+02,	0.00000E+00,	0,	0
  7.14286E+00,	1.00000E+01,	-8.28708E-03,	1.27492E+02,	1.23284E+02,	-3.24677E+02,	0.00000E+00,	0,	0
  5.84416E+00,	1.00000E+01,	-8.28708E-03,	1.30230E+02,	1.43135E+02,	-3.76509E+02,	0.00000E+00,	0,	0
  4.83871E+00,	1.00000E+01,	-8.28708E-03,	1.33339E+02,	1.63585E+02,	-4.33349E+02,	0.00000E+00,	0,	0
  3.98230E+00,	1.00000E+01,	-8.28708E-03,	1.36932E+02,	1.86720E+02,	-5.02083E+02,	0.00000E+00,	0,	0
  3.28467E+00,	1.00000E+01,	-8.28708E-03,	1.41091E+02,	2.11852E+02,	-5.81914E+02,	0.00000E+00,	0,	0
  2.69461E+00,	1.00000E+01,	-8.28708E-03,	1.45035E+02,	2.40379E+02,	-6.78789E+02,	0.00000E+00,	0,	0
  2.22772E+00,	1.00000E+01,	-8.28708E-03,	1.49551E+02,	2.70776E+02,	-7.89161E+02,	0.00000E+00,	0,	0
  1.82927E+00,	1.00000E+01,	-8.28708E-03,	1.54849E+02,	3.06183E+02,	-9.24711E+02,	0.00000E+00,	0,	0
  1.51007E+00,	1.00000E+01,	-8.28708E-03,	1.58664E+02,	3.45603E+02,	-1.08150E+03,	0.00000E+00,	0,	0
  1.24309E+00,	1.00000E+01,	-8.28708E-03,	1.62985E+02,	3.91436E+02,	-1.27013E+03,	0.00000E+00,	0,	0
  1.02273E+00,	1.00000E+01,	-8.28708E-03,	1.67428E+02,	4.45254E+02,	-1.49593E+03,	0.00000E+00,	0,	0
  8.45865E-01,	1.00000E+01,	-8.28708E-03,	1.74227E+02,	5.05631E+02,	-1.75364E+03,	0.00000E+00,	0,	0
  6.94444E-01,	1.00000E+01,	-8.28708E-03,	1.78620E+02,	5.80165E+02,	-2.07253E+03,	0.00000E+00,	0,	0
  5.73980E-01,	1.00000E+01,	-8.28708E-03,	1.83166E+02,	6.47260E+02,	-2.44233E+03,	0.00000E+00,	0,	0
  4.72689E-01,	1.00000E+01,	-8.28708E-03,	1.88502E+02,	7.48288E+02,	-2.88588E+03,	0.00000E+00,	0,	0
  3.90625E-01,	1.00000E+01,	-8.28708E-03,	1.94559E+02,	8.65142E+02,	-3.43252E+03,	0.00000E+00,	0,	0
  3.21429E-01,	1.00000E+01,	-8.28708E-03,	2.01693E+02,	1.01460E+03,	-4.05989E+03,	0.00000E+00,	0,	0
  2.64085E-01,	1.00000E+01,	-8.28708E-03,	2.19125E+02,	1.21351E+03,	-4.75878E+03,	0.00000E+00,	0,	0
  2.18023E-01,	1.00000E+01,	-8.28708E-03,	2.29224E+02,	1.39293E+03,	-5.70889E+03,	0.00000E+00,	0,	0
  1.79426E-01,	1.00000E+01,	-8.28708E-03,	2.41324E+02,	1.69307E+03,	-6.71825E+03,	0.00000E+00,	0,	0
  1.47638E-01,	1.00000E+01,	-8.28708E-03,	2.55800E+02,	2.04376E+03,	-7.94735E+03,	0.00000E+00,	0,	0
  1.21753E-01,	1.00000E+01,	-8.28708E-03,	2.73160E+02,	2.48368E+03,	-9.37622E+03,	0.00000E+00,	0,	0
  1.00446E-01,	1.00000E+01,	-8.28708E-03,	2.94033E+02,	3.04248E+03,	-1.10421E+04,	0.00000E+00,	0,	0