Z60W Data File: Version 1.1
CorrTest for Windows: SN CS310H1805157  V5.2.1111.9  2.5H6.220118
Sweep Frequency: Control Voltage
  Date:4-26-2026   Time:22:51:23
  Begin Information:            Cell Information
      Surface Area:           1
      Density:                7.8
      Weight:                 28
  End Information:              Cell Information
  Freq (Hz)     Ampl(mV)       Bias(V)      Time(Sec)       Z'(Ohm.cm^2)    Z''(Ohm.cm^2)        GD       Err      Range
End Comments
  3.07200E+05,	1.00000E+01,	-7.29126E-03,	4.37970E-02,	1.74503E+00,	4.56711E+00,	0.00000E+00,	0,	0
  2.76480E+05,	1.00000E+01,	-7.29126E-03,	1.68806E+00,	2.27960E+00,	3.74839E+00,	0.00000E+00,	0,	0
  2.30400E+05,	1.00000E+01,	-7.29126E-03,	2.59619E+00,	2.69610E+00,	3.14926E+00,	0.00000E+00,	0,	0
  1.72800E+05,	1.00000E+01,	-7.29126E-03,	3.50724E+00,	3.09577E+00,	2.32682E+00,	0.00000E+00,	0,	0
  1.53600E+05,	1.00000E+01,	-7.29126E-03,	4.40785E+00,	3.18878E+00,	2.04187E+00,	0.00000E+00,	0,	0
  1.15200E+05,	1.00000E+01,	-7.29126E-03,	5.30565E+00,	3.38668E+00,	1.45599E+00,	0.00000E+00,	0,	0
  9.87429E+04,	1.00000E+01,	-7.29126E-03,	6.19743E+00,	3.44545E+00,	1.21851E+00,	0.00000E+00,	0,	0
  8.13176E+04,	1.00000E+01,	-7.29126E-03,	7.10081E+00,	3.52404E+00,	9.47516E-01,	0.00000E+00,	0,	0
  6.58286E+04,	1.00000E+01,	-7.29126E-03,	7.99636E+00,	3.56831E+00,	6.99052E-01,	0.00000E+00,	0,	0
  5.31692E+04,	1.00000E+01,	-7.29126E-03,	1.12163E+01,	3.62339E+00,	4.25266E-01,	0.00000E+00,	0,	0
  4.60800E+04,	1.00000E+01,	-7.29126E-03,	1.27958E+01,	3.64232E+00,	2.97254E-01,	0.00000E+00,	0,	0
  3.63789E+04,	1.00000E+01,	-7.29126E-03,	1.37201E+01,	3.66917E+00,	1.02361E-01,	0.00000E+00,	0,	0
  3.00522E+04,	1.00000E+01,	-7.29126E-03,	1.45842E+01,	3.69404E+00,	-4.28030E-02,	0.00000E+00,	0,	0
  2.46857E+04,	1.00000E+01,	-7.29126E-03,	1.54586E+01,	3.72652E+00,	-1.90005E-01,	0.00000E+00,	0,	0
  2.03294E+04,	1.00000E+01,	-7.29126E-03,	1.64100E+01,	3.75790E+00,	-3.32555E-01,	0.00000E+00,	0,	0
  1.64571E+04,	1.00000E+01,	-7.29126E-03,	1.72961E+01,	3.79910E+00,	-4.93955E-01,	0.00000E+00,	0,	0
  1.35529E+04,	1.00000E+01,	-7.29126E-03,	1.81236E+01,	3.84481E+00,	-6.54057E-01,	0.00000E+00,	0,	0
  1.11484E+04,	1.00000E+01,	-7.29126E-03,	1.90468E+01,	3.90209E+00,	-8.14815E-01,	0.00000E+00,	0,	0
  9.60000E+03,	1.00000E+01,	-7.29126E-03,	2.18323E+01,	3.91966E+00,	-9.39254E-01,	0.00000E+00,	0,	0
  7.85455E+03,	1.00000E+01,	-7.29126E-03,	2.27729E+01,	3.99207E+00,	-1.13599E+00,	0.00000E+00,	0,	0
  6.40000E+03,	1.00000E+01,	-7.29126E-03,	2.37324E+01,	4.07585E+00,	-1.35993E+00,	0.00000E+00,	0,	0
  5.23636E+03,	1.00000E+01,	-7.29126E-03,	2.46798E+01,	4.17358E+00,	-1.61464E+00,	0.00000E+00,	0,	0
  4.32000E+03,	1.00000E+01,	-7.29126E-03,	2.55647E+01,	4.27470E+00,	-1.88236E+00,	0.00000E+00,	0,	0
  3.52653E+03,	1.00000E+01,	-7.29126E-03,	2.65619E+01,	4.40092E+00,	-2.20757E+00,	0.00000E+00,	0,	0
  2.88000E+03,	1.00000E+01,	-7.29126E-03,	2.74808E+01,	4.53720E+00,	-2.58487E+00,	0.00000E+00,	0,	0
  2.36712E+03,	1.00000E+01,	-7.29126E-03,	2.84878E+01,	4.69061E+00,	-3.01576E+00,	0.00000E+00,	0,	0
  1.96364E+03,	1.00000E+01,	-7.29126E-03,	2.92245E+01,	4.86157E+00,	-3.48592E+00,	0.00000E+00,	0,	0
  1.61495E+03,	1.00000E+01,	-7.29126E-03,	3.01406E+01,	5.03328E+00,	-4.04772E+00,	0.00000E+00,	0,	0
  1.32923E+03,	1.00000E+01,	-7.29126E-03,	3.10938E+01,	5.24557E+00,	-4.72511E+00,	0.00000E+00,	0,	0
  1.09367E+03,	1.00000E+01,	-7.29126E-03,	3.21571E+01,	5.47159E+00,	-5.51684E+00,	0.00000E+00,	0,	0
  9.00000E+02,	1.00000E+01,	-7.29126E-03,	3.71400E+01,	5.75531E+00,	-6.46408E+00,	0.00000E+00,	0,	0
  7.44828E+02,	1.00000E+01,	-7.29126E-03,	3.85143E+01,	6.04471E+00,	-7.53326E+00,	0.00000E+00,	0,	0
  6.17143E+02,	1.00000E+01,	-7.29126E-03,	3.98796E+01,	6.37190E+00,	-8.78564E+00,	0.00000E+00,	0,	0
  5.14286E+02,	1.00000E+01,	-7.29126E-03,	4.12564E+01,	6.73755E+00,	-1.02093E+01,	0.00000E+00,	0,	0
  4.15385E+02,	1.00000E+01,	-7.29126E-03,	4.26278E+01,	7.23131E+00,	-1.21930E+01,	0.00000E+00,	0,	0
  3.42857E+02,	1.00000E+01,	-7.29126E-03,	4.50212E+01,	7.75379E+00,	-1.43228E+01,	0.00000E+00,	0,	0
  2.84211E+02,	1.00000E+01,	-7.29126E-03,	4.94686E+01,	8.36715E+00,	-1.68070E+01,	0.00000E+00,	0,	0
  2.32258E+02,	1.00000E+01,	-7.29126E-03,	5.23687E+01,	9.12964E+00,	-1.99501E+01,	0.00000E+00,	0,	0
  1.91150E+02,	1.00000E+01,	-7.29126E-03,	5.55279E+01,	1.00059E+01,	-2.35388E+01,	0.00000E+00,	0,	0
  1.57664E+02,	1.00000E+01,	-7.29126E-03,	5.89302E+01,	1.10381E+01,	-2.77391E+01,	0.00000E+00,	0,	0
  1.30120E+02,	1.00000E+01,	-7.29126E-03,	6.27018E+01,	1.22756E+01,	-3.26909E+01,	0.00000E+00,	0,	0
  1.06931E+02,	1.00000E+01,	-7.29126E-03,	6.67948E+01,	1.37902E+01,	-3.86766E+01,	0.00000E+00,	0,	0
  8.85246E+01,	1.00000E+01,	-7.29126E-03,	7.23815E+01,	1.55513E+01,	-4.55099E+01,	0.00000E+00,	0,	0
  7.29730E+01,	1.00000E+01,	-7.29126E-03,	7.72088E+01,	1.77521E+01,	-5.38511E+01,	0.00000E+00,	0,	0
  6.00000E+01,	1.00000E+01,	-7.29126E-03,	8.24582E+01,	2.06734E+01,	-6.28217E+01,	0.00000E+00,	0,	0
  4.95413E+01,	1.00000E+01,	-7.29126E-03,	8.82553E+01,	2.40072E+01,	-7.37779E+01,	0.00000E+00,	0,	0
  4.06015E+01,	1.00000E+01,	-7.29126E-03,	9.19104E+01,	2.82398E+01,	-8.71071E+01,	0.00000E+00,	0,	0
  3.35404E+01,	1.00000E+01,	-7.29126E-03,	9.56794E+01,	3.25816E+01,	-1.01852E+02,	0.00000E+00,	0,	0
  2.75510E+01,	1.00000E+01,	-7.29126E-03,	9.94993E+01,	3.90124E+01,	-1.19980E+02,	0.00000E+00,	0,	0
  2.26891E+01,	1.00000E+01,	-7.29126E-03,	1.02455E+02,	4.65838E+01,	-1.40403E+02,	0.00000E+00,	0,	0
  1.87500E+01,	1.00000E+01,	-7.29126E-03,	1.06176E+02,	5.55468E+01,	-1.63467E+02,	0.00000E+00,	0,	0
  1.55172E+01,	1.00000E+01,	-7.29126E-03,	1.11699E+02,	6.59822E+01,	-1.89592E+02,	0.00000E+00,	0,	0
  1.28571E+01,	1.00000E+01,	-7.29126E-03,	1.16370E+02,	7.82046E+01,	-2.19105E+02,	0.00000E+00,	0,	0
  1.04651E+01,	1.00000E+01,	-7.29126E-03,	1.19082E+02,	9.35636E+01,	-2.56033E+02,	0.00000E+00,	0,	0
  8.65385E+00,	1.00000E+01,	-7.29126E-03,	1.24898E+02,	1.10210E+02,	-2.95803E+02,	0.00000E+00,	0,	0
  7.14286E+00,	1.00000E+01,	-7.29126E-03,	1.27283E+02,	1.28736E+02,	-3.40773E+02,	0.00000E+00,	0,	0
  5.84416E+00,	1.00000E+01,	-7.29126E-03,	1.30044E+02,	1.50294E+02,	-3.95332E+02,	0.00000E+00,	0,	0
  4.83871E+00,	1.00000E+01,	-7.29126E-03,	1.33221E+02,	1.72591E+02,	-4.54746E+02,	0.00000E+00,	0,	0
  3.98230E+00,	1.00000E+01,	-7.29126E-03,	1.36823E+02,	1.97792E+02,	-5.26137E+02,	0.00000E+00,	0,	0
  3.28467E+00,	1.00000E+01,	-7.29126E-03,	1.40980E+02,	2.25082E+02,	-6.09005E+02,	0.00000E+00,	0,	0
  2.69461E+00,	1.00000E+01,	-7.29126E-03,	1.44856E+02,	2.56011E+02,	-7.09203E+02,	0.00000E+00,	0,	0
  2.22772E+00,	1.00000E+01,	-7.29126E-03,	1.49373E+02,	2.88680E+02,	-8.23114E+02,	0.00000E+00,	0,	0
  1.82927E+00,	1.00000E+01,	-7.29126E-03,	1.54680E+02,	3.26547E+02,	-9.63070E+02,	0.00000E+00,	0,	0
  1.51007E+00,	1.00000E+01,	-7.29126E-03,	1.61617E+02,	3.67811E+02,	-1.12429E+03,	0.00000E+00,	0,	0
  1.24309E+00,	1.00000E+01,	-7.29126E-03,	1.65930E+02,	4.16126E+02,	-1.31823E+03,	0.00000E+00,	0,	0
  1.02273E+00,	1.00000E+01,	-7.29126E-03,	1.70370E+02,	4.72658E+02,	-1.55114E+03,	0.00000E+00,	0,	0
  8.45865E-01,	1.00000E+01,	-7.29126E-03,	1.77198E+02,	5.35331E+02,	-1.81685E+03,	0.00000E+00,	0,	0
  6.94444E-01,	1.00000E+01,	-7.29126E-03,	1.81602E+02,	6.12350E+02,	-2.14545E+03,	0.00000E+00,	0,	0
  5.73980E-01,	1.00000E+01,	-7.29126E-03,	1.86162E+02,	6.80964E+02,	-2.52717E+03,	0.00000E+00,	0,	0
  4.72689E-01,	1.00000E+01,	-7.29126E-03,	1.91505E+02,	7.84624E+02,	-2.98595E+03,	0.00000E+00,	0,	0
  3.90625E-01,	1.00000E+01,	-7.29126E-03,	1.97527E+02,	9.03401E+02,	-3.55114E+03,	0.00000E+00,	0,	0
  3.21429E-01,	1.00000E+01,	-7.29126E-03,	2.04653E+02,	1.05559E+03,	-4.19950E+03,	0.00000E+00,	0,	0
  2.64085E-01,	1.00000E+01,	-7.29126E-03,	2.13319E+02,	1.23823E+03,	-4.97692E+03,	0.00000E+00,	0,	0
  2.18023E-01,	1.00000E+01,	-7.29126E-03,	2.23399E+02,	1.45383E+03,	-5.88275E+03,	0.00000E+00,	0,	0
  1.79426E-01,	1.00000E+01,	-7.29126E-03,	2.35510E+02,	1.73108E+03,	-6.95924E+03,	0.00000E+00,	0,	0
  1.47638E-01,	1.00000E+01,	-7.29126E-03,	2.49999E+02,	2.07349E+03,	-8.23969E+03,	0.00000E+00,	0,	0
  1.21753E-01,	1.00000E+01,	-7.29126E-03,	2.67431E+02,	2.50123E+03,	-9.73047E+03,	0.00000E+00,	0,	0
  1.00446E-01,	1.00000E+01,	-7.29126E-03,	2.88288E+02,	3.04274E+03,	-1.14817E+04,	0.00000E+00,	0,	0