Z60W Data File: Version 1.1
CorrTest for Windows: SN CS310H1805157  V5.2.1111.9  2.5H6.220118
Sweep Frequency: Control Voltage
  Date:4-26-2026   Time:21:23:42
  Begin Information:            Cell Information
      Surface Area:           1
      Density:                7.8
      Weight:                 28
  End Information:              Cell Information
  Freq (Hz)     Ampl(mV)       Bias(V)      Time(Sec)       Z'(Ohm.cm^2)    Z''(Ohm.cm^2)        GD       Err      Range
End Comments
  3.07200E+05,	1.00000E+01,	-9.27486E-03,	2.78785E-02,	1.19829E+00,	4.29711E+00,	0.00000E+00,	0,	0
  2.76480E+05,	1.00000E+01,	-9.27486E-03,	1.63035E+00,	1.74538E+00,	3.49884E+00,	0.00000E+00,	0,	0
  2.30400E+05,	1.00000E+01,	-9.27486E-03,	2.56526E+00,	2.15222E+00,	2.92794E+00,	0.00000E+00,	0,	0
  1.72800E+05,	1.00000E+01,	-9.27486E-03,	3.45442E+00,	2.55176E+00,	2.16707E+00,	0.00000E+00,	0,	0
  1.53600E+05,	1.00000E+01,	-9.27486E-03,	4.34454E+00,	2.65165E+00,	1.88934E+00,	0.00000E+00,	0,	0
  1.15200E+05,	1.00000E+01,	-9.27486E-03,	5.24012E+00,	2.84494E+00,	1.35165E+00,	0.00000E+00,	0,	0
  9.87429E+04,	1.00000E+01,	-9.27486E-03,	6.14158E+00,	2.92636E+00,	1.12401E+00,	0.00000E+00,	0,	0
  8.13176E+04,	1.00000E+01,	-9.27486E-03,	7.09590E+00,	2.98358E+00,	8.77884E-01,	0.00000E+00,	0,	0
  6.58286E+04,	1.00000E+01,	-9.27486E-03,	7.99555E+00,	3.03006E+00,	6.56026E-01,	0.00000E+00,	0,	0
  5.31692E+04,	1.00000E+01,	-9.27486E-03,	1.12345E+01,	3.08679E+00,	3.94093E-01,	0.00000E+00,	0,	0
  4.60800E+04,	1.00000E+01,	-9.27486E-03,	1.27864E+01,	3.10593E+00,	2.76769E-01,	0.00000E+00,	0,	0
  3.63789E+04,	1.00000E+01,	-9.27486E-03,	1.37081E+01,	3.13736E+00,	9.69899E-02,	0.00000E+00,	0,	0
  3.00522E+04,	1.00000E+01,	-9.27486E-03,	1.45686E+01,	3.15893E+00,	-3.68527E-02,	0.00000E+00,	0,	0
  2.46857E+04,	1.00000E+01,	-9.27486E-03,	1.54537E+01,	3.18543E+00,	-1.74584E-01,	0.00000E+00,	0,	0
  2.03294E+04,	1.00000E+01,	-9.27486E-03,	1.64462E+01,	3.21754E+00,	-3.04105E-01,	0.00000E+00,	0,	0
  1.64571E+04,	1.00000E+01,	-9.27486E-03,	1.73638E+01,	3.25608E+00,	-4.49943E-01,	0.00000E+00,	0,	0
  1.35529E+04,	1.00000E+01,	-9.27486E-03,	1.81796E+01,	3.30019E+00,	-5.92984E-01,	0.00000E+00,	0,	0
  1.11484E+04,	1.00000E+01,	-9.27486E-03,	1.90916E+01,	3.35498E+00,	-7.47101E-01,	0.00000E+00,	0,	0
  9.60000E+03,	1.00000E+01,	-9.27486E-03,	2.18770E+01,	3.22959E+00,	-8.61471E-01,	0.00000E+00,	0,	0
  7.85455E+03,	1.00000E+01,	-9.27486E-03,	2.28285E+01,	3.30424E+00,	-1.03878E+00,	0.00000E+00,	0,	0
  6.40000E+03,	1.00000E+01,	-9.27486E-03,	2.37815E+01,	3.38200E+00,	-1.24456E+00,	0.00000E+00,	0,	0
  5.23636E+03,	1.00000E+01,	-9.27486E-03,	2.47329E+01,	3.46763E+00,	-1.46925E+00,	0.00000E+00,	0,	0
  4.32000E+03,	1.00000E+01,	-9.27486E-03,	2.56580E+01,	3.56002E+00,	-1.72015E+00,	0.00000E+00,	0,	0
  3.52653E+03,	1.00000E+01,	-9.27486E-03,	2.66847E+01,	3.67066E+00,	-2.01831E+00,	0.00000E+00,	0,	0
  2.88000E+03,	1.00000E+01,	-9.27486E-03,	2.76152E+01,	3.79266E+00,	-2.36610E+00,	0.00000E+00,	0,	0
  2.36712E+03,	1.00000E+01,	-9.27486E-03,	2.86162E+01,	3.92408E+00,	-2.76174E+00,	0.00000E+00,	0,	0
  1.96364E+03,	1.00000E+01,	-9.27486E-03,	2.93763E+01,	4.06688E+00,	-3.19553E+00,	0.00000E+00,	0,	0
  1.61495E+03,	1.00000E+01,	-9.27486E-03,	3.02865E+01,	4.22078E+00,	-3.73638E+00,	0.00000E+00,	0,	0
  1.32923E+03,	1.00000E+01,	-9.27486E-03,	3.12291E+01,	4.41158E+00,	-4.35669E+00,	0.00000E+00,	0,	0
  1.09367E+03,	1.00000E+01,	-9.27486E-03,	3.22868E+01,	4.61236E+00,	-5.09621E+00,	0.00000E+00,	0,	0
  9.00000E+02,	1.00000E+01,	-9.27486E-03,	3.72789E+01,	4.87018E+00,	-5.99286E+00,	0.00000E+00,	0,	0
  7.44828E+02,	1.00000E+01,	-9.27486E-03,	3.86549E+01,	5.13246E+00,	-6.99386E+00,	0.00000E+00,	0,	0
  6.17143E+02,	1.00000E+01,	-9.27486E-03,	4.00197E+01,	5.43960E+00,	-8.17295E+00,	0.00000E+00,	0,	0
  5.14286E+02,	1.00000E+01,	-9.27486E-03,	4.13905E+01,	5.80277E+00,	-9.51183E+00,	0.00000E+00,	0,	0
  4.15385E+02,	1.00000E+01,	-9.27486E-03,	4.27622E+01,	6.26122E+00,	-1.13789E+01,	0.00000E+00,	0,	0
  3.42857E+02,	1.00000E+01,	-9.27486E-03,	4.51694E+01,	6.74915E+00,	-1.33809E+01,	0.00000E+00,	0,	0
  2.84211E+02,	1.00000E+01,	-9.27486E-03,	4.95923E+01,	7.32766E+00,	-1.57221E+01,	0.00000E+00,	0,	0
  2.32258E+02,	1.00000E+01,	-9.27486E-03,	5.24835E+01,	8.04695E+00,	-1.86695E+01,	0.00000E+00,	0,	0
  1.91150E+02,	1.00000E+01,	-9.27486E-03,	5.55960E+01,	8.88426E+00,	-2.20429E+01,	0.00000E+00,	0,	0
  1.57664E+02,	1.00000E+01,	-9.27486E-03,	5.90053E+01,	9.87300E+00,	-2.59766E+01,	0.00000E+00,	0,	0
  1.30120E+02,	1.00000E+01,	-9.27486E-03,	6.27568E+01,	1.10658E+01,	-3.06135E+01,	0.00000E+00,	0,	0
  1.06931E+02,	1.00000E+01,	-9.27486E-03,	6.68644E+01,	1.25388E+01,	-3.62071E+01,	0.00000E+00,	0,	0
  8.85246E+01,	1.00000E+01,	-9.27486E-03,	7.24672E+01,	1.42531E+01,	-4.25797E+01,	0.00000E+00,	0,	0
  7.29730E+01,	1.00000E+01,	-9.27486E-03,	7.72984E+01,	1.64006E+01,	-5.03420E+01,	0.00000E+00,	0,	0
  6.00000E+01,	1.00000E+01,	-9.27486E-03,	8.25673E+01,	1.92544E+01,	-5.86573E+01,	0.00000E+00,	0,	0
  4.95413E+01,	1.00000E+01,	-9.27486E-03,	8.83100E+01,	2.25118E+01,	-6.87899E+01,	0.00000E+00,	0,	0
  4.06015E+01,	1.00000E+01,	-9.27486E-03,	9.19286E+01,	2.66512E+01,	-8.10535E+01,	0.00000E+00,	0,	0
  3.35404E+01,	1.00000E+01,	-9.27486E-03,	9.57041E+01,	3.09178E+01,	-9.45821E+01,	0.00000E+00,	0,	0
  2.75510E+01,	1.00000E+01,	-9.27486E-03,	9.95299E+01,	3.71290E+01,	-1.11119E+02,	0.00000E+00,	0,	0
  2.26891E+01,	1.00000E+01,	-9.27486E-03,	1.02515E+02,	4.43838E+01,	-1.29660E+02,	0.00000E+00,	0,	0
  1.87500E+01,	1.00000E+01,	-9.27486E-03,	1.06209E+02,	5.28584E+01,	-1.50492E+02,	0.00000E+00,	0,	0
  1.55172E+01,	1.00000E+01,	-9.27486E-03,	1.11747E+02,	6.25786E+01,	-1.74033E+02,	0.00000E+00,	0,	0
  1.28571E+01,	1.00000E+01,	-9.27486E-03,	1.16395E+02,	7.37611E+01,	-2.00565E+02,	0.00000E+00,	0,	0
  1.04651E+01,	1.00000E+01,	-9.27486E-03,	1.19147E+02,	8.75443E+01,	-2.33753E+02,	0.00000E+00,	0,	0
  8.65385E+00,	1.00000E+01,	-9.27486E-03,	1.24979E+02,	1.02230E+02,	-2.69740E+02,	0.00000E+00,	0,	0
  7.14286E+00,	1.00000E+01,	-9.27486E-03,	1.27388E+02,	1.18346E+02,	-3.10762E+02,	0.00000E+00,	0,	0
  5.84416E+00,	1.00000E+01,	-9.27486E-03,	1.30139E+02,	1.36757E+02,	-3.60677E+02,	0.00000E+00,	0,	0
  4.83871E+00,	1.00000E+01,	-9.27486E-03,	1.33260E+02,	1.55841E+02,	-4.15607E+02,	0.00000E+00,	0,	0
  3.98230E+00,	1.00000E+01,	-9.27486E-03,	1.36890E+02,	1.77283E+02,	-4.81989E+02,	0.00000E+00,	0,	0
  3.28467E+00,	1.00000E+01,	-9.27486E-03,	1.41120E+02,	2.00756E+02,	-5.59536E+02,	0.00000E+00,	0,	0
  2.69461E+00,	1.00000E+01,	-9.27486E-03,	1.45044E+02,	2.27581E+02,	-6.53771E+02,	0.00000E+00,	0,	0
  2.22772E+00,	1.00000E+01,	-9.27486E-03,	1.49578E+02,	2.56211E+02,	-7.61174E+02,	0.00000E+00,	0,	0
  1.82927E+00,	1.00000E+01,	-9.27486E-03,	1.54866E+02,	2.89900E+02,	-8.93220E+02,	0.00000E+00,	0,	0
  1.51007E+00,	1.00000E+01,	-9.27486E-03,	1.58760E+02,	3.27745E+02,	-1.04595E+03,	0.00000E+00,	0,	0
  1.24309E+00,	1.00000E+01,	-9.27486E-03,	1.63122E+02,	3.71826E+02,	-1.22980E+03,	0.00000E+00,	0,	0
  1.02273E+00,	1.00000E+01,	-9.27486E-03,	1.67584E+02,	4.23981E+02,	-1.44964E+03,	0.00000E+00,	0,	0
  8.45865E-01,	1.00000E+01,	-9.27486E-03,	1.74405E+02,	4.82540E+02,	-1.70036E+03,	0.00000E+00,	0,	0
  6.94444E-01,	1.00000E+01,	-9.27486E-03,	1.78770E+02,	5.55489E+02,	-2.01069E+03,	0.00000E+00,	0,	0
  5.73980E-01,	1.00000E+01,	-9.27486E-03,	1.83326E+02,	6.21846E+02,	-2.37044E+03,	0.00000E+00,	0,	0
  4.72689E-01,	1.00000E+01,	-9.27486E-03,	1.88687E+02,	7.21782E+02,	-2.80201E+03,	0.00000E+00,	0,	0
  3.90625E-01,	1.00000E+01,	-9.27486E-03,	1.94726E+02,	8.37917E+02,	-3.33328E+03,	0.00000E+00,	0,	0
  3.21429E-01,	1.00000E+01,	-9.27486E-03,	2.01916E+02,	9.88182E+02,	-3.94336E+03,	0.00000E+00,	0,	0
  2.64085E-01,	1.00000E+01,	-9.27486E-03,	2.19348E+02,	1.18669E+03,	-4.62352E+03,	0.00000E+00,	0,	0
  2.18023E-01,	1.00000E+01,	-9.27486E-03,	2.29479E+02,	1.37248E+03,	-5.54522E+03,	0.00000E+00,	0,	0
  1.79426E-01,	1.00000E+01,	-9.27486E-03,	2.41546E+02,	1.67620E+03,	-6.52601E+03,	0.00000E+00,	0,	0
  1.47638E-01,	1.00000E+01,	-9.27486E-03,	2.56036E+02,	2.03772E+03,	-7.71378E+03,	0.00000E+00,	0,	0
  1.21753E-01,	1.00000E+01,	-9.27486E-03,	2.73403E+02,	2.49109E+03,	-9.09218E+03,	0.00000E+00,	0,	0
  1.00446E-01,	1.00000E+01,	-9.27486E-03,	2.94255E+02,	3.07001E+03,	-1.06953E+04,	0.00000E+00,	0,	0