Z60W Data File: Version 1.1
CorrTest for Windows: SN CS310H1805157  V5.2.1111.9  2.5H6.220118
Sweep Frequency: Control Voltage
  Date:4-27-2026   Time:12:48:38
  Begin Information:            Cell Information
      Surface Area:           1
      Density:                7.8
      Weight:                 28
  End Information:              Cell Information
  Freq (Hz)     Ampl(mV)       Bias(V)      Time(Sec)       Z'(Ohm.cm^2)    Z''(Ohm.cm^2)        GD       Err      Range
End Comments
  3.07200E+05,	1.00000E+01,	-1.63435E-02,	2.45585E-02,	1.56707E+01,	1.15351E+01,	0.00000E+00,	0,	0
  2.76480E+05,	1.00000E+01,	-1.63435E-02,	1.66837E+00,	1.58549E+01,	1.00088E+01,	0.00000E+00,	0,	0
  2.30400E+05,	1.00000E+01,	-1.63435E-02,	2.56856E+00,	1.59527E+01,	8.41510E+00,	0.00000E+00,	0,	0
  1.72800E+05,	1.00000E+01,	-1.63435E-02,	3.46282E+00,	1.60658E+01,	6.22921E+00,	0.00000E+00,	0,	0
  1.53600E+05,	1.00000E+01,	-1.63435E-02,	4.40098E+00,	1.60849E+01,	5.50486E+00,	0.00000E+00,	0,	0
  1.15200E+05,	1.00000E+01,	-1.63435E-02,	5.33912E+00,	1.61409E+01,	4.00017E+00,	0.00000E+00,	0,	0
  9.87429E+04,	1.00000E+01,	-1.63435E-02,	6.28434E+00,	1.61706E+01,	3.36369E+00,	0.00000E+00,	0,	0
  8.13176E+04,	1.00000E+01,	-1.63435E-02,	7.18923E+00,	1.62242E+01,	2.66726E+00,	0.00000E+00,	0,	0
  6.58286E+04,	1.00000E+01,	-1.63435E-02,	8.10617E+00,	1.62358E+01,	2.08078E+00,	0.00000E+00,	0,	0
  5.31692E+04,	1.00000E+01,	-1.63435E-02,	1.02288E+01,	1.62565E+01,	1.50915E+00,	0.00000E+00,	0,	0
  4.60800E+04,	1.00000E+01,	-1.63435E-02,	1.17877E+01,	1.62685E+01,	1.17443E+00,	0.00000E+00,	0,	0
  3.63789E+04,	1.00000E+01,	-1.63435E-02,	1.27075E+01,	1.62926E+01,	7.23350E-01,	0.00000E+00,	0,	0
  3.00522E+04,	1.00000E+01,	-1.63435E-02,	1.35903E+01,	1.63211E+01,	4.11887E-01,	0.00000E+00,	0,	0
  2.46857E+04,	1.00000E+01,	-1.63435E-02,	1.44453E+01,	1.63516E+01,	9.33452E-02,	0.00000E+00,	0,	0
  2.03294E+04,	1.00000E+01,	-1.63435E-02,	1.54209E+01,	1.63896E+01,	-1.89596E-01,	0.00000E+00,	0,	0
  1.64571E+04,	1.00000E+01,	-1.63435E-02,	1.63174E+01,	1.64367E+01,	-5.17598E-01,	0.00000E+00,	0,	0
  1.35529E+04,	1.00000E+01,	-1.63435E-02,	1.71118E+01,	1.64863E+01,	-8.05707E-01,	0.00000E+00,	0,	0
  1.11484E+04,	1.00000E+01,	-1.63435E-02,	1.80127E+01,	1.65663E+01,	-1.12677E+00,	0.00000E+00,	0,	0
  9.60000E+03,	1.00000E+01,	-1.63435E-02,	2.07902E+01,	1.66520E+01,	-1.37406E+00,	0.00000E+00,	0,	0
  7.85455E+03,	1.00000E+01,	-1.63435E-02,	2.17668E+01,	1.67579E+01,	-1.75473E+00,	0.00000E+00,	0,	0
  6.40000E+03,	1.00000E+01,	-1.63435E-02,	2.27378E+01,	1.68961E+01,	-2.15102E+00,	0.00000E+00,	0,	0
  5.23636E+03,	1.00000E+01,	-1.63435E-02,	2.37027E+01,	1.70240E+01,	-2.61766E+00,	0.00000E+00,	0,	0
  4.32000E+03,	1.00000E+01,	-1.63435E-02,	2.46282E+01,	1.72116E+01,	-3.13734E+00,	0.00000E+00,	0,	0
  3.52653E+03,	1.00000E+01,	-1.63435E-02,	2.56329E+01,	1.74183E+01,	-3.71834E+00,	0.00000E+00,	0,	0
  2.88000E+03,	1.00000E+01,	-1.63435E-02,	2.65307E+01,	1.76665E+01,	-4.38499E+00,	0.00000E+00,	0,	0
  2.36712E+03,	1.00000E+01,	-1.63435E-02,	2.75338E+01,	1.80080E+01,	-5.13422E+00,	0.00000E+00,	0,	0
  1.96364E+03,	1.00000E+01,	-1.63435E-02,	2.82979E+01,	1.82982E+01,	-5.87835E+00,	0.00000E+00,	0,	0
  1.61495E+03,	1.00000E+01,	-1.63435E-02,	2.91944E+01,	1.86897E+01,	-6.91323E+00,	0.00000E+00,	0,	0
  1.32923E+03,	1.00000E+01,	-1.63435E-02,	3.01439E+01,	1.91690E+01,	-8.03179E+00,	0.00000E+00,	0,	0
  1.09367E+03,	1.00000E+01,	-1.63435E-02,	3.11923E+01,	1.96578E+01,	-9.29374E+00,	0.00000E+00,	0,	0
  9.00000E+02,	1.00000E+01,	-1.63435E-02,	3.62046E+01,	2.03071E+01,	-1.07837E+01,	0.00000E+00,	0,	0
  7.44828E+02,	1.00000E+01,	-1.63435E-02,	3.75692E+01,	2.09270E+01,	-1.24370E+01,	0.00000E+00,	0,	0
  6.17143E+02,	1.00000E+01,	-1.63435E-02,	3.89548E+01,	2.16330E+01,	-1.43261E+01,	0.00000E+00,	0,	0
  5.14286E+02,	1.00000E+01,	-1.63435E-02,	4.03184E+01,	2.23871E+01,	-1.64449E+01,	0.00000E+00,	0,	0
  4.15385E+02,	1.00000E+01,	-1.63435E-02,	4.16943E+01,	2.33747E+01,	-1.93635E+01,	0.00000E+00,	0,	0
  3.42857E+02,	1.00000E+01,	-1.63435E-02,	4.40983E+01,	2.43717E+01,	-2.24565E+01,	0.00000E+00,	0,	0
  2.84211E+02,	1.00000E+01,	-1.63435E-02,	4.67991E+01,	2.54635E+01,	-2.59954E+01,	0.00000E+00,	0,	0
  2.32258E+02,	1.00000E+01,	-1.63435E-02,	4.96768E+01,	2.67753E+01,	-3.04909E+01,	0.00000E+00,	0,	0
  1.91150E+02,	1.00000E+01,	-1.63435E-02,	5.28044E+01,	2.82152E+01,	-3.56298E+01,	0.00000E+00,	0,	0
  1.57664E+02,	1.00000E+01,	-1.63435E-02,	5.62220E+01,	2.98221E+01,	-4.16338E+01,	0.00000E+00,	0,	0
  1.30120E+02,	1.00000E+01,	-1.63435E-02,	5.99564E+01,	3.16586E+01,	-4.87111E+01,	0.00000E+00,	0,	0
  1.06931E+02,	1.00000E+01,	-1.63435E-02,	6.40913E+01,	3.37938E+01,	-5.72962E+01,	0.00000E+00,	0,	0
  8.85246E+01,	1.00000E+01,	-1.63435E-02,	6.96895E+01,	3.61742E+01,	-6.71546E+01,	0.00000E+00,	0,	0
  7.29730E+01,	1.00000E+01,	-1.63435E-02,	7.45405E+01,	3.90420E+01,	-7.92604E+01,	0.00000E+00,	0,	0
  6.00000E+01,	1.00000E+01,	-1.63435E-02,	7.97940E+01,	4.25798E+01,	-9.22969E+01,	0.00000E+00,	0,	0
  4.95413E+01,	1.00000E+01,	-1.63435E-02,	8.84043E+01,	4.66422E+01,	-1.08692E+02,	0.00000E+00,	0,	0
  4.06015E+01,	1.00000E+01,	-1.63435E-02,	9.20379E+01,	5.15825E+01,	-1.28659E+02,	0.00000E+00,	0,	0
  3.35404E+01,	1.00000E+01,	-1.63435E-02,	9.58020E+01,	5.63107E+01,	-1.51124E+02,	0.00000E+00,	0,	0
  2.75510E+01,	1.00000E+01,	-1.63435E-02,	9.96302E+01,	6.36166E+01,	-1.79173E+02,	0.00000E+00,	0,	0
  2.26891E+01,	1.00000E+01,	-1.63435E-02,	1.02613E+02,	7.21398E+01,	-2.11482E+02,	0.00000E+00,	0,	0
  1.87500E+01,	1.00000E+01,	-1.63435E-02,	1.06339E+02,	8.23052E+01,	-2.48849E+02,	0.00000E+00,	0,	0
  1.55172E+01,	1.00000E+01,	-1.63435E-02,	1.11878E+02,	9.43305E+01,	-2.92216E+02,	0.00000E+00,	0,	0
  1.28571E+01,	1.00000E+01,	-1.63435E-02,	1.16532E+02,	1.08976E+02,	-3.42550E+02,	0.00000E+00,	0,	0
  1.04651E+01,	1.00000E+01,	-1.63435E-02,	1.19249E+02,	1.28340E+02,	-4.07135E+02,	0.00000E+00,	0,	0
  8.65385E+00,	1.00000E+01,	-1.63435E-02,	1.23515E+02,	1.50492E+02,	-4.76847E+02,	0.00000E+00,	0,	0
  7.14286E+00,	1.00000E+01,	-1.63435E-02,	1.25928E+02,	1.77673E+02,	-5.58965E+02,	0.00000E+00,	0,	0
  5.84416E+00,	1.00000E+01,	-1.63435E-02,	1.28710E+02,	2.12335E+02,	-6.58764E+02,	0.00000E+00,	0,	0
  4.83871E+00,	1.00000E+01,	-1.63435E-02,	1.31836E+02,	2.52066E+02,	-7.67430E+02,	0.00000E+00,	0,	0
  3.98230E+00,	1.00000E+01,	-1.63435E-02,	1.35448E+02,	3.00991E+02,	-8.96468E+02,	0.00000E+00,	0,	0
  3.28467E+00,	1.00000E+01,	-1.63435E-02,	1.39604E+02,	3.59255E+02,	-1.04261E+03,	0.00000E+00,	0,	0
  2.69461E+00,	1.00000E+01,	-1.63435E-02,	1.43488E+02,	4.30031E+02,	-1.21413E+03,	0.00000E+00,	0,	0
  2.22772E+00,	1.00000E+01,	-1.63435E-02,	1.47998E+02,	5.09143E+02,	-1.40237E+03,	0.00000E+00,	0,	0
  1.82927E+00,	1.00000E+01,	-1.63435E-02,	1.53306E+02,	6.02872E+02,	-1.62464E+03,	0.00000E+00,	0,	0
  1.51007E+00,	1.00000E+01,	-1.63435E-02,	1.60243E+02,	7.05484E+02,	-1.87088E+03,	0.00000E+00,	0,	0
  1.24309E+00,	1.00000E+01,	-1.63435E-02,	1.64571E+02,	8.21984E+02,	-2.15766E+03,	0.00000E+00,	0,	0
  1.02273E+00,	1.00000E+01,	-1.63435E-02,	1.69045E+02,	9.53131E+02,	-2.49374E+03,	0.00000E+00,	0,	0
  8.45865E-01,	1.00000E+01,	-1.63435E-02,	1.75881E+02,	1.08716E+03,	-2.86615E+03,	0.00000E+00,	0,	0
  6.94444E-01,	1.00000E+01,	-1.63435E-02,	1.80251E+02,	1.24309E+03,	-3.32250E+03,	0.00000E+00,	0,	0
  5.73980E-01,	1.00000E+01,	-1.63435E-02,	1.84819E+02,	1.36121E+03,	-3.86349E+03,	0.00000E+00,	0,	0
  4.72689E-01,	1.00000E+01,	-1.63435E-02,	1.90188E+02,	1.54546E+03,	-4.49566E+03,	0.00000E+00,	0,	0
  3.90625E-01,	1.00000E+01,	-1.63435E-02,	1.96223E+02,	1.74828E+03,	-5.30601E+03,	0.00000E+00,	0,	0
  3.21429E-01,	1.00000E+01,	-1.63435E-02,	2.03360E+02,	1.98366E+03,	-6.19739E+03,	0.00000E+00,	0,	0
  2.64085E-01,	1.00000E+01,	-1.63435E-02,	2.12032E+02,	2.24539E+03,	-7.27194E+03,	0.00000E+00,	0,	0
  2.18023E-01,	1.00000E+01,	-1.63435E-02,	2.22115E+02,	2.53176E+03,	-8.52758E+03,	0.00000E+00,	0,	0
  1.79426E-01,	1.00000E+01,	-1.63435E-02,	2.34197E+02,	2.87926E+03,	-1.00088E+04,	0.00000E+00,	0,	0
  1.47638E-01,	1.00000E+01,	-1.63435E-02,	2.48715E+02,	3.27417E+03,	-1.17832E+04,	0.00000E+00,	0,	0
  1.21753E-01,	1.00000E+01,	-1.63435E-02,	2.66128E+02,	3.72570E+03,	-1.38606E+04,	0.00000E+00,	0,	0
  1.00446E-01,	1.00000E+01,	-1.63435E-02,	2.87001E+02,	4.25354E+03,	-1.63126E+04,	0.00000E+00,	0,	0