Z60W Data File: Version 1.1
CorrTest for Windows: SN CS310H1805157  V5.2.1111.9  2.5H6.220118
Sweep Frequency: Control Voltage
  Date:4-27-2026   Time:17:57:05
  Begin Information:            Cell Information
      Surface Area:           1
      Density:                7.8
      Weight:                 28
  End Information:              Cell Information
  Freq (Hz)     Ampl(mV)       Bias(V)      Time(Sec)       Z'(Ohm.cm^2)    Z''(Ohm.cm^2)        GD       Err      Range
End Comments
  1.02857E+03,	1.00000E+01,	-2.58323E-02,	6.17626E-02,	1.17263E+04,	-1.06630E+03,	0.00000E+00,	0,	0
  8.30769E+02,	1.00000E+01,	-2.58323E-02,	4.27793E+00,	1.18187E+04,	-9.74122E+02,	0.00000E+00,	0,	0
  6.96774E+02,	1.00000E+01,	-2.58323E-02,	5.65128E+00,	1.18785E+04,	-8.47116E+02,	0.00000E+00,	0,	0
  5.68421E+02,	1.00000E+01,	-2.58323E-02,	7.01960E+00,	1.19385E+04,	-7.27817E+02,	0.00000E+00,	0,	0
  4.59574E+02,	1.00000E+01,	-2.58323E-02,	8.40619E+00,	1.19795E+04,	-6.35074E+02,	0.00000E+00,	0,	0
  3.78947E+02,	1.00000E+01,	-2.58323E-02,	9.85536E+00,	1.20303E+04,	-5.46834E+02,	0.00000E+00,	0,	0
  3.13043E+02,	1.00000E+01,	-2.58323E-02,	1.23596E+01,	1.20912E+04,	-4.92768E+02,	0.00000E+00,	0,	0
  2.54118E+02,	1.00000E+01,	-2.58323E-02,	1.50973E+01,	1.21543E+04,	-4.50735E+02,	0.00000E+00,	0,	0
  2.09709E+02,	1.00000E+01,	-2.58323E-02,	1.80930E+01,	1.22023E+04,	-4.10589E+02,	0.00000E+00,	0,	0
  1.71429E+02,	1.00000E+01,	-2.58323E-02,	2.34502E+01,	1.85354E+04,	-5.61520E+02,	0.00000E+00,	0,	0
  1.41176E+02,	1.00000E+01,	-2.58323E-02,	2.70682E+01,	1.86242E+04,	-5.72872E+02,	0.00000E+00,	0,	0
  1.16129E+02,	1.00000E+01,	-2.58323E-02,	3.10463E+01,	1.88122E+04,	-6.00101E+02,	0.00000E+00,	0,	0
  9.64286E+01,	1.00000E+01,	-2.58323E-02,	3.64746E+01,	1.90163E+04,	-6.87289E+02,	0.00000E+00,	0,	0
  7.94118E+01,	1.00000E+01,	-2.58323E-02,	4.11632E+01,	1.88254E+04,	-1.04405E+03,	0.00000E+00,	0,	0
  6.50602E+01,	1.00000E+01,	-2.58323E-02,	4.62669E+01,	1.93772E+04,	-8.27227E+02,	0.00000E+00,	0,	0
  5.29412E+01,	1.00000E+01,	-2.58323E-02,	5.17529E+01,	1.97860E+04,	-7.71305E+02,	0.00000E+00,	0,	0
  4.35484E+01,	1.00000E+01,	-2.58323E-02,	5.52794E+01,	1.99381E+04,	-8.80417E+02,	0.00000E+00,	0,	0
  3.57616E+01,	1.00000E+01,	-2.58323E-02,	5.89820E+01,	1.96764E+04,	-1.12185E+03,	0.00000E+00,	0,	0
  2.95082E+01,	1.00000E+01,	-2.58323E-02,	6.28816E+01,	2.01214E+04,	-1.24070E+03,	0.00000E+00,	0,	0
  2.42152E+01,	1.00000E+01,	-2.58323E-02,	6.68303E+01,	2.04389E+04,	-1.42821E+03,	0.00000E+00,	0,	0
  2.04545E+01,	1.00000E+01,	-2.58323E-02,	7.06160E+01,	2.07742E+04,	-1.61088E+03,	0.00000E+00,	0,	0
  1.66667E+01,	1.00000E+01,	-2.58323E-02,	7.41570E+01,	2.10309E+04,	-1.87742E+03,	0.00000E+00,	0,	0
  1.36364E+01,	1.00000E+01,	-2.58323E-02,	7.91962E+01,	2.13426E+04,	-2.20488E+03,	0.00000E+00,	0,	0
  1.12500E+01,	1.00000E+01,	-2.58323E-02,	8.27206E+01,	2.16534E+04,	-2.55633E+03,	0.00000E+00,	0,	0
  9.18367E+00,	1.00000E+01,	-2.58323E-02,	8.68627E+01,	1.39576E+04,	-1.89306E+03,	0.00000E+00,	0,	0
  7.50000E+00,	1.00000E+01,	-2.58323E-02,	8.92167E+01,	1.41332E+04,	-2.24332E+03,	0.00000E+00,	0,	0
  6.16438E+00,	1.00000E+01,	-2.58323E-02,	9.18623E+01,	1.43065E+04,	-2.61581E+03,	0.00000E+00,	0,	0
  5.05618E+00,	1.00000E+01,	-2.58323E-02,	9.49624E+01,	1.45338E+04,	-3.05717E+03,	0.00000E+00,	0,	0
  4.16667E+00,	1.00000E+01,	-2.58323E-02,	9.84326E+01,	1.47939E+04,	-3.54644E+03,	0.00000E+00,	0,	0
  3.40909E+00,	1.00000E+01,	-2.58323E-02,	1.02470E+02,	1.50967E+04,	-4.14030E+03,	0.00000E+00,	0,	0
  2.81250E+00,	1.00000E+01,	-2.58323E-02,	1.06246E+02,	1.54306E+04,	-4.80829E+03,	0.00000E+00,	0,	0
  2.30769E+00,	1.00000E+01,	-2.58323E-02,	1.10634E+02,	1.58229E+04,	-5.58949E+03,	0.00000E+00,	0,	0
  1.89076E+00,	1.00000E+01,	-2.58323E-02,	1.15781E+02,	1.62838E+04,	-6.51008E+03,	0.00000E+00,	0,	0
  1.56250E+00,	1.00000E+01,	-2.58323E-02,	1.19467E+02,	1.67154E+04,	-7.52561E+03,	0.00000E+00,	0,	0
  1.27841E+00,	1.00000E+01,	-2.58323E-02,	1.23684E+02,	1.72683E+04,	-8.76948E+03,	0.00000E+00,	0,	0
  1.05140E+00,	1.00000E+01,	-2.58323E-02,	1.28036E+02,	1.79690E+04,	-1.01085E+04,	0.00000E+00,	0,	0
  8.65385E-01,	1.00000E+01,	-2.58323E-02,	1.34956E+02,	1.85572E+04,	-1.17998E+04,	0.00000E+00,	0,	0
  7.12025E-01,	1.00000E+01,	-2.58323E-02,	1.39227E+02,	1.92978E+04,	-1.36480E+04,	0.00000E+00,	0,	0
  5.85938E-01,	1.00000E+01,	-2.58323E-02,	1.43707E+02,	2.00557E+04,	-1.67509E+04,	0.00000E+00,	0,	0
  4.80769E-01,	1.00000E+01,	-2.58323E-02,	1.48964E+02,	2.10880E+04,	-1.93662E+04,	0.00000E+00,	0,	0
  3.96127E-01,	1.00000E+01,	-2.58323E-02,	1.54909E+02,	2.30058E+04,	-2.30225E+04,	0.00000E+00,	0,	0
  3.25144E-01,	1.00000E+01,	-2.58323E-02,	1.61957E+02,	2.42605E+04,	-2.66548E+04,	0.00000E+00,	0,	0
  2.66588E-01,	1.00000E+01,	-2.58323E-02,	1.70377E+02,	2.57783E+04,	-3.11874E+04,	0.00000E+00,	0,	0
  2.19298E-01,	1.00000E+01,	-2.58323E-02,	1.80396E+02,	2.74860E+04,	-3.64414E+04,	0.00000E+00,	0,	0
  1.80288E-01,	1.00000E+01,	-2.58323E-02,	1.92457E+02,	2.94491E+04,	-4.26567E+04,	0.00000E+00,	0,	0
  1.48221E-01,	1.00000E+01,	-2.58323E-02,	2.07053E+02,	3.17365E+04,	-5.00488E+04,	0.00000E+00,	0,	0
  1.21753E-01,	1.00000E+01,	-2.58323E-02,	2.24406E+02,	3.45958E+04,	-5.89278E+04,	0.00000E+00,	0,	0
  1.00446E-01,	1.00000E+01,	-2.58323E-02,	2.45280E+02,	3.73755E+04,	-6.88756E+04,	0.00000E+00,	0,	0