Z60W Data File: Version 1.1
CorrTest for Windows: SN CS310H1805157  V5.2.1111.9  2.5H6.220118
Sweep Frequency: Control Voltage
  Date:4-26-2026   Time:20:53:46
  Begin Information:            Cell Information
      Surface Area:           1
      Density:                7.8
      Weight:                 28
  End Information:              Cell Information
  Freq (Hz)     Ampl(mV)       Bias(V)      Time(Sec)       Z'(Ohm.cm^2)    Z''(Ohm.cm^2)        GD       Err      Range
End Comments
  3.07200E+05,	1.00000E+01,	-1.02391E-02,	5.62930E-02,	8.59125E-01,	4.09069E+00,	0.00000E+00,	0,	0
  2.76480E+05,	1.00000E+01,	-1.02391E-02,	1.65751E+00,	1.37299E+00,	3.32308E+00,	0.00000E+00,	0,	0
  2.30400E+05,	1.00000E+01,	-1.02391E-02,	2.57162E+00,	1.83008E+00,	2.77906E+00,	0.00000E+00,	0,	0
  1.72800E+05,	1.00000E+01,	-1.02391E-02,	3.47311E+00,	2.19700E+00,	2.06038E+00,	0.00000E+00,	0,	0
  1.53600E+05,	1.00000E+01,	-1.02391E-02,	4.37466E+00,	2.32178E+00,	1.79807E+00,	0.00000E+00,	0,	0
  1.15200E+05,	1.00000E+01,	-1.02391E-02,	5.28456E+00,	2.51905E+00,	1.28941E+00,	0.00000E+00,	0,	0
  9.87429E+04,	1.00000E+01,	-1.02391E-02,	6.17119E+00,	2.59309E+00,	1.07183E+00,	0.00000E+00,	0,	0
  8.13176E+04,	1.00000E+01,	-1.02391E-02,	7.09302E+00,	2.66200E+00,	8.33911E-01,	0.00000E+00,	0,	0
  6.58286E+04,	1.00000E+01,	-1.02391E-02,	8.02038E+00,	2.71030E+00,	6.12007E-01,	0.00000E+00,	0,	0
  5.31692E+04,	1.00000E+01,	-1.02391E-02,	1.12630E+01,	2.76281E+00,	3.74372E-01,	0.00000E+00,	0,	0
  4.60800E+04,	1.00000E+01,	-1.02391E-02,	1.28101E+01,	2.77893E+00,	2.61262E-01,	0.00000E+00,	0,	0
  3.63789E+04,	1.00000E+01,	-1.02391E-02,	1.37680E+01,	2.80483E+00,	8.78569E-02,	0.00000E+00,	0,	0
  3.00522E+04,	1.00000E+01,	-1.02391E-02,	1.46290E+01,	2.82667E+00,	-4.08380E-02,	0.00000E+00,	0,	0
  2.46857E+04,	1.00000E+01,	-1.02391E-02,	1.54841E+01,	2.85488E+00,	-1.67441E-01,	0.00000E+00,	0,	0
  2.03294E+04,	1.00000E+01,	-1.02391E-02,	1.64354E+01,	2.88505E+00,	-2.94569E-01,	0.00000E+00,	0,	0
  1.64571E+04,	1.00000E+01,	-1.02391E-02,	1.73645E+01,	2.92297E+00,	-4.32828E-01,	0.00000E+00,	0,	0
  1.35529E+04,	1.00000E+01,	-1.02391E-02,	1.81695E+01,	2.96309E+00,	-5.69264E-01,	0.00000E+00,	0,	0
  1.11484E+04,	1.00000E+01,	-1.02391E-02,	1.90762E+01,	3.01354E+00,	-7.10143E-01,	0.00000E+00,	0,	0
  9.60000E+03,	1.00000E+01,	-1.02391E-02,	2.18647E+01,	2.95976E+00,	-8.18835E-01,	0.00000E+00,	0,	0
  7.85455E+03,	1.00000E+01,	-1.02391E-02,	2.28116E+01,	3.02326E+00,	-9.92242E-01,	0.00000E+00,	0,	0
  6.40000E+03,	1.00000E+01,	-1.02391E-02,	2.37700E+01,	3.09288E+00,	-1.18504E+00,	0.00000E+00,	0,	0
  5.23636E+03,	1.00000E+01,	-1.02391E-02,	2.47061E+01,	3.17529E+00,	-1.40498E+00,	0.00000E+00,	0,	0
  4.32000E+03,	1.00000E+01,	-1.02391E-02,	2.55977E+01,	3.26192E+00,	-1.64132E+00,	0.00000E+00,	0,	0
  3.52653E+03,	1.00000E+01,	-1.02391E-02,	2.66026E+01,	3.36366E+00,	-1.92969E+00,	0.00000E+00,	0,	0
  2.88000E+03,	1.00000E+01,	-1.02391E-02,	2.75080E+01,	3.47983E+00,	-2.26303E+00,	0.00000E+00,	0,	0
  2.36712E+03,	1.00000E+01,	-1.02391E-02,	2.85330E+01,	3.59560E+00,	-2.64766E+00,	0.00000E+00,	0,	0
  1.96364E+03,	1.00000E+01,	-1.02391E-02,	2.92887E+01,	3.72330E+00,	-3.06446E+00,	0.00000E+00,	0,	0
  1.61495E+03,	1.00000E+01,	-1.02391E-02,	3.02271E+01,	3.87459E+00,	-3.59094E+00,	0.00000E+00,	0,	0
  1.32923E+03,	1.00000E+01,	-1.02391E-02,	3.11564E+01,	4.06142E+00,	-4.19059E+00,	0.00000E+00,	0,	0
  1.09367E+03,	1.00000E+01,	-1.02391E-02,	3.22058E+01,	4.25303E+00,	-4.90655E+00,	0.00000E+00,	0,	0
  9.00000E+02,	1.00000E+01,	-1.02391E-02,	3.71914E+01,	4.48999E+00,	-5.77099E+00,	0.00000E+00,	0,	0
  7.44828E+02,	1.00000E+01,	-1.02391E-02,	3.86013E+01,	4.73973E+00,	-6.74129E+00,	0.00000E+00,	0,	0
  6.17143E+02,	1.00000E+01,	-1.02391E-02,	3.99836E+01,	5.02481E+00,	-7.88150E+00,	0.00000E+00,	0,	0
  5.14286E+02,	1.00000E+01,	-1.02391E-02,	4.13541E+01,	5.34455E+00,	-9.18087E+00,	0.00000E+00,	0,	0
  4.15385E+02,	1.00000E+01,	-1.02391E-02,	4.27286E+01,	5.78559E+00,	-1.09896E+01,	0.00000E+00,	0,	0
  3.42857E+02,	1.00000E+01,	-1.02391E-02,	4.51049E+01,	6.25353E+00,	-1.29238E+01,	0.00000E+00,	0,	0
  2.84211E+02,	1.00000E+01,	-1.02391E-02,	4.95432E+01,	6.81624E+00,	-1.51939E+01,	0.00000E+00,	0,	0
  2.32258E+02,	1.00000E+01,	-1.02391E-02,	5.24196E+01,	7.51862E+00,	-1.80513E+01,	0.00000E+00,	0,	0
  1.91150E+02,	1.00000E+01,	-1.02391E-02,	5.55375E+01,	8.33495E+00,	-2.13071E+01,	0.00000E+00,	0,	0
  1.57664E+02,	1.00000E+01,	-1.02391E-02,	5.89412E+01,	9.30670E+00,	-2.51169E+01,	0.00000E+00,	0,	0
  1.30120E+02,	1.00000E+01,	-1.02391E-02,	6.26853E+01,	1.04807E+01,	-2.95951E+01,	0.00000E+00,	0,	0
  1.06931E+02,	1.00000E+01,	-1.02391E-02,	6.67971E+01,	1.19303E+01,	-3.49917E+01,	0.00000E+00,	0,	0
  8.85246E+01,	1.00000E+01,	-1.02391E-02,	7.23944E+01,	1.36239E+01,	-4.11353E+01,	0.00000E+00,	0,	0
  7.29730E+01,	1.00000E+01,	-1.02391E-02,	7.72835E+01,	1.57524E+01,	-4.86035E+01,	0.00000E+00,	0,	0
  6.00000E+01,	1.00000E+01,	-1.02391E-02,	8.25339E+01,	1.85752E+01,	-5.65873E+01,	0.00000E+00,	0,	0
  4.95413E+01,	1.00000E+01,	-1.02391E-02,	8.82755E+01,	2.17982E+01,	-6.62963E+01,	0.00000E+00,	0,	0
  4.06015E+01,	1.00000E+01,	-1.02391E-02,	9.18731E+01,	2.58743E+01,	-7.80148E+01,	0.00000E+00,	0,	0
  3.35404E+01,	1.00000E+01,	-1.02391E-02,	9.56206E+01,	3.00743E+01,	-9.09069E+01,	0.00000E+00,	0,	0
  2.75510E+01,	1.00000E+01,	-1.02391E-02,	9.94692E+01,	3.61542E+01,	-1.06649E+02,	0.00000E+00,	0,	0
  2.26891E+01,	1.00000E+01,	-1.02391E-02,	1.02433E+02,	4.32195E+01,	-1.24239E+02,	0.00000E+00,	0,	0
  1.87500E+01,	1.00000E+01,	-1.02391E-02,	1.06131E+02,	5.13760E+01,	-1.43965E+02,	0.00000E+00,	0,	0
  1.55172E+01,	1.00000E+01,	-1.02391E-02,	1.11719E+02,	6.06623E+01,	-1.66234E+02,	0.00000E+00,	0,	0
  1.28571E+01,	1.00000E+01,	-1.02391E-02,	1.16351E+02,	7.12336E+01,	-1.91334E+02,	0.00000E+00,	0,	0
  1.04651E+01,	1.00000E+01,	-1.02391E-02,	1.19063E+02,	8.41834E+01,	-2.22924E+02,	0.00000E+00,	0,	0
  8.65385E+00,	1.00000E+01,	-1.02391E-02,	1.24874E+02,	9.77203E+01,	-2.56936E+02,	0.00000E+00,	0,	0
  7.14286E+00,	1.00000E+01,	-1.02391E-02,	1.27282E+02,	1.12616E+02,	-2.96168E+02,	0.00000E+00,	0,	0
  5.84416E+00,	1.00000E+01,	-1.02391E-02,	1.30048E+02,	1.29716E+02,	-3.44241E+02,	0.00000E+00,	0,	0
  4.83871E+00,	1.00000E+01,	-1.02391E-02,	1.33180E+02,	1.47215E+02,	-3.97007E+02,	0.00000E+00,	0,	0
  3.98230E+00,	1.00000E+01,	-1.02391E-02,	1.36804E+02,	1.67050E+02,	-4.61153E+02,	0.00000E+00,	0,	0
  3.28467E+00,	1.00000E+01,	-1.02391E-02,	1.40952E+02,	1.88879E+02,	-5.36290E+02,	0.00000E+00,	0,	0
  2.69461E+00,	1.00000E+01,	-1.02391E-02,	1.44870E+02,	2.13887E+02,	-6.27619E+02,	0.00000E+00,	0,	0
  2.22772E+00,	1.00000E+01,	-1.02391E-02,	1.49382E+02,	2.40988E+02,	-7.31824E+02,	0.00000E+00,	0,	0
  1.82927E+00,	1.00000E+01,	-1.02391E-02,	1.54693E+02,	2.73099E+02,	-8.59829E+02,	0.00000E+00,	0,	0
  1.51007E+00,	1.00000E+01,	-1.02391E-02,	1.58543E+02,	3.09116E+02,	-1.00804E+03,	0.00000E+00,	0,	0
  1.24309E+00,	1.00000E+01,	-1.02391E-02,	1.62853E+02,	3.51831E+02,	-1.18632E+03,	0.00000E+00,	0,	0
  1.02273E+00,	1.00000E+01,	-1.02391E-02,	1.67324E+02,	4.02386E+02,	-1.39936E+03,	0.00000E+00,	0,	0
  8.45865E-01,	1.00000E+01,	-1.02391E-02,	1.74136E+02,	4.59373E+02,	-1.64258E+03,	0.00000E+00,	0,	0
  6.94444E-01,	1.00000E+01,	-1.02391E-02,	1.78505E+02,	5.30904E+02,	-1.94299E+03,	0.00000E+00,	0,	0
  5.73980E-01,	1.00000E+01,	-1.02391E-02,	1.83089E+02,	5.97267E+02,	-2.29111E+03,	0.00000E+00,	0,	0
  4.72689E-01,	1.00000E+01,	-1.02391E-02,	1.88444E+02,	6.96814E+02,	-2.70919E+03,	0.00000E+00,	0,	0
  3.90625E-01,	1.00000E+01,	-1.02391E-02,	1.94471E+02,	8.12959E+02,	-3.22273E+03,	0.00000E+00,	0,	0
  3.21429E-01,	1.00000E+01,	-1.02391E-02,	2.01599E+02,	9.65364E+02,	-3.81250E+03,	0.00000E+00,	0,	0
  2.64085E-01,	1.00000E+01,	-1.02391E-02,	2.19022E+02,	1.16564E+03,	-4.46985E+03,	0.00000E+00,	0,	0
  2.18023E-01,	1.00000E+01,	-1.02391E-02,	2.29112E+02,	1.36118E+03,	-5.35537E+03,	0.00000E+00,	0,	0
  1.79426E-01,	1.00000E+01,	-1.02391E-02,	2.41176E+02,	1.67541E+03,	-6.29604E+03,	0.00000E+00,	0,	0
  1.47638E-01,	1.00000E+01,	-1.02391E-02,	2.55688E+02,	2.05232E+03,	-7.43339E+03,	0.00000E+00,	0,	0
  1.21753E-01,	1.00000E+01,	-1.02391E-02,	2.73061E+02,	2.52791E+03,	-8.74752E+03,	0.00000E+00,	0,	0
  1.00446E-01,	1.00000E+01,	-1.02391E-02,	2.93914E+02,	3.13651E+03,	-1.02624E+04,	0.00000E+00,	0,	0