Z60W Data File: Version 1.1
CorrTest for Windows: SN CS310H1805157  V5.2.1111.9  2.5H6.220118
Sweep Frequency: Control Voltage
  Date:4-27-2026   Time:14:30:40
  Begin Information:            Cell Information
      Surface Area:           1
      Density:                7.8
      Weight:                 28
  End Information:              Cell Information
  Freq (Hz)     Ampl(mV)       Bias(V)      Time(Sec)       Z'(Ohm.cm^2)    Z''(Ohm.cm^2)        GD       Err      Range
End Comments
  3.07200E+05,	1.00000E+01,	-1.59292E-02,	2.97578E-02,	3.71149E+01,	2.05153E+01,	0.00000E+00,	0,	0
  2.76480E+05,	1.00000E+01,	-1.59292E-02,	1.63647E+00,	3.66994E+01,	1.80256E+01,	0.00000E+00,	0,	0
  2.30400E+05,	1.00000E+01,	-1.59292E-02,	2.54728E+00,	3.62867E+01,	1.50433E+01,	0.00000E+00,	0,	0
  1.72800E+05,	1.00000E+01,	-1.59292E-02,	3.45377E+00,	3.58003E+01,	1.12094E+01,	0.00000E+00,	0,	0
  1.53600E+05,	1.00000E+01,	-1.59292E-02,	4.38643E+00,	3.57279E+01,	9.99370E+00,	0.00000E+00,	0,	0
  1.15200E+05,	1.00000E+01,	-1.59292E-02,	5.29364E+00,	3.55125E+01,	7.31414E+00,	0.00000E+00,	0,	0
  9.87429E+04,	1.00000E+01,	-1.59292E-02,	6.20908E+00,	3.54998E+01,	6.15205E+00,	0.00000E+00,	0,	0
  8.13176E+04,	1.00000E+01,	-1.59292E-02,	7.12478E+00,	3.54873E+01,	4.92039E+00,	0.00000E+00,	0,	0
  6.58286E+04,	1.00000E+01,	-1.59292E-02,	8.01792E+00,	3.54432E+01,	3.90131E+00,	0.00000E+00,	0,	0
  5.31692E+04,	1.00000E+01,	-1.59292E-02,	1.02155E+01,	3.55013E+01,	2.99753E+00,	0.00000E+00,	0,	0
  4.60800E+04,	1.00000E+01,	-1.59292E-02,	1.18020E+01,	3.54921E+01,	2.42013E+00,	0.00000E+00,	0,	0
  3.63789E+04,	1.00000E+01,	-1.59292E-02,	1.27320E+01,	3.55906E+01,	1.68431E+00,	0.00000E+00,	0,	0
  3.00522E+04,	1.00000E+01,	-1.59292E-02,	1.36305E+01,	3.54243E+01,	1.16045E+00,	0.00000E+00,	0,	0
  2.46857E+04,	1.00000E+01,	-1.59292E-02,	1.44947E+01,	3.56261E+01,	7.07438E-01,	0.00000E+00,	0,	0
  2.03294E+04,	1.00000E+01,	-1.59292E-02,	1.54800E+01,	3.56833E+01,	2.30102E-01,	0.00000E+00,	0,	0
  1.64571E+04,	1.00000E+01,	-1.59292E-02,	1.63872E+01,	3.57569E+01,	-1.80066E-01,	0.00000E+00,	0,	0
  1.35529E+04,	1.00000E+01,	-1.59292E-02,	1.72003E+01,	3.57894E+01,	-6.62591E-01,	0.00000E+00,	0,	0
  1.11484E+04,	1.00000E+01,	-1.59292E-02,	1.81022E+01,	3.59409E+01,	-1.11958E+00,	0.00000E+00,	0,	0
  9.60000E+03,	1.00000E+01,	-1.59292E-02,	2.08867E+01,	3.59861E+01,	-1.44044E+00,	0.00000E+00,	0,	0
  7.85455E+03,	1.00000E+01,	-1.59292E-02,	2.18291E+01,	3.61114E+01,	-1.91354E+00,	0.00000E+00,	0,	0
  6.40000E+03,	1.00000E+01,	-1.59292E-02,	2.27891E+01,	3.62329E+01,	-2.44243E+00,	0.00000E+00,	0,	0
  5.23636E+03,	1.00000E+01,	-1.59292E-02,	2.37443E+01,	3.63742E+01,	-3.00952E+00,	0.00000E+00,	0,	0
  4.32000E+03,	1.00000E+01,	-1.59292E-02,	2.46944E+01,	3.66330E+01,	-3.65756E+00,	0.00000E+00,	0,	0
  3.52653E+03,	1.00000E+01,	-1.59292E-02,	2.57064E+01,	3.68609E+01,	-4.44453E+00,	0.00000E+00,	0,	0
  2.88000E+03,	1.00000E+01,	-1.59292E-02,	2.66001E+01,	3.71789E+01,	-5.36485E+00,	0.00000E+00,	0,	0
  2.36712E+03,	1.00000E+01,	-1.59292E-02,	2.75945E+01,	3.75090E+01,	-6.24193E+00,	0.00000E+00,	0,	0
  1.96364E+03,	1.00000E+01,	-1.59292E-02,	2.83847E+01,	3.79996E+01,	-7.27500E+00,	0.00000E+00,	0,	0
  1.61495E+03,	1.00000E+01,	-1.59292E-02,	2.92879E+01,	3.83983E+01,	-8.62060E+00,	0.00000E+00,	0,	0
  1.32923E+03,	1.00000E+01,	-1.59292E-02,	3.02092E+01,	3.90436E+01,	-9.95927E+00,	0.00000E+00,	0,	0
  1.09367E+03,	1.00000E+01,	-1.59292E-02,	3.12610E+01,	3.96159E+01,	-1.15112E+01,	0.00000E+00,	0,	0
  9.00000E+02,	1.00000E+01,	-1.59292E-02,	3.62666E+01,	4.05155E+01,	-1.35375E+01,	0.00000E+00,	0,	0
  7.44828E+02,	1.00000E+01,	-1.59292E-02,	3.76276E+01,	4.13889E+01,	-1.56416E+01,	0.00000E+00,	0,	0
  6.17143E+02,	1.00000E+01,	-1.59292E-02,	3.89810E+01,	4.23664E+01,	-1.80291E+01,	0.00000E+00,	0,	0
  5.14286E+02,	1.00000E+01,	-1.59292E-02,	4.03706E+01,	4.34314E+01,	-2.06818E+01,	0.00000E+00,	0,	0
  4.15385E+02,	1.00000E+01,	-1.59292E-02,	4.17265E+01,	4.48576E+01,	-2.42616E+01,	0.00000E+00,	0,	0
  3.42857E+02,	1.00000E+01,	-1.59292E-02,	4.41059E+01,	4.63076E+01,	-2.80346E+01,	0.00000E+00,	0,	0
  2.84211E+02,	1.00000E+01,	-1.59292E-02,	4.67893E+01,	4.78933E+01,	-3.23007E+01,	0.00000E+00,	0,	0
  2.32258E+02,	1.00000E+01,	-1.59292E-02,	4.96407E+01,	4.97833E+01,	-3.76598E+01,	0.00000E+00,	0,	0
  1.91150E+02,	1.00000E+01,	-1.59292E-02,	5.27658E+01,	5.18404E+01,	-4.37266E+01,	0.00000E+00,	0,	0
  1.57664E+02,	1.00000E+01,	-1.59292E-02,	5.61848E+01,	5.40997E+01,	-5.07723E+01,	0.00000E+00,	0,	0
  1.30120E+02,	1.00000E+01,	-1.59292E-02,	5.99490E+01,	5.66462E+01,	-5.90405E+01,	0.00000E+00,	0,	0
  1.06931E+02,	1.00000E+01,	-1.59292E-02,	6.40540E+01,	5.95448E+01,	-6.90263E+01,	0.00000E+00,	0,	0
  8.85246E+01,	1.00000E+01,	-1.59292E-02,	6.96549E+01,	6.27251E+01,	-8.04610E+01,	0.00000E+00,	0,	0
  7.29730E+01,	1.00000E+01,	-1.59292E-02,	7.45239E+01,	6.65023E+01,	-9.44967E+01,	0.00000E+00,	0,	0
  6.00000E+01,	1.00000E+01,	-1.59292E-02,	7.97957E+01,	7.07626E+01,	-1.09352E+02,	0.00000E+00,	0,	0
  4.95413E+01,	1.00000E+01,	-1.59292E-02,	8.84311E+01,	7.57629E+01,	-1.28264E+02,	0.00000E+00,	0,	0
  4.06015E+01,	1.00000E+01,	-1.59292E-02,	9.20540E+01,	8.16318E+01,	-1.51323E+02,	0.00000E+00,	0,	0
  3.35404E+01,	1.00000E+01,	-1.59292E-02,	9.58201E+01,	8.70185E+01,	-1.77343E+02,	0.00000E+00,	0,	0
  2.75510E+01,	1.00000E+01,	-1.59292E-02,	9.96970E+01,	9.53508E+01,	-2.09763E+02,	0.00000E+00,	0,	0
  2.26891E+01,	1.00000E+01,	-1.59292E-02,	1.02710E+02,	1.04781E+02,	-2.47245E+02,	0.00000E+00,	0,	0
  1.87500E+01,	1.00000E+01,	-1.59292E-02,	1.06396E+02,	1.15771E+02,	-2.90712E+02,	0.00000E+00,	0,	0
  1.55172E+01,	1.00000E+01,	-1.59292E-02,	1.11929E+02,	1.28552E+02,	-3.41508E+02,	0.00000E+00,	0,	0
  1.28571E+01,	1.00000E+01,	-1.59292E-02,	1.16578E+02,	1.43858E+02,	-4.00723E+02,	0.00000E+00,	0,	0
  1.04651E+01,	1.00000E+01,	-1.59292E-02,	1.19321E+02,	1.63688E+02,	-4.77289E+02,	0.00000E+00,	0,	0
  8.65385E+00,	1.00000E+01,	-1.59292E-02,	1.23616E+02,	1.86295E+02,	-5.60850E+02,	0.00000E+00,	0,	0
  7.14286E+00,	1.00000E+01,	-1.59292E-02,	1.26026E+02,	2.13891E+02,	-6.59984E+02,	0.00000E+00,	0,	0
  5.84416E+00,	1.00000E+01,	-1.59292E-02,	1.28770E+02,	2.49004E+02,	-7.82085E+02,	0.00000E+00,	0,	0
  4.83871E+00,	1.00000E+01,	-1.59292E-02,	1.31916E+02,	2.89389E+02,	-9.16201E+02,	0.00000E+00,	0,	0
  3.98230E+00,	1.00000E+01,	-1.59292E-02,	1.35556E+02,	3.40067E+02,	-1.07812E+03,	0.00000E+00,	0,	0
  3.28467E+00,	1.00000E+01,	-1.59292E-02,	1.39739E+02,	4.01368E+02,	-1.26500E+03,	0.00000E+00,	0,	0
  2.69461E+00,	1.00000E+01,	-1.59292E-02,	1.43619E+02,	4.78288E+02,	-1.48730E+03,	0.00000E+00,	0,	0
  2.22772E+00,	1.00000E+01,	-1.59292E-02,	1.48119E+02,	5.67778E+02,	-1.73495E+03,	0.00000E+00,	0,	0
  1.82927E+00,	1.00000E+01,	-1.59292E-02,	1.53424E+02,	6.79595E+02,	-2.03055E+03,	0.00000E+00,	0,	0
  1.51007E+00,	1.00000E+01,	-1.59292E-02,	1.60414E+02,	8.09565E+02,	-2.35989E+03,	0.00000E+00,	0,	0
  1.24309E+00,	1.00000E+01,	-1.59292E-02,	1.64762E+02,	9.66821E+02,	-2.74145E+03,	0.00000E+00,	0,	0
  1.02273E+00,	1.00000E+01,	-1.59292E-02,	1.69204E+02,	1.15405E+03,	-3.18432E+03,	0.00000E+00,	0,	0
  8.45865E-01,	1.00000E+01,	-1.59292E-02,	1.76017E+02,	1.35634E+03,	-3.66193E+03,	0.00000E+00,	0,	0
  6.94444E-01,	1.00000E+01,	-1.59292E-02,	1.80397E+02,	1.60074E+03,	-4.23767E+03,	0.00000E+00,	0,	0
  5.73980E-01,	1.00000E+01,	-1.59292E-02,	1.84945E+02,	1.79452E+03,	-4.90171E+03,	0.00000E+00,	0,	0
  4.72689E-01,	1.00000E+01,	-1.59292E-02,	1.90323E+02,	2.08690E+03,	-5.66291E+03,	0.00000E+00,	0,	0
  3.90625E-01,	1.00000E+01,	-1.59292E-02,	1.96349E+02,	2.40752E+03,	-6.62654E+03,	0.00000E+00,	0,	0
  3.21429E-01,	1.00000E+01,	-1.59292E-02,	2.03523E+02,	2.76932E+03,	-7.66220E+03,	0.00000E+00,	0,	0
  2.64085E-01,	1.00000E+01,	-1.59292E-02,	2.12223E+02,	3.15665E+03,	-8.90537E+03,	0.00000E+00,	0,	0
  2.18023E-01,	1.00000E+01,	-1.59292E-02,	2.22328E+02,	3.56590E+03,	-1.03541E+04,	0.00000E+00,	0,	0
  1.79426E-01,	1.00000E+01,	-1.59292E-02,	2.34404E+02,	4.04149E+03,	-1.20412E+04,	0.00000E+00,	0,	0
  1.47638E-01,	1.00000E+01,	-1.59292E-02,	2.48889E+02,	4.56646E+03,	-1.40653E+04,	0.00000E+00,	0,	0
  1.21753E-01,	1.00000E+01,	-1.59292E-02,	2.66279E+02,	5.14864E+03,	-1.64361E+04,	0.00000E+00,	0,	0
  1.00446E-01,	1.00000E+01,	-1.59292E-02,	2.87149E+02,	5.80977E+03,	-1.92386E+04,	0.00000E+00,	0,	0