Z60W Data File: Version 1.1
CorrTest for Windows: SN CS310H1805157  V5.2.1111.9  2.5H6.220118
Sweep Frequency: Control Voltage
  Date:4-27-2026   Time:13:34:28
  Begin Information:            Cell Information
      Surface Area:           1
      Density:                7.8
      Weight:                 28
  End Information:              Cell Information
  Freq (Hz)     Ampl(mV)       Bias(V)      Time(Sec)       Z'(Ohm.cm^2)    Z''(Ohm.cm^2)        GD       Err      Range
End Comments
  3.07200E+05,	1.00000E+01,	-1.60691E-02,	2.45315E-02,	2.01163E+01,	1.35201E+01,	0.00000E+00,	0,	0
  2.76480E+05,	1.00000E+01,	-1.60691E-02,	1.62611E+00,	2.01297E+01,	1.18489E+01,	0.00000E+00,	0,	0
  2.30400E+05,	1.00000E+01,	-1.60691E-02,	2.52174E+00,	2.01932E+01,	9.87906E+00,	0.00000E+00,	0,	0
  1.72800E+05,	1.00000E+01,	-1.60691E-02,	3.44495E+00,	2.01884E+01,	7.33525E+00,	0.00000E+00,	0,	0
  1.53600E+05,	1.00000E+01,	-1.60691E-02,	4.34621E+00,	2.01673E+01,	6.49810E+00,	0.00000E+00,	0,	0
  1.15200E+05,	1.00000E+01,	-1.60691E-02,	5.25089E+00,	2.02065E+01,	4.73684E+00,	0.00000E+00,	0,	0
  9.87429E+04,	1.00000E+01,	-1.60691E-02,	6.14659E+00,	2.02069E+01,	3.99710E+00,	0.00000E+00,	0,	0
  8.13176E+04,	1.00000E+01,	-1.60691E-02,	7.05158E+00,	2.02352E+01,	3.18615E+00,	0.00000E+00,	0,	0
  6.58286E+04,	1.00000E+01,	-1.60691E-02,	7.94762E+00,	2.02550E+01,	2.45525E+00,	0.00000E+00,	0,	0
  5.31692E+04,	1.00000E+01,	-1.60691E-02,	1.00979E+01,	2.02290E+01,	1.83203E+00,	0.00000E+00,	0,	0
  4.60800E+04,	1.00000E+01,	-1.60691E-02,	1.16681E+01,	2.02698E+01,	1.45151E+00,	0.00000E+00,	0,	0
  3.63789E+04,	1.00000E+01,	-1.60691E-02,	1.26002E+01,	2.02959E+01,	9.30572E-01,	0.00000E+00,	0,	0
  3.00522E+04,	1.00000E+01,	-1.60691E-02,	1.34558E+01,	2.03694E+01,	6.04195E-01,	0.00000E+00,	0,	0
  2.46857E+04,	1.00000E+01,	-1.60691E-02,	1.43412E+01,	2.03567E+01,	2.18942E-01,	0.00000E+00,	0,	0
  2.03294E+04,	1.00000E+01,	-1.60691E-02,	1.52742E+01,	2.04233E+01,	-1.17946E-01,	0.00000E+00,	0,	0
  1.64571E+04,	1.00000E+01,	-1.60691E-02,	1.61656E+01,	2.04670E+01,	-4.42684E-01,	0.00000E+00,	0,	0
  1.35529E+04,	1.00000E+01,	-1.60691E-02,	1.70069E+01,	2.05155E+01,	-7.64523E-01,	0.00000E+00,	0,	0
  1.11484E+04,	1.00000E+01,	-1.60691E-02,	1.79146E+01,	2.06102E+01,	-1.11734E+00,	0.00000E+00,	0,	0
  9.60000E+03,	1.00000E+01,	-1.60691E-02,	2.06995E+01,	2.06828E+01,	-1.41233E+00,	0.00000E+00,	0,	0
  7.85455E+03,	1.00000E+01,	-1.60691E-02,	2.16808E+01,	2.08070E+01,	-1.80422E+00,	0.00000E+00,	0,	0
  6.40000E+03,	1.00000E+01,	-1.60691E-02,	2.26256E+01,	2.09133E+01,	-2.24568E+00,	0.00000E+00,	0,	0
  5.23636E+03,	1.00000E+01,	-1.60691E-02,	2.35702E+01,	2.10924E+01,	-2.74376E+00,	0.00000E+00,	0,	0
  4.32000E+03,	1.00000E+01,	-1.60691E-02,	2.44637E+01,	2.12801E+01,	-3.29458E+00,	0.00000E+00,	0,	0
  3.52653E+03,	1.00000E+01,	-1.60691E-02,	2.54620E+01,	2.14711E+01,	-3.92994E+00,	0.00000E+00,	0,	0
  2.88000E+03,	1.00000E+01,	-1.60691E-02,	2.63890E+01,	2.17991E+01,	-4.64333E+00,	0.00000E+00,	0,	0
  2.36712E+03,	1.00000E+01,	-1.60691E-02,	2.74632E+01,	2.21251E+01,	-5.45066E+00,	0.00000E+00,	0,	0
  1.96364E+03,	1.00000E+01,	-1.60691E-02,	2.82209E+01,	2.24125E+01,	-6.33636E+00,	0.00000E+00,	0,	0
  1.61495E+03,	1.00000E+01,	-1.60691E-02,	2.91265E+01,	2.28935E+01,	-7.38606E+00,	0.00000E+00,	0,	0
  1.32923E+03,	1.00000E+01,	-1.60691E-02,	3.00600E+01,	2.34291E+01,	-8.62814E+00,	0.00000E+00,	0,	0
  1.09367E+03,	1.00000E+01,	-1.60691E-02,	3.11205E+01,	2.39312E+01,	-9.89741E+00,	0.00000E+00,	0,	0
  9.00000E+02,	1.00000E+01,	-1.60691E-02,	3.61179E+01,	2.46326E+01,	-1.15274E+01,	0.00000E+00,	0,	0
  7.44828E+02,	1.00000E+01,	-1.60691E-02,	3.75005E+01,	2.53251E+01,	-1.33016E+01,	0.00000E+00,	0,	0
  6.17143E+02,	1.00000E+01,	-1.60691E-02,	3.88700E+01,	2.61048E+01,	-1.53111E+01,	0.00000E+00,	0,	0
  5.14286E+02,	1.00000E+01,	-1.60691E-02,	4.02304E+01,	2.69474E+01,	-1.75633E+01,	0.00000E+00,	0,	0
  4.15385E+02,	1.00000E+01,	-1.60691E-02,	4.16233E+01,	2.80458E+01,	-2.06522E+01,	0.00000E+00,	0,	0
  3.42857E+02,	1.00000E+01,	-1.60691E-02,	4.40200E+01,	2.91666E+01,	-2.39168E+01,	0.00000E+00,	0,	0
  2.84211E+02,	1.00000E+01,	-1.60691E-02,	4.67143E+01,	3.03718E+01,	-2.76385E+01,	0.00000E+00,	0,	0
  2.32258E+02,	1.00000E+01,	-1.60691E-02,	4.95943E+01,	3.18456E+01,	-3.23611E+01,	0.00000E+00,	0,	0
  1.91150E+02,	1.00000E+01,	-1.60691E-02,	5.27329E+01,	3.34355E+01,	-3.77364E+01,	0.00000E+00,	0,	0
  1.57664E+02,	1.00000E+01,	-1.60691E-02,	5.61861E+01,	3.52009E+01,	-4.40137E+01,	0.00000E+00,	0,	0
  1.30120E+02,	1.00000E+01,	-1.60691E-02,	5.99115E+01,	3.72142E+01,	-5.14251E+01,	0.00000E+00,	0,	0
  1.06931E+02,	1.00000E+01,	-1.60691E-02,	6.40139E+01,	3.95357E+01,	-6.03956E+01,	0.00000E+00,	0,	0
  8.85246E+01,	1.00000E+01,	-1.60691E-02,	6.96166E+01,	4.21123E+01,	-7.06869E+01,	0.00000E+00,	0,	0
  7.29730E+01,	1.00000E+01,	-1.60691E-02,	7.44496E+01,	4.51955E+01,	-8.33400E+01,	0.00000E+00,	0,	0
  6.00000E+01,	1.00000E+01,	-1.60691E-02,	7.96862E+01,	4.89118E+01,	-9.69166E+01,	0.00000E+00,	0,	0
  4.95413E+01,	1.00000E+01,	-1.60691E-02,	8.82793E+01,	5.31932E+01,	-1.14025E+02,	0.00000E+00,	0,	0
  4.06015E+01,	1.00000E+01,	-1.60691E-02,	9.18895E+01,	5.83664E+01,	-1.34904E+02,	0.00000E+00,	0,	0
  3.35404E+01,	1.00000E+01,	-1.60691E-02,	9.56583E+01,	6.32397E+01,	-1.58428E+02,	0.00000E+00,	0,	0
  2.75510E+01,	1.00000E+01,	-1.60691E-02,	9.95117E+01,	7.07848E+01,	-1.87799E+02,	0.00000E+00,	0,	0
  2.26891E+01,	1.00000E+01,	-1.60691E-02,	1.02459E+02,	7.95171E+01,	-2.21667E+02,	0.00000E+00,	0,	0
  1.87500E+01,	1.00000E+01,	-1.60691E-02,	1.06173E+02,	8.98416E+01,	-2.60852E+02,	0.00000E+00,	0,	0
  1.55172E+01,	1.00000E+01,	-1.60691E-02,	1.11705E+02,	1.02026E+02,	-3.06495E+02,	0.00000E+00,	0,	0
  1.28571E+01,	1.00000E+01,	-1.60691E-02,	1.16341E+02,	1.16794E+02,	-3.59537E+02,	0.00000E+00,	0,	0
  1.04651E+01,	1.00000E+01,	-1.60691E-02,	1.19041E+02,	1.36236E+02,	-4.27854E+02,	0.00000E+00,	0,	0
  8.65385E+00,	1.00000E+01,	-1.60691E-02,	1.23301E+02,	1.58468E+02,	-5.01874E+02,	0.00000E+00,	0,	0
  7.14286E+00,	1.00000E+01,	-1.60691E-02,	1.25703E+02,	1.85768E+02,	-5.89202E+02,	0.00000E+00,	0,	0
  5.84416E+00,	1.00000E+01,	-1.60691E-02,	1.28437E+02,	2.20750E+02,	-6.96104E+02,	0.00000E+00,	0,	0
  4.83871E+00,	1.00000E+01,	-1.60691E-02,	1.31569E+02,	2.60755E+02,	-8.12794E+02,	0.00000E+00,	0,	0
  3.98230E+00,	1.00000E+01,	-1.60691E-02,	1.35188E+02,	3.10854E+02,	-9.51832E+02,	0.00000E+00,	0,	0
  3.28467E+00,	1.00000E+01,	-1.60691E-02,	1.39354E+02,	3.70691E+02,	-1.11058E+03,	0.00000E+00,	0,	0
  2.69461E+00,	1.00000E+01,	-1.60691E-02,	1.43288E+02,	4.44734E+02,	-1.29780E+03,	0.00000E+00,	0,	0
  2.22772E+00,	1.00000E+01,	-1.60691E-02,	1.47785E+02,	5.28596E+02,	-1.50386E+03,	0.00000E+00,	0,	0
  1.82927E+00,	1.00000E+01,	-1.60691E-02,	1.53093E+02,	6.30325E+02,	-1.74733E+03,	0.00000E+00,	0,	0
  1.51007E+00,	1.00000E+01,	-1.60691E-02,	1.60047E+02,	7.44060E+02,	-2.01682E+03,	0.00000E+00,	0,	0
  1.24309E+00,	1.00000E+01,	-1.60691E-02,	1.64360E+02,	8.75360E+02,	-2.32870E+03,	0.00000E+00,	0,	0
  1.02273E+00,	1.00000E+01,	-1.60691E-02,	1.68816E+02,	1.02556E+03,	-2.69210E+03,	0.00000E+00,	0,	0
  8.45865E-01,	1.00000E+01,	-1.60691E-02,	1.75636E+02,	1.18050E+03,	-3.09017E+03,	0.00000E+00,	0,	0
  6.94444E-01,	1.00000E+01,	-1.60691E-02,	1.80023E+02,	1.36238E+03,	-3.57542E+03,	0.00000E+00,	0,	0
  5.73980E-01,	1.00000E+01,	-1.60691E-02,	1.84594E+02,	1.49905E+03,	-4.14787E+03,	0.00000E+00,	0,	0
  4.72689E-01,	1.00000E+01,	-1.60691E-02,	1.89950E+02,	1.71120E+03,	-4.81287E+03,	0.00000E+00,	0,	0
  3.90625E-01,	1.00000E+01,	-1.60691E-02,	1.95964E+02,	1.94331E+03,	-5.66607E+03,	0.00000E+00,	0,	0
  3.21429E-01,	1.00000E+01,	-1.60691E-02,	2.03070E+02,	2.21004E+03,	-6.59807E+03,	0.00000E+00,	0,	0
  2.64085E-01,	1.00000E+01,	-1.60691E-02,	2.11728E+02,	2.50167E+03,	-7.71968E+03,	0.00000E+00,	0,	0
  2.18023E-01,	1.00000E+01,	-1.60691E-02,	2.21838E+02,	2.81698E+03,	-9.03683E+03,	0.00000E+00,	0,	0
  1.79426E-01,	1.00000E+01,	-1.60691E-02,	2.33899E+02,	3.19532E+03,	-1.05848E+04,	0.00000E+00,	0,	0
  1.47638E-01,	1.00000E+01,	-1.60691E-02,	2.48367E+02,	3.62241E+03,	-1.24395E+04,	0.00000E+00,	0,	0
  1.21753E-01,	1.00000E+01,	-1.60691E-02,	2.65778E+02,	4.11045E+03,	-1.46138E+04,	0.00000E+00,	0,	0
  1.00446E-01,	1.00000E+01,	-1.60691E-02,	2.86699E+02,	4.67640E+03,	-1.71871E+04,	0.00000E+00,	0,	0