Z60W Data File: Version 1.1
CorrTest for Windows: SN CS310H1805157  V5.2.1111.9  2.5H6.220118
Sweep Frequency: Control Voltage
  Date:4-27-2026   Time:16:01:44
  Begin Information:            Cell Information
      Surface Area:           1
      Density:                7.8
      Weight:                 28
  End Information:              Cell Information
  Freq (Hz)     Ampl(mV)       Bias(V)      Time(Sec)       Z'(Ohm.cm^2)    Z''(Ohm.cm^2)        GD       Err      Range
End Comments
  3.07200E+05,	1.00000E+01,	-1.76307E-02,	2.29413E-02,	1.01183E+02,	3.66548E+01,	0.00000E+00,	0,	0
  2.76480E+05,	1.00000E+01,	-1.76307E-02,	1.63407E+00,	9.89403E+01,	3.27577E+01,	0.00000E+00,	0,	0
  2.30400E+05,	1.00000E+01,	-1.76307E-02,	2.54212E+00,	9.71115E+01,	2.74552E+01,	0.00000E+00,	0,	0
  1.72800E+05,	1.00000E+01,	-1.76307E-02,	3.44931E+00,	9.46387E+01,	2.03018E+01,	0.00000E+00,	0,	0
  1.53600E+05,	1.00000E+01,	-1.76307E-02,	4.35320E+00,	9.39970E+01,	1.84914E+01,	0.00000E+00,	0,	0
  1.15200E+05,	1.00000E+01,	-1.76307E-02,	5.24766E+00,	9.32662E+01,	1.32615E+01,	0.00000E+00,	0,	0
  9.87429E+04,	1.00000E+01,	-1.76307E-02,	6.15398E+00,	9.28212E+01,	1.12474E+01,	0.00000E+00,	0,	0
  8.13176E+04,	1.00000E+01,	-1.76307E-02,	7.05936E+00,	9.26656E+01,	9.10003E+00,	0.00000E+00,	0,	0
  6.58286E+04,	1.00000E+01,	-1.76307E-02,	7.96552E+00,	9.27023E+01,	7.01692E+00,	0.00000E+00,	0,	0
  5.31692E+04,	1.00000E+01,	-1.76307E-02,	8.96874E+00,	9.27179E+01,	5.46425E+00,	0.00000E+00,	0,	0
  4.60800E+04,	1.00000E+01,	-1.76307E-02,	1.05632E+01,	9.24917E+01,	4.48953E+00,	0.00000E+00,	0,	0
  3.63789E+04,	1.00000E+01,	-1.76307E-02,	1.15369E+01,	9.26023E+01,	3.33076E+00,	0.00000E+00,	0,	0
  3.00522E+04,	1.00000E+01,	-1.76307E-02,	1.24047E+01,	9.28454E+01,	1.53858E+00,	0.00000E+00,	0,	0
  2.46857E+04,	1.00000E+01,	-1.76307E-02,	1.32539E+01,	9.27223E+01,	1.57574E+00,	0.00000E+00,	0,	0
  2.03294E+04,	1.00000E+01,	-1.76307E-02,	1.41998E+01,	9.29252E+01,	7.52626E-01,	0.00000E+00,	0,	0
  1.64571E+04,	1.00000E+01,	-1.76307E-02,	1.50950E+01,	9.28313E+01,	3.80789E-01,	0.00000E+00,	0,	0
  1.35529E+04,	1.00000E+01,	-1.76307E-02,	1.59030E+01,	9.28089E+01,	-1.97097E-01,	0.00000E+00,	0,	0
  1.11484E+04,	1.00000E+01,	-1.76307E-02,	1.67999E+01,	9.28455E+01,	-7.35271E-01,	0.00000E+00,	0,	0
  9.60000E+03,	1.00000E+01,	-1.76307E-02,	1.84674E+01,	9.30293E+01,	-1.48991E+00,	0.00000E+00,	0,	0
  7.85455E+03,	1.00000E+01,	-1.76307E-02,	1.94250E+01,	9.31417E+01,	-1.87841E+00,	0.00000E+00,	0,	0
  6.40000E+03,	1.00000E+01,	-1.76307E-02,	2.03866E+01,	9.33765E+01,	-2.76152E+00,	0.00000E+00,	0,	0
  5.23636E+03,	1.00000E+01,	-1.76307E-02,	2.13414E+01,	9.34258E+01,	-3.50581E+00,	0.00000E+00,	0,	0
  4.32000E+03,	1.00000E+01,	-1.76307E-02,	2.22369E+01,	9.38501E+01,	-4.31321E+00,	0.00000E+00,	0,	0
  3.52653E+03,	1.00000E+01,	-1.76307E-02,	2.32393E+01,	9.41445E+01,	-5.33695E+00,	0.00000E+00,	0,	0
  2.88000E+03,	1.00000E+01,	-1.76307E-02,	2.41682E+01,	9.40500E+01,	-6.03831E+00,	0.00000E+00,	0,	0
  2.36712E+03,	1.00000E+01,	-1.76307E-02,	2.51745E+01,	9.47964E+01,	-7.62699E+00,	0.00000E+00,	0,	0
  1.96364E+03,	1.00000E+01,	-1.76307E-02,	2.59402E+01,	9.48992E+01,	-8.82816E+00,	0.00000E+00,	0,	0
  1.61495E+03,	1.00000E+01,	-1.76307E-02,	2.68452E+01,	9.58817E+01,	-1.05507E+01,	0.00000E+00,	0,	0
  1.32923E+03,	1.00000E+01,	-1.76307E-02,	2.78214E+01,	9.60526E+01,	-1.26054E+01,	0.00000E+00,	0,	0
  1.09367E+03,	1.00000E+01,	-1.76307E-02,	2.88941E+01,	9.70831E+01,	-1.44331E+01,	0.00000E+00,	0,	0
  9.00000E+02,	1.00000E+01,	-1.76307E-02,	3.38737E+01,	9.80693E+01,	-1.71609E+01,	0.00000E+00,	0,	0
  7.44828E+02,	1.00000E+01,	-1.76307E-02,	3.52509E+01,	9.91557E+01,	-1.99690E+01,	0.00000E+00,	0,	0
  6.17143E+02,	1.00000E+01,	-1.76307E-02,	3.66189E+01,	1.00372E+02,	-2.31829E+01,	0.00000E+00,	0,	0
  5.14286E+02,	1.00000E+01,	-1.76307E-02,	3.79922E+01,	1.01760E+02,	-2.67220E+01,	0.00000E+00,	0,	0
  4.15385E+02,	1.00000E+01,	-1.76307E-02,	3.94199E+01,	1.03681E+02,	-3.15165E+01,	0.00000E+00,	0,	0
  3.42857E+02,	1.00000E+01,	-1.76307E-02,	4.18552E+01,	1.05687E+02,	-3.64666E+01,	0.00000E+00,	0,	0
  2.84211E+02,	1.00000E+01,	-1.76307E-02,	4.63214E+01,	1.08138E+02,	-4.20972E+01,	0.00000E+00,	0,	0
  2.32258E+02,	1.00000E+01,	-1.76307E-02,	4.92320E+01,	1.10912E+02,	-4.90520E+01,	0.00000E+00,	0,	0
  1.91150E+02,	1.00000E+01,	-1.76307E-02,	5.23484E+01,	1.13903E+02,	-5.67700E+01,	0.00000E+00,	0,	0
  1.57664E+02,	1.00000E+01,	-1.76307E-02,	5.57567E+01,	1.17330E+02,	-6.56443E+01,	0.00000E+00,	0,	0
  1.30120E+02,	1.00000E+01,	-1.76307E-02,	5.95219E+01,	1.21148E+02,	-7.58730E+01,	0.00000E+00,	0,	0
  1.06931E+02,	1.00000E+01,	-1.76307E-02,	6.36399E+01,	1.25483E+02,	-8.81078E+01,	0.00000E+00,	0,	0
  8.85246E+01,	1.00000E+01,	-1.76307E-02,	6.92723E+01,	1.30242E+02,	-1.02039E+02,	0.00000E+00,	0,	0
  7.29730E+01,	1.00000E+01,	-1.76307E-02,	7.41630E+01,	1.35898E+02,	-1.18975E+02,	0.00000E+00,	0,	0
  6.00000E+01,	1.00000E+01,	-1.76307E-02,	7.94201E+01,	1.41475E+02,	-1.36254E+02,	0.00000E+00,	0,	0
  4.95413E+01,	1.00000E+01,	-1.76307E-02,	8.51704E+01,	1.48145E+02,	-1.58334E+02,	0.00000E+00,	0,	0
  4.06015E+01,	1.00000E+01,	-1.76307E-02,	8.88727E+01,	1.56083E+02,	-1.85380E+02,	0.00000E+00,	0,	0
  3.35404E+01,	1.00000E+01,	-1.76307E-02,	9.26640E+01,	1.63126E+02,	-2.16163E+02,	0.00000E+00,	0,	0
  2.75510E+01,	1.00000E+01,	-1.76307E-02,	9.65226E+01,	1.74016E+02,	-2.53994E+02,	0.00000E+00,	0,	0
  2.26891E+01,	1.00000E+01,	-1.76307E-02,	9.94745E+01,	1.85841E+02,	-2.97772E+02,	0.00000E+00,	0,	0
  1.87500E+01,	1.00000E+01,	-1.76307E-02,	1.03171E+02,	1.99236E+02,	-3.48473E+02,	0.00000E+00,	0,	0
  1.55172E+01,	1.00000E+01,	-1.76307E-02,	1.08743E+02,	2.14446E+02,	-4.07825E+02,	0.00000E+00,	0,	0
  1.28571E+01,	1.00000E+01,	-1.76307E-02,	1.13418E+02,	2.31948E+02,	-4.77087E+02,	0.00000E+00,	0,	0
  1.04651E+01,	1.00000E+01,	-1.76307E-02,	1.16167E+02,	2.54220E+02,	-5.67124E+02,	0.00000E+00,	0,	0
  8.65385E+00,	1.00000E+01,	-1.76307E-02,	1.20503E+02,	2.79186E+02,	-6.65754E+02,	0.00000E+00,	0,	0
  7.14286E+00,	1.00000E+01,	-1.76307E-02,	1.22986E+02,	3.08458E+02,	-7.82938E+02,	0.00000E+00,	0,	0
  5.84416E+00,	1.00000E+01,	-1.76307E-02,	1.25758E+02,	3.45223E+02,	-9.28253E+02,	0.00000E+00,	0,	0
  4.83871E+00,	1.00000E+01,	-1.76307E-02,	1.28913E+02,	3.86925E+02,	-1.08930E+03,	0.00000E+00,	0,	0
  3.98230E+00,	1.00000E+01,	-1.76307E-02,	1.32513E+02,	4.38470E+02,	-1.28561E+03,	0.00000E+00,	0,	0
  3.28467E+00,	1.00000E+01,	-1.76307E-02,	1.36673E+02,	5.00469E+02,	-1.51376E+03,	0.00000E+00,	0,	0
  2.69461E+00,	1.00000E+01,	-1.76307E-02,	1.40562E+02,	5.78175E+02,	-1.78919E+03,	0.00000E+00,	0,	0
  2.22772E+00,	1.00000E+01,	-1.76307E-02,	1.45055E+02,	6.68621E+02,	-2.10031E+03,	0.00000E+00,	0,	0
  1.82927E+00,	1.00000E+01,	-1.76307E-02,	1.50412E+02,	7.82749E+02,	-2.47733E+03,	0.00000E+00,	0,	0
  1.51007E+00,	1.00000E+01,	-1.76307E-02,	1.57351E+02,	9.18367E+02,	-2.90439E+03,	0.00000E+00,	0,	0
  1.24309E+00,	1.00000E+01,	-1.76307E-02,	1.61708E+02,	1.08711E+03,	-3.40861E+03,	0.00000E+00,	0,	0
  1.02273E+00,	1.00000E+01,	-1.76307E-02,	1.66167E+02,	1.29585E+03,	-4.00220E+03,	0.00000E+00,	0,	0
  8.45865E-01,	1.00000E+01,	-1.76307E-02,	1.72982E+02,	1.53579E+03,	-4.65437E+03,	0.00000E+00,	0,	0
  6.94444E-01,	1.00000E+01,	-1.76307E-02,	1.77401E+02,	1.84034E+03,	-5.44710E+03,	0.00000E+00,	0,	0
  5.73980E-01,	1.00000E+01,	-1.76307E-02,	1.81993E+02,	2.12098E+03,	-6.34158E+03,	0.00000E+00,	0,	0
  4.72689E-01,	1.00000E+01,	-1.76307E-02,	1.87404E+02,	2.53945E+03,	-7.37540E+03,	0.00000E+00,	0,	0
  3.90625E-01,	1.00000E+01,	-1.76307E-02,	1.93429E+02,	3.01775E+03,	-8.62958E+03,	0.00000E+00,	0,	0
  3.21429E-01,	1.00000E+01,	-1.76307E-02,	2.00590E+02,	3.59336E+03,	-9.98353E+03,	0.00000E+00,	0,	0
  2.64085E-01,	1.00000E+01,	-1.76307E-02,	2.18005E+02,	4.27503E+03,	-1.13660E+04,	0.00000E+00,	0,	0
  2.18023E-01,	1.00000E+01,	-1.76307E-02,	2.28083E+02,	4.82040E+03,	-1.35082E+04,	0.00000E+00,	0,	0
  1.79426E-01,	1.00000E+01,	-1.76307E-02,	2.40156E+02,	5.70576E+03,	-1.53710E+04,	0.00000E+00,	0,	0
  1.47638E-01,	1.00000E+01,	-1.76307E-02,	2.54645E+02,	6.56102E+03,	-1.77749E+04,	0.00000E+00,	0,	0
  1.21753E-01,	1.00000E+01,	-1.76307E-02,	2.72013E+02,	7.49181E+03,	-2.05502E+04,	0.00000E+00,	0,	0
  1.00446E-01,	1.00000E+01,	-1.76307E-02,	2.92885E+02,	8.50184E+03,	-2.38014E+04,	0.00000E+00,	0,	0