Z60W Data File: Version 1.1
CorrTest for Windows: SN CS310H1805157  V5.2.1111.9  2.5H6.220118
Sweep Frequency: Control Voltage
  Date:4-27-2026   Time:08:45:01
  Begin Information:            Cell Information
      Surface Area:           1
      Density:                7.8
      Weight:                 28
  End Information:              Cell Information
  Freq (Hz)     Ampl(mV)       Bias(V)      Time(Sec)       Z'(Ohm.cm^2)    Z''(Ohm.cm^2)        GD       Err      Range
End Comments
  3.07200E+05,	1.00000E+01,	-1.83533E-02,	2.35374E-02,	3.39837E+00,	5.49388E+00,	0.00000E+00,	0,	0
  2.76480E+05,	1.00000E+01,	-1.83533E-02,	1.66444E+00,	3.85686E+00,	4.55148E+00,	0.00000E+00,	0,	0
  2.30400E+05,	1.00000E+01,	-1.83533E-02,	2.57561E+00,	4.25755E+00,	3.79736E+00,	0.00000E+00,	0,	0
  1.72800E+05,	1.00000E+01,	-1.83533E-02,	3.47237E+00,	4.63252E+00,	2.80603E+00,	0.00000E+00,	0,	0
  1.53600E+05,	1.00000E+01,	-1.83533E-02,	4.36889E+00,	4.72587E+00,	2.45554E+00,	0.00000E+00,	0,	0
  1.15200E+05,	1.00000E+01,	-1.83533E-02,	5.27042E+00,	4.88895E+00,	1.77925E+00,	0.00000E+00,	0,	0
  9.87429E+04,	1.00000E+01,	-1.83533E-02,	6.15902E+00,	4.97205E+00,	1.47522E+00,	0.00000E+00,	0,	0
  8.13176E+04,	1.00000E+01,	-1.83533E-02,	7.07389E+00,	5.03084E+00,	1.15747E+00,	0.00000E+00,	0,	0
  6.58286E+04,	1.00000E+01,	-1.83533E-02,	7.96840E+00,	5.07433E+00,	8.56693E-01,	0.00000E+00,	0,	0
  5.31692E+04,	1.00000E+01,	-1.83533E-02,	1.00989E+01,	5.10102E+00,	5.60109E-01,	0.00000E+00,	0,	0
  4.60800E+04,	1.00000E+01,	-1.83533E-02,	1.16895E+01,	5.12306E+00,	4.01204E-01,	0.00000E+00,	0,	0
  3.63789E+04,	1.00000E+01,	-1.83533E-02,	1.26210E+01,	5.15073E+00,	1.69255E-01,	0.00000E+00,	0,	0
  3.00522E+04,	1.00000E+01,	-1.83533E-02,	1.34814E+01,	5.17711E+00,	-1.10002E-03,	0.00000E+00,	0,	0
  2.46857E+04,	1.00000E+01,	-1.83533E-02,	1.43484E+01,	5.20778E+00,	-1.78872E-01,	0.00000E+00,	0,	0
  2.03294E+04,	1.00000E+01,	-1.83533E-02,	1.53026E+01,	5.23984E+00,	-3.52002E-01,	0.00000E+00,	0,	0
  1.64571E+04,	1.00000E+01,	-1.83533E-02,	1.62031E+01,	5.28683E+00,	-5.45414E-01,	0.00000E+00,	0,	0
  1.35529E+04,	1.00000E+01,	-1.83533E-02,	1.70712E+01,	5.34109E+00,	-7.28303E-01,	0.00000E+00,	0,	0
  1.11484E+04,	1.00000E+01,	-1.83533E-02,	1.79627E+01,	5.39829E+00,	-9.24936E-01,	0.00000E+00,	0,	0
  9.60000E+03,	1.00000E+01,	-1.83533E-02,	1.96496E+01,	5.45306E+00,	-1.08634E+00,	0.00000E+00,	0,	0
  7.85455E+03,	1.00000E+01,	-1.83533E-02,	2.05941E+01,	5.54130E+00,	-1.32192E+00,	0.00000E+00,	0,	0
  6.40000E+03,	1.00000E+01,	-1.83533E-02,	2.15672E+01,	5.64072E+00,	-1.58837E+00,	0.00000E+00,	0,	0
  5.23636E+03,	1.00000E+01,	-1.83533E-02,	2.25140E+01,	5.75809E+00,	-1.88801E+00,	0.00000E+00,	0,	0
  4.32000E+03,	1.00000E+01,	-1.83533E-02,	2.34404E+01,	5.88726E+00,	-2.20252E+00,	0.00000E+00,	0,	0
  3.52653E+03,	1.00000E+01,	-1.83533E-02,	2.44391E+01,	6.03180E+00,	-2.58189E+00,	0.00000E+00,	0,	0
  2.88000E+03,	1.00000E+01,	-1.83533E-02,	2.53641E+01,	6.21164E+00,	-3.02631E+00,	0.00000E+00,	0,	0
  2.36712E+03,	1.00000E+01,	-1.83533E-02,	2.63642E+01,	6.39379E+00,	-3.52357E+00,	0.00000E+00,	0,	0
  1.96364E+03,	1.00000E+01,	-1.83533E-02,	2.71213E+01,	6.59123E+00,	-4.05881E+00,	0.00000E+00,	0,	0
  1.61495E+03,	1.00000E+01,	-1.83533E-02,	2.80274E+01,	6.82176E+00,	-4.71725E+00,	0.00000E+00,	0,	0
  1.32923E+03,	1.00000E+01,	-1.83533E-02,	2.89506E+01,	7.07684E+00,	-5.47148E+00,	0.00000E+00,	0,	0
  1.09367E+03,	1.00000E+01,	-1.83533E-02,	3.00124E+01,	7.37200E+00,	-6.36601E+00,	0.00000E+00,	0,	0
  9.00000E+02,	1.00000E+01,	-1.83533E-02,	3.49948E+01,	7.71663E+00,	-7.44488E+00,	0.00000E+00,	0,	0
  7.44828E+02,	1.00000E+01,	-1.83533E-02,	3.63533E+01,	8.07130E+00,	-8.64306E+00,	0.00000E+00,	0,	0
  6.17143E+02,	1.00000E+01,	-1.83533E-02,	3.77272E+01,	8.46612E+00,	-1.00474E+01,	0.00000E+00,	0,	0
  5.14286E+02,	1.00000E+01,	-1.83533E-02,	3.91235E+01,	8.89519E+00,	-1.16446E+01,	0.00000E+00,	0,	0
  4.15385E+02,	1.00000E+01,	-1.83533E-02,	4.05001E+01,	9.47837E+00,	-1.38640E+01,	0.00000E+00,	0,	0
  3.42857E+02,	1.00000E+01,	-1.83533E-02,	4.29031E+01,	1.00764E+01,	-1.62350E+01,	0.00000E+00,	0,	0
  2.84211E+02,	1.00000E+01,	-1.83533E-02,	4.73167E+01,	1.07816E+01,	-1.90182E+01,	0.00000E+00,	0,	0
  2.32258E+02,	1.00000E+01,	-1.83533E-02,	5.01899E+01,	1.16345E+01,	-2.25294E+01,	0.00000E+00,	0,	0
  1.91150E+02,	1.00000E+01,	-1.83533E-02,	5.33071E+01,	1.26050E+01,	-2.65489E+01,	0.00000E+00,	0,	0
  1.57664E+02,	1.00000E+01,	-1.83533E-02,	5.67153E+01,	1.37301E+01,	-3.12529E+01,	0.00000E+00,	0,	0
  1.30120E+02,	1.00000E+01,	-1.83533E-02,	6.04830E+01,	1.50738E+01,	-3.68177E+01,	0.00000E+00,	0,	0
  1.06931E+02,	1.00000E+01,	-1.83533E-02,	6.45719E+01,	1.66975E+01,	-4.35503E+01,	0.00000E+00,	0,	0
  8.85246E+01,	1.00000E+01,	-1.83533E-02,	7.01625E+01,	1.85653E+01,	-5.12569E+01,	0.00000E+00,	0,	0
  7.29730E+01,	1.00000E+01,	-1.83533E-02,	7.50099E+01,	2.08888E+01,	-6.06972E+01,	0.00000E+00,	0,	0
  6.00000E+01,	1.00000E+01,	-1.83533E-02,	8.02484E+01,	2.39593E+01,	-7.08888E+01,	0.00000E+00,	0,	0
  4.95413E+01,	1.00000E+01,	-1.83533E-02,	8.59841E+01,	2.74414E+01,	-8.33992E+01,	0.00000E+00,	0,	0
  4.06015E+01,	1.00000E+01,	-1.83533E-02,	8.96004E+01,	3.18721E+01,	-9.86721E+01,	0.00000E+00,	0,	0
  3.35404E+01,	1.00000E+01,	-1.83533E-02,	9.33691E+01,	3.63873E+01,	-1.15690E+02,	0.00000E+00,	0,	0
  2.75510E+01,	1.00000E+01,	-1.83533E-02,	9.71863E+01,	4.31461E+01,	-1.36726E+02,	0.00000E+00,	0,	0
  2.26891E+01,	1.00000E+01,	-1.83533E-02,	1.00142E+02,	5.12070E+01,	-1.60635E+02,	0.00000E+00,	0,	0
  1.87500E+01,	1.00000E+01,	-1.83533E-02,	1.03836E+02,	6.08460E+01,	-1.87855E+02,	0.00000E+00,	0,	0
  1.55172E+01,	1.00000E+01,	-1.83533E-02,	1.09426E+02,	7.22680E+01,	-2.18905E+02,	0.00000E+00,	0,	0
  1.28571E+01,	1.00000E+01,	-1.83533E-02,	1.14055E+02,	8.59632E+01,	-2.54188E+02,	0.00000E+00,	0,	0
  1.04651E+01,	1.00000E+01,	-1.83533E-02,	1.16778E+02,	1.03727E+02,	-2.98571E+02,	0.00000E+00,	0,	0
  8.65385E+00,	1.00000E+01,	-1.83533E-02,	1.22591E+02,	1.23467E+02,	-3.46210E+02,	0.00000E+00,	0,	0
  7.14286E+00,	1.00000E+01,	-1.83533E-02,	1.24994E+02,	1.46338E+02,	-4.00251E+02,	0.00000E+00,	0,	0
  5.84416E+00,	1.00000E+01,	-1.83533E-02,	1.27744E+02,	1.73527E+02,	-4.64801E+02,	0.00000E+00,	0,	0
  4.83871E+00,	1.00000E+01,	-1.83533E-02,	1.30873E+02,	2.02402E+02,	-5.34360E+02,	0.00000E+00,	0,	0
  3.98230E+00,	1.00000E+01,	-1.83533E-02,	1.34476E+02,	2.35343E+02,	-6.16864E+02,	0.00000E+00,	0,	0
  3.28467E+00,	1.00000E+01,	-1.83533E-02,	1.38681E+02,	2.71246E+02,	-7.11176E+02,	0.00000E+00,	0,	0
  2.69461E+00,	1.00000E+01,	-1.83533E-02,	1.42578E+02,	3.11767E+02,	-8.24103E+02,	0.00000E+00,	0,	0
  2.22772E+00,	1.00000E+01,	-1.83533E-02,	1.47112E+02,	3.54176E+02,	-9.51623E+02,	0.00000E+00,	0,	0
  1.82927E+00,	1.00000E+01,	-1.83533E-02,	1.52431E+02,	4.02173E+02,	-1.10687E+03,	0.00000E+00,	0,	0
  1.51007E+00,	1.00000E+01,	-1.83533E-02,	1.59373E+02,	4.53729E+02,	-1.28511E+03,	0.00000E+00,	0,	0
  1.24309E+00,	1.00000E+01,	-1.83533E-02,	1.63717E+02,	5.12564E+02,	-1.49947E+03,	0.00000E+00,	0,	0
  1.02273E+00,	1.00000E+01,	-1.83533E-02,	1.68151E+02,	5.79729E+02,	-1.75654E+03,	0.00000E+00,	0,	0
  8.45865E-01,	1.00000E+01,	-1.83533E-02,	1.74978E+02,	6.52583E+02,	-2.04919E+03,	0.00000E+00,	0,	0
  6.94444E-01,	1.00000E+01,	-1.83533E-02,	1.79354E+02,	7.41285E+02,	-2.41282E+03,	0.00000E+00,	0,	0
  5.73980E-01,	1.00000E+01,	-1.83533E-02,	1.83913E+02,	8.16732E+02,	-2.83671E+03,	0.00000E+00,	0,	0
  4.72689E-01,	1.00000E+01,	-1.83533E-02,	1.89262E+02,	9.34040E+02,	-3.34336E+03,	0.00000E+00,	0,	0
  3.90625E-01,	1.00000E+01,	-1.83533E-02,	1.95300E+02,	1.06572E+03,	-3.97347E+03,	0.00000E+00,	0,	0
  3.21429E-01,	1.00000E+01,	-1.83533E-02,	2.02427E+02,	1.23169E+03,	-4.68942E+03,	0.00000E+00,	0,	0
  2.64085E-01,	1.00000E+01,	-1.83533E-02,	2.11086E+02,	1.42684E+03,	-5.54885E+03,	0.00000E+00,	0,	0
  2.18023E-01,	1.00000E+01,	-1.83533E-02,	2.21215E+02,	1.65128E+03,	-6.55108E+03,	0.00000E+00,	0,	0
  1.79426E-01,	1.00000E+01,	-1.83533E-02,	2.33292E+02,	1.93367E+03,	-7.74222E+03,	0.00000E+00,	0,	0
  1.47638E-01,	1.00000E+01,	-1.83533E-02,	2.47811E+02,	2.27349E+03,	-9.16026E+03,	0.00000E+00,	0,	0
  1.21753E-01,	1.00000E+01,	-1.83533E-02,	2.65176E+02,	2.68644E+03,	-1.08234E+04,	0.00000E+00,	0,	0
  1.00446E-01,	1.00000E+01,	-1.83533E-02,	2.86045E+02,	3.19883E+03,	-1.27807E+04,	0.00000E+00,	0,	0