Z60W Data File: Version 1.1
CorrTest for Windows: SN CS310H1805157  V5.2.1111.9  2.5H6.220118
Sweep Frequency: Control Voltage
  Date:4-26-2026   Time:17:20:43
  Begin Information:            Cell Information
      Surface Area:           1
      Density:                7.8
      Weight:                 28
  End Information:              Cell Information
  Freq (Hz)     Ampl(mV)       Bias(V)      Time(Sec)       Z'(Ohm.cm^2)    Z''(Ohm.cm^2)        GD       Err      Range
End Comments
  3.07200E+05,	1.00000E+01,	6.14033E-03,	2.95811E-02,	8.77049E-01,	4.13700E+00,	0.00000E+00,	0,	0
  2.76480E+05,	1.00000E+01,	6.14033E-03,	1.63848E+00,	1.36224E+00,	3.38462E+00,	0.00000E+00,	0,	0
  2.30400E+05,	1.00000E+01,	6.14033E-03,	2.53550E+00,	1.83001E+00,	2.79791E+00,	0.00000E+00,	0,	0
  1.72800E+05,	1.00000E+01,	6.14033E-03,	3.42136E+00,	2.23256E+00,	2.07415E+00,	0.00000E+00,	0,	0
  1.53600E+05,	1.00000E+01,	6.14033E-03,	4.34476E+00,	2.32569E+00,	1.82944E+00,	0.00000E+00,	0,	0
  1.15200E+05,	1.00000E+01,	6.14033E-03,	5.24206E+00,	2.53159E+00,	1.30620E+00,	0.00000E+00,	0,	0
  9.87429E+04,	1.00000E+01,	6.14033E-03,	6.13707E+00,	2.59378E+00,	1.09671E+00,	0.00000E+00,	0,	0
  8.13176E+04,	1.00000E+01,	6.14033E-03,	7.03889E+00,	2.66464E+00,	8.69117E-01,	0.00000E+00,	0,	0
  6.58286E+04,	1.00000E+01,	6.14033E-03,	7.95870E+00,	2.71427E+00,	6.46505E-01,	0.00000E+00,	0,	0
  5.31692E+04,	1.00000E+01,	6.14033E-03,	1.11922E+01,	2.75815E+00,	4.05069E-01,	0.00000E+00,	0,	0
  4.60800E+04,	1.00000E+01,	6.14033E-03,	1.27311E+01,	2.77465E+00,	2.99421E-01,	0.00000E+00,	0,	0
  3.63789E+04,	1.00000E+01,	6.14033E-03,	1.36804E+01,	2.80231E+00,	1.39483E-01,	0.00000E+00,	0,	0
  3.00522E+04,	1.00000E+01,	6.14033E-03,	1.45473E+01,	2.82204E+00,	9.32054E-03,	0.00000E+00,	0,	0
  2.46857E+04,	1.00000E+01,	6.14033E-03,	1.54358E+01,	2.83994E+00,	-1.09827E-01,	0.00000E+00,	0,	0
  2.03294E+04,	1.00000E+01,	6.14033E-03,	1.63684E+01,	2.86730E+00,	-2.25830E-01,	0.00000E+00,	0,	0
  1.64571E+04,	1.00000E+01,	6.14033E-03,	1.72642E+01,	2.89613E+00,	-3.56260E-01,	0.00000E+00,	0,	0
  1.35529E+04,	1.00000E+01,	6.14033E-03,	1.80636E+01,	2.94049E+00,	-4.82305E-01,	0.00000E+00,	0,	0
  1.11484E+04,	1.00000E+01,	6.14033E-03,	1.89675E+01,	2.97951E+00,	-6.11184E-01,	0.00000E+00,	0,	0
  9.60000E+03,	1.00000E+01,	6.14033E-03,	2.17829E+01,	2.99029E+00,	-7.11566E-01,	0.00000E+00,	0,	0
  7.85455E+03,	1.00000E+01,	6.14033E-03,	2.27244E+01,	3.04584E+00,	-8.64304E-01,	0.00000E+00,	0,	0
  6.40000E+03,	1.00000E+01,	6.14033E-03,	2.36716E+01,	3.10532E+00,	-1.04432E+00,	0.00000E+00,	0,	0
  5.23636E+03,	1.00000E+01,	6.14033E-03,	2.46348E+01,	3.17555E+00,	-1.24318E+00,	0.00000E+00,	0,	0
  4.32000E+03,	1.00000E+01,	6.14033E-03,	2.55584E+01,	3.24778E+00,	-1.46025E+00,	0.00000E+00,	0,	0
  3.52653E+03,	1.00000E+01,	6.14033E-03,	2.65947E+01,	3.33525E+00,	-1.72357E+00,	0.00000E+00,	0,	0
  2.88000E+03,	1.00000E+01,	6.14033E-03,	2.75301E+01,	3.43581E+00,	-2.02917E+00,	0.00000E+00,	0,	0
  2.36712E+03,	1.00000E+01,	6.14033E-03,	2.85293E+01,	3.54337E+00,	-2.37833E+00,	0.00000E+00,	0,	0
  1.96364E+03,	1.00000E+01,	6.14033E-03,	2.93002E+01,	3.65104E+00,	-2.75800E+00,	0.00000E+00,	0,	0
  1.61495E+03,	1.00000E+01,	6.14033E-03,	3.02061E+01,	3.78913E+00,	-3.23614E+00,	0.00000E+00,	0,	0
  1.32923E+03,	1.00000E+01,	6.14033E-03,	3.11611E+01,	3.94199E+00,	-3.78608E+00,	0.00000E+00,	0,	0
  1.09367E+03,	1.00000E+01,	6.14033E-03,	3.21936E+01,	4.10815E+00,	-4.45142E+00,	0.00000E+00,	0,	0
  9.00000E+02,	1.00000E+01,	6.14033E-03,	3.72140E+01,	4.33582E+00,	-5.24025E+00,	0.00000E+00,	0,	0
  7.44828E+02,	1.00000E+01,	6.14033E-03,	3.86560E+01,	4.55833E+00,	-6.13497E+00,	0.00000E+00,	0,	0
  6.17143E+02,	1.00000E+01,	6.14033E-03,	4.00191E+01,	4.81889E+00,	-7.17791E+00,	0.00000E+00,	0,	0
  5.14286E+02,	1.00000E+01,	6.14033E-03,	4.14240E+01,	5.11317E+00,	-8.36521E+00,	0.00000E+00,	0,	0
  4.15385E+02,	1.00000E+01,	6.14033E-03,	4.27945E+01,	5.51865E+00,	-1.00201E+01,	0.00000E+00,	0,	0
  3.42857E+02,	1.00000E+01,	6.14033E-03,	4.52091E+01,	5.95303E+00,	-1.17862E+01,	0.00000E+00,	0,	0
  2.84211E+02,	1.00000E+01,	6.14033E-03,	4.96077E+01,	6.47514E+00,	-1.38602E+01,	0.00000E+00,	0,	0
  2.32258E+02,	1.00000E+01,	6.14033E-03,	5.24757E+01,	7.12887E+00,	-1.64617E+01,	0.00000E+00,	0,	0
  1.91150E+02,	1.00000E+01,	6.14033E-03,	5.55858E+01,	7.89518E+00,	-1.94362E+01,	0.00000E+00,	0,	0
  1.57664E+02,	1.00000E+01,	6.14033E-03,	5.89906E+01,	8.80366E+00,	-2.28962E+01,	0.00000E+00,	0,	0
  1.30120E+02,	1.00000E+01,	6.14033E-03,	6.27302E+01,	9.90802E+00,	-2.69697E+01,	0.00000E+00,	0,	0
  1.06931E+02,	1.00000E+01,	6.14033E-03,	6.68145E+01,	1.12697E+01,	-3.18629E+01,	0.00000E+00,	0,	0
  8.85246E+01,	1.00000E+01,	6.14033E-03,	7.24259E+01,	1.28639E+01,	-3.74309E+01,	0.00000E+00,	0,	0
  7.29730E+01,	1.00000E+01,	6.14033E-03,	7.73040E+01,	1.48646E+01,	-4.41902E+01,	0.00000E+00,	0,	0
  6.00000E+01,	1.00000E+01,	6.14033E-03,	8.25576E+01,	1.74951E+01,	-5.13759E+01,	0.00000E+00,	0,	0
  4.95413E+01,	1.00000E+01,	6.14033E-03,	8.83215E+01,	2.05070E+01,	-6.01183E+01,	0.00000E+00,	0,	0
  4.06015E+01,	1.00000E+01,	6.14033E-03,	9.19680E+01,	2.42916E+01,	-7.06408E+01,	0.00000E+00,	0,	0
  3.35404E+01,	1.00000E+01,	6.14033E-03,	9.57169E+01,	2.81738E+01,	-8.21641E+01,	0.00000E+00,	0,	0
  2.75510E+01,	1.00000E+01,	6.14033E-03,	9.95767E+01,	3.37333E+01,	-9.62202E+01,	0.00000E+00,	0,	0
  2.26891E+01,	1.00000E+01,	6.14033E-03,	1.02532E+02,	4.01325E+01,	-1.11899E+02,	0.00000E+00,	0,	0
  1.87500E+01,	1.00000E+01,	6.14033E-03,	1.06223E+02,	4.74252E+01,	-1.29471E+02,	0.00000E+00,	0,	0
  1.55172E+01,	1.00000E+01,	6.14033E-03,	1.11772E+02,	5.56446E+01,	-1.49342E+02,	0.00000E+00,	0,	0
  1.28571E+01,	1.00000E+01,	6.14033E-03,	1.16409E+02,	6.48952E+01,	-1.71832E+02,	0.00000E+00,	0,	0
  1.04651E+01,	1.00000E+01,	6.14033E-03,	1.19102E+02,	7.60679E+01,	-2.00205E+02,	0.00000E+00,	0,	0
  8.65385E+00,	1.00000E+01,	6.14033E-03,	1.24906E+02,	8.77339E+01,	-2.30946E+02,	0.00000E+00,	0,	0
  7.14286E+00,	1.00000E+01,	6.14033E-03,	1.27310E+02,	1.00564E+02,	-2.66721E+02,	0.00000E+00,	0,	0
  5.84416E+00,	1.00000E+01,	6.14033E-03,	1.30087E+02,	1.15256E+02,	-3.10629E+02,	0.00000E+00,	0,	0
  4.83871E+00,	1.00000E+01,	6.14033E-03,	1.33224E+02,	1.30496E+02,	-3.59228E+02,	0.00000E+00,	0,	0
  3.98230E+00,	1.00000E+01,	6.14033E-03,	1.36831E+02,	1.47899E+02,	-4.18311E+02,	0.00000E+00,	0,	0
  3.28467E+00,	1.00000E+01,	6.14033E-03,	1.41058E+02,	1.67180E+02,	-4.87592E+02,	0.00000E+00,	0,	0
  2.69461E+00,	1.00000E+01,	6.14033E-03,	1.44971E+02,	1.89628E+02,	-5.71857E+02,	0.00000E+00,	0,	0
  2.22772E+00,	1.00000E+01,	6.14033E-03,	1.49484E+02,	2.14135E+02,	-6.68105E+02,	0.00000E+00,	0,	0
  1.82927E+00,	1.00000E+01,	6.14033E-03,	1.54817E+02,	2.43555E+02,	-7.86361E+02,	0.00000E+00,	0,	0
  1.51007E+00,	1.00000E+01,	6.14033E-03,	1.58673E+02,	2.77035E+02,	-9.22918E+02,	0.00000E+00,	0,	0
  1.24309E+00,	1.00000E+01,	6.14033E-03,	1.63014E+02,	3.16824E+02,	-1.08714E+03,	0.00000E+00,	0,	0
  1.02273E+00,	1.00000E+01,	6.14033E-03,	1.67477E+02,	3.64278E+02,	-1.28311E+03,	0.00000E+00,	0,	0
  8.45865E-01,	1.00000E+01,	6.14033E-03,	1.74281E+02,	4.18421E+02,	-1.50692E+03,	0.00000E+00,	0,	0
  6.94444E-01,	1.00000E+01,	6.14033E-03,	1.78663E+02,	4.86415E+02,	-1.78357E+03,	0.00000E+00,	0,	0
  5.73980E-01,	1.00000E+01,	6.14033E-03,	1.83216E+02,	5.51500E+02,	-2.10366E+03,	0.00000E+00,	0,	0
  4.72689E-01,	1.00000E+01,	6.14033E-03,	1.88583E+02,	6.48708E+02,	-2.48767E+03,	0.00000E+00,	0,	0
  3.90625E-01,	1.00000E+01,	6.14033E-03,	1.94612E+02,	7.64785E+02,	-2.95765E+03,	0.00000E+00,	0,	0
  3.21429E-01,	1.00000E+01,	6.14033E-03,	2.01744E+02,	9.16569E+02,	-3.49780E+03,	0.00000E+00,	0,	0
  2.64085E-01,	1.00000E+01,	6.14033E-03,	2.19174E+02,	1.11849E+03,	-4.09985E+03,	0.00000E+00,	0,	0
  2.18023E-01,	1.00000E+01,	6.14033E-03,	2.29340E+02,	1.32377E+03,	-4.90362E+03,	0.00000E+00,	0,	0
  1.79426E-01,	1.00000E+01,	6.14033E-03,	2.41436E+02,	1.64559E+03,	-5.75439E+03,	0.00000E+00,	0,	0
  1.47638E-01,	1.00000E+01,	6.14033E-03,	2.55910E+02,	2.03742E+03,	-6.77361E+03,	0.00000E+00,	0,	0
  1.21753E-01,	1.00000E+01,	6.14033E-03,	2.73318E+02,	2.53168E+03,	-7.93663E+03,	0.00000E+00,	0,	0
  1.00446E-01,	1.00000E+01,	6.14033E-03,	2.94184E+02,	3.15541E+03,	-9.27189E+03,	0.00000E+00,	0,	0