Z60W Data File: Version 1.1
CorrTest for Windows: SN CS310H1805157  V5.2.1111.9  2.5H6.220118
Sweep Frequency: Control Voltage
  Date:4-27-2026   Time:14:56:42
  Begin Information:            Cell Information
      Surface Area:           1
      Density:                7.8
      Weight:                 28
  End Information:              Cell Information
  Freq (Hz)     Ampl(mV)       Bias(V)      Time(Sec)       Z'(Ohm.cm^2)    Z''(Ohm.cm^2)        GD       Err      Range
End Comments
  3.07200E+05,	1.00000E+01,	-1.61407E-02,	3.35618E-02,	5.09980E+01,	2.52966E+01,	0.00000E+00,	0,	0
  2.76480E+05,	1.00000E+01,	-1.61407E-02,	1.65375E+00,	5.01806E+01,	2.23202E+01,	0.00000E+00,	0,	0
  2.30400E+05,	1.00000E+01,	-1.61407E-02,	2.59616E+00,	4.93779E+01,	1.86862E+01,	0.00000E+00,	0,	0
  1.72800E+05,	1.00000E+01,	-1.61407E-02,	3.48465E+00,	4.86067E+01,	1.39301E+01,	0.00000E+00,	0,	0
  1.53600E+05,	1.00000E+01,	-1.61407E-02,	4.41542E+00,	4.83035E+01,	1.23260E+01,	0.00000E+00,	0,	0
  1.15200E+05,	1.00000E+01,	-1.61407E-02,	5.30879E+00,	4.78981E+01,	9.13585E+00,	0.00000E+00,	0,	0
  9.87429E+04,	1.00000E+01,	-1.61407E-02,	6.21019E+00,	4.78689E+01,	7.74662E+00,	0.00000E+00,	0,	0
  8.13176E+04,	1.00000E+01,	-1.61407E-02,	7.13637E+00,	4.77914E+01,	6.15851E+00,	0.00000E+00,	0,	0
  6.58286E+04,	1.00000E+01,	-1.61407E-02,	8.07993E+00,	4.78148E+01,	4.82178E+00,	0.00000E+00,	0,	0
  5.31692E+04,	1.00000E+01,	-1.61407E-02,	1.02066E+01,	4.78426E+01,	3.81017E+00,	0.00000E+00,	0,	0
  4.60800E+04,	1.00000E+01,	-1.61407E-02,	1.17651E+01,	4.79533E+01,	3.14679E+00,	0.00000E+00,	0,	0
  3.63789E+04,	1.00000E+01,	-1.61407E-02,	1.27513E+01,	4.80021E+01,	2.17746E+00,	0.00000E+00,	0,	0
  3.00522E+04,	1.00000E+01,	-1.61407E-02,	1.36419E+01,	4.78785E+01,	1.57272E+00,	0.00000E+00,	0,	0
  2.46857E+04,	1.00000E+01,	-1.61407E-02,	1.44909E+01,	4.80014E+01,	1.02793E+00,	0.00000E+00,	0,	0
  2.03294E+04,	1.00000E+01,	-1.61407E-02,	1.54192E+01,	4.80626E+01,	4.69135E-01,	0.00000E+00,	0,	0
  1.64571E+04,	1.00000E+01,	-1.61407E-02,	1.63353E+01,	4.81225E+01,	-1.07298E-01,	0.00000E+00,	0,	0
  1.35529E+04,	1.00000E+01,	-1.61407E-02,	1.71888E+01,	4.81891E+01,	-5.39750E-01,	0.00000E+00,	0,	0
  1.11484E+04,	1.00000E+01,	-1.61407E-02,	1.80977E+01,	4.84300E+01,	-9.53964E-01,	0.00000E+00,	0,	0
  9.60000E+03,	1.00000E+01,	-1.61407E-02,	2.09219E+01,	4.83974E+01,	-1.52735E+00,	0.00000E+00,	0,	0
  7.85455E+03,	1.00000E+01,	-1.61407E-02,	2.18953E+01,	4.85112E+01,	-1.94534E+00,	0.00000E+00,	0,	0
  6.40000E+03,	1.00000E+01,	-1.61407E-02,	2.28497E+01,	4.86386E+01,	-2.55523E+00,	0.00000E+00,	0,	0
  5.23636E+03,	1.00000E+01,	-1.61407E-02,	2.37906E+01,	4.88557E+01,	-3.11927E+00,	0.00000E+00,	0,	0
  4.32000E+03,	1.00000E+01,	-1.61407E-02,	2.46868E+01,	4.90311E+01,	-3.90215E+00,	0.00000E+00,	0,	0
  3.52653E+03,	1.00000E+01,	-1.61407E-02,	2.56899E+01,	4.93593E+01,	-4.69925E+00,	0.00000E+00,	0,	0
  2.88000E+03,	1.00000E+01,	-1.61407E-02,	2.65791E+01,	4.94959E+01,	-5.60881E+00,	0.00000E+00,	0,	0
  2.36712E+03,	1.00000E+01,	-1.61407E-02,	2.75731E+01,	4.99746E+01,	-6.63067E+00,	0.00000E+00,	0,	0
  1.96364E+03,	1.00000E+01,	-1.61407E-02,	2.83258E+01,	5.05054E+01,	-7.83272E+00,	0.00000E+00,	0,	0
  1.61495E+03,	1.00000E+01,	-1.61407E-02,	2.92185E+01,	5.08177E+01,	-9.11373E+00,	0.00000E+00,	0,	0
  1.32923E+03,	1.00000E+01,	-1.61407E-02,	3.01758E+01,	5.14811E+01,	-1.09399E+01,	0.00000E+00,	0,	0
  1.09367E+03,	1.00000E+01,	-1.61407E-02,	3.12635E+01,	5.21310E+01,	-1.24783E+01,	0.00000E+00,	0,	0
  9.00000E+02,	1.00000E+01,	-1.61407E-02,	3.62424E+01,	5.32418E+01,	-1.46820E+01,	0.00000E+00,	0,	0
  7.44828E+02,	1.00000E+01,	-1.61407E-02,	3.76084E+01,	5.41810E+01,	-1.69948E+01,	0.00000E+00,	0,	0
  6.17143E+02,	1.00000E+01,	-1.61407E-02,	3.89772E+01,	5.52641E+01,	-1.96146E+01,	0.00000E+00,	0,	0
  5.14286E+02,	1.00000E+01,	-1.61407E-02,	4.03320E+01,	5.64607E+01,	-2.25008E+01,	0.00000E+00,	0,	0
  4.15385E+02,	1.00000E+01,	-1.61407E-02,	4.16923E+01,	5.80648E+01,	-2.64266E+01,	0.00000E+00,	0,	0
  3.42857E+02,	1.00000E+01,	-1.61407E-02,	4.40810E+01,	5.96891E+01,	-3.05174E+01,	0.00000E+00,	0,	0
  2.84211E+02,	1.00000E+01,	-1.61407E-02,	4.67563E+01,	6.14812E+01,	-3.51185E+01,	0.00000E+00,	0,	0
  2.32258E+02,	1.00000E+01,	-1.61407E-02,	4.96068E+01,	6.36559E+01,	-4.09033E+01,	0.00000E+00,	0,	0
  1.91150E+02,	1.00000E+01,	-1.61407E-02,	5.27129E+01,	6.60288E+01,	-4.73882E+01,	0.00000E+00,	0,	0
  1.57664E+02,	1.00000E+01,	-1.61407E-02,	5.61021E+01,	6.86222E+01,	-5.49517E+01,	0.00000E+00,	0,	0
  1.30120E+02,	1.00000E+01,	-1.61407E-02,	5.98682E+01,	7.15305E+01,	-6.37438E+01,	0.00000E+00,	0,	0
  1.06931E+02,	1.00000E+01,	-1.61407E-02,	6.39656E+01,	7.48373E+01,	-7.43597E+01,	0.00000E+00,	0,	0
  8.85246E+01,	1.00000E+01,	-1.61407E-02,	6.95719E+01,	7.84626E+01,	-8.64728E+01,	0.00000E+00,	0,	0
  7.29730E+01,	1.00000E+01,	-1.61407E-02,	7.44433E+01,	8.27463E+01,	-1.01336E+02,	0.00000E+00,	0,	0
  6.00000E+01,	1.00000E+01,	-1.61407E-02,	7.96889E+01,	8.73378E+01,	-1.16928E+02,	0.00000E+00,	0,	0
  4.95413E+01,	1.00000E+01,	-1.61407E-02,	8.83295E+01,	9.29305E+01,	-1.36825E+02,	0.00000E+00,	0,	0
  4.06015E+01,	1.00000E+01,	-1.61407E-02,	9.19841E+01,	9.93372E+01,	-1.61068E+02,	0.00000E+00,	0,	0
  3.35404E+01,	1.00000E+01,	-1.61407E-02,	9.57519E+01,	1.05133E+02,	-1.88534E+02,	0.00000E+00,	0,	0
  2.75510E+01,	1.00000E+01,	-1.61407E-02,	9.95825E+01,	1.14112E+02,	-2.22634E+02,	0.00000E+00,	0,	0
  2.26891E+01,	1.00000E+01,	-1.61407E-02,	1.02530E+02,	1.24118E+02,	-2.62061E+02,	0.00000E+00,	0,	0
  1.87500E+01,	1.00000E+01,	-1.61407E-02,	1.06213E+02,	1.35695E+02,	-3.07810E+02,	0.00000E+00,	0,	0
  1.55172E+01,	1.00000E+01,	-1.61407E-02,	1.11751E+02,	1.49024E+02,	-3.61275E+02,	0.00000E+00,	0,	0
  1.28571E+01,	1.00000E+01,	-1.61407E-02,	1.16385E+02,	1.64876E+02,	-4.23784E+02,	0.00000E+00,	0,	0
  1.04651E+01,	1.00000E+01,	-1.61407E-02,	1.19120E+02,	1.85229E+02,	-5.04666E+02,	0.00000E+00,	0,	0
  8.65385E+00,	1.00000E+01,	-1.61407E-02,	1.23379E+02,	2.08341E+02,	-5.93162E+02,	0.00000E+00,	0,	0
  7.14286E+00,	1.00000E+01,	-1.61407E-02,	1.25784E+02,	2.36052E+02,	-6.98279E+02,	0.00000E+00,	0,	0
  5.84416E+00,	1.00000E+01,	-1.61407E-02,	1.28522E+02,	2.71530E+02,	-8.27819E+02,	0.00000E+00,	0,	0
  4.83871E+00,	1.00000E+01,	-1.61407E-02,	1.31660E+02,	3.12079E+02,	-9.71076E+02,	0.00000E+00,	0,	0
  3.98230E+00,	1.00000E+01,	-1.61407E-02,	1.35333E+02,	3.62809E+02,	-1.14441E+03,	0.00000E+00,	0,	0
  3.28467E+00,	1.00000E+01,	-1.61407E-02,	1.39488E+02,	4.24323E+02,	-1.34497E+03,	0.00000E+00,	0,	0
  2.69461E+00,	1.00000E+01,	-1.61407E-02,	1.43396E+02,	5.01513E+02,	-1.58555E+03,	0.00000E+00,	0,	0
  2.22772E+00,	1.00000E+01,	-1.61407E-02,	1.47909E+02,	5.91858E+02,	-1.85470E+03,	0.00000E+00,	0,	0
  1.82927E+00,	1.00000E+01,	-1.61407E-02,	1.53223E+02,	7.05601E+02,	-2.17795E+03,	0.00000E+00,	0,	0
  1.51007E+00,	1.00000E+01,	-1.61407E-02,	1.60193E+02,	8.39015E+02,	-2.53991E+03,	0.00000E+00,	0,	0
  1.24309E+00,	1.00000E+01,	-1.61407E-02,	1.64500E+02,	1.00313E+03,	-2.96189E+03,	0.00000E+00,	0,	0
  1.02273E+00,	1.00000E+01,	-1.61407E-02,	1.68936E+02,	1.20280E+03,	-3.45434E+03,	0.00000E+00,	0,	0
  8.45865E-01,	1.00000E+01,	-1.61407E-02,	1.75747E+02,	1.42384E+03,	-3.98577E+03,	0.00000E+00,	0,	0
  6.94444E-01,	1.00000E+01,	-1.61407E-02,	1.80119E+02,	1.69651E+03,	-4.62630E+03,	0.00000E+00,	0,	0
  5.73980E-01,	1.00000E+01,	-1.61407E-02,	1.84683E+02,	1.92425E+03,	-5.35685E+03,	0.00000E+00,	0,	0
  4.72689E-01,	1.00000E+01,	-1.61407E-02,	1.90011E+02,	2.26543E+03,	-6.19110E+03,	0.00000E+00,	0,	0
  3.90625E-01,	1.00000E+01,	-1.61407E-02,	1.96045E+02,	2.64205E+03,	-7.23185E+03,	0.00000E+00,	0,	0
  3.21429E-01,	1.00000E+01,	-1.61407E-02,	2.03169E+02,	3.07215E+03,	-8.34462E+03,	0.00000E+00,	0,	0
  2.64085E-01,	1.00000E+01,	-1.61407E-02,	2.11871E+02,	3.53291E+03,	-9.66925E+03,	0.00000E+00,	0,	0
  2.18023E-01,	1.00000E+01,	-1.61407E-02,	2.21958E+02,	4.01661E+03,	-1.12071E+04,	0.00000E+00,	0,	0
  1.79426E-01,	1.00000E+01,	-1.61407E-02,	2.34029E+02,	4.57575E+03,	-1.29807E+04,	0.00000E+00,	0,	0
  1.47638E-01,	1.00000E+01,	-1.61407E-02,	2.48541E+02,	5.17815E+03,	-1.51128E+04,	0.00000E+00,	0,	0
  1.21753E-01,	1.00000E+01,	-1.61407E-02,	2.65967E+02,	5.83969E+03,	-1.76012E+04,	0.00000E+00,	0,	0
  1.00446E-01,	1.00000E+01,	-1.61407E-02,	2.86850E+02,	6.57907E+03,	-2.05385E+04,	0.00000E+00,	0,	0