Z60W Data File: Version 1.1
CorrTest for Windows: SN CS310H1805157  V5.2.1111.9  2.5H6.220118
Sweep Frequency: Control Voltage
  Date:4-27-2026   Time:15:20:04
  Begin Information:            Cell Information
      Surface Area:           1
      Density:                7.8
      Weight:                 28
  End Information:              Cell Information
  Freq (Hz)     Ampl(mV)       Bias(V)      Time(Sec)       Z'(Ohm.cm^2)    Z''(Ohm.cm^2)        GD       Err      Range
End Comments
  3.07200E+05,	1.00000E+01,	-1.66605E-02,	2.95426E-02,	6.65133E+01,	2.98087E+01,	0.00000E+00,	0,	0
  2.76480E+05,	1.00000E+01,	-1.66605E-02,	1.63737E+00,	6.54812E+01,	2.65693E+01,	0.00000E+00,	0,	0
  2.30400E+05,	1.00000E+01,	-1.66605E-02,	2.53427E+00,	6.42195E+01,	2.22644E+01,	0.00000E+00,	0,	0
  1.72800E+05,	1.00000E+01,	-1.66605E-02,	3.44757E+00,	6.29145E+01,	1.65583E+01,	0.00000E+00,	0,	0
  1.53600E+05,	1.00000E+01,	-1.66605E-02,	4.34544E+00,	6.27228E+01,	1.46939E+01,	0.00000E+00,	0,	0
  1.15200E+05,	1.00000E+01,	-1.66605E-02,	5.24918E+00,	6.22055E+01,	1.06919E+01,	0.00000E+00,	0,	0
  9.87429E+04,	1.00000E+01,	-1.66605E-02,	6.15545E+00,	6.19548E+01,	9.09857E+00,	0.00000E+00,	0,	0
  8.13176E+04,	1.00000E+01,	-1.66605E-02,	7.07531E+00,	6.19938E+01,	7.35359E+00,	0.00000E+00,	0,	0
  6.58286E+04,	1.00000E+01,	-1.66605E-02,	7.96826E+00,	6.20138E+01,	5.91811E+00,	0.00000E+00,	0,	0
  5.31692E+04,	1.00000E+01,	-1.66605E-02,	8.98248E+00,	6.19944E+01,	4.45300E+00,	0.00000E+00,	0,	0
  4.60800E+04,	1.00000E+01,	-1.66605E-02,	1.05626E+01,	6.21428E+01,	3.66370E+00,	0.00000E+00,	0,	0
  3.63789E+04,	1.00000E+01,	-1.66605E-02,	1.14861E+01,	6.20997E+01,	2.57915E+00,	0.00000E+00,	0,	0
  3.00522E+04,	1.00000E+01,	-1.66605E-02,	1.23955E+01,	6.22050E+01,	1.66151E+00,	0.00000E+00,	0,	0
  2.46857E+04,	1.00000E+01,	-1.66605E-02,	1.33006E+01,	6.21587E+01,	1.11229E+00,	0.00000E+00,	0,	0
  2.03294E+04,	1.00000E+01,	-1.66605E-02,	1.42446E+01,	6.23187E+01,	6.30368E-01,	0.00000E+00,	0,	0
  1.64571E+04,	1.00000E+01,	-1.66605E-02,	1.51497E+01,	6.23718E+01,	1.05968E-01,	0.00000E+00,	0,	0
  1.35529E+04,	1.00000E+01,	-1.66605E-02,	1.59663E+01,	6.24374E+01,	-5.08924E-01,	0.00000E+00,	0,	0
  1.11484E+04,	1.00000E+01,	-1.66605E-02,	1.69026E+01,	6.25185E+01,	-9.56462E-01,	0.00000E+00,	0,	0
  9.60000E+03,	1.00000E+01,	-1.66605E-02,	1.85830E+01,	6.28152E+01,	-1.46772E+00,	0.00000E+00,	0,	0
  7.85455E+03,	1.00000E+01,	-1.66605E-02,	1.95414E+01,	6.29977E+01,	-2.03667E+00,	0.00000E+00,	0,	0
  6.40000E+03,	1.00000E+01,	-1.66605E-02,	2.05246E+01,	6.30828E+01,	-2.57790E+00,	0.00000E+00,	0,	0
  5.23636E+03,	1.00000E+01,	-1.66605E-02,	2.14808E+01,	6.33406E+01,	-3.22987E+00,	0.00000E+00,	0,	0
  4.32000E+03,	1.00000E+01,	-1.66605E-02,	2.24277E+01,	6.36187E+01,	-4.05076E+00,	0.00000E+00,	0,	0
  3.52653E+03,	1.00000E+01,	-1.66605E-02,	2.34410E+01,	6.37385E+01,	-4.89796E+00,	0.00000E+00,	0,	0
  2.88000E+03,	1.00000E+01,	-1.66605E-02,	2.43654E+01,	6.40027E+01,	-5.91455E+00,	0.00000E+00,	0,	0
  2.36712E+03,	1.00000E+01,	-1.66605E-02,	2.53638E+01,	6.44651E+01,	-7.04346E+00,	0.00000E+00,	0,	0
  1.96364E+03,	1.00000E+01,	-1.66605E-02,	2.61387E+01,	6.50572E+01,	-8.35459E+00,	0.00000E+00,	0,	0
  1.61495E+03,	1.00000E+01,	-1.66605E-02,	2.70463E+01,	6.54445E+01,	-9.70262E+00,	0.00000E+00,	0,	0
  1.32923E+03,	1.00000E+01,	-1.66605E-02,	2.79702E+01,	6.60575E+01,	-1.20791E+01,	0.00000E+00,	0,	0
  1.09367E+03,	1.00000E+01,	-1.66605E-02,	2.90207E+01,	6.69624E+01,	-1.34304E+01,	0.00000E+00,	0,	0
  9.00000E+02,	1.00000E+01,	-1.66605E-02,	3.40041E+01,	6.80822E+01,	-1.56766E+01,	0.00000E+00,	0,	0
  7.44828E+02,	1.00000E+01,	-1.66605E-02,	3.53684E+01,	6.90974E+01,	-1.81908E+01,	0.00000E+00,	0,	0
  6.17143E+02,	1.00000E+01,	-1.66605E-02,	3.67299E+01,	7.02882E+01,	-2.10433E+01,	0.00000E+00,	0,	0
  5.14286E+02,	1.00000E+01,	-1.66605E-02,	3.80897E+01,	7.16118E+01,	-2.42061E+01,	0.00000E+00,	0,	0
  4.15385E+02,	1.00000E+01,	-1.66605E-02,	3.94876E+01,	7.33882E+01,	-2.84480E+01,	0.00000E+00,	0,	0
  3.42857E+02,	1.00000E+01,	-1.66605E-02,	4.18755E+01,	7.52200E+01,	-3.28781E+01,	0.00000E+00,	0,	0
  2.84211E+02,	1.00000E+01,	-1.66605E-02,	4.45496E+01,	7.72767E+01,	-3.78534E+01,	0.00000E+00,	0,	0
  2.32258E+02,	1.00000E+01,	-1.66605E-02,	4.73969E+01,	7.97556E+01,	-4.40748E+01,	0.00000E+00,	0,	0
  1.91150E+02,	1.00000E+01,	-1.66605E-02,	5.05193E+01,	8.24639E+01,	-5.10399E+01,	0.00000E+00,	0,	0
  1.57664E+02,	1.00000E+01,	-1.66605E-02,	5.39281E+01,	8.54482E+01,	-5.90868E+01,	0.00000E+00,	0,	0
  1.30120E+02,	1.00000E+01,	-1.66605E-02,	5.76923E+01,	8.88264E+01,	-6.84567E+01,	0.00000E+00,	0,	0
  1.06931E+02,	1.00000E+01,	-1.66605E-02,	6.17842E+01,	9.26340E+01,	-7.97102E+01,	0.00000E+00,	0,	0
  8.85246E+01,	1.00000E+01,	-1.66605E-02,	6.73875E+01,	9.68433E+01,	-9.25588E+01,	0.00000E+00,	0,	0
  7.29730E+01,	1.00000E+01,	-1.66605E-02,	7.22226E+01,	1.01751E+02,	-1.08274E+02,	0.00000E+00,	0,	0
  6.00000E+01,	1.00000E+01,	-1.66605E-02,	7.74750E+01,	1.06887E+02,	-1.24575E+02,	0.00000E+00,	0,	0
  4.95413E+01,	1.00000E+01,	-1.66605E-02,	8.61245E+01,	1.13253E+02,	-1.45546E+02,	0.00000E+00,	0,	0
  4.06015E+01,	1.00000E+01,	-1.66605E-02,	8.97470E+01,	1.20398E+02,	-1.71032E+02,	0.00000E+00,	0,	0
  3.35404E+01,	1.00000E+01,	-1.66605E-02,	9.35429E+01,	1.26700E+02,	-1.99898E+02,	0.00000E+00,	0,	0
  2.75510E+01,	1.00000E+01,	-1.66605E-02,	9.73482E+01,	1.36529E+02,	-2.35667E+02,	0.00000E+00,	0,	0
  2.26891E+01,	1.00000E+01,	-1.66605E-02,	1.00334E+02,	1.47332E+02,	-2.76979E+02,	0.00000E+00,	0,	0
  1.87500E+01,	1.00000E+01,	-1.66605E-02,	1.04051E+02,	1.59657E+02,	-3.24946E+02,	0.00000E+00,	0,	0
  1.55172E+01,	1.00000E+01,	-1.66605E-02,	1.09645E+02,	1.73836E+02,	-3.81129E+02,	0.00000E+00,	0,	0
  1.28571E+01,	1.00000E+01,	-1.66605E-02,	1.14314E+02,	1.90450E+02,	-4.46711E+02,	0.00000E+00,	0,	0
  1.04651E+01,	1.00000E+01,	-1.66605E-02,	1.17027E+02,	2.11615E+02,	-5.31734E+02,	0.00000E+00,	0,	0
  8.65385E+00,	1.00000E+01,	-1.66605E-02,	1.21281E+02,	2.35221E+02,	-6.24738E+02,	0.00000E+00,	0,	0
  7.14286E+00,	1.00000E+01,	-1.66605E-02,	1.23729E+02,	2.64071E+02,	-7.35796E+02,	0.00000E+00,	0,	0
  5.84416E+00,	1.00000E+01,	-1.66605E-02,	1.26494E+02,	2.99847E+02,	-8.72715E+02,	0.00000E+00,	0,	0
  4.83871E+00,	1.00000E+01,	-1.66605E-02,	1.29672E+02,	3.40757E+02,	-1.02427E+03,	0.00000E+00,	0,	0
  3.98230E+00,	1.00000E+01,	-1.66605E-02,	1.33281E+02,	3.91872E+02,	-1.20828E+03,	0.00000E+00,	0,	0
  3.28467E+00,	1.00000E+01,	-1.66605E-02,	1.37443E+02,	4.53417E+02,	-1.42177E+03,	0.00000E+00,	0,	0
  2.69461E+00,	1.00000E+01,	-1.66605E-02,	1.41338E+02,	5.31025E+02,	-1.67937E+03,	0.00000E+00,	0,	0
  2.22772E+00,	1.00000E+01,	-1.66605E-02,	1.45867E+02,	6.21549E+02,	-1.96870E+03,	0.00000E+00,	0,	0
  1.82927E+00,	1.00000E+01,	-1.66605E-02,	1.51171E+02,	7.35570E+02,	-2.31843E+03,	0.00000E+00,	0,	0
  1.51007E+00,	1.00000E+01,	-1.66605E-02,	1.58109E+02,	8.70950E+02,	-2.71240E+03,	0.00000E+00,	0,	0
  1.24309E+00,	1.00000E+01,	-1.66605E-02,	1.62473E+02,	1.03834E+03,	-3.17398E+03,	0.00000E+00,	0,	0
  1.02273E+00,	1.00000E+01,	-1.66605E-02,	1.66947E+02,	1.24497E+03,	-3.71601E+03,	0.00000E+00,	0,	0
  8.45865E-01,	1.00000E+01,	-1.66605E-02,	1.73761E+02,	1.47811E+03,	-4.30640E+03,	0.00000E+00,	0,	0
  6.94444E-01,	1.00000E+01,	-1.66605E-02,	1.78139E+02,	1.77084E+03,	-5.01930E+03,	0.00000E+00,	0,	0
  5.73980E-01,	1.00000E+01,	-1.66605E-02,	1.82708E+02,	2.02780E+03,	-5.82604E+03,	0.00000E+00,	0,	0
  4.72689E-01,	1.00000E+01,	-1.66605E-02,	1.88053E+02,	2.41250E+03,	-6.75098E+03,	0.00000E+00,	0,	0
  3.90625E-01,	1.00000E+01,	-1.66605E-02,	1.94091E+02,	2.84320E+03,	-7.88887E+03,	0.00000E+00,	0,	0
  3.21429E-01,	1.00000E+01,	-1.66605E-02,	2.01220E+02,	3.34731E+03,	-9.10799E+03,	0.00000E+00,	0,	0
  2.64085E-01,	1.00000E+01,	-1.66605E-02,	2.09900E+02,	3.89624E+03,	-1.05419E+04,	0.00000E+00,	0,	0
  2.18023E-01,	1.00000E+01,	-1.66605E-02,	2.20032E+02,	4.47590E+03,	-1.21943E+04,	0.00000E+00,	0,	0
  1.79426E-01,	1.00000E+01,	-1.66605E-02,	2.32099E+02,	5.14132E+03,	-1.40945E+04,	0.00000E+00,	0,	0
  1.47638E-01,	1.00000E+01,	-1.66605E-02,	2.46610E+02,	5.86115E+03,	-1.63546E+04,	0.00000E+00,	0,	0
  1.21753E-01,	1.00000E+01,	-1.66605E-02,	2.63973E+02,	6.64373E+03,	-1.89844E+04,	0.00000E+00,	0,	0
  1.00446E-01,	1.00000E+01,	-1.66605E-02,	2.84841E+02,	7.50415E+03,	-2.20810E+04,	0.00000E+00,	0,	0