Z60W Data File: Version 1.1
CorrTest for Windows: SN CS310H1805157  V5.2.1111.9  2.5H6.220118
Sweep Frequency: Control Voltage
  Date:4-27-2026   Time:08:01:39
  Begin Information:            Cell Information
      Surface Area:           1
      Density:                7.8
      Weight:                 28
  End Information:              Cell Information
  Freq (Hz)     Ampl(mV)       Bias(V)      Time(Sec)       Z'(Ohm.cm^2)    Z''(Ohm.cm^2)        GD       Err      Range
End Comments
  3.07200E+05,	1.00000E+01,	-1.73980E-02,	5.23310E-02,	2.87790E+00,	5.11610E+00,	0.00000E+00,	0,	0
  2.76480E+05,	1.00000E+01,	-1.73980E-02,	1.65071E+00,	3.29688E+00,	4.25724E+00,	0.00000E+00,	0,	0
  2.30400E+05,	1.00000E+01,	-1.73980E-02,	2.58079E+00,	3.69275E+00,	3.56257E+00,	0.00000E+00,	0,	0
  1.72800E+05,	1.00000E+01,	-1.73980E-02,	3.48346E+00,	4.05471E+00,	2.63857E+00,	0.00000E+00,	0,	0
  1.53600E+05,	1.00000E+01,	-1.73980E-02,	4.40809E+00,	4.15627E+00,	2.31155E+00,	0.00000E+00,	0,	0
  1.15200E+05,	1.00000E+01,	-1.73980E-02,	5.28323E+00,	4.34587E+00,	1.67319E+00,	0.00000E+00,	0,	0
  9.87429E+04,	1.00000E+01,	-1.73980E-02,	6.17309E+00,	4.40669E+00,	1.37503E+00,	0.00000E+00,	0,	0
  8.13176E+04,	1.00000E+01,	-1.73980E-02,	7.06391E+00,	4.46226E+00,	1.07706E+00,	0.00000E+00,	0,	0
  6.58286E+04,	1.00000E+01,	-1.73980E-02,	7.95373E+00,	4.51234E+00,	7.96111E-01,	0.00000E+00,	0,	0
  5.31692E+04,	1.00000E+01,	-1.73980E-02,	1.00656E+01,	4.54669E+00,	5.19436E-01,	0.00000E+00,	0,	0
  4.60800E+04,	1.00000E+01,	-1.73980E-02,	1.16057E+01,	4.56165E+00,	3.68512E-01,	0.00000E+00,	0,	0
  3.63789E+04,	1.00000E+01,	-1.73980E-02,	1.25120E+01,	4.59228E+00,	1.49118E-01,	0.00000E+00,	0,	0
  3.00522E+04,	1.00000E+01,	-1.73980E-02,	1.33686E+01,	4.61941E+00,	-1.47665E-02,	0.00000E+00,	0,	0
  2.46857E+04,	1.00000E+01,	-1.73980E-02,	1.42230E+01,	4.64862E+00,	-1.83688E-01,	0.00000E+00,	0,	0
  2.03294E+04,	1.00000E+01,	-1.73980E-02,	1.51747E+01,	4.68634E+00,	-3.44731E-01,	0.00000E+00,	0,	0
  1.64571E+04,	1.00000E+01,	-1.73980E-02,	1.60569E+01,	4.73211E+00,	-5.26411E-01,	0.00000E+00,	0,	0
  1.35529E+04,	1.00000E+01,	-1.73980E-02,	1.68572E+01,	4.78213E+00,	-7.05932E-01,	0.00000E+00,	0,	0
  1.11484E+04,	1.00000E+01,	-1.73980E-02,	1.77614E+01,	4.84360E+00,	-8.90074E-01,	0.00000E+00,	0,	0
  9.60000E+03,	1.00000E+01,	-1.73980E-02,	1.94076E+01,	4.89182E+00,	-1.04836E+00,	0.00000E+00,	0,	0
  7.85455E+03,	1.00000E+01,	-1.73980E-02,	2.03469E+01,	4.97688E+00,	-1.27191E+00,	0.00000E+00,	0,	0
  6.40000E+03,	1.00000E+01,	-1.73980E-02,	2.12956E+01,	5.07428E+00,	-1.52767E+00,	0.00000E+00,	0,	0
  5.23636E+03,	1.00000E+01,	-1.73980E-02,	2.22391E+01,	5.18279E+00,	-1.79805E+00,	0.00000E+00,	0,	0
  4.32000E+03,	1.00000E+01,	-1.73980E-02,	2.31403E+01,	5.30267E+00,	-2.10381E+00,	0.00000E+00,	0,	0
  3.52653E+03,	1.00000E+01,	-1.73980E-02,	2.41598E+01,	5.44338E+00,	-2.47381E+00,	0.00000E+00,	0,	0
  2.88000E+03,	1.00000E+01,	-1.73980E-02,	2.50522E+01,	5.60483E+00,	-2.89901E+00,	0.00000E+00,	0,	0
  2.36712E+03,	1.00000E+01,	-1.73980E-02,	2.60417E+01,	5.78602E+00,	-3.36158E+00,	0.00000E+00,	0,	0
  1.96364E+03,	1.00000E+01,	-1.73980E-02,	2.67761E+01,	5.95986E+00,	-3.90258E+00,	0.00000E+00,	0,	0
  1.61495E+03,	1.00000E+01,	-1.73980E-02,	2.76933E+01,	6.18583E+00,	-4.51659E+00,	0.00000E+00,	0,	0
  1.32923E+03,	1.00000E+01,	-1.73980E-02,	2.86139E+01,	6.43080E+00,	-5.26142E+00,	0.00000E+00,	0,	0
  1.09367E+03,	1.00000E+01,	-1.73980E-02,	2.96688E+01,	6.69712E+00,	-6.11443E+00,	0.00000E+00,	0,	0
  9.00000E+02,	1.00000E+01,	-1.73980E-02,	3.46309E+01,	7.02120E+00,	-7.15536E+00,	0.00000E+00,	0,	0
  7.44828E+02,	1.00000E+01,	-1.73980E-02,	3.59931E+01,	7.35230E+00,	-8.31996E+00,	0.00000E+00,	0,	0
  6.17143E+02,	1.00000E+01,	-1.73980E-02,	3.73644E+01,	7.72387E+00,	-9.68091E+00,	0.00000E+00,	0,	0
  5.14286E+02,	1.00000E+01,	-1.73980E-02,	3.87259E+01,	8.13570E+00,	-1.12294E+01,	0.00000E+00,	0,	0
  4.15385E+02,	1.00000E+01,	-1.73980E-02,	4.00811E+01,	8.68819E+00,	-1.33853E+01,	0.00000E+00,	0,	0
  3.42857E+02,	1.00000E+01,	-1.73980E-02,	4.24766E+01,	9.26185E+00,	-1.56942E+01,	0.00000E+00,	0,	0
  2.84211E+02,	1.00000E+01,	-1.73980E-02,	4.68753E+01,	9.94074E+00,	-1.83995E+01,	0.00000E+00,	0,	0
  2.32258E+02,	1.00000E+01,	-1.73980E-02,	4.97450E+01,	1.07669E+01,	-2.18163E+01,	0.00000E+00,	0,	0
  1.91150E+02,	1.00000E+01,	-1.73980E-02,	5.28976E+01,	1.17078E+01,	-2.57209E+01,	0.00000E+00,	0,	0
  1.57664E+02,	1.00000E+01,	-1.73980E-02,	5.63133E+01,	1.28081E+01,	-3.02956E+01,	0.00000E+00,	0,	0
  1.30120E+02,	1.00000E+01,	-1.73980E-02,	6.00519E+01,	1.41190E+01,	-3.56977E+01,	0.00000E+00,	0,	0
  1.06931E+02,	1.00000E+01,	-1.73980E-02,	6.41878E+01,	1.57136E+01,	-4.22323E+01,	0.00000E+00,	0,	0
  8.85246E+01,	1.00000E+01,	-1.73980E-02,	6.97991E+01,	1.75551E+01,	-4.97106E+01,	0.00000E+00,	0,	0
  7.29730E+01,	1.00000E+01,	-1.73980E-02,	7.46281E+01,	1.98487E+01,	-5.88565E+01,	0.00000E+00,	0,	0
  6.00000E+01,	1.00000E+01,	-1.73980E-02,	7.98597E+01,	2.28912E+01,	-6.87290E+01,	0.00000E+00,	0,	0
  4.95413E+01,	1.00000E+01,	-1.73980E-02,	8.55898E+01,	2.63558E+01,	-8.08119E+01,	0.00000E+00,	0,	0
  4.06015E+01,	1.00000E+01,	-1.73980E-02,	8.92001E+01,	3.07514E+01,	-9.55690E+01,	0.00000E+00,	0,	0
  3.35404E+01,	1.00000E+01,	-1.73980E-02,	9.29587E+01,	3.52533E+01,	-1.11970E+02,	0.00000E+00,	0,	0
  2.75510E+01,	1.00000E+01,	-1.73980E-02,	9.67656E+01,	4.19642E+01,	-1.32216E+02,	0.00000E+00,	0,	0
  2.26891E+01,	1.00000E+01,	-1.73980E-02,	9.97135E+01,	4.99569E+01,	-1.55163E+02,	0.00000E+00,	0,	0
  1.87500E+01,	1.00000E+01,	-1.73980E-02,	1.03391E+02,	5.94771E+01,	-1.81199E+02,	0.00000E+00,	0,	0
  1.55172E+01,	1.00000E+01,	-1.73980E-02,	1.08906E+02,	7.07147E+01,	-2.10831E+02,	0.00000E+00,	0,	0
  1.28571E+01,	1.00000E+01,	-1.73980E-02,	1.13525E+02,	8.41349E+01,	-2.44476E+02,	0.00000E+00,	0,	0
  1.04651E+01,	1.00000E+01,	-1.73980E-02,	1.16226E+02,	1.01330E+02,	-2.86566E+02,	0.00000E+00,	0,	0
  8.65385E+00,	1.00000E+01,	-1.73980E-02,	1.22045E+02,	1.20367E+02,	-3.31891E+02,	0.00000E+00,	0,	0
  7.14286E+00,	1.00000E+01,	-1.73980E-02,	1.24448E+02,	1.42024E+02,	-3.82932E+02,	0.00000E+00,	0,	0
  5.84416E+00,	1.00000E+01,	-1.73980E-02,	1.27163E+02,	1.67675E+02,	-4.44313E+02,	0.00000E+00,	0,	0
  4.83871E+00,	1.00000E+01,	-1.73980E-02,	1.30296E+02,	1.94567E+02,	-5.10633E+02,	0.00000E+00,	0,	0
  3.98230E+00,	1.00000E+01,	-1.73980E-02,	1.33895E+02,	2.25128E+02,	-5.89684E+02,	0.00000E+00,	0,	0
  3.28467E+00,	1.00000E+01,	-1.73980E-02,	1.38045E+02,	2.58364E+02,	-6.80549E+02,	0.00000E+00,	0,	0
  2.69461E+00,	1.00000E+01,	-1.73980E-02,	1.41946E+02,	2.95731E+02,	-7.89560E+02,	0.00000E+00,	0,	0
  2.22772E+00,	1.00000E+01,	-1.73980E-02,	1.46469E+02,	3.34750E+02,	-9.12992E+02,	0.00000E+00,	0,	0
  1.82927E+00,	1.00000E+01,	-1.73980E-02,	1.51756E+02,	3.79557E+02,	-1.06383E+03,	0.00000E+00,	0,	0
  1.51007E+00,	1.00000E+01,	-1.73980E-02,	1.58686E+02,	4.27624E+02,	-1.23725E+03,	0.00000E+00,	0,	0
  1.24309E+00,	1.00000E+01,	-1.73980E-02,	1.62979E+02,	4.83214E+02,	-1.44585E+03,	0.00000E+00,	0,	0
  1.02273E+00,	1.00000E+01,	-1.73980E-02,	1.67400E+02,	5.46775E+02,	-1.69649E+03,	0.00000E+00,	0,	0
  8.45865E-01,	1.00000E+01,	-1.73980E-02,	1.74194E+02,	6.16257E+02,	-1.98171E+03,	0.00000E+00,	0,	0
  6.94444E-01,	1.00000E+01,	-1.73980E-02,	1.78561E+02,	7.02106E+02,	-2.33602E+03,	0.00000E+00,	0,	0
  5.73980E-01,	1.00000E+01,	-1.73980E-02,	1.83113E+02,	7.76197E+02,	-2.74791E+03,	0.00000E+00,	0,	0
  4.72689E-01,	1.00000E+01,	-1.73980E-02,	1.88438E+02,	8.89570E+02,	-3.24084E+03,	0.00000E+00,	0,	0
  3.90625E-01,	1.00000E+01,	-1.73980E-02,	1.94478E+02,	1.01861E+03,	-3.85266E+03,	0.00000E+00,	0,	0
  3.21429E-01,	1.00000E+01,	-1.73980E-02,	2.01607E+02,	1.18187E+03,	-4.54955E+03,	0.00000E+00,	0,	0
  2.64085E-01,	1.00000E+01,	-1.73980E-02,	2.10245E+02,	1.37494E+03,	-5.38555E+03,	0.00000E+00,	0,	0
  2.18023E-01,	1.00000E+01,	-1.73980E-02,	2.20328E+02,	1.59892E+03,	-6.35802E+03,	0.00000E+00,	0,	0
  1.79426E-01,	1.00000E+01,	-1.73980E-02,	2.32404E+02,	1.88426E+03,	-7.51459E+03,	0.00000E+00,	0,	0
  1.47638E-01,	1.00000E+01,	-1.73980E-02,	2.46881E+02,	2.23039E+03,	-8.89223E+03,	0.00000E+00,	0,	0
  1.21753E-01,	1.00000E+01,	-1.73980E-02,	2.64232E+02,	2.65571E+03,	-1.05010E+04,	0.00000E+00,	0,	0
  1.00446E-01,	1.00000E+01,	-1.73980E-02,	2.85104E+02,	3.18706E+03,	-1.23919E+04,	0.00000E+00,	0,	0