Z60W Data File: Version 1.1
CorrTest for Windows: SN CS310H1805157  V5.2.1111.9  2.5H6.220118
Sweep Frequency: Control Voltage
  Date:4-27-2026   Time:14:09:03
  Begin Information:            Cell Information
      Surface Area:           1
      Density:                7.8
      Weight:                 28
  End Information:              Cell Information
  Freq (Hz)     Ampl(mV)       Bias(V)      Time(Sec)       Z'(Ohm.cm^2)    Z''(Ohm.cm^2)        GD       Err      Range
End Comments
  3.07200E+05,	1.00000E+01,	-1.66915E-02,	2.29939E-02,	2.76980E+01,	1.68799E+01,	0.00000E+00,	0,	0
  2.76480E+05,	1.00000E+01,	-1.66915E-02,	1.63995E+00,	2.74283E+01,	1.47435E+01,	0.00000E+00,	0,	0
  2.30400E+05,	1.00000E+01,	-1.66915E-02,	2.54957E+00,	2.72456E+01,	1.23000E+01,	0.00000E+00,	0,	0
  1.72800E+05,	1.00000E+01,	-1.66915E-02,	3.44271E+00,	2.71174E+01,	9.13502E+00,	0.00000E+00,	0,	0
  1.53600E+05,	1.00000E+01,	-1.66915E-02,	4.39262E+00,	2.70511E+01,	8.12309E+00,	0.00000E+00,	0,	0
  1.15200E+05,	1.00000E+01,	-1.66915E-02,	5.32197E+00,	2.69966E+01,	6.00550E+00,	0.00000E+00,	0,	0
  9.87429E+04,	1.00000E+01,	-1.66915E-02,	6.21360E+00,	2.69565E+01,	5.04857E+00,	0.00000E+00,	0,	0
  8.13176E+04,	1.00000E+01,	-1.66915E-02,	7.17624E+00,	2.69897E+01,	3.98505E+00,	0.00000E+00,	0,	0
  6.58286E+04,	1.00000E+01,	-1.66915E-02,	8.07537E+00,	2.69517E+01,	3.13458E+00,	0.00000E+00,	0,	0
  5.31692E+04,	1.00000E+01,	-1.66915E-02,	1.01993E+01,	2.69420E+01,	2.36008E+00,	0.00000E+00,	0,	0
  4.60800E+04,	1.00000E+01,	-1.66915E-02,	1.17634E+01,	2.69894E+01,	1.88969E+00,	0.00000E+00,	0,	0
  3.63789E+04,	1.00000E+01,	-1.66915E-02,	1.27040E+01,	2.70089E+01,	1.25953E+00,	0.00000E+00,	0,	0
  3.00522E+04,	1.00000E+01,	-1.66915E-02,	1.35665E+01,	2.70698E+01,	8.17500E-01,	0.00000E+00,	0,	0
  2.46857E+04,	1.00000E+01,	-1.66915E-02,	1.44210E+01,	2.71077E+01,	4.56638E-01,	0.00000E+00,	0,	0
  2.03294E+04,	1.00000E+01,	-1.66915E-02,	1.54101E+01,	2.70885E+01,	8.66109E-02,	0.00000E+00,	0,	0
  1.64571E+04,	1.00000E+01,	-1.66915E-02,	1.62990E+01,	2.71792E+01,	-3.57348E-01,	0.00000E+00,	0,	0
  1.35529E+04,	1.00000E+01,	-1.66915E-02,	1.71074E+01,	2.72157E+01,	-7.48558E-01,	0.00000E+00,	0,	0
  1.11484E+04,	1.00000E+01,	-1.66915E-02,	1.80337E+01,	2.73144E+01,	-1.11077E+00,	0.00000E+00,	0,	0
  9.60000E+03,	1.00000E+01,	-1.66915E-02,	2.08150E+01,	2.73534E+01,	-1.41426E+00,	0.00000E+00,	0,	0
  7.85455E+03,	1.00000E+01,	-1.66915E-02,	2.17537E+01,	2.74662E+01,	-1.84063E+00,	0.00000E+00,	0,	0
  6.40000E+03,	1.00000E+01,	-1.66915E-02,	2.27328E+01,	2.75779E+01,	-2.35046E+00,	0.00000E+00,	0,	0
  5.23636E+03,	1.00000E+01,	-1.66915E-02,	2.36738E+01,	2.77571E+01,	-2.91496E+00,	0.00000E+00,	0,	0
  4.32000E+03,	1.00000E+01,	-1.66915E-02,	2.45632E+01,	2.79807E+01,	-3.49334E+00,	0.00000E+00,	0,	0
  3.52653E+03,	1.00000E+01,	-1.66915E-02,	2.55647E+01,	2.81945E+01,	-4.17572E+00,	0.00000E+00,	0,	0
  2.88000E+03,	1.00000E+01,	-1.66915E-02,	2.64952E+01,	2.84279E+01,	-4.98237E+00,	0.00000E+00,	0,	0
  2.36712E+03,	1.00000E+01,	-1.66915E-02,	2.74887E+01,	2.87656E+01,	-5.81496E+00,	0.00000E+00,	0,	0
  1.96364E+03,	1.00000E+01,	-1.66915E-02,	2.82378E+01,	2.91929E+01,	-6.88744E+00,	0.00000E+00,	0,	0
  1.61495E+03,	1.00000E+01,	-1.66915E-02,	2.91552E+01,	2.96108E+01,	-8.04446E+00,	0.00000E+00,	0,	0
  1.32923E+03,	1.00000E+01,	-1.66915E-02,	3.00862E+01,	3.00795E+01,	-9.27437E+00,	0.00000E+00,	0,	0
  1.09367E+03,	1.00000E+01,	-1.66915E-02,	3.11393E+01,	3.06615E+01,	-1.08644E+01,	0.00000E+00,	0,	0
  9.00000E+02,	1.00000E+01,	-1.66915E-02,	3.61680E+01,	3.15034E+01,	-1.25198E+01,	0.00000E+00,	0,	0
  7.44828E+02,	1.00000E+01,	-1.66915E-02,	3.75292E+01,	3.22657E+01,	-1.44381E+01,	0.00000E+00,	0,	0
  6.17143E+02,	1.00000E+01,	-1.66915E-02,	3.88989E+01,	3.31366E+01,	-1.66209E+01,	0.00000E+00,	0,	0
  5.14286E+02,	1.00000E+01,	-1.66915E-02,	4.02665E+01,	3.40793E+01,	-1.90511E+01,	0.00000E+00,	0,	0
  4.15385E+02,	1.00000E+01,	-1.66915E-02,	4.16343E+01,	3.53226E+01,	-2.23701E+01,	0.00000E+00,	0,	0
  3.42857E+02,	1.00000E+01,	-1.66915E-02,	4.40196E+01,	3.65931E+01,	-2.58653E+01,	0.00000E+00,	0,	0
  2.84211E+02,	1.00000E+01,	-1.66915E-02,	4.67178E+01,	3.79548E+01,	-2.98371E+01,	0.00000E+00,	0,	0
  2.32258E+02,	1.00000E+01,	-1.66915E-02,	4.95829E+01,	3.95999E+01,	-3.48449E+01,	0.00000E+00,	0,	0
  1.91150E+02,	1.00000E+01,	-1.66915E-02,	5.27015E+01,	4.13810E+01,	-4.05330E+01,	0.00000E+00,	0,	0
  1.57664E+02,	1.00000E+01,	-1.66915E-02,	5.61054E+01,	4.33431E+01,	-4.71618E+01,	0.00000E+00,	0,	0
  1.30120E+02,	1.00000E+01,	-1.66915E-02,	5.98447E+01,	4.55689E+01,	-5.49638E+01,	0.00000E+00,	0,	0
  1.06931E+02,	1.00000E+01,	-1.66915E-02,	6.39513E+01,	4.81109E+01,	-6.43993E+01,	0.00000E+00,	0,	0
  8.85246E+01,	1.00000E+01,	-1.66915E-02,	6.95560E+01,	5.09122E+01,	-7.52150E+01,	0.00000E+00,	0,	0
  7.29730E+01,	1.00000E+01,	-1.66915E-02,	7.44090E+01,	5.42450E+01,	-8.84909E+01,	0.00000E+00,	0,	0
  6.00000E+01,	1.00000E+01,	-1.66915E-02,	7.96850E+01,	5.81512E+01,	-1.02667E+02,	0.00000E+00,	0,	0
  4.95413E+01,	1.00000E+01,	-1.66915E-02,	8.83272E+01,	6.26899E+01,	-1.20598E+02,	0.00000E+00,	0,	0
  4.06015E+01,	1.00000E+01,	-1.66915E-02,	9.19429E+01,	6.81120E+01,	-1.42466E+02,	0.00000E+00,	0,	0
  3.35404E+01,	1.00000E+01,	-1.66915E-02,	9.57389E+01,	7.31527E+01,	-1.67124E+02,	0.00000E+00,	0,	0
  2.75510E+01,	1.00000E+01,	-1.66915E-02,	9.95778E+01,	8.09852E+01,	-1.97924E+02,	0.00000E+00,	0,	0
  2.26891E+01,	1.00000E+01,	-1.66915E-02,	1.02557E+02,	8.99481E+01,	-2.33471E+02,	0.00000E+00,	0,	0
  1.87500E+01,	1.00000E+01,	-1.66915E-02,	1.06254E+02,	1.00520E+02,	-2.74670E+02,	0.00000E+00,	0,	0
  1.55172E+01,	1.00000E+01,	-1.66915E-02,	1.11794E+02,	1.12883E+02,	-3.22708E+02,	0.00000E+00,	0,	0
  1.28571E+01,	1.00000E+01,	-1.66915E-02,	1.16472E+02,	1.27802E+02,	-3.78587E+02,	0.00000E+00,	0,	0
  1.04651E+01,	1.00000E+01,	-1.66915E-02,	1.19257E+02,	1.47369E+02,	-4.50822E+02,	0.00000E+00,	0,	0
  8.65385E+00,	1.00000E+01,	-1.66915E-02,	1.23519E+02,	1.69821E+02,	-5.29429E+02,	0.00000E+00,	0,	0
  7.14286E+00,	1.00000E+01,	-1.66915E-02,	1.25953E+02,	1.97150E+02,	-6.22388E+02,	0.00000E+00,	0,	0
  5.84416E+00,	1.00000E+01,	-1.66915E-02,	1.28698E+02,	2.32132E+02,	-7.35975E+02,	0.00000E+00,	0,	0
  4.83871E+00,	1.00000E+01,	-1.66915E-02,	1.31837E+02,	2.72395E+02,	-8.60923E+02,	0.00000E+00,	0,	0
  3.98230E+00,	1.00000E+01,	-1.66915E-02,	1.35520E+02,	3.22855E+02,	-1.01075E+03,	0.00000E+00,	0,	0
  3.28467E+00,	1.00000E+01,	-1.66915E-02,	1.39723E+02,	3.83537E+02,	-1.18233E+03,	0.00000E+00,	0,	0
  2.69461E+00,	1.00000E+01,	-1.66915E-02,	1.43640E+02,	4.59599E+02,	-1.38587E+03,	0.00000E+00,	0,	0
  2.22772E+00,	1.00000E+01,	-1.66915E-02,	1.48128E+02,	5.47012E+02,	-1.61076E+03,	0.00000E+00,	0,	0
  1.82927E+00,	1.00000E+01,	-1.66915E-02,	1.53467E+02,	6.54617E+02,	-1.87746E+03,	0.00000E+00,	0,	0
  1.51007E+00,	1.00000E+01,	-1.66915E-02,	1.60403E+02,	7.77225E+02,	-2.17285E+03,	0.00000E+00,	0,	0
  1.24309E+00,	1.00000E+01,	-1.66915E-02,	1.64706E+02,	9.21971E+02,	-2.51390E+03,	0.00000E+00,	0,	0
  1.02273E+00,	1.00000E+01,	-1.66915E-02,	1.69130E+02,	1.09071E+03,	-2.90956E+03,	0.00000E+00,	0,	0
  8.45865E-01,	1.00000E+01,	-1.66915E-02,	1.75951E+02,	1.26759E+03,	-3.33869E+03,	0.00000E+00,	0,	0
  6.94444E-01,	1.00000E+01,	-1.66915E-02,	1.80347E+02,	1.47687E+03,	-3.85799E+03,	0.00000E+00,	0,	0
  5.73980E-01,	1.00000E+01,	-1.66915E-02,	1.84954E+02,	1.63721E+03,	-4.46676E+03,	0.00000E+00,	0,	0
  4.72689E-01,	1.00000E+01,	-1.66915E-02,	1.90357E+02,	1.88240E+03,	-5.16741E+03,	0.00000E+00,	0,	0
  3.90625E-01,	1.00000E+01,	-1.66915E-02,	1.96425E+02,	2.14925E+03,	-6.06545E+03,	0.00000E+00,	0,	0
  3.21429E-01,	1.00000E+01,	-1.66915E-02,	2.03571E+02,	2.45101E+03,	-7.03741E+03,	0.00000E+00,	0,	0
  2.64085E-01,	1.00000E+01,	-1.66915E-02,	2.12259E+02,	2.77852E+03,	-8.20623E+03,	0.00000E+00,	0,	0
  2.18023E-01,	1.00000E+01,	-1.66915E-02,	2.22369E+02,	3.12712E+03,	-9.57373E+03,	0.00000E+00,	0,	0
  1.79426E-01,	1.00000E+01,	-1.66915E-02,	2.34436E+02,	3.53938E+03,	-1.11795E+04,	0.00000E+00,	0,	0
  1.47638E-01,	1.00000E+01,	-1.66915E-02,	2.48920E+02,	4.00075E+03,	-1.31007E+04,	0.00000E+00,	0,	0
  1.21753E-01,	1.00000E+01,	-1.66915E-02,	2.66290E+02,	4.52340E+03,	-1.53525E+04,	0.00000E+00,	0,	0
  1.00446E-01,	1.00000E+01,	-1.66915E-02,	2.87150E+02,	5.11695E+03,	-1.80158E+04,	0.00000E+00,	0,	0