Z60W Data File: Version 1.1
CorrTest for Windows: SN CS310H1805157  V5.2.1111.9  2.5H6.220118
Sweep Frequency: Control Voltage
  Date:4-27-2026   Time:16:24:41
  Begin Information:            Cell Information
      Surface Area:           1
      Density:                7.8
      Weight:                 28
  End Information:              Cell Information
  Freq (Hz)     Ampl(mV)       Bias(V)      Time(Sec)       Z'(Ohm.cm^2)    Z''(Ohm.cm^2)        GD       Err      Range
End Comments
  3.07200E+05,	1.00000E+01,	-1.84261E-02,	2.71576E-02,	1.60951E+02,	4.03252E+01,	0.00000E+00,	0,	0
  2.76480E+05,	1.00000E+01,	-1.84261E-02,	1.63245E+00,	1.56876E+02,	3.56199E+01,	0.00000E+00,	0,	0
  2.30400E+05,	1.00000E+01,	-1.84261E-02,	2.53067E+00,	1.53605E+02,	3.04013E+01,	0.00000E+00,	0,	0
  1.72800E+05,	1.00000E+01,	-1.84261E-02,	3.47173E+00,	1.50068E+02,	2.28844E+01,	0.00000E+00,	0,	0
  1.53600E+05,	1.00000E+01,	-1.84261E-02,	4.36789E+00,	1.49667E+02,	2.02755E+01,	0.00000E+00,	0,	0
  1.15200E+05,	1.00000E+01,	-1.84261E-02,	5.30970E+00,	1.48222E+02,	1.44880E+01,	0.00000E+00,	0,	0
  9.87429E+04,	1.00000E+01,	-1.84261E-02,	6.25129E+00,	1.47851E+02,	1.18939E+01,	0.00000E+00,	0,	0
  8.13176E+04,	1.00000E+01,	-1.84261E-02,	7.20634E+00,	1.48057E+02,	9.14518E+00,	0.00000E+00,	0,	0
  6.58286E+04,	1.00000E+01,	-1.84261E-02,	8.14248E+00,	1.48261E+02,	7.52768E+00,	0.00000E+00,	0,	0
  5.31692E+04,	1.00000E+01,	-1.84261E-02,	9.20627E+00,	1.47453E+02,	4.70255E+00,	0.00000E+00,	0,	0
  4.60800E+04,	1.00000E+01,	-1.84261E-02,	1.07867E+01,	1.48322E+02,	4.94739E+00,	0.00000E+00,	0,	0
  3.63789E+04,	1.00000E+01,	-1.84261E-02,	1.17188E+01,	1.48119E+02,	3.05381E+00,	0.00000E+00,	0,	0
  3.00522E+04,	1.00000E+01,	-1.84261E-02,	1.25698E+01,	1.50770E+02,	1.71812E+00,	0.00000E+00,	0,	0
  2.46857E+04,	1.00000E+01,	-1.84261E-02,	1.34487E+01,	1.49567E+02,	9.16351E-01,	0.00000E+00,	0,	0
  2.03294E+04,	1.00000E+01,	-1.84261E-02,	1.44315E+01,	1.49065E+02,	4.05992E-01,	0.00000E+00,	0,	0
  1.64571E+04,	1.00000E+01,	-1.84261E-02,	1.53825E+01,	1.49617E+02,	3.33517E-01,	0.00000E+00,	0,	0
  1.35529E+04,	1.00000E+01,	-1.84261E-02,	1.61974E+01,	1.49392E+02,	-1.16941E+00,	0.00000E+00,	0,	0
  1.11484E+04,	1.00000E+01,	-1.84261E-02,	1.71326E+01,	1.49541E+02,	-1.22547E+00,	0.00000E+00,	0,	0
  9.60000E+03,	1.00000E+01,	-1.84261E-02,	1.99342E+01,	1.50431E+02,	-1.37324E+00,	0.00000E+00,	0,	0
  7.85455E+03,	1.00000E+01,	-1.84261E-02,	2.08789E+01,	1.50666E+02,	-2.45926E+00,	0.00000E+00,	0,	0
  6.40000E+03,	1.00000E+01,	-1.84261E-02,	2.18589E+01,	1.50612E+02,	-2.85799E+00,	0.00000E+00,	0,	0
  5.23636E+03,	1.00000E+01,	-1.84261E-02,	2.28106E+01,	1.50744E+02,	-3.71588E+00,	0.00000E+00,	0,	0
  4.32000E+03,	1.00000E+01,	-1.84261E-02,	2.37040E+01,	1.51202E+02,	-4.99161E+00,	0.00000E+00,	0,	0
  3.52653E+03,	1.00000E+01,	-1.84261E-02,	2.47075E+01,	1.51771E+02,	-5.20315E+00,	0.00000E+00,	0,	0
  2.88000E+03,	1.00000E+01,	-1.84261E-02,	2.55998E+01,	1.51970E+02,	-6.65756E+00,	0.00000E+00,	0,	0
  2.36712E+03,	1.00000E+01,	-1.84261E-02,	2.66164E+01,	1.52895E+02,	-8.74359E+00,	0.00000E+00,	0,	0
  1.96364E+03,	1.00000E+01,	-1.84261E-02,	2.73640E+01,	1.52407E+02,	-9.49348E+00,	0.00000E+00,	0,	0
  1.61495E+03,	1.00000E+01,	-1.84261E-02,	2.83071E+01,	1.51349E+02,	-9.85209E+00,	0.00000E+00,	0,	0
  1.32923E+03,	1.00000E+01,	-1.84261E-02,	2.92594E+01,	1.54315E+02,	-1.39323E+01,	0.00000E+00,	0,	0
  1.09367E+03,	1.00000E+01,	-1.84261E-02,	3.03033E+01,	1.54480E+02,	-1.60503E+01,	0.00000E+00,	0,	0
  9.00000E+02,	1.00000E+01,	-1.84261E-02,	3.53503E+01,	1.56720E+02,	-1.90671E+01,	0.00000E+00,	0,	0
  7.44828E+02,	1.00000E+01,	-1.84261E-02,	3.67387E+01,	1.57938E+02,	-2.22927E+01,	0.00000E+00,	0,	0
  6.17143E+02,	1.00000E+01,	-1.84261E-02,	3.81170E+01,	1.59364E+02,	-2.59678E+01,	0.00000E+00,	0,	0
  5.14286E+02,	1.00000E+01,	-1.84261E-02,	3.94771E+01,	1.61014E+02,	-3.01095E+01,	0.00000E+00,	0,	0
  4.15385E+02,	1.00000E+01,	-1.84261E-02,	4.08355E+01,	1.63226E+02,	-3.56341E+01,	0.00000E+00,	0,	0
  3.42857E+02,	1.00000E+01,	-1.84261E-02,	4.32336E+01,	1.65569E+02,	-4.13739E+01,	0.00000E+00,	0,	0
  2.84211E+02,	1.00000E+01,	-1.84261E-02,	4.59142E+01,	1.68456E+02,	-4.79412E+01,	0.00000E+00,	0,	0
  2.32258E+02,	1.00000E+01,	-1.84261E-02,	4.87837E+01,	1.71929E+02,	-5.59414E+01,	0.00000E+00,	0,	0
  1.91150E+02,	1.00000E+01,	-1.84261E-02,	5.19054E+01,	1.75754E+02,	-6.49713E+01,	0.00000E+00,	0,	0
  1.57664E+02,	1.00000E+01,	-1.84261E-02,	5.53304E+01,	1.80151E+02,	-7.50668E+01,	0.00000E+00,	0,	0
  1.30120E+02,	1.00000E+01,	-1.84261E-02,	5.90810E+01,	1.85063E+02,	-8.68455E+01,	0.00000E+00,	0,	0
  1.06931E+02,	1.00000E+01,	-1.84261E-02,	6.31847E+01,	1.90776E+02,	-1.00862E+02,	0.00000E+00,	0,	0
  8.85246E+01,	1.00000E+01,	-1.84261E-02,	6.87908E+01,	1.97249E+02,	-1.16700E+02,	0.00000E+00,	0,	0
  7.29730E+01,	1.00000E+01,	-1.84261E-02,	7.36306E+01,	2.04848E+02,	-1.35857E+02,	0.00000E+00,	0,	0
  6.00000E+01,	1.00000E+01,	-1.84261E-02,	7.88921E+01,	2.11834E+02,	-1.54860E+02,	0.00000E+00,	0,	0
  4.95413E+01,	1.00000E+01,	-1.84261E-02,	8.46211E+01,	2.20685E+02,	-1.79438E+02,	0.00000E+00,	0,	0
  4.06015E+01,	1.00000E+01,	-1.84261E-02,	8.82459E+01,	2.30745E+02,	-2.09253E+02,	0.00000E+00,	0,	0
  3.35404E+01,	1.00000E+01,	-1.84261E-02,	9.20012E+01,	2.39615E+02,	-2.43469E+02,	0.00000E+00,	0,	0
  2.75510E+01,	1.00000E+01,	-1.84261E-02,	9.58487E+01,	2.53325E+02,	-2.84959E+02,	0.00000E+00,	0,	0
  2.26891E+01,	1.00000E+01,	-1.84261E-02,	9.88141E+01,	2.67749E+02,	-3.32789E+02,	0.00000E+00,	0,	0
  1.87500E+01,	1.00000E+01,	-1.84261E-02,	1.02508E+02,	2.83893E+02,	-3.88099E+02,	0.00000E+00,	0,	0
  1.55172E+01,	1.00000E+01,	-1.84261E-02,	1.08048E+02,	3.02230E+02,	-4.52857E+02,	0.00000E+00,	0,	0
  1.28571E+01,	1.00000E+01,	-1.84261E-02,	1.12675E+02,	3.22802E+02,	-5.28491E+02,	0.00000E+00,	0,	0
  1.04651E+01,	1.00000E+01,	-1.84261E-02,	1.15395E+02,	3.48162E+02,	-6.26553E+02,	0.00000E+00,	0,	0
  8.65385E+00,	1.00000E+01,	-1.84261E-02,	1.19671E+02,	3.76374E+02,	-7.34440E+02,	0.00000E+00,	0,	0
  7.14286E+00,	1.00000E+01,	-1.84261E-02,	1.22092E+02,	4.08289E+02,	-8.61599E+02,	0.00000E+00,	0,	0
  5.84416E+00,	1.00000E+01,	-1.84261E-02,	1.24834E+02,	4.48441E+02,	-1.02013E+03,	0.00000E+00,	0,	0
  4.83871E+00,	1.00000E+01,	-1.84261E-02,	1.27972E+02,	4.92981E+02,	-1.19679E+03,	0.00000E+00,	0,	0
  3.98230E+00,	1.00000E+01,	-1.84261E-02,	1.31566E+02,	5.47502E+02,	-1.41195E+03,	0.00000E+00,	0,	0
  3.28467E+00,	1.00000E+01,	-1.84261E-02,	1.35726E+02,	6.11745E+02,	-1.66314E+03,	0.00000E+00,	0,	0
  2.69461E+00,	1.00000E+01,	-1.84261E-02,	1.39649E+02,	6.91752E+02,	-1.96810E+03,	0.00000E+00,	0,	0
  2.22772E+00,	1.00000E+01,	-1.84261E-02,	1.44150E+02,	7.84167E+02,	-2.31353E+03,	0.00000E+00,	0,	0
  1.82927E+00,	1.00000E+01,	-1.84261E-02,	1.49472E+02,	8.99631E+02,	-2.73544E+03,	0.00000E+00,	0,	0
  1.51007E+00,	1.00000E+01,	-1.84261E-02,	1.56430E+02,	1.03621E+03,	-3.21619E+03,	0.00000E+00,	0,	0
  1.24309E+00,	1.00000E+01,	-1.84261E-02,	1.60732E+02,	1.20565E+03,	-3.78834E+03,	0.00000E+00,	0,	0
  1.02273E+00,	1.00000E+01,	-1.84261E-02,	1.65212E+02,	1.41466E+03,	-4.46606E+03,	0.00000E+00,	0,	0
  8.45865E-01,	1.00000E+01,	-1.84261E-02,	1.72029E+02,	1.65856E+03,	-5.22415E+03,	0.00000E+00,	0,	0
  6.94444E-01,	1.00000E+01,	-1.84261E-02,	1.76390E+02,	1.96891E+03,	-6.15019E+03,	0.00000E+00,	0,	0
  5.73980E-01,	1.00000E+01,	-1.84261E-02,	1.80980E+02,	2.26672E+03,	-7.20279E+03,	0.00000E+00,	0,	0
  4.72689E-01,	1.00000E+01,	-1.84261E-02,	1.86389E+02,	2.71263E+03,	-8.43641E+03,	0.00000E+00,	0,	0
  3.90625E-01,	1.00000E+01,	-1.84261E-02,	1.92424E+02,	3.23745E+03,	-9.92883E+03,	0.00000E+00,	0,	0
  3.21429E-01,	1.00000E+01,	-1.84261E-02,	1.99552E+02,	3.89279E+03,	-1.15748E+04,	0.00000E+00,	0,	0
  2.64085E-01,	1.00000E+01,	-1.84261E-02,	2.16958E+02,	4.70400E+03,	-1.33162E+04,	0.00000E+00,	0,	0
  2.18023E-01,	1.00000E+01,	-1.84261E-02,	2.27040E+02,	5.41204E+03,	-1.58242E+04,	0.00000E+00,	0,	0
  1.79426E-01,	1.00000E+01,	-1.84261E-02,	2.39185E+02,	6.55395E+03,	-1.81285E+04,	0.00000E+00,	0,	0
  1.47638E-01,	1.00000E+01,	-1.84261E-02,	2.53678E+02,	7.72330E+03,	-2.09985E+04,	0.00000E+00,	0,	0
  1.21753E-01,	1.00000E+01,	-1.84261E-02,	2.71039E+02,	9.02375E+03,	-2.42645E+04,	0.00000E+00,	0,	0
  1.00446E-01,	1.00000E+01,	-1.84261E-02,	2.91909E+02,	1.04727E+04,	-2.80430E+04,	0.00000E+00,	0,	0