Z60W Data File: Version 1.1
CorrTest for Windows: SN CS310H1805157  V5.2.1111.9  2.5H6.220118
Sweep Frequency: Control Voltage
  Date:4-27-2026   Time:15:32:07
  Begin Information:            Cell Information
      Surface Area:           1
      Density:                7.8
      Weight:                 28
  End Information:              Cell Information
  Freq (Hz)     Ampl(mV)       Bias(V)      Time(Sec)       Z'(Ohm.cm^2)    Z''(Ohm.cm^2)        GD       Err      Range
End Comments
  3.07200E+05,	1.00000E+01,	-1.69304E-02,	3.72320E-02,	7.16061E+01,	3.11954E+01,	0.00000E+00,	0,	0
  2.76480E+05,	1.00000E+01,	-1.69304E-02,	1.64830E+00,	7.02779E+01,	2.75753E+01,	0.00000E+00,	0,	0
  2.30400E+05,	1.00000E+01,	-1.69304E-02,	2.55360E+00,	6.87554E+01,	2.31250E+01,	0.00000E+00,	0,	0
  1.72800E+05,	1.00000E+01,	-1.69304E-02,	3.44826E+00,	6.74814E+01,	1.73662E+01,	0.00000E+00,	0,	0
  1.53600E+05,	1.00000E+01,	-1.69304E-02,	4.33830E+00,	6.70338E+01,	1.53287E+01,	0.00000E+00,	0,	0
  1.15200E+05,	1.00000E+01,	-1.69304E-02,	5.25452E+00,	6.64376E+01,	1.13778E+01,	0.00000E+00,	0,	0
  9.87429E+04,	1.00000E+01,	-1.69304E-02,	6.14802E+00,	6.62386E+01,	9.52808E+00,	0.00000E+00,	0,	0
  8.13176E+04,	1.00000E+01,	-1.69304E-02,	7.06939E+00,	6.61556E+01,	7.66115E+00,	0.00000E+00,	0,	0
  6.58286E+04,	1.00000E+01,	-1.69304E-02,	7.98891E+00,	6.58013E+01,	5.73765E+00,	0.00000E+00,	0,	0
  5.31692E+04,	1.00000E+01,	-1.69304E-02,	8.99477E+00,	6.61084E+01,	4.55840E+00,	0.00000E+00,	0,	0
  4.60800E+04,	1.00000E+01,	-1.69304E-02,	1.05567E+01,	6.59626E+01,	3.82162E+00,	0.00000E+00,	0,	0
  3.63789E+04,	1.00000E+01,	-1.69304E-02,	1.14944E+01,	6.61866E+01,	2.76431E+00,	0.00000E+00,	0,	0
  3.00522E+04,	1.00000E+01,	-1.69304E-02,	1.23407E+01,	6.56722E+01,	1.80290E+00,	0.00000E+00,	0,	0
  2.46857E+04,	1.00000E+01,	-1.69304E-02,	1.32329E+01,	6.61478E+01,	1.45563E+00,	0.00000E+00,	0,	0
  2.03294E+04,	1.00000E+01,	-1.69304E-02,	1.42262E+01,	6.60770E+01,	6.43283E-01,	0.00000E+00,	0,	0
  1.64571E+04,	1.00000E+01,	-1.69304E-02,	1.51244E+01,	6.61744E+01,	1.27883E-01,	0.00000E+00,	0,	0
  1.35529E+04,	1.00000E+01,	-1.69304E-02,	1.59336E+01,	6.62406E+01,	-4.82228E-01,	0.00000E+00,	0,	0
  1.11484E+04,	1.00000E+01,	-1.69304E-02,	1.68758E+01,	6.63997E+01,	-8.49760E-01,	0.00000E+00,	0,	0
  9.60000E+03,	1.00000E+01,	-1.69304E-02,	1.85469E+01,	6.65832E+01,	-1.37106E+00,	0.00000E+00,	0,	0
  7.85455E+03,	1.00000E+01,	-1.69304E-02,	1.94898E+01,	6.65219E+01,	-2.07315E+00,	0.00000E+00,	0,	0
  6.40000E+03,	1.00000E+01,	-1.69304E-02,	2.04434E+01,	6.66362E+01,	-2.71837E+00,	0.00000E+00,	0,	0
  5.23636E+03,	1.00000E+01,	-1.69304E-02,	2.13806E+01,	6.66981E+01,	-3.40735E+00,	0.00000E+00,	0,	0
  4.32000E+03,	1.00000E+01,	-1.69304E-02,	2.22715E+01,	6.71515E+01,	-4.05670E+00,	0.00000E+00,	0,	0
  3.52653E+03,	1.00000E+01,	-1.69304E-02,	2.32947E+01,	6.72542E+01,	-5.06917E+00,	0.00000E+00,	0,	0
  2.88000E+03,	1.00000E+01,	-1.69304E-02,	2.42112E+01,	6.74639E+01,	-6.12357E+00,	0.00000E+00,	0,	0
  2.36712E+03,	1.00000E+01,	-1.69304E-02,	2.52076E+01,	6.80225E+01,	-7.06538E+00,	0.00000E+00,	0,	0
  1.96364E+03,	1.00000E+01,	-1.69304E-02,	2.59469E+01,	6.82060E+01,	-8.42231E+00,	0.00000E+00,	0,	0
  1.61495E+03,	1.00000E+01,	-1.69304E-02,	2.68431E+01,	6.85876E+01,	-9.80566E+00,	0.00000E+00,	0,	0
  1.32923E+03,	1.00000E+01,	-1.69304E-02,	2.77770E+01,	6.94959E+01,	-1.14313E+01,	0.00000E+00,	0,	0
  1.09367E+03,	1.00000E+01,	-1.69304E-02,	2.88743E+01,	7.00838E+01,	-1.34858E+01,	0.00000E+00,	0,	0
  9.00000E+02,	1.00000E+01,	-1.69304E-02,	3.38557E+01,	7.11505E+01,	-1.58539E+01,	0.00000E+00,	0,	0
  7.44828E+02,	1.00000E+01,	-1.69304E-02,	3.52120E+01,	7.21090E+01,	-1.84108E+01,	0.00000E+00,	0,	0
  6.17143E+02,	1.00000E+01,	-1.69304E-02,	3.65695E+01,	7.32580E+01,	-2.12796E+01,	0.00000E+00,	0,	0
  5.14286E+02,	1.00000E+01,	-1.69304E-02,	3.79341E+01,	7.45437E+01,	-2.44655E+01,	0.00000E+00,	0,	0
  4.15385E+02,	1.00000E+01,	-1.69304E-02,	3.92955E+01,	7.62861E+01,	-2.87984E+01,	0.00000E+00,	0,	0
  3.42857E+02,	1.00000E+01,	-1.69304E-02,	4.16825E+01,	7.81017E+01,	-3.32669E+01,	0.00000E+00,	0,	0
  2.84211E+02,	1.00000E+01,	-1.69304E-02,	4.43752E+01,	8.00715E+01,	-3.82707E+01,	0.00000E+00,	0,	0
  2.32258E+02,	1.00000E+01,	-1.69304E-02,	4.72168E+01,	8.25075E+01,	-4.45689E+01,	0.00000E+00,	0,	0
  1.91150E+02,	1.00000E+01,	-1.69304E-02,	5.03300E+01,	8.51214E+01,	-5.15969E+01,	0.00000E+00,	0,	0
  1.57664E+02,	1.00000E+01,	-1.69304E-02,	5.37294E+01,	8.80251E+01,	-5.96860E+01,	0.00000E+00,	0,	0
  1.30120E+02,	1.00000E+01,	-1.69304E-02,	5.74599E+01,	9.12871E+01,	-6.90810E+01,	0.00000E+00,	0,	0
  1.06931E+02,	1.00000E+01,	-1.69304E-02,	6.15538E+01,	9.49854E+01,	-8.03920E+01,	0.00000E+00,	0,	0
  8.85246E+01,	1.00000E+01,	-1.69304E-02,	6.71498E+01,	9.90411E+01,	-9.32476E+01,	0.00000E+00,	0,	0
  7.29730E+01,	1.00000E+01,	-1.69304E-02,	7.20099E+01,	1.03810E+02,	-1.08965E+02,	0.00000E+00,	0,	0
  6.00000E+01,	1.00000E+01,	-1.69304E-02,	7.72689E+01,	1.08757E+02,	-1.25255E+02,	0.00000E+00,	0,	0
  4.95413E+01,	1.00000E+01,	-1.69304E-02,	8.58726E+01,	1.14818E+02,	-1.46201E+02,	0.00000E+00,	0,	0
  4.06015E+01,	1.00000E+01,	-1.69304E-02,	8.94850E+01,	1.21798E+02,	-1.71669E+02,	0.00000E+00,	0,	0
  3.35404E+01,	1.00000E+01,	-1.69304E-02,	9.32747E+01,	1.28034E+02,	-2.00586E+02,	0.00000E+00,	0,	0
  2.75510E+01,	1.00000E+01,	-1.69304E-02,	9.70851E+01,	1.37736E+02,	-2.36324E+02,	0.00000E+00,	0,	0
  2.26891E+01,	1.00000E+01,	-1.69304E-02,	1.00068E+02,	1.48423E+02,	-2.77683E+02,	0.00000E+00,	0,	0
  1.87500E+01,	1.00000E+01,	-1.69304E-02,	1.03754E+02,	1.60649E+02,	-3.25622E+02,	0.00000E+00,	0,	0
  1.55172E+01,	1.00000E+01,	-1.69304E-02,	1.09271E+02,	1.74589E+02,	-3.81749E+02,	0.00000E+00,	0,	0
  1.28571E+01,	1.00000E+01,	-1.69304E-02,	1.13895E+02,	1.91026E+02,	-4.47192E+02,	0.00000E+00,	0,	0
  1.04651E+01,	1.00000E+01,	-1.69304E-02,	1.16592E+02,	2.12089E+02,	-5.32208E+02,	0.00000E+00,	0,	0
  8.65385E+00,	1.00000E+01,	-1.69304E-02,	1.20855E+02,	2.35538E+02,	-6.25087E+02,	0.00000E+00,	0,	0
  7.14286E+00,	1.00000E+01,	-1.69304E-02,	1.23271E+02,	2.64127E+02,	-7.35902E+02,	0.00000E+00,	0,	0
  5.84416E+00,	1.00000E+01,	-1.69304E-02,	1.26007E+02,	2.99787E+02,	-8.72442E+02,	0.00000E+00,	0,	0
  4.83871E+00,	1.00000E+01,	-1.69304E-02,	1.29148E+02,	3.40748E+02,	-1.02406E+03,	0.00000E+00,	0,	0
  3.98230E+00,	1.00000E+01,	-1.69304E-02,	1.32742E+02,	3.91565E+02,	-1.20761E+03,	0.00000E+00,	0,	0
  3.28467E+00,	1.00000E+01,	-1.69304E-02,	1.36880E+02,	4.53135E+02,	-1.42077E+03,	0.00000E+00,	0,	0
  2.69461E+00,	1.00000E+01,	-1.69304E-02,	1.40754E+02,	5.30316E+02,	-1.67725E+03,	0.00000E+00,	0,	0
  2.22772E+00,	1.00000E+01,	-1.69304E-02,	1.45270E+02,	6.20770E+02,	-1.96551E+03,	0.00000E+00,	0,	0
  1.82927E+00,	1.00000E+01,	-1.69304E-02,	1.50610E+02,	7.35155E+02,	-2.31323E+03,	0.00000E+00,	0,	0
  1.51007E+00,	1.00000E+01,	-1.69304E-02,	1.57544E+02,	8.69845E+02,	-2.70461E+03,	0.00000E+00,	0,	0
  1.24309E+00,	1.00000E+01,	-1.69304E-02,	1.61861E+02,	1.03721E+03,	-3.16376E+03,	0.00000E+00,	0,	0
  1.02273E+00,	1.00000E+01,	-1.69304E-02,	1.66354E+02,	1.24311E+03,	-3.70165E+03,	0.00000E+00,	0,	0
  8.45865E-01,	1.00000E+01,	-1.69304E-02,	1.73214E+02,	1.47509E+03,	-4.28586E+03,	0.00000E+00,	0,	0
  6.94444E-01,	1.00000E+01,	-1.69304E-02,	1.77577E+02,	1.76750E+03,	-4.99252E+03,	0.00000E+00,	0,	0
  5.73980E-01,	1.00000E+01,	-1.69304E-02,	1.82140E+02,	2.02144E+03,	-5.79122E+03,	0.00000E+00,	0,	0
  4.72689E-01,	1.00000E+01,	-1.69304E-02,	1.87488E+02,	2.40291E+03,	-6.70723E+03,	0.00000E+00,	0,	0
  3.90625E-01,	1.00000E+01,	-1.69304E-02,	1.93507E+02,	2.82957E+03,	-7.83196E+03,	0.00000E+00,	0,	0
  3.21429E-01,	1.00000E+01,	-1.69304E-02,	2.00638E+02,	3.32589E+03,	-9.03685E+03,	0.00000E+00,	0,	0
  2.64085E-01,	1.00000E+01,	-1.69304E-02,	2.09335E+02,	3.86474E+03,	-1.04548E+04,	0.00000E+00,	0,	0
  2.18023E-01,	1.00000E+01,	-1.69304E-02,	2.19481E+02,	4.43126E+03,	-1.20887E+04,	0.00000E+00,	0,	0
  1.79426E-01,	1.00000E+01,	-1.69304E-02,	2.31530E+02,	5.08178E+03,	-1.39666E+04,	0.00000E+00,	0,	0
  1.47638E-01,	1.00000E+01,	-1.69304E-02,	2.46031E+02,	5.78218E+03,	-1.61915E+04,	0.00000E+00,	0,	0
  1.21753E-01,	1.00000E+01,	-1.69304E-02,	2.63406E+02,	6.54363E+03,	-1.88036E+04,	0.00000E+00,	0,	0
  1.00446E-01,	1.00000E+01,	-1.69304E-02,	2.84310E+02,	7.38441E+03,	-2.18659E+04,	0.00000E+00,	0,	0