Z60W Data File: Version 1.1
CorrTest for Windows: SN CS310H1805157  V5.2.1111.9  2.5H6.220118
Sweep Frequency: Control Voltage
  Date:4-27-2026   Time:17:12:03
  Begin Information:            Cell Information
      Surface Area:           1
      Density:                7.8
      Weight:                 28
  End Information:              Cell Information
  Freq (Hz)     Ampl(mV)       Bias(V)      Time(Sec)       Z'(Ohm.cm^2)    Z''(Ohm.cm^2)        GD       Err      Range
End Comments
  3.07200E+05,	1.00000E+01,	-2.19859E-02,	5.13726E-02,	4.27283E+02,	-4.70145E+02,	0.00000E+00,	0,	0
  2.76480E+05,	1.00000E+01,	-2.19859E-02,	1.66545E+00,	4.83165E+02,	-4.74453E+02,	0.00000E+00,	0,	0
  2.30400E+05,	1.00000E+01,	-2.19859E-02,	2.61179E+00,	5.24814E+02,	-4.86420E+02,	0.00000E+00,	0,	0
  1.72800E+05,	1.00000E+01,	-2.19859E-02,	3.50750E+00,	6.22151E+02,	-4.92891E+02,	0.00000E+00,	0,	0
  1.53600E+05,	1.00000E+01,	-2.19859E-02,	4.40077E+00,	6.63667E+02,	-5.10084E+02,	0.00000E+00,	0,	0
  1.15200E+05,	1.00000E+01,	-2.19859E-02,	5.29288E+00,	7.67087E+02,	-5.16094E+02,	0.00000E+00,	0,	0
  9.87429E+04,	1.00000E+01,	-2.19859E-02,	6.19635E+00,	8.40030E+02,	-4.97250E+02,	0.00000E+00,	0,	0
  8.13176E+04,	1.00000E+01,	-2.19859E-02,	7.10607E+00,	9.03015E+02,	-5.37085E+02,	0.00000E+00,	0,	0
  6.58286E+04,	1.00000E+01,	-2.19859E-02,	8.00413E+00,	1.00993E+03,	-4.77116E+02,	0.00000E+00,	0,	0
  5.31692E+04,	1.00000E+01,	-2.19859E-02,	9.04941E+00,	1.05566E+03,	-4.03053E+02,	0.00000E+00,	0,	0
  4.60800E+04,	1.00000E+01,	-2.19859E-02,	1.06198E+01,	1.11812E+03,	-4.01835E+02,	0.00000E+00,	0,	0
  3.63789E+04,	1.00000E+01,	-2.19859E-02,	1.15456E+01,	1.17838E+03,	-3.44001E+02,	0.00000E+00,	0,	0
  3.00522E+04,	1.00000E+01,	-2.19859E-02,	1.24035E+01,	1.11905E+03,	-3.07587E+02,	0.00000E+00,	0,	0
  2.46857E+04,	1.00000E+01,	-2.19859E-02,	1.32459E+01,	1.26784E+03,	-2.57305E+02,	0.00000E+00,	0,	0
  2.03294E+04,	1.00000E+01,	-2.19859E-02,	1.41859E+01,	1.27453E+03,	-2.23050E+02,	0.00000E+00,	0,	0
  1.64571E+04,	1.00000E+01,	-2.19859E-02,	1.50756E+01,	1.29980E+03,	-1.99371E+02,	0.00000E+00,	0,	0
  1.35529E+04,	1.00000E+01,	-2.19859E-02,	1.58746E+01,	1.32824E+03,	-1.74321E+02,	0.00000E+00,	0,	0
  1.11484E+04,	1.00000E+01,	-2.19859E-02,	1.67706E+01,	1.32321E+03,	-1.36419E+02,	0.00000E+00,	0,	0
  9.60000E+03,	1.00000E+01,	-2.19859E-02,	1.84547E+01,	1.35333E+03,	-1.45810E+02,	0.00000E+00,	0,	0
  7.85455E+03,	1.00000E+01,	-2.19859E-02,	1.94051E+01,	1.36827E+03,	-1.04068E+02,	0.00000E+00,	0,	0
  6.40000E+03,	1.00000E+01,	-2.19859E-02,	2.03856E+01,	1.37465E+03,	-8.13337E+01,	0.00000E+00,	0,	0
  5.23636E+03,	1.00000E+01,	-2.19859E-02,	2.13413E+01,	1.37614E+03,	-1.04826E+02,	0.00000E+00,	0,	0
  4.32000E+03,	1.00000E+01,	-2.19859E-02,	2.22395E+01,	1.37913E+03,	-6.23511E+01,	0.00000E+00,	0,	0
  3.52653E+03,	1.00000E+01,	-2.19859E-02,	2.32375E+01,	1.37527E+03,	-6.47682E+01,	0.00000E+00,	0,	0
  2.88000E+03,	1.00000E+01,	-2.19859E-02,	2.41594E+01,	1.35630E+03,	-3.89781E+01,	0.00000E+00,	0,	0
  2.36712E+03,	1.00000E+01,	-2.19859E-02,	2.51646E+01,	1.41000E+03,	-1.31466E+02,	0.00000E+00,	0,	0
  1.96364E+03,	1.00000E+01,	-2.19859E-02,	2.59216E+01,	1.31219E+03,	-6.02245E+01,	0.00000E+00,	0,	0
  1.61495E+03,	1.00000E+01,	-2.19859E-02,	2.68108E+01,	1.39283E+03,	-1.90374E+01,	0.00000E+00,	0,	0
  1.32923E+03,	1.00000E+01,	-2.19859E-02,	2.77857E+01,	1.36472E+03,	-4.01278E+01,	0.00000E+00,	0,	0
  1.09367E+03,	1.00000E+01,	-2.19859E-02,	2.88403E+01,	1.49640E+03,	-5.02904E+01,	0.00000E+00,	0,	0
  9.00000E+02,	1.00000E+01,	-2.19859E-02,	3.38353E+01,	1.39344E+03,	-4.03896E+01,	0.00000E+00,	0,	0
  7.44828E+02,	1.00000E+01,	-2.19859E-02,	3.52122E+01,	1.39504E+03,	-4.59894E+01,	0.00000E+00,	0,	0
  6.17143E+02,	1.00000E+01,	-2.19859E-02,	3.66203E+01,	1.39989E+03,	-8.40682E+01,	0.00000E+00,	0,	0
  5.14286E+02,	1.00000E+01,	-2.19859E-02,	3.79889E+01,	1.40288E+03,	-5.30260E+01,	0.00000E+00,	0,	0
  4.15385E+02,	1.00000E+01,	-2.19859E-02,	3.93702E+01,	1.40993E+03,	-6.21711E+01,	0.00000E+00,	0,	0
  3.42857E+02,	1.00000E+01,	-2.19859E-02,	4.17822E+01,	1.41385E+03,	-7.13157E+01,	0.00000E+00,	0,	0
  2.84211E+02,	1.00000E+01,	-2.19859E-02,	4.79539E+01,	1.42907E+03,	-8.03674E+01,	0.00000E+00,	0,	0
  2.32258E+02,	1.00000E+01,	-2.19859E-02,	5.08159E+01,	1.43640E+03,	-9.38763E+01,	0.00000E+00,	0,	0
  1.91150E+02,	1.00000E+01,	-2.19859E-02,	5.39255E+01,	1.44446E+03,	-1.07864E+02,	0.00000E+00,	0,	0
  1.57664E+02,	1.00000E+01,	-2.19859E-02,	5.73396E+01,	1.45585E+03,	-1.27605E+02,	0.00000E+00,	0,	0
  1.30120E+02,	1.00000E+01,	-2.19859E-02,	6.10968E+01,	1.46838E+03,	-1.48674E+02,	0.00000E+00,	0,	0
  1.06931E+02,	1.00000E+01,	-2.19859E-02,	6.51960E+01,	1.48353E+03,	-1.75716E+02,	0.00000E+00,	0,	0
  8.85246E+01,	1.00000E+01,	-2.19859E-02,	7.08003E+01,	1.50298E+03,	-2.04768E+02,	0.00000E+00,	0,	0
  7.29730E+01,	1.00000E+01,	-2.19859E-02,	7.56545E+01,	1.52727E+03,	-2.41727E+02,	0.00000E+00,	0,	0
  6.00000E+01,	1.00000E+01,	-2.19859E-02,	8.09044E+01,	1.53627E+03,	-2.69529E+02,	0.00000E+00,	0,	0
  4.95413E+01,	1.00000E+01,	-2.19859E-02,	8.66343E+01,	1.56111E+03,	-3.13013E+02,	0.00000E+00,	0,	0
  4.06015E+01,	1.00000E+01,	-2.19859E-02,	9.02561E+01,	1.58652E+03,	-3.66483E+02,	0.00000E+00,	0,	0
  3.35404E+01,	1.00000E+01,	-2.19859E-02,	9.40428E+01,	1.60738E+03,	-4.31817E+02,	0.00000E+00,	0,	0
  2.75510E+01,	1.00000E+01,	-2.19859E-02,	9.78613E+01,	1.64651E+03,	-5.00427E+02,	0.00000E+00,	0,	0
  2.26891E+01,	1.00000E+01,	-2.19859E-02,	1.00854E+02,	1.68488E+03,	-5.79005E+02,	0.00000E+00,	0,	0
  1.87500E+01,	1.00000E+01,	-2.19859E-02,	1.04549E+02,	1.72792E+03,	-6.68085E+02,	0.00000E+00,	0,	0
  1.55172E+01,	1.00000E+01,	-2.19859E-02,	1.10139E+02,	1.77782E+03,	-7.71419E+02,	0.00000E+00,	0,	0
  1.28571E+01,	1.00000E+01,	-2.19859E-02,	1.14779E+02,	1.83176E+03,	-8.87805E+02,	0.00000E+00,	0,	0
  1.04651E+01,	1.00000E+01,	-2.19859E-02,	1.17491E+02,	1.89315E+03,	-1.03761E+03,	0.00000E+00,	0,	0
  8.65385E+00,	1.00000E+01,	-2.19859E-02,	1.21758E+02,	1.96033E+03,	-1.19810E+03,	0.00000E+00,	0,	0
  7.14286E+00,	1.00000E+01,	-2.19859E-02,	1.24182E+02,	2.03130E+03,	-1.38580E+03,	0.00000E+00,	0,	0
  5.84416E+00,	1.00000E+01,	-2.19859E-02,	1.26928E+02,	2.11554E+03,	-1.61843E+03,	0.00000E+00,	0,	0
  4.83871E+00,	1.00000E+01,	-2.19859E-02,	1.30053E+02,	2.20541E+03,	-1.87336E+03,	0.00000E+00,	0,	0
  3.98230E+00,	1.00000E+01,	-2.19859E-02,	1.33670E+02,	2.30963E+03,	-2.18212E+03,	0.00000E+00,	0,	0
  3.28467E+00,	1.00000E+01,	-2.19859E-02,	1.37857E+02,	2.42793E+03,	-2.54160E+03,	0.00000E+00,	0,	0
  2.69461E+00,	1.00000E+01,	-2.19859E-02,	1.41822E+02,	2.56243E+03,	-2.97605E+03,	0.00000E+00,	0,	0
  2.22772E+00,	1.00000E+01,	-2.19859E-02,	1.46346E+02,	2.71189E+03,	-3.46902E+03,	0.00000E+00,	0,	0
  1.82927E+00,	1.00000E+01,	-2.19859E-02,	1.51656E+02,	2.88818E+03,	-4.07081E+03,	0.00000E+00,	0,	0
  1.51007E+00,	1.00000E+01,	-2.19859E-02,	1.55502E+02,	3.08234E+03,	-4.76115E+03,	0.00000E+00,	0,	0
  1.24309E+00,	1.00000E+01,	-2.19859E-02,	1.59832E+02,	3.31003E+03,	-5.59023E+03,	0.00000E+00,	0,	0
  1.02273E+00,	1.00000E+01,	-2.19859E-02,	1.64270E+02,	3.58128E+03,	-6.57728E+03,	0.00000E+00,	0,	0
  8.45865E-01,	1.00000E+01,	-2.19859E-02,	1.71090E+02,	3.87969E+03,	-7.70070E+03,	0.00000E+00,	0,	0
  6.94444E-01,	1.00000E+01,	-2.19859E-02,	1.75498E+02,	4.24309E+03,	-9.08480E+03,	0.00000E+00,	0,	0
  5.73980E-01,	1.00000E+01,	-2.19859E-02,	1.80085E+02,	4.55158E+03,	-1.07287E+04,	0.00000E+00,	0,	0
  4.72689E-01,	1.00000E+01,	-2.19859E-02,	1.85422E+02,	5.04999E+03,	-1.26439E+04,	0.00000E+00,	0,	0
  3.90625E-01,	1.00000E+01,	-2.19859E-02,	1.91448E+02,	5.65580E+03,	-1.50778E+04,	0.00000E+00,	0,	0
  3.21429E-01,	1.00000E+01,	-2.19859E-02,	1.98581E+02,	6.37948E+03,	-1.77712E+04,	0.00000E+00,	0,	0
  2.64085E-01,	1.00000E+01,	-2.19859E-02,	2.16017E+02,	7.28611E+03,	-2.06556E+04,	0.00000E+00,	0,	0
  2.18023E-01,	1.00000E+01,	-2.19859E-02,	2.26112E+02,	8.14164E+03,	-2.49330E+04,	0.00000E+00,	0,	0
  1.79426E-01,	1.00000E+01,	-2.19859E-02,	2.38213E+02,	9.48525E+03,	-2.91537E+04,	0.00000E+00,	0,	0
  1.47638E-01,	1.00000E+01,	-2.19859E-02,	2.52703E+02,	1.09839E+04,	-3.44074E+04,	0.00000E+00,	0,	0
  1.21753E-01,	1.00000E+01,	-2.19859E-02,	2.70053E+02,	1.27851E+04,	-4.05175E+04,	0.00000E+00,	0,	0
  1.00446E-01,	1.00000E+01,	-2.19859E-02,	2.90927E+02,	1.49632E+04,	-4.77033E+04,	0.00000E+00,	0,	0