Z60W Data File: Version 1.1
CorrTest for Windows: SN CS310H1805157  V5.2.1111.9  2.5H6.220118
Sweep Frequency: Control Voltage
  Date:4-27-2026   Time:14:36:21
  Begin Information:            Cell Information
      Surface Area:           1
      Density:                7.8
      Weight:                 28
  End Information:              Cell Information
  Freq (Hz)     Ampl(mV)       Bias(V)      Time(Sec)       Z'(Ohm.cm^2)    Z''(Ohm.cm^2)        GD       Err      Range
End Comments
  3.07200E+05,	1.00000E+01,	-1.68564E-02,	5.53076E-02,	3.75054E+01,	2.07542E+01,	0.00000E+00,	0,	0
  2.76480E+05,	1.00000E+01,	-1.68564E-02,	1.68881E+00,	3.72440E+01,	1.81940E+01,	0.00000E+00,	0,	0
  2.30400E+05,	1.00000E+01,	-1.68564E-02,	2.59157E+00,	3.67812E+01,	1.52598E+01,	0.00000E+00,	0,	0
  1.72800E+05,	1.00000E+01,	-1.68564E-02,	3.50730E+00,	3.62805E+01,	1.14022E+01,	0.00000E+00,	0,	0
  1.53600E+05,	1.00000E+01,	-1.68564E-02,	4.45859E+00,	3.61514E+01,	1.00937E+01,	0.00000E+00,	0,	0
  1.15200E+05,	1.00000E+01,	-1.68564E-02,	5.43564E+00,	3.59768E+01,	7.33199E+00,	0.00000E+00,	0,	0
  9.87429E+04,	1.00000E+01,	-1.68564E-02,	6.34295E+00,	3.59759E+01,	6.24480E+00,	0.00000E+00,	0,	0
  8.13176E+04,	1.00000E+01,	-1.68564E-02,	7.26215E+00,	3.59172E+01,	5.00756E+00,	0.00000E+00,	0,	0
  6.58286E+04,	1.00000E+01,	-1.68564E-02,	8.17746E+00,	3.59759E+01,	3.83945E+00,	0.00000E+00,	0,	0
  5.31692E+04,	1.00000E+01,	-1.68564E-02,	1.03037E+01,	3.58464E+01,	2.93812E+00,	0.00000E+00,	0,	0
  4.60800E+04,	1.00000E+01,	-1.68564E-02,	1.18682E+01,	3.59363E+01,	2.41889E+00,	0.00000E+00,	0,	0
  3.63789E+04,	1.00000E+01,	-1.68564E-02,	1.28278E+01,	3.59795E+01,	1.71779E+00,	0.00000E+00,	0,	0
  3.00522E+04,	1.00000E+01,	-1.68564E-02,	1.36739E+01,	3.58095E+01,	1.19011E+00,	0.00000E+00,	0,	0
  2.46857E+04,	1.00000E+01,	-1.68564E-02,	1.45202E+01,	3.60119E+01,	7.31622E-01,	0.00000E+00,	0,	0
  2.03294E+04,	1.00000E+01,	-1.68564E-02,	1.54556E+01,	3.60204E+01,	2.23774E-01,	0.00000E+00,	0,	0
  1.64571E+04,	1.00000E+01,	-1.68564E-02,	1.63682E+01,	3.61410E+01,	-2.54079E-01,	0.00000E+00,	0,	0
  1.35529E+04,	1.00000E+01,	-1.68564E-02,	1.71730E+01,	3.61509E+01,	-7.06868E-01,	0.00000E+00,	0,	0
  1.11484E+04,	1.00000E+01,	-1.68564E-02,	1.80779E+01,	3.62184E+01,	-1.08353E+00,	0.00000E+00,	0,	0
  9.60000E+03,	1.00000E+01,	-1.68564E-02,	2.08687E+01,	3.62481E+01,	-1.37781E+00,	0.00000E+00,	0,	0
  7.85455E+03,	1.00000E+01,	-1.68564E-02,	2.18046E+01,	3.64085E+01,	-1.90707E+00,	0.00000E+00,	0,	0
  6.40000E+03,	1.00000E+01,	-1.68564E-02,	2.27859E+01,	3.64717E+01,	-2.40995E+00,	0.00000E+00,	0,	0
  5.23636E+03,	1.00000E+01,	-1.68564E-02,	2.37199E+01,	3.66600E+01,	-3.05028E+00,	0.00000E+00,	0,	0
  4.32000E+03,	1.00000E+01,	-1.68564E-02,	2.46056E+01,	3.68721E+01,	-3.65947E+00,	0.00000E+00,	0,	0
  3.52653E+03,	1.00000E+01,	-1.68564E-02,	2.56074E+01,	3.71176E+01,	-4.39927E+00,	0.00000E+00,	0,	0
  2.88000E+03,	1.00000E+01,	-1.68564E-02,	2.65044E+01,	3.73142E+01,	-5.40185E+00,	0.00000E+00,	0,	0
  2.36712E+03,	1.00000E+01,	-1.68564E-02,	2.75086E+01,	3.77770E+01,	-6.26421E+00,	0.00000E+00,	0,	0
  1.96364E+03,	1.00000E+01,	-1.68564E-02,	2.83072E+01,	3.81286E+01,	-7.41859E+00,	0.00000E+00,	0,	0
  1.61495E+03,	1.00000E+01,	-1.68564E-02,	2.92213E+01,	3.85902E+01,	-8.45138E+00,	0.00000E+00,	0,	0
  1.32923E+03,	1.00000E+01,	-1.68564E-02,	3.01578E+01,	3.92012E+01,	-9.88850E+00,	0.00000E+00,	0,	0
  1.09367E+03,	1.00000E+01,	-1.68564E-02,	3.12170E+01,	3.97594E+01,	-1.15736E+01,	0.00000E+00,	0,	0
  9.00000E+02,	1.00000E+01,	-1.68564E-02,	3.62386E+01,	4.06676E+01,	-1.35666E+01,	0.00000E+00,	0,	0
  7.44828E+02,	1.00000E+01,	-1.68564E-02,	3.76174E+01,	4.15155E+01,	-1.56623E+01,	0.00000E+00,	0,	0
  6.17143E+02,	1.00000E+01,	-1.68564E-02,	3.89969E+01,	4.24880E+01,	-1.80476E+01,	0.00000E+00,	0,	0
  5.14286E+02,	1.00000E+01,	-1.68564E-02,	4.03929E+01,	4.35401E+01,	-2.06994E+01,	0.00000E+00,	0,	0
  4.15385E+02,	1.00000E+01,	-1.68564E-02,	4.17787E+01,	4.49499E+01,	-2.42924E+01,	0.00000E+00,	0,	0
  3.42857E+02,	1.00000E+01,	-1.68564E-02,	4.41750E+01,	4.63549E+01,	-2.80421E+01,	0.00000E+00,	0,	0
  2.84211E+02,	1.00000E+01,	-1.68564E-02,	4.68881E+01,	4.79146E+01,	-3.22938E+01,	0.00000E+00,	0,	0
  2.32258E+02,	1.00000E+01,	-1.68564E-02,	4.97488E+01,	4.97934E+01,	-3.76696E+01,	0.00000E+00,	0,	0
  1.91150E+02,	1.00000E+01,	-1.68564E-02,	5.29110E+01,	5.17863E+01,	-4.37041E+01,	0.00000E+00,	0,	0
  1.57664E+02,	1.00000E+01,	-1.68564E-02,	5.63150E+01,	5.40196E+01,	-5.07481E+01,	0.00000E+00,	0,	0
  1.30120E+02,	1.00000E+01,	-1.68564E-02,	6.00511E+01,	5.65154E+01,	-5.90022E+01,	0.00000E+00,	0,	0
  1.06931E+02,	1.00000E+01,	-1.68564E-02,	6.41412E+01,	5.93661E+01,	-6.89501E+01,	0.00000E+00,	0,	0
  8.85246E+01,	1.00000E+01,	-1.68564E-02,	6.97391E+01,	6.24789E+01,	-8.03552E+01,	0.00000E+00,	0,	0
  7.29730E+01,	1.00000E+01,	-1.68564E-02,	7.45871E+01,	6.61850E+01,	-9.43558E+01,	0.00000E+00,	0,	0
  6.00000E+01,	1.00000E+01,	-1.68564E-02,	7.98551E+01,	7.03696E+01,	-1.09188E+02,	0.00000E+00,	0,	0
  4.95413E+01,	1.00000E+01,	-1.68564E-02,	8.84713E+01,	7.52699E+01,	-1.27999E+02,	0.00000E+00,	0,	0
  4.06015E+01,	1.00000E+01,	-1.68564E-02,	9.21208E+01,	8.10712E+01,	-1.50979E+02,	0.00000E+00,	0,	0
  3.35404E+01,	1.00000E+01,	-1.68564E-02,	9.58767E+01,	8.64035E+01,	-1.76926E+02,	0.00000E+00,	0,	0
  2.75510E+01,	1.00000E+01,	-1.68564E-02,	9.96958E+01,	9.46896E+01,	-2.09248E+02,	0.00000E+00,	0,	0
  2.26891E+01,	1.00000E+01,	-1.68564E-02,	1.02655E+02,	1.04046E+02,	-2.46618E+02,	0.00000E+00,	0,	0
  1.87500E+01,	1.00000E+01,	-1.68564E-02,	1.06405E+02,	1.14984E+02,	-2.89967E+02,	0.00000E+00,	0,	0
  1.55172E+01,	1.00000E+01,	-1.68564E-02,	1.11942E+02,	1.27669E+02,	-3.40504E+02,	0.00000E+00,	0,	0
  1.28571E+01,	1.00000E+01,	-1.68564E-02,	1.16574E+02,	1.42889E+02,	-3.99522E+02,	0.00000E+00,	0,	0
  1.04651E+01,	1.00000E+01,	-1.68564E-02,	1.19283E+02,	1.62746E+02,	-4.75768E+02,	0.00000E+00,	0,	0
  8.65385E+00,	1.00000E+01,	-1.68564E-02,	1.23548E+02,	1.85139E+02,	-5.58975E+02,	0.00000E+00,	0,	0
  7.14286E+00,	1.00000E+01,	-1.68564E-02,	1.25987E+02,	2.12825E+02,	-6.57861E+02,	0.00000E+00,	0,	0
  5.84416E+00,	1.00000E+01,	-1.68564E-02,	1.28731E+02,	2.47952E+02,	-7.79161E+02,	0.00000E+00,	0,	0
  4.83871E+00,	1.00000E+01,	-1.68564E-02,	1.31887E+02,	2.88242E+02,	-9.12851E+02,	0.00000E+00,	0,	0
  3.98230E+00,	1.00000E+01,	-1.68564E-02,	1.35489E+02,	3.38944E+02,	-1.07370E+03,	0.00000E+00,	0,	0
  3.28467E+00,	1.00000E+01,	-1.68564E-02,	1.39689E+02,	4.00006E+02,	-1.25906E+03,	0.00000E+00,	0,	0
  2.69461E+00,	1.00000E+01,	-1.68564E-02,	1.43594E+02,	4.77310E+02,	-1.47993E+03,	0.00000E+00,	0,	0
  2.22772E+00,	1.00000E+01,	-1.68564E-02,	1.48086E+02,	5.66246E+02,	-1.72579E+03,	0.00000E+00,	0,	0
  1.82927E+00,	1.00000E+01,	-1.68564E-02,	1.53412E+02,	6.77858E+02,	-2.01893E+03,	0.00000E+00,	0,	0
  1.51007E+00,	1.00000E+01,	-1.68564E-02,	1.60383E+02,	8.07290E+02,	-2.34484E+03,	0.00000E+00,	0,	0
  1.24309E+00,	1.00000E+01,	-1.68564E-02,	1.64702E+02,	9.63237E+02,	-2.72250E+03,	0.00000E+00,	0,	0
  1.02273E+00,	1.00000E+01,	-1.68564E-02,	1.69141E+02,	1.14991E+03,	-3.16088E+03,	0.00000E+00,	0,	0
  8.45865E-01,	1.00000E+01,	-1.68564E-02,	1.75963E+02,	1.34981E+03,	-3.63284E+03,	0.00000E+00,	0,	0
  6.94444E-01,	1.00000E+01,	-1.68564E-02,	1.80402E+02,	1.59064E+03,	-4.20202E+03,	0.00000E+00,	0,	0
  5.73980E-01,	1.00000E+01,	-1.68564E-02,	1.84965E+02,	1.78189E+03,	-4.86013E+03,	0.00000E+00,	0,	0
  4.72689E-01,	1.00000E+01,	-1.68564E-02,	1.90337E+02,	2.06893E+03,	-5.61426E+03,	0.00000E+00,	0,	0
  3.90625E-01,	1.00000E+01,	-1.68564E-02,	1.96366E+02,	2.38386E+03,	-6.56800E+03,	0.00000E+00,	0,	0
  3.21429E-01,	1.00000E+01,	-1.68564E-02,	2.03495E+02,	2.73778E+03,	-7.59556E+03,	0.00000E+00,	0,	0
  2.64085E-01,	1.00000E+01,	-1.68564E-02,	2.12190E+02,	3.11877E+03,	-8.82701E+03,	0.00000E+00,	0,	0
  2.18023E-01,	1.00000E+01,	-1.68564E-02,	2.22289E+02,	3.52005E+03,	-1.02668E+04,	0.00000E+00,	0,	0
  1.79426E-01,	1.00000E+01,	-1.68564E-02,	2.34375E+02,	3.98867E+03,	-1.19425E+04,	0.00000E+00,	0,	0
  1.47638E-01,	1.00000E+01,	-1.68564E-02,	2.48846E+02,	4.50085E+03,	-1.39521E+04,	0.00000E+00,	0,	0
  1.21753E-01,	1.00000E+01,	-1.68564E-02,	2.66209E+02,	5.07342E+03,	-1.63034E+04,	0.00000E+00,	0,	0
  1.00446E-01,	1.00000E+01,	-1.68564E-02,	2.87059E+02,	5.72307E+03,	-1.90813E+04,	0.00000E+00,	0,	0