Z60W Data File: Version 1.1
CorrTest for Windows: SN CS310H1805157  V5.2.1111.9  2.5H6.220118
Sweep Frequency: Control Voltage
  Date:4-27-2026   Time:16:13:15
  Begin Information:            Cell Information
      Surface Area:           1
      Density:                7.8
      Weight:                 28
  End Information:              Cell Information
  Freq (Hz)     Ampl(mV)       Bias(V)      Time(Sec)       Z'(Ohm.cm^2)    Z''(Ohm.cm^2)        GD       Err      Range
End Comments
  3.07200E+05,	1.00000E+01,	-1.79373E-02,	5.42937E-02,	1.13663E+02,	3.81197E+01,	0.00000E+00,	0,	0
  2.76480E+05,	1.00000E+01,	-1.79373E-02,	1.66085E+00,	1.11343E+02,	3.42443E+01,	0.00000E+00,	0,	0
  2.30400E+05,	1.00000E+01,	-1.79373E-02,	2.56998E+00,	1.08696E+02,	2.88184E+01,	0.00000E+00,	0,	0
  1.72800E+05,	1.00000E+01,	-1.79373E-02,	3.52688E+00,	1.06178E+02,	2.15640E+01,	0.00000E+00,	0,	0
  1.53600E+05,	1.00000E+01,	-1.79373E-02,	4.48135E+00,	1.05778E+02,	1.91503E+01,	0.00000E+00,	0,	0
  1.15200E+05,	1.00000E+01,	-1.79373E-02,	5.38344E+00,	1.04759E+02,	1.39091E+01,	0.00000E+00,	0,	0
  9.87429E+04,	1.00000E+01,	-1.79373E-02,	6.27122E+00,	1.04225E+02,	1.18535E+01,	0.00000E+00,	0,	0
  8.13176E+04,	1.00000E+01,	-1.79373E-02,	7.18111E+00,	1.04250E+02,	9.74186E+00,	0.00000E+00,	0,	0
  6.58286E+04,	1.00000E+01,	-1.79373E-02,	8.08757E+00,	1.04459E+02,	7.25772E+00,	0.00000E+00,	0,	0
  5.31692E+04,	1.00000E+01,	-1.79373E-02,	9.14094E+00,	1.04592E+02,	5.47776E+00,	0.00000E+00,	0,	0
  4.60800E+04,	1.00000E+01,	-1.79373E-02,	1.06870E+01,	1.04355E+02,	4.67486E+00,	0.00000E+00,	0,	0
  3.63789E+04,	1.00000E+01,	-1.79373E-02,	1.16417E+01,	1.04580E+02,	3.47225E+00,	0.00000E+00,	0,	0
  3.00522E+04,	1.00000E+01,	-1.79373E-02,	1.24930E+01,	1.04028E+02,	1.99179E+00,	0.00000E+00,	0,	0
  2.46857E+04,	1.00000E+01,	-1.79373E-02,	1.33493E+01,	1.04800E+02,	1.47926E+00,	0.00000E+00,	0,	0
  2.03294E+04,	1.00000E+01,	-1.79373E-02,	1.43083E+01,	1.04828E+02,	7.89197E-01,	0.00000E+00,	0,	0
  1.64571E+04,	1.00000E+01,	-1.79373E-02,	1.52024E+01,	1.04762E+02,	6.26792E-01,	0.00000E+00,	0,	0
  1.35529E+04,	1.00000E+01,	-1.79373E-02,	1.60062E+01,	1.04901E+02,	-4.32739E-01,	0.00000E+00,	0,	0
  1.11484E+04,	1.00000E+01,	-1.79373E-02,	1.69519E+01,	1.05168E+02,	-1.19341E+00,	0.00000E+00,	0,	0
  9.60000E+03,	1.00000E+01,	-1.79373E-02,	1.86529E+01,	1.05746E+02,	-1.55110E+00,	0.00000E+00,	0,	0
  7.85455E+03,	1.00000E+01,	-1.79373E-02,	1.96442E+01,	1.05684E+02,	-2.24095E+00,	0.00000E+00,	0,	0
  6.40000E+03,	1.00000E+01,	-1.79373E-02,	2.06136E+01,	1.06100E+02,	-2.82989E+00,	0.00000E+00,	0,	0
  5.23636E+03,	1.00000E+01,	-1.79373E-02,	2.15511E+01,	1.05925E+02,	-3.82940E+00,	0.00000E+00,	0,	0
  4.32000E+03,	1.00000E+01,	-1.79373E-02,	2.24442E+01,	1.06274E+02,	-4.49361E+00,	0.00000E+00,	0,	0
  3.52653E+03,	1.00000E+01,	-1.79373E-02,	2.35009E+01,	1.06794E+02,	-5.39244E+00,	0.00000E+00,	0,	0
  2.88000E+03,	1.00000E+01,	-1.79373E-02,	2.43942E+01,	1.07162E+02,	-6.60259E+00,	0.00000E+00,	0,	0
  2.36712E+03,	1.00000E+01,	-1.79373E-02,	2.54497E+01,	1.07596E+02,	-7.93968E+00,	0.00000E+00,	0,	0
  1.96364E+03,	1.00000E+01,	-1.79373E-02,	2.62014E+01,	1.08430E+02,	-9.38408E+00,	0.00000E+00,	0,	0
  1.61495E+03,	1.00000E+01,	-1.79373E-02,	2.71130E+01,	1.08796E+02,	-1.10105E+01,	0.00000E+00,	0,	0
  1.32923E+03,	1.00000E+01,	-1.79373E-02,	2.80469E+01,	1.09277E+02,	-1.31736E+01,	0.00000E+00,	0,	0
  1.09367E+03,	1.00000E+01,	-1.79373E-02,	2.90985E+01,	1.10179E+02,	-1.54900E+01,	0.00000E+00,	0,	0
  9.00000E+02,	1.00000E+01,	-1.79373E-02,	3.40738E+01,	1.11635E+02,	-1.76663E+01,	0.00000E+00,	0,	0
  7.44828E+02,	1.00000E+01,	-1.79373E-02,	3.54404E+01,	1.12776E+02,	-2.06236E+01,	0.00000E+00,	0,	0
  6.17143E+02,	1.00000E+01,	-1.79373E-02,	3.68060E+01,	1.14121E+02,	-2.39545E+01,	0.00000E+00,	0,	0
  5.14286E+02,	1.00000E+01,	-1.79373E-02,	3.82195E+01,	1.15664E+02,	-2.76495E+01,	0.00000E+00,	0,	0
  4.15385E+02,	1.00000E+01,	-1.79373E-02,	3.95850E+01,	1.17708E+02,	-3.26780E+01,	0.00000E+00,	0,	0
  3.42857E+02,	1.00000E+01,	-1.79373E-02,	4.19865E+01,	1.19961E+02,	-3.78607E+01,	0.00000E+00,	0,	0
  2.84211E+02,	1.00000E+01,	-1.79373E-02,	4.63983E+01,	1.22794E+02,	-4.37250E+01,	0.00000E+00,	0,	0
  2.32258E+02,	1.00000E+01,	-1.79373E-02,	4.92867E+01,	1.25917E+02,	-5.10020E+01,	0.00000E+00,	0,	0
  1.91150E+02,	1.00000E+01,	-1.79373E-02,	5.24144E+01,	1.29321E+02,	-5.91421E+01,	0.00000E+00,	0,	0
  1.57664E+02,	1.00000E+01,	-1.79373E-02,	5.58188E+01,	1.33155E+02,	-6.83432E+01,	0.00000E+00,	0,	0
  1.30120E+02,	1.00000E+01,	-1.79373E-02,	5.95573E+01,	1.37465E+02,	-7.90594E+01,	0.00000E+00,	0,	0
  1.06931E+02,	1.00000E+01,	-1.79373E-02,	6.36462E+01,	1.42405E+02,	-9.18401E+01,	0.00000E+00,	0,	0
  8.85246E+01,	1.00000E+01,	-1.79373E-02,	6.92423E+01,	1.47896E+02,	-1.06348E+02,	0.00000E+00,	0,	0
  7.29730E+01,	1.00000E+01,	-1.79373E-02,	7.41414E+01,	1.54370E+02,	-1.23960E+02,	0.00000E+00,	0,	0
  6.00000E+01,	1.00000E+01,	-1.79373E-02,	7.94568E+01,	1.60639E+02,	-1.41864E+02,	0.00000E+00,	0,	0
  4.95413E+01,	1.00000E+01,	-1.79373E-02,	8.52052E+01,	1.68276E+02,	-1.64703E+02,	0.00000E+00,	0,	0
  4.06015E+01,	1.00000E+01,	-1.79373E-02,	8.88113E+01,	1.76996E+02,	-1.92699E+02,	0.00000E+00,	0,	0
  3.35404E+01,	1.00000E+01,	-1.79373E-02,	9.26256E+01,	1.84795E+02,	-2.24669E+02,	0.00000E+00,	0,	0
  2.75510E+01,	1.00000E+01,	-1.79373E-02,	9.64499E+01,	1.96701E+02,	-2.63698E+02,	0.00000E+00,	0,	0
  2.26891E+01,	1.00000E+01,	-1.79373E-02,	9.94192E+01,	2.09472E+02,	-3.08820E+02,	0.00000E+00,	0,	0
  1.87500E+01,	1.00000E+01,	-1.79373E-02,	1.03119E+02,	2.23919E+02,	-3.61156E+02,	0.00000E+00,	0,	0
  1.55172E+01,	1.00000E+01,	-1.79373E-02,	1.08653E+02,	2.40329E+02,	-4.22438E+02,	0.00000E+00,	0,	0
  1.28571E+01,	1.00000E+01,	-1.79373E-02,	1.13324E+02,	2.59124E+02,	-4.94042E+02,	0.00000E+00,	0,	0
  1.04651E+01,	1.00000E+01,	-1.79373E-02,	1.16045E+02,	2.82639E+02,	-5.86896E+02,	0.00000E+00,	0,	0
  8.65385E+00,	1.00000E+01,	-1.79373E-02,	1.20312E+02,	3.08095E+02,	-6.88478E+02,	0.00000E+00,	0,	0
  7.14286E+00,	1.00000E+01,	-1.79373E-02,	1.22758E+02,	3.39013E+02,	-8.09825E+02,	0.00000E+00,	0,	0
  5.84416E+00,	1.00000E+01,	-1.79373E-02,	1.25494E+02,	3.76839E+02,	-9.60310E+02,	0.00000E+00,	0,	0
  4.83871E+00,	1.00000E+01,	-1.79373E-02,	1.28609E+02,	4.19597E+02,	-1.12702E+03,	0.00000E+00,	0,	0
  3.98230E+00,	1.00000E+01,	-1.79373E-02,	1.32220E+02,	4.72169E+02,	-1.33038E+03,	0.00000E+00,	0,	0
  3.28467E+00,	1.00000E+01,	-1.79373E-02,	1.36378E+02,	5.35076E+02,	-1.56737E+03,	0.00000E+00,	0,	0
  2.69461E+00,	1.00000E+01,	-1.79373E-02,	1.40243E+02,	6.13681E+02,	-1.85426E+03,	0.00000E+00,	0,	0
  2.22772E+00,	1.00000E+01,	-1.79373E-02,	1.44757E+02,	7.04781E+02,	-2.17921E+03,	0.00000E+00,	0,	0
  1.82927E+00,	1.00000E+01,	-1.79373E-02,	1.50065E+02,	8.19653E+02,	-2.57405E+03,	0.00000E+00,	0,	0
  1.51007E+00,	1.00000E+01,	-1.79373E-02,	1.57007E+02,	9.55405E+02,	-3.02336E+03,	0.00000E+00,	0,	0
  1.24309E+00,	1.00000E+01,	-1.79373E-02,	1.61331E+02,	1.12489E+03,	-3.55482E+03,	0.00000E+00,	0,	0
  1.02273E+00,	1.00000E+01,	-1.79373E-02,	1.65801E+02,	1.33411E+03,	-4.18299E+03,	0.00000E+00,	0,	0
  8.45865E-01,	1.00000E+01,	-1.79373E-02,	1.72620E+02,	1.57628E+03,	-4.87957E+03,	0.00000E+00,	0,	0
  6.94444E-01,	1.00000E+01,	-1.79373E-02,	1.76988E+02,	1.88640E+03,	-5.72809E+03,	0.00000E+00,	0,	0
  5.73980E-01,	1.00000E+01,	-1.79373E-02,	1.81535E+02,	2.17519E+03,	-6.68821E+03,	0.00000E+00,	0,	0
  4.72689E-01,	1.00000E+01,	-1.79373E-02,	1.86953E+02,	2.60987E+03,	-7.80506E+03,	0.00000E+00,	0,	0
  3.90625E-01,	1.00000E+01,	-1.79373E-02,	1.92983E+02,	3.11407E+03,	-9.15864E+03,	0.00000E+00,	0,	0
  3.21429E-01,	1.00000E+01,	-1.79373E-02,	2.00111E+02,	3.73069E+03,	-1.06321E+04,	0.00000E+00,	0,	0
  2.64085E-01,	1.00000E+01,	-1.79373E-02,	2.17564E+02,	4.48043E+03,	-1.21740E+04,	0.00000E+00,	0,	0
  2.18023E-01,	1.00000E+01,	-1.79373E-02,	2.27719E+02,	5.10551E+03,	-1.44635E+04,	0.00000E+00,	0,	0
  1.79426E-01,	1.00000E+01,	-1.79373E-02,	2.39843E+02,	6.10802E+03,	-1.65189E+04,	0.00000E+00,	0,	0
  1.47638E-01,	1.00000E+01,	-1.79373E-02,	2.54366E+02,	7.11273E+03,	-1.91153E+04,	0.00000E+00,	0,	0
  1.21753E-01,	1.00000E+01,	-1.79373E-02,	2.71766E+02,	8.20428E+03,	-2.21039E+04,	0.00000E+00,	0,	0
  1.00446E-01,	1.00000E+01,	-1.79373E-02,	2.92661E+02,	9.40885E+03,	-2.55939E+04,	0.00000E+00,	0,	0