Z60W Data File: Version 1.1
CorrTest for Windows: SN CS310H1805157  V5.2.1111.9  2.5H6.220118
Sweep Frequency: Control Voltage
  Date:4-27-2026   Time:15:02:06
  Begin Information:            Cell Information
      Surface Area:           1
      Density:                7.8
      Weight:                 28
  End Information:              Cell Information
  Freq (Hz)     Ampl(mV)       Bias(V)      Time(Sec)       Z'(Ohm.cm^2)    Z''(Ohm.cm^2)        GD       Err      Range
End Comments
  3.07200E+05,	1.00000E+01,	-1.72367E-02,	3.47157E-02,	5.22707E+01,	2.57195E+01,	0.00000E+00,	0,	0
  2.76480E+05,	1.00000E+01,	-1.72367E-02,	1.64195E+00,	5.12618E+01,	2.28145E+01,	0.00000E+00,	0,	0
  2.30400E+05,	1.00000E+01,	-1.72367E-02,	2.60373E+00,	5.04732E+01,	1.89617E+01,	0.00000E+00,	0,	0
  1.72800E+05,	1.00000E+01,	-1.72367E-02,	3.50266E+00,	4.96679E+01,	1.42203E+01,	0.00000E+00,	0,	0
  1.53600E+05,	1.00000E+01,	-1.72367E-02,	4.44378E+00,	4.94152E+01,	1.25513E+01,	0.00000E+00,	0,	0
  1.15200E+05,	1.00000E+01,	-1.72367E-02,	5.39730E+00,	4.89802E+01,	9.16975E+00,	0.00000E+00,	0,	0
  9.87429E+04,	1.00000E+01,	-1.72367E-02,	6.31421E+00,	4.89597E+01,	7.81508E+00,	0.00000E+00,	0,	0
  8.13176E+04,	1.00000E+01,	-1.72367E-02,	7.24872E+00,	4.88595E+01,	6.30468E+00,	0.00000E+00,	0,	0
  6.58286E+04,	1.00000E+01,	-1.72367E-02,	8.15272E+00,	4.88474E+01,	4.87054E+00,	0.00000E+00,	0,	0
  5.31692E+04,	1.00000E+01,	-1.72367E-02,	1.02879E+01,	4.88524E+01,	3.88976E+00,	0.00000E+00,	0,	0
  4.60800E+04,	1.00000E+01,	-1.72367E-02,	1.18377E+01,	4.88837E+01,	3.20468E+00,	0.00000E+00,	0,	0
  3.63789E+04,	1.00000E+01,	-1.72367E-02,	1.27684E+01,	4.89367E+01,	2.29071E+00,	0.00000E+00,	0,	0
  3.00522E+04,	1.00000E+01,	-1.72367E-02,	1.36273E+01,	4.88082E+01,	1.76858E+00,	0.00000E+00,	0,	0
  2.46857E+04,	1.00000E+01,	-1.72367E-02,	1.45185E+01,	4.89736E+01,	1.01612E+00,	0.00000E+00,	0,	0
  2.03294E+04,	1.00000E+01,	-1.72367E-02,	1.54609E+01,	4.89627E+01,	5.11897E-01,	0.00000E+00,	0,	0
  1.64571E+04,	1.00000E+01,	-1.72367E-02,	1.63743E+01,	4.91111E+01,	-5.81487E-02,	0.00000E+00,	0,	0
  1.35529E+04,	1.00000E+01,	-1.72367E-02,	1.71897E+01,	4.91749E+01,	-6.37029E-01,	0.00000E+00,	0,	0
  1.11484E+04,	1.00000E+01,	-1.72367E-02,	1.80844E+01,	4.92261E+01,	-9.57958E-01,	0.00000E+00,	0,	0
  9.60000E+03,	1.00000E+01,	-1.72367E-02,	2.08706E+01,	4.92461E+01,	-1.42205E+00,	0.00000E+00,	0,	0
  7.85455E+03,	1.00000E+01,	-1.72367E-02,	2.18269E+01,	4.93407E+01,	-1.95759E+00,	0.00000E+00,	0,	0
  6.40000E+03,	1.00000E+01,	-1.72367E-02,	2.28333E+01,	4.94504E+01,	-2.56897E+00,	0.00000E+00,	0,	0
  5.23636E+03,	1.00000E+01,	-1.72367E-02,	2.38350E+01,	4.96256E+01,	-3.19130E+00,	0.00000E+00,	0,	0
  4.32000E+03,	1.00000E+01,	-1.72367E-02,	2.47807E+01,	4.97271E+01,	-3.87340E+00,	0.00000E+00,	0,	0
  3.52653E+03,	1.00000E+01,	-1.72367E-02,	2.58038E+01,	5.00774E+01,	-4.77159E+00,	0.00000E+00,	0,	0
  2.88000E+03,	1.00000E+01,	-1.72367E-02,	2.67064E+01,	5.02603E+01,	-5.57180E+00,	0.00000E+00,	0,	0
  2.36712E+03,	1.00000E+01,	-1.72367E-02,	2.77075E+01,	5.05593E+01,	-6.54924E+00,	0.00000E+00,	0,	0
  1.96364E+03,	1.00000E+01,	-1.72367E-02,	2.84566E+01,	5.10446E+01,	-7.82023E+00,	0.00000E+00,	0,	0
  1.61495E+03,	1.00000E+01,	-1.72367E-02,	2.93567E+01,	5.16103E+01,	-9.29619E+00,	0.00000E+00,	0,	0
  1.32923E+03,	1.00000E+01,	-1.72367E-02,	3.02900E+01,	5.18730E+01,	-1.08831E+01,	0.00000E+00,	0,	0
  1.09367E+03,	1.00000E+01,	-1.72367E-02,	3.13354E+01,	5.27734E+01,	-1.25694E+01,	0.00000E+00,	0,	0
  9.00000E+02,	1.00000E+01,	-1.72367E-02,	3.63146E+01,	5.38176E+01,	-1.47025E+01,	0.00000E+00,	0,	0
  7.44828E+02,	1.00000E+01,	-1.72367E-02,	3.76844E+01,	5.47306E+01,	-1.70314E+01,	0.00000E+00,	0,	0
  6.17143E+02,	1.00000E+01,	-1.72367E-02,	3.90805E+01,	5.58021E+01,	-1.96617E+01,	0.00000E+00,	0,	0
  5.14286E+02,	1.00000E+01,	-1.72367E-02,	4.04424E+01,	5.69877E+01,	-2.25611E+01,	0.00000E+00,	0,	0
  4.15385E+02,	1.00000E+01,	-1.72367E-02,	4.18181E+01,	5.85664E+01,	-2.64970E+01,	0.00000E+00,	0,	0
  3.42857E+02,	1.00000E+01,	-1.72367E-02,	4.42186E+01,	6.01778E+01,	-3.05900E+01,	0.00000E+00,	0,	0
  2.84211E+02,	1.00000E+01,	-1.72367E-02,	4.69481E+01,	6.19307E+01,	-3.52049E+01,	0.00000E+00,	0,	0
  2.32258E+02,	1.00000E+01,	-1.72367E-02,	4.97871E+01,	6.40743E+01,	-4.09921E+01,	0.00000E+00,	0,	0
  1.91150E+02,	1.00000E+01,	-1.72367E-02,	5.29058E+01,	6.63921E+01,	-4.75103E+01,	0.00000E+00,	0,	0
  1.57664E+02,	1.00000E+01,	-1.72367E-02,	5.63478E+01,	6.89317E+01,	-5.50287E+01,	0.00000E+00,	0,	0
  1.30120E+02,	1.00000E+01,	-1.72367E-02,	6.01011E+01,	7.17986E+01,	-6.38262E+01,	0.00000E+00,	0,	0
  1.06931E+02,	1.00000E+01,	-1.72367E-02,	6.41978E+01,	7.50427E+01,	-7.44287E+01,	0.00000E+00,	0,	0
  8.85246E+01,	1.00000E+01,	-1.72367E-02,	6.98038E+01,	7.85742E+01,	-8.65189E+01,	0.00000E+00,	0,	0
  7.29730E+01,	1.00000E+01,	-1.72367E-02,	7.46649E+01,	8.27668E+01,	-1.01343E+02,	0.00000E+00,	0,	0
  6.00000E+01,	1.00000E+01,	-1.72367E-02,	7.99843E+01,	8.73068E+01,	-1.16891E+02,	0.00000E+00,	0,	0
  4.95413E+01,	1.00000E+01,	-1.72367E-02,	8.85966E+01,	9.27351E+01,	-1.36762E+02,	0.00000E+00,	0,	0
  4.06015E+01,	1.00000E+01,	-1.72367E-02,	9.22076E+01,	9.90581E+01,	-1.60953E+02,	0.00000E+00,	0,	0
  3.35404E+01,	1.00000E+01,	-1.72367E-02,	9.60124E+01,	1.04777E+02,	-1.88310E+02,	0.00000E+00,	0,	0
  2.75510E+01,	1.00000E+01,	-1.72367E-02,	9.98713E+01,	1.13678E+02,	-2.22359E+02,	0.00000E+00,	0,	0
  2.26891E+01,	1.00000E+01,	-1.72367E-02,	1.02820E+02,	1.23391E+02,	-2.61828E+02,	0.00000E+00,	0,	0
  1.87500E+01,	1.00000E+01,	-1.72367E-02,	1.06536E+02,	1.35105E+02,	-3.07348E+02,	0.00000E+00,	0,	0
  1.55172E+01,	1.00000E+01,	-1.72367E-02,	1.12055E+02,	1.48312E+02,	-3.60665E+02,	0.00000E+00,	0,	0
  1.28571E+01,	1.00000E+01,	-1.72367E-02,	1.16708E+02,	1.64046E+02,	-4.22949E+02,	0.00000E+00,	0,	0
  1.04651E+01,	1.00000E+01,	-1.72367E-02,	1.19431E+02,	1.84385E+02,	-5.03690E+02,	0.00000E+00,	0,	0
  8.65385E+00,	1.00000E+01,	-1.72367E-02,	1.23693E+02,	2.07353E+02,	-5.92032E+02,	0.00000E+00,	0,	0
  7.14286E+00,	1.00000E+01,	-1.72367E-02,	1.26103E+02,	2.35116E+02,	-6.96684E+02,	0.00000E+00,	0,	0
  5.84416E+00,	1.00000E+01,	-1.72367E-02,	1.28848E+02,	2.70394E+02,	-8.25625E+02,	0.00000E+00,	0,	0
  4.83871E+00,	1.00000E+01,	-1.72367E-02,	1.31978E+02,	3.10879E+02,	-9.68555E+02,	0.00000E+00,	0,	0
  3.98230E+00,	1.00000E+01,	-1.72367E-02,	1.35642E+02,	3.61532E+02,	-1.14127E+03,	0.00000E+00,	0,	0
  3.28467E+00,	1.00000E+01,	-1.72367E-02,	1.39833E+02,	4.22947E+02,	-1.34082E+03,	0.00000E+00,	0,	0
  2.69461E+00,	1.00000E+01,	-1.72367E-02,	1.43719E+02,	5.00144E+02,	-1.57999E+03,	0.00000E+00,	0,	0
  2.22772E+00,	1.00000E+01,	-1.72367E-02,	1.48220E+02,	5.90356E+02,	-1.84750E+03,	0.00000E+00,	0,	0
  1.82927E+00,	1.00000E+01,	-1.72367E-02,	1.53526E+02,	7.03961E+02,	-2.16862E+03,	0.00000E+00,	0,	0
  1.51007E+00,	1.00000E+01,	-1.72367E-02,	1.60473E+02,	8.37208E+02,	-2.52763E+03,	0.00000E+00,	0,	0
  1.24309E+00,	1.00000E+01,	-1.72367E-02,	1.64851E+02,	1.00095E+03,	-2.94629E+03,	0.00000E+00,	0,	0
  1.02273E+00,	1.00000E+01,	-1.72367E-02,	1.69291E+02,	1.20003E+03,	-3.43434E+03,	0.00000E+00,	0,	0
  8.45865E-01,	1.00000E+01,	-1.72367E-02,	1.76121E+02,	1.41930E+03,	-3.96068E+03,	0.00000E+00,	0,	0
  6.94444E-01,	1.00000E+01,	-1.72367E-02,	1.80500E+02,	1.69086E+03,	-4.59379E+03,	0.00000E+00,	0,	0
  5.73980E-01,	1.00000E+01,	-1.72367E-02,	1.85064E+02,	1.91518E+03,	-5.31718E+03,	0.00000E+00,	0,	0
  4.72689E-01,	1.00000E+01,	-1.72367E-02,	1.90444E+02,	2.25252E+03,	-6.14373E+03,	0.00000E+00,	0,	0
  3.90625E-01,	1.00000E+01,	-1.72367E-02,	1.96460E+02,	2.62259E+03,	-7.17458E+03,	0.00000E+00,	0,	0
  3.21429E-01,	1.00000E+01,	-1.72367E-02,	2.03586E+02,	3.04541E+03,	-8.27924E+03,	0.00000E+00,	0,	0
  2.64085E-01,	1.00000E+01,	-1.72367E-02,	2.12259E+02,	3.49927E+03,	-9.58989E+03,	0.00000E+00,	0,	0
  2.18023E-01,	1.00000E+01,	-1.72367E-02,	2.22367E+02,	3.97298E+03,	-1.11145E+04,	0.00000E+00,	0,	0
  1.79426E-01,	1.00000E+01,	-1.72367E-02,	2.34445E+02,	4.51978E+03,	-1.28789E+04,	0.00000E+00,	0,	0
  1.47638E-01,	1.00000E+01,	-1.72367E-02,	2.48968E+02,	5.11127E+03,	-1.49881E+04,	0.00000E+00,	0,	0
  1.21753E-01,	1.00000E+01,	-1.72367E-02,	2.66343E+02,	5.75835E+03,	-1.74588E+04,	0.00000E+00,	0,	0
  1.00446E-01,	1.00000E+01,	-1.72367E-02,	2.87226E+02,	6.48828E+03,	-2.03657E+04,	0.00000E+00,	0,	0