EXPLAIN
TAG	EISPOT
TITLE	LABEL	Potentiostatic EIS	Test Identifier
DATE	LABEL	9/1/2020	Date
TIME	LABEL	1:15:42	Time
NOTES	NOTES	1	Notes...
	
PSTAT	PSTAT	REF3000-16137	Potentiostat
VDC	POTEN	0.00000E+000	T	DC Voltage (V)
FREQINIT	QUANT	3.00000E+005	Initial Freq. (Hz)
FREQFINAL	QUANT	1.00000E+000	Final Freq. (Hz)
PTSPERDEC	QUANT	1.00000E+001	Points/decade
VAC	QUANT	5.00000E+001	AC Voltage (mV rms)
AREA	QUANT	1.00000E+000	Sample Area (cm^2)
SPEED	SELECTOR	2	Optimize for:
ZGUESS	QUANT	1.00000E+003	Estimated Z (ohms)
EOC	QUANT	0	Open Circuit (V)
SEQUENCER	TOGGLE	TRUE	Run as Sequence
PSTATMODEL	IQUANT	5	Pstat Model
PSTATSECTION	LABEL	REF3000-16137	Pstat Section
PSTATSERIALNO	LABEL	16137	Pstat Serial Number
CTRLMODE	IQUANT	1	Control Mode
IESTAB	IQUANT	0	I/E Stability
CASPEED	IQUANT	1	Control Amp Speed
CONVENTION	IQUANT	1	Current Convention
ICHRANGE	IQUANT	2	Ich Range
ICHRANGEMODE	TOGGLE	F	Ich Auto Range
ICHOFFSETENABLE	TOGGLE	T	Ich Offset Enable
ICHOFFSET	QUANT	0	Ich Offset (V)
ICHFILTER	IQUANT	3	Ich Filter
VCHRANGE	IQUANT	2	Vch Range
VCHRANGEMODE	TOGGLE	F	Vch Auto Range
VCHOFFSETENABLE	TOGGLE	T	Vch Offset Enable
VCHOFFSET	QUANT	0	Vch Offset (V)
VCHFILTER	IQUANT	3	Vch Filter
ACHRANGE	IQUANT	2	Ach Range
ACHOFFSETENABLE	TOGGLE	F	Ach Offset Enable
ACHOFFSET	QUANT	0	Ach Offset (V)
ACHFILTER	IQUANT	3	Ach Filter
IERANGELOWERLIMIT	IQUANT	2	I/E Range Lower Limit
IERANGEMODE	TOGGLE	F	I/E AutoRange
IERANGE	IQUANT	11	I/E Range
POSFEEDENABLE	TOGGLE	F	Positive Feedback IR Comp
POSFEEDRESISTANCE	QUANT	0	Positive Feedback Resistance (ohm)
ACHSELECT	IQUANT	0	Ach Select
CABLEID	IQUANT	13	Cable ID
DCCALDATE	LABEL	7/31/2020	DC Calibration Date
ACCALDATE	LABEL	7/31/2020	AC Calibration Date
THERMOSELECT	IQUANT	1	Thermo Select
FRAMEWORKVERSION	QUANT	6.33	Framework Version
INSTRUMENTVERSION	LABEL	3.50	Instrument Version
COMPLIANCEVOLTAGE	IQUANT	0	Compliance Voltage
ZCURVE	TABLE
	Pt	Time	Freq	Zreal	Zimag	Zsig	Zmod	Zphz	Idc	Vdc	IERange
	#	s	Hz	ohm	ohm	V	ohm	°	A	V	#
	0	15	300046.9	1172.184	-598.7798	1	1316.265	-27.05903	-3.035209E-005	-0.001061	9
	1	29	238359.4	1303.545	-550.9627	1	1415.199	-22.91208	-3.184576E-005	-0.0009548	9
	2	44	189328.1	1383.302	-498.6778	1	1470.444	-19.82413	-1.12251E-005	0.0016735	9
	3	50	150421.9	1482.81	-441.4642	1	1547.131	-16.5794	2.501011E-005	-0.0014807	9
	4	56	119484.4	1562.434	-341.5099	1	1599.322	-12.32955	1.364954E-005	-0.0114656	8
	5	63	94921.88	1611.277	-281.2552	1	1635.64	-9.90146	-1.034382E-005	-0.0008005	8
	6	68	75421.88	1649.531	-236.9361	1	1666.461	-8.173967	-2.169331E-005	0.0085644	8
	7	71	59859.37	1678.085	-194.4886	1	1689.318	-6.611035	-1.584907E-005	0.0017357	8
	8	74	47578.12	1700.969	-170.3972	1	1709.482	-5.720609	2.166082E-005	-0.0033178	8
	9	80	37828.12	1722.981	-141.9916	1	1728.822	-4.711123	1.719024E-005	-0.0007405	8
	10	83	30046.88	1741.796	-122.0061	1	1746.063	-4.006805	2.151594E-005	-0.003395	8
	11	85	23859.38	1761.079	-98.4961	1	1763.831	-3.201185	-6.991987E-006	0.0078939	8
	12	90	18984.38	1778.833	-92.44557	1	1781.234	-2.974973	1.747127E-005	-0.0080062	8
	13	93	15046.87	1795.257	-84.3034	1	1797.235	-2.688576	2.312689E-005	-0.0051725	8
	14	96	11953.13	1814.384	-72.73684	1	1815.842	-2.295701	4.556837E-006	-0.0057103	8
	15	100	9515.62	1828.185	-68.93488	1	1829.484	-2.159413	1.717596E-005	-0.0007504	8
	16	103	7546.875	1846.386	-65.02889	1	1847.531	-2.017098	-2.194407E-005	0.0056427	8
	17	107	5928.309	1864.145	-65.89115	1	1865.31	-2.024367	2.333245E-005	-0.0051568	8
	18	111	4733.456	1889.84	-63.0443	1	1890.891	-1.910655	1.730859E-005	-0.0007191	8
	19	115	3796.875	1908.877	-66.3468	1	1910.029	-1.990627	-1.440322E-005	0.0092664	8
	20	119	2987.132	1931.583	-67.97739	1	1932.778	-2.015555	1.169654E-005	-0.0074644	8
	21	124	2390.625	1955.982	-72.45607	1	1957.324	-2.121456	1.145309E-005	-0.0074203	8
	22	128	1884.191	1977.585	-77.44323	1	1979.101	-2.242586	-2.156965E-005	0.0055503	8
	23	132	1516.544	2010.276	-83.87537	1	2012.025	-2.389183	1.175365E-005	-0.0074877	8
	24	136	1193.986	2040.845	-94.23997	1	2043.019	-2.643866	-1.966692E-005	0.0096728	8
	25	141	946.5144	2064.144	-101.7803	1	2066.652	-2.822896	1.731496E-005	-0.0006015	8
	26	143	751.7689	2077.954	-115.047	1	2081.136	-3.168974	-2.299663E-005	0.0074547	8
	27	146	597.4265	2119.823	-113.1059	1	2122.839	-3.054193	1.179705E-005	-0.0075036	8
	28	148	477.4305	2139.885	-122.6527	1	2143.397	-3.280459	-2.382215E-007	0.0006625	8
	29	151	376.6741	2166.156	-132.6878	1	2170.216	-3.505272	-2.491061E-007	0.0006497	8
	30	153	298.2954	2193.077	-144.0292	1	2197.802	-3.757474	-2.681498E-007	0.0006675	8
	31	155	237.7717	2220.267	-156.4633	1	2225.773	-4.030998	-2.199219E-007	0.0006325	8
	32	158	189.0121	2248.2	-171.4618	1	2254.729	-4.361291	-2.381934E-007	0.0006643	8
	33	160	150.2404	2276.911	-189.3846	1	2284.773	-4.754694	-2.424249E-007	0.0006704	8
	34	163	119.1737	2305.831	-210.0036	1	2315.374	-5.203858	-2.529481E-007	0.0006424	8
	35	165	95.0169	2334.141	-238.2349	1	2346.267	-5.827733	-2.439938E-007	0.0006442	8
	36	167	75.60484	2364.156	-271.773	1	2379.725	-6.557688	-2.497979E-007	0.0006601	8
	37	170	54.50582	2402.75	-334.7505	1	2425.957	-7.931378	-1.966258E-007	0.0006243	8
	38	173	45.95588	2430.159	-376.3215	1	2459.124	-8.802604	-2.673141E-007	0.000636	8
	39	175	37.20238	2461.593	-439.8566	1	2500.583	-10.13113	-2.462469E-007	0.0006745	8
	40	177	30.04808	2496.121	-517.0902	1	2549.118	-11.70371	-2.230739E-007	0.0006546	8
	41	180	23.91582	2535.822	-620.5355	1	2610.643	-13.75051	-1.802312E-007	0.0006438	8
	42	182	18.60119	2590.356	-761.9114	1	2700.084	-16.3904	-5.417726E-008	0.0006432	8
	43	184	15.02404	2634.475	-904.6505	1	2785.471	-18.95192	-1.586949E-007	0.0006505	8
	44	187	12.01923	2694.101	-1089.791	1	2906.17	-22.02384	-2.672917E-007	0.0006516	8
	45	189	9.450605	2769.684	-1332.142	1	3073.394	-25.68627	-3.303895E-007	0.0006488	8
	46	192	7.512019	2861.281	-1614.577	1	3285.39	-29.43536	-1.710312E-007	0.000621	8
	47	194	5.978954	2965.509	-1955.884	1	3552.426	-33.40662	-1.726114E-007	0.0006452	8
	48	197	4.734848	3105.439	-2383.348	1	3914.601	-37.50534	-7.38961E-008	0.0005865	7
	49	201	3.75601	3254.917	-2892.939	1	4354.719	-41.63039	-2.771341E-008	0.000621	7
	50	204	3.004808	3428.821	-3484.948	1	4888.934	-45.46513	-5.460528E-008	0.0006522	7
	51	208	2.372217	3646.446	-4250.712	1	5600.458	-49.37557	-4.872972E-008	0.0006454	7
	52	212	1.878005	3913.841	-5182.304	1	6494.184	-52.93874	-4.591636E-008	0.000598	7
	53	217	1.512097	4211.612	-6233.227	1	7522.685	-55.95424	-5.143806E-008	0.0007209	7
	54	222	1.201923	4593.064	-7593.092	1	8874.192	-58.83024	-4.670896E-008	0.0005977	7
	55	228	0.956633	5058.372	-9240.866	1	10534.74	-61.30408	-7.340773E-008	-1.751168E-005	7
