EXPLAIN
TAG	EISPOT
TITLE	LABEL	Potentiostatic EIS	Test Identifier
DATE	LABEL	9/1/2020	Date
TIME	LABEL	0:55:43	Time
NOTES	NOTES	1	Notes...
	
PSTAT	PSTAT	REF3000-16137	Potentiostat
VDC	POTEN	0.00000E+000	T	DC Voltage (V)
FREQINIT	QUANT	3.00000E+005	Initial Freq. (Hz)
FREQFINAL	QUANT	1.00000E+000	Final Freq. (Hz)
PTSPERDEC	QUANT	1.00000E+001	Points/decade
VAC	QUANT	5.00000E+001	AC Voltage (mV rms)
AREA	QUANT	1.00000E+000	Sample Area (cm^2)
SPEED	SELECTOR	2	Optimize for:
ZGUESS	QUANT	1.00000E+003	Estimated Z (ohms)
EOC	QUANT	0	Open Circuit (V)
SEQUENCER	TOGGLE	TRUE	Run as Sequence
PSTATMODEL	IQUANT	5	Pstat Model
PSTATSECTION	LABEL	REF3000-16137	Pstat Section
PSTATSERIALNO	LABEL	16137	Pstat Serial Number
CTRLMODE	IQUANT	1	Control Mode
IESTAB	IQUANT	0	I/E Stability
CASPEED	IQUANT	1	Control Amp Speed
CONVENTION	IQUANT	1	Current Convention
ICHRANGE	IQUANT	2	Ich Range
ICHRANGEMODE	TOGGLE	F	Ich Auto Range
ICHOFFSETENABLE	TOGGLE	T	Ich Offset Enable
ICHOFFSET	QUANT	0	Ich Offset (V)
ICHFILTER	IQUANT	3	Ich Filter
VCHRANGE	IQUANT	2	Vch Range
VCHRANGEMODE	TOGGLE	F	Vch Auto Range
VCHOFFSETENABLE	TOGGLE	T	Vch Offset Enable
VCHOFFSET	QUANT	0	Vch Offset (V)
VCHFILTER	IQUANT	3	Vch Filter
ACHRANGE	IQUANT	2	Ach Range
ACHOFFSETENABLE	TOGGLE	F	Ach Offset Enable
ACHOFFSET	QUANT	0	Ach Offset (V)
ACHFILTER	IQUANT	3	Ach Filter
IERANGELOWERLIMIT	IQUANT	2	I/E Range Lower Limit
IERANGEMODE	TOGGLE	F	I/E AutoRange
IERANGE	IQUANT	11	I/E Range
POSFEEDENABLE	TOGGLE	F	Positive Feedback IR Comp
POSFEEDRESISTANCE	QUANT	0	Positive Feedback Resistance (ohm)
ACHSELECT	IQUANT	0	Ach Select
CABLEID	IQUANT	13	Cable ID
DCCALDATE	LABEL	7/31/2020	DC Calibration Date
ACCALDATE	LABEL	7/31/2020	AC Calibration Date
THERMOSELECT	IQUANT	1	Thermo Select
FRAMEWORKVERSION	QUANT	6.33	Framework Version
INSTRUMENTVERSION	LABEL	3.50	Instrument Version
COMPLIANCEVOLTAGE	IQUANT	0	Compliance Voltage
ZCURVE	TABLE
	Pt	Time	Freq	Zreal	Zimag	Zsig	Zmod	Zphz	Idc	Vdc	IERange
	#	s	Hz	ohm	ohm	V	ohm	°	A	V	#
	0	9	300046.9	206.9006	-12.28158	1	207.2648	-3.39708	-9.245478E-006	0.0012767	9
	1	12	238359.4	208.3393	-9.82467	1	208.5708	-2.699902	7.911961E-005	-0.0026447	9
	2	15	189328.1	209.7994	-9.106605	1	209.9969	-2.485435	1.910547E-005	-0.0006325	9
	3	20	150421.9	211.0634	-7.27922	1	211.1889	-1.975251	7.567894E-005	-0.0030384	9
	4	22	119484.4	212.2519	-6.267162	1	212.3444	-1.691281	5.243158E-005	-0.0003384	9
	5	25	94921.88	213.2442	-5.127908	1	213.3059	-1.377532	2.70585E-005	-0.0005802	9
	6	27	75421.88	214.4245	-4.265939	1	214.4669	-1.13974	-1.449824E-005	0.0009217	9
	7	30	59859.37	215.0965	-3.766672	1	215.1295	-1.003235	2.336705E-005	-0.00021	9
	8	32	47578.12	216.1239	-3.308543	1	216.1492	-0.8770468	-2.423252E-005	0.0007261	9
	9	35	37828.12	216.9201	-3.007827	1	216.9409	-0.794416	-1.951638E-005	0.0003619	9
	10	37	30046.88	217.8906	-2.728302	1	217.9076	-0.7173878	-2.220472E-005	0.0006785	9
	11	40	23859.38	218.7383	-2.754815	1	218.7556	-0.7215515	2.786617E-005	-0.0006886	9
	12	42	18984.38	219.544	-2.656052	1	219.5601	-0.6931328	1.834898E-005	-0.0001469	9
	13	45	15046.87	220.1649	-2.295001	1	220.1768	-0.5972301	-2.436552E-005	0.000725	9
	14	47	11953.13	220.9468	-3.02819	1	220.9675	-0.7852191	2.571822E-005	-0.000259	9
	15	49	9515.62	222.085	-3.201747	1	222.1081	-0.8259623	-1.629899E-005	0.0001765	9
	16	51	7546.875	222.8693	-3.537725	1	222.8973	-0.9094106	3.829454E-006	0.000623	9
	17	54	5928.309	223.4821	-4.084345	1	223.5194	-1.047018	2.764338E-005	-0.0006828	9
	18	56	4733.456	225.1566	-4.875046	1	225.2094	-1.240363	1.429892E-005	-0.0007835	9
	19	58	3796.875	225.6245	-5.568962	1	225.6932	-1.413912	-9.307993E-006	0.0009187	9
	20	61	2987.132	227.1245	-6.212499	1	227.2095	-1.566811	-2.023468E-005	0.0009884	9
	21	63	2390.625	228.0614	-7.857184	1	228.1967	-1.973177	3.427612E-006	0.0006116	9
	22	65	1884.191	229.3204	-9.384419	1	229.5123	-2.343393	-3.250907E-006	-0.000338	9
	23	68	1516.544	230.5611	-11.14681	1	230.8304	-2.767893	-1.943225E-005	0.0003916	9
	24	70	1193.986	231.8722	-13.49554	1	232.2646	-3.330999	-2.42714E-005	0.0007594	9
	25	72	946.5144	233.5782	-16.53729	1	234.1629	-4.049773	2.725505E-005	-0.000653	9
	26	75	751.7689	235.0128	-19.90525	1	235.8543	-4.841317	2.601588E-005	-0.0008285	9
	27	77	597.4265	236.85	-24.14185	1	238.0772	-5.819992	1.282474E-005	0.0002442	9
	28	80	477.4305	238.7206	-29.38552	1	240.5224	-7.017572	1.134164E-006	7.18045E-005	9
	29	83	376.6741	240.8447	-36.04046	1	243.5264	-8.510698	1.238184E-006	6.243845E-005	9
	30	85	298.2954	243.2638	-44.13543	1	247.2351	-10.28333	1.151255E-006	6.669189E-005	9
	31	87	237.7717	246.069	-53.81684	1	251.8853	-12.3367	1.160288E-006	6.962862E-005	9
	32	90	189.0121	249.3865	-65.79024	1	257.9185	-14.77841	1.254897E-006	7.470274E-005	9
	33	92	150.2404	253.3539	-80.41822	1	265.8106	-17.6102	1.157319E-006	7.100163E-005	9
	34	95	119.1737	258.1664	-98.4228	1	276.2914	-20.86875	1.17008E-006	6.892157E-005	9
	35	97	95.0169	263.899	-119.777	1	289.8089	-24.41209	1.17766E-006	6.640884E-005	9
	36	100	75.60484	270.865	-145.8453	1	307.6341	-28.29992	1.174349E-006	0.0001083	9
	37	102	54.50582	282.8202	-192.9536	1	342.3717	-34.3037	1.21365E-006	6.49275E-005	9
	38	105	45.95588	290.7578	-223.2184	1	366.5605	-37.51389	1.177926E-006	6.591578E-005	9
	39	107	37.20238	300.445	-266.1013	1	401.3441	-41.53101	-1.288074E-008	0.0006556	8
	40	109	30.04808	313.3136	-319.3355	1	447.3707	-45.54535	5.757546E-010	0.0006418	8
	41	112	23.91582	329.2954	-388.2243	1	509.0713	-49.69509	-6.018174E-008	0.000646	8
	42	114	18.60119	350.2978	-481.9096	1	595.7729	-53.98678	3.238917E-008	0.0006433	8
	43	116	15.02404	372.0929	-579.7729	1	688.9048	-57.30803	-1.0411E-007	0.0006553	8
	44	119	12.01923	399.2542	-703.9515	1	809.2908	-60.43976	7.223024E-008	0.0006384	8
	45	121	9.450605	435.4769	-868.5282	1	971.587	-63.37098	-6.546325E-008	0.000655	8
	46	124	7.512019	478.7374	-1061.611	1	1164.563	-65.72682	-6.305023E-008	0.0006333	8
	47	126	5.978954	533.6617	-1296.706	1	1402.227	-67.63029	-5.381003E-008	0.0006582	8
	48	129	4.734848	606.4438	-1590.607	1	1702.294	-69.12987	-2.597897E-008	0.0006488	8
	49	133	3.75601	697.727	-1947.045	1	2068.286	-70.28477	-2.088138E-008	0.0006538	8
	50	136	3.004808	811.6934	-2359.329	1	2495.051	-71.01495	1.659599E-008	0.0006157	8
	51	140	2.372217	967.322	-2891.048	1	3048.584	-71.50016	6.004577E-009	0.0005717	8
	52	144	1.878005	1163.354	-3521.376	1	3708.569	-71.71805	1.895073E-008	0.0006499	8
	53	149	1.512097	1397.857	-4220.734	1	4446.189	-71.67574	-3.332695E-008	0.0005557	7
	54	154	1.201923	1701.432	-5118.774	1	5394.138	-71.61369	-2.351531E-008	0.0006552	7
	55	160	0.956633	2083.399	-6175.696	1	6517.65	-71.35795	-4.935091E-008	-2.114415E-005	7
