EXPLAIN
TAG	EISPOT
TITLE	LABEL	Potentiostatic EIS	Test Identifier
DATE	LABEL	9/1/2020	Date
TIME	LABEL	2:28:14	Time
NOTES	NOTES	1	Notes...
	
PSTAT	PSTAT	REF3000-16137	Potentiostat
VDC	POTEN	0.00000E+000	T	DC Voltage (V)
FREQINIT	QUANT	3.00000E+005	Initial Freq. (Hz)
FREQFINAL	QUANT	1.00000E+000	Final Freq. (Hz)
PTSPERDEC	QUANT	1.00000E+001	Points/decade
VAC	QUANT	5.00000E+001	AC Voltage (mV rms)
AREA	QUANT	1.00000E+000	Sample Area (cm^2)
SPEED	SELECTOR	2	Optimize for:
ZGUESS	QUANT	1.00000E+003	Estimated Z (ohms)
EOC	QUANT	0	Open Circuit (V)
SEQUENCER	TOGGLE	TRUE	Run as Sequence
PSTATMODEL	IQUANT	5	Pstat Model
PSTATSECTION	LABEL	REF3000-16137	Pstat Section
PSTATSERIALNO	LABEL	16137	Pstat Serial Number
CTRLMODE	IQUANT	1	Control Mode
IESTAB	IQUANT	0	I/E Stability
CASPEED	IQUANT	1	Control Amp Speed
CONVENTION	IQUANT	1	Current Convention
ICHRANGE	IQUANT	2	Ich Range
ICHRANGEMODE	TOGGLE	F	Ich Auto Range
ICHOFFSETENABLE	TOGGLE	T	Ich Offset Enable
ICHOFFSET	QUANT	0	Ich Offset (V)
ICHFILTER	IQUANT	3	Ich Filter
VCHRANGE	IQUANT	2	Vch Range
VCHRANGEMODE	TOGGLE	F	Vch Auto Range
VCHOFFSETENABLE	TOGGLE	T	Vch Offset Enable
VCHOFFSET	QUANT	0	Vch Offset (V)
VCHFILTER	IQUANT	3	Vch Filter
ACHRANGE	IQUANT	2	Ach Range
ACHOFFSETENABLE	TOGGLE	F	Ach Offset Enable
ACHOFFSET	QUANT	0	Ach Offset (V)
ACHFILTER	IQUANT	3	Ach Filter
IERANGELOWERLIMIT	IQUANT	2	I/E Range Lower Limit
IERANGEMODE	TOGGLE	F	I/E AutoRange
IERANGE	IQUANT	11	I/E Range
POSFEEDENABLE	TOGGLE	F	Positive Feedback IR Comp
POSFEEDRESISTANCE	QUANT	0	Positive Feedback Resistance (ohm)
ACHSELECT	IQUANT	0	Ach Select
CABLEID	IQUANT	13	Cable ID
DCCALDATE	LABEL	7/31/2020	DC Calibration Date
ACCALDATE	LABEL	7/31/2020	AC Calibration Date
THERMOSELECT	IQUANT	1	Thermo Select
FRAMEWORKVERSION	QUANT	6.33	Framework Version
INSTRUMENTVERSION	LABEL	3.50	Instrument Version
COMPLIANCEVOLTAGE	IQUANT	0	Compliance Voltage
ZCURVE	TABLE
	Pt	Time	Freq	Zreal	Zimag	Zsig	Zmod	Zphz	Idc	Vdc	IERange
	#	s	Hz	ohm	ohm	V	ohm	°	A	V	#
	0	15	300046.9	-15.72184	-4119.01	1	4119.04	-90.21869	2.307785E-005	0.0009326	9
	1	40	238359.4	-62.62951	-5036.569	1	5036.958	-90.71243	2.67485E-005	-0.0015573	9
	2	55	189328.1	107.4253	-6430.024	1	6430.921	-89.04285	-0.0001065	0.0038123	9
	3	65	150421.9	241.0906	-7958.781	1	7962.432	-88.2649	7.667236E-005	-0.0014676	9
	4	77	119484.4	115.3654	-10321.42	1	10322.06	-89.35962	-2.715431E-005	-0.0009836	9
	5	86	94921.88	548.9811	-12448.1	1	12460.2	-87.4748	-2.492295E-005	0.0111717	8
	6	94	75421.88	619.2668	-15779.69	1	15791.84	-87.75261	-1.582099E-005	0.0005912	8
	7	103	59859.37	694.3158	-19604.56	1	19616.85	-87.97166	-2.651742E-005	0.007614	8
	8	111	47578.12	3503.314	-25805.02	1	26041.74	-82.26874	4.896045E-006	-0.0011293	7
	9	119	37828.12	1144.131	-30974.82	1	30995.94	-87.8846	8.687263E-006	0.0041508	8
	10	128	30046.88	4087.362	-39819.89	1	40029.11	-84.13933	-3.474866E-006	-0.0047664	7
	11	135	23859.38	1189.184	-49309.28	1	49323.61	-88.61848	8.218331E-006	0.0042396	8
	12	141	18984.38	4365.885	-61491.86	1	61646.65	-85.93885	1.168929E-006	-0.0192427	7
	13	147	15046.87	4416.532	-77776.07	1	77901.37	-86.74994	2.789807E-006	0.0079624	7
	14	152	11953.13	-2119.921	-94313.38	1	94337.2	-91.28764	-2.06011E-005	0.0028617	8
	15	160	9515.62	-865.6418	-132335.2	1	132338.1	-90.37478	-2.706968E-005	0.0098133	8
	16	167	7546.875	6598.481	-141711.9	1	141865.5	-87.33408	-2.652533E-005	0.0076651	8
	17	176	5928.309	-26400.63	-148371.2	1	150701.7	-100.0894	2.741087E-005	-0.0074307	8
	18	183	4733.456	26055.04	-212886.1	1	214474.6	-83.02229	-1.200401E-005	0.0102843	8
	19	191	3796.875	7021.863	-313372.7	1	313451.3	-88.71637	3.067999E-006	0.007458	7
	20	199	2987.132	-5341.797	-362939.2	1	362978.5	-90.84323	6.678637E-006	-0.0265609	7
	21	205	2390.625	75939.44	-499930.5	1	505665.2	-81.3628	-7.066034E-006	0.0234419	7
	22	212	1884.191	106144.1	-652751.8	1	661325.5	-80.76396	3.335934E-006	-0.023883	7
	23	219	1516.544	170483.4	-674871.6	1	696072	-75.82278	-6.359852E-006	0.0254553	7
	24	226	1193.986	-280174.6	-949347.6	1	989828	-106.4426	-7.1192E-006	0.0233565	7
	25	232	946.5144	33039.79	-427558	1	428832.7	-85.58121	-1.61452E-006	0.0213088	7
	26	238	751.7689	53492.42	-1381280	1	1382316	-87.78223	4.285378E-007	0.001718	6
	27	242	597.4265	125654.4	-1749166	1	1753674	-85.89112	-6.34087E-007	0.009997	6
	28	246	477.4305	139904.6	-2382803	1	2386906	-86.63978	-8.7864E-009	0.0007009	6
	29	251	376.6741	511644.9	-3100185	1	3142121	-80.62856	-9.510781E-010	0.0006442	5
	30	254	298.2954	581751.1	-3851394	1	3895082	-81.41044	-8.328234E-010	0.0005982	5
	31	259	237.7717	731252.4	-4716172	1	4772526	-81.18635	-9.068906E-010	0.0006868	5
	32	261	189.0121	822642.4	-5959938	1	6016445	-82.1412	-8.332027E-010	0.0005964	5
	33	264	150.2404	1200338	-7607409	1	7701525	-81.03349	-8.517919E-010	0.0005994	5
	34	267	119.1737	-982869	-9177880	1	9230358	-96.1126	-9.729584E-010	0.0006831	5
	35	270	95.0169	1736260	-1.149018E+007	1	1.162062E+007	-81.40715	-8.452394E-010	0.0005973	5
	36	273	75.60484	2670392	-1.389021E+007	1	1.414458E+007	-79.11767	-9.047751E-010	0.0006785	5
	37	276	54.50582	4341305	-1.926764E+007	1	1.975066E+007	-77.30239	-9.276386E-010	0.0006421	5
	38	279	45.95588	7716520	-2.363804E+007	1	2.486567E+007	-71.92099	-7.393823E-011	0.0006942	4
	39	281	37.20238	6706572	-2.867676E+007	1	2.945054E+007	-76.83694	-9.073116E-010	0.0006341	5
	40	285	30.04808	1.025921E+007	-3.341776E+007	1	3.495709E+007	-72.93359	-8.435576E-010	0.000594	5
	41	289	23.91582	1.577371E+007	-4.193503E+007	1	4.480354E+007	-69.38639	-9.874537E-010	0.0006942	5
	42	293	18.60119	3.353586E+007	-4.5685E+007	1	5.667251E+007	-53.71883	-1.817825E-010	0.0006682	4
	43	297	15.02404	3.127509E+007	-5.443128E+007	1	6.277655E+007	-60.11921	-9.055884E-011	0.00068	4
	44	300	12.01923	4.088172E+007	-6.194282E+007	1	7.421744E+007	-56.57553	-7.55182E-011	0.0006379	4
	45	304	9.450605	5.337855E+007	-7.21295E+007	1	8.973258E+007	-53.49717	-9.822921E-011	0.0006575	4
	46	308	7.512019	6.824093E+007	-7.762364E+007	1	1.03355E+008	-48.68047	-8.759912E-011	0.0006332	4
	47	312	5.978954	8.783406E+007	-7.837069E+007	1	1.177149E+008	-41.74121	-8.815532E-011	0.0006062	4
	48	318	4.734848	1.19528E+008	-7.366572E+007	1	1.40405E+008	-31.64575	-8.256478E-012	0.0007428	3
	49	323	3.75601	1.334978E+008	-7.259224E+007	1	1.519582E+008	-28.53608	-8.429268E-012	0.0006627	3
	50	328	3.004808	1.474499E+008	-7.162877E+007	1	1.639272E+008	-25.90974	-5.838432E-012	0.0006954	3
	51	335	2.372217	1.612518E+008	-6.89083E+007	1	1.753582E+008	-23.13865	-1.003757E-011	0.000758	3
	52	339	1.878005	1.736291E+008	-6.629802E+007	1	1.858561E+008	-20.8987	-1.15156E-011	0.0007042	3
	53	344	1.512097	1.851192E+008	-6.472192E+007	1	1.961072E+008	-19.2708	-1.112074E-011	0.0007049	3
	54	349	1.201923	1.970652E+008	-6.39995E+007	1	2.071971E+008	-17.99188	-9.032682E-012	0.0006856	3
	55	355	0.956633	2.105741E+008	-6.418401E+007	1	2.201387E+008	-16.95148	-1.326376E-011	7.777518E-005	3
