EXPLAIN
TAG	EISPOT
TITLE	LABEL	Potentiostatic EIS	Test Identifier
DATE	LABEL	9/1/2020	Date
TIME	LABEL	1:29:21	Time
NOTES	NOTES	1	Notes...
	
PSTAT	PSTAT	REF3000-16137	Potentiostat
VDC	POTEN	0.00000E+000	T	DC Voltage (V)
FREQINIT	QUANT	3.00000E+005	Initial Freq. (Hz)
FREQFINAL	QUANT	1.00000E+000	Final Freq. (Hz)
PTSPERDEC	QUANT	1.00000E+001	Points/decade
VAC	QUANT	5.00000E+001	AC Voltage (mV rms)
AREA	QUANT	1.00000E+000	Sample Area (cm^2)
SPEED	SELECTOR	2	Optimize for:
ZGUESS	QUANT	1.00000E+003	Estimated Z (ohms)
EOC	QUANT	0	Open Circuit (V)
SEQUENCER	TOGGLE	TRUE	Run as Sequence
PSTATMODEL	IQUANT	5	Pstat Model
PSTATSECTION	LABEL	REF3000-16137	Pstat Section
PSTATSERIALNO	LABEL	16137	Pstat Serial Number
CTRLMODE	IQUANT	1	Control Mode
IESTAB	IQUANT	0	I/E Stability
CASPEED	IQUANT	1	Control Amp Speed
CONVENTION	IQUANT	1	Current Convention
ICHRANGE	IQUANT	2	Ich Range
ICHRANGEMODE	TOGGLE	F	Ich Auto Range
ICHOFFSETENABLE	TOGGLE	T	Ich Offset Enable
ICHOFFSET	QUANT	0	Ich Offset (V)
ICHFILTER	IQUANT	3	Ich Filter
VCHRANGE	IQUANT	2	Vch Range
VCHRANGEMODE	TOGGLE	F	Vch Auto Range
VCHOFFSETENABLE	TOGGLE	T	Vch Offset Enable
VCHOFFSET	QUANT	0	Vch Offset (V)
VCHFILTER	IQUANT	3	Vch Filter
ACHRANGE	IQUANT	2	Ach Range
ACHOFFSETENABLE	TOGGLE	F	Ach Offset Enable
ACHOFFSET	QUANT	0	Ach Offset (V)
ACHFILTER	IQUANT	3	Ach Filter
IERANGELOWERLIMIT	IQUANT	2	I/E Range Lower Limit
IERANGEMODE	TOGGLE	F	I/E AutoRange
IERANGE	IQUANT	11	I/E Range
POSFEEDENABLE	TOGGLE	F	Positive Feedback IR Comp
POSFEEDRESISTANCE	QUANT	0	Positive Feedback Resistance (ohm)
ACHSELECT	IQUANT	0	Ach Select
CABLEID	IQUANT	13	Cable ID
DCCALDATE	LABEL	7/31/2020	DC Calibration Date
ACCALDATE	LABEL	7/31/2020	AC Calibration Date
THERMOSELECT	IQUANT	1	Thermo Select
FRAMEWORKVERSION	QUANT	6.33	Framework Version
INSTRUMENTVERSION	LABEL	3.50	Instrument Version
COMPLIANCEVOLTAGE	IQUANT	0	Compliance Voltage
ZCURVE	TABLE
	Pt	Time	Freq	Zreal	Zimag	Zsig	Zmod	Zphz	Idc	Vdc	IERange
	#	s	Hz	ohm	ohm	V	ohm	°	A	V	#
	0	14	300046.9	1287.82	-2661.622	1	2956.808	-64.18008	-6.551625E-005	0.0005689	9
	1	28	238359.4	1688.031	-3031.781	1	3470.035	-60.89186	-8.767446E-005	0.004148	9
	2	45	189328.1	2297.799	-3401.652	1	4105.011	-55.96117	-9.298031E-005	0.0022729	9
	3	52	150421.9	2942.016	-3842.771	1	4839.664	-52.56242	-1.382379E-005	0.0017747	9
	4	63	119484.4	3948.529	-4016.642	1	5632.432	-45.48994	8.185836E-006	-0.0170455	8
	5	71	94921.88	4789.131	-4125.649	1	6321.135	-40.74361	-1.689201E-005	0.0012028	8
	6	78	75421.88	5659.257	-4136.293	1	7009.715	-36.16269	-2.390499E-005	0.0056213	8
	7	86	59859.37	6487.655	-4054.74	1	7650.528	-32.0051	-2.329318E-005	0.0108514	8
	8	93	47578.12	7301.34	-3797.643	1	8229.925	-27.48028	1.4484E-005	-0.0087076	8
	9	102	37828.12	8064.425	-3553.081	1	8812.453	-23.77767	-2.100449E-005	0.0033454	8
	10	110	30046.88	8768.949	-3241.919	1	9349.038	-20.28958	-1.795076E-005	0.0109161	8
	11	119	23859.38	9348.412	-2930.54	1	9796.98	-17.40516	-3.835243E-007	0.0071116	8
	12	125	18984.38	10066.81	-2123.056	1	10288.25	-11.90897	-6.433272E-006	0.0208142	7
	13	129	15046.87	10388.77	-1877.001	1	10556.97	-10.24148	-1.665619E-006	0.0195995	7
	14	133	11953.13	10575.95	-1676.121	1	10707.94	-9.005579	6.737597E-006	-0.0160451	7
	15	137	9515.62	10827.29	-1522.966	1	10933.88	-8.006692	-5.945535E-006	0.0106911	7
	16	141	7546.875	10999.41	-1392.881	1	11087.25	-7.217083	6.736741E-006	-0.0162553	7
	17	145	5928.309	11224.55	-1267.242	1	11295.86	-6.441369	-3.364179E-006	0.0225773	7
	18	149	4733.456	11448.65	-1259.609	1	11517.74	-6.278569	-1.650123E-006	0.0196317	7
	19	153	3796.875	11589.5	-1240.266	1	11655.68	-6.108334	4.83642E-006	-0.023695	7
	20	157	2987.132	11835.78	-1208.74	1	11897.34	-5.831171	-5.849607E-006	0.0231137	7
	21	162	2390.625	12066.87	-1220.293	1	12128.41	-5.774553	6.589264E-006	-0.0157278	7
	22	166	1884.191	12336.34	-1345.524	1	12409.5	-6.224644	6.823005E-006	-0.0215552	7
	23	170	1516.544	12548.76	-1384.454	1	12624.9	-6.295751	-5.948967E-006	0.0106722	7
	24	175	1193.986	12843.99	-1493.443	1	12930.52	-6.632321	4.34242E-006	-0.0003765	7
	25	179	946.5144	13430.45	-1688.198	1	13536.14	-7.164463	-3.031759E-006	-0.0044225	7
	26	182	751.7689	13410.47	-1837.34	1	13535.75	-7.801399	3.80444E-007	0.0143218	7
	27	184	597.4265	13647.52	-2034.873	1	13798.39	-8.48044	3.184032E-006	-0.0218101	7
	28	187	477.4305	14202.99	-2099.911	1	14357.39	-8.410247	-7.26895E-008	0.0006032	7
	29	189	376.6741	14603.3	-2254.547	1	14776.31	-8.776384	-7.214787E-008	0.0005742	7
	30	192	298.2954	15030.55	-2414.705	1	15223.28	-9.12676	-8.034264E-008	0.0006617	7
	31	194	237.7717	15488.59	-2564.155	1	15699.41	-9.400126	-8.540247E-008	0.0006698	7
	32	196	189.0121	15980.2	-2711.25	1	16208.57	-9.62928	-8.555983E-008	0.0006632	7
	33	199	150.2404	16497.81	-2863.238	1	16744.43	-9.84576	-7.998931E-008	0.0006473	7
	34	201	119.1737	17108.58	-3062.057	1	17380.44	-10.14724	-8.751696E-008	0.0006657	7
	35	203	95.0169	17658.09	-3085.28	1	17925.6	-9.91086	-7.348629E-008	0.0005802	7
	36	206	75.60484	18265.63	-3166.097	1	18538	-9.83373	-7.688765E-008	0.000577	7
	37	209	54.50582	19087.02	-3220.935	1	19356.88	-9.57842	-7.505752E-008	0.0006418	7
	38	211	45.95588	19614.21	-3261.73	1	19883.56	-9.441563	-7.063508E-008	0.0006664	7
	39	213	37.20238	20186.63	-3275.215	1	20450.6	-9.215747	-6.264298E-008	0.0005822	7
	40	216	30.04808	20750.25	-3279.868	1	21007.87	-8.982089	-7.994961E-008	0.0005867	7
	41	218	23.91582	21342.17	-3300.39	1	21595.85	-8.790685	-1.004995E-007	0.0006083	7
	42	221	18.60119	21935.24	-3306.811	1	22183.1	-8.572976	-1.269325E-007	0.00063	7
	43	223	15.02404	22442.89	-3322.92	1	22687.55	-8.422092	-7.250792E-008	0.000674	7
	44	225	12.01923	22924.29	-3378.731	1	23171.94	-8.384264	-1.103544E-007	0.0006646	7
	45	228	9.450605	23407.86	-3499.803	1	23668.04	-8.503532	-2.852063E-008	0.0006051	7
	46	230	7.512019	23933.83	-3771.807	1	24229.21	-8.955764	-6.851712E-008	0.0006851	7
	47	233	5.978954	24385.9	-4109.785	1	24729.79	-9.56623	-9.851225E-008	0.0005773	7
	48	237	4.734848	24923.49	-4572.82	1	25339.52	-10.39667	-5.911919E-008	0.0005914	7
	49	240	3.75601	25563.79	-5218.21	1	26090.94	-11.53701	-5.832497E-008	0.0006152	7
	50	245	3.004808	26256.92	-6021.208	1	26938.46	-12.9157	-8.421854E-008	0.0007009	7
	51	251	2.372217	27078.8	-7054.004	1	27982.5	-14.601	-5.47355E-008	0.0006657	7
	52	255	1.878005	27836.06	-8388.638	1	29072.59	-16.77063	-6.104865E-008	0.0005998	7
	53	260	1.512097	28660.03	-9926.56	1	30330.41	-19.10381	-7.457999E-008	0.0007252	7
	54	265	1.201923	29780.89	-11932.29	1	32082.41	-21.83447	-6.654894E-008	0.0005985	7
	55	271	0.956633	31089.51	-14407.3	1	34265.55	-24.86365	-9.278667E-008	2.015113E-006	7
