EXPLAIN
TAG	EISPOT
TITLE	LABEL	Potentiostatic EIS	Test Identifier
DATE	LABEL	9/1/2020	Date
TIME	LABEL	1:11:41	Time
NOTES	NOTES	1	Notes...
	
PSTAT	PSTAT	REF3000-16137	Potentiostat
VDC	POTEN	0.00000E+000	T	DC Voltage (V)
FREQINIT	QUANT	3.00000E+005	Initial Freq. (Hz)
FREQFINAL	QUANT	1.00000E+000	Final Freq. (Hz)
PTSPERDEC	QUANT	1.00000E+001	Points/decade
VAC	QUANT	5.00000E+001	AC Voltage (mV rms)
AREA	QUANT	1.00000E+000	Sample Area (cm^2)
SPEED	SELECTOR	2	Optimize for:
ZGUESS	QUANT	1.00000E+003	Estimated Z (ohms)
EOC	QUANT	0	Open Circuit (V)
SEQUENCER	TOGGLE	TRUE	Run as Sequence
PSTATMODEL	IQUANT	5	Pstat Model
PSTATSECTION	LABEL	REF3000-16137	Pstat Section
PSTATSERIALNO	LABEL	16137	Pstat Serial Number
CTRLMODE	IQUANT	1	Control Mode
IESTAB	IQUANT	0	I/E Stability
CASPEED	IQUANT	1	Control Amp Speed
CONVENTION	IQUANT	1	Current Convention
ICHRANGE	IQUANT	2	Ich Range
ICHRANGEMODE	TOGGLE	F	Ich Auto Range
ICHOFFSETENABLE	TOGGLE	T	Ich Offset Enable
ICHOFFSET	QUANT	0	Ich Offset (V)
ICHFILTER	IQUANT	3	Ich Filter
VCHRANGE	IQUANT	2	Vch Range
VCHRANGEMODE	TOGGLE	F	Vch Auto Range
VCHOFFSETENABLE	TOGGLE	T	Vch Offset Enable
VCHOFFSET	QUANT	0	Vch Offset (V)
VCHFILTER	IQUANT	3	Vch Filter
ACHRANGE	IQUANT	2	Ach Range
ACHOFFSETENABLE	TOGGLE	F	Ach Offset Enable
ACHOFFSET	QUANT	0	Ach Offset (V)
ACHFILTER	IQUANT	3	Ach Filter
IERANGELOWERLIMIT	IQUANT	2	I/E Range Lower Limit
IERANGEMODE	TOGGLE	F	I/E AutoRange
IERANGE	IQUANT	11	I/E Range
POSFEEDENABLE	TOGGLE	F	Positive Feedback IR Comp
POSFEEDRESISTANCE	QUANT	0	Positive Feedback Resistance (ohm)
ACHSELECT	IQUANT	0	Ach Select
CABLEID	IQUANT	13	Cable ID
DCCALDATE	LABEL	7/31/2020	DC Calibration Date
ACCALDATE	LABEL	7/31/2020	AC Calibration Date
THERMOSELECT	IQUANT	1	Thermo Select
FRAMEWORKVERSION	QUANT	6.33	Framework Version
INSTRUMENTVERSION	LABEL	3.50	Instrument Version
COMPLIANCEVOLTAGE	IQUANT	0	Compliance Voltage
ZCURVE	TABLE
	Pt	Time	Freq	Zreal	Zimag	Zsig	Zmod	Zphz	Idc	Vdc	IERange
	#	s	Hz	ohm	ohm	V	ohm	°	A	V	#
	0	14	300046.9	858.4789	-288.6298	1	905.7004	-18.5832	-6.586027E-005	0.0006591	9
	1	30	238359.4	922.3242	-264.2087	1	959.421	-15.98487	2.425657E-005	-0.0016102	9
	2	50	189328.1	971.104	-233.4332	1	998.766	-13.51627	5.450172E-005	-0.0000989	9
	3	60	150421.9	1013.209	-196.4814	1	1032.084	-10.97458	-6.506688E-005	0.0008425	9
	4	69	119484.4	1051.672	-171.8239	1	1065.616	-9.27909	-3.189933E-005	-0.0007483	9
	5	81	94921.88	1077.592	-113.4708	1	1083.55	-6.011111	2.081691E-005	-0.0046207	8
	6	84	75421.88	1089.53	-95.5305	1	1093.71	-5.010907	-9.876561E-006	-0.0004622	8
	7	86	59859.37	1100.329	-81.46961	1	1103.341	-4.234518	1.939171E-005	-0.0031061	8
	8	89	47578.12	1111.84	-68.66026	1	1113.958	-3.533741	-1.606362E-005	0.0085727	8
	9	92	37828.12	1118.151	-56.67815	1	1119.586	-2.901793	-1.042761E-005	-0.000456	8
	10	95	30046.88	1129.303	-50.07892	1	1130.413	-2.539116	-1.02164E-005	-0.0003977	8
	11	98	23859.38	1136.722	-43.3538	1	1137.548	-2.184164	-1.748753E-005	0.0087549	8
	12	101	18984.38	1145.141	-36.94917	1	1145.737	-1.848068	-1.979481E-005	0.0066173	8
	13	104	15046.87	1154.021	-34.64624	1	1154.541	-1.719629	-1.750376E-005	0.0087948	8
	14	106	11953.13	1161.684	-31.79987	1	1162.119	-1.56802	2.046213E-005	-0.0032975	8
	15	109	9515.62	1169.434	-30.47971	1	1169.831	-1.492998	1.531235E-005	-0.0074027	8
	16	113	7546.875	1177.258	-28.24619	1	1177.597	-1.374445	1.598122E-005	-0.0073839	8
	17	115	5928.309	1188.802	-28.16035	1	1189.135	-1.356969	-2.000584E-005	0.0081126	8
	18	119	4733.456	1196.964	-30.38775	1	1197.349	-1.454276	1.650427E-006	0.0051887	8
	19	122	3796.875	1210.444	-33.47961	1	1210.907	-1.584337	-1.305974E-005	0.0087132	8
	20	125	2987.132	1219.443	-32.74306	1	1219.882	-1.53807	1.630761E-005	-0.0008188	8
	21	129	2390.625	1239.663	-38.42593	1	1240.258	-1.775433	-1.989172E-005	0.0083293	8
	22	132	1884.191	1239.022	-39.63161	1	1239.655	-1.83205	-6.274722E-006	0.0074541	8
	23	136	1516.544	1258.489	-43.73651	1	1259.249	-1.99041	1.595078E-005	-0.0074363	8
	24	140	1193.986	1275.456	-46.77134	1	1276.313	-2.100111	-1.507583E-005	0.0017844	8
	25	144	946.5144	1281.5	-59.05574	1	1282.86	-2.638512	1.641723E-006	0.0053267	8
	26	146	751.7689	1298.401	-59.22725	1	1299.751	-2.611766	1.585842E-005	-0.0074182	8
	27	149	597.4265	1312.994	-67.47105	1	1314.727	-2.94168	-1.99731E-005	0.0080772	8
	28	151	477.4305	1324.987	-71.50655	1	1326.916	-3.089126	-1.998645E-007	0.0006455	8
	29	154	376.6741	1338.63	-79.98018	1	1341.017	-3.419231	-1.809683E-007	0.0006383	8
	30	156	298.2954	1352.462	-90.07268	1	1355.458	-3.810218	-1.775485E-007	0.0006458	8
	31	158	237.7717	1366.673	-101.8944	1	1370.466	-4.263888	-2.213718E-007	0.0006499	8
	32	161	189.0121	1381.303	-116.3653	1	1386.196	-4.815406	-1.663624E-007	0.000625	8
	33	163	150.2404	1396.379	-134.1423	1	1402.807	-5.487245	-2.31956E-007	0.0006585	8
	34	166	119.1737	1412.626	-156.5021	1	1421.268	-6.32191	-2.218363E-007	0.0006507	8
	35	168	95.0169	1428.296	-183.1586	1	1439.992	-7.307487	-1.587764E-007	0.0006394	8
	36	171	75.60484	1445.776	-216.7464	1	1461.933	-8.526113	-2.016995E-007	0.0006384	8
	37	173	54.50582	1470.445	-279.2216	1	1496.721	-10.75184	-1.576326E-007	0.0006334	8
	38	176	45.95588	1487.782	-320.0797	1	1521.824	-12.14148	-2.26924E-007	0.0006287	8
	39	178	37.20238	1509.398	-380.9397	1	1556.726	-14.16444	-1.455243E-007	0.0006188	8
	40	180	30.04808	1534.871	-454.7188	1	1600.812	-16.50238	-2.135134E-007	0.0006421	8
	41	183	23.91582	1565.685	-550.8843	1	1659.772	-19.38436	-1.821543E-007	0.0006313	8
	42	185	18.60119	1606.942	-681.3224	1	1745.412	-22.97631	-8.107635E-008	0.0006498	8
	43	187	15.02404	1647.754	-814.1647	1	1837.922	-26.29425	-3.315771E-007	0.0006557	8
	44	190	12.01923	1697.715	-982.865	1	1961.698	-30.06801	-2.384207E-007	0.0006514	8
	45	192	9.450605	1761.079	-1201.848	1	2132.097	-34.31157	-1.035656E-007	0.0006338	8
	46	195	7.512019	1832.938	-1458.934	1	2342.68	-38.51816	-1.29706E-007	0.0006677	8
	47	197	5.978954	1920.873	-1767.317	1	2610.204	-42.61589	-1.998065E-007	0.0006669	8
	48	200	4.734848	2025.582	-2150.882	1	2954.535	-46.71844	-1.828631E-007	0.0006705	8
	49	204	3.75601	2151.192	-2616.842	1	3387.549	-50.57786	-2.108799E-007	0.0006282	8
	50	207	3.004808	2293.915	-3162.877	1	3907.152	-54.04805	-2.148154E-007	0.0006733	8
	51	211	2.372217	2489.074	-3874.612	1	4605.227	-57.28307	-4.508631E-008	0.0006781	7
	52	215	1.878005	2714.01	-4747.339	1	5468.37	-60.2438	-6.893467E-008	0.0005963	7
	53	220	1.512097	2967.948	-5719.948	1	6444.107	-62.57626	-5.116917E-008	0.0005593	7
	54	225	1.201923	3323.64	-6983.985	1	7734.509	-64.55048	-6.154795E-008	0.0006013	7
	55	231	0.956633	3760.657	-8499.111	1	9293.946	-66.13174	-6.168031E-008	-1.422229E-005	7
