EXPLAIN
TAG	EISPOT
TITLE	LABEL	Potentiostatic EIS	Test Identifier
DATE	LABEL	9/1/2020	Date
TIME	LABEL	1:49:27	Time
NOTES	NOTES	1	Notes...
	
PSTAT	PSTAT	REF3000-16137	Potentiostat
VDC	POTEN	0.00000E+000	T	DC Voltage (V)
FREQINIT	QUANT	3.00000E+005	Initial Freq. (Hz)
FREQFINAL	QUANT	1.00000E+000	Final Freq. (Hz)
PTSPERDEC	QUANT	1.00000E+001	Points/decade
VAC	QUANT	5.00000E+001	AC Voltage (mV rms)
AREA	QUANT	1.00000E+000	Sample Area (cm^2)
SPEED	SELECTOR	2	Optimize for:
ZGUESS	QUANT	1.00000E+003	Estimated Z (ohms)
EOC	QUANT	0	Open Circuit (V)
SEQUENCER	TOGGLE	TRUE	Run as Sequence
PSTATMODEL	IQUANT	5	Pstat Model
PSTATSECTION	LABEL	REF3000-16137	Pstat Section
PSTATSERIALNO	LABEL	16137	Pstat Serial Number
CTRLMODE	IQUANT	1	Control Mode
IESTAB	IQUANT	0	I/E Stability
CASPEED	IQUANT	1	Control Amp Speed
CONVENTION	IQUANT	1	Current Convention
ICHRANGE	IQUANT	2	Ich Range
ICHRANGEMODE	TOGGLE	F	Ich Auto Range
ICHOFFSETENABLE	TOGGLE	T	Ich Offset Enable
ICHOFFSET	QUANT	0	Ich Offset (V)
ICHFILTER	IQUANT	3	Ich Filter
VCHRANGE	IQUANT	2	Vch Range
VCHRANGEMODE	TOGGLE	F	Vch Auto Range
VCHOFFSETENABLE	TOGGLE	T	Vch Offset Enable
VCHOFFSET	QUANT	0	Vch Offset (V)
VCHFILTER	IQUANT	3	Vch Filter
ACHRANGE	IQUANT	2	Ach Range
ACHOFFSETENABLE	TOGGLE	F	Ach Offset Enable
ACHOFFSET	QUANT	0	Ach Offset (V)
ACHFILTER	IQUANT	3	Ach Filter
IERANGELOWERLIMIT	IQUANT	2	I/E Range Lower Limit
IERANGEMODE	TOGGLE	F	I/E AutoRange
IERANGE	IQUANT	11	I/E Range
POSFEEDENABLE	TOGGLE	F	Positive Feedback IR Comp
POSFEEDRESISTANCE	QUANT	0	Positive Feedback Resistance (ohm)
ACHSELECT	IQUANT	0	Ach Select
CABLEID	IQUANT	13	Cable ID
DCCALDATE	LABEL	7/31/2020	DC Calibration Date
ACCALDATE	LABEL	7/31/2020	AC Calibration Date
THERMOSELECT	IQUANT	1	Thermo Select
FRAMEWORKVERSION	QUANT	6.33	Framework Version
INSTRUMENTVERSION	LABEL	3.50	Instrument Version
COMPLIANCEVOLTAGE	IQUANT	0	Compliance Voltage
ZCURVE	TABLE
	Pt	Time	Freq	Zreal	Zimag	Zsig	Zmod	Zphz	Idc	Vdc	IERange
	#	s	Hz	ohm	ohm	V	ohm	°	A	V	#
	0	14	300046.9	293.0609	-3877.912	1	3888.969	-85.67827	2.667943E-005	0.0009177	9
	1	28	238359.4	364.1751	-4734.68	1	4748.665	-85.60167	7.959788E-005	-0.0017485	9
	2	42	189328.1	791.0363	-5979.855	1	6031.949	-82.46446	1.714064E-005	-0.0020907	9
	3	50	150421.9	1006.923	-7101.792	1	7172.819	-81.93015	8.794972E-005	-0.0024595	9
	4	58	119484.4	1638.239	-8974.602	1	9122.899	-79.65503	8.828513E-005	-0.0023837	9
	5	68	94921.88	2460.535	-11134.88	1	11403.5	-77.53928	2.585684E-005	-0.0090838	8
	6	76	75421.88	3506.668	-13537.17	1	13983.98	-75.47732	2.605072E-005	-0.0089894	8
	7	85	59859.37	4912.986	-16681.18	1	17389.63	-73.5891	2.613579E-005	-0.0090601	8
	8	94	47578.12	9646.46	-20487.2	1	22644.64	-64.78647	-5.055431E-006	0.0256531	7
	9	101	37828.12	12676.35	-24032.09	1	27170.41	-62.18944	-4.934304E-006	0.0256081	7
	10	107	30046.88	16188.35	-27974.33	1	32320.67	-59.94264	-7.141559E-006	0.0186332	7
	11	115	23859.38	18546.99	-33086.23	1	37930.05	-60.72653	2.744404E-005	-0.0075433	8
	12	121	18984.38	26102.31	-37380.34	1	45591.89	-55.07379	9.376353E-006	0.0038266	8
	13	129	15046.87	34780.32	-39216.5	1	52417.6	-48.43082	-4.869446E-006	0.0254236	7
	14	134	11953.13	43514.78	-40542.52	1	59474.63	-42.97487	2.77255E-006	0.00778	7
	15	140	9515.62	51048.25	-40448.21	1	65130.5	-38.39164	2.794574E-006	0.0076832	7
	16	145	7546.875	59603.42	-39596.47	1	71557.3	-33.59737	-5.248435E-006	0.0040029	7
	17	150	5928.309	62454.93	-33962.05	1	71091.77	-28.53668	1.78275E-005	0.0001382	8
	18	158	4733.456	75785.3	-35467.42	1	83674.07	-25.07953	5.095279E-006	-0.0258213	7
	19	164	3796.875	79831.35	-35415.04	1	87334.24	-23.92318	3.223618E-006	-0.0233811	7
	20	170	2987.132	86358	-32939.09	1	92426.66	-20.87809	2.804625E-006	0.0077327	7
	21	175	2390.625	95574.1	-22052.48	1	98085.3	-12.99286	1.787376E-005	0.0000967	8
	22	183	1884.191	95762.4	-29378.9	1	100167.7	-17.05546	3.265231E-006	-0.0235093	7
	23	189	1516.544	95306.6	-29213.39	1	99683.4	-17.04135	5.755296E-007	0.0152992	7
	24	196	1193.986	102837.7	-22734.39	1	105320.7	-12.46591	-4.740509E-007	0.0015446	6
	25	200	946.5144	104662.7	-23521.02	1	107273.1	-12.66574	-6.55449E-007	0.0253955	6
	26	203	751.7689	108540.2	-24708.06	1	111317	-12.82425	5.912502E-007	-0.0071645	6
	27	205	597.4265	111115.2	-24929.94	1	113877.5	-12.64554	-7.167397E-007	0.0224041	6
	28	208	477.4305	114187.6	-28774.47	1	117757.3	-14.14367	-8.414813E-009	0.0006602	6
	29	210	376.6741	117661	-31813.35	1	121886	-15.12995	-9.707753E-009	0.0007205	6
	30	213	298.2954	121356.1	-35406.03	1	126415.6	-16.26477	-8.99387E-009	0.0006263	6
	31	215	237.7717	125800.4	-39607.41	1	131888.2	-17.47626	-8.287515E-009	0.0006065	6
	32	217	189.0121	130753.1	-44488.26	1	138114.4	-18.79068	-8.522348E-009	0.0006594	6
	33	220	150.2404	135997.9	-49626.58	1	144769.6	-20.04737	-9.286488E-009	0.0006755	6
	34	223	119.1737	144963.6	-54598.23	1	154904.6	-20.63808	-8.811758E-009	0.0006147	6
	35	225	95.0169	149146.5	-64050.22	1	162317.9	-23.24087	-8.786269E-009	0.0007053	6
	36	228	75.60484	157007.4	-72738.24	1	173038.1	-24.8573	-8.5326E-009	0.0006467	6
	37	230	54.50582	169219.9	-85007.78	1	189371.9	-26.67271	-8.777596E-009	0.0006288	6
	38	233	45.95588	177292.4	-95920.1	1	201577	-28.41462	-8.975978E-009	0.0006387	6
	39	235	37.20238	187323.8	-108133	1	216293.7	-29.99577	-9.742457E-009	0.0007252	6
	40	237	30.04808	199764.4	-122057.4	1	234102.1	-31.42522	-8.370447E-009	0.000632	6
	41	240	23.91582	214664.8	-138832.1	1	255646.9	-32.89233	-9.84084E-009	0.0007187	6
	42	243	18.60119	234185	-161772.2	1	284627.6	-34.63625	-9.117113E-009	0.0006148	6
	43	245	15.02404	253500.5	-181594.2	1	311831.6	-35.61578	-8.79362E-009	0.0006102	6
	44	248	12.01923	276702.4	-205576	1	344711.1	-36.61049	-8.754648E-009	0.0006986	6
	45	250	9.450605	305841.5	-234543.7	1	385421.6	-37.48388	-9.139479E-009	0.0006941	6
	46	253	7.512019	345137.2	-261751.4	1	433166.8	-37.17661	-1.301497E-009	0.0006921	5
	47	256	5.978954	383519.4	-296424.4	1	484721.2	-37.70065	-1.419715E-009	0.0006238	5
	48	260	4.734848	430312.3	-334507	1	545035.4	-37.86002	-8.652964E-010	0.0006205	5
	49	264	3.75601	485495.2	-373877	1	612772.1	-37.59966	-8.977515E-010	0.0007001	5
	50	269	3.004808	547694.6	-412983.4	1	685948	-37.01774	-1.054549E-009	0.0006753	5
	51	276	2.372217	623618.8	-452038.7	1	770220.3	-35.937	-1.158693E-009	0.0005647	5
	52	280	1.878005	705617.1	-488408	1	858159.6	-34.68988	-9.020232E-010	0.0006491	5
	53	285	1.512097	788564.9	-518487.1	1	943749.7	-33.3252	-8.944318E-010	0.0005459	5
	54	290	1.201923	884852.6	-548216.7	1	1040916	-31.78058	-1.193853E-009	0.0006649	5
	55	296	0.956633	985324	-575443.4	1	1141052	-30.28554	-1.671703E-009	-1.96348E-006	5
