EXPLAIN
TAG	EISPOT
TITLE	LABEL	Potentiostatic EIS	Test Identifier
DATE	LABEL	9/1/2020	Date
TIME	LABEL	1:04:47	Time
NOTES	NOTES	1	Notes...
	
PSTAT	PSTAT	REF3000-16137	Potentiostat
VDC	POTEN	0.00000E+000	T	DC Voltage (V)
FREQINIT	QUANT	3.00000E+005	Initial Freq. (Hz)
FREQFINAL	QUANT	1.00000E+000	Final Freq. (Hz)
PTSPERDEC	QUANT	1.00000E+001	Points/decade
VAC	QUANT	5.00000E+001	AC Voltage (mV rms)
AREA	QUANT	1.00000E+000	Sample Area (cm^2)
SPEED	SELECTOR	2	Optimize for:
ZGUESS	QUANT	1.00000E+003	Estimated Z (ohms)
EOC	QUANT	0	Open Circuit (V)
SEQUENCER	TOGGLE	TRUE	Run as Sequence
PSTATMODEL	IQUANT	5	Pstat Model
PSTATSECTION	LABEL	REF3000-16137	Pstat Section
PSTATSERIALNO	LABEL	16137	Pstat Serial Number
CTRLMODE	IQUANT	1	Control Mode
IESTAB	IQUANT	0	I/E Stability
CASPEED	IQUANT	1	Control Amp Speed
CONVENTION	IQUANT	1	Current Convention
ICHRANGE	IQUANT	2	Ich Range
ICHRANGEMODE	TOGGLE	F	Ich Auto Range
ICHOFFSETENABLE	TOGGLE	T	Ich Offset Enable
ICHOFFSET	QUANT	0	Ich Offset (V)
ICHFILTER	IQUANT	3	Ich Filter
VCHRANGE	IQUANT	2	Vch Range
VCHRANGEMODE	TOGGLE	F	Vch Auto Range
VCHOFFSETENABLE	TOGGLE	T	Vch Offset Enable
VCHOFFSET	QUANT	0	Vch Offset (V)
VCHFILTER	IQUANT	3	Vch Filter
ACHRANGE	IQUANT	2	Ach Range
ACHOFFSETENABLE	TOGGLE	F	Ach Offset Enable
ACHOFFSET	QUANT	0	Ach Offset (V)
ACHFILTER	IQUANT	3	Ach Filter
IERANGELOWERLIMIT	IQUANT	2	I/E Range Lower Limit
IERANGEMODE	TOGGLE	F	I/E AutoRange
IERANGE	IQUANT	11	I/E Range
POSFEEDENABLE	TOGGLE	F	Positive Feedback IR Comp
POSFEEDRESISTANCE	QUANT	0	Positive Feedback Resistance (ohm)
ACHSELECT	IQUANT	0	Ach Select
CABLEID	IQUANT	13	Cable ID
DCCALDATE	LABEL	7/31/2020	DC Calibration Date
ACCALDATE	LABEL	7/31/2020	AC Calibration Date
THERMOSELECT	IQUANT	1	Thermo Select
FRAMEWORKVERSION	QUANT	6.33	Framework Version
INSTRUMENTVERSION	LABEL	3.50	Instrument Version
COMPLIANCEVOLTAGE	IQUANT	0	Compliance Voltage
ZCURVE	TABLE
	Pt	Time	Freq	Zreal	Zimag	Zsig	Zmod	Zphz	Idc	Vdc	IERange
	#	s	Hz	ohm	ohm	V	ohm	°	A	V	#
	0	10	300046.9	453.597	-73.12578	1	459.4536	-9.158035	-0.0001066	0.0036161	9
	1	16	238359.4	465.2616	-62.3936	1	469.4266	-7.638043	-6.451531E-005	0.0008251	9
	2	30	189328.1	477.1442	-54.41963	1	480.2375	-6.506629	5.365595E-005	-0.0002026	9
	3	35	150421.9	486.4245	-45.02209	1	488.5036	-5.28807	-1.695542E-005	0.0012591	9
	4	44	119484.4	495.7815	-22.31938	1	496.2837	-2.577635	-2.049805E-005	0.0140284	8
	5	47	94921.88	499.5599	-15.58425	1	499.8029	-1.786818	-1.064177E-005	0.0009244	8
	6	50	75421.88	501.6373	-14.03433	1	501.8336	-1.602548	8.387381E-006	-0.0053987	8
	7	53	59859.37	503.9907	-11.6407	1	504.1252	-1.323128	1.598081E-005	-0.0027754	8
	8	55	47578.12	506.8866	-10.61434	1	506.9977	-1.199614	-6.667133E-006	-0.0002077	8
	9	58	37828.12	508.8741	-9.69443	1	508.9665	-1.091395	-1.577939E-005	0.0066558	8
	10	60	30046.88	512.2682	-8.521082	1	512.3391	-0.952972	-1.448553E-005	0.0062408	8
	11	63	23859.38	514.2548	-8.899772	1	514.3318	-0.991471	3.241016E-006	-0.0034638	8
	12	65	18984.38	517.2451	-7.87393	1	517.305	-0.8721362	7.35866E-006	-0.0049946	8
	13	67	15046.87	516.4243	-7.292388	1	516.4758	-0.8090156	-8.779113E-006	-5.714935E-006	8
	14	70	11953.13	522.6913	-5.053267	1	522.7157	-0.553906	2.693731E-006	-0.0039354	8
	15	72	9515.62	523.7012	-7.626901	1	523.7568	-0.8343657	-1.487539E-005	0.0031976	8
	16	74	7546.875	525.293	-8.095525	1	525.3553	-0.8829409	-1.531663E-005	0.0043229	8
	17	77	5928.309	530.2231	-8.547524	1	530.292	-0.9235634	1.485288E-005	-0.005538	8
	18	79	4733.456	531.3798	-9.93849	1	531.4727	-1.071488	-3.961977E-006	0.0055951	8
	19	82	3796.875	534.3571	-11.43976	1	534.4795	-1.226427	1.328125E-005	-0.000842	8
	20	84	2987.132	538.3835	-13.19572	1	538.5452	-1.404032	-1.572625E-005	0.0055675	8
	21	87	2390.625	543.634	-13.36656	1	543.7983	-1.408471	8.473213E-006	0.0019532	8
	22	89	1884.191	543.8195	-15.00641	1	544.0265	-1.580646	-1.617002E-005	0.0056959	8
	23	92	1516.544	548.6129	-17.59765	1	548.8951	-1.837225	-8.777051E-006	0.0001589	8
	24	94	1193.986	553.2703	-20.30609	1	553.6428	-2.101923	-9.49573E-006	0.0068324	8
	25	97	946.5144	557.0918	-24.50743	1	557.6306	-2.518916	-1.284437E-005	0.0069625	8
	26	99	751.7689	559.9438	-27.57265	1	560.6223	-2.819071	7.970993E-006	0.001756	8
	27	101	597.4265	564.4959	-33.58879	1	565.4943	-3.405215	-4.218715E-006	-0.0018133	8
	28	104	477.4305	569.1793	-38.95456	1	570.5107	-3.915211	-1.020794E-007	0.0006565	8
	29	106	376.6741	573.9249	-46.43329	1	575.8002	-4.625431	-7.289736E-008	0.0006359	8
	30	108	298.2954	578.8674	-55.4755	1	581.5196	-5.474197	-7.869551E-008	0.0006474	8
	31	111	237.7717	584.2167	-66.32963	1	587.9701	-6.477396	-1.082803E-007	0.0006444	8
	32	113	189.0121	590.0057	-79.85523	1	595.3853	-7.707946	-1.268851E-007	0.000661	8
	33	115	150.2404	596.4046	-96.4513	1	604.1534	-9.186407	-1.087262E-007	0.0006422	8
	34	118	119.1737	603.5391	-117.0195	1	614.7789	-10.97286	-1.237997E-007	0.0006522	8
	35	120	95.0169	611.6508	-142.0273	1	627.924	-13.0726	-1.251147E-007	0.0006858	8
	36	123	75.60484	621.248	-172.6818	1	644.8008	-15.53378	-9.062408E-008	0.0006368	8
	37	125	54.50582	636.8862	-228.6135	1	676.6743	-19.74586	-1.149424E-007	0.0006477	8
	38	128	45.95588	648.015	-264.734	1	700.0053	-22.22152	-8.589769E-008	0.000655	8
	39	130	37.20238	663.0854	-317.1949	1	735.0475	-25.56468	-9.552994E-008	0.0006239	8
	40	133	30.04808	681.1647	-380.567	1	780.267	-29.19211	-6.873453E-008	0.0006321	8
	41	135	23.91582	703.6684	-461.8708	1	841.7089	-33.27992	-6.800857E-008	0.0006356	8
	42	137	18.60119	733.0256	-571.6588	1	929.5807	-37.94931	-1.963024E-007	0.000643	8
	43	140	15.02404	762.6844	-684.2853	1	1024.663	-41.89865	-1.231958E-007	0.0006702	8
	44	142	12.01923	798.9203	-826.7282	1	1149.675	-45.97999	-1.470733E-007	0.0006397	8
	45	144	9.450605	845.1744	-1014.743	1	1320.615	-50.20926	-1.621147E-007	0.0006466	8
	46	147	7.512019	897.3694	-1235.34	1	1526.871	-54.00478	-1.317363E-007	0.000617	8
	47	150	5.978954	961.598	-1502.773	1	1784.096	-57.38554	-1.223454E-007	0.0006446	8
	48	153	4.734848	1040.983	-1838.35	1	2112.624	-60.47888	-1.158312E-007	0.0006129	8
	49	156	3.75601	1140.343	-2248.011	1	2520.701	-63.1028	-6.988177E-008	0.0006599	8
	50	159	3.004808	1260.106	-2728.955	1	3005.838	-65.21467	-6.713397E-008	0.0006109	8
	51	163	2.372217	1420.943	-3353.94	1	3642.526	-67.03938	-1.192891E-007	0.000574	8
	52	167	1.878005	1628.762	-4111.849	1	4422.687	-68.39078	-2.680401E-008	0.0006258	7
	53	172	1.512097	1870.57	-4943.845	1	5285.891	-69.27519	-3.852985E-008	0.000562	7
	54	177	1.201923	2195.328	-6032.345	1	6419.397	-70.00223	-3.185659E-008	0.0006504	7
	55	184	0.956633	2605.638	-7320.643	1	7770.532	-70.40781	-5.078005E-008	-2.367063E-005	7
