EXPLAIN
TAG	EISPOT
TITLE	LABEL	Potentiostatic EIS	Test Identifier
DATE	LABEL	9/1/2020	Date
TIME	LABEL	2:16:57	Time
NOTES	NOTES	1	Notes...
	
PSTAT	PSTAT	REF3000-16137	Potentiostat
VDC	POTEN	0.00000E+000	T	DC Voltage (V)
FREQINIT	QUANT	3.00000E+005	Initial Freq. (Hz)
FREQFINAL	QUANT	1.00000E+000	Final Freq. (Hz)
PTSPERDEC	QUANT	1.00000E+001	Points/decade
VAC	QUANT	5.00000E+001	AC Voltage (mV rms)
AREA	QUANT	1.00000E+000	Sample Area (cm^2)
SPEED	SELECTOR	2	Optimize for:
ZGUESS	QUANT	1.00000E+003	Estimated Z (ohms)
EOC	QUANT	0	Open Circuit (V)
SEQUENCER	TOGGLE	TRUE	Run as Sequence
PSTATMODEL	IQUANT	5	Pstat Model
PSTATSECTION	LABEL	REF3000-16137	Pstat Section
PSTATSERIALNO	LABEL	16137	Pstat Serial Number
CTRLMODE	IQUANT	1	Control Mode
IESTAB	IQUANT	0	I/E Stability
CASPEED	IQUANT	1	Control Amp Speed
CONVENTION	IQUANT	1	Current Convention
ICHRANGE	IQUANT	2	Ich Range
ICHRANGEMODE	TOGGLE	F	Ich Auto Range
ICHOFFSETENABLE	TOGGLE	T	Ich Offset Enable
ICHOFFSET	QUANT	0	Ich Offset (V)
ICHFILTER	IQUANT	3	Ich Filter
VCHRANGE	IQUANT	2	Vch Range
VCHRANGEMODE	TOGGLE	F	Vch Auto Range
VCHOFFSETENABLE	TOGGLE	T	Vch Offset Enable
VCHOFFSET	QUANT	0	Vch Offset (V)
VCHFILTER	IQUANT	3	Vch Filter
ACHRANGE	IQUANT	2	Ach Range
ACHOFFSETENABLE	TOGGLE	F	Ach Offset Enable
ACHOFFSET	QUANT	0	Ach Offset (V)
ACHFILTER	IQUANT	3	Ach Filter
IERANGELOWERLIMIT	IQUANT	2	I/E Range Lower Limit
IERANGEMODE	TOGGLE	F	I/E AutoRange
IERANGE	IQUANT	11	I/E Range
POSFEEDENABLE	TOGGLE	F	Positive Feedback IR Comp
POSFEEDRESISTANCE	QUANT	0	Positive Feedback Resistance (ohm)
ACHSELECT	IQUANT	0	Ach Select
CABLEID	IQUANT	13	Cable ID
DCCALDATE	LABEL	7/31/2020	DC Calibration Date
ACCALDATE	LABEL	7/31/2020	AC Calibration Date
THERMOSELECT	IQUANT	1	Thermo Select
FRAMEWORKVERSION	QUANT	6.33	Framework Version
INSTRUMENTVERSION	LABEL	3.50	Instrument Version
COMPLIANCEVOLTAGE	IQUANT	0	Compliance Voltage
ZCURVE	TABLE
	Pt	Time	Freq	Zreal	Zimag	Zsig	Zmod	Zphz	Idc	Vdc	IERange
	#	s	Hz	ohm	ohm	V	ohm	°	A	V	#
	0	14	300046.9	12.30694	-4122.152	1	4122.17	-89.82894	-2.262681E-005	0.001117	9
	1	28	238359.4	60.18869	-5091.067	1	5091.423	-89.32265	2.126221E-005	-0.0022224	9
	2	46	189328.1	37.88517	-6239.565	1	6239.681	-89.65211	-9.243302E-005	0.002214	9
	3	55	150421.9	245.27	-7950.85	1	7954.632	-88.23309	-9.012934E-005	0.0041278	9
	4	67	119484.4	516.446	-9836.32	1	9849.87	-86.99451	2.663176E-005	0.0081086	8
	5	76	94921.88	688.5078	-12353.06	1	12372.23	-86.80988	1.787243E-005	0.0002382	8
	6	85	75421.88	685.772	-15587.69	1	15602.77	-87.48093	1.602377E-005	-0.0093097	8
	7	94	59859.37	712.0861	-19490.77	1	19503.78	-87.90765	-1.18078E-006	-0.0051212	8
	8	102	47578.12	3596.929	-25483.31	1	25735.9	-81.96587	7.356285E-006	-0.0180024	7
	9	109	37828.12	4295.216	-31668.35	1	31958.31	-82.27604	2.952371E-006	0.0077074	7
	10	116	30046.88	4633.409	-39139	1	39412.31	-83.24855	6.579333E-006	-0.0264552	7
	11	124	23859.38	2672.031	-46916.43	1	46992.45	-86.74036	2.623065E-005	-0.0090778	8
	12	130	18984.38	2021.841	-61610.06	1	61643.23	-88.12041	1.622251E-005	-0.009329	8
	13	136	15046.87	6631.535	-75822.6	1	76112.05	-85.00156	1.156967E-006	-0.0192678	7
	14	142	11953.13	8202.587	-96323.1	1	96671.7	-85.13261	-7.047479E-006	0.0232728	7
	15	147	9515.62	2772.796	-112717.8	1	112751.9	-88.59084	7.327509E-006	-0.0074674	8
	16	155	7546.875	11647.78	-149886.3	1	150338.2	-85.55643	4.937661E-006	-0.0013068	7
	17	160	5928.309	9623.3	-195847.6	1	196083.9	-87.18694	-6.637751E-006	0.0122047	7
	18	165	4733.456	27417.71	-245835.4	1	247359.6	-83.63618	7.501467E-006	-0.0241122	7
	19	172	3796.875	11250.08	-301433.7	1	301643.6	-87.8626	2.879164E-006	0.0078049	7
	20	179	2987.132	69350.26	-361276.5	1	367872.5	-79.13374	-6.642926E-006	0.0121852	7
	21	186	2390.625	32294.59	-456419.7	1	457560.8	-85.95271	-1.152048E-006	-0.0126868	7
	22	192	1884.191	113508	-581916.3	1	592883.4	-78.96253	7.533823E-007	-0.0225548	6
	23	198	1516.544	184424.7	-709876.1	1	733441.6	-75.4366	-6.354491E-007	0.0099984	6
	24	203	1193.986	209799	-870576.9	1	895499.7	-76.45073	3.8344E-007	-0.0246334	6
	25	209	946.5144	322048.2	-1032245	1	1081317	-72.6727	-2.76009E-007	-0.0069638	6
	26	212	751.7689	362898.1	-1293180	1	1343134	-74.32458	-4.85372E-007	0.0016945	6
	27	216	597.4265	379533.1	-1712161	1	1753722	-77.5014	4.268641E-007	0.001664	6
	28	221	477.4305	906049.9	-1859777	1	2068742	-64.02548	-8.845007E-009	0.0006512	6
	29	225	376.6741	1537557	-2094300	1	2598110	-53.71528	-8.046113E-010	0.000665	5
	30	228	298.2954	1690614	-2393823	1	2930626	-54.76873	-8.550368E-009	0.0006811	6
	31	231	237.7717	2438015	-2508859	1	3498326	-45.82048	-8.313817E-010	0.0005979	5
	32	235	189.0121	2933736	-2570900	1	3900812	-41.22883	-8.112588E-010	0.0006279	5
	33	238	150.2404	3553050	-2656876	1	4436570	-36.78817	-8.259874E-010	0.0005932	5
	34	242	119.1737	3550903	-3020821	1	4662003	-40.38844	-8.538067E-010	0.000685	5
	35	245	95.0169	4428847	-2383616	1	5029544	-28.28924	-9.134016E-010	0.0007149	5
	36	248	75.60484	4913411	-2320863	1	5433968	-25.28384	-7.891984E-010	0.0006258	5
	37	251	54.50582	5287324	-2079341	1	5681501	-21.46818	-8.007376E-010	0.0005878	5
	38	254	45.95588	6303750	-1470800	1	6473061	-13.13337	-1.637861E-011	0.0006504	4
	39	257	37.20238	6384718	-1383380	1	6532868	-12.22533	-8.000108E-011	0.0006856	4
	40	259	30.04808	6540183	-1411733	1	6690814	-12.18071	-5.626471E-011	0.0005957	4
	41	262	23.91582	6667277	-1509414	1	6836001	-12.75624	2.507976E-011	0.0005995	4
	42	265	18.60119	6939987	-1448766	1	7089594	-11.79152	3.658211E-011	0.000617	4
	43	267	15.02404	7029094	-1628275	1	7215223	-13.04241	-2.404273E-012	0.0006712	4
	44	270	12.01923	7206756	-1749309	1	7416024	-13.64364	-1.31188E-010	0.0005973	4
	45	272	9.450605	7454038	-1942592	1	7703009	-14.60691	-4.222216E-011	0.0006774	4
	46	275	7.512019	7723653	-2181557	1	8025834	-15.77241	-6.40007E-012	0.0005942	4
	47	278	5.978954	8051331	-2476245	1	8423521	-17.09566	-1.887133E-011	0.0006824	4
	48	283	4.734848	8407654	-2815765	1	8866633	-18.51595	-6.340261E-011	0.0006816	4
	49	286	3.75601	8831853	-3219800	1	9400465	-20.03018	-7.040774E-011	0.0006104	4
	50	292	3.004808	9344187	-3670608	1	1.003928E+007	-21.44602	-4.340457E-011	0.0006185	4
	51	298	2.372217	9.918345E+006	-4225791	1	1.078104E+007	-23.07682	-7.180465E-011	0.0007054	4
	52	302	1.878005	1.054779E+007	-4855790	1	1.161182E+007	-24.71951	-8.630517E-011	0.0006278	4
	53	307	1.512097	1.121563E+007	-5512780	1	1.249724E+007	-26.17535	-7.706857E-011	0.0006803	4
	54	313	1.201923	1.203489E+007	-6309040	1	1.358833E+007	-27.66483	-5.036798E-011	0.0006517	4
	55	319	0.956633	1.29844E+007	-7251445	1	1.487206E+007	-29.1822	-9.226954E-011	1.171966E-005	4
