EXPLAIN
TAG	EISPOT
TITLE	LABEL	Potentiostatic EIS	Test Identifier
DATE	LABEL	9/1/2020	Date
TIME	LABEL	1:44:22	Time
NOTES	NOTES	1	Notes...
	
PSTAT	PSTAT	REF3000-16137	Potentiostat
VDC	POTEN	0.00000E+000	T	DC Voltage (V)
FREQINIT	QUANT	3.00000E+005	Initial Freq. (Hz)
FREQFINAL	QUANT	1.00000E+000	Final Freq. (Hz)
PTSPERDEC	QUANT	1.00000E+001	Points/decade
VAC	QUANT	5.00000E+001	AC Voltage (mV rms)
AREA	QUANT	1.00000E+000	Sample Area (cm^2)
SPEED	SELECTOR	2	Optimize for:
ZGUESS	QUANT	1.00000E+003	Estimated Z (ohms)
EOC	QUANT	0	Open Circuit (V)
SEQUENCER	TOGGLE	TRUE	Run as Sequence
PSTATMODEL	IQUANT	5	Pstat Model
PSTATSECTION	LABEL	REF3000-16137	Pstat Section
PSTATSERIALNO	LABEL	16137	Pstat Serial Number
CTRLMODE	IQUANT	1	Control Mode
IESTAB	IQUANT	0	I/E Stability
CASPEED	IQUANT	1	Control Amp Speed
CONVENTION	IQUANT	1	Current Convention
ICHRANGE	IQUANT	2	Ich Range
ICHRANGEMODE	TOGGLE	F	Ich Auto Range
ICHOFFSETENABLE	TOGGLE	T	Ich Offset Enable
ICHOFFSET	QUANT	0	Ich Offset (V)
ICHFILTER	IQUANT	3	Ich Filter
VCHRANGE	IQUANT	2	Vch Range
VCHRANGEMODE	TOGGLE	F	Vch Auto Range
VCHOFFSETENABLE	TOGGLE	T	Vch Offset Enable
VCHOFFSET	QUANT	0	Vch Offset (V)
VCHFILTER	IQUANT	3	Vch Filter
ACHRANGE	IQUANT	2	Ach Range
ACHOFFSETENABLE	TOGGLE	F	Ach Offset Enable
ACHOFFSET	QUANT	0	Ach Offset (V)
ACHFILTER	IQUANT	3	Ach Filter
IERANGELOWERLIMIT	IQUANT	2	I/E Range Lower Limit
IERANGEMODE	TOGGLE	F	I/E AutoRange
IERANGE	IQUANT	11	I/E Range
POSFEEDENABLE	TOGGLE	F	Positive Feedback IR Comp
POSFEEDRESISTANCE	QUANT	0	Positive Feedback Resistance (ohm)
ACHSELECT	IQUANT	0	Ach Select
CABLEID	IQUANT	13	Cable ID
DCCALDATE	LABEL	7/31/2020	DC Calibration Date
ACCALDATE	LABEL	7/31/2020	AC Calibration Date
THERMOSELECT	IQUANT	1	Thermo Select
FRAMEWORKVERSION	QUANT	6.33	Framework Version
INSTRUMENTVERSION	LABEL	3.50	Instrument Version
COMPLIANCEVOLTAGE	IQUANT	0	Compliance Voltage
ZCURVE	TABLE
	Pt	Time	Freq	Zreal	Zimag	Zsig	Zmod	Zphz	Idc	Vdc	IERange
	#	s	Hz	ohm	ohm	V	ohm	°	A	V	#
	0	20	300046.9	455.1997	-3720.353	1	3748.098	-83.02431	-2.256552E-005	0.0014326	9
	1	34	238359.4	559.3517	-4683.748	1	4717.03	-83.18977	2.018514E-005	-0.0022062	9
	2	48	189328.1	963.903	-5614.165	1	5696.311	-80.2578	5.136089E-005	0.0001475	9
	3	56	150421.9	1617.394	-7034.028	1	7217.584	-77.05058	5.107758E-005	0.0002059	9
	4	63	119484.4	2343.72	-8324.623	1	8648.259	-74.27592	-4.10178E-005	0.0226465	8
	5	71	94921.88	3308.655	-10134.43	1	10660.86	-71.91934	-2.45492E-005	0.0111238	8
	6	79	75421.88	4762.651	-12177.98	1	13076.16	-68.64017	-2.425515E-005	0.0109544	8
	7	88	59859.37	6305.617	-14487.02	1	15799.82	-66.47844	1.794264E-005	8.852418E-005	8
	8	97	47578.12	11132.62	-17140.71	1	20438.67	-56.99691	7.315732E-006	-0.023559	7
	9	104	37828.12	14166.34	-19287.54	1	23931.04	-53.7034	-6.929534E-006	0.0227355	7
	10	110	30046.88	15945.16	-21720.95	1	26945.28	-53.71793	-1.708252E-006	-0.0049502	8
	11	119	23859.38	22491.11	-23065.56	1	32216	-45.72244	-5.07959E-006	0.0037121	7
	12	124	18984.38	27046.5	-23843.06	1	36055.57	-41.39805	4.747847E-006	-0.0009091	7
	13	130	15046.87	31978.5	-24188.64	1	40096.32	-37.10397	-3.392065E-006	-0.0044272	7
	14	135	11953.13	36348.05	-25149.59	1	44200.48	-34.67976	-2.634557E-005	0.0076736	8
	15	142	9515.62	41415.83	-23245.83	1	47493.57	-29.30457	2.223124E-005	-0.0096668	8
	16	149	7546.875	45686.93	-21383.79	1	50443.65	-25.08197	6.187297E-006	-0.0098592	7
	17	156	5928.309	49002.84	-19724.39	1	52823.57	-21.92553	-3.473743E-006	0.0241495	7
	18	161	4733.456	52120.84	-18842.98	1	55422.37	-19.87618	6.384938E-006	-0.0101083	7
	19	167	3796.875	53973.09	-17241.01	1	56659.93	-17.71542	-1.227937E-006	-0.0118785	7
	20	172	2987.132	54716.84	-15122.62	1	56768.18	-15.44971	-7.062893E-006	0.0183977	7
	21	177	2390.625	58955.26	-15696.58	1	61009.06	-14.90889	5.10464E-006	-0.0256307	7
	22	183	1884.191	59936.25	-14297.47	1	61617.95	-13.41686	6.530342E-006	-0.0260306	7
	23	188	1516.544	62754.59	-14030.76	1	64303.97	-12.603	-6.207458E-006	0.024894	7
	24	194	1193.986	64395.22	-16333.93	1	66434.49	-14.23297	5.496007E-007	0.0152116	7
	25	199	946.5144	68220.68	-13822.6	1	69606.94	-11.45398	6.964513E-007	-0.0153137	6
	26	202	751.7689	70609.19	-15080.94	1	72201.74	-12.05627	5.616377E-007	-0.0263576	6
	27	204	597.4265	72500.41	-16645.14	1	74386.63	-12.93028	-2.72938E-007	-0.006917	6
	28	207	477.4305	74147.95	-18845.7	1	76505.42	-14.26054	-8.532548E-009	0.0006475	6
	29	209	376.6741	76603.95	-21160.28	1	79472.78	-15.44173	-9.450237E-009	0.000672	6
	30	212	298.2954	79459.38	-23812.97	1	82950.89	-16.68281	-1.045565E-008	0.00071	6
	31	214	237.7717	82403.36	-26705.41	1	86622.7	-17.95655	-9.743155E-009	0.0007041	6
	32	216	189.0121	85831.82	-30108.7	1	90959.52	-19.33022	-1.056186E-008	0.000691	6
	33	219	150.2404	89762.13	-34014.52	1	95990.8	-20.75373	-9.525592E-009	0.0006354	6
	34	222	119.1737	93253.34	-36942.41	1	100304.2	-21.61105	-9.902915E-009	0.000696	6
	35	224	95.0169	99170.3	-43188.42	1	108166.4	-23.53302	-8.797362E-009	0.0006798	6
	36	227	75.60484	104498.2	-48875.05	1	115363.1	-25.06606	-8.873051E-009	0.0006115	6
	37	229	54.50582	113869.9	-57044.25	1	127359.3	-26.60903	-9.144697E-009	0.0006303	6
	38	232	45.95588	119878.7	-63726.06	1	135764.2	-27.99457	-8.944657E-009	0.0006175	6
	39	234	37.20238	127909.4	-70841.52	1	146216.8	-28.9795	-9.329469E-009	0.0006368	6
	40	236	30.04808	137410.6	-79335.95	1	158669	-30.0006	-9.644645E-009	0.0006602	6
	41	239	23.91582	148802.8	-88860.37	1	173316	-30.84432	-8.618572E-009	0.0006189	6
	42	242	18.60119	163341.3	-100610.3	1	191840.6	-31.63106	-8.822822E-009	0.0006298	6
	43	244	15.02404	178070.6	-110759.2	1	209706.3	-31.88144	-7.929319E-009	0.0006117	6
	44	247	12.01923	195350.4	-122089.1	1	230363.9	-32.00435	-7.965438E-009	0.000632	6
	45	249	9.450605	216878.1	-134186.1	1	255033.3	-31.74577	-8.34585E-009	0.0006546	6
	46	252	7.512019	240276.1	-146084.5	1	281199.7	-31.29902	-7.747871E-009	0.0006334	6
	47	255	5.978954	266752.7	-156954.5	1	309502.3	-30.47211	-7.585646E-009	0.0006146	6
	48	259	4.734848	296807.3	-166585.8	1	340360.7	-29.30372	-8.783769E-009	0.0006154	6
	49	263	3.75601	329082.6	-174443.8	1	372459.4	-27.92768	-9.119525E-009	0.000597	6
	50	268	3.004808	364906.1	-178515.2	1	406231.6	-26.06827	-1.97995E-009	0.000613	5
	51	275	2.372217	400431.5	-182424.8	1	440027.4	-24.49261	-1.905297E-009	0.0007106	5
	52	279	1.878005	435423.5	-184500.9	1	472899.8	-22.96371	-2.640268E-009	0.000616	5
	53	284	1.512097	467993.8	-185673.8	1	503480.8	-21.64041	-2.701936E-009	0.0006989	5
	54	289	1.201923	503380.9	-186049.6	1	536662.7	-20.28431	-1.872543E-009	0.0006169	5
	55	295	0.956633	539214.6	-187309	1	570821.3	-19.15589	-3.819014E-009	6.837493E-006	5
