EXPLAIN
TAG	EISPOT
TITLE	LABEL	Potentiostatic EIS	Test Identifier
DATE	LABEL	9/1/2020	Date
TIME	LABEL	1:54:33	Time
NOTES	NOTES	1	Notes...
	
PSTAT	PSTAT	REF3000-16137	Potentiostat
VDC	POTEN	0.00000E+000	T	DC Voltage (V)
FREQINIT	QUANT	3.00000E+005	Initial Freq. (Hz)
FREQFINAL	QUANT	1.00000E+000	Final Freq. (Hz)
PTSPERDEC	QUANT	1.00000E+001	Points/decade
VAC	QUANT	5.00000E+001	AC Voltage (mV rms)
AREA	QUANT	1.00000E+000	Sample Area (cm^2)
SPEED	SELECTOR	2	Optimize for:
ZGUESS	QUANT	1.00000E+003	Estimated Z (ohms)
EOC	QUANT	0	Open Circuit (V)
SEQUENCER	TOGGLE	TRUE	Run as Sequence
PSTATMODEL	IQUANT	5	Pstat Model
PSTATSECTION	LABEL	REF3000-16137	Pstat Section
PSTATSERIALNO	LABEL	16137	Pstat Serial Number
CTRLMODE	IQUANT	1	Control Mode
IESTAB	IQUANT	0	I/E Stability
CASPEED	IQUANT	1	Control Amp Speed
CONVENTION	IQUANT	1	Current Convention
ICHRANGE	IQUANT	2	Ich Range
ICHRANGEMODE	TOGGLE	F	Ich Auto Range
ICHOFFSETENABLE	TOGGLE	T	Ich Offset Enable
ICHOFFSET	QUANT	0	Ich Offset (V)
ICHFILTER	IQUANT	3	Ich Filter
VCHRANGE	IQUANT	2	Vch Range
VCHRANGEMODE	TOGGLE	F	Vch Auto Range
VCHOFFSETENABLE	TOGGLE	T	Vch Offset Enable
VCHOFFSET	QUANT	0	Vch Offset (V)
VCHFILTER	IQUANT	3	Vch Filter
ACHRANGE	IQUANT	2	Ach Range
ACHOFFSETENABLE	TOGGLE	F	Ach Offset Enable
ACHOFFSET	QUANT	0	Ach Offset (V)
ACHFILTER	IQUANT	3	Ach Filter
IERANGELOWERLIMIT	IQUANT	2	I/E Range Lower Limit
IERANGEMODE	TOGGLE	F	I/E AutoRange
IERANGE	IQUANT	11	I/E Range
POSFEEDENABLE	TOGGLE	F	Positive Feedback IR Comp
POSFEEDRESISTANCE	QUANT	0	Positive Feedback Resistance (ohm)
ACHSELECT	IQUANT	0	Ach Select
CABLEID	IQUANT	13	Cable ID
DCCALDATE	LABEL	7/31/2020	DC Calibration Date
ACCALDATE	LABEL	7/31/2020	AC Calibration Date
THERMOSELECT	IQUANT	1	Thermo Select
FRAMEWORKVERSION	QUANT	6.33	Framework Version
INSTRUMENTVERSION	LABEL	3.50	Instrument Version
COMPLIANCEVOLTAGE	IQUANT	0	Compliance Voltage
ZCURVE	TABLE
	Pt	Time	Freq	Zreal	Zimag	Zsig	Zmod	Zphz	Idc	Vdc	IERange
	#	s	Hz	ohm	ohm	V	ohm	°	A	V	#
	0	24	300046.9	202.3634	-3938.379	1	3943.574	-87.05859	-8.919733E-005	0.004139	9
	1	39	238359.4	355.4092	-5018.441	1	5031.01	-85.94904	-1.97232E-006	0.0015675	9
	2	62	189328.1	471.5981	-6120.092	1	6138.235	-85.59364	-6.15535E-005	0.0006086	9
	3	74	150421.9	532.8298	-7515.406	1	7534.271	-85.94461	1.924669E-005	-0.0008805	9
	4	83	119484.4	1402.027	-9257.716	1	9363.278	-81.38833	-8.585317E-005	0.0229917	8
	5	90	94921.88	1725.141	-11607.67	1	11735.17	-81.54653	2.377757E-005	-0.0029442	8
	6	99	75421.88	2543.512	-14549.37	1	14770.03	-80.0838	7.56656E-006	-0.0076692	8
	7	108	59859.37	3505.351	-17946.31	1	18285.45	-78.94789	2.644874E-005	-0.0052917	8
	8	116	47578.12	4778.521	-22207.48	1	22715.78	-77.85647	-2.048678E-006	0.0077843	8
	9	124	37828.12	9779.46	-27489.83	1	29177.54	-70.41707	7.38372E-006	-0.0183145	7
	10	130	30046.88	12886.96	-33330.03	1	35734.64	-68.86115	-5.215138E-006	0.0038967	7
	11	138	23859.38	12199.94	-40455.83	1	42255.33	-73.21868	-1.043002E-005	-0.0018599	8
	12	144	18984.38	23511.02	-47073.99	1	52618.71	-63.46025	-5.262249E-006	0.0039567	7
	13	149	15046.87	31616.8	-54576.45	1	63073.06	-59.91577	-3.607779E-006	0.0245631	7
	14	155	11953.13	40962.69	-61205.75	1	73648.4	-56.20711	5.459659E-007	0.015527	7
	15	160	9515.62	46976.33	-67857.41	1	82531.23	-55.30592	-2.392455E-005	0.0052832	8
	16	168	7546.875	68848.7	-66384.09	1	95639.9	-43.9559	2.194281E-005	-0.0095348	8
	17	176	5928.309	71215.38	-62044.82	1	94452.05	-41.06329	-2.69238E-005	0.0098048	8
	18	184	4733.456	80110.05	-100489.3	1	128513.5	-51.43817	1.600457E-005	-0.0092401	8
	19	192	3796.875	114265.3	-71975.21	1	135044.4	-32.20665	-1.087467E-006	-0.012631	7
	20	198	2987.132	138888.2	-60053.96	1	151315.6	-23.38321	-7.172505E-007	0.0173491	6
	21	203	2390.625	147071.6	-56128.36	1	157418	-20.88884	5.904009E-007	-0.0072238	6
	22	207	1884.191	157398.7	-50480.49	1	165295.6	-17.78194	-2.786656E-007	-0.0068277	6
	23	211	1516.544	161643.5	-47585.33	1	168502.2	-16.40361	-5.420077E-007	0.0258658	6
	24	215	1193.986	166665.6	-43749.2	1	172312	-14.70814	2.21034E-007	0.0097518	6
	25	220	946.5144	172253.5	-48228.61	1	178877.8	-15.64152	2.197901E-007	0.0097309	6
	26	223	751.7689	178288.7	-39215.22	1	182550.5	-12.40488	4.253413E-007	0.0016016	6
	27	225	597.4265	184573.8	-45407.65	1	190077.2	-13.82107	-1.981416E-007	0.0215528	6
	28	228	477.4305	187609.8	-46436.22	1	193271.2	-13.90215	-8.466186E-009	0.000692	6
	29	230	376.6741	192871.3	-49333.43	1	199080.7	-14.34773	-8.726906E-009	0.0006882	6
	30	232	298.2954	198726.4	-53739.72	1	205864.4	-15.13204	-9.490421E-009	0.0006935	6
	31	235	237.7717	204685.5	-58354.79	1	212841.4	-15.91258	-8.800998E-009	0.000625	6
	32	237	189.0121	211318.4	-64708.27	1	221003.6	-17.02523	-7.788246E-009	0.0006097	6
	33	240	150.2404	219950	-71684.59	1	231336.8	-18.05146	-9.099613E-009	0.0007103	6
	34	243	119.1737	234776	-80345.05	1	248143.3	-18.89198	-8.16892E-009	0.000617	6
	35	245	95.0169	238310.9	-91065.69	1	255117.7	-20.91334	-8.99631E-009	0.0006625	6
	36	249	75.60484	248537.3	-102794.4	1	268956.3	-22.46986	-9.146143E-009	0.0007301	6
	37	252	54.50582	267108.3	-119536.5	1	292636	-24.1095	-8.963227E-009	0.0006591	6
	38	254	45.95588	277360.6	-135535	1	308704.8	-26.04289	-8.286028E-009	0.0006176	6
	39	256	37.20238	292463.2	-153019.3	1	330075.2	-27.61896	-8.269839E-009	0.0006418	6
	40	259	30.04808	308360	-172254.3	1	353210.2	-29.18835	-8.301097E-009	0.0006192	6
	41	262	23.91582	327833.7	-197033.3	1	382488	-31.00655	-9.046329E-009	0.0007241	6
	42	264	18.60119	367060.9	-223719.6	1	429865.3	-31.36185	-1.691668E-009	0.0006074	5
	43	267	15.02404	388578.2	-254419.4	1	464459.1	-33.21455	-1.356188E-009	0.0006825	5
	44	269	12.01923	417373.1	-291732.2	1	509222.9	-34.95248	-1.20281E-009	0.0006439	5
	45	272	9.450605	453029.6	-338207.9	1	565349.8	-36.74307	-1.392105E-009	0.0006713	5
	46	274	7.512019	493281.5	-389615.9	1	628591.4	-38.30327	-1.084941E-009	0.0006173	5
	47	277	5.978954	540945.3	-448916.3	1	702956.4	-39.68839	-1.185961E-009	0.0006955	5
	48	282	4.734848	599120.6	-516847.8	1	791250.4	-40.78359	-9.777337E-010	0.0006545	5
	49	285	3.75601	667314.8	-594474.9	1	893705.4	-41.69613	-7.757525E-010	0.0006331	5
	50	291	3.004808	746862.7	-679439.9	1	1009674	-42.29359	-9.677649E-010	0.0006678	5
	51	297	2.372217	849860.7	-777742.7	1	1152019	-42.46292	-9.395345E-010	0.0005727	5
	52	301	1.878005	969874	-884995.9	1	1312963	-42.38	-7.334225E-010	0.0006376	5
	53	306	1.512097	1099568	-988264	1	1478416	-41.94841	-8.070625E-010	0.0006493	5
	54	312	1.201923	1262981	-1101246	1	1675668	-41.08655	-8.857126E-010	0.0006631	5
	55	318	0.956633	1449295	-1214812	1	1891091	-39.97004	-1.326125E-009	9.591322E-007	5
