EXPLAIN
TAG	EISPOT
TITLE	LABEL	Potentiostatic EIS	Test Identifier
DATE	LABEL	9/1/2020	Date
TIME	LABEL	0:58:33	Time
NOTES	NOTES	1	Notes...
	
PSTAT	PSTAT	REF3000-16137	Potentiostat
VDC	POTEN	0.00000E+000	T	DC Voltage (V)
FREQINIT	QUANT	3.00000E+005	Initial Freq. (Hz)
FREQFINAL	QUANT	1.00000E+000	Final Freq. (Hz)
PTSPERDEC	QUANT	1.00000E+001	Points/decade
VAC	QUANT	5.00000E+001	AC Voltage (mV rms)
AREA	QUANT	1.00000E+000	Sample Area (cm^2)
SPEED	SELECTOR	2	Optimize for:
ZGUESS	QUANT	1.00000E+003	Estimated Z (ohms)
EOC	QUANT	0	Open Circuit (V)
SEQUENCER	TOGGLE	TRUE	Run as Sequence
PSTATMODEL	IQUANT	5	Pstat Model
PSTATSECTION	LABEL	REF3000-16137	Pstat Section
PSTATSERIALNO	LABEL	16137	Pstat Serial Number
CTRLMODE	IQUANT	1	Control Mode
IESTAB	IQUANT	0	I/E Stability
CASPEED	IQUANT	1	Control Amp Speed
CONVENTION	IQUANT	1	Current Convention
ICHRANGE	IQUANT	2	Ich Range
ICHRANGEMODE	TOGGLE	F	Ich Auto Range
ICHOFFSETENABLE	TOGGLE	T	Ich Offset Enable
ICHOFFSET	QUANT	0	Ich Offset (V)
ICHFILTER	IQUANT	3	Ich Filter
VCHRANGE	IQUANT	2	Vch Range
VCHRANGEMODE	TOGGLE	F	Vch Auto Range
VCHOFFSETENABLE	TOGGLE	T	Vch Offset Enable
VCHOFFSET	QUANT	0	Vch Offset (V)
VCHFILTER	IQUANT	3	Vch Filter
ACHRANGE	IQUANT	2	Ach Range
ACHOFFSETENABLE	TOGGLE	F	Ach Offset Enable
ACHOFFSET	QUANT	0	Ach Offset (V)
ACHFILTER	IQUANT	3	Ach Filter
IERANGELOWERLIMIT	IQUANT	2	I/E Range Lower Limit
IERANGEMODE	TOGGLE	F	I/E AutoRange
IERANGE	IQUANT	11	I/E Range
POSFEEDENABLE	TOGGLE	F	Positive Feedback IR Comp
POSFEEDRESISTANCE	QUANT	0	Positive Feedback Resistance (ohm)
ACHSELECT	IQUANT	0	Ach Select
CABLEID	IQUANT	13	Cable ID
DCCALDATE	LABEL	7/31/2020	DC Calibration Date
ACCALDATE	LABEL	7/31/2020	AC Calibration Date
THERMOSELECT	IQUANT	1	Thermo Select
FRAMEWORKVERSION	QUANT	6.33	Framework Version
INSTRUMENTVERSION	LABEL	3.50	Instrument Version
COMPLIANCEVOLTAGE	IQUANT	0	Compliance Voltage
ZCURVE	TABLE
	Pt	Time	Freq	Zreal	Zimag	Zsig	Zmod	Zphz	Idc	Vdc	IERange
	#	s	Hz	ohm	ohm	V	ohm	°	A	V	#
	0	7	300046.9	260.4438	-22.00258	1	261.3715	-4.828945	1.743751E-005	-0.0016422	9
	1	12	238359.4	263.9897	-18.75045	1	264.6547	-4.062737	-1.267683E-005	0.0009956	9
	2	17	189328.1	267.0933	-18.76812	1	267.7519	-4.019454	-6.190281E-005	0.0006544	10
	3	26	150421.9	270.3529	-12.92272	1	270.6616	-2.736624	-0.0000967	0.0035982	9
	4	30	119484.4	272.2843	-10.70593	1	272.4947	-2.25165	1.003171E-005	0.0012978	9
	5	34	94921.88	274.3933	-8.978466	1	274.5402	-1.874115	1.537379E-005	-0.0008421	9
	6	38	75421.88	276.2425	-7.604288	1	276.3472	-1.576816	1.491351E-005	-0.0008349	9
	7	42	59859.37	278.2175	-6.455405	1	278.2924	-1.32918	2.803893E-005	-0.000512	9
	8	46	47578.12	280.011	-5.903708	1	280.0732	-1.207836	2.890255E-005	-0.0007462	9
	9	48	37828.12	280.2938	-4.779191	1	280.3345	-0.976836	2.786941E-005	-0.0009318	9
	10	51	30046.88	282.442	-4.461344	1	282.4773	-0.9049465	-2.122546E-005	0.0010525	9
	11	54	23859.38	283.6118	-3.99801	1	283.64	-0.8076318	-1.534056E-005	0.001035	9
	12	57	18984.38	285.2317	-3.973612	1	285.2594	-0.7981457	-1.48409E-005	0.0009547	9
	13	60	15046.87	286.6919	-4.059245	1	286.7207	-0.8111916	-2.117571E-005	0.0003389	9
	14	63	11953.13	288.4801	-3.95889	1	288.5073	-0.7862361	2.158086E-005	-0.0001483	9
	15	65	9515.62	289.1096	-4.357618	1	289.1424	-0.863528	2.250349E-005	-0.0008642	9
	16	67	7546.875	291.2847	-4.585339	1	291.3208	-0.9018629	1.541007E-005	-0.0008005	9
	17	71	5928.309	292.2094	-5.250572	1	292.2566	-1.02941	2.829454E-005	-0.0005255	9
	18	73	4733.456	292.9392	-5.516131	1	292.9911	-1.078769	2.538242E-005	-0.0002905	9
	19	76	3796.875	294.6048	-6.519663	1	294.677	-1.26776	2.679958E-005	-0.0006307	9
	20	78	2987.132	296.3263	-8.164772	1	296.4388	-1.578289	2.76882E-005	-0.0005302	9
	21	80	2390.625	298.7452	-9.059462	1	298.8825	-1.736965	2.647105E-005	-0.0008451	9
	22	84	1884.191	298.9021	-10.04025	1	299.0707	-1.923867	2.782289E-005	-0.0006907	9
	23	86	1516.544	302.4828	-12.7534	1	302.7515	-2.414298	1.304547E-005	0.0002635	9
	24	89	1193.986	303.699	-15.51699	1	304.0952	-2.924888	2.171566E-005	-0.0008633	9
	25	91	946.5144	306.7492	-18.10393	1	307.283	-3.377603	-2.319999E-005	0.0005729	9
	26	95	751.7689	308.107	-22.5601	1	308.9318	-4.187819	-1.107171E-005	-4.649592E-005	9
	27	97	597.4265	310.6277	-26.74332	1	311.7768	-4.920715	-2.194034E-005	0.0010315	9
	28	99	477.4305	312.8035	-31.53362	1	314.3889	-5.756522	1.086782E-006	6.479929E-005	9
	29	102	376.6741	315.427	-38.43567	1	317.7601	-6.947402	1.195782E-006	7.04503E-005	9
	30	104	298.2954	318.3131	-46.85688	1	321.7434	-8.374012	1.160368E-006	7.051117E-005	9
	31	106	237.7717	321.577	-56.92579	1	326.5766	-10.03854	1.13792E-006	6.390911E-005	9
	32	109	189.0121	325.3665	-69.42097	1	332.69	-12.04417	1.152531E-006	7.653863E-005	9
	33	111	150.2404	329.8009	-84.74355	1	340.5144	-14.41061	1.161089E-006	7.266807E-005	9
	34	114	119.1737	335.1575	-103.6845	1	350.829	-17.19	1.197743E-006	7.173412E-005	9
	35	116	95.0169	339.9481	-125.583	1	362.4028	-20.27515	-3.364396E-008	0.0006365	8
	36	119	75.60484	347.5213	-153.0545	1	379.7325	-23.76954	-3.466895E-008	0.0006395	8
	37	121	54.50582	360.5483	-202.6741	1	413.6083	-29.34154	-6.767142E-008	0.0006421	8
	38	124	45.95588	369.3511	-234.5276	1	437.5196	-32.4144	-9.479599E-008	0.0006531	8
	39	126	37.20238	381.4789	-280.74	1	473.6465	-36.3503	-3.407075E-008	0.0006466	8
	40	128	30.04808	395.8416	-336.6336	1	519.6274	-40.37867	-5.033203E-008	0.0006486	8
	41	131	23.91582	413.6906	-408.7507	1	581.5643	-44.65586	-1.052249E-007	0.0006502	8
	42	133	18.60119	436.8739	-506.4682	1	668.8564	-49.21931	-1.063101E-007	0.0006528	8
	43	135	15.02404	460.5494	-608.1772	1	762.8796	-52.86474	-9.375903E-008	0.0006484	8
	44	138	12.01923	489.7475	-737.2623	1	885.1036	-56.40477	-8.92279E-008	0.0006675	8
	45	140	9.450605	528.1059	-907.8159	1	1050.25	-59.81205	-8.596869E-008	0.000635	8
	46	143	7.512019	573.8175	-1108.956	1	1248.62	-62.64118	-8.100454E-008	0.0006382	8
	47	145	5.978954	629.7307	-1353.206	1	1492.557	-65.04451	-6.150766E-008	0.0006464	8
	48	148	4.734848	701.8518	-1659.86	1	1802.146	-67.07951	-1.549571E-008	0.0006747	8
	49	152	3.75601	794.5322	-2030.611	1	2180.519	-68.63071	-6.462996E-008	0.0006247	8
	50	155	3.004808	908.4379	-2463.403	1	2625.569	-69.75735	-5.235672E-008	0.0006493	8
	51	159	2.372217	1067.136	-3017.829	1	3200.948	-70.52587	-3.449292E-008	0.0006936	8
	52	163	1.878005	1264.121	-3693.181	1	3903.535	-71.10469	-5.985218E-008	0.0006354	8
	53	168	1.512097	1494.552	-4443.163	1	4687.791	-71.40854	-3.659693E-008	0.0005441	7
	54	173	1.201923	1811.984	-5390.091	1	5686.508	-71.41893	-4.949147E-008	0.0006442	7
	55	179	0.956633	2199.684	-6509.75	1	6871.35	-71.32957	-4.757412E-008	-2.350395E-005	7
