EXPLAIN
TAG	EISPOT
TITLE	LABEL	Potentiostatic EIS	Test Identifier
DATE	LABEL	2/26/2021	Date
TIME	LABEL	14:23:23	Time
NOTES	NOTES	1	Notes...
	
PSTAT	PSTAT	REF3000-16137	Potentiostat
VDC	POTEN	0.00000E+000	T	DC Voltage (V)
FREQINIT	QUANT	3.00000E+005	Initial Freq. (Hz)
FREQFINAL	QUANT	1.00000E+000	Final Freq. (Hz)
PTSPERDEC	QUANT	1.00000E+001	Points/decade
VAC	QUANT	5.00000E+001	AC Voltage (mV rms)
AREA	QUANT	1.00000E+000	Sample Area (cm^2)
SPEED	SELECTOR	2	Optimize for:
ZGUESS	QUANT	1.00000E+003	Estimated Z (ohms)
EOC	QUANT	0	Open Circuit (V)
SEQUENCER	TOGGLE	TRUE	Run as Sequence
PSTATMODEL	IQUANT	5	Pstat Model
PSTATSECTION	LABEL	REF3000-16137	Pstat Section
PSTATSERIALNO	LABEL	16137	Pstat Serial Number
CTRLMODE	IQUANT	1	Control Mode
IESTAB	IQUANT	0	I/E Stability
CASPEED	IQUANT	1	Control Amp Speed
CONVENTION	IQUANT	1	Current Convention
ICHRANGE	IQUANT	2	Ich Range
ICHRANGEMODE	TOGGLE	F	Ich Auto Range
ICHOFFSETENABLE	TOGGLE	T	Ich Offset Enable
ICHOFFSET	QUANT	0	Ich Offset (V)
ICHFILTER	IQUANT	3	Ich Filter
VCHRANGE	IQUANT	2	Vch Range
VCHRANGEMODE	TOGGLE	F	Vch Auto Range
VCHOFFSETENABLE	TOGGLE	T	Vch Offset Enable
VCHOFFSET	QUANT	0	Vch Offset (V)
VCHFILTER	IQUANT	3	Vch Filter
ACHRANGE	IQUANT	2	Ach Range
ACHOFFSETENABLE	TOGGLE	F	Ach Offset Enable
ACHOFFSET	QUANT	0	Ach Offset (V)
ACHFILTER	IQUANT	3	Ach Filter
IERANGELOWERLIMIT	IQUANT	2	I/E Range Lower Limit
IERANGEMODE	TOGGLE	F	I/E AutoRange
IERANGE	IQUANT	11	I/E Range
POSFEEDENABLE	TOGGLE	F	Positive Feedback IR Comp
POSFEEDRESISTANCE	QUANT	0	Positive Feedback Resistance (ohm)
ACHSELECT	IQUANT	0	Ach Select
CABLEID	IQUANT	13	Cable ID
DCCALDATE	LABEL	7/31/2020	DC Calibration Date
ACCALDATE	LABEL	7/31/2020	AC Calibration Date
THERMOSELECT	IQUANT	1	Thermo Select
FRAMEWORKVERSION	QUANT	6.33	Framework Version
INSTRUMENTVERSION	LABEL	3.50	Instrument Version
COMPLIANCEVOLTAGE	IQUANT	0	Compliance Voltage
ZCURVE	TABLE
	Pt	Time	Freq	Zreal	Zimag	Zsig	Zmod	Zphz	Idc	Vdc	IERange
	#	s	Hz	ohm	ohm	V	ohm	°	A	V	#
	0	7	300046.9	79.65117	-6.155424	1	79.88866	-4.419021	4.77634E-005	-0.0008483	9
	1	10	238359.4	80.71493	-8.06505	1	81.11686	-5.706065	6.424086E-005	-0.0023263	9
	2	13	189328.1	81.79788	-10.43734	1	82.46109	-7.271596	-3.008915E-005	-0.0003568	9
	3	16	150421.9	82.96142	-12.95893	1	83.96744	-8.878103	-2.907478E-005	-0.0001869	9
	4	18	119484.4	84.52074	-15.74772	1	85.97527	-10.55421	-6.828844E-005	0.0020299	9
	5	21	94921.88	86.40641	-18.66641	1	88.39967	-12.1903	1.083736E-005	0.000104	9
	6	23	75421.88	88.45276	-22.21851	1	91.20061	-14.10043	2.060266E-005	-0.0006484	9
	7	26	59859.37	90.95025	-26.38155	1	94.69918	-16.17563	2.156364E-005	-0.000298	9
	8	28	47578.12	93.8581	-30.91082	1	98.8171	-18.22856	2.155001E-005	-0.0006153	9
	9	31	37828.12	97.3838	-35.99008	1	103.8214	-20.28278	3.694465E-006	-0.0003653	9
	10	34	30046.88	101.3364	-41.72024	1	109.5885	-22.37698	1.155238E-005	-0.0005598	9
	11	36	23859.38	105.7888	-48.08895	1	116.206	-24.44535	1.153148E-005	-0.0005466	9
	12	38	18984.38	110.6483	-55.17493	1	123.6419	-26.50319	2.272511E-005	-0.0005544	9
	13	41	15046.87	115.8877	-63.48925	1	132.1395	-28.71619	-1.945826E-005	0.0006234	9
	14	43	11953.13	121.1888	-72.704	1	141.3245	-30.96052	-1.759716E-005	0.000785	9
	15	45	9515.62	126.0989	-84.10596	1	151.5742	-33.70265	-2.229436E-005	0.0007785	9
	16	48	7546.875	131.2357	-98.2461	1	163.9363	-36.81938	1.156648E-005	-0.0005808	9
	17	50	5928.309	136.1267	-117.319	1	179.706	-40.75597	2.115187E-005	-0.000245	9
	18	52	4733.456	140.7331	-139.3739	1	198.0679	-44.72197	2.127741E-005	-0.0002564	9
	19	54	3796.875	145.5655	-167.0677	1	221.5873	-48.93448	1.788964E-005	-0.0001383	9
	20	57	2987.132	151.018	-204.0431	1	253.8503	-53.49382	-1.958716E-005	0.0006614	9
	21	59	2390.625	157.3796	-247.3511	1	293.1739	-57.53304	-1.367586E-005	0.0002165	9
	22	61	1884.191	163.9731	-306.6732	1	347.758	-61.86731	2.277077E-005	-0.0005264	9
	23	64	1516.544	171.6962	-373.2838	1	410.8776	-65.29939	-1.778333E-005	0.0007313	9
	24	66	1193.986	181.2113	-462.6617	1	496.8837	-68.61115	-4.373119E-006	0.0013584	8
	25	68	946.5144	194.8648	-573.7579	1	605.9459	-71.24102	-8.099883E-007	-1.10664E-005	8
	26	71	751.7689	207.366	-709.1313	1	738.8287	-73.69989	-4.961511E-006	0.0016835	8
	27	73	597.4265	226.354	-880.8578	1	909.476	-75.58852	8.928832E-007	0.0015577	8
	28	75	477.4305	249.9161	-1083.972	1	1112.408	-77.01698	2.675201E-007	0.00067	8
	29	78	376.6741	280.597	-1352.572	1	1381.371	-78.27999	2.716862E-007	0.0006596	8
	30	80	298.2954	319.0447	-1681.885	1	1711.878	-79.25891	2.878653E-007	0.0006585	8
	31	82	237.7717	366.7379	-2078.518	1	2110.624	-79.99361	2.626064E-007	0.0006682	8
	32	85	189.0121	428.2802	-2574.988	1	2610.362	-80.55682	2.882585E-007	0.0006636	8
	33	87	150.2404	507.1388	-3189.522	1	3229.588	-80.96552	2.849673E-007	0.0006694	8
	34	90	119.1737	609.6989	-3957.459	1	4004.149	-81.24168	2.79999E-007	0.0006664	8
	35	92	95.0169	741.5295	-4893.853	1	4949.713	-81.38393	-2.686688E-008	0.0006374	7
	36	95	75.60484	909.967	-6049.441	1	6117.498	-81.44561	-2.693675E-008	0.0006351	7
	37	97	54.50582	1245.193	-8188.03	1	8282.17	-81.35301	-2.900905E-008	0.0006299	7
	38	100	45.95588	1478.807	-9582.12	1	9695.56	-81.22677	-2.504752E-008	0.0006418	7
	39	102	37.20238	1847.896	-11646.7	1	11792.38	-80.98445	-2.494038E-008	0.0006302	7
	40	104	30.04808	2323.175	-14148.36	1	14337.82	-80.67519	-2.739623E-008	0.0006343	7
	41	107	23.91582	2993.288	-17414.31	1	17669.69	-80.24693	-2.597325E-008	0.0006376	7
	42	109	18.60119	4023.941	-21891.13	1	22257.89	-79.58439	-2.714752E-008	0.0006394	7
	43	111	15.02404	5188.965	-26520.72	1	27023.58	-78.92953	-1.728258E-008	0.0006054	7
	44	114	12.01923	6827.854	-32352.82	1	33065.46	-78.08297	-2.436878E-008	0.0006384	7
	45	116	9.450605	9225.283	-39958.3	1	41009.41	-76.99975	-2.716287E-008	0.0006327	7
	46	119	7.512019	12354.35	-48712.55	1	50254.77	-75.76885	-5.158303E-008	0.0006912	6
	47	121	5.978954	16539.93	-59031.16	1	61304.55	-74.34766	-5.184408E-008	0.0006933	6
	48	125	4.734848	22261.2	-71546.56	1	74929.77	-72.71685	-5.351928E-008	0.0006338	6
	49	128	3.75601	29935.64	-85894.03	1	90961.13	-70.78561	-5.140972E-008	0.0007075	6
	50	134	3.004808	39563.66	-101675.2	1	109101.5	-68.73809	-5.218768E-008	0.0007223	6
	51	140	2.372217	52728.1	-120434.5	1	131471.4	-66.35545	-5.114955E-008	0.0007524	6
	52	144	1.878005	69290.23	-140489.9	1	156647.8	-63.74728	-5.12534E-008	0.0006566	6
	53	149	1.512097	87990.36	-160260.4	1	182826.9	-61.23118	-5.101884E-008	0.0007709	6
	54	154	1.201923	111582.5	-182615.4	1	214007.1	-58.57404	-5.038402E-008	0.0006455	6
	55	161	0.956633	138867.5	-205527.9	1	248044.2	-55.95457	-5.179781E-008	3.669964E-005	6
