EXPLAIN
TAG	EISPOT
TITLE	LABEL	Potentiostatic EIS	Test Identifier
DATE	LABEL	2/26/2021	Date
TIME	LABEL	14:31:53	Time
NOTES	NOTES	1	Notes...
	
PSTAT	PSTAT	REF3000-16137	Potentiostat
VDC	POTEN	0.00000E+000	T	DC Voltage (V)
FREQINIT	QUANT	3.00000E+005	Initial Freq. (Hz)
FREQFINAL	QUANT	1.00000E+000	Final Freq. (Hz)
PTSPERDEC	QUANT	1.00000E+001	Points/decade
VAC	QUANT	5.00000E+001	AC Voltage (mV rms)
AREA	QUANT	1.00000E+000	Sample Area (cm^2)
SPEED	SELECTOR	2	Optimize for:
ZGUESS	QUANT	1.00000E+003	Estimated Z (ohms)
EOC	QUANT	0	Open Circuit (V)
SEQUENCER	TOGGLE	TRUE	Run as Sequence
PSTATMODEL	IQUANT	5	Pstat Model
PSTATSECTION	LABEL	REF3000-16137	Pstat Section
PSTATSERIALNO	LABEL	16137	Pstat Serial Number
CTRLMODE	IQUANT	1	Control Mode
IESTAB	IQUANT	0	I/E Stability
CASPEED	IQUANT	1	Control Amp Speed
CONVENTION	IQUANT	1	Current Convention
ICHRANGE	IQUANT	2	Ich Range
ICHRANGEMODE	TOGGLE	F	Ich Auto Range
ICHOFFSETENABLE	TOGGLE	T	Ich Offset Enable
ICHOFFSET	QUANT	0	Ich Offset (V)
ICHFILTER	IQUANT	3	Ich Filter
VCHRANGE	IQUANT	2	Vch Range
VCHRANGEMODE	TOGGLE	F	Vch Auto Range
VCHOFFSETENABLE	TOGGLE	T	Vch Offset Enable
VCHOFFSET	QUANT	0	Vch Offset (V)
VCHFILTER	IQUANT	3	Vch Filter
ACHRANGE	IQUANT	2	Ach Range
ACHOFFSETENABLE	TOGGLE	F	Ach Offset Enable
ACHOFFSET	QUANT	0	Ach Offset (V)
ACHFILTER	IQUANT	3	Ach Filter
IERANGELOWERLIMIT	IQUANT	2	I/E Range Lower Limit
IERANGEMODE	TOGGLE	F	I/E AutoRange
IERANGE	IQUANT	11	I/E Range
POSFEEDENABLE	TOGGLE	F	Positive Feedback IR Comp
POSFEEDRESISTANCE	QUANT	0	Positive Feedback Resistance (ohm)
ACHSELECT	IQUANT	0	Ach Select
CABLEID	IQUANT	13	Cable ID
DCCALDATE	LABEL	7/31/2020	DC Calibration Date
ACCALDATE	LABEL	7/31/2020	AC Calibration Date
THERMOSELECT	IQUANT	1	Thermo Select
FRAMEWORKVERSION	QUANT	6.33	Framework Version
INSTRUMENTVERSION	LABEL	3.50	Instrument Version
COMPLIANCEVOLTAGE	IQUANT	0	Compliance Voltage
ZCURVE	TABLE
	Pt	Time	Freq	Zreal	Zimag	Zsig	Zmod	Zphz	Idc	Vdc	IERange
	#	s	Hz	ohm	ohm	V	ohm	°	A	V	#
	0	6	300046.9	114.9442	-8.134239	1	115.2317	-4.047892	-8.27843E-005	0.002784	9
	1	10	238359.4	115.9327	-10.52704	1	116.4097	-5.1884	3.198617E-005	0.0002225	9
	2	13	189328.1	117.0736	-13.01144	1	117.7944	-6.34177	-7.494224E-005	0.0019435	9
	3	15	150421.9	118.6334	-15.41234	1	119.6303	-7.402163	8.455831E-007	0.001063	9
	4	18	119484.4	120.476	-18.81315	1	121.936	-8.87545	-7.360208E-005	0.0020797	9
	5	20	94921.88	122.5482	-22.21535	1	124.5456	-10.27491	2.307969E-005	-0.0002349	9
	6	23	75421.88	125.1097	-26.57184	1	127.9003	-11.99078	1.871883E-005	-0.0006688	9
	7	25	59859.37	128.0733	-31.36441	1	131.8579	-13.76058	2.25759E-006	0.0004526	9
	8	28	47578.12	131.4898	-36.75981	1	136.5315	-15.61908	5.785973E-006	-0.0004817	9
	9	30	37828.12	135.8304	-42.89383	1	142.4422	-17.52558	3.975692E-006	-0.0004294	9
	10	33	30046.88	140.4791	-49.82228	1	149.0525	-19.52755	6.4203E-006	-0.0005222	9
	11	35	23859.38	146.0465	-57.91864	1	157.1119	-21.63212	-2.12314E-005	0.0006434	9
	12	38	18984.38	152.3424	-66.75594	1	166.3267	-23.66287	2.374415E-006	0.0004587	9
	13	40	15046.87	159.5488	-76.58505	1	176.9776	-25.64149	1.160789E-005	0.0001734	9
	14	42	11953.13	166.951	-87.93204	1	188.692	-27.77549	-2.299969E-005	0.0007253	9
	15	45	9515.62	174.7011	-100.9529	1	201.772	-30.02193	2.163027E-006	0.0004624	9
	16	47	7546.875	182.7415	-116.5026	1	216.7195	-32.5186	-5.582516E-006	0.0006508	9
	17	49	5928.309	190.1182	-136.0814	1	233.8013	-35.59405	-1.671302E-005	0.0003531	9
	18	52	4733.456	197.5654	-158.8926	1	253.5329	-38.80809	-2.062403E-005	0.0008131	9
	19	54	3796.875	203.6729	-187.3971	1	276.7676	-42.61681	-1.502603E-005	0.0001854	9
	20	56	2987.132	211.8967	-226.6612	1	310.2829	-46.9282	-1.843161E-005	0.0008825	9
	21	58	2390.625	219.392	-272.1761	1	349.5892	-51.12888	-1.941468E-005	0.0006041	9
	22	61	1884.191	226.8349	-335.0417	1	404.6072	-55.90063	1.966391E-005	-9.430919E-005	9
	23	63	1516.544	234.6485	-402.6562	1	466.0385	-59.76845	-6.122356E-006	0.0030385	8
	24	66	1193.986	246.1227	-499.3629	1	556.7223	-63.76254	-4.931717E-006	0.0030962	8
	25	68	946.5144	259.085	-618.8035	1	670.8523	-67.28158	-6.648027E-006	0.0027887	8
	26	71	751.7689	274.0704	-765.0191	1	812.6308	-70.28979	3.479114E-006	-0.0016005	8
	27	73	597.4265	293.1087	-946.9687	1	991.293	-72.80149	6.027933E-006	-2.909756E-005	8
	28	75	477.4305	315.3883	-1165.247	1	1207.174	-74.85506	2.366546E-007	0.0006582	8
	29	78	376.6741	345.1749	-1454.568	1	1494.963	-76.65041	2.363851E-007	0.0006515	8
	30	80	298.2954	382.0239	-1810.161	1	1850.034	-78.08294	2.173066E-007	0.0006667	8
	31	82	237.7717	427.1938	-2239.394	1	2279.777	-79.19984	2.128558E-007	0.0006696	8
	32	85	189.0121	484.9085	-2778.005	1	2820.009	-80.09862	2.355186E-007	0.0006619	8
	33	87	150.2404	558.7344	-3446.772	1	3491.765	-80.79224	2.30421E-007	0.0006609	8
	34	89	119.1737	653.375	-4284.224	1	4333.76	-81.3288	2.396858E-007	0.0006618	8
	35	92	95.0169	775.0327	-5309.523	1	5365.791	-81.69518	-5.394648E-009	0.0006304	7
	36	94	75.60484	929.5539	-6577.217	1	6642.579	-81.9557	-8.668887E-009	0.0006358	7
	37	97	54.50582	1236.726	-8936.305	1	9021.477	-82.12069	-6.226951E-009	0.0005996	7
	38	99	45.95588	1446.455	-10482.95	1	10582.27	-82.14384	-7.604658E-009	0.0006432	7
	39	102	37.20238	1778.345	-12769.63	1	12892.86	-82.07177	-5.699436E-009	0.0006294	7
	40	104	30.04808	2204.771	-15566.54	1	15721.9	-81.93851	-6.398034E-009	0.0006241	7
	41	106	23.91582	2835.894	-19269.57	1	19477.13	-81.62791	-5.611551E-009	0.0006313	7
	42	109	18.60119	3718.83	-24270.55	1	24553.8	-81.28867	-6.592064E-009	0.000645	7
	43	111	15.02404	4773.95	-29556.75	1	29939.81	-80.82494	-7.284162E-009	0.0006437	7
	44	113	12.01923	6262.857	-36239.52	1	36776.7	-80.19508	-3.279583E-009	0.0006302	7
	45	116	9.450605	8442.609	-45056.17	1	45840.33	-79.38701	-2.373935E-008	0.0006802	6
	46	118	7.512019	11300.41	-55347.1	1	56488.94	-78.46033	-2.430814E-008	0.0007041	6
	47	121	5.978954	15170.93	-67737.93	1	69416.02	-77.37607	-2.468103E-008	0.0006987	6
	48	125	4.734848	20680.7	-82964.63	1	85503.34	-76.00306	-2.50874E-008	0.0006733	6
	49	129	3.75601	28056.61	-100987.7	1	104812.7	-74.47354	-2.441734E-008	0.000683	6
	50	134	3.004808	37639.82	-121315.6	1	127020.6	-72.76279	-2.361067E-008	0.0006475	6
	51	141	2.372217	51353.33	-146255	1	155008.7	-70.65272	-2.427241E-008	0.0005999	6
	52	145	1.878005	69070.69	-173847.5	1	187066	-68.33176	-2.324417E-008	0.000686	6
	53	150	1.512097	89827.07	-201928.3	1	221006.6	-66.01828	-2.332983E-008	0.0006539	6
	54	155	1.201923	117879.6	-235054.7	1	262956.9	-63.36629	-2.308548E-008	0.0007091	6
	55	161	0.956633	151593.5	-269436.4	1	309154.6	-60.63651	-2.426719E-008	3.683165E-005	6
