EXPLAIN
TAG	EISPOT
TITLE	LABEL	Potentiostatic EIS	Test Identifier
DATE	LABEL	2/26/2021	Date
TIME	LABEL	15:12:26	Time
NOTES	NOTES	1	Notes...
	
PSTAT	PSTAT	REF3000-16137	Potentiostat
VDC	POTEN	0.00000E+000	T	DC Voltage (V)
FREQINIT	QUANT	3.00000E+005	Initial Freq. (Hz)
FREQFINAL	QUANT	1.00000E+000	Final Freq. (Hz)
PTSPERDEC	QUANT	1.00000E+001	Points/decade
VAC	QUANT	5.00000E+001	AC Voltage (mV rms)
AREA	QUANT	1.00000E+000	Sample Area (cm^2)
SPEED	SELECTOR	2	Optimize for:
ZGUESS	QUANT	1.00000E+003	Estimated Z (ohms)
EOC	QUANT	0	Open Circuit (V)
SEQUENCER	TOGGLE	TRUE	Run as Sequence
PSTATMODEL	IQUANT	5	Pstat Model
PSTATSECTION	LABEL	REF3000-16137	Pstat Section
PSTATSERIALNO	LABEL	16137	Pstat Serial Number
CTRLMODE	IQUANT	1	Control Mode
IESTAB	IQUANT	0	I/E Stability
CASPEED	IQUANT	1	Control Amp Speed
CONVENTION	IQUANT	1	Current Convention
ICHRANGE	IQUANT	2	Ich Range
ICHRANGEMODE	TOGGLE	F	Ich Auto Range
ICHOFFSETENABLE	TOGGLE	T	Ich Offset Enable
ICHOFFSET	QUANT	0	Ich Offset (V)
ICHFILTER	IQUANT	3	Ich Filter
VCHRANGE	IQUANT	2	Vch Range
VCHRANGEMODE	TOGGLE	F	Vch Auto Range
VCHOFFSETENABLE	TOGGLE	T	Vch Offset Enable
VCHOFFSET	QUANT	0	Vch Offset (V)
VCHFILTER	IQUANT	3	Vch Filter
ACHRANGE	IQUANT	2	Ach Range
ACHOFFSETENABLE	TOGGLE	F	Ach Offset Enable
ACHOFFSET	QUANT	0	Ach Offset (V)
ACHFILTER	IQUANT	3	Ach Filter
IERANGELOWERLIMIT	IQUANT	2	I/E Range Lower Limit
IERANGEMODE	TOGGLE	F	I/E AutoRange
IERANGE	IQUANT	11	I/E Range
POSFEEDENABLE	TOGGLE	F	Positive Feedback IR Comp
POSFEEDRESISTANCE	QUANT	0	Positive Feedback Resistance (ohm)
ACHSELECT	IQUANT	0	Ach Select
CABLEID	IQUANT	13	Cable ID
DCCALDATE	LABEL	7/31/2020	DC Calibration Date
ACCALDATE	LABEL	7/31/2020	AC Calibration Date
THERMOSELECT	IQUANT	1	Thermo Select
FRAMEWORKVERSION	QUANT	6.33	Framework Version
INSTRUMENTVERSION	LABEL	3.50	Instrument Version
COMPLIANCEVOLTAGE	IQUANT	0	Compliance Voltage
ZCURVE	TABLE
	Pt	Time	Freq	Zreal	Zimag	Zsig	Zmod	Zphz	Idc	Vdc	IERange
	#	s	Hz	ohm	ohm	V	ohm	°	A	V	#
	0	20	300046.9	2158.515	-1351.693	1	2546.814	-32.05538	-1.358246E-005	0.0016175	9
	1	41	238359.4	2457.606	-1294.236	1	2777.567	-27.77239	2.251914E-005	-0.0015282	9
	2	58	189328.1	2699.502	-1224.377	1	2964.188	-24.39698	4.85278E-005	0.0001218	9
	3	71	150421.9	2898.335	-999.301	1	3065.771	-19.02339	1.792993E-005	-0.0019749	9
	4	79	119484.4	3060.397	-959.686	1	3207.34	-17.4105	-1.976078E-005	0.0012634	9
	5	91	94921.88	3228.903	-748.0091	1	3314.413	-13.04309	2.022509E-005	-0.0086529	8
	6	99	75421.88	3347.374	-645.0744	1	3408.964	-10.90779	-2.19032E-005	0.0050223	8
	7	105	59859.37	3438.395	-574.6202	1	3486.08	-9.487521	1.65223E-005	0.0001493	8
	8	112	47578.12	3527.194	-576.0657	1	3573.927	-9.275723	-1.419881E-006	0.0008033	9
	9	120	37828.12	3610.938	-472.3476	1	3641.701	-7.452558	2.50361E-005	-0.006805	8
	10	127	30046.88	3700.758	-454.6561	1	3728.582	-7.003967	1.469855E-005	-0.0083534	8
	11	135	23859.38	3768.043	-436.0962	1	3793.195	-6.601781	2.192686E-005	-0.0027402	8
	12	140	18984.38	3844.326	-438.7837	1	3869.286	-6.511448	-9.232103E-006	-0.0016387	8
	13	146	15046.87	3914.124	-444.4093	1	3939.272	-6.477618	7.349981E-006	-0.0069532	8
	14	151	11953.13	3986.343	-502.4525	1	4017.884	-7.183876	-2.400874E-005	0.0071212	8
	15	156	9515.62	4069.255	-532.1938	1	4103.909	-7.451086	-1.370494E-006	0.0070255	8
	16	162	7546.875	4208.917	-521.04	1	4241.045	-7.05699	-7.535768E-007	0.017019	7
	17	165	5928.309	4256.622	-623.1676	1	4301.996	-8.32891	-5.171043E-006	0.0073898	7
	18	169	4733.456	4337.389	-743.3507	1	4400.626	-9.72499	-1.044E-005	0.00936	8
	19	174	3796.875	4480.802	-917.0541	1	4573.683	-11.56659	1.438309E-005	-0.0083642	8
	20	179	2987.132	4614.313	-1033.569	1	4728.651	-12.6254	-1.335902E-006	0.0070585	8
	21	185	2390.625	4763.979	-1194.292	1	4911.397	-14.07356	-6.255752E-006	0.0184566	7
	22	187	1884.191	4919.592	-1387.797	1	5111.592	-15.75355	7.175747E-006	-0.0069145	8
	23	193	1516.544	5130.848	-1688.713	1	5401.606	-18.2179	-1.420219E-006	-0.0044763	8
	24	198	1193.986	5358.262	-1904.409	1	5686.628	-19.566	-5.070144E-006	0.0227636	7
	25	202	946.5144	5607.563	-2235.392	1	6036.7	-21.73414	-1.969471E-006	-0.0076587	7
	26	205	751.7689	5870.061	-2532.504	1	6393.058	-23.33668	-2.324666E-006	0.0205361	7
	27	208	597.4265	6216.376	-2928.976	1	6871.844	-25.22845	6.300269E-006	-0.0130642	7
	28	210	477.4305	6498.268	-3332.772	1	7303.072	-27.15196	-4.870538E-008	0.0006015	7
	29	213	376.6741	6853.521	-3823.026	1	7847.692	-29.15362	-5.358836E-008	0.0005965	7
	30	215	298.2954	7211.156	-4387.036	1	8440.785	-31.31499	-5.290079E-008	0.0005915	7
	31	217	237.7717	7557.903	-5041.511	1	9085.083	-33.70533	-5.862652E-008	0.0006685	7
	32	220	189.0121	7897.746	-5855.393	1	9831.58	-36.55326	-5.033402E-008	0.0005855	7
	33	222	150.2404	8226.567	-6877.371	1	10722.62	-39.89546	-5.105077E-008	0.000586	7
	34	224	119.1737	8558.786	-8178.671	1	11838.22	-43.69901	-5.282327E-008	0.0006022	7
	35	227	95.0169	8883.126	-9791.17	1	13220.33	-47.78384	-4.968963E-008	0.0006223	7
	36	229	75.60484	9234.942	-11840.69	1	15016.19	-52.04816	-5.643533E-008	0.000674	7
	37	232	54.50582	9768.91	-15710.66	1	18500.18	-58.12659	-5.874245E-008	0.0006416	7
	38	234	45.95588	10123.29	-18301.82	1	20915.01	-61.0517	-4.925069E-008	0.0005914	7
	39	237	37.20238	10594.77	-22139.02	1	24543.54	-64.42625	-5.561539E-008	0.0006697	7
	40	239	30.04808	11159.11	-26913.72	1	29135.45	-67.47986	-5.029024E-008	0.0006088	7
	41	241	23.91582	11849.07	-33210.27	1	35260.78	-70.36414	-5.292073E-008	0.0006561	7
	42	244	18.60119	12822.97	-41958.12	1	43873.82	-73.00613	-5.76019E-008	0.0006768	7
	43	246	15.02404	13818.08	-51177.47	1	53010.13	-74.89025	-5.830145E-009	0.0006373	6
	44	248	12.01923	15067.14	-63045.49	1	64820.93	-76.55908	-6.234643E-009	0.0006558	6
	45	251	9.450605	16751.47	-79041.46	1	80797.05	-78.0342	-6.275504E-009	0.0007233	6
	46	253	7.512019	18643.28	-97961.1	1	99719.3	-79.22472	-6.082784E-009	0.0006373	6
	47	256	5.978954	21108.3	-121381	1	123202.7	-80.13485	-6.490198E-009	0.000716	6
	48	261	4.734848	24162.77	-151239.4	1	153157.4	-80.92285	-5.760377E-009	0.0006477	6
	49	264	3.75601	27987.49	-188147.6	1	190217.8	-81.53913	-5.698323E-009	0.0006325	6
	50	270	3.004808	32624.53	-232289.9	1	234569.8	-82.00525	-6.520383E-009	0.0007343	6
	51	276	2.372217	38698.44	-290416.9	1	292983.9	-82.40997	-6.397422E-009	0.000743	6
	52	280	1.878005	46757.43	-362299.2	1	365303.9	-82.64619	-6.272916E-009	0.000653	6
	53	285	1.512097	56787.16	-444481.2	1	448094.1	-82.7193	-6.454821E-010	0.0007297	5
	54	290	1.201923	68707.82	-553335.4	1	557584.9	-82.9218	-7.89689E-010	0.0006266	5
	55	296	0.956633	84822.95	-686776.2	1	691994.6	-82.95912	-8.543574E-010	1.929812E-005	5
