EXPLAIN
TAG	EISPOT
TITLE	LABEL	Potentiostatic EIS	Test Identifier
DATE	LABEL	2/26/2021	Date
TIME	LABEL	14:29:02	Time
NOTES	NOTES	1	Notes...
	
PSTAT	PSTAT	REF3000-16137	Potentiostat
VDC	POTEN	0.00000E+000	T	DC Voltage (V)
FREQINIT	QUANT	3.00000E+005	Initial Freq. (Hz)
FREQFINAL	QUANT	1.00000E+000	Final Freq. (Hz)
PTSPERDEC	QUANT	1.00000E+001	Points/decade
VAC	QUANT	5.00000E+001	AC Voltage (mV rms)
AREA	QUANT	1.00000E+000	Sample Area (cm^2)
SPEED	SELECTOR	2	Optimize for:
ZGUESS	QUANT	1.00000E+003	Estimated Z (ohms)
EOC	QUANT	0	Open Circuit (V)
SEQUENCER	TOGGLE	TRUE	Run as Sequence
PSTATMODEL	IQUANT	5	Pstat Model
PSTATSECTION	LABEL	REF3000-16137	Pstat Section
PSTATSERIALNO	LABEL	16137	Pstat Serial Number
CTRLMODE	IQUANT	1	Control Mode
IESTAB	IQUANT	0	I/E Stability
CASPEED	IQUANT	1	Control Amp Speed
CONVENTION	IQUANT	1	Current Convention
ICHRANGE	IQUANT	2	Ich Range
ICHRANGEMODE	TOGGLE	F	Ich Auto Range
ICHOFFSETENABLE	TOGGLE	T	Ich Offset Enable
ICHOFFSET	QUANT	0	Ich Offset (V)
ICHFILTER	IQUANT	3	Ich Filter
VCHRANGE	IQUANT	2	Vch Range
VCHRANGEMODE	TOGGLE	F	Vch Auto Range
VCHOFFSETENABLE	TOGGLE	T	Vch Offset Enable
VCHOFFSET	QUANT	0	Vch Offset (V)
VCHFILTER	IQUANT	3	Vch Filter
ACHRANGE	IQUANT	2	Ach Range
ACHOFFSETENABLE	TOGGLE	F	Ach Offset Enable
ACHOFFSET	QUANT	0	Ach Offset (V)
ACHFILTER	IQUANT	3	Ach Filter
IERANGELOWERLIMIT	IQUANT	2	I/E Range Lower Limit
IERANGEMODE	TOGGLE	F	I/E AutoRange
IERANGE	IQUANT	11	I/E Range
POSFEEDENABLE	TOGGLE	F	Positive Feedback IR Comp
POSFEEDRESISTANCE	QUANT	0	Positive Feedback Resistance (ohm)
ACHSELECT	IQUANT	0	Ach Select
CABLEID	IQUANT	13	Cable ID
DCCALDATE	LABEL	7/31/2020	DC Calibration Date
ACCALDATE	LABEL	7/31/2020	AC Calibration Date
THERMOSELECT	IQUANT	1	Thermo Select
FRAMEWORKVERSION	QUANT	6.33	Framework Version
INSTRUMENTVERSION	LABEL	3.50	Instrument Version
COMPLIANCEVOLTAGE	IQUANT	0	Compliance Voltage
ZCURVE	TABLE
	Pt	Time	Freq	Zreal	Zimag	Zsig	Zmod	Zphz	Idc	Vdc	IERange
	#	s	Hz	ohm	ohm	V	ohm	°	A	V	#
	0	6	300046.9	100.8577	-7.517535	1	101.1375	-4.262718	2.392571E-005	-0.0008178	9
	1	10	238359.4	101.9569	-9.53056	1	102.4014	-5.340281	6.96417E-005	-0.0024681	9
	2	13	189328.1	103.0631	-11.89605	1	103.7473	-6.584229	7.958478E-006	-0.0008357	9
	3	15	150421.9	104.5674	-14.73557	1	105.6006	-8.021263	1.151937E-005	-0.0007849	9
	4	18	119484.4	106.1637	-17.61716	1	107.6155	-9.421996	-1.171161E-005	0.0009052	9
	5	20	94921.88	108.2688	-20.89782	1	110.2672	-10.92477	1.854869E-005	-0.0001492	9
	6	23	75421.88	110.4087	-24.95515	1	113.1939	-12.73628	4.265629E-006	0.0004251	9
	7	25	59859.37	113.3374	-29.55225	1	117.1268	-14.61424	2.471428E-005	-0.0007321	9
	8	28	47578.12	116.7025	-34.56466	1	121.7135	-16.49811	4.529047E-006	-0.0004473	9
	9	30	37828.12	120.5298	-40.32589	1	127.0969	-18.49879	1.084416E-005	0.0001826	9
	10	33	30046.88	125.0581	-46.93834	1	133.5767	-20.57273	2.39595E-005	-0.0004675	9
	11	35	23859.38	130.3109	-54.15042	1	141.1142	-22.56522	-9.314556E-006	0.0007211	9
	12	38	18984.38	136.0735	-62.32089	1	149.6659	-24.60752	3.323089E-006	0.0005105	9
	13	40	15046.87	142.3769	-71.96114	1	159.5293	-26.81327	2.247755E-005	-0.000675	9
	14	42	11953.13	149.1023	-82.21142	1	170.2652	-28.87128	-1.688269E-005	0.0008721	9
	15	45	9515.62	155.8819	-94.46049	1	182.2689	-31.2148	2.004836E-006	0.0004663	9
	16	47	7546.875	162.4233	-109.4736	1	195.8719	-33.98004	3.375117E-006	0.0004978	9
	17	49	5928.309	169.1589	-128.8942	1	212.6698	-37.30635	1.890971E-005	-0.0000953	9
	18	51	4733.456	175.2673	-151.4672	1	231.6483	-40.83381	1.932374E-005	-0.0001138	9
	19	54	3796.875	180.8672	-179.7498	1	254.9959	-44.82248	-1.422095E-005	0.0001676	9
	20	56	2987.132	187.3964	-217.8631	1	287.3704	-49.29931	-1.264164E-005	0.0008498	9
	21	58	2390.625	193.9936	-263.564	1	327.2606	-53.64546	-1.281452E-005	0.0008305	9
	22	61	1884.191	201.4466	-323.9851	1	381.5063	-58.12759	-5.167919E-006	0.0007099	9
	23	63	1516.544	209.4404	-391.4652	1	443.971	-61.85247	7.320041E-006	-0.0012073	8
	24	65	1193.986	219.4607	-486.5293	1	533.7357	-65.7211	5.519007E-006	2.183175E-005	8
	25	68	946.5144	231.7618	-601.3335	1	644.4498	-68.92268	5.437752E-006	-1.474637E-005	8
	26	70	751.7689	248.3619	-743.7198	1	784.0936	-71.53349	6.836127E-006	-0.0015148	8
	27	73	597.4265	265.8545	-923.7053	1	961.202	-73.94349	-6.056457E-006	0.0026342	8
	28	75	477.4305	288.6523	-1136.956	1	1173.026	-75.75463	2.612792E-007	0.0006592	8
	29	77	376.6741	318.5149	-1419.267	1	1454.569	-77.35114	2.686656E-007	0.0006567	8
	30	80	298.2954	355.7793	-1766.139	1	1801.618	-78.6105	2.665909E-007	0.0006567	8
	31	82	237.7717	401.2945	-2184.612	1	2221.163	-79.59129	2.687216E-007	0.0006519	8
	32	84	189.0121	460.1488	-2709.021	1	2747.823	-80.35986	2.515817E-007	0.0006656	8
	33	87	150.2404	535.2189	-3359.711	1	3402.075	-80.94855	2.717295E-007	0.000657	8
	34	89	119.1737	632.5573	-4173.764	1	4221.425	-81.38209	2.532863E-007	0.0006727	8
	35	91	95.0169	757.1062	-5169.785	1	5224.929	-81.66836	-1.171066E-008	0.0006452	7
	36	94	75.60484	915.9849	-6401.186	1	6466.391	-81.85648	-1.152915E-008	0.0006316	7
	37	97	54.50582	1233.103	-8687.894	1	8774.967	-81.92177	-1.055134E-008	0.0006324	7
	38	99	45.95588	1450.281	-10183.48	1	10286.23	-81.89472	-1.052822E-008	0.0006414	7
	39	101	37.20238	1794.35	-12389.8	1	12519.06	-81.75945	-8.859717E-009	0.0006322	7
	40	104	30.04808	2241.367	-15106.03	1	15271.41	-81.56028	-1.004923E-008	0.0006308	7
	41	106	23.91582	2878.509	-18646.25	1	18867.13	-81.22426	-9.711718E-009	0.0006297	7
	42	109	18.60119	3815.36	-23468.32	1	23776.44	-80.76594	-8.529643E-009	0.0006251	7
	43	111	15.02404	4917.573	-28546.46	1	28966.93	-80.22584	-1.088376E-008	0.0006363	7
	44	113	12.01923	6469.31	-34947.63	1	35541.37	-79.51244	-1.019872E-008	0.0006392	7
	45	116	9.450605	8722.137	-43371.29	1	44239.63	-78.62926	-3.148581E-008	0.0006777	6
	46	118	7.512019	11701.13	-53124.27	1	54397.65	-77.5784	-3.133537E-008	0.0007054	6
	47	121	5.978954	15711.21	-64832.42	1	66708.95	-76.3778	-3.171403E-008	0.0006863	6
	48	125	4.734848	21332.8	-79081.41	1	81908.23	-74.90338	-3.308944E-008	0.0006647	6
	49	128	3.75601	28879.33	-95830.1	1	100087.1	-73.22932	-3.136068E-008	0.0007038	6
	50	133	3.004808	38516.55	-114549.6	1	120851.8	-71.41513	-3.164632E-008	0.0006897	6
	51	140	2.372217	52121.11	-137125.3	1	146696.9	-69.18829	-3.108126E-008	0.0006599	6
	52	144	1.878005	69742.02	-162614.3	1	176938.9	-66.78648	-2.994695E-008	0.0006441	6
	53	149	1.512097	90053.75	-188214.8	1	208649.2	-64.43062	-3.07856E-008	0.0007787	6
	54	154	1.201923	116930.4	-217246	1	246715.5	-61.7091	-3.006918E-008	0.0006712	6
	55	160	0.956633	148688.7	-247555	1	288776.4	-59.00975	-3.18324E-008	4.097819E-005	6
