EXPLAIN
TAG	EISPOT
TITLE	LABEL	Potentiostatic EIS	Test Identifier
DATE	LABEL	2/26/2021	Date
TIME	LABEL	13:52:11	Time
NOTES	NOTES	1	Notes...
	
PSTAT	PSTAT	REF3000-16137	Potentiostat
VDC	POTEN	0.00000E+000	T	DC Voltage (V)
FREQINIT	QUANT	3.00000E+005	Initial Freq. (Hz)
FREQFINAL	QUANT	1.00000E+000	Final Freq. (Hz)
PTSPERDEC	QUANT	1.00000E+001	Points/decade
VAC	QUANT	5.00000E+001	AC Voltage (mV rms)
AREA	QUANT	1.00000E+000	Sample Area (cm^2)
SPEED	SELECTOR	2	Optimize for:
ZGUESS	QUANT	1.00000E+003	Estimated Z (ohms)
EOC	QUANT	0	Open Circuit (V)
SEQUENCER	TOGGLE	TRUE	Run as Sequence
PSTATMODEL	IQUANT	5	Pstat Model
PSTATSECTION	LABEL	REF3000-16137	Pstat Section
PSTATSERIALNO	LABEL	16137	Pstat Serial Number
CTRLMODE	IQUANT	1	Control Mode
IESTAB	IQUANT	0	I/E Stability
CASPEED	IQUANT	1	Control Amp Speed
CONVENTION	IQUANT	1	Current Convention
ICHRANGE	IQUANT	2	Ich Range
ICHRANGEMODE	TOGGLE	F	Ich Auto Range
ICHOFFSETENABLE	TOGGLE	T	Ich Offset Enable
ICHOFFSET	QUANT	0	Ich Offset (V)
ICHFILTER	IQUANT	3	Ich Filter
VCHRANGE	IQUANT	2	Vch Range
VCHRANGEMODE	TOGGLE	F	Vch Auto Range
VCHOFFSETENABLE	TOGGLE	T	Vch Offset Enable
VCHOFFSET	QUANT	0	Vch Offset (V)
VCHFILTER	IQUANT	3	Vch Filter
ACHRANGE	IQUANT	2	Ach Range
ACHOFFSETENABLE	TOGGLE	F	Ach Offset Enable
ACHOFFSET	QUANT	0	Ach Offset (V)
ACHFILTER	IQUANT	3	Ach Filter
IERANGELOWERLIMIT	IQUANT	2	I/E Range Lower Limit
IERANGEMODE	TOGGLE	F	I/E AutoRange
IERANGE	IQUANT	11	I/E Range
POSFEEDENABLE	TOGGLE	F	Positive Feedback IR Comp
POSFEEDRESISTANCE	QUANT	0	Positive Feedback Resistance (ohm)
ACHSELECT	IQUANT	0	Ach Select
CABLEID	IQUANT	13	Cable ID
DCCALDATE	LABEL	7/31/2020	DC Calibration Date
ACCALDATE	LABEL	7/31/2020	AC Calibration Date
THERMOSELECT	IQUANT	1	Thermo Select
FRAMEWORKVERSION	QUANT	6.33	Framework Version
INSTRUMENTVERSION	LABEL	3.50	Instrument Version
COMPLIANCEVOLTAGE	IQUANT	0	Compliance Voltage
ZCURVE	TABLE
	Pt	Time	Freq	Zreal	Zimag	Zsig	Zmod	Zphz	Idc	Vdc	IERange
	#	s	Hz	ohm	ohm	V	ohm	°	A	V	#
	0	7	300046.9	32.15016	-4.127417	1	32.41401	-7.31558	-2.32907E-005	-6.643663E-005	11
	1	11	238359.4	32.89028	-5.060483	1	33.2773	-8.746911	-2.972723E-005	0.0003627	10
	2	14	189328.1	33.57615	-6.543623	1	34.20785	-11.02808	-8.880065E-005	0.000718	10
	3	17	150421.9	34.39132	-8.153551	1	35.34464	-13.33753	-2.832094E-005	0.00059	10
	4	19	119484.4	35.41721	-9.57661	1	36.6891	-15.13063	-1.095262E-005	-0.0002859	9
	5	22	94921.88	36.65654	-11.35631	1	38.37535	-17.21315	-1.73716E-006	-0.0001071	9
	6	24	75421.88	37.95475	-13.54947	1	40.30076	-19.64606	-1.204614E-005	0.0004641	9
	7	27	59859.37	39.43259	-15.87068	1	42.50656	-21.92361	-1.18424E-005	0.0002557	9
	8	29	47578.12	41.10373	-18.51535	1	45.08142	-24.24938	-7.288977E-006	0.0004807	9
	9	32	37828.12	42.85587	-21.40977	1	47.9062	-26.54561	-1.191293E-005	0.0005728	9
	10	35	30046.88	44.73913	-24.80921	1	51.15747	-29.0097	1.656231E-005	-0.0002397	9
	11	37	23859.38	46.62294	-28.76727	1	54.7837	-31.6754	-1.068124E-006	-7.555533E-005	9
	12	39	18984.38	48.50534	-33.62891	1	59.02264	-34.7337	-2.116706E-006	0.0003729	9
	13	42	15046.87	50.44427	-39.59019	1	64.12494	-38.1259	-5.587359E-006	0.0005364	9
	14	44	11953.13	52.35656	-47.10806	1	70.42995	-41.97945	4.892569E-006	0.0002623	9
	15	46	9515.62	54.44366	-56.5313	1	78.48504	-46.07771	-1.399769E-005	0.0005725	9
	16	49	7546.875	56.8782	-68.15119	1	88.76775	-50.15202	-1.157273E-005	0.0002881	9
	17	51	5928.309	59.65902	-83.72523	1	102.8062	-54.52795	-1.210128E-005	0.0005368	9
	18	53	4733.456	62.88775	-101.7904	1	119.6502	-58.29156	-1.351298E-006	0.0003963	9
	19	55	3796.875	66.52669	-123.5421	1	140.3155	-61.6978	2.094048E-006	-0.0001899	9
	20	58	2987.132	71.68193	-152.5475	1	168.5498	-64.83121	3.892965E-006	0.0002377	9
	21	60	2390.625	77.38491	-186.1164	1	201.5632	-67.42306	-3.693294E-006	-2.531413E-005	9
	22	62	1884.191	85.61745	-229.7456	1	245.1803	-69.56149	1.723251E-005	-0.0003138	9
	23	65	1516.544	94.24895	-279.0503	1	294.5368	-71.33765	9.973724E-006	4.598177E-005	9
	24	67	1193.986	106.2827	-345.0158	1	361.0151	-72.87847	1.792318E-005	-0.0003239	9
	25	70	946.5144	122.7976	-423.6062	1	441.0459	-73.83385	-9.908792E-007	0.0004354	9
	26	73	751.7689	140.2032	-519.1103	1	537.7104	-74.88596	2.320925E-006	0.00037	8
	27	75	597.4265	164.1365	-636.8682	1	657.6791	-75.54798	3.254201E-006	-0.0001639	8
	28	77	477.4305	192.9665	-776.1868	1	799.8138	-76.03883	2.052322E-007	0.0006659	8
	29	80	376.6741	231.5113	-957.156	1	984.757	-76.40278	2.044427E-007	0.000665	8
	30	82	298.2954	279.6296	-1175.975	1	1208.764	-76.62431	2.22541E-007	0.0006655	8
	31	84	237.7717	338.9931	-1435.459	1	1474.944	-76.71267	2.148654E-007	0.000664	8
	32	87	189.0121	415.5157	-1755.554	1	1804.057	-76.68391	2.026898E-007	0.0006618	8
	33	89	150.2404	512.9095	-2144.904	1	2205.377	-76.55145	2.141268E-007	0.0006625	8
	34	92	119.1737	639.7667	-2623.194	1	2700.083	-76.2938	2.148562E-007	0.0006645	8
	35	94	95.0169	799.2419	-3190.072	1	3288.669	-75.93462	2.320464E-007	0.0006623	8
	36	96	75.60484	1006.705	-3880.785	1	4009.233	-75.45758	2.217943E-007	0.000662	8
	37	99	54.50582	1417.665	-5128.76	1	5321.086	-74.54842	-2.613995E-007	0.0006172	7
	38	102	45.95588	1697.607	-5919.465	1	6158.079	-73.99796	-2.561805E-007	0.0006503	7
	39	104	37.20238	2135.418	-7050.758	1	7367.035	-73.15034	-2.547392E-007	0.0006398	7
	40	106	30.04808	2689.108	-8382.452	1	8803.227	-72.21365	-2.611388E-007	0.0006433	7
	41	109	23.91582	3460.284	-10064.21	1	10642.45	-71.02596	-2.662682E-007	0.0006428	7
	42	111	18.60119	4543.896	-12233.08	1	13049.72	-69.62283	-2.624571E-007	0.0006479	7
	43	113	15.02404	5756.81	-14368.91	1	15479.22	-68.16681	-2.556183E-007	0.000634	7
	44	116	12.01923	7333.092	-16884.92	1	18408.55	-66.52478	-2.586548E-007	0.0006382	7
	45	118	9.450605	9481.761	-19926.01	1	22066.93	-64.55263	-2.503121E-007	0.0006428	7
	46	123	7.512019	12085.01	-23237.68	1	26192.31	-62.52282	-2.590448E-007	0.0006422	7
	47	125	5.978954	15145.29	-26754.97	1	30744.24	-60.48692	-2.546606E-007	0.0006424	7
	48	128	4.734848	18952.09	-30558.2	1	35958.11	-58.19295	-2.553462E-007	0.0006181	7
	49	131	3.75601	23393.12	-34527.17	1	41705.68	-55.88127	-2.440057E-007	0.000658	7
	50	135	3.004808	28324.87	-38476.5	1	47778.02	-53.64098	-3.024084E-007	0.0007402	6
	51	141	2.372217	34221.44	-42849.32	1	54837.68	-51.38753	-2.994856E-007	0.0007421	6
	52	145	1.878005	40799.7	-47161.68	1	62360.56	-49.13683	-3.007605E-007	0.0006899	6
	53	150	1.512097	47482.5	-51336.31	1	69928.57	-47.23334	-2.999806E-007	0.0008138	6
	54	161	1.201923	55390.33	-56151.58	1	78873.88	-45.39103	-2.979746E-007	0.0006839	6
	55	174	0.956633	64082.62	-61145.73	1	88574.16	-43.65653	-3.027764E-007	7.350586E-005	6
