EXPLAIN
TAG	EISPOT
TITLE	LABEL	Potentiostatic EIS	Test Identifier
DATE	LABEL	2/26/2021	Date
TIME	LABEL	15:43:18	Time
NOTES	NOTES	1	Notes...
	
PSTAT	PSTAT	REF3000-16137	Potentiostat
VDC	POTEN	0.00000E+000	T	DC Voltage (V)
FREQINIT	QUANT	3.00000E+005	Initial Freq. (Hz)
FREQFINAL	QUANT	1.00000E+000	Final Freq. (Hz)
PTSPERDEC	QUANT	1.00000E+001	Points/decade
VAC	QUANT	5.00000E+001	AC Voltage (mV rms)
AREA	QUANT	1.00000E+000	Sample Area (cm^2)
SPEED	SELECTOR	2	Optimize for:
ZGUESS	QUANT	1.00000E+003	Estimated Z (ohms)
EOC	QUANT	0	Open Circuit (V)
SEQUENCER	TOGGLE	TRUE	Run as Sequence
PSTATMODEL	IQUANT	5	Pstat Model
PSTATSECTION	LABEL	REF3000-16137	Pstat Section
PSTATSERIALNO	LABEL	16137	Pstat Serial Number
CTRLMODE	IQUANT	1	Control Mode
IESTAB	IQUANT	0	I/E Stability
CASPEED	IQUANT	1	Control Amp Speed
CONVENTION	IQUANT	1	Current Convention
ICHRANGE	IQUANT	2	Ich Range
ICHRANGEMODE	TOGGLE	F	Ich Auto Range
ICHOFFSETENABLE	TOGGLE	T	Ich Offset Enable
ICHOFFSET	QUANT	0	Ich Offset (V)
ICHFILTER	IQUANT	3	Ich Filter
VCHRANGE	IQUANT	2	Vch Range
VCHRANGEMODE	TOGGLE	F	Vch Auto Range
VCHOFFSETENABLE	TOGGLE	T	Vch Offset Enable
VCHOFFSET	QUANT	0	Vch Offset (V)
VCHFILTER	IQUANT	3	Vch Filter
ACHRANGE	IQUANT	2	Ach Range
ACHOFFSETENABLE	TOGGLE	F	Ach Offset Enable
ACHOFFSET	QUANT	0	Ach Offset (V)
ACHFILTER	IQUANT	3	Ach Filter
IERANGELOWERLIMIT	IQUANT	2	I/E Range Lower Limit
IERANGEMODE	TOGGLE	F	I/E AutoRange
IERANGE	IQUANT	11	I/E Range
POSFEEDENABLE	TOGGLE	F	Positive Feedback IR Comp
POSFEEDRESISTANCE	QUANT	0	Positive Feedback Resistance (ohm)
ACHSELECT	IQUANT	0	Ach Select
CABLEID	IQUANT	13	Cable ID
DCCALDATE	LABEL	7/31/2020	DC Calibration Date
ACCALDATE	LABEL	7/31/2020	AC Calibration Date
THERMOSELECT	IQUANT	1	Thermo Select
FRAMEWORKVERSION	QUANT	6.33	Framework Version
INSTRUMENTVERSION	LABEL	3.50	Instrument Version
COMPLIANCEVOLTAGE	IQUANT	0	Compliance Voltage
ZCURVE	TABLE
	Pt	Time	Freq	Zreal	Zimag	Zsig	Zmod	Zphz	Idc	Vdc	IERange
	#	s	Hz	ohm	ohm	V	ohm	°	A	V	#
	0	14	300046.9	-69.82009	-4778.448	1	4778.958	-90.83711	-2.047115E-005	0.0015187	9
	1	28	238359.4	-15.42901	-5946.316	1	5946.336	-90.14867	-6.09027E-005	0.0003965	9
	2	43	189328.1	-189.5699	-6926.943	1	6929.536	-91.56763	2.005817E-007	-0.0018835	9
	3	53	150421.9	173.843	-8295.801	1	8297.622	-88.79951	-2.775074E-005	-0.0009714	9
	4	60	119484.4	629.5438	-11518.08	1	11535.28	-86.8715	-9.31711E-005	0.0332121	8
	5	68	94921.88	582.3282	-14586.06	1	14597.68	-87.71376	-9.375382E-006	-0.0020828	8
	6	76	75421.88	1154.041	-17604.83	1	17642.61	-86.24948	-2.585519E-005	0.0074919	8
	7	85	59859.37	780.4012	-22982.31	1	22995.56	-88.05518	-2.027534E-005	0.0028365	8
	8	92	47578.12	4457.879	-29859.16	1	30190.1	-81.50864	-7.263051E-006	0.0236416	7
	9	100	37828.12	4776.017	-37532.84	1	37835.5	-82.74815	6.840874E-006	-0.0268277	7
	10	107	30046.88	1547.739	-44536.77	1	44563.65	-88.00966	-9.111482E-007	-0.0051071	8
	11	116	23859.38	5744.973	-56851.6	1	57141.13	-84.22973	3.575807E-006	-0.0246102	7
	12	121	18984.38	5350.783	-71192.84	1	71393.64	-85.70179	6.709618E-006	-0.0102763	7
	13	127	15046.87	7305.223	-89512.06	1	89809.66	-85.33434	7.744576E-006	-0.0245239	7
	14	133	11953.13	7620.898	-112651.3	1	112908.8	-86.12981	5.441162E-006	-0.0268592	7
	15	139	9515.62	12962.55	-141000.6	1	141595.2	-84.74741	-3.301194E-006	-0.0052443	7
	16	145	7546.875	16355.02	-178671.3	1	179418.3	-84.7699	-5.308929E-006	0.0036221	7
	17	151	5928.309	25490.53	-231183.4	1	232584.5	-83.70792	5.007988E-007	0.0161904	7
	18	157	4733.456	58499.96	-296447.2	1	302164.2	-78.83686	-2.805764E-007	-0.0072141	6
	19	161	3796.875	76739.95	-357194.9	1	365345.3	-77.87486	-6.900793E-007	0.0264956	6
	20	166	2987.132	92494.11	-449584.5	1	459000.4	-78.37461	7.752026E-007	-0.0229645	6
	21	172	2390.625	189285.7	-670034.3	1	696257.9	-74.22494	6.934963E-006	-0.0270799	7
	22	178	1884.191	-111526.1	-876620.9	1	883686.8	-97.2504	-1.771417E-006	0.0219708	7
	23	184	1516.544	246387.1	-866452.6	1	900803.4	-74.12621	1.85238E-007	-0.0211527	6
	24	191	1193.986	293221	-1044613	1	1084986	-74.32067	7.328766E-007	-0.0159374	6
	25	198	946.5144	502861.4	-1122691	1	1230165	-65.87205	-6.251769E-007	0.009515	6
	26	202	751.7689	677362.9	-1362767	1	1521826	-63.57034	-2.907919E-007	-0.0071717	6
	27	206	597.4265	1144551	-1356169	1	1774596	-49.83701	-6.956951E-010	0.0169218	6
	28	211	477.4305	1594510	-1945390	1	2515354	-50.66074	-5.931702E-010	0.0006264	5
	29	214	376.6741	1719148	-2215273	1	2804087	-52.18698	-6.69018E-009	0.0006177	6
	30	217	298.2954	2233549	-2358068	1	3247957	-46.55341	-7.368399E-009	0.0007096	6
	31	221	237.7717	2948975	-2237981	1	3702028	-37.19491	-8.423258E-010	0.0006655	5
	32	225	189.0121	3453274	-2196700	1	4092749	-32.46129	-7.398386E-010	0.0006094	5
	33	229	150.2404	3937749	-2103719	1	4464471	-28.11309	-7.968523E-010	0.000655	5
	34	233	119.1737	4452009	-2213829	1	4972064	-26.43956	-7.03735E-010	0.0006485	5
	35	237	95.0169	4731746	-1769223	1	5051690	-20.50101	-6.811224E-010	0.0007089	5
	36	241	75.60484	5172386	-1556561	1	5401524	-16.74847	-6.723794E-010	0.0006943	5
	37	245	54.50582	5432039	-1348716	1	5596971	-13.94395	-8.166879E-010	0.0006879	5
	38	249	45.95588	5949692	-451895.3	1	5966829	-4.343431	-1.75341E-010	0.000702	4
	39	252	37.20238	6168858	-694530.6	1	6207833	-6.423686	-1.799236E-010	0.000656	4
	40	254	30.04808	6167436	-517817.4	1	6189136	-4.799293	-1.137921E-010	0.0007168	4
	41	257	23.91582	6227127	-606861.7	1	6256628	-5.566156	-1.416379E-010	0.000674	4
	42	260	18.60119	6206706	-468904.4	1	6224393	-4.320377	-2.795828E-011	0.0006884	4
	43	262	15.02404	6502822	-601911.3	1	6530619	-5.288317	-9.20219E-011	0.0006225	4
	44	265	12.01923	6561858	-662888.3	1	6595256	-5.768532	-1.542939E-010	0.0006407	4
	45	267	9.450605	6745343	-796015.3	1	6792149	-6.730325	-1.269002E-010	0.0006201	4
	46	270	7.512019	6887651	-925831.8	1	6949597	-7.655757	1.286581E-011	0.0006292	4
	47	273	5.978954	7063916	-1050636	1	7141620	-8.459746	-7.919287E-011	0.0006337	4
	48	278	4.734848	7293612	-1216831	1	7394420	-9.471717	-5.046267E-012	0.0006423	4
	49	281	3.75601	7565497	-1429964	1	7699450	-10.70328	-2.165411E-011	0.0006488	4
	50	287	3.004808	7901140	-1654667	1	8072542	-11.82802	-1.910058E-011	0.0006751	4
	51	293	2.372217	8219184	-1957150	1	8448990	-13.39383	-3.09475E-011	0.0005707	4
	52	297	1.878005	8567038	-2300716	1	8870594	-15.03235	1.11072E-011	0.0006583	4
	53	302	1.512097	8948628	-2659137	1	9335360	-16.54962	3.864216E-012	0.000669	4
	54	307	1.201923	9394938	-3103343	1	9.89422E+006	-18.27946	-2.357868E-011	0.0006559	4
	55	314	0.956633	9.940588E+006	-3605325	1	1.05742E+007	-19.93506	-1.930291E-010	1.564499E-005	4
