EXPLAIN
TAG	EISPOT
TITLE	LABEL	Potentiostatic EIS	Test Identifier
DATE	LABEL	2/26/2021	Date
TIME	LABEL	14:59:45	Time
NOTES	NOTES	1	Notes...
	
PSTAT	PSTAT	REF3000-16137	Potentiostat
VDC	POTEN	0.00000E+000	T	DC Voltage (V)
FREQINIT	QUANT	3.00000E+005	Initial Freq. (Hz)
FREQFINAL	QUANT	1.00000E+000	Final Freq. (Hz)
PTSPERDEC	QUANT	1.00000E+001	Points/decade
VAC	QUANT	5.00000E+001	AC Voltage (mV rms)
AREA	QUANT	1.00000E+000	Sample Area (cm^2)
SPEED	SELECTOR	2	Optimize for:
ZGUESS	QUANT	1.00000E+003	Estimated Z (ohms)
EOC	QUANT	0	Open Circuit (V)
SEQUENCER	TOGGLE	TRUE	Run as Sequence
PSTATMODEL	IQUANT	5	Pstat Model
PSTATSECTION	LABEL	REF3000-16137	Pstat Section
PSTATSERIALNO	LABEL	16137	Pstat Serial Number
CTRLMODE	IQUANT	1	Control Mode
IESTAB	IQUANT	0	I/E Stability
CASPEED	IQUANT	1	Control Amp Speed
CONVENTION	IQUANT	1	Current Convention
ICHRANGE	IQUANT	2	Ich Range
ICHRANGEMODE	TOGGLE	F	Ich Auto Range
ICHOFFSETENABLE	TOGGLE	T	Ich Offset Enable
ICHOFFSET	QUANT	0	Ich Offset (V)
ICHFILTER	IQUANT	3	Ich Filter
VCHRANGE	IQUANT	2	Vch Range
VCHRANGEMODE	TOGGLE	F	Vch Auto Range
VCHOFFSETENABLE	TOGGLE	T	Vch Offset Enable
VCHOFFSET	QUANT	0	Vch Offset (V)
VCHFILTER	IQUANT	3	Vch Filter
ACHRANGE	IQUANT	2	Ach Range
ACHOFFSETENABLE	TOGGLE	F	Ach Offset Enable
ACHOFFSET	QUANT	0	Ach Offset (V)
ACHFILTER	IQUANT	3	Ach Filter
IERANGELOWERLIMIT	IQUANT	2	I/E Range Lower Limit
IERANGEMODE	TOGGLE	F	I/E AutoRange
IERANGE	IQUANT	11	I/E Range
POSFEEDENABLE	TOGGLE	F	Positive Feedback IR Comp
POSFEEDRESISTANCE	QUANT	0	Positive Feedback Resistance (ohm)
ACHSELECT	IQUANT	0	Ach Select
CABLEID	IQUANT	13	Cable ID
DCCALDATE	LABEL	7/31/2020	DC Calibration Date
ACCALDATE	LABEL	7/31/2020	AC Calibration Date
THERMOSELECT	IQUANT	1	Thermo Select
FRAMEWORKVERSION	QUANT	6.33	Framework Version
INSTRUMENTVERSION	LABEL	3.50	Instrument Version
COMPLIANCEVOLTAGE	IQUANT	0	Compliance Voltage
ZCURVE	TABLE
	Pt	Time	Freq	Zreal	Zimag	Zsig	Zmod	Zphz	Idc	Vdc	IERange
	#	s	Hz	ohm	ohm	V	ohm	°	A	V	#
	0	15	300046.9	729.9827	-119.8862	1	739.7617	-9.326517	2.227892E-005	-0.0006043	9
	1	36	238359.4	757.6085	-110.6541	1	765.6468	-8.309696	7.581349E-005	-0.0016338	9
	2	55	189328.1	778.1193	-105.9893	1	785.3047	-7.756646	-8.769335E-005	0.0040823	9
	3	64	150421.9	790.046	-90.60167	1	795.2241	-6.542043	-8.756764E-005	0.0022218	9
	4	71	119484.4	806.5391	-63.49446	1	809.0345	-4.501303	9.409047E-006	-0.0051768	8
	5	76	94921.88	813.9156	-63.63609	1	816.3995	-4.470583	1.509176E-005	-0.0065868	8
	6	78	75421.88	820.144	-71.19292	1	823.2282	-4.961146	1.807432E-005	-0.0063606	8
	7	82	59859.37	827.9757	-78.39012	1	831.6783	-5.408462	1.975153E-005	-0.0040894	8
	8	84	47578.12	837.4424	-88.26385	1	842.081	-6.016586	1.807555E-005	-0.0062606	8
	9	87	37828.12	850.4198	-101.8597	1	856.4982	-6.830111	-6.419799E-006	0.0070305	8
	10	90	30046.88	861.5186	-116.3278	1	869.3368	-7.689937	-2.396255E-006	-0.0028531	8
	11	92	23859.38	873.3917	-135.7377	1	883.8765	-8.833921	1.026492E-005	-0.0061097	8
	12	95	18984.38	891.8146	-157.7317	1	905.6558	-10.02995	-1.647098E-005	0.0078656	8
	13	97	15046.87	912.036	-184.0694	1	930.4253	-11.41031	-6.988135E-006	0.0071047	8
	14	100	11953.13	931.0403	-214.7057	1	955.476	-12.98587	-1.600569E-005	0.0077898	8
	15	103	9515.62	957.304	-252.1614	1	989.958	-14.75695	-2.008268E-006	-0.0029536	8
	16	106	7546.875	984.891	-291.6143	1	1027.156	-16.49339	1.411609E-005	-0.0002554	8
	17	108	5928.309	1024.839	-342.3038	1	1080.494	-18.4697	-6.846237E-006	0.0070603	8
	18	112	4733.456	1064.45	-394.6095	1	1135.241	-20.34058	-1.288907E-005	0.0014376	8
	19	115	3796.875	1110.106	-454.8565	1	1199.679	-22.28095	1.426932E-005	-0.0002743	8
	20	119	2987.132	1166.443	-525.3936	1	1279.307	-24.24793	7.514378E-006	0.0026068	8
	21	122	2390.625	1225.613	-597.9489	1	1363.697	-26.00671	-1.298876E-005	0.0080726	8
	22	125	1884.191	1291.802	-689.3445	1	1464.223	-28.08573	1.842487E-005	-0.0063718	8
	23	129	1516.544	1355.441	-784.7287	1	1566.211	-30.06858	4.56925E-006	-0.0049714	8
	24	134	1193.986	1425.41	-909.6912	1	1690.956	-32.54586	1.984937E-005	-0.0054553	8
	25	138	946.5144	1490.293	-1048.364	1	1822.098	-35.12493	1.430908E-005	-0.0003083	8
	26	141	751.7689	1551.255	-1235.622	1	1983.218	-38.5384	1.067745E-005	-0.0061871	8
	27	143	597.4265	1632.871	-1475.779	1	2200.953	-42.1071	-8.876012E-006	-0.0005771	8
	28	146	477.4305	1670.867	-1741.747	1	2413.603	-46.18987	-5.510269E-008	0.0006463	8
	29	148	376.6741	1734.776	-2115.845	1	2736.101	-50.65176	-5.856153E-008	0.0006393	8
	30	151	298.2954	1802.406	-2581.995	1	3148.868	-55.08237	-9.94922E-008	0.0006593	8
	31	153	237.7717	1876.331	-3151.594	1	3667.855	-59.23215	-9.34208E-008	0.0006691	8
	32	155	189.0121	1968.422	-3879.05	1	4349.909	-63.09451	-2.896789E-008	0.0006134	7
	33	158	150.2404	2069.67	-4781.312	1	5210.037	-66.59383	-2.569574E-008	0.000624	7
	34	160	119.1737	2191.029	-5919.144	1	6311.646	-69.68748	-3.126311E-008	0.0006568	7
	35	162	95.0169	2334.176	-7301.905	1	7665.912	-72.27265	-3.09246E-008	0.0006557	7
	36	165	75.60484	2510.792	-9036.776	1	9379.094	-74.4725	-3.058998E-008	0.0006558	7
	37	168	54.50582	2828.009	-12269.47	1	12591.17	-77.02048	-3.348467E-008	0.0006584	7
	38	170	45.95588	3043.442	-14409.35	1	14727.25	-78.07367	-2.902883E-008	0.0006162	7
	39	172	37.20238	3353.125	-17574.94	1	17891.95	-79.19834	-3.091915E-008	0.0006571	7
	40	175	30.04808	3746.418	-21494.02	1	21818.07	-80.11265	-2.888262E-008	0.0006419	7
	41	177	23.91582	4261.976	-26646.02	1	26984.71	-80.91264	-3.308915E-008	0.0006318	7
	42	180	18.60119	4963.538	-33766.36	1	34129.22	-81.6376	-2.633356E-008	0.0006068	7
	43	182	15.02404	5749.029	-41302.31	1	41700.51	-82.07569	-3.119623E-008	0.0006608	7
	44	184	12.01923	6763.327	-50983.62	1	51430.26	-82.44344	-3.498096E-009	0.0006674	6
	45	187	9.450605	8127.111	-63957.62	1	64471.91	-82.75822	-4.299717E-009	0.000695	6
	46	189	7.512019	9883.78	-79479.59	1	80091.79	-82.91131	-3.937179E-009	0.0006956	6
	47	192	5.978954	12092.58	-98578.4	1	99317.3	-83.00648	-3.852693E-009	0.0006461	6
	48	196	4.734848	15123.8	-122949	1	123875.7	-82.98735	-3.79268E-009	0.0006624	6
	49	200	3.75601	19104.16	-152975.1	1	154163.4	-82.88152	-3.734063E-009	0.0006359	6
	50	205	3.004808	24204.51	-188701.6	1	190247.6	-82.69066	-4.443235E-009	0.000727	6
	51	212	2.372217	31822.3	-235739.5	1	237877.7	-82.31216	-4.203244E-009	0.0007366	6
	52	216	1.878005	41533.48	-293823.5	1	296744.4	-81.95425	-4.576289E-009	0.0006537	6
	53	220	1.512097	53631.77	-358970	1	362954.3	-81.5026	-4.208156E-009	0.0006176	6
	54	226	1.201923	72774.79	-445365.5	1	451272.2	-80.71962	-1.354818E-009	0.0006425	5
	55	232	0.956633	98156.8	-549218.6	1	557921	-79.86703	-1.389451E-009	1.019683E-005	5
