EXPLAIN
TAG	EISPOT
TITLE	LABEL	Potentiostatic EIS	Test Identifier
DATE	LABEL	2/26/2021	Date
TIME	LABEL	14:00:56	Time
NOTES	NOTES	1	Notes...
	
PSTAT	PSTAT	REF3000-16137	Potentiostat
VDC	POTEN	0.00000E+000	T	DC Voltage (V)
FREQINIT	QUANT	3.00000E+005	Initial Freq. (Hz)
FREQFINAL	QUANT	1.00000E+000	Final Freq. (Hz)
PTSPERDEC	QUANT	1.00000E+001	Points/decade
VAC	QUANT	5.00000E+001	AC Voltage (mV rms)
AREA	QUANT	1.00000E+000	Sample Area (cm^2)
SPEED	SELECTOR	2	Optimize for:
ZGUESS	QUANT	1.00000E+003	Estimated Z (ohms)
EOC	QUANT	0	Open Circuit (V)
SEQUENCER	TOGGLE	TRUE	Run as Sequence
PSTATMODEL	IQUANT	5	Pstat Model
PSTATSECTION	LABEL	REF3000-16137	Pstat Section
PSTATSERIALNO	LABEL	16137	Pstat Serial Number
CTRLMODE	IQUANT	1	Control Mode
IESTAB	IQUANT	0	I/E Stability
CASPEED	IQUANT	1	Control Amp Speed
CONVENTION	IQUANT	1	Current Convention
ICHRANGE	IQUANT	2	Ich Range
ICHRANGEMODE	TOGGLE	F	Ich Auto Range
ICHOFFSETENABLE	TOGGLE	T	Ich Offset Enable
ICHOFFSET	QUANT	0	Ich Offset (V)
ICHFILTER	IQUANT	3	Ich Filter
VCHRANGE	IQUANT	2	Vch Range
VCHRANGEMODE	TOGGLE	F	Vch Auto Range
VCHOFFSETENABLE	TOGGLE	T	Vch Offset Enable
VCHOFFSET	QUANT	0	Vch Offset (V)
VCHFILTER	IQUANT	3	Vch Filter
ACHRANGE	IQUANT	2	Ach Range
ACHOFFSETENABLE	TOGGLE	F	Ach Offset Enable
ACHOFFSET	QUANT	0	Ach Offset (V)
ACHFILTER	IQUANT	3	Ach Filter
IERANGELOWERLIMIT	IQUANT	2	I/E Range Lower Limit
IERANGEMODE	TOGGLE	F	I/E AutoRange
IERANGE	IQUANT	11	I/E Range
POSFEEDENABLE	TOGGLE	F	Positive Feedback IR Comp
POSFEEDRESISTANCE	QUANT	0	Positive Feedback Resistance (ohm)
ACHSELECT	IQUANT	0	Ach Select
CABLEID	IQUANT	13	Cable ID
DCCALDATE	LABEL	7/31/2020	DC Calibration Date
ACCALDATE	LABEL	7/31/2020	AC Calibration Date
THERMOSELECT	IQUANT	1	Thermo Select
FRAMEWORKVERSION	QUANT	6.33	Framework Version
INSTRUMENTVERSION	LABEL	3.50	Instrument Version
COMPLIANCEVOLTAGE	IQUANT	0	Compliance Voltage
ZCURVE	TABLE
	Pt	Time	Freq	Zreal	Zimag	Zsig	Zmod	Zphz	Idc	Vdc	IERange
	#	s	Hz	ohm	ohm	V	ohm	°	A	V	#
	0	6	300046.9	39.34023	-3.491106	1	39.49482	-5.071222	3.11232E-006	-4.715417E-006	9
	1	10	238359.4	40.0911	-5.211571	1	40.42842	-7.40653	4.8242E-005	-0.0018613	9
	2	13	189328.1	40.81082	-6.887524	1	41.38794	-9.57938	-1.688733E-006	-0.0009799	9
	3	15	150421.9	41.75282	-8.804335	1	42.671	-11.9074	5.016712E-005	-0.0017336	9
	4	18	119484.4	42.85656	-10.80225	1	44.19699	-14.14706	3.637423E-005	-0.0005797	9
	5	20	94921.88	44.17546	-12.77673	1	45.98605	-16.13128	-1.18352E-005	0.0003053	9
	6	23	75421.88	45.63222	-15.19724	1	48.09631	-18.41969	-2.804182E-006	-0.0001043	9
	7	25	59859.37	47.31208	-17.92937	1	50.59541	-20.75469	7.937179E-006	-0.0003804	9
	8	28	47578.12	49.25706	-20.92058	1	53.51568	-23.01202	9.816566E-006	2.108767E-005	9
	9	30	37828.12	51.35347	-24.24245	1	56.78798	-25.27061	1.732438E-005	-0.0001579	9
	10	33	30046.88	53.62536	-28.00957	1	60.49971	-27.57894	2.601746E-006	-0.0002373	9
	11	35	23859.38	56.00031	-32.36552	1	64.68046	-30.02588	9.694602E-006	5.048946E-005	9
	12	38	18984.38	58.28848	-37.52305	1	69.3219	-32.7713	9.926147E-006	-0.0004508	9
	13	40	15046.87	60.67343	-43.92145	1	74.90233	-35.90075	2.469018E-006	0.0003007	9
	14	42	11953.13	62.93671	-51.77732	1	81.49798	-39.44375	-1.599464E-005	0.0005919	9
	15	45	9515.62	65.32391	-61.58973	1	89.78033	-43.31467	-7.28519E-006	0.0001072	9
	16	47	7546.875	67.73077	-74.36828	1	100.5888	-47.67437	9.755691E-006	5.041905E-005	9
	17	49	5928.309	70.70758	-90.84379	1	115.118	-52.10486	-1.260436E-005	0.0002673	9
	18	52	4733.456	73.81472	-110.3898	1	132.7951	-56.23041	-1.161156E-005	0.0006251	9
	19	54	3796.875	77.42461	-133.6138	1	154.4254	-59.90918	-1.443469E-005	0.0006693	9
	20	56	2987.132	82.20871	-165.5363	1	184.8257	-63.59007	2.780321E-006	-0.0002349	9
	21	58	2390.625	87.26586	-202.5229	1	220.524	-66.68909	-9.120431E-006	0.0001294	9
	22	61	1884.191	94.5173	-250.7321	1	267.9555	-69.3453	1.263772E-005	-0.000434	9
	23	63	1516.544	103.406	-305.7621	1	322.7744	-71.31493	1.857976E-005	-0.0002465	9
	24	65	1193.986	114.6809	-379.6611	1	396.6034	-73.19247	-1.49169E-005	0.0005423	9
	25	68	946.5144	128.2043	-466.8535	1	484.1369	-74.64433	-2.962329E-006	0.0015211	8
	26	70	751.7689	145.6973	-575.2108	1	593.376	-75.78628	2.843062E-006	0.0002862	8
	27	72	597.4265	168.1313	-708.5433	1	728.2182	-76.65109	-2.171996E-006	0.0016552	8
	28	75	477.4305	195.2781	-867.747	1	889.4484	-77.31741	2.70739E-007	0.000659	8
	29	77	376.6741	231.5395	-1074.911	1	1099.565	-77.84402	2.647079E-007	0.0006648	8
	30	79	298.2954	276.8765	-1326.56	1	1355.147	-78.21061	2.71313E-007	0.0006646	8
	31	82	237.7717	332.5735	-1626.725	1	1660.374	-78.44547	2.677961E-007	0.0006601	8
	32	84	189.0121	404.1607	-1998.99	1	2039.438	-78.56989	2.777615E-007	0.0006605	8
	33	87	150.2404	495.4124	-2455.231	1	2504.714	-78.59213	2.6411E-007	0.0006632	8
	34	89	119.1737	613.5064	-3020.584	1	3082.258	-78.51891	2.756185E-007	0.000666	8
	35	91	95.0169	762.386	-3695.672	1	3773.49	-78.34387	2.734359E-007	0.0006603	8
	36	94	75.60484	958.392	-4535.752	1	4635.899	-78.06905	-1.717756E-007	0.0006066	7
	37	96	54.50582	1341.663	-6049.656	1	6196.645	-77.49561	-1.730019E-007	0.0006314	7
	38	99	45.95588	1609.25	-7026.442	1	7208.369	-77.10016	-1.660075E-007	0.0006372	7
	39	101	37.20238	2027.911	-8446.015	1	8686.057	-76.4987	-1.704401E-007	0.0006463	7
	40	104	30.04808	2562.451	-10138.67	1	10457.48	-75.81608	-1.692564E-007	0.0006377	7
	41	106	23.91582	3329.464	-12330.88	1	12772.47	-74.88988	-1.712505E-007	0.0006317	7
	42	108	18.60119	4440.727	-15204.03	1	15839.27	-73.7182	-1.645393E-007	0.0006352	7
	43	111	15.02404	5698.592	-18094.8	1	18970.92	-72.51923	-1.626929E-007	0.0006308	7
	44	113	12.01923	7401.966	-21622.42	1	22854.28	-71.10248	-1.717909E-007	0.0006317	7
	45	115	9.450605	9801.78	-25996.23	1	27782.71	-69.34123	-1.656478E-007	0.0006272	7
	46	118	7.512019	12799.33	-30858.23	1	33407.38	-67.47238	-1.680672E-007	0.0006312	7
	47	121	5.978954	16519.1	-36188.76	1	39780.73	-65.4647	-1.65801E-007	0.0006408	7
	48	124	4.734848	21312.22	-42208.54	1	47283.95	-63.20957	-2.13984E-007	0.0006769	6
	49	127	3.75601	27127.77	-48676.4	1	55725.29	-60.86871	-2.066676E-007	0.0007241	6
	50	130	3.004808	33840.93	-55255.17	1	64794.62	-58.51469	-2.091433E-007	0.0007128	6
	51	135	2.372217	42117.64	-62499.62	1	75366.42	-56.02451	-2.075902E-007	0.0006885	6
	52	140	1.878005	51656.59	-69932.73	1	86942.45	-53.54816	-2.06823E-007	0.0006861	6
	53	144	1.512097	61421.85	-77034.35	1	98523.8	-51.43357	-2.074238E-007	0.0007977	6
	54	150	1.201923	72969.45	-84858.88	1	111917.7	-49.30803	-2.058122E-007	0.0006813	6
	55	156	0.956633	85640.23	-92945.52	1	126384.8	-47.34246	-2.104353E-007	5.890665E-005	6
