EXPLAIN
TAG	EISPOT
TITLE	LABEL	Potentiostatic EIS	Test Identifier
DATE	LABEL	2/26/2021	Date
TIME	LABEL	14:12:07	Time
NOTES	NOTES	1	Notes...
	
PSTAT	PSTAT	REF3000-16137	Potentiostat
VDC	POTEN	0.00000E+000	T	DC Voltage (V)
FREQINIT	QUANT	3.00000E+005	Initial Freq. (Hz)
FREQFINAL	QUANT	1.00000E+000	Final Freq. (Hz)
PTSPERDEC	QUANT	1.00000E+001	Points/decade
VAC	QUANT	5.00000E+001	AC Voltage (mV rms)
AREA	QUANT	1.00000E+000	Sample Area (cm^2)
SPEED	SELECTOR	2	Optimize for:
ZGUESS	QUANT	1.00000E+003	Estimated Z (ohms)
EOC	QUANT	0	Open Circuit (V)
SEQUENCER	TOGGLE	TRUE	Run as Sequence
PSTATMODEL	IQUANT	5	Pstat Model
PSTATSECTION	LABEL	REF3000-16137	Pstat Section
PSTATSERIALNO	LABEL	16137	Pstat Serial Number
CTRLMODE	IQUANT	1	Control Mode
IESTAB	IQUANT	0	I/E Stability
CASPEED	IQUANT	1	Control Amp Speed
CONVENTION	IQUANT	1	Current Convention
ICHRANGE	IQUANT	2	Ich Range
ICHRANGEMODE	TOGGLE	F	Ich Auto Range
ICHOFFSETENABLE	TOGGLE	T	Ich Offset Enable
ICHOFFSET	QUANT	0	Ich Offset (V)
ICHFILTER	IQUANT	3	Ich Filter
VCHRANGE	IQUANT	2	Vch Range
VCHRANGEMODE	TOGGLE	F	Vch Auto Range
VCHOFFSETENABLE	TOGGLE	T	Vch Offset Enable
VCHOFFSET	QUANT	0	Vch Offset (V)
VCHFILTER	IQUANT	3	Vch Filter
ACHRANGE	IQUANT	2	Ach Range
ACHOFFSETENABLE	TOGGLE	F	Ach Offset Enable
ACHOFFSET	QUANT	0	Ach Offset (V)
ACHFILTER	IQUANT	3	Ach Filter
IERANGELOWERLIMIT	IQUANT	2	I/E Range Lower Limit
IERANGEMODE	TOGGLE	F	I/E AutoRange
IERANGE	IQUANT	11	I/E Range
POSFEEDENABLE	TOGGLE	F	Positive Feedback IR Comp
POSFEEDRESISTANCE	QUANT	0	Positive Feedback Resistance (ohm)
ACHSELECT	IQUANT	0	Ach Select
CABLEID	IQUANT	13	Cable ID
DCCALDATE	LABEL	7/31/2020	DC Calibration Date
ACCALDATE	LABEL	7/31/2020	AC Calibration Date
THERMOSELECT	IQUANT	1	Thermo Select
FRAMEWORKVERSION	QUANT	6.33	Framework Version
INSTRUMENTVERSION	LABEL	3.50	Instrument Version
COMPLIANCEVOLTAGE	IQUANT	0	Compliance Voltage
ZCURVE	TABLE
	Pt	Time	Freq	Zreal	Zimag	Zsig	Zmod	Zphz	Idc	Vdc	IERange
	#	s	Hz	ohm	ohm	V	ohm	°	A	V	#
	0	7	300046.9	53.75642	-4.366179	1	53.93344	-4.643458	-6.040297E-005	0.0019285	9
	1	10	238359.4	54.49459	-6.350605	1	54.86338	-6.647063	4.262959E-006	0.0002906	9
	2	13	189328.1	55.41298	-8.341519	1	56.0373	-8.560668	-5.740808E-005	0.002162	9
	3	16	150421.9	56.40955	-10.38506	1	57.35753	-10.43141	8.130509E-006	-0.0010317	9
	4	19	119484.4	57.76136	-12.75139	1	59.15212	-12.44894	-4.595509E-005	0.0010477	9
	5	21	94921.88	59.29303	-15.20371	1	61.21125	-14.38173	-9.120428E-006	3.189208E-005	9
	6	24	75421.88	61.02129	-18.10354	1	63.6501	-16.52435	1.4734E-005	-0.0005905	9
	7	26	59859.37	63.04571	-21.40228	1	66.57941	-18.75093	-3.322702E-006	-0.0001737	9
	8	29	47578.12	65.38985	-25.06192	1	70.02808	-20.97029	2.108914E-005	-0.0003829	9
	9	31	37828.12	68.09418	-29.09241	1	74.04853	-23.134	2.139127E-005	-0.000393	9
	10	34	30046.88	71.1344	-33.51428	1	78.63403	-25.22701	-9.499227E-006	0.0001123	9
	11	36	23859.38	74.37051	-38.68	1	83.82789	-27.47888	1.857185E-005	-0.0005164	9
	12	38	18984.38	77.68765	-44.43483	1	89.49763	-29.76817	-1.282115E-005	0.0007202	9
	13	41	15046.87	81.07286	-51.44138	1	96.0157	-32.39545	9.662807E-006	-0.0004685	9
	14	43	11953.13	84.33908	-60.01804	1	103.5145	-35.43671	9.967547E-006	-0.0004712	9
	15	45	9515.62	87.46239	-70.61584	1	112.4111	-38.9169	-1.358178E-005	0.0006619	9
	16	48	7546.875	90.72343	-83.88629	1	123.5623	-42.75763	1.795799E-005	-0.0005444	9
	17	50	5928.309	94.03921	-101.723	1	138.5314	-47.24775	1.769762E-005	-0.0001534	9
	18	52	4733.456	97.4531	-122.5297	1	156.5587	-51.50326	-1.358265E-005	0.0007062	9
	19	55	3796.875	101.55	-147.9721	1	179.4663	-55.53906	9.573361E-006	-0.0004639	9
	20	57	2987.132	105.9352	-183.1041	1	211.5405	-59.94839	2.036498E-005	-0.0004733	9
	21	59	2390.625	111.7657	-222.764	1	249.2295	-63.35605	-9.269795E-006	0.000103	9
	22	61	1884.191	118.3594	-277.3841	1	301.5806	-66.89211	-1.551916E-005	0.0006692	9
	23	64	1516.544	125.1621	-338.5038	1	360.9021	-69.70808	-2.653712E-006	0.0005372	9
	24	66	1193.986	135.5995	-419.3018	1	440.6827	-72.07913	-3.673266E-006	0.0016298	8
	25	69	946.5144	149.1197	-519.5107	1	540.4888	-73.98447	-2.924435E-006	0.0011544	8
	26	71	751.7689	164.2581	-643.3876	1	664.0244	-75.6782	4.589571E-006	-0.0002771	8
	27	73	597.4265	183.9059	-794.0899	1	815.1074	-76.96056	-2.715421E-006	0.0019905	8
	28	75	477.4305	209.4184	-977.665	1	999.843	-77.9098	3.027769E-007	0.0006622	8
	29	78	376.6741	242.9819	-1216.593	1	1240.62	-78.70531	2.911293E-007	0.0006663	8
	30	80	298.2954	285.1325	-1508.353	1	1535.066	-79.29537	3.389203E-007	0.0006315	8
	31	82	237.7717	337.3213	-1857.795	1	1888.171	-79.70888	3.044618E-007	0.0006661	8
	32	85	189.0121	404.6335	-2293.573	1	2328.993	-79.9948	3.07837E-007	0.000675	8
	33	87	150.2404	490.4133	-2829.92	1	2872.099	-80.16853	3.238514E-007	0.0006586	8
	34	90	119.1737	601.6887	-3498.456	1	3549.82	-80.24135	3.26675E-007	0.0006649	8
	35	92	95.0169	744.0069	-4308.933	1	4372.693	-80.20355	-8.27299E-008	0.0006364	7
	36	95	75.60484	926.7003	-5304.946	1	5385.278	-80.09121	-8.506004E-008	0.0006375	7
	37	97	54.50582	1286.526	-7134.327	1	7249.398	-79.77776	-8.605516E-008	0.0006463	7
	38	100	45.95588	1537.795	-8321.513	1	8462.41	-79.53	-7.709094E-008	0.0006426	7
	39	102	37.20238	1927.036	-10059.62	1	10242.53	-79.15571	-8.316042E-008	0.0006488	7
	40	104	30.04808	2448.432	-12194.41	1	12437.79	-78.64693	-8.454222E-008	0.000643	7
	41	107	23.91582	3158.072	-14915.86	1	15246.52	-78.04556	-8.20941E-008	0.0006381	7
	42	109	18.60119	4252.327	-18599.93	1	19079.82	-77.12231	-7.659467E-008	0.000642	7
	43	111	15.02404	5478.469	-22399.85	1	23060.07	-76.25661	-8.05792E-008	0.0006381	7
	44	114	12.01923	7203.652	-27107.55	1	28048.38	-75.11798	-8.490355E-008	0.0006484	7
	45	116	9.450605	9677.7	-33123.43	1	34508.25	-73.71317	-8.042885E-008	0.0006628	7
	46	119	7.512019	12841.87	-39903.75	1	41919.25	-72.16074	-8.144595E-008	0.0006453	7
	47	121	5.978954	17018.78	-47728.51	1	50671.98	-70.37505	-1.184639E-007	0.0007006	6
	48	124	4.734848	22560.43	-56897.18	1	61206.72	-68.37107	-1.194137E-007	0.0006712	6
	49	128	3.75601	29684.96	-67039.43	1	73317.68	-66.11631	-1.153976E-007	0.000717	6
	50	133	3.004808	38257.23	-77777.4	1	86677.21	-63.8083	-1.156812E-007	0.0007	6
	51	139	2.372217	49437.17	-89924.61	1	102618.1	-61.19966	-1.14651E-007	0.0006707	6
	52	144	1.878005	62808.67	-102741.8	1	120419.3	-58.56149	-1.134622E-007	0.0006813	6
	53	148	1.512097	76981.59	-114943	1	138340.4	-56.18832	-1.138832E-007	0.0007883	6
	54	154	1.201923	94192.79	-128243.3	1	159118.3	-53.70327	-1.126468E-007	0.0006952	6
	55	160	0.956633	113185.9	-141916.6	1	181525.1	-51.42582	-1.153608E-007	5.977084E-005	6
