EXPLAIN
TAG	EISPOT
TITLE	LABEL	Potentiostatic EIS	Test Identifier
DATE	LABEL	2/26/2021	Date
TIME	LABEL	13:55:15	Time
NOTES	NOTES	1	Notes...
	
PSTAT	PSTAT	REF3000-16137	Potentiostat
VDC	POTEN	0.00000E+000	T	DC Voltage (V)
FREQINIT	QUANT	3.00000E+005	Initial Freq. (Hz)
FREQFINAL	QUANT	1.00000E+000	Final Freq. (Hz)
PTSPERDEC	QUANT	1.00000E+001	Points/decade
VAC	QUANT	5.00000E+001	AC Voltage (mV rms)
AREA	QUANT	1.00000E+000	Sample Area (cm^2)
SPEED	SELECTOR	2	Optimize for:
ZGUESS	QUANT	1.00000E+003	Estimated Z (ohms)
EOC	QUANT	0	Open Circuit (V)
SEQUENCER	TOGGLE	TRUE	Run as Sequence
PSTATMODEL	IQUANT	5	Pstat Model
PSTATSECTION	LABEL	REF3000-16137	Pstat Section
PSTATSERIALNO	LABEL	16137	Pstat Serial Number
CTRLMODE	IQUANT	1	Control Mode
IESTAB	IQUANT	0	I/E Stability
CASPEED	IQUANT	1	Control Amp Speed
CONVENTION	IQUANT	1	Current Convention
ICHRANGE	IQUANT	2	Ich Range
ICHRANGEMODE	TOGGLE	F	Ich Auto Range
ICHOFFSETENABLE	TOGGLE	T	Ich Offset Enable
ICHOFFSET	QUANT	0	Ich Offset (V)
ICHFILTER	IQUANT	3	Ich Filter
VCHRANGE	IQUANT	2	Vch Range
VCHRANGEMODE	TOGGLE	F	Vch Auto Range
VCHOFFSETENABLE	TOGGLE	T	Vch Offset Enable
VCHOFFSET	QUANT	0	Vch Offset (V)
VCHFILTER	IQUANT	3	Vch Filter
ACHRANGE	IQUANT	2	Ach Range
ACHOFFSETENABLE	TOGGLE	F	Ach Offset Enable
ACHOFFSET	QUANT	0	Ach Offset (V)
ACHFILTER	IQUANT	3	Ach Filter
IERANGELOWERLIMIT	IQUANT	2	I/E Range Lower Limit
IERANGEMODE	TOGGLE	F	I/E AutoRange
IERANGE	IQUANT	11	I/E Range
POSFEEDENABLE	TOGGLE	F	Positive Feedback IR Comp
POSFEEDRESISTANCE	QUANT	0	Positive Feedback Resistance (ohm)
ACHSELECT	IQUANT	0	Ach Select
CABLEID	IQUANT	13	Cable ID
DCCALDATE	LABEL	7/31/2020	DC Calibration Date
ACCALDATE	LABEL	7/31/2020	AC Calibration Date
THERMOSELECT	IQUANT	1	Thermo Select
FRAMEWORKVERSION	QUANT	6.33	Framework Version
INSTRUMENTVERSION	LABEL	3.50	Instrument Version
COMPLIANCEVOLTAGE	IQUANT	0	Compliance Voltage
ZCURVE	TABLE
	Pt	Time	Freq	Zreal	Zimag	Zsig	Zmod	Zphz	Idc	Vdc	IERange
	#	s	Hz	ohm	ohm	V	ohm	°	A	V	#
	0	7	300046.9	34.25615	-4.392718	1	34.53664	-7.307248	6.983682E-006	0.0001393	11
	1	11	238359.4	35.03397	-5.32488	1	35.43633	-8.64235	-3.082582E-005	0.0003565	10
	2	14	189328.1	35.8437	-6.372267	1	36.40572	-10.08068	3.781227E-005	-0.0005619	9
	3	17	150421.9	36.69885	-8.105691	1	37.58334	-12.45498	-1.19679E-005	-0.0005153	9
	4	19	119484.4	37.66389	-9.98205	1	38.96421	-14.84382	-4.297476E-005	0.0012323	9
	5	22	94921.88	38.93229	-11.82973	1	40.68987	-16.90162	-4.248951E-006	0.0004732	9
	6	24	75421.88	40.27726	-14.09155	1	42.67118	-19.28309	1.422252E-005	-0.0004964	9
	7	27	59859.37	41.86706	-16.54521	1	45.01772	-21.56316	1.527919E-005	-0.0004573	9
	8	29	47578.12	43.57876	-19.26109	1	47.64555	-23.84463	-1.340339E-005	0.0005358	9
	9	32	37828.12	45.46233	-22.33488	1	50.65244	-26.16411	1.455266E-005	-0.0001076	9
	10	34	30046.88	47.47923	-25.84805	1	54.05922	-28.5642	1.463638E-005	-0.0001557	9
	11	37	23859.38	49.48932	-29.97768	1	57.86065	-31.20498	-9.497356E-006	0.000145	9
	12	39	18984.38	51.51387	-34.90976	1	62.22837	-34.12458	-1.372045E-005	0.0005468	9
	13	42	15046.87	53.54028	-41.04663	1	67.46397	-37.47556	-1.194364E-005	0.0002395	9
	14	44	11953.13	55.5764	-48.76877	1	73.94004	-41.26723	-3.284498E-006	-4.633713E-005	9
	15	46	9515.62	57.75185	-58.28702	1	82.05274	-45.26425	-6.469785E-007	0.0003289	9
	16	48	7546.875	60.07512	-70.43844	1	92.5775	-49.54	-3.493934E-006	-4.461823E-005	9
	17	51	5928.309	62.94324	-86.23885	1	106.7661	-53.87538	-1.39898E-005	0.0004361	9
	18	53	4733.456	66.09515	-104.7114	1	123.8267	-57.73936	9.840451E-006	5.777077E-005	9
	19	55	3796.875	69.9674	-126.9352	1	144.9413	-61.13621	-6.231915E-006	0.0005623	9
	20	58	2987.132	74.77814	-157.3222	1	174.1897	-64.57739	-1.395332E-005	0.0005216	9
	21	60	2390.625	81.35527	-191.3152	1	207.8946	-66.96276	-8.082859E-006	0.000146	9
	22	62	1884.191	88.38953	-237.8087	1	253.7039	-69.61074	1.75456E-005	-0.0002377	9
	23	65	1516.544	97.1092	-288.577	1	304.4781	-71.40137	-1.235911E-005	0.0003275	9
	24	67	1193.986	109.3047	-357.1352	1	373.4877	-72.98276	-8.567467E-006	0.0001384	9
	25	69	946.5144	123.3139	-439.1978	1	456.1808	-74.31681	-6.266336E-007	0.0012823	8
	26	72	751.7689	141.8067	-539.3492	1	557.6798	-75.26908	-2.79481E-006	0.0012234	8
	27	74	597.4265	164.4633	-663.3849	1	683.4675	-76.07623	-1.385161E-006	0.0014531	8
	28	76	477.4305	193.2021	-809.6365	1	832.3691	-76.57861	2.307248E-007	0.0006683	8
	29	79	376.6741	230.9224	-1000.099	1	1026.413	-76.99829	2.256304E-007	0.0006629	8
	30	81	298.2954	277.9978	-1230.864	1	1261.867	-77.27295	2.390327E-007	0.0006585	8
	31	83	237.7717	335.8673	-1505.202	1	1542.219	-77.42122	2.57306E-007	0.0006402	8
	32	86	189.0121	410.4839	-1844.618	1	1889.739	-77.45436	2.720298E-007	0.0006282	8
	33	88	150.2404	506.0248	-2258.363	1	2314.361	-77.37051	2.385976E-007	0.0006557	8
	34	91	119.1737	629.6487	-2768.261	1	2838.966	-77.18593	2.370224E-007	0.0006626	8
	35	93	95.0169	785.4919	-3375.817	1	3465.997	-76.90137	2.485769E-007	0.0006522	8
	36	95	75.60484	988.264	-4118.175	1	4235.095	-76.50556	2.508403E-007	0.0006573	8
	37	98	54.50582	1393.486	-5468.364	1	5643.12	-75.70376	-2.273739E-007	0.0006368	7
	38	100	45.95588	1670.885	-6326.383	1	6543.315	-75.20523	-2.191299E-007	0.0006403	7
	39	103	37.20238	2099.483	-7556.402	1	7842.642	-74.47249	-2.203473E-007	0.0006379	7
	40	105	30.04808	2661.54	-9027.456	1	9411.629	-73.57305	-2.240814E-007	0.0006353	7
	41	108	23.91582	3436.65	-10898.79	1	11427.78	-72.49868	-2.257072E-007	0.0006315	7
	42	110	18.60119	4551.249	-13299.25	1	14056.45	-71.10811	-2.300652E-007	0.0006457	7
	43	112	15.02404	5788.66	-15707.45	1	16740.15	-69.76967	-2.154527E-007	0.0006484	7
	44	114	12.01923	7431.45	-18571.9	1	20003.55	-68.19144	-2.206404E-007	0.0006086	7
	45	117	9.450605	9701.28	-22082.76	1	24119.77	-66.2834	-2.293963E-007	0.0006416	7
	46	119	7.512019	12431.61	-25864.67	1	28697.15	-64.32916	-2.229004E-007	0.0006268	7
	47	122	5.978954	15778.72	-29973.69	1	33873.15	-62.23683	-2.158751E-007	0.0006399	7
	48	125	4.734848	19971.44	-34514.71	1	39876.35	-59.94481	-2.15644E-007	0.0006301	7
	49	128	3.75601	24905.45	-39246.58	1	46481.99	-57.60124	-2.638955E-007	0.0007202	6
	50	132	3.004808	30406.06	-44003.2	1	53486.54	-55.35565	-2.671838E-007	0.0007579	6
	51	137	2.372217	37101.16	-49290.35	1	61693.07	-53.03099	-2.635023E-007	0.0007731	6
	52	141	1.878005	44501.62	-54535.95	1	70388.66	-50.78537	-2.654085E-007	0.0006882	6
	53	145	1.512097	52064.91	-59599.71	1	79138.36	-48.8603	-2.651267E-007	0.000792	6
	54	151	1.201923	61127.78	-65415.69	1	89531.1	-46.94072	-2.623407E-007	0.0006764	6
	55	164	0.956633	71167.74	-71502.52	1	100883.4	-45.13445	-2.652469E-007	6.892536E-005	6
