EXPLAIN
TAG	EISPOT
TITLE	LABEL	Potentiostatic EIS	Test Identifier
DATE	LABEL	2/26/2021	Date
TIME	LABEL	15:27:19	Time
NOTES	NOTES	1	Notes...
	
PSTAT	PSTAT	REF3000-16137	Potentiostat
VDC	POTEN	0.00000E+000	T	DC Voltage (V)
FREQINIT	QUANT	3.00000E+005	Initial Freq. (Hz)
FREQFINAL	QUANT	1.00000E+000	Final Freq. (Hz)
PTSPERDEC	QUANT	1.00000E+001	Points/decade
VAC	QUANT	5.00000E+001	AC Voltage (mV rms)
AREA	QUANT	1.00000E+000	Sample Area (cm^2)
SPEED	SELECTOR	2	Optimize for:
ZGUESS	QUANT	1.00000E+003	Estimated Z (ohms)
EOC	QUANT	0	Open Circuit (V)
SEQUENCER	TOGGLE	TRUE	Run as Sequence
PSTATMODEL	IQUANT	5	Pstat Model
PSTATSECTION	LABEL	REF3000-16137	Pstat Section
PSTATSERIALNO	LABEL	16137	Pstat Serial Number
CTRLMODE	IQUANT	1	Control Mode
IESTAB	IQUANT	0	I/E Stability
CASPEED	IQUANT	1	Control Amp Speed
CONVENTION	IQUANT	1	Current Convention
ICHRANGE	IQUANT	2	Ich Range
ICHRANGEMODE	TOGGLE	F	Ich Auto Range
ICHOFFSETENABLE	TOGGLE	T	Ich Offset Enable
ICHOFFSET	QUANT	0	Ich Offset (V)
ICHFILTER	IQUANT	3	Ich Filter
VCHRANGE	IQUANT	2	Vch Range
VCHRANGEMODE	TOGGLE	F	Vch Auto Range
VCHOFFSETENABLE	TOGGLE	T	Vch Offset Enable
VCHOFFSET	QUANT	0	Vch Offset (V)
VCHFILTER	IQUANT	3	Vch Filter
ACHRANGE	IQUANT	2	Ach Range
ACHOFFSETENABLE	TOGGLE	F	Ach Offset Enable
ACHOFFSET	QUANT	0	Ach Offset (V)
ACHFILTER	IQUANT	3	Ach Filter
IERANGELOWERLIMIT	IQUANT	2	I/E Range Lower Limit
IERANGEMODE	TOGGLE	F	I/E AutoRange
IERANGE	IQUANT	11	I/E Range
POSFEEDENABLE	TOGGLE	F	Positive Feedback IR Comp
POSFEEDRESISTANCE	QUANT	0	Positive Feedback Resistance (ohm)
ACHSELECT	IQUANT	0	Ach Select
CABLEID	IQUANT	13	Cable ID
DCCALDATE	LABEL	7/31/2020	DC Calibration Date
ACCALDATE	LABEL	7/31/2020	AC Calibration Date
THERMOSELECT	IQUANT	1	Thermo Select
FRAMEWORKVERSION	QUANT	6.33	Framework Version
INSTRUMENTVERSION	LABEL	3.50	Instrument Version
COMPLIANCEVOLTAGE	IQUANT	0	Compliance Voltage
ZCURVE	TABLE
	Pt	Time	Freq	Zreal	Zimag	Zsig	Zmod	Zphz	Idc	Vdc	IERange
	#	s	Hz	ohm	ohm	V	ohm	°	A	V	#
	0	14	300046.9	691.8682	-4694.07	1	4744.784	-81.61543	8.643917E-005	-0.003593	9
	1	28	238359.4	1029.91	-5733.226	1	5824.998	-79.81607	4.921992E-005	8.210958E-005	9
	2	43	189328.1	1813.637	-6481.366	1	6730.333	-74.36714	2.036628E-005	-0.0003673	9
	3	50	150421.9	3355.229	-7251.224	1	7989.857	-65.16945	-2.764594E-005	-0.0009843	9
	4	57	119484.4	3964.176	-10186.86	1	10931	-68.73669	1.91098E-005	-0.0086318	8
	5	65	94921.88	5505.626	-11954.58	1	13161.46	-65.2718	-1.939032E-005	0.011141	8
	6	73	75421.88	7676.575	-14158.52	1	16105.7	-61.534	-2.628779E-005	0.0095518	8
	7	82	59859.37	10447.67	-16168.18	1	19250.04	-57.12997	-1.588387E-005	0.0007015	8
	8	91	47578.12	16386.8	-17496.7	1	23972.11	-46.87614	-5.369136E-006	0.0261978	7
	9	98	37828.12	20173.09	-18199.21	1	27169.19	-42.0553	-1.887846E-006	0.0219669	7
	10	106	30046.88	24149.35	-18513.75	1	30429.43	-37.47506	2.591039E-006	0.0088009	7
	11	113	23859.38	28361.36	-18257.88	1	33730.06	-32.77177	3.187323E-007	0.0162446	7
	12	118	18984.38	30758.99	-18267.73	1	35774.65	-30.70603	-9.444232E-006	-0.0020118	8
	13	125	15046.87	35728.65	-15691.41	1	39022.52	-23.71025	-3.151099E-006	-0.0055551	7
	14	130	11953.13	38206.68	-14060.93	1	40711.91	-20.20477	-3.162529E-006	-0.0055226	7
	15	135	9515.62	40707.04	-12614.47	1	42616.76	-17.21739	7.498939E-006	-0.017991	7
	16	141	7546.875	42664.07	-11245.18	1	44121.16	-14.76591	-3.691449E-006	0.0249369	7
	17	146	5928.309	44026.32	-9873.13	1	45119.79	-12.63976	-5.322762E-006	0.0262631	7
	18	151	4733.456	47984.9	-8974.319	1	48816.89	-10.5933	4.774781E-006	-0.0001984	7
	19	157	3796.875	47063.71	-7482.454	1	47654.8	-9.033601	6.829672E-006	-0.0264632	7
	20	162	2987.132	49055.2	-7262.307	1	49589.85	-8.421106	1.394778E-006	-0.0198649	7
	21	167	2390.625	49962.89	-6504.823	1	50384.56	-7.417791	-7.280176E-006	0.0184901	7
	22	173	1884.191	51187.93	-6639.047	1	51616.68	-7.389978	3.751967E-007	0.0163083	7
	23	178	1516.544	53034.69	-4295.981	1	53208.4	-4.631032	-3.558261E-008	-0.0151621	6
	24	182	1193.986	54273.98	-5096.29	1	54512.73	-5.364305	-4.767969E-007	0.0010996	6
	25	187	946.5144	54612.27	-6027.624	1	54943.91	-6.298314	7.193352E-007	-0.0150228	6
	26	189	751.7689	56329.31	-6672.212	1	56723.09	-6.755215	7.157665E-007	-0.026656	6
	27	192	597.4265	59303.71	-13637.33	1	60851.51	-12.95045	-6.450643E-006	0.010987	7
	28	196	477.4305	58405.96	-10196.98	1	59289.42	-9.90334	-6.09826E-008	0.000636	7
	29	199	376.6741	60049	-11088.91	1	61064.29	-10.46262	-6.780805E-009	0.0006201	6
	30	202	298.2954	61685.82	-13071.08	1	63055.48	-11.96387	-7.933539E-009	0.0007225	6
	31	204	237.7717	63383.86	-15219.2	1	65185.41	-13.50177	-6.822771E-009	0.0006957	6
	32	206	189.0121	65417.34	-17766.16	1	67786.91	-15.19402	-7.339622E-009	0.0007198	6
	33	209	150.2404	67901.7	-20731.96	1	70996.16	-16.97864	-7.323937E-009	0.00072	6
	34	212	119.1737	70633.59	-24172.64	1	74655.34	-18.89227	-7.128205E-009	0.000699	6
	35	214	95.0169	73825.43	-27902.02	1	78922.22	-20.70388	-7.215609E-009	0.0007221	6
	36	216	75.60484	77423.88	-32206.72	1	83855.41	-22.58629	-6.797823E-009	0.0006352	6
	37	219	54.50582	83369.62	-38963.42	1	92025.22	-25.04939	-7.232356E-009	0.0007186	6
	38	221	45.95588	86835.91	-43404.04	1	97079.3	-26.55771	-7.366918E-009	0.000654	6
	39	224	37.20238	91439.18	-49039.33	1	103759.2	-28.2049	-6.518059E-009	0.0006621	6
	40	226	30.04808	96457.9	-55485.01	1	111277.6	-29.9086	-6.991756E-009	0.0007016	6
	41	229	23.91582	101914.2	-63526	1	120091.9	-31.93645	-7.333265E-009	0.0007133	6
	42	231	18.60119	107630.5	-74086.48	1	130664.2	-34.54123	-6.604249E-009	0.0006851	6
	43	234	15.02404	112343.4	-85180.13	1	140984.8	-37.16983	-6.928896E-009	0.0006293	6
	44	236	12.01923	117401.3	-99674.1	1	154006.5	-40.33137	-7.358565E-009	0.0006481	6
	45	239	9.450605	122643.2	-119407.2	1	171170.8	-44.23406	-7.076156E-009	0.0006602	6
	46	241	7.512019	127956.6	-143403.3	1	192191	-48.25796	-6.915819E-009	0.0007318	6
	47	244	5.978954	133955.6	-173586.8	1	219263.5	-52.3429	-7.075922E-009	0.000713	6
	48	248	4.734848	140788.3	-212577.8	1	254971.9	-56.48386	-7.451456E-009	0.0007133	6
	49	252	3.75601	148603.2	-261141.8	1	300462.8	-60.35789	-6.311468E-009	0.0006436	6
	50	257	3.004808	158088.2	-319592.6	1	356554.8	-63.68045	-6.955327E-009	0.0006843	6
	51	264	2.372217	169591.2	-396881.4	1	431597.1	-66.86253	-7.176621E-009	0.0007497	6
	52	268	1.878005	182127.9	-493151.1	1	525707.6	-69.73007	-8.765202E-010	0.0006322	5
	53	273	1.512097	196123.7	-601307.2	1	632483.1	-71.93563	-6.790746E-010	0.0006748	5
	54	278	1.201923	214195.4	-747703.5	1	777779	-74.01453	-8.398225E-010	0.0006282	5
	55	284	0.956633	236245	-926155.5	1	955812	-75.69007	-8.25326E-010	1.033227E-005	5
