EXPLAIN
TAG	EISPOT
TITLE	LABEL	Potentiostatic EIS	Test Identifier
DATE	LABEL	2/26/2021	Date
TIME	LABEL	15:54:36	Time
NOTES	NOTES	1	Notes...
	
PSTAT	PSTAT	REF3000-16137	Potentiostat
VDC	POTEN	0.00000E+000	T	DC Voltage (V)
FREQINIT	QUANT	3.00000E+005	Initial Freq. (Hz)
FREQFINAL	QUANT	1.00000E+000	Final Freq. (Hz)
PTSPERDEC	QUANT	1.00000E+001	Points/decade
VAC	QUANT	5.00000E+001	AC Voltage (mV rms)
AREA	QUANT	1.00000E+000	Sample Area (cm^2)
SPEED	SELECTOR	2	Optimize for:
ZGUESS	QUANT	1.00000E+003	Estimated Z (ohms)
EOC	QUANT	0	Open Circuit (V)
SEQUENCER	TOGGLE	TRUE	Run as Sequence
PSTATMODEL	IQUANT	5	Pstat Model
PSTATSECTION	LABEL	REF3000-16137	Pstat Section
PSTATSERIALNO	LABEL	16137	Pstat Serial Number
CTRLMODE	IQUANT	1	Control Mode
IESTAB	IQUANT	0	I/E Stability
CASPEED	IQUANT	1	Control Amp Speed
CONVENTION	IQUANT	1	Current Convention
ICHRANGE	IQUANT	2	Ich Range
ICHRANGEMODE	TOGGLE	F	Ich Auto Range
ICHOFFSETENABLE	TOGGLE	T	Ich Offset Enable
ICHOFFSET	QUANT	0	Ich Offset (V)
ICHFILTER	IQUANT	3	Ich Filter
VCHRANGE	IQUANT	2	Vch Range
VCHRANGEMODE	TOGGLE	F	Vch Auto Range
VCHOFFSETENABLE	TOGGLE	T	Vch Offset Enable
VCHOFFSET	QUANT	0	Vch Offset (V)
VCHFILTER	IQUANT	3	Vch Filter
ACHRANGE	IQUANT	2	Ach Range
ACHOFFSETENABLE	TOGGLE	F	Ach Offset Enable
ACHOFFSET	QUANT	0	Ach Offset (V)
ACHFILTER	IQUANT	3	Ach Filter
IERANGELOWERLIMIT	IQUANT	2	I/E Range Lower Limit
IERANGEMODE	TOGGLE	F	I/E AutoRange
IERANGE	IQUANT	11	I/E Range
POSFEEDENABLE	TOGGLE	F	Positive Feedback IR Comp
POSFEEDRESISTANCE	QUANT	0	Positive Feedback Resistance (ohm)
ACHSELECT	IQUANT	0	Ach Select
CABLEID	IQUANT	13	Cable ID
DCCALDATE	LABEL	7/31/2020	DC Calibration Date
ACCALDATE	LABEL	7/31/2020	AC Calibration Date
THERMOSELECT	IQUANT	1	Thermo Select
FRAMEWORKVERSION	QUANT	6.33	Framework Version
INSTRUMENTVERSION	LABEL	3.50	Instrument Version
COMPLIANCEVOLTAGE	IQUANT	0	Compliance Voltage
ZCURVE	TABLE
	Pt	Time	Freq	Zreal	Zimag	Zsig	Zmod	Zphz	Idc	Vdc	IERange
	#	s	Hz	ohm	ohm	V	ohm	°	A	V	#
	0	14	300046.9	-85.31604	-4822.173	1	4822.928	-91.0136	8.030429E-005	-0.0017763	9
	1	28	238359.4	21.49134	-5957.786	1	5957.825	-89.79332	1.696391E-005	-0.0021032	9
	2	44	189328.1	216.8414	-7379.309	1	7382.494	-88.31685	2.661594E-005	-0.0018472	9
	3	53	150421.9	44.8761	-11361.67	1	11361.76	-89.7737	2.343601E-005	0.0010759	9
	4	61	119484.4	342.6974	-11582.49	1	11587.56	-88.30525	-5.865927E-005	0.006323	8
	5	69	94921.88	348.2646	-14857.55	1	14861.63	-88.65722	-1.594049E-005	0.0006726	8
	6	78	75421.88	627.5375	-18089.1	1	18099.98	-88.01312	-2.365013E-005	0.0051338	8
	7	86	59859.37	700.936	-22646.99	1	22657.83	-88.22723	-1.974952E-005	0.0112819	8
	8	95	47578.12	4059.939	-30055.37	1	30328.35	-82.30694	2.758056E-006	0.008525	7
	9	102	37828.12	622.02	-36542.43	1	36547.72	-89.02481	8.243819E-006	0.004199	8
	10	111	30046.88	4416.853	-46098.75	1	46309.86	-84.52703	6.909278E-006	-0.0271151	7
	11	118	23859.38	1455.926	-56264.85	1	56283.68	-88.51773	-1.208377E-005	0.0103144	8
	12	125	18984.38	5301.843	-70747.83	1	70946.21	-85.71426	-5.265274E-006	0.0265636	7
	13	130	15046.87	5624.05	-90438.69	1	90613.39	-86.44157	-5.298543E-006	0.0036114	7
	14	137	11953.13	8405.863	-116405.5	1	116708.6	-85.86973	-1.629669E-006	0.0219968	7
	15	143	9515.62	5587.69	-140666.6	1	140777.5	-87.72524	5.360542E-006	-0.0269506	7
	16	148	7546.875	9632.15	-177662	1	177922.9	-86.89668	-1.092774E-006	-0.0129165	7
	17	155	5928.309	-6265.735	-238104.8	1	238187.2	-91.50739	-1.037593E-006	-0.013321	7
	18	161	4733.456	45360.98	-295761	1	299219.3	-81.28046	1.8565E-007	-0.0211769	6
	19	167	3796.875	51841.36	-362940.3	1	366624.1	-81.87103	6.138081E-007	-0.0073043	6
	20	172	2987.132	56395.34	-457641.3	1	461103.1	-82.97484	-2.803847E-007	-0.0072573	6
	21	177	2390.625	69598.3	-564377.2	1	568652.4	-82.96985	-4.666848E-008	-0.0149334	6
	22	183	1884.191	70145.04	-705844.8	1	709321.7	-84.32473	-7.494986E-007	0.0232748	6
	23	188	1516.544	92301.1	-874257.1	1	879116.1	-83.97323	-3.98394E-007	0.0254176	6
	24	195	1193.986	205612.8	-1107731	1	1126651	-79.48464	-4.908333E-008	-0.0149869	6
	25	200	946.5144	170015	-1396270	1	1406583	-83.05762	7.404572E-007	-0.0275388	6
	26	204	751.7689	-32504.28	-1787161	1	1787456	-91.04196	3.917289E-007	-0.0249972	6
	27	208	597.4265	614186.9	-1774900	1	1878163	-70.91232	-7.016834E-007	0.0266234	6
	28	211	477.4305	758615.8	-2588662	1	2697530	-73.66661	-6.818939E-009	0.0006836	6
	29	216	376.6741	1139098	-3153942	1	3353341	-70.14198	-7.349658E-009	0.0006768	6
	30	220	298.2954	2029642	-3675368	1	4198545	-61.09129	-8.033182E-010	0.0007086	5
	31	224	237.7717	2736000	-4198226	1	5011067	-56.90756	-7.233584E-010	0.0006364	5
	32	228	189.0121	3551718	-4655302	1	5855471	-52.65852	-6.96382E-010	0.0006465	5
	33	232	150.2404	4487099	-4956154	1	6685621	-47.8436	-7.179687E-010	0.0006041	5
	34	236	119.1737	5413903	-5515901	1	7728875	-45.53468	-8.432862E-010	0.0006709	5
	35	239	95.0169	6875028	-4992215	1	8496365	-35.98481	-6.709578E-010	0.0006852	5
	36	242	75.60484	7287763	-4608511	1	8622637	-32.30774	-8.234722E-010	0.0006941	5
	37	245	54.50582	8914431	-4009539	1	9.774634E+006	-24.21729	-7.833329E-010	0.0006987	5
	38	250	45.95588	1.06052E+007	-2401658	1	1.087374E+007	-12.76	-1.042257E-010	0.0007087	4
	39	252	37.20238	1.003728E+007	-2283102	1	1.029367E+007	-12.81459	-1.08187E-010	0.000656	4
	40	255	30.04808	1.049733E+007	-1866391	1	1.066196E+007	-10.08165	-7.826347E-011	0.0007139	4
	41	258	23.91582	1.036673E+007	-1288296	1	1.044647E+007	-7.083954	-2.330553E-011	0.0006741	4
	42	261	18.60119	1.175207E+007	-2456013	1	1.200597E+007	-11.8041	-4.746228E-010	0.0006637	4
	43	263	15.02404	1.071424E+007	-1282746	1	1.079076E+007	-6.827149	-8.173136E-011	0.0006253	4
	44	265	12.01923	1.06597E+007	-1174449	1	1.072421E+007	-6.287289	-1.460405E-010	0.0007134	4
	45	268	9.450605	1.072707E+007	-1244456	1	1.079901E+007	-6.617347	-8.341239E-011	0.0007062	4
	46	271	7.512019	1.083558E+007	-1338827	1	1.091798E+007	-7.043675	-2.539522E-011	0.0006879	4
	47	274	5.978954	1.099173E+007	-1338586	1	1.107293E+007	-6.94336	-4.484147E-011	0.0006297	4
	48	278	4.734848	1.101868E+007	-1537967	1	1.11255E+007	-7.945898	-6.06632E-011	0.000661	4
	49	283	3.75601	1.108769E+007	-1780429	1	1.122973E+007	-9.122513	-5.01393E-011	0.0006301	4
	50	288	3.004808	1.13418E+007	-2028059	1	1.15217E+007	-10.13807	-1.078897E-010	0.0006484	4
	51	295	2.372217	1.15039E+007	-2276236	1	1.172694E+007	-11.19234	-4.130631E-011	0.0007179	4
	52	299	1.878005	1.172215E+007	-2646709	1	1.201723E+007	-12.72329	-8.708846E-011	0.0006483	4
	53	304	1.512097	1.197772E+007	-3051235	1	1.236025E+007	-14.2917	-1.24367E-010	0.000748	4
	54	309	1.201923	1.230051E+007	-3513273	1	1.27924E+007	-15.94041	-6.836696E-011	0.0006317	4
	55	315	0.956633	1.271952E+007	-4073297	1	1.335582E+007	-17.75713	-1.751671E-010	2.006183E-005	4
