EXPLAIN
TAG	EISPOT
TITLE	LABEL	Potentiostatic EIS	Test Identifier
DATE	LABEL	2/26/2021	Date
TIME	LABEL	14:49:42	Time
NOTES	NOTES	1	Notes...
	
PSTAT	PSTAT	REF3000-16137	Potentiostat
VDC	POTEN	0.00000E+000	T	DC Voltage (V)
FREQINIT	QUANT	3.00000E+005	Initial Freq. (Hz)
FREQFINAL	QUANT	1.00000E+000	Final Freq. (Hz)
PTSPERDEC	QUANT	1.00000E+001	Points/decade
VAC	QUANT	5.00000E+001	AC Voltage (mV rms)
AREA	QUANT	1.00000E+000	Sample Area (cm^2)
SPEED	SELECTOR	2	Optimize for:
ZGUESS	QUANT	1.00000E+003	Estimated Z (ohms)
EOC	QUANT	0	Open Circuit (V)
SEQUENCER	TOGGLE	TRUE	Run as Sequence
PSTATMODEL	IQUANT	5	Pstat Model
PSTATSECTION	LABEL	REF3000-16137	Pstat Section
PSTATSERIALNO	LABEL	16137	Pstat Serial Number
CTRLMODE	IQUANT	1	Control Mode
IESTAB	IQUANT	0	I/E Stability
CASPEED	IQUANT	1	Control Amp Speed
CONVENTION	IQUANT	1	Current Convention
ICHRANGE	IQUANT	2	Ich Range
ICHRANGEMODE	TOGGLE	F	Ich Auto Range
ICHOFFSETENABLE	TOGGLE	T	Ich Offset Enable
ICHOFFSET	QUANT	0	Ich Offset (V)
ICHFILTER	IQUANT	3	Ich Filter
VCHRANGE	IQUANT	2	Vch Range
VCHRANGEMODE	TOGGLE	F	Vch Auto Range
VCHOFFSETENABLE	TOGGLE	T	Vch Offset Enable
VCHOFFSET	QUANT	0	Vch Offset (V)
VCHFILTER	IQUANT	3	Vch Filter
ACHRANGE	IQUANT	2	Ach Range
ACHOFFSETENABLE	TOGGLE	F	Ach Offset Enable
ACHOFFSET	QUANT	0	Ach Offset (V)
ACHFILTER	IQUANT	3	Ach Filter
IERANGELOWERLIMIT	IQUANT	2	I/E Range Lower Limit
IERANGEMODE	TOGGLE	F	I/E AutoRange
IERANGE	IQUANT	11	I/E Range
POSFEEDENABLE	TOGGLE	F	Positive Feedback IR Comp
POSFEEDRESISTANCE	QUANT	0	Positive Feedback Resistance (ohm)
ACHSELECT	IQUANT	0	Ach Select
CABLEID	IQUANT	13	Cable ID
DCCALDATE	LABEL	7/31/2020	DC Calibration Date
ACCALDATE	LABEL	7/31/2020	AC Calibration Date
THERMOSELECT	IQUANT	1	Thermo Select
FRAMEWORKVERSION	QUANT	6.33	Framework Version
INSTRUMENTVERSION	LABEL	3.50	Instrument Version
COMPLIANCEVOLTAGE	IQUANT	0	Compliance Voltage
ZCURVE	TABLE
	Pt	Time	Freq	Zreal	Zimag	Zsig	Zmod	Zphz	Idc	Vdc	IERange
	#	s	Hz	ohm	ohm	V	ohm	°	A	V	#
	0	18	300046.9	325.5158	-29.35185	1	326.8364	-5.152442	5.726107E-005	-0.0003182	9
	1	22	238359.4	329.4676	-29.84184	1	330.8163	-5.175498	1.683594E-005	-0.0018639	9
	2	27	189328.1	334.0686	-31.26147	1	335.5281	-5.346054	-8.495167E-005	0.0022057	9
	3	33	150421.9	337.207	-33.01568	1	338.8194	-5.591963	7.866357E-005	-0.0029999	9
	4	38	119484.4	341.5252	-36.35939	1	343.4552	-6.076923	-8.232824E-005	0.0037274	9
	5	44	94921.88	345.9599	-39.49953	1	348.2075	-6.513469	-1.521128E-005	0.0008995	9
	6	46	75421.88	350.1539	-45.36225	1	353.08	-7.381526	-1.007564E-005	0.0008689	9
	7	49	59859.37	355.0406	-52.24551	1	358.864	-8.371202	2.805093E-005	-0.0006901	9
	8	52	47578.12	360.5981	-60.33387	1	365.6107	-9.498521	-2.384997E-005	0.0007129	9
	9	54	37828.12	366.9442	-69.64913	1	373.4957	-10.74738	-2.450513E-005	0.0006543	9
	10	57	30046.88	375.2542	-81.34457	1	383.9696	-12.23088	-1.873087E-005	0.0009577	9
	11	59	23859.38	382.7856	-91.6494	1	393.6045	-13.46471	-1.166531E-005	0.0026337	8
	12	61	18984.38	393.649	-107.5234	1	408.0696	-15.27741	6.088414E-006	0.0017169	8
	13	64	15046.87	407.0392	-124.459	1	425.6418	-17.00187	-1.051647E-005	0.0026717	8
	14	66	11953.13	420.0865	-147.6065	1	445.2644	-19.36003	1.411443E-005	-0.0039312	8
	15	68	9515.62	437.0308	-168.7576	1	468.4817	-21.11386	-2.149544E-006	-0.0016387	8
	16	71	7546.875	457.12	-196.1843	1	497.4404	-23.22778	-6.661837E-006	-3.966767E-005	8
	17	73	5928.309	479.696	-226.9604	1	530.6781	-25.32042	1.437032E-005	-0.0039315	8
	18	75	4733.456	501.9112	-258.55	1	564.5909	-27.2544	1.289639E-005	-0.0043305	8
	19	77	3796.875	521.3897	-296.3691	1	599.7349	-29.61483	1.369968E-005	-0.0034022	8
	20	80	2987.132	551.2023	-340.8153	1	648.0579	-31.72902	-1.042773E-005	0.0056131	8
	21	82	2390.625	574.6414	-391.6883	1	695.4369	-34.27921	-4.415504E-006	0.0051152	8
	22	84	1884.191	601.9112	-460.2503	1	757.712	-37.40327	6.072533E-006	0.0017773	8
	23	87	1516.544	620.7648	-538.251	1	821.6223	-40.92781	-1.229249E-005	0.0052545	8
	24	89	1193.986	644.4734	-645.4777	1	912.1335	-45.04461	-1.029095E-005	0.0017023	8
	25	92	946.5144	668.5015	-783.6018	1	1030.013	-49.53205	-9.884086E-006	0.0015729	8
	26	94	751.7689	691.8047	-949.4421	1	1174.749	-53.9213	-1.281396E-005	0.0037459	8
	27	97	597.4265	720.0719	-1159.484	1	1364.883	-58.15856	-1.298032E-005	0.0045034	8
	28	100	477.4305	748.7162	-1416.968	1	1602.615	-62.14833	5.313597E-008	0.0006585	8
	29	102	376.6741	786.0659	-1757.523	1	1925.302	-65.90305	3.954309E-008	0.0006579	8
	30	104	298.2954	830.0233	-2177.788	1	2330.6	-69.13658	5.364722E-008	0.0006459	8
	31	107	237.7717	881.8845	-2687.223	1	2828.231	-71.83136	2.730707E-008	0.0006531	8
	32	109	189.0121	945.7482	-3329.188	1	3460.916	-74.14133	3.658398E-008	0.0006234	8
	33	111	150.2404	1023.437	-4126.99	1	4251.996	-76.0724	6.309709E-008	0.0006496	8
	34	114	119.1737	1124.845	-5139.925	1	5261.569	-77.65574	-7.866659E-009	0.0006238	7
	35	116	95.0169	1244.149	-6360.604	1	6481.141	-78.93255	-1.271641E-008	0.000644	7
	36	119	75.60484	1393.718	-7888.293	1	8010.47	-79.98029	-8.843108E-009	0.0006119	7
	37	121	54.50582	1673.047	-10741.77	1	10871.28	-81.14722	-1.407572E-008	0.0006381	7
	38	124	45.95588	1866.471	-12617.33	1	12754.63	-81.5853	-1.292978E-008	0.0006351	7
	39	126	37.20238	2150.038	-15398.93	1	15548.3	-82.0516	-1.316751E-008	0.0006329	7
	40	128	30.04808	2517.802	-18844.67	1	19012.12	-82.38988	-9.114949E-009	0.0006212	7
	41	131	23.91582	3020.266	-23375.35	1	23569.66	-82.63776	-1.326966E-008	0.0006428	7
	42	133	18.60119	3713.309	-29651.15	1	29882.76	-82.86182	-7.998506E-009	0.0006186	7
	43	135	15.02404	4520.021	-36217.77	1	36498.73	-82.8862	-9.199066E-009	0.0006262	7
	44	138	12.01923	5604.192	-44699.19	1	45049.13	-82.85379	-4.805781E-009	0.0006799	6
	45	140	9.450605	7171.048	-56092.11	1	56548.64	-82.71459	-4.060864E-009	0.00067	6
	46	143	7.512019	9189.842	-69537.31	1	70141.94	-82.47159	-4.031601E-009	0.0006912	6
	47	146	5.978954	11885.33	-86115.77	1	86932.09	-82.14193	-4.978988E-009	0.000695	6
	48	150	4.734848	15706.76	-107104.1	1	108249.7	-81.65707	-3.753896E-009	0.0006774	6
	49	153	3.75601	20945.05	-132817.5	1	134458.9	-81.03838	-4.585706E-009	0.0006521	6
	50	159	3.004808	27897.48	-163094.1	1	165462.9	-80.29341	-4.26145E-009	0.0006558	6
	51	165	2.372217	38069.98	-202232.4	1	205784.5	-79.33891	-4.559892E-009	0.0006292	6
	52	169	1.878005	52710.92	-249641.4	1	255145.5	-78.07732	-4.757656E-009	0.0006812	6
	53	174	1.512097	70982.17	-302216	1	310439.9	-76.78238	-4.466229E-009	0.0005635	6
	54	180	1.201923	97455.4	-368501.7	1	381170.7	-75.18648	-4.697638E-009	0.0006887	6
	55	186	0.956633	132891.2	-445809.3	1	465194.6	-73.40122	-3.935683E-009	1.69649E-005	5
