EXPLAIN
TAG	EISPOT
TITLE	LABEL	Potentiostatic EIS	Test Identifier
DATE	LABEL	2/26/2021	Date
TIME	LABEL	15:03:46	Time
NOTES	NOTES	1	Notes...
	
PSTAT	PSTAT	REF3000-16137	Potentiostat
VDC	POTEN	0.00000E+000	T	DC Voltage (V)
FREQINIT	QUANT	3.00000E+005	Initial Freq. (Hz)
FREQFINAL	QUANT	1.00000E+000	Final Freq. (Hz)
PTSPERDEC	QUANT	1.00000E+001	Points/decade
VAC	QUANT	5.00000E+001	AC Voltage (mV rms)
AREA	QUANT	1.00000E+000	Sample Area (cm^2)
SPEED	SELECTOR	2	Optimize for:
ZGUESS	QUANT	1.00000E+003	Estimated Z (ohms)
EOC	QUANT	0	Open Circuit (V)
SEQUENCER	TOGGLE	TRUE	Run as Sequence
PSTATMODEL	IQUANT	5	Pstat Model
PSTATSECTION	LABEL	REF3000-16137	Pstat Section
PSTATSERIALNO	LABEL	16137	Pstat Serial Number
CTRLMODE	IQUANT	1	Control Mode
IESTAB	IQUANT	0	I/E Stability
CASPEED	IQUANT	1	Control Amp Speed
CONVENTION	IQUANT	1	Current Convention
ICHRANGE	IQUANT	2	Ich Range
ICHRANGEMODE	TOGGLE	F	Ich Auto Range
ICHOFFSETENABLE	TOGGLE	T	Ich Offset Enable
ICHOFFSET	QUANT	0	Ich Offset (V)
ICHFILTER	IQUANT	3	Ich Filter
VCHRANGE	IQUANT	2	Vch Range
VCHRANGEMODE	TOGGLE	F	Vch Auto Range
VCHOFFSETENABLE	TOGGLE	T	Vch Offset Enable
VCHOFFSET	QUANT	0	Vch Offset (V)
VCHFILTER	IQUANT	3	Vch Filter
ACHRANGE	IQUANT	2	Ach Range
ACHOFFSETENABLE	TOGGLE	F	Ach Offset Enable
ACHOFFSET	QUANT	0	Ach Offset (V)
ACHFILTER	IQUANT	3	Ach Filter
IERANGELOWERLIMIT	IQUANT	2	I/E Range Lower Limit
IERANGEMODE	TOGGLE	F	I/E AutoRange
IERANGE	IQUANT	11	I/E Range
POSFEEDENABLE	TOGGLE	F	Positive Feedback IR Comp
POSFEEDRESISTANCE	QUANT	0	Positive Feedback Resistance (ohm)
ACHSELECT	IQUANT	0	Ach Select
CABLEID	IQUANT	13	Cable ID
DCCALDATE	LABEL	7/31/2020	DC Calibration Date
ACCALDATE	LABEL	7/31/2020	AC Calibration Date
THERMOSELECT	IQUANT	1	Thermo Select
FRAMEWORKVERSION	QUANT	6.33	Framework Version
INSTRUMENTVERSION	LABEL	3.50	Instrument Version
COMPLIANCEVOLTAGE	IQUANT	0	Compliance Voltage
ZCURVE	TABLE
	Pt	Time	Freq	Zreal	Zimag	Zsig	Zmod	Zphz	Idc	Vdc	IERange
	#	s	Hz	ohm	ohm	V	ohm	°	A	V	#
	0	15	300046.9	1043.241	-241.3944	1	1070.805	-13.02832	-0.0001071	0.0036176	9
	1	30	238359.4	1085.613	-217.0722	1	1107.103	-11.30737	-9.378533E-005	0.0021713	9
	2	49	189328.1	1151.714	-188.4835	1	1167.036	-9.294333	1.796306E-006	-0.0017694	9
	3	60	150421.9	1151.141	-170.5929	1	1163.713	-8.429571	-1.36252E-005	0.0016996	9
	4	66	119484.4	1180.733	-115.6652	1	1186.385	-5.59487	3.39846E-005	-0.0160401	8
	5	72	94921.88	1192.315	-111.6181	1	1197.528	-5.348133	1.880753E-005	-0.0025334	8
	6	75	75421.88	1201.627	-110.1282	1	1206.663	-5.236487	5.205043E-006	-0.0054837	8
	7	78	59859.37	1212.339	-116.113	1	1217.886	-5.470875	-1.783441E-005	0.0084015	8
	8	80	47578.12	1225.596	-129.1352	1	1232.38	-6.014791	1.898817E-005	-0.0025401	8
	9	83	37828.12	1239.403	-134.6145	1	1246.692	-6.198732	2.131809E-005	-0.0044737	8
	10	86	30046.88	1257.419	-147.5515	1	1266.046	-6.69275	-8.487644E-006	-0.0010756	8
	11	90	23859.38	1277.044	-169.213	1	1288.206	-7.547933	-3.435031E-007	0.0057618	8
	12	93	18984.38	1297.904	-193.2421	1	1312.21	-8.468436	1.504802E-005	-0.0002234	8
	13	96	15046.87	1320.863	-222.1636	1	1339.416	-9.54755	-1.837521E-005	0.0087405	8
	14	99	11953.13	1348.242	-258.123	1	1372.729	-10.83821	1.717217E-005	-0.0073876	8
	15	101	9515.62	1378.312	-299.29	1	1410.432	-12.25116	1.980682E-005	-0.006845	8
	16	106	7546.875	1419.777	-349.6467	1	1462.197	-13.83486	5.470673E-006	-0.0055958	8
	17	109	5928.309	1467.778	-408.3803	1	1523.531	-15.54818	1.203391E-005	-0.0069679	8
	18	113	4733.456	1515.945	-478.5405	1	1589.682	-17.51942	-1.702156E-005	0.0029716	8
	19	117	3796.875	1573.747	-546.051	1	1665.789	-19.13549	-1.367861E-005	0.0012996	8
	20	121	2987.132	1645.307	-639.8909	1	1765.36	-21.252	2.177669E-005	-0.0059373	8
	21	126	2390.625	1720.037	-735.098	1	1870.533	-23.14058	1.209236E-005	-0.0070237	8
	22	129	1884.191	1805.314	-841.8834	1	1991.966	-25.00134	-3.980498E-007	0.0059172	8
	23	133	1516.544	1902.861	-955.761	1	2129.404	-26.66927	-1.850806E-005	0.0087787	8
	24	137	1193.986	2016.208	-1096.086	1	2294.886	-28.53016	-1.717439E-005	0.0029885	8
	25	142	946.5144	2116.993	-1250.243	1	2458.611	-30.56505	-2.072531E-005	0.0078239	8
	26	144	751.7689	2231.384	-1461.023	1	2667.145	-33.21522	1.785527E-005	-0.0008822	9
	27	148	597.4265	2299.01	-1674.534	1	2844.207	-36.06854	2.044142E-005	-0.0069417	8
	28	152	477.4305	2420.378	-1986.669	1	3131.307	-39.37947	-1.024859E-007	0.0006423	8
	29	155	376.6741	2516.423	-2370.612	1	3457.193	-43.29102	-1.540555E-007	0.0006689	8
	30	158	298.2954	2611.206	-2850.808	1	3865.942	-47.51178	-1.079482E-007	0.0006604	8
	31	160	237.7717	2717.438	-3447.263	1	4389.544	-51.75169	-3.378228E-008	0.000593	7
	32	162	189.0121	2825.227	-4200.43	1	5062.165	-56.07506	-3.61362E-008	0.0005985	7
	33	165	150.2404	2946.803	-5145.382	1	5929.469	-60.19988	-4.15194E-008	0.0006456	7
	34	167	119.1737	3088.334	-6339.97	1	7052.165	-64.02831	-3.30151E-008	0.0006011	7
	35	169	95.0169	3252.543	-7796.969	1	8448.181	-67.35631	-3.525009E-008	0.0005935	7
	36	172	75.60484	3449.977	-9625.13	1	10224.75	-70.28059	-3.613463E-008	0.000623	7
	37	174	54.50582	3798.333	-13049.13	1	13590.7	-73.77081	-4.071347E-008	0.0006551	7
	38	177	45.95588	4035.703	-15299.2	1	15822.53	-75.22282	-3.451732E-008	0.0005951	7
	39	179	37.20238	4374.437	-18645.38	1	19151.66	-76.7965	-3.711273E-008	0.0006023	7
	40	182	30.04808	4786.199	-22780.51	1	23277.87	-78.1347	-3.447201E-008	0.0006001	7
	41	184	23.91582	5337.03	-28233.36	1	28733.37	-79.29553	-3.398606E-008	0.0006163	7
	42	186	18.60119	6071.626	-35790.9	1	36302.25	-80.37191	-3.333968E-008	0.0006097	7
	43	189	15.02404	6899.052	-43720.04	1	44261.03	-81.03263	-4.359264E-009	0.0006417	6
	44	191	12.01923	7943.306	-53962.57	1	54544.07	-81.62618	-4.105997E-009	0.0006415	6
	45	194	9.450605	9286.74	-67674.51	1	68308.73	-82.1863	-5.012548E-009	0.0006843	6
	46	196	7.512019	11055.52	-84089.23	1	84812.88	-82.51007	-4.737525E-009	0.0006597	6
	47	199	5.978954	13207.88	-104291.1	1	105124.2	-82.78224	-4.97426E-009	0.0006998	6
	48	203	4.734848	16117.85	-130169.9	1	131164	-82.94147	-5.172707E-009	0.0007075	6
	49	207	3.75601	19778.43	-161950	1	163153.3	-83.03713	-4.567615E-009	0.0006491	6
	50	212	3.004808	24404.91	-199968.9	1	201452.7	-83.04183	-5.013977E-009	0.0006965	6
	51	219	2.372217	30913.08	-249862.9	1	251767.9	-82.9472	-5.070382E-009	0.0007115	6
	52	223	1.878005	40121.95	-311784.4	1	314355.3	-82.6672	-4.852365E-009	0.000643	6
	53	227	1.512097	51486.83	-382093.4	1	385546.8	-82.32566	-4.770368E-009	0.0007614	6
	54	233	1.201923	67232.57	-474568.1	1	479306.9	-81.93651	-8.590635E-010	0.0006279	5
	55	239	0.956633	88400.09	-587564.3	1	594177.1	-81.44392	-1.127377E-009	9.736787E-006	5
