EXPLAIN
TAG	EISPOT
TITLE	LABEL	Potentiostatic EIS	Test Identifier
DATE	LABEL	2/26/2021	Date
TIME	LABEL	15:22:26	Time
NOTES	NOTES	1	Notes...
	
PSTAT	PSTAT	REF3000-16137	Potentiostat
VDC	POTEN	0.00000E+000	T	DC Voltage (V)
FREQINIT	QUANT	3.00000E+005	Initial Freq. (Hz)
FREQFINAL	QUANT	1.00000E+000	Final Freq. (Hz)
PTSPERDEC	QUANT	1.00000E+001	Points/decade
VAC	QUANT	5.00000E+001	AC Voltage (mV rms)
AREA	QUANT	1.00000E+000	Sample Area (cm^2)
SPEED	SELECTOR	2	Optimize for:
ZGUESS	QUANT	1.00000E+003	Estimated Z (ohms)
EOC	QUANT	0	Open Circuit (V)
SEQUENCER	TOGGLE	TRUE	Run as Sequence
PSTATMODEL	IQUANT	5	Pstat Model
PSTATSECTION	LABEL	REF3000-16137	Pstat Section
PSTATSERIALNO	LABEL	16137	Pstat Serial Number
CTRLMODE	IQUANT	1	Control Mode
IESTAB	IQUANT	0	I/E Stability
CASPEED	IQUANT	1	Control Amp Speed
CONVENTION	IQUANT	1	Current Convention
ICHRANGE	IQUANT	2	Ich Range
ICHRANGEMODE	TOGGLE	F	Ich Auto Range
ICHOFFSETENABLE	TOGGLE	T	Ich Offset Enable
ICHOFFSET	QUANT	0	Ich Offset (V)
ICHFILTER	IQUANT	3	Ich Filter
VCHRANGE	IQUANT	2	Vch Range
VCHRANGEMODE	TOGGLE	F	Vch Auto Range
VCHOFFSETENABLE	TOGGLE	T	Vch Offset Enable
VCHOFFSET	QUANT	0	Vch Offset (V)
VCHFILTER	IQUANT	3	Vch Filter
ACHRANGE	IQUANT	2	Ach Range
ACHOFFSETENABLE	TOGGLE	F	Ach Offset Enable
ACHOFFSET	QUANT	0	Ach Offset (V)
ACHFILTER	IQUANT	3	Ach Filter
IERANGELOWERLIMIT	IQUANT	2	I/E Range Lower Limit
IERANGEMODE	TOGGLE	F	I/E AutoRange
IERANGE	IQUANT	11	I/E Range
POSFEEDENABLE	TOGGLE	F	Positive Feedback IR Comp
POSFEEDRESISTANCE	QUANT	0	Positive Feedback Resistance (ohm)
ACHSELECT	IQUANT	0	Ach Select
CABLEID	IQUANT	13	Cable ID
DCCALDATE	LABEL	7/31/2020	DC Calibration Date
ACCALDATE	LABEL	7/31/2020	AC Calibration Date
THERMOSELECT	IQUANT	1	Thermo Select
FRAMEWORKVERSION	QUANT	6.33	Framework Version
INSTRUMENTVERSION	LABEL	3.50	Instrument Version
COMPLIANCEVOLTAGE	IQUANT	0	Compliance Voltage
ZCURVE	TABLE
	Pt	Time	Freq	Zreal	Zimag	Zsig	Zmod	Zphz	Idc	Vdc	IERange
	#	s	Hz	ohm	ohm	V	ohm	°	A	V	#
	0	17	300046.9	1508.132	-4218.148	1	4479.647	-70.3263	9.297671E-005	-0.0036024	9
	1	38	238359.4	2161.606	-5002.191	1	5449.262	-66.62929	7.787042E-005	-0.0016037	9
	2	62	189328.1	2990.376	-5501.665	1	6261.842	-61.47414	8.349562E-005	-0.0033432	9
	3	70	150421.9	4270.698	-6795.321	1	8025.912	-57.85161	2.418559E-005	-0.0013642	9
	4	78	119484.4	5805.122	-7002.907	1	9096.161	-50.34267	4.114829E-005	-0.0185221	8
	5	85	94921.88	7258.072	-7368.875	1	10343.11	-45.43402	1.720882E-005	0.0003315	8
	6	94	75421.88	8939.459	-7412.426	1	11612.84	-39.66486	1.721022E-005	0.0003346	8
	7	101	59859.37	10703.56	-7368.703	1	12994.77	-34.54488	-1.874133E-006	0.0074934	8
	8	110	47578.12	13545.46	-5848.277	1	14754.04	-23.35237	4.468439E-006	0.000493	7
	9	117	37828.12	14542.4	-5297.625	1	15477.28	-20.01608	2.413262E-006	0.0093396	7
	10	123	30046.88	15446.4	-4661.069	1	16134.33	-16.79159	7.239292E-006	-0.0168582	7
	11	129	23859.38	16185.1	-4076.056	1	16690.46	-14.13543	1.373505E-007	0.0165301	7
	12	133	18984.38	16712	-3529.763	1	17080.69	-11.92624	2.42804E-006	0.0091309	7
	13	138	15046.87	17294.13	-3058.836	1	17562.56	-10.03025	4.509506E-006	0.000701	7
	14	142	11953.13	17587.28	-2716.696	1	17795.87	-8.781038	-3.842281E-006	0.0247975	7
	15	146	9515.62	17933.71	-2512.058	1	18108.8	-7.973802	3.652975E-006	-0.024052	7
	16	150	7546.875	18401.26	-2343.611	1	18549.9	-7.258197	-6.998183E-006	0.0222853	7
	17	155	5928.309	18622.23	-2329.821	1	18767.4	-7.131202	-7.016134E-006	0.0222964	7
	18	159	4733.456	19055.74	-2275.949	1	19191.18	-6.810936	7.282173E-006	-0.0170599	7
	19	163	3796.875	19516.03	-2076.831	1	19626.22	-6.074366	2.623536E-006	0.0087961	7
	20	167	2987.132	19908.75	-2352.512	1	20047.26	-6.739091	-7.041395E-006	0.0224022	7
	21	172	2390.625	20151.97	-2579.052	1	20316.33	-7.293079	6.769041E-006	-0.0258819	7
	22	176	1884.191	20490.05	-2984.065	1	20706.2	-8.286007	7.466111E-006	-0.0230901	7
	23	180	1516.544	21176.77	-3303.798	1	21432.93	-8.867265	3.625604E-006	-0.0240188	7
	24	184	1193.986	21807.75	-3751.451	1	22128.07	-9.7607	6.762405E-006	-0.0258637	7
	25	189	946.5144	22540.86	-3837.684	1	22865.21	-9.66222	-5.175124E-006	0.0254322	7
	26	191	751.7689	22802.13	-4829.872	1	23308.04	-11.95944	-6.495398E-006	0.0248746	7
	27	194	597.4265	23464.06	-5119.269	1	24016.02	-12.30764	-1.77441E-006	0.0211429	7
	28	197	477.4305	24272.03	-6691.237	1	25177.46	-15.4123	-6.139403E-008	0.0006411	7
	29	200	376.6741	25161.91	-7792.878	1	26341.05	-17.20824	-6.615521E-008	0.0006815	7
	30	202	298.2954	26157.99	-9034.017	1	27674.06	-19.05305	-5.696676E-008	0.0006236	7
	31	205	237.7717	27293.88	-10418.11	1	29214.59	-20.89192	-6.614972E-008	0.0006339	7
	32	207	189.0121	28617.05	-12006.45	1	31033.7	-22.76077	-5.894514E-008	0.0005911	7
	33	210	150.2404	30124.31	-13795.81	1	33133.04	-24.60602	-6.016862E-008	0.0005945	7
	34	212	119.1737	31773.03	-15792.27	1	35481.27	-26.42893	-6.492455E-008	0.0006915	7
	35	214	95.0169	33541.61	-18012.8	1	38072.31	-28.23707	-6.798583E-008	0.0006655	7
	36	217	75.60484	35534.22	-20507.12	1	41027.1	-29.98964	-6.536E-009	0.0006718	6
	37	219	54.50582	38029.99	-24926.25	1	45470.85	-33.24231	-7.231673E-009	0.0007138	6
	38	222	45.95588	39575.98	-27824.88	1	48378.54	-35.11009	-6.807664E-009	0.000642	6
	39	224	37.20238	41216.29	-32068.63	1	52222.4	-37.88496	-6.286334E-009	0.0006381	6
	40	227	30.04808	42843.42	-37330.16	1	56825.16	-41.06616	-6.12362E-009	0.0006322	6
	41	229	23.91582	44663.13	-44456.28	1	63017.11	-44.86701	-7.419938E-009	0.0007132	6
	42	231	18.60119	46575.6	-54368.25	1	71590.45	-49.41436	-7.209027E-009	0.0006396	6
	43	234	15.02404	48415.52	-65119.25	1	81145.42	-53.36956	-7.176229E-009	0.0006861	6
	44	236	12.01923	50532.86	-79018.04	1	93794.57	-57.40066	-6.093822E-009	0.0006339	6
	45	239	9.450605	53208.64	-97815.1	1	111350.6	-61.45506	-7.819468E-009	0.000698	6
	46	241	7.512019	56002.98	-120511.8	1	132888.7	-65.07525	-7.160746E-009	0.0007222	6
	47	244	5.978954	59575.55	-148537	1	160039.1	-68.14516	-7.243019E-009	0.0007266	6
	48	248	4.734848	63898.73	-184311	1	195073.3	-70.8791	-6.46331E-009	0.00063	6
	49	252	3.75601	69288.48	-228652.7	1	238920.4	-73.14165	-6.367524E-009	0.0006786	6
	50	257	3.004808	75695.55	-281547	1	291545.1	-74.95155	-7.222883E-009	0.000671	6
	51	264	2.372217	84179.05	-351442.3	1	361383.1	-76.53003	-7.135435E-009	0.000611	6
	52	268	1.878005	93769.65	-438776.7	1	448684.5	-77.93695	-6.96307E-010	0.0006584	5
	53	273	1.512097	103998.7	-536529.6	1	546515.9	-79.03006	-9.220378E-010	0.0006922	5
	54	278	1.201923	118788.2	-667936.8	1	678417.4	-79.91576	-7.104143E-010	0.0006728	5
	55	284	0.956633	136613.2	-827882.5	1	839078.4	-80.62977	-8.271608E-010	2.266069E-005	5
