EXPLAIN
TAG	EISPOT
TITLE	LABEL	Potentiostatic EIS	Test Identifier
DATE	LABEL	2/26/2021	Date
TIME	LABEL	16:00:01	Time
NOTES	NOTES	1	Notes...
	
PSTAT	PSTAT	REF3000-16137	Potentiostat
VDC	POTEN	0.00000E+000	T	DC Voltage (V)
FREQINIT	QUANT	3.00000E+005	Initial Freq. (Hz)
FREQFINAL	QUANT	1.00000E+000	Final Freq. (Hz)
PTSPERDEC	QUANT	1.00000E+001	Points/decade
VAC	QUANT	5.00000E+001	AC Voltage (mV rms)
AREA	QUANT	1.00000E+000	Sample Area (cm^2)
SPEED	SELECTOR	2	Optimize for:
ZGUESS	QUANT	1.00000E+003	Estimated Z (ohms)
EOC	QUANT	0	Open Circuit (V)
SEQUENCER	TOGGLE	TRUE	Run as Sequence
PSTATMODEL	IQUANT	5	Pstat Model
PSTATSECTION	LABEL	REF3000-16137	Pstat Section
PSTATSERIALNO	LABEL	16137	Pstat Serial Number
CTRLMODE	IQUANT	1	Control Mode
IESTAB	IQUANT	0	I/E Stability
CASPEED	IQUANT	1	Control Amp Speed
CONVENTION	IQUANT	1	Current Convention
ICHRANGE	IQUANT	2	Ich Range
ICHRANGEMODE	TOGGLE	F	Ich Auto Range
ICHOFFSETENABLE	TOGGLE	T	Ich Offset Enable
ICHOFFSET	QUANT	0	Ich Offset (V)
ICHFILTER	IQUANT	3	Ich Filter
VCHRANGE	IQUANT	2	Vch Range
VCHRANGEMODE	TOGGLE	F	Vch Auto Range
VCHOFFSETENABLE	TOGGLE	T	Vch Offset Enable
VCHOFFSET	QUANT	0	Vch Offset (V)
VCHFILTER	IQUANT	3	Vch Filter
ACHRANGE	IQUANT	2	Ach Range
ACHOFFSETENABLE	TOGGLE	F	Ach Offset Enable
ACHOFFSET	QUANT	0	Ach Offset (V)
ACHFILTER	IQUANT	3	Ach Filter
IERANGELOWERLIMIT	IQUANT	2	I/E Range Lower Limit
IERANGEMODE	TOGGLE	F	I/E AutoRange
IERANGE	IQUANT	11	I/E Range
POSFEEDENABLE	TOGGLE	F	Positive Feedback IR Comp
POSFEEDRESISTANCE	QUANT	0	Positive Feedback Resistance (ohm)
ACHSELECT	IQUANT	0	Ach Select
CABLEID	IQUANT	13	Cable ID
DCCALDATE	LABEL	7/31/2020	DC Calibration Date
ACCALDATE	LABEL	7/31/2020	AC Calibration Date
THERMOSELECT	IQUANT	1	Thermo Select
FRAMEWORKVERSION	QUANT	6.33	Framework Version
INSTRUMENTVERSION	LABEL	3.50	Instrument Version
COMPLIANCEVOLTAGE	IQUANT	0	Compliance Voltage
ZCURVE	TABLE
	Pt	Time	Freq	Zreal	Zimag	Zsig	Zmod	Zphz	Idc	Vdc	IERange
	#	s	Hz	ohm	ohm	V	ohm	°	A	V	#
	0	14	300046.9	-43.21807	-4859.792	1	4859.984	-90.50951	-1.440883E-005	0.0017554	9
	1	28	238359.4	50.13232	-5987.273	1	5987.483	-89.52026	8.530873E-005	-0.0034709	9
	2	52	189328.1	-71.29561	-7618.225	1	7618.559	-90.53619	1.980763E-005	-0.0003609	9
	3	60	150421.9	227.3969	-9777.55	1	9780.19	-88.66771	-2.026719E-005	0.0012556	9
	4	68	119484.4	488.2136	-11609.01	1	11619.27	-87.59186	1.974707E-005	-0.008982	8
	5	75	94921.88	107.5982	-14693.96	1	14694.35	-89.58045	1.991951E-005	6.617742E-005	9
	6	84	75421.88	729.6404	-18413.86	1	18428.31	-87.73087	-9.413614E-006	-0.0020941	8
	7	92	59859.37	823.9138	-22789.65	1	22804.54	-87.92949	-1.974097E-005	0.0113357	8
	8	100	47578.12	4058.472	-29966.41	1	30239.99	-82.28713	2.750728E-006	0.0085082	7
	9	108	37828.12	189.8571	-36219.72	1	36220.21	-89.69967	2.628066E-005	-0.0051503	8
	10	116	30046.88	912.9143	-45206.85	1	45216.07	-88.84312	-1.578911E-005	0.0006405	8
	11	125	23859.38	4981.553	-57886.37	1	58100.33	-85.08139	-1.821422E-006	0.02203	7
	12	130	18984.38	5582.931	-72445.63	1	72660.43	-85.59328	-3.311066E-006	-0.0052393	7
	13	135	15046.87	-2461.922	-88644.21	1	88678.39	-91.59087	-2.6112E-005	0.0075131	8
	14	143	11953.13	2294.356	-115196.1	1	115219	-88.85899	-2.563459E-005	0.0007136	9
	15	151	9515.62	1201.447	-138378.3	1	138383.5	-89.50255	-1.586038E-005	0.0006417	8
	16	158	7546.875	8078.427	-181969.2	1	182148.4	-87.45805	4.946984E-006	-0.0006145	7
	17	164	5928.309	2751.706	-216784.9	1	216802.4	-89.27277	-1.746928E-006	0.0219566	7
	18	170	4733.456	205511.2	-461135.7	1	504857.4	-65.97923	-9.186109E-007	-0.0050785	8
	19	178	3796.875	54876.47	-361897.9	1	366034.9	-81.37762	-6.55265E-007	0.0103375	6
	20	184	2987.132	21933.92	-473196.9	1	473705	-87.34609	4.950995E-006	-0.0006413	7
	21	190	2390.625	49875.25	-541679	1	543970.3	-84.73931	7.733421E-006	-0.0243875	7
	22	198	1884.191	723308.6	616404.1	1	950331	40.43766	2.265034E-005	-0.0095967	8
	23	206	1516.544	-65801.92	-679942.1	1	683118.7	-95.5276	-1.589017E-005	0.0006732	8
	24	214	1193.986	117518	751029.1	1	760167.9	81.1067	-1.971581E-005	0.0113249	8
	25	225	946.5144	1637530	-868991.6	1	1853821	-27.95364	6.480469E-006	-0.0094384	7
	26	231	751.7689	-1835489	573701	1	1923058	162.6428	-5.337643E-006	0.0034405	7
	27	237	597.4265	3178107	-625364.3	1	3239050	-11.13202	-6.404754E-006	0.0256774	7
	28	243	477.4305	724276.3	-2619410	1	2717698	-74.54369	-5.94391E-008	0.000611	7
	29	250	376.6741	1487656	-3148532	1	3482294	-64.70965	-8.495837E-010	0.0006613	5
	30	254	298.2954	1645341	-3750158	1	4095221	-66.31106	-6.450464E-009	0.0006828	6
	31	258	237.7717	2647717	-4239513	1	4998387	-58.01384	-6.852738E-010	0.0006785	5
	32	262	189.0121	3538854	-4727213	1	5905085	-53.18099	-7.157457E-010	0.0006492	5
	33	266	150.2404	4549094	-5003656	1	6762457	-47.72433	-7.404376E-010	0.0006679	5
	34	270	119.1737	5263474	-4705492	1	7060157	-41.79639	-6.219968E-010	0.0006805	5
	35	274	95.0169	6649225	-5019306	1	8331004	-37.04809	-7.221608E-010	0.000694	5
	36	278	75.60484	7511805	-4336441	1	8673635	-29.99713	-5.859376E-010	0.0006045	5
	37	281	54.50582	8849386	-3927604	1	9.681823E+006	-23.93298	-7.428698E-010	0.0006314	5
	38	284	45.95588	1.015283E+007	-3086130	1	1.061151E+007	-16.90757	-1.642713E-011	0.0006754	4
	39	287	37.20238	1.018239E+007	-1862606	1	1.035134E+007	-10.36618	-1.478319E-010	0.000706	4
	40	289	30.04808	1.065428E+007	-1784802	1	1.080274E+007	-9.50987	-1.107967E-010	0.0007029	4
	41	292	23.91582	1.038351E+007	-1919989	1	1.055953E+007	-10.47609	-1.965932E-010	0.0006186	4
	42	295	18.60119	1.088087E+007	-2229246	1	1.110689E+007	-11.57839	4.111732E-011	0.0006923	4
	43	297	15.02404	1.089519E+007	-1278842	1	1.096998E+007	-6.694561	-4.825685E-011	0.0006757	4
	44	300	12.01923	1.083387E+007	-1259523	1	1.090684E+007	-6.63132	-8.028191E-012	0.0006646	4
	45	302	9.450605	1.106519E+007	-1282117	1	1.113923E+007	-6.60935	-6.697392E-011	0.0006869	4
	46	305	7.512019	1.112123E+007	-1389857	1	1.120774E+007	-7.123512	-1.341349E-010	0.0006014	4
	47	308	5.978954	1.11141E+007	-1551188	1	1.122183E+007	-7.945409	-2.037085E-011	0.0006177	4
	48	313	4.734848	1.123801E+007	-1578211	1	1.134828E+007	-7.994061	-1.039772E-010	0.0006203	4
	49	317	3.75601	1.134246E+007	-1794728	1	1.148357E+007	-8.991423	-8.77657E-011	0.0006992	4
	50	323	3.004808	1.145965E+007	-1982745	1	1.162992E+007	-9.81611	-5.086901E-011	0.0006007	4
	51	329	2.372217	1.171088E+007	-2294168	1	1.193348E+007	-11.08391	-1.032822E-010	0.0005956	4
	52	333	1.878005	1.193429E+007	-2672811	1	1.222993E+007	-12.6237	-5.388448E-011	0.0006717	4
	53	338	1.512097	1.219278E+007	-3076175	1	1.257484E+007	-14.15992	-2.201788E-011	0.0005781	4
	54	344	1.201923	1.251458E+007	-3543980	1	1.300671E+007	-15.81149	-7.235361E-011	0.0006913	4
	55	350	0.956633	1.292125E+007	-4102640	1	1.355693E+007	-17.61522	-1.440442E-010	2.066021E-005	4
