EXPLAIN
TAG	EISPOT
TITLE	LABEL	Potentiostatic EIS	Test Identifier
DATE	LABEL	2/26/2021	Date
TIME	LABEL	13:58:09	Time
NOTES	NOTES	1	Notes...
	
PSTAT	PSTAT	REF3000-16137	Potentiostat
VDC	POTEN	0.00000E+000	T	DC Voltage (V)
FREQINIT	QUANT	3.00000E+005	Initial Freq. (Hz)
FREQFINAL	QUANT	1.00000E+000	Final Freq. (Hz)
PTSPERDEC	QUANT	1.00000E+001	Points/decade
VAC	QUANT	5.00000E+001	AC Voltage (mV rms)
AREA	QUANT	1.00000E+000	Sample Area (cm^2)
SPEED	SELECTOR	2	Optimize for:
ZGUESS	QUANT	1.00000E+003	Estimated Z (ohms)
EOC	QUANT	0	Open Circuit (V)
SEQUENCER	TOGGLE	TRUE	Run as Sequence
PSTATMODEL	IQUANT	5	Pstat Model
PSTATSECTION	LABEL	REF3000-16137	Pstat Section
PSTATSERIALNO	LABEL	16137	Pstat Serial Number
CTRLMODE	IQUANT	1	Control Mode
IESTAB	IQUANT	0	I/E Stability
CASPEED	IQUANT	1	Control Amp Speed
CONVENTION	IQUANT	1	Current Convention
ICHRANGE	IQUANT	2	Ich Range
ICHRANGEMODE	TOGGLE	F	Ich Auto Range
ICHOFFSETENABLE	TOGGLE	T	Ich Offset Enable
ICHOFFSET	QUANT	0	Ich Offset (V)
ICHFILTER	IQUANT	3	Ich Filter
VCHRANGE	IQUANT	2	Vch Range
VCHRANGEMODE	TOGGLE	F	Vch Auto Range
VCHOFFSETENABLE	TOGGLE	T	Vch Offset Enable
VCHOFFSET	QUANT	0	Vch Offset (V)
VCHFILTER	IQUANT	3	Vch Filter
ACHRANGE	IQUANT	2	Ach Range
ACHOFFSETENABLE	TOGGLE	F	Ach Offset Enable
ACHOFFSET	QUANT	0	Ach Offset (V)
ACHFILTER	IQUANT	3	Ach Filter
IERANGELOWERLIMIT	IQUANT	2	I/E Range Lower Limit
IERANGEMODE	TOGGLE	F	I/E AutoRange
IERANGE	IQUANT	11	I/E Range
POSFEEDENABLE	TOGGLE	F	Positive Feedback IR Comp
POSFEEDRESISTANCE	QUANT	0	Positive Feedback Resistance (ohm)
ACHSELECT	IQUANT	0	Ach Select
CABLEID	IQUANT	13	Cable ID
DCCALDATE	LABEL	7/31/2020	DC Calibration Date
ACCALDATE	LABEL	7/31/2020	AC Calibration Date
THERMOSELECT	IQUANT	1	Thermo Select
FRAMEWORKVERSION	QUANT	6.33	Framework Version
INSTRUMENTVERSION	LABEL	3.50	Instrument Version
COMPLIANCEVOLTAGE	IQUANT	0	Compliance Voltage
ZCURVE	TABLE
	Pt	Time	Freq	Zreal	Zimag	Zsig	Zmod	Zphz	Idc	Vdc	IERange
	#	s	Hz	ohm	ohm	V	ohm	°	A	V	#
	0	7	300046.9	36.7802	-3.338263	1	36.93138	-5.186099	1.244896E-005	-0.0002556	9
	1	10	238359.4	37.46889	-4.935224	1	37.79251	-7.503533	-2.650805E-005	-0.0004093	9
	2	13	189328.1	38.18399	-6.631015	1	38.75548	-9.85171	3.077569E-005	-0.0005748	9
	3	16	150421.9	39.06036	-8.382581	1	39.94971	-12.11229	4.834793E-006	-0.0007902	9
	4	18	119484.4	40.15952	-10.38367	1	41.4802	-14.49694	2.414157E-005	-6.063854E-005	9
	5	21	94921.88	41.42567	-12.31464	1	43.21732	-16.55568	5.823595E-006	-0.0003503	9
	6	23	75421.88	42.83947	-14.66391	1	45.2797	-18.89603	-1.178076E-005	0.0001895	9
	7	26	59859.37	44.46997	-17.20469	1	47.68207	-21.15062	-1.362037E-005	0.0004487	9
	8	28	47578.12	46.30086	-20.05313	1	50.45689	-23.41767	-8.462889E-006	0.0001448	9
	9	31	37828.12	48.298	-23.2358	1	53.59663	-25.69185	-1.379842E-005	0.0005576	9
	10	33	30046.88	50.45085	-26.92791	1	57.18741	-28.09086	4.140215E-006	0.000225	9
	11	36	23859.38	52.60992	-31.09255	1	61.11097	-30.58316	-1.02455E-005	0.0006207	9
	12	38	18984.38	54.76938	-36.12887	1	65.61234	-33.41102	-6.283632E-006	0.0005786	9
	13	42	15046.87	56.97404	-42.43042	1	71.03789	-36.67625	1.53029E-005	-0.0004242	9
	14	44	11953.13	59.14259	-50.325	1	77.65598	-40.39478	-1.31476E-005	0.0002362	9
	15	46	9515.62	61.37902	-59.84833	1	85.72751	-44.27659	2.578855E-006	-0.000204	9
	16	48	7546.875	63.76908	-72.36344	1	96.4519	-48.61242	4.877416E-006	0.0002902	9
	17	51	5928.309	66.61383	-88.62928	1	110.8718	-53.07145	1.828211E-005	-0.0003337	9
	18	53	4733.456	69.69831	-107.518	1	128.1327	-57.04677	1.572083E-005	-0.0001402	9
	19	55	3796.875	73.34928	-130.6672	1	149.8467	-60.69257	1.613963E-005	-0.000418	9
	20	58	2987.132	78.27887	-161.6225	1	179.5813	-64.15764	1.803588E-005	-0.0004032	9
	21	60	2390.625	83.45296	-197.6511	1	214.5468	-67.10938	-1.487825E-005	0.0005178	9
	22	62	1884.191	91.69493	-244.0959	1	260.7504	-69.41125	-8.55204E-006	0.0001503	9
	23	65	1516.544	100.1578	-297.018	1	313.4506	-71.36532	1.988333E-006	-0.0001819	9
	24	67	1193.986	111.2215	-369.7918	1	386.1557	-73.2604	1.603033E-005	-0.0001365	9
	25	69	946.5144	125.7198	-453.2422	1	470.3552	-74.49711	-2.01878E-006	0.0016021	8
	26	72	751.7689	143.0237	-557.9828	1	576.0213	-75.62331	3.586049E-006	-0.0002631	8
	27	74	597.4265	166.5907	-687.3932	1	707.292	-76.37695	-5.557822E-007	0.0013332	8
	28	76	477.4305	193.9736	-839.902	1	862.0099	-76.99567	2.406283E-007	0.0006722	8
	29	79	376.6741	230.9387	-1039.072	1	1064.426	-77.46941	2.4983E-007	0.0006684	8
	30	81	298.2954	277.1486	-1280.643	1	1310.289	-77.78872	2.584583E-007	0.0006654	8
	31	83	237.7717	333.9656	-1568.452	1	1603.613	-77.9797	2.533053E-007	0.0006626	8
	32	86	189.0121	406.9691	-1925.004	1	1967.553	-78.06276	2.608099E-007	0.0006628	8
	33	88	150.2404	500.1061	-2361.048	1	2413.432	-78.04064	2.645787E-007	0.0006617	8
	34	92	119.1737	621.1437	-2901.078	1	2966.829	-77.91499	2.615962E-007	0.0006659	8
	35	94	95.0169	773.2014	-3543.195	1	3626.578	-77.68981	2.692125E-007	0.0006623	8
	36	96	75.60484	974.178	-4340.909	1	4448.878	-77.35136	-1.994243E-007	0.0006375	7
	37	99	54.50582	1366.407	-5773.155	1	5932.654	-76.68411	-1.994471E-007	0.0006346	7
	38	101	45.95588	1641.609	-6695.878	1	6894.176	-76.22467	-1.901022E-007	0.0006479	7
	39	104	37.20238	2068.147	-8026.922	1	8289.072	-75.5519	-1.971277E-007	0.0006437	7
	40	106	30.04808	2612.639	-9609.87	1	9958.69	-74.79059	-1.996247E-007	0.0006444	7
	41	109	23.91582	3381.427	-11634.62	1	12116.04	-73.79429	-2.008845E-007	0.0006311	7
	42	111	18.60119	4518.246	-14286.23	1	14983.69	-72.44962	-1.874855E-007	0.0006456	7
	43	113	15.02404	5764.642	-16946.61	1	17900.24	-71.2135	-1.875233E-007	0.0006384	7
	44	115	12.01923	7462.213	-20142.12	1	21479.98	-69.67143	-1.984156E-007	0.0006429	7
	45	118	9.450605	9800.84	-24083.11	1	26001.01	-67.85568	-1.993903E-007	0.0006408	7
	46	120	7.512019	12665.25	-28416.82	1	31111.48	-65.97768	-1.894773E-007	0.0006297	7
	47	123	5.978954	16253.3	-33091.34	1	36867.41	-63.84135	-1.841102E-007	0.0006444	7
	48	126	4.734848	20767.02	-38394.32	1	43650.8	-61.59158	-1.851091E-007	0.0006431	7
	49	129	3.75601	26170.94	-43949.65	1	51151.64	-59.22724	-2.3563E-007	0.0007093	6
	50	133	3.004808	32241.7	-49569.16	1	59132.3	-56.95847	-2.376707E-007	0.0007481	6
	51	137	2.372217	39775.48	-55748.47	1	68483.43	-54.49286	-2.350745E-007	0.000786	6
	52	141	1.878005	48100.31	-62159.59	1	78596.79	-52.26659	-2.373308E-007	0.0006943	6
	53	146	1.512097	56657.11	-68284.36	1	88728.7	-50.31672	-2.354166E-007	0.0006823	6
	54	151	1.201923	66937.55	-75035.86	1	100553.5	-48.26468	-2.345605E-007	0.0006887	6
	55	157	0.956633	78233.73	-82001.38	1	113334.6	-46.34696	-2.36134E-007	7.010802E-005	6
