EXPLAIN
TAG	EISPOT
TITLE	LABEL	Potentiostatic EIS	Test Identifier
DATE	LABEL	2/26/2021	Date
TIME	LABEL	16:06:00	Time
NOTES	NOTES	1	Notes...
	
PSTAT	PSTAT	REF3000-16137	Potentiostat
VDC	POTEN	0.00000E+000	T	DC Voltage (V)
FREQINIT	QUANT	3.00000E+005	Initial Freq. (Hz)
FREQFINAL	QUANT	1.00000E+000	Final Freq. (Hz)
PTSPERDEC	QUANT	1.00000E+001	Points/decade
VAC	QUANT	5.00000E+001	AC Voltage (mV rms)
AREA	QUANT	1.00000E+000	Sample Area (cm^2)
SPEED	SELECTOR	2	Optimize for:
ZGUESS	QUANT	1.00000E+003	Estimated Z (ohms)
EOC	QUANT	0	Open Circuit (V)
SEQUENCER	TOGGLE	TRUE	Run as Sequence
PSTATMODEL	IQUANT	5	Pstat Model
PSTATSECTION	LABEL	REF3000-16137	Pstat Section
PSTATSERIALNO	LABEL	16137	Pstat Serial Number
CTRLMODE	IQUANT	1	Control Mode
IESTAB	IQUANT	0	I/E Stability
CASPEED	IQUANT	1	Control Amp Speed
CONVENTION	IQUANT	1	Current Convention
ICHRANGE	IQUANT	2	Ich Range
ICHRANGEMODE	TOGGLE	F	Ich Auto Range
ICHOFFSETENABLE	TOGGLE	T	Ich Offset Enable
ICHOFFSET	QUANT	0	Ich Offset (V)
ICHFILTER	IQUANT	3	Ich Filter
VCHRANGE	IQUANT	2	Vch Range
VCHRANGEMODE	TOGGLE	F	Vch Auto Range
VCHOFFSETENABLE	TOGGLE	T	Vch Offset Enable
VCHOFFSET	QUANT	0	Vch Offset (V)
VCHFILTER	IQUANT	3	Vch Filter
ACHRANGE	IQUANT	2	Ach Range
ACHOFFSETENABLE	TOGGLE	F	Ach Offset Enable
ACHOFFSET	QUANT	0	Ach Offset (V)
ACHFILTER	IQUANT	3	Ach Filter
IERANGELOWERLIMIT	IQUANT	2	I/E Range Lower Limit
IERANGEMODE	TOGGLE	F	I/E AutoRange
IERANGE	IQUANT	11	I/E Range
POSFEEDENABLE	TOGGLE	F	Positive Feedback IR Comp
POSFEEDRESISTANCE	QUANT	0	Positive Feedback Resistance (ohm)
ACHSELECT	IQUANT	0	Ach Select
CABLEID	IQUANT	13	Cable ID
DCCALDATE	LABEL	7/31/2020	DC Calibration Date
ACCALDATE	LABEL	7/31/2020	AC Calibration Date
THERMOSELECT	IQUANT	1	Thermo Select
FRAMEWORKVERSION	QUANT	6.33	Framework Version
INSTRUMENTVERSION	LABEL	3.50	Instrument Version
COMPLIANCEVOLTAGE	IQUANT	0	Compliance Voltage
ZCURVE	TABLE
	Pt	Time	Freq	Zreal	Zimag	Zsig	Zmod	Zphz	Idc	Vdc	IERange
	#	s	Hz	ohm	ohm	V	ohm	°	A	V	#
	0	20	300046.9	-2.25637	-4835.63	1	4835.63	-90.02673	1.919083E-005	-0.0004835	9
	1	39	238359.4	28.21611	-5960.924	1	5960.991	-89.72879	2.392577E-005	0.0010008	9
	2	53	189328.1	120.874	-7129.68	1	7130.704	-89.02872	-1.491089E-005	0.0018024	9
	3	61	150421.9	714.9191	-8535.408	1	8565.297	-85.21213	7.775495E-005	-0.0014701	9
	4	68	119484.4	14.11296	-11558.66	1	11558.67	-89.93005	2.367526E-005	0.0011013	9
	5	77	94921.88	653.4413	-14454.69	1	14469.45	-87.41164	-2.030142E-005	0.0028209	8
	6	85	75421.88	549.4985	-18535.37	1	18543.52	-88.30191	1.748467E-005	0.0003892	8
	7	94	59859.37	752.1379	-22710.84	1	22723.29	-88.10317	-2.47983E-005	0.0110511	8
	8	102	47578.12	4271.926	-30105.48	1	30407.06	-81.92373	-6.700239E-006	0.0120376	7
	9	110	37828.12	3110.948	-36644.93	1	36776.75	-85.14754	1.741151E-005	0.0003894	8
	10	118	30046.88	4738.523	-46245.54	1	46487.67	-84.14964	-1.046446E-006	-0.0135095	7
	11	126	23859.38	5303.104	-57443.77	1	57688.03	-84.72551	2.726124E-006	0.0085781	7
	12	131	18984.38	5358.788	-71711.05	1	71910.99	-85.72637	-6.581613E-006	0.025876	7
	13	136	15046.87	-3541.844	-89480.02	1	89550.09	-92.26673	-1.565291E-005	0.000704	8
	14	144	11953.13	5953.114	-111655.8	1	111814.4	-86.94807	-3.789089E-006	0.0254416	7
	15	150	9515.62	6443.125	-143074.6	1	143219.6	-87.42152	-7.486492E-006	0.0190995	7
	16	156	7546.875	10304.01	-176544.3	1	176844.8	-86.65972	5.361285E-006	-0.0267435	7
	17	161	5928.309	7541.353	-225071.5	1	225197.8	-88.08094	-7.373137E-006	0.0189738	7
	18	166	4733.456	-3892.399	-289844	1	289870.1	-90.76939	7.600107E-006	-0.0183829	7
	19	173	3796.875	7137.822	-356350.7	1	356422.1	-88.8525	-3.295756E-006	-0.0052729	7
	20	179	2987.132	-145.6404	-361708.2	1	361708.2	-90.02307	-1.018203E-006	-0.0133498	7
	21	186	2390.625	62742.59	-552617.8	1	556168.1	-83.52254	7.353666E-007	-0.0161398	6
	22	191	1884.191	105892.4	-702314.4	1	710252.6	-81.42574	1.592551E-009	0.0172601	6
	23	196	1516.544	115129.3	-868634.1	1	876230.6	-82.44999	7.332316E-007	-0.0159871	6
	24	202	1193.986	125707	-1099063	1	1106229	-83.47506	6.128888E-007	-0.0072528	6
	25	207	946.5144	348211.3	-1146285	1	1198007	-73.10259	4.204829E-007	0.0022186	6
	26	211	751.7689	574934.7	-1810318	1	1899421	-72.38079	7.370168E-007	-0.027484	6
	27	215	597.4265	258523.2	-2407128	1	2420971	-83.86999	-2.072405E-007	0.0219345	6
	28	220	477.4305	750230.9	-2597939	1	2704095	-73.89238	-7.442373E-009	0.0006915	6
	29	223	376.6741	1106953	-3172112	1	3359709	-70.76285	-7.119884E-009	0.0006729	6
	30	227	298.2954	1991531	-3725158	1	4224097	-61.8703	-7.477149E-010	0.0006639	5
	31	231	237.7717	2683774	-4273843	1	5046620	-57.87309	-7.892795E-010	0.0006865	5
	32	235	189.0121	3545788	-4747748	1	5925683	-53.24631	-7.222585E-010	0.0006157	5
	33	239	150.2404	4522682	-5058294	1	6785351	-48.19971	-7.463162E-010	0.0006711	5
	34	243	119.1737	5245855	-4810280	1	7117428	-42.51982	-6.490714E-010	0.0006628	5
	35	247	95.0169	6985179	-5010320	1	8596279	-35.65107	-8.777141E-010	0.0007124	5
	36	250	75.60484	8363077	-5133575	1	9.812984E+006	-31.54318	-7.853835E-010	0.000688	5
	37	253	54.50582	9190897	-4044345	1	1.004138E+007	-23.75133	-7.522766E-010	0.0006591	5
	38	256	45.95588	1.018037E+007	-2320756	1	1.044155E+007	-12.84191	-1.571388E-011	0.000711	4
	39	258	37.20238	1.074848E+007	-2848277	1	1.111946E+007	-14.84188	-1.805415E-010	0.0006338	4
	40	261	30.04808	1.08464E+007	-1944289	1	1.101928E+007	-10.16272	-7.190828E-011	0.0007081	4
	41	264	23.91582	1.090926E+007	-1854357	1	1.106574E+007	-9.64693	-9.77939E-011	0.0007073	4
	42	267	18.60119	9.606454E+006	-1527204	1	9.727092E+006	-9.033113	-4.382758E-010	0.0006559	4
	43	269	15.02404	1.091252E+007	-1396524	1	1.100151E+007	-7.292758	-3.968895E-011	0.0006283	4
	44	272	12.01923	1.102083E+007	-1216979	1	1.108782E+007	-6.301377	-1.154098E-010	0.0006447	4
	45	274	9.450605	1.110541E+007	-1301193	1	1.118138E+007	-6.682732	-9.915292E-011	0.0007139	4
	46	277	7.512019	1.116364E+007	-1286810	1	1.123756E+007	-6.57535	-5.262387E-011	0.0007285	4
	47	280	5.978954	1.12324E+007	-1549814	1	1.133881E+007	-7.855905	-1.260152E-010	0.0007126	4
	48	284	4.734848	1.13854E+007	-1590326	1	1.149593E+007	-7.951697	-4.326928E-011	0.0006793	4
	49	289	3.75601	1.149247E+007	-1827780	1	1.163691E+007	-9.036726	-8.578975E-011	0.0007165	4
	50	295	3.004808	1.158383E+007	-2022469	1	1.175906E+007	-9.90368	-9.064175E-011	0.0007208	4
	51	301	2.372217	1.18479E+007	-2315092	1	1.207197E+007	-11.05634	-7.339698E-011	0.0007466	4
	52	305	1.878005	1.207864E+007	-2703627	1	1.237752E+007	-12.61686	-1.309114E-010	0.0006487	4
	53	310	1.512097	1.2338E+007	-3096350	1	1.27206E+007	-14.08802	-1.381961E-010	0.0007187	4
	54	315	1.201923	1.265234E+007	-3569161	1	1.314613E+007	-15.75349	-8.974525E-011	0.000634	4
	55	321	0.956633	1.308607E+007	-4119315	1	1.371911E+007	-17.47329	-1.699666E-010	2.268195E-005	4
