EXPLAIN
TAG	EISPOT
TITLE	LABEL	Potentiostatic EIS	Test Identifier
DATE	LABEL	2/26/2021	Date
TIME	LABEL	14:03:41	Time
NOTES	NOTES	1	Notes...
	
PSTAT	PSTAT	REF3000-16137	Potentiostat
VDC	POTEN	0.00000E+000	T	DC Voltage (V)
FREQINIT	QUANT	3.00000E+005	Initial Freq. (Hz)
FREQFINAL	QUANT	1.00000E+000	Final Freq. (Hz)
PTSPERDEC	QUANT	1.00000E+001	Points/decade
VAC	QUANT	5.00000E+001	AC Voltage (mV rms)
AREA	QUANT	1.00000E+000	Sample Area (cm^2)
SPEED	SELECTOR	2	Optimize for:
ZGUESS	QUANT	1.00000E+003	Estimated Z (ohms)
EOC	QUANT	0	Open Circuit (V)
SEQUENCER	TOGGLE	TRUE	Run as Sequence
PSTATMODEL	IQUANT	5	Pstat Model
PSTATSECTION	LABEL	REF3000-16137	Pstat Section
PSTATSERIALNO	LABEL	16137	Pstat Serial Number
CTRLMODE	IQUANT	1	Control Mode
IESTAB	IQUANT	0	I/E Stability
CASPEED	IQUANT	1	Control Amp Speed
CONVENTION	IQUANT	1	Current Convention
ICHRANGE	IQUANT	2	Ich Range
ICHRANGEMODE	TOGGLE	F	Ich Auto Range
ICHOFFSETENABLE	TOGGLE	T	Ich Offset Enable
ICHOFFSET	QUANT	0	Ich Offset (V)
ICHFILTER	IQUANT	3	Ich Filter
VCHRANGE	IQUANT	2	Vch Range
VCHRANGEMODE	TOGGLE	F	Vch Auto Range
VCHOFFSETENABLE	TOGGLE	T	Vch Offset Enable
VCHOFFSET	QUANT	0	Vch Offset (V)
VCHFILTER	IQUANT	3	Vch Filter
ACHRANGE	IQUANT	2	Ach Range
ACHOFFSETENABLE	TOGGLE	F	Ach Offset Enable
ACHOFFSET	QUANT	0	Ach Offset (V)
ACHFILTER	IQUANT	3	Ach Filter
IERANGELOWERLIMIT	IQUANT	2	I/E Range Lower Limit
IERANGEMODE	TOGGLE	F	I/E AutoRange
IERANGE	IQUANT	11	I/E Range
POSFEEDENABLE	TOGGLE	F	Positive Feedback IR Comp
POSFEEDRESISTANCE	QUANT	0	Positive Feedback Resistance (ohm)
ACHSELECT	IQUANT	0	Ach Select
CABLEID	IQUANT	13	Cable ID
DCCALDATE	LABEL	7/31/2020	DC Calibration Date
ACCALDATE	LABEL	7/31/2020	AC Calibration Date
THERMOSELECT	IQUANT	1	Thermo Select
FRAMEWORKVERSION	QUANT	6.33	Framework Version
INSTRUMENTVERSION	LABEL	3.50	Instrument Version
COMPLIANCEVOLTAGE	IQUANT	0	Compliance Voltage
ZCURVE	TABLE
	Pt	Time	Freq	Zreal	Zimag	Zsig	Zmod	Zphz	Idc	Vdc	IERange
	#	s	Hz	ohm	ohm	V	ohm	°	A	V	#
	0	7	300046.9	42.39372	-3.691717	1	42.55416	-4.976859	-1.53749E-005	-0.0010243	9
	1	10	238359.4	42.97867	-5.392691	1	43.31567	-7.151736	3.927569E-007	-0.0012507	9
	2	13	189328.1	43.69189	-7.197784	1	44.28081	-9.354859	-3.273203E-005	0.0004213	9
	3	16	150421.9	44.64439	-9.139519	1	45.5703	-11.56963	-5.330135E-005	0.0019482	9
	4	18	119484.4	45.81429	-11.20214	1	47.16393	-13.73991	2.409718E-005	0.0001165	9
	5	21	94921.88	47.24076	-13.32821	1	49.08494	-15.75555	-2.186181E-006	0.0003674	9
	6	23	75421.88	48.73429	-15.83622	1	51.24273	-18.00159	-1.645403E-006	0.00044	9
	7	26	59859.37	50.48406	-18.661	1	53.82261	-20.2864	1.15649E-005	6.143848E-005	9
	8	28	47578.12	52.52283	-21.81076	1	56.87141	-22.55128	-1.615181E-005	0.0005211	9
	9	31	37828.12	54.76776	-25.27201	1	60.31734	-24.77047	-2.795359E-006	0.0004332	9
	10	35	30046.88	57.22522	-29.16531	1	64.22881	-27.00604	1.845909E-005	-0.0004484	9
	11	37	23859.38	59.76537	-33.66028	1	68.59237	-29.38852	1.840905E-005	-0.0004506	9
	12	39	18984.38	62.28441	-38.98752	1	73.48044	-32.0449	-8.336118E-006	0.0005412	9
	13	42	15046.87	64.78915	-45.38612	1	79.10458	-35.01202	8.517431E-006	-0.0003968	9
	14	44	11953.13	67.3131	-53.64417	1	86.0741	-38.55257	-1.207691E-005	0.0005959	9
	15	46	9515.62	69.72701	-63.50853	1	94.31431	-42.32778	4.827263E-006	0.0003092	9
	16	49	7546.875	72.3858	-76.29077	1	105.1665	-46.50452	-1.166507E-005	0.0006658	9
	17	51	5928.309	75.36933	-93.28756	1	119.9296	-51.0644	1.611978E-005	-0.0001391	9
	18	53	4733.456	78.49583	-112.993	1	137.5827	-55.21243	2.629786E-006	-0.0002553	9
	19	55	3796.875	82.27966	-136.9269	1	159.7465	-58.99826	1.655061E-005	-0.0004949	9
	20	58	2987.132	86.71579	-169.5763	1	190.4619	-62.91628	1.688277E-005	-0.0004827	9
	21	60	2390.625	92.34108	-207.1097	1	226.7627	-65.97002	1.29509E-005	-0.0005054	9
	22	62	1884.191	99.4353	-256.1946	1	274.8145	-68.78757	-1.533282E-005	0.0005463	9
	23	65	1516.544	107.4138	-313.4192	1	331.3145	-71.0826	-1.526984E-005	0.0005435	9
	24	67	1193.986	118.7122	-390.5146	1	408.1595	-73.0913	-1.166583E-005	0.0006307	9
	25	69	946.5144	132.3124	-479.5434	1	497.4619	-74.57511	-2.520974E-006	0.0010625	8
	26	72	751.7689	148.8203	-591.8967	1	610.3189	-75.88669	3.900911E-006	-0.0003969	8
	27	74	597.4265	170.7188	-729.7152	1	749.4193	-76.83234	2.029815E-006	-0.0002531	8
	28	76	477.4305	197.2456	-895.1028	1	916.5778	-77.57286	2.788374E-007	0.0006599	8
	29	79	376.6741	232.8357	-1110.179	1	1134.332	-78.15514	3.256231E-007	0.0006114	8
	30	81	298.2954	277.4218	-1371.76	1	1399.531	-78.56683	2.757745E-007	0.0006642	8
	31	83	237.7717	332.2803	-1684.188	1	1716.654	-78.83923	2.771928E-007	0.0006616	8
	32	86	189.0121	402.6841	-2072.168	1	2110.932	-79.00278	2.781423E-007	0.0006555	8
	33	88	150.2404	492.4062	-2548.274	1	2595.412	-79.06345	2.98606E-007	0.0006575	8
	34	91	119.1737	608.5383	-3139.066	1	3197.508	-79.02875	2.943055E-007	0.0006613	8
	35	93	95.0169	754.2986	-3846.05	1	3919.32	-78.90382	2.877434E-007	0.000653	8
	36	95	75.60484	947.0738	-4727.025	1	4820.966	-78.67062	-1.504264E-007	0.0006299	7
	37	98	54.50582	1322.27	-6319.875	1	6456.718	-78.1828	-1.481229E-007	0.0006334	7
	38	101	45.95588	1584.973	-7349.736	1	7518.694	-77.83051	-1.401652E-007	0.0006383	7
	39	103	37.20238	1991.521	-8850.122	1	9071.429	-77.31812	-1.471892E-007	0.0006312	7
	40	105	30.04808	2530.014	-10666.48	1	10962.43	-76.65644	-1.498279E-007	0.0006344	7
	41	108	23.91582	3293.724	-12997.2	1	13408.05	-75.77959	-1.480012E-007	0.0006387	7
	42	110	18.60119	4380.522	-16073.31	1	16659.54	-74.75519	-1.495818E-007	0.0006349	7
	43	112	15.02404	5651.288	-19199.05	1	20013.51	-73.59808	-1.371516E-007	0.0006455	7
	44	115	12.01923	7359.687	-23013.97	1	24162.12	-72.26614	-1.431401E-007	0.0006311	7
	45	117	9.450605	9812.73	-27835.34	1	29514.33	-70.58102	-1.456352E-007	0.0006215	7
	46	120	7.512019	12877.75	-33154.91	1	35568.03	-68.77326	-1.349163E-007	0.0006295	7
	47	122	5.978954	16741.91	-39073.42	1	42509.1	-66.80616	-1.35485E-007	0.0006315	7
	48	125	4.734848	21787.61	-45848.98	1	50762.48	-64.58276	-1.820259E-007	0.0007213	6
	49	131	3.75601	28012.59	-53229.4	1	60150.43	-62.24389	-1.818041E-007	0.0007161	6
	50	134	3.004808	35220.14	-60757.52	1	70227.73	-59.89984	-1.822201E-007	0.0006542	6
	51	139	2.372217	44343.39	-69090.16	1	82096.2	-57.30687	-1.822796E-007	0.0006438	6
	52	143	1.878005	54748.73	-77780.26	1	95116.7	-54.85868	-1.801837E-007	0.0006884	6
	53	148	1.512097	65474.45	-86003.37	1	108090.2	-52.71795	-1.806149E-007	0.0007545	6
	54	153	1.201923	78415.2	-94972.2	1	123161.1	-50.45472	-1.794033E-007	0.0007005	6
	55	159	0.956633	92561.63	-104272.8	1	139429.1	-48.40495	-1.833176E-007	5.426143E-005	6
