EXPLAIN
TAG	EISPOT
TITLE	LABEL	Potentiostatic EIS	Test Identifier
DATE	LABEL	2/26/2021	Date
TIME	LABEL	14:43:26	Time
NOTES	NOTES	1	Notes...
	
PSTAT	PSTAT	REF3000-16137	Potentiostat
VDC	POTEN	0.00000E+000	T	DC Voltage (V)
FREQINIT	QUANT	3.00000E+005	Initial Freq. (Hz)
FREQFINAL	QUANT	1.00000E+000	Final Freq. (Hz)
PTSPERDEC	QUANT	1.00000E+001	Points/decade
VAC	QUANT	5.00000E+001	AC Voltage (mV rms)
AREA	QUANT	1.00000E+000	Sample Area (cm^2)
SPEED	SELECTOR	2	Optimize for:
ZGUESS	QUANT	1.00000E+003	Estimated Z (ohms)
EOC	QUANT	0	Open Circuit (V)
SEQUENCER	TOGGLE	TRUE	Run as Sequence
PSTATMODEL	IQUANT	5	Pstat Model
PSTATSECTION	LABEL	REF3000-16137	Pstat Section
PSTATSERIALNO	LABEL	16137	Pstat Serial Number
CTRLMODE	IQUANT	1	Control Mode
IESTAB	IQUANT	0	I/E Stability
CASPEED	IQUANT	1	Control Amp Speed
CONVENTION	IQUANT	1	Current Convention
ICHRANGE	IQUANT	2	Ich Range
ICHRANGEMODE	TOGGLE	F	Ich Auto Range
ICHOFFSETENABLE	TOGGLE	T	Ich Offset Enable
ICHOFFSET	QUANT	0	Ich Offset (V)
ICHFILTER	IQUANT	3	Ich Filter
VCHRANGE	IQUANT	2	Vch Range
VCHRANGEMODE	TOGGLE	F	Vch Auto Range
VCHOFFSETENABLE	TOGGLE	T	Vch Offset Enable
VCHOFFSET	QUANT	0	Vch Offset (V)
VCHFILTER	IQUANT	3	Vch Filter
ACHRANGE	IQUANT	2	Ach Range
ACHOFFSETENABLE	TOGGLE	F	Ach Offset Enable
ACHOFFSET	QUANT	0	Ach Offset (V)
ACHFILTER	IQUANT	3	Ach Filter
IERANGELOWERLIMIT	IQUANT	2	I/E Range Lower Limit
IERANGEMODE	TOGGLE	F	I/E AutoRange
IERANGE	IQUANT	11	I/E Range
POSFEEDENABLE	TOGGLE	F	Positive Feedback IR Comp
POSFEEDRESISTANCE	QUANT	0	Positive Feedback Resistance (ohm)
ACHSELECT	IQUANT	0	Ach Select
CABLEID	IQUANT	13	Cable ID
DCCALDATE	LABEL	7/31/2020	DC Calibration Date
ACCALDATE	LABEL	7/31/2020	AC Calibration Date
THERMOSELECT	IQUANT	1	Thermo Select
FRAMEWORKVERSION	QUANT	6.33	Framework Version
INSTRUMENTVERSION	LABEL	3.50	Instrument Version
COMPLIANCEVOLTAGE	IQUANT	0	Compliance Voltage
ZCURVE	TABLE
	Pt	Time	Freq	Zreal	Zimag	Zsig	Zmod	Zphz	Idc	Vdc	IERange
	#	s	Hz	ohm	ohm	V	ohm	°	A	V	#
	0	13	300046.9	214.5515	-16.01451	1	215.1483	-4.268745	-1.838764E-005	0.0009063	9
	1	17	238359.4	216.603	-17.78531	1	217.3319	-4.694036	-4.942474E-006	-0.001582	9
	2	21	189328.1	218.2543	-20.40621	1	219.2062	-5.341478	-7.917402E-005	0.0034163	9
	3	23	150421.9	221.1647	-24.00641	1	222.4637	-6.194942	-7.867408E-005	0.0036085	9
	4	27	119484.4	223.625	-26.31008	1	225.1674	-6.710155	-3.965126E-006	-0.0013266	9
	5	29	94921.88	226.4409	-30.80803	1	228.5271	-7.747709	2.770888E-005	-0.0006195	9
	6	32	75421.88	229.717	-35.62694	1	232.4633	-8.815799	-2.022597E-005	0.000981	9
	7	35	59859.37	233.5956	-41.85592	1	237.3159	-10.15852	4.632817E-007	0.0006703	9
	8	37	47578.12	238.3782	-48.93662	1	243.3495	-11.60106	2.510788E-005	-0.0003251	9
	9	41	37828.12	244.1929	-57.36543	1	250.8405	-13.22013	2.444797E-005	-0.0002197	9
	10	44	30046.88	250.8709	-67.04518	1	259.6753	-14.9626	-8.87299E-006	-9.248885E-005	9
	11	48	23859.38	258.5598	-78.19164	1	270.1242	-16.82596	2.381423E-005	-0.000264	9
	12	51	18984.38	267.4903	-90.33232	1	282.3313	-18.65999	1.101926E-005	0.0003481	9
	13	54	15046.87	277.373	-104.916	1	296.5521	-20.71907	-2.10829E-005	0.0005124	9
	14	56	11953.13	288.7224	-121.8482	1	313.381	-22.88097	2.524104E-005	-0.0002626	9
	15	58	9515.62	303.0124	-138.7672	1	333.2759	-24.60583	-9.155794E-006	-0.0001211	9
	16	61	7546.875	318.1292	-160.4366	1	356.295	-26.7624	-2.122729E-005	0.0004943	9
	17	63	5928.309	333.5762	-183.0376	1	380.4942	-28.75415	-1.764684E-005	0.000311	9
	18	65	4733.456	349.2789	-210.4747	1	407.7933	-31.07307	2.678419E-005	-0.0004618	9
	19	68	3796.875	361.8875	-240.0314	1	434.2552	-33.55538	-1.960555E-006	-0.001021	8
	20	70	2987.132	377.5298	-282.0511	1	471.2554	-36.76327	1.155585E-005	-0.0022236	8
	21	72	2390.625	391.4258	-329.9782	1	511.9568	-40.13142	-9.277027E-006	0.0042853	8
	22	74	1884.191	407.5492	-395.5159	1	567.9165	-44.14153	-1.951467E-006	-0.0009353	8
	23	77	1516.544	418.693	-469.2797	1	628.9096	-48.26054	-8.343173E-006	0.0017344	8
	24	79	1193.986	435.7441	-575.3619	1	721.7438	-52.86193	-9.808517E-006	0.002518	8
	25	82	946.5144	451.4048	-701.4666	1	834.1592	-57.23808	1.134524E-005	-0.0022037	8
	26	84	751.7689	471.0385	-863.7805	1	983.867	-61.3954	-9.448892E-006	0.0024298	8
	27	86	597.4265	491.483	-1064.102	1	1172.122	-65.20893	8.29909E-006	-0.0034242	8
	28	89	477.4305	517.7324	-1307.239	1	1406.03	-68.39394	9.689995E-008	0.0006705	8
	29	91	376.6741	550.3828	-1627.96	1	1718.48	-71.32056	9.787183E-008	0.000668	8
	30	94	298.2954	589.5625	-2023.186	1	2107.336	-73.75372	1.011958E-007	0.0006614	8
	31	96	237.7717	636.7137	-2501.129	1	2580.901	-75.71755	1.256977E-007	0.0006623	8
	32	98	189.0121	695.6663	-3102.603	1	3179.638	-77.36215	1.283002E-007	0.0006581	8
	33	101	150.2404	769.0827	-3849.999	1	3926.064	-78.70319	9.72083E-008	0.0006693	8
	34	103	119.1737	865.3281	-4797.439	1	4874.855	-79.77533	-5.821572E-009	0.0006577	7
	35	105	95.0169	979.479	-5939.245	1	6019.469	-80.63528	-6.891371E-009	0.0006433	7
	36	108	75.60484	1125.829	-7366.973	1	7452.502	-81.31123	-3.453886E-009	0.0006259	7
	37	110	54.50582	1401.695	-10029.95	1	10127.42	-82.04439	-4.970013E-009	0.0006346	7
	38	113	45.95588	1596.652	-11780.04	1	11887.75	-82.28123	-4.729473E-009	0.000638	7
	39	115	37.20238	1888.722	-14381.87	1	14505.36	-82.51836	-3.01281E-009	0.0006338	7
	40	118	30.04808	2261.224	-17573.11	1	17717.99	-82.66774	-5.125206E-009	0.0006326	7
	41	120	23.91582	2778.558	-21784.18	1	21960.67	-82.73121	-3.455224E-009	0.0006216	7
	42	122	18.60119	3561.332	-27615.46	1	27844.15	-82.65161	-4.967017E-009	0.0006515	7
	43	125	15.02404	4417.761	-33729.23	1	34017.32	-82.53803	-4.203445E-009	0.0006332	7
	44	127	12.01923	5636.361	-41586.31	1	41966.54	-82.2815	-5.648403E-009	0.0006237	7
	45	129	9.450605	7429.494	-52017.07	1	52544.96	-81.87154	-8.352602E-009	0.0006823	6
	46	132	7.512019	9774.99	-64395.23	1	65132.91	-81.36858	-7.617484E-009	0.0006708	6
	47	135	5.978954	12941.34	-79496.62	1	80543.09	-80.75387	-7.100427E-009	0.0006681	6
	48	139	4.734848	17511.76	-98455.5	1	100000.7	-79.91457	-7.453612E-009	0.0006545	6
	49	143	3.75601	23666.36	-121455.6	1	123739.9	-78.97374	-7.229211E-009	0.0007094	6
	50	148	3.004808	31878.88	-148204.2	1	151594.1	-77.86059	-7.458597E-009	0.000693	6
	51	154	2.372217	44096.77	-182116.8	1	187379.5	-76.38869	-7.311733E-009	0.0006525	6
	52	159	1.878005	60732.82	-222779.7	1	230909.7	-74.75093	-6.781658E-009	0.0006621	6
	53	163	1.512097	81037.57	-266364.3	1	278418.8	-73.07835	-7.251859E-009	0.0007614	6
	54	169	1.201923	110533.5	-319858.9	1	338418.9	-70.93641	-6.778742E-009	0.0006735	6
	55	175	0.956633	148138.7	-379860.4	1	407724.2	-68.69511	-8.12026E-009	3.415266E-005	6
