EXPLAIN
TAG	EISPOT
TITLE	LABEL	Potentiostatic EIS	Test Identifier
DATE	LABEL	2/26/2021	Date
TIME	LABEL	15:37:26	Time
NOTES	NOTES	1	Notes...
	
PSTAT	PSTAT	REF3000-16137	Potentiostat
VDC	POTEN	0.00000E+000	T	DC Voltage (V)
FREQINIT	QUANT	3.00000E+005	Initial Freq. (Hz)
FREQFINAL	QUANT	1.00000E+000	Final Freq. (Hz)
PTSPERDEC	QUANT	1.00000E+001	Points/decade
VAC	QUANT	5.00000E+001	AC Voltage (mV rms)
AREA	QUANT	1.00000E+000	Sample Area (cm^2)
SPEED	SELECTOR	2	Optimize for:
ZGUESS	QUANT	1.00000E+003	Estimated Z (ohms)
EOC	QUANT	0	Open Circuit (V)
SEQUENCER	TOGGLE	TRUE	Run as Sequence
PSTATMODEL	IQUANT	5	Pstat Model
PSTATSECTION	LABEL	REF3000-16137	Pstat Section
PSTATSERIALNO	LABEL	16137	Pstat Serial Number
CTRLMODE	IQUANT	1	Control Mode
IESTAB	IQUANT	0	I/E Stability
CASPEED	IQUANT	1	Control Amp Speed
CONVENTION	IQUANT	1	Current Convention
ICHRANGE	IQUANT	2	Ich Range
ICHRANGEMODE	TOGGLE	F	Ich Auto Range
ICHOFFSETENABLE	TOGGLE	T	Ich Offset Enable
ICHOFFSET	QUANT	0	Ich Offset (V)
ICHFILTER	IQUANT	3	Ich Filter
VCHRANGE	IQUANT	2	Vch Range
VCHRANGEMODE	TOGGLE	F	Vch Auto Range
VCHOFFSETENABLE	TOGGLE	T	Vch Offset Enable
VCHOFFSET	QUANT	0	Vch Offset (V)
VCHFILTER	IQUANT	3	Vch Filter
ACHRANGE	IQUANT	2	Ach Range
ACHOFFSETENABLE	TOGGLE	F	Ach Offset Enable
ACHOFFSET	QUANT	0	Ach Offset (V)
ACHFILTER	IQUANT	3	Ach Filter
IERANGELOWERLIMIT	IQUANT	2	I/E Range Lower Limit
IERANGEMODE	TOGGLE	F	I/E AutoRange
IERANGE	IQUANT	11	I/E Range
POSFEEDENABLE	TOGGLE	F	Positive Feedback IR Comp
POSFEEDRESISTANCE	QUANT	0	Positive Feedback Resistance (ohm)
ACHSELECT	IQUANT	0	Ach Select
CABLEID	IQUANT	13	Cable ID
DCCALDATE	LABEL	7/31/2020	DC Calibration Date
ACCALDATE	LABEL	7/31/2020	AC Calibration Date
THERMOSELECT	IQUANT	1	Thermo Select
FRAMEWORKVERSION	QUANT	6.33	Framework Version
INSTRUMENTVERSION	LABEL	3.50	Instrument Version
COMPLIANCEVOLTAGE	IQUANT	0	Compliance Voltage
ZCURVE	TABLE
	Pt	Time	Freq	Zreal	Zimag	Zsig	Zmod	Zphz	Idc	Vdc	IERange
	#	s	Hz	ohm	ohm	V	ohm	°	A	V	#
	0	26	300046.9	20.04354	-4753.513	1	4753.555	-89.75841	1.801381E-006	0.0016046	9
	1	40	238359.4	108.8608	-5929.941	1	5930.94	-88.9483	-2.336602E-005	0.0010963	9
	2	62	189328.1	-559.1752	-6956.431	1	6978.869	-94.5957	-1.440966E-005	0.0018389	9
	3	73	150421.9	800.6265	-9850.21	1	9882.69	-85.3532	-2.796836E-005	-0.0009791	9
	4	83	119484.4	642.6755	-11526.16	1	11544.07	-86.80861	8.462462E-005	-0.0032542	9
	5	98	94921.88	1085.913	-14479.74	1	14520.4	-85.71111	-9.442012E-006	-0.0020822	8
	6	106	75421.88	1315.035	-18122.61	1	18170.26	-85.84971	1.6761E-005	-0.0092772	8
	7	115	59859.37	1854.886	-22521.5	1	22597.76	-85.29171	2.266064E-005	-0.0095718	8
	8	123	47578.12	5872.679	-29505.12	1	30083.89	-78.743	-1.018861E-006	-0.0133396	7
	9	131	37828.12	6877.753	-36296.54	1	36942.42	-79.27036	4.753295E-007	0.0163006	7
	10	138	30046.88	8164.324	-45090.75	1	45823.92	-79.73697	-3.323581E-006	-0.0052156	7
	11	146	23859.38	10825.98	-55732.54	1	56774.27	-79.00726	-6.694546E-006	0.0120076	7
	12	151	18984.38	15060.12	-69365.12	1	70981.17	-77.75041	4.888497E-006	-0.0004527	7
	13	156	15046.87	18514.32	-79849.23	1	81967.55	-76.94573	-9.347885E-006	-0.0021455	8
	14	164	11953.13	27472.56	-106505.8	1	109991.9	-75.53616	-7.374807E-006	0.0189704	7
	15	170	9515.62	37694.22	-135272.2	1	140425.8	-74.42925	1.257462E-006	-0.0198854	7
	16	177	7546.875	54028.85	-163715	1	172399.8	-71.73619	1.396531E-006	-0.0200748	7
	17	183	5928.309	112945.7	-201881	1	231328	-60.77445	-5.319848E-006	0.0265924	7
	18	189	4733.456	124548.5	-218583.9	1	251577.5	-60.32564	-3.721313E-006	0.0253791	7
	19	194	3796.875	148054.5	-338606.6	1	369560	-66.38282	2.783362E-005	-0.0074653	8
	20	202	2987.132	131904.4	-208915.4	1	247071.7	-57.73263	2.316406E-005	-0.0027347	8
	21	210	2390.625	368476.5	-254091.5	1	447590.7	-34.5891	1.748092E-005	0.0003448	8
	22	219	1884.191	365710.9	-486981.8	1	609012.1	-53.09438	2.784135E-006	0.0084687	7
	23	227	1516.544	390937.1	-243770.6	1	460712.4	-31.94579	-1.760172E-006	0.0219571	7
	24	233	1193.986	535220.8	-359813.9	1	644924.3	-33.91183	-2.821097E-007	-0.0072682	6
	25	239	946.5144	574538.6	-360572.7	1	678312.1	-32.11183	4.075698E-007	-0.025199	6
	26	242	751.7689	688480.4	-286986.6	1	745899.9	-22.62836	-3.964108E-007	0.0256059	6
	27	246	597.4265	754680.3	-343350.1	1	829115	-24.46368	-6.73034E-007	0.025877	6
	28	251	477.4305	786484.4	-247652.5	1	824554.1	-17.47846	-7.626587E-009	0.0007108	6
	29	256	376.6741	872947.6	-137582	1	883722.9	-8.956498	-7.114978E-010	0.0006989	5
	30	258	298.2954	886869.1	-115202.9	1	894320.2	-7.401189	-7.207157E-010	0.0006563	5
	31	260	237.7717	899881.3	-107487.4	1	906278	-6.811491	-7.745194E-010	0.0006423	5
	32	263	189.0121	914192.4	-102301.4	1	919898.6	-6.385039	-7.120099E-010	0.0006023	5
	33	266	150.2404	928878.8	-101175.9	1	934372.7	-6.216298	-7.684079E-010	0.000689	5
	34	269	119.1737	944276.4	-113117	1	951028	-6.83104	-8.036918E-010	0.0006533	5
	35	271	95.0169	960956	-101911.3	1	966345	-6.053704	-8.355899E-010	0.0006047	5
	36	274	75.60484	983875	-106313	1	989602	-6.16719	-6.922041E-010	0.0006258	5
	37	276	54.50582	995240	-148093.5	1	1006198	-8.463611	-8.706297E-010	0.0007009	5
	38	279	45.95588	1024174	-135646.2	1	1033118	-7.544596	-6.412574E-010	0.0006079	5
	39	282	37.20238	1044120	-165016	1	1057079	-8.980927	-9.119833E-010	0.0006268	5
	40	284	30.04808	1072459	-180808.2	1	1087593	-9.56963	-6.847332E-010	0.0006639	5
	41	287	23.91582	1103774	-216523.5	1	1124811	-11.09858	-5.603966E-010	0.0006215	5
	42	290	18.60119	1131676	-228964.4	1	1154606	-11.43787	-1.254764E-009	0.0006052	5
	43	292	15.02404	1174371	-284698.2	1	1208388	-13.62709	-2.778969E-010	0.0006173	5
	44	294	12.01923	1215011	-333029.6	1	1259826	-15.32808	-6.356481E-010	0.0006729	5
	45	297	9.450605	1267999	-386310.4	1	1325541	-16.94396	-1.114502E-009	0.0007005	5
	46	300	7.512019	1326623	-450481.4	1	1401022	-18.75595	-5.383078E-010	0.0006396	5
	47	303	5.978954	1396802	-522144.3	1	1491205	-20.49645	-6.26071E-010	0.0007025	5
	48	307	4.734848	1480213	-609305.7	1	1600714	-22.37372	-8.809693E-010	0.0006211	5
	49	311	3.75601	1576985	-705774.6	1	1727715	-24.11075	-8.241448E-010	0.0006855	5
	50	316	3.004808	1693919	-813335.4	1	1879063	-25.64799	-7.156684E-010	0.000668	5
	51	323	2.372217	1826033	-938723.6	1	2053192	-27.20671	-9.61901E-010	0.0006032	5
	52	327	1.878005	1955098	-1079533	1	2233338	-28.90586	-7.927983E-010	0.0006606	5
	53	332	1.512097	2091075	-1231216	1	2426621	-30.48939	-7.499236E-010	0.0005546	5
	54	337	1.201923	2251624	-1422258	1	2663199	-32.27892	-8.215559E-010	0.0006803	5
	55	343	0.956633	2423432	-1655024	1	2934642	-34.33017	-9.104655E-010	6.538505E-006	5
