EXPLAIN
TAG	EISPOT
TITLE	LABEL	Potentiostatic EIS	Test Identifier
DATE	LABEL	8/25/2020	Date
TIME	LABEL	14:34:27	Time
NOTES	NOTES	1	Notes...
	
PSTAT	PSTAT	REF3000-16137	Potentiostat
VDC	POTEN	0.00000E+000	T	DC Voltage (V)
FREQINIT	QUANT	3.00000E+005	Initial Freq. (Hz)
FREQFINAL	QUANT	1.00000E+000	Final Freq. (Hz)
PTSPERDEC	QUANT	1.00000E+001	Points/decade
VAC	QUANT	5.00000E+001	AC Voltage (mV rms)
AREA	QUANT	1.00000E+000	Sample Area (cm^2)
SPEED	SELECTOR	2	Optimize for:
ZGUESS	QUANT	1.00000E+003	Estimated Z (ohms)
EOC	QUANT	0	Open Circuit (V)
SEQUENCER	TOGGLE	TRUE	Run as Sequence
PSTATMODEL	IQUANT	5	Pstat Model
PSTATSECTION	LABEL	REF3000-16137	Pstat Section
PSTATSERIALNO	LABEL	16137	Pstat Serial Number
CTRLMODE	IQUANT	1	Control Mode
IESTAB	IQUANT	0	I/E Stability
CASPEED	IQUANT	1	Control Amp Speed
CONVENTION	IQUANT	1	Current Convention
ICHRANGE	IQUANT	2	Ich Range
ICHRANGEMODE	TOGGLE	F	Ich Auto Range
ICHOFFSETENABLE	TOGGLE	T	Ich Offset Enable
ICHOFFSET	QUANT	0	Ich Offset (V)
ICHFILTER	IQUANT	3	Ich Filter
VCHRANGE	IQUANT	2	Vch Range
VCHRANGEMODE	TOGGLE	F	Vch Auto Range
VCHOFFSETENABLE	TOGGLE	T	Vch Offset Enable
VCHOFFSET	QUANT	0	Vch Offset (V)
VCHFILTER	IQUANT	3	Vch Filter
ACHRANGE	IQUANT	2	Ach Range
ACHOFFSETENABLE	TOGGLE	F	Ach Offset Enable
ACHOFFSET	QUANT	0	Ach Offset (V)
ACHFILTER	IQUANT	3	Ach Filter
IERANGELOWERLIMIT	IQUANT	2	I/E Range Lower Limit
IERANGEMODE	TOGGLE	F	I/E AutoRange
IERANGE	IQUANT	11	I/E Range
POSFEEDENABLE	TOGGLE	F	Positive Feedback IR Comp
POSFEEDRESISTANCE	QUANT	0	Positive Feedback Resistance (ohm)
ACHSELECT	IQUANT	0	Ach Select
CABLEID	IQUANT	13	Cable ID
DCCALDATE	LABEL	7/31/2020	DC Calibration Date
ACCALDATE	LABEL	7/31/2020	AC Calibration Date
THERMOSELECT	IQUANT	1	Thermo Select
FRAMEWORKVERSION	QUANT	6.33	Framework Version
INSTRUMENTVERSION	LABEL	3.50	Instrument Version
COMPLIANCEVOLTAGE	IQUANT	0	Compliance Voltage
ZCURVE	TABLE
	Pt	Time	Freq	Zreal	Zimag	Zsig	Zmod	Zphz	Idc	Vdc	IERange
	#	s	Hz	ohm	ohm	V	ohm	°	A	V	#
	0	15	300046.9	-18.06346	-4853.106	1	4853.14	-90.21326	-6.269742E-005	0.000417	9
	1	28	238359.4	-113.4151	-6096.638	1	6097.692	-91.06574	-0.0001082	0.0038502	9
	2	46	189328.1	122.9057	-7424.979	1	7425.996	-89.05167	-6.086518E-005	0.000588	9
	3	55	150421.9	506.9486	-9277.038	1	9290.879	-86.87215	2.04631E-005	-0.0003082	9
	4	64	119484.4	105.4491	-11616.35	1	11616.83	-89.4799	2.702277E-005	-0.001448	9
	5	76	94921.88	690.9313	-14438.84	1	14455.37	-87.26036	2.624239E-005	-0.0051592	8
	6	84	75421.88	710.57	-18308.7	1	18322.48	-87.77744	-2.056915E-005	0.0028315	8
	7	92	59859.37	1032.31	-22751.4	1	22774.81	-87.40207	2.639703E-005	-0.0090607	8
	8	100	47578.12	685.9212	-28548.75	1	28556.99	-88.62366	1.631473E-005	-0.009336	8
	9	110	37828.12	-469.1432	-36380.87	1	36383.9	-90.73881	-1.984139E-005	0.0113303	8
	10	120	30046.88	2827.503	-43754.46	1	43845.73	-86.30257	-2.075803E-005	0.0028495	8
	11	129	23859.38	3213.357	-54857.33	1	54951.36	-86.64764	-2.712504E-005	0.0097783	8
	12	136	18984.38	3412.875	-71914.5	1	71995.44	-87.28293	-2.704082E-005	0.0096967	8
	13	142	15046.87	2636.125	-89041.52	1	89080.54	-88.30422	-2.407747E-005	0.0053413	8
	14	150	11953.13	4383.731	-101740	1	101834.4	-87.53279	2.341398E-005	-0.0028082	8
	15	158	9515.62	5791.516	-134887.1	1	135011.4	-87.54146	2.627105E-005	-0.0051545	8
	16	166	7546.875	-2559.521	-164400.7	1	164420.6	-90.89195	2.736002E-005	-0.0071747	8
	17	174	5928.309	-72.96144	-224499.8	1	224499.8	-90.01862	4.834129E-007	0.0164502	7
	18	181	4733.456	38216.01	-300786.6	1	303204.7	-82.75916	2.238212E-007	0.0105339	6
	19	185	3796.875	42215.45	-366199.7	1	368624.9	-83.42398	-6.716822E-007	0.0105571	6
	20	190	2987.132	-66569.77	-516881.6	1	521150.7	-97.3388	6.906978E-006	-0.0273232	7
	21	197	2390.625	57141.56	-459717.7	1	463255.4	-82.91464	3.527025E-006	-0.0248387	7
	22	204	1884.191	52734.88	-710745.8	1	712699.5	-85.75663	-4.062686E-007	0.0259016	6
	23	211	1516.544	63432.16	-896599.1	1	898840.1	-85.95321	-4.993657E-007	0.0014197	6
	24	216	1193.986	35564	-1149881	1	1150431	-88.22849	-4.074324E-007	0.0258496	6
	25	222	946.5144	247417.9	-1248753	1	1273028	-78.79301	7.351917E-007	-0.0161271	6
	26	225	751.7689	-560982.3	-368118.8	1	670978.9	-146.727	-3.483961E-006	-0.0050507	7
	27	231	597.4265	-1290118	560179.6	1	1406487	156.5291	-6.627007E-006	0.0262755	7
	28	236	477.4305	50070.63	-2789035	1	2789485	-88.9715	-9.508555E-008	0.0005978	7
	29	242	376.6741	486759	-3664077	1	3696267	-82.43278	-1.05965E-009	0.0006731	5
	30	246	298.2954	507220.7	-4566261	1	4594346	-83.66157	-1.035771E-009	0.0006963	5
	31	249	237.7717	520788.3	-5554007	1	5578369	-84.64315	-1.006641E-009	0.0006841	5
	32	251	189.0121	555657.7	-7073137	1	7094929	-85.50813	-1.059072E-009	0.000686	5
	33	254	150.2404	408473.6	-8895849	1	8905222	-87.37098	-1.033056E-009	0.0006869	5
	34	257	119.1737	2290131	-8371707	1	8679296	-74.70069	-1.021207E-009	0.0006898	5
	35	260	95.0169	416009.9	-1.375913E+007	1	1.376542E+007	-88.26818	-9.751124E-010	0.0005972	5
	36	263	75.60484	109693.2	-1.767853E+007	1	1.767887E+007	-89.64449	-9.962198E-010	0.0006934	5
	37	266	54.50582	702664.6	-2.366588E+007	1	2.367631E+007	-88.29933	-1.016805E-009	0.0006185	5
	38	269	45.95588	1236380	-2.992036E+007	1	2.994589E+007	-87.63375	-1.058594E-009	0.0006981	5
	39	272	37.20238	233664.5	-3.351146E+007	1	3.351227E+007	-89.6005	-1.011258E-009	0.0006054	5
	40	276	30.04808	778476.6	-4.419467E+007	1	4.420153E+007	-88.99085	-9.85683E-010	0.0005917	5
	41	280	23.91582	6786226	-5.775974E+007	1	5.815703E+007	-83.299	-1.202958E-010	0.0006881	4
	42	284	18.60119	9.509457E+006	-8.042563E+007	1	8.098587E+007	-83.25671	-1.117513E-010	0.0006284	4
	43	288	15.02404	6769117	-8.481026E+007	1	8.507997E+007	-85.43662	-1.025936E-010	0.0006355	4
	44	291	12.01923	4098032	-1.033106E+008	1	1.033918E+008	-87.72843	-1.253382E-010	0.0007296	4
	45	295	9.450605	1.403059E+007	-1.350118E+008	1	1.357389E+008	-84.06705	-1.06107E-010	0.0006484	4
	46	299	7.512019	1.264489E+007	-1.709128E+008	1	1.713799E+008	-85.76871	-1.095712E-010	0.0006948	4
	47	303	5.978954	1.429939E+007	-2.112474E+008	1	2.117308E+008	-86.12754	-1.056086E-010	0.0006494	4
	48	309	4.734848	5.131688E+007	-2.813894E+008	1	2.860304E+008	-79.66457	-1.516101E-011	0.000701	3
	49	314	3.75601	-9366061	-3.204552E+008	1	3.20592E+008	-91.67413	-1.046682E-009	0.0007125	5
	50	322	3.004808	-2.047152E+007	-4.331614E+008	1	4.336449E+008	-92.70583	-1.063413E-009	0.0006758	5
	51	331	2.372217	7.393066E+007	-5.332238E+008	1	5.383246E+008	-82.10635	-1.542501E-011	0.0006605	3
	52	337	1.878005	8.81963E+007	-6.660607E+008	1	6.718746E+008	-82.45707	-1.541705E-011	0.0007332	3
	53	346	1.512097	1.07732E+008	-8.198622E+008	1	8.2691E+008	-82.51408	-1.53066E-011	0.0006215	3
	54	353	1.201923	1.340149E+008	-1.021872E+009	1	1.030622E+009	-82.5285	-1.522451E-011	0.0007472	3
	55	364	0.956633	1.698507E+008	-1.273817E+009	1	1.285091E+009	-82.40498	-1.512162E-011	8.605816E-005	3
