EXPLAIN
TAG	EISPOT
TITLE	LABEL	Potentiostatic EIS	Test Identifier
DATE	LABEL	8/25/2020	Date
TIME	LABEL	12:07:48	Time
NOTES	NOTES	1	Notes...
	
PSTAT	PSTAT	REF3000-16137	Potentiostat
VDC	POTEN	0.00000E+000	T	DC Voltage (V)
FREQINIT	QUANT	3.00000E+005	Initial Freq. (Hz)
FREQFINAL	QUANT	1.00000E+000	Final Freq. (Hz)
PTSPERDEC	QUANT	1.00000E+001	Points/decade
VAC	QUANT	5.00000E+001	AC Voltage (mV rms)
AREA	QUANT	1.00000E+000	Sample Area (cm^2)
SPEED	SELECTOR	2	Optimize for:
ZGUESS	QUANT	1.00000E+003	Estimated Z (ohms)
EOC	QUANT	0	Open Circuit (V)
SEQUENCER	TOGGLE	TRUE	Run as Sequence
PSTATMODEL	IQUANT	5	Pstat Model
PSTATSECTION	LABEL	REF3000-16137	Pstat Section
PSTATSERIALNO	LABEL	16137	Pstat Serial Number
CTRLMODE	IQUANT	1	Control Mode
IESTAB	IQUANT	0	I/E Stability
CASPEED	IQUANT	1	Control Amp Speed
CONVENTION	IQUANT	1	Current Convention
ICHRANGE	IQUANT	2	Ich Range
ICHRANGEMODE	TOGGLE	F	Ich Auto Range
ICHOFFSETENABLE	TOGGLE	T	Ich Offset Enable
ICHOFFSET	QUANT	0	Ich Offset (V)
ICHFILTER	IQUANT	3	Ich Filter
VCHRANGE	IQUANT	2	Vch Range
VCHRANGEMODE	TOGGLE	F	Vch Auto Range
VCHOFFSETENABLE	TOGGLE	T	Vch Offset Enable
VCHOFFSET	QUANT	0	Vch Offset (V)
VCHFILTER	IQUANT	3	Vch Filter
ACHRANGE	IQUANT	2	Ach Range
ACHOFFSETENABLE	TOGGLE	F	Ach Offset Enable
ACHOFFSET	QUANT	0	Ach Offset (V)
ACHFILTER	IQUANT	3	Ach Filter
IERANGELOWERLIMIT	IQUANT	2	I/E Range Lower Limit
IERANGEMODE	TOGGLE	F	I/E AutoRange
IERANGE	IQUANT	11	I/E Range
POSFEEDENABLE	TOGGLE	F	Positive Feedback IR Comp
POSFEEDRESISTANCE	QUANT	0	Positive Feedback Resistance (ohm)
ACHSELECT	IQUANT	0	Ach Select
CABLEID	IQUANT	13	Cable ID
DCCALDATE	LABEL	7/31/2020	DC Calibration Date
ACCALDATE	LABEL	7/31/2020	AC Calibration Date
THERMOSELECT	IQUANT	1	Thermo Select
FRAMEWORKVERSION	QUANT	6.33	Framework Version
INSTRUMENTVERSION	LABEL	3.50	Instrument Version
COMPLIANCEVOLTAGE	IQUANT	0	Compliance Voltage
ZCURVE	TABLE
	Pt	Time	Freq	Zreal	Zimag	Zsig	Zmod	Zphz	Idc	Vdc	IERange
	#	s	Hz	ohm	ohm	V	ohm	°	A	V	#
	0	9	300046.9	218.3735	-12.94958	1	218.7572	-3.393673	-8.462898E-005	0.0034219	9
	1	12	238359.4	218.9966	-13.3406	1	219.4025	-3.485974	2.314784E-005	-0.0019165	9
	2	15	189328.1	219.3941	-14.71743	1	219.8872	-3.837774	-9.420841E-005	0.0033343	9
	3	18	150421.9	220.9569	-15.56274	1	221.5043	-4.028882	1.158049E-005	-0.0016503	9
	4	20	119484.4	222.7359	-17.3811	1	223.413	-4.46201	7.844157E-005	-0.0029094	9
	5	24	94921.88	223.6308	-19.70425	1	224.4972	-5.035362	2.710701E-005	-0.0006454	9
	6	26	75421.88	225.4478	-22.06716	1	226.5252	-5.590386	-7.992944E-006	0.0008757	9
	7	29	59859.37	227.3887	-25.41724	1	228.8048	-6.377979	2.772099E-005	-0.0006554	9
	8	31	47578.12	229.7492	-28.99087	1	231.5711	-7.191848	-2.082475E-005	0.0010025	9
	9	34	37828.12	232.1611	-33.12426	1	234.5123	-8.120037	6.76898E-006	-0.0006206	9
	10	37	30046.88	235.232	-38.4459	1	238.353	-9.282252	-1.770856E-005	0.0003423	9
	11	39	23859.38	238.2539	-44.31346	1	242.3399	-10.5362	-1.12733E-006	-0.0003966	9
	12	42	18984.38	241.8352	-51.26519	1	247.2092	-11.96861	1.21487E-005	0.0001967	9
	13	46	15046.87	245.3231	-59.65925	1	252.4731	-13.66823	2.768205E-005	-0.0007068	9
	14	49	11953.13	249.2312	-69.65359	1	258.7814	-15.61429	-1.640702E-005	0.0001346	9
	15	53	9515.62	252.5058	-81.91676	1	265.461	-17.97386	-9.356066E-006	-9.496925E-005	9
	16	55	7546.875	256.1141	-97.3769	1	274.0013	-20.81726	-9.675308E-006	0.0008777	9
	17	59	5928.309	259.6267	-117.4834	1	284.9709	-24.34718	-2.399953E-005	0.0008818	9
	18	62	4733.456	262.9949	-141.7997	1	298.7867	-28.33234	-1.596855E-005	0.0009868	9
	19	64	3796.875	266.9347	-171.0528	1	317.0382	-32.65191	2.110829E-005	-0.0008378	9
	20	67	2987.132	271.6518	-212.9308	1	345.1583	-38.09068	2.032788E-005	-6.896186E-005	9
	21	69	2390.625	276.8152	-260.4628	1	380.0888	-43.2567	2.032419E-005	-0.000111	9
	22	71	1884.191	285.4116	-323.5487	1	431.4436	-48.58356	7.310627E-006	-0.0006347	9
	23	74	1516.544	292.3848	-393.4878	1	490.226	-53.38546	1.094449E-005	-0.0029794	8
	24	76	1193.986	304.6256	-491.9479	1	578.6273	-58.23325	1.569735E-006	-0.0021531	8
	25	79	946.5144	320.5047	-610.0815	1	689.1464	-62.28493	-6.170027E-006	0.0044648	8
	26	81	751.7689	342.1448	-755.432	1	829.3013	-65.63362	-2.738147E-006	0.0038384	8
	27	83	597.4265	370.7935	-932.6503	1	1003.656	-68.31873	-9.604258E-006	0.0043337	8
	28	86	477.4305	406.2433	-1148.017	1	1217.775	-70.51289	3.140265E-009	0.0006447	8
	29	88	376.6741	457.0043	-1426.503	1	1497.92	-72.23626	1.299979E-009	0.0006438	8
	30	90	298.2954	523.4363	-1764.7	1	1840.693	-73.47886	-4.085841E-008	0.000701	8
	31	93	237.7717	609.3496	-2167.523	1	2251.547	-74.29788	9.562853E-009	0.0006434	8
	32	95	189.0121	725.2251	-2665.237	1	2762.144	-74.77805	-1.070188E-008	0.0006501	8
	33	97	150.2404	880.5949	-3272.968	1	3389.361	-74.94112	5.531958E-009	0.0006376	8
	34	100	119.1737	1093.208	-4018.517	1	4164.563	-74.78139	1.196289E-008	0.0006324	8
	35	102	95.0169	1377.402	-4909.514	1	5099.074	-74.32813	-3.085588E-008	0.0006196	7
	36	105	75.60484	1760.039	-5976.059	1	6229.849	-73.58951	-3.454721E-008	0.000629	7
	37	107	54.50582	2550.559	-7859.51	1	8263.005	-72.02078	-3.298186E-008	0.0006137	7
	38	110	45.95588	3121.397	-9030.006	1	9554.27	-70.9313	-2.743515E-008	0.0006141	7
	39	112	37.20238	4015.293	-10660.91	1	11391.99	-69.36176	-2.616017E-008	0.0006131	7
	40	114	30.04808	5199.654	-12520.9	1	13557.63	-67.44798	-3.410482E-008	0.0006751	7
	41	117	23.91582	6841.545	-14721.2	1	16233.31	-65.07378	-3.823778E-008	0.0006253	7
	42	119	18.60119	9145.795	-17343.78	1	19607.46	-62.19624	-4.228479E-008	0.000614	7
	43	121	15.02404	11635.72	-19631.91	1	22821.08	-59.34503	-2.223067E-008	0.0006414	7
	44	124	12.01923	14734.23	-21979.81	1	26461.47	-56.16395	-3.690181E-008	0.0006316	7
	45	126	9.450605	18693.45	-24309.51	1	30665.89	-52.44056	-3.535402E-008	0.00061	7
	46	129	7.512019	22924	-26166.91	1	34788.17	-48.77942	-3.566686E-008	0.0006286	7
	47	131	5.978954	27487.21	-27357.57	1	38781.23	-44.86456	-3.452346E-008	0.0006254	7
	48	135	4.734848	32351.55	-27880.49	1	42707.66	-40.75468	-2.512456E-008	0.0006599	6
	49	138	3.75601	36768.59	-27149.65	1	45705.94	-36.44188	-2.588279E-008	0.000679	6
	50	143	3.004808	40528.9	-25916.6	1	48106.78	-32.59728	-2.291507E-008	0.0006424	6
	51	150	2.372217	44530.98	-25123.1	1	51129.04	-29.43044	-2.799474E-008	0.0005864	6
	52	154	1.878005	47193.41	-22864.66	1	52440.54	-25.84965	-2.662625E-008	0.0006704	6
	53	163	1.512097	49431.05	-21200.55	1	53785.61	-23.21407	-2.942862E-008	0.0005986	6
	54	174	1.201923	51615.41	-19655.72	1	55231.31	-20.84739	-3.357743E-008	0.0006968	6
	55	186	0.956633	53553.8	-18061.89	1	56517.62	-18.63751	-5.183312E-008	3.130856E-005	6
