EXPLAIN
TAG	EISPOT
TITLE	LABEL	Potentiostatic EIS	Test Identifier
DATE	LABEL	8/25/2020	Date
TIME	LABEL	13:11:01	Time
NOTES	NOTES	1	Notes...
	
PSTAT	PSTAT	REF3000-16137	Potentiostat
VDC	POTEN	0.00000E+000	T	DC Voltage (V)
FREQINIT	QUANT	3.00000E+005	Initial Freq. (Hz)
FREQFINAL	QUANT	1.00000E+000	Final Freq. (Hz)
PTSPERDEC	QUANT	1.00000E+001	Points/decade
VAC	QUANT	5.00000E+001	AC Voltage (mV rms)
AREA	QUANT	1.00000E+000	Sample Area (cm^2)
SPEED	SELECTOR	2	Optimize for:
ZGUESS	QUANT	1.00000E+003	Estimated Z (ohms)
EOC	QUANT	0	Open Circuit (V)
SEQUENCER	TOGGLE	TRUE	Run as Sequence
PSTATMODEL	IQUANT	5	Pstat Model
PSTATSECTION	LABEL	REF3000-16137	Pstat Section
PSTATSERIALNO	LABEL	16137	Pstat Serial Number
CTRLMODE	IQUANT	1	Control Mode
IESTAB	IQUANT	0	I/E Stability
CASPEED	IQUANT	1	Control Amp Speed
CONVENTION	IQUANT	1	Current Convention
ICHRANGE	IQUANT	2	Ich Range
ICHRANGEMODE	TOGGLE	F	Ich Auto Range
ICHOFFSETENABLE	TOGGLE	T	Ich Offset Enable
ICHOFFSET	QUANT	0	Ich Offset (V)
ICHFILTER	IQUANT	3	Ich Filter
VCHRANGE	IQUANT	2	Vch Range
VCHRANGEMODE	TOGGLE	F	Vch Auto Range
VCHOFFSETENABLE	TOGGLE	T	Vch Offset Enable
VCHOFFSET	QUANT	0	Vch Offset (V)
VCHFILTER	IQUANT	3	Vch Filter
ACHRANGE	IQUANT	2	Ach Range
ACHOFFSETENABLE	TOGGLE	F	Ach Offset Enable
ACHOFFSET	QUANT	0	Ach Offset (V)
ACHFILTER	IQUANT	3	Ach Filter
IERANGELOWERLIMIT	IQUANT	2	I/E Range Lower Limit
IERANGEMODE	TOGGLE	F	I/E AutoRange
IERANGE	IQUANT	11	I/E Range
POSFEEDENABLE	TOGGLE	F	Positive Feedback IR Comp
POSFEEDRESISTANCE	QUANT	0	Positive Feedback Resistance (ohm)
ACHSELECT	IQUANT	0	Ach Select
CABLEID	IQUANT	13	Cable ID
DCCALDATE	LABEL	7/31/2020	DC Calibration Date
ACCALDATE	LABEL	7/31/2020	AC Calibration Date
THERMOSELECT	IQUANT	1	Thermo Select
FRAMEWORKVERSION	QUANT	6.33	Framework Version
INSTRUMENTVERSION	LABEL	3.50	Instrument Version
COMPLIANCEVOLTAGE	IQUANT	0	Compliance Voltage
ZCURVE	TABLE
	Pt	Time	Freq	Zreal	Zimag	Zsig	Zmod	Zphz	Idc	Vdc	IERange
	#	s	Hz	ohm	ohm	V	ohm	°	A	V	#
	0	19	300046.9	2243.238	-3153.121	1	3869.662	-54.57066	5.423401E-005	-6.722499E-005	9
	1	35	238359.4	2887.02	-3361.339	1	4430.969	-49.34106	-2.64122E-005	-0.0011543	9
	2	56	189328.1	3550.269	-3359.219	1	4887.613	-43.41615	5.418071E-007	-0.0019686	9
	3	63	150421.9	4364.746	-3367.88	1	5513.041	-37.65413	2.84634E-005	-0.0019508	9
	4	71	119484.4	5009.827	-2969.606	1	5823.824	-30.6576	-7.6449E-005	0.0351439	8
	5	78	94921.88	5631.991	-2803.363	1	6291.118	-26.46215	2.143823E-005	-0.009339	8
	6	86	75421.88	6142.475	-2572.813	1	6659.532	-22.72667	2.117133E-005	-0.0093586	8
	7	93	59859.37	6498.875	-2250.542	1	6877.523	-19.10082	-2.349677E-005	0.0052441	8
	8	101	47578.12	6893.616	-1993.033	1	7175.94	-16.12526	-2.557238E-005	0.0093095	8
	9	108	37828.12	7156.408	-1796.337	1	7378.415	-14.09075	2.140016E-005	-0.0092597	8
	10	116	30046.88	7343.419	-1556.694	1	7506.604	-11.96866	-2.567635E-005	0.007515	8
	11	124	23859.38	7665.039	-1247.256	1	7765.853	-9.242172	-2.326677E-006	0.0075928	8
	12	130	18984.38	7890.287	-828.4312	1	7933.658	-5.993742	-4.358963E-007	-0.0139257	7
	13	133	15046.87	7982.953	-794.7523	1	8022.417	-5.685415	-1.874517E-007	0.0168143	7
	14	138	11953.13	8078.824	-736.2527	1	8112.303	-5.20719	-2.128616E-007	0.0167387	7
	15	141	9515.62	8185.599	-718.2657	1	8217.051	-5.014716	5.690496E-006	-0.0070275	7
	16	146	7546.875	8290.3	-745.863	1	8323.784	-5.140955	-6.264195E-006	0.023722	7
	17	149	5928.309	8413.636	-764.2106	1	8448.271	-5.189935	1.717186E-006	-0.0196756	7
	18	153	4733.456	8481.44	-768.6396	1	8516.198	-5.178345	-4.734966E-007	-0.013787	7
	19	157	3796.875	8621.026	-818.7538	1	8659.818	-5.425208	-4.709493E-006	0.0015823	7
	20	162	2987.132	8741.177	-895.7332	1	8786.951	-5.850839	-3.929241E-006	0.0241602	7
	21	166	2390.625	8846.673	-983.56	1	8901.181	-6.344005	5.847264E-006	-0.0076053	7
	22	170	1884.191	9034.573	-1049.918	1	9095.375	-6.628674	-5.299719E-006	0.0248617	7
	23	175	1516.544	9139.777	-1210.521	1	9219.593	-7.544647	2.040628E-006	0.009831	7
	24	179	1193.986	9268.615	-1356.897	1	9367.411	-8.32876	-5.235259E-007	-0.0138379	7
	25	183	946.5144	9527.92	-1492.142	1	9644.05	-8.900642	-3.996443E-006	0.0243709	7
	26	186	751.7689	9735.84	-1759.187	1	9893.5	-10.24237	-5.965132E-006	0.0095651	7
	27	189	597.4265	9749.39	-2088.081	1	9970.49	-12.08872	-4.014165E-006	0.0246459	7
	28	191	477.4305	9992.16	-2383.532	1	10272.51	-13.41662	-8.828918E-008	0.0006625	7
	29	194	376.6741	10198.77	-2801.69	1	10576.59	-15.36073	-9.093251E-008	0.0006497	7
	30	196	298.2954	10424.72	-3305.645	1	10936.27	-17.59365	-8.34747E-008	0.0005682	7
	31	198	237.7717	10667	-3902.14	1	11358.33	-20.09324	-8.898689E-008	0.0006192	7
	32	201	189.0121	10944.93	-4637.642	1	11886.94	-22.96359	-8.285465E-008	0.0006156	7
	33	203	150.2404	11262	-5531.156	1	12546.97	-26.15723	-8.284947E-008	0.0005615	7
	34	206	119.1737	11616.7	-6640.941	1	13380.95	-29.75538	-8.193276E-008	0.0005656	7
	35	208	95.0169	12039.7	-7945.839	1	14425.35	-33.42361	-8.351903E-008	0.0005712	7
	36	210	75.60484	12533.28	-9556.97	1	15761.31	-37.32652	-8.510591E-008	0.0005721	7
	37	213	54.50582	13367.94	-12472.72	1	18283.07	-43.01584	-8.324531E-008	0.0006249	7
	38	215	45.95588	13909.72	-14365.65	1	19996.31	-45.92379	-9.023034E-008	0.0006519	7
	39	218	37.20238	14685.33	-17118.26	1	22554.24	-49.37453	-8.432444E-008	0.0005686	7
	40	220	30.04808	15614.23	-20446.85	1	25726.99	-52.63284	-8.83321E-008	0.000662	7
	41	223	23.91582	16809.39	-24753.91	1	29921.76	-55.82114	-8.871081E-008	0.0006339	7
	42	225	18.60119	18450.5	-30569.07	1	35705.59	-58.88619	-8.182664E-008	0.0005998	7
	43	227	15.02404	20136.94	-36566.84	1	41744.82	-61.15892	-8.351211E-008	0.0006169	7
	44	230	12.01923	22377.4	-44151.91	1	49498.88	-63.12285	-7.609217E-009	0.0006213	6
	45	232	9.450605	25340.84	-54028.39	1	59676	-64.8721	-1.016401E-008	0.0006127	6
	46	235	7.512019	28875.27	-65438.43	1	71526	-66.19012	-1.041448E-008	0.000596	6
	47	237	5.978954	33369.61	-79165.26	1	85910.82	-67.14368	-9.852088E-009	0.0006854	6
	48	240	4.734848	39152.84	-96057.6	1	103730.5	-67.82433	-1.089814E-008	0.000712	6
	49	244	3.75601	46494.48	-115977.6	1	124950.1	-68.15454	-8.590317E-009	0.0006901	6
	50	247	3.004808	55529.52	-138870.8	1	149561.4	-68.20527	-9.323188E-009	0.0006648	6
	51	252	2.372217	67742.07	-167681.1	1	180847.8	-68.00161	-9.561301E-009	0.0005824	6
	52	256	1.878005	82525.84	-201346.7	1	217602.9	-67.71278	-8.950926E-009	0.0006727	6
	53	261	1.512097	99574.7	-237252.5	1	257301.1	-67.23225	-9.171797E-009	0.0006174	6
	54	266	1.201923	122371	-283192.2	1	308500.3	-66.6302	-1.009757E-008	0.0006572	6
	55	275	0.956633	149558.8	-335251.1	1	367098.3	-65.95788	-1.012824E-008	1.435925E-005	6
