EXPLAIN
TAG	EISPOT
TITLE	LABEL	Potentiostatic EIS	Test Identifier
DATE	LABEL	8/25/2020	Date
TIME	LABEL	13:30:19	Time
NOTES	NOTES	1	Notes...
	
PSTAT	PSTAT	REF3000-16137	Potentiostat
VDC	POTEN	0.00000E+000	T	DC Voltage (V)
FREQINIT	QUANT	3.00000E+005	Initial Freq. (Hz)
FREQFINAL	QUANT	1.00000E+000	Final Freq. (Hz)
PTSPERDEC	QUANT	1.00000E+001	Points/decade
VAC	QUANT	5.00000E+001	AC Voltage (mV rms)
AREA	QUANT	1.00000E+000	Sample Area (cm^2)
SPEED	SELECTOR	2	Optimize for:
ZGUESS	QUANT	1.00000E+003	Estimated Z (ohms)
EOC	QUANT	0	Open Circuit (V)
SEQUENCER	TOGGLE	TRUE	Run as Sequence
PSTATMODEL	IQUANT	5	Pstat Model
PSTATSECTION	LABEL	REF3000-16137	Pstat Section
PSTATSERIALNO	LABEL	16137	Pstat Serial Number
CTRLMODE	IQUANT	1	Control Mode
IESTAB	IQUANT	0	I/E Stability
CASPEED	IQUANT	1	Control Amp Speed
CONVENTION	IQUANT	1	Current Convention
ICHRANGE	IQUANT	2	Ich Range
ICHRANGEMODE	TOGGLE	F	Ich Auto Range
ICHOFFSETENABLE	TOGGLE	T	Ich Offset Enable
ICHOFFSET	QUANT	0	Ich Offset (V)
ICHFILTER	IQUANT	3	Ich Filter
VCHRANGE	IQUANT	2	Vch Range
VCHRANGEMODE	TOGGLE	F	Vch Auto Range
VCHOFFSETENABLE	TOGGLE	T	Vch Offset Enable
VCHOFFSET	QUANT	0	Vch Offset (V)
VCHFILTER	IQUANT	3	Vch Filter
ACHRANGE	IQUANT	2	Ach Range
ACHOFFSETENABLE	TOGGLE	F	Ach Offset Enable
ACHOFFSET	QUANT	0	Ach Offset (V)
ACHFILTER	IQUANT	3	Ach Filter
IERANGELOWERLIMIT	IQUANT	2	I/E Range Lower Limit
IERANGEMODE	TOGGLE	F	I/E AutoRange
IERANGE	IQUANT	11	I/E Range
POSFEEDENABLE	TOGGLE	F	Positive Feedback IR Comp
POSFEEDRESISTANCE	QUANT	0	Positive Feedback Resistance (ohm)
ACHSELECT	IQUANT	0	Ach Select
CABLEID	IQUANT	13	Cable ID
DCCALDATE	LABEL	7/31/2020	DC Calibration Date
ACCALDATE	LABEL	7/31/2020	AC Calibration Date
THERMOSELECT	IQUANT	1	Thermo Select
FRAMEWORKVERSION	QUANT	6.33	Framework Version
INSTRUMENTVERSION	LABEL	3.50	Instrument Version
COMPLIANCEVOLTAGE	IQUANT	0	Compliance Voltage
ZCURVE	TABLE
	Pt	Time	Freq	Zreal	Zimag	Zsig	Zmod	Zphz	Idc	Vdc	IERange
	#	s	Hz	ohm	ohm	V	ohm	°	A	V	#
	0	14	300046.9	545.6731	-4640.946	1	4672.916	-83.29407	-1.619773E-005	0.001557	9
	1	29	238359.4	960.401	-5642.018	1	5723.175	-80.33954	2.100074E-005	-0.0004152	9
	2	45	189328.1	1574.566	-7038.218	1	7212.196	-77.38963	6.610085E-007	0.0016417	9
	3	55	150421.9	1652.78	-8535.391	1	8693.939	-79.04096	-2.132021E-005	0.0016722	9
	4	62	119484.4	3267.78	-10146.47	1	10659.7	-72.14829	2.568222E-005	0.0083018	8
	5	69	94921.88	4832.743	-12417.12	1	13324.42	-68.73401	1.623589E-005	-0.0093033	8
	6	78	75421.88	6755.578	-14786.47	1	16256.61	-65.44549	2.33277E-005	-0.0029029	8
	7	87	59859.37	8876.905	-17939.64	1	20015.75	-63.67285	7.566245E-006	-0.0076298	8
	8	95	47578.12	15809.83	-18673.61	1	24467.41	-49.7474	-6.662522E-006	0.011461	7
	9	102	37828.12	19592.07	-20046.01	1	28030.19	-45.65612	-6.553135E-006	0.0256775	7
	10	109	30046.88	21640.24	-22522.77	1	31234.2	-46.14482	1.048137E-005	0.0003552	9
	11	118	23859.38	26263.68	-22142.18	1	34351.96	-40.1333	-1.981945E-005	0.0114286	8
	12	124	18984.38	30429.13	-22012.8	1	37556.56	-35.88243	8.569614E-006	0.0041563	8
	13	131	15046.87	35646.34	-19864.8	1	40807.74	-29.12982	-2.700445E-005	0.0097327	8
	14	137	11953.13	39364.99	-16964.08	1	42864.7	-23.31331	2.61553E-005	-0.0090296	8
	15	144	9515.62	41712.32	-16390.41	1	44816.99	-21.45182	-9.711922E-006	-0.0020846	8
	16	150	7546.875	45731.55	-14238.25	1	47896.79	-17.29367	2.589859E-005	-0.0088639	8
	17	156	5928.309	45920.38	-13537.45	1	47874.25	-16.42566	-1.361648E-006	-0.0050843	8
	18	163	4733.456	49217.07	-10550.05	1	50335.11	-12.09869	5.381492E-006	-0.0267557	7
	19	168	3796.875	51136.37	-9020.042	1	51925.81	-10.00361	1.065602E-006	-0.0192789	7
	20	174	2987.132	52419.94	-9259.117	1	53231.39	-10.01703	-6.676804E-006	0.0117368	7
	21	179	2390.625	53401.18	-7747.621	1	53960.27	-8.255064	3.555295E-006	-0.0246632	7
	22	184	1884.191	53868.4	-9590.74	1	54715.51	-10.09517	1.342937E-006	-0.0200625	7
	23	190	1516.544	54393.93	-5778.385	1	54700	-6.063911	4.881033E-006	-0.0004409	7
	24	195	1193.986	57526.78	-9595.27	1	58321.52	-9.469566	-5.29421E-006	0.0032663	7
	25	201	946.5144	56757.87	-7461.621	1	57246.23	-7.489388	5.332859E-006	-0.0266425	7
	26	204	751.7689	57075.1	-6629.676	1	57458.85	-6.625618	-1.847732E-006	0.0220683	7
	27	208	597.4265	62378.44	-8340.68	1	62933.59	-7.6159	-5.351116E-006	0.0265317	7
	28	212	477.4305	61162.05	-7081.98	1	61570.7	-6.604889	-9.477466E-008	0.0006634	7
	29	215	376.6741	62333.7	-6860.037	1	62710.04	-6.280323	-9.79885E-009	0.0006233	6
	30	218	298.2954	63318.36	-7657.566	1	63779.73	-6.895721	-9.870775E-009	0.0006683	6
	31	220	237.7717	64282.7	-8578.243	1	64852.54	-7.600963	-9.771824E-009	0.0006238	6
	32	222	189.0121	65384.64	-9715.99	1	66102.59	-8.452158	-1.017416E-008	0.0007002	6
	33	225	150.2404	66612.66	-11105.46	1	67532.05	-9.465122	-1.051638E-008	0.0006889	6
	34	227	119.1737	67649.09	-12504.08	1	68795	-10.47221	-9.740982E-009	0.000708	6
	35	230	95.0169	69154.77	-14619.26	1	70683.13	-11.93654	-1.0393E-008	0.0006959	6
	36	232	75.60484	70591.95	-16994.1	1	72608.7	-13.53566	-1.03506E-008	0.0006906	6
	37	235	54.50582	72687.98	-21151.38	1	75702.87	-16.2244	-1.023888E-008	0.0007012	6
	38	237	45.95588	74043.52	-24011.26	1	77839.47	-17.96714	-9.095516E-009	0.000609	6
	39	240	37.20238	75698.53	-28028.84	1	80721.02	-20.31804	-9.56138E-009	0.0006985	6
	40	242	30.04808	77547.43	-32963.31	1	84262.59	-23.02903	-9.488825E-009	0.0006036	6
	41	244	23.91582	79833.19	-39360.33	1	89008.84	-26.24478	-9.877007E-009	0.0006937	6
	42	247	18.60119	82606.45	-48114.78	1	95597.4	-30.219	-9.179541E-009	0.0007151	6
	43	249	15.02404	85417	-57216.51	1	102809.5	-33.81612	-1.043686E-008	0.0007096	6
	44	251	12.01923	88849.88	-68690.02	1	112305.9	-37.70768	-8.941115E-009	0.000663	6
	45	254	9.450605	93231.51	-83833.04	1	125379.8	-41.96163	-9.591641E-009	0.0006268	6
	46	256	7.512019	98270.7	-101443.6	1	141237.2	-45.91018	-8.831126E-009	0.0006181	6
	47	259	5.978954	104392.5	-122889.9	1	161244.3	-49.65277	-9.67324E-009	0.0006912	6
	48	263	4.734848	111736.5	-149609.9	1	186730.2	-53.24569	-9.657674E-009	0.0007078	6
	49	267	3.75601	120845.7	-181909.3	1	218391.1	-56.40319	-1.02442E-008	0.0006975	6
	50	272	3.004808	131539.7	-219853.8	1	256199.9	-59.10768	-1.00854E-008	0.0006684	6
	51	279	2.372217	145197.1	-268487.2	1	305233.7	-61.5956	-9.913545E-009	0.0006821	6
	52	283	1.878005	161590.8	-328339.4	1	365948.5	-63.7961	-1.020607E-008	0.0006491	6
	53	288	1.512097	179279	-394685.5	1	433494.6	-65.57091	-9.954329E-009	0.000599	6
	54	293	1.201923	204324.6	-481559.9	1	523114.3	-67.00861	-1.284484E-009	0.0006302	5
	55	299	0.956633	233848.9	-585092.9	1	630094.4	-68.21449	-1.279454E-009	3.610821E-006	5
