EXPLAIN
TAG	EISPOT
TITLE	LABEL	Potentiostatic EIS	Test Identifier
DATE	LABEL	8/25/2020	Date
TIME	LABEL	15:38:33	Time
NOTES	NOTES	1	Notes...
	
PSTAT	PSTAT	REF3000-16137	Potentiostat
VDC	POTEN	0.00000E+000	T	DC Voltage (V)
FREQINIT	QUANT	3.00000E+005	Initial Freq. (Hz)
FREQFINAL	QUANT	1.00000E+000	Final Freq. (Hz)
PTSPERDEC	QUANT	1.00000E+001	Points/decade
VAC	QUANT	5.00000E+001	AC Voltage (mV rms)
AREA	QUANT	1.00000E+000	Sample Area (cm^2)
SPEED	SELECTOR	2	Optimize for:
ZGUESS	QUANT	1.00000E+003	Estimated Z (ohms)
EOC	QUANT	0	Open Circuit (V)
SEQUENCER	TOGGLE	TRUE	Run as Sequence
PSTATMODEL	IQUANT	5	Pstat Model
PSTATSECTION	LABEL	REF3000-16137	Pstat Section
PSTATSERIALNO	LABEL	16137	Pstat Serial Number
CTRLMODE	IQUANT	1	Control Mode
IESTAB	IQUANT	0	I/E Stability
CASPEED	IQUANT	1	Control Amp Speed
CONVENTION	IQUANT	1	Current Convention
ICHRANGE	IQUANT	2	Ich Range
ICHRANGEMODE	TOGGLE	F	Ich Auto Range
ICHOFFSETENABLE	TOGGLE	T	Ich Offset Enable
ICHOFFSET	QUANT	0	Ich Offset (V)
ICHFILTER	IQUANT	3	Ich Filter
VCHRANGE	IQUANT	2	Vch Range
VCHRANGEMODE	TOGGLE	F	Vch Auto Range
VCHOFFSETENABLE	TOGGLE	T	Vch Offset Enable
VCHOFFSET	QUANT	0	Vch Offset (V)
VCHFILTER	IQUANT	3	Vch Filter
ACHRANGE	IQUANT	2	Ach Range
ACHOFFSETENABLE	TOGGLE	F	Ach Offset Enable
ACHOFFSET	QUANT	0	Ach Offset (V)
ACHFILTER	IQUANT	3	Ach Filter
IERANGELOWERLIMIT	IQUANT	2	I/E Range Lower Limit
IERANGEMODE	TOGGLE	F	I/E AutoRange
IERANGE	IQUANT	11	I/E Range
POSFEEDENABLE	TOGGLE	F	Positive Feedback IR Comp
POSFEEDRESISTANCE	QUANT	0	Positive Feedback Resistance (ohm)
ACHSELECT	IQUANT	0	Ach Select
CABLEID	IQUANT	13	Cable ID
DCCALDATE	LABEL	7/31/2020	DC Calibration Date
ACCALDATE	LABEL	7/31/2020	AC Calibration Date
THERMOSELECT	IQUANT	1	Thermo Select
FRAMEWORKVERSION	QUANT	6.33	Framework Version
INSTRUMENTVERSION	LABEL	3.50	Instrument Version
COMPLIANCEVOLTAGE	IQUANT	0	Compliance Voltage
ZCURVE	TABLE
	Pt	Time	Freq	Zreal	Zimag	Zsig	Zmod	Zphz	Idc	Vdc	IERange
	#	s	Hz	ohm	ohm	V	ohm	°	A	V	#
	0	8	300046.9	222.6707	-13.47579	1	223.078	-3.463256	8.120783E-005	-0.0026832	9
	1	12	238359.4	223.6607	-13.41646	1	224.0627	-3.432819	-8.751374E-006	0.0012789	9
	2	16	189328.1	224.83	-14.77415	1	225.3149	-3.759646	-7.736489E-005	0.0033639	9
	3	20	150421.9	226.0146	-15.4855	1	226.5445	-3.919522	7.050446E-005	-0.0015338	9
	4	23	119484.4	227.1137	-17.26669	1	227.7691	-4.347641	5.075417E-005	-0.000146	9
	5	26	94921.88	228.4519	-19.20584	1	229.2578	-4.805528	-2.080964E-006	-0.0003895	9
	6	28	75421.88	230.1654	-21.8014	1	231.1956	-5.410946	-1.656588E-005	0.0010152	9
	7	31	59859.37	232.0954	-25.18066	1	233.4574	-6.191956	2.304512E-005	-0.0001505	9
	8	33	47578.12	234.3331	-28.79772	1	236.096	-7.006077	2.209789E-005	-0.0008373	9
	9	36	37828.12	236.8706	-33.03249	1	239.1628	-7.93891	-1.892331E-005	0.0003294	9
	10	39	30046.88	239.6548	-37.79428	1	242.6166	-8.961909	7.766947E-006	0.0003969	9
	11	43	23859.38	242.8149	-43.93767	1	246.7582	-10.25676	-1.650538E-005	0.001037	9
	12	47	18984.38	246.1017	-51.07671	1	251.3461	-11.72489	-2.397797E-005	0.0008257	9
	13	50	15046.87	249.4634	-59.31624	1	256.4184	-13.37515	2.07291E-005	-4.965733E-005	9
	14	53	11953.13	252.6992	-69.64149	1	262.1198	-15.4077	2.557714E-005	-0.0003978	9
	15	57	9515.62	255.9729	-82.73421	1	269.0113	-17.9116	1.207012E-006	0.0005804	9
	16	61	7546.875	259.2209	-99.3449	1	277.6057	-20.96903	7.329179E-006	-0.0006239	9
	17	63	5928.309	261.7473	-120.9848	1	288.3557	-24.80733	-1.601872E-005	0.0009925	9
	18	65	4733.456	265.673	-146.503	1	303.3896	-28.87415	-1.605696E-006	-0.0003913	9
	19	68	3796.875	269.0102	-178.2491	1	322.7061	-33.5289	-1.398189E-006	-0.0003955	9
	20	70	2987.132	273.1078	-221.5564	1	351.6747	-39.0504	7.430782E-006	-0.0006321	9
	21	72	2390.625	279.2658	-272.0939	1	389.9031	-44.25476	2.500388E-005	-0.0002357	9
	22	74	1884.191	285.1678	-339.9687	1	443.7334	-50.00987	7.872456E-006	-0.0006462	9
	23	77	1516.544	294.4997	-413.4731	1	507.6319	-54.53931	-9.624679E-006	0.0024269	8
	24	79	1193.986	307.7535	-516.9278	1	601.6033	-59.2325	-9.753487E-006	0.0043826	8
	25	82	946.5144	324.1089	-643.2211	1	720.2639	-63.25719	8.775375E-006	-0.0002743	8
	26	84	751.7689	346.5148	-796.51	1	868.62	-66.48897	-5.963218E-006	0.0044849	8
	27	87	597.4265	374.5728	-985.062	1	1053.874	-69.18053	-9.746465E-006	0.0024325	8
	28	89	477.4305	415.8393	-1211.36	1	1280.748	-71.05353	2.040436E-008	0.0006476	8
	29	91	376.6741	471.1839	-1505.956	1	1577.948	-72.62614	-9.463095E-009	0.0006456	8
	30	94	298.2954	544.3915	-1863.312	1	1941.209	-73.71357	-1.199795E-008	0.0006419	8
	31	96	237.7717	639.9185	-2288.132	1	2375.93	-74.37537	-1.591328E-009	0.0006471	8
	32	99	189.0121	770.1472	-2812.803	1	2916.331	-74.68766	5.756364E-009	0.0006413	8
	33	101	150.2404	946.1154	-3449.5	1	3576.896	-74.66232	2.45697E-008	0.000631	8
	34	103	119.1737	1190.623	-4238.141	1	4402.206	-74.30832	-2.417476E-008	0.0006208	7
	35	106	95.0169	1512.333	-5153.442	1	5370.765	-73.64511	-2.258727E-008	0.0006237	7
	36	108	75.60484	1950.474	-6254.826	1	6551.885	-72.68069	-2.365383E-008	0.000605	7
	37	111	54.50582	2862.906	-8175.632	1	8662.401	-70.701	-2.275785E-008	0.0006037	7
	38	113	45.95588	3509.171	-9350.639	1	9987.43	-69.42955	-2.184506E-008	0.0006105	7
	39	116	37.20238	4536.582	-10967.82	1	11869.02	-67.52871	-2.283584E-008	0.0006189	7
	40	118	30.04808	5880.223	-12766.79	1	14055.89	-65.26981	-2.390455E-008	0.0006258	7
	41	121	23.91582	7684.173	-14810.66	1	16685.39	-62.57849	-1.9173E-008	0.0006209	7
	42	123	18.60119	10228.79	-17182.9	1	19997	-59.23514	-1.126021E-008	0.0006155	7
	43	125	15.02404	12870.48	-19121.18	1	23049.27	-56.05548	-1.74883E-008	0.0006397	7
	44	127	12.01923	16077.11	-20969.45	1	26423.31	-52.5229	-3.239773E-008	0.0006726	7
	45	130	9.450605	19961.72	-22626.72	1	30173.48	-48.58065	-3.113171E-008	0.0006269	7
	46	132	7.512019	23975.85	-23718.18	1	33725.26	-44.69045	-3.157394E-008	0.0006203	7
	47	135	5.978954	28043.04	-24195.12	1	37038.03	-40.78714	-2.613498E-008	0.0006093	7
	48	138	4.734848	32179.6	-24226.91	1	40279.89	-36.97483	-1.847233E-008	0.0007261	6
	49	141	3.75601	35701.18	-23171.68	1	42561.73	-32.98539	-2.780913E-008	0.0006533	6
	50	147	3.004808	38696.93	-21917.58	1	44472.83	-29.52682	-2.682991E-008	0.0006528	6
	51	153	2.372217	41874.73	-20933.37	1	46815.59	-26.56067	-3.384274E-008	0.0006636	6
	52	158	1.878005	43544.34	-18607.02	1	47353.25	-23.1376	-3.585957E-008	0.000662	6
	53	167	1.512097	44884.14	-17068.74	1	48020.08	-20.82103	-3.726386E-008	0.0005706	6
	54	177	1.201923	46215.64	-15589.52	1	48774.16	-18.64035	-4.229333E-008	0.000709	6
	55	190	0.956633	47449.73	-14286.7	1	49553.88	-16.75659	-5.815459E-008	2.490083E-005	6
