EXPLAIN
TAG	EISPOT
TITLE	LABEL	Potentiostatic EIS	Test Identifier
DATE	LABEL	8/25/2020	Date
TIME	LABEL	15:21:47	Time
NOTES	NOTES	1	Notes...
	
PSTAT	PSTAT	REF3000-16137	Potentiostat
VDC	POTEN	0.00000E+000	T	DC Voltage (V)
FREQINIT	QUANT	3.00000E+005	Initial Freq. (Hz)
FREQFINAL	QUANT	1.00000E+000	Final Freq. (Hz)
PTSPERDEC	QUANT	1.00000E+001	Points/decade
VAC	QUANT	5.00000E+001	AC Voltage (mV rms)
AREA	QUANT	1.00000E+000	Sample Area (cm^2)
SPEED	SELECTOR	2	Optimize for:
ZGUESS	QUANT	1.00000E+003	Estimated Z (ohms)
EOC	QUANT	0	Open Circuit (V)
SEQUENCER	TOGGLE	TRUE	Run as Sequence
PSTATMODEL	IQUANT	5	Pstat Model
PSTATSECTION	LABEL	REF3000-16137	Pstat Section
PSTATSERIALNO	LABEL	16137	Pstat Serial Number
CTRLMODE	IQUANT	1	Control Mode
IESTAB	IQUANT	0	I/E Stability
CASPEED	IQUANT	1	Control Amp Speed
CONVENTION	IQUANT	1	Current Convention
ICHRANGE	IQUANT	2	Ich Range
ICHRANGEMODE	TOGGLE	F	Ich Auto Range
ICHOFFSETENABLE	TOGGLE	T	Ich Offset Enable
ICHOFFSET	QUANT	0	Ich Offset (V)
ICHFILTER	IQUANT	3	Ich Filter
VCHRANGE	IQUANT	2	Vch Range
VCHRANGEMODE	TOGGLE	F	Vch Auto Range
VCHOFFSETENABLE	TOGGLE	T	Vch Offset Enable
VCHOFFSET	QUANT	0	Vch Offset (V)
VCHFILTER	IQUANT	3	Vch Filter
ACHRANGE	IQUANT	2	Ach Range
ACHOFFSETENABLE	TOGGLE	F	Ach Offset Enable
ACHOFFSET	QUANT	0	Ach Offset (V)
ACHFILTER	IQUANT	3	Ach Filter
IERANGELOWERLIMIT	IQUANT	2	I/E Range Lower Limit
IERANGEMODE	TOGGLE	F	I/E AutoRange
IERANGE	IQUANT	11	I/E Range
POSFEEDENABLE	TOGGLE	F	Positive Feedback IR Comp
POSFEEDRESISTANCE	QUANT	0	Positive Feedback Resistance (ohm)
ACHSELECT	IQUANT	0	Ach Select
CABLEID	IQUANT	13	Cable ID
DCCALDATE	LABEL	7/31/2020	DC Calibration Date
ACCALDATE	LABEL	7/31/2020	AC Calibration Date
THERMOSELECT	IQUANT	1	Thermo Select
FRAMEWORKVERSION	QUANT	6.33	Framework Version
INSTRUMENTVERSION	LABEL	3.50	Instrument Version
COMPLIANCEVOLTAGE	IQUANT	0	Compliance Voltage
ZCURVE	TABLE
	Pt	Time	Freq	Zreal	Zimag	Zsig	Zmod	Zphz	Idc	Vdc	IERange
	#	s	Hz	ohm	ohm	V	ohm	°	A	V	#
	0	8	300046.9	221.7512	-13.57721	1	222.1665	-3.503688	2.145957E-005	-0.0016227	9
	1	11	238359.4	222.1988	-14.19388	1	222.6516	-3.655041	-8.641017E-006	0.0012422	9
	2	14	189328.1	223.6719	-14.92208	1	224.1691	-3.816782	-7.681306E-005	0.0034033	9
	3	17	150421.9	224.4843	-16.55052	1	225.0936	-4.216609	-3.128819E-005	-0.0005961	9
	4	20	119484.4	225.933	-17.07137	1	226.577	-4.321027	-1.374637E-005	0.0014203	9
	5	23	94921.88	227.1674	-19.23391	1	227.9802	-4.8396	2.595328E-005	-0.0008268	9
	6	25	75421.88	229.0142	-21.66972	1	230.0371	-5.405332	1.21278E-005	0.0002742	9
	7	28	59859.37	231.0403	-24.64503	1	232.3511	-6.088708	2.631571E-005	-0.0008226	9
	8	30	47578.12	233.1048	-28.43192	1	234.8323	-6.95405	2.600656E-005	-0.0008241	9
	9	33	37828.12	235.7714	-32.58007	1	238.0118	-7.867591	7.796826E-006	-0.0006446	9
	10	35	30046.88	238.5538	-37.51085	1	241.4849	-8.936176	-2.378565E-005	0.000832	9
	11	39	23859.38	241.7675	-43.37006	1	245.6267	-10.16998	-1.90854E-005	0.0003422	9
	12	42	18984.38	245.0122	-49.89003	1	250.04	-11.50937	-1.892191E-006	-0.0003715	9
	13	46	15046.87	248.9063	-58.0531	1	255.5866	-13.12856	-1.921117E-005	0.0003411	9
	14	49	11953.13	252.0936	-67.9584	1	261.093	-15.08693	-2.410017E-005	0.000681	9
	15	51	9515.62	255.168	-80.17349	1	267.4669	-17.44266	7.982398E-006	-0.000663	9
	16	55	7546.875	258.9442	-95.265	1	275.9121	-20.19845	2.223632E-005	-0.0008193	9
	17	59	5928.309	262.2827	-115.9562	1	286.7718	-23.85041	2.435655E-005	-0.000252	9
	18	61	4733.456	266.0525	-140.2454	1	300.7536	-27.79526	-1.011524E-005	-7.522728E-005	9
	19	63	3796.875	268.8719	-170.3651	1	318.3023	-32.35955	-2.210181E-005	0.0004817	9
	20	66	2987.132	273.0949	-210.9451	1	345.0778	-37.68337	2.749134E-005	-0.0004897	9
	21	68	2390.625	278.6957	-258.3263	1	380.0049	-42.82779	-1.013576E-005	-8.3985E-005	9
	22	70	1884.191	286.3093	-321.9426	1	430.8365	-48.35273	-2.729714E-006	0.0038705	8
	23	72	1516.544	293.1075	-392.3845	1	489.773	-53.24062	1.085669E-005	-0.0016277	8
	24	75	1193.986	305.2931	-490.4714	1	577.7249	-58.09987	1.154734E-006	0.0027903	8
	25	77	946.5144	322.2315	-609.0546	1	689.0433	-62.1181	9.892109E-006	-0.0033072	8
	26	80	751.7689	344.7166	-753.3205	1	828.4451	-65.41135	-2.772246E-006	0.0038827	8
	27	82	597.4265	370.7328	-932.3118	1	1003.318	-68.31481	-9.66364E-006	0.0024018	8
	28	85	477.4305	408.387	-1146.956	1	1217.492	-70.40113	-1.406335E-008	0.0006566	8
	29	87	376.6741	460.4517	-1425.745	1	1498.254	-72.10187	-1.696253E-008	0.0006556	8
	30	90	298.2954	529.2531	-1764.053	1	1841.736	-73.29964	-5.800394E-009	0.0006394	8
	31	92	237.7717	619.0303	-2166.371	1	2253.078	-74.05296	4.981887E-009	0.0006451	8
	32	94	189.0121	741.074	-2662.97	1	2764.164	-74.44872	2.394378E-008	0.0006401	8
	33	97	150.2404	906.1361	-3267.288	1	3390.613	-74.4994	2.802182E-008	0.0006348	8
	34	99	119.1737	1133.212	-4004.175	1	4161.441	-74.19808	2.87145E-008	0.0006357	8
	35	102	95.0169	1437.422	-4882.635	1	5089.824	-73.59585	-2.802429E-008	0.0006157	7
	36	104	75.60484	1848.226	-5926.903	1	6208.391	-72.6806	-2.894779E-008	0.0006228	7
	37	107	54.50582	2700.86	-7754.437	1	8211.329	-70.79684	-2.62541E-008	0.0006196	7
	38	109	45.95588	3310.576	-8872.68	1	9470.183	-69.53844	-2.467332E-008	0.0006118	7
	39	112	37.20238	4271.129	-10415.86	1	11257.56	-67.70341	-2.759869E-008	0.0006266	7
	40	114	30.04808	5524.84	-12126.46	1	13325.72	-65.50589	-2.291754E-008	0.0006142	7
	41	116	23.91582	7238.598	-14105.56	1	15854.47	-62.83432	-2.732017E-008	0.0006116	7
	42	119	18.60119	9640.84	-16395.33	1	19019.79	-59.54346	-3.029607E-008	0.0006203	7
	43	121	15.02404	12138.53	-18273.11	1	21937.42	-56.40455	-1.724352E-008	0.0006298	7
	44	123	12.01923	15182.2	-20063.61	1	25160.43	-52.88509	-2.217468E-008	0.0006218	7
	45	126	9.450605	18902.58	-21671.99	1	28757.31	-48.90467	-2.246446E-008	0.0006032	7
	46	128	7.512019	22776.44	-22710.79	1	32164.36	-44.91731	-1.984896E-008	0.0006184	7
	47	131	5.978954	26658.03	-23127.76	1	35292.27	-40.94399	-1.926339E-008	0.0006083	7
	48	134	4.734848	30507.11	-22669.4	1	38007.7	-36.61551	-2.575374E-008	0.0006714	6
	49	139	3.75601	33841.28	-21725.26	1	40214.66	-32.69945	-2.262897E-008	0.0006843	6
	50	144	3.004808	36763.34	-20663.58	1	42172.59	-29.33904	-2.667767E-008	0.000665	6
	51	151	2.372217	39390.32	-19250.43	1	43842.63	-26.04521	-3.208363E-008	0.0006047	6
	52	158	1.878005	41056.13	-17219.25	1	44520.88	-22.75354	-3.226897E-008	0.0006624	6
	53	167	1.512097	42586.16	-15967.67	1	45481.29	-20.55353	-3.704221E-008	0.0006879	6
	54	178	1.201923	43997.5	-14655.61	1	46374.21	-18.42297	-4.148841E-008	0.0006834	6
	55	191	0.956633	45536.02	-13560.24	1	47512.2	-16.58309	-6.80627E-008	2.508924E-005	6
