EXPLAIN
TAG	EISPOT
TITLE	LABEL	Potentiostatic EIS	Test Identifier
DATE	LABEL	8/25/2020	Date
TIME	LABEL	14:15:09	Time
NOTES	NOTES	1	Notes...
	
PSTAT	PSTAT	REF3000-16137	Potentiostat
VDC	POTEN	0.00000E+000	T	DC Voltage (V)
FREQINIT	QUANT	3.00000E+005	Initial Freq. (Hz)
FREQFINAL	QUANT	1.00000E+000	Final Freq. (Hz)
PTSPERDEC	QUANT	1.00000E+001	Points/decade
VAC	QUANT	5.00000E+001	AC Voltage (mV rms)
AREA	QUANT	1.00000E+000	Sample Area (cm^2)
SPEED	SELECTOR	2	Optimize for:
ZGUESS	QUANT	1.00000E+003	Estimated Z (ohms)
EOC	QUANT	0	Open Circuit (V)
SEQUENCER	TOGGLE	TRUE	Run as Sequence
PSTATMODEL	IQUANT	5	Pstat Model
PSTATSECTION	LABEL	REF3000-16137	Pstat Section
PSTATSERIALNO	LABEL	16137	Pstat Serial Number
CTRLMODE	IQUANT	1	Control Mode
IESTAB	IQUANT	0	I/E Stability
CASPEED	IQUANT	1	Control Amp Speed
CONVENTION	IQUANT	1	Current Convention
ICHRANGE	IQUANT	2	Ich Range
ICHRANGEMODE	TOGGLE	F	Ich Auto Range
ICHOFFSETENABLE	TOGGLE	T	Ich Offset Enable
ICHOFFSET	QUANT	0	Ich Offset (V)
ICHFILTER	IQUANT	3	Ich Filter
VCHRANGE	IQUANT	2	Vch Range
VCHRANGEMODE	TOGGLE	F	Vch Auto Range
VCHOFFSETENABLE	TOGGLE	T	Vch Offset Enable
VCHOFFSET	QUANT	0	Vch Offset (V)
VCHFILTER	IQUANT	3	Vch Filter
ACHRANGE	IQUANT	2	Ach Range
ACHOFFSETENABLE	TOGGLE	F	Ach Offset Enable
ACHOFFSET	QUANT	0	Ach Offset (V)
ACHFILTER	IQUANT	3	Ach Filter
IERANGELOWERLIMIT	IQUANT	2	I/E Range Lower Limit
IERANGEMODE	TOGGLE	F	I/E AutoRange
IERANGE	IQUANT	11	I/E Range
POSFEEDENABLE	TOGGLE	F	Positive Feedback IR Comp
POSFEEDRESISTANCE	QUANT	0	Positive Feedback Resistance (ohm)
ACHSELECT	IQUANT	0	Ach Select
CABLEID	IQUANT	13	Cable ID
DCCALDATE	LABEL	7/31/2020	DC Calibration Date
ACCALDATE	LABEL	7/31/2020	AC Calibration Date
THERMOSELECT	IQUANT	1	Thermo Select
FRAMEWORKVERSION	QUANT	6.33	Framework Version
INSTRUMENTVERSION	LABEL	3.50	Instrument Version
COMPLIANCEVOLTAGE	IQUANT	0	Compliance Voltage
ZCURVE	TABLE
	Pt	Time	Freq	Zreal	Zimag	Zsig	Zmod	Zphz	Idc	Vdc	IERange
	#	s	Hz	ohm	ohm	V	ohm	°	A	V	#
	0	19	300046.9	4.047575	-4895.812	1	4895.813	-89.95263	-1.387447E-005	0.0017559	9
	1	33	238359.4	-21.23581	-6024.451	1	6024.489	-90.20197	1.601975E-006	0.0015058	9
	2	47	189328.1	4.270216	-7311.681	1	7311.682	-89.96654	1.883298E-005	-0.0021035	9
	3	54	150421.9	80.52431	-9241.271	1	9241.621	-89.50076	-1.548514E-005	0.0018821	9
	4	65	119484.4	447.6024	-11438.77	1	11447.53	-87.75914	-4.10963E-005	0.022509	8
	5	73	94921.88	575.1868	-14408.32	1	14419.8	-87.71394	2.750599E-005	-0.0074768	8
	6	81	75421.88	624.7683	-18193.91	1	18204.64	-88.03327	-2.009138E-005	0.0114414	8
	7	90	59859.37	578.566	-22941.14	1	22948.43	-88.55533	7.720623E-006	-0.0076596	8
	8	98	47578.12	4132.27	-29964.46	1	30248.05	-82.14811	3.205661E-006	-0.0244622	7
	9	105	37828.12	469.8262	-35554.83	1	35557.94	-89.24293	2.639083E-005	-0.0091155	8
	10	113	30046.88	416.4072	-45137.55	1	45139.47	-89.47144	2.339223E-005	-0.0028777	8
	11	123	23859.38	1656.791	-56683.14	1	56707.35	-88.32578	-2.50363E-005	0.0111646	8
	12	131	18984.38	2397.09	-71604.23	1	71644.34	-88.08263	2.764319E-005	-0.0075816	8
	13	137	15046.87	1454.069	-86432.36	1	86444.59	-89.03619	2.250157E-005	-0.0097121	8
	14	146	11953.13	2132.182	-116648.8	1	116668.3	-88.95283	-2.531531E-005	0.011279	8
	15	153	9515.62	1187.92	-131440	1	131445.3	-89.48219	8.024945E-006	-0.0077479	8
	16	161	7546.875	15025.92	-177071.1	1	177707.5	-85.14961	-1.928857E-005	0.0112729	8
	17	168	5928.309	4038.115	-228725.2	1	228760.8	-88.98856	7.761963E-006	-0.0247532	7
	18	175	4733.456	29836.56	-286582.5	1	288131.5	-84.05626	2.850296E-006	0.0084793	7
	19	181	3796.875	4452.238	-364767.5	1	364794.7	-89.3007	1.065995E-006	-0.0200948	7
	20	188	2987.132	46063.43	-467089.2	1	469355	-84.36781	-7.474172E-007	0.0178864	6
	21	193	2390.625	-20966.79	-317688.4	1	318379.5	-93.77593	2.847539E-006	0.0084403	7
	22	200	1884.191	361233	-369942.6	1	517055.9	-45.68246	-2.707738E-005	0.0097486	8
	23	208	1516.544	65387.09	-891382.8	1	893777.8	-85.8046	2.865683E-006	0.0084877	7
	24	216	1193.986	105688.2	-941766.7	1	947678.5	-83.59687	-1.214556E-005	0.01034	8
	25	225	946.5144	-446200	-424374.4	1	615782.5	-136.4361	-3.465437E-006	-0.0051393	7
	26	232	751.7689	-150020.4	-1252674	1	1261625	-96.8292	-1.770936E-006	0.0222173	7
	27	237	597.4265	154681.5	-2639890	1	2644418	-86.64665	-2.15911E-007	0.0226417	6
	28	242	477.4305	94761.9	-2796735	1	2798340	-88.05939	-1.001347E-008	0.0006736	6
	29	245	376.6741	487736.2	-3656437	1	3688824	-82.40211	-9.765391E-010	0.0006917	5
	30	249	298.2954	536628.2	-4550759	1	4582290	-83.2747	-9.744371E-010	0.0005969	5
	31	252	237.7717	465611.5	-5726465	1	5745363	-85.35158	-9.721048E-010	0.0005893	5
	32	255	189.0121	609014.5	-7050497	1	7076751	-85.0631	-1.039385E-009	0.0006239	5
	33	257	150.2404	399261.1	-8746525	1	8755633	-87.38638	-1.048645E-009	0.00064	5
	34	260	119.1737	3717676	-9197039	1	9.920012E+006	-67.9902	-9.468135E-010	0.0006292	5
	35	263	95.0169	627576.2	-1.38547E+007	1	1.386891E+007	-87.40645	-9.572604E-010	0.0005989	5
	36	266	75.60484	801125.7	-1.823398E+007	1	1.825157E+007	-87.48428	-9.122134E-010	0.0006272	5
	37	269	54.50582	2143796	-2.404103E+007	1	2.413643E+007	-84.90427	-1.050368E-009	0.0006913	5
	38	272	45.95588	2870974	-2.759647E+007	1	2.77454E+007	-84.06065	-9.640651E-010	0.0006091	5
	39	276	37.20238	1747925	-3.284874E+007	1	3.289521E+007	-86.95409	-1.003769E-009	0.0006326	5
	40	280	30.04808	1589620	-4.266635E+007	1	4.269595E+007	-87.86632	-9.928505E-010	0.0006364	5
	41	284	23.91582	8340681	-5.189374E+007	1	5.255974E+007	-80.86916	-1.268318E-010	0.000641	4
	42	287	18.60119	1.821139E+007	-7.587486E+007	1	7.80298E+007	-76.50325	-1.487885E-010	0.0006003	4
	43	291	15.02404	1.197777E+007	-8.321485E+007	1	8.407246E+007	-81.80923	-8.910963E-011	0.0006148	4
	44	295	12.01923	1.510756E+007	-1.040859E+008	1	1.051766E+008	-81.74147	-9.879989E-011	0.0006829	4
	45	298	9.450605	1.537994E+007	-1.314406E+008	1	1.323373E+008	-83.32613	-9.761952E-011	0.0005907	4
	46	302	7.512019	2.159237E+007	-1.735336E+008	1	1.748718E+008	-82.90728	-8.916583E-011	0.0006543	4
	47	307	5.978954	2.447845E+007	-2.292481E+008	1	2.305512E+008	-83.90521	-1.166778E-010	0.0006536	4
	48	312	4.734848	7.161029E+007	-2.696115E+008	1	2.789595E+008	-75.12537	-1.695909E-011	0.0008127	3
	49	317	3.75601	5.072678E+007	-2.993073E+008	1	3.035755E+008	-80.38088	-1.072966E-009	0.0006964	5
	50	325	3.004808	4.876737E+007	-3.632785E+008	1	3.665372E+008	-82.35419	-1.036894E-009	0.0006896	5
	51	335	2.372217	1.339743E+008	-4.997395E+008	1	5.173864E+008	-74.99256	-1.649894E-011	0.0006686	3
	52	340	1.878005	1.750694E+008	-6.192509E+008	1	6.435223E+008	-74.21378	-1.621903E-011	0.0007164	3
	53	349	1.512097	2.250284E+008	-7.505521E+008	1	7.835599E+008	-73.31037	-1.616812E-011	0.0007364	3
	54	356	1.201923	3.04334E+008	-9.222761E+008	1	9.711912E+008	-71.73807	-1.600052E-011	0.0007344	3
	55	368	0.956633	4.119282E+008	-1.124516E+009	1	1.19759E+009	-69.88142	-1.602651E-011	7.619388E-005	3
