EXPLAIN
TAG	EISPOT
TITLE	LABEL	Potentiostatic EIS	Test Identifier
DATE	LABEL	8/25/2020	Date
TIME	LABEL	15:07:59	Time
NOTES	NOTES	1	Notes...
	
PSTAT	PSTAT	REF3000-16137	Potentiostat
VDC	POTEN	0.00000E+000	T	DC Voltage (V)
FREQINIT	QUANT	3.00000E+005	Initial Freq. (Hz)
FREQFINAL	QUANT	1.00000E+000	Final Freq. (Hz)
PTSPERDEC	QUANT	1.00000E+001	Points/decade
VAC	QUANT	5.00000E+001	AC Voltage (mV rms)
AREA	QUANT	1.00000E+000	Sample Area (cm^2)
SPEED	SELECTOR	2	Optimize for:
ZGUESS	QUANT	1.00000E+003	Estimated Z (ohms)
EOC	QUANT	0	Open Circuit (V)
SEQUENCER	TOGGLE	TRUE	Run as Sequence
PSTATMODEL	IQUANT	5	Pstat Model
PSTATSECTION	LABEL	REF3000-16137	Pstat Section
PSTATSERIALNO	LABEL	16137	Pstat Serial Number
CTRLMODE	IQUANT	1	Control Mode
IESTAB	IQUANT	0	I/E Stability
CASPEED	IQUANT	1	Control Amp Speed
CONVENTION	IQUANT	1	Current Convention
ICHRANGE	IQUANT	2	Ich Range
ICHRANGEMODE	TOGGLE	F	Ich Auto Range
ICHOFFSETENABLE	TOGGLE	T	Ich Offset Enable
ICHOFFSET	QUANT	0	Ich Offset (V)
ICHFILTER	IQUANT	3	Ich Filter
VCHRANGE	IQUANT	2	Vch Range
VCHRANGEMODE	TOGGLE	F	Vch Auto Range
VCHOFFSETENABLE	TOGGLE	T	Vch Offset Enable
VCHOFFSET	QUANT	0	Vch Offset (V)
VCHFILTER	IQUANT	3	Vch Filter
ACHRANGE	IQUANT	2	Ach Range
ACHOFFSETENABLE	TOGGLE	F	Ach Offset Enable
ACHOFFSET	QUANT	0	Ach Offset (V)
ACHFILTER	IQUANT	3	Ach Filter
IERANGELOWERLIMIT	IQUANT	2	I/E Range Lower Limit
IERANGEMODE	TOGGLE	F	I/E AutoRange
IERANGE	IQUANT	11	I/E Range
POSFEEDENABLE	TOGGLE	F	Positive Feedback IR Comp
POSFEEDRESISTANCE	QUANT	0	Positive Feedback Resistance (ohm)
ACHSELECT	IQUANT	0	Ach Select
CABLEID	IQUANT	13	Cable ID
DCCALDATE	LABEL	7/31/2020	DC Calibration Date
ACCALDATE	LABEL	7/31/2020	AC Calibration Date
THERMOSELECT	IQUANT	1	Thermo Select
FRAMEWORKVERSION	QUANT	6.33	Framework Version
INSTRUMENTVERSION	LABEL	3.50	Instrument Version
COMPLIANCEVOLTAGE	IQUANT	0	Compliance Voltage
ZCURVE	TABLE
	Pt	Time	Freq	Zreal	Zimag	Zsig	Zmod	Zphz	Idc	Vdc	IERange
	#	s	Hz	ohm	ohm	V	ohm	°	A	V	#
	0	19	300046.9	270.8886	-19.0291	1	271.5561	-4.018254	-8.978217E-005	0.002083	9
	1	24	238359.4	265.6953	-18.48333	1	266.3375	-3.97942	-6.167167E-005	0.0008153	9
	2	30	189328.1	264.188	-21.46043	1	265.0582	-4.644035	3.34014E-006	0.000699	10
	3	34	150421.9	262.2855	-21.41045	1	263.1579	-4.666725	8.319681E-005	0.0003344	10
	4	38	119484.4	261.0227	-20.9825	1	261.8647	-4.595881	-1.453413E-005	0.0014925	9
	5	42	94921.88	260.5686	-22.01027	1	261.4965	-4.828322	2.868685E-005	-0.0006497	9
	6	46	75421.88	260.8955	-24.67887	1	262.0601	-5.403698	2.883566E-005	-0.0007487	9
	7	49	59859.37	261.8197	-27.60855	1	263.2714	-6.019521	2.050429E-005	-4.401274E-005	9
	8	52	47578.12	263.3697	-31.30035	1	265.2231	-6.777566	2.710692E-005	-0.000616	9
	9	54	37828.12	265.0804	-35.6512	1	267.467	-7.659863	2.763557E-005	-0.0004725	9
	10	57	30046.88	266.7993	-40.76719	1	269.8959	-8.687654	-2.046845E-005	0.0006663	9
	11	61	23859.38	269.3426	-46.67543	1	273.357	-9.83137	1.05873E-005	-0.0007841	9
	12	64	18984.38	271.9115	-53.56783	1	277.1378	-11.14482	-1.082762E-006	-0.0004169	9
	13	67	15046.87	275.483	-62.03947	1	282.3823	-12.69143	-1.813859E-006	-0.000388	9
	14	69	11953.13	278.8022	-72.49205	1	288.0725	-14.57488	2.614623E-005	-0.000812	9
	15	71	9515.62	282.2732	-84.77044	1	294.7273	-16.71572	1.199515E-005	0.0002434	9
	16	73	7546.875	284.7142	-100.0883	1	301.7944	-19.36859	-8.667294E-006	0.0008424	9
	17	76	5928.309	288.7269	-120.7047	1	312.9422	-22.68777	-1.595193E-005	0.0001409	9
	18	78	4733.456	292.3784	-144.8455	1	326.2903	-26.35401	-1.637337E-005	0.0010091	9
	19	81	3796.875	295.3409	-174.1196	1	342.8467	-30.52166	2.28229E-005	-0.0001191	9
	20	83	2987.132	299.7061	-214.8214	1	368.7438	-35.63195	-1.577958E-005	0.0001261	9
	21	86	2390.625	305.3937	-262.3187	1	402.5872	-40.66101	-9.845113E-006	-0.0001015	9
	22	88	1884.191	310.3504	-324.5028	1	449.0205	-46.27704	-8.847043E-006	0.0048199	8
	23	91	1516.544	319.7323	-395.1993	1	508.3416	-51.02573	-6.340184E-006	0.0046691	8
	24	93	1193.986	331.7711	-492.7541	1	594.0359	-56.04764	-8.849862E-006	0.0048036	8
	25	95	946.5144	345.9837	-611.9725	1	703.0043	-60.51799	5.399103E-006	0.0013606	8
	26	98	751.7689	369.1544	-755.5173	1	840.8813	-63.95934	5.37016E-006	0.0013468	8
	27	100	597.4265	397.7715	-933.6358	1	1014.839	-66.92378	1.006441E-006	0.0029257	8
	28	103	477.4305	433.7971	-1149.016	1	1228.177	-69.31658	-6.50142E-008	0.0006509	8
	29	105	376.6741	486.6604	-1427.082	1	1507.78	-71.16971	-7.62025E-008	0.0006464	8
	30	108	298.2954	556.9709	-1763.984	1	1849.826	-72.4767	-7.113378E-008	0.0006465	8
	31	110	237.7717	648.9323	-2163.873	1	2259.084	-73.30634	-4.831189E-008	0.0006346	8
	32	112	189.0121	774.3168	-2656.501	1	2767.05	-73.74966	-6.656645E-008	0.0006487	8
	33	115	150.2404	944.3816	-3254.463	1	3388.715	-73.81831	-5.734432E-008	0.0006434	8
	34	117	119.1737	1177.208	-3982.715	1	4153.052	-73.53341	-4.257859E-008	0.0006401	8
	35	120	95.0169	1490.224	-4846.581	1	5070.514	-72.90841	-7.359965E-008	0.0006099	7
	36	122	75.60484	1910.56	-5868.923	1	6172.074	-71.96794	-7.770903E-008	0.0006248	7
	37	125	54.50582	2777.224	-7648.576	1	8137.179	-70.04386	-8.075128E-008	0.000668	7
	38	127	45.95588	3394.092	-8731.527	1	9368	-68.75806	-7.577913E-008	0.0006442	7
	39	130	37.20238	4358.262	-10215.37	1	11106.22	-66.89507	-6.692242E-008	0.0006081	7
	40	132	30.04808	5612.814	-11854.85	1	13116.45	-64.66426	-6.993687E-008	0.0006133	7
	41	134	23.91582	7326.18	-13753.02	1	15582.64	-61.95595	-8.083777E-008	0.0006714	7
	42	137	18.60119	9669.88	-15913.56	1	18621.17	-58.71502	-7.507899E-008	0.0006267	7
	43	139	15.02404	12142.88	-17666.34	1	21437.09	-55.49749	-6.657866E-008	0.000607	7
	44	141	12.01923	15182.65	-19263.74	1	24527.63	-51.75672	-6.725448E-008	0.0006308	7
	45	144	9.450605	18820.54	-20678.26	1	27960.74	-47.69278	-8.051712E-008	0.0006382	7
	46	146	7.512019	22530.31	-21499.59	1	31142.37	-43.65897	-7.783415E-008	0.0006081	7
	47	149	5.978954	26163.12	-20980.35	1	33536.31	-38.72631	-7.926142E-008	0.000613	7
	48	153	4.734848	29496.81	-20008.4	1	35642.64	-34.14999	-7.919266E-008	0.0006186	7
	49	158	3.75601	32401.93	-18937.93	1	37530.39	-30.30498	-8.269143E-008	0.0006159	7
	50	164	3.004808	34929.06	-17849.8	1	39225.68	-27.0684	-8.270658E-008	0.0006996	6
	51	170	2.372217	37108.74	-16393.53	1	40568.54	-23.83441	-8.076268E-008	0.0007443	6
	52	178	1.878005	38507.5	-14652.25	1	41200.92	-20.832	-8.85153E-008	0.0006513	6
	53	187	1.512097	39859.87	-13564.48	1	42104.68	-18.79365	-8.922432E-008	0.0006837	6
	54	197	1.201923	40900.24	-12314.01	1	42713.75	-16.75569	-9.020292E-008	0.0006401	6
	55	210	0.956633	41997.84	-11234.27	1	43474.44	-14.97579	-1.103583E-007	8.054083E-005	6
