EXPLAIN
TAG	EISPOT
TITLE	LABEL	Potentiostatic EIS	Test Identifier
DATE	LABEL	8/25/2020	Date
TIME	LABEL	15:03:33	Time
NOTES	NOTES	1	Notes...
	
PSTAT	PSTAT	REF3000-16137	Potentiostat
VDC	POTEN	0.00000E+000	T	DC Voltage (V)
FREQINIT	QUANT	3.00000E+005	Initial Freq. (Hz)
FREQFINAL	QUANT	1.00000E+000	Final Freq. (Hz)
PTSPERDEC	QUANT	1.00000E+001	Points/decade
VAC	QUANT	5.00000E+001	AC Voltage (mV rms)
AREA	QUANT	1.00000E+000	Sample Area (cm^2)
SPEED	SELECTOR	2	Optimize for:
ZGUESS	QUANT	1.00000E+003	Estimated Z (ohms)
EOC	QUANT	0	Open Circuit (V)
SEQUENCER	TOGGLE	TRUE	Run as Sequence
PSTATMODEL	IQUANT	5	Pstat Model
PSTATSECTION	LABEL	REF3000-16137	Pstat Section
PSTATSERIALNO	LABEL	16137	Pstat Serial Number
CTRLMODE	IQUANT	1	Control Mode
IESTAB	IQUANT	0	I/E Stability
CASPEED	IQUANT	1	Control Amp Speed
CONVENTION	IQUANT	1	Current Convention
ICHRANGE	IQUANT	2	Ich Range
ICHRANGEMODE	TOGGLE	F	Ich Auto Range
ICHOFFSETENABLE	TOGGLE	T	Ich Offset Enable
ICHOFFSET	QUANT	0	Ich Offset (V)
ICHFILTER	IQUANT	3	Ich Filter
VCHRANGE	IQUANT	2	Vch Range
VCHRANGEMODE	TOGGLE	F	Vch Auto Range
VCHOFFSETENABLE	TOGGLE	T	Vch Offset Enable
VCHOFFSET	QUANT	0	Vch Offset (V)
VCHFILTER	IQUANT	3	Vch Filter
ACHRANGE	IQUANT	2	Ach Range
ACHOFFSETENABLE	TOGGLE	F	Ach Offset Enable
ACHOFFSET	QUANT	0	Ach Offset (V)
ACHFILTER	IQUANT	3	Ach Filter
IERANGELOWERLIMIT	IQUANT	2	I/E Range Lower Limit
IERANGEMODE	TOGGLE	F	I/E AutoRange
IERANGE	IQUANT	11	I/E Range
POSFEEDENABLE	TOGGLE	F	Positive Feedback IR Comp
POSFEEDRESISTANCE	QUANT	0	Positive Feedback Resistance (ohm)
ACHSELECT	IQUANT	0	Ach Select
CABLEID	IQUANT	13	Cable ID
DCCALDATE	LABEL	7/31/2020	DC Calibration Date
ACCALDATE	LABEL	7/31/2020	AC Calibration Date
THERMOSELECT	IQUANT	1	Thermo Select
FRAMEWORKVERSION	QUANT	6.33	Framework Version
INSTRUMENTVERSION	LABEL	3.50	Instrument Version
COMPLIANCEVOLTAGE	IQUANT	0	Compliance Voltage
ZCURVE	TABLE
	Pt	Time	Freq	Zreal	Zimag	Zsig	Zmod	Zphz	Idc	Vdc	IERange
	#	s	Hz	ohm	ohm	V	ohm	°	A	V	#
	0	15	300046.9	1582.615	-659.7633	1	1714.63	-22.63037	-9.156973E-005	0.0040886	9
	1	32	238359.4	1536.73	-483.8263	1	1611.095	-17.47616	-2.486119E-006	-0.0019543	9
	2	49	189328.1	1389.983	-323.9899	1	1427.243	-13.12075	8.997939E-005	-0.0025438	9
	3	64	150421.9	1345.988	-251.8834	1	1369.354	-10.59953	2.666158E-005	-0.0018846	9
	4	72	119484.4	1311.162	-159.1854	1	1320.79	-6.922282	2.422742E-005	0.004959	8
	5	79	94921.88	1274.408	-129.6031	1	1280.981	-5.806829	5.719246E-006	-0.005955	8
	6	82	75421.88	1246.596	-115.9661	1	1251.978	-5.314714	2.156765E-005	-0.0047621	8
	7	85	59859.37	1226.219	-103.0799	1	1230.544	-4.805168	8.099457E-006	0.0030026	8
	8	88	47578.12	1200.415	-96.1693	1	1204.261	-4.580375	1.554497E-005	-0.0002386	8
	9	92	37828.12	1176.115	-93.2907	1	1179.809	-4.535268	-1.384897E-005	0.0085339	8
	10	94	30046.88	1153.826	-92.44063	1	1157.523	-4.580559	-8.132587E-007	0.0056747	8
	11	98	23859.38	1124.911	-99.4624	1	1129.299	-5.052839	-2.11987E-005	0.0080284	8
	12	101	18984.38	1098.959	-102.3172	1	1103.712	-5.319118	-1.35105E-005	0.0085943	8
	13	104	15046.87	1078.943	-109.2098	1	1084.456	-5.779749	-2.019097E-005	0.006381	8
	14	107	11953.13	1060.148	-123.667	1	1067.337	-6.653517	-1.339136E-005	0.00853	8
	15	110	9515.62	1043.6	-138.6585	1	1052.771	-7.568309	-1.768688E-005	0.0087051	8
	16	113	7546.875	1028.106	-155.3174	1	1039.772	-8.590792	7.789106E-006	0.0025277	8
	17	116	5928.309	1022.057	-179.2102	1	1037.65	-9.94529	1.544236E-005	-0.0069654	8
	18	119	4733.456	1008.408	-206.1467	1	1029.263	-11.55367	-6.927637E-006	0.0072296	8
	19	122	3796.875	1001.143	-234.8046	1	1028.31	-13.19938	1.502932E-005	-0.0067131	8
	20	125	2987.132	1002.449	-273.579	1	1039.11	-15.2649	1.831576E-005	-0.006558	8
	21	128	2390.625	994.694	-319.4573	1	1044.734	-17.80501	-1.981763E-005	0.0063789	8
	22	131	1884.191	987.609	-369.0109	1	1054.297	-20.48772	-1.843166E-005	0.0073055	8
	23	134	1516.544	986.534	-430.4895	1	1076.369	-23.5748	-2.841388E-006	-0.0028148	8
	24	137	1193.986	980.88	-518.5916	1	1109.533	-27.86542	-2.885497E-006	-0.0027941	8
	25	141	946.5144	976.639	-618.3837	1	1155.95	-32.34099	-1.207328E-005	0.0077525	8
	26	143	751.7689	977.695	-748.2516	1	1231.165	-37.42764	-6.399669E-006	0.0067888	8
	27	146	597.4265	982.822	-921.0903	1	1346.977	-43.14292	-8.644151E-006	-0.0005196	8
	28	149	477.4305	996.006	-1129.948	1	1506.257	-48.60506	-2.806219E-007	0.0006504	8
	29	151	376.6741	1024.448	-1404.327	1	1738.283	-53.88946	-2.715862E-007	0.0006547	8
	30	153	298.2954	1068.743	-1740.462	1	2042.406	-58.44769	-2.75918E-007	0.0006467	8
	31	155	237.7717	1132.144	-2143.942	1	2424.507	-62.16296	-2.42476E-007	0.0006292	8
	32	158	189.0121	1226.091	-2646.201	1	2916.449	-65.13982	-2.287335E-007	0.0006279	8
	33	160	150.2404	1359.691	-3261.123	1	3533.225	-67.36681	-2.551618E-007	0.0006379	8
	34	163	119.1737	1557.264	-4026.491	1	4317.141	-68.85579	-1.180601E-007	0.0006008	7
	35	165	95.0169	1821.791	-4923.623	1	5249.855	-69.69501	-1.176605E-007	0.0006033	7
	36	168	75.60484	2195.76	-6006.468	1	6395.234	-69.91931	-1.188715E-007	0.0005939	7
	37	170	54.50582	3000.291	-7912.309	1	8462.056	-69.23363	-1.192566E-007	0.0006001	7
	38	173	45.95588	3588.305	-9094.646	1	9776.94	-68.46822	-1.170502E-007	0.0006281	7
	39	175	37.20238	4531.862	-10733.1	1	11650.64	-67.10896	-1.221403E-007	0.0006328	7
	40	177	30.04808	5802.649	-12549.2	1	13825.82	-65.18456	-1.208307E-007	0.0006019	7
	41	180	23.91582	7558.731	-14669.84	1	16502.68	-62.73991	-1.254988E-007	0.0006183	7
	42	182	18.60119	10053.99	-17149.32	1	19879.18	-59.61853	-1.225456E-007	0.0006271	7
	43	184	15.02404	12734.65	-19157.94	1	23004.31	-56.38725	-1.238464E-007	0.0006296	7
	44	187	12.01923	16046.07	-20981.31	1	26413.86	-52.59199	-1.346685E-007	0.0006124	7
	45	189	9.450605	20087.94	-22491.22	1	30155.93	-48.23051	-1.32817E-007	0.0006218	7
	46	192	7.512019	24203.38	-22966.12	1	33365.34	-43.49748	-1.336329E-007	0.0006285	7
	47	195	5.978954	28090.07	-22402.18	1	35929.23	-38.5728	-1.423082E-007	0.0006016	7
	48	199	4.734848	31651.28	-21329.18	1	38167.23	-33.97525	-1.479845E-007	0.000654	7
	49	204	3.75601	34789.9	-19956.92	1	40107.56	-29.84036	-1.233751E-007	0.000741	6
	50	209	3.004808	37183.73	-18385.51	1	41480.8	-26.31011	-1.302471E-007	0.0007081	6
	51	216	2.372217	39123.48	-16516.33	1	42466.88	-22.88748	-1.347509E-007	0.0006637	6
	52	223	1.878005	40022.06	-14319.17	1	42506.52	-19.68629	-1.387938E-007	0.0006676	6
	53	232	1.512097	41003.98	-13078.51	1	43039.21	-17.69044	-1.435326E-007	0.0007364	6
	54	243	1.201923	41649.11	-11708.13	1	43263.48	-15.7014	-1.474602E-007	0.0006851	6
	55	256	0.956633	42557.51	-10650.06	1	43869.87	-14.04978	-1.753564E-007	8.054079E-005	6
