EXPLAIN
TAG	EISPOT
TITLE	LABEL	Potentiostatic EIS	Test Identifier
DATE	LABEL	8/25/2020	Date
TIME	LABEL	13:25:06	Time
NOTES	NOTES	1	Notes...
	
PSTAT	PSTAT	REF3000-16137	Potentiostat
VDC	POTEN	0.00000E+000	T	DC Voltage (V)
FREQINIT	QUANT	3.00000E+005	Initial Freq. (Hz)
FREQFINAL	QUANT	1.00000E+000	Final Freq. (Hz)
PTSPERDEC	QUANT	1.00000E+001	Points/decade
VAC	QUANT	5.00000E+001	AC Voltage (mV rms)
AREA	QUANT	1.00000E+000	Sample Area (cm^2)
SPEED	SELECTOR	2	Optimize for:
ZGUESS	QUANT	1.00000E+003	Estimated Z (ohms)
EOC	QUANT	0	Open Circuit (V)
SEQUENCER	TOGGLE	TRUE	Run as Sequence
PSTATMODEL	IQUANT	5	Pstat Model
PSTATSECTION	LABEL	REF3000-16137	Pstat Section
PSTATSERIALNO	LABEL	16137	Pstat Serial Number
CTRLMODE	IQUANT	1	Control Mode
IESTAB	IQUANT	0	I/E Stability
CASPEED	IQUANT	1	Control Amp Speed
CONVENTION	IQUANT	1	Current Convention
ICHRANGE	IQUANT	2	Ich Range
ICHRANGEMODE	TOGGLE	F	Ich Auto Range
ICHOFFSETENABLE	TOGGLE	T	Ich Offset Enable
ICHOFFSET	QUANT	0	Ich Offset (V)
ICHFILTER	IQUANT	3	Ich Filter
VCHRANGE	IQUANT	2	Vch Range
VCHRANGEMODE	TOGGLE	F	Vch Auto Range
VCHOFFSETENABLE	TOGGLE	T	Vch Offset Enable
VCHOFFSET	QUANT	0	Vch Offset (V)
VCHFILTER	IQUANT	3	Vch Filter
ACHRANGE	IQUANT	2	Ach Range
ACHOFFSETENABLE	TOGGLE	F	Ach Offset Enable
ACHOFFSET	QUANT	0	Ach Offset (V)
ACHFILTER	IQUANT	3	Ach Filter
IERANGELOWERLIMIT	IQUANT	2	I/E Range Lower Limit
IERANGEMODE	TOGGLE	F	I/E AutoRange
IERANGE	IQUANT	11	I/E Range
POSFEEDENABLE	TOGGLE	F	Positive Feedback IR Comp
POSFEEDRESISTANCE	QUANT	0	Positive Feedback Resistance (ohm)
ACHSELECT	IQUANT	0	Ach Select
CABLEID	IQUANT	13	Cable ID
DCCALDATE	LABEL	7/31/2020	DC Calibration Date
ACCALDATE	LABEL	7/31/2020	AC Calibration Date
THERMOSELECT	IQUANT	1	Thermo Select
FRAMEWORKVERSION	QUANT	6.33	Framework Version
INSTRUMENTVERSION	LABEL	3.50	Instrument Version
COMPLIANCEVOLTAGE	IQUANT	0	Compliance Voltage
ZCURVE	TABLE
	Pt	Time	Freq	Zreal	Zimag	Zsig	Zmod	Zphz	Idc	Vdc	IERange
	#	s	Hz	ohm	ohm	V	ohm	°	A	V	#
	0	17	300046.9	998.349	-4500.183	1	4609.593	-77.49172	-1.007251E-006	-0.0021505	9
	1	31	238359.4	1561.045	-5474.31	1	5692.533	-74.08405	9.293293E-005	-0.0026802	9
	2	56	189328.1	2060.326	-6576.639	1	6891.816	-72.60529	8.982492E-005	-0.0025079	9
	3	67	150421.9	3339.942	-7737.3	1	8427.397	-66.65171	7.849724E-005	-0.0015788	9
	4	74	119484.4	4733.195	-8886.218	1	10068.17	-61.95825	4.828088E-005	-0.0020657	8
	5	81	94921.88	6606.663	-10056.79	1	12032.75	-56.69767	-2.060203E-005	0.0028955	8
	6	90	75421.88	8455.33	-11088.25	1	13944.25	-52.67273	1.781485E-005	0.0001394	8
	7	99	59859.37	11122.34	-11886.63	1	16278.77	-46.90249	-2.442749E-005	0.0110649	8
	8	107	47578.12	13594.21	-12046.9	1	18163.98	-41.54669	8.691516E-006	0.0040881	8
	9	116	37828.12	17816.11	-10642.55	1	20752.78	-30.85222	5.42513E-006	-0.0265126	7
	10	122	30046.88	19884.72	-9981.04	1	22249.12	-26.65415	-3.868084E-006	0.0252878	7
	11	129	23859.38	21511.14	-9082.005	1	23349.78	-22.88947	-5.408122E-006	0.0266508	7
	12	133	18984.38	22957.5	-8142.191	1	24358.61	-19.52775	7.521835E-006	-0.0172421	7
	13	137	15046.87	24271.43	-7143.958	1	25300.96	-16.40106	6.409773E-006	-0.0093126	7
	14	142	11953.13	25302.59	-6460.379	1	26114.31	-14.32303	3.563105E-006	-0.0243387	7
	15	148	9515.62	26294.96	-5720.61	1	26910.04	-12.27375	-8.90052E-007	-0.0134878	7
	16	153	7546.875	26907.12	-5017.043	1	27370.86	-10.56196	7.61056E-006	-0.0183617	7
	17	159	5928.309	27794.41	-4487.718	1	28154.37	-9.171888	6.826388E-006	-0.0265397	7
	18	164	4733.456	28491.12	-4229.774	1	28803.38	-8.444417	1.420532E-006	-0.0200846	7
	19	169	3796.875	28967.31	-3887.284	1	29226.98	-7.643175	-3.898432E-006	0.025238	7
	20	175	2987.132	29274.67	-3429.28	1	29474.84	-6.681268	-6.566662E-006	0.0113584	7
	21	180	2390.625	29963.38	-3649.548	1	30184.82	-6.944437	-6.588869E-006	0.0114556	7
	22	185	1884.191	29972.7	-5365.55	1	30449.17	-10.14927	-2.404815E-005	0.0053222	8
	23	192	1516.544	31473.88	-4705.285	1	31823.66	-8.502637	-2.033887E-005	0.0011342	9
	24	198	1193.986	29762.48	-3992.635	1	30029.09	-7.640609	-1.18757E-005	0.0102144	8
	25	205	946.5144	31757.07	-4284.794	1	32044.83	-7.684175	2.608775E-006	0.0089529	7
	26	209	751.7689	32644.07	-2642.194	1	32750.82	-4.627404	-9.71041E-007	-0.0134645	7
	27	213	597.4265	37304.22	-488.1873	1	37307.41	-0.7497671	-1.950752E-006	0.0076871	8
	28	217	477.4305	34549.79	-4709.415	1	34869.28	-7.762039	-9.512013E-008	0.000649	7
	29	221	376.6741	35128.77	-5235.799	1	35516.82	-8.477295	-9.336796E-008	0.0006639	7
	30	223	298.2954	35747.65	-5884.986	1	36228.82	-9.348514	-8.537999E-008	0.0005895	7
	31	225	237.7717	36396.97	-6637.921	1	36997.32	-10.33576	-9.435843E-008	0.0006671	7
	32	228	189.0121	37219.18	-7375.814	1	37942.98	-11.20921	-9.935799E-009	0.000694	6
	33	230	150.2404	37987.55	-8573.252	1	38942.97	-12.71778	-1.084147E-008	0.0006778	6
	34	233	119.1737	38755.08	-10092.56	1	40047.67	-14.59671	-9.691785E-009	0.0006166	6
	35	235	95.0169	39593.32	-11728.02	1	41293.8	-16.49992	-9.84438E-009	0.0006062	6
	36	238	75.60484	40545.27	-13840.7	1	42842.55	-18.84806	-9.425509E-009	0.0006112	6
	37	240	54.50582	41962.03	-17663.32	1	45528.07	-22.82796	-9.987243E-009	0.0006946	6
	38	243	45.95588	42941.14	-20181.07	1	47447	-25.17214	-9.748939E-009	0.0006671	6
	39	245	37.20238	44191.38	-23805.41	1	50195.37	-28.31086	-1.005284E-008	0.0006266	6
	40	247	30.04808	45652.21	-28221.64	1	53671.08	-31.72386	-1.050506E-008	0.000701	6
	41	250	23.91582	47434.09	-33915.79	1	58311.87	-35.56509	-9.287766E-009	0.0006607	6
	42	252	18.60119	49719.67	-41575.46	1	64811.77	-39.90228	-9.562552E-009	0.000685	6
	43	254	15.02404	52082.71	-49590.09	1	71915.13	-43.59561	-8.997727E-009	0.000662	6
	44	257	12.01923	54916.22	-59602.84	1	81044.98	-47.34349	-9.461563E-009	0.0006071	6
	45	259	9.450605	58670.03	-72770.72	1	93475.93	-51.12315	-8.891008E-009	0.0006263	6
	46	262	7.512019	62922.41	-88151.39	1	108304.6	-54.48078	-8.627664E-009	0.0006262	6
	47	264	5.978954	68155.93	-106771	1	126669.9	-57.44838	-9.790678E-009	0.0007021	6
	48	267	4.734848	74608.63	-129872.2	1	149777.3	-60.12362	-8.791106E-009	0.0006361	6
	49	271	3.75601	82670.6	-157984.7	1	178307.5	-62.37773	-9.102398E-009	0.0006397	6
	50	276	3.004808	92229.41	-190730.4	1	211859.3	-64.19349	-1.014412E-008	0.0007279	6
	51	283	2.372217	104801.2	-233064.8	1	255543.5	-65.7882	-9.874611E-009	0.0007308	6
	52	287	1.878005	119844.2	-283926.6	1	308183.3	-67.11561	-1.012589E-008	0.0006257	6
	53	292	1.512097	137662.8	-340025.8	1	366836	-67.95895	-9.894056E-009	0.0007175	6
	54	297	1.201923	161353.7	-414016.1	1	444347.1	-68.70773	-1.103189E-009	0.000608	5
	55	303	0.956633	190263.2	-501346.3	1	536235.2	-69.21802	-1.485748E-009	7.493636E-007	5
