EXPLAIN
TAG	EISPOT
TITLE	LABEL	Potentiostatic EIS	Test Identifier
DATE	LABEL	8/25/2020	Date
TIME	LABEL	13:46:15	Time
NOTES	NOTES	1	Notes...
	
PSTAT	PSTAT	REF3000-16137	Potentiostat
VDC	POTEN	0.00000E+000	T	DC Voltage (V)
FREQINIT	QUANT	3.00000E+005	Initial Freq. (Hz)
FREQFINAL	QUANT	1.00000E+000	Final Freq. (Hz)
PTSPERDEC	QUANT	1.00000E+001	Points/decade
VAC	QUANT	5.00000E+001	AC Voltage (mV rms)
AREA	QUANT	1.00000E+000	Sample Area (cm^2)
SPEED	SELECTOR	2	Optimize for:
ZGUESS	QUANT	1.00000E+003	Estimated Z (ohms)
EOC	QUANT	0	Open Circuit (V)
SEQUENCER	TOGGLE	TRUE	Run as Sequence
PSTATMODEL	IQUANT	5	Pstat Model
PSTATSECTION	LABEL	REF3000-16137	Pstat Section
PSTATSERIALNO	LABEL	16137	Pstat Serial Number
CTRLMODE	IQUANT	1	Control Mode
IESTAB	IQUANT	0	I/E Stability
CASPEED	IQUANT	1	Control Amp Speed
CONVENTION	IQUANT	1	Current Convention
ICHRANGE	IQUANT	2	Ich Range
ICHRANGEMODE	TOGGLE	F	Ich Auto Range
ICHOFFSETENABLE	TOGGLE	T	Ich Offset Enable
ICHOFFSET	QUANT	0	Ich Offset (V)
ICHFILTER	IQUANT	3	Ich Filter
VCHRANGE	IQUANT	2	Vch Range
VCHRANGEMODE	TOGGLE	F	Vch Auto Range
VCHOFFSETENABLE	TOGGLE	T	Vch Offset Enable
VCHOFFSET	QUANT	0	Vch Offset (V)
VCHFILTER	IQUANT	3	Vch Filter
ACHRANGE	IQUANT	2	Ach Range
ACHOFFSETENABLE	TOGGLE	F	Ach Offset Enable
ACHOFFSET	QUANT	0	Ach Offset (V)
ACHFILTER	IQUANT	3	Ach Filter
IERANGELOWERLIMIT	IQUANT	2	I/E Range Lower Limit
IERANGEMODE	TOGGLE	F	I/E AutoRange
IERANGE	IQUANT	11	I/E Range
POSFEEDENABLE	TOGGLE	F	Positive Feedback IR Comp
POSFEEDRESISTANCE	QUANT	0	Positive Feedback Resistance (ohm)
ACHSELECT	IQUANT	0	Ach Select
CABLEID	IQUANT	13	Cable ID
DCCALDATE	LABEL	7/31/2020	DC Calibration Date
ACCALDATE	LABEL	7/31/2020	AC Calibration Date
THERMOSELECT	IQUANT	1	Thermo Select
FRAMEWORKVERSION	QUANT	6.33	Framework Version
INSTRUMENTVERSION	LABEL	3.50	Instrument Version
COMPLIANCEVOLTAGE	IQUANT	0	Compliance Voltage
ZCURVE	TABLE
	Pt	Time	Freq	Zreal	Zimag	Zsig	Zmod	Zphz	Idc	Vdc	IERange
	#	s	Hz	ohm	ohm	V	ohm	°	A	V	#
	0	14	300046.9	22.71198	-4845.055	1	4845.108	-89.73142	2.637639E-005	-0.0005766	9
	1	32	238359.4	-57.95549	-6030.743	1	6031.021	-90.5506	2.773238E-005	-0.0021305	9
	2	45	189328.1	186.9932	-7396.05	1	7398.414	-88.5517	-2.246034E-005	0.0016076	9
	3	53	150421.9	745.8895	-9103.11	1	9133.617	-85.31577	-6.241081E-005	0.0006234	9
	4	60	119484.4	313.4419	-11454.59	1	11458.88	-88.43256	-2.890428E-005	-0.0009978	9
	5	69	94921.88	1232.602	-14209.12	1	14262.48	-85.04216	2.604104E-005	-0.005079	8
	6	78	75421.88	1568.685	-17910.52	1	17979.08	-84.99454	-2.706599E-005	0.0097389	8
	7	86	59859.37	1845.016	-22994.71	1	23068.61	-85.41261	-2.002175E-005	0.0114877	8
	8	95	47578.12	1987.326	-28439.8	1	28509.16	-86.00276	-2.085484E-006	0.007811	8
	9	104	37828.12	2526.883	-34687.38	1	34779.3	-85.83351	-1.19618E-005	0.000984	9
	10	113	30046.88	8952.11	-44616.54	1	45505.78	-78.65451	7.686245E-006	-0.01878	7
	11	120	23859.38	11078	-55312.27	1	56410.72	-78.67458	-1.882378E-006	0.0222188	7
	12	126	18984.38	15794.62	-68522.37	1	70319.16	-77.01986	-6.8079E-006	0.0120969	7
	13	131	15046.87	21981.55	-85971.5	1	88737.18	-75.65765	2.839045E-006	0.0084179	7
	14	136	11953.13	28571.73	-103919.6	1	107775.8	-74.62691	-3.819122E-006	0.0256225	7
	15	142	9515.62	43481.77	-127430	1	134644.2	-71.15929	-6.674018E-006	0.0263898	7
	16	148	7546.875	58176.88	-152077.8	1	162825.7	-69.06581	-3.538954E-006	-0.004948	7
	17	155	5928.309	84382.33	-179011.6	1	197902.8	-64.76179	-7.345038E-006	0.0237684	7
	18	161	4733.456	136608.5	-223639.9	1	262062.4	-58.58168	-1.779642E-006	0.0222912	7
	19	167	3796.875	147401.8	-240231.4	1	281848.2	-58.46745	7.754137E-006	-0.0185392	7
	20	173	2987.132	229500.5	-232962.7	1	327020.1	-45.42893	-5.435128E-006	0.0036755	7
	21	179	2390.625	303233.1	-209160.5	1	368372.7	-34.59668	-1.177271E-006	-0.0052017	8
	22	188	1884.191	363778.5	-242426.8	1	437156.2	-33.68002	-6.6015E-007	0.0101741	6
	23	194	1516.544	407439.6	-240011.4	1	472876.8	-30.50116	7.398918E-007	-0.0162178	6
	24	199	1193.986	440497.4	-339476.8	1	556131.7	-37.62025	6.693419E-006	-0.0102767	7
	25	206	946.5144	474718.4	-288417.6	1	555465.8	-31.28098	3.548695E-006	-0.024936	7
	26	212	751.7689	440067.4	-182815.6	1	476530	-22.55929	-6.835098E-006	0.0121969	7
	27	217	597.4265	315070	76079.98	1	324125.4	13.57535	2.639694E-005	-0.0091541	8
	28	222	477.4305	580984.9	-157918.7	1	602064.6	-15.2063	-4.448036E-007	0.0006527	8
	29	228	376.6741	609190.8	-129673.1	1	622839.1	-12.0167	-9.344576E-009	0.0006023	6
	30	232	298.2954	653177.2	-63143.64	1	656222.2	-5.521713	-1.1382E-009	0.0006096	5
	31	234	237.7717	655868.4	-60315.89	1	658635.9	-5.254336	-1.283856E-009	0.0006577	5
	32	237	189.0121	665035.8	-58656.32	1	667617.5	-5.040458	-1.365864E-009	0.0006876	5
	33	239	150.2404	676055.3	-61387.78	1	678836.6	-5.188395	-1.14235E-009	0.0006717	5
	34	242	119.1737	670540	-42927.02	1	671912.7	-3.662996	-1.130239E-009	0.0006432	5
	35	244	95.0169	695342.4	-62682.4	1	698162	-5.151068	-1.173167E-009	0.0005896	5
	36	247	75.60484	706565.8	-63958.41	1	709454.7	-5.172323	-9.653028E-010	0.000681	5
	37	250	54.50582	714310.3	-74258.07	1	718159.8	-5.935019	-8.816455E-010	0.0005838	5
	38	252	45.95588	733073.9	-74960.52	1	736896.4	-5.838491	-1.383253E-009	0.0006125	5
	39	255	37.20238	743454.4	-83088.68	1	748083.1	-6.37693	-1.181845E-009	0.000687	5
	40	257	30.04808	757348.6	-89012.41	1	762561.6	-6.703312	-8.01632E-010	0.00062	5
	41	260	23.91582	773436.1	-98374.3	1	779667.1	-7.2486	-1.113853E-009	0.0006853	5
	42	263	18.60119	790061.8	-111742.3	1	797924.8	-8.050227	-1.823922E-010	0.0006101	5
	43	265	15.02404	802753	-124719.1	1	812383.7	-8.831111	-5.256388E-010	0.000679	5
	44	267	12.01923	818106.3	-140516.4	1	830086	-9.74592	-2.638827E-010	0.0006951	5
	45	270	9.450605	833917.7	-164455.9	1	849979.1	-11.15607	-4.712941E-010	0.0005998	5
	46	272	7.512019	852626.6	-191900	1	873955.2	-12.68416	-5.596877E-010	0.0007032	5
	47	275	5.978954	874896.4	-224246.3	1	903177.8	-14.3761	-8.34009E-010	0.0006405	5
	48	280	4.734848	898951.3	-266396.3	1	937592.8	-16.50673	-1.390936E-009	0.0005836	5
	49	283	3.75601	927057.4	-316288	1	979527	-18.83831	-1.314361E-009	0.000703	5
	50	289	3.004808	959998	-376118.5	1	1031049	-21.39479	-1.051967E-009	0.0006144	5
	51	295	2.372217	997404	-455223.1	1	1096377	-24.53234	-1.380424E-009	0.0006381	5
	52	299	1.878005	1034957	-550666.3	1	1172335	-28.01596	-1.328975E-009	0.0006336	5
	53	304	1.512097	1076165	-659170.5	1	1261997	-31.48823	-1.23385E-009	0.000585	5
	54	310	1.201923	1126916	-800502.1	1	1382297	-35.38798	-1.205235E-009	0.0006283	5
	55	316	0.956633	1187717	-971764	1	1534600	-39.28927	-1.214116E-009	-3.789113E-006	5
