EXPLAIN
TAG	EISPOT
TITLE	LABEL	Potentiostatic EIS	Test Identifier
DATE	LABEL	8/25/2020	Date
TIME	LABEL	14:21:27	Time
NOTES	NOTES	1	Notes...
	
PSTAT	PSTAT	REF3000-16137	Potentiostat
VDC	POTEN	0.00000E+000	T	DC Voltage (V)
FREQINIT	QUANT	3.00000E+005	Initial Freq. (Hz)
FREQFINAL	QUANT	1.00000E+000	Final Freq. (Hz)
PTSPERDEC	QUANT	1.00000E+001	Points/decade
VAC	QUANT	5.00000E+001	AC Voltage (mV rms)
AREA	QUANT	1.00000E+000	Sample Area (cm^2)
SPEED	SELECTOR	2	Optimize for:
ZGUESS	QUANT	1.00000E+003	Estimated Z (ohms)
EOC	QUANT	0	Open Circuit (V)
SEQUENCER	TOGGLE	TRUE	Run as Sequence
PSTATMODEL	IQUANT	5	Pstat Model
PSTATSECTION	LABEL	REF3000-16137	Pstat Section
PSTATSERIALNO	LABEL	16137	Pstat Serial Number
CTRLMODE	IQUANT	1	Control Mode
IESTAB	IQUANT	0	I/E Stability
CASPEED	IQUANT	1	Control Amp Speed
CONVENTION	IQUANT	1	Current Convention
ICHRANGE	IQUANT	2	Ich Range
ICHRANGEMODE	TOGGLE	F	Ich Auto Range
ICHOFFSETENABLE	TOGGLE	T	Ich Offset Enable
ICHOFFSET	QUANT	0	Ich Offset (V)
ICHFILTER	IQUANT	3	Ich Filter
VCHRANGE	IQUANT	2	Vch Range
VCHRANGEMODE	TOGGLE	F	Vch Auto Range
VCHOFFSETENABLE	TOGGLE	T	Vch Offset Enable
VCHOFFSET	QUANT	0	Vch Offset (V)
VCHFILTER	IQUANT	3	Vch Filter
ACHRANGE	IQUANT	2	Ach Range
ACHOFFSETENABLE	TOGGLE	F	Ach Offset Enable
ACHOFFSET	QUANT	0	Ach Offset (V)
ACHFILTER	IQUANT	3	Ach Filter
IERANGELOWERLIMIT	IQUANT	2	I/E Range Lower Limit
IERANGEMODE	TOGGLE	F	I/E AutoRange
IERANGE	IQUANT	11	I/E Range
POSFEEDENABLE	TOGGLE	F	Positive Feedback IR Comp
POSFEEDRESISTANCE	QUANT	0	Positive Feedback Resistance (ohm)
ACHSELECT	IQUANT	0	Ach Select
CABLEID	IQUANT	13	Cable ID
DCCALDATE	LABEL	7/31/2020	DC Calibration Date
ACCALDATE	LABEL	7/31/2020	AC Calibration Date
THERMOSELECT	IQUANT	1	Thermo Select
FRAMEWORKVERSION	QUANT	6.33	Framework Version
INSTRUMENTVERSION	LABEL	3.50	Instrument Version
COMPLIANCEVOLTAGE	IQUANT	0	Compliance Voltage
ZCURVE	TABLE
	Pt	Time	Freq	Zreal	Zimag	Zsig	Zmod	Zphz	Idc	Vdc	IERange
	#	s	Hz	ohm	ohm	V	ohm	°	A	V	#
	0	15	300046.9	-79.34773	-4893.939	1	4894.582	-90.92888	2.353504E-005	-0.0016914	9
	1	40	238359.4	-11.60945	-5579.694	1	5579.707	-90.11921	-9.382962E-005	0.0021613	9
	2	62	189328.1	250.6676	-7303.971	1	7308.271	-88.03442	2.270193E-006	0.0016976	9
	3	75	150421.9	7.663516	-9271.182	1	9271.185	-89.95264	2.795702E-005	-0.0019009	9
	4	82	119484.4	348.2236	-11596.44	1	11601.67	-88.28001	1.334856E-006	0.0017562	9
	5	96	94921.88	578.4663	-14526.92	1	14538.43	-87.71967	-2.013751E-005	0.0114273	8
	6	103	75421.88	487.122	-18187.58	1	18194.1	-88.4658	2.260664E-005	-0.0097927	8
	7	113	59859.37	467.4774	-23530.34	1	23534.98	-88.86185	-2.39673E-005	0.0052997	8
	8	122	47578.12	4016.531	-29802.55	1	30071.99	-82.32442	4.478619E-007	0.0164737	7
	9	129	37828.12	4362.218	-37108.11	1	37363.62	-83.2954	-3.440905E-006	-0.00527	7
	10	137	30046.88	4759.413	-45824.53	1	46071.02	-84.07043	-1.82392E-006	0.0223473	7
	11	144	23859.38	5050.842	-57466.46	1	57688	-84.97707	-3.817991E-006	0.0257841	7
	12	149	18984.38	4794.835	-72875.02	1	73032.59	-86.23563	-3.917972E-006	0.0258523	7
	13	155	15046.87	6696.057	-89202.98	1	89453.95	-85.70712	1.650042E-005	-0.0093858	8
	14	163	11953.13	5887.45	-112469.4	1	112623.4	-87.00346	-5.446122E-006	0.0037636	7
	15	169	9515.62	4574.731	-141273.4	1	141347.5	-88.14529	2.780451E-006	0.0085902	7
	16	175	7546.875	5389.793	-173194	1	173277.8	-88.21753	-6.980853E-006	0.0123139	7
	17	181	5928.309	21202.84	-222832.3	1	223838.7	-84.56458	-7.366197E-006	0.0239526	7
	18	186	4733.456	918.5672	-277213.3	1	277214.8	-89.81015	-7.364085E-006	0.0238678	7
	19	194	3796.875	22980.58	-356802.7	1	357542	-86.31484	2.620221E-005	-0.0052194	8
	20	202	2987.132	49012.62	-622219.4	1	624146.8	-85.49608	-2.503464E-005	0.0111386	8
	21	211	2390.625	310715.6	-205130.4	1	372320.7	-33.43227	-2.462964E-005	0.0108696	8
	22	220	1884.191	-604523.9	789115.1	1	994058	127.4549	-2.65333E-005	0.0076308	8
	23	227	1516.544	-175292.1	-942805.1	1	958962	-100.5325	-5.418415E-006	0.0270619	7
	24	236	1193.986	786769.9	-1573755	1	1759463	-63.43808	-6.790124E-006	0.0121515	7
	25	244	946.5144	-364638.4	-665045	1	758449.8	-118.7356	-1.213336E-006	-0.0131827	7
	26	250	751.7689	-76205.61	-1659342	1	1661091	-92.62947	7.282422E-007	-0.0157552	6
	27	255	597.4265	-166747.7	-2250750	1	2256918	-94.23704	-4.974941E-007	0.0011833	6
	28	259	477.4305	86067.72	-2799272	1	2800595	-88.23891	-9.979152E-009	0.0007066	6
	29	263	376.6741	480405.6	-3659037	1	3690439	-82.52026	-9.927414E-010	0.0006035	5
	30	267	298.2954	485739.3	-4554536	1	4580365	-83.91244	-9.823662E-010	0.0005948	5
	31	272	237.7717	507518.9	-5577156	1	5600200	-84.80043	-1.006739E-009	0.0006393	5
	32	274	189.0121	598039.9	-7076923	1	7102147	-85.16966	-9.968215E-010	0.0006726	5
	33	277	150.2404	851827.6	-8856539	1	8897409	-84.50616	-1.043381E-009	0.0006377	5
	34	280	119.1737	4144148	-1.517564E+007	1	1.573131E+007	-74.72613	-9.560582E-010	0.0005898	5
	35	283	95.0169	603136.8	-1.375455E+007	1	1.376777E+007	-87.48919	-1.00185E-009	0.000682	5
	36	286	75.60484	427940.8	-1.682387E+007	1	1.682932E+007	-88.54291	-1.065151E-009	0.0006164	5
	37	288	54.50582	738752.5	-2.318235E+007	1	2.319411E+007	-88.17477	-1.051285E-009	0.0006567	5
	38	292	45.95588	5020019	-3.115865E+007	1	3.156045E+007	-80.84763	-1.111389E-010	0.0007015	4
	39	294	37.20238	1752651	-3.254492E+007	1	3.259208E+007	-86.91741	-9.6847E-010	0.0006712	5
	40	298	30.04808	1881982	-4.328737E+007	1	4.332826E+007	-87.51055	-1.027207E-009	0.0006161	5
	41	302	23.91582	7737687	-5.051541E+007	1	5.110458E+007	-81.29142	-5.583153E-011	0.0006245	4
	42	306	18.60119	-2.394133E+007	-8.82207E+007	1	9.14116E+007	-105.1832	-2.840332E-010	0.0006976	4
	43	310	15.02404	5923061	-8.583169E+007	1	8.603582E+007	-86.0524	-1.136264E-010	0.0006776	4
	44	313	12.01923	9144039	-1.060575E+008	1	1.064509E+008	-85.07227	-9.81521E-011	0.000626	4
	45	317	9.450605	1.419501E+007	-1.454076E+008	1	1.460988E+008	-84.42432	-1.199875E-010	0.00059	4
	46	321	7.512019	1.264918E+007	-1.720855E+008	1	1.725498E+008	-85.79602	-1.100144E-010	0.0006953	4
	47	325	5.978954	-3531622	-2.144013E+008	1	2.144304E+008	-90.9437	-9.369445E-011	0.0006775	4
	48	331	4.734848	5.393393E+007	-2.802646E+008	1	2.85407E+008	-79.1072	-1.583498E-011	0.0006605	3
	49	336	3.75601	3.949798E+007	-3.321933E+008	1	3.345332E+008	-83.21933	-1.082105E-009	0.0006767	5
	50	344	3.004808	3.269937E+007	-4.07112E+008	1	4.084231E+008	-85.40784	-1.020066E-009	0.000697	5
	51	353	2.372217	7.923015E+007	-5.258506E+008	1	5.31786E+008	-81.43167	-1.559141E-011	0.0006366	3
	52	359	1.878005	9.487794E+007	-6.584102E+008	1	6.652111E+008	-81.80003	-1.550438E-011	0.0007281	3
	53	368	1.512097	1.140302E+008	-8.086058E+008	1	8.166065E+008	-81.97304	-1.552135E-011	0.0006203	3
	54	375	1.201923	1.452184E+008	-1.009625E+009	1	1.020016E+009	-81.81506	-1.534012E-011	0.0007444	3
	55	387	0.956633	1.897673E+008	-1.256786E+009	1	1.271032E+009	-81.41354	-1.530581E-011	7.837117E-005	3
