EXPLAIN
TAG	EISPOT
TITLE	LABEL	Potentiostatic EIS	Test Identifier
DATE	LABEL	8/25/2020	Date
TIME	LABEL	12:23:58	Time
NOTES	NOTES	1	Notes...
	
PSTAT	PSTAT	REF3000-16137	Potentiostat
VDC	POTEN	0.00000E+000	T	DC Voltage (V)
FREQINIT	QUANT	3.00000E+005	Initial Freq. (Hz)
FREQFINAL	QUANT	1.00000E+000	Final Freq. (Hz)
PTSPERDEC	QUANT	1.00000E+001	Points/decade
VAC	QUANT	5.00000E+001	AC Voltage (mV rms)
AREA	QUANT	1.00000E+000	Sample Area (cm^2)
SPEED	SELECTOR	2	Optimize for:
ZGUESS	QUANT	1.00000E+003	Estimated Z (ohms)
EOC	QUANT	0	Open Circuit (V)
SEQUENCER	TOGGLE	TRUE	Run as Sequence
PSTATMODEL	IQUANT	5	Pstat Model
PSTATSECTION	LABEL	REF3000-16137	Pstat Section
PSTATSERIALNO	LABEL	16137	Pstat Serial Number
CTRLMODE	IQUANT	1	Control Mode
IESTAB	IQUANT	0	I/E Stability
CASPEED	IQUANT	1	Control Amp Speed
CONVENTION	IQUANT	1	Current Convention
ICHRANGE	IQUANT	2	Ich Range
ICHRANGEMODE	TOGGLE	F	Ich Auto Range
ICHOFFSETENABLE	TOGGLE	T	Ich Offset Enable
ICHOFFSET	QUANT	0	Ich Offset (V)
ICHFILTER	IQUANT	3	Ich Filter
VCHRANGE	IQUANT	2	Vch Range
VCHRANGEMODE	TOGGLE	F	Vch Auto Range
VCHOFFSETENABLE	TOGGLE	T	Vch Offset Enable
VCHOFFSET	QUANT	0	Vch Offset (V)
VCHFILTER	IQUANT	3	Vch Filter
ACHRANGE	IQUANT	2	Ach Range
ACHOFFSETENABLE	TOGGLE	F	Ach Offset Enable
ACHOFFSET	QUANT	0	Ach Offset (V)
ACHFILTER	IQUANT	3	Ach Filter
IERANGELOWERLIMIT	IQUANT	2	I/E Range Lower Limit
IERANGEMODE	TOGGLE	F	I/E AutoRange
IERANGE	IQUANT	11	I/E Range
POSFEEDENABLE	TOGGLE	F	Positive Feedback IR Comp
POSFEEDRESISTANCE	QUANT	0	Positive Feedback Resistance (ohm)
ACHSELECT	IQUANT	0	Ach Select
CABLEID	IQUANT	13	Cable ID
DCCALDATE	LABEL	7/31/2020	DC Calibration Date
ACCALDATE	LABEL	7/31/2020	AC Calibration Date
THERMOSELECT	IQUANT	1	Thermo Select
FRAMEWORKVERSION	QUANT	6.33	Framework Version
INSTRUMENTVERSION	LABEL	3.50	Instrument Version
COMPLIANCEVOLTAGE	IQUANT	0	Compliance Voltage
ZCURVE	TABLE
	Pt	Time	Freq	Zreal	Zimag	Zsig	Zmod	Zphz	Idc	Vdc	IERange
	#	s	Hz	ohm	ohm	V	ohm	°	A	V	#
	0	9	300046.9	242.5363	-15.66036	1	243.0414	-3.69441	-0.0000966	0.0035479	9
	1	14	238359.4	243.5592	-15.45653	1	244.0491	-3.631184	-5.862529E-005	0.000678	9
	2	19	189328.1	244.9071	-19.81068	1	245.707	-4.624622	2.713811E-005	0.0005123	10
	3	23	150421.9	245.8059	-20.77925	1	246.6826	-4.832022	7.466202E-005	0.0006696	10
	4	27	119484.4	247.9373	-19.55379	1	248.7072	-4.509348	-5.008741E-006	-0.0013905	9
	5	31	94921.88	249.7437	-21.86142	1	250.6987	-5.002658	-7.401352E-007	-0.0004199	9
	6	35	75421.88	252.0372	-26.09357	1	253.3844	-5.910809	-2.250919E-005	0.0007338	10
	7	39	59859.37	254.4891	-28.11987	1	256.0379	-6.305343	-2.141174E-005	0.00095	9
	8	43	47578.12	257.1311	-32.11628	1	259.129	-7.119508	1.649057E-005	-0.0008329	9
	9	46	37828.12	259.9704	-36.7502	1	262.5551	-8.04619	-3.565724E-007	-0.0004352	9
	10	50	30046.88	263.5887	-42.24551	1	266.9525	-9.105392	1.714902E-005	-0.0008257	9
	11	53	23859.38	267.0109	-49.24271	1	271.5137	-10.4492	-1.935452E-005	0.0003821	9
	12	56	18984.38	271.399	-56.83064	1	277.2853	-11.82679	-9.929137E-006	-8.468026E-005	9
	13	58	15046.87	276.1461	-66.32054	1	283.9984	-13.50465	2.765973E-005	-0.0006316	9
	14	61	11953.13	280.3294	-77.15876	1	290.7543	-15.3892	2.621473E-005	-0.0009088	9
	15	63	9515.62	284.6902	-91.0543	1	298.8969	-17.73617	2.726665E-005	-0.0005237	9
	16	65	7546.875	288.8899	-107.8818	1	308.3761	-20.47744	-2.096781E-005	0.001029	9
	17	68	5928.309	293.4166	-130.4621	1	321.1132	-23.97142	2.260224E-005	-0.0008594	9
	18	70	4733.456	297.4345	-157.208	1	336.4248	-27.85855	2.232402E-005	-0.0008486	9
	19	72	3796.875	300.8545	-189.3925	1	355.5038	-32.19103	2.437258E-005	-0.0002812	9
	20	75	2987.132	307.8533	-234.0323	1	386.7101	-37.24236	2.758116E-005	-0.0006499	9
	21	77	2390.625	313.0865	-287.8516	1	425.3018	-42.59542	-2.087566E-005	0.0004554	9
	22	79	1884.191	321.8615	-352.2341	1	477.1412	-47.57983	1.948363E-006	-0.0024584	8
	23	82	1516.544	327.8721	-433.8996	1	543.8465	-52.92383	-1.052112E-005	0.0032609	8
	24	84	1193.986	341.244	-542.3381	1	640.7637	-57.82153	1.050792E-005	-0.0035628	8
	25	86	946.5144	354.6712	-673.5755	1	761.2461	-62.23095	9.498513E-006	-0.0003966	8
	26	89	751.7689	376.9842	-837.1053	1	918.0754	-65.75594	1.184729E-005	-0.0024154	8
	27	91	597.4265	405.795	-1035.481	1	1112.156	-68.60027	-2.940933E-006	0.0041162	8
	28	94	477.4305	442.156	-1273.361	1	1347.943	-70.85119	-3.071135E-008	0.0006653	8
	29	96	376.6741	492.3114	-1585.561	1	1660.233	-72.75061	-5.473729E-008	0.0006967	8
	30	98	298.2954	557.5294	-1965.547	1	2043.089	-74.16396	-1.444578E-008	0.0006496	8
	31	101	237.7717	641.2252	-2419.6	1	2503.125	-75.15708	7.242904E-010	0.0006494	8
	32	103	189.0121	753.3102	-2983.27	1	3076.91	-75.8284	-1.706214E-008	0.0007007	8
	33	105	150.2404	902.3809	-3673.546	1	3782.755	-76.19895	8.871051E-009	0.0006409	8
	34	108	119.1737	1108.364	-4536.813	1	4670.24	-76.27129	-2.192858E-008	0.0006794	7
	35	110	95.0169	1374.793	-5552.619	1	5720.283	-76.0936	-1.569256E-008	0.000617	7
	36	113	75.60484	1737.014	-6795.616	1	7014.101	-75.66174	-1.50965E-008	0.0006076	7
	37	115	54.50582	2487.501	-9027.919	1	9364.347	-74.59529	-1.938854E-008	0.0006224	7
	38	118	45.95588	3030.226	-10437.75	1	10868.71	-73.81124	-1.153285E-008	0.0006289	7
	39	120	37.20238	3890.423	-12444.87	1	13038.8	-72.64011	-1.799286E-008	0.0006144	7
	40	123	30.04808	5031.527	-14788.69	1	15621.19	-71.21025	-1.997862E-008	0.0006303	7
	41	125	23.91582	6658.042	-17688.05	1	18899.64	-69.37292	-1.708386E-008	0.0006286	7
	42	127	18.60119	8992.568	-21280.98	1	23102.96	-67.09285	-1.49752E-008	0.0006257	7
	43	130	15.02404	11577.65	-24664.15	1	27246.33	-64.85407	-1.163393E-008	0.0006267	7
	44	132	12.01923	14975.76	-28465.11	1	32164.2	-62.25072	-2.473298E-008	0.0006406	7
	45	134	9.450605	19452.06	-32653.49	1	38008.32	-59.21725	-2.050678E-008	0.000639	7
	46	137	7.512019	24582.31	-36631.31	1	44115.11	-56.13548	-1.292671E-008	0.0006489	6
	47	140	5.978954	30468.33	-40402.21	1	50602.95	-52.97913	-9.962658E-009	0.0006712	6
	48	143	4.734848	37278.07	-43733.95	1	57465.75	-49.5563	-7.8009E-009	0.0006625	6
	49	146	3.75601	44528.61	-46592.25	1	64448.7	-46.29737	-2.990666E-009	0.000691	6
	50	149	3.004808	51858.58	-48831.89	1	71231.07	-43.27824	1.413619E-010	0.000637	6
	51	153	2.372217	59865.68	-50456.43	1	78292.73	-40.12511	-2.285507E-009	0.0006034	6
	52	157	1.878005	67809.21	-51161.57	1	84944.66	-37.0343	1.354353E-009	0.0006684	6
	53	162	1.512097	75023.94	-51828.53	1	91185.46	-34.63775	2.804849E-010	0.0006623	6
	54	167	1.201923	82494.94	-51550.21	1	97277.1	-32.00083	-1.836038E-009	0.0006861	6
	55	180	0.956633	90216.44	-51534.2	1	103897.9	-29.73624	-1.005724E-008	2.799026E-005	6
