EXPLAIN
TAG	EISPOT
TITLE	LABEL	Potentiostatic EIS	Test Identifier
DATE	LABEL	8/25/2020	Date
TIME	LABEL	12:48:55	Time
NOTES	NOTES	1	Notes...
	
PSTAT	PSTAT	REF3000-16137	Potentiostat
VDC	POTEN	0.00000E+000	T	DC Voltage (V)
FREQINIT	QUANT	3.00000E+005	Initial Freq. (Hz)
FREQFINAL	QUANT	1.00000E+000	Final Freq. (Hz)
PTSPERDEC	QUANT	1.00000E+001	Points/decade
VAC	QUANT	5.00000E+001	AC Voltage (mV rms)
AREA	QUANT	1.00000E+000	Sample Area (cm^2)
SPEED	SELECTOR	2	Optimize for:
ZGUESS	QUANT	1.00000E+003	Estimated Z (ohms)
EOC	QUANT	0	Open Circuit (V)
SEQUENCER	TOGGLE	TRUE	Run as Sequence
PSTATMODEL	IQUANT	5	Pstat Model
PSTATSECTION	LABEL	REF3000-16137	Pstat Section
PSTATSERIALNO	LABEL	16137	Pstat Serial Number
CTRLMODE	IQUANT	1	Control Mode
IESTAB	IQUANT	0	I/E Stability
CASPEED	IQUANT	1	Control Amp Speed
CONVENTION	IQUANT	1	Current Convention
ICHRANGE	IQUANT	2	Ich Range
ICHRANGEMODE	TOGGLE	F	Ich Auto Range
ICHOFFSETENABLE	TOGGLE	T	Ich Offset Enable
ICHOFFSET	QUANT	0	Ich Offset (V)
ICHFILTER	IQUANT	3	Ich Filter
VCHRANGE	IQUANT	2	Vch Range
VCHRANGEMODE	TOGGLE	F	Vch Auto Range
VCHOFFSETENABLE	TOGGLE	T	Vch Offset Enable
VCHOFFSET	QUANT	0	Vch Offset (V)
VCHFILTER	IQUANT	3	Vch Filter
ACHRANGE	IQUANT	2	Ach Range
ACHOFFSETENABLE	TOGGLE	F	Ach Offset Enable
ACHOFFSET	QUANT	0	Ach Offset (V)
ACHFILTER	IQUANT	3	Ach Filter
IERANGELOWERLIMIT	IQUANT	2	I/E Range Lower Limit
IERANGEMODE	TOGGLE	F	I/E AutoRange
IERANGE	IQUANT	11	I/E Range
POSFEEDENABLE	TOGGLE	F	Positive Feedback IR Comp
POSFEEDRESISTANCE	QUANT	0	Positive Feedback Resistance (ohm)
ACHSELECT	IQUANT	0	Ach Select
CABLEID	IQUANT	13	Cable ID
DCCALDATE	LABEL	7/31/2020	DC Calibration Date
ACCALDATE	LABEL	7/31/2020	AC Calibration Date
THERMOSELECT	IQUANT	1	Thermo Select
FRAMEWORKVERSION	QUANT	6.33	Framework Version
INSTRUMENTVERSION	LABEL	3.50	Instrument Version
COMPLIANCEVOLTAGE	IQUANT	0	Compliance Voltage
ZCURVE	TABLE
	Pt	Time	Freq	Zreal	Zimag	Zsig	Zmod	Zphz	Idc	Vdc	IERange
	#	s	Hz	ohm	ohm	V	ohm	°	A	V	#
	0	18	300046.9	387.4892	-35.56421	1	389.1178	-5.243981	2.491289E-005	0.0007015	9
	1	23	238359.4	389.9193	-32.53208	1	391.274	-4.769305	-8.460665E-006	0.0014989	9
	2	30	189328.1	392.0116	-30.98961	1	393.2346	-4.51999	1.980471E-005	-0.0004009	9
	3	36	150421.9	394.5426	-30.55838	1	395.7242	-4.428869	-8.265084E-005	0.0037501	9
	4	43	119484.4	397.9534	-30.50959	1	399.1212	-4.384076	8.06337E-005	-0.0029525	9
	5	48	94921.88	400.7451	-32.04133	1	402.024	-4.571324	2.827958E-005	-0.0006341	9
	6	52	75421.88	403.9652	-34.63673	1	405.4474	-4.900661	1.717899E-005	-0.0008629	9
	7	55	59859.37	406.9197	-30.43675	1	408.0564	-4.27764	1.180258E-005	-0.0006205	8
	8	57	47578.12	410.1245	-36.94272	1	411.7849	-5.147132	1.098909E-005	-0.0003677	8
	9	60	37828.12	414.404	-43.34408	1	416.6646	-5.971071	-4.131887E-006	0.0050574	8
	10	62	30046.88	419.0358	-50.26078	1	422.0393	-6.839603	-1.341683E-005	0.0025982	8
	11	65	23859.38	402.87	-55.24599	1	406.6404	-7.808328	1.436612E-005	-0.0038516	8
	12	67	18984.38	414.2859	-64.202	1	419.231	-8.809071	-1.151693E-005	0.0022453	8
	13	69	15046.87	425.4198	-74.592	1	431.9096	-9.945	6.503302E-006	0.0017321	8
	14	72	11953.13	437.884	-88.59942	1	446.7575	-11.43853	1.344395E-005	-0.0041794	8
	15	74	9515.62	449.7935	-103.3265	1	461.509	-12.93752	-1.080841E-005	0.0015893	8
	16	76	7546.875	462.4215	-124.0574	1	478.7733	-15.01756	-9.219882E-006	0.0062649	8
	17	79	5928.309	476.3207	-145.5858	1	498.073	-16.99559	2.780506E-006	-0.0035078	8
	18	81	4733.456	487.82	-173.6741	1	517.8137	-19.59679	-1.384288E-005	0.0039209	8
	19	83	3796.875	502.1322	-205.2272	1	542.4528	-22.2304	1.467875E-005	-0.0021135	8
	20	86	2987.132	517.2746	-250.4074	1	574.6972	-25.83116	-2.514056E-006	-0.0019806	8
	21	88	2390.625	531.4208	-301.1675	1	610.8273	-29.54116	2.816337E-006	-0.0035545	8
	22	91	1884.191	547.3643	-368.3957	1	659.7902	-33.94196	-1.41351E-005	0.0039733	8
	23	93	1516.544	562.143	-445.7504	1	717.4247	-38.4126	1.477672E-005	-0.0022106	8
	24	95	1193.986	582.8533	-551.8516	1	802.657	-43.43499	-7.490037E-006	-0.0001299	8
	25	98	946.5144	603.5557	-681.3832	1	910.2541	-48.46611	1.447813E-005	-0.0051078	8
	26	100	751.7689	631.3224	-841.3082	1	1051.84	-53.11523	6.882696E-006	0.0019195	8
	27	103	597.4265	663.7924	-1038.276	1	1232.33	-57.40834	-9.677618E-006	0.00654	8
	28	106	477.4305	700.1072	-1280.116	1	1459.057	-61.32534	-1.518302E-007	0.0006618	8
	29	108	376.6741	747.8621	-1593.978	1	1760.699	-64.86498	-1.131615E-007	0.00064	8
	30	110	298.2954	806.895	-1977.723	1	2135.993	-67.80493	-1.465187E-007	0.0006508	8
	31	113	237.7717	880.0963	-2437.759	1	2591.764	-70.14906	-1.234453E-007	0.000647	8
	32	115	189.0121	973.543	-3011.466	1	3164.919	-72.08508	-1.561184E-007	0.0006576	8
	33	117	150.2404	1091.831	-3715.566	1	3872.664	-73.6244	-1.594319E-007	0.0006566	8
	34	120	119.1737	1248.419	-4600.933	1	4767.298	-74.81886	-3.095336E-008	0.0006079	7
	35	122	95.0169	1442.754	-5659.727	1	5840.723	-75.69897	-3.667373E-008	0.0006342	7
	36	125	75.60484	1698.841	-6967.441	1	7171.562	-76.29719	-3.227679E-008	0.0006192	7
	37	127	54.50582	2212.595	-9367.772	1	9625.53	-76.71073	-3.238219E-008	0.0005989	7
	38	130	45.95588	2582.416	-10916.68	1	11217.97	-76.69095	-3.352117E-008	0.0006211	7
	39	132	37.20238	3161.473	-13175.82	1	13549.8	-76.50724	-3.17893E-008	0.0006055	7
	40	134	30.04808	3927.396	-15891.24	1	16369.36	-76.11797	-4.075807E-008	0.0006401	7
	41	137	23.91582	5003.654	-19349.61	1	19986.09	-75.50137	-3.800654E-008	0.0006403	7
	42	139	18.60119	6608.48	-23995.98	1	24889.34	-74.60247	-3.508532E-008	0.0006109	7
	43	141	15.02404	8426.525	-28689.12	1	29901.03	-73.63151	-3.900097E-008	0.0005969	7
	44	144	12.01923	10888.99	-34390.47	1	36073.18	-72.43075	-3.854782E-008	0.0005972	7
	45	146	9.450605	14345.56	-41559.71	1	43965.95	-70.95637	-5.577602E-009	0.0006535	6
	46	149	7.512019	18583.63	-49482.6	1	52857.16	-69.41588	-4.101897E-009	0.000685	6
	47	151	5.978954	23929.44	-58457.21	1	63165.37	-67.73828	-5.578659E-009	0.0006961	6
	48	154	4.734848	30782.98	-68706.42	1	75287.21	-65.86588	-3.782873E-009	0.0006796	6
	49	158	3.75601	39128.64	-80067.62	1	89117.2	-63.95547	-6.871043E-009	0.0006943	6
	50	161	3.004808	48678.11	-92066.08	1	104142.8	-62.13324	-7.541281E-009	0.0006787	6
	51	165	2.372217	60951.68	-105834.2	1	122131.1	-60.06165	-6.464555E-009	0.000748	6
	52	169	1.878005	74885.17	-120551.6	1	141917.2	-58.15196	-7.832807E-009	0.0006469	6
	53	174	1.512097	89592.91	-134883.2	1	161927	-56.40685	-7.684552E-009	0.0007227	6
	54	179	1.201923	107421	-151686.4	1	185871	-54.69472	-7.140032E-009	0.0006282	6
	55	185	0.956633	127124.9	-169387.6	1	211785.1	-53.11188	-9.557737E-009	7.406148E-005	6
