EXPLAIN
TAG	EISPOT
TITLE	LABEL	Potentiostatic EIS	Test Identifier
DATE	LABEL	8/25/2020	Date
TIME	LABEL	16:08:32	Time
NOTES	NOTES	1	Notes...
	
PSTAT	PSTAT	REF3000-16137	Potentiostat
VDC	POTEN	0.00000E+000	T	DC Voltage (V)
FREQINIT	QUANT	3.00000E+005	Initial Freq. (Hz)
FREQFINAL	QUANT	1.00000E+000	Final Freq. (Hz)
PTSPERDEC	QUANT	1.00000E+001	Points/decade
VAC	QUANT	5.00000E+001	AC Voltage (mV rms)
AREA	QUANT	1.00000E+000	Sample Area (cm^2)
SPEED	SELECTOR	2	Optimize for:
ZGUESS	QUANT	1.00000E+003	Estimated Z (ohms)
EOC	QUANT	0	Open Circuit (V)
SEQUENCER	TOGGLE	TRUE	Run as Sequence
PSTATMODEL	IQUANT	5	Pstat Model
PSTATSECTION	LABEL	REF3000-16137	Pstat Section
PSTATSERIALNO	LABEL	16137	Pstat Serial Number
CTRLMODE	IQUANT	1	Control Mode
IESTAB	IQUANT	0	I/E Stability
CASPEED	IQUANT	1	Control Amp Speed
CONVENTION	IQUANT	1	Current Convention
ICHRANGE	IQUANT	2	Ich Range
ICHRANGEMODE	TOGGLE	F	Ich Auto Range
ICHOFFSETENABLE	TOGGLE	T	Ich Offset Enable
ICHOFFSET	QUANT	0	Ich Offset (V)
ICHFILTER	IQUANT	3	Ich Filter
VCHRANGE	IQUANT	2	Vch Range
VCHRANGEMODE	TOGGLE	F	Vch Auto Range
VCHOFFSETENABLE	TOGGLE	T	Vch Offset Enable
VCHOFFSET	QUANT	0	Vch Offset (V)
VCHFILTER	IQUANT	3	Vch Filter
ACHRANGE	IQUANT	2	Ach Range
ACHOFFSETENABLE	TOGGLE	F	Ach Offset Enable
ACHOFFSET	QUANT	0	Ach Offset (V)
ACHFILTER	IQUANT	3	Ach Filter
IERANGELOWERLIMIT	IQUANT	2	I/E Range Lower Limit
IERANGEMODE	TOGGLE	F	I/E AutoRange
IERANGE	IQUANT	11	I/E Range
POSFEEDENABLE	TOGGLE	F	Positive Feedback IR Comp
POSFEEDRESISTANCE	QUANT	0	Positive Feedback Resistance (ohm)
ACHSELECT	IQUANT	0	Ach Select
CABLEID	IQUANT	13	Cable ID
DCCALDATE	LABEL	7/31/2020	DC Calibration Date
ACCALDATE	LABEL	7/31/2020	AC Calibration Date
THERMOSELECT	IQUANT	1	Thermo Select
FRAMEWORKVERSION	QUANT	6.33	Framework Version
INSTRUMENTVERSION	LABEL	3.50	Instrument Version
COMPLIANCEVOLTAGE	IQUANT	0	Compliance Voltage
ZCURVE	TABLE
	Pt	Time	Freq	Zreal	Zimag	Zsig	Zmod	Zphz	Idc	Vdc	IERange
	#	s	Hz	ohm	ohm	V	ohm	°	A	V	#
	0	8	300046.9	224.7771	-14.37723	1	225.2365	-3.659778	2.236096E-005	-0.0015995	9
	1	11	238359.4	225.5944	-14.48164	1	226.0587	-3.672964	-1.673837E-005	0.0009715	9
	2	15	189328.1	226.3806	-15.53753	1	226.9132	-3.926312	-1.368717E-005	0.0009985	9
	3	17	150421.9	227.9107	-16.47458	1	228.5054	-4.134447	-3.456239E-005	-0.0005063	9
	4	21	119484.4	229.3828	-17.66506	1	230.062	-4.403729	8.076318E-005	-0.0023727	9
	5	24	94921.88	230.7133	-19.95515	1	231.5747	-4.943398	2.057043E-005	-5.648559E-005	9
	6	26	75421.88	232.3682	-22.68771	1	233.4732	-5.576506	2.566955E-005	-0.0008252	9
	7	29	59859.37	234.405	-25.94523	1	235.8365	-6.316101	-1.837187E-005	0.0003135	9
	8	31	47578.12	236.7182	-29.79869	1	238.5864	-7.174798	1.600628E-005	-0.0008134	9
	9	35	37828.12	238.8934	-34.58348	1	241.3836	-8.23722	2.402031E-006	0.0005323	9
	10	39	30046.88	241.8551	-39.95597	1	245.1334	-9.380885	3.000963E-005	-0.0004998	9
	11	42	23859.38	244.717	-46.33255	1	249.0645	-10.72097	6.634612E-007	0.0005994	9
	12	46	18984.38	247.9893	-54.02448	1	253.8058	-12.28987	-2.750206E-005	0.0007524	9
	13	49	15046.87	251.3608	-63.45478	1	259.2465	-14.16802	-2.084531E-005	0.0010281	9
	14	52	11953.13	254.4578	-75.04373	1	265.2929	-16.43164	1.880279E-006	0.0006478	9
	15	54	9515.62	257.7074	-89.49166	1	272.8037	-19.15011	2.618034E-005	-0.0007378	9
	16	56	7546.875	260.3773	-107.081	1	281.5363	-22.35508	2.566447E-005	-0.0008162	9
	17	59	5928.309	264.1003	-131.993	1	295.2476	-26.55512	-1.529024E-005	0.0001172	9
	18	62	4733.456	267.498	-160.269	1	311.8354	-30.92756	2.241317E-005	-0.0008636	9
	19	65	3796.875	271.4016	-194.3109	1	333.7897	-35.60091	-2.367681E-005	0.0010948	9
	20	67	2987.132	276.5214	-242.5714	1	367.8382	-41.25804	-8.798354E-006	0.0008908	9
	21	69	2390.625	281.9698	-296.1132	1	408.8887	-46.40152	1.145995E-005	-0.0017371	8
	22	72	1884.191	289.9769	-370.0059	1	470.0967	-51.91388	1.001107E-005	-0.0033963	8
	23	74	1516.544	299.7129	-452.5729	1	542.8168	-56.48579	1.140345E-005	-0.0023435	8
	24	76	1193.986	314.0803	-567.4263	1	648.5515	-61.03471	8.864883E-006	-0.0003368	8
	25	79	946.5144	332.6937	-702.6662	1	777.4477	-64.6637	1.017791E-006	0.0028092	8
	26	81	751.7689	358.2212	-870.759	1	941.5645	-67.63824	5.315694E-006	0.0013074	8
	27	84	597.4265	391.9314	-1078.763	1	1147.755	-70.03313	5.066701E-006	-0.0029693	8
	28	86	477.4305	437.4558	-1328.122	1	1398.312	-71.7692	1.98317E-008	0.0006351	8
	29	89	376.6741	500.4815	-1650.425	1	1724.64	-73.13038	9.441545E-009	0.0006431	8
	30	91	298.2954	583.8299	-2040.906	1	2122.77	-74.03607	-8.30063E-009	0.000659	8
	31	93	237.7717	692.7844	-2504.289	1	2598.348	-74.53647	2.748569E-008	0.0006441	8
	32	96	189.0121	841.3287	-3075.75	1	3188.742	-74.70176	2.000718E-008	0.0006428	8
	33	98	150.2404	1041.867	-3768.527	1	3909.896	-74.54572	-8.710558E-010	0.0006428	8
	34	100	119.1737	1321.837	-4624.009	1	4809.232	-74.04668	-2.075961E-008	0.0006135	7
	35	103	95.0169	1686.552	-5614.004	1	5861.868	-73.27874	-1.907712E-008	0.0006077	7
	36	105	75.60484	2186.12	-6800.882	1	7143.606	-72.18018	-2.488434E-008	0.0006239	7
	37	108	54.50582	3220.76	-8860.454	1	9427.669	-70.02388	-2.111715E-008	0.0006117	7
	38	110	45.95588	3961.555	-10112.37	1	10860.66	-68.60707	-1.893706E-008	0.0006142	7
	39	113	37.20238	5119.801	-11818.07	1	12879.41	-66.57687	-1.628382E-008	0.000626	7
	40	115	30.04808	6615.172	-13685.89	1	15200.79	-64.20287	-1.853257E-008	0.0006099	7
	41	118	23.91582	8651.959	-15803.37	1	18016.74	-61.30037	-1.369936E-008	0.00062	7
	42	120	18.60119	11423.19	-18188.29	1	21477.98	-57.86905	-2.834679E-008	0.0006261	7
	43	122	15.02404	14297.8	-20077.78	1	24648.41	-54.54454	-8.739293E-009	0.0006182	7
	44	125	12.01923	17710.69	-21824.66	1	28106.66	-50.9407	-9.134359E-009	0.0006138	7
	45	127	9.450605	21754.24	-23346.29	1	31910.76	-47.0217	-2.474319E-008	0.0006172	7
	46	129	7.512019	25806.83	-24277.32	1	35431.35	-43.2508	-2.799802E-008	0.000663	7
	47	132	5.978954	29913.26	-24642.47	1	38756.35	-39.48161	-2.150869E-008	0.0006713	6
	48	135	4.734848	33981.66	-24633.82	1	41971.16	-35.93892	-1.396242E-008	0.0006723	6
	49	139	3.75601	37497.9	-23710.19	1	44365.14	-32.30546	-2.181091E-008	0.0006473	6
	50	144	3.004808	40457.13	-22574.5	1	46329.12	-29.1609	-1.804325E-008	0.0006412	6
	51	150	2.372217	43757.37	-21805.87	1	48889.7	-26.48872	-2.720238E-008	0.0006706	6
	52	155	1.878005	45644.91	-19752.13	1	49735.34	-23.39981	-2.542937E-008	0.0006668	6
	53	164	1.512097	47196.49	-18325.36	1	50629.32	-21.22009	-2.636995E-008	0.0005547	6
	54	174	1.201923	48757.11	-16916.45	1	51608.36	-19.13439	-3.155059E-008	0.0006662	6
	55	187	0.956633	50056.77	-15568.07	1	52421.8	-17.27613	-4.676344E-008	2.397182E-005	6
