EXPLAIN
TAG	EISPOT
TITLE	LABEL	Potentiostatic EIS	Test Identifier
DATE	LABEL	8/25/2020	Date
TIME	LABEL	12:11:05	Time
NOTES	NOTES	1	Notes...
	
PSTAT	PSTAT	REF3000-16137	Potentiostat
VDC	POTEN	0.00000E+000	T	DC Voltage (V)
FREQINIT	QUANT	3.00000E+005	Initial Freq. (Hz)
FREQFINAL	QUANT	1.00000E+000	Final Freq. (Hz)
PTSPERDEC	QUANT	1.00000E+001	Points/decade
VAC	QUANT	5.00000E+001	AC Voltage (mV rms)
AREA	QUANT	1.00000E+000	Sample Area (cm^2)
SPEED	SELECTOR	2	Optimize for:
ZGUESS	QUANT	1.00000E+003	Estimated Z (ohms)
EOC	QUANT	0	Open Circuit (V)
SEQUENCER	TOGGLE	TRUE	Run as Sequence
PSTATMODEL	IQUANT	5	Pstat Model
PSTATSECTION	LABEL	REF3000-16137	Pstat Section
PSTATSERIALNO	LABEL	16137	Pstat Serial Number
CTRLMODE	IQUANT	1	Control Mode
IESTAB	IQUANT	0	I/E Stability
CASPEED	IQUANT	1	Control Amp Speed
CONVENTION	IQUANT	1	Current Convention
ICHRANGE	IQUANT	2	Ich Range
ICHRANGEMODE	TOGGLE	F	Ich Auto Range
ICHOFFSETENABLE	TOGGLE	T	Ich Offset Enable
ICHOFFSET	QUANT	0	Ich Offset (V)
ICHFILTER	IQUANT	3	Ich Filter
VCHRANGE	IQUANT	2	Vch Range
VCHRANGEMODE	TOGGLE	F	Vch Auto Range
VCHOFFSETENABLE	TOGGLE	T	Vch Offset Enable
VCHOFFSET	QUANT	0	Vch Offset (V)
VCHFILTER	IQUANT	3	Vch Filter
ACHRANGE	IQUANT	2	Ach Range
ACHOFFSETENABLE	TOGGLE	F	Ach Offset Enable
ACHOFFSET	QUANT	0	Ach Offset (V)
ACHFILTER	IQUANT	3	Ach Filter
IERANGELOWERLIMIT	IQUANT	2	I/E Range Lower Limit
IERANGEMODE	TOGGLE	F	I/E AutoRange
IERANGE	IQUANT	11	I/E Range
POSFEEDENABLE	TOGGLE	F	Positive Feedback IR Comp
POSFEEDRESISTANCE	QUANT	0	Positive Feedback Resistance (ohm)
ACHSELECT	IQUANT	0	Ach Select
CABLEID	IQUANT	13	Cable ID
DCCALDATE	LABEL	7/31/2020	DC Calibration Date
ACCALDATE	LABEL	7/31/2020	AC Calibration Date
THERMOSELECT	IQUANT	1	Thermo Select
FRAMEWORKVERSION	QUANT	6.33	Framework Version
INSTRUMENTVERSION	LABEL	3.50	Instrument Version
COMPLIANCEVOLTAGE	IQUANT	0	Compliance Voltage
ZCURVE	TABLE
	Pt	Time	Freq	Zreal	Zimag	Zsig	Zmod	Zphz	Idc	Vdc	IERange
	#	s	Hz	ohm	ohm	V	ohm	°	A	V	#
	0	8	300046.9	216.0303	-12.94941	1	216.418	-3.430351	2.864775E-005	0.0004042	9
	1	11	238359.4	216.9614	-13.48751	1	217.3802	-3.557243	-6.037977E-005	0.0006831	9
	2	14	189328.1	218.4285	-14.16958	1	218.8876	-3.711609	-1.42818E-005	0.0013745	9
	3	17	150421.9	219.1499	-15.56909	1	219.7022	-4.063643	7.48508E-005	-0.0016381	9
	4	20	119484.4	220.3451	-17.48737	1	221.0379	-4.537686	-8.897734E-006	-0.0012874	9
	5	23	94921.88	222.0206	-19.55869	1	222.8805	-5.03442	-2.392638E-005	0.0008308	9
	6	26	75421.88	223.604	-22.35574	1	224.7188	-5.70941	-1.543003E-005	0.0009104	9
	7	28	59859.37	225.7365	-25.51664	1	227.1741	-6.449183	-8.053876E-006	0.0008877	9
	8	31	47578.12	228.043	-29.1342	1	229.8966	-7.280524	-2.362597E-005	0.0008254	9
	9	33	37828.12	230.9323	-33.24628	1	233.3131	-8.192327	-1.818387E-005	0.0003312	9
	10	36	30046.88	233.6857	-38.51508	1	236.8384	-9.359107	-1.008864E-006	-0.0004034	9
	11	38	23859.38	236.8266	-44.80384	1	241.0274	-10.71284	-2.35202E-005	0.0008382	9
	12	42	18984.38	240.4386	-51.81562	1	245.9585	-12.16151	-1.778684E-006	-0.0004468	9
	13	45	15046.87	244.3311	-60.67559	1	251.7523	-13.94634	-1.6209E-005	0.0001712	9
	14	49	11953.13	248.1894	-70.04887	1	257.8853	-15.76117	-1.64257E-005	0.0002236	9
	15	52	9515.62	252.0721	-82.95856	1	265.3723	-18.21671	1.050126E-005	-0.0006791	9
	16	56	7546.875	255.8127	-99.2341	1	274.3858	-21.20213	2.852066E-005	-0.0006458	9
	17	58	5928.309	258.9398	-119.0212	1	284.9839	-24.68579	-2.210375E-005	0.0005207	9
	18	62	4733.456	262.87	-144.1831	1	299.8156	-28.74459	-8.06546E-006	0.0008794	9
	19	64	3796.875	266.2748	-174.4867	1	318.3518	-33.23634	7.856466E-006	-0.0006527	9
	20	66	2987.132	271.7099	-215.9929	1	347.1011	-38.48257	-2.095327E-005	0.00098	9
	21	69	2390.625	277.5517	-264.6142	1	383.4783	-43.63304	-2.179091E-005	0.0005261	9
	22	71	1884.191	285.5161	-328.6996	1	435.3882	-49.02166	-2.194238E-005	0.0005046	9
	23	74	1516.544	293.1922	-400.8512	1	496.632	-53.81736	-2.195907E-006	-0.0009172	8
	24	76	1193.986	305.5474	-501.2857	1	587.066	-58.63655	-2.610263E-006	0.0038	8
	25	78	946.5144	320.4146	-622.5173	1	700.138	-62.76476	8.767782E-006	-0.0003192	8
	26	81	751.7689	343.2177	-770.9219	1	843.8715	-66.00117	-9.637767E-006	0.0043035	8
	27	83	597.4265	372.8874	-953.597	1	1023.911	-68.6429	-8.063522E-006	0.0015863	8
	28	86	477.4305	408.2319	-1172.816	1	1241.833	-70.80809	-6.23406E-009	0.000651	8
	29	88	376.6741	459.3153	-1458.002	1	1528.64	-72.51398	-1.032241E-008	0.0006426	8
	30	90	298.2954	526.1204	-1804.324	1	1879.465	-73.74392	1.744408E-008	0.0006429	8
	31	93	237.7717	612.2914	-2217.113	1	2300.107	-74.56165	1.378695E-008	0.0006438	8
	32	95	189.0121	728.2221	-2727.917	1	2823.445	-75.05334	-2.704391E-009	0.0006467	8
	33	97	150.2404	884.0695	-3351.572	1	3466.21	-75.22324	2.13278E-008	0.0006391	8
	34	100	119.1737	1095.522	-4117.301	1	4260.556	-75.10009	-5.574774E-009	0.0006522	8
	35	102	95.0169	1380.42	-5031.733	1	5217.653	-74.65876	-1.924612E-008	0.0006272	7
	36	105	75.60484	1760.716	-6125.211	1	6373.251	-73.96249	-2.112873E-008	0.0006116	7
	37	107	54.50582	2554.82	-8068.12	1	8462.959	-72.42928	-2.241021E-008	0.0006217	7
	38	110	45.95588	3125.331	-9283.87	1	9795.81	-71.39465	-2.014658E-008	0.0006185	7
	39	112	37.20238	4024.345	-10973.21	1	11687.88	-69.85985	-1.918042E-008	0.0006172	7
	40	114	30.04808	5214.698	-12906.99	1	13920.62	-68.00025	-1.924552E-008	0.0006211	7
	41	117	23.91582	6870.825	-15206.06	1	16686.3	-65.68427	-2.00543E-008	0.0006237	7
	42	119	18.60119	9232.355	-17991.86	1	20222.35	-62.83579	-3.288211E-008	0.0006327	7
	43	121	15.02404	11765.15	-20421.13	1	23567.8	-60.05262	-8.510113E-009	0.00062	7
	44	124	12.01923	14957.31	-22944.65	1	27389.38	-56.90021	-2.081526E-008	0.0006316	7
	45	126	9.450605	19045.68	-25500.93	1	31828.21	-53.24534	-1.841658E-008	0.0006225	7
	46	129	7.512019	23506.46	-27571.46	1	36231.75	-49.55025	-1.947576E-008	0.0006241	7
	47	131	5.978954	28314.24	-28971.88	1	40510.07	-45.65772	-1.783952E-008	0.0006854	6
	48	134	4.734848	33410.33	-29795.27	1	44766.15	-41.72652	-1.664694E-008	0.0006403	6
	49	138	3.75601	38266.46	-29468.95	1	48298.46	-37.59982	-1.445425E-008	0.0006942	6
	50	143	3.004808	42551.78	-28677.74	1	51313.42	-33.97797	-1.096462E-008	0.0006367	6
	51	150	2.372217	47223.96	-28266.78	1	55037.38	-30.90341	-1.771652E-008	0.0005962	6
	52	154	1.878005	50636.3	-26364.32	1	57088.63	-27.50421	-1.389046E-008	0.0006761	6
	53	163	1.512097	53739.35	-25076.19	1	59302.05	-25.01499	-1.591671E-008	0.0005963	6
	54	174	1.201923	56968.07	-23896.49	1	61777.05	-22.75666	-1.820708E-008	0.0006933	6
	55	186	0.956633	59970.58	-22592.96	1	64085.2	-20.6431	-3.317874E-008	3.155318E-005	6
