EXPLAIN
TAG	EISPOT
TITLE	LABEL	Potentiostatic EIS	Test Identifier
DATE	LABEL	8/25/2020	Date
TIME	LABEL	12:36:39	Time
NOTES	NOTES	1	Notes...
	
PSTAT	PSTAT	REF3000-16137	Potentiostat
VDC	POTEN	0.00000E+000	T	DC Voltage (V)
FREQINIT	QUANT	3.00000E+005	Initial Freq. (Hz)
FREQFINAL	QUANT	1.00000E+000	Final Freq. (Hz)
PTSPERDEC	QUANT	1.00000E+001	Points/decade
VAC	QUANT	5.00000E+001	AC Voltage (mV rms)
AREA	QUANT	1.00000E+000	Sample Area (cm^2)
SPEED	SELECTOR	2	Optimize for:
ZGUESS	QUANT	1.00000E+003	Estimated Z (ohms)
EOC	QUANT	0	Open Circuit (V)
SEQUENCER	TOGGLE	TRUE	Run as Sequence
PSTATMODEL	IQUANT	5	Pstat Model
PSTATSECTION	LABEL	REF3000-16137	Pstat Section
PSTATSERIALNO	LABEL	16137	Pstat Serial Number
CTRLMODE	IQUANT	1	Control Mode
IESTAB	IQUANT	0	I/E Stability
CASPEED	IQUANT	1	Control Amp Speed
CONVENTION	IQUANT	1	Current Convention
ICHRANGE	IQUANT	2	Ich Range
ICHRANGEMODE	TOGGLE	F	Ich Auto Range
ICHOFFSETENABLE	TOGGLE	T	Ich Offset Enable
ICHOFFSET	QUANT	0	Ich Offset (V)
ICHFILTER	IQUANT	3	Ich Filter
VCHRANGE	IQUANT	2	Vch Range
VCHRANGEMODE	TOGGLE	F	Vch Auto Range
VCHOFFSETENABLE	TOGGLE	T	Vch Offset Enable
VCHOFFSET	QUANT	0	Vch Offset (V)
VCHFILTER	IQUANT	3	Vch Filter
ACHRANGE	IQUANT	2	Ach Range
ACHOFFSETENABLE	TOGGLE	F	Ach Offset Enable
ACHOFFSET	QUANT	0	Ach Offset (V)
ACHFILTER	IQUANT	3	Ach Filter
IERANGELOWERLIMIT	IQUANT	2	I/E Range Lower Limit
IERANGEMODE	TOGGLE	F	I/E AutoRange
IERANGE	IQUANT	11	I/E Range
POSFEEDENABLE	TOGGLE	F	Positive Feedback IR Comp
POSFEEDRESISTANCE	QUANT	0	Positive Feedback Resistance (ohm)
ACHSELECT	IQUANT	0	Ach Select
CABLEID	IQUANT	13	Cable ID
DCCALDATE	LABEL	7/31/2020	DC Calibration Date
ACCALDATE	LABEL	7/31/2020	AC Calibration Date
THERMOSELECT	IQUANT	1	Thermo Select
FRAMEWORKVERSION	QUANT	6.33	Framework Version
INSTRUMENTVERSION	LABEL	3.50	Instrument Version
COMPLIANCEVOLTAGE	IQUANT	0	Compliance Voltage
ZCURVE	TABLE
	Pt	Time	Freq	Zreal	Zimag	Zsig	Zmod	Zphz	Idc	Vdc	IERange
	#	s	Hz	ohm	ohm	V	ohm	°	A	V	#
	0	10	300046.9	292.7549	-21.57172	1	293.5485	-4.21424	-2.201434E-005	0.0010251	9
	1	15	238359.4	294.0226	-26.32438	1	295.1987	-5.116155	-0.000099	0.0004756	10
	2	20	189328.1	295.8317	-21.37709	1	296.6031	-4.133066	-5.581647E-006	-0.0016033	9
	3	24	150421.9	298.6013	-24.76462	1	299.6265	-4.740999	-0.0000971	0.0007211	10
	4	31	119484.4	300.4587	-23.65166	1	301.3882	-4.500957	1.689127E-005	-0.0007879	9
	5	36	94921.88	302.3134	-25.14428	1	303.3573	-4.754513	1.590269E-005	-0.0008175	9
	6	40	75421.88	304.9355	-27.99545	1	306.2179	-5.245494	1.629797E-005	-0.000833	9
	7	42	59859.37	308.0369	-31.83372	1	309.6774	-5.900222	-2.090657E-005	0.0004246	9
	8	45	47578.12	311.5742	-36.31684	1	313.6836	-6.648351	6.881201E-006	0.0004002	9
	9	47	37828.12	314.3706	-41.66068	1	317.1191	-7.548903	2.138901E-005	-0.0001155	9
	10	50	30046.88	318.3753	-47.1778	1	321.8518	-8.428923	2.755619E-005	-0.0005196	9
	11	52	23859.38	322.3928	-54.62143	1	326.9872	-9.61603	2.458257E-005	-0.0002041	9
	12	55	18984.38	327.4235	-62.83598	1	333.3984	-10.86357	-1.550393E-005	0.0001068	9
	13	57	15046.87	332.5613	-72.41232	1	340.3536	-12.28392	1.260285E-005	-0.0006728	9
	14	59	11953.13	337.5428	-84.97485	1	348.0746	-14.13033	-6.905747E-007	-0.0004312	9
	15	62	9515.62	343.0158	-99.254	1	357.0872	-16.13817	2.396947E-005	-0.0001921	9
	16	64	7546.875	348.6417	-116.9502	1	367.7341	-18.54379	2.647274E-005	-0.0008186	9
	17	67	5928.309	354.0804	-140.506	1	380.9395	-21.64414	1.173666E-005	0.0002953	9
	18	69	4733.456	357.1243	-166.2049	1	393.9059	-24.95718	-7.264467E-006	0.0052288	8
	19	71	3796.875	362.8003	-200.3331	1	414.4363	-28.90685	-1.119671E-005	0.0025625	8
	20	74	2987.132	367.5523	-247.5742	1	443.1565	-33.96323	1.021328E-006	0.0033372	8
	21	76	2390.625	373.8839	-302.6396	1	481.0196	-38.98837	9.522715E-006	-0.0041555	8
	22	78	1884.191	378.6013	-375.5072	1	533.2397	-44.76492	-1.01129E-005	0.0053747	8
	23	80	1516.544	389.2451	-460.89	1	603.2672	-49.81721	-1.113933E-005	0.0025659	8
	24	83	1193.986	402.1917	-577.8632	1	704.0483	-55.16216	1.012954E-005	-0.0003732	8
	25	85	946.5144	418.9547	-713.4296	1	827.348	-59.57682	-9.425175E-006	0.0016471	8
	26	88	751.7689	434.5791	-888.5464	1	989.128	-63.93721	1.045942E-006	0.0033242	8
	27	91	597.4265	462.0198	-1103.718	1	1196.518	-67.28566	1.317858E-005	-0.0027447	8
	28	93	477.4305	497.6945	-1361.213	1	1449.345	-69.91629	-5.860841E-008	0.0006474	8
	29	95	376.6741	545.2695	-1697.967	1	1783.37	-72.19657	-4.295019E-008	0.0006297	8
	30	98	298.2954	607.0739	-2109.048	1	2194.68	-73.94193	-6.954597E-008	0.0006458	8
	31	100	237.7717	686.0079	-2601.281	1	2690.217	-75.22636	-3.2716E-008	0.000634	8
	32	103	189.0121	791.353	-3214.589	1	3310.562	-76.17018	-4.229152E-008	0.0006395	8
	33	105	150.2404	930.1226	-3967.774	1	4075.335	-76.80698	-3.192778E-008	0.0006396	8
	34	107	119.1737	1120.861	-4911.135	1	5037.418	-77.14367	-1.896758E-008	0.0006239	7
	35	110	95.0169	1365.532	-6033.825	1	6186.414	-77.24804	-1.879252E-008	0.000613	7
	36	112	75.60484	1697.255	-7413.434	1	7605.24	-77.10476	-2.697818E-008	0.0006697	7
	37	115	54.50582	2383.953	-9920.15	1	10202.58	-76.48724	-2.274411E-008	0.0006222	7
	38	117	45.95588	2883.621	-11526.2	1	11881.43	-75.95406	-2.238873E-008	0.0006319	7
	39	120	37.20238	3673.802	-13833.49	1	14313.01	-75.12711	-2.056425E-008	0.0006063	7
	40	122	30.04808	4733.861	-16580.04	1	17242.59	-74.06512	-2.434336E-008	0.0006315	7
	41	125	23.91582	6221.827	-20008.39	1	20953.44	-72.72635	-2.202311E-008	0.000619	7
	42	127	18.60119	8438.865	-24478.07	1	25891.9	-70.97826	-2.635843E-008	0.0006238	7
	43	129	15.02404	10956.27	-28830.09	1	30841.76	-69.19176	-2.651586E-008	0.0006183	7
	44	131	12.01923	14260.66	-33911.38	1	36787.88	-67.19192	-1.414508E-008	0.000617	7
	45	134	9.450605	18835.93	-39951.34	1	44169.02	-64.75745	-9.908184E-009	0.000676	6
	46	136	7.512019	24242.26	-46200.61	1	52174.55	-62.31323	-7.477053E-009	0.0006943	6
	47	139	5.978954	30744.77	-52668.25	1	60985.12	-59.72601	-7.177314E-009	0.0006507	6
	48	142	4.734848	38574.26	-59602.71	1	70996.17	-57.08947	-2.523368E-009	0.0006894	6
	49	145	3.75601	47539.35	-66263.53	1	81552.72	-54.34326	-8.628037E-009	0.0006579	6
	50	149	3.004808	57281.39	-72737.69	1	92584.71	-51.77934	-6.507918E-009	0.0006633	6
	51	153	2.372217	68609.86	-79160.93	1	104755.7	-49.08408	-6.392245E-009	0.0007237	6
	52	157	1.878005	80863.59	-85183.49	1	117452.8	-46.49028	-7.646408E-009	0.0006519	6
	53	162	1.512097	92728.5	-90820.41	1	129795.7	-44.4044	-6.443896E-009	0.0006142	6
	54	167	1.201923	106321.6	-96498.6	1	143583.7	-42.22723	-6.186182E-009	0.000657	6
	55	173	0.956633	120684.1	-101971.8	1	157996.5	-40.19607	-7.96433E-009	2.563203E-005	6
