EXPLAIN
TAG	EISPOT
TITLE	LABEL	Potentiostatic EIS	Test Identifier
DATE	LABEL	8/25/2020	Date
TIME	LABEL	15:25:08	Time
NOTES	NOTES	1	Notes...
	
PSTAT	PSTAT	REF3000-16137	Potentiostat
VDC	POTEN	0.00000E+000	T	DC Voltage (V)
FREQINIT	QUANT	3.00000E+005	Initial Freq. (Hz)
FREQFINAL	QUANT	1.00000E+000	Final Freq. (Hz)
PTSPERDEC	QUANT	1.00000E+001	Points/decade
VAC	QUANT	5.00000E+001	AC Voltage (mV rms)
AREA	QUANT	1.00000E+000	Sample Area (cm^2)
SPEED	SELECTOR	2	Optimize for:
ZGUESS	QUANT	1.00000E+003	Estimated Z (ohms)
EOC	QUANT	0	Open Circuit (V)
SEQUENCER	TOGGLE	TRUE	Run as Sequence
PSTATMODEL	IQUANT	5	Pstat Model
PSTATSECTION	LABEL	REF3000-16137	Pstat Section
PSTATSERIALNO	LABEL	16137	Pstat Serial Number
CTRLMODE	IQUANT	1	Control Mode
IESTAB	IQUANT	0	I/E Stability
CASPEED	IQUANT	1	Control Amp Speed
CONVENTION	IQUANT	1	Current Convention
ICHRANGE	IQUANT	2	Ich Range
ICHRANGEMODE	TOGGLE	F	Ich Auto Range
ICHOFFSETENABLE	TOGGLE	T	Ich Offset Enable
ICHOFFSET	QUANT	0	Ich Offset (V)
ICHFILTER	IQUANT	3	Ich Filter
VCHRANGE	IQUANT	2	Vch Range
VCHRANGEMODE	TOGGLE	F	Vch Auto Range
VCHOFFSETENABLE	TOGGLE	T	Vch Offset Enable
VCHOFFSET	QUANT	0	Vch Offset (V)
VCHFILTER	IQUANT	3	Vch Filter
ACHRANGE	IQUANT	2	Ach Range
ACHOFFSETENABLE	TOGGLE	F	Ach Offset Enable
ACHOFFSET	QUANT	0	Ach Offset (V)
ACHFILTER	IQUANT	3	Ach Filter
IERANGELOWERLIMIT	IQUANT	2	I/E Range Lower Limit
IERANGEMODE	TOGGLE	F	I/E AutoRange
IERANGE	IQUANT	11	I/E Range
POSFEEDENABLE	TOGGLE	F	Positive Feedback IR Comp
POSFEEDRESISTANCE	QUANT	0	Positive Feedback Resistance (ohm)
ACHSELECT	IQUANT	0	Ach Select
CABLEID	IQUANT	13	Cable ID
DCCALDATE	LABEL	7/31/2020	DC Calibration Date
ACCALDATE	LABEL	7/31/2020	AC Calibration Date
THERMOSELECT	IQUANT	1	Thermo Select
FRAMEWORKVERSION	QUANT	6.33	Framework Version
INSTRUMENTVERSION	LABEL	3.50	Instrument Version
COMPLIANCEVOLTAGE	IQUANT	0	Compliance Voltage
ZCURVE	TABLE
	Pt	Time	Freq	Zreal	Zimag	Zsig	Zmod	Zphz	Idc	Vdc	IERange
	#	s	Hz	ohm	ohm	V	ohm	°	A	V	#
	0	9	300046.9	221.6288	-13.62268	1	222.0471	-3.517328	2.179793E-005	-0.0016052	9
	1	12	238359.4	221.9455	-13.39326	1	222.3493	-3.453316	-7.748276E-005	0.0032864	9
	2	16	189328.1	223.463	-14.651	1	223.9427	-3.75114	-3.007024E-005	-0.0006673	9
	3	20	150421.9	223.9623	-15.96975	1	224.531	-4.078601	-7.672468E-005	0.0035342	9
	4	23	119484.4	226.3083	-17.35651	1	226.9729	-4.385664	2.132883E-005	-0.0013253	9
	5	26	94921.88	227.4337	-19.20523	1	228.2431	-4.826787	2.009442E-005	-0.0001225	9
	6	29	75421.88	229.1241	-21.34558	1	230.1163	-5.322408	-2.218863E-005	0.0009806	9
	7	31	59859.37	231.2955	-24.88328	1	232.6301	-6.140389	-1.737183E-005	0.0003799	9
	8	34	47578.12	233.3983	-28.29312	1	235.107	-6.911811	-2.151685E-005	0.0009749	9
	9	37	37828.12	235.8891	-32.58278	1	238.1288	-7.864361	2.413343E-005	-0.0005327	9
	10	39	30046.88	239.0096	-38.18265	1	242.0403	-9.076514	2.606124E-005	0.0006124	10
	11	43	23859.38	241.9446	-43.35899	1	245.7991	-10.16015	-2.403742E-005	0.0007212	9
	12	46	18984.38	245.3916	-50.04077	1	250.4419	-11.52584	-1.67584E-005	0.0001903	9
	13	49	15046.87	249.0743	-58.46697	1	255.8445	-13.21028	-1.952162E-005	0.0003477	9
	14	52	11953.13	252.0461	-68.39019	1	261.1599	-15.18111	-1.572688E-005	0.0001016	9
	15	54	9515.62	255.2945	-80.23039	1	267.6045	-17.44616	2.597453E-005	-0.0007707	9
	16	58	7546.875	258.7985	-95.8528	1	275.979	-20.32342	2.876107E-005	-0.0008328	9
	17	60	5928.309	262.3282	-116.9287	1	287.2079	-24.02418	2.610737E-005	-0.0007962	9
	18	63	4733.456	264.9981	-141.6127	1	300.4632	-28.11966	1.33825E-006	0.0006189	9
	19	66	3796.875	268.4131	-171.2128	1	318.37	-32.5326	-8.730656E-006	0.0008477	9
	20	68	2987.132	273.5022	-212.5687	1	346.3942	-37.85472	1.58096E-005	-0.0008056	9
	21	71	2390.625	278.4584	-260.3594	1	381.2166	-43.07615	7.312681E-006	-0.000629	9
	22	73	1884.191	285.6113	-323.1859	1	431.3037	-48.53177	8.735591E-006	-0.0003344	8
	23	76	1516.544	292.8674	-395.7147	1	492.3022	-53.49495	-5.971627E-006	0.0044717	8
	24	78	1193.986	306.0898	-493.9286	1	581.0822	-58.21331	1.115298E-005	-0.0030028	8
	25	80	946.5144	322.3048	-611.6411	1	691.3647	-62.21297	-8.276241E-006	0.004637	8
	26	83	751.7689	343.7211	-761.7988	1	835.7521	-65.71526	1.103619E-006	0.0028306	8
	27	85	597.4265	371.868	-940.5651	1	1011.409	-68.42781	-2.168874E-006	-0.0010262	8
	28	88	477.4305	408.9112	-1157.054	1	1227.185	-70.53622	1.316534E-008	0.0006446	8
	29	90	376.6741	461.2874	-1438.564	1	1510.713	-72.22112	-1.227524E-008	0.000643	8
	30	92	298.2954	530.6821	-1780.048	1	1857.47	-73.39921	-1.118197E-008	0.0006501	8
	31	95	237.7717	621.054	-2186.12	1	2272.625	-74.1407	-1.166317E-008	0.0006524	8
	32	97	189.0121	743.9134	-2687.329	1	2788.394	-74.52671	2.345552E-008	0.0006408	8
	33	100	150.2404	910.0074	-3297.26	1	3420.532	-74.57108	3.211393E-008	0.0006429	8
	34	102	119.1737	1138.74	-4044.217	1	4201.479	-74.27424	8.437791E-009	0.0006523	8
	35	104	95.0169	1445.359	-4931.898	1	5139.327	-73.66608	-3.010313E-008	0.0006238	7
	36	107	75.60484	1859.68	-5989.15	1	6271.23	-72.75001	-2.997826E-008	0.0006362	7
	37	109	54.50582	2721.324	-7840.106	1	8298.968	-70.85796	-2.649529E-008	0.0006129	7
	38	112	45.95588	3337.333	-8972.603	1	9573.16	-69.59747	-2.158178E-008	0.0006255	7
	39	114	37.20238	4305.267	-10534.71	1	11380.48	-67.77141	-2.600099E-008	0.0006082	7
	40	117	30.04808	5577.965	-12274.52	1	13482.49	-65.56133	-2.418907E-008	0.0006104	7
	41	119	23.91582	7300.901	-14277.04	1	16035.5	-62.916	-3.092344E-008	0.0006222	7
	42	121	18.60119	9711.95	-16600.01	1	19232.33	-59.66993	-3.193286E-008	0.0006232	7
	43	124	15.02404	12242.64	-18512.88	1	22194.8	-56.52319	-2.581284E-008	0.000613	7
	44	126	12.01923	15352.51	-20355	1	25495.6	-52.97502	-3.262559E-008	0.0006064	7
	45	129	9.450605	19093.29	-22036.13	1	29157.25	-49.09258	-2.465712E-008	0.0006182	7
	46	131	7.512019	23025.47	-23135.7	1	32640.97	-45.13683	-2.767371E-008	0.0006208	7
	47	134	5.978954	27003.34	-23631.33	1	35883.42	-41.19002	-2.818165E-008	0.0006378	7
	48	137	4.734848	31005.36	-23599.02	1	38964.68	-37.27574	-1.768366E-008	0.0006742	6
	49	140	3.75601	34434.2	-22451.23	1	41106.83	-33.10451	-2.944123E-008	0.0006394	6
	50	146	3.004808	37358.16	-21224.25	1	42966.28	-29.60216	-3.181639E-008	0.0006559	6
	51	152	2.372217	40379.68	-20181.23	1	45142	-26.55528	-3.506354E-008	0.0007153	6
	52	156	1.878005	42018.7	-17919.79	1	45680.3	-23.09688	-4.138309E-008	0.000647	6
	53	165	1.512097	43360.11	-16441.64	1	46372.7	-20.76614	-4.325995E-008	0.0006222	6
	54	176	1.201923	44597.39	-14878.49	1	47013.79	-18.44963	-4.6386E-008	0.0006457	6
	55	189	0.956633	45874.11	-13636.23	1	47857.93	-16.55476	-6.415652E-008	2.562669E-005	6
