EXPLAIN
TAG	EISPOT
TITLE	LABEL	Potentiostatic EIS	Test Identifier
DATE	LABEL	8/25/2020	Date
TIME	LABEL	13:20:22	Time
NOTES	NOTES	1	Notes...
	
PSTAT	PSTAT	REF3000-16137	Potentiostat
VDC	POTEN	0.00000E+000	T	DC Voltage (V)
FREQINIT	QUANT	3.00000E+005	Initial Freq. (Hz)
FREQFINAL	QUANT	1.00000E+000	Final Freq. (Hz)
PTSPERDEC	QUANT	1.00000E+001	Points/decade
VAC	QUANT	5.00000E+001	AC Voltage (mV rms)
AREA	QUANT	1.00000E+000	Sample Area (cm^2)
SPEED	SELECTOR	2	Optimize for:
ZGUESS	QUANT	1.00000E+003	Estimated Z (ohms)
EOC	QUANT	0	Open Circuit (V)
SEQUENCER	TOGGLE	TRUE	Run as Sequence
PSTATMODEL	IQUANT	5	Pstat Model
PSTATSECTION	LABEL	REF3000-16137	Pstat Section
PSTATSERIALNO	LABEL	16137	Pstat Serial Number
CTRLMODE	IQUANT	1	Control Mode
IESTAB	IQUANT	0	I/E Stability
CASPEED	IQUANT	1	Control Amp Speed
CONVENTION	IQUANT	1	Current Convention
ICHRANGE	IQUANT	2	Ich Range
ICHRANGEMODE	TOGGLE	F	Ich Auto Range
ICHOFFSETENABLE	TOGGLE	T	Ich Offset Enable
ICHOFFSET	QUANT	0	Ich Offset (V)
ICHFILTER	IQUANT	3	Ich Filter
VCHRANGE	IQUANT	2	Vch Range
VCHRANGEMODE	TOGGLE	F	Vch Auto Range
VCHOFFSETENABLE	TOGGLE	T	Vch Offset Enable
VCHOFFSET	QUANT	0	Vch Offset (V)
VCHFILTER	IQUANT	3	Vch Filter
ACHRANGE	IQUANT	2	Ach Range
ACHOFFSETENABLE	TOGGLE	F	Ach Offset Enable
ACHOFFSET	QUANT	0	Ach Offset (V)
ACHFILTER	IQUANT	3	Ach Filter
IERANGELOWERLIMIT	IQUANT	2	I/E Range Lower Limit
IERANGEMODE	TOGGLE	F	I/E AutoRange
IERANGE	IQUANT	11	I/E Range
POSFEEDENABLE	TOGGLE	F	Positive Feedback IR Comp
POSFEEDRESISTANCE	QUANT	0	Positive Feedback Resistance (ohm)
ACHSELECT	IQUANT	0	Ach Select
CABLEID	IQUANT	13	Cable ID
DCCALDATE	LABEL	7/31/2020	DC Calibration Date
ACCALDATE	LABEL	7/31/2020	AC Calibration Date
THERMOSELECT	IQUANT	1	Thermo Select
FRAMEWORKVERSION	QUANT	6.33	Framework Version
INSTRUMENTVERSION	LABEL	3.50	Instrument Version
COMPLIANCEVOLTAGE	IQUANT	0	Compliance Voltage
ZCURVE	TABLE
	Pt	Time	Freq	Zreal	Zimag	Zsig	Zmod	Zphz	Idc	Vdc	IERange
	#	s	Hz	ohm	ohm	V	ohm	°	A	V	#
	0	17	300046.9	1433.968	-4189.914	1	4428.503	-71.10686	-0.0001092	0.0038589	9
	1	31	238359.4	2164.142	-4716.795	1	5189.573	-65.35358	-2.450364E-005	0.0015043	9
	2	49	189328.1	2931.711	-5714.545	1	6422.691	-62.84099	2.809351E-005	-0.0019691	9
	3	57	150421.9	4033.936	-6399.582	1	7564.872	-57.77497	-6.123268E-005	0.0006327	9
	4	67	119484.4	5306.498	-7057.068	1	8829.56	-53.059	2.987638E-005	-0.0019266	9
	5	77	94921.88	7131.674	-7225.54	1	10152.3	-45.37458	-1.945976E-005	0.0112749	8
	6	86	75421.88	8684.001	-7254.224	1	11315.28	-39.87386	-1.1359E-005	0.0099753	8
	7	95	59859.37	10196.47	-7108.479	1	12429.74	-34.88232	-2.615222E-005	0.0075483	8
	8	103	47578.12	11765.63	-6832.277	1	13605.52	-30.14364	-1.161876E-005	0.0099934	8
	9	112	37828.12	13933.84	-5167.878	1	14861.32	-20.34915	-7.110247E-006	0.0176539	7
	10	117	30046.88	14710.57	-4607.43	1	15415.23	-17.39084	-7.095679E-006	0.0176652	7
	11	122	23859.38	15360.29	-4079.607	1	15892.81	-14.87405	-4.95326E-006	0.0027691	7
	12	126	18984.38	15850.73	-3542.275	1	16241.71	-12.59731	1.380077E-007	0.0166278	7
	13	130	15046.87	16281.43	-3231.127	1	16598.95	-11.22477	7.438715E-006	-0.023496	7
	14	135	11953.13	16651.4	-2769.591	1	16880.16	-9.443433	-5.379225E-006	0.0262935	7
	15	139	9515.62	16997.21	-2523.731	1	17183.55	-8.445525	-7.484027E-007	-0.0137038	7
	16	143	7546.875	17420.26	-2271.404	1	17567.72	-7.428809	-3.653092E-006	0.0250161	7
	17	147	5928.309	17591.84	-2090.181	1	17715.58	-6.775854	1.797192E-007	0.0166139	7
	18	152	4733.456	17797.29	-1937.087	1	17902.4	-6.211718	-6.400756E-006	0.0107789	7
	19	156	3796.875	18088.36	-1974.037	1	18195.76	-6.22821	1.531817E-006	-0.0199137	7
	20	160	2987.132	18501.47	-1997.514	1	18608.99	-6.162079	-7.08568E-006	0.0224261	7
	21	164	2390.625	18639.97	-2056.967	1	18753.12	-6.297251	1.511243E-006	-0.0200159	7
	22	169	1884.191	19014.58	-2295.553	1	19152.64	-6.883773	-7.121161E-006	0.0177332	7
	23	173	1516.544	19247.28	-2183.27	1	19370.71	-6.47155	-7.076942E-006	0.0224056	7
	24	177	1193.986	19521.67	-2350.391	1	19662.65	-6.865314	5.359987E-006	-0.0259894	7
	25	182	946.5144	19987.03	-2172.53	1	20104.76	-6.203524	4.623199E-006	0.0003717	7
	26	184	751.7689	20025.74	-3010.211	1	20250.72	-8.548532	1.482249E-006	-0.0197393	7
	27	187	597.4265	21009.95	-3459.862	1	21292.92	-9.351386	-6.477926E-006	0.0109212	7
	28	190	477.4305	21019.03	-3527.397	1	21312.96	-9.52656	-8.780994E-008	0.0006308	7
	29	192	376.6741	21404.36	-4010.3	1	21776.81	-10.61185	-9.052879E-008	0.0005926	7
	30	194	298.2954	21818.54	-4597.798	1	22297.72	-11.89978	-8.663281E-008	0.0005665	7
	31	196	237.7717	22245.25	-5287.212	1	22864.95	-13.36988	-9.297308E-008	0.0006188	7
	32	199	189.0121	22714.05	-6134.569	1	23527.88	-15.11375	-8.482252E-008	0.0006114	7
	33	201	150.2404	23228.12	-7180.082	1	24312.53	-17.17699	-8.543292E-008	0.0005961	7
	34	204	119.1737	23774.79	-8456.469	1	25233.96	-19.57999	-9.431911E-008	0.000657	7
	35	206	95.0169	24420.29	-10008.73	1	26391.77	-22.28641	-8.513481E-008	0.0006104	7
	36	209	75.60484	25131.38	-11907.07	1	27809.43	-25.35127	-9.418797E-008	0.00063	7
	37	211	54.50582	26280.18	-15350.74	1	30435.06	-30.29	-9.340404E-008	0.0006495	7
	38	214	45.95588	27039.27	-17572.24	1	32247.57	-33.01897	-8.502809E-008	0.0005672	7
	39	216	37.20238	28071.49	-20819.3	1	34949.28	-36.56259	-8.635406E-008	0.0005649	7
	40	218	30.04808	29266.71	-24760.2	1	38335.46	-40.23186	-8.673373E-008	0.0006223	7
	41	221	23.91582	30838.86	-29838.72	1	42911.36	-44.05568	-9.074587E-009	0.0006995	6
	42	223	18.60119	32815.91	-36717.31	1	49244.75	-48.21141	-9.548888E-009	0.0006139	6
	43	226	15.02404	34853.49	-43813.69	1	55985.75	-51.49799	-1.123204E-008	0.0006579	6
	44	228	12.01923	37397.59	-52715.21	1	64633.38	-54.64708	-9.542126E-009	0.0006591	6
	45	230	9.450605	40775.92	-64431.18	1	76249.94	-57.67192	-1.046494E-008	0.0006532	6
	46	233	7.512019	44683.96	-78037.38	1	89924.9	-60.20468	-1.056538E-008	0.0006833	6
	47	236	5.978954	49542.64	-94441.8	1	106647.7	-62.31923	-1.075109E-008	0.0006879	6
	48	239	4.734848	55761.24	-114747.1	1	127578.3	-64.08261	-9.913772E-009	0.0006175	6
	49	242	3.75601	63371.07	-139228.5	1	152972.1	-65.52693	-8.96129E-009	0.0006606	6
	50	247	3.004808	72544.35	-167584.1	1	182611.9	-66.59303	-9.655494E-009	0.0006275	6
	51	254	2.372217	84741.12	-203985.5	1	220887.2	-67.44067	-9.998821E-009	0.0005884	6
	52	258	1.878005	99534.4	-247273.1	1	266554.1	-68.07383	-9.477658E-009	0.0006593	6
	53	263	1.512097	116952.6	-294547	1	316916.2	-68.34399	-9.685368E-009	0.0005932	6
	54	268	1.201923	139814.2	-355773.3	1	382260	-68.54584	-9.657703E-009	0.0006828	6
	55	274	0.956633	168329.3	-428273.7	1	460166.4	-68.54311	-1.539789E-009	7.137426E-006	5
