EXPLAIN
TAG	EISPOT
TITLE	LABEL	Potentiostatic EIS	Test Identifier
DATE	LABEL	8/25/2020	Date
TIME	LABEL	15:28:27	Time
NOTES	NOTES	1	Notes...
	
PSTAT	PSTAT	REF3000-16137	Potentiostat
VDC	POTEN	0.00000E+000	T	DC Voltage (V)
FREQINIT	QUANT	3.00000E+005	Initial Freq. (Hz)
FREQFINAL	QUANT	1.00000E+000	Final Freq. (Hz)
PTSPERDEC	QUANT	1.00000E+001	Points/decade
VAC	QUANT	5.00000E+001	AC Voltage (mV rms)
AREA	QUANT	1.00000E+000	Sample Area (cm^2)
SPEED	SELECTOR	2	Optimize for:
ZGUESS	QUANT	1.00000E+003	Estimated Z (ohms)
EOC	QUANT	0	Open Circuit (V)
SEQUENCER	TOGGLE	TRUE	Run as Sequence
PSTATMODEL	IQUANT	5	Pstat Model
PSTATSECTION	LABEL	REF3000-16137	Pstat Section
PSTATSERIALNO	LABEL	16137	Pstat Serial Number
CTRLMODE	IQUANT	1	Control Mode
IESTAB	IQUANT	0	I/E Stability
CASPEED	IQUANT	1	Control Amp Speed
CONVENTION	IQUANT	1	Current Convention
ICHRANGE	IQUANT	2	Ich Range
ICHRANGEMODE	TOGGLE	F	Ich Auto Range
ICHOFFSETENABLE	TOGGLE	T	Ich Offset Enable
ICHOFFSET	QUANT	0	Ich Offset (V)
ICHFILTER	IQUANT	3	Ich Filter
VCHRANGE	IQUANT	2	Vch Range
VCHRANGEMODE	TOGGLE	F	Vch Auto Range
VCHOFFSETENABLE	TOGGLE	T	Vch Offset Enable
VCHOFFSET	QUANT	0	Vch Offset (V)
VCHFILTER	IQUANT	3	Vch Filter
ACHRANGE	IQUANT	2	Ach Range
ACHOFFSETENABLE	TOGGLE	F	Ach Offset Enable
ACHOFFSET	QUANT	0	Ach Offset (V)
ACHFILTER	IQUANT	3	Ach Filter
IERANGELOWERLIMIT	IQUANT	2	I/E Range Lower Limit
IERANGEMODE	TOGGLE	F	I/E AutoRange
IERANGE	IQUANT	11	I/E Range
POSFEEDENABLE	TOGGLE	F	Positive Feedback IR Comp
POSFEEDRESISTANCE	QUANT	0	Positive Feedback Resistance (ohm)
ACHSELECT	IQUANT	0	Ach Select
CABLEID	IQUANT	13	Cable ID
DCCALDATE	LABEL	7/31/2020	DC Calibration Date
ACCALDATE	LABEL	7/31/2020	AC Calibration Date
THERMOSELECT	IQUANT	1	Thermo Select
FRAMEWORKVERSION	QUANT	6.33	Framework Version
INSTRUMENTVERSION	LABEL	3.50	Instrument Version
COMPLIANCEVOLTAGE	IQUANT	0	Compliance Voltage
ZCURVE	TABLE
	Pt	Time	Freq	Zreal	Zimag	Zsig	Zmod	Zphz	Idc	Vdc	IERange
	#	s	Hz	ohm	ohm	V	ohm	°	A	V	#
	0	9	300046.9	221.6772	-13.2792	1	222.0746	-3.428111	-8.377796E-005	0.0020377	9
	1	12	238359.4	221.6838	-13.3925	1	222.088	-3.457188	1.47545E-005	-0.0019582	9
	2	16	189328.1	224.1418	-14.38074	1	224.6027	-3.671014	-6.445893E-006	-0.0016144	9
	3	19	150421.9	225.6787	-15.66946	1	226.222	-3.971822	7.669874E-005	-0.0029213	9
	4	22	119484.4	226.273	-17.35726	1	226.9377	-4.386532	1.325141E-005	-0.0008112	9
	5	25	94921.88	227.7146	-19.32253	1	228.533	-4.850166	2.619631E-005	-0.0007777	9
	6	27	75421.88	229.3741	-21.7346	1	230.4016	-5.412963	-1.888323E-005	0.000317	9
	7	30	59859.37	231.6301	-24.72521	1	232.946	-6.092929	-1.530633E-005	0.0001739	9
	8	32	47578.12	233.6379	-28.43359	1	235.3617	-6.938738	1.561896E-005	-0.0007966	9
	9	35	37828.12	236.3145	-32.58334	1	238.5502	-7.850515	-2.17587E-005	0.0009422	9
	10	37	30046.88	239.1635	-37.67238	1	242.1124	-8.951522	7.989546E-006	-0.000667	9
	11	41	23859.38	242.3176	-43.45649	1	246.1834	-10.16717	2.492383E-005	-0.0002349	9
	12	45	18984.38	245.707	-50.47308	1	250.8376	-11.6082	-8.27339E-006	0.0009825	9
	13	48	15046.87	248.6667	-58.72687	1	255.5073	-13.2879	1.044339E-006	0.000584	9
	14	50	11953.13	252.3799	-68.29453	1	261.457	-15.14172	-1.340437E-006	-0.0003848	9
	15	54	9515.62	255.2846	-80.97235	1	267.8185	-17.59823	-4.558536E-006	-0.0002721	9
	16	58	7546.875	259.0933	-97.0154	1	276.661	-20.528	-7.496405E-006	0.0008979	9
	17	60	5928.309	261.7463	-117.3944	1	286.8668	-24.15645	7.873612E-006	-0.0006556	9
	18	62	4733.456	264.7635	-141.8412	1	300.3642	-28.17919	-1.550597E-005	0.0001214	9
	19	65	3796.875	269.5808	-172.97	1	320.3005	-32.68529	2.430757E-005	-0.000205	9
	20	67	2987.132	273.097	-214.9996	1	347.5727	-38.2121	2.060432E-005	-7.468058E-005	9
	21	69	2390.625	278.0076	-263.5465	1	383.0731	-43.47039	1.407364E-006	0.0005869	9
	22	72	1884.191	282.4985	-326.6509	1	431.8636	-49.14567	5.178103E-006	0.0013178	8
	23	74	1516.544	292.7023	-399.7037	1	495.4167	-53.78474	-5.707695E-006	0.0003476	8
	24	76	1193.986	305.6959	-501.3731	1	587.218	-58.62862	1.133503E-005	-0.0023013	8
	25	79	946.5144	322.1249	-622.0378	1	700.4966	-62.62243	9.872346E-007	0.0027997	8
	26	81	751.7689	343.715	-770.4918	1	843.681	-65.95844	-5.768373E-006	0.0003774	8
	27	84	597.4265	373.665	-954.069	1	1024.633	-68.612	8.008235E-006	-0.0033727	8
	28	86	477.4305	410.5816	-1172.863	1	1242.652	-70.70649	7.95734E-009	0.0006321	8
	29	89	376.6741	463.8178	-1458.337	1	1530.318	-72.35696	6.315575E-010	0.0006445	8
	30	91	298.2954	534.3307	-1804.628	1	1882.071	-73.50655	-5.791899E-009	0.0006428	8
	31	93	237.7717	626.2827	-2216.437	1	2303.22	-74.22168	1.428893E-008	0.0006356	8
	32	96	189.0121	751.3632	-2724.891	1	2826.584	-74.5843	1.604411E-008	0.0006328	8
	33	98	150.2404	920.4722	-3343.542	1	3467.931	-74.60785	2.395968E-008	0.0006427	8
	34	101	119.1737	1151.452	-4099.807	1	4258.434	-74.31232	1.907171E-008	0.0006523	8
	35	103	95.0169	1463.438	-4996.681	1	5206.579	-73.67564	-2.547963E-008	0.0006211	7
	36	106	75.60484	1883.588	-6064.839	1	6350.605	-72.74651	-2.629614E-008	0.0006061	7
	37	108	54.50582	2757.32	-7933.49	1	8398.993	-70.83488	-2.776389E-008	0.0006139	7
	38	111	45.95588	3379.689	-9076.772	1	9685.56	-69.57745	-2.078332E-008	0.0006182	7
	39	113	37.20238	4366.155	-10655.78	1	11515.6	-67.71887	-2.577637E-008	0.0006094	7
	40	115	30.04808	5652.929	-12385.48	1	13614.54	-65.46729	-2.736691E-008	0.0006138	7
	41	118	23.91582	7364.913	-14388.83	1	16164.17	-62.8944	-2.728736E-008	0.0006196	7
	42	120	18.60119	9806.67	-16722.58	1	19385.96	-59.61123	-3.058514E-008	0.00061	7
	43	122	15.02404	12357.95	-18638.35	1	22363.07	-56.45408	-1.151153E-008	0.0006179	7
	44	125	12.01923	15463.87	-20493.33	1	25673.09	-52.96251	-3.19016E-008	0.0006113	7
	45	127	9.450605	19234.75	-22175.66	1	29355.34	-49.06224	-2.322222E-008	0.0006206	7
	46	130	7.512019	23182.31	-23316.43	1	32879.71	-45.16526	-2.942262E-008	0.0006407	7
	47	132	5.978954	27189.88	-23772.14	1	36116.54	-41.16324	-2.715247E-008	0.0006129	7
	48	135	4.734848	31205.75	-23742.37	1	39210.95	-37.26509	-1.664308E-008	0.0006769	6
	49	139	3.75601	34691.54	-22635.82	1	41423.22	-33.12398	-2.889809E-008	0.0006527	6
	50	144	3.004808	37623.44	-21410.68	1	43289.04	-29.64327	-3.171538E-008	0.0006914	6
	51	151	2.372217	40313.34	-19888.42	1	44952.36	-26.25923	-2.918144E-008	0.0007155	6
	52	158	1.878005	41984.76	-17771.51	1	45591.08	-22.9422	-3.552122E-008	0.0006367	6
	53	167	1.512097	43581.26	-16487.19	1	46595.64	-20.72209	-3.937053E-008	0.0007628	6
	54	178	1.201923	44884.56	-14989.62	1	47321.37	-18.46722	-4.20305E-008	0.0006418	6
	55	191	0.956633	46302.51	-13823.32	1	48321.91	-16.62266	-6.980597E-008	2.694799E-005	6
