EXPLAIN
TAG	EISPOT
TITLE	LABEL	Potentiostatic EIS	Test Identifier
DATE	LABEL	8/25/2020	Date
TIME	LABEL	15:11:40	Time
NOTES	NOTES	1	Notes...
	
PSTAT	PSTAT	REF3000-16137	Potentiostat
VDC	POTEN	0.00000E+000	T	DC Voltage (V)
FREQINIT	QUANT	3.00000E+005	Initial Freq. (Hz)
FREQFINAL	QUANT	1.00000E+000	Final Freq. (Hz)
PTSPERDEC	QUANT	1.00000E+001	Points/decade
VAC	QUANT	5.00000E+001	AC Voltage (mV rms)
AREA	QUANT	1.00000E+000	Sample Area (cm^2)
SPEED	SELECTOR	2	Optimize for:
ZGUESS	QUANT	1.00000E+003	Estimated Z (ohms)
EOC	QUANT	0	Open Circuit (V)
SEQUENCER	TOGGLE	TRUE	Run as Sequence
PSTATMODEL	IQUANT	5	Pstat Model
PSTATSECTION	LABEL	REF3000-16137	Pstat Section
PSTATSERIALNO	LABEL	16137	Pstat Serial Number
CTRLMODE	IQUANT	1	Control Mode
IESTAB	IQUANT	0	I/E Stability
CASPEED	IQUANT	1	Control Amp Speed
CONVENTION	IQUANT	1	Current Convention
ICHRANGE	IQUANT	2	Ich Range
ICHRANGEMODE	TOGGLE	F	Ich Auto Range
ICHOFFSETENABLE	TOGGLE	T	Ich Offset Enable
ICHOFFSET	QUANT	0	Ich Offset (V)
ICHFILTER	IQUANT	3	Ich Filter
VCHRANGE	IQUANT	2	Vch Range
VCHRANGEMODE	TOGGLE	F	Vch Auto Range
VCHOFFSETENABLE	TOGGLE	T	Vch Offset Enable
VCHOFFSET	QUANT	0	Vch Offset (V)
VCHFILTER	IQUANT	3	Vch Filter
ACHRANGE	IQUANT	2	Ach Range
ACHOFFSETENABLE	TOGGLE	F	Ach Offset Enable
ACHOFFSET	QUANT	0	Ach Offset (V)
ACHFILTER	IQUANT	3	Ach Filter
IERANGELOWERLIMIT	IQUANT	2	I/E Range Lower Limit
IERANGEMODE	TOGGLE	F	I/E AutoRange
IERANGE	IQUANT	11	I/E Range
POSFEEDENABLE	TOGGLE	F	Positive Feedback IR Comp
POSFEEDRESISTANCE	QUANT	0	Positive Feedback Resistance (ohm)
ACHSELECT	IQUANT	0	Ach Select
CABLEID	IQUANT	13	Cable ID
DCCALDATE	LABEL	7/31/2020	DC Calibration Date
ACCALDATE	LABEL	7/31/2020	AC Calibration Date
THERMOSELECT	IQUANT	1	Thermo Select
FRAMEWORKVERSION	QUANT	6.33	Framework Version
INSTRUMENTVERSION	LABEL	3.50	Instrument Version
COMPLIANCEVOLTAGE	IQUANT	0	Compliance Voltage
ZCURVE	TABLE
	Pt	Time	Freq	Zreal	Zimag	Zsig	Zmod	Zphz	Idc	Vdc	IERange
	#	s	Hz	ohm	ohm	V	ohm	°	A	V	#
	0	10	300046.9	225.4933	-13.94594	1	225.9241	-3.539028	4.962035E-005	-0.0004658	9
	1	13	238359.4	226.7896	-14.57777	1	227.2576	-3.677845	5.723739E-006	0.0011177	9
	2	16	189328.1	227.542	-15.63057	1	228.0783	-3.929651	2.069389E-005	-0.0017599	9
	3	19	150421.9	229.0372	-16.48476	1	229.6297	-4.116716	7.933178E-005	-0.0024639	9
	4	22	119484.4	230.0747	-18.02162	1	230.7794	-4.478801	8.990111E-006	-0.0015645	9
	5	26	94921.88	231.2819	-19.63496	1	232.1139	-4.852559	-2.37403E-005	0.000869	9
	6	28	75421.88	232.8541	-22.34907	1	233.9241	-5.48239	7.790264E-006	-0.0006657	9
	7	31	59859.37	234.6321	-25.38853	1	236.0017	-6.1757	-1.563799E-005	8.557855E-005	9
	8	33	47578.12	237.1939	-28.89626	1	238.9476	-6.945858	2.79621E-005	-0.0009102	9
	9	37	37828.12	239.5175	-33.26122	1	241.816	-7.905963	2.758264E-005	-0.0006576	9
	10	41	30046.88	242.0216	-38.06452	1	244.9967	-8.938111	-1.5375E-005	0.000108	9
	11	44	23859.38	245.3095	-44.05244	1	249.2336	-10.18061	1.671481E-005	-0.000815	9
	12	48	18984.38	248.6535	-50.934	1	253.8165	-11.57629	2.430607E-005	-0.0002933	9
	13	51	15046.87	252.2419	-59.89716	1	259.2559	-13.35801	2.384025E-006	0.000618	9
	14	55	11953.13	256.0324	-68.76609	1	265.1064	-15.0339	-8.310028E-006	0.0009111	9
	15	58	9515.62	259.0531	-81.44537	1	271.5545	-17.45296	7.619446E-006	-0.000646	9
	16	61	7546.875	262.4651	-96.5913	1	279.6745	-20.20441	-1.617557E-005	0.0001573	9
	17	63	5928.309	266.3722	-117.1545	1	290.9971	-23.74062	-1.874999E-005	0.0003486	9
	18	65	4733.456	270.2245	-140.5924	1	304.6104	-27.48706	-2.402379E-005	0.000707	9
	19	68	3796.875	274.2166	-169.8675	1	322.5673	-31.77676	2.62099E-005	-0.0007804	9
	20	70	2987.132	278.7892	-210.8183	1	349.5251	-37.09629	2.717883E-005	-0.0004928	9
	21	72	2390.625	285.1697	-256.726	1	383.7056	-41.99534	-7.57285E-006	-0.0000954	9
	22	75	1884.191	290.2468	-322.0183	1	433.5193	-47.97051	-5.655143E-006	0.0003207	8
	23	77	1516.544	297.9872	-390.882	1	491.5131	-52.68008	1.100242E-005	-0.0016634	8
	24	80	1193.986	311.1419	-486.7512	1	577.6989	-57.4124	5.2137E-006	0.0013118	8
	25	82	946.5144	329.162	-604.5096	1	688.3165	-61.43123	-5.972792E-006	0.0045156	8
	26	84	751.7689	350.2306	-748.5899	1	826.4673	-64.92728	-9.885234E-006	0.0044123	8
	27	87	597.4265	378.1841	-924.8011	1	999.14	-67.7586	-9.761714E-006	0.004361	8
	28	89	477.4305	417.1693	-1136.027	1	1210.201	-69.83586	-3.612685E-009	0.0006382	8
	29	92	376.6741	470.6787	-1411.028	1	1487.461	-71.55277	-3.213525E-009	0.0006349	8
	30	94	298.2954	541.3366	-1743.778	1	1825.872	-72.75362	-2.39066E-008	0.0006447	8
	31	96	237.7717	633.4138	-2138.722	1	2230.548	-73.50257	6.075497E-009	0.0006327	8
	32	99	189.0121	758.3231	-2625.095	1	2732.431	-73.88734	2.705278E-009	0.0006406	8
	33	101	150.2404	926.7199	-3215.46	1	3346.34	-73.92262	-9.268102E-009	0.000644	8
	34	104	119.1737	1156.681	-3935.458	1	4101.918	-73.62127	-1.852684E-008	0.0006619	8
	35	106	95.0169	1463.814	-4788.255	1	5007.009	-73.00111	-4.095506E-008	0.0006121	7
	36	109	75.60484	1876.907	-5801.324	1	6097.388	-72.07201	-4.112718E-008	0.000607	7
	37	111	54.50582	2727.659	-7560.33	1	8037.332	-70.16129	-3.842447E-008	0.0006047	7
	38	114	45.95588	3330.66	-8638.529	1	9258.374	-68.91542	-4.301307E-008	0.000638	7
	39	116	37.20238	4280.092	-10117.95	1	10985.99	-67.07067	-3.401788E-008	0.0006237	7
	40	118	30.04808	5521.823	-11765.09	1	12996.46	-64.85748	-3.896567E-008	0.0006139	7
	41	121	23.91582	7187.026	-13636.87	1	15414.85	-62.20947	-4.045503E-008	0.0006259	7
	42	123	18.60119	9530.08	-15818.28	1	18467.28	-58.93218	-4.610526E-008	0.0006155	7
	43	125	15.02404	11951.62	-17583.13	1	21260.47	-55.79525	-3.931075E-008	0.000629	7
	44	128	12.01923	14933.89	-19237.43	1	24353.64	-52.17804	-2.926999E-008	0.0006227	7
	45	130	9.450605	18555.89	-20726.67	1	27819.34	-48.16299	-4.494244E-008	0.0006263	7
	46	133	7.512019	22208.63	-21681.75	1	31037.43	-44.31223	-4.230021E-008	0.0005954	7
	47	135	5.978954	25977.15	-21948.36	1	34007.98	-40.19481	-4.344573E-008	0.0006157	7
	48	138	4.734848	29564.19	-21176.45	1	36365.96	-35.61355	-4.077911E-008	0.0006238	7
	49	143	3.75601	32654.06	-20159.38	1	38375.62	-31.68961	-4.461606E-008	0.0006468	6
	50	149	3.004808	35353.14	-19074.71	1	40170.75	-28.34899	-4.511667E-008	0.0006871	6
	51	155	2.372217	38156.6	-18128.08	1	42243.97	-25.41224	-4.640334E-008	0.0007292	6
	52	159	1.878005	39656.2	-16128.8	1	42810.66	-22.13235	-5.213162E-008	0.0006466	6
	53	168	1.512097	40963.88	-14826.74	1	43564.57	-19.89756	-5.394549E-008	0.0007356	6
	54	179	1.201923	42039.83	-13417.85	1	44129.2	-17.70152	-5.590577E-008	0.0006397	6
	55	192	0.956633	43165.54	-12204.08	1	44857.59	-15.78705	-7.82945E-008	3.696638E-005	6
