EXPLAIN
TAG	EISPOT
TITLE	LABEL	Potentiostatic EIS	Test Identifier
DATE	LABEL	8/25/2020	Date
TIME	LABEL	14:46:54	Time
NOTES	NOTES	1	Notes...
	
PSTAT	PSTAT	REF3000-16137	Potentiostat
VDC	POTEN	0.00000E+000	T	DC Voltage (V)
FREQINIT	QUANT	3.00000E+005	Initial Freq. (Hz)
FREQFINAL	QUANT	1.00000E+000	Final Freq. (Hz)
PTSPERDEC	QUANT	1.00000E+001	Points/decade
VAC	QUANT	5.00000E+001	AC Voltage (mV rms)
AREA	QUANT	1.00000E+000	Sample Area (cm^2)
SPEED	SELECTOR	2	Optimize for:
ZGUESS	QUANT	1.00000E+003	Estimated Z (ohms)
EOC	QUANT	0	Open Circuit (V)
SEQUENCER	TOGGLE	TRUE	Run as Sequence
PSTATMODEL	IQUANT	5	Pstat Model
PSTATSECTION	LABEL	REF3000-16137	Pstat Section
PSTATSERIALNO	LABEL	16137	Pstat Serial Number
CTRLMODE	IQUANT	1	Control Mode
IESTAB	IQUANT	0	I/E Stability
CASPEED	IQUANT	1	Control Amp Speed
CONVENTION	IQUANT	1	Current Convention
ICHRANGE	IQUANT	2	Ich Range
ICHRANGEMODE	TOGGLE	F	Ich Auto Range
ICHOFFSETENABLE	TOGGLE	T	Ich Offset Enable
ICHOFFSET	QUANT	0	Ich Offset (V)
ICHFILTER	IQUANT	3	Ich Filter
VCHRANGE	IQUANT	2	Vch Range
VCHRANGEMODE	TOGGLE	F	Vch Auto Range
VCHOFFSETENABLE	TOGGLE	T	Vch Offset Enable
VCHOFFSET	QUANT	0	Vch Offset (V)
VCHFILTER	IQUANT	3	Vch Filter
ACHRANGE	IQUANT	2	Ach Range
ACHOFFSETENABLE	TOGGLE	F	Ach Offset Enable
ACHOFFSET	QUANT	0	Ach Offset (V)
ACHFILTER	IQUANT	3	Ach Filter
IERANGELOWERLIMIT	IQUANT	2	I/E Range Lower Limit
IERANGEMODE	TOGGLE	F	I/E AutoRange
IERANGE	IQUANT	11	I/E Range
POSFEEDENABLE	TOGGLE	F	Positive Feedback IR Comp
POSFEEDRESISTANCE	QUANT	0	Positive Feedback Resistance (ohm)
ACHSELECT	IQUANT	0	Ach Select
CABLEID	IQUANT	13	Cable ID
DCCALDATE	LABEL	7/31/2020	DC Calibration Date
ACCALDATE	LABEL	7/31/2020	AC Calibration Date
THERMOSELECT	IQUANT	1	Thermo Select
FRAMEWORKVERSION	QUANT	6.33	Framework Version
INSTRUMENTVERSION	LABEL	3.50	Instrument Version
COMPLIANCEVOLTAGE	IQUANT	0	Compliance Voltage
ZCURVE	TABLE
	Pt	Time	Freq	Zreal	Zimag	Zsig	Zmod	Zphz	Idc	Vdc	IERange
	#	s	Hz	ohm	ohm	V	ohm	°	A	V	#
	0	14	300046.9	-63.01756	-4867.475	1	4867.882	-90.74174	-1.140958E-007	0.0016124	9
	1	38	238359.4	-20.96764	-6026.327	1	6026.364	-90.19935	3.240366E-005	-0.0020552	9
	2	55	189328.1	253.267	-7355.893	1	7360.251	-88.02805	1.900929E-005	-0.0003862	9
	3	64	150421.9	435.2045	-9307.402	1	9317.571	-87.32286	1.995155E-005	-0.000314	9
	4	71	119484.4	-374.7842	-11981.57	1	11987.43	-91.79163	2.076473E-005	-0.0008571	9
	5	80	94921.88	667.4925	-14378.27	1	14393.76	-87.34203	1.753467E-005	0.0003347	8
	6	89	75421.88	631.8403	-18346.88	1	18357.75	-88.0276	-1.609236E-005	0.0006107	8
	7	97	59859.37	739.1954	-22866.74	1	22878.69	-88.14849	-2.068598E-005	0.0028431	8
	8	106	47578.12	532.1804	-28895.82	1	28900.72	-88.94489	-1.221705E-005	0.0103986	8
	9	115	37828.12	4072.354	-37397.51	1	37618.58	-83.78534	-1.84074E-006	0.0222452	7
	10	123	30046.88	775.3744	-47522.38	1	47528.7	-89.06525	2.616652E-005	-0.0089494	8
	11	132	23859.38	1610.121	-58198.49	1	58220.76	-88.41526	2.765571E-005	-0.0075004	8
	12	139	18984.38	4639.396	-72346.38	1	72494.98	-86.33079	3.486313E-006	-0.024393	7
	13	146	15046.87	3269.443	-91540.03	1	91598.4	-87.95449	4.334756E-007	0.0163184	7
	14	151	11953.13	8609.475	-113825.3	1	114150.5	-85.67452	-3.434277E-006	-0.0052834	7
	15	158	9515.62	5828.67	-143757.3	1	143875.4	-87.6782	-7.33244E-006	0.0237256	7
	16	163	7546.875	-458.2615	-183015.5	1	183016.1	-90.14346	-7.373341E-006	0.0239339	7
	17	169	5928.309	1279.973	-225414	1	225417.6	-89.67466	7.675864E-006	-0.0187382	7
	18	175	4733.456	-32430.08	-298963.1	1	300716.9	-96.191	4.845858E-007	0.016464	7
	19	182	3796.875	27418.09	-321405.1	1	322572.5	-85.12408	-1.814425E-006	0.0223973	7
	20	189	2987.132	2311.416	-461883.4	1	461889.2	-89.71327	6.677493E-006	-0.010194	7
	21	195	2390.625	-1710.007	-585058.8	1	585061.3	-90.16747	-7.329542E-006	0.0240127	7
	22	203	1884.191	284234.1	-716401.9	1	770727.4	-68.35918	3.5233E-006	-0.0249333	7
	23	209	1516.544	-255906.1	-409563.3	1	482938.9	-121.9982	-2.062832E-005	0.0028337	8
	24	219	1193.986	245444.8	-576629.6	1	626693.6	-66.94276	2.734261E-005	-0.0074301	8
	25	228	946.5144	3220725	-3967952	1	5110549	-50.9343	7.770293E-006	-0.0246157	7
	26	234	751.7689	78681.31	-1003224	1	1006305	-85.51556	-6.621322E-006	0.0262434	7
	27	240	597.4265	-180379.2	-908409.8	1	926145.2	-101.2309	4.938822E-006	-0.0004887	7
	28	246	477.4305	59324.66	-2801900	1	2802528	-88.78706	-9.635733E-008	0.0006608	7
	29	252	376.6741	487502.3	-3670962	1	3703191	-82.4354	-1.005379E-009	0.0005913	5
	30	256	298.2954	519146	-4590137	1	4619401	-83.54725	-1.041885E-009	0.0006651	5
	31	258	237.7717	439035.9	-5724239	1	5741051	-85.61414	-9.62401E-010	0.0005942	5
	32	261	189.0121	563433.1	-7091435	1	7113784	-85.45724	-1.005524E-009	0.0006233	5
	33	264	150.2404	387709.5	-9124254	1	9132488	-87.56684	-9.537426E-010	0.0006236	5
	34	267	119.1737	-388345.9	-8464310	1	8473214	-92.62691	-9.340178E-010	0.000605	5
	35	269	95.0169	925920	-1.424013E+007	1	1.42702E+007	-86.27975	-1.034091E-009	0.0006367	5
	36	272	75.60484	1353168	-1.675952E+007	1	1.681406E+007	-85.38393	-1.030722E-009	0.0006805	5
	37	275	54.50582	622946.8	-2.357255E+007	1	2.358078E+007	-88.48621	-1.01782E-009	0.0006759	5
	38	278	45.95588	-265640.2	-2.871117E+007	1	2.871239E+007	-90.5301	-9.635014E-010	0.0005909	5
	39	282	37.20238	-1519806	-3.59492E+007	1	3.598132E+007	-92.42082	-1.072934E-009	0.000686	5
	40	286	30.04808	1799718	-4.331324E+007	1	4.335061E+007	-87.62066	-9.994401E-010	0.0006399	5
	41	290	23.91582	8649991	-5.354485E+007	1	5.423904E+007	-80.82334	-1.289605E-010	0.0006252	4
	42	294	18.60119	-3131459	-7.05731E+007	1	7.064254E+007	-92.54065	-1.364158E-010	0.0006836	4
	43	297	15.02404	6163400	-8.435202E+007	1	8.457689E+007	-85.82096	-9.124572E-011	0.0005943	4
	44	301	12.01923	1.048043E+007	-1.042438E+008	1	1.047693E+008	-84.2589	-1.100879E-010	0.0006461	4
	45	305	9.450605	1.104669E+007	-1.333586E+008	1	1.338154E+008	-85.26475	-1.022316E-010	0.0006298	4
	46	309	7.512019	6520857	-1.698335E+008	1	1.699586E+008	-87.80118	-9.717944E-011	0.0007188	4
	47	313	5.978954	1.180991E+007	-1.914427E+008	1	1.918067E+008	-86.46996	-1.242609E-010	0.0006734	4
	48	319	4.734848	5.36361E+007	-2.80997E+008	1	2.860702E+008	-79.1935	-1.702937E-011	0.0007845	3
	49	323	3.75601	1.297966E+007	-3.26462E+008	1	3.2672E+008	-87.72321	-9.945574E-010	0.0006029	5
	50	332	3.004808	-2.502494E+007	-4.336185E+008	1	4.3434E+008	-93.30299	-1.024976E-009	0.0006457	5
	51	341	2.372217	7.442001E+007	-5.280258E+008	1	5.332444E+008	-81.97757	-1.568929E-011	0.0006782	3
	52	347	1.878005	9.034079E+007	-6.619677E+008	1	6.681038E+008	-82.22868	-1.548318E-011	0.0007255	3
	53	356	1.512097	1.109994E+008	-8.111715E+008	1	8.187308E+008	-82.20813	-1.549585E-011	0.0006134	3
	54	362	1.201923	1.401856E+008	-1.003115E+009	1	1.012863E+009	-82.04442	-1.577297E-011	0.0007338	3
	55	374	0.956633	2.082436E+008	-1.247632E+009	1	1.264892E+009	-80.52406	-1.543151E-011	8.344996E-005	3
