EXPLAIN
TAG	EISPOT
TITLE	LABEL	Potentiostatic EIS	Test Identifier
DATE	LABEL	8/25/2020	Date
TIME	LABEL	16:15:07	Time
NOTES	NOTES	1	Notes...
	
PSTAT	PSTAT	REF3000-16137	Potentiostat
VDC	POTEN	0.00000E+000	T	DC Voltage (V)
FREQINIT	QUANT	3.00000E+005	Initial Freq. (Hz)
FREQFINAL	QUANT	1.00000E+000	Final Freq. (Hz)
PTSPERDEC	QUANT	1.00000E+001	Points/decade
VAC	QUANT	5.00000E+001	AC Voltage (mV rms)
AREA	QUANT	1.00000E+000	Sample Area (cm^2)
SPEED	SELECTOR	2	Optimize for:
ZGUESS	QUANT	1.00000E+003	Estimated Z (ohms)
EOC	QUANT	0	Open Circuit (V)
SEQUENCER	TOGGLE	TRUE	Run as Sequence
PSTATMODEL	IQUANT	5	Pstat Model
PSTATSECTION	LABEL	REF3000-16137	Pstat Section
PSTATSERIALNO	LABEL	16137	Pstat Serial Number
CTRLMODE	IQUANT	1	Control Mode
IESTAB	IQUANT	0	I/E Stability
CASPEED	IQUANT	1	Control Amp Speed
CONVENTION	IQUANT	1	Current Convention
ICHRANGE	IQUANT	2	Ich Range
ICHRANGEMODE	TOGGLE	F	Ich Auto Range
ICHOFFSETENABLE	TOGGLE	T	Ich Offset Enable
ICHOFFSET	QUANT	0	Ich Offset (V)
ICHFILTER	IQUANT	3	Ich Filter
VCHRANGE	IQUANT	2	Vch Range
VCHRANGEMODE	TOGGLE	F	Vch Auto Range
VCHOFFSETENABLE	TOGGLE	T	Vch Offset Enable
VCHOFFSET	QUANT	0	Vch Offset (V)
VCHFILTER	IQUANT	3	Vch Filter
ACHRANGE	IQUANT	2	Ach Range
ACHOFFSETENABLE	TOGGLE	F	Ach Offset Enable
ACHOFFSET	QUANT	0	Ach Offset (V)
ACHFILTER	IQUANT	3	Ach Filter
IERANGELOWERLIMIT	IQUANT	2	I/E Range Lower Limit
IERANGEMODE	TOGGLE	F	I/E AutoRange
IERANGE	IQUANT	11	I/E Range
POSFEEDENABLE	TOGGLE	F	Positive Feedback IR Comp
POSFEEDRESISTANCE	QUANT	0	Positive Feedback Resistance (ohm)
ACHSELECT	IQUANT	0	Ach Select
CABLEID	IQUANT	13	Cable ID
DCCALDATE	LABEL	7/31/2020	DC Calibration Date
ACCALDATE	LABEL	7/31/2020	AC Calibration Date
THERMOSELECT	IQUANT	1	Thermo Select
FRAMEWORKVERSION	QUANT	6.33	Framework Version
INSTRUMENTVERSION	LABEL	3.50	Instrument Version
COMPLIANCEVOLTAGE	IQUANT	0	Compliance Voltage
ZCURVE	TABLE
	Pt	Time	Freq	Zreal	Zimag	Zsig	Zmod	Zphz	Idc	Vdc	IERange
	#	s	Hz	ohm	ohm	V	ohm	°	A	V	#
	0	9	300046.9	225.8651	-13.53607	1	226.2704	-3.429627	-0.0000984	0.0033434	9
	1	12	238359.4	226.3643	-14.68237	1	226.8399	-3.711104	-1.267452E-005	0.0011503	9
	2	15	189328.1	227.0495	-15.09847	1	227.551	-3.804485	8.376652E-005	-0.0026606	9
	3	18	150421.9	228.1242	-16.13691	1	228.6942	-4.046214	1.040845E-005	-0.0017147	9
	4	21	119484.4	230.0039	-18.15999	1	230.7197	-4.514431	-3.274347E-005	-0.0005205	9
	5	24	94921.88	231.3864	-20.00835	1	232.2498	-4.942164	-2.383806E-005	0.0008265	9
	6	27	75421.88	232.9607	-22.78251	1	234.0721	-5.585507	2.164471E-006	0.0005177	9
	7	29	59859.37	234.9858	-26.24487	1	236.4469	-6.372785	1.950701E-006	0.000615	9
	8	32	47578.12	236.9611	-29.81191	1	238.829	-7.17067	2.408226E-005	-0.0001885	9
	9	35	37828.12	239.6569	-34.83596	1	242.1755	-8.270455	1.968797E-005	-0.0001306	9
	10	39	30046.88	242.4751	-40.30745	1	245.8025	-9.438165	1.556569E-005	-0.000812	9
	11	43	23859.38	245.3613	-46.89838	1	249.8031	-10.821	-2.435505E-005	0.0009087	9
	12	46	18984.38	248.4862	-54.99116	1	254.4983	-12.4787	-3.480343E-006	-0.0003217	9
	13	50	15046.87	251.9345	-64.39441	1	260.0339	-14.33781	2.200606E-007	-0.0004933	9
	14	53	11953.13	255.0332	-76.47148	1	266.2515	-16.69131	-1.043048E-005	-7.032882E-005	9
	15	56	9515.62	258.1373	-90.81084	1	273.6448	-19.38151	-2.336419E-005	0.0007263	9
	16	58	7546.875	260.9753	-110.0059	1	283.2126	-22.85633	-1.415274E-006	-0.000373	9
	17	60	5928.309	264.9817	-134.7297	1	297.2665	-26.95103	1.163212E-005	0.0002762	9
	18	63	4733.456	268.7096	-163.5842	1	314.5865	-31.3321	2.708292E-005	-0.0004835	9
	19	65	3796.875	272.6016	-198.5131	1	337.2226	-36.06273	1.469776E-005	-0.0007288	9
	20	68	2987.132	277.7608	-247.8835	1	372.2866	-41.74684	2.784381E-005	-0.0006703	9
	21	70	2390.625	284.0872	-303.5429	1	415.745	-46.8963	1.671443E-005	-0.0008446	9
	22	72	1884.191	291.5323	-377.2007	1	476.73	-52.30015	-1.014426E-005	0.0031837	8
	23	75	1516.544	301.491	-463.6341	1	553.0401	-56.96494	-8.463881E-006	0.0047078	8
	24	77	1193.986	318.1799	-579.7462	1	661.3199	-61.24086	8.01926E-006	-0.0033937	8
	25	80	946.5144	336.3095	-718.4741	1	793.2901	-64.91624	-8.576973E-006	0.004668	8
	26	82	751.7689	364.5309	-892.6334	1	964.198	-67.78603	5.095898E-006	-0.0030047	8
	27	84	597.4265	396.9352	-1103.437	1	1172.66	-70.21501	-2.831637E-006	0.0039465	8
	28	87	477.4305	442.9612	-1355.443	1	1425.988	-71.90252	-6.274981E-011	0.0006405	8
	29	89	376.6741	507.748	-1683.891	1	1758.778	-73.22023	1.88131E-009	0.0006463	8
	30	92	298.2954	593.6169	-2081.847	1	2164.825	-74.08505	-1.448102E-008	0.0006593	8
	31	94	237.7717	705.7758	-2554.371	1	2650.082	-74.55446	1.209781E-009	0.0006432	8
	32	96	189.0121	858.6835	-3136.81	1	3252.217	-74.69067	-1.060458E-009	0.0006653	8
	33	99	150.2404	1065.024	-3841.802	1	3986.693	-74.50557	1.563412E-008	0.0006467	8
	34	101	119.1737	1354.494	-4711.447	1	4902.284	-73.96059	-2.443354E-008	0.0006293	7
	35	104	95.0169	1729.925	-5720.778	1	5976.617	-73.17503	-2.069553E-008	0.0006085	7
	36	106	75.60484	2243.848	-6926.701	1	7281.074	-72.05069	-2.246317E-008	0.0006151	7
	37	109	54.50582	3308.502	-9016.818	1	9604.64	-69.85062	-2.151265E-008	0.0006023	7
	38	111	45.95588	4066.781	-10281.25	1	11056.34	-68.41856	-1.953081E-008	0.0006332	7
	39	114	37.20238	5256.926	-12004.06	1	13104.68	-66.35	-1.731805E-008	0.0006203	7
	40	116	30.04808	6796.016	-13895.14	1	15468.05	-63.93706	-2.099363E-008	0.0006106	7
	41	118	23.91582	8859.205	-16020.8	1	18307.14	-61.05822	-1.846204E-008	0.000605	7
	42	121	18.60119	11731.97	-18398.38	1	21820.62	-57.47585	-1.174459E-008	0.0006271	7
	43	123	15.02404	14619.34	-20282.59	1	25002.17	-54.21659	-9.079154E-009	0.0006143	7
	44	125	12.01923	18079.54	-22019.36	1	28490.73	-50.61143	-1.666093E-008	0.000612	7
	45	128	9.450605	22150.23	-23460.54	1	32264.99	-46.64554	-1.175959E-008	0.0006157	7
	46	130	7.512019	26203.54	-24438.52	1	35831.09	-43.00388	-1.578454E-008	0.0006442	7
	47	133	5.978954	30309.87	-24782.62	1	39151.84	-39.27087	-9.694457E-009	0.0006654	6
	48	136	4.734848	34302.38	-24606.48	1	42215.3	-35.6534	-1.036209E-008	0.0007021	6
	49	139	3.75601	37822.97	-23654.42	1	44610.63	-32.02179	-2.048643E-008	0.000644	6
	50	145	3.004808	40832.91	-22610.7	1	46675.16	-28.97492	-2.3027E-008	0.0006944	6
	51	151	2.372217	44007.81	-21777.46	1	49101.37	-26.32872	-2.339867E-008	0.0007297	6
	52	155	1.878005	45984.12	-19801.13	1	50066.2	-23.2971	-2.887888E-008	0.0006465	6
	53	164	1.512097	47596.84	-18458.61	1	51050.75	-21.19687	-2.913488E-008	0.0006482	6
	54	175	1.201923	49040.11	-16988.91	1	51899.48	-19.10757	-3.045925E-008	0.000634	6
	55	188	0.956633	50495.45	-15685.66	1	52875.61	-17.25663	-4.94645E-008	3.27661E-005	6
