EXPLAIN
TAG	EISPOT
TITLE	LABEL	Potentiostatic EIS	Test Identifier
DATE	LABEL	8/25/2020	Date
TIME	LABEL	15:41:54	Time
NOTES	NOTES	1	Notes...
	
PSTAT	PSTAT	REF3000-16137	Potentiostat
VDC	POTEN	0.00000E+000	T	DC Voltage (V)
FREQINIT	QUANT	3.00000E+005	Initial Freq. (Hz)
FREQFINAL	QUANT	1.00000E+000	Final Freq. (Hz)
PTSPERDEC	QUANT	1.00000E+001	Points/decade
VAC	QUANT	5.00000E+001	AC Voltage (mV rms)
AREA	QUANT	1.00000E+000	Sample Area (cm^2)
SPEED	SELECTOR	2	Optimize for:
ZGUESS	QUANT	1.00000E+003	Estimated Z (ohms)
EOC	QUANT	0	Open Circuit (V)
SEQUENCER	TOGGLE	TRUE	Run as Sequence
PSTATMODEL	IQUANT	5	Pstat Model
PSTATSECTION	LABEL	REF3000-16137	Pstat Section
PSTATSERIALNO	LABEL	16137	Pstat Serial Number
CTRLMODE	IQUANT	1	Control Mode
IESTAB	IQUANT	0	I/E Stability
CASPEED	IQUANT	1	Control Amp Speed
CONVENTION	IQUANT	1	Current Convention
ICHRANGE	IQUANT	2	Ich Range
ICHRANGEMODE	TOGGLE	F	Ich Auto Range
ICHOFFSETENABLE	TOGGLE	T	Ich Offset Enable
ICHOFFSET	QUANT	0	Ich Offset (V)
ICHFILTER	IQUANT	3	Ich Filter
VCHRANGE	IQUANT	2	Vch Range
VCHRANGEMODE	TOGGLE	F	Vch Auto Range
VCHOFFSETENABLE	TOGGLE	T	Vch Offset Enable
VCHOFFSET	QUANT	0	Vch Offset (V)
VCHFILTER	IQUANT	3	Vch Filter
ACHRANGE	IQUANT	2	Ach Range
ACHOFFSETENABLE	TOGGLE	F	Ach Offset Enable
ACHOFFSET	QUANT	0	Ach Offset (V)
ACHFILTER	IQUANT	3	Ach Filter
IERANGELOWERLIMIT	IQUANT	2	I/E Range Lower Limit
IERANGEMODE	TOGGLE	F	I/E AutoRange
IERANGE	IQUANT	11	I/E Range
POSFEEDENABLE	TOGGLE	F	Positive Feedback IR Comp
POSFEEDRESISTANCE	QUANT	0	Positive Feedback Resistance (ohm)
ACHSELECT	IQUANT	0	Ach Select
CABLEID	IQUANT	13	Cable ID
DCCALDATE	LABEL	7/31/2020	DC Calibration Date
ACCALDATE	LABEL	7/31/2020	AC Calibration Date
THERMOSELECT	IQUANT	1	Thermo Select
FRAMEWORKVERSION	QUANT	6.33	Framework Version
INSTRUMENTVERSION	LABEL	3.50	Instrument Version
COMPLIANCEVOLTAGE	IQUANT	0	Compliance Voltage
ZCURVE	TABLE
	Pt	Time	Freq	Zreal	Zimag	Zsig	Zmod	Zphz	Idc	Vdc	IERange
	#	s	Hz	ohm	ohm	V	ohm	°	A	V	#
	0	10	300046.9	223.341	-13.72126	1	223.7621	-3.515627	1.321427E-005	-0.0020033	9
	1	13	238359.4	223.6241	-13.35433	1	224.0224	-3.417516	7.757808E-005	-0.0031609	9
	2	17	189328.1	224.4471	-14.3887	1	224.9078	-3.66806	-0.0000956	0.0033761	9
	3	20	150421.9	225.8593	-15.59757	1	226.3972	-3.950505	2.168392E-005	-0.0016566	9
	4	22	119484.4	227.3846	-17.64824	1	228.0685	-4.438061	2.878079E-005	0.0006601	9
	5	25	94921.88	228.8482	-19.52831	1	229.6799	-4.877406	2.676821E-005	-0.0008265	9
	6	28	75421.88	230.4583	-21.99714	1	231.5058	-5.452338	-2.29065E-005	0.0004602	9
	7	30	59859.37	232.4385	-25.16895	1	233.7972	-6.180033	-9.454896E-006	0.0009179	9
	8	33	47578.12	234.6668	-28.83974	1	236.4323	-7.00632	1.229392E-005	0.0002922	9
	9	36	37828.12	237.0651	-33.01856	1	239.3535	-7.929177	2.624709E-005	-0.0008145	9
	10	39	30046.88	240.0361	-38.30174	1	243.0727	-9.066063	2.858041E-005	-0.000666	9
	11	43	23859.38	243.1086	-44.3134	1	247.1143	-10.33036	2.654058E-005	-0.0007814	9
	12	46	18984.38	246.3406	-51.24321	1	251.6139	-11.75096	-2.148466E-005	0.0009527	9
	13	50	15046.87	249.3186	-59.85778	1	256.4034	-13.50037	2.792664E-005	-0.0006973	9
	14	53	11953.13	253.3252	-70.13101	1	262.8536	-15.47431	1.003395E-005	-0.0007214	9
	15	57	9515.62	256.1298	-83.43356	1	269.3763	-18.04288	1.548265E-005	-0.0007852	9
	16	60	7546.875	258.5836	-99.6915	1	277.1351	-21.0831	2.512241E-005	-0.0003332	9
	17	64	5928.309	262.6301	-121.5476	1	289.3932	-24.83513	2.271733E-005	-0.0008597	9
	18	66	4733.456	265.2662	-147.3361	1	303.4371	-29.04899	-2.337123E-005	0.0006896	9
	19	69	3796.875	269.1304	-179.7966	1	323.6634	-33.7455	-2.023668E-006	-0.0004451	9
	20	71	2987.132	272.9174	-223.2876	1	352.6206	-39.28834	1.18527E-005	0.0002766	9
	21	74	2390.625	279.8755	-274.0378	1	391.6976	-44.39619	-1.854176E-005	0.0004161	9
	22	76	1884.191	288.4782	-341.4241	1	446.9789	-49.80466	1.13566E-005	-0.0023181	8
	23	78	1516.544	295.397	-416.7169	1	510.7959	-54.66842	7.93974E-006	-0.0033383	8
	24	81	1193.986	308.0469	-521.1645	1	605.3969	-59.41376	5.160622E-006	0.0013251	8
	25	83	946.5144	324.174	-649.5212	1	725.9246	-63.47636	-8.325756E-006	0.0015957	8
	26	86	751.7689	350.1881	-801.13	1	874.3232	-66.38901	-6.092067E-006	0.0045246	8
	27	88	597.4265	377.6233	-993.782	1	1063.109	-69.19391	1.188735E-006	0.0027845	8
	28	91	477.4305	417.8339	-1222.155	1	1291.607	-71.12531	2.641966E-008	0.0006418	8
	29	93	376.6741	473.7995	-1519.695	1	1591.841	-72.68394	-7.006819E-009	0.0006416	8
	30	95	298.2954	547.978	-1880.468	1	1958.683	-73.75361	-1.287065E-009	0.0006469	8
	31	98	237.7717	644.9022	-2309.323	1	2397.68	-74.39706	2.08065E-008	0.0006334	8
	32	100	189.0121	776.621	-2838.716	1	2943.033	-74.69932	3.101898E-008	0.000634	8
	33	103	150.2404	954.723	-3481.582	1	3610.112	-74.66525	1.946138E-008	0.0006422	8
	34	105	119.1737	1204.453	-4276.495	1	4442.872	-74.2704	-2.402623E-008	0.0006123	7
	35	107	95.0169	1527.943	-5199.902	1	5419.741	-73.62506	-2.951557E-008	0.0006673	7
	36	110	75.60484	1971.857	-6309.098	1	6610.063	-72.64379	-2.394454E-008	0.0006193	7
	37	112	54.50582	2891.381	-8243.217	1	8735.601	-70.67123	-2.480283E-008	0.0006231	7
	38	115	45.95588	3551.717	-9430.123	1	10076.8	-69.36185	-2.409436E-008	0.0006237	7
	39	117	37.20238	4585.601	-11057.56	1	11970.69	-67.47607	-2.414447E-008	0.0006319	7
	40	120	30.04808	5938.826	-12858.86	1	14164.03	-65.21028	-1.629619E-008	0.0006045	7
	41	122	23.91582	7772.2	-14921.4	1	16824.24	-62.48606	-2.382318E-008	0.0006711	7
	42	124	18.60119	10340.4	-17297.99	1	20153.02	-59.12984	-1.520957E-008	0.0006118	7
	43	127	15.02404	13007.7	-19243.32	1	23227.26	-55.9429	-9.192431E-009	0.0006237	7
	44	129	12.01923	16240.95	-21085.08	1	26614.83	-52.39445	-3.188339E-008	0.0006269	7
	45	132	9.450605	20152.93	-22694.53	1	30350.98	-48.39466	-1.538413E-008	0.0006158	7
	46	134	7.512019	24123.88	-23819.58	1	33901.83	-44.63634	-1.834192E-008	0.0006435	7
	47	137	5.978954	28204.65	-24305.94	1	37232.8	-40.7538	-1.488269E-008	0.0006043	7
	48	140	4.734848	32305.63	-24173.37	1	40348.55	-36.80644	-1.615687E-008	0.0006777	6
	49	143	3.75601	35872.2	-23212.01	1	42727.18	-32.9059	-2.410453E-008	0.000639	6
	50	149	3.004808	38909.5	-22074.16	1	44734.98	-29.56713	-2.699472E-008	0.0006699	6
	51	155	2.372217	42052.72	-21088.73	1	47044.3	-26.633	-2.746807E-008	0.0007318	6
	52	159	1.878005	43861.63	-18931.35	1	47772.78	-23.34576	-3.383651E-008	0.0006394	6
	53	168	1.512097	45322.91	-17427.65	1	48558.1	-21.03285	-3.579565E-008	0.0007108	6
	54	179	1.201923	46606.26	-15887.58	1	49239.81	-18.82371	-3.741838E-008	0.0006246	6
	55	192	0.956633	47940.99	-14567.87	1	50105.5	-16.9025	-6.038854E-008	2.589567E-005	6
