EXPLAIN
TAG	EISPOT
TITLE	LABEL	Potentiostatic EIS	Test Identifier
DATE	LABEL	8/25/2020	Date
TIME	LABEL	12:42:47	Time
NOTES	NOTES	1	Notes...
	
PSTAT	PSTAT	REF3000-16137	Potentiostat
VDC	POTEN	0.00000E+000	T	DC Voltage (V)
FREQINIT	QUANT	3.00000E+005	Initial Freq. (Hz)
FREQFINAL	QUANT	1.00000E+000	Final Freq. (Hz)
PTSPERDEC	QUANT	1.00000E+001	Points/decade
VAC	QUANT	5.00000E+001	AC Voltage (mV rms)
AREA	QUANT	1.00000E+000	Sample Area (cm^2)
SPEED	SELECTOR	2	Optimize for:
ZGUESS	QUANT	1.00000E+003	Estimated Z (ohms)
EOC	QUANT	0	Open Circuit (V)
SEQUENCER	TOGGLE	TRUE	Run as Sequence
PSTATMODEL	IQUANT	5	Pstat Model
PSTATSECTION	LABEL	REF3000-16137	Pstat Section
PSTATSERIALNO	LABEL	16137	Pstat Serial Number
CTRLMODE	IQUANT	1	Control Mode
IESTAB	IQUANT	0	I/E Stability
CASPEED	IQUANT	1	Control Amp Speed
CONVENTION	IQUANT	1	Current Convention
ICHRANGE	IQUANT	2	Ich Range
ICHRANGEMODE	TOGGLE	F	Ich Auto Range
ICHOFFSETENABLE	TOGGLE	T	Ich Offset Enable
ICHOFFSET	QUANT	0	Ich Offset (V)
ICHFILTER	IQUANT	3	Ich Filter
VCHRANGE	IQUANT	2	Vch Range
VCHRANGEMODE	TOGGLE	F	Vch Auto Range
VCHOFFSETENABLE	TOGGLE	T	Vch Offset Enable
VCHOFFSET	QUANT	0	Vch Offset (V)
VCHFILTER	IQUANT	3	Vch Filter
ACHRANGE	IQUANT	2	Ach Range
ACHOFFSETENABLE	TOGGLE	F	Ach Offset Enable
ACHOFFSET	QUANT	0	Ach Offset (V)
ACHFILTER	IQUANT	3	Ach Filter
IERANGELOWERLIMIT	IQUANT	2	I/E Range Lower Limit
IERANGEMODE	TOGGLE	F	I/E AutoRange
IERANGE	IQUANT	11	I/E Range
POSFEEDENABLE	TOGGLE	F	Positive Feedback IR Comp
POSFEEDRESISTANCE	QUANT	0	Positive Feedback Resistance (ohm)
ACHSELECT	IQUANT	0	Ach Select
CABLEID	IQUANT	13	Cable ID
DCCALDATE	LABEL	7/31/2020	DC Calibration Date
ACCALDATE	LABEL	7/31/2020	AC Calibration Date
THERMOSELECT	IQUANT	1	Thermo Select
FRAMEWORKVERSION	QUANT	6.33	Framework Version
INSTRUMENTVERSION	LABEL	3.50	Instrument Version
COMPLIANCEVOLTAGE	IQUANT	0	Compliance Voltage
ZCURVE	TABLE
	Pt	Time	Freq	Zreal	Zimag	Zsig	Zmod	Zphz	Idc	Vdc	IERange
	#	s	Hz	ohm	ohm	V	ohm	°	A	V	#
	0	11	300046.9	332.1631	-26.40558	1	333.211	-4.545217	8.119232E-005	-0.0017743	9
	1	19	238359.4	333.4072	-31.23237	1	334.8669	-5.351642	-3.17891E-005	0.0002001	10
	2	23	189328.1	335.4015	-29.84804	1	336.727	-5.085466	-9.201502E-005	0.0008091	10
	3	27	150421.9	339.2888	-25.20631	1	340.2238	-4.248791	5.007683E-005	-7.340653E-005	9
	4	32	119484.4	340.1871	-26.58377	1	341.2242	-4.468273	-9.06536E-006	0.0016602	9
	5	37	94921.88	342.5519	-28.20321	1	343.711	-4.706698	6.995822E-007	0.0007113	9
	6	40	75421.88	345.2173	-31.04528	1	346.6104	-5.138768	-1.731793E-005	0.0009845	9
	7	42	59859.37	348.4406	-34.51315	1	350.1457	-5.656715	1.173655E-005	0.0003407	9
	8	45	47578.12	352.0845	-38.69617	1	354.2046	-6.271973	1.107577E-005	0.0002777	9
	9	47	37828.12	355.5579	-44.08511	1	358.2805	-7.067949	1.69739E-005	-0.0008349	9
	10	50	30046.88	360.0726	-50.31242	1	363.5706	-7.954355	-2.250032E-005	0.0010646	9
	11	52	23859.38	364.3496	-57.57983	1	368.8713	-8.980442	-2.506147E-005	0.0006773	9
	12	55	18984.38	369.4547	-66.42284	1	375.3782	-10.19211	2.321952E-005	-0.0008811	9
	13	57	15046.87	375.7253	-77.54441	1	383.6438	-11.66131	2.792111E-005	-0.0006335	9
	14	59	11953.13	381.3493	-89.46935	1	391.704	-13.20352	-6.915944E-007	0.0006783	9
	15	62	9515.62	386.2459	-102.9335	1	399.7264	-14.92236	-6.666257E-006	-4.595667E-005	8
	16	64	7546.875	392.9181	-121.8967	1	411.3921	-17.23568	-1.244505E-005	0.0053639	8
	17	66	5928.309	399.0699	-144.6211	1	424.4668	-19.92028	-1.268248E-005	0.003724	8
	18	69	4733.456	404.6238	-172.1007	1	439.7034	-23.04175	-3.967778E-006	0.0049033	8
	19	71	3796.875	409.8813	-205.7957	1	458.6443	-26.6606	-1.326327E-005	0.0039191	8
	20	73	2987.132	415.1646	-252.9158	1	486.1358	-31.34953	1.3815E-005	-0.0038672	8
	21	76	2390.625	421.6538	-308.5849	1	522.5099	-36.19831	-1.042186E-005	0.0016937	8
	22	78	1884.191	429.0765	-382.1155	1	574.5597	-41.68677	-6.569542E-006	-2.973031E-005	8
	23	80	1516.544	437.1258	-468.7382	1	640.9324	-46.99867	9.220277E-007	0.0035218	8
	24	83	1193.986	448.1322	-585.3008	1	737.1564	-52.56073	-2.556274E-006	-0.0015835	8
	25	85	946.5144	464.3867	-725.2975	1	861.2267	-57.36976	6.121346E-006	0.0017505	8
	26	88	751.7689	481.2387	-903.7484	1	1023.891	-61.96506	9.472433E-007	0.0035537	8
	27	90	597.4265	510.0816	-1120.624	1	1231.252	-65.52608	-1.280817E-005	0.0037399	8
	28	93	477.4305	539.4345	-1385.018	1	1486.36	-68.72017	-8.024729E-008	0.0006502	8
	29	95	376.6741	584.0619	-1729.653	1	1825.604	-71.34142	-5.473742E-008	0.0006342	8
	30	97	298.2954	642.2946	-2150.847	1	2244.701	-73.37311	-7.935424E-008	0.0006466	8
	31	100	237.7717	716.4934	-2655.944	1	2750.891	-74.90272	-6.233413E-008	0.0006417	8
	32	102	189.0121	814.9594	-3286.304	1	3385.846	-76.07238	-9.025835E-008	0.0006616	8
	33	104	150.2404	944.6956	-4062.251	1	4170.651	-76.90829	-7.341472E-008	0.0006508	8
	34	107	119.1737	1123.55	-5035.896	1	5159.71	-77.42282	-2.231639E-008	0.0006277	7
	35	109	95.0169	1348.523	-6195.593	1	6340.654	-77.72062	-2.084002E-008	0.0006093	7
	36	112	75.60484	1654.905	-7628.599	1	7806.038	-77.76023	-2.200842E-008	0.0006303	7
	37	114	54.50582	2288.932	-10243.45	1	10496.07	-77.40399	-2.038656E-008	0.0006078	7
	38	117	45.95588	2747.688	-11929.58	1	12241.93	-77.02952	-2.3638E-008	0.0006322	7
	39	119	37.20238	3479.201	-14372.98	1	14788.08	-76.39243	-2.144906E-008	0.0006175	7
	40	121	30.04808	4457.852	-17293.48	1	17858.81	-75.54518	-1.997861E-008	0.0006147	7
	41	124	23.91582	5852.424	-20992.82	1	21793.34	-74.42248	-2.757957E-008	0.000673	7
	42	126	18.60119	7920.711	-25853.81	1	27039.92	-72.96675	-2.375286E-008	0.0006065	7
	43	128	15.02404	10267.07	-30660.79	1	32334.15	-71.48637	-2.686692E-008	0.000623	7
	44	131	12.01923	13447.75	-36400.34	1	38804.98	-69.72374	-1.817909E-008	0.0006198	7
	45	133	9.450605	17839.64	-43421.37	1	46943.24	-67.66472	-2.620269E-009	0.0006692	6
	46	136	7.512019	23154.8	-50831.87	1	55857.18	-65.50991	-1.558814E-009	0.000676	6
	47	138	5.978954	29591.92	-58935.33	1	65947.36	-63.33839	-2.992212E-009	0.0006777	6
	48	141	4.734848	37626.99	-67806.92	1	77547.2	-60.9735	-2.30639E-009	0.0006996	6
	49	145	3.75601	47109.95	-77106.58	1	90359.13	-58.57624	-6.757411E-009	0.0006674	6
	50	148	3.004808	57600.65	-86494.05	1	103918.5	-56.3384	-6.678246E-009	0.0006842	6
	51	152	2.372217	70441.05	-96664.7	1	119607.8	-53.91861	-5.07549E-009	0.0007394	6
	52	156	1.878005	84508.01	-106850.7	1	136230.3	-51.6596	-6.893336E-009	0.000647	6
	53	161	1.512097	98668.8	-116532.3	1	152693.6	-49.74515	-6.497108E-009	0.0006503	6
	54	166	1.201923	115351.8	-127214.2	1	171725.1	-47.79974	-5.878781E-009	0.0006421	6
	55	172	0.956633	133508.2	-138237.8	1	192182.5	-45.9971	-7.469085E-009	2.725723E-005	6
