EXPLAIN
TAG	EISPOT
TITLE	LABEL	Potentiostatic EIS	Test Identifier
DATE	LABEL	8/25/2020	Date
TIME	LABEL	15:45:16	Time
NOTES	NOTES	1	Notes...
	
PSTAT	PSTAT	REF3000-16137	Potentiostat
VDC	POTEN	0.00000E+000	T	DC Voltage (V)
FREQINIT	QUANT	3.00000E+005	Initial Freq. (Hz)
FREQFINAL	QUANT	1.00000E+000	Final Freq. (Hz)
PTSPERDEC	QUANT	1.00000E+001	Points/decade
VAC	QUANT	5.00000E+001	AC Voltage (mV rms)
AREA	QUANT	1.00000E+000	Sample Area (cm^2)
SPEED	SELECTOR	2	Optimize for:
ZGUESS	QUANT	1.00000E+003	Estimated Z (ohms)
EOC	QUANT	0	Open Circuit (V)
SEQUENCER	TOGGLE	TRUE	Run as Sequence
PSTATMODEL	IQUANT	5	Pstat Model
PSTATSECTION	LABEL	REF3000-16137	Pstat Section
PSTATSERIALNO	LABEL	16137	Pstat Serial Number
CTRLMODE	IQUANT	1	Control Mode
IESTAB	IQUANT	0	I/E Stability
CASPEED	IQUANT	1	Control Amp Speed
CONVENTION	IQUANT	1	Current Convention
ICHRANGE	IQUANT	2	Ich Range
ICHRANGEMODE	TOGGLE	F	Ich Auto Range
ICHOFFSETENABLE	TOGGLE	T	Ich Offset Enable
ICHOFFSET	QUANT	0	Ich Offset (V)
ICHFILTER	IQUANT	3	Ich Filter
VCHRANGE	IQUANT	2	Vch Range
VCHRANGEMODE	TOGGLE	F	Vch Auto Range
VCHOFFSETENABLE	TOGGLE	T	Vch Offset Enable
VCHOFFSET	QUANT	0	Vch Offset (V)
VCHFILTER	IQUANT	3	Vch Filter
ACHRANGE	IQUANT	2	Ach Range
ACHOFFSETENABLE	TOGGLE	F	Ach Offset Enable
ACHOFFSET	QUANT	0	Ach Offset (V)
ACHFILTER	IQUANT	3	Ach Filter
IERANGELOWERLIMIT	IQUANT	2	I/E Range Lower Limit
IERANGEMODE	TOGGLE	F	I/E AutoRange
IERANGE	IQUANT	11	I/E Range
POSFEEDENABLE	TOGGLE	F	Positive Feedback IR Comp
POSFEEDRESISTANCE	QUANT	0	Positive Feedback Resistance (ohm)
ACHSELECT	IQUANT	0	Ach Select
CABLEID	IQUANT	13	Cable ID
DCCALDATE	LABEL	7/31/2020	DC Calibration Date
ACCALDATE	LABEL	7/31/2020	AC Calibration Date
THERMOSELECT	IQUANT	1	Thermo Select
FRAMEWORKVERSION	QUANT	6.33	Framework Version
INSTRUMENTVERSION	LABEL	3.50	Instrument Version
COMPLIANCEVOLTAGE	IQUANT	0	Compliance Voltage
ZCURVE	TABLE
	Pt	Time	Freq	Zreal	Zimag	Zsig	Zmod	Zphz	Idc	Vdc	IERange
	#	s	Hz	ohm	ohm	V	ohm	°	A	V	#
	0	9	300046.9	223.8634	-14.42412	1	224.3276	-3.686625	1.583192E-005	-0.0011501	9
	1	12	238359.4	224.465	-13.88747	1	224.8942	-3.540333	-3.400057E-005	-0.0007913	9
	2	15	189328.1	224.9175	-14.32333	1	225.3731	-3.643823	8.258248E-005	-0.0025002	9
	3	18	150421.9	226.7293	-16.1219	1	227.3017	-4.06725	4.795475E-006	0.0013079	9
	4	22	119484.4	227.5041	-17.68234	1	228.1903	-4.444273	8.593929E-006	0.0011817	9
	5	26	94921.88	229.0312	-19.48853	1	229.8589	-4.863647	2.584724E-005	-0.0009654	9
	6	28	75421.88	230.7066	-22.09048	1	231.7618	-5.469477	-2.395008E-005	0.0008727	9
	7	31	59859.37	232.6254	-25.15946	1	233.982	-6.172797	-8.842632E-007	-0.0003383	9
	8	33	47578.12	235.0847	-28.91833	1	236.8566	-7.01286	-2.368952E-005	0.0008901	9
	9	36	37828.12	237.4835	-33.75437	1	239.8703	-8.089469	-1.409027E-006	0.0005961	10
	10	40	30046.88	240.2115	-38.45273	1	243.2698	-9.09467	1.628743E-005	-0.0008304	9
	11	44	23859.38	243.4562	-44.90514	1	247.5629	-10.45067	-2.188131E-005	0.0006735	10
	12	47	18984.38	246.4254	-51.45943	1	251.741	-11.79521	8.512511E-006	-0.0006762	9
	13	51	15046.87	250.2149	-60.66677	1	257.4645	-13.62886	-1.620759E-005	0.0010415	9
	14	54	11953.13	253.0146	-70.98578	1	262.7839	-15.67199	-1.38136E-005	0.0009451	9
	15	58	9515.62	256.1558	-84.12103	1	269.6148	-18.18007	2.184629E-005	-0.0008458	9
	16	60	7546.875	259.7006	-101.5211	1	278.8386	-21.35133	8.369673E-006	-0.0006422	9
	17	62	5928.309	262.6251	-123.0642	1	290.0289	-25.10744	-1.486916E-006	-0.0003918	9
	18	65	4733.456	265.1342	-148.891	1	304.0801	-29.31718	-1.51107E-006	-0.0003818	9
	19	67	3796.875	269.4083	-181.8171	1	325.0205	-34.01446	-4.435977E-006	0.0007509	9
	20	70	2987.132	274.4622	-225.3374	1	355.1147	-39.38649	2.628981E-005	-0.0007907	9
	21	72	2390.625	279.5359	-277.2002	1	393.6754	-44.75963	1.15206E-005	0.0003464	9
	22	74	1884.191	286.1599	-343.6356	1	447.1833	-50.21442	-5.667221E-006	0.000322	8
	23	77	1516.544	295.4462	-420.3621	1	513.8022	-54.89902	-8.304128E-006	0.0015933	8
	24	79	1193.986	308.8055	-525.8915	1	609.8547	-59.57838	-9.653426E-006	0.0023846	8
	25	81	946.5144	325.3339	-655.5463	1	731.8354	-63.60576	1.702802E-006	-0.0022301	8
	26	84	751.7689	348.0548	-810.0349	1	881.6454	-66.74783	-2.236907E-006	-0.001002	8
	27	86	597.4265	378.4527	-1005.471	1	1074.336	-69.37399	-8.361322E-006	0.0046327	8
	28	89	477.4305	419.7661	-1234.333	1	1303.756	-71.21809	1.890157E-010	0.0006458	8
	29	91	376.6741	476.422	-1534.495	1	1606.752	-72.75175	6.227471E-010	0.0006455	8
	30	93	298.2954	551.5079	-1898.385	1	1976.873	-73.80067	-5.635755E-009	0.0006603	8
	31	96	237.7717	649.6637	-2331.285	1	2420.114	-74.42834	-3.053206E-009	0.0006458	8
	32	98	189.0121	783.3547	-2865.509	1	2970.654	-74.71041	2.886467E-009	0.0006468	8
	33	101	150.2404	963.89	-3513.857	1	3643.662	-74.66045	9.869463E-010	0.0006443	8
	34	103	119.1737	1214.526	-4316.002	1	4483.631	-74.28336	-2.287677E-008	0.0006164	7
	35	105	95.0169	1544.808	-5247.279	1	5469.952	-73.59547	-2.44423E-008	0.0006229	7
	36	108	75.60484	1994.958	-6366.753	1	6671.986	-72.60214	-2.068341E-008	0.0006109	7
	37	110	54.50582	2928.41	-8315.249	1	8815.835	-70.59909	-1.955361E-008	0.0006065	7
	38	113	45.95588	3597.461	-9511.64	1	10169.22	-69.28254	-1.934808E-008	0.0006291	7
	39	115	37.20238	4647.486	-11147.89	1	12077.86	-67.36905	-2.156233E-008	0.0006238	7
	40	118	30.04808	6020.494	-12963.59	1	14293.39	-65.0891	-2.364543E-008	0.0006192	7
	41	120	23.91582	7873.156	-15024.82	1	16962.65	-62.34501	-2.447632E-008	0.0006031	7
	42	122	18.60119	10472.92	-17407.14	1	20314.79	-58.967	-1.699089E-008	0.0006116	7
	43	125	15.02404	13153.78	-19348.04	1	23395.9	-55.79015	-2.301587E-008	0.0006194	7
	44	127	12.01923	16428.41	-21152.28	1	26782.67	-52.16446	-1.107531E-008	0.0006265	7
	45	130	9.450605	20326.26	-22800.11	1	30545.08	-48.28304	-2.520795E-008	0.000613	7
	46	132	7.512019	24373.94	-23874.98	1	34118.96	-44.4075	-1.575434E-008	0.0006004	7
	47	135	5.978954	28427.41	-24259.21	1	37371.47	-40.47657	-1.772068E-008	0.0006174	7
	48	138	4.734848	32568.24	-24321.34	1	40647.48	-36.75167	-2.110668E-008	0.0006539	6
	49	141	3.75601	36129.92	-23363.51	1	43025.86	-32.88883	-1.896585E-008	0.0006698	6
	50	147	3.004808	39117.96	-22197.32	1	44977.06	-29.57257	-2.534488E-008	0.0007102	6
	51	153	2.372217	42342.47	-21259.89	1	47380.03	-26.66094	-1.967929E-008	0.0007034	6
	52	157	1.878005	44091.75	-19026.58	1	48021.8	-23.34129	-2.730946E-008	0.0006408	6
	53	166	1.512097	45611.55	-17572.35	1	48879.45	-21.06973	-3.213907E-008	0.0008148	6
	54	177	1.201923	46974.05	-16050.64	1	49640.55	-18.86487	-3.298827E-008	0.0006436	6
	55	190	0.956633	48503.62	-14849.83	1	50725.92	-17.02245	-6.034503E-008	3.236142E-005	6
