EXPLAIN
TAG	EISPOT
TITLE	LABEL	Potentiostatic EIS	Test Identifier
DATE	LABEL	8/25/2020	Date
TIME	LABEL	12:14:22	Time
NOTES	NOTES	1	Notes...
	
PSTAT	PSTAT	REF3000-16137	Potentiostat
VDC	POTEN	0.00000E+000	T	DC Voltage (V)
FREQINIT	QUANT	3.00000E+005	Initial Freq. (Hz)
FREQFINAL	QUANT	1.00000E+000	Final Freq. (Hz)
PTSPERDEC	QUANT	1.00000E+001	Points/decade
VAC	QUANT	5.00000E+001	AC Voltage (mV rms)
AREA	QUANT	1.00000E+000	Sample Area (cm^2)
SPEED	SELECTOR	2	Optimize for:
ZGUESS	QUANT	1.00000E+003	Estimated Z (ohms)
EOC	QUANT	0	Open Circuit (V)
SEQUENCER	TOGGLE	TRUE	Run as Sequence
PSTATMODEL	IQUANT	5	Pstat Model
PSTATSECTION	LABEL	REF3000-16137	Pstat Section
PSTATSERIALNO	LABEL	16137	Pstat Serial Number
CTRLMODE	IQUANT	1	Control Mode
IESTAB	IQUANT	0	I/E Stability
CASPEED	IQUANT	1	Control Amp Speed
CONVENTION	IQUANT	1	Current Convention
ICHRANGE	IQUANT	2	Ich Range
ICHRANGEMODE	TOGGLE	F	Ich Auto Range
ICHOFFSETENABLE	TOGGLE	T	Ich Offset Enable
ICHOFFSET	QUANT	0	Ich Offset (V)
ICHFILTER	IQUANT	3	Ich Filter
VCHRANGE	IQUANT	2	Vch Range
VCHRANGEMODE	TOGGLE	F	Vch Auto Range
VCHOFFSETENABLE	TOGGLE	T	Vch Offset Enable
VCHOFFSET	QUANT	0	Vch Offset (V)
VCHFILTER	IQUANT	3	Vch Filter
ACHRANGE	IQUANT	2	Ach Range
ACHOFFSETENABLE	TOGGLE	F	Ach Offset Enable
ACHOFFSET	QUANT	0	Ach Offset (V)
ACHFILTER	IQUANT	3	Ach Filter
IERANGELOWERLIMIT	IQUANT	2	I/E Range Lower Limit
IERANGEMODE	TOGGLE	F	I/E AutoRange
IERANGE	IQUANT	11	I/E Range
POSFEEDENABLE	TOGGLE	F	Positive Feedback IR Comp
POSFEEDRESISTANCE	QUANT	0	Positive Feedback Resistance (ohm)
ACHSELECT	IQUANT	0	Ach Select
CABLEID	IQUANT	13	Cable ID
DCCALDATE	LABEL	7/31/2020	DC Calibration Date
ACCALDATE	LABEL	7/31/2020	AC Calibration Date
THERMOSELECT	IQUANT	1	Thermo Select
FRAMEWORKVERSION	QUANT	6.33	Framework Version
INSTRUMENTVERSION	LABEL	3.50	Instrument Version
COMPLIANCEVOLTAGE	IQUANT	0	Compliance Voltage
ZCURVE	TABLE
	Pt	Time	Freq	Zreal	Zimag	Zsig	Zmod	Zphz	Idc	Vdc	IERange
	#	s	Hz	ohm	ohm	V	ohm	°	A	V	#
	0	9	300046.9	220.0572	-13.32106	1	220.46	-3.464148	-4.773784E-006	-0.0017327	9
	1	12	238359.4	220.6283	-14.24634	1	221.0877	-3.694557	-7.957134E-005	0.0033833	9
	2	16	189328.1	221.6294	-14.67833	1	222.115	-3.789118	-3.297996E-006	-0.0015726	9
	3	19	150421.9	222.4252	-16.15124	1	223.0108	-4.153203	-1.595807E-005	0.0010584	9
	4	22	119484.4	224.5103	-17.56532	1	225.1964	-4.473617	5.192281E-005	-0.0001269	9
	5	25	94921.88	225.9825	-20.01761	1	226.8674	-5.062067	-1.028119E-005	-8.704382E-005	9
	6	27	75421.88	227.9966	-22.62358	1	229.1163	-5.66678	-2.310824E-005	0.0005495	9
	7	30	59859.37	230.0468	-25.7519	1	231.4837	-6.387214	-1.931413E-005	0.0003893	9
	8	32	47578.12	232.3627	-29.92809	1	234.2821	-7.339235	-2.028151E-005	0.0003621	9
	9	35	37828.12	235.1409	-34.07352	1	237.5968	-8.245158	1.62495E-005	-0.0008161	9
	10	37	30046.88	238.1275	-39.39112	1	241.3636	-9.392823	-7.902874E-007	-0.0004139	9
	11	41	23859.38	241.6646	-45.55853	1	245.9214	-10.67608	1.138822E-005	-0.0007001	9
	12	44	18984.38	245.3023	-53.00889	1	250.9645	-12.1939	2.543715E-005	-0.0003057	9
	13	48	15046.87	248.91	-61.42137	1	256.3762	-13.86147	1.126768E-005	0.0003127	9
	14	51	11953.13	253.7996	-71.79149	1	263.758	-15.79445	8.851665E-006	-0.0006452	9
	15	54	9515.62	257.1117	-85.21055	1	270.8639	-18.33595	2.102083E-005	-6.011031E-005	9
	16	56	7546.875	261.1016	-101.3624	1	280.0863	-21.21674	1.484734E-005	-0.0007102	9
	17	58	5928.309	265.8383	-122.5307	1	292.7179	-24.746	2.108302E-005	-8.508648E-005	9
	18	61	4733.456	268.836	-147.6041	1	306.6916	-28.76894	2.575053E-005	-0.0007749	9
	19	63	3796.875	272.5585	-178.2557	1	325.6735	-33.18505	1.576335E-005	-0.0008253	9
	20	65	2987.132	277.7671	-220.9726	1	354.9414	-38.50336	6.782584E-006	-0.0006176	9
	21	67	2390.625	283.8855	-270.4155	1	392.0657	-43.60793	2.187665E-005	-0.0008433	9
	22	70	1884.191	289.6197	-335.1239	1	442.9307	-49.16587	5.060934E-006	0.0013195	8
	23	72	1516.544	299.4122	-410.4076	1	508.0177	-53.88744	1.13881E-006	0.0027615	8
	24	74	1193.986	311.2818	-511.596	1	598.8546	-58.68148	5.188308E-006	0.0013478	8
	25	77	946.5144	328.0227	-635.5156	1	715.1776	-62.69939	9.249663E-007	0.0028082	8
	26	79	751.7689	350.6645	-787.34	1	861.8989	-65.99283	-1.007005E-005	0.0032183	8
	27	82	597.4265	379.4249	-974.996	1	1046.222	-68.73624	5.308323E-006	0.001323	8
	28	84	477.4305	415.0239	-1198.13	1	1267.975	-70.89427	1.162916E-008	0.000657	8
	29	87	376.6741	466.0995	-1489.883	1	1561.089	-72.62807	1.81476E-008	0.0006438	8
	30	89	298.2954	532.879	-1844.504	1	1919.936	-73.88594	-6.186645E-010	0.0006502	8
	31	91	237.7717	618.8881	-2267.254	1	2350.205	-74.73204	-1.056379E-008	0.000665	8
	32	94	189.0121	734.5596	-2790.535	1	2885.596	-75.25244	2.374851E-008	0.0006473	8
	33	96	150.2404	889.691	-3430.147	1	3543.651	-75.45938	2.361599E-008	0.0006502	8
	34	99	119.1737	1105.09	-4226.433	1	4368.52	-75.34686	-1.57623E-008	0.0006287	7
	35	101	95.0169	1383.661	-5158.492	1	5340.839	-74.98501	-2.00615E-008	0.0006334	7
	36	103	75.60484	1763.232	-6290.319	1	6532.771	-74.34135	-2.108578E-008	0.0006317	7
	37	106	54.50582	2549.426	-8301.78	1	8684.419	-72.9286	-2.112891E-008	0.0006202	7
	38	108	45.95588	3115.701	-9558.57	1	10053.55	-71.94616	-1.553936E-008	0.0006407	7
	39	111	37.20238	4012.085	-11330.18	1	12019.56	-70.50063	-1.841574E-008	0.000632	7
	40	113	30.04808	5196.568	-13360.12	1	14335.17	-68.74589	-1.938746E-008	0.0006389	7
	41	116	23.91582	6855.012	-15806.33	1	17228.79	-66.55422	-2.01699E-008	0.000617	7
	42	118	18.60119	9202.385	-18762.37	1	20897.62	-63.87342	-2.201842E-008	0.0006413	7
	43	120	15.02404	11768.43	-21425.81	1	24445.06	-61.22159	-1.656381E-008	0.0006152	7
	44	122	12.01923	15034.55	-24254.72	1	28536.45	-58.20686	-1.723062E-008	0.0006171	7
	45	125	9.450605	19221.34	-27173.66	1	33284.64	-54.72626	-1.173751E-008	0.0006325	7
	46	127	7.512019	23872.81	-29725.42	1	38124.95	-51.23167	-1.198973E-008	0.0006364	7
	47	130	5.978954	29025.9	-31661.37	1	42952.83	-47.48663	-8.322741E-009	0.0006736	6
	48	133	4.734848	34520.38	-33042.48	1	47785.58	-43.74688	-2.373929E-009	0.0007013	6
	49	136	3.75601	40087.13	-33717.07	1	52381.47	-40.06702	-1.375475E-008	0.0006588	6
	50	140	3.004808	45210.71	-33312.88	1	56158.31	-36.38413	-9.566758E-009	0.0006617	6
	51	146	2.372217	50515.09	-32964.26	1	60319.29	-33.12696	-1.25685E-008	0.0007007	6
	52	150	1.878005	55420.58	-31926.48	1	63958.9	-29.94522	-1.501675E-008	0.0006637	6
	53	155	1.512097	59173.1	-30646.34	1	66638.23	-27.38009	-1.154122E-008	0.0005873	6
	54	166	1.201923	63067.26	-29203.78	1	69500.65	-24.84686	-1.245135E-008	0.0006633	6
	55	179	0.956633	66883.95	-27962.13	1	72493.74	-22.68831	-2.033135E-008	3.006916E-005	6
