EXPLAIN
TAG	EISPOT
TITLE	LABEL	Potentiostatic EIS	Test Identifier
DATE	LABEL	8/25/2020	Date
TIME	LABEL	14:28:05	Time
NOTES	NOTES	1	Notes...
	
PSTAT	PSTAT	REF3000-16137	Potentiostat
VDC	POTEN	0.00000E+000	T	DC Voltage (V)
FREQINIT	QUANT	3.00000E+005	Initial Freq. (Hz)
FREQFINAL	QUANT	1.00000E+000	Final Freq. (Hz)
PTSPERDEC	QUANT	1.00000E+001	Points/decade
VAC	QUANT	5.00000E+001	AC Voltage (mV rms)
AREA	QUANT	1.00000E+000	Sample Area (cm^2)
SPEED	SELECTOR	2	Optimize for:
ZGUESS	QUANT	1.00000E+003	Estimated Z (ohms)
EOC	QUANT	0	Open Circuit (V)
SEQUENCER	TOGGLE	TRUE	Run as Sequence
PSTATMODEL	IQUANT	5	Pstat Model
PSTATSECTION	LABEL	REF3000-16137	Pstat Section
PSTATSERIALNO	LABEL	16137	Pstat Serial Number
CTRLMODE	IQUANT	1	Control Mode
IESTAB	IQUANT	0	I/E Stability
CASPEED	IQUANT	1	Control Amp Speed
CONVENTION	IQUANT	1	Current Convention
ICHRANGE	IQUANT	2	Ich Range
ICHRANGEMODE	TOGGLE	F	Ich Auto Range
ICHOFFSETENABLE	TOGGLE	T	Ich Offset Enable
ICHOFFSET	QUANT	0	Ich Offset (V)
ICHFILTER	IQUANT	3	Ich Filter
VCHRANGE	IQUANT	2	Vch Range
VCHRANGEMODE	TOGGLE	F	Vch Auto Range
VCHOFFSETENABLE	TOGGLE	T	Vch Offset Enable
VCHOFFSET	QUANT	0	Vch Offset (V)
VCHFILTER	IQUANT	3	Vch Filter
ACHRANGE	IQUANT	2	Ach Range
ACHOFFSETENABLE	TOGGLE	F	Ach Offset Enable
ACHOFFSET	QUANT	0	Ach Offset (V)
ACHFILTER	IQUANT	3	Ach Filter
IERANGELOWERLIMIT	IQUANT	2	I/E Range Lower Limit
IERANGEMODE	TOGGLE	F	I/E AutoRange
IERANGE	IQUANT	11	I/E Range
POSFEEDENABLE	TOGGLE	F	Positive Feedback IR Comp
POSFEEDRESISTANCE	QUANT	0	Positive Feedback Resistance (ohm)
ACHSELECT	IQUANT	0	Ach Select
CABLEID	IQUANT	13	Cable ID
DCCALDATE	LABEL	7/31/2020	DC Calibration Date
ACCALDATE	LABEL	7/31/2020	AC Calibration Date
THERMOSELECT	IQUANT	1	Thermo Select
FRAMEWORKVERSION	QUANT	6.33	Framework Version
INSTRUMENTVERSION	LABEL	3.50	Instrument Version
COMPLIANCEVOLTAGE	IQUANT	0	Compliance Voltage
ZCURVE	TABLE
	Pt	Time	Freq	Zreal	Zimag	Zsig	Zmod	Zphz	Idc	Vdc	IERange
	#	s	Hz	ohm	ohm	V	ohm	°	A	V	#
	0	20	300046.9	-46.69946	-4848.291	1	4848.516	-90.55186	2.036794E-005	-0.000549	9
	1	34	238359.4	293.6917	-6242.774	1	6249.679	-87.3065	-5.876194E-007	-0.0020738	9
	2	47	189328.1	308.7001	-7503.25	1	7509.598	-87.64406	-6.209992E-005	0.0005447	9
	3	56	150421.9	209.2717	-9219.206	1	9221.581	-88.69964	5.117107E-005	0.0002164	9
	4	65	119484.4	173.6448	-11810.08	1	11811.36	-89.15764	5.082531E-005	0.0002506	9
	5	74	94921.88	546.0451	-14646.28	1	14656.45	-87.86488	-2.676137E-005	0.0076577	8
	6	83	75421.88	465.5797	-18265.79	1	18271.72	-88.53989	7.771283E-006	-0.0077692	8
	7	92	59859.37	602.5239	-22896.68	1	22904.6	-88.49261	2.62266E-005	-0.0051478	8
	8	100	47578.12	767.9379	-28557.55	1	28567.88	-88.45964	-1.225436E-005	0.0104089	8
	9	110	37828.12	991.487	-36056.33	1	36069.96	-88.42486	-2.722482E-005	0.0098178	8
	10	119	30046.88	2036.864	-45720.82	1	45766.17	-87.44916	2.758207E-005	-0.0074845	8
	11	129	23859.38	-6063.99	-53210.54	1	53554.95	-96.5015	2.632275E-005	-0.009013	8
	12	136	18984.38	-2563.222	-71234.5	1	71280.6	-92.06078	2.616893E-005	-0.0089758	8
	13	143	15046.87	-3375.113	-85511.8	1	85578.38	-92.26027	-2.071844E-005	0.0028759	8
	14	150	11953.13	2864.305	-116645.3	1	116680.5	-88.59335	2.67871E-005	-0.0092067	8
	15	159	9515.62	3097.517	-140030.3	1	140064.5	-88.7328	1.64626E-005	-0.0094181	8
	16	166	7546.875	7027.935	-177985.9	1	178124.6	-87.7388	6.939748E-006	-0.0274241	7
	17	173	5928.309	3792.512	-243558.8	1	243588.3	-89.1079	1.3021E-006	-0.0201959	7
	18	178	4733.456	36563.98	-301127.1	1	303338.8	-83.07682	7.824461E-007	-0.0233004	6
	19	183	3796.875	11397.65	-349361.3	1	349547.2	-88.13143	-5.403695E-006	0.00363	7
	20	190	2987.132	45841.11	-413315.1	1	415849.5	-83.67114	-3.800469E-006	0.0257657	7
	21	197	2390.625	-80360.2	-545707.9	1	551593	-98.3771	2.74366E-006	0.0085597	7
	22	204	1884.191	-275185.1	-667319.8	1	721832.8	-112.41	7.654542E-006	-0.0186997	7
	23	210	1516.544	-120278.5	-693787.9	1	704136.8	-99.8353	8.03335E-006	-0.0077454	8
	24	219	1193.986	171346	-750968.3	1	770268.1	-77.14703	7.747821E-006	-0.0246783	7
	25	226	946.5144	1779136	-1396756	1	2261913	-38.13458	-7.342965E-006	0.0237295	7
	26	232	751.7689	-308657.5	-576839.3	1	654227.1	-118.1505	6.85952E-006	-0.0272002	7
	27	238	597.4265	-294847.4	-1206496	1	1242002	-103.733	-7.352884E-006	0.023712	7
	28	242	477.4305	62301.02	-2806864	1	2807555	-88.72848	-8.878628E-008	0.0006181	7
	29	250	376.6741	481689.4	-3669692	1	3701171	-82.52202	-9.862373E-010	0.000694	5
	30	253	298.2954	497363.3	-4551815	1	4578907	-83.7642	-9.675185E-010	0.0006483	5
	31	256	237.7717	660195.6	-5610378	1	5649089	-83.28864	-9.566677E-010	0.0006121	5
	32	259	189.0121	577079	-7077367	1	7100855	-85.33849	-9.400752E-010	0.0005944	5
	33	262	150.2404	764934.5	-8536688	1	8570891	-84.87965	-1.046809E-009	0.0006629	5
	34	265	119.1737	4763219	-1.421289E+007	1	1.498981E+007	-71.47226	-9.897743E-010	0.000606	5
	35	267	95.0169	407796.3	-1.393909E+007	1	1.394505E+007	-88.32426	-1.055425E-009	0.0006868	5
	36	270	75.60484	335875.1	-1.707342E+007	1	1.707672E+007	-88.873	-9.649982E-010	0.0006256	5
	37	273	54.50582	869917.8	-2.325086E+007	1	2.326713E+007	-87.85731	-9.322915E-010	0.0006149	5
	38	276	45.95588	4099944	-3.143901E+007	1	3.170521E+007	-82.57001	-1.247767E-010	0.0006893	4
	39	279	37.20238	-527116	-3.715748E+007	1	3.716122E+007	-90.81274	-1.016556E-009	0.0006004	5
	40	283	30.04808	5120389	-4.475382E+007	1	4.504578E+007	-83.47304	-9.507266E-011	0.0007046	4
	41	287	23.91582	4672600	-5.32763E+007	1	5.348081E+007	-84.98769	-9.660834E-011	0.0006774	4
	42	291	18.60119	4779819	-5.819466E+007	1	5.839063E+007	-85.30455	-1.667615E-010	0.0006401	4
	43	294	15.02404	6694372	-8.401786E+007	1	8.428414E+007	-85.44441	-1.09778E-010	0.0006345	4
	44	298	12.01923	7690762	-1.049054E+008	1	1.051869E+008	-85.80707	-1.059056E-010	0.0006917	4
	45	301	9.450605	8593626	-1.307494E+008	1	1.310315E+008	-86.23959	-1.125267E-010	0.0006553	4
	46	305	7.512019	1.166248E+007	-1.622438E+008	1	1.626624E+008	-85.88851	-1.147983E-010	0.0006863	4
	47	310	5.978954	2.660589E+007	-2.260335E+008	1	2.27594E+008	-83.28674	-8.138998E-011	0.0006043	4
	48	315	4.734848	5.068121E+007	-2.802677E+008	1	2.848132E+008	-79.74989	-1.427952E-011	0.0006947	3
	49	320	3.75601	1.50312E+007	-3.361795E+008	1	3.365154E+008	-87.4399	-1.067339E-009	0.0007157	5
	50	328	3.004808	1638428	-3.756944E+008	1	3.75698E+008	-89.75013	-9.702795E-010	0.0005844	5
	51	338	2.372217	7.648574E+007	-5.302061E+008	1	5.356945E+008	-81.79134	-1.567804E-011	0.0006885	3
	52	343	1.878005	8.953282E+007	-6.631861E+008	1	6.692025E+008	-82.31133	-1.538302E-011	0.0007217	3
	53	352	1.512097	1.053724E+008	-8.147604E+008	1	8.21546E+008	-82.63087	-1.550521E-011	0.0007454	3
	54	359	1.201923	1.338833E+008	-1.018661E+009	1	1.027421E+009	-82.5125	-1.52214E-011	0.000736	3
	55	372	0.956633	1.769198E+008	-1.268384E+009	1	1.280664E+009	-82.05936	-1.529875E-011	8.475356E-005	3
