EXPLAIN
TAG	EISPOT
TITLE	LABEL	Potentiostatic EIS	Test Identifier
DATE	LABEL	8/25/2020	Date
TIME	LABEL	12:20:40	Time
NOTES	NOTES	1	Notes...
	
PSTAT	PSTAT	REF3000-16137	Potentiostat
VDC	POTEN	0.00000E+000	T	DC Voltage (V)
FREQINIT	QUANT	3.00000E+005	Initial Freq. (Hz)
FREQFINAL	QUANT	1.00000E+000	Final Freq. (Hz)
PTSPERDEC	QUANT	1.00000E+001	Points/decade
VAC	QUANT	5.00000E+001	AC Voltage (mV rms)
AREA	QUANT	1.00000E+000	Sample Area (cm^2)
SPEED	SELECTOR	2	Optimize for:
ZGUESS	QUANT	1.00000E+003	Estimated Z (ohms)
EOC	QUANT	0	Open Circuit (V)
SEQUENCER	TOGGLE	TRUE	Run as Sequence
PSTATMODEL	IQUANT	5	Pstat Model
PSTATSECTION	LABEL	REF3000-16137	Pstat Section
PSTATSERIALNO	LABEL	16137	Pstat Serial Number
CTRLMODE	IQUANT	1	Control Mode
IESTAB	IQUANT	0	I/E Stability
CASPEED	IQUANT	1	Control Amp Speed
CONVENTION	IQUANT	1	Current Convention
ICHRANGE	IQUANT	2	Ich Range
ICHRANGEMODE	TOGGLE	F	Ich Auto Range
ICHOFFSETENABLE	TOGGLE	T	Ich Offset Enable
ICHOFFSET	QUANT	0	Ich Offset (V)
ICHFILTER	IQUANT	3	Ich Filter
VCHRANGE	IQUANT	2	Vch Range
VCHRANGEMODE	TOGGLE	F	Vch Auto Range
VCHOFFSETENABLE	TOGGLE	T	Vch Offset Enable
VCHOFFSET	QUANT	0	Vch Offset (V)
VCHFILTER	IQUANT	3	Vch Filter
ACHRANGE	IQUANT	2	Ach Range
ACHOFFSETENABLE	TOGGLE	F	Ach Offset Enable
ACHOFFSET	QUANT	0	Ach Offset (V)
ACHFILTER	IQUANT	3	Ach Filter
IERANGELOWERLIMIT	IQUANT	2	I/E Range Lower Limit
IERANGEMODE	TOGGLE	F	I/E AutoRange
IERANGE	IQUANT	11	I/E Range
POSFEEDENABLE	TOGGLE	F	Positive Feedback IR Comp
POSFEEDRESISTANCE	QUANT	0	Positive Feedback Resistance (ohm)
ACHSELECT	IQUANT	0	Ach Select
CABLEID	IQUANT	13	Cable ID
DCCALDATE	LABEL	7/31/2020	DC Calibration Date
ACCALDATE	LABEL	7/31/2020	AC Calibration Date
THERMOSELECT	IQUANT	1	Thermo Select
FRAMEWORKVERSION	QUANT	6.33	Framework Version
INSTRUMENTVERSION	LABEL	3.50	Instrument Version
COMPLIANCEVOLTAGE	IQUANT	0	Compliance Voltage
ZCURVE	TABLE
	Pt	Time	Freq	Zreal	Zimag	Zsig	Zmod	Zphz	Idc	Vdc	IERange
	#	s	Hz	ohm	ohm	V	ohm	°	A	V	#
	0	13	300046.9	233.9886	-15.35243	1	234.4917	-3.753902	2.249219E-005	-0.0015772	9
	1	19	238359.4	234.5884	-15.41316	1	235.0942	-3.759102	-8.103869E-005	0.0033371	9
	2	22	189328.1	235.5289	-15.96376	1	236.0693	-3.877482	2.205337E-005	-0.0005324	9
	3	25	150421.9	237.1486	-19.64078	1	237.9605	-4.734464	-0.0001036	0.0006348	10
	4	30	119484.4	238.8447	-21.09253	1	239.7742	-5.046735	1.950702E-005	0.0005488	10
	5	34	94921.88	240.5922	-21.00934	1	241.5078	-4.990605	1.876839E-006	0.0006418	9
	6	38	75421.88	242.5818	-25.24801	1	243.8922	-5.941973	2.665701E-005	0.0006723	10
	7	42	59859.37	244.8001	-27.41996	1	246.331	-6.391038	-2.162797E-005	0.0004532	9
	8	45	47578.12	247.3723	-31.20628	1	249.3329	-7.189943	-2.213019E-005	0.0004537	9
	9	49	37828.12	250.4818	-35.87744	1	253.0382	-8.151246	2.526494E-005	-0.0007765	9
	10	53	30046.88	254.0153	-41.4021	1	257.3672	-9.257271	-2.231037E-005	0.000867	9
	11	56	23859.38	256.957	-48.0773	1	261.416	-10.59765	-1.629373E-005	0.0001666	9
	12	59	18984.38	261.261	-55.72563	1	267.1379	-12.04046	-9.694993E-006	0.0007841	9
	13	62	15046.87	265.0337	-64.89948	1	272.8641	-13.75941	2.608468E-005	-0.0007686	9
	14	66	11953.13	269.6735	-76.36846	1	280.2784	-15.81152	2.66683E-005	-0.0007702	9
	15	69	9515.62	274.5217	-89.11699	1	288.6243	-17.9848	5.397437E-007	-0.0004738	9
	16	72	7546.875	278.7567	-106.3959	1	298.3712	-20.89086	2.096279E-005	-4.518853E-005	9
	17	74	5928.309	282.8949	-127.7701	1	310.4105	-24.30642	-1.87545E-005	0.0003677	9
	18	77	4733.456	286.5329	-154.4014	1	325.4856	-28.3185	2.650255E-005	-0.000791	9
	19	79	3796.875	291.0518	-186.28	1	345.5595	-32.6202	1.611947E-005	-0.0007935	9
	20	81	2987.132	296.4315	-229.815	1	375.082	-37.78542	2.429478E-005	-0.0002335	9
	21	84	2390.625	301.8515	-282.143	1	413.1815	-43.06713	-2.122556E-005	0.0009568	9
	22	86	1884.191	307.9442	-347.3469	1	464.1977	-48.44106	1.031512E-005	-0.0034809	8
	23	88	1516.544	316.566	-426.21	1	530.9133	-53.397	1.142208E-005	-0.0017201	8
	24	91	1193.986	330.8024	-532.6882	1	627.0462	-58.15948	-9.972771E-006	0.0024586	8
	25	93	946.5144	347.3465	-660.7374	1	746.474	-62.26931	-2.284748E-006	-0.0010496	8
	26	96	751.7689	368.5029	-820.5501	1	899.4981	-65.81551	9.113184E-006	-0.0003689	8
	27	98	597.4265	394.0099	-1013.136	1	1087.055	-68.74887	-6.381954E-006	0.0046849	8
	28	101	477.4305	432.4507	-1250.077	1	1322.764	-70.91748	-4.209066E-008	0.0007051	8
	29	103	376.6741	482.8609	-1555.772	1	1628.982	-72.75737	-2.588779E-009	0.0006396	8
	30	105	298.2954	548.7155	-1927.811	1	2004.381	-74.11198	-4.533401E-009	0.0006544	8
	31	108	237.7717	633.2744	-2371.863	1	2454.948	-75.05105	2.314652E-009	0.0006354	8
	32	110	189.0121	747.0245	-2923.088	1	3017.033	-75.66432	1.740095E-008	0.0006436	8
	33	112	150.2404	898.4188	-3597.56	1	3708.045	-75.97832	-8.654945E-009	0.0007035	8
	34	115	119.1737	1108.559	-4438.543	1	4574.885	-75.97684	-2.228503E-008	0.0006798	7
	35	117	95.0169	1378.441	-5428.042	1	5600.333	-75.75105	-1.843762E-008	0.0006303	7
	36	120	75.60484	1747.046	-6636.12	1	6862.234	-75.25079	-1.642229E-008	0.0006267	7
	37	122	54.50582	2512.354	-8797.549	1	9149.251	-74.06202	-1.664729E-008	0.0006195	7
	38	125	45.95588	3062.572	-10160.12	1	10611.66	-73.22559	-1.538774E-008	0.0006285	7
	39	127	37.20238	3937.342	-12092.77	1	12717.62	-71.96503	-1.204049E-008	0.0006058	7
	40	130	30.04808	5093.486	-14339.32	1	15217.08	-70.44439	-2.094154E-008	0.0006228	7
	41	132	23.91582	6718.884	-17079.41	1	18353.47	-68.52578	-1.343842E-008	0.0006067	7
	42	134	18.60119	9088.681	-20480.36	1	22406.46	-66.06953	-9.935945E-009	0.0006282	7
	43	137	15.02404	11665.63	-23626.29	1	26349.35	-63.72184	-1.413273E-008	0.0006365	7
	44	139	12.01923	15035.47	-27093.59	1	30985.93	-60.9721	-7.259419E-009	0.000611	7
	45	141	9.450605	19400.35	-30887.44	1	36474.75	-57.86715	-1.443536E-008	0.0006086	7
	46	144	7.512019	24465.83	-34375.68	1	42193.18	-54.55981	-9.440121E-010	0.00066	6
	47	147	5.978954	30105.96	-37540.23	1	48121.08	-51.2716	-2.718133E-009	0.0006797	6
	48	150	4.734848	36522.69	-40184.71	1	54302.1	-47.73323	-2.361345E-009	0.000706	6
	49	153	3.75601	43299.46	-42274.81	1	60514.49	-44.31398	-5.855674E-009	0.0006753	6
	50	156	3.004808	49973.36	-43776.52	1	66435.83	-41.21827	-8.947989E-009	0.0006933	6
	51	160	2.372217	57196.38	-44662.34	1	72568.25	-37.98484	-4.317103E-009	0.0007391	6
	52	164	1.878005	64010.2	-44549.83	1	77987.13	-34.83715	-7.116202E-009	0.0006442	6
	53	169	1.512097	70236.34	-44482.2	1	83137.3	-32.34697	-7.204136E-009	0.0007301	6
	54	174	1.201923	76332.55	-43437.37	1	87826.33	-29.64223	-4.501977E-009	0.0006368	6
	55	187	0.956633	82626.33	-42724.94	1	93018.98	-27.34286	-1.327153E-008	8.01403E-005	6
