EXPLAIN
TAG	EISPOT
TITLE	LABEL	Potentiostatic EIS	Test Identifier
DATE	LABEL	8/25/2020	Date
TIME	LABEL	15:58:33	Time
NOTES	NOTES	1	Notes...
	
PSTAT	PSTAT	REF3000-16137	Potentiostat
VDC	POTEN	0.00000E+000	T	DC Voltage (V)
FREQINIT	QUANT	3.00000E+005	Initial Freq. (Hz)
FREQFINAL	QUANT	1.00000E+000	Final Freq. (Hz)
PTSPERDEC	QUANT	1.00000E+001	Points/decade
VAC	QUANT	5.00000E+001	AC Voltage (mV rms)
AREA	QUANT	1.00000E+000	Sample Area (cm^2)
SPEED	SELECTOR	2	Optimize for:
ZGUESS	QUANT	1.00000E+003	Estimated Z (ohms)
EOC	QUANT	0	Open Circuit (V)
SEQUENCER	TOGGLE	TRUE	Run as Sequence
PSTATMODEL	IQUANT	5	Pstat Model
PSTATSECTION	LABEL	REF3000-16137	Pstat Section
PSTATSERIALNO	LABEL	16137	Pstat Serial Number
CTRLMODE	IQUANT	1	Control Mode
IESTAB	IQUANT	0	I/E Stability
CASPEED	IQUANT	1	Control Amp Speed
CONVENTION	IQUANT	1	Current Convention
ICHRANGE	IQUANT	2	Ich Range
ICHRANGEMODE	TOGGLE	F	Ich Auto Range
ICHOFFSETENABLE	TOGGLE	T	Ich Offset Enable
ICHOFFSET	QUANT	0	Ich Offset (V)
ICHFILTER	IQUANT	3	Ich Filter
VCHRANGE	IQUANT	2	Vch Range
VCHRANGEMODE	TOGGLE	F	Vch Auto Range
VCHOFFSETENABLE	TOGGLE	T	Vch Offset Enable
VCHOFFSET	QUANT	0	Vch Offset (V)
VCHFILTER	IQUANT	3	Vch Filter
ACHRANGE	IQUANT	2	Ach Range
ACHOFFSETENABLE	TOGGLE	F	Ach Offset Enable
ACHOFFSET	QUANT	0	Ach Offset (V)
ACHFILTER	IQUANT	3	Ach Filter
IERANGELOWERLIMIT	IQUANT	2	I/E Range Lower Limit
IERANGEMODE	TOGGLE	F	I/E AutoRange
IERANGE	IQUANT	11	I/E Range
POSFEEDENABLE	TOGGLE	F	Positive Feedback IR Comp
POSFEEDRESISTANCE	QUANT	0	Positive Feedback Resistance (ohm)
ACHSELECT	IQUANT	0	Ach Select
CABLEID	IQUANT	13	Cable ID
DCCALDATE	LABEL	7/31/2020	DC Calibration Date
ACCALDATE	LABEL	7/31/2020	AC Calibration Date
THERMOSELECT	IQUANT	1	Thermo Select
FRAMEWORKVERSION	QUANT	6.33	Framework Version
INSTRUMENTVERSION	LABEL	3.50	Instrument Version
COMPLIANCEVOLTAGE	IQUANT	0	Compliance Voltage
ZCURVE	TABLE
	Pt	Time	Freq	Zreal	Zimag	Zsig	Zmod	Zphz	Idc	Vdc	IERange
	#	s	Hz	ohm	ohm	V	ohm	°	A	V	#
	0	11	300046.9	224.405	-13.64087	1	224.8192	-3.47855	5.07236E-005	-0.0003814	9
	1	14	238359.4	224.6138	-14.09249	1	225.0554	-3.590089	-1.955961E-005	0.0008747	9
	2	17	189328.1	225.9052	-14.97854	1	226.4012	-3.793418	7.354762E-005	-0.00178	9
	3	21	150421.9	227.3862	-16.13274	1	227.9578	-4.058258	-5.974678E-006	-0.0014756	9
	4	24	119484.4	228.8468	-17.60081	1	229.5227	-4.39801	-1.48809E-005	0.0013342	9
	5	27	94921.88	229.7848	-19.70045	1	230.6277	-4.900233	2.813474E-005	-0.0006722	9
	6	29	75421.88	231.5909	-22.25564	1	232.6578	-5.489209	-1.569814E-005	0.0001092	9
	7	32	59859.37	233.6067	-25.52239	1	234.9968	-6.235044	-1.576911E-005	0.0001145	9
	8	34	47578.12	235.8303	-29.33442	1	237.6477	-7.090479	-9.231281E-006	0.0009344	9
	9	37	37828.12	238.2533	-33.54985	1	240.6039	-8.015453	-2.184998E-005	0.0010133	9
	10	40	30046.88	241.1081	-39.01203	1	244.2439	-9.190977	2.594055E-005	-0.0007717	9
	11	44	23859.38	244.1481	-45.20613	1	248.2979	-10.49001	2.349871E-005	-0.0007622	9
	12	48	18984.38	247.1742	-52.89664	1	252.7709	-12.07941	2.667635E-005	-0.0007886	9
	13	51	15046.87	249.7316	-61.97573	1	257.3069	-13.93748	1.253883E-006	0.0005815	9
	14	55	11953.13	254.3174	-73.08486	1	264.6106	-16.03341	-1.621642E-005	0.0009493	9
	15	58	9515.62	257.0158	-86.98376	1	271.3362	-18.69774	-9.331185E-007	-0.0004123	9
	16	61	7546.875	260.3442	-104.4813	1	280.5271	-21.86656	-1.561078E-005	0.0009914	9
	17	63	5928.309	263.5079	-128.0818	1	292.987	-25.92272	-9.781158E-006	-0.000095	9
	18	67	4733.456	266.7976	-155.2648	1	308.6877	-30.19759	-2.385025E-005	0.0006943	9
	19	69	3796.875	269.6147	-188.8771	1	329.1909	-35.01296	2.729686E-005	-0.0006915	9
	20	71	2987.132	275.6817	-235.8897	1	362.8283	-40.55228	7.073138E-006	-0.0006314	9
	21	74	2390.625	279.9638	-287.5486	1	401.3278	-45.76571	1.174498E-005	-0.0023725	8
	22	76	1884.191	287.7735	-359.2499	1	460.2978	-51.30388	-1.025063E-005	0.0032158	8
	23	78	1516.544	297.6483	-441.0741	1	532.1098	-55.9875	1.233997E-006	0.002748	8
	24	80	1193.986	312.5345	-549.6238	1	632.269	-60.37599	-9.771707E-006	0.0024485	8
	25	83	946.5144	329.3867	-685.1596	1	760.2232	-64.32433	-8.205535E-006	0.001559	8
	26	85	751.7689	356.375	-847.8658	1	919.7171	-67.20201	-9.667786E-006	0.0024273	8
	27	88	597.4265	386.0154	-1048.721	1	1117.508	-69.79225	7.960731E-006	-0.0033766	8
	28	90	477.4305	429.7643	-1288.937	1	1358.697	-71.56031	9.615798E-009	0.0006472	8
	29	93	376.6741	490.0285	-1601.788	1	1675.068	-72.98977	9.693265E-009	0.0006427	8
	30	95	298.2954	569.9407	-1980.985	1	2061.343	-73.94917	3.460638E-009	0.0006455	8
	31	97	237.7717	674.3126	-2431.267	1	2523.045	-74.49863	2.610735E-008	0.0006295	8
	32	100	189.0121	816.3932	-2987.024	1	3096.581	-74.71364	6.485786E-009	0.0006433	8
	33	102	150.2404	1008.56	-3660.934	1	3797.319	-74.59753	2.532607E-008	0.0006396	8
	34	105	119.1737	1277.302	-4492.424	1	4670.479	-74.1283	-2.759483E-008	0.0006617	7
	35	107	95.0169	1626.46	-5459.607	1	5696.726	-73.41079	-1.987291E-008	0.0006068	7
	36	110	75.60484	2105.358	-6619.404	1	6946.153	-72.35629	-2.050137E-008	0.0006038	7
	37	112	54.50582	3098.172	-8633.852	1	9172.898	-70.25998	-2.29219E-008	0.0006157	7
	38	115	45.95588	3807.926	-9859.85	1	10569.63	-68.88319	-1.526354E-008	0.0006318	7
	39	117	37.20238	4918.25	-11535.14	1	12539.88	-66.908	-1.766083E-008	0.0006319	7
	40	119	30.04808	6371.906	-13390.22	1	14829	-64.55196	-2.427958E-008	0.000622	7
	41	122	23.91582	8344.261	-15494.66	1	17598.62	-61.69643	-1.86433E-008	0.0006164	7
	42	124	18.60119	11028.52	-17848.28	1	20980.69	-58.28793	-1.623305E-008	0.0006308	7
	43	126	15.02404	13817.14	-19778.58	1	24126.87	-55.06219	-2.362655E-008	0.0006102	7
	44	129	12.01923	17171.17	-21537.3	1	27544.59	-51.43549	-1.128091E-008	0.0006291	7
	45	131	9.450605	21184.01	-23100.5	1	31343.18	-47.47803	-2.727375E-008	0.0006265	7
	46	134	7.512019	25190.61	-24162.28	1	34905.34	-43.80634	-2.567046E-008	0.0006264	7
	47	136	5.978954	29272	-24555.75	1	38207.79	-39.99268	-2.792516E-008	0.0006358	7
	48	140	4.734848	33389.68	-24502.08	1	41415.25	-36.27204	-1.712024E-008	0.0006496	6
	49	143	3.75601	36962.39	-23666.03	1	43889.62	-32.63035	-2.221999E-008	0.0006561	6
	50	148	3.004808	39973.59	-22546.09	1	45893.51	-29.42407	-1.934171E-008	0.0006398	6
	51	155	2.372217	43255.23	-21721.54	1	48402.89	-26.66449	-2.736007E-008	0.0006638	6
	52	159	1.878005	45181.03	-19622.54	1	49258.19	-23.47575	-2.799815E-008	0.0006595	6
	53	168	1.512097	46731.89	-18203.77	1	50152.24	-21.28272	-2.947963E-008	0.0006047	6
	54	179	1.201923	48138.88	-16665.5	1	50942.04	-19.09566	-3.299608E-008	0.0006549	6
	55	192	0.956633	49416.78	-15295.06	1	51729.65	-17.1979	-4.87021E-008	2.832183E-005	6
