EXPLAIN
TAG	EISPOT
TITLE	LABEL	Potentiostatic EIS	Test Identifier
DATE	LABEL	8/25/2020	Date
TIME	LABEL	12:30:22	Time
NOTES	NOTES	1	Notes...
	
PSTAT	PSTAT	REF3000-16137	Potentiostat
VDC	POTEN	0.00000E+000	T	DC Voltage (V)
FREQINIT	QUANT	3.00000E+005	Initial Freq. (Hz)
FREQFINAL	QUANT	1.00000E+000	Final Freq. (Hz)
PTSPERDEC	QUANT	1.00000E+001	Points/decade
VAC	QUANT	5.00000E+001	AC Voltage (mV rms)
AREA	QUANT	1.00000E+000	Sample Area (cm^2)
SPEED	SELECTOR	2	Optimize for:
ZGUESS	QUANT	1.00000E+003	Estimated Z (ohms)
EOC	QUANT	0	Open Circuit (V)
SEQUENCER	TOGGLE	TRUE	Run as Sequence
PSTATMODEL	IQUANT	5	Pstat Model
PSTATSECTION	LABEL	REF3000-16137	Pstat Section
PSTATSERIALNO	LABEL	16137	Pstat Serial Number
CTRLMODE	IQUANT	1	Control Mode
IESTAB	IQUANT	0	I/E Stability
CASPEED	IQUANT	1	Control Amp Speed
CONVENTION	IQUANT	1	Current Convention
ICHRANGE	IQUANT	2	Ich Range
ICHRANGEMODE	TOGGLE	F	Ich Auto Range
ICHOFFSETENABLE	TOGGLE	T	Ich Offset Enable
ICHOFFSET	QUANT	0	Ich Offset (V)
ICHFILTER	IQUANT	3	Ich Filter
VCHRANGE	IQUANT	2	Vch Range
VCHRANGEMODE	TOGGLE	F	Vch Auto Range
VCHOFFSETENABLE	TOGGLE	T	Vch Offset Enable
VCHOFFSET	QUANT	0	Vch Offset (V)
VCHFILTER	IQUANT	3	Vch Filter
ACHRANGE	IQUANT	2	Ach Range
ACHOFFSETENABLE	TOGGLE	F	Ach Offset Enable
ACHOFFSET	QUANT	0	Ach Offset (V)
ACHFILTER	IQUANT	3	Ach Filter
IERANGELOWERLIMIT	IQUANT	2	I/E Range Lower Limit
IERANGEMODE	TOGGLE	F	I/E AutoRange
IERANGE	IQUANT	11	I/E Range
POSFEEDENABLE	TOGGLE	F	Positive Feedback IR Comp
POSFEEDRESISTANCE	QUANT	0	Positive Feedback Resistance (ohm)
ACHSELECT	IQUANT	0	Ach Select
CABLEID	IQUANT	13	Cable ID
DCCALDATE	LABEL	7/31/2020	DC Calibration Date
ACCALDATE	LABEL	7/31/2020	AC Calibration Date
THERMOSELECT	IQUANT	1	Thermo Select
FRAMEWORKVERSION	QUANT	6.33	Framework Version
INSTRUMENTVERSION	LABEL	3.50	Instrument Version
COMPLIANCEVOLTAGE	IQUANT	0	Compliance Voltage
ZCURVE	TABLE
	Pt	Time	Freq	Zreal	Zimag	Zsig	Zmod	Zphz	Idc	Vdc	IERange
	#	s	Hz	ohm	ohm	V	ohm	°	A	V	#
	0	14	300046.9	264.7751	-18.16977	1	265.3978	-3.925678	1.879278E-005	-0.0019762	9
	1	18	238359.4	266.3969	-18.09693	1	267.0108	-3.886258	6.517635E-006	0.0012023	9
	2	24	189328.1	267.0706	-18.97252	1	267.7437	-4.063428	-9.410243E-006	0.0015535	9
	3	29	150421.9	269.442	-22.1016	1	270.3469	-4.689322	7.527936E-005	0.0006853	10
	4	35	119484.4	271.3279	-21.43058	1	272.1729	-4.516079	-5.910758E-005	0.0008554	9
	5	39	94921.88	272.9159	-23.94318	1	273.9642	-5.013777	-1.452499E-006	0.0005852	9
	6	42	75421.88	275.345	-26.1942	1	276.5881	-5.434324	-2.143013E-005	0.0009843	9
	7	46	59859.37	277.9077	-29.96645	1	279.5186	-6.154356	-2.273425E-005	0.0009541	9
	8	50	47578.12	280.8274	-33.89529	1	282.8656	-6.882191	-1.967477E-005	0.0003862	9
	9	53	37828.12	284.1371	-38.93641	1	286.7925	-7.802862	2.842687E-005	-0.0006741	9
	10	57	30046.88	287.7701	-44.66752	1	291.2162	-8.82301	2.471045E-005	-0.0002907	9
	11	60	23859.38	291.5326	-51.77013	1	296.0936	-10.06957	5.916725E-007	0.0006416	9
	12	63	18984.38	296.4079	-59.70039	1	302.3604	-11.38775	2.43415E-005	-0.0002026	9
	13	65	15046.87	300.4469	-69.73445	1	308.4335	-13.06712	1.668144E-005	-0.0008157	9
	14	67	11953.13	305.616	-80.70926	1	316.0936	-14.79334	2.682213E-005	-0.0008183	9
	15	70	9515.62	310.4266	-95.1153	1	324.6715	-17.03517	2.155295E-005	-0.0001147	9
	16	72	7546.875	315.5193	-113.6577	1	335.3662	-19.81026	1.932764E-005	-8.704745E-005	9
	17	74	5928.309	320.1971	-135.7627	1	347.7898	-22.97681	2.811755E-005	-0.0006738	9
	18	77	4733.456	325.5601	-162.8006	1	363.9964	-26.56794	2.056252E-005	-6.918861E-005	9
	19	79	3796.875	329.9883	-195.2764	1	383.4386	-30.61567	-1.050814E-005	-3.72748E-005	9
	20	81	2987.132	333.0433	-241.5887	1	411.4401	-35.95703	5.700882E-006	-0.0034006	8
	21	84	2390.625	339.0115	-293.7755	1	448.5898	-40.91105	1.641739E-006	-0.0025026	8
	22	86	1884.191	345.2026	-367.8823	1	504.4821	-46.82168	8.943651E-006	-0.0038777	8
	23	88	1516.544	354.652	-447.1655	1	570.732	-51.58167	1.095755E-005	-0.0037076	8
	24	91	1193.986	366.9415	-559.0976	1	668.7572	-56.7227	-6.152713E-006	0.0002094	8
	25	93	946.5144	383.1681	-698.0846	1	796.329	-61.23828	1.257578E-005	-0.0025902	8
	26	95	751.7689	404.5793	-864.6665	1	954.637	-64.925	-3.177179E-006	0.0042945	8
	27	98	597.4265	432.2175	-1070.373	1	1154.344	-68.01111	-6.034351E-006	0.0001482	8
	28	101	477.4305	466.5704	-1319.475	1	1399.537	-70.52625	-1.588614E-008	0.0006383	8
	29	103	376.6741	515.6096	-1644.489	1	1723.426	-72.59182	-4.847921E-008	0.0006472	8
	30	105	298.2954	579.2469	-2040.591	1	2121.211	-74.15275	-3.454855E-008	0.0006543	8
	31	108	237.7717	660.7563	-2514.346	1	2599.718	-75.27591	-4.808319E-008	0.000651	8
	32	110	189.0121	769.5805	-3103.743	1	3197.73	-76.07423	-1.478783E-008	0.0006432	8
	33	112	150.2404	913.5986	-3826.568	1	3934.118	-76.57193	-4.40596E-008	0.0006537	8
	34	115	119.1737	1111.229	-4731.144	1	4859.892	-76.78222	-1.978592E-008	0.0006291	7
	35	117	95.0169	1368.169	-5802.912	1	5962.019	-76.73349	-2.09321E-008	0.0006295	7
	36	120	75.60484	1715.921	-7116.45	1	7320.399	-76.44359	-2.086152E-008	0.0006289	7
	37	122	54.50582	2438.654	-9490.324	1	9798.64	-75.58894	-2.054972E-008	0.0006082	7
	38	125	45.95588	2958.655	-11004.61	1	11395.4	-74.95154	-2.134103E-008	0.0006402	7
	39	127	37.20238	3783.705	-13164.16	1	13697.14	-73.96404	-1.634243E-008	0.0006274	7
	40	130	30.04808	4896.745	-15731.23	1	16475.73	-72.70992	-2.033021E-008	0.0006191	7
	41	132	23.91582	6438.742	-18880.97	1	19948.64	-71.16972	-2.196843E-008	0.0006292	7
	42	134	18.60119	8741.486	-22941.07	1	24550.08	-69.14111	-1.324857E-008	0.0006436	7
	43	137	15.02404	11300.91	-26827.44	1	29110.51	-67.15701	-1.318931E-008	0.0006392	7
	44	139	12.01923	14706.14	-31258.84	1	34545.42	-64.80473	-2.546035E-008	0.0006241	7
	45	141	9.450605	19252.47	-36365.41	1	41147.31	-62.10249	-1.171885E-008	0.0006334	7
	46	144	7.512019	24586.07	-41521.87	1	48254.96	-59.36923	-6.572427E-009	0.0006927	6
	47	147	5.978954	30888.63	-46556.38	1	55871.32	-56.43703	-7.307188E-009	0.0006619	6
	48	150	4.734848	38292.29	-51703.27	1	64339.16	-53.47575	-2.590014E-009	0.0006893	6
	49	153	3.75601	46526.86	-56380.2	1	73099.08	-50.46939	-8.004253E-009	0.0006724	6
	50	156	3.004808	55142.19	-60405.37	1	81789.19	-47.60802	-2.969788E-009	0.0006591	6
	51	160	2.372217	64985.11	-64366.1	1	91466.16	-44.72581	-6.092681E-009	0.0006169	6
	52	164	1.878005	75039.48	-67162.14	1	100705.9	-41.82931	-4.146083E-009	0.0006808	6
	53	169	1.512097	84593.59	-69651.1	1	109578.1	-39.46673	-2.74585E-009	0.0005665	6
	54	174	1.201923	95245.6	-72335.01	1	119599.6	-37.21514	-4.692083E-009	0.0006933	6
	55	181	0.956633	106073.1	-74325.08	1	129521.1	-35.01881	-8.179745E-009	2.194171E-005	6
