EXPLAIN
TAG	EISPOT
TITLE	LABEL	Potentiostatic EIS	Test Identifier
DATE	LABEL	8/25/2020	Date
TIME	LABEL	12:56:13	Time
NOTES	NOTES	1	Notes...
	
PSTAT	PSTAT	REF3000-16137	Potentiostat
VDC	POTEN	0.00000E+000	T	DC Voltage (V)
FREQINIT	QUANT	3.00000E+005	Initial Freq. (Hz)
FREQFINAL	QUANT	1.00000E+000	Final Freq. (Hz)
PTSPERDEC	QUANT	1.00000E+001	Points/decade
VAC	QUANT	5.00000E+001	AC Voltage (mV rms)
AREA	QUANT	1.00000E+000	Sample Area (cm^2)
SPEED	SELECTOR	2	Optimize for:
ZGUESS	QUANT	1.00000E+003	Estimated Z (ohms)
EOC	QUANT	0	Open Circuit (V)
SEQUENCER	TOGGLE	TRUE	Run as Sequence
PSTATMODEL	IQUANT	5	Pstat Model
PSTATSECTION	LABEL	REF3000-16137	Pstat Section
PSTATSERIALNO	LABEL	16137	Pstat Serial Number
CTRLMODE	IQUANT	1	Control Mode
IESTAB	IQUANT	0	I/E Stability
CASPEED	IQUANT	1	Control Amp Speed
CONVENTION	IQUANT	1	Current Convention
ICHRANGE	IQUANT	2	Ich Range
ICHRANGEMODE	TOGGLE	F	Ich Auto Range
ICHOFFSETENABLE	TOGGLE	T	Ich Offset Enable
ICHOFFSET	QUANT	0	Ich Offset (V)
ICHFILTER	IQUANT	3	Ich Filter
VCHRANGE	IQUANT	2	Vch Range
VCHRANGEMODE	TOGGLE	F	Vch Auto Range
VCHOFFSETENABLE	TOGGLE	T	Vch Offset Enable
VCHOFFSET	QUANT	0	Vch Offset (V)
VCHFILTER	IQUANT	3	Vch Filter
ACHRANGE	IQUANT	2	Ach Range
ACHOFFSETENABLE	TOGGLE	F	Ach Offset Enable
ACHOFFSET	QUANT	0	Ach Offset (V)
ACHFILTER	IQUANT	3	Ach Filter
IERANGELOWERLIMIT	IQUANT	2	I/E Range Lower Limit
IERANGEMODE	TOGGLE	F	I/E AutoRange
IERANGE	IQUANT	11	I/E Range
POSFEEDENABLE	TOGGLE	F	Positive Feedback IR Comp
POSFEEDRESISTANCE	QUANT	0	Positive Feedback Resistance (ohm)
ACHSELECT	IQUANT	0	Ach Select
CABLEID	IQUANT	13	Cable ID
DCCALDATE	LABEL	7/31/2020	DC Calibration Date
ACCALDATE	LABEL	7/31/2020	AC Calibration Date
THERMOSELECT	IQUANT	1	Thermo Select
FRAMEWORKVERSION	QUANT	6.33	Framework Version
INSTRUMENTVERSION	LABEL	3.50	Instrument Version
COMPLIANCEVOLTAGE	IQUANT	0	Compliance Voltage
ZCURVE	TABLE
	Pt	Time	Freq	Zreal	Zimag	Zsig	Zmod	Zphz	Idc	Vdc	IERange
	#	s	Hz	ohm	ohm	V	ohm	°	A	V	#
	0	23	300046.9	1867.638	-941.7301	1	2091.633	-26.75888	4.921317E-005	-3.010795E-005	9
	1	36	238359.4	2046.378	-844.1385	1	2213.647	-22.41633	8.440981E-005	-0.0034776	9
	2	49	189328.1	2144.448	-770.8293	1	2278.78	-19.77115	7.790112E-005	-0.0016626	9
	3	55	150421.9	2292.692	-667.9922	1	2388.022	-16.24386	-2.068885E-005	0.0012823	9
	4	70	119484.4	2373.418	-589.5845	1	2445.552	-13.95056	5.018975E-005	0.0001777	9
	5	79	94921.88	2467.131	-454.8739	1	2508.714	-10.44652	6.417471E-006	-0.0066462	8
	6	84	75421.88	2517.643	-393.4935	1	2548.208	-8.883142	-1.006208E-005	0.0090253	8
	7	89	59859.37	2572.378	-401.8032	1	2603.57	-8.877812	-2.466954E-005	0.0010413	9
	8	96	47578.12	2625.464	-314.3114	1	2644.211	-6.826763	-2.37997E-005	0.0071523	8
	9	102	37828.12	2671.988	-325.3495	1	2691.723	-6.942337	-8.064579E-007	0.0007196	9
	10	108	30046.88	2710.881	-268.2635	1	2724.122	-5.651479	8.342765E-006	0.0034981	8
	11	114	23859.38	2762.396	-272.8661	1	2775.84	-5.641307	2.875799E-005	-0.0004487	9
	12	119	18984.38	2794.861	-255.9906	1	2806.56	-5.233309	2.161965E-005	-0.0028421	8
	13	125	15046.87	2839.414	-262.0316	1	2851.479	-5.272532	-1.566114E-005	4.852467E-005	9
	14	130	11953.13	2873.184	-248.8612	1	2883.941	-4.950327	-1.181374E-006	0.0068809	8
	15	135	9515.62	2916.564	-274.2309	1	2929.428	-5.371462	-2.129694E-006	-0.0042414	8
	16	141	7546.875	2963.172	-289.0182	1	2977.234	-5.570824	1.654555E-005	-0.000179	8
	17	146	5928.309	2991.291	-306.8766	1	3006.99	-5.857485	-1.52847E-005	0.0010428	8
	18	151	4733.456	3055.368	-362.8551	1	3076.839	-6.772717	2.327918E-005	-0.0081451	8
	19	157	3796.875	3097.285	-391.5255	1	3121.933	-7.204504	-2.282807E-005	0.0068759	8
	20	162	2987.132	3143.296	-441.6961	1	3174.177	-7.998832	1.968687E-005	-0.0086596	8
	21	167	2390.625	3197.864	-510.393	1	3238.338	-9.068172	2.483045E-005	-0.006866	8
	22	173	1884.191	3295.554	-580.6808	1	3346.321	-9.99302	1.97247E-005	-0.0086739	8
	23	178	1516.544	3329.771	-683.4675	1	3399.191	-11.5994	-1.00829E-005	0.0091636	8
	24	183	1193.986	3423.09	-778.4792	1	3510.495	-12.81229	-2.352646E-005	0.0004622	9
	25	189	946.5144	3461.808	-942.9946	1	3587.946	-15.23764	-2.701109E-005	0.0008992	9
	26	193	751.7689	3458.023	-1110.113	1	3631.842	-17.79794	2.166875E-005	-0.0028654	8
	27	197	597.4265	3619.854	-1289.226	1	3842.583	-19.60357	2.513983E-007	-0.0005123	9
	28	200	477.4305	3716.242	-1575.836	1	4036.548	-22.9789	-7.664281E-008	0.0005897	7
	29	203	376.6741	3815.361	-1907.806	1	4265.759	-26.56656	-7.639796E-008	0.0006379	7
	30	205	298.2954	3928.941	-2308.738	1	4557.065	-30.4395	-7.325208E-008	0.0005764	7
	31	207	237.7717	4058.1	-2783.773	1	4921.135	-34.44932	-7.449699E-008	0.0006228	7
	32	210	189.0121	4210.771	-3369.915	1	5393.229	-38.67057	-7.2457E-008	0.0005976	7
	33	212	150.2404	4388.585	-4085.51	1	5995.921	-42.95169	-8.011396E-008	0.0006317	7
	34	215	119.1737	4604.21	-4971.815	1	6776.26	-47.1984	-7.318654E-008	0.0006226	7
	35	217	95.0169	4849.798	-6029.565	1	7737.971	-51.18902	-7.376828E-008	0.000576	7
	36	219	75.60484	5153.165	-7339.994	1	8968.313	-54.92859	-7.841674E-008	0.0006511	7
	37	222	54.50582	5699.964	-9737.77	1	11283.34	-59.65761	-7.997075E-008	0.0006548	7
	38	225	45.95588	6066.416	-11300.71	1	12826.05	-61.77234	-7.440004E-008	0.0006279	7
	39	227	37.20238	6613.131	-13589.16	1	15112.87	-64.05025	-7.278692E-008	0.0005894	7
	40	229	30.04808	7309.13	-16373.57	1	17930.9	-65.9441	-7.285298E-008	0.0005835	7
	41	232	23.91582	8254.475	-19973.01	1	21611.51	-67.54559	-7.435163E-008	0.0005792	7
	42	234	18.60119	9618.36	-24831.88	1	26629.59	-68.82665	-6.979365E-008	0.000592	7
	43	236	15.02404	11163.06	-29864.4	1	31882.54	-69.50468	-8.339885E-008	0.0006391	7
	44	239	12.01923	13280.79	-36075.01	1	38441.98	-69.78912	-7.190518E-008	0.0005717	7
	45	241	9.450605	16248.36	-44141.87	1	47037.37	-69.79163	-7.541673E-009	0.0007081	6
	46	244	7.512019	19929.76	-53256.4	1	56863.34	-69.483	-8.445197E-009	0.0007224	6
	47	246	5.978954	24700.77	-63878.79	1	68488.16	-68.85941	-1.02088E-008	0.0006306	6
	48	249	4.734848	30940.77	-76599.27	1	82612.23	-68.00472	-8.153243E-009	0.0006272	6
	49	253	3.75601	38721.5	-91124.25	1	99010	-66.97787	-9.789819E-009	0.0006178	6
	50	256	3.004808	48041.69	-107014.9	1	117303.8	-65.82349	-8.456044E-009	0.0006849	6
	51	260	2.372217	60132.84	-126146.1	1	139745.5	-64.51324	-9.987839E-009	0.0006383	6
	52	264	1.878005	75046.79	-147475	1	165471.7	-63.02945	-9.766489E-009	0.0006627	6
	53	269	1.512097	91136.46	-169301.6	1	192273	-61.70605	-9.051096E-009	0.0005577	6
	54	274	1.201923	111037.8	-195461.2	1	224798.8	-60.39991	-9.916663E-009	0.0006834	6
	55	280	0.956633	133634.6	-224176.3	1	260985.1	-59.20025	-1.019924E-008	1.947432E-005	6
