EXPLAIN
TAG	EISPOT
TITLE	LABEL	Potentiostatic EIS	Test Identifier
DATE	LABEL	8/25/2020	Date
TIME	LABEL	14:02:59	Time
NOTES	NOTES	1	Notes...
	
PSTAT	PSTAT	REF3000-16137	Potentiostat
VDC	POTEN	0.00000E+000	T	DC Voltage (V)
FREQINIT	QUANT	3.00000E+005	Initial Freq. (Hz)
FREQFINAL	QUANT	1.00000E+000	Final Freq. (Hz)
PTSPERDEC	QUANT	1.00000E+001	Points/decade
VAC	QUANT	5.00000E+001	AC Voltage (mV rms)
AREA	QUANT	1.00000E+000	Sample Area (cm^2)
SPEED	SELECTOR	2	Optimize for:
ZGUESS	QUANT	1.00000E+003	Estimated Z (ohms)
EOC	QUANT	0	Open Circuit (V)
SEQUENCER	TOGGLE	TRUE	Run as Sequence
PSTATMODEL	IQUANT	5	Pstat Model
PSTATSECTION	LABEL	REF3000-16137	Pstat Section
PSTATSERIALNO	LABEL	16137	Pstat Serial Number
CTRLMODE	IQUANT	1	Control Mode
IESTAB	IQUANT	0	I/E Stability
CASPEED	IQUANT	1	Control Amp Speed
CONVENTION	IQUANT	1	Current Convention
ICHRANGE	IQUANT	2	Ich Range
ICHRANGEMODE	TOGGLE	F	Ich Auto Range
ICHOFFSETENABLE	TOGGLE	T	Ich Offset Enable
ICHOFFSET	QUANT	0	Ich Offset (V)
ICHFILTER	IQUANT	3	Ich Filter
VCHRANGE	IQUANT	2	Vch Range
VCHRANGEMODE	TOGGLE	F	Vch Auto Range
VCHOFFSETENABLE	TOGGLE	T	Vch Offset Enable
VCHOFFSET	QUANT	0	Vch Offset (V)
VCHFILTER	IQUANT	3	Vch Filter
ACHRANGE	IQUANT	2	Ach Range
ACHOFFSETENABLE	TOGGLE	F	Ach Offset Enable
ACHOFFSET	QUANT	0	Ach Offset (V)
ACHFILTER	IQUANT	3	Ach Filter
IERANGELOWERLIMIT	IQUANT	2	I/E Range Lower Limit
IERANGEMODE	TOGGLE	F	I/E AutoRange
IERANGE	IQUANT	11	I/E Range
POSFEEDENABLE	TOGGLE	F	Positive Feedback IR Comp
POSFEEDRESISTANCE	QUANT	0	Positive Feedback Resistance (ohm)
ACHSELECT	IQUANT	0	Ach Select
CABLEID	IQUANT	13	Cable ID
DCCALDATE	LABEL	7/31/2020	DC Calibration Date
ACCALDATE	LABEL	7/31/2020	AC Calibration Date
THERMOSELECT	IQUANT	1	Thermo Select
FRAMEWORKVERSION	QUANT	6.33	Framework Version
INSTRUMENTVERSION	LABEL	3.50	Instrument Version
COMPLIANCEVOLTAGE	IQUANT	0	Compliance Voltage
ZCURVE	TABLE
	Pt	Time	Freq	Zreal	Zimag	Zsig	Zmod	Zphz	Idc	Vdc	IERange
	#	s	Hz	ohm	ohm	V	ohm	°	A	V	#
	0	14	300046.9	-124.0353	-4713.672	1	4715.304	-91.50733	2.668027E-005	-0.0016907	9
	1	28	238359.4	123.8941	-5916.901	1	5918.198	-88.80046	-1.627484E-005	0.0017164	9
	2	43	189328.1	-36.09895	-7561.326	1	7561.412	-90.27354	-2.889937E-005	-0.0011163	9
	3	50	150421.9	191.3002	-9201.305	1	9203.293	-88.80896	-6.184205E-005	0.0005912	9
	4	58	119484.4	106.9499	-11658.36	1	11658.85	-89.4744	-6.115463E-005	0.0006543	9
	5	68	94921.88	66.50109	-14681.92	1	14682.07	-89.74049	3.01347E-005	-0.0007207	9
	6	76	75421.88	686.3707	-18048.36	1	18061.41	-87.82212	1.740885E-005	0.0003205	8
	7	85	59859.37	1383.784	-22672.13	1	22714.31	-86.50731	-2.067567E-005	0.0028323	8
	8	93	47578.12	229.1618	-28856.3	1	28857.21	-89.545	2.99498E-005	-0.0007179	9
	9	103	37828.12	319.5041	-35877.6	1	35879.02	-89.48977	-2.012644E-005	0.0114323	8
	10	112	30046.88	898.9756	-45910.1	1	45918.9	-88.87822	8.49858E-006	0.0042313	8
	11	120	23859.38	4516.966	-57720.21	1	57896.68	-85.52537	6.944387E-006	-0.0274261	7
	12	126	18984.38	5279.511	-71887.83	1	72081.43	-85.79968	-6.836493E-006	0.0122365	7
	13	131	15046.87	5934.598	-87943.4	1	88143.41	-86.13942	7.65803E-006	-0.0185988	7
	14	138	11953.13	3465.528	-112811.4	1	112864.6	-88.24045	7.72877E-006	-0.0247437	7
	15	144	9515.62	6286.309	-142162.8	1	142301.7	-87.46808	2.789033E-006	0.0087361	7
	16	150	7546.875	9396.715	-174921.7	1	175173.9	-86.92505	6.681067E-006	-0.0103723	7
	17	157	5928.309	9744.92	-239231.7	1	239430	-87.66739	3.506638E-006	-0.0248589	7
	18	163	4733.456	11725.57	-282936.8	1	283179.7	-87.62688	6.928396E-006	-0.0273747	7
	19	170	3796.875	-46922.04	-403352.4	1	406072.5	-96.6354	2.736685E-005	-0.0075436	8
	20	178	2987.132	248792.7	-520166.2	1	576602.8	-64.43846	1.625417E-005	-0.0093343	8
	21	187	2390.625	45255.65	-510616.6	1	512618.2	-84.93514	-7.381174E-006	0.0241466	7
	22	195	1884.191	-113334.7	-463416.7	1	477074.2	-103.7427	-2.423247E-005	0.005317	8
	23	202	1516.544	-62193.37	-866083.6	1	868313.8	-94.10735	6.92556E-006	-0.0274074	7
	24	210	1193.986	1207583	-779634	1	1437389	-32.8469	-6.593581E-006	0.0261624	7
	25	217	946.5144	134767.8	-745289	1	757375.8	-79.75018	-7.403592E-006	0.0190353	7
	26	221	751.7689	50998.46	-221667.6	1	227458.5	-77.04357	-2.05693E-005	0.0027677	8
	27	229	597.4265	-273976.2	50390.19	1	278571.6	169.5785	4.049249E-007	-0.0005299	9
	28	236	477.4305	335024.1	-2752105	1	2772422	-83.05932	-8.979968E-009	0.0006141	6
	29	239	376.6741	875483.7	-3534665	1	3641473	-76.08866	-1.103033E-009	0.0006684	5
	30	243	298.2954	1085843	-4369120	1	4502029	-76.04324	-9.791282E-010	0.0005996	5
	31	248	237.7717	1336523	-5311746	1	5477311	-75.87663	-1.052887E-009	0.0006801	5
	32	250	189.0121	1942304	-6605940	1	6885564	-73.6154	-1.010382E-009	0.0006807	5
	33	253	150.2404	2735889	-7864914	1	8327182	-70.81926	-1.058457E-009	0.0007219	5
	34	256	119.1737	2785366	-1.390728E+007	1	1.418346E+007	-78.67458	-1.114918E-009	0.0006692	5
	35	259	95.0169	5195632	-1.142477E+007	1	1.255069E+007	-65.54542	-1.009333E-009	0.0006897	5
	36	262	75.60484	6938738	-1.285678E+007	1	1.460969E+007	-61.6445	-1.060996E-009	0.0006747	5
	37	264	54.50582	1.116949E+007	-1.530839E+007	1	1.895005E+007	-53.88433	-1.046898E-009	0.0006801	5
	38	268	45.95588	1.566014E+007	-1.752323E+007	1	2.350113E+007	-48.21352	-1.431622E-010	0.0006339	4
	39	270	37.20238	2.022042E+007	-1.810415E+007	1	2.714085E+007	-41.83935	-1.446361E-010	0.0006244	4
	40	273	30.04808	2.058342E+007	-1.872506E+007	1	2.782634E+007	-42.29328	-1.076572E-009	0.000667	5
	41	277	23.91582	2.580112E+007	-2.051881E+007	1	3.296542E+007	-38.49411	-1.031306E-009	0.0007172	5
	42	281	18.60119	2.584271E+007	-1.450266E+007	1	2.963398E+007	-29.30069	-1.16753E-009	0.0006774	5
	43	284	15.02404	3.224576E+007	-1.676896E+007	1	3.634539E+007	-27.47606	-9.760084E-010	0.0005822	5
	44	288	12.01923	3.509512E+007	-1.573267E+007	1	3.846016E+007	-24.14605	-1.073375E-009	0.0006755	5
	45	292	9.450605	3.936325E+007	-1.287523E+007	1	4.141542E+007	-18.11228	-1.016655E-010	0.0006926	4
	46	296	7.512019	4.08599E+007	-1.157076E+007	1	4.246662E+007	-15.81112	-1.147351E-010	0.0007154	4
	47	300	5.978954	4.321892E+007	-1.064962E+007	1	4.451168E+007	-13.84254	-9.89797E-011	0.0006034	4
	48	306	4.734848	4.985918E+007	-4532064	1	5.006474E+007	-5.193758	-1.334035E-011	0.0006914	3
	49	311	3.75601	5.078152E+007	-4276935	1	5.096131E+007	-4.814219	-1.137156E-011	0.0006971	3
	50	316	3.004808	5.228475E+007	-4264247	1	5.245835E+007	-4.662618	-1.903685E-011	0.000751	3
	51	323	2.372217	5.372185E+007	-4250956	1	5.388977E+007	-4.524331	-1.489369E-011	0.0006527	3
	52	327	1.878005	5.515753E+007	-4429319	1	5.533509E+007	-4.591175	-6.521405E-012	0.0007189	3
	53	331	1.512097	5.687205E+007	-4640615	1	5.706106E+007	-4.664855	-5.529128E-012	0.0007207	3
	54	337	1.201923	5.891706E+007	-5016397	1	5.913023E+007	-4.866618	-8.979082E-012	0.000731	3
	55	343	0.956633	6.134659E+007	-5403426	1	6.15841E+007	-5.033639	-3.802246E-011	7.78011E-005	3
