EXPLAIN
TAG	EISPOT
TITLE	LABEL	Potentiostatic EIS	Test Identifier
DATE	LABEL	10/12/2021	Date
TIME	LABEL	19:37:39	Time
NOTES	NOTES	1	Notes...
	
PSTAT	PSTAT	REF3000-16137	Potentiostat
VDC	POTEN	0.00000E+000	T	DC Voltage (V)
FREQINIT	QUANT	3.00000E+005	Initial Freq. (Hz)
FREQFINAL	QUANT	1.00000E+000	Final Freq. (Hz)
PTSPERDEC	QUANT	1.00000E+001	Points/decade
VAC	QUANT	5.00000E+001	AC Voltage (mV rms)
AREA	QUANT	1.00000E+000	Sample Area (cm^2)
SPEED	SELECTOR	2	Optimize for:
ZGUESS	QUANT	1.00000E+003	Estimated Z (ohms)
EOC	QUANT	0	Open Circuit (V)
SEQUENCER	TOGGLE	TRUE	Run as Sequence
PSTATMODEL	IQUANT	5	Pstat Model
PSTATSECTION	LABEL	REF3000-16137	Pstat Section
PSTATSERIALNO	LABEL	16137	Pstat Serial Number
CTRLMODE	IQUANT	1	Control Mode
IESTAB	IQUANT	0	I/E Stability
CASPEED	IQUANT	1	Control Amp Speed
CONVENTION	IQUANT	1	Current Convention
ICHRANGE	IQUANT	2	Ich Range
ICHRANGEMODE	TOGGLE	F	Ich Auto Range
ICHOFFSETENABLE	TOGGLE	T	Ich Offset Enable
ICHOFFSET	QUANT	0	Ich Offset (V)
ICHFILTER	IQUANT	3	Ich Filter
VCHRANGE	IQUANT	2	Vch Range
VCHRANGEMODE	TOGGLE	F	Vch Auto Range
VCHOFFSETENABLE	TOGGLE	T	Vch Offset Enable
VCHOFFSET	QUANT	0	Vch Offset (V)
VCHFILTER	IQUANT	3	Vch Filter
ACHRANGE	IQUANT	2	Ach Range
ACHOFFSETENABLE	TOGGLE	F	Ach Offset Enable
ACHOFFSET	QUANT	0	Ach Offset (V)
ACHFILTER	IQUANT	3	Ach Filter
IERANGELOWERLIMIT	IQUANT	2	I/E Range Lower Limit
IERANGEMODE	TOGGLE	F	I/E AutoRange
IERANGE	IQUANT	11	I/E Range
POSFEEDENABLE	TOGGLE	F	Positive Feedback IR Comp
POSFEEDRESISTANCE	QUANT	0	Positive Feedback Resistance (ohm)
ACHSELECT	IQUANT	0	Ach Select
CABLEID	IQUANT	13	Cable ID
DCCALDATE	LABEL	9/10/2021	DC Calibration Date
ACCALDATE	LABEL	9/10/2021	AC Calibration Date
THERMOSELECT	IQUANT	1	Thermo Select
FRAMEWORKVERSION	QUANT	6.33	Framework Version
INSTRUMENTVERSION	LABEL	3.50	Instrument Version
COMPLIANCEVOLTAGE	IQUANT	0	Compliance Voltage
ZCURVE	TABLE
	Pt	Time	Freq	Zreal	Zimag	Zsig	Zmod	Zphz	Idc	Vdc	IERange
	#	s	Hz	ohm	ohm	V	ohm	°	A	V	#
	0	6	300046.9	40.58588	1.324934	1	40.6075	1.869768	4.813664E-005	-0.002626	9
	1	10	238359.4	41.00792	0.8581182	1	41.0169	1.198777	-4.120735E-005	0.0001187	9
	2	13	189328.1	41.33937	0.4323903	1	41.34164	0.5992649	-6.467893E-006	4.72713E-005	9
	3	15	150421.9	41.65412	0.0919511	1	41.65422	0.1264797	4.592024E-005	-0.0021987	9
	4	18	119484.4	41.98928	-0.1936286	1	41.98973	-0.2642109	1.684506E-006	0.0003807	9
	5	20	94921.88	42.377	-0.3784683	1	42.37869	-0.5116941	-1.230091E-005	-5.63989E-007	9
	6	23	75421.88	42.70715	-0.6461748	1	42.71204	-0.8668399	8.067623E-006	-0.000251	9
	7	25	59859.37	43.05161	-0.9176139	1	43.06139	-1.221033	-1.485776E-006	0.0001576	9
	8	28	47578.12	43.4047	-1.173033	1	43.42055	-1.54807	-2.571233E-006	0.0002344	9
	9	30	37828.12	43.79474	-1.432613	1	43.81817	-1.87359	1.236197E-005	-0.0007274	9
	10	33	30046.88	44.21962	-1.724909	1	44.25325	-2.233848	1.651577E-005	-0.000492	9
	11	36	23859.38	44.65816	-2.011749	1	44.70345	-2.579302	8.273046E-006	-0.0006525	9
	12	38	18984.38	45.11674	-2.319087	1	45.1763	-2.942523	1.855393E-005	-0.0005742	9
	13	40	15046.87	45.59326	-2.658917	1	45.67073	-3.337606	1.088128E-005	-0.0001569	9
	14	42	11953.13	46.12054	-3.019691	1	46.2193	-3.746031	1.6452E-005	-0.0007198	9
	15	45	9515.62	46.6869	-3.454353	1	46.81452	-4.231591	-4.476305E-006	-0.0003087	9
	16	47	7546.875	47.28011	-3.935997	1	47.44366	-4.758813	-1.792459E-005	0.0004458	9
	17	49	5928.309	47.97567	-4.484016	1	48.18476	-5.339602	-4.385444E-006	-0.0002948	9
	18	52	4733.456	48.66713	-5.094409	1	48.93304	-5.975881	-1.555532E-005	0.0004073	9
	19	54	3796.875	49.38151	-5.763376	1	49.71669	-6.656943	-1.283632E-005	9.521626E-006	9
	20	56	2987.132	50.23293	-6.602638	1	50.66499	-7.488057	-9.825781E-006	-0.0000993	9
	21	59	2390.625	51.06342	-7.534105	1	51.61623	-8.393099	8.792709E-006	-0.0001748	9
	22	61	1884.191	51.99799	-8.681558	1	52.71775	-9.478644	-1.454383E-005	0.0000985	9
	23	63	1516.544	52.95848	-9.92643	1	53.88074	-10.61623	1.000653E-005	-0.0001662	9
	24	66	1193.986	53.99155	-11.52385	1	55.20767	-12.04831	9.901016E-006	-0.0001638	9
	25	68	946.5144	55.08661	-13.43063	1	56.70023	-13.70193	-1.595784E-005	0.0002658	9
	26	71	751.7689	56.23407	-15.7677	1	58.40283	-15.66318	-1.679807E-005	0.0003465	9
	27	73	597.4265	57.4132	-18.58032	1	60.34488	-17.93285	8.128637E-006	-0.000655	9
	28	75	477.4305	58.70041	-21.99011	1	62.68415	-20.53675	4.947199E-007	-0.00013	9
	29	77	376.6741	60.08591	-26.38746	1	65.6248	-23.70927	5.064364E-007	-0.0001365	9
	30	80	298.2954	61.56473	-31.77073	1	69.27911	-27.29618	4.37257E-007	-0.0001281	9
	31	82	237.7717	63.13869	-38.24958	1	73.8209	-31.20758	4.363192E-007	-0.0001337	9
	32	85	189.0121	64.88197	-46.36224	1	79.74414	-35.54819	4.353584E-007	-0.0001327	9
	33	87	150.2404	66.81753	-56.42429	1	87.45446	-40.17953	4.892216E-007	-0.0001335	9
	34	90	119.1737	68.9967	-69.03297	1	97.6017	-45.01506	3.847664E-007	-0.0001361	9
	35	92	95.0169	71.42793	-84.32864	1	110.5136	-49.73478	4.052767E-007	-0.0001312	9
	36	94	75.60484	74.25382	-103.4608	1	127.349	-54.333	4.178185E-007	-0.0001377	9
	37	97	54.50582	78.99656	-139.1071	1	159.9727	-60.4085	5.247824E-007	-0.0001396	9
	38	100	45.95588	82.12112	-162.5912	1	182.1531	-63.20269	4.393014E-007	-0.0001353	9
	39	102	37.20238	86.54433	-197.4025	1	215.5404	-66.32661	4.232279E-007	-0.0001343	9
	40	104	30.04808	91.9257	-240.4186	1	257.3936	-69.0753	4.790502E-007	-0.000132	9
	41	107	23.91582	98.9784	-297.0508	1	313.1069	-71.57174	4.027071E-007	-0.0001318	9
	42	109	18.60119	108.7315	-375.1744	1	390.6128	-73.83758	5.115174E-007	-0.0001318	9
	43	111	15.02404	118.8049	-455.6479	1	470.8817	-75.38617	3.115469E-007	-0.0001181	8
	44	114	12.01923	132.8578	-560.8531	1	576.3744	-76.67313	3.346197E-007	-0.0001248	8
	45	116	9.450605	152.4821	-701.4739	1	717.8554	-77.73618	3.36055E-007	-0.0001135	8
	46	119	7.512019	176.639	-867.8861	1	885.6792	-78.49584	3.70456E-007	-0.0001096	8
	47	121	5.978954	208.2172	-1071.952	1	1091.986	-79.00768	3.442123E-007	-0.0001256	8
	48	124	4.734848	250.0924	-1329.319	1	1352.641	-79.34517	3.938229E-007	-0.0001011	8
	49	128	3.75601	305.425	-1643.013	1	1671.16	-79.46931	3.328046E-007	-0.0001453	8
	50	131	3.004808	375.2327	-2011.954	1	2046.646	-79.43562	3.552423E-007	-9.259269E-005	8
	51	135	2.372217	468.2726	-2493.234	1	2536.828	-79.36279	3.458367E-007	-4.822333E-005	8
	52	139	1.878005	590.7454	-3074.031	1	3130.28	-79.12193	3.544684E-007	-0.0001448	8
	53	144	1.512097	732.3345	-3730.606	1	3801.807	-78.89381	3.548437E-007	-1.814287E-005	8
	54	149	1.201923	924.6447	-4586.521	1	4678.798	-78.60192	5.903756E-008	-0.0001195	7
	55	156	0.956633	1161.271	-5610.277	1	5729.202	-78.3055	2.370133E-008	-0.0006548	7
