EXPLAIN
TAG	EISPOT
TITLE	LABEL	Potentiostatic EIS	Test Identifier
DATE	LABEL	10/12/2021	Date
TIME	LABEL	18:15:24	Time
NOTES	NOTES	1	Notes...
	
PSTAT	PSTAT	REF3000-16137	Potentiostat
VDC	POTEN	0.00000E+000	T	DC Voltage (V)
FREQINIT	QUANT	3.00000E+005	Initial Freq. (Hz)
FREQFINAL	QUANT	1.00000E+000	Final Freq. (Hz)
PTSPERDEC	QUANT	1.00000E+001	Points/decade
VAC	QUANT	5.00000E+001	AC Voltage (mV rms)
AREA	QUANT	1.00000E+000	Sample Area (cm^2)
SPEED	SELECTOR	2	Optimize for:
ZGUESS	QUANT	1.00000E+003	Estimated Z (ohms)
EOC	QUANT	0	Open Circuit (V)
SEQUENCER	TOGGLE	TRUE	Run as Sequence
PSTATMODEL	IQUANT	5	Pstat Model
PSTATSECTION	LABEL	REF3000-16137	Pstat Section
PSTATSERIALNO	LABEL	16137	Pstat Serial Number
CTRLMODE	IQUANT	1	Control Mode
IESTAB	IQUANT	0	I/E Stability
CASPEED	IQUANT	1	Control Amp Speed
CONVENTION	IQUANT	1	Current Convention
ICHRANGE	IQUANT	2	Ich Range
ICHRANGEMODE	TOGGLE	F	Ich Auto Range
ICHOFFSETENABLE	TOGGLE	T	Ich Offset Enable
ICHOFFSET	QUANT	0	Ich Offset (V)
ICHFILTER	IQUANT	3	Ich Filter
VCHRANGE	IQUANT	2	Vch Range
VCHRANGEMODE	TOGGLE	F	Vch Auto Range
VCHOFFSETENABLE	TOGGLE	T	Vch Offset Enable
VCHOFFSET	QUANT	0	Vch Offset (V)
VCHFILTER	IQUANT	3	Vch Filter
ACHRANGE	IQUANT	2	Ach Range
ACHOFFSETENABLE	TOGGLE	F	Ach Offset Enable
ACHOFFSET	QUANT	0	Ach Offset (V)
ACHFILTER	IQUANT	3	Ach Filter
IERANGELOWERLIMIT	IQUANT	2	I/E Range Lower Limit
IERANGEMODE	TOGGLE	F	I/E AutoRange
IERANGE	IQUANT	11	I/E Range
POSFEEDENABLE	TOGGLE	F	Positive Feedback IR Comp
POSFEEDRESISTANCE	QUANT	0	Positive Feedback Resistance (ohm)
ACHSELECT	IQUANT	0	Ach Select
CABLEID	IQUANT	13	Cable ID
DCCALDATE	LABEL	9/10/2021	DC Calibration Date
ACCALDATE	LABEL	9/10/2021	AC Calibration Date
THERMOSELECT	IQUANT	1	Thermo Select
FRAMEWORKVERSION	QUANT	6.33	Framework Version
INSTRUMENTVERSION	LABEL	3.50	Instrument Version
COMPLIANCEVOLTAGE	IQUANT	0	Compliance Voltage
ZCURVE	TABLE
	Pt	Time	Freq	Zreal	Zimag	Zsig	Zmod	Zphz	Idc	Vdc	IERange
	#	s	Hz	ohm	ohm	V	ohm	°	A	V	#
	0	10	300046.9	1.814017	2.386554	1	2.997715	52.76157	-5.862307E-005	-0.0006618	11
	1	14	238359.4	1.769377	1.891499	1	2.59007	46.9106	3.498833E-005	-0.0003405	11
	2	18	189328.1	1.833807	1.370945	1	2.289616	36.7816	-9.399445E-005	-0.0008683	12
	3	22	150421.9	1.729768	1.180628	1	2.094273	34.31492	-9.148996E-005	-0.0001267	11
	4	25	119484.4	1.713549	0.9131352	1	1.941666	28.05276	-0.0001586	-0.0001347	11
	5	27	94921.88	1.705252	0.6934628	1	1.840862	22.12976	-1.983413E-005	0.0001228	11
	6	30	75421.88	1.701342	0.5147625	1	1.777511	16.83385	-5.32027E-005	0.0001618	11
	7	32	59859.37	1.699718	0.3615164	1	1.737738	12.00743	-5.481172E-005	0.0002244	11
	8	35	47578.12	1.699525	0.2284934	1	1.714816	7.657241	-2.37792E-005	0.0002837	11
	9	37	37828.12	1.701702	0.1094014	1	1.705215	3.678447	-5.681942E-005	0.0002968	11
	10	40	30046.88	1.705592	-0.0039363	1	1.705597	-0.1322315	-7.392756E-005	0.0003169	11
	11	42	23859.38	1.711838	-0.1160901	1	1.715769	-3.879635	-7.382212E-005	0.000346	11
	12	45	18984.38	1.719023	-0.2319627	1	1.734603	-7.684998	-7.324399E-005	0.0003537	11
	13	47	15046.87	1.729479	-0.3595851	1	1.766465	-11.74533	-2.118575E-005	0.0003831	11
	14	49	11953.13	1.743003	-0.5023191	1	1.813942	-16.07655	-6.069824E-006	0.0003838	11
	15	52	9515.62	1.760938	-0.6662681	1	1.882768	-20.72463	-8.016534E-005	0.00034	11
	16	54	7546.875	1.785231	-0.863227	1	1.98298	-25.80553	-6.17527E-005	0.0003452	11
	17	56	5928.309	1.819614	-1.111147	1	2.132052	-31.41032	-8.565698E-005	0.0003565	11
	18	59	4733.456	1.861647	-1.391778	1	2.324387	-36.78199	-7.836075E-005	0.0003502	11
	19	61	3796.875	1.915994	-1.724358	1	2.577682	-41.98661	-9.407823E-005	0.0003448	11
	20	63	2987.132	1.997099	-2.167112	1	2.946995	-47.33792	-1.864432E-005	0.0003845	11
	21	65	2390.625	2.101159	-2.671132	1	3.398502	-51.81079	-5.544233E-005	0.0003796	11
	22	68	1884.191	2.250233	-3.331399	1	4.02017	-55.96247	-2.355573E-005	0.000396	11
	23	70	1516.544	2.442196	-4.069902	1	4.746412	-59.03361	-2.013537E-005	-0.0001199	10
	24	72	1193.986	2.734744	-5.052587	1	5.745212	-61.57526	1.65603E-005	-0.0001422	10
	25	75	946.5144	3.138283	-6.213356	1	6.960935	-63.20227	-1.709785E-005	-0.0001127	10
	26	77	751.7689	3.700838	-7.586024	1	8.440614	-63.99459	1.837963E-005	-0.0001414	10
	27	80	597.4265	4.49417	-9.201938	1	10.24076	-63.9694	1.575338E-005	-0.0001516	10
	28	82	477.4305	5.554978	-11.01787	1	12.33901	-63.24372	7.247034E-007	-0.0001135	10
	29	84	376.6741	7.084702	-13.16244	1	14.948	-61.70857	1.020692E-006	-0.0001242	10
	30	86	298.2954	9.098797	-15.44239	1	17.9236	-59.49302	7.012628E-007	-0.0001175	10
	31	89	237.7717	11.61734	-17.71175	1	21.1818	-56.73866	1.843415E-006	-0.0001215	10
	32	91	189.0121	14.76915	-19.9182	1	24.79642	-53.44344	1.853726E-006	-0.0001166	10
	33	94	150.2404	18.50365	-21.86055	1	28.64033	-49.75409	2.378086E-006	-0.0001141	10
	34	96	119.1737	22.75226	-23.38286	1	32.62551	-45.7831	2.167718E-006	-0.0001151	10
	35	98	95.0169	27.20957	-24.3337	1	36.50328	-41.80648	4.20926E-006	-0.0001166	10
	36	101	75.60484	31.75796	-24.6945	1	40.22918	-37.86809	3.644073E-006	-0.0001338	9
	37	104	54.50582	38.10324	-24.35421	1	45.22151	-32.58524	4.615395E-006	-0.0001361	9
	38	106	45.95588	41.21613	-23.876	1	47.63226	-30.08319	7.984417E-006	-0.0001301	9
	39	108	37.20238	44.75217	-23.11459	1	50.36905	-27.31645	8.675514E-006	-0.0001357	9
	40	111	30.04808	48.04884	-22.25145	1	52.95109	-24.84888	4.83256E-006	-0.0001312	9
	41	113	23.91582	51.25693	-21.33516	1	55.51993	-22.59901	6.308072E-006	-0.0001317	9
	42	116	18.60119	54.42009	-20.4965	1	58.15198	-20.63812	1.299401E-005	-0.0001372	9
	43	118	15.02404	56.98808	-19.84625	1	60.34496	-19.20081	1.286381E-005	-0.000128	9
	44	120	12.01923	59.49641	-19.43878	1	62.59145	-18.09335	-5.564553E-007	-0.0001333	9
	45	123	9.450605	62.05907	-19.18208	1	64.95599	-17.17606	1.018984E-005	-0.0001402	9
	46	125	7.512019	64.53959	-19.21775	1	67.34003	-16.58178	6.497661E-006	-0.0001414	9
	47	128	5.978954	66.98598	-19.4492	1	69.75237	-16.19051	7.27181E-006	-0.0001338	9
	48	131	4.734848	69.67654	-19.97293	1	72.48268	-15.99506	-1.753078E-006	-0.0001526	9
	49	134	3.75601	72.33711	-20.68745	1	75.23714	-15.95982	1.137029E-005	-0.0001148	9
	50	138	3.004808	75.07151	-21.44158	1	78.07351	-15.94016	4.250831E-006	-0.0001134	9
	51	141	2.372217	78.15944	-22.62029	1	81.36692	-16.14108	8.446868E-006	-0.0001588	9
	52	146	1.878005	81.57381	-24.04426	1	85.04359	-16.42313	1.046049E-005	-0.000136	9
	53	150	1.512097	84.68523	-25.41399	1	88.4164	-16.70447	8.649677E-006	-0.0001177	9
	54	156	1.201923	88.27277	-27.32167	1	92.4043	-17.19803	7.550578E-006	-0.000118	9
	55	162	0.956633	92.32303	-29.37889	1	96.8848	-17.65203	-7.019465E-006	-0.0006736	9
