EXPLAIN
TAG	EISPOT
TITLE	LABEL	Potentiostatic EIS	Test Identifier
DATE	LABEL	10/12/2021	Date
TIME	LABEL	19:32:05	Time
NOTES	NOTES	1	Notes...
	
PSTAT	PSTAT	REF3000-16137	Potentiostat
VDC	POTEN	0.00000E+000	T	DC Voltage (V)
FREQINIT	QUANT	3.00000E+005	Initial Freq. (Hz)
FREQFINAL	QUANT	1.00000E+000	Final Freq. (Hz)
PTSPERDEC	QUANT	1.00000E+001	Points/decade
VAC	QUANT	5.00000E+001	AC Voltage (mV rms)
AREA	QUANT	1.00000E+000	Sample Area (cm^2)
SPEED	SELECTOR	2	Optimize for:
ZGUESS	QUANT	1.00000E+003	Estimated Z (ohms)
EOC	QUANT	0	Open Circuit (V)
SEQUENCER	TOGGLE	TRUE	Run as Sequence
PSTATMODEL	IQUANT	5	Pstat Model
PSTATSECTION	LABEL	REF3000-16137	Pstat Section
PSTATSERIALNO	LABEL	16137	Pstat Serial Number
CTRLMODE	IQUANT	1	Control Mode
IESTAB	IQUANT	0	I/E Stability
CASPEED	IQUANT	1	Control Amp Speed
CONVENTION	IQUANT	1	Current Convention
ICHRANGE	IQUANT	2	Ich Range
ICHRANGEMODE	TOGGLE	F	Ich Auto Range
ICHOFFSETENABLE	TOGGLE	T	Ich Offset Enable
ICHOFFSET	QUANT	0	Ich Offset (V)
ICHFILTER	IQUANT	3	Ich Filter
VCHRANGE	IQUANT	2	Vch Range
VCHRANGEMODE	TOGGLE	F	Vch Auto Range
VCHOFFSETENABLE	TOGGLE	T	Vch Offset Enable
VCHOFFSET	QUANT	0	Vch Offset (V)
VCHFILTER	IQUANT	3	Vch Filter
ACHRANGE	IQUANT	2	Ach Range
ACHOFFSETENABLE	TOGGLE	F	Ach Offset Enable
ACHOFFSET	QUANT	0	Ach Offset (V)
ACHFILTER	IQUANT	3	Ach Filter
IERANGELOWERLIMIT	IQUANT	2	I/E Range Lower Limit
IERANGEMODE	TOGGLE	F	I/E AutoRange
IERANGE	IQUANT	11	I/E Range
POSFEEDENABLE	TOGGLE	F	Positive Feedback IR Comp
POSFEEDRESISTANCE	QUANT	0	Positive Feedback Resistance (ohm)
ACHSELECT	IQUANT	0	Ach Select
CABLEID	IQUANT	13	Cable ID
DCCALDATE	LABEL	9/10/2021	DC Calibration Date
ACCALDATE	LABEL	9/10/2021	AC Calibration Date
THERMOSELECT	IQUANT	1	Thermo Select
FRAMEWORKVERSION	QUANT	6.33	Framework Version
INSTRUMENTVERSION	LABEL	3.50	Instrument Version
COMPLIANCEVOLTAGE	IQUANT	0	Compliance Voltage
ZCURVE	TABLE
	Pt	Time	Freq	Zreal	Zimag	Zsig	Zmod	Zphz	Idc	Vdc	IERange
	#	s	Hz	ohm	ohm	V	ohm	°	A	V	#
	0	9	300046.9	21.33813	1.782685	1	21.41247	4.77566	2.131854E-005	-0.0004864	10
	1	13	238359.4	21.45938	1.348515	1	21.50171	3.595757	-0.0001093	-0.0004267	10
	2	16	189328.1	21.57845	0.970401	1	21.60026	2.574906	-3.579496E-005	-0.0004016	10
	3	18	150421.9	21.77171	0.669583	1	21.782	1.761561	2.109935E-005	-0.0002327	10
	4	21	119484.4	21.89127	0.3674004	1	21.89435	0.961503	6.796158E-005	-0.0002766	10
	5	23	94921.88	22.0427	0.1028949	1	22.04294	0.2674536	2.268783E-005	-0.000217	10
	6	26	75421.88	22.21529	-0.1171927	1	22.2156	-0.3022507	1.588413E-005	-0.0002011	10
	7	28	59859.37	22.39507	-0.3173793	1	22.39732	-0.811932	2.840925E-005	-0.0001365	10
	8	31	47578.12	22.58455	-0.5111972	1	22.59034	-1.296658	1.596377E-005	-0.0001889	10
	9	34	37828.12	22.78754	-0.6990744	1	22.79827	-1.757164	-4.369339E-006	-0.000158	10
	10	36	30046.88	23.00325	-0.9014488	1	23.02091	-2.244152	-1.650313E-005	-0.0001724	10
	11	39	23859.38	23.22338	-1.109588	1	23.24987	-2.735451	6.311826E-006	-0.0001612	10
	12	41	18984.38	23.46474	-1.331958	1	23.50252	-3.248864	1.812805E-005	-0.0001685	10
	13	43	15046.87	23.72408	-1.582444	1	23.7768	-3.816091	-1.640508E-005	-0.0001386	10
	14	46	11953.13	24.00963	-1.862417	1	24.08175	-4.435528	-2.893778E-005	-0.0001278	10
	15	48	9515.62	24.30445	-2.17652	1	24.40171	-5.117319	-1.5305E-005	-0.000138	10
	16	50	7546.875	24.62766	-2.544288	1	24.75874	-5.898313	-2.097308E-006	-0.0001572	10
	17	52	5928.309	24.98805	-2.98869	1	25.16615	-6.820448	8.286075E-006	-0.0001255	10
	18	55	4733.456	25.35986	-3.46576	1	25.59559	-7.782016	2.320478E-005	-0.0001369	10
	19	57	3796.875	25.75977	-4.030236	1	26.07314	-8.892107	-3.087896E-005	-0.0001222	10
	20	59	2987.132	26.20469	-4.73971	1	26.62988	-10.25239	-2.814201E-006	-0.0001155	10
	21	62	2390.625	26.66787	-5.538616	1	27.23696	-11.73289	-4.866768E-006	-0.0001571	10
	22	64	1884.191	27.17965	-6.556861	1	27.95936	-13.56298	6.886251E-006	-0.0001726	10
	23	66	1516.544	27.70745	-7.682522	1	28.75281	-15.49725	-2.762796E-005	-0.0001019	10
	24	69	1193.986	28.31916	-9.184888	1	29.77142	-17.96968	-2.542674E-005	-0.000111	10
	25	71	946.5144	28.95973	-10.9933	1	30.9761	-20.78708	-2.749813E-005	-0.0001259	10
	26	74	751.7689	29.63386	-13.17404	1	32.43025	-23.96803	-2.554365E-005	-0.0001109	10
	27	76	597.4265	30.36354	-15.86279	1	34.25745	-27.58388	1.743564E-005	-0.0001368	10
	28	78	477.4305	31.17347	-19.09615	1	36.55746	-31.49067	-1.647203E-006	-0.0001199	10
	29	81	376.6741	32.03426	-23.28267	1	39.60148	-36.00986	3.142684E-007	-0.0001404	9
	30	83	298.2954	33.02276	-28.4418	1	43.58255	-40.73763	3.226913E-007	-0.0001366	9
	31	85	237.7717	34.10888	-34.66246	1	48.63026	-45.4612	3.708761E-007	-0.0001373	9
	32	88	189.0121	35.34927	-42.45867	1	55.24771	-50.22068	3.117406E-007	-0.0001327	9
	33	90	150.2404	36.77574	-52.13889	1	63.80375	-54.80308	3.091001E-007	-0.000135	9
	34	93	119.1737	38.44844	-64.28174	1	74.90277	-59.11535	3.095844E-007	-0.0001338	9
	35	95	95.0169	40.38118	-79.02196	1	88.74181	-62.93242	2.916822E-007	-0.0001295	9
	36	97	75.60484	42.71534	-97.4616	1	106.4113	-66.33318	3.257984E-007	-0.0001346	9
	37	100	54.50582	46.88023	-131.8384	1	139.9254	-70.4252	2.339845E-007	-0.0001348	9
	38	102	45.95588	49.71336	-154.4711	1	162.2736	-72.16029	2.922031E-007	-0.0001304	9
	39	105	37.20238	53.88282	-187.982	1	195.552	-74.00568	3.041932E-007	-0.0001288	9
	40	107	30.04808	59.11734	-229.3446	1	236.8413	-75.54572	3.53084E-007	-0.0001346	9
	41	110	23.91582	66.25039	-283.7788	1	291.4096	-76.85921	3.049652E-007	-0.0001335	9
	42	112	18.60119	76.45621	-358.5951	1	366.6552	-77.96416	2.788807E-007	-0.0001317	9
	43	114	15.02404	87.45276	-435.552	1	444.2449	-78.64677	3.658776E-007	-0.0001258	8
	44	117	12.01923	102.8159	-535.5679	1	545.3477	-79.13284	4.60274E-007	-0.0001196	8
	45	119	9.450605	124.4629	-668.77	1	680.2532	-79.45745	4.484388E-007	-0.0001275	8
	46	122	7.512019	152.2222	-825.5958	1	839.5118	-79.55322	4.646612E-007	-0.0001038	8
	47	124	5.978954	187.7562	-1016.593	1	1033.786	-79.53587	4.746574E-007	-0.0001262	8
	48	127	4.734848	236.2607	-1255.552	1	1277.587	-79.34311	4.537251E-007	-0.0001018	8
	49	131	3.75601	297.6108	-1546.069	1	1574.453	-79.10412	4.488306E-007	-0.0001187	8
	50	134	3.004808	373.8132	-1884.885	1	1921.595	-78.78257	4.290682E-007	-8.802225E-005	8
	51	138	2.372217	475.2101	-2323.089	1	2371.196	-78.43909	4.420923E-007	-5.863311E-005	8
	52	142	1.878005	609.6914	-2853.25	1	2917.663	-77.93826	4.553191E-007	-0.0001435	8
	53	147	1.512097	767.4025	-3448.775	1	3533.122	-77.45523	4.520752E-007	-1.498994E-005	8
	54	152	1.201923	978.185	-4215.91	1	4327.902	-76.93723	4.650475E-007	-0.0001517	8
	55	158	0.956633	1251.749	-5150.19	1	5300.125	-76.3392	3.414108E-008	-0.0006513	7
