EXPLAIN
TAG	EISPOT
TITLE	LABEL	Potentiostatic EIS	Test Identifier
DATE	LABEL	10/12/2021	Date
TIME	LABEL	19:20:59	Time
NOTES	NOTES	1	Notes...
	
PSTAT	PSTAT	REF3000-16137	Potentiostat
VDC	POTEN	0.00000E+000	T	DC Voltage (V)
FREQINIT	QUANT	3.00000E+005	Initial Freq. (Hz)
FREQFINAL	QUANT	1.00000E+000	Final Freq. (Hz)
PTSPERDEC	QUANT	1.00000E+001	Points/decade
VAC	QUANT	5.00000E+001	AC Voltage (mV rms)
AREA	QUANT	1.00000E+000	Sample Area (cm^2)
SPEED	SELECTOR	2	Optimize for:
ZGUESS	QUANT	1.00000E+003	Estimated Z (ohms)
EOC	QUANT	0	Open Circuit (V)
SEQUENCER	TOGGLE	TRUE	Run as Sequence
PSTATMODEL	IQUANT	5	Pstat Model
PSTATSECTION	LABEL	REF3000-16137	Pstat Section
PSTATSERIALNO	LABEL	16137	Pstat Serial Number
CTRLMODE	IQUANT	1	Control Mode
IESTAB	IQUANT	0	I/E Stability
CASPEED	IQUANT	1	Control Amp Speed
CONVENTION	IQUANT	1	Current Convention
ICHRANGE	IQUANT	2	Ich Range
ICHRANGEMODE	TOGGLE	F	Ich Auto Range
ICHOFFSETENABLE	TOGGLE	T	Ich Offset Enable
ICHOFFSET	QUANT	0	Ich Offset (V)
ICHFILTER	IQUANT	3	Ich Filter
VCHRANGE	IQUANT	2	Vch Range
VCHRANGEMODE	TOGGLE	F	Vch Auto Range
VCHOFFSETENABLE	TOGGLE	T	Vch Offset Enable
VCHOFFSET	QUANT	0	Vch Offset (V)
VCHFILTER	IQUANT	3	Vch Filter
ACHRANGE	IQUANT	2	Ach Range
ACHOFFSETENABLE	TOGGLE	F	Ach Offset Enable
ACHOFFSET	QUANT	0	Ach Offset (V)
ACHFILTER	IQUANT	3	Ach Filter
IERANGELOWERLIMIT	IQUANT	2	I/E Range Lower Limit
IERANGEMODE	TOGGLE	F	I/E AutoRange
IERANGE	IQUANT	11	I/E Range
POSFEEDENABLE	TOGGLE	F	Positive Feedback IR Comp
POSFEEDRESISTANCE	QUANT	0	Positive Feedback Resistance (ohm)
ACHSELECT	IQUANT	0	Ach Select
CABLEID	IQUANT	13	Cable ID
DCCALDATE	LABEL	9/10/2021	DC Calibration Date
ACCALDATE	LABEL	9/10/2021	AC Calibration Date
THERMOSELECT	IQUANT	1	Thermo Select
FRAMEWORKVERSION	QUANT	6.33	Framework Version
INSTRUMENTVERSION	LABEL	3.50	Instrument Version
COMPLIANCEVOLTAGE	IQUANT	0	Compliance Voltage
ZCURVE	TABLE
	Pt	Time	Freq	Zreal	Zimag	Zsig	Zmod	Zphz	Idc	Vdc	IERange
	#	s	Hz	ohm	ohm	V	ohm	°	A	V	#
	0	8	300046.9	7.326728	2.325227	1	7.686847	17.60748	5.968136E-005	-0.0009076	10
	1	11	238359.4	7.336176	1.858693	1	7.567973	14.21729	-0.0001157	-0.0008018	10
	2	14	189328.1	7.340965	1.463533	1	7.485432	11.27495	-0.0001007	-0.0006022	10
	3	17	150421.9	7.363846	1.14761	1	7.452734	8.857942	-1.403268E-005	-0.0003448	10
	4	20	119484.4	7.374331	0.8744766	1	7.426	6.762773	-9.179053E-005	-0.0002641	10
	5	22	94921.88	7.400764	0.667477	1	7.430803	5.153579	8.425085E-006	-0.0002623	10
	6	25	75421.88	7.422214	0.4791861	1	7.437666	3.69395	2.109473E-005	-0.0002424	10
	7	27	59859.37	7.448805	0.3138928	1	7.455416	2.413018	-2.253374E-005	-0.0001343	10
	8	30	47578.12	7.476863	0.1686002	1	7.478764	1.291777	-1.617759E-005	-0.000173	10
	9	32	37828.12	7.509268	0.0362384	1	7.509356	0.2764969	-2.06417E-005	-0.000158	10
	10	35	30046.88	7.544412	-0.0904753	1	7.544955	-0.6870788	-2.266266E-005	-9.41637E-005	10
	11	37	23859.38	7.577711	-0.2205366	1	7.58092	-1.667027	2.476906E-005	-0.0001534	10
	12	40	18984.38	7.61282	-0.3571305	1	7.621192	-2.685874	9.215069E-008	-0.0001003	10
	13	42	15046.87	7.650456	-0.5115014	1	7.667537	-3.825042	5.710179E-007	-0.0000986	10
	14	44	11953.13	7.690496	-0.6885573	1	7.72126	-5.116251	-1.200609E-005	-0.0001387	10
	15	47	9515.62	7.735201	-0.8923743	1	7.786506	-6.580856	-9.838299E-006	-0.000118	10
	16	49	7546.875	7.78436	-1.142908	1	7.867815	-8.352551	1.941791E-005	-0.0001638	10
	17	51	5928.309	7.840241	-1.460161	1	7.975052	-10.54986	5.928398E-006	-0.0001568	10
	18	53	4733.456	7.901492	-1.82332	1	8.109136	-12.99392	-3.794233E-006	-0.0001219	10
	19	56	3796.875	7.971212	-2.257688	1	8.284767	-15.81372	2.453939E-005	-0.0001428	10
	20	58	2987.132	8.055845	-2.837988	1	8.541125	-19.40682	-1.088278E-005	-0.0001226	10
	21	60	2390.625	8.149191	-3.508624	1	8.872416	-23.29423	1.061238E-005	-0.0001091	10
	22	63	1884.191	8.265114	-4.393265	1	9.360175	-27.99257	-1.229982E-005	-0.0001079	10
	23	65	1516.544	8.392837	-5.389472	1	9.97427	-32.70661	1.76329E-005	-0.0001398	10
	24	67	1193.986	8.561364	-6.745461	1	10.89946	-38.23442	2.396988E-005	-0.0001478	10
	25	70	946.5144	8.762648	-8.384327	1	12.12769	-43.73606	2.214893E-005	-0.0001591	10
	26	72	751.7689	9.001429	-10.40659	1	13.75946	-49.14104	1.836658E-005	-0.0001581	10
	27	76	597.4265	9.303097	-12.90548	1	15.90908	-54.21351	2.4644E-005	-0.000149	10
	28	78	477.4305	9.65785	-15.92256	1	18.62262	-58.76105	-1.18227E-006	-0.0001171	10
	29	80	376.6741	10.11059	-19.86701	1	22.29175	-63.02785	-7.66509E-007	-0.000119	10
	30	82	298.2954	10.66221	-24.70812	1	26.91048	-66.65852	-9.001821E-007	-0.0001131	10
	31	85	237.7717	11.33531	-30.54552	1	32.58094	-69.64033	-1.169328E-006	-0.0001152	10
	32	87	189.0121	12.18814	-37.87238	1	39.78528	-72.16071	-8.450131E-007	-0.0001172	10
	33	90	150.2404	13.25013	-46.88893	1	48.72512	-74.22047	2.154245E-007	-0.0001337	9
	34	92	119.1737	14.64994	-58.26916	1	60.08258	-75.8873	2.830292E-007	-0.00013	9
	35	94	95.0169	16.41357	-72.01652	1	73.86328	-77.1608	3.02066E-007	-0.0001309	9
	36	97	75.60484	18.74586	-89.19395	1	91.14256	-78.13091	1.749619E-007	-0.0001324	9
	37	99	54.50582	23.41301	-121.0457	1	123.2892	-79.05286	1.427832E-007	-0.0001325	9
	38	102	45.95588	26.78688	-141.9533	1	144.4586	-79.31383	6.513923E-007	-0.0001717	9
	39	104	37.20238	32.06991	-172.7363	1	175.6881	-79.48232	1.811568E-007	-0.0001301	9
	40	107	30.04808	39.05288	-210.3764	1	213.9704	-79.4837	1.745827E-007	-0.000128	9
	41	109	23.91582	49.1046	-259.234	1	263.8438	-79.27401	2.477541E-007	-0.0001336	9
	42	111	18.60119	64.55194	-326.0772	1	332.4053	-78.80222	1.458843E-007	-0.000124	9
	43	114	15.02404	81.79897	-395.0996	1	403.4784	-78.30309	2.827213E-007	-0.0001629	9
	44	116	12.01923	105.6387	-479.8453	1	491.336	-77.5843	3.655535E-007	-0.00012	8
	45	118	9.450605	140.1931	-593.0469	1	609.3922	-76.69975	4.965213E-007	-0.0001038	8
	46	121	7.512019	184.9383	-723.7022	1	746.9586	-75.66515	4.683069E-007	-0.000105	8
	47	124	5.978954	243.7882	-879.6982	1	912.8535	-74.51051	5.33448E-007	-0.0001199	8
	48	127	4.734848	326.133	-1070.942	1	1119.5	-73.06299	5.736547E-007	-0.0001011	8
	49	130	3.75601	437.3697	-1295.093	1	1366.952	-71.33951	5.36758E-007	-0.0001246	8
	50	133	3.004808	582.6291	-1546.172	1	1652.302	-69.35256	5.400491E-007	-8.161467E-005	8
	51	137	2.372217	790.0234	-1852.101	1	2013.558	-66.89908	5.713664E-007	-4.945347E-005	8
	52	141	1.878005	1064.718	-2185.998	1	2431.503	-64.03102	5.686359E-007	-0.0001445	8
	53	146	1.512097	1398.14	-2512.437	1	2875.262	-60.9046	6.045482E-007	-2.893005E-005	8
	54	152	1.201923	1841.851	-2868.984	1	3409.323	-57.30006	6.289271E-007	-0.0001462	8
	55	158	0.956633	2374.526	-3207.394	1	3990.707	-53.48639	5.473563E-007	-0.0006637	8
