EXPLAIN
TAG	EISPOT
TITLE	LABEL	Potentiostatic EIS	Test Identifier
DATE	LABEL	10/12/2021	Date
TIME	LABEL	18:32:35	Time
NOTES	NOTES	1	Notes...
	
PSTAT	PSTAT	REF3000-16137	Potentiostat
VDC	POTEN	0.00000E+000	T	DC Voltage (V)
FREQINIT	QUANT	3.00000E+005	Initial Freq. (Hz)
FREQFINAL	QUANT	1.00000E+000	Final Freq. (Hz)
PTSPERDEC	QUANT	1.00000E+001	Points/decade
VAC	QUANT	5.00000E+001	AC Voltage (mV rms)
AREA	QUANT	1.00000E+000	Sample Area (cm^2)
SPEED	SELECTOR	2	Optimize for:
ZGUESS	QUANT	1.00000E+003	Estimated Z (ohms)
EOC	QUANT	0	Open Circuit (V)
SEQUENCER	TOGGLE	TRUE	Run as Sequence
PSTATMODEL	IQUANT	5	Pstat Model
PSTATSECTION	LABEL	REF3000-16137	Pstat Section
PSTATSERIALNO	LABEL	16137	Pstat Serial Number
CTRLMODE	IQUANT	1	Control Mode
IESTAB	IQUANT	0	I/E Stability
CASPEED	IQUANT	1	Control Amp Speed
CONVENTION	IQUANT	1	Current Convention
ICHRANGE	IQUANT	2	Ich Range
ICHRANGEMODE	TOGGLE	F	Ich Auto Range
ICHOFFSETENABLE	TOGGLE	T	Ich Offset Enable
ICHOFFSET	QUANT	0	Ich Offset (V)
ICHFILTER	IQUANT	3	Ich Filter
VCHRANGE	IQUANT	2	Vch Range
VCHRANGEMODE	TOGGLE	F	Vch Auto Range
VCHOFFSETENABLE	TOGGLE	T	Vch Offset Enable
VCHOFFSET	QUANT	0	Vch Offset (V)
VCHFILTER	IQUANT	3	Vch Filter
ACHRANGE	IQUANT	2	Ach Range
ACHOFFSETENABLE	TOGGLE	F	Ach Offset Enable
ACHOFFSET	QUANT	0	Ach Offset (V)
ACHFILTER	IQUANT	3	Ach Filter
IERANGELOWERLIMIT	IQUANT	2	I/E Range Lower Limit
IERANGEMODE	TOGGLE	F	I/E AutoRange
IERANGE	IQUANT	11	I/E Range
POSFEEDENABLE	TOGGLE	F	Positive Feedback IR Comp
POSFEEDRESISTANCE	QUANT	0	Positive Feedback Resistance (ohm)
ACHSELECT	IQUANT	0	Ach Select
CABLEID	IQUANT	13	Cable ID
DCCALDATE	LABEL	9/10/2021	DC Calibration Date
ACCALDATE	LABEL	9/10/2021	AC Calibration Date
THERMOSELECT	IQUANT	1	Thermo Select
FRAMEWORKVERSION	QUANT	6.33	Framework Version
INSTRUMENTVERSION	LABEL	3.50	Instrument Version
COMPLIANCEVOLTAGE	IQUANT	0	Compliance Voltage
ZCURVE	TABLE
	Pt	Time	Freq	Zreal	Zimag	Zsig	Zmod	Zphz	Idc	Vdc	IERange
	#	s	Hz	ohm	ohm	V	ohm	°	A	V	#
	0	10	300046.9	2.073938	2.370079	1	3.149364	48.81245	4.357609E-005	-0.0005314	11
	1	13	238359.4	2.021508	1.888182	1	2.766175	43.04689	-8.857718E-006	-0.0004716	11
	2	16	189328.1	2.081695	1.34648	1	2.479206	32.89555	7.039794E-007	-0.0006903	12
	3	20	150421.9	2.037644	1.053133	1	2.293705	27.33167	-5.711579E-005	-0.0006185	12
	4	24	119484.4	1.966497	0.9052547	1	2.164855	24.71845	-8.01208E-005	2.76901E-006	11
	5	26	94921.88	1.961663	0.6880342	1	2.078825	19.32782	-5.810083E-005	0.0001395	11
	6	29	75421.88	1.958925	0.5071907	1	2.023519	14.51585	-5.341743E-005	0.0001885	11
	7	31	59859.37	1.957744	0.3526524	1	1.989253	10.2113	-1.683448E-005	0.0002745	11
	8	34	47578.12	1.959185	0.2185341	1	1.971336	6.364655	-4.625793E-005	0.0002912	11
	9	36	37828.12	1.962228	0.097216	1	1.964635	2.836325	-1.679152E-005	0.0002768	11
	10	39	30046.88	1.966172	-0.0186667	1	1.966261	-0.5439455	-3.210282E-005	0.0003417	11
	11	41	23859.38	1.972689	-0.1341096	1	1.977242	-3.889163	-7.423605E-005	0.0003493	11
	12	44	18984.38	1.980129	-0.2540182	1	1.996355	-7.310186	-2.224805E-005	0.0003953	11
	13	46	15046.87	1.990419	-0.3872399	1	2.027738	-11.00948	-7.416572E-005	0.0003586	11
	14	48	11953.13	2.003674	-0.5365781	1	2.074277	-14.99187	-9.295332E-005	0.0003504	11
	15	51	9515.62	2.021507	-0.7092131	1	2.142306	-19.3326	-6.599456E-005	0.0003725	11
	16	53	7546.875	2.0431	-0.9174924	1	2.239654	-24.18336	-4.399641E-005	0.0003846	11
	17	55	5928.309	2.073941	-1.179862	1	2.386065	-29.63548	-5.796396E-005	0.000382	11
	18	57	4733.456	2.110885	-1.478188	1	2.57699	-35.00237	-5.53866E-005	0.0003806	11
	19	60	3796.875	2.156656	-1.833655	1	2.830805	-40.37221	-7.119079E-005	0.0003711	11
	20	62	2987.132	2.222906	-2.306682	1	3.20345	-46.05959	-1.209102E-005	0.0004033	11
	21	64	2390.625	2.30264	-2.850791	1	3.664582	-51.0715	-8.696142E-006	0.0004016	11
	22	67	1884.191	2.421008	-3.567767	1	4.31164	-55.84005	-3.029792E-006	-0.0001233	10
	23	69	1516.544	2.561552	-4.370283	1	5.065661	-59.62417	-2.182343E-005	-0.0001118	10
	24	71	1193.986	2.770859	-5.457885	1	6.120961	-63.08401	-2.29104E-005	-0.0001114	10
	25	74	946.5144	3.050493	-6.765267	1	7.42121	-65.72914	-2.620887E-005	-0.0001247	10
	26	76	751.7689	3.446626	-8.354233	1	9.03728	-67.58089	2.517247E-005	-0.0001332	10
	27	78	597.4265	3.991467	-10.29283	1	11.03967	-68.80416	-2.158035E-005	-0.0001134	10
	28	81	477.4305	4.748958	-12.58832	1	13.45431	-69.33097	3.271632E-007	-0.0001134	10
	29	83	376.6741	5.871337	-15.49183	1	16.56712	-69.24351	1.41422E-007	-0.0001126	10
	30	85	298.2954	7.437543	-18.89208	1	20.30339	-68.51115	1.683213E-007	-0.0001129	10
	31	88	237.7717	9.55624	-22.73131	1	24.65835	-67.19813	5.00443E-006	-0.0001578	10
	32	90	189.0121	12.49296	-27.13483	1	29.87262	-65.27851	1.451224E-007	-0.0001111	10
	33	93	150.2404	16.43383	-31.94831	1	35.92722	-62.77925	1.142187E-006	-0.0001143	10
	34	95	119.1737	21.60614	-36.98318	1	42.832	-59.70588	1.812497E-006	-0.0001251	9
	35	97	95.0169	27.99068	-41.85844	1	50.35481	-56.22942	2.715828E-006	-0.000128	9
	36	100	75.60484	35.7523	-46.32789	1	58.51923	-52.3418	2.387527E-006	-0.0001358	9
	37	102	54.50582	48.83246	-51.1289	1	70.702	-46.31604	3.95939E-006	-0.000134	9
	38	105	45.95588	56.27202	-52.68497	1	77.08596	-43.11441	4.906534E-006	-0.0001282	9
	39	107	37.20238	65.63567	-53.53183	1	84.69769	-39.20036	5.127256E-006	-0.0001278	9
	40	110	30.04808	75.01973	-53.26892	1	92.00835	-35.37725	4.355834E-006	-0.0001319	9
	41	112	23.91582	84.44634	-52.00907	1	99.1773	-31.62821	4.803698E-006	-0.0001311	9
	42	115	18.60119	94.03542	-49.80186	1	106.409	-27.90603	2.706542E-006	-0.0001205	9
	43	117	15.02404	101.3113	-47.4383	1	111.8676	-25.09102	6.620412E-006	-0.0001251	9
	44	120	12.01923	108.0823	-44.98516	1	117.0702	-22.59768	8.088653E-006	-0.0001269	9
	45	122	9.450605	114.6197	-42.62247	1	122.288	-20.39815	7.622674E-006	-0.0001209	9
	46	125	7.512019	120.4234	-40.77351	1	127.1388	-18.70531	5.037793E-006	-0.0001099	9
	47	128	5.978954	125.7519	-39.29125	1	131.7473	-17.35144	2.781042E-006	-0.0001259	9
	48	132	4.734848	131.044	-38.28774	1	136.5229	-16.28702	5.276018E-006	-0.000106	9
	49	137	3.75601	136.2725	-37.72149	1	141.397	-15.47258	4.464127E-006	-0.0001189	9
	50	143	3.004808	141.327	-37.66194	1	146.2592	-14.92186	1.495258E-006	-9.059977E-005	9
	51	149	2.372217	146.8244	-38.00988	1	151.6646	-14.51409	5.919781E-006	-0.0000982	9
	52	153	1.878005	152.3825	-38.78479	1	157.2408	-14.27987	5.018675E-006	-0.0001509	9
	53	158	1.512097	157.3333	-39.86097	1	162.3042	-14.21695	1.941919E-006	-2.170357E-005	9
	54	164	1.201923	163.2277	-41.44031	1	168.406	-14.2453	4.377379E-006	-0.0001443	9
	55	170	0.956633	169.7696	-43.54042	1	175.264	-14.38449	-4.707903E-006	-0.0006736	9
