EXPLAIN
TAG	EISPOT
TITLE	LABEL	Potentiostatic EIS	Test Identifier
DATE	LABEL	10/12/2021	Date
TIME	LABEL	18:35:34	Time
NOTES	NOTES	1	Notes...
	
PSTAT	PSTAT	REF3000-16137	Potentiostat
VDC	POTEN	0.00000E+000	T	DC Voltage (V)
FREQINIT	QUANT	3.00000E+005	Initial Freq. (Hz)
FREQFINAL	QUANT	1.00000E+000	Final Freq. (Hz)
PTSPERDEC	QUANT	1.00000E+001	Points/decade
VAC	QUANT	5.00000E+001	AC Voltage (mV rms)
AREA	QUANT	1.00000E+000	Sample Area (cm^2)
SPEED	SELECTOR	2	Optimize for:
ZGUESS	QUANT	1.00000E+003	Estimated Z (ohms)
EOC	QUANT	0	Open Circuit (V)
SEQUENCER	TOGGLE	TRUE	Run as Sequence
PSTATMODEL	IQUANT	5	Pstat Model
PSTATSECTION	LABEL	REF3000-16137	Pstat Section
PSTATSERIALNO	LABEL	16137	Pstat Serial Number
CTRLMODE	IQUANT	1	Control Mode
IESTAB	IQUANT	0	I/E Stability
CASPEED	IQUANT	1	Control Amp Speed
CONVENTION	IQUANT	1	Current Convention
ICHRANGE	IQUANT	2	Ich Range
ICHRANGEMODE	TOGGLE	F	Ich Auto Range
ICHOFFSETENABLE	TOGGLE	T	Ich Offset Enable
ICHOFFSET	QUANT	0	Ich Offset (V)
ICHFILTER	IQUANT	3	Ich Filter
VCHRANGE	IQUANT	2	Vch Range
VCHRANGEMODE	TOGGLE	F	Vch Auto Range
VCHOFFSETENABLE	TOGGLE	T	Vch Offset Enable
VCHOFFSET	QUANT	0	Vch Offset (V)
VCHFILTER	IQUANT	3	Vch Filter
ACHRANGE	IQUANT	2	Ach Range
ACHOFFSETENABLE	TOGGLE	F	Ach Offset Enable
ACHOFFSET	QUANT	0	Ach Offset (V)
ACHFILTER	IQUANT	3	Ach Filter
IERANGELOWERLIMIT	IQUANT	2	I/E Range Lower Limit
IERANGEMODE	TOGGLE	F	I/E AutoRange
IERANGE	IQUANT	11	I/E Range
POSFEEDENABLE	TOGGLE	F	Positive Feedback IR Comp
POSFEEDRESISTANCE	QUANT	0	Positive Feedback Resistance (ohm)
ACHSELECT	IQUANT	0	Ach Select
CABLEID	IQUANT	13	Cable ID
DCCALDATE	LABEL	9/10/2021	DC Calibration Date
ACCALDATE	LABEL	9/10/2021	AC Calibration Date
THERMOSELECT	IQUANT	1	Thermo Select
FRAMEWORKVERSION	QUANT	6.33	Framework Version
INSTRUMENTVERSION	LABEL	3.50	Instrument Version
COMPLIANCEVOLTAGE	IQUANT	0	Compliance Voltage
ZCURVE	TABLE
	Pt	Time	Freq	Zreal	Zimag	Zsig	Zmod	Zphz	Idc	Vdc	IERange
	#	s	Hz	ohm	ohm	V	ohm	°	A	V	#
	0	10	300046.9	2.136274	2.369391	1	3.190247	47.96177	-4.056099E-007	-0.0005174	11
	1	13	238359.4	2.097544	1.881801	1	2.817955	41.89671	4.441518E-005	-0.0005761	11
	2	16	189328.1	2.156761	1.34305	1	2.540748	31.91118	-0.0000978	-0.0007234	12
	3	20	150421.9	2.099141	1.052702	1	2.348313	26.6334	-0.0001457	-0.000538	12
	4	24	119484.4	2.038235	0.9052746	1	2.230229	23.94823	-0.0001487	9.488497E-005	11
	5	26	94921.88	2.029728	0.6840488	1	2.141896	18.62459	-1.378389E-005	0.0001639	11
	6	29	75421.88	2.026731	0.5055245	1	2.088826	14.00542	-5.62883E-005	0.000193	11
	7	31	59859.37	2.025573	0.350749	1	2.055717	9.82394	-0.0000961	0.0002147	11
	8	34	47578.12	2.027154	0.2160236	1	2.038632	6.082767	-1.687371E-005	0.0003113	11
	9	36	37828.12	2.029776	0.0945311	1	2.031976	2.666463	-8.34385E-005	0.0002845	11
	10	39	30046.88	2.035537	-0.0213337	1	2.035648	-0.6004747	-6.463537E-005	0.0003343	11
	11	41	23859.38	2.041021	-0.1376856	1	2.04566	-3.859279	-7.329874E-005	0.0003365	11
	12	44	18984.38	2.049138	-0.2581618	1	2.065336	-7.18061	-7.693122E-005	0.0003468	11
	13	46	15046.87	2.059057	-0.3920601	1	2.09605	-10.78051	-3.422368E-005	0.0003507	11
	14	48	11953.13	2.073118	-0.54317	1	2.143094	-14.68184	-2.36465E-005	0.0004079	11
	15	51	9515.62	2.089965	-0.7172098	1	2.209603	-18.9406	-2.491194E-005	0.0004002	11
	16	53	7546.875	2.112833	-0.927036	1	2.307262	-23.69016	-6.973646E-005	0.0003828	11
	17	55	5928.309	2.142215	-1.192516	1	2.45177	-29.10356	-2.776332E-005	0.0003339	11
	18	57	4733.456	2.178504	-1.493828	1	2.641477	-34.43893	-2.195414E-005	0.0004027	11
	19	60	3796.875	2.223051	-1.853073	1	2.894103	-39.81365	-7.938463E-005	0.0003656	11
	20	62	2987.132	2.287386	-2.332185	1	3.266684	-45.55561	-3.100821E-005	0.0003699	11
	21	64	2390.625	2.367513	-2.878873	1	3.727335	-50.56698	-2.376442E-005	0.0003915	11
	22	67	1884.191	2.478518	-3.607796	1	4.377127	-55.51134	9.148099E-006	-0.0001444	10
	23	69	1516.544	2.611331	-4.421606	1	5.135139	-59.43457	-2.406302E-005	-0.0001095	10
	24	71	1193.986	2.809582	-5.523279	1	6.196803	-63.03847	2.151699E-005	-0.0001421	10
	25	74	946.5144	3.069726	-6.852704	1	7.508846	-65.86961	-2.93422E-005	-0.0001224	10
	26	76	751.7689	3.44013	-8.473268	1	9.144985	-67.90295	7.380513E-006	-0.0001421	10
	27	78	597.4265	3.941018	-10.456	1	11.17406	-69.34784	-1.906411E-005	-0.0001056	10
	28	81	477.4305	4.640144	-12.81549	1	13.62966	-70.09605	-1.493646E-007	-0.0001107	10
	29	83	376.6741	5.675333	-15.82318	1	16.81018	-70.2685	1.136406E-007	-0.0001109	10
	30	85	298.2954	7.123774	-19.38021	1	20.64802	-69.8176	2.308153E-007	-0.0001083	10
	31	88	237.7717	9.095978	-23.45567	1	25.15761	-68.80399	-8.613355E-008	-0.0001108	10
	32	90	189.0121	11.86303	-28.21857	1	30.61077	-67.19821	-1.204698E-007	-0.0001078	10
	33	92	150.2404	15.63369	-33.55953	1	37.02235	-65.02157	-2.137547E-007	-0.0001094	10
	34	95	119.1737	20.6902	-39.34922	1	44.45723	-62.26418	1.063729E-006	-0.0001234	9
	35	97	95.0169	27.09574	-45.21368	1	52.71106	-59.06651	1.416657E-006	-0.0001294	9
	36	100	75.60484	35.1301	-50.92531	1	61.86689	-55.4007	1.608995E-006	-0.0001309	9
	37	102	54.50582	49.2694	-57.7922	1	75.94348	-49.55152	2.571803E-006	-0.0001333	9
	38	105	45.95588	57.6643	-60.43849	1	83.53432	-46.34561	2.861855E-006	-0.0001234	9
	39	107	37.20238	68.55824	-62.50708	1	92.77589	-42.35658	3.005842E-006	-0.00012	9
	40	110	30.04808	79.86364	-63.15709	1	101.8186	-38.33736	3.412479E-006	-0.0001212	9
	41	112	23.91582	91.53389	-62.45469	1	110.8108	-34.30619	4.114725E-006	-0.0001271	9
	42	115	18.60119	103.5639	-60.41776	1	119.899	-30.25871	2.473485E-006	-0.0001207	9
	43	117	15.02404	112.8797	-57.90895	1	126.8671	-27.1585	2.721318E-006	-0.000172	9
	44	120	12.01923	121.5569	-54.9258	1	133.3901	-24.31595	5.483723E-006	-0.0001206	9
	45	122	9.450605	129.8126	-51.85443	1	139.7863	-21.77453	5.195528E-006	-0.0001115	9
	46	125	7.512019	136.9786	-49.20955	1	145.5497	-19.76082	5.678107E-006	-0.0001018	9
	47	128	5.978954	143.5805	-47.00668	1	151.0794	-18.12788	3.018067E-006	-0.0001204	9
	48	132	4.734848	149.8849	-45.3333	1	156.5905	-16.82816	4.932666E-006	-0.0000973	9
	49	137	3.75601	156.1198	-44.18997	1	162.2533	-15.80425	3.870148E-006	-0.0001264	9
	50	143	3.004808	162.0321	-43.69353	1	167.8199	-15.0914	1.634104E-006	-9.322164E-005	9
	51	149	2.372217	168.3378	-43.5706	1	173.885	-14.51132	5.026093E-006	-7.703283E-005	9
	52	153	1.878005	174.5932	-44.07368	1	180.0702	-14.16755	3.026626E-006	-0.0001488	9
	53	158	1.512097	180.2453	-44.93626	1	185.7623	-13.99882	1.620209E-006	-2.37486E-005	9
	54	163	1.201923	186.7944	-46.30413	1	192.448	-13.92231	3.378642E-006	-0.0001508	9
	55	170	0.956633	194.1405	-48.36751	1	200.0748	-13.98968	-3.367147E-006	-0.0006661	9
