EXPLAIN
TAG	EISPOT
TITLE	LABEL	Potentiostatic EIS	Test Identifier
DATE	LABEL	10/12/2021	Date
TIME	LABEL	18:38:34	Time
NOTES	NOTES	1	Notes...
	
PSTAT	PSTAT	REF3000-16137	Potentiostat
VDC	POTEN	0.00000E+000	T	DC Voltage (V)
FREQINIT	QUANT	3.00000E+005	Initial Freq. (Hz)
FREQFINAL	QUANT	1.00000E+000	Final Freq. (Hz)
PTSPERDEC	QUANT	1.00000E+001	Points/decade
VAC	QUANT	5.00000E+001	AC Voltage (mV rms)
AREA	QUANT	1.00000E+000	Sample Area (cm^2)
SPEED	SELECTOR	2	Optimize for:
ZGUESS	QUANT	1.00000E+003	Estimated Z (ohms)
EOC	QUANT	0	Open Circuit (V)
SEQUENCER	TOGGLE	TRUE	Run as Sequence
PSTATMODEL	IQUANT	5	Pstat Model
PSTATSECTION	LABEL	REF3000-16137	Pstat Section
PSTATSERIALNO	LABEL	16137	Pstat Serial Number
CTRLMODE	IQUANT	1	Control Mode
IESTAB	IQUANT	0	I/E Stability
CASPEED	IQUANT	1	Control Amp Speed
CONVENTION	IQUANT	1	Current Convention
ICHRANGE	IQUANT	2	Ich Range
ICHRANGEMODE	TOGGLE	F	Ich Auto Range
ICHOFFSETENABLE	TOGGLE	T	Ich Offset Enable
ICHOFFSET	QUANT	0	Ich Offset (V)
ICHFILTER	IQUANT	3	Ich Filter
VCHRANGE	IQUANT	2	Vch Range
VCHRANGEMODE	TOGGLE	F	Vch Auto Range
VCHOFFSETENABLE	TOGGLE	T	Vch Offset Enable
VCHOFFSET	QUANT	0	Vch Offset (V)
VCHFILTER	IQUANT	3	Vch Filter
ACHRANGE	IQUANT	2	Ach Range
ACHOFFSETENABLE	TOGGLE	F	Ach Offset Enable
ACHOFFSET	QUANT	0	Ach Offset (V)
ACHFILTER	IQUANT	3	Ach Filter
IERANGELOWERLIMIT	IQUANT	2	I/E Range Lower Limit
IERANGEMODE	TOGGLE	F	I/E AutoRange
IERANGE	IQUANT	11	I/E Range
POSFEEDENABLE	TOGGLE	F	Positive Feedback IR Comp
POSFEEDRESISTANCE	QUANT	0	Positive Feedback Resistance (ohm)
ACHSELECT	IQUANT	0	Ach Select
CABLEID	IQUANT	13	Cable ID
DCCALDATE	LABEL	9/10/2021	DC Calibration Date
ACCALDATE	LABEL	9/10/2021	AC Calibration Date
THERMOSELECT	IQUANT	1	Thermo Select
FRAMEWORKVERSION	QUANT	6.33	Framework Version
INSTRUMENTVERSION	LABEL	3.50	Instrument Version
COMPLIANCEVOLTAGE	IQUANT	0	Compliance Voltage
ZCURVE	TABLE
	Pt	Time	Freq	Zreal	Zimag	Zsig	Zmod	Zphz	Idc	Vdc	IERange
	#	s	Hz	ohm	ohm	V	ohm	°	A	V	#
	0	10	300046.9	2.209411	2.376746	1	3.24506	47.08963	-0.0000963	-0.0006501	11
	1	13	238359.4	2.179889	1.883863	1	2.88112	40.83362	-1.932999E-005	-0.0004758	11
	2	16	189328.1	2.223987	1.335298	1	2.594058	30.98092	-3.212828E-005	-0.0006898	12
	3	20	150421.9	2.185249	1.050352	1	2.424573	25.67152	-0.0001217	-0.0005189	12
	4	24	119484.4	2.145849	0.8083303	1	2.293047	20.64114	-1.65234E-005	-0.0004656	12
	5	27	94921.88	2.107735	0.6821741	1	2.21538	17.93431	-2.600568E-005	0.0001959	11
	6	30	75421.88	2.105814	0.5038403	1	2.16525	13.45572	-7.121677E-005	0.0002065	11
	7	32	59859.37	2.105167	0.3488749	1	2.133879	9.409716	-6.186195E-005	0.0002638	11
	8	35	47578.12	2.105906	0.2144694	1	2.116799	5.815062	-4.070746E-005	0.0003028	11
	9	37	37828.12	2.108974	0.0922507	1	2.11099	2.504636	-5.256999E-005	0.000322	11
	10	40	30046.88	2.113188	-0.0246381	1	2.113331	-0.667992	-7.296279E-005	0.0003043	11
	11	42	23859.38	2.119756	-0.1412227	1	2.124455	-3.811537	-9.122695E-005	0.0003172	11
	12	45	18984.38	2.128273	-0.2625837	1	2.144411	-7.033536	-6.875988E-005	0.0003413	11
	13	47	15046.87	2.139157	-0.3978194	1	2.175833	-10.53496	-1.718605E-005	0.0003933	11
	14	49	11953.13	2.15259	-0.5498616	1	2.221709	-14.32932	-2.124037E-005	0.0003823	11
	15	52	9515.62	2.168808	-0.7249295	1	2.286756	-18.48233	-6.627577E-005	0.0003362	11
	16	54	7546.875	2.191458	-0.93699	1	2.383367	-23.14984	-1.853744E-005	0.0003934	11
	17	56	5928.309	2.220989	-1.205441	1	2.52703	-28.49087	-2.40594E-005	0.0003849	11
	18	59	4733.456	2.256793	-1.51012	1	2.715433	-33.78823	-4.070964E-005	0.0003832	11
	19	61	3796.875	2.301168	-1.873877	1	2.967624	-39.15647	-2.39806E-005	0.0003893	11
	20	63	2987.132	2.363187	-2.358021	1	3.3384	-44.9373	-1.569157E-005	0.000389	11
	21	66	2390.625	2.437556	-2.913615	1	3.798793	-50.08385	-8.534226E-005	0.0003298	11
	22	68	1884.191	2.546658	-3.64914	1	4.449909	-55.08962	2.347668E-005	-0.0001372	10
	23	70	1516.544	2.674206	-4.472734	1	5.211212	-59.12519	7.403164E-006	-0.0001547	10
	24	73	1193.986	2.859551	-5.592962	1	6.281581	-62.9204	-2.527045E-005	-0.0001176	10
	25	75	946.5144	3.104384	-6.943574	1	7.605947	-65.91119	9.615812E-007	-0.0001162	10
	26	77	751.7689	3.442144	-8.594319	1	9.258006	-68.17322	-1.334784E-005	-0.0001214	10
	27	80	597.4265	3.90927	-10.61181	1	11.30898	-69.77678	7.062651E-006	-0.0001384	10
	28	82	477.4305	4.552249	-13.0328	1	13.80496	-70.74612	-8.064286E-007	-0.0001187	10
	29	84	376.6741	5.501297	-16.1341	1	17.04621	-71.17199	1.926205E-007	-0.0001204	10
	30	87	298.2954	6.830543	-19.83477	1	20.97795	-70.99772	-1.884158E-007	-0.0001189	10
	31	89	237.7717	8.64889	-24.12565	1	25.62909	-70.27757	-5.626721E-007	-0.0001188	10
	32	92	189.0121	11.21785	-29.21894	1	31.29835	-68.997	-1.315886E-006	-0.0001174	10
	33	94	150.2404	14.76681	-35.05946	1	38.04241	-67.1595	-1.231512E-006	-0.0001226	10
	34	96	119.1737	19.61136	-41.58766	1	45.97977	-64.75299	1.208931E-006	-0.0001304	9
	35	99	95.0169	25.89801	-48.45907	1	54.94532	-61.87859	8.902512E-007	-0.0001313	9
	36	101	75.60484	34.01715	-55.51539	1	65.10857	-58.50204	1.898818E-006	-0.0001304	9
	37	104	54.50582	48.95182	-64.81078	1	81.22018	-52.93612	2.281689E-006	-0.0001344	9
	38	106	45.95588	58.1519	-68.86515	1	90.13353	-49.8212	2.417906E-006	-0.000127	9
	39	109	37.20238	70.612	-72.63807	1	101.3032	-45.81031	2.50041E-006	-0.0001278	9
	40	111	30.04808	83.92999	-74.82796	1	112.4432	-41.71867	3.530364E-006	-0.0001265	9
	41	114	23.91582	98.1614	-75.32348	1	123.7307	-37.50058	3.310888E-006	-0.0001293	9
	42	116	18.60119	113.4602	-73.88259	1	135.3952	-33.07122	2.468017E-006	-0.0001273	9
	43	119	15.02404	125.3955	-71.3549	1	144.276	-29.64155	4.841781E-006	-0.0001368	9
	44	121	12.01923	136.7814	-67.94587	1	152.7278	-26.4158	6.202933E-006	-0.0001278	9
	45	124	9.450605	147.4877	-64.07207	1	160.8038	-23.48124	5.647315E-006	-0.0001218	9
	46	127	7.512019	156.6765	-60.55994	1	167.9733	-21.13294	5.958314E-006	-0.0001109	9
	47	130	5.978954	165.1044	-57.47139	1	174.8212	-19.19255	3.483421E-006	-0.000129	9
	48	134	4.734848	172.9103	-54.87027	1	181.4076	-17.60599	4.632264E-006	-0.0001025	9
	49	139	3.75601	180.3989	-53.00482	1	188.0247	-16.37385	4.9351E-006	-0.0001111	9
	50	144	3.004808	187.5515	-51.7726	1	194.5661	-15.43188	2.927276E-006	-0.0001082	9
	51	151	2.372217	194.8978	-51.17008	1	201.5032	-14.71089	5.027645E-006	-0.0001338	9
	52	155	1.878005	202.3595	-51.10861	1	208.7139	-14.17439	5.144252E-006	-0.0001421	9
	53	160	1.512097	208.8454	-51.52216	1	215.1068	-13.85815	4.024222E-006	-6.09809E-005	9
	54	165	1.201923	216.6901	-52.87851	1	223.0487	-13.71377	3.236903E-006	-0.0001225	9
	55	178	0.956633	225.7197	-54.75628	1	232.2663	-13.63571	-2.29231E-006	-0.0006802	9
