EXPLAIN
TAG	EISPOT
TITLE	LABEL	Potentiostatic EIS	Test Identifier
DATE	LABEL	10/12/2021	Date
TIME	LABEL	19:14:48	Time
NOTES	NOTES	1	Notes...
	
PSTAT	PSTAT	REF3000-16137	Potentiostat
VDC	POTEN	0.00000E+000	T	DC Voltage (V)
FREQINIT	QUANT	3.00000E+005	Initial Freq. (Hz)
FREQFINAL	QUANT	1.00000E+000	Final Freq. (Hz)
PTSPERDEC	QUANT	1.00000E+001	Points/decade
VAC	QUANT	5.00000E+001	AC Voltage (mV rms)
AREA	QUANT	1.00000E+000	Sample Area (cm^2)
SPEED	SELECTOR	2	Optimize for:
ZGUESS	QUANT	1.00000E+003	Estimated Z (ohms)
EOC	QUANT	0	Open Circuit (V)
SEQUENCER	TOGGLE	TRUE	Run as Sequence
PSTATMODEL	IQUANT	5	Pstat Model
PSTATSECTION	LABEL	REF3000-16137	Pstat Section
PSTATSERIALNO	LABEL	16137	Pstat Serial Number
CTRLMODE	IQUANT	1	Control Mode
IESTAB	IQUANT	0	I/E Stability
CASPEED	IQUANT	1	Control Amp Speed
CONVENTION	IQUANT	1	Current Convention
ICHRANGE	IQUANT	2	Ich Range
ICHRANGEMODE	TOGGLE	F	Ich Auto Range
ICHOFFSETENABLE	TOGGLE	T	Ich Offset Enable
ICHOFFSET	QUANT	0	Ich Offset (V)
ICHFILTER	IQUANT	3	Ich Filter
VCHRANGE	IQUANT	2	Vch Range
VCHRANGEMODE	TOGGLE	F	Vch Auto Range
VCHOFFSETENABLE	TOGGLE	T	Vch Offset Enable
VCHOFFSET	QUANT	0	Vch Offset (V)
VCHFILTER	IQUANT	3	Vch Filter
ACHRANGE	IQUANT	2	Ach Range
ACHOFFSETENABLE	TOGGLE	F	Ach Offset Enable
ACHOFFSET	QUANT	0	Ach Offset (V)
ACHFILTER	IQUANT	3	Ach Filter
IERANGELOWERLIMIT	IQUANT	2	I/E Range Lower Limit
IERANGEMODE	TOGGLE	F	I/E AutoRange
IERANGE	IQUANT	11	I/E Range
POSFEEDENABLE	TOGGLE	F	Positive Feedback IR Comp
POSFEEDRESISTANCE	QUANT	0	Positive Feedback Resistance (ohm)
ACHSELECT	IQUANT	0	Ach Select
CABLEID	IQUANT	13	Cable ID
DCCALDATE	LABEL	9/10/2021	DC Calibration Date
ACCALDATE	LABEL	9/10/2021	AC Calibration Date
THERMOSELECT	IQUANT	1	Thermo Select
FRAMEWORKVERSION	QUANT	6.33	Framework Version
INSTRUMENTVERSION	LABEL	3.50	Instrument Version
COMPLIANCEVOLTAGE	IQUANT	0	Compliance Voltage
ZCURVE	TABLE
	Pt	Time	Freq	Zreal	Zimag	Zsig	Zmod	Zphz	Idc	Vdc	IERange
	#	s	Hz	ohm	ohm	V	ohm	°	A	V	#
	0	10	300046.9	5.089934	2.388445	1	5.622464	25.13825	-4.834306E-005	-0.000677	10
	1	14	238359.4	5.062739	1.879598	1	5.40039	20.368	3.374774E-005	-0.0008782	10
	2	17	189328.1	5.047491	1.478628	1	5.259611	16.32759	5.178611E-005	-0.0007356	10
	3	19	150421.9	5.037969	1.15158	1	5.167907	12.87548	-0.0001059	-0.0005447	10
	4	22	119484.4	5.048046	0.8913866	1	5.126143	10.01409	-7.664237E-005	-0.0002548	10
	5	24	94921.88	5.054457	0.6827155	1	5.100356	7.692498	7.270191E-006	-0.0002705	10
	6	27	75421.88	5.058854	0.4949522	1	5.083009	5.587965	2.403877E-005	-0.0002552	10
	7	29	59859.37	5.065943	0.3328053	1	5.076863	3.758625	2.485469E-005	-0.0002305	10
	8	32	47578.12	5.075194	0.1888045	1	5.078705	2.130502	2.411924E-005	-0.0002062	10
	9	34	37828.12	5.087161	0.0571664	1	5.087482	0.6438275	2.433562E-005	-0.000183	10
	10	37	30046.88	5.10213	-0.068763	1	5.102593	-0.7721459	-1.919164E-005	-0.0001895	10
	11	40	23859.38	5.117123	-0.1962404	1	5.120884	-2.196203	-2.283898E-005	-0.0001387	10
	12	42	18984.38	5.134157	-0.3299576	1	5.144749	-3.67718	-2.789792E-005	-0.000135	10
	13	44	15046.87	5.153326	-0.480993	1	5.175724	-5.332335	-1.914627E-005	-8.107027E-005	10
	14	46	11953.13	5.174884	-0.6525832	1	5.215869	-7.187394	-4.884309E-007	-0.0001043	10
	15	49	9515.62	5.198259	-0.8521901	1	5.267649	-9.310117	-1.718546E-005	-0.000133	10
	16	51	7546.875	5.228252	-1.096045	1	5.341904	-11.83996	2.339251E-005	-0.0001253	10
	17	53	5928.309	5.263469	-1.404455	1	5.447624	-14.94019	2.029756E-005	-0.0001376	10
	18	56	4733.456	5.304213	-1.757951	1	5.587939	-18.33651	2.149823E-005	-0.0001328	10
	19	58	3796.875	5.352624	-2.179319	1	5.779275	-22.15368	2.139514E-005	-0.0001535	10
	20	60	2987.132	5.417344	-2.747699	1	6.074328	-26.89431	-2.666982E-006	-0.0001431	10
	21	63	2390.625	5.4915	-3.39836	1	6.457973	-31.75088	-2.26412E-005	-8.117186E-005	10
	22	65	1884.191	5.587217	-4.259185	1	7.0255	-37.3186	-2.744153E-005	-0.0001092	10
	23	67	1516.544	5.697378	-5.224863	1	7.730414	-42.52283	1.257706E-005	-0.0001593	10
	24	70	1193.986	5.843513	-6.540851	1	8.77094	-48.22281	1.623484E-005	-0.0001401	10
	25	72	946.5144	6.031996	-8.120871	1	10.116	-53.39589	1.400272E-005	-0.0001577	10
	26	74	751.7689	6.246512	-10.08414	1	11.86207	-58.22429	2.329935E-005	-0.0001405	10
	27	77	597.4265	6.521537	-12.49313	1	14.09286	-62.43499	5.140937E-006	-0.000147	10
	28	79	477.4305	6.848704	-15.41635	1	16.86916	-66.04684	-7.595413E-007	-0.0001141	10
	29	81	376.6741	7.283391	-19.23342	1	20.56629	-69.25912	-6.623392E-007	-0.0001125	10
	30	84	298.2954	7.82522	-23.92288	1	25.17018	-71.88698	-8.38553E-007	-0.0001131	10
	31	86	237.7717	8.49666	-29.57537	1	30.77167	-73.97126	-1.989621E-006	-0.0001121	10
	32	89	189.0121	9.371178	-36.67167	1	37.8501	-75.66525	-1.600423E-006	-0.000114	10
	33	91	150.2404	10.49192	-45.40339	1	46.59988	-76.98835	6.934292E-008	-0.0001319	9
	34	93	119.1737	12.0102	-56.40596	1	57.67042	-77.97984	3.97868E-008	-0.0001293	9
	35	96	95.0169	13.96819	-69.68865	1	71.07474	-78.66599	4.159638E-008	-0.0001282	9
	36	98	75.60484	16.63073	-86.24279	1	87.83166	-79.08527	1.770974E-008	-0.0001297	9
	37	101	54.50582	22.16022	-116.8256	1	118.9088	-79.25938	-5.027027E-008	-0.0001285	9
	38	103	45.95588	26.23223	-136.7775	1	139.2703	-79.14321	1.537769E-007	-0.0001232	9
	39	106	37.20238	32.72331	-166.0141	1	169.2084	-78.84928	1.8145E-007	-0.0001293	9
	40	108	30.04808	41.40358	-201.438	1	205.649	-78.38519	5.746823E-008	-0.0001268	9
	41	111	23.91582	54.33482	-247.4389	1	253.3344	-77.61506	-4.30036E-008	-0.0001299	9
	42	113	18.60119	73.9669	-308.8325	1	317.5667	-76.53109	-5.655992E-008	-0.0001258	9
	43	115	15.02404	96.4339	-371.9465	1	384.2443	-75.46507	1.322255E-007	-0.0001418	9
	44	117	12.01923	127.1855	-447.9581	1	465.6636	-74.14954	5.074555E-007	-0.0001132	8
	45	120	9.450605	173.4368	-547.4556	1	574.2717	-72.42152	5.754308E-007	-0.0001174	8
	46	122	7.512019	233.823	-658.6619	1	698.934	-70.45529	6.090182E-007	-0.000103	8
	47	125	5.978954	314.2657	-785.9491	1	846.4507	-68.20575	6.82404E-007	-0.0001126	8
	48	128	4.734848	426.3608	-931.2906	1	1024.249	-65.40088	6.998757E-007	-8.90321E-005	8
	49	131	3.75601	572.2471	-1087.171	1	1228.579	-62.23932	6.837838E-007	-0.0001171	8
	50	136	3.004808	752.2656	-1240.48	1	1450.757	-58.76608	6.958071E-007	-8.499229E-005	8
	51	143	2.372217	991.275	-1394.053	1	1710.558	-54.58436	7.734152E-007	-3.602277E-005	8
	52	147	1.878005	1267.09	-1530.301	1	1986.791	-50.37522	7.972251E-007	-0.0001418	8
	53	156	1.512097	1558.239	-1623.337	1	2250.185	-46.17215	8.93565E-007	-8.027276E-005	8
	54	166	1.201923	1895.582	-1692.155	1	2540.988	-41.75477	9.312518E-007	-0.0001792	8
	55	179	0.956633	2238.264	-1717.079	1	2821.026	-37.49353	7.349336E-007	-0.0006622	8
