EXPLAIN
TAG	EISPOT
TITLE	LABEL	Potentiostatic EIS	Test Identifier
DATE	LABEL	10/12/2021	Date
TIME	LABEL	18:41:42	Time
NOTES	NOTES	1	Notes...
	
PSTAT	PSTAT	REF3000-16137	Potentiostat
VDC	POTEN	0.00000E+000	T	DC Voltage (V)
FREQINIT	QUANT	3.00000E+005	Initial Freq. (Hz)
FREQFINAL	QUANT	1.00000E+000	Final Freq. (Hz)
PTSPERDEC	QUANT	1.00000E+001	Points/decade
VAC	QUANT	5.00000E+001	AC Voltage (mV rms)
AREA	QUANT	1.00000E+000	Sample Area (cm^2)
SPEED	SELECTOR	2	Optimize for:
ZGUESS	QUANT	1.00000E+003	Estimated Z (ohms)
EOC	QUANT	0	Open Circuit (V)
SEQUENCER	TOGGLE	TRUE	Run as Sequence
PSTATMODEL	IQUANT	5	Pstat Model
PSTATSECTION	LABEL	REF3000-16137	Pstat Section
PSTATSERIALNO	LABEL	16137	Pstat Serial Number
CTRLMODE	IQUANT	1	Control Mode
IESTAB	IQUANT	0	I/E Stability
CASPEED	IQUANT	1	Control Amp Speed
CONVENTION	IQUANT	1	Current Convention
ICHRANGE	IQUANT	2	Ich Range
ICHRANGEMODE	TOGGLE	F	Ich Auto Range
ICHOFFSETENABLE	TOGGLE	T	Ich Offset Enable
ICHOFFSET	QUANT	0	Ich Offset (V)
ICHFILTER	IQUANT	3	Ich Filter
VCHRANGE	IQUANT	2	Vch Range
VCHRANGEMODE	TOGGLE	F	Vch Auto Range
VCHOFFSETENABLE	TOGGLE	T	Vch Offset Enable
VCHOFFSET	QUANT	0	Vch Offset (V)
VCHFILTER	IQUANT	3	Vch Filter
ACHRANGE	IQUANT	2	Ach Range
ACHOFFSETENABLE	TOGGLE	F	Ach Offset Enable
ACHOFFSET	QUANT	0	Ach Offset (V)
ACHFILTER	IQUANT	3	Ach Filter
IERANGELOWERLIMIT	IQUANT	2	I/E Range Lower Limit
IERANGEMODE	TOGGLE	F	I/E AutoRange
IERANGE	IQUANT	11	I/E Range
POSFEEDENABLE	TOGGLE	F	Positive Feedback IR Comp
POSFEEDRESISTANCE	QUANT	0	Positive Feedback Resistance (ohm)
ACHSELECT	IQUANT	0	Ach Select
CABLEID	IQUANT	13	Cable ID
DCCALDATE	LABEL	9/10/2021	DC Calibration Date
ACCALDATE	LABEL	9/10/2021	AC Calibration Date
THERMOSELECT	IQUANT	1	Thermo Select
FRAMEWORKVERSION	QUANT	6.33	Framework Version
INSTRUMENTVERSION	LABEL	3.50	Instrument Version
COMPLIANCEVOLTAGE	IQUANT	0	Compliance Voltage
ZCURVE	TABLE
	Pt	Time	Freq	Zreal	Zimag	Zsig	Zmod	Zphz	Idc	Vdc	IERange
	#	s	Hz	ohm	ohm	V	ohm	°	A	V	#
	0	10	300046.9	2.314064	2.366793	1	3.310075	45.6454	-2.680415E-005	-0.0005959	11
	1	14	238359.4	2.271509	1.883546	1	2.950847	39.66569	-3.156201E-005	-0.0004207	11
	2	17	189328.1	2.237178	1.48456	1	2.684937	33.56769	3.594935E-005	-1.290988E-005	11
	3	20	150421.9	2.273909	1.035996	1	2.49879	24.49408	-1.214702E-006	-0.0006211	12
	4	24	119484.4	2.23952	0.8045963	1	2.379669	19.76193	-0.0001062	-0.0004048	12
	5	28	94921.88	2.22004	0.6056685	1	2.301177	15.26	-9.385258E-005	-0.0002996	12
	6	31	75421.88	2.198626	0.5008994	1	2.254963	12.83429	-3.573149E-005	0.0002345	11
	7	34	59859.37	2.198318	0.3471944	1	2.225566	8.974956	-5.94482E-005	0.0002601	11
	8	36	47578.12	2.199879	0.2123014	1	2.210099	5.512313	-6.445569E-005	0.0002951	11
	9	39	37828.12	2.202723	0.089173	1	2.204528	2.318244	-3.075915E-005	0.0003277	11
	10	41	30046.88	2.208192	-0.0276293	1	2.208364	-0.7168573	-5.486273E-005	0.0003349	11
	11	44	23859.38	2.214785	-0.1450544	1	2.21953	-3.74716	-5.156601E-005	0.0003564	11
	12	46	18984.38	2.222638	-0.2671061	1	2.23863	-6.852672	-3.089587E-005	0.0003717	11
	13	49	15046.87	2.233275	-0.4035796	1	2.269448	-10.24348	-7.128322E-005	0.0003526	11
	14	51	11953.13	2.246767	-0.5570594	1	2.314795	-13.92501	-4.408221E-005	0.0003732	11
	15	53	9515.62	2.263245	-0.7339238	1	2.37927	-17.96681	-5.162853E-005	0.000333	11
	16	55	7546.875	2.285938	-0.9491076	1	2.47514	-22.54793	-8.491937E-006	0.000408	11
	17	58	5928.309	2.315551	-1.219731	1	2.617159	-27.7783	-7.737228E-005	0.0003623	11
	18	60	4733.456	2.350338	-1.527753	1	2.803233	-33.02444	-3.03753E-005	0.0003699	11
	19	62	3796.875	2.393743	-1.893588	1	3.05216	-38.34602	-2.188391E-005	0.000364	11
	20	65	2987.132	2.45486	-2.386313	1	3.42357	-44.1888	-7.773742E-005	0.0003497	11
	21	67	2390.625	2.5271	-2.946814	1	3.882003	-49.38459	-6.285106E-005	0.0003393	11
	22	69	1884.191	2.632533	-3.692594	1	4.534918	-54.51408	8.368535E-006	-0.0001492	10
	23	72	1516.544	2.753156	-4.528378	1	5.299629	-58.7013	-2.101012E-005	-0.0001123	10
	24	74	1193.986	2.92746	-5.6626	1	6.374564	-62.66187	-2.288825E-005	-0.0001099	10
	25	76	946.5144	3.160114	-7.030746	1	7.708289	-65.79748	-8.432951E-006	-0.0001392	10
	26	79	751.7689	3.473826	-8.707285	1	9.374661	-68.25016	1.956357E-005	-0.0001467	10
	27	81	597.4265	3.904208	-10.7729	1	11.45854	-70.07896	-1.397549E-005	-0.0001644	10
	28	83	477.4305	4.488112	-13.24754	1	13.98715	-71.28422	-3.403146E-007	-0.00011	10
	29	86	376.6741	5.352147	-16.43657	1	17.28601	-71.96349	-3.958676E-007	-0.000113	10
	30	88	298.2954	6.559191	-20.27033	1	21.30515	-72.06916	-5.833618E-007	-0.0001082	10
	31	90	237.7717	8.21426	-24.75749	1	26.08462	-71.64473	-8.003644E-007	-0.0001106	10
	32	93	189.0121	10.565	-30.16055	1	31.95744	-70.69505	-9.17183E-007	-0.0001142	10
	33	95	150.2404	13.84487	-36.47203	1	39.0114	-69.21313	-3.333359E-007	-0.0001203	10
	34	98	119.1737	18.38828	-43.70927	1	47.41972	-67.18375	5.114305E-007	-0.0001284	9
	35	100	95.0169	24.40751	-51.59566	1	57.07748	-64.68334	8.774751E-007	-0.0001345	9
	36	103	75.60484	32.39623	-60.06968	1	68.24867	-61.66153	1.208245E-006	-0.0001348	9
	37	105	54.50582	47.70828	-72.14403	1	86.49185	-56.52365	1.833967E-006	-0.0001329	9
	38	108	45.95588	57.53923	-77.95333	1	96.889	-53.56807	2.210105E-006	-0.0001283	9
	39	110	37.20238	71.39798	-84.04353	1	110.2769	-49.65091	1.689141E-006	-0.0001285	9
	40	112	30.04808	86.83189	-88.52677	1	124.0031	-45.55376	2.630112E-006	-0.0001336	9
	41	115	23.91582	104.2328	-91.02557	1	138.384	-41.13043	3.574201E-006	-0.0001358	9
	42	118	18.60119	123.3292	-91.18506	1	153.378	-36.47784	3.331487E-006	-0.0001255	9
	43	120	15.02404	138.9138	-89.29922	1	165.1405	-32.7345	3.47503E-006	-0.0001349	9
	44	122	12.01923	154.0017	-85.90469	1	176.3409	-29.1535	4.498708E-006	-0.000129	9
	45	125	9.450605	168.4321	-81.29407	1	187.0244	-25.76436	4.423879E-006	-0.000126	9
	46	128	7.512019	180.8399	-76.71729	1	196.4398	-22.98801	2.786112E-006	-0.0001303	9
	47	131	5.978954	191.7532	-72.35086	1	204.9486	-20.67211	3.672941E-006	-0.0001341	9
	48	135	4.734848	202.0081	-68.58694	1	213.3341	-18.75367	2.357044E-006	-0.0001581	9
	49	140	3.75601	211.5552	-65.52715	1	221.471	-17.20986	1.732907E-006	-0.0001484	9
	50	145	3.004808	220.2348	-63.24308	1	229.1354	-16.02206	2.746982E-006	-0.0001502	9
	51	152	2.372217	229.2489	-61.73228	1	237.4151	-15.07115	1.357436E-006	-0.000103	9
	52	156	1.878005	238.5432	-61.01423	1	246.2227	-14.34743	1.572784E-006	-0.0001367	9
	53	165	1.512097	247.2221	-61.09997	1	254.6605	-13.88224	1.71724E-006	-0.0001999	9
	54	176	1.201923	257.1934	-62.04839	1	264.5721	-13.56354	1.443062E-006	-0.0001467	9
	55	189	0.956633	267.5753	-63.57394	1	275.024	-13.36525	-5.46064E-007	-0.0006783	9
