EXPLAIN
TAG	EISPOT
TITLE	LABEL	Potentiostatic EIS	Test Identifier
DATE	LABEL	10/12/2021	Date
TIME	LABEL	18:45:01	Time
NOTES	NOTES	1	Notes...
	
PSTAT	PSTAT	REF3000-16137	Potentiostat
VDC	POTEN	0.00000E+000	T	DC Voltage (V)
FREQINIT	QUANT	3.00000E+005	Initial Freq. (Hz)
FREQFINAL	QUANT	1.00000E+000	Final Freq. (Hz)
PTSPERDEC	QUANT	1.00000E+001	Points/decade
VAC	QUANT	5.00000E+001	AC Voltage (mV rms)
AREA	QUANT	1.00000E+000	Sample Area (cm^2)
SPEED	SELECTOR	2	Optimize for:
ZGUESS	QUANT	1.00000E+003	Estimated Z (ohms)
EOC	QUANT	0	Open Circuit (V)
SEQUENCER	TOGGLE	TRUE	Run as Sequence
PSTATMODEL	IQUANT	5	Pstat Model
PSTATSECTION	LABEL	REF3000-16137	Pstat Section
PSTATSERIALNO	LABEL	16137	Pstat Serial Number
CTRLMODE	IQUANT	1	Control Mode
IESTAB	IQUANT	0	I/E Stability
CASPEED	IQUANT	1	Control Amp Speed
CONVENTION	IQUANT	1	Current Convention
ICHRANGE	IQUANT	2	Ich Range
ICHRANGEMODE	TOGGLE	F	Ich Auto Range
ICHOFFSETENABLE	TOGGLE	T	Ich Offset Enable
ICHOFFSET	QUANT	0	Ich Offset (V)
ICHFILTER	IQUANT	3	Ich Filter
VCHRANGE	IQUANT	2	Vch Range
VCHRANGEMODE	TOGGLE	F	Vch Auto Range
VCHOFFSETENABLE	TOGGLE	T	Vch Offset Enable
VCHOFFSET	QUANT	0	Vch Offset (V)
VCHFILTER	IQUANT	3	Vch Filter
ACHRANGE	IQUANT	2	Ach Range
ACHOFFSETENABLE	TOGGLE	F	Ach Offset Enable
ACHOFFSET	QUANT	0	Ach Offset (V)
ACHFILTER	IQUANT	3	Ach Filter
IERANGELOWERLIMIT	IQUANT	2	I/E Range Lower Limit
IERANGEMODE	TOGGLE	F	I/E AutoRange
IERANGE	IQUANT	11	I/E Range
POSFEEDENABLE	TOGGLE	F	Positive Feedback IR Comp
POSFEEDRESISTANCE	QUANT	0	Positive Feedback Resistance (ohm)
ACHSELECT	IQUANT	0	Ach Select
CABLEID	IQUANT	13	Cable ID
DCCALDATE	LABEL	9/10/2021	DC Calibration Date
ACCALDATE	LABEL	9/10/2021	AC Calibration Date
THERMOSELECT	IQUANT	1	Thermo Select
FRAMEWORKVERSION	QUANT	6.33	Framework Version
INSTRUMENTVERSION	LABEL	3.50	Instrument Version
COMPLIANCEVOLTAGE	IQUANT	0	Compliance Voltage
ZCURVE	TABLE
	Pt	Time	Freq	Zreal	Zimag	Zsig	Zmod	Zphz	Idc	Vdc	IERange
	#	s	Hz	ohm	ohm	V	ohm	°	A	V	#
	0	10	300046.9	2.425749	2.371979	1	3.39272	44.35789	-2.768696E-005	-0.0004565	11
	1	13	238359.4	2.379141	1.876052	1	3.029832	38.25725	-2.303132E-005	-0.0005162	11
	2	16	189328.1	2.348801	1.483949	1	2.778304	32.2843	-7.339064E-005	-0.0002301	11
	3	19	150421.9	2.377151	1.031587	1	2.591335	23.45889	-0.0001109	-0.0005684	12
	4	23	119484.4	2.350864	0.7982818	1	2.482703	18.75592	-8.090302E-005	-0.0003705	12
	5	26	94921.88	2.332805	0.5997708	1	2.408673	14.41862	-8.186527E-005	-0.0002903	12
	6	30	75421.88	2.32097	0.4342802	1	2.36125	10.59815	-3.284184E-005	-0.0002808	12
	7	34	59859.37	2.317264	0.292273	1	2.335623	7.188671	-3.697816E-005	-0.0001925	12
	8	37	47578.12	2.312876	0.2090888	1	2.322307	5.165618	-6.083088E-005	0.0002751	11
	9	40	37828.12	2.317006	0.0864901	1	2.31862	2.137767	-8.155587E-005	0.0003005	11
	10	42	30046.88	2.321813	-0.0314113	1	2.322026	-0.7750944	-6.716637E-005	0.0003063	11
	11	45	23859.38	2.328748	-0.149453	1	2.333539	-3.672058	-5.215194E-005	0.0003194	11
	12	47	18984.38	2.338563	-0.2723113	1	2.354364	-6.64183	-5.263628E-005	0.0003688	11
	13	49	15046.87	2.349466	-0.4096673	1	2.384914	-9.89101	-5.26518E-005	0.0003716	11
	14	52	11953.13	2.362767	-0.5647115	1	2.429314	-13.44178	-9.038918E-005	0.0003354	11
	15	54	9515.62	2.380822	-0.7438726	1	2.494326	-17.35108	-6.942051E-005	0.0003315	11
	16	56	7546.875	2.401693	-0.960178	1	2.586517	-21.79115	-2.365793E-005	0.0003761	11
	17	59	5928.309	2.431174	-1.234681	1	2.726727	-26.92391	-1.793812E-005	0.0003994	11
	18	61	4733.456	2.466152	-1.546531	1	2.910956	-32.09195	-2.0002E-005	0.0003975	11
	19	63	3796.875	2.509812	-1.919061	1	3.159423	-37.40238	-7.055974E-005	0.0003635	11
	20	66	2987.132	2.56892	-2.41534	1	3.526077	-43.2351	-5.199257E-005	0.0003719	11
	21	68	2390.625	2.642689	-2.986358	1	3.987749	-48.49373	3.11809E-006	-0.0001484	10
	22	70	1884.191	2.740775	-3.739484	1	4.636333	-53.76124	1.990124E-005	-0.0001479	10
	23	73	1516.544	2.856324	-4.586329	1	5.403055	-58.08572	-2.374498E-005	-0.0001134	10
	24	75	1193.986	3.024493	-5.736029	1	6.484565	-62.19822	8.015013E-006	-0.0001463	10
	25	77	946.5144	3.247364	-7.122593	1	7.827944	-65.4906	2.465892E-005	-0.0001383	10
	26	80	751.7689	3.530161	-8.834974	1	9.51414	-68.22	1.686152E-005	-0.0001369	10
	27	82	597.4265	3.918755	-10.93501	1	11.61598	-70.28395	-1.98836E-005	-0.000113	10
	28	84	477.4305	4.456973	-13.46283	1	14.18141	-71.68248	-7.126695E-007	-0.0001136	10
	29	87	376.6741	5.237625	-16.73407	1	17.53459	-72.62032	-5.651224E-007	-0.0001161	10
	30	89	298.2954	6.324531	-20.69065	1	21.63568	-73.00313	-8.724003E-007	-0.0001144	10
	31	91	237.7717	7.810874	-25.35905	1	26.53472	-72.88058	-6.1567E-007	-0.0001169	10
	32	94	189.0121	9.92904	-31.04515	1	32.59428	-72.26438	-7.835982E-007	-0.0001525	10
	33	96	150.2404	12.90169	-37.7925	1	39.93402	-71.151	-1.012965E-006	-0.0001128	10
	34	99	119.1737	17.06649	-45.70094	1	48.78362	-69.52243	5.515669E-007	-0.0001292	9
	35	101	95.0169	22.67992	-54.57011	1	59.09548	-67.43171	3.041375E-007	-0.0001323	9
	36	103	75.60484	30.2946	-64.47639	1	71.2388	-64.83324	4.346391E-007	-0.0001411	9
	37	106	54.50582	45.47775	-79.58501	1	91.66242	-60.2548	1.070257E-006	-0.0001369	9
	38	109	45.95588	55.63796	-87.4479	1	103.6471	-57.5338	1.300643E-006	-0.0001304	9
	39	111	37.20238	70.45369	-96.4792	1	119.4653	-53.86131	1.550383E-006	-0.0001289	9
	40	113	30.04808	87.87505	-104.2214	1	136.3236	-49.86383	2.308784E-006	-0.0001342	9
	41	116	23.91582	108.1903	-110.1045	1	154.3636	-45.5024	3.421089E-006	-0.0001402	9
	42	118	18.60119	132.1415	-113.3064	1	174.0682	-40.61186	2.691304E-006	-0.0001273	9
	43	120	15.02404	152.4224	-113.1734	1	189.8442	-36.59384	3.006775E-006	-0.0001218	9
	44	123	12.01923	172.6805	-110.5514	1	205.037	-32.62768	4.293063E-006	-0.0001809	9
	45	125	9.450605	192.771	-105.8612	1	219.9256	-28.77361	2.665689E-006	-0.0001256	9
	46	128	7.512019	209.9584	-100.3303	1	232.6987	-25.54118	3.229455E-006	-0.0001512	9
	47	131	5.978954	225.0555	-94.46338	1	244.0764	-22.76944	3.783262E-006	-0.0001331	9
	48	136	4.734848	239.193	-89.04951	1	255.2315	-20.41987	2.293882E-006	-0.0001555	9
	49	140	3.75601	251.8868	-84.14101	1	265.5685	-18.47154	2.352431E-006	-0.0001323	9
	50	146	3.004808	263.1603	-80.35126	1	275.1539	-16.97911	3.431424E-006	-0.0001655	9
	51	152	2.372217	275.0016	-77.26563	1	285.6499	-15.69347	2.290963E-006	-0.0001935	9
	52	160	1.878005	286.9146	-75.66764	1	296.7247	-14.77415	3.097068E-006	-0.0001205	9
	53	169	1.512097	297.5343	-74.71811	1	306.7727	-14.09686	2.855093E-006	-0.0002247	9
	54	180	1.201923	309.8709	-74.83702	1	318.7798	-13.57753	2.131884E-006	-0.0001027	9
	55	192	0.956633	322.4844	-75.80452	1	331.274	-13.22803	-3.736623E-008	-0.0006718	9
