EXPLAIN
TAG	EISPOT
TITLE	LABEL	Potentiostatic EIS	Test Identifier
DATE	LABEL	10/12/2021	Date
TIME	LABEL	19:17:58	Time
NOTES	NOTES	1	Notes...
	
PSTAT	PSTAT	REF3000-16137	Potentiostat
VDC	POTEN	0.00000E+000	T	DC Voltage (V)
FREQINIT	QUANT	3.00000E+005	Initial Freq. (Hz)
FREQFINAL	QUANT	1.00000E+000	Final Freq. (Hz)
PTSPERDEC	QUANT	1.00000E+001	Points/decade
VAC	QUANT	5.00000E+001	AC Voltage (mV rms)
AREA	QUANT	1.00000E+000	Sample Area (cm^2)
SPEED	SELECTOR	2	Optimize for:
ZGUESS	QUANT	1.00000E+003	Estimated Z (ohms)
EOC	QUANT	0	Open Circuit (V)
SEQUENCER	TOGGLE	TRUE	Run as Sequence
PSTATMODEL	IQUANT	5	Pstat Model
PSTATSECTION	LABEL	REF3000-16137	Pstat Section
PSTATSERIALNO	LABEL	16137	Pstat Serial Number
CTRLMODE	IQUANT	1	Control Mode
IESTAB	IQUANT	0	I/E Stability
CASPEED	IQUANT	1	Control Amp Speed
CONVENTION	IQUANT	1	Current Convention
ICHRANGE	IQUANT	2	Ich Range
ICHRANGEMODE	TOGGLE	F	Ich Auto Range
ICHOFFSETENABLE	TOGGLE	T	Ich Offset Enable
ICHOFFSET	QUANT	0	Ich Offset (V)
ICHFILTER	IQUANT	3	Ich Filter
VCHRANGE	IQUANT	2	Vch Range
VCHRANGEMODE	TOGGLE	F	Vch Auto Range
VCHOFFSETENABLE	TOGGLE	T	Vch Offset Enable
VCHOFFSET	QUANT	0	Vch Offset (V)
VCHFILTER	IQUANT	3	Vch Filter
ACHRANGE	IQUANT	2	Ach Range
ACHOFFSETENABLE	TOGGLE	F	Ach Offset Enable
ACHOFFSET	QUANT	0	Ach Offset (V)
ACHFILTER	IQUANT	3	Ach Filter
IERANGELOWERLIMIT	IQUANT	2	I/E Range Lower Limit
IERANGEMODE	TOGGLE	F	I/E AutoRange
IERANGE	IQUANT	11	I/E Range
POSFEEDENABLE	TOGGLE	F	Positive Feedback IR Comp
POSFEEDRESISTANCE	QUANT	0	Positive Feedback Resistance (ohm)
ACHSELECT	IQUANT	0	Ach Select
CABLEID	IQUANT	13	Cable ID
DCCALDATE	LABEL	9/10/2021	DC Calibration Date
ACCALDATE	LABEL	9/10/2021	AC Calibration Date
THERMOSELECT	IQUANT	1	Thermo Select
FRAMEWORKVERSION	QUANT	6.33	Framework Version
INSTRUMENTVERSION	LABEL	3.50	Instrument Version
COMPLIANCEVOLTAGE	IQUANT	0	Compliance Voltage
ZCURVE	TABLE
	Pt	Time	Freq	Zreal	Zimag	Zsig	Zmod	Zphz	Idc	Vdc	IERange
	#	s	Hz	ohm	ohm	V	ohm	°	A	V	#
	0	10	300046.9	5.936026	2.358131	1	6.387268	21.66582	2.241838E-005	-0.0006916	10
	1	13	238359.4	5.908316	1.873643	1	6.198285	17.59484	-9.480338E-005	-0.0008869	10
	2	16	189328.1	5.900858	1.477115	1	6.082927	14.05361	-2.501671E-005	-0.000664	10
	3	19	150421.9	5.917655	1.151212	1	6.028592	11.00874	-2.630355E-005	-0.0004858	10
	4	21	119484.4	5.913543	0.8847972	1	5.97937	8.509593	2.707654E-005	-0.0003867	10
	5	24	94921.88	5.930837	0.6802906	1	5.969725	6.543457	-1.329702E-005	-0.0002228	10
	6	26	75421.88	5.942436	0.4915837	1	5.962734	4.728984	-1.457397E-005	-0.0001978	10
	7	29	59859.37	5.956022	0.3263418	1	5.964955	3.136209	1.941755E-005	-0.0002337	10
	8	32	47578.12	5.97517	0.1827841	1	5.977965	1.752167	-2.865509E-005	-0.000181	10
	9	34	37828.12	5.997364	0.0506253	1	5.997577	0.4836366	2.034833E-005	-0.0001596	10
	10	37	30046.88	6.020166	-0.0762919	1	6.02065	-0.7260551	5.322986E-006	-0.0001788	10
	11	39	23859.38	6.043791	-0.2040299	1	6.047234	-1.933491	-3.039288E-005	-0.000145	10
	12	41	18984.38	6.068588	-0.3390513	1	6.078052	-3.197784	1.860702E-005	-0.0001674	10
	13	44	15046.87	6.094096	-0.490713	1	6.113821	-4.603677	-7.712688E-006	-0.0001531	10
	14	46	11953.13	6.125146	-0.6647953	1	6.161117	-6.194375	2.353948E-005	-0.0001496	10
	15	48	9515.62	6.158136	-0.8663665	1	6.218781	-8.008183	6.694559E-007	-0.0001636	10
	16	51	7546.875	6.196084	-1.112615	1	6.295186	-10.17997	2.293486E-005	-0.0001257	10
	17	53	5928.309	6.240116	-1.424569	1	6.40066	-12.85979	6.715086E-006	-0.0001306	10
	18	55	4733.456	6.289405	-1.781306	1	6.536793	-15.81336	1.623616E-005	-0.0001387	10
	19	58	3796.875	6.347837	-2.209162	1	6.721268	-19.18882	-1.979372E-005	-8.151549E-005	10
	20	60	2987.132	6.41968	-2.782907	1	6.996918	-23.43655	-2.521436E-005	-0.0001029	10
	21	62	2390.625	6.499508	-3.442215	1	7.354757	-27.90621	-2.70963E-005	-0.0001296	10
	22	65	1884.191	6.605586	-4.312691	1	7.888794	-33.13993	-2.448631E-005	-0.0001082	10
	23	67	1516.544	6.721651	-5.290522	1	8.553959	-38.20581	-1.011956E-005	-0.0001262	10
	24	69	1193.986	6.875731	-6.625541	1	9.54848	-43.93839	-2.627256E-005	-0.000109	10
	25	72	946.5144	7.056634	-8.242396	1	10.85049	-49.43189	-1.865167E-005	-0.0001396	10
	26	74	751.7689	7.283051	-10.22077	1	12.55018	-54.52732	-2.575222E-005	-0.0001091	10
	27	76	597.4265	7.560168	-12.67484	1	14.75831	-59.18517	-1.413252E-005	-0.000113	10
	28	79	477.4305	7.903054	-15.63395	1	17.51795	-63.18314	-1.129301E-006	-0.0001149	10
	29	81	376.6741	8.339918	-19.50788	1	21.21584	-66.85255	-6.18948E-007	-0.0001224	10
	30	83	298.2954	8.880041	-24.26419	1	25.83807	-69.89874	-1.245639E-006	-0.000121	10
	31	86	237.7717	9.54133	-30.00149	1	31.48216	-72.35786	-1.705892E-006	-0.0001203	10
	32	88	189.0121	10.39421	-37.20486	1	38.62954	-74.39082	-1.413523E-006	-0.0001114	10
	33	91	150.2404	11.46932	-46.06853	1	47.47478	-76.01974	5.119552E-007	-0.0001744	9
	34	93	119.1737	12.91348	-57.24939	1	58.68773	-77.28879	1.250336E-007	-0.0001292	9
	35	95	95.0169	14.75193	-70.7506	1	72.27216	-78.22223	1.441005E-007	-0.0001303	9
	36	98	75.60484	17.221	-87.60316	1	89.27977	-78.87862	6.380051E-008	-0.0001314	9
	37	100	54.50582	22.26842	-118.8135	1	120.8823	-79.38459	8.926707E-008	-0.0001329	9
	38	103	45.95588	25.95963	-139.2388	1	141.6381	-79.43905	2.485354E-007	-0.0001264	9
	39	105	37.20238	31.79002	-169.2403	1	172.2002	-79.36156	2.753871E-007	-0.0001339	9
	40	108	30.04808	39.60183	-205.8483	1	209.6231	-79.11028	1.749085E-007	-0.0001311	9
	41	110	23.91582	50.97844	-253.2446	1	258.3247	-78.6184	1.561981E-007	-0.0001308	9
	42	113	18.60119	68.39261	-317.4281	1	324.7124	-77.84101	1.605307E-007	-0.0001299	9
	43	115	15.02404	88.08283	-383.5804	1	393.5638	-77.06719	1.903586E-007	-0.0001207	9
	44	117	12.01923	115.1461	-464.2009	1	478.2689	-76.06883	4.614958E-007	-0.0001202	8
	45	120	9.450605	155.7808	-570.637	1	591.5186	-74.73063	3.794699E-007	-0.000117	8
	46	122	7.512019	208.2498	-692.4391	1	723.0767	-73.26144	4.531326E-007	-0.0001515	8
	47	125	5.978954	277.9307	-835.6774	1	880.6828	-71.60384	4.756432E-007	-0.0001129	8
	48	128	4.734848	376.7148	-1006.377	1	1074.574	-69.47774	5.690696E-007	-0.0001187	8
	49	131	3.75601	508.7814	-1199.197	1	1302.663	-67.01003	5.5439E-007	-0.0001258	8
	50	135	3.004808	677.7664	-1404.003	1	1559.036	-64.23161	6.564944E-007	-0.0001412	8
	51	138	2.372217	912.7637	-1630.774	1	1868.839	-60.76374	6.499723E-007	-0.0001271	8
	52	142	1.878005	1211.144	-1858.669	1	2218.449	-56.91098	6.526054E-007	-0.0001207	8
	53	147	1.512097	1540.073	-2057.113	1	2569.735	-53.17936	7.328077E-007	-0.0001841	8
	54	158	1.201923	1955.758	-2244.168	1	2976.79	-48.92835	7.345635E-007	-0.0001306	8
	55	171	0.956633	2411.081	-2383.068	1	3390.033	-44.66522	6.666335E-007	-0.0006642	8
