EXPLAIN
TAG	EISPOT
TITLE	LABEL	Potentiostatic EIS	Test Identifier
DATE	LABEL	10/12/2021	Date
TIME	LABEL	18:12:33	Time
NOTES	NOTES	1	Notes...
	
PSTAT	PSTAT	REF3000-16137	Potentiostat
VDC	POTEN	0.00000E+000	T	DC Voltage (V)
FREQINIT	QUANT	3.00000E+005	Initial Freq. (Hz)
FREQFINAL	QUANT	1.00000E+000	Final Freq. (Hz)
PTSPERDEC	QUANT	1.00000E+001	Points/decade
VAC	QUANT	5.00000E+001	AC Voltage (mV rms)
AREA	QUANT	1.00000E+000	Sample Area (cm^2)
SPEED	SELECTOR	2	Optimize for:
ZGUESS	QUANT	1.00000E+003	Estimated Z (ohms)
EOC	QUANT	0	Open Circuit (V)
SEQUENCER	TOGGLE	TRUE	Run as Sequence
PSTATMODEL	IQUANT	5	Pstat Model
PSTATSECTION	LABEL	REF3000-16137	Pstat Section
PSTATSERIALNO	LABEL	16137	Pstat Serial Number
CTRLMODE	IQUANT	1	Control Mode
IESTAB	IQUANT	0	I/E Stability
CASPEED	IQUANT	1	Control Amp Speed
CONVENTION	IQUANT	1	Current Convention
ICHRANGE	IQUANT	2	Ich Range
ICHRANGEMODE	TOGGLE	F	Ich Auto Range
ICHOFFSETENABLE	TOGGLE	T	Ich Offset Enable
ICHOFFSET	QUANT	0	Ich Offset (V)
ICHFILTER	IQUANT	3	Ich Filter
VCHRANGE	IQUANT	2	Vch Range
VCHRANGEMODE	TOGGLE	F	Vch Auto Range
VCHOFFSETENABLE	TOGGLE	T	Vch Offset Enable
VCHOFFSET	QUANT	0	Vch Offset (V)
VCHFILTER	IQUANT	3	Vch Filter
ACHRANGE	IQUANT	2	Ach Range
ACHOFFSETENABLE	TOGGLE	F	Ach Offset Enable
ACHOFFSET	QUANT	0	Ach Offset (V)
ACHFILTER	IQUANT	0	Ach Filter
IERANGELOWERLIMIT	IQUANT	2	I/E Range Lower Limit
IERANGEMODE	TOGGLE	F	I/E AutoRange
IERANGE	IQUANT	11	I/E Range
POSFEEDENABLE	TOGGLE	F	Positive Feedback IR Comp
POSFEEDRESISTANCE	QUANT	0	Positive Feedback Resistance (ohm)
ACHSELECT	IQUANT	0	Ach Select
CABLEID	IQUANT	13	Cable ID
DCCALDATE	LABEL	9/10/2021	DC Calibration Date
ACCALDATE	LABEL	9/10/2021	AC Calibration Date
THERMOSELECT	IQUANT	1	Thermo Select
FRAMEWORKVERSION	QUANT	6.33	Framework Version
INSTRUMENTVERSION	LABEL	3.50	Instrument Version
COMPLIANCEVOLTAGE	IQUANT	0	Compliance Voltage
ZCURVE	TABLE
	Pt	Time	Freq	Zreal	Zimag	Zsig	Zmod	Zphz	Idc	Vdc	IERange
	#	s	Hz	ohm	ohm	V	ohm	°	A	V	#
	0	10	300046.9	1.819897	2.378265	1	2.99469	52.57605	4.494813E-005	-0.0006988	11
	1	13	238359.4	1.906789	1.735284	1	2.578188	42.30394	-0.0001845	-0.0011128	12
	2	17	189328.1	1.825555	1.372117	1	2.283716	36.92913	-0.0001789	-0.0007692	12
	3	21	150421.9	1.711683	1.176113	1	2.076801	34.49332	-4.90318E-005	-5.492781E-005	11
	4	24	119484.4	1.700032	0.9134237	1	1.929883	28.24905	-0.0001913	-0.0001765	11
	5	26	94921.88	1.693111	0.6934565	1	1.82962	22.27279	-2.959905E-005	9.386254E-005	11
	6	29	75421.88	1.689229	0.5155798	1	1.766158	16.97304	-4.439089E-005	0.0001636	11
	7	31	59859.37	1.687732	0.3623121	1	1.726183	12.11602	-2.417753E-005	0.000223	11
	8	34	47578.12	1.687745	0.2294142	1	1.703266	7.740738	-2.53768E-005	0.0002842	11
	9	36	37828.12	1.689381	0.1103842	1	1.692983	3.738396	-5.413212E-005	0.0003047	11
	10	39	30046.88	1.693144	-0.0025962	1	1.693146	-0.0878552	-2.133794E-005	0.0003518	11
	11	41	23859.38	1.69801	-0.1146054	1	1.701874	-3.86126	-1.579558E-005	0.0003665	11
	12	44	18984.38	1.705386	-0.2298095	1	1.720801	-7.674667	-4.130902E-005	0.0002984	11
	13	46	15046.87	1.715295	-0.3569403	1	1.752039	-11.75507	-3.853581E-005	0.0003405	11
	14	48	11953.13	1.728851	-0.4989998	1	1.799424	-16.09978	-3.84422E-005	0.0003435	11
	15	51	9515.62	1.747033	-0.6621465	1	1.868304	-20.75731	-4.153562E-005	0.0003139	11
	16	53	7546.875	1.770796	-0.8576998	1	1.967579	-25.84362	-6.158091E-005	0.0003388	11
	17	55	5928.309	1.805498	-1.10408	1	2.116321	-31.44619	-6.999439E-005	0.0003638	11
	18	57	4733.456	1.847609	-1.382537	1	2.307611	-36.80694	-8.32588E-005	0.0003584	11
	19	60	3796.875	1.902513	-1.712856	1	2.559967	-41.99709	-0.0000998	0.0003444	11
	20	62	2987.132	1.985227	-2.152004	1	2.92784	-47.30843	-4.863716E-005	0.0003794	11
	21	64	2390.625	2.087907	-2.652979	1	3.376041	-51.79709	-4.315424E-005	0.000387	11
	22	67	1884.191	2.243072	-3.304889	1	3.994204	-55.83474	-1.916786E-005	0.0004036	11
	23	69	1516.544	2.43999	-4.035446	1	4.715758	-58.84118	-4.19451E-006	-0.0001238	10
	24	71	1193.986	2.740584	-5.006107	1	5.707181	-61.30158	-1.905652E-005	-0.0001125	10
	25	74	946.5144	3.152614	-6.149033	1	6.910107	-62.85575	1.780631E-005	-0.0001499	10
	26	76	751.7689	3.734	-7.491631	1	8.370621	-63.50729	-2.357965E-005	-0.0001203	10
	27	78	597.4265	4.544243	-9.06735	1	10.14234	-63.38155	-2.521049E-005	-0.0001229	10
	28	81	477.4305	5.629878	-10.81993	1	12.19698	-62.51091	2.039015E-007	-0.0001172	10
	29	83	376.6741	7.181587	-12.87185	1	14.73973	-60.84155	1.11355E-006	-0.0001277	10
	30	85	298.2954	9.206896	-15.02231	1	17.61921	-58.49663	9.772749E-007	-0.0001221	10
	31	88	237.7717	11.71131	-17.12428	1	20.74598	-55.63174	1.431599E-006	-0.0001278	10
	32	90	189.0121	14.80637	-19.11853	1	24.18153	-52.24397	4.898395E-006	-0.0001666	10
	33	93	150.2404	18.42038	-20.82115	1	27.79984	-48.50096	1.329345E-006	-0.0001242	10
	34	95	119.1737	22.46977	-22.09203	1	31.51108	-44.51434	1.82429E-006	-0.0001192	10
	35	97	95.0169	26.64925	-22.81555	1	35.08179	-40.56822	2.729075E-006	-0.0001221	10
	36	100	75.60484	30.86	-22.99379	1	38.48447	-36.6898	5.482437E-006	-0.0001375	9
	37	102	54.50582	36.64162	-22.51887	1	43.00823	-31.57366	6.41632E-006	-0.0001352	9
	38	105	45.95588	39.44046	-22.02802	1	45.17503	-29.18394	2.997707E-006	-0.0001317	9
	39	107	37.20238	42.63908	-21.28698	1	47.65739	-26.53004	2.044118E-006	-0.0001367	9
	40	110	30.04808	45.57806	-20.48546	1	49.97012	-24.20196	1.779232E-006	-0.0001293	9
	41	112	23.91582	48.42311	-19.66955	1	52.26556	-22.10707	8.745371E-006	-0.0001386	9
	42	115	18.60119	51.32338	-18.93999	1	54.7066	-20.2557	8.296344E-006	-0.0001381	9
	43	117	15.02404	53.61159	-18.45135	1	56.69792	-18.99178	5.385646E-006	-0.0001287	9
	44	119	12.01923	55.9052	-18.09901	1	58.76194	-17.93908	-5.008044E-006	-0.0001366	9
	45	122	9.450605	58.30251	-17.98402	1	61.01318	-17.14292	-4.877394E-006	-0.0001227	9
	46	124	7.512019	60.59602	-18.17789	1	63.26384	-16.69845	-1.629807E-006	-0.0001472	9
	47	127	5.978954	62.91471	-18.47925	1	65.57243	-16.36852	-4.193665E-006	-0.0001274	9
	48	130	4.734848	65.36932	-18.93406	1	68.05621	-16.15353	1.662182E-006	-0.0001304	9
	49	133	3.75601	67.94939	-19.71109	1	70.7506	-16.17665	-3.960739E-006	-0.0001398	9
	50	137	3.004808	70.43424	-20.55758	1	73.37299	-16.27089	5.354442E-006	-0.0001631	9
	51	140	2.372217	73.43454	-21.70857	1	76.57607	-16.46863	-3.177168E-006	-0.0001818	9
	52	144	1.878005	76.62112	-23.11617	1	80.0322	-16.78828	-3.824546E-006	-0.0001365	9
	53	149	1.512097	79.51608	-24.53463	1	83.21512	-17.14757	-7.029853E-007	-0.0002205	9
	54	155	1.201923	82.96956	-26.41706	1	87.07358	-17.66119	-2.677233E-006	-0.0001235	9
	55	161	0.956633	86.72983	-28.54729	1	91.30724	-18.21906	-4.546084E-006	-0.0006752	9
