EXPLAIN
TAG	EISPOT
TITLE	LABEL	Potentiostatic EIS	Test Identifier
DATE	LABEL	8/21/2020	Date
TIME	LABEL	23:11:23	Time
NOTES	NOTES	1	Notes...
	
PSTAT	PSTAT	REF3000-16137	Potentiostat
VDC	POTEN	0.00000E+000	T	DC Voltage (V)
FREQINIT	QUANT	3.00000E+005	Initial Freq. (Hz)
FREQFINAL	QUANT	1.00000E+000	Final Freq. (Hz)
PTSPERDEC	QUANT	1.00000E+001	Points/decade
VAC	QUANT	5.00000E+001	AC Voltage (mV rms)
AREA	QUANT	1.00000E+000	Sample Area (cm^2)
SPEED	SELECTOR	2	Optimize for:
ZGUESS	QUANT	1.00000E+003	Estimated Z (ohms)
EOC	QUANT	0	Open Circuit (V)
SEQUENCER	TOGGLE	TRUE	Run as Sequence
PSTATMODEL	IQUANT	5	Pstat Model
PSTATSECTION	LABEL	REF3000-16137	Pstat Section
PSTATSERIALNO	LABEL	16137	Pstat Serial Number
CTRLMODE	IQUANT	1	Control Mode
IESTAB	IQUANT	0	I/E Stability
CASPEED	IQUANT	1	Control Amp Speed
CONVENTION	IQUANT	1	Current Convention
ICHRANGE	IQUANT	2	Ich Range
ICHRANGEMODE	TOGGLE	F	Ich Auto Range
ICHOFFSETENABLE	TOGGLE	T	Ich Offset Enable
ICHOFFSET	QUANT	0	Ich Offset (V)
ICHFILTER	IQUANT	3	Ich Filter
VCHRANGE	IQUANT	2	Vch Range
VCHRANGEMODE	TOGGLE	F	Vch Auto Range
VCHOFFSETENABLE	TOGGLE	T	Vch Offset Enable
VCHOFFSET	QUANT	0	Vch Offset (V)
VCHFILTER	IQUANT	3	Vch Filter
ACHRANGE	IQUANT	2	Ach Range
ACHOFFSETENABLE	TOGGLE	F	Ach Offset Enable
ACHOFFSET	QUANT	0	Ach Offset (V)
ACHFILTER	IQUANT	3	Ach Filter
IERANGELOWERLIMIT	IQUANT	2	I/E Range Lower Limit
IERANGEMODE	TOGGLE	F	I/E AutoRange
IERANGE	IQUANT	11	I/E Range
POSFEEDENABLE	TOGGLE	F	Positive Feedback IR Comp
POSFEEDRESISTANCE	QUANT	0	Positive Feedback Resistance (ohm)
ACHSELECT	IQUANT	0	Ach Select
CABLEID	IQUANT	13	Cable ID
DCCALDATE	LABEL	7/31/2020	DC Calibration Date
ACCALDATE	LABEL	7/31/2020	AC Calibration Date
THERMOSELECT	IQUANT	1	Thermo Select
FRAMEWORKVERSION	QUANT	6.33	Framework Version
INSTRUMENTVERSION	LABEL	3.50	Instrument Version
COMPLIANCEVOLTAGE	IQUANT	0	Compliance Voltage
ZCURVE	TABLE
	Pt	Time	Freq	Zreal	Zimag	Zsig	Zmod	Zphz	Idc	Vdc	IERange
	#	s	Hz	ohm	ohm	V	ohm	°	A	V	#
	0	18	300046.9	33.81245	-4793.756	1	4793.875	-89.59587	-2.981002E-005	-0.0012753	9
	1	33	238359.4	-24.83991	-6203.752	1	6203.802	-90.22941	1.970515E-005	-0.0009373	9
	2	55	189328.1	507.8436	-7174.925	1	7192.875	-85.95134	2.023319E-005	-0.0003274	9
	3	64	150421.9	873.9769	-9219.669	1	9261.001	-84.58484	7.849537E-005	-0.001557	9
	4	72	119484.4	2084.184	-11436.74	1	11625.09	-79.67199	-1.868272E-005	0.0171094	8
	5	80	94921.88	3258.545	-13516.87	1	13904.1	-76.44618	7.991554E-006	0.0042124	8
	6	87	75421.88	5828.615	-15978.64	1	17008.52	-69.95927	8.200867E-006	0.004169	8
	7	96	59859.37	10453.61	-16382.7	1	19433.75	-57.45852	7.935372E-006	-0.0076001	8
	8	105	47578.12	16614.9	-16155.36	1	23174.35	-44.1966	7.413511E-006	-0.0176104	7
	9	111	37828.12	19417.46	-13224.92	1	23493.32	-34.25815	-8.04706E-007	-0.0136246	7
	10	117	30046.88	20136.4	-9370.458	1	22209.91	-24.95487	5.448965E-006	-0.0263906	7
	11	124	23859.38	19626.94	-6447.775	1	20658.91	-18.18621	-6.976136E-006	0.0229562	7
	12	128	18984.38	18649.01	-4476.392	1	19178.73	-13.49756	7.780324E-006	-0.024094	7
	13	132	15046.87	17173.58	-2953.313	1	17425.67	-9.75762	6.234772E-006	-0.0086896	7
	14	136	11953.13	15694.84	-2039.275	1	15826.77	-7.403128	3.659929E-006	-0.0240315	7
	15	141	9515.62	14318.97	-1423.591	1	14389.56	-5.677685	1.544174E-008	0.0168354	7
	16	145	7546.875	12986.97	-1216.237	1	13043.8	-5.350174	6.794492E-006	-0.0256521	7
	17	149	5928.309	11858.39	-993.211	1	11899.91	-4.787687	7.091021E-006	-0.0163152	7
	18	153	4733.456	10813.35	-898.9327	1	10850.65	-4.752172	-2.123861E-006	0.0218044	7
	19	158	3796.875	9911.64	-875.9608	1	9950.27	-5.050506	2.093769E-006	0.0097604	7
	20	162	2987.132	9107.813	-917.0335	1	9153.862	-5.749533	-5.320895E-006	0.0249171	7
	21	166	2390.625	8453.054	-978.4	1	8509.488	-6.602328	-5.310882E-006	0.0247287	7
	22	170	1884.191	7938.836	-1021.169	1	8004.243	-7.329682	4.027473E-006	0.0017339	7
	23	174	1516.544	7375.758	-1166.358	1	7467.409	-8.986004	-2.254564E-006	0.0214252	7
	24	178	1193.986	6898.537	-1310.526	1	7021.915	-10.75639	-6.499905E-006	0.0152608	7
	25	183	946.5144	6548.359	-1410.844	1	6698.619	-12.15852	-3.757981E-007	0.0166872	7
	26	185	751.7689	6384.971	-1587.761	1	6579.425	-13.96458	5.279877E-006	-0.0239105	7
	27	188	597.4265	6034.235	-1743.812	1	6281.152	-16.11858	2.101307E-005	-0.009166	8
	28	192	477.4305	5730.716	-1971.686	1	6060.417	-18.98608	-4.183368E-007	0.0006458	8
	29	196	376.6741	5616.97	-2277.187	1	6061.017	-22.06822	-8.87451E-008	0.0006509	7
	30	198	298.2954	5476.849	-2668.32	1	6092.274	-25.97533	-7.954336E-008	0.0006161	7
	31	200	237.7717	5324.442	-3160.139	1	6191.621	-30.68979	-8.216206E-008	0.0005956	7
	32	203	189.0121	5177.435	-3802.864	1	6423.986	-36.29755	-7.729022E-008	0.00057	7
	33	205	150.2404	5045.717	-4627.457	1	6846.358	-42.52412	-7.612744E-008	0.0005697	7
	34	208	119.1737	4942.648	-5684.54	1	7532.845	-48.99338	-7.425883E-008	0.0005711	7
	35	210	95.0169	4866.047	-6980.713	1	8509.335	-55.1208	-7.932372E-008	0.0006523	7
	36	213	75.60484	4835.615	-8611.65	1	9876.42	-60.68491	-7.373996E-008	0.0005682	7
	37	215	54.50582	4985.796	-11666.32	1	12687.05	-66.85976	-7.761423E-008	0.0006536	7
	38	218	45.95588	5058.405	-13648.16	1	14555.4	-69.66383	-7.589541E-008	0.0005949	7
	39	220	37.20238	5285.471	-16577.2	1	17399.42	-72.31565	-7.559267E-008	0.0006544	7
	40	222	30.04808	5634.362	-20154.46	1	20927.21	-74.38118	-8.101998E-008	0.0006631	7
	41	225	23.91582	6183.345	-24815.07	1	25573.84	-76.00815	-7.534226E-008	0.0006536	7
	42	227	18.60119	7040.656	-31189.25	1	31974.05	-77.27927	-7.75964E-008	0.0006454	7
	43	229	15.02404	8030.606	-37796.25	1	38639.97	-78.00469	-7.55712E-008	0.0006275	7
	44	232	12.01923	9430.104	-46212.1	1	47164.45	-78.46649	-8.60664E-009	0.0006394	6
	45	234	9.450605	11456.63	-57279.48	1	58413.98	-78.68936	-6.616837E-009	0.0006132	6
	46	237	7.512019	14132.03	-70258.59	1	71665.78	-78.62711	-7.269872E-009	0.0006812	6
	47	240	5.978954	17734.16	-85790.29	1	87604.08	-78.32059	-6.553322E-009	0.0006147	6
	48	243	4.734848	22927.69	-104999	1	107473.1	-77.68219	-7.071008E-009	0.000641	6
	49	246	3.75601	29894.2	-127516.2	1	130973.5	-76.80616	-6.764709E-009	0.0006806	6
	50	250	3.004808	39119.27	-152259.6	1	157204.6	-75.59094	-6.866662E-009	0.0006462	6
	51	257	2.372217	52446.33	-182498.2	1	189884.7	-73.96641	-6.821976E-009	0.0006242	6
	52	261	1.878005	69550.16	-217670.7	1	228512	-72.28027	-6.112806E-009	0.000653	6
	53	266	1.512097	89570.72	-252308.9	1	267736.2	-70.45493	-6.411151E-009	0.0006694	6
	54	271	1.201923	116762	-292710.4	1	315139.3	-68.25297	-6.08304E-009	0.0007054	6
	55	277	0.956633	149209	-334345.4	1	366128.6	-65.95013	-7.351547E-009	2.118175E-005	6
