EXPLAIN
TAG	EISPOT
TITLE	LABEL	Potentiostatic EIS	Test Identifier
DATE	LABEL	8/21/2020	Date
TIME	LABEL	21:28:05	Time
NOTES	NOTES	1	Notes...
	
PSTAT	PSTAT	REF3000-16137	Potentiostat
VDC	POTEN	0.00000E+000	T	DC Voltage (V)
FREQINIT	QUANT	3.00000E+005	Initial Freq. (Hz)
FREQFINAL	QUANT	1.00000E+000	Final Freq. (Hz)
PTSPERDEC	QUANT	1.00000E+001	Points/decade
VAC	QUANT	5.00000E+001	AC Voltage (mV rms)
AREA	QUANT	1.00000E+000	Sample Area (cm^2)
SPEED	SELECTOR	2	Optimize for:
ZGUESS	QUANT	1.00000E+003	Estimated Z (ohms)
EOC	QUANT	0	Open Circuit (V)
SEQUENCER	TOGGLE	TRUE	Run as Sequence
PSTATMODEL	IQUANT	5	Pstat Model
PSTATSECTION	LABEL	REF3000-16137	Pstat Section
PSTATSERIALNO	LABEL	16137	Pstat Serial Number
CTRLMODE	IQUANT	1	Control Mode
IESTAB	IQUANT	0	I/E Stability
CASPEED	IQUANT	1	Control Amp Speed
CONVENTION	IQUANT	1	Current Convention
ICHRANGE	IQUANT	2	Ich Range
ICHRANGEMODE	TOGGLE	F	Ich Auto Range
ICHOFFSETENABLE	TOGGLE	T	Ich Offset Enable
ICHOFFSET	QUANT	0	Ich Offset (V)
ICHFILTER	IQUANT	3	Ich Filter
VCHRANGE	IQUANT	2	Vch Range
VCHRANGEMODE	TOGGLE	F	Vch Auto Range
VCHOFFSETENABLE	TOGGLE	T	Vch Offset Enable
VCHOFFSET	QUANT	0	Vch Offset (V)
VCHFILTER	IQUANT	3	Vch Filter
ACHRANGE	IQUANT	2	Ach Range
ACHOFFSETENABLE	TOGGLE	F	Ach Offset Enable
ACHOFFSET	QUANT	0	Ach Offset (V)
ACHFILTER	IQUANT	3	Ach Filter
IERANGELOWERLIMIT	IQUANT	2	I/E Range Lower Limit
IERANGEMODE	TOGGLE	F	I/E AutoRange
IERANGE	IQUANT	11	I/E Range
POSFEEDENABLE	TOGGLE	F	Positive Feedback IR Comp
POSFEEDRESISTANCE	QUANT	0	Positive Feedback Resistance (ohm)
ACHSELECT	IQUANT	0	Ach Select
CABLEID	IQUANT	13	Cable ID
DCCALDATE	LABEL	7/31/2020	DC Calibration Date
ACCALDATE	LABEL	7/31/2020	AC Calibration Date
THERMOSELECT	IQUANT	1	Thermo Select
FRAMEWORKVERSION	QUANT	6.33	Framework Version
INSTRUMENTVERSION	LABEL	3.50	Instrument Version
COMPLIANCEVOLTAGE	IQUANT	0	Compliance Voltage
ZCURVE	TABLE
	Pt	Time	Freq	Zreal	Zimag	Zsig	Zmod	Zphz	Idc	Vdc	IERange
	#	s	Hz	ohm	ohm	V	ohm	°	A	V	#
	0	18	300046.9	420.6168	-38.95801	1	422.4171	-5.291704	-9.048347E-005	0.0020694	9
	1	25	238359.4	425.7053	-35.93614	1	427.2194	-4.825214	7.013409E-006	0.0014145	9
	2	32	189328.1	430.2653	-33.39101	1	431.559	-4.437582	-5.959318E-005	0.0006265	9
	3	37	150421.9	434.7076	-34.29987	1	436.0587	-4.51148	2.304573E-005	-0.0017453	9
	4	44	119484.4	439.8058	-21.03922	1	440.3088	-2.7388	-4.683732E-005	0.0229344	8
	5	47	94921.88	443.7223	-35.77853	1	445.1624	-4.609941	8.877578E-006	-0.0007235	9
	6	51	75421.88	447.9723	-28.27054	1	448.8634	-3.611022	7.097938E-007	0.0040402	8
	7	53	59859.37	452.3111	-34.59259	1	453.632	-4.373447	-9.403682E-006	0.006237	8
	8	56	47578.12	456.7657	-40.55724	1	458.5627	-5.074112	-1.30174E-005	0.0027336	8
	9	58	37828.12	462.1684	-49.06251	1	464.7653	-6.059665	7.647338E-006	-0.0046647	8
	10	61	30046.88	468.8237	-57.40527	1	472.3252	-6.98085	-6.901861E-006	-0.0003161	8
	11	63	23859.38	476.6014	-67.74685	1	481.3923	-8.090152	-3.798699E-006	0.0048286	8
	12	66	18984.38	485.0741	-78.62682	1	491.4052	-9.207131	-4.963864E-006	0.005505	8
	13	68	15046.87	492.3137	-91.39434	1	500.7252	-10.51681	1.49703E-005	-0.0018374	8
	14	71	11953.13	503.3913	-104.3543	1	514.0939	-11.71167	1.395754E-005	-0.0049607	8
	15	73	9515.62	515.8359	-120.8546	1	529.8042	-13.18593	-9.729685E-006	0.0065233	8
	16	75	7546.875	527.7529	-140.8399	1	546.2225	-14.94214	-1.448531E-005	0.0039235	8
	17	77	5928.309	541.0694	-164.0429	1	565.3903	-16.8664	-9.483264E-006	0.0063709	8
	18	80	4733.456	553.3934	-189.1936	1	584.8406	-18.87448	1.167955E-005	-0.0051945	8
	19	82	3796.875	563.049	-223.1735	1	605.6653	-21.62169	2.298188E-007	0.004192	8
	20	85	2987.132	577.1308	-266.4023	1	635.6494	-24.77795	1.465557E-005	-0.002135	8
	21	87	2390.625	591.491	-314.3982	1	669.8566	-27.99221	7.124189E-006	0.0014261	8
	22	90	1884.191	595.6312	-386.0134	1	709.7766	-32.94624	1.564364E-005	-0.0032473	8
	23	92	1516.544	610.1492	-457.6115	1	762.6863	-36.86987	-1.444497E-005	0.004026	8
	24	95	1193.986	622.0999	-565.2482	1	840.5437	-42.2587	-9.805101E-006	0.006522	8
	25	97	946.5144	632.7103	-695.0131	1	939.8752	-47.68661	-9.791325E-006	0.0064306	8
	26	100	751.7689	649.2115	-863.7249	1	1080.507	-53.06995	-1.339056E-005	0.0028272	8
	27	103	597.4265	665.1497	-1071.47	1	1261.139	-58.16871	-1.307476E-005	0.0065262	8
	28	105	477.4305	685.1089	-1322.697	1	1489.598	-62.61749	-1.48254E-007	0.0006811	8
	29	108	376.6741	710.802	-1657.324	1	1803.32	-66.78622	-1.064783E-007	0.0006396	8
	30	110	298.2954	742.8074	-2070.921	1	2200.108	-70.26787	-1.189605E-007	0.0006442	8
	31	112	237.7717	782.6402	-2572.521	1	2688.939	-73.07863	-1.035585E-007	0.0006412	8
	32	115	189.0121	834.3871	-3205.018	1	3311.849	-75.40766	-1.313479E-007	0.0006459	8
	33	117	150.2404	901.0549	-3991.882	1	4092.312	-77.28026	-9.93469E-008	0.0006226	8
	34	120	119.1737	991.391	-4992.221	1	5089.708	-78.76792	-2.575884E-008	0.0006058	7
	35	122	95.0169	1104.991	-6198.375	1	6296.099	-79.89201	-3.230754E-008	0.0006279	7
	36	124	75.60484	1253.499	-7707.474	1	7808.74	-80.76263	-2.85767E-008	0.0006148	7
	37	127	54.50582	1553.345	-10521.32	1	10635.37	-81.60164	-2.777942E-008	0.0005881	7
	38	129	45.95588	1762.949	-12367.91	1	12492.93	-81.88758	-2.934759E-008	0.000602	7
	39	132	37.20238	2092.925	-15096.11	1	15240.5	-82.10683	-2.730182E-008	0.0005969	7
	40	134	30.04808	2523.244	-18448.43	1	18620.18	-82.21181	-3.569603E-008	0.0006591	7
	41	137	23.91582	3127.604	-22861.07	1	23074.02	-82.20978	-3.343291E-008	0.0006413	7
	42	139	18.60119	3989.013	-28868.58	1	29142.87	-82.13278	-2.937027E-008	0.0005997	7
	43	141	15.02404	4962.267	-35190.46	1	35538.61	-81.97354	-2.82904E-008	0.0005875	7
	44	144	12.01923	6285.432	-43233.11	1	43687.62	-81.72803	-2.956698E-009	0.0006605	6
	45	146	9.450605	8120.944	-53950.49	1	54558.27	-81.43977	-3.423496E-009	0.0006804	6
	46	149	7.512019	10445.49	-66624.96	1	67438.81	-81.08968	-3.473626E-009	0.0006955	6
	47	151	5.978954	13526.13	-82042.38	1	83149.91	-80.638	-2.608565E-009	0.0006372	6
	48	154	4.734848	17853.25	-101517.9	1	103075.9	-80.02578	-3.91495E-009	0.0007141	6
	49	158	3.75601	23599.87	-125074.3	1	127281.3	-79.31467	-3.747118E-009	0.0006567	6
	50	163	3.004808	31134.88	-152497.9	1	155643.8	-78.46074	-3.398537E-009	0.0006691	6
	51	169	2.372217	42128.53	-187797.5	1	192464.8	-77.35619	-3.832004E-009	0.0007274	6
	52	173	1.878005	56476.59	-229624.9	1	236468.2	-76.18228	-4.300452E-009	0.0006263	6
	53	178	1.512097	74303.02	-274723.3	1	284594.2	-74.8656	-4.035435E-009	0.0007002	6
	54	183	1.201923	98826.1	-332097.8	1	346490.3	-73.42799	-3.96047E-009	0.0006237	6
	55	190	0.956633	130087	-397920.5	1	418644.7	-71.89655	-4.575196E-009	1.704112E-005	6
