EXPLAIN
TAG	EISPOT
TITLE	LABEL	Potentiostatic EIS	Test Identifier
DATE	LABEL	8/21/2020	Date
TIME	LABEL	21:24:58	Time
NOTES	NOTES	1	Notes...
	
PSTAT	PSTAT	REF3000-16137	Potentiostat
VDC	POTEN	0.00000E+000	T	DC Voltage (V)
FREQINIT	QUANT	3.00000E+005	Initial Freq. (Hz)
FREQFINAL	QUANT	1.00000E+000	Final Freq. (Hz)
PTSPERDEC	QUANT	1.00000E+001	Points/decade
VAC	QUANT	5.00000E+001	AC Voltage (mV rms)
AREA	QUANT	1.00000E+000	Sample Area (cm^2)
SPEED	SELECTOR	2	Optimize for:
ZGUESS	QUANT	1.00000E+003	Estimated Z (ohms)
EOC	QUANT	0	Open Circuit (V)
SEQUENCER	TOGGLE	TRUE	Run as Sequence
PSTATMODEL	IQUANT	5	Pstat Model
PSTATSECTION	LABEL	REF3000-16137	Pstat Section
PSTATSERIALNO	LABEL	16137	Pstat Serial Number
CTRLMODE	IQUANT	1	Control Mode
IESTAB	IQUANT	0	I/E Stability
CASPEED	IQUANT	1	Control Amp Speed
CONVENTION	IQUANT	1	Current Convention
ICHRANGE	IQUANT	2	Ich Range
ICHRANGEMODE	TOGGLE	F	Ich Auto Range
ICHOFFSETENABLE	TOGGLE	T	Ich Offset Enable
ICHOFFSET	QUANT	0	Ich Offset (V)
ICHFILTER	IQUANT	3	Ich Filter
VCHRANGE	IQUANT	2	Vch Range
VCHRANGEMODE	TOGGLE	F	Vch Auto Range
VCHOFFSETENABLE	TOGGLE	T	Vch Offset Enable
VCHOFFSET	QUANT	0	Vch Offset (V)
VCHFILTER	IQUANT	3	Vch Filter
ACHRANGE	IQUANT	2	Ach Range
ACHOFFSETENABLE	TOGGLE	F	Ach Offset Enable
ACHOFFSET	QUANT	0	Ach Offset (V)
ACHFILTER	IQUANT	3	Ach Filter
IERANGELOWERLIMIT	IQUANT	2	I/E Range Lower Limit
IERANGEMODE	TOGGLE	F	I/E AutoRange
IERANGE	IQUANT	11	I/E Range
POSFEEDENABLE	TOGGLE	F	Positive Feedback IR Comp
POSFEEDRESISTANCE	QUANT	0	Positive Feedback Resistance (ohm)
ACHSELECT	IQUANT	0	Ach Select
CABLEID	IQUANT	13	Cable ID
DCCALDATE	LABEL	7/31/2020	DC Calibration Date
ACCALDATE	LABEL	7/31/2020	AC Calibration Date
THERMOSELECT	IQUANT	1	Thermo Select
FRAMEWORKVERSION	QUANT	6.33	Framework Version
INSTRUMENTVERSION	LABEL	3.50	Instrument Version
COMPLIANCEVOLTAGE	IQUANT	0	Compliance Voltage
ZCURVE	TABLE
	Pt	Time	Freq	Zreal	Zimag	Zsig	Zmod	Zphz	Idc	Vdc	IERange
	#	s	Hz	ohm	ohm	V	ohm	°	A	V	#
	0	9	300046.9	319.8951	-23.26528	1	320.74	-4.159675	7.831718E-005	-0.001923	9
	1	14	238359.4	322.5524	-23.20559	1	323.3861	-4.114977	2.437705E-005	-0.0004963	9
	2	20	189328.1	326.8963	-27.54354	1	328.0546	-4.816236	1.861755E-005	0.0004499	10
	3	26	150421.9	331.7313	-24.95455	1	332.6686	-4.301984	7.409677E-006	0.001395	9
	4	34	119484.4	336.0415	-29.11605	1	337.3005	-4.951979	-2.150579E-005	0.0006756	10
	5	39	94921.88	339.7981	-28.22091	1	340.968	-4.747632	2.261235E-005	-7.387831E-005	9
	6	42	75421.88	342.7992	-31.75827	1	344.2672	-5.292998	-2.220851E-005	0.0004827	9
	7	44	59859.37	346.687	-35.53046	1	348.5029	-5.851568	2.75976E-005	-0.000463	9
	8	47	47578.12	351.4719	-41.10947	1	353.8679	-6.671217	2.76853E-005	-0.0006993	9
	9	49	37828.12	356.266	-47.11013	1	359.3672	-7.532693	-9.442335E-007	-0.0004367	9
	10	52	30046.88	361.2631	-51.1183	1	364.8618	-8.053817	8.63955E-007	0.0034473	8
	11	54	23859.38	367.3897	-59.49334	1	372.1756	-9.198358	-9.499654E-006	0.0014163	8
	12	57	18984.38	374.8621	-69.41281	1	381.2345	-10.49058	-1.279889E-005	0.0044625	8
	13	59	15046.87	381.8606	-81.07557	1	390.3726	-11.98688	-6.42905E-006	-6.619859E-005	8
	14	61	11953.13	390.1104	-93.38387	1	401.1317	-13.46204	1.327055E-005	-0.0020137	8
	15	63	9515.62	400.2376	-108.4132	1	414.6608	-15.15613	4.654466E-006	0.0017936	8
	16	66	7546.875	408.7122	-125.7568	1	427.6219	-17.10262	-1.309639E-005	0.0044709	8
	17	68	5928.309	419.4	-148.9155	1	445.053	-19.54832	1.363884E-005	-0.0020805	8
	18	70	4733.456	428.3004	-173.5934	1	462.1428	-22.06309	6.452099E-007	0.0037232	8
	19	73	3796.875	436.4932	-205.1357	1	482.2935	-25.1718	1.062138E-005	-0.0046409	8
	20	75	2987.132	447.1799	-247.0857	1	510.9023	-28.92249	-1.231401E-005	0.0052666	8
	21	77	2390.625	454.8153	-297.0939	1	543.2511	-33.15332	1.053732E-005	-0.0045886	8
	22	80	1884.191	461.3134	-363.3553	1	587.2283	-38.22587	1.403643E-005	-0.0037992	8
	23	82	1516.544	470.6922	-438.0065	1	642.9625	-42.93997	-1.296382E-005	0.0044834	8
	24	84	1193.986	480.6593	-547.776	1	728.7606	-48.73388	6.490439E-006	-0.0040198	8
	25	87	946.5144	493.4979	-680.8562	1	840.8956	-54.06467	-1.311213E-005	0.0054135	8
	26	89	751.7689	506.5866	-841.5435	1	982.255	-58.95319	-1.27398E-005	0.003731	8
	27	92	597.4265	521.0287	-1049.575	1	1171.785	-63.59935	1.44617E-005	-0.0040143	8
	28	95	477.4305	538.7474	-1298.87	1	1406.169	-67.47222	-5.145622E-008	0.0006348	8
	29	97	376.6741	563.7196	-1629.501	1	1724.254	-70.91714	-6.849499E-008	0.0006451	8
	30	99	298.2954	595.2877	-2037.603	1	2122.779	-73.71423	-6.66207E-008	0.0006428	8
	31	102	237.7717	634.84	-2532.166	1	2610.533	-75.92546	-8.792929E-008	0.0006441	8
	32	104	189.0121	686.7355	-3155.685	1	3229.544	-77.72279	-5.099889E-008	0.0006335	8
	33	106	150.2404	754.4123	-3931.624	1	4003.35	-79.13793	-8.572098E-008	0.0006509	8
	34	109	119.1737	847.5845	-4917.33	1	4989.843	-80.22021	-1.82058E-008	0.0006214	7
	35	111	95.0169	962.844	-6102.152	1	6177.647	-81.03336	-2.240592E-008	0.0006185	7
	36	114	75.60484	1116.431	-7585.496	1	7667.214	-81.62733	-2.332644E-008	0.0006441	7
	37	116	54.50582	1425.831	-10345.17	1	10442.96	-82.1526	-2.674617E-008	0.0006611	7
	38	119	45.95588	1645.72	-12152.92	1	12263.84	-82.28805	-2.013318E-008	0.0006257	7
	39	121	37.20238	1987.152	-14821.31	1	14953.92	-82.36366	-1.986793E-008	0.000593	7
	40	124	30.04808	2431.094	-18108.86	1	18271.32	-82.35382	-2.099168E-008	0.0006192	7
	41	126	23.91582	3041.689	-22392.38	1	22598.02	-82.26452	-2.392945E-008	0.0006433	7
	42	128	18.60119	3932.97	-28267.75	1	28540.04	-82.07913	-2.031524E-008	0.0006293	7
	43	131	15.02404	4928.199	-34461.56	1	34812.16	-81.86156	-1.82067E-008	0.0006213	7
	44	133	12.01923	6283.764	-42327.85	1	42791.73	-81.55585	-2.103244E-008	0.0005933	7
	45	135	9.450605	8214.034	-52794.82	1	53429.98	-81.15659	-1.791676E-009	0.000671	6
	46	138	7.512019	10661.68	-65148.67	1	66015.3	-80.70584	-2.686387E-009	0.000655	6
	47	141	5.978954	14003.96	-80162.12	1	81376.14	-80.09068	-3.528586E-009	0.000695	6
	48	144	4.734848	18603.11	-99046.5	1	100778.4	-79.36253	-1.451449E-009	0.0006561	6
	49	147	3.75601	24898.46	-121703	1	124223.8	-78.43777	-2.872316E-009	0.0006291	6
	50	151	3.004808	33149.31	-147981.3	1	151648.8	-77.37361	-1.868103E-009	0.0006251	6
	51	157	2.372217	44793.17	-181193.6	1	186648.2	-76.11422	-2.999395E-009	0.0006077	6
	52	162	1.878005	60703.31	-220220.1	1	228433.3	-74.58922	-2.959763E-009	0.0006637	6
	53	166	1.512097	79632.53	-262305.5	1	274126.8	-73.1124	-2.620617E-009	0.0005469	6
	54	172	1.201923	105152.3	-314231.8	1	331358.8	-71.49806	-3.079983E-009	0.0006766	6
	55	178	0.956633	136849.1	-373245.5	1	397542.3	-69.86472	-3.521886E-009	1.491875E-005	6
