EXPLAIN
TAG	EISPOT
TITLE	LABEL	Potentiostatic EIS	Test Identifier
DATE	LABEL	8/21/2020	Date
TIME	LABEL	23:29:12	Time
NOTES	NOTES	1	Notes...
	
PSTAT	PSTAT	REF3000-16137	Potentiostat
VDC	POTEN	0.00000E+000	T	DC Voltage (V)
FREQINIT	QUANT	3.00000E+005	Initial Freq. (Hz)
FREQFINAL	QUANT	1.00000E+000	Final Freq. (Hz)
PTSPERDEC	QUANT	1.00000E+001	Points/decade
VAC	QUANT	5.00000E+001	AC Voltage (mV rms)
AREA	QUANT	1.00000E+000	Sample Area (cm^2)
SPEED	SELECTOR	2	Optimize for:
ZGUESS	QUANT	1.00000E+003	Estimated Z (ohms)
EOC	QUANT	0	Open Circuit (V)
SEQUENCER	TOGGLE	TRUE	Run as Sequence
PSTATMODEL	IQUANT	5	Pstat Model
PSTATSECTION	LABEL	REF3000-16137	Pstat Section
PSTATSERIALNO	LABEL	16137	Pstat Serial Number
CTRLMODE	IQUANT	1	Control Mode
IESTAB	IQUANT	0	I/E Stability
CASPEED	IQUANT	1	Control Amp Speed
CONVENTION	IQUANT	1	Current Convention
ICHRANGE	IQUANT	2	Ich Range
ICHRANGEMODE	TOGGLE	F	Ich Auto Range
ICHOFFSETENABLE	TOGGLE	T	Ich Offset Enable
ICHOFFSET	QUANT	0	Ich Offset (V)
ICHFILTER	IQUANT	3	Ich Filter
VCHRANGE	IQUANT	2	Vch Range
VCHRANGEMODE	TOGGLE	F	Vch Auto Range
VCHOFFSETENABLE	TOGGLE	T	Vch Offset Enable
VCHOFFSET	QUANT	0	Vch Offset (V)
VCHFILTER	IQUANT	3	Vch Filter
ACHRANGE	IQUANT	2	Ach Range
ACHOFFSETENABLE	TOGGLE	F	Ach Offset Enable
ACHOFFSET	QUANT	0	Ach Offset (V)
ACHFILTER	IQUANT	3	Ach Filter
IERANGELOWERLIMIT	IQUANT	2	I/E Range Lower Limit
IERANGEMODE	TOGGLE	F	I/E AutoRange
IERANGE	IQUANT	11	I/E Range
POSFEEDENABLE	TOGGLE	F	Positive Feedback IR Comp
POSFEEDRESISTANCE	QUANT	0	Positive Feedback Resistance (ohm)
ACHSELECT	IQUANT	0	Ach Select
CABLEID	IQUANT	13	Cable ID
DCCALDATE	LABEL	7/31/2020	DC Calibration Date
ACCALDATE	LABEL	7/31/2020	AC Calibration Date
THERMOSELECT	IQUANT	1	Thermo Select
FRAMEWORKVERSION	QUANT	6.33	Framework Version
INSTRUMENTVERSION	LABEL	3.50	Instrument Version
COMPLIANCEVOLTAGE	IQUANT	0	Compliance Voltage
ZCURVE	TABLE
	Pt	Time	Freq	Zreal	Zimag	Zsig	Zmod	Zphz	Idc	Vdc	IERange
	#	s	Hz	ohm	ohm	V	ohm	°	A	V	#
	0	7	300046.9	35.56423	-2.410305	1	35.64581	-3.877195	-1.245423E-006	-8.241912E-005	9
	1	10	238359.4	36.05807	-3.60005	1	36.23734	-5.701537	2.75357E-005	-0.0006558	9
	2	14	189328.1	36.49164	-4.743903	1	36.7987	-7.406896	3.135362E-006	-0.0008731	9
	3	16	150421.9	36.94987	-5.994103	1	37.4329	-9.2144	-2.386861E-005	-1.091873E-005	9
	4	19	119484.4	37.61952	-7.286503	1	38.31868	-10.96185	8.861896E-007	0.000503	9
	5	21	94921.88	38.3498	-8.690836	1	39.32224	-12.7687	-5.20376E-006	0.0004104	9
	6	24	75421.88	39.02618	-10.40923	1	40.39053	-14.9345	-1.326931E-005	0.0004023	9
	7	26	59859.37	39.7477	-12.38232	1	41.63174	-17.30301	-5.309844E-006	0.0004994	9
	8	29	47578.12	40.53462	-14.74426	1	43.13292	-19.9886	-1.559086E-006	0.0003521	9
	9	31	37828.12	41.28526	-17.57684	1	44.87112	-23.06146	1.848424E-005	-0.0004287	9
	10	34	30046.88	42.06304	-21.06085	1	47.04103	-26.597	-2.21204E-006	0.0003967	9
	11	36	23859.38	42.81259	-25.33214	1	49.7457	-30.61274	-1.111357E-005	0.0002577	9
	12	39	18984.38	43.56446	-30.69445	1	53.29176	-35.16758	-6.552681E-006	8.512971E-005	9
	13	41	15046.87	44.32989	-37.63087	1	58.14827	-40.32735	-1.109808E-005	0.0005528	9
	14	43	11953.13	45.20619	-46.12529	1	64.58438	-45.57656	-2.838521E-006	-4.191546E-005	9
	15	46	9515.62	46.08744	-56.86793	1	73.19845	-50.97768	1.083318E-005	-2.017342E-005	9
	16	48	7546.875	47.22168	-70.42151	1	84.78841	-56.15587	5.128801E-006	0.0002539	9
	17	50	5928.309	48.66626	-88.29647	1	100.82	-61.13781	1.778512E-005	-0.0004242	9
	18	53	4733.456	50.30336	-109.1245	1	120.1607	-65.25162	4.488307E-006	0.0002297	9
	19	55	3796.875	52.58614	-134.3628	1	144.2867	-68.62591	1.777129E-005	-0.0004321	9
	20	57	2987.132	55.32829	-168.7793	1	177.6167	-71.85011	1.860403E-005	-0.0003663	9
	21	60	2390.625	59.67291	-208.4199	1	216.7942	-74.023	1.221455E-005	-0.0004207	9
	22	62	1884.191	64.08392	-261.3256	1	269.0684	-76.22147	-1.160601E-005	0.0002384	9
	23	64	1516.544	69.69616	-322.0012	1	329.4576	-77.7869	-6.574613E-006	0.0005133	9
	24	66	1193.986	78.90563	-402.9414	1	410.5946	-78.92031	1.271572E-005	-0.0004346	9
	25	69	946.5144	89.82327	-500.3958	1	508.3938	-79.82353	-2.430615E-006	0.0014951	8
	26	71	751.7689	104.7806	-621.71	1	630.4778	-80.43349	-1.91232E-006	0.0015165	8
	27	74	597.4265	125.665	-772.3583	1	782.5146	-80.75878	1.955532E-006	-0.0001182	8
	28	76	477.4305	152.6551	-952.236	1	964.394	-80.89228	3.753315E-007	0.0006404	8
	29	78	376.6741	191.246	-1187.436	1	1202.738	-80.85063	3.72963E-007	0.0006405	8
	30	81	298.2954	242.8693	-1473.56	1	1493.44	-80.64076	3.757229E-007	0.0006407	8
	31	83	237.7717	310.6169	-1814.514	1	1840.909	-80.286	3.856215E-007	0.0006327	8
	32	85	189.0121	402.982	-2236.35	1	2272.367	-79.78513	3.856432E-007	0.0006369	8
	33	88	150.2404	528.2311	-2751.143	1	2801.396	-79.13124	3.44631E-007	0.0006944	8
	34	90	119.1737	700.1263	-3384.159	1	3455.823	-78.31136	3.765313E-007	0.0006454	8
	35	92	95.0169	927.1543	-4130.661	1	4233.436	-77.34925	3.851212E-007	0.0006422	8
	36	95	75.60484	1240.824	-5046.277	1	5196.591	-76.18565	3.023024E-008	0.0006124	7
	37	98	54.50582	1889.759	-6656.124	1	6919.189	-74.15008	3.475596E-008	0.0006094	7
	38	100	45.95588	2354.747	-7657.083	1	8010.977	-72.90601	4.068062E-008	0.0006153	7
	39	102	37.20238	3088.158	-9049.391	1	9561.81	-71.15749	3.713894E-008	0.0006157	7
	40	105	30.04808	4067.291	-10658.56	1	11408.23	-69.11321	3.129347E-008	0.000617	7
	41	107	23.91582	5394.926	-12562.88	1	13672.28	-66.75968	2.942724E-008	0.0006259	7
	42	110	18.60119	7343.512	-14861.42	1	16576.76	-63.70452	3.780021E-008	0.0006213	7
	43	112	15.02404	9400.317	-16930.78	1	19365.36	-60.96006	2.504193E-008	0.0006134	7
	44	114	12.01923	12017.39	-19054.55	1	22527.61	-57.76105	3.465946E-008	0.0006228	7
	45	117	9.450605	15353.8	-21265.99	1	26229.4	-54.17115	3.362524E-008	0.0006186	7
	46	119	7.512019	19002.63	-23123.98	1	29930.22	-50.5876	3.829709E-008	0.0006344	7
	47	122	5.978954	23052.31	-24561.77	1	33685.15	-46.81578	3.457068E-008	0.0006195	7
	48	125	4.734848	27466.4	-25545.86	1	37509.92	-42.92517	2.860422E-008	0.0006196	7
	49	128	3.75601	31856.44	-25893.78	1	41052.66	-39.10515	-1.036686E-008	0.0006629	6
	50	132	3.004808	35731.74	-25130.68	1	43684.19	-35.11931	-1.813062E-008	0.0006947	6
	51	138	2.372217	39331.58	-23792.38	1	45967.93	-31.17049	-1.469475E-008	0.0007654	6
	52	145	1.878005	42262.47	-22084.22	1	47684.68	-27.58928	-2.358082E-008	0.0006366	6
	53	154	1.512097	44612.51	-20811.08	1	49227.81	-25.00836	-2.145162E-008	0.0007138	6
	54	165	1.201923	46677.79	-19333.38	1	50523.22	-22.49875	-1.992706E-008	0.0006283	6
	55	178	0.956633	48975.96	-18233.08	1	52259.83	-20.41961	-4.229377E-008	2.769026E-005	6
