EXPLAIN
TAG	EISPOT
TITLE	LABEL	Potentiostatic EIS	Test Identifier
DATE	LABEL	8/21/2020	Date
TIME	LABEL	20:37:45	Time
NOTES	NOTES	1	Notes...
	
PSTAT	PSTAT	REF3000-16137	Potentiostat
VDC	POTEN	0.00000E+000	T	DC Voltage (V)
FREQINIT	QUANT	3.00000E+005	Initial Freq. (Hz)
FREQFINAL	QUANT	1.00000E+000	Final Freq. (Hz)
PTSPERDEC	QUANT	1.00000E+001	Points/decade
VAC	QUANT	5.00000E+001	AC Voltage (mV rms)
AREA	QUANT	1.00000E+000	Sample Area (cm^2)
SPEED	SELECTOR	2	Optimize for:
ZGUESS	QUANT	1.00000E+003	Estimated Z (ohms)
EOC	QUANT	0	Open Circuit (V)
SEQUENCER	TOGGLE	TRUE	Run as Sequence
PSTATMODEL	IQUANT	5	Pstat Model
PSTATSECTION	LABEL	REF3000-16137	Pstat Section
PSTATSERIALNO	LABEL	16137	Pstat Serial Number
CTRLMODE	IQUANT	1	Control Mode
IESTAB	IQUANT	0	I/E Stability
CASPEED	IQUANT	1	Control Amp Speed
CONVENTION	IQUANT	1	Current Convention
ICHRANGE	IQUANT	2	Ich Range
ICHRANGEMODE	TOGGLE	F	Ich Auto Range
ICHOFFSETENABLE	TOGGLE	T	Ich Offset Enable
ICHOFFSET	QUANT	0	Ich Offset (V)
ICHFILTER	IQUANT	3	Ich Filter
VCHRANGE	IQUANT	2	Vch Range
VCHRANGEMODE	TOGGLE	F	Vch Auto Range
VCHOFFSETENABLE	TOGGLE	T	Vch Offset Enable
VCHOFFSET	QUANT	0	Vch Offset (V)
VCHFILTER	IQUANT	3	Vch Filter
ACHRANGE	IQUANT	2	Ach Range
ACHOFFSETENABLE	TOGGLE	F	Ach Offset Enable
ACHOFFSET	QUANT	0	Ach Offset (V)
ACHFILTER	IQUANT	3	Ach Filter
IERANGELOWERLIMIT	IQUANT	2	I/E Range Lower Limit
IERANGEMODE	TOGGLE	F	I/E AutoRange
IERANGE	IQUANT	11	I/E Range
POSFEEDENABLE	TOGGLE	F	Positive Feedback IR Comp
POSFEEDRESISTANCE	QUANT	0	Positive Feedback Resistance (ohm)
ACHSELECT	IQUANT	0	Ach Select
CABLEID	IQUANT	13	Cable ID
DCCALDATE	LABEL	7/31/2020	DC Calibration Date
ACCALDATE	LABEL	7/31/2020	AC Calibration Date
THERMOSELECT	IQUANT	1	Thermo Select
FRAMEWORKVERSION	QUANT	6.33	Framework Version
INSTRUMENTVERSION	LABEL	3.50	Instrument Version
COMPLIANCEVOLTAGE	IQUANT	0	Compliance Voltage
ZCURVE	TABLE
	Pt	Time	Freq	Zreal	Zimag	Zsig	Zmod	Zphz	Idc	Vdc	IERange
	#	s	Hz	ohm	ohm	V	ohm	°	A	V	#
	0	7	300046.9	39.96217	-2.634549	1	40.04892	-3.771828	-5.581338E-005	0.0010247	9
	1	10	238359.4	40.40438	-3.915457	1	40.59365	-5.535065	5.124763E-005	-0.0018696	9
	2	13	189328.1	40.91743	-5.132045	1	41.23801	-7.14896	4.631529E-005	-0.0015646	9
	3	15	150421.9	41.40071	-6.4542	1	41.90079	-8.860851	-2.639345E-005	-5.667861E-005	9
	4	18	119484.4	42.19897	-7.888159	1	42.9299	-10.58798	6.897355E-006	-0.0007459	9
	5	21	94921.88	42.9776	-9.343348	1	43.98149	-12.26527	2.006607E-005	-0.0005016	9
	6	23	75421.88	43.76678	-11.18256	1	45.17279	-14.33263	-1.155058E-005	0.0004242	9
	7	26	59859.37	44.64713	-13.34181	1	46.59796	-16.63762	4.597483E-006	0.0001918	9
	8	28	47578.12	45.50702	-15.85249	1	48.1891	-19.20591	1.898249E-005	-0.0004416	9
	9	31	37828.12	46.42933	-18.83313	1	50.10359	-22.07895	-1.497404E-005	0.0005661	9
	10	33	30046.88	47.32049	-22.51874	1	52.40536	-25.44871	-1.463446E-006	0.000484	9
	11	36	23859.38	48.21389	-27.09104	1	55.30373	-29.33132	-1.57777E-005	0.0005305	9
	12	38	18984.38	49.06775	-32.71014	1	58.97116	-33.6887	1.769059E-005	-0.0001419	9
	13	40	15046.87	49.95256	-39.97584	1	63.9791	-38.66945	-2.230519E-006	0.0004287	9
	14	43	11953.13	50.83356	-48.99432	1	70.60095	-43.94449	-7.874748E-006	0.0005418	9
	15	45	9515.62	51.77256	-60.28465	1	79.46468	-49.34396	-1.553983E-005	0.0005263	9
	16	47	7546.875	52.92059	-74.60759	1	91.47066	-54.65119	5.201687E-006	0.000303	9
	17	50	5928.309	54.31858	-93.56743	1	108.1914	-59.86361	4.61033E-006	0.0002706	9
	18	52	4733.456	55.94639	-115.7727	1	128.582	-64.20815	-7.391586E-006	0.0005676	9
	19	54	3796.875	57.9703	-142.632	1	153.9625	-67.88157	-8.680466E-006	0.0006387	9
	20	57	2987.132	60.81521	-179.3243	1	189.356	-71.26639	-1.367858E-005	0.0005989	9
	21	59	2390.625	64.9035	-221.4118	1	230.7285	-73.6623	-2.454644E-006	-8.582095E-005	9
	22	61	1884.191	67.42638	-278.4278	1	286.4757	-76.38686	4.186378E-006	0.0002795	9
	23	63	1516.544	74.09707	-343.0968	1	351.0069	-77.81326	1.90597E-005	-0.0004483	9
	24	66	1193.986	80.92458	-431.1335	1	438.6626	-79.36917	1.096655E-005	5.422729E-005	9
	25	68	946.5144	90.77129	-535.8447	1	543.4786	-80.38545	-2.932091E-006	0.0012523	8
	26	71	751.7689	104.4231	-667.6563	1	675.773	-81.11082	-4.813238E-007	0.0013851	8
	27	73	597.4265	121.2427	-831.1113	1	839.9081	-81.70023	-5.558521E-007	0.0014177	8
	28	75	477.4305	145.4705	-1028.191	1	1038.431	-81.94713	3.572258E-007	0.0006593	8
	29	78	376.6741	178.7107	-1286.569	1	1298.922	-82.09194	3.608111E-007	0.0006538	8
	30	80	298.2954	223.2057	-1602.574	1	1618.043	-82.07088	3.565665E-007	0.0006582	8
	31	82	237.7717	281.5987	-1981.148	1	2001.061	-81.91022	3.728321E-007	0.0006522	8
	32	85	189.0121	360.9089	-2452.394	1	2478.809	-81.62811	3.760835E-007	0.0006508	8
	33	87	150.2404	467.5241	-3030.75	1	3066.598	-81.23067	3.675421E-007	0.0006542	8
	34	89	119.1737	610.6969	-3746.381	1	3795.829	-80.74165	3.815611E-007	0.000655	8
	35	92	95.0169	801.2502	-4610.275	1	4679.384	-80.14067	4.035557E-008	0.0006333	7
	36	94	75.60484	1052.817	-5662.289	1	5759.334	-79.467	4.075791E-008	0.0006277	7
	37	97	54.50582	1569.001	-7574.279	1	7735.08	-78.29678	4.37436E-008	0.0006319	7
	38	99	45.95588	1933.876	-8798.444	1	9008.468	-77.60365	4.926536E-008	0.0006397	7
	39	102	37.20238	2510.812	-10559.37	1	10853.77	-76.62457	4.289221E-008	0.0006427	7
	40	104	30.04808	3293.225	-12695.11	1	13115.3	-75.4575	4.277112E-008	0.0006343	7
	41	106	23.91582	4404.836	-15375.42	1	15993.94	-74.01375	4.728573E-008	0.0006352	7
	42	109	18.60119	6063.678	-18831.87	1	19784.02	-72.15195	4.366762E-008	0.0006419	7
	43	111	15.02404	7927.218	-22261.38	1	23630.7	-70.39932	5.155202E-008	0.0006339	7
	44	113	12.01923	10457.45	-26288.35	1	28291.97	-68.30743	4.297761E-008	0.0006394	7
	45	116	9.450605	13958.22	-31058.53	1	34050.9	-65.80005	5.09739E-008	0.0006325	7
	46	118	7.512019	18155.87	-36096.9	1	40405.71	-63.29871	5.153784E-008	0.0006574	7
	47	121	5.978954	23375.32	-41344.22	1	47494.74	-60.51692	1.303816E-008	0.0007244	6
	48	124	4.734848	29662.35	-46868.35	1	55466.18	-57.67083	1.601677E-008	0.0006951	6
	49	127	3.75601	36942.96	-52287.08	1	64021.25	-54.75724	8.369215E-009	0.0006557	6
	50	131	3.004808	44879.61	-57381.93	1	72848.23	-51.97029	1.042659E-008	0.0006703	6
	51	134	2.372217	54181.84	-62410.74	1	82648.48	-49.03714	9.421669E-009	0.0007173	6
	52	139	1.878005	64269.56	-67052.23	1	92879.38	-46.2139	7.649687E-009	0.0006495	6
	53	143	1.512097	74004.45	-70990.12	1	102548.8	-43.80903	8.034494E-009	0.0006657	6
	54	149	1.201923	85033.33	-74636.31	1	113142.6	-41.2744	7.861352E-009	0.0006388	6
	55	155	0.956633	95736.6	-77299.32	1	123047.5	-38.91798	4.201889E-009	6.723599E-005	6
