EXPLAIN
TAG	EISPOT
TITLE	LABEL	Potentiostatic EIS	Test Identifier
DATE	LABEL	8/21/2020	Date
TIME	LABEL	23:32:20	Time
NOTES	NOTES	1	Notes...
	
PSTAT	PSTAT	REF3000-16137	Potentiostat
VDC	POTEN	0.00000E+000	T	DC Voltage (V)
FREQINIT	QUANT	3.00000E+005	Initial Freq. (Hz)
FREQFINAL	QUANT	1.00000E+000	Final Freq. (Hz)
PTSPERDEC	QUANT	1.00000E+001	Points/decade
VAC	QUANT	5.00000E+001	AC Voltage (mV rms)
AREA	QUANT	1.00000E+000	Sample Area (cm^2)
SPEED	SELECTOR	2	Optimize for:
ZGUESS	QUANT	1.00000E+003	Estimated Z (ohms)
EOC	QUANT	0	Open Circuit (V)
SEQUENCER	TOGGLE	TRUE	Run as Sequence
PSTATMODEL	IQUANT	5	Pstat Model
PSTATSECTION	LABEL	REF3000-16137	Pstat Section
PSTATSERIALNO	LABEL	16137	Pstat Serial Number
CTRLMODE	IQUANT	1	Control Mode
IESTAB	IQUANT	0	I/E Stability
CASPEED	IQUANT	1	Control Amp Speed
CONVENTION	IQUANT	1	Current Convention
ICHRANGE	IQUANT	2	Ich Range
ICHRANGEMODE	TOGGLE	F	Ich Auto Range
ICHOFFSETENABLE	TOGGLE	T	Ich Offset Enable
ICHOFFSET	QUANT	0	Ich Offset (V)
ICHFILTER	IQUANT	3	Ich Filter
VCHRANGE	IQUANT	2	Vch Range
VCHRANGEMODE	TOGGLE	F	Vch Auto Range
VCHOFFSETENABLE	TOGGLE	T	Vch Offset Enable
VCHOFFSET	QUANT	0	Vch Offset (V)
VCHFILTER	IQUANT	3	Vch Filter
ACHRANGE	IQUANT	2	Ach Range
ACHOFFSETENABLE	TOGGLE	F	Ach Offset Enable
ACHOFFSET	QUANT	0	Ach Offset (V)
ACHFILTER	IQUANT	3	Ach Filter
IERANGELOWERLIMIT	IQUANT	2	I/E Range Lower Limit
IERANGEMODE	TOGGLE	F	I/E AutoRange
IERANGE	IQUANT	11	I/E Range
POSFEEDENABLE	TOGGLE	F	Positive Feedback IR Comp
POSFEEDRESISTANCE	QUANT	0	Positive Feedback Resistance (ohm)
ACHSELECT	IQUANT	0	Ach Select
CABLEID	IQUANT	13	Cable ID
DCCALDATE	LABEL	7/31/2020	DC Calibration Date
ACCALDATE	LABEL	7/31/2020	AC Calibration Date
THERMOSELECT	IQUANT	1	Thermo Select
FRAMEWORKVERSION	QUANT	6.33	Framework Version
INSTRUMENTVERSION	LABEL	3.50	Instrument Version
COMPLIANCEVOLTAGE	IQUANT	0	Compliance Voltage
ZCURVE	TABLE
	Pt	Time	Freq	Zreal	Zimag	Zsig	Zmod	Zphz	Idc	Vdc	IERange
	#	s	Hz	ohm	ohm	V	ohm	°	A	V	#
	0	7	300046.9	35.37893	-3.231605	1	35.52621	-5.219066	-0.0000994	-9.367835E-005	10
	1	12	238359.4	35.81702	-4.158694	1	36.05765	-6.622924	-2.201232E-005	0.000371	10
	2	15	189328.1	36.24844	-4.751491	1	36.55853	-7.467825	-3.69045E-006	-0.0006515	9
	3	17	150421.9	36.8373	-5.887587	1	37.30483	-9.0806	3.850849E-005	-0.0007369	9
	4	20	119484.4	37.40592	-7.320248	1	38.11547	-11.07271	2.004987E-006	0.000454	9
	5	22	94921.88	38.13347	-8.659989	1	39.10443	-12.79468	-1.191758E-005	0.0004359	9
	6	25	75421.88	38.83553	-10.35681	1	40.19281	-14.93234	1.146247E-005	-8.107902E-005	9
	7	27	59859.37	39.53727	-12.34263	1	41.41903	-17.33716	-1.28197E-005	0.0003724	9
	8	30	47578.12	40.31255	-14.69728	1	42.90818	-20.03101	1.075393E-005	3.23336E-005	9
	9	32	37828.12	41.07771	-17.52563	1	44.66012	-23.1053	-8.554649E-006	9.309442E-005	9
	10	35	30046.88	41.85037	-20.97242	1	46.81128	-26.61676	-1.282156E-005	0.0004081	9
	11	37	23859.38	42.6071	-25.32529	1	49.56546	-30.72688	-2.273193E-006	0.0003884	9
	12	40	18984.38	43.32838	-30.68915	1	53.09588	-35.30964	-2.141943E-006	-0.0001036	9
	13	42	15046.87	44.08606	-37.53591	1	57.90099	-40.41185	8.482435E-006	-0.0003819	9
	14	44	11953.13	44.96048	-46.05296	1	64.36086	-45.68772	-1.233071E-005	0.0005911	9
	15	47	9515.62	45.92817	-56.67504	1	72.94832	-50.97947	-1.340211E-005	0.0003092	9
	16	49	7546.875	47.00673	-70.4063	1	84.65624	-56.27097	-6.832259E-006	0.0004859	9
	17	51	5928.309	48.4114	-88.16194	1	100.5793	-61.22797	-6.340424E-006	0.0005173	9
	18	54	4733.456	50.21374	-108.9734	1	119.986	-65.26028	-2.915777E-006	-6.463368E-005	9
	19	56	3796.875	52.02446	-134.3331	1	144.0553	-68.82964	3.880387E-006	0.0002088	9
	20	58	2987.132	55.22181	-168.4573	1	177.2775	-71.8504	-1.31037E-005	0.0003967	9
	21	61	2390.625	59.5074	-208.0569	1	216.3997	-74.03867	7.725467E-006	-0.000342	9
	22	63	1884.191	63.93898	-261.4569	1	269.1615	-76.25809	-1.374709E-005	0.0004977	9
	23	65	1516.544	69.41949	-321.6177	1	329.0244	-77.81987	1.793565E-005	-0.0002601	9
	24	67	1193.986	78.85858	-402.805	1	410.4517	-78.9231	-8.240017E-006	0.0001113	9
	25	70	946.5144	89.1157	-500.2829	1	508.158	-79.8998	3.265787E-006	-0.0002883	8
	26	72	751.7689	105.1181	-621.4193	1	630.2474	-80.39884	-1.969321E-006	0.0009705	8
	27	75	597.4265	125.4357	-771.053	1	781.1893	-80.76001	3.53903E-006	-0.0002529	8
	28	77	477.4305	152.0803	-951.775	1	963.849	-80.92168	3.674505E-007	0.000643	8
	29	79	376.6741	190.5067	-1187.079	1	1202.269	-80.88271	3.617051E-007	0.000643	8
	30	82	298.2954	241.9629	-1473.294	1	1493.031	-80.67342	3.731711E-007	0.0006479	8
	31	84	237.7717	309.5432	-1814.499	1	1840.713	-80.31886	3.799077E-007	0.0006401	8
	32	86	189.0121	401.8501	-2236.859	1	2272.669	-79.81549	3.73154E-007	0.0006445	8
	33	89	150.2404	526.7762	-2751.649	1	2801.618	-79.16241	3.803833E-007	0.0006424	8
	34	91	119.1737	698.6071	-3385.347	1	3456.679	-78.34	3.77415E-007	0.0006476	8
	35	93	95.0169	925.3978	-4132.746	1	4235.086	-77.37862	3.783426E-007	0.0006934	8
	36	96	75.60484	1239.45	-5049.595	1	5199.485	-76.20909	2.947088E-008	0.0006141	7
	37	99	54.50582	1888.871	-6659.687	1	6922.374	-74.1652	2.707207E-008	0.0006426	7
	38	101	45.95588	2354.563	-7663.276	1	8016.843	-72.92027	3.580309E-008	0.0006203	7
	39	103	37.20238	3086.139	-9058.197	1	9569.49	-71.18596	3.076274E-008	0.0006164	7
	40	106	30.04808	4075.32	-10674.1	1	11425.61	-69.10338	3.032014E-008	0.0006115	7
	41	108	23.91582	5422.917	-12600.2	1	13717.62	-66.71377	2.068317E-008	0.0006125	7
	42	111	18.60119	7336.227	-14882.32	1	16592.28	-63.75904	2.243634E-008	0.0006227	7
	43	113	15.02404	9395.401	-16928.54	1	19361.02	-60.96957	3.459176E-008	0.0006403	7
	44	115	12.01923	12038.92	-19084.18	1	22564.16	-57.75496	1.609498E-008	0.0006275	7
	45	118	9.450605	15344.54	-21249.29	1	26210.44	-54.16619	3.173357E-008	0.000621	7
	46	120	7.512019	19018.28	-23156.46	1	29965.26	-50.6039	4.007861E-008	0.0006325	7
	47	123	5.978954	23045.36	-24663.74	1	33754.84	-46.94283	3.324803E-008	0.0006229	7
	48	126	4.734848	27469.71	-25615.29	1	37559.66	-42.9993	2.816806E-008	0.0006293	7
	49	129	3.75601	31872.25	-26013.17	1	41140.31	-39.22028	-8.734297E-009	0.00067	6
	50	133	3.004808	35764.58	-25283	1	43798.8	-35.25758	-1.592181E-008	0.0007011	6
	51	139	2.372217	39395.68	-23981.37	1	46120.78	-31.33017	-1.314411E-008	0.0006838	6
	52	147	1.878005	42336.52	-22170.87	1	47790.46	-27.64024	-1.593715E-008	0.000645	6
	53	156	1.512097	44772.45	-20953.36	1	49432.94	-25.07944	-1.739068E-008	0.0007557	6
	54	166	1.201923	46900.66	-19467.3	1	50780.39	-22.54213	-1.713431E-008	0.0006474	6
	55	179	0.956633	49335.44	-18462.06	1	52676.68	-20.5166	-4.374287E-008	1.979984E-005	6
