EXPLAIN
TAG	EISPOT
TITLE	LABEL	Potentiostatic EIS	Test Identifier
DATE	LABEL	8/21/2020	Date
TIME	LABEL	20:32:00	Time
NOTES	NOTES	1	Notes...
	
PSTAT	PSTAT	REF3000-16137	Potentiostat
VDC	POTEN	0.00000E+000	T	DC Voltage (V)
FREQINIT	QUANT	3.00000E+005	Initial Freq. (Hz)
FREQFINAL	QUANT	1.00000E+000	Final Freq. (Hz)
PTSPERDEC	QUANT	1.00000E+001	Points/decade
VAC	QUANT	5.00000E+001	AC Voltage (mV rms)
AREA	QUANT	1.00000E+000	Sample Area (cm^2)
SPEED	SELECTOR	2	Optimize for:
ZGUESS	QUANT	1.00000E+003	Estimated Z (ohms)
EOC	QUANT	0	Open Circuit (V)
SEQUENCER	TOGGLE	TRUE	Run as Sequence
PSTATMODEL	IQUANT	5	Pstat Model
PSTATSECTION	LABEL	REF3000-16137	Pstat Section
PSTATSERIALNO	LABEL	16137	Pstat Serial Number
CTRLMODE	IQUANT	1	Control Mode
IESTAB	IQUANT	0	I/E Stability
CASPEED	IQUANT	1	Control Amp Speed
CONVENTION	IQUANT	1	Current Convention
ICHRANGE	IQUANT	2	Ich Range
ICHRANGEMODE	TOGGLE	F	Ich Auto Range
ICHOFFSETENABLE	TOGGLE	T	Ich Offset Enable
ICHOFFSET	QUANT	0	Ich Offset (V)
ICHFILTER	IQUANT	3	Ich Filter
VCHRANGE	IQUANT	2	Vch Range
VCHRANGEMODE	TOGGLE	F	Vch Auto Range
VCHOFFSETENABLE	TOGGLE	T	Vch Offset Enable
VCHOFFSET	QUANT	0	Vch Offset (V)
VCHFILTER	IQUANT	3	Vch Filter
ACHRANGE	IQUANT	2	Ach Range
ACHOFFSETENABLE	TOGGLE	F	Ach Offset Enable
ACHOFFSET	QUANT	0	Ach Offset (V)
ACHFILTER	IQUANT	3	Ach Filter
IERANGELOWERLIMIT	IQUANT	2	I/E Range Lower Limit
IERANGEMODE	TOGGLE	F	I/E AutoRange
IERANGE	IQUANT	11	I/E Range
POSFEEDENABLE	TOGGLE	F	Positive Feedback IR Comp
POSFEEDRESISTANCE	QUANT	0	Positive Feedback Resistance (ohm)
ACHSELECT	IQUANT	0	Ach Select
CABLEID	IQUANT	13	Cable ID
DCCALDATE	LABEL	7/31/2020	DC Calibration Date
ACCALDATE	LABEL	7/31/2020	AC Calibration Date
THERMOSELECT	IQUANT	1	Thermo Select
FRAMEWORKVERSION	QUANT	6.33	Framework Version
INSTRUMENTVERSION	LABEL	3.50	Instrument Version
COMPLIANCEVOLTAGE	IQUANT	0	Compliance Voltage
ZCURVE	TABLE
	Pt	Time	Freq	Zreal	Zimag	Zsig	Zmod	Zphz	Idc	Vdc	IERange
	#	s	Hz	ohm	ohm	V	ohm	°	A	V	#
	0	7	300046.9	37.26475	-2.614136	1	37.35633	-4.012746	1.436657E-005	-0.0010079	9
	1	10	238359.4	37.68311	-3.657788	1	37.86021	-5.544164	4.70542E-006	-0.0010963	9
	2	13	189328.1	38.1218	-4.885274	1	38.43355	-7.302601	-5.101565E-005	0.0015121	9
	3	16	150421.9	38.72961	-6.112295	1	39.20897	-8.968431	3.242566E-007	0.0004559	9
	4	18	119484.4	39.33487	-7.511667	1	40.04568	-10.81144	-7.510141E-006	0.0007251	9
	5	21	94921.88	40.14132	-8.879012	1	41.11159	-12.47264	1.768309E-005	-0.0005565	9
	6	23	75421.88	40.85599	-10.66912	1	42.22609	-14.63536	-7.46056E-006	3.065399E-005	9
	7	26	59859.37	41.64281	-12.71188	1	43.53982	-16.97533	-1.183533E-005	0.0002032	9
	8	29	47578.12	42.46943	-15.1171	1	45.07969	-19.59332	-1.365189E-005	0.0005327	9
	9	31	37828.12	43.28263	-17.97116	1	46.86522	-22.54846	-1.282039E-005	0.0004158	9
	10	34	30046.88	44.08987	-21.54562	1	49.0727	-26.0436	1.944015E-005	-0.0003514	9
	11	36	23859.38	44.8719	-25.97049	1	51.84548	-30.06095	1.655231E-005	-0.0000969	9
	12	38	18984.38	45.66817	-31.45043	1	55.45008	-34.55413	-1.410026E-005	0.000404	9
	13	41	15046.87	46.46618	-38.437	1	60.30347	-39.59768	-9.79186E-006	0.0006158	9
	14	43	11953.13	47.26307	-47.24887	1	66.83003	-44.99139	-1.304987E-005	0.000383	9
	15	45	9515.62	48.17971	-58.1844	1	75.54276	-50.37348	-2.990148E-006	-6.59853E-005	9
	16	48	7546.875	49.42245	-72.02155	1	87.34805	-55.5414	-1.269108E-005	0.0004191	9
	17	50	5928.309	50.743	-90.45217	1	103.7133	-60.7079	-1.337993E-005	0.0004146	9
	18	52	4733.456	52.32983	-111.9094	1	123.5399	-64.93878	-1.347414E-005	0.0005869	9
	19	55	3796.875	54.15194	-138.2574	1	148.4841	-68.61097	-2.699623E-006	0.0004249	9
	20	57	2987.132	57.08739	-173.4131	1	182.5679	-71.77851	1.294449E-005	-0.0004347	9
	21	59	2390.625	61.30023	-214.3364	1	222.9301	-74.03947	2.756105E-006	-0.0002281	9
	22	62	1884.191	65.34702	-269.4662	1	277.2765	-76.36861	-1.382981E-005	0.0004255	9
	23	64	1516.544	70.26312	-331.9008	1	339.2566	-78.04701	1.824148E-005	-0.0002595	9
	24	66	1193.986	78.16051	-416.0631	1	423.341	-79.36057	4.812966E-006	0.0002512	9
	25	69	946.5144	88.67995	-517.3122	1	524.8581	-80.27265	1.044606E-006	5.979185E-005	8
	26	71	751.7689	103.2979	-643.0674	1	651.3111	-80.87437	-2.600442E-006	0.0014845	8
	27	73	597.4265	121.8212	-799.7087	1	808.9341	-81.33861	-2.105353E-006	0.0010141	8
	28	76	477.4305	146.0585	-989.419	1	1000.142	-81.60262	3.696898E-007	0.0006534	8
	29	78	376.6741	181.087	-1236.556	1	1249.745	-81.66856	3.626252E-007	0.0006541	8
	30	80	298.2954	227.8141	-1537.988	1	1554.769	-81.57434	3.664096E-007	0.0006551	8
	31	82	237.7717	289.1664	-1898.839	1	1920.731	-81.34119	3.759739E-007	0.0006467	8
	32	85	189.0121	372.6224	-2346.373	1	2375.776	-80.97634	3.733102E-007	0.0006505	8
	33	87	150.2404	484.5042	-2894.919	1	2935.183	-80.49883	3.896757E-007	0.0006517	8
	34	90	119.1737	636.4285	-3572.555	1	3628.8	-79.89908	3.861994E-007	0.0006525	8
	35	92	95.0169	836.8542	-4385.946	1	4465.07	-79.1976	4.29534E-008	0.0006332	7
	36	95	75.60484	1103.312	-5372.998	1	5485.108	-78.39597	4.061655E-008	0.0006237	7
	37	97	54.50582	1651.302	-7154.481	1	7342.575	-77.00335	4.529641E-008	0.0006187	7
	38	100	45.95588	2042.45	-8293.015	1	8540.825	-76.16423	5.351942E-008	0.0006296	7
	39	102	37.20238	2654.898	-9911.22	1	10260.64	-75.00435	4.673798E-008	0.0006236	7
	40	104	30.04808	3472.819	-11828.09	1	12327.38	-73.63736	4.506159E-008	0.0006249	7
	41	107	23.91582	4627.109	-14222.15	1	14955.92	-71.97794	4.989052E-008	0.000617	7
	42	109	18.60119	6361.097	-17313.71	1	18445.28	-69.82655	4.231211E-008	0.0006297	7
	43	111	15.02404	8272.666	-20276.5	1	21899.16	-67.80489	4.82394E-008	0.0006237	7
	44	114	12.01923	10827.14	-23643.17	1	26004.36	-65.39508	5.028635E-008	0.0006206	7
	45	116	9.450605	14265.09	-27594.05	1	31063.23	-62.66274	4.277105E-008	0.0006152	7
	46	119	7.512019	18345.39	-31607.47	1	36545.67	-59.86856	4.979453E-008	0.0006158	7
	47	121	5.978954	23212.19	-35540.83	1	42449.46	-56.85091	1.810475E-008	0.0006634	6
	48	124	4.734848	29024.69	-39492.42	1	49011.06	-53.68623	1.482286E-008	0.0006813	6
	49	128	3.75601	35517.34	-43212.76	1	55935.89	-50.5826	1.237241E-008	0.0006668	6
	50	131	3.004808	42348.07	-46350.8	1	62783.4	-47.58384	7.731014E-009	0.0007073	6
	51	135	2.372217	50143.86	-49154.55	1	70218.06	-44.42918	1.226727E-008	0.0007162	6
	52	139	1.878005	58129.29	-50827.36	1	77216.8	-41.16595	1.054079E-008	0.0006502	6
	53	144	1.512097	65365.73	-51350.2	1	83123.54	-38.15257	8.226732E-009	0.0007697	6
	54	154	1.201923	72933.45	-51372.53	1	89210	-35.15993	8.210565E-009	0.000656	6
	55	167	0.956633	80912.82	-51996.5	1	96179.6	-32.72577	-1.989328E-009	2.621837E-005	6
