EXPLAIN
TAG	EISPOT
TITLE	LABEL	Potentiostatic EIS	Test Identifier
DATE	LABEL	8/21/2020	Date
TIME	LABEL	22:46:40	Time
NOTES	NOTES	1	Notes...
	
PSTAT	PSTAT	REF3000-16137	Potentiostat
VDC	POTEN	0.00000E+000	T	DC Voltage (V)
FREQINIT	QUANT	3.00000E+005	Initial Freq. (Hz)
FREQFINAL	QUANT	1.00000E+000	Final Freq. (Hz)
PTSPERDEC	QUANT	1.00000E+001	Points/decade
VAC	QUANT	5.00000E+001	AC Voltage (mV rms)
AREA	QUANT	1.00000E+000	Sample Area (cm^2)
SPEED	SELECTOR	2	Optimize for:
ZGUESS	QUANT	1.00000E+003	Estimated Z (ohms)
EOC	QUANT	0	Open Circuit (V)
SEQUENCER	TOGGLE	TRUE	Run as Sequence
PSTATMODEL	IQUANT	5	Pstat Model
PSTATSECTION	LABEL	REF3000-16137	Pstat Section
PSTATSERIALNO	LABEL	16137	Pstat Serial Number
CTRLMODE	IQUANT	1	Control Mode
IESTAB	IQUANT	0	I/E Stability
CASPEED	IQUANT	1	Control Amp Speed
CONVENTION	IQUANT	1	Current Convention
ICHRANGE	IQUANT	2	Ich Range
ICHRANGEMODE	TOGGLE	F	Ich Auto Range
ICHOFFSETENABLE	TOGGLE	T	Ich Offset Enable
ICHOFFSET	QUANT	0	Ich Offset (V)
ICHFILTER	IQUANT	3	Ich Filter
VCHRANGE	IQUANT	2	Vch Range
VCHRANGEMODE	TOGGLE	F	Vch Auto Range
VCHOFFSETENABLE	TOGGLE	T	Vch Offset Enable
VCHOFFSET	QUANT	0	Vch Offset (V)
VCHFILTER	IQUANT	3	Vch Filter
ACHRANGE	IQUANT	2	Ach Range
ACHOFFSETENABLE	TOGGLE	F	Ach Offset Enable
ACHOFFSET	QUANT	0	Ach Offset (V)
ACHFILTER	IQUANT	3	Ach Filter
IERANGELOWERLIMIT	IQUANT	2	I/E Range Lower Limit
IERANGEMODE	TOGGLE	F	I/E AutoRange
IERANGE	IQUANT	11	I/E Range
POSFEEDENABLE	TOGGLE	F	Positive Feedback IR Comp
POSFEEDRESISTANCE	QUANT	0	Positive Feedback Resistance (ohm)
ACHSELECT	IQUANT	0	Ach Select
CABLEID	IQUANT	13	Cable ID
DCCALDATE	LABEL	7/31/2020	DC Calibration Date
ACCALDATE	LABEL	7/31/2020	AC Calibration Date
THERMOSELECT	IQUANT	1	Thermo Select
FRAMEWORKVERSION	QUANT	6.33	Framework Version
INSTRUMENTVERSION	LABEL	3.50	Instrument Version
COMPLIANCEVOLTAGE	IQUANT	0	Compliance Voltage
ZCURVE	TABLE
	Pt	Time	Freq	Zreal	Zimag	Zsig	Zmod	Zphz	Idc	Vdc	IERange
	#	s	Hz	ohm	ohm	V	ohm	°	A	V	#
	0	18	300046.9	-64.63598	-4901.992	1	4902.418	-90.75544	-2.885207E-005	-0.0012736	9
	1	32	238359.4	148.01	-6000.002	1	6001.827	-88.5869	-1.942102E-005	0.0015143	9
	2	49	189328.1	-98.8853	-7498.882	1	7499.534	-90.7555	4.994017E-005	0.0001569	9
	3	60	150421.9	383.2622	-9220.325	1	9228.287	-87.61975	2.679303E-005	-0.0014295	9
	4	76	119484.4	41.55737	-11806.75	1	11806.82	-89.79833	-2.841209E-005	-0.0009989	9
	5	85	94921.88	504.0804	-14605.76	1	14614.45	-88.02337	-2.698262E-005	0.0096261	8
	6	93	75421.88	691.9899	-18203.33	1	18216.48	-87.82298	-2.516895E-005	0.0111661	8
	7	102	59859.37	582.6844	-23159.09	1	23166.42	-88.55874	2.746831E-005	-0.0074855	8
	8	111	47578.12	755.3921	-28700.04	1	28709.98	-88.49231	-9.776778E-006	-0.0021914	8
	9	121	37828.12	4173.411	-37227.86	1	37461.05	-83.60359	7.816441E-006	-0.0248416	7
	10	129	30046.88	4702.032	-45990.53	1	46230.27	-84.16241	1.365007E-006	-0.0204178	7
	11	136	23859.38	6170.902	-58749.97	1	59073.16	-84.00383	9.517074E-007	-0.0198161	7
	12	141	18984.38	4886.214	-72896.73	1	73060.31	-86.16525	-3.386681E-006	-0.0055135	7
	13	147	15046.87	1150.38	-90656.21	1	90663.51	-89.27299	2.616481E-005	-0.0051182	8
	14	154	11953.13	3431.906	-123256.7	1	123304.5	-88.40509	-2.477057E-006	0.0078071	8
	15	162	9515.62	5039.697	-141253.5	1	141343.3	-87.95664	-3.424942E-006	-0.0052475	7
	16	168	7546.875	5022.298	-177912.8	1	177983.6	-88.38303	-3.862496E-006	0.0257598	7
	17	175	5928.309	7627.683	-221026.2	1	221157.8	-88.02349	-3.795162E-006	0.0257823	7
	18	180	4733.456	41677.2	-301833.3	1	304697.2	-82.1383	-4.12034E-007	0.0259236	6
	19	186	3796.875	38273.46	-368797	1	370777.7	-84.0751	-2.874308E-007	-0.0074038	6
	20	191	2987.132	52329.96	-465850.7	1	468780.6	-83.59071	7.828097E-007	-0.0232108	6
	21	197	2390.625	51141.23	-570911.3	1	573197.3	-84.88121	-2.81657E-007	-0.0075632	6
	22	202	1884.191	61755.35	-741637.1	1	744203.8	-85.24002	1.867935E-007	-0.0215438	6
	23	207	1516.544	59203.69	-887666.3	1	889638.4	-86.18426	6.012266E-007	-0.0281152	6
	24	213	1193.986	42667.19	-1139721	1	1140519	-87.85605	-7.598311E-007	0.0235341	6
	25	220	946.5144	-2154879	-1329391	1	2531952	-148.3287	1.327842E-006	-0.0204305	7
	26	225	751.7689	502202.4	-1517621	1	1598556	-71.68989	2.270485E-007	0.0104202	6
	27	230	597.4265	-250492	-2068851	1	2083960	-96.9036	-1.647756E-008	0.0180112	6
	28	235	477.4305	448065.2	-2949621	1	2983458	-81.36246	-1.09959E-009	0.0006854	5
	29	238	376.6741	481151.4	-3676813	1	3708161	-82.54458	-1.118058E-009	0.0006772	5
	30	242	298.2954	519717	-4572726	1	4602165	-83.51582	-1.038827E-009	0.0006889	5
	31	245	237.7717	581289.6	-5586679	1	5616838	-84.05979	-1.039492E-009	0.00069	5
	32	247	189.0121	571151.7	-7125965	1	7148818	-85.4175	-1.052735E-009	0.0006451	5
	33	250	150.2404	237808.3	-8871385	1	8874572	-88.46449	-9.796944E-010	0.0005936	5
	34	253	119.1737	1154152	-8303216	1	8383046	-82.08656	-9.976187E-010	0.0005942	5
	35	256	95.0169	849037.4	-1.407693E+007	1	1.410251E+007	-86.54844	-9.424428E-010	0.0006303	5
	36	258	75.60484	369204.2	-1.822266E+007	1	1.82264E+007	-88.8393	-1.077007E-009	0.0006892	5
	37	261	54.50582	1186275	-2.421327E+007	1	2.424231E+007	-87.19516	-1.053764E-009	0.0006377	5
	38	265	45.95588	-762602.6	-2.912418E+007	1	2.913416E+007	-91.49992	-1.004718E-009	0.0006856	5
	39	268	37.20238	-1629504	-3.407677E+007	1	3.411571E+007	-92.73772	-9.37299E-010	0.0006233	5
	40	272	30.04808	1673719	-4.23826E+007	1	4.241564E+007	-87.73853	-1.046761E-009	0.0006761	5
	41	276	23.91582	4574792	-5.882647E+007	1	5.900409E+007	-85.5532	-6.639735E-011	0.0006091	4
	42	280	18.60119	-2988160	-6.76821E+007	1	6.774802E+007	-92.52796	-1.322009E-010	0.0006201	4
	43	283	15.02404	3860308	-8.824928E+007	1	8.833367E+007	-87.49529	-8.032624E-011	0.0006001	4
	44	287	12.01923	2917529	-1.062801E+008	1	1.063201E+008	-88.42755	-7.98536E-011	0.0006488	4
	45	291	9.450605	6105176	-1.357916E+008	1	1.359287E+008	-87.42572	-9.822502E-011	0.0007074	4
	46	295	7.512019	7114817	-1.718618E+008	1	1.720091E+008	-87.62939	-9.750299E-011	0.0005822	4
	47	299	5.978954	1.781456E+007	-1.94736E+008	1	1.955492E+008	-84.77309	-1.169406E-010	0.0006514	4
	48	305	4.734848	5.02713E+007	-2.841487E+008	1	2.885614E+008	-79.9671	-9.498048E-012	0.0007017	3
	49	310	3.75601	2.747144E+007	-3.187612E+008	1	3.199428E+008	-85.07431	-9.994892E-010	0.0006091	5
	50	318	3.004808	5.365404E+007	-4.489132E+008	1	4.521082E+008	-83.18435	-1.053553E-009	0.0006582	5
	51	327	2.372217	7.242195E+007	-5.371492E+008	1	5.420094E+008	-82.32131	-1.033285E-011	0.0006854	3
	52	333	1.878005	8.472381E+007	-6.741139E+008	1	6.794172E+008	-82.83652	-1.016448E-011	0.0007097	3
	53	342	1.512097	9.933954E+007	-8.281793E+008	1	8.341159E+008	-83.16009	-1.007301E-011	0.0007968	3
	54	348	1.201923	1.225919E+008	-1.036224E+009	1	1.04345E+009	-83.25291	-1.005313E-011	0.0007215	3
	55	361	0.956633	1.537995E+008	-1.287402E+009	1	1.296556E+009	-83.18745	-9.98136E-012	8.395695E-005	3
