EXPLAIN
TAG	EISPOT
TITLE	LABEL	Potentiostatic EIS	Test Identifier
DATE	LABEL	8/21/2020	Date
TIME	LABEL	22:40:27	Time
NOTES	NOTES	1	Notes...
	
PSTAT	PSTAT	REF3000-16137	Potentiostat
VDC	POTEN	0.00000E+000	T	DC Voltage (V)
FREQINIT	QUANT	3.00000E+005	Initial Freq. (Hz)
FREQFINAL	QUANT	1.00000E+000	Final Freq. (Hz)
PTSPERDEC	QUANT	1.00000E+001	Points/decade
VAC	QUANT	5.00000E+001	AC Voltage (mV rms)
AREA	QUANT	1.00000E+000	Sample Area (cm^2)
SPEED	SELECTOR	2	Optimize for:
ZGUESS	QUANT	1.00000E+003	Estimated Z (ohms)
EOC	QUANT	0	Open Circuit (V)
SEQUENCER	TOGGLE	TRUE	Run as Sequence
PSTATMODEL	IQUANT	5	Pstat Model
PSTATSECTION	LABEL	REF3000-16137	Pstat Section
PSTATSERIALNO	LABEL	16137	Pstat Serial Number
CTRLMODE	IQUANT	1	Control Mode
IESTAB	IQUANT	0	I/E Stability
CASPEED	IQUANT	1	Control Amp Speed
CONVENTION	IQUANT	1	Current Convention
ICHRANGE	IQUANT	2	Ich Range
ICHRANGEMODE	TOGGLE	F	Ich Auto Range
ICHOFFSETENABLE	TOGGLE	T	Ich Offset Enable
ICHOFFSET	QUANT	0	Ich Offset (V)
ICHFILTER	IQUANT	3	Ich Filter
VCHRANGE	IQUANT	2	Vch Range
VCHRANGEMODE	TOGGLE	F	Vch Auto Range
VCHOFFSETENABLE	TOGGLE	T	Vch Offset Enable
VCHOFFSET	QUANT	0	Vch Offset (V)
VCHFILTER	IQUANT	3	Vch Filter
ACHRANGE	IQUANT	2	Ach Range
ACHOFFSETENABLE	TOGGLE	F	Ach Offset Enable
ACHOFFSET	QUANT	0	Ach Offset (V)
ACHFILTER	IQUANT	3	Ach Filter
IERANGELOWERLIMIT	IQUANT	2	I/E Range Lower Limit
IERANGEMODE	TOGGLE	F	I/E AutoRange
IERANGE	IQUANT	11	I/E Range
POSFEEDENABLE	TOGGLE	F	Positive Feedback IR Comp
POSFEEDRESISTANCE	QUANT	0	Positive Feedback Resistance (ohm)
ACHSELECT	IQUANT	0	Ach Select
CABLEID	IQUANT	13	Cable ID
DCCALDATE	LABEL	7/31/2020	DC Calibration Date
ACCALDATE	LABEL	7/31/2020	AC Calibration Date
THERMOSELECT	IQUANT	1	Thermo Select
FRAMEWORKVERSION	QUANT	6.33	Framework Version
INSTRUMENTVERSION	LABEL	3.50	Instrument Version
COMPLIANCEVOLTAGE	IQUANT	0	Compliance Voltage
ZCURVE	TABLE
	Pt	Time	Freq	Zreal	Zimag	Zsig	Zmod	Zphz	Idc	Vdc	IERange
	#	s	Hz	ohm	ohm	V	ohm	°	A	V	#
	0	19	300046.9	-95.6586	-4857.442	1	4858.384	-91.12819	5.251821E-005	5.975283E-005	9
	1	36	238359.4	325.6757	-6340.724	1	6349.082	-87.05972	1.88445E-005	-0.0010526	9
	2	49	189328.1	177.4208	-7401.467	1	7403.593	-88.62682	1.84708E-005	-0.0021093	9
	3	57	150421.9	-162.5375	-9505.11	1	9506.5	-90.97966	1.99276E-005	-0.0020813	9
	4	65	119484.4	572.4841	-11576.78	1	11590.92	-87.16897	-3.131094E-005	-0.0061139	8
	5	73	94921.88	698.441	-14622.69	1	14639.36	-87.26539	-2.509841E-005	0.0111559	8
	6	82	75421.88	830.3868	-18257.94	1	18276.81	-87.39594	2.706506E-005	-0.0073717	8
	7	90	59859.37	633.9745	-23017.57	1	23026.3	-88.42229	2.585559E-005	-0.0088682	8
	8	99	47578.12	3974.725	-29959.46	1	30221.97	-82.4427	4.928762E-006	-0.0004799	7
	9	106	37828.12	4328.374	-37189.98	1	37441.01	-83.36147	-7.446711E-006	0.0190661	7
	10	114	30046.88	4360.008	-46102.41	1	46308.12	-84.59748	5.479208E-006	-0.0271323	7
	11	121	23859.38	5267.014	-58077.77	1	58316.11	-84.81808	4.984855E-006	-0.0004939	7
	12	127	18984.38	4997.171	-72272.44	1	72444.99	-86.04466	-5.427778E-006	0.0040743	7
	13	132	15046.87	7202.45	-91167.77	1	91451.84	-85.48289	6.686254E-006	-0.0102278	7
	14	138	11953.13	130.775	-112973.9	1	112974	-89.93368	7.604426E-006	-0.024359	7
	15	145	9515.62	5683.952	-142679.7	1	142792.9	-87.7187	-5.407073E-006	0.0037297	7
	16	151	7546.875	6961.148	-175558.7	1	175696.6	-87.72933	3.952994E-007	0.0165708	7
	17	158	5928.309	5512.112	-219089.3	1	219158.6	-88.55878	7.734215E-006	-0.0246106	7
	18	163	4733.456	-1225.463	-269452.7	1	269455.5	-90.26057	-3.405103E-006	-0.0053433	7
	19	169	3796.875	-109848.6	-450822.3	1	464012.4	-103.694	-1.213627E-005	0.01025	8
	20	176	2987.132	42196.6	-472750.5	1	474629.9	-84.89943	7.717769E-006	-0.0245086	7
	21	183	2390.625	400282.7	-370658.7	1	545540.3	-42.79945	7.490896E-006	-0.0241463	7
	22	190	1884.191	15264.76	-709338.9	1	709503.2	-88.7672	-1.075312E-006	-0.0136472	7
	23	197	1516.544	168301.8	-926505.9	1	941668.1	-79.70436	7.715674E-006	-0.0245261	7
	24	203	1193.986	606810.1	892441.6	1	1079199	55.7865	5.718821E-007	-0.0005339	9
	25	213	946.5144	-740040.9	-986427	1	1233166	-126.8781	-6.616187E-006	0.0262621	7
	26	219	751.7689	-595956.6	-364922.5	1	698808.1	-148.5196	-3.433579E-006	-0.0054507	7
	27	225	597.4265	-552354.4	-879510.4	1	1038573	-122.1298	6.656354E-006	-0.0103318	7
	28	230	477.4305	39753.92	-2818551	1	2818832	-89.19193	-9.598099E-008	0.0006646	7
	29	236	376.6741	484656.9	-3664576	1	3696486	-82.46609	-9.391837E-010	0.0005921	5
	30	240	298.2954	508892.3	-4566276	1	4594546	-83.64087	-1.064239E-009	0.0006998	5
	31	243	237.7717	506703.3	-5558432	1	5581479	-84.79134	-1.047573E-009	0.0006237	5
	32	246	189.0121	579744.3	-7087198	1	7110870	-85.32352	-1.00233E-009	0.0005951	5
	33	248	150.2404	457352	-8540263	1	8552500	-86.9346	-1.082012E-009	0.0006794	5
	34	251	119.1737	-811852.4	-8686397	1	8724253	-95.3395	-9.639166E-010	0.0006022	5
	35	254	95.0169	1017689	-1.368645E+007	1	1.372424E+007	-85.74746	-1.078598E-009	0.0006806	5
	36	257	75.60484	1379230	-1.81657E+007	1	1.821798E+007	-85.65815	-1.044835E-009	0.0006452	5
	37	260	54.50582	881165.1	-2.463802E+007	1	2.465377E+007	-87.95172	-9.716272E-010	0.0006246	5
	38	263	45.95588	2380155	-2.733567E+007	1	2.743909E+007	-85.02373	-9.92044E-010	0.0006488	5
	39	267	37.20238	3984559	-3.460657E+007	1	3.48352E+007	-83.43195	-1.130647E-009	0.0006605	5
	40	271	30.04808	1765596	-4.255224E+007	1	4.258885E+007	-87.62402	-1.083296E-009	0.0006774	5
	41	275	23.91582	7826177	-5.544373E+007	1	5.599336E+007	-81.96548	-9.749377E-011	0.000696	4
	42	279	18.60119	1.748314E+007	-8.143735E+007	1	8.329287E+007	-77.88353	-3.139305E-011	0.0006003	4
	43	282	15.02404	5913431	-8.470938E+007	1	8.491553E+007	-86.00675	-1.005239E-010	0.0006178	4
	44	286	12.01923	7421847	-1.082091E+008	1	1.084633E+008	-86.07634	-9.932594E-011	0.0006176	4
	45	290	9.450605	914604	-1.373579E+008	1	1.37361E+008	-89.6185	-1.153936E-010	0.000643	4
	46	294	7.512019	1.15643E+007	-1.677729E+008	1	1.68171E+008	-86.05694	-9.553599E-011	0.00063	4
	47	298	5.978954	2.027245E+007	-2.358471E+008	1	2.367167E+008	-85.08717	-7.693592E-011	0.0006022	4
	48	304	4.734848	1.415268E+007	-2.622026E+008	1	2.625843E+008	-86.91039	-9.86605E-010	0.0005984	5
	49	311	3.75601	1063336	-3.608334E+008	1	3.60835E+008	-89.83115	-1.080031E-009	0.0006304	5
	50	319	3.004808	2.606321E+007	-4.439316E+008	1	4.44696E+008	-86.64002	-1.062167E-009	0.0006336	5
	51	329	2.372217	8.227905E+007	-5.319462E+008	1	5.382719E+008	-81.20743	-1.030985E-011	0.0007945	3
	52	334	1.878005	9.756439E+007	-6.642065E+008	1	6.713338E+008	-81.64366	-1.021409E-011	0.0007022	3
	53	343	1.512097	1.185369E+008	-8.14617E+008	1	8.231962E+008	-81.72086	-1.015436E-011	0.0008389	3
	54	350	1.201923	1.484885E+008	-1.019354E+009	1	1.030112E+009	-81.71206	-1.002542E-011	0.0006872	3
	55	363	0.956633	1.930534E+008	-1.264537E+009	1	1.279188E+009	-81.31983	-9.985164E-012	7.813901E-005	3
