EXPLAIN
TAG	EISPOT
TITLE	LABEL	Potentiostatic EIS	Test Identifier
DATE	LABEL	8/21/2020	Date
TIME	LABEL	23:19:44	Time
NOTES	NOTES	1	Notes...
	
PSTAT	PSTAT	REF3000-16137	Potentiostat
VDC	POTEN	0.00000E+000	T	DC Voltage (V)
FREQINIT	QUANT	3.00000E+005	Initial Freq. (Hz)
FREQFINAL	QUANT	1.00000E+000	Final Freq. (Hz)
PTSPERDEC	QUANT	1.00000E+001	Points/decade
VAC	QUANT	5.00000E+001	AC Voltage (mV rms)
AREA	QUANT	1.00000E+000	Sample Area (cm^2)
SPEED	SELECTOR	2	Optimize for:
ZGUESS	QUANT	1.00000E+003	Estimated Z (ohms)
EOC	QUANT	0	Open Circuit (V)
SEQUENCER	TOGGLE	TRUE	Run as Sequence
PSTATMODEL	IQUANT	5	Pstat Model
PSTATSECTION	LABEL	REF3000-16137	Pstat Section
PSTATSERIALNO	LABEL	16137	Pstat Serial Number
CTRLMODE	IQUANT	1	Control Mode
IESTAB	IQUANT	0	I/E Stability
CASPEED	IQUANT	1	Control Amp Speed
CONVENTION	IQUANT	1	Current Convention
ICHRANGE	IQUANT	2	Ich Range
ICHRANGEMODE	TOGGLE	F	Ich Auto Range
ICHOFFSETENABLE	TOGGLE	T	Ich Offset Enable
ICHOFFSET	QUANT	0	Ich Offset (V)
ICHFILTER	IQUANT	3	Ich Filter
VCHRANGE	IQUANT	2	Vch Range
VCHRANGEMODE	TOGGLE	F	Vch Auto Range
VCHOFFSETENABLE	TOGGLE	T	Vch Offset Enable
VCHOFFSET	QUANT	0	Vch Offset (V)
VCHFILTER	IQUANT	3	Vch Filter
ACHRANGE	IQUANT	2	Ach Range
ACHOFFSETENABLE	TOGGLE	F	Ach Offset Enable
ACHOFFSET	QUANT	0	Ach Offset (V)
ACHFILTER	IQUANT	3	Ach Filter
IERANGELOWERLIMIT	IQUANT	2	I/E Range Lower Limit
IERANGEMODE	TOGGLE	F	I/E AutoRange
IERANGE	IQUANT	11	I/E Range
POSFEEDENABLE	TOGGLE	F	Positive Feedback IR Comp
POSFEEDRESISTANCE	QUANT	0	Positive Feedback Resistance (ohm)
ACHSELECT	IQUANT	0	Ach Select
CABLEID	IQUANT	13	Cable ID
DCCALDATE	LABEL	7/31/2020	DC Calibration Date
ACCALDATE	LABEL	7/31/2020	AC Calibration Date
THERMOSELECT	IQUANT	1	Thermo Select
FRAMEWORKVERSION	QUANT	6.33	Framework Version
INSTRUMENTVERSION	LABEL	3.50	Instrument Version
COMPLIANCEVOLTAGE	IQUANT	0	Compliance Voltage
ZCURVE	TABLE
	Pt	Time	Freq	Zreal	Zimag	Zsig	Zmod	Zphz	Idc	Vdc	IERange
	#	s	Hz	ohm	ohm	V	ohm	°	A	V	#
	0	7	300046.9	107.7293	-6.000583	1	107.8963	-3.188113	-3.668042E-005	-0.0006162	9
	1	10	238359.4	105.9665	-7.158048	1	106.208	-3.864465	7.125151E-005	-0.0028334	9
	2	14	189328.1	104.6248	-8.918284	1	105.0042	-4.872152	-6.843174E-005	0.0028157	9
	3	16	150421.9	103.9312	-10.75281	1	104.4859	-5.906856	-6.659592E-005	0.0031126	9
	4	19	119484.4	102.8324	-12.48322	1	103.5873	-6.921491	-7.577291E-005	0.0028789	9
	5	21	94921.88	102.2094	-14.32378	1	103.2082	-7.977564	1.16046E-005	0.0001624	9
	6	24	75421.88	102.1056	-16.7904	1	103.4769	-9.338228	5.266406E-006	-0.0005051	9
	7	26	59859.37	101.9613	-19.55713	1	103.82	-10.85799	1.164018E-005	0.0001013	9
	8	29	47578.12	101.9641	-22.55665	1	104.4294	-12.47415	-1.527419E-005	0.0001861	9
	9	31	37828.12	102.1839	-26.00006	1	105.4398	-14.27562	2.39186E-005	-0.0006326	9
	10	34	30046.88	102.3288	-30.03813	1	106.6465	-16.35935	-3.129746E-006	-0.0002463	9
	11	36	23859.38	102.5805	-34.89486	1	108.3532	-18.78678	2.40025E-005	-0.0004432	9
	12	39	18984.38	102.9258	-40.8074	1	110.7202	-21.62703	6.307145E-006	-0.0004956	9
	13	41	15046.87	103.1842	-48.25978	1	113.9122	-25.06574	-1.573818E-005	0.000703	9
	14	43	11953.13	103.1733	-57.68982	1	118.2068	-29.21194	-1.578669E-005	0.0003563	9
	15	46	9515.62	103.1777	-69.35194	1	124.3195	-33.90742	1.924218E-005	-0.0005107	9
	16	48	7546.875	103.1521	-84.50533	1	133.3473	-39.32537	-3.585723E-006	0.0006555	9
	17	50	5928.309	103.361	-104.4829	1	146.9699	-45.30927	1.769145E-005	-0.000661	9
	18	54	4733.456	102.9944	-128.4301	1	164.6272	-51.27217	-4.377299E-006	0.0006335	9
	19	56	3796.875	103.4879	-157.4405	1	188.4072	-56.68251	1.758334E-005	-0.0006439	9
	20	58	2987.132	105.1263	-196.7106	1	223.0395	-61.87902	-1.399222E-005	0.0001959	9
	21	60	2390.625	107.3833	-242.3992	1	265.1199	-66.10658	2.114984E-005	-0.0007055	9
	22	63	1884.191	111.0437	-304.5087	1	324.1238	-69.96485	-9.528802E-006	3.773976E-005	9
	23	65	1516.544	115.5719	-372.4898	1	390.007	-72.76253	-9.776142E-006	4.498954E-005	9
	24	67	1193.986	121.0363	-466.4506	1	481.8983	-75.4535	-2.334858E-006	0.0021812	8
	25	70	946.5144	130.1704	-581.6258	1	596.0142	-77.38483	-3.675165E-006	0.0011913	8
	26	72	751.7689	143.5022	-722.5524	1	736.6647	-78.76697	-2.185657E-006	0.0021119	8
	27	75	597.4265	160.6844	-897.5034	1	911.774	-79.8496	4.12914E-006	0.0001028	8
	28	77	477.4305	186.5834	-1108.745	1	1124.335	-80.44757	2.769638E-007	0.0006352	8
	29	79	376.6741	222.2368	-1384.644	1	1402.365	-80.88174	2.857911E-007	0.0006377	8
	30	81	298.2954	270.7582	-1721.145	1	1742.311	-81.05991	2.993401E-007	0.0006412	8
	31	84	237.7717	335.3321	-2123.668	1	2149.98	-81.02695	2.878776E-007	0.0006392	8
	32	86	189.0121	425.2433	-2623.393	1	2657.635	-80.79263	3.004646E-007	0.0006423	8
	33	89	150.2404	549.3442	-3235.564	1	3281.868	-80.36403	2.995963E-007	0.000645	8
	34	91	119.1737	722.6703	-3990.681	1	4055.587	-79.73557	2.993129E-007	0.000646	8
	35	93	95.0169	961.759	-4894.049	1	4987.655	-78.88213	3.8867E-010	0.0006128	7
	36	96	75.60484	1291.113	-5983.476	1	6121.189	-77.82343	-3.106226E-009	0.0006108	7
	37	99	54.50582	2083.588	-7777.428	1	8051.69	-75.00253	1.233276E-009	0.0006122	7
	38	101	45.95588	2534.556	-8761.373	1	9120.616	-73.8655	4.112895E-009	0.0006251	7
	39	103	37.20238	3330.603	-10354.93	1	10877.39	-72.16991	-2.128982E-009	0.000619	7
	40	106	30.04808	4404.884	-12167.18	1	12939.99	-70.09823	-9.692428E-009	0.0006142	7
	41	108	23.91582	5896.525	-14332.45	1	15498	-67.6372	-2.118243E-008	0.0006093	7
	42	111	18.60119	8097.067	-16958.26	1	18792.15	-64.47691	-2.302237E-008	0.000619	7
	43	113	15.02404	10481.37	-19241.38	1	21910.95	-61.4215	-3.093543E-008	0.0006118	7
	44	115	12.01923	13597.51	-21439.73	1	25388.08	-57.61632	-3.662964E-008	0.0006571	7
	45	118	9.450605	17632.93	-23290.7	1	29212.62	-52.87135	-4.733219E-008	0.0006222	7
	46	120	7.512019	21802.97	-24514.3	1	32807.32	-48.35017	-5.561505E-008	0.0006391	7
	47	123	5.978954	26944	-26340.99	1	37680.59	-44.35163	-6.215457E-008	0.0006227	7
	48	126	4.734848	32387.28	-27141.88	1	42256.57	-39.9644	-9.270475E-008	0.0006533	6
	49	131	3.75601	36726.72	-26242.63	1	45138.98	-35.54724	-9.496605E-008	0.000685	6
	50	137	3.004808	40436.86	-24934.43	1	47506.48	-31.65908	-9.753828E-008	0.0006599	6
	51	143	2.372217	44047.11	-23356.06	1	49856.33	-27.93485	-1.036835E-007	0.0006083	6
	52	151	1.878005	46402.97	-21027.23	1	50944.88	-24.37737	-1.066644E-007	0.0006754	6
	53	160	1.512097	48140.26	-19381.07	1	51895.19	-21.92951	-1.083539E-007	0.0007012	6
	54	170	1.201923	49571.31	-17648.27	1	52619.16	-19.59663	-1.091088E-007	0.0006848	6
	55	183	0.956633	51304.76	-16427.32	1	53870.54	-17.7546	-1.278301E-007	3.601842E-005	6
