EXPLAIN
TAG	EISPOT
TITLE	LABEL	Potentiostatic EIS	Test Identifier
DATE	LABEL	8/21/2020	Date
TIME	LABEL	21:38:36	Time
NOTES	NOTES	1	Notes...
	
PSTAT	PSTAT	REF3000-16137	Potentiostat
VDC	POTEN	0.00000E+000	T	DC Voltage (V)
FREQINIT	QUANT	3.00000E+005	Initial Freq. (Hz)
FREQFINAL	QUANT	1.00000E+000	Final Freq. (Hz)
PTSPERDEC	QUANT	1.00000E+001	Points/decade
VAC	QUANT	5.00000E+001	AC Voltage (mV rms)
AREA	QUANT	1.00000E+000	Sample Area (cm^2)
SPEED	SELECTOR	2	Optimize for:
ZGUESS	QUANT	1.00000E+003	Estimated Z (ohms)
EOC	QUANT	0	Open Circuit (V)
SEQUENCER	TOGGLE	TRUE	Run as Sequence
PSTATMODEL	IQUANT	5	Pstat Model
PSTATSECTION	LABEL	REF3000-16137	Pstat Section
PSTATSERIALNO	LABEL	16137	Pstat Serial Number
CTRLMODE	IQUANT	1	Control Mode
IESTAB	IQUANT	0	I/E Stability
CASPEED	IQUANT	1	Control Amp Speed
CONVENTION	IQUANT	1	Current Convention
ICHRANGE	IQUANT	2	Ich Range
ICHRANGEMODE	TOGGLE	F	Ich Auto Range
ICHOFFSETENABLE	TOGGLE	T	Ich Offset Enable
ICHOFFSET	QUANT	0	Ich Offset (V)
ICHFILTER	IQUANT	3	Ich Filter
VCHRANGE	IQUANT	2	Vch Range
VCHRANGEMODE	TOGGLE	F	Vch Auto Range
VCHOFFSETENABLE	TOGGLE	T	Vch Offset Enable
VCHOFFSET	QUANT	0	Vch Offset (V)
VCHFILTER	IQUANT	3	Vch Filter
ACHRANGE	IQUANT	2	Ach Range
ACHOFFSETENABLE	TOGGLE	F	Ach Offset Enable
ACHOFFSET	QUANT	0	Ach Offset (V)
ACHFILTER	IQUANT	3	Ach Filter
IERANGELOWERLIMIT	IQUANT	2	I/E Range Lower Limit
IERANGEMODE	TOGGLE	F	I/E AutoRange
IERANGE	IQUANT	11	I/E Range
POSFEEDENABLE	TOGGLE	F	Positive Feedback IR Comp
POSFEEDRESISTANCE	QUANT	0	Positive Feedback Resistance (ohm)
ACHSELECT	IQUANT	0	Ach Select
CABLEID	IQUANT	13	Cable ID
DCCALDATE	LABEL	7/31/2020	DC Calibration Date
ACCALDATE	LABEL	7/31/2020	AC Calibration Date
THERMOSELECT	IQUANT	1	Thermo Select
FRAMEWORKVERSION	QUANT	6.33	Framework Version
INSTRUMENTVERSION	LABEL	3.50	Instrument Version
COMPLIANCEVOLTAGE	IQUANT	0	Compliance Voltage
ZCURVE	TABLE
	Pt	Time	Freq	Zreal	Zimag	Zsig	Zmod	Zphz	Idc	Vdc	IERange
	#	s	Hz	ohm	ohm	V	ohm	°	A	V	#
	0	20	300046.9	1048.727	-234.2503	1	1074.57	-12.59126	-1.958641E-006	-0.0020558	9
	1	44	238359.4	1080.095	-203.4022	1	1099.08	-10.66497	-1.382343E-005	0.0015798	9
	2	57	189328.1	1107.499	-177.3042	1	1121.601	-9.095543	2.658322E-006	0.0015041	9
	3	63	150421.9	1131.019	-156.087	1	1141.738	-7.857512	-1.390995E-005	0.0018116	9
	4	69	119484.4	1159.549	-93.53885	1	1163.315	-4.611968	3.238106E-005	-0.0158003	8
	5	76	94921.88	1169.618	-90.70769	1	1173.13	-4.434599	-8.714774E-006	-0.0010291	8
	6	79	75421.88	1178.006	-87.37208	1	1181.241	-4.241831	-8.804769E-006	-0.0009833	8
	7	81	59859.37	1182.189	-84.60938	1	1185.213	-4.093683	4.794681E-006	-0.0055278	8
	8	84	47578.12	1195.013	-84.82129	1	1198.02	-4.06001	1.963622E-005	-0.0028191	8
	9	87	37828.12	1204.174	-92.88321	1	1207.751	-4.410739	-1.36428E-005	0.0009986	8
	10	90	30046.88	1219.163	-102.9711	1	1223.503	-4.827772	1.585602E-005	-0.0070442	8
	11	94	23859.38	1234.12	-111.5434	1	1239.15	-5.16453	-1.429615E-005	0.0087446	8
	12	97	18984.38	1248.487	-127.0981	1	1254.939	-5.812783	1.996355E-005	-0.0070036	8
	13	100	15046.87	1266.424	-144.5839	1	1274.651	-6.513089	-1.851642E-005	0.004573	8
	14	104	11953.13	1288.978	-166.2578	1	1299.656	-7.349672	-1.024933E-006	0.0060352	8
	15	107	9515.62	1312.069	-189.5775	1	1325.694	-8.22162	-1.881097E-005	0.0087016	8
	16	110	7546.875	1336.987	-218.1154	1	1354.662	-9.26558	-1.388884E-005	0.0012502	8
	17	113	5928.309	1367.158	-254.065	1	1390.565	-10.52744	1.91838E-005	-0.0026277	8
	18	117	4733.456	1400.803	-291.0181	1	1430.713	-11.73631	-6.059844E-007	0.005922	8
	19	121	3796.875	1434.906	-328.8287	1	1472.102	-12.90726	-1.838983E-005	0.0086866	8
	20	125	2987.132	1476.961	-382.9098	1	1525.79	-14.53423	-8.322425E-006	0.007941	8
	21	129	2390.625	1515.306	-438.5161	1	1577.482	-16.13997	1.178645E-005	-0.0070668	8
	22	133	1884.191	1551.771	-510.2422	1	1633.506	-18.20152	1.940331E-005	-0.0026553	8
	23	137	1516.544	1596.854	-592.3969	1	1703.196	-20.35372	-1.717504E-005	0.0029252	8
	24	141	1193.986	1638.686	-699.6674	1	1781.804	-23.12096	2.129811E-005	-0.0044194	8
	25	146	946.5144	1679.027	-838.7825	1	1876.882	-26.54509	7.902403E-006	0.0030402	8
	26	148	751.7689	1716.921	-989.915	1	1981.854	-29.9662	7.472888E-006	0.0031278	8
	27	151	597.4265	1722.118	-1217.446	1	2108.996	-35.25829	1.72926E-005	-0.0076767	8
	28	154	477.4305	1771.608	-1478.771	1	2307.674	-39.85194	-3.102733E-007	0.000657	8
	29	156	376.6741	1807.677	-1829.526	1	2571.938	-45.34417	-2.651899E-007	0.0006266	8
	30	158	298.2954	1847.826	-2267.505	1	2925.07	-50.82286	-2.971013E-007	0.0006449	8
	31	161	237.7717	1893.87	-2802.121	1	3382.104	-55.9464	-2.65725E-007	0.0006376	8
	32	163	189.0121	1949.679	-3479.173	1	3988.219	-60.73434	-2.816385E-007	0.0006533	8
	33	165	150.2404	2024.594	-4334.854	1	4784.344	-64.96507	-5.594158E-008	0.0005976	7
	34	168	119.1737	2113.602	-5406.02	1	5804.512	-68.6459	-5.919778E-008	0.0005917	7
	35	170	95.0169	2221.118	-6711.991	1	7069.95	-71.6897	-5.664992E-008	0.0005947	7
	36	173	75.60484	2360.717	-8351.128	1	8678.383	-74.21534	-6.407481E-008	0.000642	7
	37	175	54.50582	2632.224	-11414.8	1	11714.36	-77.01472	-6.399753E-008	0.000647	7
	38	178	45.95588	2820.146	-13437.08	1	13729.83	-78.14692	-5.655329E-008	0.0005967	7
	39	180	37.20238	3112.733	-16437.54	1	16729.67	-79.27702	-5.774532E-008	0.0005845	7
	40	182	30.04808	3485.833	-20142.54	1	20441.94	-80.18174	-5.948077E-008	0.0005856	7
	41	185	23.91582	4008.516	-25013.9	1	25333.05	-80.89568	-5.708224E-008	0.0006018	7
	42	187	18.60119	4763.814	-31741.14	1	32096.63	-81.46457	-5.671478E-008	0.0006095	7
	43	190	15.02404	5629.06	-38827.77	1	39233.68	-81.75101	-5.895808E-008	0.0006298	7
	44	192	12.01923	6816.322	-47901	1	48383.55	-81.90117	-6.100719E-009	0.0006266	6
	45	194	9.450605	8473.687	-59982.51	1	60578.09	-81.95908	-7.584913E-009	0.0006975	6
	46	197	7.512019	10522.75	-74246.85	1	74988.82	-81.9334	-6.577499E-009	0.000621	6
	47	200	5.978954	13171.12	-91731.05	1	92671.8	-81.82908	-7.616778E-009	0.0006999	6
	48	203	4.734848	16710.9	-113857.3	1	115077.1	-81.65028	-6.882737E-009	0.0006699	6
	49	206	3.75601	21228.38	-140927.9	1	142517.8	-81.43378	-6.572723E-009	0.0006512	6
	50	211	3.004808	26958.6	-172959.2	1	175047.6	-81.14077	-6.733023E-009	0.0006133	6
	51	218	2.372217	34709.2	-214880.6	1	217665.8	-80.82439	-7.000076E-009	0.0005938	6
	52	222	1.878005	45580.36	-266087.8	1	269963.5	-80.27968	-7.058246E-009	0.0006647	6
	53	227	1.512097	58930.69	-323915.5	1	329232.6	-79.68883	-6.947987E-009	0.0005561	6
	54	232	1.201923	77437.7	-398856.7	1	406304.4	-79.01276	-7.173764E-009	0.0006839	6
	55	238	0.956633	102278.9	-488926.1	1	499509.4	-78.18462	-1.125487E-009	4.229487E-006	5
