EXPLAIN
TAG	EISPOT
TITLE	LABEL	Potentiostatic EIS	Test Identifier
DATE	LABEL	8/21/2020	Date
TIME	LABEL	20:43:15	Time
NOTES	NOTES	1	Notes...
	
PSTAT	PSTAT	REF3000-16137	Potentiostat
VDC	POTEN	0.00000E+000	T	DC Voltage (V)
FREQINIT	QUANT	3.00000E+005	Initial Freq. (Hz)
FREQFINAL	QUANT	1.00000E+000	Final Freq. (Hz)
PTSPERDEC	QUANT	1.00000E+001	Points/decade
VAC	QUANT	5.00000E+001	AC Voltage (mV rms)
AREA	QUANT	1.00000E+000	Sample Area (cm^2)
SPEED	SELECTOR	2	Optimize for:
ZGUESS	QUANT	1.00000E+003	Estimated Z (ohms)
EOC	QUANT	0	Open Circuit (V)
SEQUENCER	TOGGLE	TRUE	Run as Sequence
PSTATMODEL	IQUANT	5	Pstat Model
PSTATSECTION	LABEL	REF3000-16137	Pstat Section
PSTATSERIALNO	LABEL	16137	Pstat Serial Number
CTRLMODE	IQUANT	1	Control Mode
IESTAB	IQUANT	0	I/E Stability
CASPEED	IQUANT	1	Control Amp Speed
CONVENTION	IQUANT	1	Current Convention
ICHRANGE	IQUANT	2	Ich Range
ICHRANGEMODE	TOGGLE	F	Ich Auto Range
ICHOFFSETENABLE	TOGGLE	T	Ich Offset Enable
ICHOFFSET	QUANT	0	Ich Offset (V)
ICHFILTER	IQUANT	3	Ich Filter
VCHRANGE	IQUANT	2	Vch Range
VCHRANGEMODE	TOGGLE	F	Vch Auto Range
VCHOFFSETENABLE	TOGGLE	T	Vch Offset Enable
VCHOFFSET	QUANT	0	Vch Offset (V)
VCHFILTER	IQUANT	3	Vch Filter
ACHRANGE	IQUANT	2	Ach Range
ACHOFFSETENABLE	TOGGLE	F	Ach Offset Enable
ACHOFFSET	QUANT	0	Ach Offset (V)
ACHFILTER	IQUANT	3	Ach Filter
IERANGELOWERLIMIT	IQUANT	2	I/E Range Lower Limit
IERANGEMODE	TOGGLE	F	I/E AutoRange
IERANGE	IQUANT	11	I/E Range
POSFEEDENABLE	TOGGLE	F	Positive Feedback IR Comp
POSFEEDRESISTANCE	QUANT	0	Positive Feedback Resistance (ohm)
ACHSELECT	IQUANT	0	Ach Select
CABLEID	IQUANT	13	Cable ID
DCCALDATE	LABEL	7/31/2020	DC Calibration Date
ACCALDATE	LABEL	7/31/2020	AC Calibration Date
THERMOSELECT	IQUANT	1	Thermo Select
FRAMEWORKVERSION	QUANT	6.33	Framework Version
INSTRUMENTVERSION	LABEL	3.50	Instrument Version
COMPLIANCEVOLTAGE	IQUANT	0	Compliance Voltage
ZCURVE	TABLE
	Pt	Time	Freq	Zreal	Zimag	Zsig	Zmod	Zphz	Idc	Vdc	IERange
	#	s	Hz	ohm	ohm	V	ohm	°	A	V	#
	0	7	300046.9	43.25037	-2.886299	1	43.34657	-3.817955	-3.042709E-005	-0.000481	9
	1	10	238359.4	43.63461	-4.207493	1	43.837	-5.507751	1.36878E-005	-0.0001138	9
	2	14	189328.1	44.19104	-5.446998	1	44.52547	-7.026848	4.271428E-007	-0.0010755	9
	3	16	150421.9	44.79434	-6.878916	1	45.31945	-8.730517	-5.284205E-006	0.0004453	9
	4	19	119484.4	45.59447	-8.35756	1	46.35412	-10.38713	3.99802E-005	-0.0005983	9
	5	21	94921.88	46.43344	-9.83547	1	47.46368	-11.95955	-1.496097E-005	0.0004103	9
	6	24	75421.88	47.28308	-11.79558	1	48.73219	-14.00751	-1.479665E-005	0.000256	9
	7	26	59859.37	48.19831	-13.97568	1	50.18362	-16.17015	1.209805E-005	-0.0005036	9
	8	29	47578.12	49.14034	-16.62569	1	51.87665	-18.69226	2.000758E-005	-0.0003759	9
	9	31	37828.12	50.15998	-19.74429	1	53.90604	-21.48591	1.619754E-005	-0.0001857	9
	10	34	30046.88	51.15565	-23.51467	1	56.30134	-24.68677	-1.21501E-005	0.0002492	9
	11	36	23859.38	52.14025	-28.20219	1	59.27874	-28.40855	-2.878675E-006	-7.82116E-005	9
	12	39	18984.38	53.07769	-34.05375	1	63.06266	-32.68354	1.979237E-005	-0.0003542	9
	13	41	15046.87	54.0629	-41.49308	1	68.15038	-37.50611	9.325883E-006	-0.0004165	9
	14	43	11953.13	55.01435	-50.75961	1	74.85397	-42.69653	1.966481E-005	-0.0003382	9
	15	46	9515.62	56.02885	-62.34702	1	83.82352	-48.05519	1.692511E-005	-0.0001249	9
	16	48	7546.875	57.33802	-77.08293	1	96.0699	-53.35634	-1.450976E-005	0.0004596	9
	17	50	5928.309	58.68332	-96.633	1	113.056	-58.73051	1.762935E-005	-0.0004893	9
	18	52	4733.456	60.30447	-119.4492	1	133.8086	-63.21287	2.001314E-005	-0.0003812	9
	19	55	3796.875	62.28092	-147.3421	1	159.9644	-67.08642	1.965332E-005	-0.0002422	9
	20	57	2987.132	64.75424	-185.035	1	196.0385	-70.71217	1.755037E-005	-0.0004992	9
	21	59	2390.625	68.18069	-229.1246	1	239.0538	-73.42856	1.89858E-005	-0.0002872	9
	22	62	1884.191	72.74272	-288.1834	1	297.2225	-75.83344	1.924085E-005	-0.0004595	9
	23	64	1516.544	77.01565	-354.5325	1	362.8011	-77.74397	1.670308E-005	-0.000161	9
	24	66	1193.986	85.77194	-445.0123	1	453.2028	-79.09055	-1.534484E-005	0.0005442	9
	25	69	946.5144	94.91009	-553.5808	1	561.658	-80.27136	-2.565027E-006	0.0016831	8
	26	71	751.7689	106.9837	-691.5584	1	699.7847	-81.20609	1.861379E-006	0.0007145	8
	27	73	597.4265	123.9818	-861.6141	1	870.4886	-81.81164	-5.070744E-007	0.0014524	8
	28	76	477.4305	146.5502	-1065.358	1	1075.391	-82.16757	3.571136E-007	0.0006551	8
	29	78	376.6741	178.3215	-1334.329	1	1346.192	-82.38802	3.632588E-007	0.0006458	8
	30	80	298.2954	220.7174	-1663.633	1	1678.211	-82.4426	3.264387E-007	0.0007037	8
	31	83	237.7717	276.3375	-2059.132	1	2077.592	-82.35651	3.585586E-007	0.0006519	8
	32	85	189.0121	351.8912	-2552.064	1	2576.21	-82.14928	3.586923E-007	0.000649	8
	33	87	150.2404	453.6179	-3158.752	1	3191.157	-81.82781	3.651687E-007	0.0006547	8
	34	90	119.1737	591.3257	-3911.388	1	3955.834	-81.40309	3.659266E-007	0.0006538	8
	35	92	95.0169	770.7128	-4820.639	1	4881.86	-80.91656	3.698818E-008	0.0006301	7
	36	95	75.60484	1008.815	-5931.957	1	6017.127	-80.34836	3.447957E-008	0.000625	7
	37	97	54.50582	1491.947	-7959.808	1	8098.423	-79.38394	3.951689E-008	0.0006205	7
	38	100	45.95588	1838.12	-9269.534	1	9450.023	-78.78393	4.712623E-008	0.0006295	7
	39	102	37.20238	2391.529	-11180.28	1	11433.2	-77.92604	4.110211E-008	0.0006229	7
	40	104	30.04808	3130.1	-13481.09	1	13839.7	-76.92841	3.956525E-008	0.0006211	7
	41	107	23.91582	4164.728	-16391.54	1	16912.35	-75.74407	4.148551E-008	0.0006165	7
	42	109	18.60119	5731.51	-20227.23	1	21023.58	-74.1796	4.673805E-008	0.0006166	7
	43	112	15.02404	7545.973	-24082.59	1	25237.14	-72.60229	4.975378E-008	0.0006714	7
	44	114	12.01923	10037.09	-28672.03	1	30378.09	-70.70661	3.563541E-008	0.0006234	7
	45	116	9.450605	13548.6	-34305.74	1	36884.26	-68.4491	4.323417E-008	0.0006368	7
	46	119	7.512019	17850.05	-40303.14	1	44079.1	-66.1117	1.01729E-008	0.0006933	6
	47	122	5.978954	23205.04	-46725.5	1	52170.36	-63.58987	9.776266E-009	0.0006673	6
	48	125	4.734848	29848.17	-53436.38	1	61207.52	-60.81341	1.510508E-008	0.0007077	6
	49	128	3.75601	37585.1	-60149.63	1	70926.85	-58.00039	8.117659E-009	0.0006553	6
	50	131	3.004808	46221.56	-67141.35	1	81513.15	-55.45564	1.002979E-008	0.0006718	6
	51	135	2.372217	56659.38	-74659.43	1	93724.68	-52.80497	9.083332E-009	0.0007228	6
	52	139	1.878005	68354.77	-82312.69	1	106994.2	-50.2928	7.433826E-009	0.0006554	6
	53	144	1.512097	80023.59	-89447.02	1	120018.9	-48.18266	8.100599E-009	0.0006044	6
	54	149	1.201923	93804.14	-96864.1	1	134840.2	-45.91945	7.488377E-009	0.0006571	6
	55	156	0.956633	108593.1	-104186.5	1	150490.2	-43.8136	5.531061E-009	3.138553E-005	6
