EXPLAIN
TAG	EISPOT
TITLE	LABEL	Potentiostatic EIS	Test Identifier
DATE	LABEL	8/21/2020	Date
TIME	LABEL	22:16:57	Time
NOTES	NOTES	1	Notes...
	
PSTAT	PSTAT	REF3000-16137	Potentiostat
VDC	POTEN	0.00000E+000	T	DC Voltage (V)
FREQINIT	QUANT	3.00000E+005	Initial Freq. (Hz)
FREQFINAL	QUANT	1.00000E+000	Final Freq. (Hz)
PTSPERDEC	QUANT	1.00000E+001	Points/decade
VAC	QUANT	5.00000E+001	AC Voltage (mV rms)
AREA	QUANT	1.00000E+000	Sample Area (cm^2)
SPEED	SELECTOR	2	Optimize for:
ZGUESS	QUANT	1.00000E+003	Estimated Z (ohms)
EOC	QUANT	0	Open Circuit (V)
SEQUENCER	TOGGLE	TRUE	Run as Sequence
PSTATMODEL	IQUANT	5	Pstat Model
PSTATSECTION	LABEL	REF3000-16137	Pstat Section
PSTATSERIALNO	LABEL	16137	Pstat Serial Number
CTRLMODE	IQUANT	1	Control Mode
IESTAB	IQUANT	0	I/E Stability
CASPEED	IQUANT	1	Control Amp Speed
CONVENTION	IQUANT	1	Current Convention
ICHRANGE	IQUANT	2	Ich Range
ICHRANGEMODE	TOGGLE	F	Ich Auto Range
ICHOFFSETENABLE	TOGGLE	T	Ich Offset Enable
ICHOFFSET	QUANT	0	Ich Offset (V)
ICHFILTER	IQUANT	3	Ich Filter
VCHRANGE	IQUANT	2	Vch Range
VCHRANGEMODE	TOGGLE	F	Vch Auto Range
VCHOFFSETENABLE	TOGGLE	T	Vch Offset Enable
VCHOFFSET	QUANT	0	Vch Offset (V)
VCHFILTER	IQUANT	3	Vch Filter
ACHRANGE	IQUANT	2	Ach Range
ACHOFFSETENABLE	TOGGLE	F	Ach Offset Enable
ACHOFFSET	QUANT	0	Ach Offset (V)
ACHFILTER	IQUANT	3	Ach Filter
IERANGELOWERLIMIT	IQUANT	2	I/E Range Lower Limit
IERANGEMODE	TOGGLE	F	I/E AutoRange
IERANGE	IQUANT	11	I/E Range
POSFEEDENABLE	TOGGLE	F	Positive Feedback IR Comp
POSFEEDRESISTANCE	QUANT	0	Positive Feedback Resistance (ohm)
ACHSELECT	IQUANT	0	Ach Select
CABLEID	IQUANT	13	Cable ID
DCCALDATE	LABEL	7/31/2020	DC Calibration Date
ACCALDATE	LABEL	7/31/2020	AC Calibration Date
THERMOSELECT	IQUANT	1	Thermo Select
FRAMEWORKVERSION	QUANT	6.33	Framework Version
INSTRUMENTVERSION	LABEL	3.50	Instrument Version
COMPLIANCEVOLTAGE	IQUANT	0	Compliance Voltage
ZCURVE	TABLE
	Pt	Time	Freq	Zreal	Zimag	Zsig	Zmod	Zphz	Idc	Vdc	IERange
	#	s	Hz	ohm	ohm	V	ohm	°	A	V	#
	0	14	300046.9	-29.37162	-4761.772	1	4761.863	-90.35341	2.735518E-005	-0.0016604	9
	1	28	238359.4	80.0929	-5985.597	1	5986.133	-89.23338	1.986778E-005	-0.0009592	9
	2	43	189328.1	32.51657	-7066.526	1	7066.601	-89.73636	7.832819E-005	-0.0015974	9
	3	51	150421.9	244.8286	-9358.399	1	9361.602	-88.5014	5.315997E-007	0.0016541	9
	4	60	119484.4	884.7462	-11527.47	1	11561.37	-85.61109	2.039342E-005	-0.0092496	8
	5	67	94921.88	999.027	-14252.49	1	14287.46	-85.99042	1.731016E-005	0.0003101	8
	6	75	75421.88	815.2784	-17759.93	1	17778.63	-87.37165	-1.973665E-005	0.011285	8
	7	83	59859.37	1425.474	-22771.37	1	22815.94	-86.41799	1.62794E-005	-0.0092782	8
	8	92	47578.12	5463.588	-29487.44	1	29989.33	-79.50298	-5.290586E-006	0.0266611	7
	9	100	37828.12	2398.064	-35949.25	1	36029.15	-86.18363	-2.503267E-005	0.0111716	8
	10	108	30046.88	5052.408	-44865.36	1	45148.95	-83.57484	-1.587315E-005	0.0005373	8
	11	118	23859.38	9272.129	-56477.45	1	57233.51	-80.67669	-1.087951E-006	-0.0135615	7
	12	123	18984.38	12372.03	-71309.8	1	72375.1	-80.15733	-3.824707E-006	0.0257386	7
	13	130	15046.87	15817.62	-88882.14	1	90278.63	-79.90919	7.769466E-006	-0.0182032	7
	14	135	11953.13	20970.38	-108571.1	1	110577.7	-79.068	-6.639229E-006	0.0260832	7
	15	140	9515.62	29802.86	-134276.2	1	137543.8	-77.48595	-3.940851E-006	0.0260113	7
	16	146	7546.875	44883.97	-176008.1	1	181640.9	-75.69386	-1.926717E-006	0.0222551	7
	17	151	5928.309	58051.17	-218546	1	226124.5	-75.12434	-1.101854E-006	-0.0134397	7
	18	158	4733.456	123497.8	-255153.2	1	283469.3	-64.17235	5.964183E-007	-0.0279414	6
	19	162	3796.875	165666	-296044.6	1	339245.7	-60.7687	-4.105261E-007	0.0258259	6
	20	167	2987.132	207843.8	-377736.7	1	431142.8	-61.17888	4.293162E-007	0.0165186	7
	21	174	2390.625	278151.7	-359226.3	1	454325.8	-52.24911	7.516797E-007	-0.0226112	6
	22	179	1884.191	373639.7	-429685.1	1	569417.3	-48.99088	7.357256E-007	-0.0160063	6
	23	184	1516.544	472095.2	-448445.3	1	651135.2	-43.52832	-7.564695E-007	0.0234438	6
	24	190	1193.986	586292.4	-500186.2	1	770665.3	-40.46864	4.360969E-007	0.0019319	6
	25	195	946.5144	700703.6	-482979.7	1	851031.6	-34.57765	7.353856E-007	-0.027739	6
	26	199	751.7689	414833.2	-214976	1	467227.2	-27.39421	-5.56966E-006	0.027508	7
	27	205	597.4265	676996.1	126640.5	1	688739.1	10.59543	-1.759717E-006	0.0219367	7
	28	210	477.4305	924904.4	-341573.6	1	985962	-20.26954	-9.828972E-009	0.0006269	6
	29	214	376.6741	1044384	-201620.9	1	1063667	-10.92667	-1.014428E-009	0.0005947	5
	30	216	298.2954	1065701	-172713	1	1079605	-9.205617	-1.12977E-009	0.0006087	5
	31	219	237.7717	1086336	-150021.7	1	1096646	-7.862741	-1.170112E-009	0.0006856	5
	32	221	189.0121	1104398	-129008.3	1	1111907	-6.66271	-1.181438E-009	0.0006813	5
	33	224	150.2404	1114958	-113955.5	1	1120766	-5.835714	-1.094181E-009	0.0006269	5
	34	227	119.1737	1105108	-138984.8	1	1113813	-7.168215	-1.060047E-009	0.0006136	5
	35	229	95.0169	1159712	-97307.7	1	1163787	-4.796272	-1.12436E-009	0.0005901	5
	36	232	75.60484	1172223	-100649.6	1	1176536	-4.907506	-1.072831E-009	0.0006398	5
	37	235	54.50582	1200250	-84853.2	1	1203246	-4.04387	-1.087714E-009	0.0006381	5
	38	237	45.95588	1216879	-106706.4	1	1221549	-5.011367	-1.355722E-009	0.0006853	5
	39	240	37.20238	1238008	-112475	1	1243107	-5.191164	-1.34142E-009	0.0006609	5
	40	242	30.04808	1258811	-121457.7	1	1264657	-5.511185	-1.125487E-009	0.0006944	5
	41	245	23.91582	1284869	-133423.6	1	1291778	-5.928468	-1.30431E-009	0.0006763	5
	42	248	18.60119	1314426	-163488.5	1	1324555	-7.090041	-6.267293E-010	0.0006028	5
	43	250	15.02404	1343366	-176401.9	1	1354899	-7.480896	-5.779244E-010	0.0005994	5
	44	253	12.01923	1375821	-199746.7	1	1390246	-8.26069	-1.242454E-009	0.0006833	5
	45	255	9.450605	1413660	-229708.9	1	1432201	-9.22946	-1.564967E-009	0.0006245	5
	46	258	7.512019	1457534	-266530.6	1	1481703	-10.36284	-1.388451E-009	0.0006777	5
	47	261	5.978954	1508653	-303628.9	1	1538904	-11.37924	-9.914027E-010	0.0006008	5
	48	265	4.734848	1565675	-348591.6	1	1604012	-12.55195	-1.112994E-009	0.0005943	5
	49	269	3.75601	1631592	-400512.5	1	1680031	-13.79189	-1.068963E-009	0.0006636	5
	50	274	3.004808	1707503	-461243.4	1	1768704	-15.11638	-1.168485E-009	0.0007247	5
	51	281	2.372217	1790692	-533626.8	1	1868512	-16.59407	-8.170294E-010	0.0006957	5
	52	285	1.878005	1862725	-622489.6	1	1963985	-18.47871	-9.606651E-010	0.0006165	5
	53	290	1.512097	1938438	-723524.7	1	2069065	-20.46816	-1.055372E-009	0.0007403	5
	54	295	1.201923	2030412	-857454.8	1	2204042	-22.89462	-9.575122E-010	0.000621	5
	55	301	0.956633	2126438	-1024294	1	2360280	-25.71987	-1.256753E-009	9.778655E-007	5
