EXPLAIN
TAG	EISPOT
TITLE	LABEL	Potentiostatic EIS	Test Identifier
DATE	LABEL	8/21/2020	Date
TIME	LABEL	21:31:24	Time
NOTES	NOTES	1	Notes...
	
PSTAT	PSTAT	REF3000-16137	Potentiostat
VDC	POTEN	0.00000E+000	T	DC Voltage (V)
FREQINIT	QUANT	3.00000E+005	Initial Freq. (Hz)
FREQFINAL	QUANT	1.00000E+000	Final Freq. (Hz)
PTSPERDEC	QUANT	1.00000E+001	Points/decade
VAC	QUANT	5.00000E+001	AC Voltage (mV rms)
AREA	QUANT	1.00000E+000	Sample Area (cm^2)
SPEED	SELECTOR	2	Optimize for:
ZGUESS	QUANT	1.00000E+003	Estimated Z (ohms)
EOC	QUANT	0	Open Circuit (V)
SEQUENCER	TOGGLE	TRUE	Run as Sequence
PSTATMODEL	IQUANT	5	Pstat Model
PSTATSECTION	LABEL	REF3000-16137	Pstat Section
PSTATSERIALNO	LABEL	16137	Pstat Serial Number
CTRLMODE	IQUANT	1	Control Mode
IESTAB	IQUANT	0	I/E Stability
CASPEED	IQUANT	1	Control Amp Speed
CONVENTION	IQUANT	1	Current Convention
ICHRANGE	IQUANT	2	Ich Range
ICHRANGEMODE	TOGGLE	F	Ich Auto Range
ICHOFFSETENABLE	TOGGLE	T	Ich Offset Enable
ICHOFFSET	QUANT	0	Ich Offset (V)
ICHFILTER	IQUANT	3	Ich Filter
VCHRANGE	IQUANT	2	Vch Range
VCHRANGEMODE	TOGGLE	F	Vch Auto Range
VCHOFFSETENABLE	TOGGLE	T	Vch Offset Enable
VCHOFFSET	QUANT	0	Vch Offset (V)
VCHFILTER	IQUANT	3	Vch Filter
ACHRANGE	IQUANT	2	Ach Range
ACHOFFSETENABLE	TOGGLE	F	Ach Offset Enable
ACHOFFSET	QUANT	0	Ach Offset (V)
ACHFILTER	IQUANT	3	Ach Filter
IERANGELOWERLIMIT	IQUANT	2	I/E Range Lower Limit
IERANGEMODE	TOGGLE	F	I/E AutoRange
IERANGE	IQUANT	11	I/E Range
POSFEEDENABLE	TOGGLE	F	Positive Feedback IR Comp
POSFEEDRESISTANCE	QUANT	0	Positive Feedback Resistance (ohm)
ACHSELECT	IQUANT	0	Ach Select
CABLEID	IQUANT	13	Cable ID
DCCALDATE	LABEL	7/31/2020	DC Calibration Date
ACCALDATE	LABEL	7/31/2020	AC Calibration Date
THERMOSELECT	IQUANT	1	Thermo Select
FRAMEWORKVERSION	QUANT	6.33	Framework Version
INSTRUMENTVERSION	LABEL	3.50	Instrument Version
COMPLIANCEVOLTAGE	IQUANT	0	Compliance Voltage
ZCURVE	TABLE
	Pt	Time	Freq	Zreal	Zimag	Zsig	Zmod	Zphz	Idc	Vdc	IERange
	#	s	Hz	ohm	ohm	V	ohm	°	A	V	#
	0	18	300046.9	548.3621	-64.33755	1	552.1234	-6.691735	3.136871E-005	0.0007076	9
	1	24	238359.4	564.2085	-55.21404	1	566.9037	-5.589229	-1.817626E-005	0.0010308	9
	2	35	189328.1	572.1956	-54.66302	1	574.8007	-5.457023	2.556321E-005	-0.0018302	9
	3	44	150421.9	578.7247	-49.94472	1	580.8758	-4.932481	-1.136246E-005	0.0016298	9
	4	49	119484.4	586.6766	-28.60195	1	587.3734	-2.791103	7.117589E-006	-0.0068387	8
	5	55	94921.88	591.8163	-30.73835	1	592.6141	-2.973214	-1.063234E-005	0.0069585	8
	6	58	75421.88	595.0389	-34.60979	1	596.0446	-3.328796	8.965098E-006	-0.0054156	8
	7	60	59859.37	600.3765	-41.90635	1	601.8373	-3.992776	1.296705E-006	0.0042629	8
	8	63	47578.12	604.1142	-47.78043	1	606.0008	-4.522208	-2.237722E-006	-0.0026366	8
	9	65	37828.12	612.6397	-56.71032	1	615.2589	-5.288637	-7.413962E-006	-0.0005479	8
	10	68	30046.88	618.8987	-67.24668	1	622.5414	-6.201168	1.727954E-005	-0.003598	8
	11	71	23859.38	627.2583	-76.72449	1	631.9332	-6.97362	-1.652664E-005	0.005418	8
	12	73	18984.38	638.0896	-88.83619	1	644.2439	-7.925893	-5.228032E-006	0.0060243	8
	13	75	15046.87	648.5253	-101.6126	1	656.4374	-8.904848	1.739805E-005	-0.0036931	8
	14	77	11953.13	661.1893	-121.3404	1	672.2312	-10.39912	3.58944E-006	-0.0042914	8
	15	80	9515.62	675.6696	-137.3699	1	689.4924	-11.49213	1.158653E-005	-0.0002655	8
	16	83	7546.875	690.301	-156.0865	1	707.7277	-12.7411	1.119529E-007	0.0046836	8
	17	85	5928.309	707.4384	-183.8909	1	730.9479	-14.57095	-1.099435E-005	0.0071177	8
	18	88	4733.456	726.7951	-209.8553	1	756.4855	-16.10558	-1.605908E-005	0.0042582	8
	19	91	3796.875	740.8974	-244.9042	1	780.325	-18.29134	6.897201E-006	0.002294	8
	20	93	2987.132	758.2245	-290.0216	1	811.7986	-20.9319	6.186695E-007	0.0045785	8
	21	96	2390.625	773.0022	-337.9045	1	843.6302	-23.61171	-1.205448E-005	0.0014715	8
	22	98	1884.191	786.2148	-401.2373	1	882.6806	-27.03706	-1.431311E-005	0.0028064	8
	23	101	1516.544	805.541	-483.237	1	939.3691	-30.95917	1.293429E-005	-0.0002693	8
	24	104	1193.986	823.6155	-589.34	1	1012.751	-35.5857	1.30583E-005	-0.0003996	8
	25	107	946.5144	835.5229	-720.3802	1	1103.198	-40.76761	-7.872603E-006	-0.0005301	8
	26	109	751.7689	857.1176	-884.3684	1	1231.567	-45.89649	-1.684864E-005	0.0055152	8
	27	112	597.4265	874.6166	-1097.46	1	1403.344	-51.44704	1.374727E-005	-0.0060503	8
	28	115	477.4305	894.8046	-1354.408	1	1623.298	-56.54882	-1.683066E-007	0.0006418	8
	29	117	376.6741	921.7848	-1693.753	1	1928.337	-61.44381	-1.566738E-007	0.0006278	8
	30	119	298.2954	954.937	-2113.969	1	2319.649	-65.69001	-1.58801E-007	0.0006303	8
	31	122	237.7717	995.557	-2624.173	1	2806.674	-69.2243	-1.884625E-007	0.0006406	8
	32	124	189.0121	1047.626	-3268.297	1	3432.097	-72.22717	-1.776938E-007	0.0006473	8
	33	126	150.2404	1114.376	-4069.792	1	4219.602	-74.68681	-1.943978E-007	0.0006649	8
	34	129	119.1737	1204.036	-5090.199	1	5230.663	-76.69186	-3.588135E-008	0.0005964	7
	35	131	95.0169	1315.572	-6319.959	1	6455.433	-78.24115	-3.774522E-008	0.0006241	7
	36	134	75.60484	1460.475	-7860.24	1	7994.771	-79.47417	-3.862854E-008	0.0005929	7
	37	136	54.50582	1749.329	-10732.04	1	10873.68	-80.74217	-3.694768E-008	0.0006078	7
	38	139	45.95588	1950.902	-12624.9	1	12774.75	-81.21567	-3.547049E-008	0.0006035	7
	39	141	37.20238	2268.094	-15420.49	1	15586.4	-81.63275	-3.705804E-008	0.0005948	7
	40	143	30.04808	2676.881	-18861.92	1	19050.93	-81.92254	-4.256085E-008	0.0006181	7
	41	146	23.91582	3258.816	-23397.02	1	23622.88	-82.07066	-4.245669E-008	0.0006451	7
	42	148	18.60119	4124.336	-29582.19	1	29868.31	-82.06301	-4.20404E-008	0.0006567	7
	43	150	15.02404	5041.887	-36094.74	1	36445.18	-82.0481	-3.98286E-008	0.0006251	7
	44	153	12.01923	6316.812	-44382.45	1	44829.72	-81.89968	-5.495933E-009	0.0006759	6
	45	155	9.450605	8093.684	-55426.32	1	56014.14	-81.69205	-4.158868E-009	0.0006809	6
	46	158	7.512019	10272.74	-68470.69	1	69237.02	-81.46748	-4.347416E-009	0.0006507	6
	47	160	5.978954	13176.9	-84396.15	1	85418.62	-81.12597	-4.845488E-009	0.000667	6
	48	163	4.734848	17059.6	-104540.1	1	105923	-80.73177	-3.897535E-009	0.0006642	6
	49	167	3.75601	22285.6	-129109.3	1	131018.6	-80.20666	-4.871678E-009	0.0006603	6
	50	172	3.004808	29027.91	-157942.8	1	160588.1	-79.58597	-4.561016E-009	0.0006403	6
	51	178	2.372217	38857.93	-194945.4	1	198780.4	-78.72713	-5.129358E-009	0.0006949	6
	52	183	1.878005	52372.3	-240183.8	1	245827.4	-77.69914	-5.308645E-009	0.0006629	6
	53	187	1.512097	68580.95	-289930.9	1	297931.6	-76.69173	-4.849825E-009	0.0005593	6
	54	193	1.201923	91848.93	-352589.8	1	364356.7	-75.39906	-5.313688E-009	0.0006597	6
	55	199	0.956633	121888.7	-425603.6	1	442713.6	-74.0188	-1.245251E-009	1.375211E-006	5
