EXPLAIN
TAG	EISPOT
TITLE	LABEL	Potentiostatic EIS	Test Identifier
DATE	LABEL	8/21/2020	Date
TIME	LABEL	20:22:45	Time
NOTES	NOTES	1	Notes...
	
PSTAT	PSTAT	REF3000-16137	Potentiostat
VDC	POTEN	0.00000E+000	T	DC Voltage (V)
FREQINIT	QUANT	3.00000E+005	Initial Freq. (Hz)
FREQFINAL	QUANT	1.00000E+000	Final Freq. (Hz)
PTSPERDEC	QUANT	1.00000E+001	Points/decade
VAC	QUANT	5.00000E+001	AC Voltage (mV rms)
AREA	QUANT	1.00000E+000	Sample Area (cm^2)
SPEED	SELECTOR	2	Optimize for:
ZGUESS	QUANT	1.00000E+003	Estimated Z (ohms)
EOC	QUANT	0	Open Circuit (V)
SEQUENCER	TOGGLE	TRUE	Run as Sequence
PSTATMODEL	IQUANT	5	Pstat Model
PSTATSECTION	LABEL	REF3000-16137	Pstat Section
PSTATSERIALNO	LABEL	16137	Pstat Serial Number
CTRLMODE	IQUANT	1	Control Mode
IESTAB	IQUANT	0	I/E Stability
CASPEED	IQUANT	1	Control Amp Speed
CONVENTION	IQUANT	1	Current Convention
ICHRANGE	IQUANT	2	Ich Range
ICHRANGEMODE	TOGGLE	F	Ich Auto Range
ICHOFFSETENABLE	TOGGLE	T	Ich Offset Enable
ICHOFFSET	QUANT	0	Ich Offset (V)
ICHFILTER	IQUANT	3	Ich Filter
VCHRANGE	IQUANT	2	Vch Range
VCHRANGEMODE	TOGGLE	F	Vch Auto Range
VCHOFFSETENABLE	TOGGLE	T	Vch Offset Enable
VCHOFFSET	QUANT	0	Vch Offset (V)
VCHFILTER	IQUANT	3	Vch Filter
ACHRANGE	IQUANT	2	Ach Range
ACHOFFSETENABLE	TOGGLE	F	Ach Offset Enable
ACHOFFSET	QUANT	0	Ach Offset (V)
ACHFILTER	IQUANT	3	Ach Filter
IERANGELOWERLIMIT	IQUANT	2	I/E Range Lower Limit
IERANGEMODE	TOGGLE	F	I/E AutoRange
IERANGE	IQUANT	11	I/E Range
POSFEEDENABLE	TOGGLE	F	Positive Feedback IR Comp
POSFEEDRESISTANCE	QUANT	0	Positive Feedback Resistance (ohm)
ACHSELECT	IQUANT	0	Ach Select
CABLEID	IQUANT	13	Cable ID
DCCALDATE	LABEL	7/31/2020	DC Calibration Date
ACCALDATE	LABEL	7/31/2020	AC Calibration Date
THERMOSELECT	IQUANT	1	Thermo Select
FRAMEWORKVERSION	QUANT	6.33	Framework Version
INSTRUMENTVERSION	LABEL	3.50	Instrument Version
COMPLIANCEVOLTAGE	IQUANT	0	Compliance Voltage
ZCURVE	TABLE
	Pt	Time	Freq	Zreal	Zimag	Zsig	Zmod	Zphz	Idc	Vdc	IERange
	#	s	Hz	ohm	ohm	V	ohm	°	A	V	#
	0	7	300046.9	34.8134	-3.0753	1	34.94896	-5.048216	-0.0001051	-0.0001016	10
	1	11	238359.4	35.16842	-4.054177	1	35.40133	-6.575967	-1.859931E-005	0.0004933	10
	2	14	189328.1	35.68916	-4.531805	1	35.97573	-7.236681	5.267105E-006	-0.0007888	9
	3	17	150421.9	36.13958	-5.75642	1	36.59516	-9.050216	-5.105006E-005	0.0013142	9
	4	19	119484.4	36.75024	-7.064404	1	37.42307	-10.88109	1.072864E-007	-0.0006932	9
	5	22	94921.88	37.48364	-8.350384	1	38.4025	-12.55894	-1.071171E-005	0.0003149	9
	6	24	75421.88	38.14706	-10.03249	1	39.44425	-14.73483	1.665005E-005	-0.0004869	9
	7	27	59859.37	38.87678	-11.96329	1	40.67584	-17.10436	1.754392E-005	-0.0002988	9
	8	29	47578.12	39.60986	-14.23219	1	42.08915	-19.76383	-1.333059E-005	0.0003212	9
	9	32	37828.12	40.35104	-16.96066	1	43.77066	-22.79837	1.816783E-005	-0.0004494	9
	10	34	30046.88	41.05738	-20.35582	1	45.8265	-26.37173	1.844624E-005	-0.0004092	9
	11	37	23859.38	41.78574	-24.54623	1	48.462	-30.43129	1.718671E-005	-0.0003388	9
	12	39	18984.38	42.45604	-29.78927	1	51.8644	-35.05541	1.565114E-005	-0.0001205	9
	13	41	15046.87	43.20052	-36.49986	1	56.5555	-40.19427	1.656225E-005	-0.0004589	9
	14	44	11953.13	44.0027	-44.85306	1	62.83339	-45.54831	1.724625E-005	-0.0004075	9
	15	46	9515.62	44.8561	-55.34771	1	71.24211	-50.97725	-1.433274E-005	0.0005678	9
	16	48	7546.875	45.93193	-68.57864	1	82.53951	-56.187	1.17092E-005	3.17631E-005	9
	17	51	5928.309	47.46448	-85.9789	1	98.2102	-61.09919	-2.630646E-006	-5.941512E-005	9
	18	53	4733.456	49.20501	-106.3377	1	117.1701	-65.16888	-3.128105E-006	-4.679014E-005	9
	19	55	3796.875	51.35215	-131.0903	1	140.7896	-68.60818	-9.545315E-007	0.0004378	9
	20	58	2987.132	54.29111	-164.5469	1	173.272	-71.74005	2.749698E-006	-0.0002169	9
	21	60	2390.625	57.27777	-203.6568	1	211.5581	-74.29154	-1.283357E-005	0.0003605	9
	22	62	1884.191	62.83358	-254.8286	1	262.4608	-76.14877	1.257406E-005	-0.0004145	9
	23	65	1516.544	69.21837	-313.2449	1	320.8014	-77.53947	1.250635E-005	-0.000412	9
	24	67	1193.986	78.03698	-393.1124	1	400.7831	-78.77215	-1.385178E-005	0.0005076	9
	25	69	946.5144	88.72104	-487.2949	1	495.3057	-79.68127	-3.46508E-007	0.0012866	8
	26	72	751.7689	103.7708	-605.6832	1	614.5083	-80.27799	-2.31431E-006	0.0015053	8
	27	74	597.4265	124.5725	-751.9045	1	762.1539	-80.59292	-2.501009E-006	0.0014134	8
	28	76	477.4305	151.7849	-926.86	1	939.2062	-80.69965	3.823794E-007	0.000653	8
	29	79	376.6741	190.112	-1155.308	1	1170.846	-80.65543	3.806969E-007	0.0006498	8
	30	81	298.2954	241.3496	-1432.945	1	1453.128	-80.43945	3.814863E-007	0.0006533	8
	31	83	237.7717	308.3659	-1763.444	1	1790.203	-80.08122	3.77408E-007	0.0006607	8
	32	86	189.0121	399.2079	-2171.823	1	2208.208	-79.58459	3.820204E-007	0.0006491	8
	33	88	150.2404	521.1553	-2668.594	1	2719.007	-78.94967	3.853308E-007	0.0006527	8
	34	91	119.1737	686.8953	-3279.08	1	3350.252	-78.16887	3.851263E-007	0.000651	8
	35	93	95.0169	901.9111	-3999.287	1	4099.725	-77.29137	3.866149E-007	0.0006444	8
	36	95	75.60484	1195.132	-4881.976	1	5026.134	-76.24423	4.468239E-008	0.0006229	7
	37	98	54.50582	1786.583	-6436.274	1	6679.633	-74.48639	4.450828E-008	0.0006117	7
	38	100	45.95588	2205.841	-7409.553	1	7730.925	-73.42161	5.211308E-008	0.0006247	7
	39	103	37.20238	2867.096	-8792.396	1	9248.053	-71.93947	4.472124E-008	0.0006225	7
	40	105	30.04808	3717.575	-10372.62	1	11018.69	-70.28217	4.541314E-008	0.0006186	7
	41	108	23.91582	4920.121	-12307.92	1	13254.9	-68.21082	4.492783E-008	0.0006205	7
	42	110	18.60119	6631.114	-14709.82	1	16135.38	-65.73438	5.515635E-008	0.0006274	7
	43	112	15.02404	8470.196	-16958.82	1	18956.42	-63.45986	4.174828E-008	0.0006225	7
	44	115	12.01923	10868.04	-19432.11	1	22264.79	-60.78247	4.812872E-008	0.0006388	7
	45	117	9.450605	13956.13	-22148.4	1	26178.72	-57.78419	3.174921E-008	0.0006136	7
	46	119	7.512019	17487.29	-24807.72	1	30351.74	-54.81949	4.345914E-008	0.0006574	7
	47	122	5.978954	21580.03	-27146.16	1	34678.69	-51.51682	4.238662E-008	0.0006369	7
	48	125	4.734848	26239.13	-29270.15	1	39309.46	-48.12547	3.759111E-008	0.0006175	7
	49	128	3.75601	31223.71	-30058.33	1	43340.78	-43.91056	-1.341069E-010	0.000671	6
	50	134	3.004808	35921.12	-30203.88	1	46931.88	-40.05843	-6.475848E-009	0.0006995	6
	51	140	2.372217	40691.42	-29883	1	50485.5	-36.29284	-4.14409E-009	0.0007245	6
	52	148	1.878005	44912.45	-28897.52	1	53405.95	-32.75799	-9.911957E-009	0.0006419	6
	53	157	1.512097	48618.6	-28220.67	1	56215.43	-30.13303	-8.77983E-009	0.0007384	6
	54	168	1.201923	52229.12	-27277.6	1	58923.24	-27.57663	-7.748247E-009	0.0006362	6
	55	180	0.956633	56082.89	-26592.73	1	62068.21	-25.36883	-2.333481E-008	3.29721E-005	6
