EXPLAIN
TAG	EISPOT
TITLE	LABEL	Potentiostatic EIS	Test Identifier
DATE	LABEL	8/21/2020	Date
TIME	LABEL	20:54:14	Time
NOTES	NOTES	1	Notes...
	
PSTAT	PSTAT	REF3000-16137	Potentiostat
VDC	POTEN	0.00000E+000	T	DC Voltage (V)
FREQINIT	QUANT	3.00000E+005	Initial Freq. (Hz)
FREQFINAL	QUANT	1.00000E+000	Final Freq. (Hz)
PTSPERDEC	QUANT	1.00000E+001	Points/decade
VAC	QUANT	5.00000E+001	AC Voltage (mV rms)
AREA	QUANT	1.00000E+000	Sample Area (cm^2)
SPEED	SELECTOR	2	Optimize for:
ZGUESS	QUANT	1.00000E+003	Estimated Z (ohms)
EOC	QUANT	0	Open Circuit (V)
SEQUENCER	TOGGLE	TRUE	Run as Sequence
PSTATMODEL	IQUANT	5	Pstat Model
PSTATSECTION	LABEL	REF3000-16137	Pstat Section
PSTATSERIALNO	LABEL	16137	Pstat Serial Number
CTRLMODE	IQUANT	1	Control Mode
IESTAB	IQUANT	0	I/E Stability
CASPEED	IQUANT	1	Control Amp Speed
CONVENTION	IQUANT	1	Current Convention
ICHRANGE	IQUANT	2	Ich Range
ICHRANGEMODE	TOGGLE	F	Ich Auto Range
ICHOFFSETENABLE	TOGGLE	T	Ich Offset Enable
ICHOFFSET	QUANT	0	Ich Offset (V)
ICHFILTER	IQUANT	3	Ich Filter
VCHRANGE	IQUANT	2	Vch Range
VCHRANGEMODE	TOGGLE	F	Vch Auto Range
VCHOFFSETENABLE	TOGGLE	T	Vch Offset Enable
VCHOFFSET	QUANT	0	Vch Offset (V)
VCHFILTER	IQUANT	3	Vch Filter
ACHRANGE	IQUANT	2	Ach Range
ACHOFFSETENABLE	TOGGLE	F	Ach Offset Enable
ACHOFFSET	QUANT	0	Ach Offset (V)
ACHFILTER	IQUANT	3	Ach Filter
IERANGELOWERLIMIT	IQUANT	2	I/E Range Lower Limit
IERANGEMODE	TOGGLE	F	I/E AutoRange
IERANGE	IQUANT	11	I/E Range
POSFEEDENABLE	TOGGLE	F	Positive Feedback IR Comp
POSFEEDRESISTANCE	QUANT	0	Positive Feedback Resistance (ohm)
ACHSELECT	IQUANT	0	Ach Select
CABLEID	IQUANT	13	Cable ID
DCCALDATE	LABEL	7/31/2020	DC Calibration Date
ACCALDATE	LABEL	7/31/2020	AC Calibration Date
THERMOSELECT	IQUANT	1	Thermo Select
FRAMEWORKVERSION	QUANT	6.33	Framework Version
INSTRUMENTVERSION	LABEL	3.50	Instrument Version
COMPLIANCEVOLTAGE	IQUANT	0	Compliance Voltage
ZCURVE	TABLE
	Pt	Time	Freq	Zreal	Zimag	Zsig	Zmod	Zphz	Idc	Vdc	IERange
	#	s	Hz	ohm	ohm	V	ohm	°	A	V	#
	0	7	300046.9	52.37375	-3.450763	1	52.48731	-3.769613	-3.059736E-005	-0.0004251	9
	1	10	238359.4	52.85514	-4.845762	1	53.07681	-5.238236	4.353344E-005	-0.0010094	9
	2	13	189328.1	53.47661	-6.226565	1	53.83788	-6.641347	7.751823E-006	-0.0010751	9
	3	16	150421.9	54.2396	-7.741881	1	54.78933	-8.123236	5.75016E-005	-0.00192	9
	4	18	119484.4	55.04165	-9.438245	1	55.845	-9.73014	1.233347E-005	0.0004388	9
	5	21	94921.88	56.09562	-11.01973	1	57.16777	-11.11398	1.993888E-005	-0.0003633	9
	6	23	75421.88	57.03247	-13.14674	1	58.5281	-12.98069	3.386197E-006	0.0003024	9
	7	26	59859.37	58.13089	-15.62464	1	60.1941	-15.04461	-1.974444E-006	0.000518	9
	8	28	47578.12	59.30126	-18.48045	1	62.11414	-17.30895	-3.048145E-006	-0.0001504	9
	9	31	37828.12	60.53469	-21.86177	1	64.36137	-19.85691	2.127999E-005	-0.000437	9
	10	33	30046.88	61.77202	-25.95239	1	67.00231	-22.78883	3.799649E-006	-0.0003209	9
	11	36	23859.38	63.01559	-30.94056	1	70.20172	-26.15097	2.072339E-005	-0.0002553	9
	12	38	18984.38	64.23051	-37.12933	1	74.18993	-30.03065	-1.579028E-005	0.0004023	9
	13	41	15046.87	65.43109	-44.88004	1	79.34384	-34.44674	-1.578723E-005	0.000501	9
	14	43	11953.13	66.59102	-54.83371	1	86.26181	-39.46941	3.830391E-006	-0.0003268	9
	15	45	9515.62	67.80047	-67.05849	1	95.3611	-44.68477	-1.658404E-005	0.0004533	9
	16	47	7546.875	69.05164	-82.69283	1	107.7322	-50.13684	-1.526267E-005	0.0003937	9
	17	50	5928.309	70.70099	-103.2924	1	125.1716	-55.60935	2.075277E-005	-0.0004996	9
	18	52	4733.456	72.50622	-127.4804	1	146.6574	-60.37035	-8.998565E-006	7.298885E-005	9
	19	54	3796.875	74.57004	-157.1772	1	173.9695	-64.6188	-2.004134E-006	0.0005441	9
	20	57	2987.132	77.24225	-197.4528	1	212.0235	-68.63489	-1.329697E-005	0.0002426	9
	21	59	2390.625	81.18937	-244.1235	1	257.2703	-71.60416	1.829851E-005	-0.000554	9
	22	61	1884.191	84.91074	-308.0286	1	319.5175	-74.58867	2.021017E-005	-0.0004808	9
	23	64	1516.544	90.89597	-378.0354	1	388.8095	-76.48027	-1.316767E-005	0.000233	9
	24	66	1193.986	97.9355	-473.5659	1	483.5866	-78.3157	4.121828E-006	-0.0006945	8
	25	68	946.5144	107.5052	-591.3309	1	601.0238	-79.69605	-2.411657E-006	0.0019103	8
	26	71	751.7689	119.2999	-738.2287	1	747.8062	-80.8202	3.334186E-006	-0.0006569	8
	27	73	597.4265	135.4517	-919.5898	1	929.512	-81.62082	-2.809757E-006	0.0010969	8
	28	75	477.4305	156.4785	-1138.885	1	1149.585	-82.17676	3.087841E-007	0.0006901	8
	29	78	376.6741	185.9924	-1427.791	1	1439.854	-82.57811	3.363772E-007	0.0006469	8
	30	80	298.2954	225.1428	-1782.566	1	1796.728	-82.80151	3.335647E-007	0.00065	8
	31	82	237.7717	276.0747	-2209.743	1	2226.922	-82.87864	3.371872E-007	0.0006441	8
	32	85	189.0121	345.3452	-2743.861	1	2765.509	-82.82642	3.406567E-007	0.000649	8
	33	87	150.2404	438.2011	-3404.364	1	3432.45	-82.66536	3.339179E-007	0.0007016	8
	34	90	119.1737	562.9941	-4225.312	1	4262.655	-82.41043	3.394064E-007	0.0006532	8
	35	92	95.0169	728.0479	-5223.959	1	5274.448	-82.06596	3.172172E-008	0.000626	7
	36	94	75.60484	943.506	-6447.957	1	6516.621	-81.6752	2.56261E-008	0.0006768	7
	37	97	54.50582	1379.556	-8698.976	1	8807.688	-80.9886	3.204888E-008	0.000621	7
	38	99	45.95588	1684.839	-10158.9	1	10297.67	-80.5833	3.612352E-008	0.0006697	7
	39	102	37.20238	2168.101	-12288.01	1	12477.81	-79.9937	3.249632E-008	0.0006278	7
	40	104	30.04808	2815.567	-14884.76	1	15148.71	-79.28862	3.106558E-008	0.0006166	7
	41	107	23.91582	3733.845	-18221.79	1	18600.41	-78.41977	3.426024E-008	0.0006148	7
	42	109	18.60119	5152.646	-22775.35	1	23350.94	-77.25213	2.960069E-008	0.0006134	7
	43	111	15.02404	6795.573	-27377.45	1	28208.23	-76.0599	4.191885E-008	0.0006254	7
	44	113	12.01923	9113.868	-33035.41	1	34269.54	-74.57679	2.994679E-008	0.0006566	7
	45	116	9.450605	12433.05	-40230.08	1	42107.48	-72.82631	3.305343E-008	0.0006304	7
	46	118	7.512019	16726.5	-48111.16	1	50935.84	-70.82929	5.061937E-009	0.0006687	6
	47	121	5.978954	22187.57	-56948.04	1	61117.65	-68.71358	5.809357E-009	0.0006722	6
	48	124	4.734848	29401.73	-67003.47	1	73170.53	-66.30769	7.374554E-009	0.0006554	6
	49	127	3.75601	38162.18	-77934.53	1	86776.4	-63.91041	7.363636E-009	0.0006695	6
	50	131	3.004808	48238.16	-89049.53	1	101275.6	-61.55558	9.412823E-009	0.0006319	6
	51	135	2.372217	60800.56	-101667.4	1	118460.9	-59.11916	6.719618E-009	0.0006065	6
	52	139	1.878005	75022.47	-114476.8	1	136869.7	-56.76114	6.922761E-009	0.0006696	6
	53	144	1.512097	89531.44	-127427.1	1	155735.5	-54.90778	7.053981E-009	0.0005487	6
	54	149	1.201923	106527.3	-142346.2	1	177793.4	-53.19001	6.144913E-009	0.0006803	6
	55	155	0.956633	125161.7	-158743	1	202150.4	-51.74583	4.983759E-009	3.045673E-005	6
