EXPLAIN
TAG	EISPOT
TITLE	LABEL	Potentiostatic EIS	Test Identifier
DATE	LABEL	8/21/2020	Date
TIME	LABEL	21:34:52	Time
NOTES	NOTES	1	Notes...
	
PSTAT	PSTAT	REF3000-16137	Potentiostat
VDC	POTEN	0.00000E+000	T	DC Voltage (V)
FREQINIT	QUANT	3.00000E+005	Initial Freq. (Hz)
FREQFINAL	QUANT	1.00000E+000	Final Freq. (Hz)
PTSPERDEC	QUANT	1.00000E+001	Points/decade
VAC	QUANT	5.00000E+001	AC Voltage (mV rms)
AREA	QUANT	1.00000E+000	Sample Area (cm^2)
SPEED	SELECTOR	2	Optimize for:
ZGUESS	QUANT	1.00000E+003	Estimated Z (ohms)
EOC	QUANT	0	Open Circuit (V)
SEQUENCER	TOGGLE	TRUE	Run as Sequence
PSTATMODEL	IQUANT	5	Pstat Model
PSTATSECTION	LABEL	REF3000-16137	Pstat Section
PSTATSERIALNO	LABEL	16137	Pstat Serial Number
CTRLMODE	IQUANT	1	Control Mode
IESTAB	IQUANT	0	I/E Stability
CASPEED	IQUANT	1	Control Amp Speed
CONVENTION	IQUANT	1	Current Convention
ICHRANGE	IQUANT	2	Ich Range
ICHRANGEMODE	TOGGLE	F	Ich Auto Range
ICHOFFSETENABLE	TOGGLE	T	Ich Offset Enable
ICHOFFSET	QUANT	0	Ich Offset (V)
ICHFILTER	IQUANT	3	Ich Filter
VCHRANGE	IQUANT	2	Vch Range
VCHRANGEMODE	TOGGLE	F	Vch Auto Range
VCHOFFSETENABLE	TOGGLE	T	Vch Offset Enable
VCHOFFSET	QUANT	0	Vch Offset (V)
VCHFILTER	IQUANT	3	Vch Filter
ACHRANGE	IQUANT	2	Ach Range
ACHOFFSETENABLE	TOGGLE	F	Ach Offset Enable
ACHOFFSET	QUANT	0	Ach Offset (V)
ACHFILTER	IQUANT	3	Ach Filter
IERANGELOWERLIMIT	IQUANT	2	I/E Range Lower Limit
IERANGEMODE	TOGGLE	F	I/E AutoRange
IERANGE	IQUANT	11	I/E Range
POSFEEDENABLE	TOGGLE	F	Positive Feedback IR Comp
POSFEEDRESISTANCE	QUANT	0	Positive Feedback Resistance (ohm)
ACHSELECT	IQUANT	0	Ach Select
CABLEID	IQUANT	13	Cable ID
DCCALDATE	LABEL	7/31/2020	DC Calibration Date
ACCALDATE	LABEL	7/31/2020	AC Calibration Date
THERMOSELECT	IQUANT	1	Thermo Select
FRAMEWORKVERSION	QUANT	6.33	Framework Version
INSTRUMENTVERSION	LABEL	3.50	Instrument Version
COMPLIANCEVOLTAGE	IQUANT	0	Compliance Voltage
ZCURVE	TABLE
	Pt	Time	Freq	Zreal	Zimag	Zsig	Zmod	Zphz	Idc	Vdc	IERange
	#	s	Hz	ohm	ohm	V	ohm	°	A	V	#
	0	21	300046.9	741.9174	-116.3065	1	750.9784	-8.909451	-2.008292E-005	0.0014532	9
	1	32	238359.4	755.7524	-102.254	1	762.6385	-7.705382	-1.911781E-005	0.0009794	9
	2	39	189328.1	773.8093	-88.27223	1	778.8278	-6.50788	-0.0001021	0.0037354	9
	3	49	150421.9	790.3373	-80.98257	1	794.4755	-5.850441	-1.47417E-006	-0.0017582	9
	4	59	119484.4	804.8897	-51.6548	1	806.5455	-3.671993	-2.773815E-005	0.016705	8
	5	65	94921.88	814.4634	-48.26721	1	815.8924	-3.391529	-1.276367E-005	0.0079124	8
	6	68	75421.88	816.1614	-48.57335	1	817.6056	-3.405906	8.233861E-006	0.0023935	8
	7	71	59859.37	823.5479	-56.70462	1	825.4977	-3.938831	1.860879E-005	-0.0050456	8
	8	73	47578.12	830.1096	-60.53873	1	832.3142	-4.171116	-8.241431E-006	-0.000767	8
	9	76	37828.12	838.3351	-69.15636	1	841.1827	-4.715794	1.941311E-005	-0.0056028	8
	10	78	30046.88	846.7117	-76.96324	1	850.2024	-5.193721	-1.527502E-005	0.0027689	8
	11	81	23859.38	856.8213	-89.16996	1	861.4488	-5.941422	-1.852017E-005	0.0071279	8
	12	84	18984.38	868.3914	-105.1841	1	874.7385	-6.906319	-3.050167E-006	-0.0028951	8
	13	86	15046.87	882.9324	-120.9149	1	891.1734	-7.797976	-1.859482E-005	0.007385	8
	14	88	11953.13	898.4623	-138.7991	1	909.1203	-8.781928	-1.923267E-005	0.0072575	8
	15	92	9515.62	917.0535	-158.7641	1	930.6949	-9.82193	-9.039675E-008	0.0052343	8
	16	94	7546.875	935.8298	-185.2187	1	953.983	-11.19525	1.811401E-005	-0.0063752	8
	17	97	5928.309	959.137	-212.128	1	982.314	-12.4711	-1.864417E-005	0.005972	8
	18	100	4733.456	977.848	-243.5344	1	1007.718	-13.98507	-1.849403E-005	0.0071588	8
	19	103	3796.875	1003.197	-278.4447	1	1041.122	-15.51239	-1.295341E-005	0.0012823	8
	20	106	2987.132	1030.792	-328.0289	1	1081.727	-17.65264	-1.278262E-005	0.001333	8
	21	109	2390.625	1049.943	-378.9	1	1116.219	-19.84334	2.070949E-005	-0.0055628	8
	22	112	1884.191	1080.063	-440.8546	1	1166.572	-22.20404	1.844151E-005	-0.0064995	8
	23	115	1516.544	1102.719	-519.6029	1	1219.006	-25.22989	-1.3033E-005	0.0014028	8
	24	118	1193.986	1124.819	-629.0285	1	1288.757	-29.21507	-7.166847E-006	0.0071448	8
	25	122	946.5144	1149.512	-765.1229	1	1380.866	-33.64801	1.534123E-005	-0.0067069	8
	26	125	751.7689	1176.897	-929.7299	1	1499.828	-38.30818	-1.335043E-005	0.0014877	8
	27	127	597.4265	1191.652	-1141.881	1	1650.432	-43.77814	1.968003E-005	-0.004046	8
	28	130	477.4305	1218.92	-1401.796	1	1857.633	-48.99167	-2.498435E-007	0.0006425	8
	29	132	376.6741	1248.552	-1746.923	1	2147.236	-54.44605	-2.11609E-007	0.0006288	8
	30	135	298.2954	1283.605	-2175.542	1	2525.99	-59.45871	-2.206796E-007	0.0006443	8
	31	137	237.7717	1326.081	-2697.359	1	3005.7	-63.82024	-2.170063E-007	0.0006423	8
	32	139	189.0121	1379.218	-3355.861	1	3628.229	-67.65793	-2.246431E-007	0.0006387	8
	33	142	150.2404	1450.956	-4185.824	1	4430.169	-70.88185	-4.877846E-008	0.0005998	7
	34	144	119.1737	1537.428	-5221.813	1	5443.438	-73.5943	-4.725596E-008	0.0005933	7
	35	147	95.0169	1645.977	-6486.249	1	6691.836	-75.76096	-4.621432E-008	0.0005893	7
	36	149	75.60484	1787.728	-8069.677	1	8265.328	-77.50864	-5.318769E-008	0.0006236	7
	37	152	54.50582	2064.48	-11026.65	1	11218.24	-79.39548	-5.080854E-008	0.0006266	7
	38	154	45.95588	2261.754	-12974.26	1	13169.93	-80.11122	-4.60568E-008	0.0006082	7
	39	157	37.20238	2562.76	-15858.95	1	16064.69	-80.82053	-5.020111E-008	0.0006335	7
	40	159	30.04808	2956.169	-19415.15	1	19638.92	-81.34258	-4.676544E-008	0.0005965	7
	41	161	23.91582	3505.037	-24101.36	1	24354.89	-81.72554	-5.299145E-008	0.0006183	7
	42	164	18.60119	4325.511	-30533.74	1	30838.6	-81.93694	-5.356465E-008	0.0006372	7
	43	166	15.02404	5218.561	-37289.68	1	37653.07	-82.03339	-5.284027E-008	0.00064	7
	44	168	12.01923	6458.706	-45922.11	1	46374.07	-81.99416	-5.996732E-009	0.0006977	6
	45	171	9.450605	8180.296	-57400.01	1	57979.98	-81.88918	-5.096788E-009	0.0006196	6
	46	173	7.512019	10318.2	-70955.19	1	71701.49	-81.72613	-6.423284E-009	0.0006776	6
	47	176	5.978954	13034.11	-87568.5	1	88533.22	-81.53398	-6.254253E-009	0.0006725	6
	48	179	4.734848	16699.78	-108503.9	1	109781.5	-81.25029	-5.648121E-009	0.0006273	6
	49	182	3.75601	21544.18	-134196.5	1	135914.9	-80.87944	-5.238397E-009	0.0006578	6
	50	188	3.004808	27752.23	-164471.9	1	166796.8	-80.42239	-5.263432E-009	0.0006265	6
	51	194	2.372217	36744.41	-204027.1	1	207309.5	-79.79072	-5.929765E-009	0.0005805	6
	52	199	1.878005	48453.72	-251889.4	1	256507.4	-79.11153	-5.642173E-009	0.0006647	6
	53	203	1.512097	63389.93	-304866.2	1	311386.7	-78.25402	-5.838576E-009	0.0006005	6
	54	209	1.201923	84376.63	-373942	1	383343.3	-77.28467	-5.92284E-009	0.0006917	6
	55	215	0.956633	112304.8	-455341.8	1	468986.7	-76.14516	-1.206204E-009	-1.675647E-006	5
