EXPLAIN
TAG	EISPOT
TITLE	LABEL	Potentiostatic EIS	Test Identifier
DATE	LABEL	8/21/2020	Date
TIME	LABEL	23:22:58	Time
NOTES	NOTES	1	Notes...
	
PSTAT	PSTAT	REF3000-16137	Potentiostat
VDC	POTEN	0.00000E+000	T	DC Voltage (V)
FREQINIT	QUANT	3.00000E+005	Initial Freq. (Hz)
FREQFINAL	QUANT	1.00000E+000	Final Freq. (Hz)
PTSPERDEC	QUANT	1.00000E+001	Points/decade
VAC	QUANT	5.00000E+001	AC Voltage (mV rms)
AREA	QUANT	1.00000E+000	Sample Area (cm^2)
SPEED	SELECTOR	2	Optimize for:
ZGUESS	QUANT	1.00000E+003	Estimated Z (ohms)
EOC	QUANT	0	Open Circuit (V)
SEQUENCER	TOGGLE	TRUE	Run as Sequence
PSTATMODEL	IQUANT	5	Pstat Model
PSTATSECTION	LABEL	REF3000-16137	Pstat Section
PSTATSERIALNO	LABEL	16137	Pstat Serial Number
CTRLMODE	IQUANT	1	Control Mode
IESTAB	IQUANT	0	I/E Stability
CASPEED	IQUANT	1	Control Amp Speed
CONVENTION	IQUANT	1	Current Convention
ICHRANGE	IQUANT	2	Ich Range
ICHRANGEMODE	TOGGLE	F	Ich Auto Range
ICHOFFSETENABLE	TOGGLE	T	Ich Offset Enable
ICHOFFSET	QUANT	0	Ich Offset (V)
ICHFILTER	IQUANT	3	Ich Filter
VCHRANGE	IQUANT	2	Vch Range
VCHRANGEMODE	TOGGLE	F	Vch Auto Range
VCHOFFSETENABLE	TOGGLE	T	Vch Offset Enable
VCHOFFSET	QUANT	0	Vch Offset (V)
VCHFILTER	IQUANT	3	Vch Filter
ACHRANGE	IQUANT	2	Ach Range
ACHOFFSETENABLE	TOGGLE	F	Ach Offset Enable
ACHOFFSET	QUANT	0	Ach Offset (V)
ACHFILTER	IQUANT	3	Ach Filter
IERANGELOWERLIMIT	IQUANT	2	I/E Range Lower Limit
IERANGEMODE	TOGGLE	F	I/E AutoRange
IERANGE	IQUANT	11	I/E Range
POSFEEDENABLE	TOGGLE	F	Positive Feedback IR Comp
POSFEEDRESISTANCE	QUANT	0	Positive Feedback Resistance (ohm)
ACHSELECT	IQUANT	0	Ach Select
CABLEID	IQUANT	13	Cable ID
DCCALDATE	LABEL	7/31/2020	DC Calibration Date
ACCALDATE	LABEL	7/31/2020	AC Calibration Date
THERMOSELECT	IQUANT	1	Thermo Select
FRAMEWORKVERSION	QUANT	6.33	Framework Version
INSTRUMENTVERSION	LABEL	3.50	Instrument Version
COMPLIANCEVOLTAGE	IQUANT	0	Compliance Voltage
ZCURVE	TABLE
	Pt	Time	Freq	Zreal	Zimag	Zsig	Zmod	Zphz	Idc	Vdc	IERange
	#	s	Hz	ohm	ohm	V	ohm	°	A	V	#
	0	6	300046.9	41.6481	-2.770718	1	41.74016	-3.806101	-6.19971E-005	0.0015233	9
	1	10	238359.4	41.85418	-4.097296	1	42.05425	-5.591129	1.857485E-005	-0.0002	9
	2	13	189328.1	42.2564	-5.271485	1	42.58394	-7.11091	5.135134E-006	-0.0008588	9
	3	15	150421.9	42.68303	-6.616612	1	43.19283	-8.811707	-3.799126E-005	0.0007651	9
	4	18	119484.4	43.20171	-8.012081	1	43.93838	-10.50656	5.304141E-005	-0.0016664	9
	5	20	94921.88	43.84529	-9.466619	1	44.85561	-12.18368	1.478696E-005	-0.0005587	9
	6	23	75421.88	44.47714	-11.2948	1	45.88887	-14.24885	-1.225396E-006	0.0004168	9
	7	25	59859.37	45.19028	-13.41191	1	47.13852	-16.53023	1.850319E-005	-0.0005038	9
	8	28	47578.12	45.94202	-15.90734	1	48.61802	-19.09832	1.8822E-005	-0.0004053	9
	9	30	37828.12	46.69867	-18.84308	1	50.357	-21.97425	3.054028E-006	-0.0002594	9
	10	33	30046.88	47.4759	-22.46302	1	52.52189	-25.32097	-3.540237E-006	-7.009819E-005	9
	11	36	23859.38	48.22653	-26.95297	1	55.24727	-29.20007	-1.310292E-005	0.0006192	9
	12	38	18984.38	48.99276	-32.51441	1	58.80032	-33.57053	1.853803E-005	-0.000456	9
	13	40	15046.87	49.72059	-39.68502	1	63.61633	-38.59549	8.949898E-006	-0.0004006	9
	14	42	11953.13	50.51447	-48.56618	1	70.07414	-43.8735	-1.190723E-005	0.0005841	9
	15	45	9515.62	51.35215	-59.58817	1	78.66252	-49.24575	1.96784E-005	-0.0003589	9
	16	47	7546.875	52.44683	-73.75732	1	90.50311	-54.5844	-2.470659E-006	0.0004171	9
	17	49	5928.309	53.80595	-92.20282	1	106.7541	-59.73384	1.855646E-005	-0.0004383	9
	18	52	4733.456	55.38509	-113.864	1	126.6196	-64.06105	-1.070069E-005	0.0005887	9
	19	54	3796.875	57.31531	-140.2536	1	151.5128	-67.77238	-2.753605E-006	0.0004228	9
	20	56	2987.132	60.1816	-175.8819	1	185.8932	-71.11057	1.096481E-005	3.127083E-005	9
	21	59	2390.625	64.37054	-216.642	1	226.0029	-73.45181	-1.470193E-005	0.0005636	9
	22	61	1884.191	68.95682	-272.2982	1	280.8938	-75.78917	-1.192333E-005	0.0002228	9
	23	63	1516.544	74.45677	-334.4995	1	342.6861	-77.45103	2.891142E-006	-0.0002634	9
	24	66	1193.986	83.25228	-418.9713	1	427.1627	-78.76135	1.335911E-005	-0.0004707	9
	25	68	946.5144	94.20472	-520.1835	1	528.6448	-79.73505	-2.623006E-006	0.0014926	8
	26	70	751.7689	107.912	-647.4747	1	656.4057	-80.53772	-2.118927E-006	0.0016014	8
	27	73	597.4265	127.0622	-803.0088	1	812.9993	-81.00848	4.97407E-007	0.0010808	8
	28	75	477.4305	153.9191	-991.886	1	1003.758	-81.1793	3.464366E-007	0.0006445	8
	29	77	376.6741	191.6618	-1237.984	1	1252.732	-81.19947	3.332178E-007	0.0006424	8
	30	80	298.2954	242.6496	-1537.81	1	1556.836	-81.03328	3.465675E-007	0.0006481	8
	31	82	237.7717	310.3461	-1895.677	1	1920.913	-80.70245	3.517848E-007	0.0006515	8
	32	84	189.0121	403.8089	-2339.055	1	2373.655	-80.20514	3.24818E-007	0.0006806	8
	33	87	150.2404	531.6821	-2880.543	1	2929.2	-79.54221	3.529918E-007	0.0006369	8
	34	89	119.1737	708.2011	-3545.247	1	3615.291	-78.70325	3.564978E-007	0.0006484	8
	35	92	95.0169	948.4052	-4339.89	1	4442.31	-77.67283	1.254437E-008	0.0006119	7
	36	94	75.60484	1275.345	-5294.192	1	5445.638	-76.45579	8.017619E-009	0.0006186	7
	37	97	54.50582	1963.202	-6983.795	1	7254.485	-74.29889	1.071402E-008	0.0006061	7
	38	99	45.95588	2455.138	-8030.217	1	8397.147	-72.99965	1.488279E-008	0.0006212	7
	39	102	37.20238	3240.44	-9489.583	1	10027.59	-71.14633	1.547507E-008	0.0006172	7
	40	104	30.04808	4277.157	-11153.91	1	11945.87	-69.01982	3.686977E-009	0.0006202	7
	41	106	23.91582	5701.691	-13104.4	1	14291.07	-66.48627	5.591991E-009	0.0006219	7
	42	109	18.60119	7780.242	-15471.7	1	17317.79	-63.30359	2.525456E-009	0.0006247	7
	43	111	15.02404	9993.64	-17542.85	1	20189.71	-60.33112	2.095323E-008	0.0006263	7
	44	113	12.01923	12787.18	-19664.35	1	23456.31	-56.96518	1.222008E-009	0.0006132	7
	45	116	9.450605	16299.68	-21774.47	1	27199.39	-53.18263	-1.982534E-009	0.0006092	7
	46	118	7.512019	20176.53	-23482.79	1	30960.2	-49.33067	2.834961E-009	0.0006042	7
	47	121	5.978954	24325.06	-24626.13	1	34614.37	-45.35238	3.453824E-009	0.0006167	7
	48	124	4.734848	28712.93	-25056.04	1	38108.23	-41.10924	5.507173E-009	0.0005916	7
	49	127	3.75601	32775.57	-24260.43	1	40777.53	-36.50879	-2.674795E-008	0.0006782	6
	50	133	3.004808	36278.31	-23282.28	1	43106.62	-32.69107	-2.589522E-008	0.0006829	6
	51	139	2.372217	39949.68	-22588.98	1	45893.78	-29.48537	-3.099517E-008	0.0005814	6
	52	143	1.878005	42320.72	-20452.99	1	47003.92	-25.79381	-2.954026E-008	0.0007007	6
	53	152	1.512097	44269.85	-19110.42	1	48218.54	-23.3489	-2.997164E-008	0.0006432	6
	54	163	1.201923	46308.22	-17909.93	1	49650.95	-21.14422	-3.142931E-008	0.0006878	6
	55	176	0.956633	48437.82	-16901.7	1	51301.95	-19.23572	-5.210147E-008	2.704935E-005	6
