EXPLAIN
TAG	EISPOT
TITLE	LABEL	Potentiostatic EIS	Test Identifier
DATE	LABEL	8/21/2020	Date
TIME	LABEL	22:59:34	Time
NOTES	NOTES	1	Notes...
	
PSTAT	PSTAT	REF3000-16137	Potentiostat
VDC	POTEN	0.00000E+000	T	DC Voltage (V)
FREQINIT	QUANT	3.00000E+005	Initial Freq. (Hz)
FREQFINAL	QUANT	1.00000E+000	Final Freq. (Hz)
PTSPERDEC	QUANT	1.00000E+001	Points/decade
VAC	QUANT	5.00000E+001	AC Voltage (mV rms)
AREA	QUANT	1.00000E+000	Sample Area (cm^2)
SPEED	SELECTOR	2	Optimize for:
ZGUESS	QUANT	1.00000E+003	Estimated Z (ohms)
EOC	QUANT	0	Open Circuit (V)
SEQUENCER	TOGGLE	TRUE	Run as Sequence
PSTATMODEL	IQUANT	5	Pstat Model
PSTATSECTION	LABEL	REF3000-16137	Pstat Section
PSTATSERIALNO	LABEL	16137	Pstat Serial Number
CTRLMODE	IQUANT	1	Control Mode
IESTAB	IQUANT	0	I/E Stability
CASPEED	IQUANT	1	Control Amp Speed
CONVENTION	IQUANT	1	Current Convention
ICHRANGE	IQUANT	2	Ich Range
ICHRANGEMODE	TOGGLE	F	Ich Auto Range
ICHOFFSETENABLE	TOGGLE	T	Ich Offset Enable
ICHOFFSET	QUANT	0	Ich Offset (V)
ICHFILTER	IQUANT	3	Ich Filter
VCHRANGE	IQUANT	2	Vch Range
VCHRANGEMODE	TOGGLE	F	Vch Auto Range
VCHOFFSETENABLE	TOGGLE	T	Vch Offset Enable
VCHOFFSET	QUANT	0	Vch Offset (V)
VCHFILTER	IQUANT	3	Vch Filter
ACHRANGE	IQUANT	2	Ach Range
ACHOFFSETENABLE	TOGGLE	F	Ach Offset Enable
ACHOFFSET	QUANT	0	Ach Offset (V)
ACHFILTER	IQUANT	3	Ach Filter
IERANGELOWERLIMIT	IQUANT	2	I/E Range Lower Limit
IERANGEMODE	TOGGLE	F	I/E AutoRange
IERANGE	IQUANT	11	I/E Range
POSFEEDENABLE	TOGGLE	F	Positive Feedback IR Comp
POSFEEDRESISTANCE	QUANT	0	Positive Feedback Resistance (ohm)
ACHSELECT	IQUANT	0	Ach Select
CABLEID	IQUANT	13	Cable ID
DCCALDATE	LABEL	7/31/2020	DC Calibration Date
ACCALDATE	LABEL	7/31/2020	AC Calibration Date
THERMOSELECT	IQUANT	1	Thermo Select
FRAMEWORKVERSION	QUANT	6.33	Framework Version
INSTRUMENTVERSION	LABEL	3.50	Instrument Version
COMPLIANCEVOLTAGE	IQUANT	0	Compliance Voltage
ZCURVE	TABLE
	Pt	Time	Freq	Zreal	Zimag	Zsig	Zmod	Zphz	Idc	Vdc	IERange
	#	s	Hz	ohm	ohm	V	ohm	°	A	V	#
	0	14	300046.9	-133.2858	-4921.554	1	4923.358	-91.55131	-0.00011	0.0037199	9
	1	30	238359.4	-238.3668	-6462.294	1	6466.689	-92.11244	4.621263E-006	-0.0020358	9
	2	50	189328.1	42.98136	-7370.372	1	7370.498	-89.66588	2.030137E-005	-0.0009045	9
	3	57	150421.9	329.3979	-9527.67	1	9533.36	-88.01991	-9.062309E-005	0.0022317	9
	4	67	119484.4	326.3675	-11755.83	1	11760.36	-88.40975	2.819004E-005	-0.0018498	9
	5	79	94921.88	601.4573	-14650.8	1	14663.14	-87.64916	-1.235207E-005	0.0104194	8
	6	88	75421.88	653.6489	-18328.95	1	18340.6	-87.95758	1.647607E-005	-0.0093602	8
	7	96	59859.37	264.0103	-22579.22	1	22580.76	-89.33009	2.3004E-005	-0.0027479	8
	8	105	47578.12	3828.247	-30227.22	1	30468.67	-82.78197	7.673058E-006	-0.0189186	7
	9	112	37828.12	823.1652	-36414.87	1	36424.18	-88.70504	1.648019E-005	-0.0092961	8
	10	121	30046.88	4500.154	-46147.79	1	46366.69	-84.43034	6.997421E-006	-0.0271692	7
	11	128	23859.38	4635.366	-60127.83	1	60306.24	-85.59168	1.726653E-005	0.0004267	8
	12	135	18984.38	4960.105	-72600.09	1	72769.33	-86.09158	-1.8656E-006	0.0223704	7
	13	140	15046.87	6963.193	-89610.3	1	89880.43	-85.55675	9.478971E-007	-0.0194494	7
	14	146	11953.13	2132.308	-113045.6	1	113065.7	-88.9194	-6.651765E-006	0.0261126	7
	15	152	9515.62	3473.778	-142268.2	1	142310.6	-88.60128	-7.460638E-006	0.0189709	7
	16	157	7546.875	2021.895	-178756.4	1	178767.8	-89.35196	-3.369288E-006	-0.0054778	7
	17	164	5928.309	-9578.12	-217201.2	1	217412.3	-92.52499	1.317862E-006	-0.0202742	7
	18	169	4733.456	37752.9	-298851.4	1	301226.6	-82.80016	-4.086348E-007	0.0258729	6
	19	173	3796.875	44261.26	-369755.2	1	372394.9	-83.17393	6.193299E-007	-0.0072177	6
	20	179	2987.132	-16958.48	-452574.7	1	452892.3	-92.14594	6.940953E-006	-0.027343	7
	21	185	2390.625	298337.6	-462119.3	1	550054.1	-57.15429	-1.236909E-005	0.0103722	8
	22	193	1884.191	-359858.3	-526475.8	1	637710.5	-124.3535	-2.494156E-005	0.0110833	8
	23	201	1516.544	-262832.4	1645718	1	1666574	99.0739	-2.040363E-005	0.0011293	9
	24	211	1193.986	-34650.73	-332546.8	1	334347.2	-95.9486	-1.202362E-006	-0.0051599	8
	25	219	946.5144	305049	-1301034	1	1336317	-76.80441	7.369929E-007	-0.0162364	6
	26	223	751.7689	50012.62	-1770194	1	1770901	-88.38168	-4.109993E-007	0.0257514	6
	27	228	597.4265	100394.7	-2725163	1	2727011	-87.89018	5.949454E-007	-0.0276829	6
	28	231	477.4305	85934.53	-2824348	1	2825655	-88.25724	-1.018195E-008	0.0006549	6
	29	236	376.6741	480907.3	-3687632	1	3718858	-82.56994	-1.094692E-009	0.0006747	5
	30	240	298.2954	502185.6	-4580586	1	4608032	-83.74345	-9.675465E-010	0.0006032	5
	31	243	237.7717	520051.9	-5587328	1	5611478	-84.6824	-9.537797E-010	0.0006261	5
	32	246	189.0121	577655.7	-7094929	1	7118406	-85.34535	-9.512904E-010	0.0005943	5
	33	248	150.2404	412415.9	-9146611	1	9155904	-87.41831	-1.053689E-009	0.0006203	5
	34	251	119.1737	2583601	-1.695297E+007	1	1.714871E+007	-81.33491	-9.72624E-010	0.0006273	5
	35	254	95.0169	833560.4	-1.369975E+007	1	1.372508E+007	-86.51814	-9.422706E-010	0.0005982	5
	36	257	75.60484	1271171	-1.680204E+007	1	1.685006E+007	-85.67348	-1.088895E-009	0.0006871	5
	37	260	54.50582	1251604	-2.448325E+007	1	2.451522E+007	-87.07354	-9.96783E-010	0.000585	5
	38	263	45.95588	2374311	-2.998143E+007	1	3.00753E+007	-85.47204	-9.548899E-010	0.000628	5
	39	267	37.20238	3174306	-3.603168E+007	1	3.617123E+007	-84.96538	-1.071184E-009	0.0006207	5
	40	271	30.04808	1257569	-4.255866E+007	1	4.257723E+007	-88.30746	-1.008891E-009	0.0006458	5
	41	275	23.91582	7644639	-5.437108E+007	1	5.490587E+007	-81.9966	-8.762743E-011	0.0005949	4
	42	278	18.60119	4.170198E+007	-7.52491E+007	1	8.603187E+007	-61.00541	-2.805188E-010	0.0006191	4
	43	282	15.02404	6936394	-8.707035E+007	1	8.734621E+007	-85.44519	-9.514227E-011	0.000617	4
	44	286	12.01923	7173595	-1.070028E+008	1	1.07243E+008	-86.16456	-1.073164E-010	0.0007233	4
	45	289	9.450605	195753.7	-1.350633E+008	1	1.350635E+008	-89.91696	-8.450635E-011	0.0006255	4
	46	293	7.512019	1.378618E+007	-1.61974E+008	1	1.625596E+008	-85.13508	-8.05739E-011	0.0006078	4
	47	298	5.978954	-5960979	-2.21712E+008	1	2.217921E+008	-91.54009	-8.244157E-011	0.0006011	4
	48	303	4.734848	4.910183E+007	-2.859598E+008	1	2.901448E+008	-80.25682	-1.0265E-011	0.0006753	3
	49	308	3.75601	-7513091	-3.138102E+008	1	3.139002E+008	-91.37148	-1.07139E-009	0.0007055	5
	50	316	3.004808	-2.635239E+007	-4.485655E+008	1	4.493389E+008	-93.36216	-1.111907E-009	0.000706	5
	51	326	2.372217	7.022301E+007	-5.42063E+008	1	5.465926E+008	-82.61858	-1.046362E-011	0.0006595	3
	52	331	1.878005	8.265898E+007	-6.773608E+008	1	6.823856E+008	-83.04254	-1.034484E-011	0.0007316	3
	53	340	1.512097	9.888364E+007	-8.34612E+008	1	8.404494E+008	-83.24318	-1.037016E-011	0.0006136	3
	54	347	1.201923	1.220571E+008	-1.043406E+009	1	1.050521E+009	-83.32789	-1.023887E-011	0.0007397	3
	55	358	0.956633	1.548609E+008	-1.290808E+009	1	1.300064E+009	-83.15881	-1.021621E-011	7.484204E-005	3
