EXPLAIN
TAG	EISPOT
TITLE	LABEL	Potentiostatic EIS	Test Identifier
DATE	LABEL	8/21/2020	Date
TIME	LABEL	21:05:14	Time
NOTES	NOTES	1	Notes...
	
PSTAT	PSTAT	REF3000-16137	Potentiostat
VDC	POTEN	0.00000E+000	T	DC Voltage (V)
FREQINIT	QUANT	3.00000E+005	Initial Freq. (Hz)
FREQFINAL	QUANT	1.00000E+000	Final Freq. (Hz)
PTSPERDEC	QUANT	1.00000E+001	Points/decade
VAC	QUANT	5.00000E+001	AC Voltage (mV rms)
AREA	QUANT	1.00000E+000	Sample Area (cm^2)
SPEED	SELECTOR	2	Optimize for:
ZGUESS	QUANT	1.00000E+003	Estimated Z (ohms)
EOC	QUANT	0	Open Circuit (V)
SEQUENCER	TOGGLE	TRUE	Run as Sequence
PSTATMODEL	IQUANT	5	Pstat Model
PSTATSECTION	LABEL	REF3000-16137	Pstat Section
PSTATSERIALNO	LABEL	16137	Pstat Serial Number
CTRLMODE	IQUANT	1	Control Mode
IESTAB	IQUANT	0	I/E Stability
CASPEED	IQUANT	1	Control Amp Speed
CONVENTION	IQUANT	1	Current Convention
ICHRANGE	IQUANT	2	Ich Range
ICHRANGEMODE	TOGGLE	F	Ich Auto Range
ICHOFFSETENABLE	TOGGLE	T	Ich Offset Enable
ICHOFFSET	QUANT	0	Ich Offset (V)
ICHFILTER	IQUANT	3	Ich Filter
VCHRANGE	IQUANT	2	Vch Range
VCHRANGEMODE	TOGGLE	F	Vch Auto Range
VCHOFFSETENABLE	TOGGLE	T	Vch Offset Enable
VCHOFFSET	QUANT	0	Vch Offset (V)
VCHFILTER	IQUANT	3	Vch Filter
ACHRANGE	IQUANT	2	Ach Range
ACHOFFSETENABLE	TOGGLE	F	Ach Offset Enable
ACHOFFSET	QUANT	0	Ach Offset (V)
ACHFILTER	IQUANT	3	Ach Filter
IERANGELOWERLIMIT	IQUANT	2	I/E Range Lower Limit
IERANGEMODE	TOGGLE	F	I/E AutoRange
IERANGE	IQUANT	11	I/E Range
POSFEEDENABLE	TOGGLE	F	Positive Feedback IR Comp
POSFEEDRESISTANCE	QUANT	0	Positive Feedback Resistance (ohm)
ACHSELECT	IQUANT	0	Ach Select
CABLEID	IQUANT	13	Cable ID
DCCALDATE	LABEL	7/31/2020	DC Calibration Date
ACCALDATE	LABEL	7/31/2020	AC Calibration Date
THERMOSELECT	IQUANT	1	Thermo Select
FRAMEWORKVERSION	QUANT	6.33	Framework Version
INSTRUMENTVERSION	LABEL	3.50	Instrument Version
COMPLIANCEVOLTAGE	IQUANT	0	Compliance Voltage
ZCURVE	TABLE
	Pt	Time	Freq	Zreal	Zimag	Zsig	Zmod	Zphz	Idc	Vdc	IERange
	#	s	Hz	ohm	ohm	V	ohm	°	A	V	#
	0	7	300046.9	67.33588	-4.265317	1	67.47084	-3.624495	6.3108E-007	0.0005116	9
	1	10	238359.4	68.06618	-5.711858	1	68.30542	-4.796808	1.000304E-005	-0.0014822	9
	2	14	189328.1	68.80464	-7.269705	1	69.18762	-6.031334	4.764178E-005	-0.0007616	9
	3	16	150421.9	69.67516	-8.937983	1	70.2461	-7.310023	-9.25015E-006	0.0010008	9
	4	19	119484.4	70.72268	-10.78287	1	71.53997	-8.66895	8.294792E-006	-0.0010293	9
	5	21	94921.88	71.90032	-12.63776	1	73.00253	-9.96892	1.098914E-005	-0.0005883	9
	6	24	75421.88	73.08923	-15.033	1	74.61922	-11.62252	-1.001317E-005	3.845496E-005	9
	7	26	59859.37	74.46718	-17.88362	1	76.5845	-13.5041	-1.796596E-005	0.000667	9
	8	29	47578.12	75.9304	-21.00607	1	78.78249	-15.46406	-1.772403E-005	0.0007326	9
	9	31	37828.12	77.51518	-24.77721	1	81.37883	-17.72613	2.095677E-005	-0.0003777	9
	10	34	30046.88	79.18361	-29.14438	1	84.37677	-20.20668	2.025847E-005	-0.0002934	9
	11	36	23859.38	80.86285	-34.44605	1	87.89386	-23.07309	-2.040967E-005	0.0006051	9
	12	39	18984.38	82.50124	-41.00613	1	92.1301	-26.42906	-1.402206E-005	0.0002408	9
	13	41	15046.87	84.20686	-49.23153	1	97.5425	-30.31269	-2.958198E-006	-0.0001624	9
	14	43	11953.13	85.84094	-59.71077	1	104.566	-34.82239	1.697995E-005	-0.0006364	9
	15	45	9515.62	87.33084	-72.54516	1	113.5318	-39.71619	-9.374862E-006	3.009162E-005	9
	16	48	7546.875	89.08801	-88.79871	1	125.7851	-44.90682	3.778599E-006	-0.0003451	9
	17	50	5928.309	90.9092	-110.7089	1	143.2513	-50.60868	-2.697983E-006	-0.0001946	9
	18	52	4733.456	92.85076	-136.2323	1	164.8651	-55.72313	4.371678E-006	-0.0003821	9
	19	55	3796.875	95.3787	-167.1912	1	192.4837	-60.29625	-1.686855E-005	0.0007516	9
	20	57	2987.132	98.072	-210.3369	1	232.077	-65.00218	4.105213E-006	0.0003734	9
	21	59	2390.625	101.7072	-259.5008	1	278.7203	-68.5981	2.134772E-005	-0.0004218	9
	22	62	1884.191	104.8505	-325.4061	1	341.8812	-72.14031	2.237197E-005	-0.0004182	9
	23	64	1516.544	110.8115	-401.3095	1	416.3274	-74.56386	2.261029E-005	-0.0005474	9
	24	66	1193.986	118.2076	-502.1145	1	515.8411	-76.75266	-4.344233E-006	0.0015596	8
	25	69	946.5144	129.3481	-628.053	1	641.2344	-78.36259	-5.370572E-007	8.073658E-005	8
	26	71	751.7689	139.905	-782.8581	1	795.2611	-79.86761	-8.063148E-007	0.0018482	8
	27	73	597.4265	154.858	-974.937	1	987.159	-80.97459	-4.195161E-006	0.0020036	8
	28	76	477.4305	174.9752	-1209.876	1	1222.463	-81.7708	2.984202E-007	0.0006426	8
	29	78	376.6741	202.7331	-1517.919	1	1531.397	-82.3926	2.990797E-007	0.0006448	8
	30	80	298.2954	239.0146	-1896.708	1	1911.708	-82.8177	2.931338E-007	0.0006522	8
	31	83	237.7717	285.9302	-2354.111	1	2371.412	-83.07478	2.988924E-007	0.0006456	8
	32	85	189.0121	348.8452	-2928.023	1	2948.731	-83.2058	2.927607E-007	0.00065	8
	33	88	150.2404	432.6902	-3638.268	1	3663.907	-83.21781	3.107244E-007	0.0006535	8
	34	90	119.1737	547.9223	-4536.87	1	4569.837	-83.11369	3.083219E-008	0.0006302	7
	35	92	95.0169	695.2015	-5609.165	1	5652.082	-82.93478	2.675714E-008	0.000625	7
	36	95	75.60484	890.9145	-6942.792	1	6999.721	-82.68764	2.6391E-008	0.0006225	7
	37	97	54.50582	1281.987	-9403.828	1	9490.81	-82.23695	2.968943E-008	0.0006206	7
	38	100	45.95588	1556.912	-11007.38	1	11116.95	-81.94934	3.190079E-008	0.0006282	7
	39	102	37.20238	1991.284	-13377.75	1	13525.14	-81.53366	2.884481E-008	0.0006338	7
	40	105	30.04808	2542.109	-16236.5	1	16434.3	-81.10158	2.58499E-008	0.0006286	7
	41	107	23.91582	3339.385	-20032.58	1	20309	-80.53595	2.788656E-008	0.000623	7
	42	110	18.60119	4561.059	-25146.82	1	25557.11	-79.71961	2.985069E-008	0.0006182	7
	43	112	15.02404	5989.113	-30460.99	1	31044.19	-78.87663	3.304092E-008	0.0006112	7
	44	114	12.01923	8017.908	-37111.76	1	37968	-77.80876	3.063015E-008	0.0006148	7
	45	117	9.450605	11019.77	-45707.07	1	47016.72	-76.44494	7.587778E-009	0.0006645	6
	46	119	7.512019	14923.83	-55463.8	1	57436.52	-74.93993	7.641334E-009	0.000675	6
	47	122	5.978954	20067.37	-66827.2	1	69775.16	-73.28564	6.738976E-009	0.0006633	6
	48	125	4.734848	27112.34	-80168.16	1	84628.67	-71.3148	6.916472E-009	0.0006941	6
	49	128	3.75601	36194.2	-95228.8	1	101875.1	-69.1894	4.738233E-009	0.0006531	6
	50	131	3.004808	47056.29	-111217.2	1	120762.4	-67.06665	4.095158E-009	0.0007052	6
	51	136	2.372217	61026.97	-129960.4	1	143575.7	-64.84613	5.006821E-009	0.0007173	6
	52	140	1.878005	77734.76	-149740.8	1	168715.7	-62.56488	5.294253E-009	0.0006409	6
	53	145	1.512097	95146.7	-169665	1	194522.8	-60.71666	4.698444E-009	0.0007663	6
	54	150	1.201923	115708.7	-193203.9	1	225202.7	-59.08285	5.005932E-009	0.0006479	6
	55	156	0.956633	138019.6	-219444.9	1	259240.2	-57.83222	3.09453E-009	2.202696E-005	6
