EXPLAIN
TAG	EISPOT
TITLE	LABEL	Potentiostatic EIS	Test Identifier
DATE	LABEL	8/21/2020	Date
TIME	LABEL	21:13:32	Time
NOTES	NOTES	1	Notes...
	
PSTAT	PSTAT	REF3000-16137	Potentiostat
VDC	POTEN	0.00000E+000	T	DC Voltage (V)
FREQINIT	QUANT	3.00000E+005	Initial Freq. (Hz)
FREQFINAL	QUANT	1.00000E+000	Final Freq. (Hz)
PTSPERDEC	QUANT	1.00000E+001	Points/decade
VAC	QUANT	5.00000E+001	AC Voltage (mV rms)
AREA	QUANT	1.00000E+000	Sample Area (cm^2)
SPEED	SELECTOR	2	Optimize for:
ZGUESS	QUANT	1.00000E+003	Estimated Z (ohms)
EOC	QUANT	0	Open Circuit (V)
SEQUENCER	TOGGLE	TRUE	Run as Sequence
PSTATMODEL	IQUANT	5	Pstat Model
PSTATSECTION	LABEL	REF3000-16137	Pstat Section
PSTATSERIALNO	LABEL	16137	Pstat Serial Number
CTRLMODE	IQUANT	1	Control Mode
IESTAB	IQUANT	0	I/E Stability
CASPEED	IQUANT	1	Control Amp Speed
CONVENTION	IQUANT	1	Current Convention
ICHRANGE	IQUANT	2	Ich Range
ICHRANGEMODE	TOGGLE	F	Ich Auto Range
ICHOFFSETENABLE	TOGGLE	T	Ich Offset Enable
ICHOFFSET	QUANT	0	Ich Offset (V)
ICHFILTER	IQUANT	3	Ich Filter
VCHRANGE	IQUANT	2	Vch Range
VCHRANGEMODE	TOGGLE	F	Vch Auto Range
VCHOFFSETENABLE	TOGGLE	T	Vch Offset Enable
VCHOFFSET	QUANT	0	Vch Offset (V)
VCHFILTER	IQUANT	3	Vch Filter
ACHRANGE	IQUANT	2	Ach Range
ACHOFFSETENABLE	TOGGLE	F	Ach Offset Enable
ACHOFFSET	QUANT	0	Ach Offset (V)
ACHFILTER	IQUANT	3	Ach Filter
IERANGELOWERLIMIT	IQUANT	2	I/E Range Lower Limit
IERANGEMODE	TOGGLE	F	I/E AutoRange
IERANGE	IQUANT	11	I/E Range
POSFEEDENABLE	TOGGLE	F	Positive Feedback IR Comp
POSFEEDRESISTANCE	QUANT	0	Positive Feedback Resistance (ohm)
ACHSELECT	IQUANT	0	Ach Select
CABLEID	IQUANT	13	Cable ID
DCCALDATE	LABEL	7/31/2020	DC Calibration Date
ACCALDATE	LABEL	7/31/2020	AC Calibration Date
THERMOSELECT	IQUANT	1	Thermo Select
FRAMEWORKVERSION	QUANT	6.33	Framework Version
INSTRUMENTVERSION	LABEL	3.50	Instrument Version
COMPLIANCEVOLTAGE	IQUANT	0	Compliance Voltage
ZCURVE	TABLE
	Pt	Time	Freq	Zreal	Zimag	Zsig	Zmod	Zphz	Idc	Vdc	IERange
	#	s	Hz	ohm	ohm	V	ohm	°	A	V	#
	0	7	300046.9	86.2569	-5.157513	1	86.41095	-3.421782	-7.253439E-005	0.0017079	9
	1	10	238359.4	86.93018	-6.760206	1	87.19264	-4.44671	-8.111488E-006	-0.0012599	9
	2	13	189328.1	87.83987	-8.57506	1	88.25743	-5.575633	-1.12923E-005	-0.0010446	9
	3	16	150421.9	88.82951	-10.47385	1	89.44486	-6.72467	6.606233E-005	-0.0021165	9
	4	18	119484.4	90.04299	-12.36656	1	90.88824	-7.820117	1.686747E-005	-0.0004608	9
	5	21	94921.88	91.38286	-14.43229	1	92.5155	-8.974718	-1.218725E-005	7.544629E-005	9
	6	23	75421.88	92.89343	-17.12303	1	94.45839	-10.44409	2.199907E-005	-0.0006735	9
	7	26	59859.37	94.5188	-20.19279	1	96.6517	-12.05926	1.845612E-005	-0.0007516	9
	8	29	47578.12	96.4412	-23.66785	1	99.3029	-13.78858	-9.489193E-006	1.376729E-005	9
	9	31	37828.12	98.4233	-27.73957	1	102.2576	-15.73993	-9.219249E-006	-8.568153E-006	9
	10	34	30046.88	100.5317	-32.51236	1	105.6583	-17.92142	-1.666779E-005	0.0007809	9
	11	36	23859.38	102.7113	-38.28677	1	109.6152	-20.4435	-1.701542E-005	0.0003335	9
	12	38	18984.38	104.9345	-45.21928	1	114.263	-23.3126	2.791336E-006	0.0003994	9
	13	41	15046.87	107.0771	-53.91082	1	119.8828	-26.7242	1.88569E-005	-0.0001003	9
	14	43	11953.13	109.4233	-64.54932	1	127.0436	-30.53655	-2.883439E-006	-0.0002062	9
	15	45	9515.62	111.3718	-77.92528	1	135.9265	-34.97995	5.233403E-006	-0.0004526	9
	16	48	7546.875	113.6512	-94.9174	1	148.074	-39.86743	1.217963E-005	0.0001724	9
	17	50	5928.309	116	-117.4263	1	165.0604	-45.35008	-1.931992E-005	0.0007601	9
	18	52	4733.456	118.3411	-143.7412	1	186.1885	-50.53562	1.2163E-005	-0.0005998	9
	19	55	3796.875	120.8126	-175.9932	1	213.4697	-55.53188	-1.891424E-005	0.0006617	9
	20	57	2987.132	124.0436	-220.8433	1	253.2954	-60.67787	-1.89012E-005	0.0005025	9
	21	59	2390.625	127.4932	-271.898	1	300.3049	-64.87808	2.817562E-006	0.000506	9
	22	62	1884.191	132.3463	-341.309	1	366.0702	-68.80566	-1.437406E-005	0.0002025	9
	23	64	1516.544	139.2354	-419.5457	1	442.0464	-71.64045	-1.427239E-005	0.0001894	9
	24	66	1193.986	145.1855	-525.3445	1	545.0374	-74.5512	-5.287977E-006	0.0023392	8
	25	69	946.5144	155.7825	-655.6799	1	673.9319	-76.63494	1.087937E-006	-0.0006549	8
	26	71	751.7689	166.5404	-818.3326	1	835.1071	-78.49672	-3.032742E-006	0.0006681	8
	27	74	597.4265	181.876	-1021.567	1	1037.631	-79.90504	6.369468E-006	-0.001329	8
	28	76	477.4305	201.4471	-1265.416	1	1281.351	-80.95473	2.366805E-007	0.0006537	8
	29	78	376.6741	228.1292	-1588.027	1	1604.329	-81.82507	2.361159E-007	0.000645	8
	30	80	298.2954	262.6516	-1985.17	1	2002.47	-82.46315	2.445786E-007	0.0006459	8
	31	83	237.7717	306.6165	-2465.449	1	2484.442	-82.91079	2.577685E-007	0.0006427	8
	32	85	189.0121	365.085	-3069.635	1	3091.27	-83.21743	2.416153E-007	0.0006623	8
	33	88	150.2404	442.7477	-3819.034	1	3844.613	-83.38712	2.544991E-007	0.0006459	8
	34	90	119.1737	550.0501	-4767.045	1	4798.674	-83.41798	2.33348E-008	0.0006248	7
	35	92	95.0169	685.1199	-5906.917	1	5946.517	-83.38405	2.196567E-008	0.0006148	7
	36	95	75.60484	866.2661	-7324.039	1	7375.09	-83.25456	1.860636E-008	0.0006217	7
	37	97	54.50582	1230.959	-9950.03	1	10025.88	-82.94754	1.910802E-008	0.0006198	7
	38	100	45.95588	1487.729	-11667.99	1	11762.45	-82.7337	2.419268E-008	0.0006198	7
	39	102	37.20238	1884.631	-14193.77	1	14318.35	-82.43658	2.093826E-008	0.0006304	7
	40	105	30.04808	2402.729	-17271.36	1	17437.69	-82.08005	1.917451E-008	0.0006262	7
	41	107	23.91582	3138.613	-21340.38	1	21569.95	-81.63327	1.821902E-008	0.0006171	7
	42	110	18.60119	4215.79	-26864.34	1	27193.12	-81.08138	1.924092E-008	0.0006252	7
	43	112	15.02404	5443.759	-32654.66	1	33105.31	-80.53543	2.473878E-008	0.0006164	7
	44	114	12.01923	7221.252	-39972.85	1	40619.88	-79.75974	2.498241E-008	0.000631	7
	45	117	9.450605	9873.04	-49626.8	1	50599.37	-78.74817	1.08698E-009	0.0006727	6
	46	119	7.512019	13328.35	-60726.79	1	62172.24	-77.62097	7.97177E-010	0.0006912	6
	47	122	5.978954	17971.17	-73977.46	1	76129.02	-76.34577	1.743728E-009	0.0006677	6
	48	125	4.734848	24505.5	-90081.95	1	93355.64	-74.78178	3.544566E-009	0.0006631	6
	49	128	3.75601	33062.2	-108688.1	1	113605.5	-73.08059	2.438402E-009	0.0007091	6
	50	132	3.004808	43866.43	-129179.4	1	136424.3	-71.24367	3.698162E-009	0.0006521	6
	51	138	2.372217	58308.15	-153890.2	1	164566.2	-69.24858	2.376643E-009	0.0006289	6
	52	142	1.878005	76574.57	-180991.4	1	196523.6	-67.06755	2.807135E-009	0.0006775	6
	53	147	1.512097	96512.7	-208646.2	1	229886.8	-65.17634	3.085782E-009	0.0005542	6
	54	152	1.201923	120972.5	-240990.6	1	269649.4	-63.34426	2.597321E-009	0.0006865	6
	55	158	0.956633	148092.2	-276705.5	1	313842.7	-61.8444	2.219834E-009	2.317537E-005	6
