EXPLAIN
TAG	EISPOT
TITLE	LABEL	Potentiostatic EIS	Test Identifier
DATE	LABEL	8/21/2020	Date
TIME	LABEL	20:56:59	Time
NOTES	NOTES	1	Notes...
	
PSTAT	PSTAT	REF3000-16137	Potentiostat
VDC	POTEN	0.00000E+000	T	DC Voltage (V)
FREQINIT	QUANT	3.00000E+005	Initial Freq. (Hz)
FREQFINAL	QUANT	1.00000E+000	Final Freq. (Hz)
PTSPERDEC	QUANT	1.00000E+001	Points/decade
VAC	QUANT	5.00000E+001	AC Voltage (mV rms)
AREA	QUANT	1.00000E+000	Sample Area (cm^2)
SPEED	SELECTOR	2	Optimize for:
ZGUESS	QUANT	1.00000E+003	Estimated Z (ohms)
EOC	QUANT	0	Open Circuit (V)
SEQUENCER	TOGGLE	TRUE	Run as Sequence
PSTATMODEL	IQUANT	5	Pstat Model
PSTATSECTION	LABEL	REF3000-16137	Pstat Section
PSTATSERIALNO	LABEL	16137	Pstat Serial Number
CTRLMODE	IQUANT	1	Control Mode
IESTAB	IQUANT	0	I/E Stability
CASPEED	IQUANT	1	Control Amp Speed
CONVENTION	IQUANT	1	Current Convention
ICHRANGE	IQUANT	2	Ich Range
ICHRANGEMODE	TOGGLE	F	Ich Auto Range
ICHOFFSETENABLE	TOGGLE	T	Ich Offset Enable
ICHOFFSET	QUANT	0	Ich Offset (V)
ICHFILTER	IQUANT	3	Ich Filter
VCHRANGE	IQUANT	2	Vch Range
VCHRANGEMODE	TOGGLE	F	Vch Auto Range
VCHOFFSETENABLE	TOGGLE	T	Vch Offset Enable
VCHOFFSET	QUANT	0	Vch Offset (V)
VCHFILTER	IQUANT	3	Vch Filter
ACHRANGE	IQUANT	2	Ach Range
ACHOFFSETENABLE	TOGGLE	F	Ach Offset Enable
ACHOFFSET	QUANT	0	Ach Offset (V)
ACHFILTER	IQUANT	3	Ach Filter
IERANGELOWERLIMIT	IQUANT	2	I/E Range Lower Limit
IERANGEMODE	TOGGLE	F	I/E AutoRange
IERANGE	IQUANT	11	I/E Range
POSFEEDENABLE	TOGGLE	F	Positive Feedback IR Comp
POSFEEDRESISTANCE	QUANT	0	Positive Feedback Resistance (ohm)
ACHSELECT	IQUANT	0	Ach Select
CABLEID	IQUANT	13	Cable ID
DCCALDATE	LABEL	7/31/2020	DC Calibration Date
ACCALDATE	LABEL	7/31/2020	AC Calibration Date
THERMOSELECT	IQUANT	1	Thermo Select
FRAMEWORKVERSION	QUANT	6.33	Framework Version
INSTRUMENTVERSION	LABEL	3.50	Instrument Version
COMPLIANCEVOLTAGE	IQUANT	0	Compliance Voltage
ZCURVE	TABLE
	Pt	Time	Freq	Zreal	Zimag	Zsig	Zmod	Zphz	Idc	Vdc	IERange
	#	s	Hz	ohm	ohm	V	ohm	°	A	V	#
	0	6	300046.9	55.26168	-3.702056	1	55.38554	-3.832597	3.461351E-005	-0.0003558	9
	1	10	238359.4	55.92529	-4.995782	1	56.14798	-5.104659	6.457138E-006	-0.0010527	9
	2	13	189328.1	56.51597	-6.442	1	56.88194	-6.502821	9.52354E-006	0.0004116	9
	3	15	150421.9	57.346	-7.97775	1	57.89826	-7.919932	4.221254E-005	-0.000538	9
	4	18	119484.4	58.18128	-9.67535	1	58.98029	-9.441688	4.240164E-005	-0.0005015	9
	5	20	94921.88	59.27374	-11.36333	1	60.35314	-10.85246	2.096271E-005	-0.0005825	9
	6	23	75421.88	60.27761	-13.56068	1	61.78416	-12.67877	-6.35206E-006	-4.173509E-006	9
	7	25	59859.37	61.46329	-16.1311	1	63.54485	-14.70567	3.473426E-006	0.0002969	9
	8	28	47578.12	62.67232	-19.04059	1	65.50087	-16.8994	1.818825E-005	-0.0001564	9
	9	30	37828.12	63.96915	-22.49676	1	67.80971	-19.37583	-1.607416E-005	0.0004403	9
	10	33	30046.88	65.3048	-26.63644	1	70.52813	-22.18951	4.745004E-006	0.0003691	9
	11	36	23859.38	66.65308	-31.74614	1	73.82717	-25.46795	-1.674309E-005	0.0004441	9
	12	38	18984.38	67.93628	-37.9718	1	77.82799	-29.20225	1.22194E-005	0.0001138	9
	13	40	15046.87	69.13579	-45.97287	1	83.02567	-33.62251	2.219374E-005	-0.0005051	9
	14	42	11953.13	70.48676	-55.90429	1	89.96484	-38.41855	1.710408E-005	-0.0001666	9
	15	45	9515.62	71.81384	-68.18312	1	99.0261	-43.51441	-1.487434E-005	0.0006679	9
	16	47	7546.875	73.26186	-84.01626	1	111.4721	-48.9117	1.046516E-005	-0.0004828	9
	17	49	5928.309	74.76511	-105.0802	1	128.9639	-54.56796	-2.852817E-006	0.0005407	9
	18	52	4733.456	76.55059	-129.7728	1	150.6685	-59.46444	2.033569E-005	-0.0002732	9
	19	54	3796.875	78.79071	-159.5946	1	177.9843	-63.72477	1.001145E-005	-0.0004839	9
	20	56	2987.132	81.53561	-200.2543	1	216.2171	-67.84579	-1.277201E-005	0.0002227	9
	21	59	2390.625	85.97807	-248.0188	1	262.4987	-70.88065	-8.773037E-006	8.977807E-005	9
	22	61	1884.191	89.37363	-311.2776	1	323.8539	-73.98023	-1.492096E-005	0.0004199	9
	23	63	1516.544	94.63496	-383.8041	1	395.2991	-76.14882	-1.606641E-005	0.0006748	9
	24	66	1193.986	101.7889	-480.8876	1	491.5424	-78.04868	-3.665546E-006	0.0016923	8
	25	68	946.5144	112.0575	-600.9656	1	611.3236	-79.43779	4.587062E-006	-0.0002845	8
	26	70	751.7689	123.5263	-749.8652	1	759.9714	-80.6456	4.239695E-006	-0.000745	8
	27	73	597.4265	140.6345	-932.4641	1	943.0098	-81.42328	-3.694311E-006	0.0016987	8
	28	75	477.4305	160.238	-1157.137	1	1168.179	-82.11594	3.23913E-007	0.0006592	8
	29	77	376.6741	189.3944	-1450.905	1	1463.214	-82.56292	2.960158E-007	0.000701	8
	30	80	298.2954	227.9601	-1811.823	1	1826.108	-82.82884	3.395797E-007	0.0006518	8
	31	82	237.7717	278.2423	-2246.799	1	2263.962	-82.94047	3.294145E-007	0.0006493	8
	32	85	189.0121	346.0575	-2791.186	1	2812.557	-82.93241	3.377272E-007	0.0006479	8
	33	87	150.2404	437.0794	-3464.376	1	3491.839	-82.80933	3.525134E-007	0.0006494	8
	34	89	119.1737	560.3762	-4303.03	1	4339.365	-82.58022	3.406602E-007	0.0006516	8
	35	92	95.0169	721.2375	-5321.715	1	5370.366	-82.28188	3.030082E-008	0.0006281	7
	36	94	75.60484	932.9857	-6572.813	1	6638.7	-81.92106	2.908482E-008	0.0006276	7
	37	97	54.50582	1359.332	-8878.211	1	8981.671	-81.29511	3.320713E-008	0.0006166	7
	38	99	45.95588	1656.323	-10366.43	1	10497.92	-80.92215	3.810329E-008	0.0006301	7
	39	102	37.20238	2126.533	-12556.19	1	12734.99	-80.38753	3.460088E-008	0.0006272	7
	40	104	30.04808	2764.99	-15246.94	1	15495.62	-79.72128	2.989497E-008	0.000627	7
	41	106	23.91582	3657.613	-18711.41	1	19065.55	-78.93958	2.735529E-008	0.0006783	7
	42	109	18.60119	5028.273	-23343.76	1	23879.16	-77.84415	3.59017E-008	0.0006261	7
	43	111	15.02404	6604.006	-28150.15	1	28914.42	-76.7972	3.800465E-008	0.000644	7
	44	113	12.01923	8837.729	-34047.14	1	35175.46	-75.44868	3.498604E-008	0.0006153	7
	45	116	9.450605	12114.26	-41582.41	1	43311.11	-73.7575	3.052463E-008	0.0006308	7
	46	118	7.512019	16316.08	-49947.89	1	52545.28	-71.90975	5.94985E-009	0.0006566	6
	47	121	5.978954	21789.38	-59417.27	1	63286.56	-69.86111	5.840902E-009	0.000674	6
	48	124	4.734848	29014.37	-70260.85	1	76015.93	-67.56171	5.745587E-009	0.0006569	6
	49	127	3.75601	37913.39	-82164.54	1	90489.98	-65.22986	7.011009E-009	0.000679	6
	50	131	3.004808	48222.82	-94412.98	1	106015.3	-62.94366	6.974236E-009	0.0006938	6
	51	135	2.372217	61298.36	-108263	1	124412.1	-60.48153	6.604572E-009	0.000777	6
	52	139	1.878005	75880.63	-122872.2	1	144414.2	-58.3023	5.763292E-009	0.0006443	6
	53	144	1.512097	90904	-137359.7	1	164715.6	-56.5036	5.880235E-009	0.0007027	6
	54	149	1.201923	108888.9	-154503.2	1	189018.6	-54.82504	6.036021E-009	0.000631	6
	55	155	0.956633	128561.5	-173474	1	215919.6	-53.45788	4.192333E-009	2.067976E-005	6
