EXPLAIN
TAG	EISPOT
TITLE	LABEL	Potentiostatic EIS	Test Identifier
DATE	LABEL	8/21/2020	Date
TIME	LABEL	23:05:43	Time
NOTES	NOTES	1	Notes...
	
PSTAT	PSTAT	REF3000-16137	Potentiostat
VDC	POTEN	0.00000E+000	T	DC Voltage (V)
FREQINIT	QUANT	3.00000E+005	Initial Freq. (Hz)
FREQFINAL	QUANT	1.00000E+000	Final Freq. (Hz)
PTSPERDEC	QUANT	1.00000E+001	Points/decade
VAC	QUANT	5.00000E+001	AC Voltage (mV rms)
AREA	QUANT	1.00000E+000	Sample Area (cm^2)
SPEED	SELECTOR	2	Optimize for:
ZGUESS	QUANT	1.00000E+003	Estimated Z (ohms)
EOC	QUANT	0	Open Circuit (V)
SEQUENCER	TOGGLE	TRUE	Run as Sequence
PSTATMODEL	IQUANT	5	Pstat Model
PSTATSECTION	LABEL	REF3000-16137	Pstat Section
PSTATSERIALNO	LABEL	16137	Pstat Serial Number
CTRLMODE	IQUANT	1	Control Mode
IESTAB	IQUANT	0	I/E Stability
CASPEED	IQUANT	1	Control Amp Speed
CONVENTION	IQUANT	1	Current Convention
ICHRANGE	IQUANT	2	Ich Range
ICHRANGEMODE	TOGGLE	F	Ich Auto Range
ICHOFFSETENABLE	TOGGLE	T	Ich Offset Enable
ICHOFFSET	QUANT	0	Ich Offset (V)
ICHFILTER	IQUANT	3	Ich Filter
VCHRANGE	IQUANT	2	Vch Range
VCHRANGEMODE	TOGGLE	F	Vch Auto Range
VCHOFFSETENABLE	TOGGLE	T	Vch Offset Enable
VCHOFFSET	QUANT	0	Vch Offset (V)
VCHFILTER	IQUANT	3	Vch Filter
ACHRANGE	IQUANT	2	Ach Range
ACHOFFSETENABLE	TOGGLE	F	Ach Offset Enable
ACHOFFSET	QUANT	0	Ach Offset (V)
ACHFILTER	IQUANT	3	Ach Filter
IERANGELOWERLIMIT	IQUANT	2	I/E Range Lower Limit
IERANGEMODE	TOGGLE	F	I/E AutoRange
IERANGE	IQUANT	11	I/E Range
POSFEEDENABLE	TOGGLE	F	Positive Feedback IR Comp
POSFEEDRESISTANCE	QUANT	0	Positive Feedback Resistance (ohm)
ACHSELECT	IQUANT	0	Ach Select
CABLEID	IQUANT	13	Cable ID
DCCALDATE	LABEL	7/31/2020	DC Calibration Date
ACCALDATE	LABEL	7/31/2020	AC Calibration Date
THERMOSELECT	IQUANT	1	Thermo Select
FRAMEWORKVERSION	QUANT	6.33	Framework Version
INSTRUMENTVERSION	LABEL	3.50	Instrument Version
COMPLIANCEVOLTAGE	IQUANT	0	Compliance Voltage
ZCURVE	TABLE
	Pt	Time	Freq	Zreal	Zimag	Zsig	Zmod	Zphz	Idc	Vdc	IERange
	#	s	Hz	ohm	ohm	V	ohm	°	A	V	#
	0	16	300046.9	-123.8972	-4808.97	1	4810.566	-91.47583	-1.869084E-005	0.0014177	9
	1	30	238359.4	-38.10571	-6276.167	1	6276.282	-90.34787	2.289873E-005	-0.0004376	9
	2	50	189328.1	281.6122	-7437.502	1	7442.832	-87.8316	-1.363491E-006	0.001712	9
	3	60	150421.9	110.9641	-9445.28	1	9445.932	-89.32691	-2.105448E-005	0.0016474	9
	4	68	119484.4	656.142	-11580.22	1	11598.79	-86.75706	2.54146E-005	0.0083643	8
	5	75	94921.88	598.1818	-14664.86	1	14677.05	-87.66419	2.308437E-005	-0.0029044	8
	6	84	75421.88	529.3214	-18267.82	1	18275.48	-88.34029	-1.581075E-005	0.0005359	8
	7	92	59859.37	311.0674	-22869.87	1	22871.98	-89.22073	2.252066E-005	-0.0096164	8
	8	101	47578.12	4229.607	-30317.87	1	30611.48	-82.058	-5.414924E-006	0.0269763	7
	9	109	37828.12	807.5183	-36232.69	1	36241.69	-88.72326	-2.403095E-005	0.0052726	8
	10	117	30046.88	1099.81	-45183.44	1	45196.82	-88.60564	-1.750412E-006	0.000827	9
	11	126	23859.38	4582.742	-58137.73	1	58318.07	-85.49294	-1.041314E-006	-0.0135364	7
	12	131	18984.38	4453.784	-71824.68	1	71962.63	-86.45168	-7.428835E-006	0.0189844	7
	13	137	15046.87	-2045.719	-91331.85	1	91354.76	-91.28314	2.723711E-005	-0.0073564	8
	14	144	11953.13	3505.242	-109735	1	109791	-88.17043	2.318054E-005	-0.0027512	8
	15	152	9515.62	-4618.821	-138505.5	1	138582.5	-91.90997	9.851163E-006	0.0004565	9
	16	159	7546.875	21985.96	-187976.1	1	189257.5	-83.32891	-9.163439E-007	-0.0052054	8
	17	167	5928.309	-11581.12	-230478.1	1	230768.9	-92.87659	-1.095465E-006	-0.0135246	7
	18	172	4733.456	38964.89	-302152.2	1	304654.3	-82.65182	-6.570569E-007	0.0100132	6
	19	177	3796.875	8741.196	-363621.1	1	363726.1	-88.62292	-9.82883E-007	-0.0136492	7
	20	183	2987.132	41952.15	-457379.5	1	459299.4	-84.75933	4.319517E-007	0.0020925	6
	21	188	2390.625	38993.26	-576997.1	1	578313.2	-86.13385	-5.719874E-007	0.0270717	6
	22	194	1884.191	55386.04	-749714.6	1	751757.6	-85.77488	-4.969825E-007	0.0013624	6
	23	199	1516.544	77723.21	-904834.1	1	908166.1	-85.09047	4.323697E-007	0.0020678	6
	24	205	1193.986	727161.8	-1170536	1	1378013	-58.15058	4.519746E-007	0.0165011	7
	25	212	946.5144	-22400.21	-1421534	1	1421710	-90.90278	7.296077E-007	-0.0272206	6
	26	217	751.7689	179142.5	-1650472	1	1660166	-83.80536	-4.04065E-007	0.0257043	6
	27	221	597.4265	223786.1	-2419640	1	2429967	-84.7159	4.31701E-007	0.002182	6
	28	225	477.4305	103751.8	-2795958	1	2797882	-87.87486	-9.379578E-009	0.0006313	6
	29	230	376.6741	507867.4	-3643791	1	3679014	-82.0653	-1.068227E-009	0.0006049	5
	30	233	298.2954	557766.4	-4551215	1	4585265	-83.01305	-9.866183E-010	0.000612	5
	31	236	237.7717	649919	-5529573	1	5567636	-83.29649	-1.009823E-009	0.0006098	5
	32	239	189.0121	789988.1	-7006520	1	7050914	-83.56705	-1.079837E-009	0.0006912	5
	33	242	150.2404	964361	-8446400	1	8501274	-83.4865	-1.117443E-009	0.0006832	5
	34	245	119.1737	2416523	-8225258	1	8572890	-73.62758	-1.042411E-009	0.000693	5
	35	247	95.0169	2345284	-1.350691E+007	1	1.370901E+007	-80.1496	-1.110037E-009	0.0006833	5
	36	250	75.60484	3188015	-1.752611E+007	1	1.78137E+007	-79.69057	-1.145307E-009	0.0006762	5
	37	253	54.50582	6086727	-2.264788E+007	1	2.345154E+007	-74.95695	-9.986239E-010	0.0006039	5
	38	256	45.95588	1.128113E+007	-2.450376E+007	1	2.697588E+007	-65.27942	-1.383477E-010	0.0006311	4
	39	259	37.20238	1.540517E+007	-2.980813E+007	1	3.35536E+007	-62.66959	-1.071075E-009	0.0005938	5
	40	263	30.04808	2.083093E+007	-2.760423E+007	1	3.458209E+007	-52.96077	-1.099214E-009	0.0006906	5
	41	267	23.91582	2.766816E+007	-2.300295E+007	1	3.598142E+007	-39.7397	-1.171396E-009	0.0006853	5
	42	271	18.60119	2.821404E+007	-1.308979E+007	1	3.110265E+007	-24.88874	-1.192089E-009	0.0005924	5
	43	274	15.02404	2.886346E+007	-1.282057E+007	1	3.158269E+007	-23.94983	-1.119E-009	0.0007016	5
	44	278	12.01923	2.591898E+007	-7940031	1	2.710788E+007	-17.03195	-1.092822E-009	0.0006207	5
	45	281	9.450605	2.21599E+007	-4851318	1	2.268471E+007	-12.34856	-1.006531E-009	0.0005865	5
	46	286	7.512019	1.989909E+007	-2849976	1	2.010214E+007	-8.150555	-1.223982E-010	0.0006173	4
	47	289	5.978954	1.678142E+007	-1818478	1	1.687966E+007	-6.184585	-1.144142E-010	0.000652	4
	48	293	4.734848	1.365131E+007	-1395062	1	1.372241E+007	-5.834945	-9.215594E-011	0.0006497	4
	49	298	3.75601	1.074564E+007	-1126978	1	1.080458E+007	-5.987161	-9.970201E-011	0.0006952	4
	50	303	3.004808	8219009	-993844	1	8278879	-6.894741	-1.372936E-010	0.0006638	4
	51	310	2.372217	6602054	-951594	1	6670281	-8.201899	7.164384E-012	0.0006811	4
	52	314	1.878005	5515430	-976661	1	5601235	-10.04172	-3.45549E-011	0.0006217	4
	53	319	1.512097	4524841	-995168	1	4632984	-12.40383	-1.090594E-010	0.0007519	4
	54	324	1.201923	3648147	-990326	1	3780175	-15.18752	1.754624E-010	0.0006283	4
	55	330	0.956633	2895577	-1028333	1	3072757	-19.55196	-5.481896E-010	1.468098E-005	4
