EXPLAIN
TAG	EISPOT
TITLE	LABEL	Potentiostatic EIS	Test Identifier
DATE	LABEL	8/21/2020	Date
TIME	LABEL	21:21:54	Time
NOTES	NOTES	1	Notes...
	
PSTAT	PSTAT	REF3000-16137	Potentiostat
VDC	POTEN	0.00000E+000	T	DC Voltage (V)
FREQINIT	QUANT	3.00000E+005	Initial Freq. (Hz)
FREQFINAL	QUANT	1.00000E+000	Final Freq. (Hz)
PTSPERDEC	QUANT	1.00000E+001	Points/decade
VAC	QUANT	5.00000E+001	AC Voltage (mV rms)
AREA	QUANT	1.00000E+000	Sample Area (cm^2)
SPEED	SELECTOR	2	Optimize for:
ZGUESS	QUANT	1.00000E+003	Estimated Z (ohms)
EOC	QUANT	0	Open Circuit (V)
SEQUENCER	TOGGLE	TRUE	Run as Sequence
PSTATMODEL	IQUANT	5	Pstat Model
PSTATSECTION	LABEL	REF3000-16137	Pstat Section
PSTATSERIALNO	LABEL	16137	Pstat Serial Number
CTRLMODE	IQUANT	1	Control Mode
IESTAB	IQUANT	0	I/E Stability
CASPEED	IQUANT	1	Control Amp Speed
CONVENTION	IQUANT	1	Current Convention
ICHRANGE	IQUANT	2	Ich Range
ICHRANGEMODE	TOGGLE	F	Ich Auto Range
ICHOFFSETENABLE	TOGGLE	T	Ich Offset Enable
ICHOFFSET	QUANT	0	Ich Offset (V)
ICHFILTER	IQUANT	3	Ich Filter
VCHRANGE	IQUANT	2	Vch Range
VCHRANGEMODE	TOGGLE	F	Vch Auto Range
VCHOFFSETENABLE	TOGGLE	T	Vch Offset Enable
VCHOFFSET	QUANT	0	Vch Offset (V)
VCHFILTER	IQUANT	3	Vch Filter
ACHRANGE	IQUANT	2	Ach Range
ACHOFFSETENABLE	TOGGLE	F	Ach Offset Enable
ACHOFFSET	QUANT	0	Ach Offset (V)
ACHFILTER	IQUANT	3	Ach Filter
IERANGELOWERLIMIT	IQUANT	2	I/E Range Lower Limit
IERANGEMODE	TOGGLE	F	I/E AutoRange
IERANGE	IQUANT	11	I/E Range
POSFEEDENABLE	TOGGLE	F	Positive Feedback IR Comp
POSFEEDRESISTANCE	QUANT	0	Positive Feedback Resistance (ohm)
ACHSELECT	IQUANT	0	Ach Select
CABLEID	IQUANT	13	Cable ID
DCCALDATE	LABEL	7/31/2020	DC Calibration Date
ACCALDATE	LABEL	7/31/2020	AC Calibration Date
THERMOSELECT	IQUANT	1	Thermo Select
FRAMEWORKVERSION	QUANT	6.33	Framework Version
INSTRUMENTVERSION	LABEL	3.50	Instrument Version
COMPLIANCEVOLTAGE	IQUANT	0	Compliance Voltage
ZCURVE	TABLE
	Pt	Time	Freq	Zreal	Zimag	Zsig	Zmod	Zphz	Idc	Vdc	IERange
	#	s	Hz	ohm	ohm	V	ohm	°	A	V	#
	0	10	300046.9	233.7473	-14.81258	1	234.2162	-3.625987	2.167203E-005	-0.0016152	9
	1	13	238359.4	235.7179	-15.64259	1	236.2364	-3.796667	-6.571017E-006	-0.0016494	9
	2	16	189328.1	239.0436	-19.54009	1	239.8409	-4.673127	8.310715E-005	0.0002592	10
	3	21	150421.9	242.8496	-18.0344	1	243.5183	-4.24708	1.575685E-005	-0.000751	9
	4	25	119484.4	246.2394	-22.47602	1	247.2631	-5.215342	1.963424E-005	0.0005559	10
	5	29	94921.88	249.7993	-23.12239	1	250.8672	-5.288449	2.405758E-005	-0.0002168	9
	6	33	75421.88	253.7	-26.51777	1	255.0821	-5.967124	-2.200641E-006	-0.0003863	9
	7	37	59859.37	258.3418	-30.94481	1	260.1885	-6.830486	-2.077987E-005	0.0004915	9
	8	41	47578.12	262.7212	-35.51673	1	265.1111	-7.699021	1.638811E-006	0.0006208	9
	9	45	37828.12	267.7188	-41.02004	1	270.8431	-8.711147	-9.051813E-006	-0.0001261	9
	10	47	30046.88	273.5703	-47.52288	1	277.6673	-9.85472	-2.40673E-005	0.0006667	9
	11	51	23859.38	279.4305	-54.94258	1	284.7807	-11.12379	-2.14334E-005	0.000455	9
	12	53	18984.38	285.6683	-63.57463	1	292.657	-12.54654	-2.248221E-005	0.0004692	9
	13	56	15046.87	292.5659	-73.23652	1	301.5931	-14.05376	1.263282E-006	0.0006641	9
	14	58	11953.13	298.7602	-85.45151	1	310.7404	-15.96161	-2.242491E-005	0.0004695	9
	15	60	9515.62	306.6143	-98.7854	1	322.1348	-17.85797	1.623046E-005	-0.0008014	9
	16	62	7546.875	314.5085	-115.7329	1	335.1263	-20.20262	-2.103921E-005	0.0004804	9
	17	65	5928.309	321.9773	-137.3192	1	350.0371	-23.09764	8.182008E-007	0.0006479	9
	18	67	4733.456	328.2739	-161.6525	1	365.9171	-26.2171	-8.865268E-006	0.0016352	8
	19	69	3796.875	333.9338	-192.287	1	385.3389	-29.93437	5.389532E-006	0.001524	8
	20	72	2987.132	340.4023	-234.0382	1	413.0952	-34.50985	-1.076845E-005	0.0046515	8
	21	74	2390.625	347.4631	-283.5272	1	448.4622	-39.21418	-1.130472E-005	0.0040271	8
	22	76	1884.191	355.8355	-351.2811	1	500.0173	-44.63097	1.194871E-005	-0.003238	8
	23	79	1516.544	362.368	-426.4835	1	559.6416	-49.64662	9.183303E-006	-0.0038842	8
	24	81	1193.986	371.3473	-534.0693	1	650.4836	-55.18847	9.208119E-006	-0.0002251	8
	25	84	946.5144	379.3329	-663.7767	1	764.5214	-60.25304	1.186528E-005	-0.0018283	8
	26	86	751.7689	392.6786	-826.2332	1	914.7993	-64.57996	-1.122448E-005	0.0033867	8
	27	88	597.4265	407.1892	-1028.07	1	1105.772	-68.3929	1.169248E-005	-0.0016843	8
	28	91	477.4305	426.1179	-1275.239	1	1344.548	-71.52307	-8.010714E-011	0.0006368	8
	29	93	376.6741	451.0114	-1600.8	1	1663.121	-74.26527	-2.047793E-008	0.0006403	8
	30	96	298.2954	482.4815	-2002.591	1	2059.893	-76.45396	-3.224829E-008	0.0006511	8
	31	98	237.7717	522.3796	-2489.359	1	2543.578	-78.14873	-2.650003E-008	0.0006428	8
	32	100	189.0121	574.9784	-3102.775	1	3155.6	-79.50156	-2.821548E-008	0.00065	8
	33	103	150.2404	643.5999	-3865.72	1	3918.93	-80.54758	-2.71547E-008	0.0006528	8
	34	105	119.1737	738.2676	-4832.522	1	4888.589	-81.31404	-1.195367E-008	0.0006246	7
	35	107	95.0169	858.4495	-5997.967	1	6059.087	-81.85495	-1.190833E-008	0.0006224	7
	36	110	75.60484	1017.793	-7453.422	1	7522.593	-82.22414	-1.46113E-008	0.0006212	7
	37	113	54.50582	1340.542	-10156.71	1	10244.8	-82.48123	-1.254354E-008	0.0006179	7
	38	115	45.95588	1567.288	-11926.11	1	12028.65	-82.51329	-1.173207E-008	0.0006219	7
	39	117	37.20238	1919.232	-14531.39	1	14657.58	-82.47621	-1.177976E-008	0.0006158	7
	40	120	30.04808	2376.921	-17731.92	1	17890.52	-82.36515	-1.091643E-008	0.0006132	7
	41	122	23.91582	3006.636	-21932.66	1	22137.78	-82.19427	-1.154617E-008	0.0006044	7
	42	125	18.60119	3922.76	-27675.67	1	27952.3	-81.93262	-1.26431E-008	0.0006105	7
	43	127	15.02404	4950.636	-33686.25	1	34048.09	-81.63948	-1.340066E-008	0.00063	7
	44	129	12.01923	6358.462	-41366.52	1	41852.35	-81.26144	-1.293331E-008	0.0006166	7
	45	132	9.450605	8413.688	-51567.87	1	52249.75	-80.73341	-8.247673E-010	0.0006585	6
	46	134	7.512019	11071.71	-63579.5	1	64536.32	-80.12159	-8.122585E-011	0.0006798	6
	47	137	5.978954	14626.42	-78119.55	1	79477.02	-79.39523	-1.729345E-010	0.0006646	6
	48	140	4.734848	19733.9	-96271.7	1	98273.4	-78.41589	-8.131386E-010	0.0006604	6
	49	143	3.75601	26545.44	-117929.4	1	120880.1	-77.31438	-9.002436E-010	0.0006489	6
	50	147	3.004808	35349.02	-142809.4	1	147119.3	-76.09725	-1.876477E-009	0.0007078	6
	51	154	2.372217	47857.45	-174110.2	1	180567.7	-74.63074	-1.517881E-009	0.0007287	6
	52	158	1.878005	64289.72	-210167.8	1	219781	-72.99128	-1.643338E-009	0.0006355	6
	53	163	1.512097	83787.34	-248374.9	1	262126.7	-71.35857	-1.970133E-009	0.0007347	6
	54	168	1.201923	109665.4	-295597.1	1	315284.3	-69.64534	-1.711654E-009	0.0006233	6
	55	174	0.956633	141318.3	-348518.4	1	376079.7	-67.92828	-2.725705E-009	1.848293E-005	6
