EXPLAIN
TAG	EISPOT
TITLE	LABEL	Potentiostatic EIS	Test Identifier
DATE	LABEL	8/21/2020	Date
TIME	LABEL	22:22:08	Time
NOTES	NOTES	1	Notes...
	
PSTAT	PSTAT	REF3000-16137	Potentiostat
VDC	POTEN	0.00000E+000	T	DC Voltage (V)
FREQINIT	QUANT	3.00000E+005	Initial Freq. (Hz)
FREQFINAL	QUANT	1.00000E+000	Final Freq. (Hz)
PTSPERDEC	QUANT	1.00000E+001	Points/decade
VAC	QUANT	5.00000E+001	AC Voltage (mV rms)
AREA	QUANT	1.00000E+000	Sample Area (cm^2)
SPEED	SELECTOR	2	Optimize for:
ZGUESS	QUANT	1.00000E+003	Estimated Z (ohms)
EOC	QUANT	0	Open Circuit (V)
SEQUENCER	TOGGLE	TRUE	Run as Sequence
PSTATMODEL	IQUANT	5	Pstat Model
PSTATSECTION	LABEL	REF3000-16137	Pstat Section
PSTATSERIALNO	LABEL	16137	Pstat Serial Number
CTRLMODE	IQUANT	1	Control Mode
IESTAB	IQUANT	0	I/E Stability
CASPEED	IQUANT	1	Control Amp Speed
CONVENTION	IQUANT	1	Current Convention
ICHRANGE	IQUANT	2	Ich Range
ICHRANGEMODE	TOGGLE	F	Ich Auto Range
ICHOFFSETENABLE	TOGGLE	T	Ich Offset Enable
ICHOFFSET	QUANT	0	Ich Offset (V)
ICHFILTER	IQUANT	3	Ich Filter
VCHRANGE	IQUANT	2	Vch Range
VCHRANGEMODE	TOGGLE	F	Vch Auto Range
VCHOFFSETENABLE	TOGGLE	T	Vch Offset Enable
VCHOFFSET	QUANT	0	Vch Offset (V)
VCHFILTER	IQUANT	3	Vch Filter
ACHRANGE	IQUANT	2	Ach Range
ACHOFFSETENABLE	TOGGLE	F	Ach Offset Enable
ACHOFFSET	QUANT	0	Ach Offset (V)
ACHFILTER	IQUANT	3	Ach Filter
IERANGELOWERLIMIT	IQUANT	2	I/E Range Lower Limit
IERANGEMODE	TOGGLE	F	I/E AutoRange
IERANGE	IQUANT	11	I/E Range
POSFEEDENABLE	TOGGLE	F	Positive Feedback IR Comp
POSFEEDRESISTANCE	QUANT	0	Positive Feedback Resistance (ohm)
ACHSELECT	IQUANT	0	Ach Select
CABLEID	IQUANT	13	Cable ID
DCCALDATE	LABEL	7/31/2020	DC Calibration Date
ACCALDATE	LABEL	7/31/2020	AC Calibration Date
THERMOSELECT	IQUANT	1	Thermo Select
FRAMEWORKVERSION	QUANT	6.33	Framework Version
INSTRUMENTVERSION	LABEL	3.50	Instrument Version
COMPLIANCEVOLTAGE	IQUANT	0	Compliance Voltage
ZCURVE	TABLE
	Pt	Time	Freq	Zreal	Zimag	Zsig	Zmod	Zphz	Idc	Vdc	IERange
	#	s	Hz	ohm	ohm	V	ohm	°	A	V	#
	0	14	300046.9	-12.05624	-4869.813	1	4869.828	-90.14185	2.750071E-005	-0.0005243	9
	1	33	238359.4	75.43715	-5929.693	1	5930.173	-89.27113	2.411886E-005	-0.0021841	9
	2	50	189328.1	23.32679	-7362.131	1	7362.168	-89.81846	1.074549E-006	0.0016216	9
	3	65	150421.9	371.9879	-9225.883	1	9233.379	-87.69109	1.857125E-005	-0.0007881	9
	4	76	119484.4	356.0345	-11565.05	1	11570.53	-88.23669	1.378418E-005	-0.019314	8
	5	84	94921.88	558.1816	-14650.89	1	14661.52	-87.81815	-1.13147E-006	-0.005198	8
	6	91	75421.88	745.6892	-18019.56	1	18034.98	-87.63033	2.731986E-005	-0.0073948	8
	7	100	59859.37	1007.718	-22917.33	1	22939.48	-87.48222	-2.069723E-005	0.002788	8
	8	109	47578.12	4179.757	-29970.66	1	30260.71	-82.06065	6.836389E-006	-0.0269548	7
	9	116	37828.12	4608.244	-36874.42	1	37161.25	-82.8766	7.684765E-006	-0.0185711	7
	10	124	30046.88	5144.848	-45997.96	1	46284.79	-83.61802	2.897425E-006	0.008139	7
	11	131	23859.38	4119.057	-58492.68	1	58637.53	-85.97188	7.62199E-006	-0.018991	7
	12	137	18984.38	5680.882	-71342.18	1	71568	-85.44722	-1.459051E-006	0.0219764	7
	13	142	15046.87	7532.75	-89353.23	1	89670.19	-85.18118	6.738305E-006	-0.0271012	7
	14	148	11953.13	7641.781	-118617.4	1	118863.3	-86.31388	-1.162004E-006	-0.0051539	8
	15	156	9515.62	13605.63	-138633.3	1	139299.3	-84.39487	7.629439E-006	-0.0185726	7
	16	162	7546.875	6195.183	-169985.7	1	170098.6	-87.91276	7.754248E-006	-0.0246612	7
	17	169	5928.309	13221.97	-234314.5	1	234687.3	-86.77032	5.403491E-006	-0.027031	7
	18	174	4733.456	-4090.996	-202752.4	1	202793.7	-91.15591	-9.444199E-006	-0.002199	8
	19	183	3796.875	11678.54	-352512	1	352705.4	-88.10252	-5.412214E-006	0.0036418	7
	20	189	2987.132	88351.05	-427841.2	1	436868.3	-78.33218	1.310127E-006	-0.0202115	7
	21	196	2390.625	137073.6	-639298.4	1	653828.5	-77.89829	-7.316343E-007	0.0227991	6
	22	201	1884.191	178300.7	-671193.9	1	694472.8	-75.12313	-2.870348E-007	-0.0074305	6
	23	207	1516.544	225229	-885891.8	1	914074.6	-75.73535	-7.573806E-007	0.0234498	6
	24	212	1193.986	320210.7	-1012271	1	1061710	-72.44632	7.367631E-007	-0.016086	6
	25	219	946.5144	593241.3	-1396954	1	1517701	-66.99063	-1.373578E-008	0.0175471	6
	26	222	751.7689	387710.9	-1402537	1	1455139	-74.54732	5.95209E-007	-0.0276995	6
	27	226	597.4265	876982.6	-2275691	1	2438825	-68.92484	1.937203E-007	-0.0212618	6
	28	230	477.4305	1171883	-2177342	1	2472676	-61.71009	-1.001598E-008	0.0007021	6
	29	234	376.6741	1951739	-2394665	1	3089289	-50.81872	-9.92776E-010	0.000643	5
	30	238	298.2954	2184358	-2724442	1	3491992	-51.27864	-1.017735E-008	0.0007094	6
	31	242	237.7717	3015973	-2658196	1	4020211	-41.39207	-1.099057E-009	0.0006613	5
	32	245	189.0121	3663209	-2733332	1	4570580	-36.72875	-1.047554E-009	0.0006269	5
	33	248	150.2404	4225121	-2509279	1	4914075	-30.70588	-1.043674E-009	0.0006072	5
	34	251	119.1737	4082947	-2277353	1	4675125	-29.15155	-1.025811E-009	0.0006029	5
	35	254	95.0169	5219516	-2138654	1	5640673	-22.28097	-1.106213E-009	0.0007139	5
	36	257	75.60484	5601296	-1880755	1	5908617	-18.56057	-9.724671E-010	0.0005971	5
	37	259	54.50582	6005919	-1568479	1	6207350	-14.63621	-1.073506E-009	0.0006682	5
	38	263	45.95588	6709035	-807230.4	1	6757424	-6.860842	-1.058061E-010	0.0006856	4
	39	265	37.20238	6813271	-723522.3	1	6851580	-6.061698	-7.694546E-011	0.000624	4
	40	268	30.04808	6869980	-555831.5	1	6892429	-4.625571	-8.053826E-011	0.0005964	4
	41	271	23.91582	6902957	-510462	1	6921805	-4.229228	-1.219756E-010	0.0005978	4
	42	274	18.60119	7273820	-566295.3	1	7295831	-4.45172	-3.112916E-010	0.0006984	4
	43	276	15.02404	7137548	-472061.8	1	7153142	-3.783907	-1.698534E-010	0.0006775	4
	44	278	12.01923	7254270	-508079	1	7272041	-4.006374	-1.088419E-010	0.0006669	4
	45	281	9.450605	7408397	-545311.5	1	7428440	-4.209791	-9.238747E-011	0.0006617	4
	46	284	7.512019	7526840	-574725.9	1	7548750	-4.366453	-1.550716E-010	0.0006354	4
	47	287	5.978954	7718879	-643518.3	1	7745658	-4.765694	-1.67645E-010	0.0006337	4
	48	291	4.734848	7957431	-734906.2	1	7991295	-5.276567	-7.355637E-011	0.0006381	4
	49	296	3.75601	8271426	-850287.3	1	8315015	-5.869283	-2.604217E-011	0.0006211	4
	50	302	3.004808	8599399	-978822	1	8654927	-6.493713	-1.218984E-010	0.0006255	4
	51	308	2.372217	8959702	-1143643	1	9032396	-7.274068	-3.011879E-011	0.0006203	4
	52	312	1.878005	9304033	-1324551	1	9397844	-8.102358	-1.246035E-012	0.0006327	4
	53	317	1.512097	9.689423E+006	-1517409	1	9.80752E+006	-8.900495	-3.052927E-011	0.0006835	4
	54	322	1.201923	1.015271E+007	-1769425	1	1.030575E+007	-9.88627	-3.298676E-011	0.0006572	4
	55	329	0.956633	1.071758E+007	-2039499	1	1.09099E+007	-10.77427	-2.74658E-010	9.553511E-006	4
