EXPLAIN
TAG	EISPOT
TITLE	LABEL	Potentiostatic EIS	Test Identifier
DATE	LABEL	8/21/2020	Date
TIME	LABEL	21:10:46	Time
NOTES	NOTES	1	Notes...
	
PSTAT	PSTAT	REF3000-16137	Potentiostat
VDC	POTEN	0.00000E+000	T	DC Voltage (V)
FREQINIT	QUANT	3.00000E+005	Initial Freq. (Hz)
FREQFINAL	QUANT	1.00000E+000	Final Freq. (Hz)
PTSPERDEC	QUANT	1.00000E+001	Points/decade
VAC	QUANT	5.00000E+001	AC Voltage (mV rms)
AREA	QUANT	1.00000E+000	Sample Area (cm^2)
SPEED	SELECTOR	2	Optimize for:
ZGUESS	QUANT	1.00000E+003	Estimated Z (ohms)
EOC	QUANT	0	Open Circuit (V)
SEQUENCER	TOGGLE	TRUE	Run as Sequence
PSTATMODEL	IQUANT	5	Pstat Model
PSTATSECTION	LABEL	REF3000-16137	Pstat Section
PSTATSERIALNO	LABEL	16137	Pstat Serial Number
CTRLMODE	IQUANT	1	Control Mode
IESTAB	IQUANT	0	I/E Stability
CASPEED	IQUANT	1	Control Amp Speed
CONVENTION	IQUANT	1	Current Convention
ICHRANGE	IQUANT	2	Ich Range
ICHRANGEMODE	TOGGLE	F	Ich Auto Range
ICHOFFSETENABLE	TOGGLE	T	Ich Offset Enable
ICHOFFSET	QUANT	0	Ich Offset (V)
ICHFILTER	IQUANT	3	Ich Filter
VCHRANGE	IQUANT	2	Vch Range
VCHRANGEMODE	TOGGLE	F	Vch Auto Range
VCHOFFSETENABLE	TOGGLE	T	Vch Offset Enable
VCHOFFSET	QUANT	0	Vch Offset (V)
VCHFILTER	IQUANT	3	Vch Filter
ACHRANGE	IQUANT	2	Ach Range
ACHOFFSETENABLE	TOGGLE	F	Ach Offset Enable
ACHOFFSET	QUANT	0	Ach Offset (V)
ACHFILTER	IQUANT	3	Ach Filter
IERANGELOWERLIMIT	IQUANT	2	I/E Range Lower Limit
IERANGEMODE	TOGGLE	F	I/E AutoRange
IERANGE	IQUANT	11	I/E Range
POSFEEDENABLE	TOGGLE	F	Positive Feedback IR Comp
POSFEEDRESISTANCE	QUANT	0	Positive Feedback Resistance (ohm)
ACHSELECT	IQUANT	0	Ach Select
CABLEID	IQUANT	13	Cable ID
DCCALDATE	LABEL	7/31/2020	DC Calibration Date
ACCALDATE	LABEL	7/31/2020	AC Calibration Date
THERMOSELECT	IQUANT	1	Thermo Select
FRAMEWORKVERSION	QUANT	6.33	Framework Version
INSTRUMENTVERSION	LABEL	3.50	Instrument Version
COMPLIANCEVOLTAGE	IQUANT	0	Compliance Voltage
ZCURVE	TABLE
	Pt	Time	Freq	Zreal	Zimag	Zsig	Zmod	Zphz	Idc	Vdc	IERange
	#	s	Hz	ohm	ohm	V	ohm	°	A	V	#
	0	7	300046.9	78.98609	-5.008154	1	79.14471	-3.628012	1.280639E-005	-0.0014959	9
	1	10	238359.4	79.68203	-6.389318	1	79.93778	-4.584464	4.506265E-005	-0.0007969	9
	2	13	189328.1	80.45535	-8.004336	1	80.85254	-5.681542	-6.341713E-005	0.0023818	9
	3	15	150421.9	81.3903	-9.85945	1	81.98531	-6.907034	-4.145112E-007	0.0010119	9
	4	18	119484.4	82.55794	-11.76396	1	83.39187	-8.109674	-7.828548E-006	0.0008419	9
	5	21	94921.88	83.86616	-13.73466	1	84.98337	-9.300702	1.25041E-005	0.0001004	9
	6	23	75421.88	85.23187	-16.37775	1	86.79115	-10.8771	-1.125604E-005	0.0006761	9
	7	26	59859.37	86.78895	-19.28426	1	88.90559	-12.52744	-1.756419E-005	0.0007402	9
	8	28	47578.12	88.51186	-22.64028	1	91.36154	-14.34794	-3.160915E-006	-0.0002038	9
	9	31	37828.12	90.33378	-26.62895	1	94.17692	-16.42467	2.273483E-005	-0.0004103	9
	10	33	30046.88	92.30927	-31.23223	1	97.4498	-18.69291	1.910802E-005	-0.0006918	9
	11	36	23859.38	94.3018	-36.76929	1	101.2166	-21.30135	-1.961708E-005	0.0006914	9
	12	38	18984.38	96.2609	-43.60439	1	105.6764	-24.36963	-1.638078E-005	0.0004233	9
	13	40	15046.87	98.4204	-52.19661	1	111.405	-27.93894	-1.259171E-005	0.0008491	9
	14	43	11953.13	100.3035	-62.76711	1	118.3237	-32.03718	2.19754E-005	-0.0002598	9
	15	45	9515.62	102.1083	-75.93607	1	127.2493	-36.63751	1.778098E-005	-0.0006467	9
	16	47	7546.875	104.2026	-92.87875	1	139.5874	-41.71152	1.735062E-005	-0.000123	9
	17	50	5928.309	106.2246	-115.1132	1	156.6357	-47.29968	2.185619E-005	-0.000278	9
	18	52	4733.456	108.2921	-141.3313	1	178.0498	-52.53961	2.189674E-005	-0.000285	9
	19	54	3796.875	110.4332	-173.5918	1	205.7416	-57.53687	-1.621321E-005	0.0007583	9
	20	57	2987.132	114.4266	-216.9281	1	245.2575	-62.18897	4.945849E-006	-0.0004287	9
	21	59	2390.625	118.4921	-267.3481	1	292.4301	-66.09647	-1.584936E-005	0.0004193	9
	22	61	1884.191	123.5272	-336.2699	1	358.2408	-69.82942	-1.83522E-005	0.0004878	9
	23	63	1516.544	127.7626	-413.2418	1	432.5414	-72.81989	2.337073E-005	-0.000439	9
	24	66	1193.986	134.9959	-517.5314	1	534.8482	-75.3804	6.005257E-006	-0.0008373	8
	25	68	946.5144	145.1477	-645.9464	1	662.0533	-77.33568	2.796136E-006	-0.0009945	8
	26	71	751.7689	155.6431	-807.0442	1	821.9155	-79.0842	2.826553E-006	0.0008692	8
	27	73	597.4265	171.3752	-1006.639	1	1021.123	-80.33832	4.663073E-006	8.024446E-005	8
	28	75	477.4305	191.404	-1246.087	1	1260.702	-81.26739	2.75653E-007	0.0006474	8
	29	78	376.6741	218.5218	-1563.583	1	1578.779	-82.04404	2.701413E-007	0.0006432	8
	30	80	298.2954	253.5289	-1954.222	1	1970.599	-82.60808	2.780047E-007	0.0006507	8
	31	82	237.7717	298.7473	-2426.428	1	2444.75	-82.98094	2.740618E-007	0.0006469	8
	32	85	189.0121	358.7761	-3020.288	1	3041.522	-83.22565	2.700408E-007	0.0006877	8
	33	87	150.2404	438.5042	-3755.555	1	3781.068	-83.34022	2.656727E-007	0.000649	8
	34	89	119.1737	549.7484	-4686.349	1	4718.484	-83.3093	2.749312E-008	0.0006232	7
	35	92	95.0169	688.4265	-5802.413	1	5843.109	-83.23378	2.239704E-008	0.000626	7
	36	94	75.60484	875.3574	-7190.771	1	7243.855	-83.05934	2.169158E-008	0.0006293	7
	37	97	54.50582	1248.213	-9756.57	1	9836.1	-82.70943	2.38709E-008	0.0006175	7
	38	99	45.95588	1514.127	-11436.46	1	11536.26	-82.45821	2.750373E-008	0.0006263	7
	39	102	37.20238	1925.979	-13908.01	1	14040.73	-82.11583	2.434463E-008	0.000629	7
	40	104	30.04808	2457.215	-16942.81	1	17120.07	-81.74793	2.133736E-008	0.0006248	7
	41	107	23.91582	3205.558	-20891.02	1	21135.52	-81.27647	2.500208E-008	0.0006221	7
	42	109	18.60119	4343.173	-26252.31	1	26609.15	-80.60609	2.181914E-008	0.0006312	7
	43	111	15.02404	5634.137	-31889.15	1	32383.04	-79.98045	2.958649E-008	0.0006292	7
	44	113	12.01923	7517.435	-38982.33	1	39700.55	-79.08495	2.217932E-008	0.0006169	7
	45	116	9.450605	10262.24	-48244.54	1	49323.91	-77.99142	1.192786E-009	0.0006672	6
	46	118	7.512019	13883.2	-58914.21	1	60527.9	-76.7401	1.373393E-009	0.0006578	6
	47	121	5.978954	18746.08	-71524.81	1	73940.62	-75.31357	1.977067E-009	0.0006641	6
	48	124	4.734848	25505.27	-86718.3	1	90391.27	-73.61053	3.904024E-009	0.0006624	6
	49	127	3.75601	34251.29	-104116.5	1	109605.7	-71.79031	2.907648E-009	0.0006705	6
	50	131	3.004808	45117.84	-123035	1	131046.6	-69.86163	4.498425E-009	0.0006342	6
	51	136	2.372217	59470.13	-145635.1	1	157309.5	-67.78734	2.732974E-009	0.0006393	6
	52	140	1.878005	77338.86	-170243	1	186986.5	-65.56841	2.937171E-009	0.0006725	6
	53	145	1.512097	96425.5	-195181.8	1	217701.2	-63.70927	3.505732E-009	0.0005624	6
	54	151	1.201923	119598	-224318.2	1	254209.2	-61.93513	2.942133E-009	0.0006802	6
	55	157	0.956633	145228.7	-256177.4	1	294479.6	-60.45081	2.630644E-009	2.817369E-005	6
